timestamp,value
00.000,-6.51
00.015,-4.04
00.031,-1.13
00.046,1.56
00.062,3.83
00.078,5.77
00.093,7.73
00.109,9.91
00.125,12.23
00.140,14.28
00.156,15.49
00.171,15.35
00.187,13.56
00.203,10.17
00.218,5.39
00.234,-0.48
00.250,-7.13
00.265,-14.39
00.281,-22.17
00.296,-30.53
00.312,-39.49
00.328,-48.93
00.343,-58.35
00.359,-66.77
00.375,-72.85
00.390,-75.26
00.406,-73.14
00.421,-66.56
00.437,-56.61
00.453,-45.03
00.468,-33.61
00.484,-23.57
00.500,-15.23
00.515,-8.15
00.531,-1.48
00.546,5.53
00.562,13.25
00.578,21.51
00.593,29.78
00.609,37.4
00.625,43.78
00.640,48.63
00.656,51.84
00.671,53.5
00.687,53.71
00.703,52.69
00.718,50.78
00.734,48.46
00.750,46.26
00.765,44.64
00.781,43.78
00.796,43.5
00.812,43.36
00.828,42.89
00.843,41.76
00.859,39.86
00.875,37.3
00.890,34.27
00.906,30.94
00.921,27.44
00.937,23.78
00.953,19.99
00.968,16.01
00.984,11.75
01.000,7.12
01.015,2.11
01.031,-3.21
01.046,-8.8
01.062,-14.79
01.078,-21.53
01.093,-29.49
01.109,-38.88
01.125,-49.32
01.140,-59.62
01.156,-68.0
01.171,-72.53
01.187,-71.85
01.203,-65.62
01.218,-54.63
01.234,-40.61
01.250,-25.63
01.265,-11.54
01.281,0.46
01.296,9.95
01.312,17.05
01.328,22.21
01.343,25.94
01.359,28.58
01.375,30.46
01.390,31.9
01.406,33.24
01.421,34.77
01.437,36.71
01.453,39.16
01.468,42.11
01.484,45.49
01.500,49.17
01.515,52.97
01.531,56.61
01.546,59.67
01.562,61.77
01.578,62.81
01.593,63.21
01.609,63.92
01.625,66.2
01.640,71.13
01.656,79.29
01.671,90.53
01.687,104.02
01.703,118.36
01.718,131.75
01.734,142.1
01.750,147.25
01.765,145.48
01.781,135.83
01.796,118.44
01.812,94.46
01.828,65.65
01.843,33.9
01.859,0.94
01.875,-31.68
01.890,-62.2
01.906,-88.42
01.921,-107.83
01.937,-118.07
01.953,-117.7
01.968,-106.69
01.984,-86.41
02.000,-59.23
02.015,-27.87
02.031,5.06
02.046,37.25
02.062,66.42
02.078,90.24
02.093,106.54
02.109,113.7
02.125,111.32
02.140,100.49
02.156,83.57
02.171,63.54
02.187,43.22
02.203,24.77
02.218,9.54
02.234,-1.77
02.250,-9.08
02.265,-12.83
02.281,-14.05
02.296,-14.2
02.312,-14.81
02.328,-16.9
02.343,-20.74
02.359,-25.83
02.375,-31.31
02.390,-36.39
02.406,-40.63
02.421,-43.94
02.437,-46.4
02.453,-48.12
02.468,-49.19
02.484,-49.85
02.500,-50.53
02.515,-51.8
02.531,-54.25
02.546,-58.21
02.562,-63.65
02.578,-70.16
02.593,-76.91
02.609,-82.93
02.625,-87.46
02.640,-90.2
02.656,-91.56
02.671,-92.58
02.687,-94.52
02.703,-98.33
02.718,-104.29
02.734,-111.81
02.750,-119.55
02.765,-125.8
02.781,-128.86
02.796,-127.39
02.812,-120.67
02.828,-108.66
02.843,-92.16
02.859,-72.6
02.875,-51.74
02.890,-31.31
02.906,-12.58
02.921,3.79
02.937,17.72
02.953,29.51
02.968,39.52
02.984,48.09
03.000,55.39
03.015,61.56
03.031,66.71
03.046,70.9
03.062,74.15
03.078,76.43
03.093,77.66
03.109,77.87
03.125,77.23
03.140,76.02
03.156,74.64
03.171,73.41
03.187,72.45
03.203,71.66
03.218,70.7
03.234,69.22
03.250,66.93
03.265,63.81
03.281,60.01
03.296,55.79
03.312,51.29
03.328,46.56
03.343,41.47
03.359,35.85
03.375,29.65
03.390,22.97
03.406,16.07
03.421,9.25
03.437,2.76
03.453,-3.3
03.468,-9.03
03.484,-14.68
03.500,-20.65
03.515,-27.4
03.531,-35.35
03.546,-44.68
03.562,-55.11
03.578,-65.76
03.593,-75.2
03.609,-81.73
03.625,-83.82
03.640,-80.6
03.656,-72.07
03.671,-59.11
03.687,-43.18
03.703,-25.9
03.718,-8.75
03.734,7.14
03.750,21.11
03.765,32.84
03.781,42.43
03.796,50.2
03.812,56.54
03.828,61.77
03.843,66.02
03.859,69.16
03.875,71.0
03.890,71.36
03.906,70.21
03.921,67.69
03.937,64.14
03.953,60.06
03.968,56.0
03.984,52.44
04.000,49.64
04.015,47.59
04.031,46.0
04.046,44.39
04.062,42.33
04.078,39.56
04.093,36.14
04.109,32.32
04.125,28.35
04.140,24.39
04.156,20.38
04.171,16.1
04.187,11.34
04.203,5.96
04.218,-0.02
04.234,-6.39
04.250,-12.86
04.265,-19.06
04.281,-24.72
04.296,-29.72
04.312,-34.27
04.328,-38.81
04.343,-43.95
04.359,-50.21
04.375,-57.71
04.390,-65.89
04.406,-73.53
04.421,-78.96
04.437,-80.61
04.453,-77.52
04.468,-69.6
04.484,-57.6
04.500,-42.76
04.515,-26.46
04.531,-9.91
04.546,5.84
04.562,20.0
04.578,31.94
04.593,41.35
04.609,48.37
04.625,53.52
04.640,57.5
04.656,60.95
04.671,64.1
04.687,66.75
04.703,68.38
04.718,68.5
04.734,66.91
04.750,63.86
04.765,59.94
04.781,55.88
04.796,52.32
04.812,49.57
04.828,47.62
04.843,46.14
04.859,44.76
04.875,43.16
04.890,41.23
04.906,38.96
04.921,36.35
04.937,33.21
04.953,29.27
04.968,24.24
04.984,17.96
05.000,10.6
05.015,2.51
05.031,-5.86
05.046,-14.14
05.062,-22.18
05.078,-30.01
05.093,-37.84
05.109,-45.86
05.125,-54.28
05.140,-63.2
05.156,-72.59
05.171,-82.16
05.187,-91.27
05.203,-98.83
05.218,-103.49
05.234,-104.0
05.250,-99.57
05.265,-90.3
05.281,-77.06
05.296,-61.27
05.312,-44.4
05.328,-27.64
05.343,-11.79
05.359,2.68
05.375,15.44
05.390,26.29
05.406,35.15
05.421,42.12
05.437,47.5
05.453,51.64
05.468,54.84
05.484,57.22
05.500,58.72
05.515,59.15
05.531,58.32
05.546,56.21
05.562,52.97
05.578,49.01
05.593,44.89
05.609,41.17
05.625,38.2
05.640,35.99
05.656,34.16
05.671,32.22
05.687,29.74
05.703,26.64
05.718,23.14
05.734,19.58
05.750,16.12
05.765,12.68
05.781,8.86
05.796,4.22
05.812,-1.54
05.828,-8.36
05.843,-15.85
05.859,-23.52
05.875,-30.89
05.890,-37.76
05.906,-44.18
05.921,-50.4
05.937,-56.77
05.953,-63.62
05.968,-71.15
05.984,-79.2
06.000,-86.98
06.015,-92.91
06.031,-94.78
06.046,-90.29
06.062,-77.87
06.078,-57.36
06.093,-30.21
06.109,0.91
06.125,33.03
06.140,63.74
06.156,91.53
06.171,115.63
06.187,135.45
06.203,150.2
06.218,159.0
06.234,161.34
06.250,157.6
06.265,149.12
06.281,137.85
06.296,125.46
06.312,112.89
06.328,100.19
06.343,87.0
06.359,73.17
06.375,59.16
06.390,45.89
06.406,34.24
06.421,24.58
06.437,16.62
06.453,9.73
06.468,3.35
06.484,-2.56
06.500,-7.63
06.515,-11.28
06.531,-13.18
06.546,-13.69
06.562,-13.83
06.578,-15.13
06.593,-18.99
06.609,-26.1
06.625,-35.94
06.640,-46.85
06.656,-56.58
06.671,-63.14
06.687,-65.58
06.703,-64.19
06.718,-60.22
06.734,-55.25
06.750,-50.66
06.765,-47.38
06.781,-45.92
06.796,-46.58
06.812,-49.2
06.828,-53.03
06.843,-56.6
06.859,-57.99
06.875,-55.45
06.890,-48.09
06.906,-36.29
06.921,-21.56
06.937,-5.94
06.953,8.68
06.968,21.05
06.984,30.73
07.000,37.88
07.015,43.07
07.031,46.98
07.046,50.19
07.062,53.11
07.078,55.87
07.093,58.39
07.109,60.51
07.125,62.11
07.140,63.28
07.156,64.24
07.171,65.36
07.187,66.93
07.203,69.03
07.218,71.37
07.234,73.24
07.250,73.69
07.265,71.83
07.281,67.29
07.296,60.28
07.312,51.64
07.328,42.52
07.343,33.97
07.359,26.58
07.375,20.42
07.390,15.04
07.406,9.69
07.421,3.62
07.437,-3.77
07.453,-12.69
07.468,-22.99
07.484,-34.12
07.500,-45.31
07.515,-55.76
07.531,-64.8
07.546,-71.99
07.562,-77.29
07.578,-81.0
07.593,-83.75
07.609,-86.39
07.625,-89.57
07.640,-93.37
07.656,-97.0
07.671,-98.95
07.687,-97.42
07.703,-91.2
07.718,-80.2
07.734,-65.56
07.750,-49.18
07.765,-32.87
07.781,-17.56
07.796,-3.13
07.812,11.29
07.828,26.54
07.843,42.84
07.859,59.66
07.875,75.95
07.890,90.56
07.906,102.43
07.921,110.58
07.937,113.82
07.953,110.79
07.968,100.39
07.984,82.39
08.000,58.02
08.015,30.0
08.031,1.84
08.046,-23.1
08.062,-42.58
08.078,-55.92
08.093,-63.69
08.109,-67.15
08.125,-67.48
08.140,-65.45
08.156,-61.33
08.171,-55.24
08.187,-47.44
08.203,-38.51
08.218,-29.49
08.234,-21.69
08.250,-16.39
08.265,-14.61
08.281,-16.79
08.296,-22.74
08.312,-31.53
08.328,-41.83
08.343,-52.17
08.359,-61.41
08.375,-69.17
08.390,-75.82
08.406,-82.31
08.421,-89.54
08.437,-97.79
08.453,-106.34
08.468,-113.49
08.484,-117.06
08.500,-115.2
08.515,-107.02
08.531,-92.99
08.546,-74.74
08.562,-54.58
08.578,-34.86
08.593,-17.38
08.609,-3.12
08.625,7.71
08.640,15.48
08.656,20.84
08.671,24.53
08.687,27.2
08.703,29.39
08.718,31.28
08.734,32.77
08.750,33.49
08.765,32.96
08.781,30.95
08.796,27.61
08.812,23.5
08.828,19.38
08.843,15.95
08.859,13.62
08.875,12.37
08.890,11.89
08.906,11.69
08.921,11.27
08.937,10.26
08.953,8.49
08.968,5.99
08.984,2.96
09.000,-0.36
09.015,-3.84
09.031,-7.51
09.046,-11.5
09.062,-15.84
09.078,-20.31
09.093,-24.47
09.109,-27.82
09.125,-30.12
09.140,-31.57
09.156,-32.74
09.171,-34.4
09.187,-37.18
09.203,-41.37
09.218,-46.96
09.234,-53.62
09.250,-60.68
09.265,-67.18
09.281,-71.87
09.296,-73.44
09.312,-70.98
09.328,-64.44
09.343,-54.72
09.359,-43.58
09.375,-32.92
09.390,-24.19
09.406,-17.9
09.421,-13.67
09.437,-10.58
09.453,-7.68
09.468,-4.48
09.484,-0.95
09.500,2.54
09.515,5.52
09.531,7.63
09.546,8.79
09.562,9.14
09.578,8.99
09.593,8.67
09.609,8.39
09.625,8.23
09.640,8.19
09.656,8.21
09.671,8.18
09.687,8.08
09.703,7.82
09.718,7.28
09.734,6.23
09.750,4.48
09.765,1.85
09.781,-1.7
09.796,-6.12
09.812,-11.31
09.828,-17.17
09.843,-23.62
09.859,-30.46
09.875,-37.28
09.890,-43.42
09.906,-48.02
09.921,-50.24
09.937,-49.52
09.953,-45.8
09.968,-39.66
09.984,-32.27
10.000,-25.06
10.015,-19.45
10.031,-16.35
10.046,-15.93
10.062,-17.51
10.078,-19.76
10.093,-21.08
10.109,-19.98
10.125,-15.45
10.140,-7.18
10.156,4.43
10.171,18.36
10.187,33.34
10.203,48.03
10.218,61.43
10.234,72.98
10.250,82.56
10.265,90.49
10.281,97.32
10.296,103.52
10.312,109.32
10.328,114.56
10.343,118.79
10.359,121.49
10.375,122.32
10.390,121.31
10.406,118.82
10.421,115.43
10.437,111.68
10.453,107.99
10.468,104.65
10.484,101.88
10.500,99.83
10.515,98.46
10.531,97.33
10.546,95.52
10.562,91.9
10.578,85.51
10.593,76.03
10.609,63.92
10.625,50.13
10.640,35.67
10.656,21.21
10.671,6.94
10.687,-7.17
10.703,-21.09
10.718,-34.56
10.734,-47.23
10.750,-59.09
10.765,-70.75
10.781,-83.34
10.796,-98.0
10.812,-115.14
10.828,-134.15
10.843,-153.41
10.859,-171.03
10.875,-185.39
10.890,-195.66
10.906,-201.62
10.921,-203.36
10.937,-200.88
10.953,-194.09
10.968,-183.04
10.984,-168.2
11.000,-150.54
11.015,-131.28
11.031,-111.57
11.046,-92.34
11.062,-74.38
11.078,-58.44
11.093,-45.32
11.109,-35.53
11.125,-28.94
11.140,-24.53
11.156,-20.6
11.171,-15.28
11.187,-7.22
11.203,3.95
11.218,17.73
11.234,33.36
11.250,50.43
11.265,69.32
11.281,91.14
11.296,116.94
11.312,146.88
11.328,179.74
11.343,212.96
11.359,243.55
11.375,269.21
11.390,289.13
11.406,304.26
11.421,316.7
11.437,328.67
11.453,341.51
11.468,355.09
11.484,367.86
11.500,377.49
11.515,381.67
11.531,378.89
11.546,368.86
11.562,352.48
11.578,331.4
11.593,307.34
11.609,281.58
11.625,254.66
11.640,226.57
11.656,197.18
11.671,166.74
11.687,136.01
11.703,106.05
11.718,77.59
11.734,50.64
11.750,24.27
11.765,-3.13
11.781,-33.1
11.796,-66.72
11.812,-104.37
11.828,-145.65
11.843,-189.44
11.859,-233.45
11.875,-273.89
11.890,-305.72
11.906,-323.7
11.921,-324.02
11.937,-305.96
11.953,-272.53
11.968,-229.63
11.984,-183.98
12.000,-140.8
12.015,-102.61
12.031,-69.51
12.046,-40.71
12.062,-16.23
12.078,2.58
12.093,13.79
12.109,16.55
12.125,12.16
12.140,3.9
12.156,-4.66
12.171,-11.61
12.187,-17.93
12.203,-27.06
12.218,-43.22
12.234,-69.32
12.250,-105.64
12.265,-149.76
12.281,-197.47
12.296,-243.92
12.312,-284.43
12.328,-314.76
12.343,-331.6
12.359,-333.09
12.375,-319.61
12.390,-294.19
12.406,-262.21
12.421,-230.3
12.437,-204.68
12.453,-189.82
12.468,-187.85
12.484,-198.79
12.500,-221.16
12.515,-252.37
12.531,-288.75
12.546,-325.45
12.562,-356.58
12.578,-376.26
12.593,-380.1
12.609,-366.84
12.625,-338.9
12.640,-301.68
12.656,-261.7
12.671,-224.43
12.687,-192.96
12.703,-167.79
12.718,-147.7
12.734,-130.93
12.750,-116.0
12.765,-101.91
12.781,-87.86
12.796,-72.99
12.812,-56.42
12.828,-37.41
12.843,-15.65
12.859,8.7
12.875,35.13
12.890,62.97
12.906,91.82
12.921,121.78
12.937,153.76
12.953,189.13
12.968,228.89
12.984,272.45
13.000,316.79
13.015,356.7
13.031,386.21
13.046,400.85
13.062,399.32
13.078,383.98
13.093,359.52
13.109,330.98
13.125,301.89
13.140,273.7
13.156,246.41
13.171,219.71
13.187,193.77
13.203,169.15
13.218,146.13
13.234,124.14
13.250,101.91
13.265,78.33
13.281,53.29
13.296,28.06
13.312,4.91
13.328,-13.72
13.343,-26.22
13.359,-32.3
13.375,-32.9
13.390,-29.72
13.406,-24.51
13.421,-18.5
13.437,-12.15
13.453,-5.29
13.468,2.59
13.484,11.83
13.500,22.37
13.515,33.57
13.531,44.46
13.546,54.04
13.562,61.57
13.578,66.83
13.593,69.95
13.609,71.3
13.625,71.2
13.640,69.83
13.656,67.25
13.671,63.52
13.687,58.9
13.703,53.91
13.718,49.25
13.734,45.66
13.750,43.56
13.765,42.8
13.781,42.5
13.796,41.21
13.812,37.41
13.828,29.96
13.843,18.58
13.859,3.84
13.875,-12.99
13.890,-30.4
13.906,-47.05
13.921,-61.98
13.937,-74.85
13.953,-85.98
13.968,-96.21
13.984,-106.68
14.000,-118.06
14.015,-130.04
14.031,-140.93
14.046,-148.08
14.062,-148.8
14.078,-141.52
14.093,-126.57
14.109,-106.08
14.125,-83.14
14.140,-60.68
14.156,-40.6
14.171,-23.66
14.187,-9.91
14.203,0.78
14.218,8.33
14.234,12.65
14.250,13.96
14.265,13.02
14.281,11.11
14.296,9.49
14.312,8.99
14.328,9.75
14.343,11.29
14.359,12.94
14.375,14.17
14.390,14.89
14.406,15.38
14.421,16.01
14.437,17.02
14.453,18.38
14.468,19.99
14.484,21.76
14.500,23.7
14.515,25.89
14.531,28.27
14.546,30.58
14.562,32.45
14.578,33.66
14.593,34.35
14.609,35.05
14.625,36.28
14.640,38.24
14.656,40.47
14.671,41.98
14.687,41.47
14.703,37.79
14.718,30.13
14.734,18.18
14.750,2.1
14.765,-17.23
14.781,-38.05
14.796,-57.67
14.812,-72.95
14.828,-81.2
14.843,-81.16
14.859,-73.53
14.875,-60.68
14.890,-45.78
14.906,-31.5
14.921,-19.34
14.937,-9.47
14.953,-1.33
14.968,5.8
14.984,12.3
15.000,18.2
15.015,23.48
15.031,28.27
15.046,32.91
15.062,37.7
15.078,42.75
15.093,47.83
15.109,52.56
15.125,56.56
15.140,59.76
15.156,62.36
15.171,64.67
15.187,66.86
15.203,68.77
15.218,69.86
15.234,69.38
15.250,66.77
15.265,61.76
15.281,54.54
15.296,45.57
15.312,35.44
15.328,24.7
15.343,13.78
15.359,2.94
15.375,-7.67
15.390,-18.04
15.406,-28.2
15.421,-38.3
15.437,-48.48
15.453,-58.81
15.468,-69.3
15.484,-79.86
15.500,-90.23
15.515,-99.8
15.531,-107.6
15.546,-112.25
15.562,-112.44
15.578,-107.28
15.593,-96.77
15.609,-81.88
15.625,-64.24
15.640,-45.55
15.656,-27.17
15.671,-9.88
15.687,6.02
15.703,20.4
15.718,33.14
15.734,44.07
15.750,53.08
15.765,60.29
15.781,66.01
15.796,70.63
15.812,74.36
15.828,77.18
15.843,78.81
15.859,78.91
15.875,77.34
15.890,74.19
15.906,69.83
15.921,64.79
15.937,59.59
15.953,54.69
15.968,50.42
15.984,46.94
16.000,44.25
16.015,42.1
16.031,40.03
16.046,37.42
16.062,33.74
16.078,28.73
16.093,22.55
16.109,15.74
16.125,9.02
16.140,3.0
16.156,-2.16
16.171,-6.8
16.187,-11.61
16.203,-17.39
16.218,-24.65
16.234,-33.27
16.250,-42.48
16.265,-51.01
16.281,-57.39
16.296,-60.33
16.312,-59.02
16.328,-53.28
16.343,-43.59
16.359,-31.0
16.375,-16.95
16.390,-2.98
16.406,9.57
16.421,19.9
16.437,27.83
16.453,33.72
16.468,38.22
16.484,41.89
16.500,45.01
16.515,47.5
16.531,49.11
16.546,49.58
16.562,48.86
16.578,47.12
16.593,44.63
16.609,41.68
16.625,38.51
16.640,35.28
16.656,32.17
16.671,29.43
16.687,27.27
16.703,25.79
16.718,24.76
16.734,23.67
16.750,21.81
16.765,18.6
16.781,13.85
16.796,7.84
16.812,1.24
16.828,-5.24
16.843,-11.04
16.859,-15.93
16.875,-20.04
16.890,-23.69
16.906,-27.42
16.921,-31.83
16.937,-37.54
16.953,-44.86
16.968,-53.61
16.984,-62.89
17.000,-71.16
17.015,-76.64
17.031,-77.8
17.046,-73.87
17.062,-65.08
17.078,-52.56
17.093,-37.95
17.109,-22.93
17.125,-8.86
17.140,3.38
17.156,13.46
17.171,21.42
17.187,27.58
17.203,32.45
17.218,36.59
17.234,40.47
17.250,44.24
17.265,47.72
17.281,50.38
17.296,51.64
17.312,51.13
17.328,48.96
17.343,45.68
17.359,42.03
17.375,38.71
17.390,36.08
17.406,34.18
17.421,32.9
17.437,32.03
17.453,31.31
17.468,30.44
17.484,28.96
17.500,26.44
17.515,22.6
17.531,17.46
17.546,11.38
17.562,4.88
17.578,-1.58
17.593,-7.69
17.609,-13.36
17.625,-18.69
17.640,-23.94
17.656,-29.47
17.671,-35.68
17.687,-42.86
17.703,-50.91
17.718,-59.23
17.734,-66.75
17.750,-72.09
17.765,-74.03
17.781,-71.8
17.796,-65.4
17.812,-55.52
17.828,-43.3
17.843,-29.97
17.859,-16.65
17.875,-4.21
17.890,6.81
17.906,16.09
17.921,23.52
17.937,29.2
17.953,33.45
17.968,36.64
17.984,39.16
18.000,41.24
18.015,42.9
18.031,44.05
18.046,44.5
18.062,44.19
18.078,43.11
18.093,41.39
18.109,39.18
18.125,36.63
18.140,33.96
18.156,31.38
18.171,29.14
18.187,27.47
18.203,26.4
18.218,25.76
18.234,25.14
18.250,23.97
18.265,21.64
18.281,17.81
18.296,12.48
18.312,6.1
18.328,-0.57
18.343,-6.75
18.359,-11.93
18.375,-16.06
18.390,-19.52
18.406,-22.98
18.421,-27.17
18.437,-32.64
18.453,-39.64
18.468,-47.97
18.484,-56.84
18.500,-64.93
18.515,-70.59
18.531,-72.2
18.546,-68.75
18.562,-60.25
18.578,-47.89
18.593,-33.58
18.609,-19.32
18.625,-6.58
18.640,4.07
18.656,12.85
18.671,20.28
18.687,26.78
18.703,32.48
18.718,37.3
18.734,41.18
18.750,44.26
18.765,46.73
18.781,48.64
18.796,49.8
18.812,49.81
18.828,48.36
18.843,45.55
18.859,41.88
18.875,38.09
18.890,34.75
18.906,32.06
18.921,29.85
18.937,27.87
18.953,25.95
18.968,24.12
18.984,22.48
19.000,20.95
19.015,19.22
19.031,16.77
19.046,13.15
19.062,8.14
19.078,1.94
19.093,-4.92
19.109,-11.74
19.125,-17.9
19.140,-23.11
19.156,-27.46
19.171,-31.4
19.187,-35.61
19.203,-40.75
19.218,-47.12
19.234,-54.62
19.250,-62.56
19.265,-69.81
19.281,-75.04
19.296,-76.99
19.312,-74.77
19.328,-68.19
19.343,-57.83
19.359,-44.95
19.375,-31.15
19.390,-17.91
19.406,-6.23
19.421,3.49
19.437,11.39
19.453,17.82
19.468,23.15
19.484,27.63
19.500,31.37
19.515,34.39
19.531,36.63
19.546,38.07
19.562,38.67
19.578,38.48
19.593,37.64
19.609,36.33
19.625,34.72
19.640,32.89
19.656,30.88
19.671,28.74
19.687,26.56
19.703,24.48
19.718,22.58
19.734,20.86
19.750,19.18
19.765,17.32
19.781,15.08
19.796,12.26
19.812,8.76
19.828,4.56
19.843,-0.3
19.859,-5.63
19.875,-11.16
19.890,-16.49
19.906,-21.28
19.921,-25.45
19.937,-29.22
19.953,-33.14
19.968,-37.84
19.984,-43.79
20.000,-50.94
20.015,-58.61
20.031,-65.57
20.046,-70.28
20.062,-71.4
20.078,-68.22
20.093,-60.82
20.109,-50.05
20.125,-37.25
20.140,-23.86
20.156,-11.12
20.171,0.09
20.187,9.36
20.203,16.66
20.218,22.25
20.234,26.55
20.250,29.98
20.265,32.81
20.281,35.13
20.296,36.83
20.312,37.72
20.328,37.69
20.343,36.72
20.359,34.99
20.375,32.73
20.390,30.2
20.406,27.67
20.421,25.42
20.437,23.72
20.453,22.76
20.468,22.51
20.484,22.66
20.500,22.68
20.515,21.99
20.531,20.16
20.546,16.95
20.562,12.55
20.578,7.31
20.593,1.75
20.609,-3.56
20.625,-8.19
20.640,-11.93
20.656,-14.88
20.671,-17.44
20.687,-20.24
20.703,-23.86
20.718,-28.68
20.734,-34.81
20.750,-42.05
20.765,-50.01
20.781,-58.14
20.796,-65.7
20.812,-71.73
20.828,-75.14
20.843,-74.94
20.859,-70.6
20.875,-62.31
20.890,-50.9
20.906,-37.67
20.921,-23.93
20.937,-10.74
20.953,1.25
20.968,11.64
20.984,20.33
21.000,27.29
21.015,32.7
21.031,36.96
21.046,40.53
21.062,43.86
21.078,47.06
21.093,49.83
21.109,51.5
21.125,51.41
21.140,49.24
21.156,45.24
21.171,40.18
21.187,35.03
21.203,30.61
21.218,27.27
21.234,24.93
21.250,23.27
21.265,22.0
21.281,20.98
21.296,20.19
21.312,19.45
21.328,18.43
21.343,16.6
21.359,13.47
21.375,8.89
21.390,3.11
21.406,-3.24
21.421,-9.46
21.437,-15.03
21.453,-19.81
21.468,-24.0
21.484,-27.99
21.500,-32.21
21.515,-37.02
21.531,-42.64
21.546,-49.21
21.562,-56.68
21.578,-64.83
21.593,-73.03
21.609,-80.29
21.625,-85.26
21.640,-86.66
21.656,-83.63
21.671,-76.1
21.687,-64.86
21.703,-51.32
21.718,-36.99
21.734,-23.17
21.750,-10.62
21.765,0.35
21.781,9.7
21.796,17.59
21.812,24.23
21.828,29.94
21.843,35.15
21.859,40.1
21.875,44.81
21.890,48.84
21.906,51.57
21.921,52.47
21.937,51.4
21.953,48.79
21.968,45.43
21.984,42.26
22.000,39.94
22.015,38.7
22.031,38.36
22.046,38.32
22.062,37.92
22.078,36.6
22.093,34.04
22.109,30.33
22.125,25.82
22.140,21.04
22.156,16.51
22.171,12.55
22.187,9.2
22.203,6.3
22.218,3.49
22.234,0.4
22.250,-3.31
22.265,-7.79
22.281,-13.02
22.296,-18.76
22.312,-24.6
22.328,-30.19
22.343,-35.43
22.359,-40.56
22.375,-46.15
22.390,-52.77
22.406,-60.64
22.421,-69.25
22.437,-77.31
22.453,-83.06
22.468,-84.8
22.484,-81.53
22.500,-73.28
22.515,-61.07
22.531,-46.48
22.546,-31.15
22.562,-16.42
22.578,-3.1
22.593,8.41
22.609,18.03
22.625,25.91
22.640,32.31
22.656,37.6
22.671,42.11
22.687,46.02
22.703,49.31
22.718,51.73
22.734,52.99
22.750,52.93
22.765,51.68
22.781,49.58
22.796,47.06
22.812,44.56
22.828,42.37
22.843,40.62
22.859,39.29
22.875,38.28
22.890,37.37
22.906,36.34
22.921,34.9
22.937,32.82
22.953,30.06
22.968,26.71
22.984,23.04
23.000,19.32
23.015,15.74
23.031,12.29
23.046,8.85
23.062,5.17
23.078,1.01
23.093,-3.71
23.109,-8.97
23.125,-14.53
23.140,-20.17
23.156,-25.68
23.171,-31.02
23.187,-36.35
23.203,-41.92
23.218,-47.94
23.234,-54.29
23.250,-60.47
23.265,-65.53
23.281,-68.34
23.296,-67.89
23.312,-63.63
23.328,-55.62
23.343,-44.44
23.359,-31.01
23.375,-16.38
23.390,-1.52
23.406,12.73
23.421,25.69
23.437,36.88
23.453,46.0
23.468,52.89
23.484,57.56
23.500,60.17
23.515,61.06
23.531,60.66
23.546,59.53
23.562,58.2
23.578,57.11
23.593,56.55
23.609,56.61
23.625,57.29
23.640,58.54
23.656,60.3
23.671,62.56
23.687,65.33
23.703,68.59
23.718,72.17
23.734,75.77
23.750,79.08
23.765,81.79
23.781,83.77
23.796,85.06
23.812,85.68
23.828,85.55
23.843,84.25
23.859,81.11
23.875,75.34
23.890,66.38
23.906,54.19
23.921,39.31
23.937,22.71
23.953,5.38
23.968,-11.94
23.984,-28.88
24.000,-45.29
24.015,-60.85
24.031,-74.89
24.046,-86.34
24.062,-94.14
24.078,-97.51
24.093,-96.29
24.109,-90.95
24.125,-82.41
24.140,-71.71
24.156,-59.88
24.171,-47.84
24.187,-36.33
24.203,-25.91
24.218,-16.91
24.234,-9.37
24.250,-3.12
24.265,2.11
24.281,6.52
24.296,10.2
24.312,13.09
24.328,15.15
24.343,16.32
24.359,16.55
24.375,15.88
24.390,14.46
24.406,12.54
24.421,10.5
24.437,8.66
24.453,7.18
24.468,5.97
24.484,4.75
24.500,3.23
24.515,1.24
24.531,-1.05
24.546,-3.3
24.562,-5.05
24.578,-6.09
24.593,-6.58
24.609,-7.09
24.625,-8.43
24.640,-11.25
24.656,-15.75
24.671,-21.5
24.687,-27.65
24.703,-33.3
24.718,-37.89
24.734,-41.44
24.750,-44.48
24.765,-47.72
24.781,-51.76
24.796,-56.94
24.812,-63.27
24.828,-70.53
24.843,-78.27
24.859,-85.85
24.875,-92.39
24.890,-96.92
24.906,-98.45
24.921,-96.22
24.937,-89.89
24.953,-79.58
24.968,-65.97
24.984,-50.24
25.000,-33.87
25.015,-18.39
25.031,-5.07
25.046,5.39
25.062,13.04
25.078,18.47
25.093,22.64
25.109,26.51
25.125,30.65
25.140,35.16
25.156,39.68
25.171,43.53
25.187,46.03
25.203,46.7
25.218,45.46
25.234,42.66
25.250,38.99
25.265,35.22
25.281,32.04
25.296,29.81
25.312,28.43
25.328,27.38
25.343,25.92
25.359,23.31
25.375,19.21
25.390,13.81
25.406,7.73
25.421,1.74
25.437,-3.6
25.453,-8.17
25.468,-12.28
25.484,-16.43
25.500,-21.03
25.515,-26.27
25.531,-32.14
25.546,-38.56
25.562,-45.44
25.578,-52.62
25.593,-60.0
25.609,-67.58
25.625,-75.6
25.640,-84.57
25.656,-94.96
25.671,-106.78
25.687,-119.22
25.703,-130.7
25.718,-139.3
25.734,-143.44
25.750,-142.5
25.765,-137.03
25.781,-128.33
25.796,-117.92
25.812,-106.94
25.828,-95.88
25.843,-84.57
25.859,-72.37
25.875,-58.47
25.890,-42.14
25.906,-22.85
25.921,-0.59
25.937,24.21
25.953,50.61
25.968,77.46
25.984,103.65
26.000,128.3
26.015,150.81
26.031,170.57
26.046,186.74
26.062,198.17
26.078,203.73
26.093,202.69
26.109,195.25
26.125,182.52
26.140,166.27
26.156,148.2
26.171,129.47
26.187,110.47
26.203,91.08
26.218,71.12
26.234,50.92
26.250,31.46
26.265,14.09
26.281,-0.15
26.296,-11.09
26.312,-19.68
26.328,-27.69
26.343,-36.96
26.359,-48.54
26.375,-62.32
26.390,-77.21
26.406,-91.67
26.421,-104.54
26.437,-115.34
26.453,-124.15
26.468,-131.15
26.484,-136.37
26.500,-139.59
26.515,-140.62
26.531,-139.41
26.546,-135.98
26.562,-130.08
26.578,-120.95
26.593,-107.35
26.609,-88.09
26.625,-62.64
26.640,-31.55
26.656,3.64
26.671,40.68
26.687,76.95
26.703,109.77
26.718,136.45
26.734,154.49
26.750,162.06
26.765,158.52
26.781,144.89
26.796,123.83
26.812,99.04
26.828,74.28
26.843,52.23
26.859,34.1
26.875,19.55
26.890,7.5
26.906,-2.98
26.921,-11.96
26.937,-18.61
26.953,-21.64
26.968,-20.06
26.984,-13.83
27.000,-4.07
27.015,7.28
27.031,18.0
27.046,26.19
27.062,30.59
27.078,30.57
27.093,25.9
27.109,16.77
27.125,3.8
27.140,-11.86
27.156,-28.61
27.171,-44.69
27.187,-58.69
27.203,-70.05
27.218,-79.05
27.234,-86.6
27.250,-93.59
27.265,-100.32
27.281,-106.26
27.296,-110.13
27.312,-110.41
27.328,-105.95
27.343,-96.39
27.359,-82.36
27.375,-65.25
27.390,-46.82
27.406,-28.75
27.421,-12.27
27.437,2.0
27.453,14.08
27.468,24.31
27.484,33.14
27.500,40.78
27.515,47.2
27.531,52.1
27.546,55.17
27.562,56.22
27.578,55.29
27.593,52.64
27.609,48.68
27.625,43.9
27.640,38.84
27.656,34.03
27.671,29.82
27.687,26.4
27.703,23.68
27.718,21.42
27.734,19.35
27.750,17.21
27.765,14.88
27.781,12.19
27.796,8.92
27.812,4.87
27.828,-0.07
27.843,-5.8
27.859,-11.99
27.875,-18.28
27.890,-24.34
27.906,-30.0
27.921,-35.26
27.937,-40.21
27.953,-45.04
27.968,-50.07
27.984,-55.74
28.000,-62.55
28.015,-70.78
28.031,-80.22
28.046,-89.96
28.062,-98.5
28.078,-104.11
28.093,-105.33
28.109,-101.46
28.125,-92.7
28.140,-79.99
28.156,-64.67
28.171,-48.06
28.187,-31.26
28.203,-15.03
28.218,0.02
28.234,13.48
28.250,25.08
28.265,34.8
28.281,42.99
28.296,50.18
28.312,57.0
28.328,63.79
28.343,70.52
28.359,76.76
28.375,81.84
28.390,85.09
28.406,86.15
28.421,85.01
28.437,82.05
28.453,77.94
28.468,73.42
28.484,69.17
28.500,65.57
28.515,62.72
28.531,60.36
28.546,58.08
28.562,55.41
28.578,52.04
28.593,47.79
28.609,42.61
28.625,36.55
28.640,29.67
28.656,22.15
28.671,14.32
28.687,6.66
28.703,-0.31
28.718,-6.29
28.734,-11.39
28.750,-16.19
28.765,-21.55
28.781,-28.17
28.796,-36.19
28.812,-44.93
28.828,-52.91
28.843,-58.31
28.859,-59.5
28.875,-55.56
28.890,-46.56
28.906,-33.52
28.921,-18.14
28.937,-2.25
28.953,12.6
28.968,25.51
28.984,36.28
29.000,45.18
29.015,52.68
29.031,59.24
29.046,65.18
29.062,70.62
29.078,75.53
29.093,79.72
29.109,82.86
29.125,84.52
29.140,84.32
29.156,82.08
29.171,78.0
29.187,72.61
29.203,66.64
29.218,60.77
29.234,55.4
29.250,50.6
29.265,46.02
29.281,41.17
29.296,35.55
29.312,28.86
29.328,21.24
29.343,13.03
29.359,4.76
29.375,-3.18
29.390,-10.66
29.406,-17.66
29.421,-24.28
29.437,-30.53
29.453,-36.33
29.468,-41.62
29.484,-46.5
29.500,-51.26
29.515,-56.26
29.531,-61.71
29.546,-67.46
29.562,-72.93
29.578,-77.1
29.593,-78.75
29.609,-76.65
29.625,-69.92
29.640,-58.4
29.656,-42.75
29.671,-24.43
29.687,-5.26
29.703,13.06
29.718,29.39
29.734,43.27
29.750,54.81
29.765,64.34
29.781,72.15
29.796,78.36
29.812,82.89
29.828,85.57
29.843,86.21
29.859,84.69
29.875,81.1
29.890,75.69
29.906,68.94
29.921,61.38
29.937,53.42
29.953,45.31
29.968,37.17
29.984,29.12
30.000,21.35
30.015,14.15
30.031,7.78
30.046,2.31
30.062,-2.35
30.078,-6.43
30.093,-10.13
30.109,-13.57
30.125,-16.75
30.140,-19.66
30.156,-22.21
30.171,-24.38
30.187,-26.09
30.203,-27.28
30.218,-27.92
30.234,-28.17
30.250,-28.51
30.265,-29.66
30.281,-32.43
30.296,-37.38
30.312,-44.44
30.328,-52.65
30.343,-60.22
30.359,-64.93
30.375,-64.79
30.390,-58.67
30.406,-46.77
30.421,-30.55
30.437,-12.25
30.453,5.77
30.468,21.65
30.484,34.32
30.500,43.57
30.515,49.79
30.531,53.77
30.546,56.3
30.562,58.04
30.578,59.39
30.593,60.5
30.609,61.33
30.625,61.75
30.640,61.64
30.656,60.88
30.671,59.3
30.687,56.79
30.703,53.22
30.718,48.62
30.734,43.26
30.750,37.6
30.765,32.13
30.781,27.17
30.796,22.74
30.812,18.51
30.828,13.96
30.843,8.62
30.859,2.21
30.875,-5.28
30.890,-13.64
30.906,-22.47
30.921,-31.38
30.937,-39.91
30.953,-47.7
30.968,-54.39
30.984,-59.76
31.000,-63.84
31.015,-66.91
31.031,-69.55
31.046,-72.4
31.062,-75.94
31.078,-80.02
31.093,-83.78
31.109,-85.72
31.125,-84.25
31.140,-78.23
31.156,-67.42
31.171,-52.63
31.187,-35.35
31.203,-17.3
31.218,0.02
31.234,15.51
31.250,28.48
31.265,38.6
31.281,45.87
31.296,50.66
31.312,53.55
31.328,55.24
31.343,56.2
31.359,56.55
31.375,56.05
31.390,54.31
31.406,51.05
31.421,46.32
31.437,40.55
31.453,34.36
31.468,28.51
31.484,23.64
31.500,20.17
31.515,18.18
31.531,17.37
31.546,17.11
31.562,16.66
31.578,15.48
31.593,13.37
31.609,10.53
31.625,7.35
31.640,4.26
31.656,1.47
31.671,-0.98
31.687,-3.25
31.703,-5.59
31.718,-8.3
31.734,-11.58
31.750,-15.52
31.765,-20.04
31.781,-24.92
31.796,-29.95
31.812,-35.12
31.828,-40.65
31.843,-46.85
31.859,-53.7
31.875,-60.6
31.890,-66.26
31.906,-69.01
31.921,-67.41
31.937,-60.78
31.953,-49.51
31.968,-34.92
31.984,-18.84
32.000,-3.06
32.015,11.09
32.031,22.96
32.046,32.48
32.062,40.01
32.078,46.08
32.093,51.27
32.109,56.07
32.125,60.84
32.140,65.79
32.156,70.93
32.171,76.02
32.187,80.65
32.203,84.28
32.218,86.51
32.234,87.32
32.250,87.13
32.265,86.76
32.281,87.12
32.296,88.8
32.312,91.76
32.328,95.36
32.343,98.59
32.359,100.65
32.375,101.26
32.390,100.82
32.406,100.23
32.421,100.37
32.437,101.74
32.453,104.11
32.468,106.65
32.484,108.11
32.500,107.16
32.515,102.73
32.531,94.14
32.546,81.21
32.562,64.27
32.578,44.02
32.593,21.33
32.609,-2.96
32.625,-28.22
32.640,-53.89
32.656,-79.25
32.671,-103.12
32.687,-123.82
32.703,-139.47
32.718,-148.53
32.734,-150.41
32.750,-145.78
32.765,-136.38
32.781,-124.48
32.796,-112.08
32.812,-100.45
32.828,-89.96
32.843,-80.38
32.859,-71.33
32.875,-62.58
32.890,-54.11
32.906,-45.92
32.921,-37.89
32.937,-29.75
32.953,-21.27
32.968,-12.54
32.984,-4.01
33.000,3.5
33.015,9.27
33.031,12.95
33.046,14.66
33.062,14.94
33.078,14.34
33.093,13.23
33.109,11.67
33.125,9.51
33.140,6.67
33.156,3.31
33.171,-0.14
33.187,-3.17
33.203,-5.41
33.218,-6.86
33.234,-7.92
33.250,-9.22
33.265,-11.42
33.281,-14.86
33.296,-19.53
33.312,-25.09
33.328,-31.03
33.343,-36.94
33.359,-42.58
33.375,-48.01
33.390,-53.53
33.406,-59.51
33.421,-66.28
33.437,-73.88
33.453,-81.92
33.468,-89.55
33.484,-95.58
33.500,-98.8
33.515,-98.26
33.531,-93.46
33.546,-84.54
33.562,-72.21
33.578,-57.64
33.593,-42.25
33.609,-27.43
33.625,-14.19
33.640,-2.95
33.656,6.51
33.671,14.73
33.687,22.28
33.703,29.34
33.718,35.62
33.734,40.6
33.750,43.85
33.765,45.33
33.781,45.41
33.796,44.73
33.812,43.91
33.828,43.44
33.843,43.49
33.859,43.98
33.875,44.6
33.890,44.91
33.906,44.44
33.921,42.91
33.937,40.22
33.953,36.59
33.968,32.34
33.984,27.78
34.000,23.06
34.015,18.16
34.031,12.93
34.046,7.25
34.062,0.98
34.078,-5.96
34.093,-13.59
34.109,-21.83
34.125,-30.4
34.140,-38.84
34.156,-46.62
34.171,-53.41
34.187,-59.11
34.203,-63.88
34.218,-67.79
34.234,-70.64
34.250,-71.77
34.265,-70.38
34.281,-65.84
34.296,-58.12
34.312,-47.9
34.328,-36.4
34.343,-25.04
34.359,-14.97
34.375,-6.88
34.390,-0.88
34.406,3.28
34.421,6.06
34.437,7.96
34.453,9.33
34.468,10.44
34.484,11.39
34.500,12.13
34.515,12.59
34.531,12.73
34.546,12.7
34.562,12.78
34.578,13.27
34.593,14.31
34.609,15.76
34.625,17.22
34.640,18.11
34.656,17.93
34.671,16.5
34.687,14.13
34.703,11.51
34.718,9.41
34.734,8.24
34.750,7.82
34.765,7.32
34.781,5.7
34.796,2.23
34.812,-3.18
34.828,-9.77
34.843,-16.38
34.859,-21.93
34.875,-25.89
34.890,-28.42
34.906,-30.18
34.921,-32.07
34.937,-34.86
34.953,-39.09
34.968,-44.97
34.984,-52.37
35.000,-60.63
35.015,-68.56
35.031,-74.59
35.046,-77.17
35.062,-75.24
35.078,-68.69
35.093,-58.37
35.109,-45.77
35.125,-32.57
35.140,-20.13
35.156,-9.26
35.171,-0.3
35.187,6.81
35.203,12.25
35.218,16.35
35.234,19.43
35.250,21.75
35.265,23.39
35.281,24.17
35.296,23.73
35.312,21.69
35.328,17.95
35.343,12.79
35.359,6.83
35.375,0.81
35.390,-4.53
35.406,-8.58
35.421,-10.91
35.437,-11.29
35.453,-9.78
35.468,-6.78
35.484,-3.02
35.500,0.67
35.515,3.6
35.531,5.39
35.546,6.02
35.562,5.68
35.578,4.65
35.593,3.16
35.609,1.52
35.625,0.01
35.640,-1.12
35.656,-1.87
35.671,-2.56
35.687,-3.83
35.703,-6.35
35.718,-10.58
35.734,-16.58
35.750,-23.96
35.765,-31.99
35.781,-39.78
35.796,-46.34
35.812,-50.73
35.828,-52.29
35.843,-50.79
35.859,-46.62
35.875,-40.57
35.890,-33.65
35.906,-26.69
35.921,-20.2
35.937,-14.35
35.953,-9.19
35.968,-4.7
35.984,-0.84
36.000,2.53
36.015,5.62
36.031,8.74
36.046,12.03
36.062,15.41
36.078,18.58
36.093,21.19
36.109,23.08
36.125,24.35
36.140,25.35
36.156,26.36
36.171,27.54
36.187,28.81
36.203,29.93
36.218,30.7
36.234,31.02
36.250,30.92
36.265,30.52
36.281,29.91
36.296,29.08
36.312,27.92
36.328,26.25
36.343,23.86
36.359,20.55
36.375,16.18
36.390,10.76
36.406,4.5
36.421,-2.08
36.437,-8.35
36.453,-13.71
36.468,-17.93
36.484,-21.26
36.500,-24.36
36.515,-28.11
36.531,-33.16
36.546,-39.7
36.562,-47.26
36.578,-54.73
36.593,-60.62
36.609,-63.46
36.625,-62.18
36.640,-56.5
36.656,-46.89
36.671,-34.47
36.687,-20.64
36.703,-6.65
36.718,6.57
36.734,18.48
36.750,28.88
36.765,37.77
36.781,45.24
36.796,51.43
36.812,56.5
36.828,60.53
36.843,63.52
36.859,65.32
36.875,65.83
36.890,65.04
36.906,63.17
36.921,60.67
36.937,58.09
36.953,55.86
36.968,54.19
36.984,52.96
37.000,51.84
37.015,50.42
37.031,48.34
37.046,45.43
37.062,41.67
37.078,37.22
37.093,32.23
37.109,26.81
37.125,21.04
37.140,14.99
37.156,8.71
37.171,2.3
37.187,-4.09
37.203,-10.37
37.218,-16.4
37.234,-22.16
37.250,-27.69
37.265,-33.15
37.281,-38.75
37.296,-44.67
37.312,-50.84
37.328,-56.91
37.343,-62.3
37.359,-66.2
37.375,-67.84
37.390,-66.55
37.406,-61.91
37.421,-53.91
37.437,-42.99
37.453,-30.04
37.468,-16.24
37.484,-2.76
37.500,9.49
37.515,20.03
37.531,28.67
37.546,35.47
37.562,40.46
37.578,43.71
37.593,45.31
37.609,45.48
37.625,44.6
37.640,43.07
37.656,41.25
37.671,39.29
37.687,37.22
37.703,34.99
37.718,32.53
37.734,29.83
37.750,26.95
37.765,24.04
37.781,21.27
37.796,18.79
37.812,16.64
37.828,14.65
37.843,12.5
37.859,9.85
37.875,6.52
37.890,2.54
37.906,-1.8
37.921,-6.15
37.937,-10.25
37.953,-14.03
37.968,-17.62
37.984,-21.29
38.000,-25.37
38.015,-30.17
38.031,-35.91
38.046,-42.64
38.062,-50.12
38.078,-57.73
38.093,-64.4
38.109,-68.82
38.125,-69.72
38.140,-66.26
38.156,-58.36
38.171,-46.83
38.187,-33.11
38.203,-18.82
38.218,-5.29
38.234,6.76
38.250,17.21
38.265,26.21
38.281,33.99
38.296,40.62
38.312,46.02
38.328,50.1
38.343,52.84
38.359,54.28
38.375,54.5
38.390,53.51
38.406,51.43
38.421,48.38
38.437,44.66
38.453,40.7
38.468,36.92
38.484,33.69
38.500,31.19
38.515,29.39
38.531,28.04
38.546,26.79
38.562,25.3
38.578,23.27
38.593,20.56
38.609,17.07
38.625,12.81
38.640,7.83
38.656,2.28
38.671,-3.58
38.687,-9.42
38.703,-14.93
38.718,-19.93
38.734,-24.5
38.750,-28.91
38.765,-33.56
38.781,-38.85
38.796,-45.02
38.812,-52.01
38.828,-59.31
38.843,-65.97
38.859,-70.74
38.875,-72.33
38.890,-69.85
38.906,-63.14
38.921,-52.85
38.937,-40.27
38.953,-26.8
38.968,-13.63
38.984,-1.41
39.000,9.66
39.015,19.64
39.031,28.61
39.046,36.52
39.062,43.25
39.078,48.67
39.093,52.8
39.109,55.78
39.125,57.81
39.140,59.08
39.156,59.65
39.171,59.52
39.187,58.69
39.203,57.2
39.218,55.14
39.234,52.71
39.250,50.06
39.265,47.32
39.281,44.58
39.296,41.82
39.312,39.01
39.328,36.08
39.343,32.98
39.359,29.62
39.375,25.94
39.390,21.78
39.406,16.93
39.421,11.18
39.437,4.37
39.453,-3.42
39.468,-11.86
39.484,-20.38
39.500,-28.39
39.515,-35.48
39.531,-41.65
39.546,-47.32
39.562,-53.14
39.578,-59.73
39.593,-67.28
39.609,-75.31
39.625,-82.66
39.640,-87.75
39.656,-88.99
39.671,-85.33
39.687,-76.6
39.703,-63.6
39.718,-47.89
39.734,-31.28
39.750,-15.42
39.765,-1.46
39.781,10.11
39.796,19.27
39.812,26.31
39.828,31.72
39.843,36.04
39.859,39.72
39.875,43.04
39.890,46.03
39.906,48.5
39.921,50.11
39.937,50.6
39.953,49.88
39.968,48.1
39.984,45.54
40.000,42.55
40.015,39.45
40.031,36.53
40.046,33.97
40.062,31.91
40.078,30.34
40.093,29.15
40.109,28.1
40.125,26.9
40.140,25.19
40.156,22.68
40.171,19.19
40.187,14.69
40.203,9.41
40.218,3.74
40.234,-1.84
40.250,-6.99
40.265,-11.7
40.281,-16.27
40.296,-21.16
40.312,-26.81
40.328,-33.42
40.343,-40.9
40.359,-48.9
40.375,-56.89
40.390,-64.15
40.406,-69.84
40.421,-72.97
40.437,-72.62
40.453,-68.18
40.468,-59.63
40.484,-47.68
40.500,-33.58
40.515,-18.85
40.531,-4.77
40.546,7.8
40.562,18.57
40.578,27.63
40.593,35.23
40.609,41.54
40.625,46.63
40.640,50.48
40.656,53.06
40.671,54.5
40.687,55.07
40.703,55.16
40.718,55.13
40.734,55.3
40.750,55.84
40.765,56.64
40.781,57.43
40.796,57.84
40.812,57.62
40.828,56.75
40.843,55.4
40.859,53.81
40.875,52.07
40.890,49.97
40.906,47.13
40.921,43.09
40.937,37.62
40.953,30.81
40.968,23.07
40.984,14.98
41.000,7.06
41.015,-0.32
41.031,-7.05
41.046,-13.2
41.062,-18.91
41.078,-24.35
41.093,-29.72
41.109,-35.27
41.125,-41.27
41.140,-47.83
41.156,-54.76
41.171,-61.33
41.187,-66.38
41.203,-68.54
41.218,-66.74
41.234,-60.65
41.250,-50.84
41.265,-38.66
41.281,-25.79
41.296,-13.71
41.312,-3.4
41.328,4.85
41.343,11.18
41.359,15.92
41.375,19.38
41.390,21.7
41.406,22.98
41.421,23.3
41.437,22.85
41.453,21.88
41.468,20.6
41.484,19.11
41.500,17.39
41.515,15.31
41.531,12.83
41.546,10.0
41.562,7.09
41.578,4.43
41.593,2.35
41.609,1.05
41.625,0.4
41.656,-0.69
41.671,-2.18
41.687,-4.7
41.703,-8.15
41.718,-12.11
41.734,-16.04
41.750,-19.49
41.765,-22.25
41.781,-24.4
41.796,-26.25
41.812,-28.28
41.828,-31.1
41.843,-35.23
41.859,-40.96
41.875,-48.1
41.890,-55.76
41.906,-62.52
41.921,-66.76
41.937,-67.19
41.953,-63.29
41.968,-55.41
41.984,-44.64
42.000,-32.33
42.015,-19.81
42.031,-8.08
42.046,2.13
42.062,10.5
42.078,16.97
42.093,21.74
42.109,25.19
42.125,27.65
42.140,29.29
42.156,30.15
42.171,30.22
42.187,29.65
42.203,28.75
42.218,27.88
42.234,27.28
42.250,26.86
42.265,26.34
42.281,25.42
42.296,24.05
42.312,22.42
42.328,20.85
42.343,19.56
42.359,18.42
42.375,17.04
42.390,14.99
42.406,12.01
42.421,8.23
42.437,4.07
42.453,0.03
42.468,-3.54
42.484,-6.6
42.500,-9.39
42.515,-12.33
42.531,-15.73
42.546,-19.84
42.562,-24.75
42.578,-30.49
42.593,-37.06
42.609,-44.31
42.625,-51.8
42.640,-58.7
42.656,-63.88
42.671,-66.14
42.687,-64.7
42.703,-59.33
42.718,-50.6
42.734,-39.55
42.750,-27.44
42.765,-15.42
42.781,-4.31
42.796,5.44
42.812,13.73
42.828,20.66
42.843,26.42
42.859,31.28
42.875,35.41
42.890,38.9
42.906,41.74
42.921,43.83
42.937,45.11
42.953,45.61
42.968,45.41
42.984,44.69
43.000,43.53
43.015,41.98
43.031,39.99
43.046,37.52
43.062,34.53
43.078,31.11
43.093,27.47
43.109,23.84
43.125,20.44
43.140,17.35
43.156,14.48
43.171,11.57
43.187,8.31
43.203,4.46
43.218,-0.03
43.234,-4.97
43.250,-10.0
43.265,-14.79
43.281,-19.21
43.296,-23.5
43.312,-28.17
43.328,-33.75
43.343,-40.58
43.359,-48.46
43.375,-56.62
43.390,-63.88
43.406,-68.87
43.421,-70.46
43.437,-68.07
43.453,-61.77
43.468,-52.27
43.484,-40.7
43.500,-28.32
43.515,-16.27
43.531,-5.42
43.546,3.72
43.562,11.02
43.578,16.67
43.593,21.15
43.609,25.0
43.625,28.64
43.640,32.27
43.656,35.79
43.671,38.95
43.687,41.44
43.703,43.09
43.718,43.79
43.734,43.5
43.750,42.19
43.765,39.82
43.781,36.49
43.796,32.53
43.812,28.48
43.828,24.96
43.843,22.42
43.859,20.93
43.875,20.24
43.890,19.82
43.906,19.16
43.921,17.9
43.937,15.83
43.953,13.01
43.968,9.49
43.984,5.4
44.000,0.8
44.015,-4.21
44.031,-9.5
44.046,-14.97
44.062,-20.48
44.078,-26.06
44.093,-31.81
44.109,-37.84
44.125,-44.19
44.140,-50.64
44.156,-56.69
44.171,-61.57
44.187,-64.43
44.203,-64.53
44.218,-61.38
44.234,-54.94
44.250,-45.67
44.265,-34.5
44.281,-22.71
44.296,-11.61
44.312,-2.21
44.328,5.09
44.343,10.55
44.359,14.92
44.375,19.08
44.390,23.58
44.406,28.55
44.421,33.7
44.437,38.48
44.453,42.42
44.468,45.18
44.484,46.62
44.500,46.74
44.515,45.63
44.531,43.46
44.546,40.44
44.562,36.83
44.578,32.97
44.593,29.2
44.609,25.89
44.625,23.34
44.640,21.68
44.656,20.83
44.671,20.43
44.687,20.01
44.703,19.12
44.718,17.42
44.734,14.8
44.750,11.27
44.765,6.92
44.781,1.83
44.796,-3.9
44.812,-10.0
44.828,-16.06
44.843,-21.62
44.859,-26.36
44.875,-30.29
44.890,-33.88
44.906,-37.72
44.921,-42.31
44.937,-47.59
44.953,-52.83
44.968,-56.78
44.984,-58.12
45.000,-55.93
45.015,-50.08
45.031,-41.16
45.046,-30.34
45.062,-18.97
45.078,-8.17
45.093,1.34
45.109,9.19
45.125,15.39
45.140,20.17
45.156,23.85
45.171,26.83
45.187,29.47
45.203,32.02
45.218,34.55
45.234,36.86
45.250,38.57
45.265,39.3
45.281,38.78
45.296,37.04
45.312,34.39
45.328,31.31
45.343,28.3
45.359,25.75
45.375,23.86
45.390,22.64
45.406,21.97
45.421,21.6
45.437,21.21
45.453,20.48
45.468,19.15
45.484,17.06
45.500,14.26
45.515,10.97
45.531,7.53
45.546,4.31
45.562,1.5
45.578,-0.88
45.593,-3.12
45.609,-5.64
45.625,-8.93
45.640,-13.33
45.656,-18.9
45.671,-25.32
45.687,-31.97
45.703,-38.0
45.718,-42.49
45.734,-44.61
45.750,-43.79
45.765,-39.83
45.781,-33.04
45.796,-24.23
45.812,-14.56
45.828,-5.24
45.843,2.79
45.859,9.14
45.875,13.91
45.890,17.53
45.906,20.39
45.921,22.6
45.937,23.99
45.953,24.29
45.968,23.38
45.984,21.42
46.000,18.79
46.015,15.91
46.031,13.12
46.046,10.53
46.062,8.11
46.078,5.88
46.093,3.93
46.109,2.44
46.125,1.58
46.140,1.26
46.156,1.17
46.171,0.88
46.187,-0.01
46.203,-1.68
46.218,-3.99
46.234,-6.71
46.250,-9.53
46.265,-12.28
46.281,-14.93
46.296,-17.6
46.312,-20.41
46.328,-23.52
46.343,-27.06
46.359,-31.17
46.375,-35.94
46.390,-41.41
46.406,-47.53
46.421,-54.18
46.437,-61.06
46.453,-67.66
46.468,-73.12
46.484,-76.3
46.500,-76.07
46.515,-71.71
46.531,-63.26
46.546,-51.67
46.562,-38.47
46.578,-25.27
46.593,-13.31
46.609,-3.14
46.625,5.25
46.640,12.13
46.656,17.78
46.671,22.29
46.687,25.68
46.703,28.03
46.718,29.62
46.734,30.9
46.750,32.28
46.765,33.93
46.781,35.62
46.796,36.78
46.812,36.78
46.828,35.21
46.843,32.27
46.859,28.63
46.875,25.24
46.890,22.85
46.906,21.64
46.921,21.16
46.937,20.63
46.953,19.3
46.968,16.82
46.984,13.32
47.000,9.21
47.015,4.91
47.031,0.67
47.046,-3.5
47.062,-7.64
47.078,-11.76
47.093,-15.85
47.109,-19.96
47.125,-24.34
47.140,-29.36
47.156,-35.35
47.171,-42.29
47.187,-49.58
47.203,-56.06
47.218,-60.33
47.234,-61.14
47.250,-57.9
47.265,-50.87
47.281,-41.09
47.296,-30.01
47.312,-19.06
47.328,-9.25
47.343,-1.0
47.359,5.77
47.375,11.4
47.390,16.24
47.406,20.52
47.421,24.33
47.437,27.68
47.453,30.58
47.468,33.0
47.484,34.87
47.500,36.08
47.515,36.47
47.531,36.01
47.546,34.72
47.562,32.77
47.578,30.47
47.593,28.13
47.609,26.09
47.625,24.6
47.640,23.69
47.656,23.16
47.671,22.57
47.687,21.42
47.703,19.33
47.718,16.15
47.734,12.14
47.750,7.7
47.765,3.31
47.781,-0.63
47.796,-3.9
47.812,-6.5
47.828,-8.65
47.843,-10.87
47.859,-13.77
47.875,-17.95
47.890,-23.61
47.906,-30.32
47.921,-37.03
47.937,-42.34
47.953,-44.88
47.968,-43.74
47.984,-38.75
48.000,-30.44
48.015,-19.85
48.031,-8.28
48.046,3.11
48.062,13.39
48.078,22.05
48.093,28.88
48.109,33.97
48.125,37.59
48.140,40.1
48.156,41.94
48.171,43.41
48.187,44.72
48.203,45.86
48.218,46.56
48.234,46.45
48.250,45.23
48.265,42.84
48.281,39.58
48.296,35.99
48.312,32.65
48.328,29.97
48.343,27.99
48.359,26.46
48.375,24.97
48.390,23.11
48.406,20.65
48.421,17.58
48.437,14.1
48.453,10.5
48.468,7.05
48.484,3.79
48.500,0.56
48.515,-2.98
48.531,-7.15
48.546,-12.17
48.562,-18.03
48.578,-24.43
48.593,-30.81
48.609,-36.43
48.625,-40.42
48.640,-41.96
48.656,-40.51
48.671,-35.99
48.687,-28.91
48.703,-20.22
48.718,-11.09
48.734,-2.53
48.750,4.86
48.765,10.98
48.781,16.09
48.796,20.52
48.812,24.43
48.828,27.71
48.843,30.12
48.859,31.45
48.875,31.67
48.890,31.01
48.906,29.76
48.921,28.16
48.937,26.35
48.953,24.33
48.968,22.13
48.984,19.93
49.000,17.96
49.015,16.4
49.031,15.22
49.046,14.1
49.062,12.53
49.078,10.09
49.093,6.66
49.109,2.59
49.125,-1.37
49.140,-4.46
49.156,-6.23
49.171,-6.74
49.187,-6.65
49.203,-6.9
49.218,-8.35
49.234,-11.5
49.250,-16.28
49.265,-22.15
49.281,-28.32
49.296,-33.82
49.312,-37.69
49.328,-39.05
49.343,-37.32
49.359,-32.39
49.375,-24.82
49.390,-15.77
49.406,-6.68
49.421,1.16
49.437,7.01
49.453,10.84
49.468,13.17
49.484,14.74
49.500,16.16
49.515,17.7
49.531,19.29
49.546,20.58
49.562,21.24
49.578,21.01
49.593,19.83
49.609,17.82
49.625,15.19
49.640,12.25
49.656,9.24
49.671,6.41
49.687,3.92
49.703,1.89
49.718,0.34
49.734,-0.86
49.750,-1.95
49.765,-3.24
49.781,-4.96
49.796,-7.21
49.812,-9.87
49.828,-12.81
49.843,-15.91
49.859,-19.16
49.875,-22.67
49.890,-26.54
49.906,-30.74
49.921,-35.07
49.937,-39.08
49.953,-42.13
49.968,-43.53
49.984,-42.63
50.000,-39.12
50.015,-33.13
50.031,-25.21
50.046,-16.35
50.062,-7.68
50.078,-0.23
50.093,5.27
50.109,8.6
50.125,9.99
50.140,10.05
50.156,9.53
50.171,9.09
50.187,9.14
50.203,9.76
50.218,10.74
50.234,11.73
50.250,12.35
50.265,12.38
50.281,11.76
50.296,10.6
50.312,9.12
50.328,7.53
50.343,6.02
50.359,4.62
50.375,3.28
50.390,1.87
50.406,0.3
50.421,-1.41
50.437,-3.21
50.453,-4.98
50.468,-6.67
50.484,-8.29
50.500,-9.92
50.515,-11.6
50.531,-13.39
50.546,-15.35
50.562,-17.6
50.578,-20.13
50.593,-22.8
50.609,-25.17
50.625,-26.59
50.640,-26.37
50.656,-24.04
50.671,-19.6
50.687,-13.48
50.703,-6.45
50.718,0.6
50.734,6.86
50.750,11.74
50.765,14.99
50.781,16.63
50.796,16.99
50.812,16.6
50.828,16.01
50.843,15.65
50.859,15.62
50.875,15.75
50.890,15.62
50.906,14.84
50.921,13.27
50.937,11.06
50.953,8.65
50.968,6.52
50.984,4.99
51.000,4.09
51.015,3.59
51.031,3.14
51.046,2.51
51.062,1.55
51.078,0.28
51.093,-1.26
51.109,-3.04
51.125,-5.08
51.140,-7.4
51.156,-9.95
51.171,-12.67
51.187,-15.44
51.203,-18.25
51.218,-21.1
51.234,-23.97
51.250,-26.76
51.265,-29.17
51.281,-30.71
51.296,-30.78
51.312,-28.89
51.328,-24.9
51.343,-19.13
51.359,-12.31
51.375,-5.43
51.390,0.64
51.406,5.43
51.421,8.83
51.437,11.05
51.453,12.34
51.468,12.87
51.484,12.71
51.500,11.95
51.515,10.84
51.531,9.7
51.546,8.84
51.562,8.38
51.578,8.15
51.593,7.75
51.609,6.79
51.625,5.1
51.640,2.84
51.656,0.39
51.671,-1.8
51.687,-3.49
51.703,-4.69
51.718,-5.61
51.734,-6.5
51.750,-7.45
51.765,-8.42
51.781,-9.21
51.796,-9.75
51.812,-10.14
51.828,-10.62
51.843,-11.5
51.859,-12.96
51.875,-15.03
51.890,-17.61
51.906,-20.51
51.921,-23.54
51.937,-26.44
51.953,-28.86
51.968,-30.32
51.984,-30.26
52.000,-28.29
52.015,-24.29
52.031,-18.55
52.046,-11.76
52.062,-4.76
52.078,1.71
52.093,7.27
52.109,11.88
52.125,15.67
52.140,18.71
52.156,20.85
52.171,21.77
52.187,21.21
52.203,19.23
52.218,16.3
52.234,13.15
52.250,10.52
52.265,8.79
52.281,7.94
52.296,7.76
52.312,7.96
52.328,8.46
52.343,9.14
52.359,9.83
52.375,10.17
52.390,9.69
52.406,8.04
52.421,5.16
52.437,1.31
52.453,-3.01
52.468,-7.2
52.484,-10.82
52.500,-13.61
52.515,-15.59
52.531,-16.96
52.546,-18.07
52.562,-19.27
52.578,-20.91
52.593,-23.22
52.609,-26.22
52.625,-29.75
52.640,-33.39
52.656,-36.53
52.671,-38.43
52.687,-38.4
52.703,-36.03
52.718,-31.35
52.734,-24.87
52.750,-17.42
52.765,-9.92
52.781,-3.11
52.796,2.63
52.812,7.18
52.828,10.57
52.843,12.93
52.859,14.3
52.875,14.76
52.890,14.43
52.906,13.55
52.921,12.47
52.937,11.51
52.953,10.91
52.968,10.69
52.984,10.7
53.000,10.69
53.015,10.45
53.031,9.97
53.046,9.32
53.062,8.71
53.078,8.28
53.093,8.0
53.109,7.71
53.125,7.09
53.140,5.78
53.156,3.55
53.171,0.41
53.187,-3.35
53.203,-7.2
53.218,-10.54
53.234,-12.97
53.250,-14.4
53.265,-15.15
53.281,-15.83
53.296,-17.17
53.312,-19.8
53.328,-24.05
53.343,-29.81
53.359,-36.45
53.375,-42.9
53.390,-47.86
53.406,-50.12
53.421,-48.93
53.437,-44.24
53.453,-36.7
53.468,-27.45
53.484,-17.77
53.500,-8.73
53.515,-1.06
53.531,4.93
53.546,9.23
53.562,12.07
53.578,13.81
53.593,14.87
53.609,15.67
53.625,16.51
53.640,17.52
53.656,18.57
53.671,19.37
53.687,19.6
53.703,19.14
53.718,18.1
53.734,16.81
53.750,15.67
53.765,14.98
53.781,14.84
53.796,15.11
53.812,15.52
53.828,15.68
53.843,15.28
53.859,14.04
53.875,11.87
53.890,8.85
53.906,5.22
53.921,1.3
53.937,-2.58
53.953,-6.18
53.968,-9.29
53.984,-11.74
54.000,-13.46
54.015,-14.58
54.031,-15.48
54.046,-16.74
54.062,-19.05
54.078,-22.83
54.093,-28.08
54.109,-34.39
54.125,-40.99
54.140,-46.96
54.156,-51.38
54.171,-53.39
54.187,-52.37
54.203,-48.1
54.218,-40.93
54.234,-31.76
54.250,-21.84
54.265,-12.42
54.281,-4.32
54.296,2.18
54.312,7.31
54.328,11.48
54.343,15.04
54.359,18.1
54.375,20.61
54.390,22.48
54.406,23.67
54.421,24.3
54.437,24.62
54.453,24.85
54.468,25.18
54.484,25.64
54.500,26.12
54.515,26.4
54.531,26.32
54.546,25.91
54.562,25.36
54.578,24.84
54.593,24.36
54.609,23.66
54.625,22.37
54.640,20.28
54.656,17.44
54.671,14.31
54.687,11.48
54.703,9.35
54.718,7.91
54.734,6.78
54.750,5.41
54.765,3.39
54.781,0.7
54.796,-2.43
54.812,-5.69
54.828,-8.89
54.843,-12.13
54.859,-15.68
54.875,-19.85
54.890,-24.8
54.906,-30.5
54.921,-36.66
54.937,-42.74
54.953,-48.06
54.968,-51.84
54.984,-53.36
55.000,-52.14
55.015,-48.05
55.031,-41.41
55.046,-32.9
55.062,-23.48
55.078,-14.1
55.093,-5.54
55.109,1.76
55.125,7.77
55.140,12.79
55.156,17.28
55.171,21.67
55.187,26.15
55.203,30.62
55.218,34.71
55.234,38.0
55.250,40.24
55.265,41.34
55.281,41.44
55.296,40.76
55.312,39.45
55.328,37.68
55.343,35.59
55.359,33.41
55.375,31.4
55.390,29.78
55.406,28.63
55.421,27.81
55.437,27.04
55.453,26.0
55.468,24.48
55.484,22.51
55.500,20.25
55.515,17.93
55.531,15.6
55.546,13.11
55.562,10.1
55.578,6.28
55.593,1.57
55.609,-3.69
55.625,-8.91
55.640,-13.48
55.656,-17.03
55.671,-19.66
55.687,-21.77
55.703,-24.0
55.718,-26.95
55.734,-31.02
55.750,-36.31
55.765,-42.49
55.781,-48.86
55.796,-54.37
55.812,-57.82
55.828,-58.21
55.843,-55.03
55.859,-48.39
55.875,-38.95
55.890,-27.66
55.906,-15.5
55.921,-3.42
55.937,7.75
55.953,17.29
55.968,24.67
55.984,29.67
56.000,32.46
56.015,33.53
56.031,33.56
56.046,33.21
56.062,32.9
56.078,32.84
56.093,32.96
56.109,33.09
56.125,33.07
56.140,32.79
56.156,32.21
56.171,31.36
56.187,30.33
56.203,29.23
56.218,28.19
56.234,27.3
56.250,26.48
56.265,25.53
56.281,24.16
56.296,22.11
56.312,19.3
56.328,15.95
56.343,12.53
56.359,9.51
56.375,7.23
56.390,5.63
56.406,4.32
56.421,2.79
56.437,0.58
56.453,-2.51
56.468,-6.43
56.484,-10.99
56.500,-15.92
56.515,-21.03
56.531,-26.24
56.546,-31.61
56.562,-37.31
56.578,-43.46
56.593,-49.95
56.609,-56.24
56.625,-61.41
56.640,-64.32
56.656,-63.98
56.671,-59.92
56.687,-52.34
56.703,-42.02
56.718,-30.12
56.734,-17.85
56.750,-6.21
56.765,4.08
56.781,12.64
56.796,19.4
56.812,24.53
56.828,28.37
56.843,31.39
56.859,33.98
56.875,36.46
56.890,38.95
56.906,41.29
56.921,43.09
56.937,43.86
56.953,43.15
56.968,40.91
56.984,37.5
57.000,33.59
57.015,29.99
57.031,27.36
57.046,25.95
57.062,25.65
57.078,26.14
57.093,27.04
57.109,28.04
57.125,28.94
57.140,29.53
57.156,29.64
57.171,29.07
57.187,27.72
57.203,25.64
57.218,23.03
57.234,20.15
57.250,17.09
57.265,13.75
57.281,9.84
57.296,5.05
57.312,-0.67
57.328,-7.09
57.343,-13.79
57.359,-20.54
57.375,-27.37
57.390,-34.63
57.406,-42.64
57.421,-51.29
57.437,-59.82
57.453,-67.0
57.468,-71.46
57.484,-72.17
57.500,-68.81
57.515,-61.71
57.531,-51.78
57.546,-40.1
57.562,-27.77
57.578,-15.64
57.593,-4.33
57.609,5.71
57.625,14.13
57.640,20.73
57.656,25.38
57.671,28.17
57.687,29.43
57.703,29.68
57.718,29.5
57.734,29.34
57.750,29.38
57.765,29.51
57.781,29.56
57.796,29.34
57.812,28.79
57.828,27.98
57.843,26.98
57.859,25.8
57.875,24.36
57.890,22.59
57.906,20.45
57.921,17.99
57.937,15.31
57.953,12.46
57.968,9.36
57.984,5.83
58.000,1.73
58.015,-2.86
58.031,-7.63
58.046,-12.14
58.062,-15.98
58.078,-19.03
58.093,-21.43
58.109,-23.49
58.125,-25.59
58.140,-27.99
58.156,-30.95
58.171,-34.67
58.187,-39.34
58.203,-44.95
58.218,-51.15
58.234,-57.07
58.250,-61.47
58.265,-63.05
58.281,-60.85
58.296,-54.59
58.312,-44.77
58.328,-32.55
58.343,-19.43
58.359,-6.8
58.375,4.35
58.390,13.55
58.406,20.8
58.421,26.3
58.437,30.33
58.453,33.16
58.468,35.04
58.484,36.31
58.500,37.29
58.515,38.14
58.531,38.78
58.546,38.84
58.562,37.93
58.578,35.94
58.593,33.16
58.609,30.23
58.625,27.74
58.640,25.98
58.656,24.73
58.671,23.52
58.687,21.91
58.703,19.73
58.718,17.2
58.734,14.61
58.750,12.17
58.765,9.83
58.781,7.35
58.796,4.42
58.812,0.88
58.828,-3.26
58.843,-7.81
58.859,-12.53
58.875,-17.19
58.890,-21.65
58.906,-25.91
58.921,-30.13
58.937,-34.59
58.953,-39.57
58.968,-45.16
58.984,-51.09
59.000,-56.67
59.015,-60.92
59.031,-62.78
59.046,-61.49
59.062,-56.81
59.078,-49.09
59.093,-39.12
59.109,-27.86
59.125,-16.26
59.140,-5.04
59.156,5.27
59.171,14.28
59.187,21.72
59.203,27.41
59.218,31.37
59.234,33.82
59.250,35.14
59.265,35.8
59.281,36.2
59.296,36.53
59.312,36.76
59.328,36.74
59.343,36.32
59.359,35.43
59.375,34.18
59.390,32.78
59.406,31.47
59.421,30.42
59.437,29.7
59.453,29.24
59.468,28.86
59.484,28.36
59.500,27.4
59.515,25.61
59.531,22.67
59.546,18.41
59.562,12.97
59.578,6.82
59.593,0.63
59.609,-4.97
59.625,-9.59
59.640,-13.24
59.656,-16.3
59.671,-19.41
59.687,-23.22
59.703,-28.25
59.718,-34.64
59.734,-42.08
59.750,-49.84
59.765,-56.86
59.781,-61.93
59.796,-63.97
59.812,-62.33
59.828,-56.97
59.843,-48.47
59.859,-37.87
59.875,-26.34
59.890,-14.95
59.906,-4.45
59.921,4.67
59.937,12.21
59.953,18.23
59.968,23.04
59.984,27.23
