timestamp,value
00.000,69.63
00.015,58.28
00.031,49.0
00.046,41.89
00.062,36.47
00.078,31.66
00.093,26.04
00.109,18.29
00.125,7.6
00.140,-5.99
00.156,-21.69
00.171,-38.2
00.187,-54.25
00.203,-69.04
00.218,-82.57
00.234,-95.6
00.250,-109.42
00.265,-125.43
00.281,-144.49
00.296,-166.44
00.312,-189.63
00.328,-210.92
00.343,-226.11
00.359,-230.85
00.375,-221.86
00.390,-197.97
00.406,-160.59
00.421,-113.47
00.437,-61.63
00.453,-10.08
00.468,37.27
00.484,78.15
00.500,111.72
00.515,138.08
00.531,157.6
00.546,170.61
00.562,177.34
00.578,178.18
00.593,173.83
00.609,165.38
00.625,154.08
00.640,141.16
00.656,127.53
00.671,113.8
00.687,100.27
00.703,87.16
00.718,74.75
00.734,63.43
00.750,53.64
00.765,45.66
00.781,39.4
00.796,34.2
00.812,29.01
00.828,22.6
00.843,13.96
00.859,2.61
00.875,-11.2
00.890,-26.61
00.906,-42.47
00.921,-57.76
00.937,-71.92
00.953,-85.07
00.968,-97.98
00.984,-111.76
01.000,-127.6
01.015,-146.3
01.031,-167.75
01.046,-190.62
01.062,-212.1
01.078,-228.18
01.093,-234.42
01.109,-227.14
01.125,-204.59
01.140,-167.58
01.156,-119.46
01.171,-65.26
01.187,-10.29
01.203,40.99
01.218,85.71
01.234,122.56
01.250,151.39
01.265,172.56
01.281,186.61
01.296,194.11
01.312,195.67
01.328,192.12
01.343,184.49
01.359,173.88
01.375,161.37
01.390,147.82
01.406,133.82
01.421,119.76
01.437,105.95
01.453,92.82
01.468,80.93
01.484,70.84
01.500,62.93
01.515,57.07
01.531,52.59
01.546,48.25
01.562,42.66
01.578,34.67
01.593,23.68
01.609,9.9
01.625,-5.95
01.640,-22.78
01.656,-39.57
01.671,-55.65
01.687,-70.86
01.703,-85.53
01.718,-100.43
01.734,-116.57
01.750,-134.83
01.765,-155.63
01.781,-178.4
01.796,-201.17
01.812,-220.6
01.828,-232.39
01.843,-232.36
01.859,-217.74
01.875,-188.16
01.890,-145.92
01.906,-95.52
01.921,-42.37
01.937,8.54
01.953,53.7
01.968,91.29
01.984,120.93
02.000,142.97
02.015,157.91
02.031,166.24
02.046,168.43
02.062,165.16
02.078,157.49
02.093,146.67
02.109,134.01
02.125,120.61
02.140,107.14
02.156,93.95
02.171,81.29
02.187,69.46
02.203,59.01
02.218,50.52
02.234,44.37
02.250,40.43
02.265,37.95
02.281,35.55
02.296,31.67
02.312,25.03
02.328,15.0
02.343,1.9
02.359,-13.15
02.375,-28.66
02.390,-43.34
02.406,-56.48
02.421,-68.28
02.437,-79.69
02.453,-92.08
02.468,-106.76
02.484,-124.56
02.500,-145.3
02.515,-167.67
02.531,-189.04
02.546,-205.77
02.562,-213.81
02.578,-209.64
02.593,-191.37
02.609,-159.44
02.625,-116.6
02.640,-67.33
02.656,-16.54
02.671,31.54
02.687,74.09
02.703,109.77
02.718,138.3
02.734,159.89
02.750,174.67
02.765,182.81
02.781,184.6
02.796,180.67
02.812,172.18
02.828,160.56
02.843,147.28
02.859,133.43
02.875,119.66
02.890,106.2
02.906,93.17
02.921,80.8
02.937,69.51
02.953,59.76
02.968,51.81
02.984,45.41
03.000,39.74
03.015,33.56
03.031,25.59
03.046,14.97
03.062,1.44
03.078,-14.51
03.093,-31.92
03.109,-49.71
03.125,-66.94
03.140,-83.13
03.156,-98.29
03.171,-112.99
03.187,-128.14
03.203,-144.74
03.218,-163.51
03.234,-184.3
03.250,-205.7
03.265,-224.88
03.281,-237.78
03.296,-240.15
03.312,-228.69
03.328,-202.28
03.343,-162.43
03.359,-113.05
03.375,-59.32
03.390,-6.39
03.406,41.75
03.421,82.8
03.437,115.97
03.453,141.42
03.468,159.67
03.484,171.2
03.500,176.43
03.515,175.98
03.531,170.72
03.546,161.83
03.562,150.56
03.578,137.97
03.593,124.78
03.609,111.33
03.625,97.83
03.640,84.51
03.656,71.79
03.671,60.26
03.687,50.45
03.703,42.65
03.718,36.6
03.734,31.57
03.750,26.43
03.765,19.94
03.781,11.08
03.796,-0.53
03.812,-14.67
03.828,-30.41
03.843,-46.55
03.859,-62.03
03.875,-76.29
03.890,-89.46
03.906,-102.34
03.921,-116.19
03.937,-132.23
03.953,-151.34
03.968,-173.38
03.984,-196.89
04.000,-218.86
04.015,-235.07
04.031,-240.94
04.046,-232.76
04.062,-208.9
04.078,-170.48
04.093,-121.16
04.109,-66.18
04.125,-10.98
04.140,40.03
04.156,84.13
04.171,120.26
04.187,148.46
04.203,169.27
04.218,183.29
04.234,191.02
04.250,193.12
04.265,190.37
04.281,183.85
04.296,174.65
04.312,163.7
04.328,151.67
04.343,138.91
04.359,125.76
04.375,112.62
04.390,100.04
04.406,88.71
04.421,79.15
04.437,71.56
04.453,65.54
04.468,60.17
04.484,54.18
04.500,46.33
04.515,35.67
04.531,21.87
04.546,5.26
04.562,-13.2
04.578,-32.28
04.593,-50.84
04.609,-68.2
04.625,-84.37
04.640,-100.04
04.656,-116.43
04.671,-134.79
04.687,-155.96
04.703,-179.75
04.718,-204.6
04.734,-227.41
04.750,-243.95
04.765,-249.75
04.781,-241.23
04.796,-216.84
04.812,-177.62
04.828,-127.05
04.843,-70.25
04.859,-12.65
04.875,41.19
04.890,88.22
04.906,127.1
04.921,157.66
04.937,180.38
04.953,195.88
04.968,204.75
04.984,207.54
05.000,204.94
05.015,197.82
05.031,187.21
05.046,174.04
05.062,159.11
05.078,142.94
05.093,125.98
05.109,108.81
05.125,92.18
05.140,76.99
05.156,64.07
05.171,53.82
05.187,45.96
05.203,39.56
05.218,33.19
05.234,25.36
05.250,15.08
05.265,2.09
05.281,-13.08
05.296,-29.32
05.312,-45.41
05.328,-60.44
05.343,-74.14
05.359,-86.92
05.375,-99.72
05.390,-113.73
05.406,-129.96
05.421,-148.88
05.437,-169.98
05.453,-191.47
05.468,-210.27
05.484,-222.44
05.500,-224.08
05.515,-212.5
05.531,-187.06
05.546,-149.68
05.562,-104.21
05.578,-55.53
05.593,-8.13
05.609,34.75
05.625,71.42
05.640,101.47
05.656,125.13
05.671,142.65
05.687,154.21
05.703,159.95
05.718,160.26
05.734,155.89
05.750,147.84
05.765,137.18
05.781,124.68
05.796,110.89
05.812,96.13
05.828,80.86
05.843,65.84
05.859,52.07
05.875,40.59
05.890,32.02
05.906,26.18
05.921,22.01
05.937,17.78
05.953,11.68
05.968,2.38
05.984,-10.48
06.000,-26.27
06.015,-43.56
06.031,-60.72
06.046,-76.45
06.062,-90.23
06.078,-102.44
06.093,-114.21
06.109,-127.06
06.125,-142.48
06.140,-161.34
06.156,-183.28
06.171,-206.34
06.187,-226.87
06.203,-240.1
06.218,-241.26
06.234,-226.99
06.250,-196.48
06.265,-151.83
06.281,-97.66
06.296,-39.73
06.312,16.41
06.328,66.62
06.343,108.54
06.359,141.33
06.375,165.2
06.390,180.72
06.406,188.6
06.421,189.66
06.437,184.97
06.453,175.89
06.468,163.91
06.484,150.42
06.500,136.33
06.515,122.06
06.531,107.56
06.546,92.7
06.562,77.62
06.578,62.94
06.593,49.64
06.609,38.7
06.625,30.55
06.640,24.76
06.656,20.14
06.671,15.03
06.687,7.95
06.703,-1.87
06.718,-14.31
06.734,-28.4
06.750,-42.88
06.765,-56.62
06.781,-69.1
06.796,-80.56
06.812,-91.94
06.828,-104.59
06.843,-119.77
06.859,-138.04
06.875,-158.7
06.890,-179.47
06.906,-196.61
06.921,-205.68
06.937,-202.68
06.953,-185.18
06.968,-153.29
06.984,-109.7
07.000,-59.01
07.015,-6.58
07.031,42.83
07.046,85.9
07.062,120.92
07.078,147.51
07.093,166.09
07.109,177.33
07.125,181.92
07.140,180.59
07.156,174.3
07.171,164.22
07.187,151.61
07.203,137.57
07.218,122.78
07.234,107.56
07.250,92.06
07.265,76.54
07.281,61.61
07.296,48.12
07.312,36.95
07.328,28.46
07.343,22.29
07.359,17.31
07.375,11.95
07.390,4.84
07.406,-4.7
07.421,-16.54
07.437,-29.84
07.453,-43.41
07.468,-56.21
07.484,-67.66
07.500,-77.78
07.515,-87.22
07.531,-97.09
07.546,-108.64
07.562,-122.85
07.578,-139.8
07.593,-158.17
07.609,-175.03
07.625,-186.2
07.640,-187.32
07.656,-175.04
07.671,-148.19
07.687,-108.18
07.703,-58.67
07.718,-4.52
07.734,49.38
07.750,99.07
07.765,141.86
07.781,176.32
07.796,201.96
07.812,218.97
07.828,228.01
07.843,230.13
07.859,226.61
07.875,218.76
07.890,207.7
07.906,194.16
07.921,178.48
07.937,160.79
07.953,141.23
07.968,120.23
07.984,98.53
08.000,77.14
08.015,57.06
08.031,38.92
08.046,22.87
08.062,8.45
08.078,-5.16
08.093,-18.86
08.109,-33.36
08.125,-48.86
08.140,-65.03
08.156,-81.18
08.171,-96.48
08.187,-110.34
08.203,-122.57
08.218,-133.56
08.234,-144.28
08.250,-155.98
08.265,-169.7
08.281,-185.58
08.296,-202.52
08.312,-217.98
08.328,-228.47
08.343,-230.41
08.359,-221.18
08.375,-199.86
08.390,-167.54
08.406,-127.03
08.421,-82.1
08.437,-36.59
08.453,6.22
08.468,44.06
08.484,75.58
08.500,100.21
08.515,117.88
08.531,128.77
08.546,133.34
08.562,132.29
08.578,126.6
08.593,117.46
08.609,106.11
08.625,93.55
08.640,80.5
08.656,67.39
08.671,54.54
08.687,42.36
08.703,31.43
08.718,22.33
08.734,15.39
08.750,10.47
08.765,6.73
08.781,2.9
08.796,-2.33
08.812,-9.75
08.828,-19.42
08.843,-30.56
08.859,-42.03
08.875,-52.74
08.890,-62.07
08.906,-70.2
08.921,-78.02
08.937,-86.84
08.953,-97.97
08.968,-112.24
08.984,-129.5
09.000,-148.25
09.015,-165.56
09.031,-177.48
09.046,-179.92
09.062,-169.78
09.078,-145.99
09.093,-109.91
09.109,-65.08
09.125,-16.22
09.140,31.89
09.156,75.46
09.171,112.04
09.187,140.59
09.203,161.06
09.218,173.91
09.234,179.9
09.250,179.91
09.265,174.92
09.281,166.0
09.296,154.15
09.312,140.18
09.328,124.7
09.343,108.15
09.359,90.93
09.375,73.55
09.390,56.73
09.406,41.31
09.421,28.08
09.437,17.48
09.453,9.38
09.468,3.01
09.484,-2.87
09.500,-9.62
09.515,-18.22
09.531,-29.01
09.546,-41.59
09.562,-54.98
09.578,-68.09
09.593,-80.11
09.609,-90.85
09.625,-100.87
09.640,-111.26
09.656,-123.31
09.671,-137.86
09.687,-154.8
09.703,-172.56
09.718,-188.22
09.734,-197.97
09.750,-198.05
09.765,-185.89
09.781,-160.86
09.796,-124.59
09.812,-80.6
09.828,-33.3
09.843,13.0
09.859,54.94
09.875,90.4
09.890,118.5
09.906,139.11
09.921,152.53
09.937,159.33
09.953,160.17
09.968,155.95
09.984,147.78
10.000,136.76
10.015,123.83
10.031,109.66
10.046,94.57
10.062,78.85
10.078,62.96
10.093,47.63
10.109,33.8
10.125,22.23
10.140,13.14
10.156,5.96
10.171,-0.52
10.187,-7.87
10.203,-17.37
10.218,-29.56
10.234,-44.08
10.250,-59.72
10.265,-75.12
10.281,-89.2
10.296,-101.69
10.312,-113.2
10.328,-125.01
10.343,-138.56
10.359,-154.81
10.375,-173.77
10.390,-194.02
10.406,-212.8
10.421,-226.34
10.437,-230.56
10.453,-222.18
10.468,-199.64
10.484,-163.74
10.500,-117.54
10.515,-65.66
10.531,-13.06
10.546,35.96
10.562,78.54
10.578,113.29
10.593,139.95
10.609,158.85
10.625,170.49
10.640,175.52
10.656,174.63
10.671,168.75
10.687,158.9
10.703,146.09
10.718,131.25
10.734,115.01
10.750,97.99
10.765,80.81
10.781,64.26
10.796,49.18
10.812,36.21
10.828,25.6
10.843,17.03
10.859,9.59
10.875,2.11
10.890,-6.53
10.906,-17.04
10.921,-29.54
10.937,-43.59
10.953,-58.34
10.968,-72.9
10.984,-86.57
11.000,-99.25
11.015,-111.54
11.031,-124.62
11.046,-139.95
11.062,-158.43
11.078,-179.74
11.093,-201.65
11.109,-220.23
11.125,-230.7
11.140,-228.86
11.156,-212.34
11.171,-181.38
11.187,-138.53
11.203,-87.69
11.218,-33.13
11.234,21.42
11.250,72.87
11.265,118.72
11.281,156.97
11.296,186.25
11.312,206.05
11.328,216.91
11.343,220.3
11.359,217.95
11.375,211.55
11.390,202.18
11.406,190.38
11.421,176.37
11.437,160.42
11.453,143.06
11.468,125.17
11.484,107.83
11.500,92.07
11.515,78.61
11.531,67.61
11.546,58.56
11.562,50.46
11.578,42.02
11.593,32.05
11.609,19.87
11.625,5.41
11.640,-10.8
11.656,-27.84
11.671,-44.79
11.687,-60.96
11.703,-76.16
11.718,-90.81
11.734,-105.95
11.750,-122.89
11.765,-142.76
11.781,-165.9
11.796,-191.15
11.812,-215.65
11.828,-235.07
11.843,-244.57
11.859,-240.2
11.875,-220.1
11.890,-185.18
11.906,-138.88
11.921,-86.23
11.937,-32.44
11.953,18.15
11.968,62.86
11.984,100.59
12.000,131.41
12.015,155.85
12.031,174.47
12.046,187.5
12.062,194.99
12.078,197.02
12.093,193.85
12.109,186.13
12.125,174.74
12.140,160.65
12.156,144.82
12.171,128.13
12.187,111.57
12.203,96.25
12.218,83.34
12.234,73.63
12.250,67.21
12.265,63.21
12.281,59.84
12.296,55.04
12.312,47.13
12.328,35.43
12.343,20.57
12.359,4.19
12.375,-11.8
12.390,-25.94
12.406,-37.81
12.421,-48.22
12.437,-58.91
12.453,-71.97
12.468,-89.11
12.484,-110.99
12.500,-136.54
12.515,-162.83
12.531,-185.35
12.546,-198.9
12.562,-198.96
12.578,-182.94
12.593,-151.07
12.609,-106.42
12.625,-54.09
12.640,0.14
12.656,51.17
12.671,95.49
12.687,131.35
12.703,158.41
12.718,177.15
12.734,188.31
12.750,192.61
12.765,190.78
12.781,183.67
12.796,172.4
12.812,158.23
12.828,142.4
12.843,125.82
12.859,109.09
12.875,92.44
12.890,76.12
12.906,60.5
12.921,46.2
12.937,33.94
12.953,24.25
12.968,17.13
12.984,11.86
13.000,7.15
13.015,1.43
13.031,-6.63
13.046,-17.62
13.062,-31.18
13.078,-46.16
13.093,-61.1
13.109,-74.85
13.125,-87.02
13.140,-98.21
13.156,-109.76
13.171,-123.29
13.187,-140.02
13.203,-160.26
13.218,-182.85
13.234,-205.02
13.250,-222.64
13.265,-230.93
13.281,-225.7
13.296,-204.65
13.312,-168.25
13.328,-119.66
13.343,-64.06
13.359,-7.2
13.375,45.93
13.390,91.97
13.406,129.47
13.421,158.34
13.437,179.23
13.453,192.87
13.468,199.92
13.484,200.97
13.500,196.88
13.515,188.82
13.531,178.2
13.546,166.5
13.562,154.83
13.578,143.66
13.593,132.9
13.609,122.27
13.625,111.75
13.640,101.75
13.656,92.9
13.671,85.72
13.687,80.82
13.703,78.07
13.718,76.6
13.734,74.79
13.750,71.03
13.765,64.19
13.781,54.0
13.796,40.98
13.812,26.09
13.828,11.5
13.843,-1.12
13.859,-11.25
13.875,-20.04
13.890,-29.8
13.906,-42.89
13.921,-60.99
13.937,-84.43
13.953,-111.96
13.968,-138.96
13.984,-159.83
14.000,-169.62
14.015,-165.78
14.031,-148.54
14.046,-120.4
14.062,-85.45
14.078,-48.55
14.093,-14.5
14.109,15.21
14.125,40.67
14.140,63.12
14.156,83.8
14.171,104.12
14.187,125.82
14.203,150.45
14.218,178.34
14.234,193.47
14.250,182.64
14.265,140.69
14.281,74.71
14.296,-1.69
14.312,-76.49
14.328,-143.03
14.343,-199.13
14.359,-245.11
14.375,-282.04
14.390,-308.4
14.406,-323.64
14.421,-327.49
14.437,-321.71
14.453,-309.65
14.468,-294.93
14.484,-280.18
14.500,-266.64
14.515,-254.18
14.531,-239.78
14.546,-221.62
14.562,-198.87
14.578,-172.92
14.593,-146.57
14.609,-122.66
14.625,-103.1
14.640,-88.6
14.656,-78.88
14.671,-71.98
14.687,-66.03
14.703,-59.63
14.718,-52.8
14.734,-46.4
14.750,-41.16
14.765,-37.11
14.781,-33.48
14.796,-29.06
14.812,-22.1
14.828,-11.42
14.843,3.49
14.859,22.04
14.875,43.01
14.890,65.24
14.906,88.06
14.921,111.34
14.937,135.42
14.953,161.13
14.968,189.37
14.984,220.8
15.000,255.09
15.015,290.49
15.031,323.73
15.046,350.55
15.062,366.73
15.078,369.53
15.093,358.6
15.109,336.14
15.125,306.11
15.140,272.66
15.156,238.96
15.171,206.68
15.187,176.25
15.203,147.66
15.218,120.95
15.234,96.26
15.250,73.46
15.265,51.62
15.281,29.16
15.296,4.31
15.312,-24.02
15.328,-55.66
15.343,-89.05
15.359,-121.8
15.375,-151.41
15.390,-175.93
15.406,-194.21
15.421,-205.65
15.437,-209.86
15.453,-206.29
15.468,-194.43
15.484,-174.03
15.500,-145.59
15.515,-110.57
15.531,-71.24
15.546,-30.26
15.562,9.82
15.578,46.87
15.593,79.19
15.609,105.41
15.625,124.33
15.640,135.04
15.656,137.27
15.671,131.68
15.687,119.87
15.703,104.09
15.718,86.59
15.734,69.08
15.750,52.53
15.765,37.33
15.781,23.66
15.796,11.77
15.812,2.06
15.828,-5.33
15.843,-10.61
15.859,-14.44
15.875,-17.66
15.890,-20.83
15.906,-24.13
15.921,-27.56
15.937,-31.39
15.953,-36.63
15.968,-45.03
15.984,-58.6
16.000,-78.7
16.015,-105.34
16.031,-136.71
16.046,-169.44
16.062,-199.18
16.078,-221.41
16.093,-232.3
16.109,-229.36
16.125,-211.97
16.140,-181.52
16.156,-141.07
16.171,-94.62
16.187,-46.0
16.203,2.14
16.218,48.81
16.234,94.34
16.250,139.36
16.265,183.66
16.281,225.41
16.296,261.5
16.312,288.62
16.328,304.55
16.343,309.06
16.359,303.73
16.375,291.06
16.390,273.39
16.406,252.28
16.421,228.41
16.437,202.31
16.453,174.83
16.468,147.35
16.484,121.29
16.500,97.59
16.515,76.32
16.531,56.91
16.546,38.66
16.562,21.14
16.578,4.39
16.593,-11.36
16.609,-25.88
16.625,-39.08
16.640,-51.12
16.656,-62.32
16.671,-73.0
16.687,-83.44
16.703,-93.79
16.718,-103.89
16.734,-113.35
16.750,-121.56
16.765,-127.96
16.781,-132.21
16.796,-134.28
16.812,-134.34
16.828,-132.5
16.843,-128.71
16.859,-122.55
16.875,-113.56
16.890,-101.32
16.906,-85.66
16.921,-66.79
16.937,-45.26
16.953,-22.07
16.968,1.51
16.984,23.86
17.000,43.46
17.015,59.12
17.031,70.2
17.046,76.67
17.062,78.84
17.078,77.26
17.093,72.5
17.109,65.17
17.125,55.95
17.140,45.59
17.156,34.78
17.171,24.05
17.187,13.74
17.203,4.09
17.218,-4.57
17.234,-11.77
17.250,-17.0
17.265,-20.03
17.281,-21.18
17.296,-21.49
17.312,-22.37
17.328,-25.02
17.343,-30.02
17.359,-36.94
17.375,-44.64
17.390,-51.74
17.406,-57.2
17.421,-60.73
17.437,-62.77
17.453,-64.36
17.468,-66.62
17.484,-70.41
17.500,-75.79
17.515,-81.86
17.531,-86.86
17.546,-88.56
17.562,-84.95
17.578,-74.87
17.593,-58.39
17.609,-36.71
17.625,-11.85
17.640,14.06
17.656,39.21
17.671,62.26
17.687,82.38
17.703,99.12
17.718,112.34
17.734,122.1
17.750,128.73
17.765,132.5
17.781,133.56
17.796,131.75
17.812,126.65
17.828,118.0
17.843,105.94
17.859,91.32
17.875,75.61
17.890,60.51
17.906,47.5
17.921,37.41
17.937,30.36
17.953,25.91
17.968,23.42
17.984,22.19
18.000,21.62
18.015,21.14
18.031,20.19
18.046,18.24
18.062,15.03
18.078,10.67
18.093,5.65
18.109,0.72
18.125,-3.43
18.140,-6.36
18.156,-8.02
18.171,-8.75
18.187,-9.12
18.203,-9.72
18.218,-10.94
18.234,-12.91
18.250,-15.34
18.265,-17.7
18.281,-19.44
18.296,-20.15
18.312,-19.78
18.328,-18.64
18.343,-17.29
18.359,-16.31
18.375,-16.07
18.390,-16.63
18.406,-17.66
18.421,-18.64
18.437,-19.02
18.453,-18.38
18.468,-16.63
18.484,-14.03
18.500,-11.09
18.515,-8.44
18.531,-6.63
18.546,-6.08
18.562,-6.94
18.578,-9.11
18.593,-12.26
18.609,-15.83
18.625,-19.29
18.640,-22.14
18.656,-24.12
18.671,-25.21
18.687,-25.51
18.703,-25.19
18.718,-24.29
18.734,-22.74
18.750,-20.48
18.765,-17.5
18.781,-14.02
18.796,-10.42
18.812,-7.17
18.828,-4.71
18.843,-3.38
18.859,-3.33
18.875,-4.55
18.890,-6.92
18.906,-10.25
18.921,-14.29
18.937,-18.71
18.953,-23.07
18.968,-26.86
18.984,-29.7
19.000,-31.42
19.015,-32.2
19.031,-32.55
19.046,-33.07
19.062,-34.22
19.078,-36.15
19.093,-38.71
19.109,-41.58
19.125,-44.47
19.140,-47.27
19.156,-49.94
19.171,-52.47
19.187,-54.78
19.203,-56.8
19.218,-58.68
19.234,-60.85
19.250,-64.08
19.265,-69.28
19.281,-77.26
19.296,-88.49
19.312,-102.93
19.328,-120.08
19.343,-139.04
19.359,-158.8
19.375,-178.44
19.390,-197.3
19.406,-214.92
19.421,-230.9
19.437,-244.69
19.453,-255.43
19.468,-262.13
19.484,-264.02
19.500,-260.92
19.515,-253.4
19.531,-242.51
19.546,-229.26
19.562,-214.03
19.578,-196.42
19.593,-175.53
19.609,-150.47
19.625,-121.07
19.640,-88.04
19.656,-52.86
19.671,-17.31
19.687,17.13
19.703,49.52
19.718,79.52
19.734,107.25
19.750,132.88
19.765,156.43
19.781,177.65
19.796,196.04
19.812,211.04
19.828,222.17
19.843,229.24
19.859,232.39
19.875,232.1
19.890,229.04
19.906,223.94
19.921,217.49
19.937,210.25
19.953,202.64
19.968,194.96
19.984,187.33
20.000,179.66
20.015,171.65
20.031,162.87
20.046,152.95
20.062,141.76
20.078,129.51
20.093,116.59
20.109,103.42
20.125,90.26
20.140,77.13
20.156,63.79
20.171,49.93
20.187,35.24
20.203,19.59
20.218,3.1
20.234,-13.85
20.250,-30.47
20.265,-45.71
20.281,-58.27
20.296,-66.9
20.312,-70.64
20.328,-68.98
20.343,-62.07
20.359,-50.64
20.375,-35.88
20.390,-19.26
20.406,-2.26
20.421,13.82
20.437,27.98
20.453,39.54
20.468,48.1
20.484,53.37
20.500,55.1
20.515,53.09
20.531,47.26
20.546,37.79
20.562,25.17
20.578,10.08
20.593,-6.59
20.609,-24.0
20.625,-41.45
20.640,-58.38
20.656,-74.38
20.671,-89.17
20.687,-102.49
20.703,-114.14
20.718,-123.95
20.734,-131.91
20.750,-138.09
20.765,-142.82
20.781,-146.66
20.796,-150.38
20.812,-154.8
20.828,-160.51
20.843,-167.61
20.859,-175.36
20.875,-182.32
20.890,-186.48
20.906,-185.76
20.921,-178.54
20.937,-163.98
20.953,-142.29
20.968,-114.61
20.984,-82.73
21.000,-48.71
21.015,-14.57
21.031,18.04
21.046,47.85
21.062,74.0
21.078,95.9
21.093,113.15
21.109,125.57
21.125,133.24
21.140,136.6
21.156,136.23
21.171,132.77
21.187,126.64
21.203,117.99
21.218,106.92
21.234,93.72
21.250,79.19
21.265,64.65
21.281,51.62
21.296,41.34
21.312,34.4
21.328,30.62
21.343,29.25
21.359,29.4
21.375,30.23
21.390,31.17
21.406,31.8
21.421,31.73
21.437,30.56
21.453,27.91
21.468,23.49
21.484,17.18
21.500,9.14
21.515,-0.2
21.531,-10.02
21.546,-19.08
21.562,-25.81
21.578,-28.59
21.593,-26.17
21.609,-18.02
21.625,-4.71
21.640,12.27
21.656,30.79
21.671,48.63
21.687,64.05
21.703,76.05
21.718,84.45
21.734,89.56
21.750,92.01
21.765,92.42
21.781,91.43
21.796,89.65
21.812,87.74
21.828,86.3
21.843,85.72
21.859,85.92
21.875,86.3
21.890,85.79
21.906,83.24
21.921,77.74
21.937,69.01
21.953,57.67
21.968,45.07
21.984,33.0
22.000,23.21
22.015,16.78
22.031,13.84
22.046,13.57
22.062,14.5
22.078,15.11
22.093,14.38
22.109,12.11
22.125,8.81
22.140,5.41
22.156,2.73
22.171,1.08
22.187,0.2
22.203,-0.57
22.218,-1.91
22.234,-4.19
22.250,-7.38
22.265,-11.11
22.281,-14.91
22.296,-18.47
22.312,-21.74
22.328,-24.83
22.343,-27.87
22.359,-30.93
22.375,-33.97
22.390,-36.92
22.406,-39.76
22.421,-42.38
22.437,-44.75
22.453,-46.76
22.468,-48.32
22.484,-49.41
22.500,-50.11
22.515,-50.6
22.531,-51.22
22.546,-52.41
22.562,-54.72
22.578,-58.77
22.593,-65.16
22.609,-74.28
22.625,-86.09
22.640,-100.08
22.656,-115.25
22.671,-130.3
22.687,-143.85
22.703,-154.66
22.718,-161.81
22.734,-164.72
22.750,-163.35
22.765,-158.23
22.781,-150.43
22.796,-141.46
22.812,-132.89
22.828,-126.02
22.843,-121.52
22.859,-119.36
22.875,-118.81
22.890,-118.78
22.906,-118.07
22.921,-115.64
22.937,-110.75
22.953,-102.85
22.968,-91.54
22.984,-76.61
23.000,-58.02
23.015,-36.07
23.031,-11.54
23.046,14.33
23.062,39.93
23.078,63.56
23.093,83.83
23.109,99.85
23.125,111.39
23.140,118.74
23.156,122.44
23.171,123.05
23.187,120.98
23.203,116.51
23.218,109.79
23.234,100.99
23.250,90.31
23.265,78.03
23.281,64.52
23.296,50.21
23.312,35.59
23.328,21.2
23.343,7.52
23.359,-5.2
23.375,-16.98
23.390,-28.2
23.406,-39.34
23.421,-50.94
23.437,-63.36
23.453,-76.62
23.468,-90.27
23.484,-103.23
23.500,-113.72
23.515,-119.52
23.531,-118.46
23.546,-108.97
23.562,-90.75
23.578,-64.94
23.593,-33.83
23.609,-0.36
23.625,32.65
23.640,62.98
23.656,89.22
23.671,110.8
23.687,127.76
23.703,140.53
23.718,149.57
23.734,155.15
23.750,157.16
23.765,155.3
23.781,149.35
23.796,139.68
23.812,127.52
23.828,114.74
23.843,103.44
23.859,95.22
23.875,90.87
23.890,90.25
23.906,92.67
23.921,97.15
23.937,102.71
23.953,108.25
23.968,112.46
23.984,113.94
24.000,111.51
24.015,104.75
24.031,94.25
24.046,81.51
24.062,68.26
24.078,55.57
24.093,43.39
24.109,30.69
24.125,16.3
24.140,0.02
24.156,-16.77
24.171,-31.16
24.187,-39.75
24.203,-39.85
24.218,-30.7
24.234,-13.68
24.250,8.21
24.265,31.34
24.281,52.59
24.296,69.91
24.312,82.48
24.328,90.41
24.343,94.35
24.359,95.13
24.375,93.49
24.390,89.96
24.406,84.8
24.421,77.95
24.437,69.18
24.453,58.42
24.468,45.94
24.484,32.7
24.500,20.14
24.515,9.85
24.531,3.05
24.546,0.15
24.562,0.71
24.578,3.62
24.593,7.53
24.609,11.18
24.625,13.64
24.640,14.32
24.656,12.9
24.671,9.3
24.687,3.61
24.703,-3.75
24.718,-12.06
24.734,-20.42
24.750,-27.8
24.765,-33.14
24.781,-35.4
24.796,-33.47
24.812,-26.18
24.828,-12.52
24.843,8.16
24.859,35.77
24.875,69.21
24.890,106.44
24.906,144.74
24.921,181.22
24.937,213.31
24.953,239.18
24.968,257.86
24.984,269.18
25.000,273.55
25.015,271.76
25.031,264.85
25.046,253.93
25.062,240.12
25.078,224.46
25.093,207.99
25.109,191.86
25.125,177.2
25.140,164.9
25.156,155.04
25.171,146.58
25.187,137.23
25.203,124.13
25.218,104.88
25.234,78.65
25.250,46.6
25.265,11.49
25.281,-23.34
25.296,-55.21
25.312,-82.85
25.328,-106.47
25.343,-127.25
25.359,-146.75
25.375,-166.49
25.390,-187.77
25.406,-211.3
25.421,-236.59
25.437,-261.34
25.453,-281.38
25.468,-291.59
25.484,-287.69
25.500,-268.08
25.515,-234.92
25.531,-193.56
25.546,-150.72
25.562,-112.24
25.578,-81.47
25.593,-59.09
25.609,-44.09
25.625,-35.08
25.640,-31.29
25.656,-32.62
25.671,-39.21
25.687,-50.66
25.703,-65.71
25.718,-82.43
25.734,-98.53
25.750,-111.98
25.765,-121.48
25.781,-126.65
25.796,-127.86
25.812,-125.97
25.828,-121.93
25.843,-116.51
25.859,-110.4
25.875,-104.2
25.890,-98.77
25.906,-95.11
25.921,-94.17
25.937,-96.38
25.953,-101.48
25.968,-108.6
25.984,-116.64
26.000,-124.8
26.015,-132.68
26.031,-140.1
26.046,-146.64
26.062,-151.22
26.078,-152.0
26.093,-146.86
26.109,-134.08
26.125,-113.07
26.140,-84.75
26.156,-51.32
26.171,-15.78
26.187,18.94
26.203,50.48
26.218,77.4
26.234,99.1
26.250,115.53
26.265,126.93
26.281,133.53
26.296,135.56
26.312,133.21
26.328,126.78
26.343,116.83
26.359,104.1
26.375,89.6
26.390,74.45
26.406,59.83
26.421,46.71
26.437,35.7
26.453,26.92
26.468,19.94
26.484,13.95
26.500,7.9
26.515,0.87
26.531,-7.68
26.546,-17.7
26.562,-28.63
26.578,-39.58
26.593,-49.81
26.609,-58.99
26.625,-67.37
26.640,-75.65
26.656,-84.45
26.671,-93.93
26.687,-103.36
26.703,-111.17
26.718,-115.18
26.734,-113.23
26.750,-103.74
26.765,-86.14
26.781,-61.07
26.796,-30.24
26.812,3.83
26.828,38.21
26.843,70.09
26.859,97.18
26.875,117.95
26.890,131.84
26.906,139.18
26.921,140.97
26.937,138.61
26.953,133.5
26.968,126.7
26.984,118.76
27.000,109.72
27.015,99.32
27.031,87.42
27.046,74.33
27.062,60.87
27.078,48.36
27.093,38.06
27.109,30.68
27.125,26.17
27.140,23.5
27.156,21.12
27.171,17.35
27.187,10.93
27.203,1.33
27.218,-11.07
27.234,-25.11
27.250,-39.39
27.265,-52.7
27.281,-64.81
27.296,-76.76
27.312,-90.58
27.328,-108.47
27.343,-131.6
27.359,-159.16
27.375,-188.16
27.390,-214.1
27.406,-232.28
27.421,-239.41
27.437,-234.53
27.453,-219.17
27.468,-196.67
27.484,-170.97
27.500,-145.42
27.515,-122.09
27.531,-101.68
27.546,-83.71
27.562,-67.27
27.578,-51.39
27.593,-35.48
27.609,-19.44
27.625,-3.49
27.640,11.86
27.656,25.98
27.671,38.17
27.687,47.8
27.703,54.43
27.718,57.99
27.734,58.9
27.750,57.97
27.765,56.31
27.781,55.02
27.796,54.84
27.812,55.93
27.828,57.81
27.843,59.52
27.859,60.13
27.875,59.15
27.890,56.83
27.906,54.02
27.921,51.72
27.937,50.51
27.953,50.08
27.968,49.27
27.984,46.53
28.000,40.67
28.015,31.55
28.031,20.39
28.046,9.5
28.062,1.63
28.078,-0.9
28.093,3.11
28.109,13.39
28.125,28.37
28.140,45.64
28.156,62.66
28.171,77.31
28.187,88.24
28.203,94.81
28.218,97.05
28.234,95.28
28.250,90.06
28.265,82.05
28.281,72.0
28.296,60.63
28.312,48.57
28.328,36.29
28.343,24.05
28.359,12.05
28.375,0.55
28.390,-10.0
28.406,-18.99
28.421,-25.83
28.437,-30.15
28.453,-32.07
28.468,-32.2
28.484,-31.53
28.500,-31.11
28.515,-31.79
28.531,-34.05
28.546,-37.93
28.562,-43.19
28.578,-49.46
28.593,-56.32
28.609,-63.55
28.625,-71.03
28.640,-78.78
28.656,-86.84
28.671,-95.15
28.687,-103.33
28.703,-110.49
28.718,-115.21
28.734,-115.68
28.750,-110.21
28.765,-97.7
28.781,-78.21
28.796,-52.98
28.812,-24.26
28.828,5.38
28.843,33.57
28.859,58.65
28.875,79.68
28.890,96.32
28.906,108.5
28.921,116.38
28.937,120.29
28.953,120.83
28.968,118.86
28.984,115.08
29.000,109.89
29.015,103.1
29.031,93.99
29.046,81.77
29.062,66.15
29.078,47.83
29.093,28.54
29.109,10.64
29.125,-3.89
29.140,-14.08
29.156,-20.33
29.171,-24.14
29.187,-27.36
29.203,-31.46
29.218,-37.05
29.234,-44.02
29.250,-51.93
29.265,-60.52
29.281,-69.94
29.296,-80.67
29.312,-93.4
29.328,-108.6
29.343,-126.36
29.359,-146.1
29.375,-166.43
29.390,-185.06
29.406,-199.09
29.421,-205.5
29.437,-201.94
29.453,-187.45
29.468,-162.69
29.484,-129.82
29.500,-91.9
29.515,-52.19
29.531,-13.58
29.546,21.67
29.562,51.93
29.578,76.03
29.593,93.32
29.609,103.77
29.625,108.02
29.640,107.37
29.656,103.5
29.671,97.99
29.687,91.9
29.703,85.47
29.718,78.35
29.734,69.92
29.750,59.85
29.765,48.32
29.781,35.99
29.796,23.77
29.812,12.38
29.828,2.18
29.843,-6.97
29.859,-15.47
29.875,-23.71
29.890,-31.9
29.906,-39.94
29.921,-47.6
29.937,-54.65
29.953,-61.1
29.968,-67.28
29.984,-73.81
30.000,-81.37
30.015,-90.58
30.031,-101.71
30.046,-114.54
30.062,-128.15
30.078,-140.83
30.093,-150.11
30.109,-153.08
30.125,-147.19
30.140,-130.95
30.156,-104.63
30.171,-70.25
30.187,-31.16
30.203,8.81
30.218,46.3
30.234,78.79
30.250,104.81
30.265,123.63
30.281,135.11
30.296,139.56
30.312,137.83
30.328,131.29
30.343,121.61
30.359,110.37
30.375,98.79
30.390,87.36
30.406,76.16
30.421,65.04
30.437,53.99
30.453,43.41
30.468,33.92
30.484,26.11
30.500,20.26
30.515,16.09
30.531,12.86
30.546,9.63
30.562,5.56
30.578,0.21
30.593,-6.36
30.609,-13.66
30.625,-21.0
30.640,-27.77
30.656,-33.71
30.671,-39.05
30.687,-44.52
30.703,-51.13
30.718,-59.79
30.734,-70.79
30.750,-83.45
30.765,-95.84
30.781,-105.09
30.796,-108.08
30.812,-102.24
30.828,-86.47
30.843,-61.46
30.859,-29.61
30.875,5.74
30.890,41.01
30.906,73.15
30.921,100.01
30.937,120.36
30.953,133.81
30.968,140.46
30.984,140.95
31.000,136.25
31.015,127.56
31.031,116.14
31.046,103.09
31.062,89.22
31.078,75.03
31.093,60.93
31.109,47.31
31.125,34.7
31.140,23.73
31.156,15.03
31.171,8.9
31.187,5.23
31.203,3.38
31.218,2.36
31.234,1.1
31.250,-1.31
31.265,-5.27
31.281,-10.72
31.296,-17.23
31.312,-24.21
31.328,-31.24
31.343,-38.16
31.359,-45.31
31.375,-53.3
31.390,-62.88
31.406,-74.58
31.421,-88.31
31.437,-103.09
31.453,-116.87
31.468,-126.85
31.484,-130.16
31.500,-124.66
31.515,-109.71
31.531,-86.36
31.546,-57.1
31.562,-25.16
31.578,6.31
31.593,34.9
31.609,59.01
31.625,77.76
31.640,90.74
31.656,97.78
31.671,98.98
31.687,94.74
31.703,85.83
31.718,73.29
31.734,58.37
31.750,42.28
31.765,26.23
31.781,11.41
31.796,-1.09
31.812,-10.46
31.828,-16.37
31.843,-19.22
31.859,-20.08
31.875,-20.39
31.890,-21.52
31.906,-24.35
31.921,-29.08
31.937,-35.36
31.953,-42.6
31.968,-50.23
31.984,-58.03
32.000,-66.13
32.015,-75.04
32.031,-85.49
32.046,-98.17
32.062,-113.25
32.078,-129.99
32.093,-146.35
32.109,-159.06
32.125,-164.32
32.140,-158.79
32.156,-140.57
32.171,-109.9
32.187,-69.11
32.203,-21.92
32.218,27.41
32.234,74.87
32.250,117.19
32.265,151.99
32.281,177.85
32.296,194.27
32.312,201.69
32.328,201.38
32.343,195.15
32.359,184.92
32.375,172.28
32.390,158.3
32.406,143.5
32.421,128.02
32.437,111.97
32.453,95.72
32.468,80.05
32.484,65.99
32.500,54.49
32.515,46.01
32.531,40.16
32.546,35.68
32.562,30.8
32.578,23.89
32.593,14.01
32.609,1.21
32.625,-13.53
32.640,-28.86
32.656,-43.55
32.671,-56.95
32.687,-69.17
32.703,-81.0
32.718,-93.54
32.734,-107.62
32.750,-123.25
32.765,-139.13
32.781,-152.54
32.796,-159.87
32.812,-157.52
32.828,-143.02
32.843,-115.81
32.859,-77.52
32.875,-31.56
32.890,17.78
32.906,66.18
32.921,109.96
32.937,146.49
32.953,174.14
32.968,192.34
32.984,201.34
33.000,202.18
33.015,196.35
33.031,185.56
33.046,171.44
33.062,155.27
33.078,137.94
33.093,119.95
33.109,101.69
33.125,83.57
33.140,66.22
33.156,50.38
33.171,36.79
33.187,25.91
33.203,17.76
33.218,11.84
33.234,7.16
33.250,2.62
33.265,-2.79
33.281,-9.66
33.296,-18.03
33.312,-27.47
33.328,-37.28
33.343,-46.87
33.359,-56.01
33.375,-65.12
33.390,-75.12
33.406,-87.04
33.421,-101.42
33.437,-117.62
33.453,-133.53
33.468,-145.72
33.484,-150.23
33.500,-143.71
33.515,-124.57
33.531,-93.57
33.546,-53.7
33.562,-9.35
33.578,34.88
33.593,75.17
33.609,109.09
33.625,135.45
33.640,154.02
33.656,164.96
33.671,168.61
33.687,165.45
33.703,156.22
33.718,142.11
33.734,124.62
33.750,105.45
33.765,86.18
33.781,68.07
33.796,51.99
33.812,38.49
33.828,27.93
33.843,20.43
33.859,15.99
33.875,14.27
33.890,14.47
33.906,15.42
33.921,15.63
33.937,13.81
33.953,9.13
33.968,1.5
33.984,-8.47
34.000,-19.62
34.015,-30.74
34.031,-40.9
34.046,-49.84
34.062,-58.06
34.078,-66.67
34.093,-76.94
34.109,-89.69
34.125,-104.73
34.140,-120.46
34.156,-134.02
34.171,-141.9
34.187,-140.78
34.203,-128.59
34.218,-105.1
34.234,-72.1
34.250,-32.91
34.265,8.39
34.281,47.9
34.296,82.61
34.312,110.65
34.328,131.27
34.343,144.42
34.359,150.5
34.375,150.07
34.390,143.93
34.406,133.09
34.421,118.83
34.437,102.55
34.453,85.58
34.468,68.95
34.484,53.38
34.500,39.34
34.515,27.28
34.531,17.61
34.546,10.7
34.562,6.66
34.578,5.18
34.593,5.4
34.609,6.17
34.625,6.14
34.640,4.16
34.656,-0.47
34.671,-7.88
34.687,-17.6
34.703,-28.78
34.718,-40.35
34.734,-51.54
34.750,-62.0
34.765,-71.99
34.781,-82.25
34.796,-93.67
34.812,-106.83
34.828,-121.5
34.843,-136.31
34.859,-148.71
34.875,-155.41
34.890,-153.19
34.906,-139.96
34.921,-115.44
34.937,-81.49
34.953,-41.63
34.968,-0.09
34.984,39.18
35.000,73.32
35.015,100.65
35.031,120.54
35.046,132.89
35.062,137.92
35.078,136.19
35.093,128.61
35.109,116.58
35.125,101.78
35.140,85.81
35.156,69.99
35.171,55.14
35.187,41.72
35.203,29.99
35.218,20.12
35.234,12.34
35.250,6.74
35.265,3.25
35.281,1.51
35.296,0.86
35.312,0.39
35.328,-0.89
35.343,-3.88
35.359,-9.2
35.375,-16.94
35.390,-26.57
35.406,-37.19
35.421,-47.7
35.437,-57.31
35.453,-65.79
35.468,-73.56
35.484,-81.55
35.500,-90.76
35.515,-101.82
35.531,-114.44
35.546,-127.32
35.562,-138.07
35.578,-143.66
35.593,-141.21
35.609,-128.74
35.625,-105.84
35.640,-73.93
35.656,-35.99
35.671,4.17
35.687,42.7
35.703,76.63
35.718,104.07
35.734,124.31
35.750,137.4
35.765,143.73
35.781,143.9
35.796,138.61
35.812,128.84
35.828,115.87
35.843,101.12
35.859,85.97
35.875,71.43
35.890,58.08
35.906,46.11
35.921,35.55
35.937,26.57
35.953,19.42
35.968,14.39
35.984,11.49
36.000,10.26
36.015,9.76
36.031,8.74
36.046,6.05
36.062,0.91
36.078,-6.87
36.093,-16.79
36.109,-27.98
36.125,-39.4
36.140,-50.27
36.156,-60.17
36.171,-69.24
36.187,-78.01
36.203,-87.24
36.218,-97.63
36.234,-109.44
36.250,-122.08
36.265,-133.92
36.281,-142.31
36.296,-144.15
36.312,-136.8
36.328,-118.94
36.343,-91.23
36.359,-56.19
36.375,-17.61
36.390,20.56
36.406,55.08
36.421,83.92
36.437,106.25
36.453,121.98
36.468,131.44
36.484,134.99
36.500,133.12
36.515,126.55
36.531,116.31
36.546,103.69
36.562,90.0
36.578,76.38
36.593,63.54
36.609,51.82
36.625,41.29
36.640,32.01
36.656,24.16
36.671,18.06
36.687,13.95
36.703,11.73
36.718,10.82
36.734,10.09
36.750,8.27
36.765,4.25
36.781,-2.5
36.796,-11.74
36.812,-22.63
36.828,-34.03
36.843,-44.99
36.859,-55.05
36.875,-64.34
36.890,-73.47
36.906,-83.28
36.921,-94.54
36.937,-107.62
36.953,-122.2
36.968,-136.95
36.984,-149.61
37.000,-157.25
37.015,-156.91
37.031,-146.47
37.046,-125.42
37.062,-95.15
37.078,-58.63
37.093,-19.65
37.109,18.13
37.125,51.97
37.140,80.26
37.156,102.36
37.171,118.22
37.187,128.04
37.203,132.14
37.218,131.0
37.234,125.42
37.250,116.63
37.265,106.01
37.281,94.88
37.296,84.18
37.312,74.29
37.328,65.18
37.343,56.68
37.359,48.76
37.375,41.65
37.390,35.79
37.406,31.57
37.421,28.94
37.437,27.45
37.453,26.24
37.468,24.28
37.484,20.88
37.500,15.74
37.515,9.11
37.531,1.59
37.546,-6.2
37.562,-13.88
37.578,-21.44
37.593,-29.21
37.609,-37.81
37.625,-47.75
37.640,-59.2
37.656,-71.77
37.671,-84.43
37.687,-95.49
37.703,-102.92
37.718,-104.63
37.734,-99.06
37.750,-85.57
37.765,-64.73
37.781,-38.21
37.796,-8.43
37.812,21.86
37.828,50.23
37.843,74.79
37.859,94.35
37.875,108.24
37.890,116.28
37.906,118.71
37.921,116.16
37.937,109.68
37.953,100.59
37.968,90.18
37.984,79.47
38.000,68.97
38.015,58.61
38.031,48.05
38.046,36.96
38.062,25.31
38.078,13.55
38.093,2.48
38.109,-7.16
38.125,-15.1
38.140,-21.66
38.156,-27.68
38.171,-34.16
38.187,-41.68
38.203,-50.28
38.218,-59.25
38.234,-67.59
38.250,-74.35
38.265,-79.16
38.281,-82.24
38.296,-84.34
38.312,-86.5
38.328,-89.74
38.343,-94.74
38.359,-101.5
38.375,-109.02
38.390,-115.25
38.406,-117.47
38.421,-112.87
38.437,-99.59
38.453,-77.34
38.468,-47.66
38.484,-13.52
38.500,21.5
38.515,54.02
38.531,81.5
38.546,102.38
38.562,116.11
38.578,122.86
38.593,123.4
38.609,118.94
38.625,110.87
38.640,100.73
38.656,89.91
38.671,79.74
38.687,71.31
38.703,65.5
38.718,62.81
38.734,63.27
38.750,66.41
38.765,71.34
38.781,77.01
38.796,82.48
38.812,87.1
38.828,90.46
38.843,92.45
38.859,93.06
38.875,92.45
38.890,91.03
38.906,89.32
38.921,87.98
38.937,87.53
38.953,88.15
38.968,89.48
38.984,90.63
39.000,90.41
39.015,87.78
39.031,82.45
39.046,75.24
39.062,68.18
39.078,64.09
39.093,65.79
39.109,75.16
39.125,92.48
39.140,116.28
39.156,143.72
39.171,171.39
39.187,196.03
39.203,215.07
39.218,226.9
39.234,230.88
39.250,227.3
39.265,217.28
39.281,202.54
39.296,185.13
39.312,167.08
39.328,149.96
39.343,134.74
39.359,121.67
39.375,110.55
39.390,101.0
39.406,92.59
39.421,85.05
39.437,78.17
39.453,71.83
39.468,65.98
39.484,60.54
39.500,55.49
39.515,50.77
39.531,46.4
39.546,42.37
39.562,38.64
39.578,35.14
39.593,31.71
39.609,28.22
39.625,24.52
39.640,20.56
39.656,16.36
39.671,12.0
39.687,7.54
39.703,2.93
39.718,-2.05
39.734,-7.82
39.750,-14.86
39.765,-23.6
39.781,-34.23
39.796,-46.67
39.812,-60.55
39.828,-75.45
39.843,-90.99
39.859,-106.98
39.875,-123.47
39.890,-140.58
39.906,-158.49
39.921,-177.35
39.937,-197.22
39.953,-218.0
39.968,-239.22
39.984,-260.03
40.000,-279.06
40.015,-294.81
40.031,-306.07
40.046,-312.36
40.062,-314.06
40.078,-312.08
40.093,-307.32
40.109,-300.1
40.125,-290.21
40.140,-277.28
40.156,-261.44
40.171,-243.78
40.187,-226.29
40.203,-211.2
40.218,-200.26
40.234,-194.1
40.250,-192.18
40.265,-193.26
40.281,-195.94
40.296,-199.38
40.312,-203.26
40.328,-207.81
40.343,-213.51
40.359,-220.68
40.375,-229.27
40.390,-238.46
40.406,-246.55
40.421,-250.98
40.437,-248.68
40.453,-236.73
40.468,-213.2
40.484,-178.03
40.500,-133.26
40.515,-82.8
40.531,-31.44
40.546,16.3
40.562,56.96
40.578,88.68
40.593,111.0
40.609,124.46
40.625,130.15
40.640,129.29
40.656,123.09
40.671,112.69
40.687,99.06
40.703,83.05
40.718,65.43
40.734,46.88
40.750,28.08
40.765,9.8
40.781,-7.14
40.796,-22.05
40.812,-34.52
40.828,-44.56
40.843,-52.64
40.859,-59.54
40.875,-66.15
40.890,-73.2
40.906,-81.02
40.921,-89.58
40.937,-98.56
40.953,-107.62
40.968,-116.47
40.984,-125.04
41.000,-133.41
41.015,-141.84
41.031,-150.77
41.046,-160.66
41.062,-171.77
41.078,-183.69
41.093,-194.87
41.109,-202.45
41.125,-202.75
41.140,-192.22
41.156,-168.63
41.171,-131.82
41.187,-83.69
41.203,-27.48
41.218,32.9
41.234,93.57
41.250,150.65
41.265,200.26
41.281,238.7
41.296,262.97
41.312,271.46
41.328,264.38
41.343,243.52
41.359,211.54
41.375,171.08
41.390,124.25
41.406,72.7
41.421,18.08
41.437,-37.43
41.453,-91.03
41.468,-139.64
41.484,-180.65
41.500,-212.5
41.515,-235.12
41.531,-249.72
41.546,-258.25
41.562,-262.46
41.578,-263.25
41.593,-260.35
41.609,-252.66
41.625,-239.01
41.640,-219.06
41.656,-193.84
41.671,-165.7
41.687,-137.77
41.703,-113.13
41.718,-94.11
41.734,-81.85
41.750,-75.98
41.765,-74.72
41.781,-75.06
41.796,-73.38
41.812,-66.21
41.828,-51.05
41.843,-26.81
41.859,6.14
41.875,46.27
41.890,91.34
41.906,138.63
41.921,184.89
41.937,226.49
41.953,259.84
41.968,282.06
41.984,291.9
42.000,290.1
42.015,279.03
42.031,261.87
42.046,241.38
42.062,219.29
42.078,196.35
42.093,172.81
42.109,148.97
42.125,125.59
42.140,103.72
42.156,84.33
42.171,67.91
42.187,54.17
42.203,42.17
42.218,30.69
42.234,18.53
42.250,5.03
42.265,-9.82
42.281,-25.39
42.296,-40.75
42.312,-55.13
42.328,-68.22
42.343,-80.34
42.359,-92.32
42.375,-105.27
42.390,-120.11
42.406,-137.04
42.421,-155.13
42.437,-172.1
42.453,-184.55
42.468,-188.74
42.484,-181.59
42.500,-161.58
42.515,-129.17
42.531,-86.67
42.546,-37.65
42.562,13.92
42.578,64.19
42.593,109.86
42.609,148.41
42.625,178.24
42.640,198.82
42.656,210.69
42.671,215.23
42.687,214.1
42.703,208.81
42.718,200.4
42.734,189.47
42.750,176.45
42.765,161.88
42.781,146.58
42.796,131.66
42.812,118.21
42.828,107.06
42.843,98.51
42.859,92.24
42.875,87.29
42.890,82.37
42.906,76.21
42.921,67.93
42.937,57.39
42.953,45.1
42.968,31.81
42.984,18.22
43.000,4.39
43.015,-10.27
43.031,-26.97
43.046,-47.14
43.062,-71.84
43.078,-101.18
43.093,-133.75
43.109,-166.29
43.125,-194.08
43.140,-211.71
43.156,-214.57
43.171,-200.21
43.187,-169.33
43.203,-125.65
43.218,-74.88
43.234,-23.15
43.250,24.41
43.265,64.45
43.281,95.31
43.296,116.58
43.312,128.49
43.328,131.72
43.343,127.42
43.359,117.26
43.375,103.28
43.390,87.46
43.406,71.31
43.421,55.71
43.437,41.02
43.453,27.57
43.468,15.76
43.484,6.08
43.500,-1.24
43.515,-6.56
43.531,-10.96
43.546,-15.98
43.562,-23.03
43.578,-32.88
43.593,-45.3
43.609,-59.19
43.625,-73.04
43.640,-85.49
43.656,-95.81
43.671,-104.2
43.687,-111.68
43.703,-119.69
43.718,-129.48
43.734,-141.51
43.750,-154.92
43.765,-167.49
43.781,-176.02
43.796,-177.17
43.812,-168.46
43.828,-149.05
43.843,-119.94
43.859,-83.59
43.875,-43.02
43.890,-0.88
43.906,41.28
43.921,83.22
43.937,125.4
43.953,168.2
43.968,210.84
43.984,251.13
44.000,285.73
44.015,311.17
44.031,325.1
44.046,326.94
44.062,318.0
44.078,300.72
44.093,277.76
44.109,251.33
44.125,222.98
44.140,193.94
44.156,165.4
44.171,138.55
44.187,114.31
44.203,92.97
44.218,74.04
44.234,56.53
44.250,39.49
44.265,22.51
44.281,5.93
44.296,-9.37
44.312,-22.28
44.328,-32.05
44.343,-38.51
44.359,-42.18
44.375,-44.13
44.390,-45.53
44.406,-47.2
44.421,-49.26
44.437,-51.22
44.453,-52.21
44.468,-51.67
44.484,-49.76
44.500,-47.42
44.515,-46.03
44.531,-46.67
44.546,-49.74
44.562,-54.78
44.578,-60.83
44.593,-67.09
44.609,-73.3
44.625,-79.84
44.640,-87.35
44.656,-96.29
44.671,-106.59
44.687,-117.69
44.703,-128.83
44.718,-139.44
44.734,-149.39
44.750,-158.92
44.765,-168.43
44.781,-178.07
44.796,-187.54
44.812,-196.04
44.828,-202.51
44.843,-206.02
44.859,-205.98
44.875,-202.08
44.890,-194.06
44.906,-181.53
44.921,-164.0
44.937,-141.25
44.953,-113.97
44.968,-84.0
44.984,-54.25
45.000,-27.9
45.015,-7.55
45.031,5.49
45.046,11.3
45.062,10.93
45.078,5.95
45.093,-1.96
45.109,-10.88
45.125,-18.5
45.140,-22.29
45.156,-19.83
45.171,-9.58
45.187,8.57
45.203,33.41
45.218,62.96
45.234,95.38
45.250,129.5
45.265,164.72
45.281,200.34
45.296,234.73
45.312,265.17
45.328,288.31
45.343,301.34
45.359,303.02
45.375,294.14
45.390,277.14
45.406,255.06
45.421,230.56
45.437,205.31
45.453,180.11
45.468,155.39
45.484,131.66
45.500,109.69
45.515,90.25
45.531,73.6
45.546,59.31
45.562,46.35
45.578,33.6
45.593,20.34
45.609,6.61
45.625,-6.79
45.640,-18.81
45.656,-28.79
45.671,-36.84
45.687,-44.0
45.703,-51.86
45.718,-62.03
45.734,-75.54
45.750,-92.36
45.765,-111.26
45.781,-129.77
45.796,-144.66
45.812,-152.37
45.828,-149.85
45.843,-135.32
45.859,-108.85
45.875,-72.62
45.890,-30.38
45.906,13.36
45.921,54.46
45.937,89.93
45.953,118.2
45.968,138.89
45.984,152.27
46.000,158.76
46.015,158.86
46.031,153.15
46.046,142.5
46.062,128.19
46.078,111.8
46.093,94.91
46.109,78.88
46.125,64.62
46.140,52.56
46.156,42.72
46.171,34.94
46.187,28.95
46.203,24.55
46.218,21.48
46.234,19.35
46.250,17.52
46.265,15.15
46.281,11.42
46.296,5.8
46.312,-1.74
46.328,-10.8
46.343,-20.79
46.359,-31.26
46.375,-42.25
46.390,-54.22
46.406,-67.75
46.421,-82.89
46.437,-98.56
46.453,-112.26
46.468,-120.47
46.484,-119.43
46.500,-106.37
46.515,-80.56
46.531,-43.78
46.546,-0.02
46.562,45.42
46.578,87.32
46.593,121.52
46.609,145.51
46.625,158.55
46.640,161.2
46.656,154.95
46.671,141.76
46.687,123.75
46.703,102.99
46.718,81.12
46.734,59.17
46.750,37.51
46.765,16.15
46.781,-4.84
46.796,-24.92
46.812,-42.84
46.828,-56.87
46.843,-65.32
46.859,-67.23
46.875,-62.77
46.890,-53.34
46.906,-41.12
46.921,-28.47
46.937,-17.21
46.953,-8.14
46.968,-0.77
46.984,6.46
47.000,15.59
47.015,28.27
47.031,44.68
47.046,62.91
47.062,79.2
47.078,89.08
47.093,89.2
47.109,78.83
47.125,60.38
47.140,38.65
47.156,19.09
47.171,5.9
47.187,1.01
47.203,4.01
47.218,13.12
47.234,26.13
47.250,41.13
47.265,56.46
47.281,70.45
47.296,81.28
47.312,87.06
47.328,86.46
47.343,79.1
47.359,65.86
47.375,48.65
47.390,29.84
47.406,11.66
47.421,-4.43
47.437,-17.81
47.453,-28.69
47.468,-37.46
47.484,-44.27
47.500,-48.74
47.515,-49.98
47.531,-47.1
47.546,-39.78
47.562,-28.65
47.578,-15.31
47.593,-1.94
47.609,9.41
47.625,17.24
47.640,20.86
47.656,20.17
47.671,15.28
47.687,6.26
47.703,-6.97
47.718,-24.35
47.734,-45.22
47.750,-67.87
47.765,-89.52
47.781,-106.67
47.796,-115.87
47.812,-114.71
47.828,-102.48
47.843,-80.49
47.859,-51.77
47.875,-20.26
47.890,10.15
47.906,36.42
47.921,56.79
47.937,70.86
47.953,79.05
47.968,82.24
47.984,81.23
48.000,76.6
48.015,68.77
48.031,58.27
48.046,45.99
48.062,33.23
48.078,21.51
48.093,12.07
48.109,5.59
48.125,2.07
48.140,0.92
48.156,1.28
48.171,2.28
48.187,3.24
48.203,3.72
48.218,3.37
48.234,1.88
48.250,-1.03
48.265,-5.61
48.281,-11.93
48.296,-19.87
48.312,-29.12
48.328,-39.36
48.343,-50.46
48.359,-62.58
48.375,-75.84
48.390,-90.03
48.406,-103.94
48.421,-115.36
48.437,-121.33
48.453,-119.01
48.468,-106.71
48.484,-84.55
48.500,-54.62
48.515,-20.34
48.531,14.43
48.546,46.28
48.562,72.87
48.578,93.03
48.593,106.53
48.609,113.8
48.625,115.53
48.640,112.47
48.656,105.29
48.671,94.59
48.687,81.02
48.703,65.38
48.718,48.77
48.734,32.52
48.750,17.97
48.765,6.18
48.781,-2.32
48.796,-7.7
48.812,-10.76
48.828,-12.72
48.843,-14.85
48.859,-18.25
48.875,-23.43
48.890,-30.38
48.906,-38.57
48.921,-47.28
48.937,-55.91
48.953,-64.25
48.968,-72.6
48.984,-81.69
49.000,-92.41
49.015,-105.32
49.031,-120.25
49.046,-135.82
49.062,-149.35
49.078,-157.1
49.093,-155.18
49.109,-140.76
49.125,-113.27
49.140,-74.91
49.156,-30.22
49.171,15.26
49.187,56.56
49.203,90.53
49.218,116.24
49.234,134.37
49.250,146.15
49.265,152.57
49.281,153.99
49.296,150.43
49.312,142.18
49.328,130.13
49.343,115.73
49.359,100.6
49.375,86.09
49.390,72.9
49.406,61.18
49.421,50.75
49.437,41.4
49.453,33.13
49.468,26.05
49.484,20.08
49.500,14.87
49.515,9.69
49.531,3.71
49.546,-3.71
49.562,-12.79
49.578,-23.28
49.593,-34.58
49.609,-46.12
49.625,-57.59
49.640,-69.13
49.656,-81.16
49.671,-94.04
49.687,-107.42
49.703,-120.01
49.718,-129.56
49.734,-133.34
49.750,-128.97
49.765,-115.31
49.781,-92.92
49.796,-63.98
49.812,-31.73
49.828,0.45
49.843,29.8
49.859,54.58
49.875,74.11
49.890,88.45
49.906,98.02
49.921,103.31
49.937,104.74
49.953,102.64
49.968,97.31
49.984,89.09
50.000,78.43
50.015,65.98
50.031,52.57
50.046,39.26
50.062,27.15
50.078,17.24
50.093,10.11
50.109,5.8
50.125,3.68
50.140,2.62
50.156,1.26
50.171,-1.59
50.187,-6.57
50.203,-13.7
50.218,-22.4
50.234,-31.9
50.250,-41.63
50.265,-51.49
50.281,-61.91
50.296,-73.58
50.312,-86.89
50.328,-101.45
50.343,-115.8
50.359,-127.48
50.375,-133.57
50.390,-131.53
50.406,-119.94
50.421,-99.06
50.437,-70.76
50.453,-38.02
50.468,-4.11
50.484,28.06
50.500,56.51
50.515,80.14
50.531,98.5
50.546,111.55
50.562,119.36
50.578,122.23
50.593,120.65
50.609,115.32
50.625,107.11
50.640,96.82
50.656,85.22
50.671,72.92
50.687,60.54
50.703,48.79
50.718,38.35
50.734,29.71
50.750,22.92
50.765,17.47
50.781,12.42
50.796,6.72
50.812,-0.39
50.828,-9.12
50.843,-19.11
50.859,-29.71
50.875,-40.35
50.890,-50.76
50.906,-61.14
50.921,-72.05
50.937,-84.1
50.953,-97.7
50.968,-112.74
50.984,-128.44
51.000,-143.26
51.015,-155.07
51.031,-161.44
51.046,-160.24
51.062,-150.27
51.078,-131.77
51.093,-106.42
51.109,-76.96
51.125,-46.26
51.140,-16.38
51.156,11.95
51.171,39.17
51.187,66.15
51.203,93.21
51.218,119.37
51.234,142.52
51.250,160.13
51.265,170.24
51.281,172.33
51.296,167.35
51.312,157.28
51.328,144.31
51.343,130.19
51.359,116.02
51.375,102.36
51.390,89.6
51.406,78.03
51.421,67.83
51.437,58.81
51.453,50.35
51.468,41.54
51.484,31.54
51.500,20.01
51.515,7.21
51.531,-6.06
51.546,-18.92
51.562,-30.85
51.578,-41.92
51.593,-52.82
51.609,-64.48
51.625,-77.63
51.640,-92.29
51.656,-107.53
51.671,-121.39
51.687,-131.27
51.703,-134.44
51.718,-128.78
51.734,-113.5
51.750,-89.47
51.765,-59.15
51.781,-25.89
51.796,6.84
51.812,36.38
51.828,61.15
51.843,80.68
51.859,95.2
51.875,105.11
51.890,110.71
51.906,112.12
51.921,109.53
51.937,103.35
51.953,94.25
51.968,83.07
51.984,70.67
52.000,57.76
52.015,44.99
52.031,33.07
52.046,22.93
52.062,15.49
52.078,11.45
52.093,10.8
52.109,12.63
52.125,15.31
52.140,17.04
52.156,16.48
52.171,13.26
52.187,8.02
52.203,1.99
52.218,-3.58
52.234,-8.05
52.250,-11.59
52.265,-15.23
52.281,-20.38
52.296,-28.4
52.312,-39.97
52.328,-54.72
52.343,-70.91
52.359,-85.51
52.375,-94.69
52.390,-94.59
52.406,-82.51
52.421,-57.89
52.437,-23.02
52.453,17.17
52.468,56.38
52.484,88.71
52.500,110.59
52.515,121.84
52.531,125.25
52.546,125.1
52.562,125.19
52.578,127.48
52.593,131.76
52.609,136.58
52.625,140.43
52.640,142.49
52.656,142.65
52.671,140.85
52.687,136.55
52.703,128.8
52.718,116.97
52.734,101.51
52.750,84.36
52.765,68.29
52.781,55.84
52.796,48.23
52.812,44.98
52.828,44.39
52.843,44.37
52.859,43.35
52.875,40.47
52.890,35.54
52.906,28.55
52.921,19.5
52.937,8.34
52.953,-4.99
52.968,-20.47
52.984,-38.36
53.000,-59.24
53.015,-84.0
53.031,-113.22
53.046,-146.39
53.062,-181.27
53.078,-213.99
53.093,-239.89
53.109,-254.91
53.125,-256.81
53.140,-245.62
53.156,-223.49
53.171,-193.7
53.187,-159.8
53.203,-124.92
53.218,-91.39
53.234,-60.96
53.250,-34.87
53.265,-14.1
53.281,0.77
53.296,9.68
53.312,13.13
53.328,12.23
53.343,8.55
53.359,3.74
53.375,-0.72
53.390,-3.78
53.406,-4.84
53.421,-3.45
53.437,0.91
53.453,8.85
53.468,20.94
53.484,37.2
53.500,56.68
53.515,77.41
53.531,96.7
53.546,111.79
53.562,120.68
53.578,122.55
53.593,117.7
53.609,107.28
53.625,92.61
53.640,74.78
53.656,54.34
53.671,31.39
53.687,5.87
53.703,-22.06
53.718,-51.72
53.734,-81.81
53.750,-110.46
53.765,-135.48
53.781,-154.64
53.796,-166.05
53.812,-168.74
53.828,-162.98
53.843,-150.32
53.859,-133.31
53.875,-114.69
53.890,-96.52
53.906,-79.84
53.921,-64.91
53.937,-51.8
53.953,-41.11
53.968,-34.18
53.984,-32.33
54.000,-36.08
54.015,-44.33
54.031,-54.4
54.046,-62.9
54.062,-66.92
54.078,-64.98
54.093,-57.35
54.109,-45.7
54.125,-32.15
54.140,-18.62
54.156,-6.36
54.171,3.98
54.187,11.96
54.203,16.85
54.218,17.26
54.234,11.18
54.250,-3.53
54.265,-28.36
54.281,-63.41
54.296,-107.03
54.312,-156.08
54.328,-206.57
54.343,-254.24
54.359,-294.99
54.375,-325.21
54.390,-342.23
54.406,-345.01
54.421,-334.64
54.437,-314.25
54.453,-288.04
54.468,-259.9
54.484,-232.17
54.500,-205.48
54.515,-179.57
54.531,-154.57
54.546,-131.66
54.562,-112.64
54.578,-98.53
54.593,-88.43
54.609,-79.45
54.625,-68.1
54.640,-52.11
54.656,-31.67
54.671,-9.32
54.687,11.72
54.703,29.3
54.718,43.62
54.734,56.95
54.750,72.21
54.765,91.21
54.781,113.6
54.796,136.98
54.812,158.1
54.828,174.29
54.843,184.49
54.859,189.37
54.875,190.62
54.890,189.89
54.906,188.02
54.921,184.85
54.937,179.54
54.953,171.35
54.968,160.06
54.984,146.32
55.000,131.38
55.015,116.65
55.031,103.25
55.046,91.65
55.062,81.68
55.078,72.58
55.093,63.4
55.109,53.14
55.125,40.95
55.140,26.19
55.156,8.68
55.171,-11.03
55.187,-31.44
55.203,-50.01
55.218,-63.57
55.234,-68.92
55.250,-63.7
55.265,-47.16
55.281,-20.53
55.296,13.02
55.312,49.0
55.328,82.44
55.343,109.0
55.359,125.83
55.375,132.21
55.390,129.58
55.406,120.86
55.421,109.47
55.437,98.24
55.453,88.8
55.468,81.44
55.484,75.63
55.500,70.63
55.515,65.94
55.531,61.37
55.546,56.83
55.562,52.25
55.578,47.47
55.593,42.46
55.609,37.48
55.625,33.08
55.640,29.83
55.656,28.04
55.671,27.39
55.687,26.97
55.703,25.62
55.718,22.23
55.734,16.16
55.750,7.42
55.765,-3.37
55.781,-15.25
55.796,-27.28
55.812,-38.93
55.828,-50.3
55.843,-61.89
55.859,-74.3
55.875,-87.61
55.890,-100.97
55.906,-112.47
55.921,-119.61
55.937,-119.99
55.953,-112.09
55.968,-95.75
55.984,-72.25
56.000,-43.89
56.015,-13.35
56.031,16.84
56.046,44.69
56.062,68.81
56.078,88.32
56.093,102.6
56.109,111.33
56.125,114.53
56.140,112.52
56.156,106.12
56.171,96.43
56.187,84.64
56.203,71.81
56.218,58.68
56.234,45.68
56.250,32.99
56.265,20.81
56.281,9.46
56.296,-0.63
56.312,-9.06
56.328,-15.8
56.343,-21.29
56.359,-26.31
56.375,-31.77
56.390,-38.31
56.406,-46.1
56.421,-54.84
56.437,-63.85
56.453,-72.41
56.468,-80.14
56.484,-87.07
56.500,-93.8
56.515,-101.21
56.531,-110.12
56.546,-120.77
56.562,-132.46
56.578,-143.29
56.593,-150.44
56.609,-150.9
56.625,-142.26
56.640,-123.57
56.656,-95.69
56.671,-61.1
56.687,-23.2
56.703,14.41
56.718,48.74
56.734,77.78
56.750,100.51
56.765,116.69
56.781,126.64
56.796,130.93
56.812,130.41
56.828,126.02
56.843,118.64
56.859,109.02
56.875,97.71
56.890,85.03
56.906,71.34
56.921,57.11
56.937,43.07
56.953,30.14
56.968,19.16
56.984,10.56
57.000,4.16
57.015,-0.85
57.031,-5.58
57.046,-11.03
57.062,-17.79
57.078,-25.91
57.093,-34.98
57.109,-44.45
57.125,-53.82
57.140,-62.83
57.156,-71.56
57.171,-80.4
57.187,-89.93
57.203,-100.73
57.218,-113.05
57.234,-126.35
57.250,-139.0
57.265,-148.37
57.281,-151.3
57.296,-145.04
57.312,-128.16
57.328,-101.03
57.343,-65.89
57.359,-26.17
57.375,14.35
57.390,52.42
57.406,85.78
57.421,113.14
57.437,134.02
57.453,148.38
57.468,156.47
57.484,158.8
57.500,156.13
57.515,149.47
57.531,139.86
57.546,128.2
57.562,115.17
57.578,101.26
57.593,86.93
57.609,72.88
57.625,59.9
57.640,48.82
57.656,40.12
57.671,33.72
57.687,28.92
57.703,24.67
57.718,19.89
57.734,13.88
57.750,6.44
57.765,-2.15
57.781,-11.38
57.796,-20.76
57.812,-30.04
57.828,-39.33
57.843,-49.09
57.859,-59.96
57.875,-72.5
57.890,-86.86
57.906,-102.33
57.921,-117.17
57.937,-128.66
57.953,-133.58
57.968,-129.04
57.984,-113.31
58.000,-86.53
58.015,-50.77
58.031,-9.57
58.046,32.9
58.062,72.88
58.078,107.65
58.093,135.78
58.109,157.02
58.125,171.82
58.140,180.98
58.156,185.28
58.171,185.31
58.187,181.44
58.203,173.88
58.218,162.87
58.234,148.86
58.250,132.68
58.265,115.5
58.281,98.66
58.296,83.44
58.312,70.74
58.328,60.95
58.343,53.87
58.359,48.74
58.375,44.5
58.390,40.01
58.406,34.5
58.421,27.79
58.437,20.37
58.453,13.26
58.468,7.46
58.484,3.56
58.500,1.4
58.515,0.13
58.531,-1.42
58.546,-4.35
58.562,-9.16
58.578,-15.48
58.593,-21.91
58.609,-26.12
58.625,-25.25
58.640,-16.66
58.656,1.17
58.671,27.84
58.687,60.88
58.703,96.12
58.718,128.78
58.734,154.65
58.750,170.81
58.765,175.76
58.781,168.99
58.796,150.4
58.812,120.1
58.828,78.7
58.843,28.01
58.859,-28.68
58.875,-86.58
58.890,-140.64
58.906,-186.79
58.921,-223.15
58.937,-250.22
58.953,-270.05
58.968,-284.95
58.984,-296.25
59.000,-304.06
59.015,-307.83
59.031,-307.3
59.046,-303.24
59.062,-297.35
59.078,-291.54
59.093,-286.93
59.109,-283.18
59.125,-278.61
59.140,-270.92
59.156,-258.37
59.171,-240.7
59.187,-219.49
59.203,-197.93
59.218,-179.86
59.234,-168.45
59.250,-165.03
59.265,-168.27
59.281,-174.42
59.296,-178.32
59.312,-174.93
59.328,-160.86
59.343,-135.13
59.359,-99.37
59.375,-57.13
59.390,-13.02
59.406,28.32
59.421,62.97
59.437,88.29
59.453,103.22
59.468,108.35
59.484,105.54
59.500,97.44
59.515,86.73
59.531,75.66
59.546,65.62
59.562,57.19
59.578,50.39
59.593,44.89
59.609,40.32
59.625,36.34
59.640,32.75
59.656,29.5
59.671,26.69
59.687,24.48
59.703,23.07
59.718,22.59
59.734,23.04
59.750,24.39
59.765,26.51
59.781,29.19
59.796,32.12
59.812,34.93
59.828,37.18
59.843,38.49
59.859,38.54
59.875,37.23
59.890,34.91
59.906,32.55
59.921,31.85
59.937,35.1
59.953,44.65
59.968,62.23
59.984,88.19
