timestamp,value
00.000,28.68
00.015,30.45
00.031,31.4
00.046,31.65
00.062,31.07
00.078,29.49
00.093,26.7
00.109,22.63
00.125,17.46
00.140,11.56
00.156,5.51
00.171,-0.17
00.187,-5.07
00.203,-8.95
00.218,-11.79
00.234,-13.7
00.250,-14.97
00.265,-15.92
00.281,-16.91
00.296,-18.17
00.312,-19.79
00.328,-21.76
00.343,-24.03
00.359,-26.6
00.375,-29.5
00.390,-32.77
00.406,-36.36
00.421,-40.13
00.437,-43.87
00.453,-47.51
00.468,-51.15
00.484,-55.1
00.500,-59.78
00.515,-65.58
00.531,-72.64
00.546,-80.61
00.562,-88.66
00.578,-95.42
00.593,-99.26
00.609,-98.76
00.625,-93.09
00.640,-82.35
00.656,-67.57
00.671,-50.39
00.687,-32.57
00.703,-15.53
00.718,-0.14
00.734,13.25
00.750,24.63
00.765,34.12
00.781,41.9
00.796,48.13
00.812,53.03
00.828,56.85
00.843,59.73
00.859,61.74
00.875,62.78
00.890,62.75
00.906,61.68
00.921,59.81
00.937,57.64
00.953,55.73
00.968,54.5
00.984,54.08
01.000,54.23
01.015,54.5
01.031,54.37
01.046,53.47
01.062,51.7
01.078,49.28
01.093,46.68
01.109,44.49
01.125,43.16
01.140,42.65
01.156,42.31
01.171,40.88
01.187,36.92
01.203,29.34
01.218,17.89
01.234,3.31
01.250,-12.88
01.265,-28.97
01.281,-43.56
01.296,-55.98
01.312,-66.42
01.328,-75.59
01.343,-84.5
01.359,-93.88
01.375,-103.85
01.390,-113.72
01.406,-122.04
01.421,-126.96
01.437,-126.81
01.453,-120.66
01.468,-108.66
01.484,-91.99
01.500,-72.53
01.515,-52.28
01.531,-32.95
01.546,-15.69
01.562,-0.97
01.578,11.24
01.593,21.35
01.609,29.92
01.625,37.44
01.640,44.19
01.656,50.23
01.671,55.46
01.687,59.73
01.703,63.04
01.718,65.53
01.734,67.43
01.750,69.02
01.765,70.45
01.781,71.79
01.796,73.07
01.812,74.21
01.828,75.16
01.843,75.82
01.859,76.04
01.875,75.68
01.890,74.63
01.906,72.93
01.921,70.75
01.937,68.36
01.953,66.04
01.968,63.86
01.984,61.66
02.000,59.02
02.015,55.41
02.031,50.51
02.046,44.28
02.062,37.13
02.078,29.66
02.093,22.52
02.109,16.07
02.125,10.2
02.140,4.37
02.156,-2.34
02.171,-10.98
02.187,-22.39
02.203,-36.93
02.218,-54.08
02.234,-72.38
02.250,-89.58
02.265,-103.14
02.281,-111.02
02.296,-112.28
02.312,-107.32
02.328,-97.71
02.343,-85.56
02.359,-72.92
02.375,-61.27
02.390,-51.45
02.406,-43.67
02.421,-37.81
02.437,-33.54
02.453,-30.38
02.468,-27.79
02.484,-25.27
02.500,-22.49
02.515,-19.49
02.531,-16.6
02.546,-14.37
02.562,-13.23
02.578,-13.3
02.593,-14.24
02.609,-15.36
02.625,-15.86
02.640,-15.09
02.656,-12.85
02.671,-9.39
02.687,-5.27
02.703,-1.13
02.718,2.57
02.734,5.64
02.750,8.12
02.765,10.22
02.781,12.13
02.796,13.91
02.812,15.47
02.828,16.56
02.843,16.89
02.859,16.19
02.875,14.43
02.890,11.81
02.906,8.77
02.921,5.88
02.937,3.53
02.953,1.8
02.968,0.27
02.984,-1.88
03.000,-5.76
03.015,-12.39
03.031,-22.42
03.046,-35.88
03.062,-51.95
03.078,-69.01
03.093,-84.83
03.109,-97.02
03.125,-103.64
03.140,-103.67
03.156,-97.25
03.171,-85.62
03.187,-70.67
03.203,-54.5
03.218,-38.82
03.234,-24.81
03.250,-12.91
03.265,-2.98
03.281,5.46
03.296,13.07
03.312,20.42
03.328,27.78
03.343,35.11
03.359,41.98
03.375,47.77
03.390,51.88
03.406,53.98
03.421,54.12
03.437,52.7
03.453,50.37
03.468,47.76
03.484,45.36
03.500,43.44
03.515,42.08
03.531,41.27
03.546,40.89
03.562,40.73
03.578,40.52
03.593,39.88
03.609,38.49
03.625,36.15
03.640,32.84
03.656,28.73
03.671,23.98
03.687,18.76
03.703,13.11
03.718,7.11
03.734,0.88
03.750,-5.35
03.765,-11.32
03.781,-16.93
03.796,-22.3
03.812,-27.8
03.828,-33.97
03.843,-41.27
03.859,-49.83
03.875,-59.24
03.890,-68.43
03.906,-75.78
03.921,-79.43
03.937,-77.92
03.953,-70.62
03.968,-57.98
03.984,-41.44
04.000,-22.96
04.015,-4.5
04.031,12.42
04.046,26.86
04.062,38.43
04.078,47.25
04.093,53.63
04.109,58.08
04.125,61.02
04.140,62.8
04.156,63.59
04.171,63.37
04.187,62.08
04.203,59.74
04.218,56.44
04.234,52.41
04.250,47.93
04.265,43.24
04.281,38.63
04.296,34.37
04.312,30.71
04.328,27.83
04.343,25.66
04.359,23.95
04.375,22.32
04.390,20.36
04.406,17.74
04.421,14.29
04.437,9.95
04.453,4.72
04.468,-1.28
04.484,-7.85
04.500,-14.72
04.515,-21.52
04.531,-27.96
04.546,-33.92
04.562,-39.56
04.578,-45.19
04.593,-51.27
04.609,-58.16
04.625,-66.03
04.640,-74.8
04.656,-84.05
04.671,-92.96
04.687,-100.35
04.703,-104.72
04.718,-104.63
04.734,-99.12
04.750,-88.12
04.765,-72.52
04.781,-54.0
04.796,-34.53
04.812,-15.86
04.828,0.83
04.843,14.91
04.859,26.26
04.875,35.11
04.890,41.89
04.906,47.15
04.921,51.35
04.937,54.83
04.953,57.65
04.968,59.65
04.984,60.57
05.000,60.2
05.015,58.6
05.031,56.0
05.046,52.87
05.062,49.61
05.078,46.54
05.093,43.83
05.109,41.45
05.125,39.31
05.140,37.2
05.156,34.93
05.171,32.3
05.187,29.23
05.203,25.74
05.218,22.01
05.234,18.21
05.250,14.49
05.265,10.78
05.281,6.83
05.296,2.29
05.312,-3.09
05.328,-9.22
05.343,-15.83
05.359,-22.45
05.375,-28.75
05.390,-34.66
05.406,-40.42
05.421,-46.54
05.437,-53.51
05.453,-61.65
05.468,-70.83
05.484,-80.34
05.500,-88.92
05.515,-94.89
05.531,-96.64
05.546,-93.06
05.562,-83.99
05.578,-70.26
05.593,-53.41
05.609,-35.22
05.625,-17.22
05.640,-0.52
05.656,14.2
05.671,26.49
05.687,36.1
05.703,43.05
05.718,47.7
05.734,50.73
05.750,52.99
05.765,55.02
05.781,57.0
05.796,58.6
05.812,59.22
05.828,58.4
05.843,56.04
05.859,52.49
05.875,48.44
05.890,44.63
05.906,41.6
05.921,39.56
05.937,38.39
05.953,37.73
05.968,37.12
05.984,36.19
06.000,34.69
06.015,32.59
06.031,29.91
06.046,26.7
06.062,22.96
06.078,18.61
06.093,13.56
06.109,7.73
06.125,1.17
06.140,-5.92
06.156,-13.26
06.171,-20.47
06.187,-27.28
06.203,-33.52
06.218,-39.27
06.234,-44.86
06.250,-50.8
06.265,-57.66
06.281,-65.77
06.296,-75.03
06.312,-84.67
06.328,-93.24
06.343,-98.94
06.359,-100.1
06.375,-95.64
06.390,-85.47
06.406,-70.48
06.421,-52.23
06.437,-32.55
06.453,-13.13
06.468,4.73
06.484,20.21
06.500,32.94
06.515,42.96
06.531,50.61
06.546,56.46
06.562,61.13
06.578,65.16
06.593,68.83
06.609,72.15
06.625,74.87
06.640,76.68
06.656,77.31
06.671,76.66
06.687,74.93
06.703,72.54
06.718,70.09
06.734,68.15
06.750,67.08
06.765,66.88
06.781,67.04
06.796,66.79
06.812,65.25
06.828,61.87
06.843,56.52
06.859,49.6
06.875,41.84
06.890,34.01
06.906,26.67
06.921,19.99
06.937,13.79
06.953,7.62
06.968,1.03
06.984,-6.34
07.000,-14.58
07.015,-23.59
07.031,-33.08
07.046,-42.84
07.062,-52.78
07.078,-63.01
07.093,-73.75
07.109,-85.14
07.125,-97.1
07.140,-109.14
07.156,-120.28
07.171,-129.18
07.187,-134.29
07.203,-134.25
07.218,-128.28
07.234,-116.49
07.250,-99.94
07.265,-80.37
07.281,-59.73
07.296,-39.69
07.312,-21.39
07.328,-5.4
07.343,8.1
07.359,19.12
07.375,27.84
07.390,34.52
07.406,39.49
07.421,43.12
07.437,45.68
07.453,47.35
07.468,48.18
07.484,48.25
07.500,47.7
07.515,46.67
07.531,45.3
07.546,43.68
07.562,41.9
07.578,40.16
07.593,38.67
07.609,37.68
07.625,37.23
07.640,37.16
07.656,37.08
07.671,36.57
07.687,35.4
07.703,33.51
07.718,30.98
07.734,27.86
07.750,24.12
07.765,19.67
07.781,14.54
07.796,8.91
07.812,3.15
07.828,-2.38
07.843,-7.47
07.859,-12.22
07.875,-16.87
07.890,-21.82
07.906,-27.36
07.921,-33.74
07.937,-41.02
07.953,-49.07
07.968,-57.46
07.984,-65.32
08.000,-71.4
08.015,-74.28
08.031,-72.72
08.046,-66.19
08.062,-55.07
08.078,-40.6
08.093,-24.55
08.109,-8.64
08.125,5.84
08.140,18.16
08.156,28.15
08.171,35.85
08.187,41.47
08.203,45.24
08.218,47.46
08.234,48.51
08.250,48.76
08.265,48.58
08.281,48.12
08.296,47.38
08.312,46.24
08.328,44.56
08.343,42.36
08.359,39.77
08.375,37.08
08.390,34.53
08.406,32.3
08.421,30.35
08.437,28.52
08.453,26.6
08.468,24.5
08.484,22.21
08.500,19.83
08.515,17.38
08.531,14.67
08.546,11.35
08.562,7.02
08.578,1.59
08.593,-4.72
08.609,-11.34
08.625,-17.58
08.640,-22.99
08.656,-27.49
08.671,-31.44
08.687,-35.44
08.703,-40.14
08.718,-46.04
08.734,-53.37
08.750,-62.03
08.765,-71.39
08.781,-80.32
08.796,-87.26
08.812,-90.51
08.828,-88.72
08.843,-81.42
08.859,-69.17
08.875,-53.49
08.890,-36.38
08.906,-19.72
08.921,-4.84
08.937,7.7
08.953,17.89
08.968,26.1
08.984,32.71
09.000,38.06
09.015,42.42
09.031,45.99
09.046,48.89
09.062,51.09
09.078,52.46
09.093,52.8
09.109,51.98
09.125,50.1
09.140,47.48
09.156,44.61
09.171,41.99
09.187,39.97
09.203,38.6
09.218,37.66
09.234,36.7
09.250,35.29
09.265,33.1
09.281,30.14
09.296,26.59
09.312,22.78
09.328,18.91
09.343,14.96
09.359,10.71
09.375,5.89
09.390,0.4
09.406,-5.59
09.421,-11.75
09.437,-17.68
09.453,-23.24
09.468,-28.5
09.484,-33.75
09.500,-39.35
09.515,-45.57
09.531,-52.58
09.546,-60.4
09.562,-68.92
09.578,-77.76
09.593,-86.13
09.609,-92.81
09.625,-96.26
09.640,-95.12
09.656,-88.64
09.671,-77.04
09.687,-61.57
09.703,-44.08
09.718,-26.5
09.734,-10.35
09.750,3.53
09.765,14.96
09.781,24.14
09.796,31.35
09.812,36.87
09.828,40.94
09.843,43.83
09.859,45.87
09.875,47.4
09.890,48.65
09.906,49.7
09.921,50.36
09.937,50.35
09.953,49.37
09.968,47.34
09.984,44.46
10.000,41.2
10.015,38.21
10.031,35.9
10.046,34.39
10.062,33.36
10.078,32.23
10.093,30.51
10.109,28.02
10.125,24.96
10.140,21.72
10.156,18.65
10.171,15.78
10.187,12.82
10.203,9.33
10.218,4.95
10.234,-0.4
10.250,-6.48
10.265,-12.91
10.281,-19.25
10.296,-25.26
10.312,-30.94
10.328,-36.39
10.343,-41.93
10.359,-47.79
10.375,-54.23
10.390,-61.33
10.406,-68.95
10.421,-76.56
10.437,-83.2
10.453,-87.57
10.468,-88.26
10.484,-84.24
10.500,-75.23
10.515,-61.88
10.531,-45.61
10.546,-28.22
10.562,-11.39
10.578,3.62
10.593,16.19
10.609,26.23
10.625,33.94
10.640,39.74
10.656,44.14
10.671,47.61
10.687,50.57
10.703,53.25
10.718,55.65
10.734,57.48
10.750,58.36
10.765,57.87
10.781,55.87
10.796,52.56
10.812,48.47
10.828,44.35
10.843,40.96
10.859,38.71
10.875,37.63
10.890,37.26
10.906,36.95
10.921,36.07
10.937,34.23
10.953,31.38
10.968,27.76
10.984,23.74
11.000,19.63
11.015,15.6
11.031,11.62
11.046,7.52
11.062,3.12
11.078,-1.7
11.093,-6.94
11.109,-12.45
11.125,-17.93
11.140,-23.1
11.156,-27.74
11.171,-31.91
11.187,-35.96
11.203,-40.45
11.218,-45.94
11.234,-52.76
11.250,-60.74
11.265,-69.24
11.281,-77.05
11.296,-82.67
11.312,-84.62
11.328,-81.8
11.343,-73.83
11.359,-61.3
11.375,-45.53
11.390,-28.35
11.406,-11.47
11.421,3.82
11.437,16.83
11.453,27.43
11.468,35.79
11.484,42.26
11.500,47.18
11.515,50.95
11.531,53.88
11.546,56.17
11.562,57.86
11.578,58.85
11.593,58.99
11.609,58.22
11.625,56.65
11.640,54.52
11.656,52.13
11.671,49.75
11.687,47.59
11.703,45.79
11.718,44.38
11.734,43.3
11.750,42.28
11.765,41.0
11.781,39.13
11.796,36.6
11.812,33.51
11.828,30.15
11.843,26.77
11.859,23.39
11.875,19.84
11.890,15.88
11.906,11.3
11.921,6.08
11.937,0.36
11.953,-5.57
11.968,-11.43
11.984,-16.96
12.000,-22.1
12.015,-26.93
12.031,-31.75
12.046,-37.02
12.062,-43.16
12.078,-50.43
12.093,-58.65
12.109,-67.04
12.125,-74.41
12.140,-79.27
12.156,-80.27
12.171,-76.62
12.187,-68.3
12.203,-56.14
12.218,-41.61
12.234,-26.4
12.250,-12.11
12.265,0.21
12.281,10.09
12.296,17.59
12.312,23.08
12.328,27.06
12.343,30.0
12.359,32.2
12.375,33.86
12.390,35.04
12.406,35.66
12.421,35.58
12.437,34.64
12.453,32.82
12.468,30.28
12.484,27.43
12.500,24.79
12.515,22.77
12.531,21.6
12.546,21.13
12.562,20.98
12.578,20.72
12.593,19.94
12.609,18.51
12.625,16.45
12.640,13.87
12.656,10.91
12.671,7.57
12.687,3.8
12.703,-0.47
12.718,-5.28
12.734,-10.5
12.750,-15.89
12.765,-21.11
12.781,-25.95
12.796,-30.36
12.812,-34.53
12.828,-38.88
12.843,-43.82
12.859,-49.72
12.875,-56.75
12.890,-64.83
12.906,-73.56
12.921,-82.09
12.937,-89.12
12.953,-93.12
12.968,-92.66
12.984,-86.92
13.000,-76.01
13.015,-61.06
13.031,-43.81
13.046,-26.17
13.062,-9.72
13.078,4.58
13.093,16.37
13.109,25.7
13.125,32.97
13.140,38.63
13.156,43.15
13.171,46.9
13.187,50.08
13.203,52.74
13.218,54.72
13.234,55.84
13.250,55.91
13.265,54.88
13.281,52.87
13.296,50.16
13.312,47.23
13.328,44.53
13.343,42.42
13.359,41.03
13.375,40.18
13.390,39.56
13.406,38.73
13.421,37.32
13.437,35.11
13.453,32.04
13.468,28.29
13.484,24.16
13.500,19.98
13.515,15.94
13.531,11.96
13.546,7.71
13.562,2.71
13.578,-3.38
13.593,-10.46
13.609,-18.05
13.625,-25.45
13.640,-32.05
13.656,-37.55
13.671,-42.09
13.687,-46.15
13.703,-50.35
13.718,-55.37
13.734,-61.72
13.750,-69.58
13.765,-78.56
13.781,-87.49
13.796,-94.56
13.812,-97.72
13.828,-95.36
13.843,-86.98
13.859,-73.36
13.875,-56.34
13.890,-38.16
13.906,-20.77
13.921,-5.37
13.937,7.61
13.953,18.36
13.968,27.31
13.984,34.83
14.000,41.19
14.015,46.56
14.031,51.04
14.046,54.76
14.062,57.8
14.078,60.08
14.093,61.43
14.109,61.61
14.125,60.43
14.140,57.98
14.156,54.57
14.171,50.82
14.187,47.32
14.203,44.57
14.218,42.75
14.234,41.72
14.250,41.09
14.265,40.39
14.281,39.23
14.296,37.38
14.312,34.85
14.328,31.74
14.343,28.19
14.359,24.28
14.375,20.01
14.390,15.36
14.406,10.37
14.421,5.12
14.437,-0.26
14.453,-5.63
14.468,-10.94
14.484,-16.19
14.500,-21.35
14.515,-26.3
14.531,-30.93
14.546,-35.3
14.562,-39.71
14.578,-44.77
14.593,-51.11
14.609,-59.12
14.625,-68.55
14.640,-78.39
14.656,-86.98
14.671,-92.45
14.687,-93.25
14.703,-88.62
14.718,-78.83
14.734,-64.98
14.750,-48.67
14.765,-31.64
14.781,-15.29
14.796,-0.55
14.812,12.04
14.828,22.37
14.843,30.56
14.859,36.91
14.875,41.83
14.890,45.72
14.906,48.88
14.921,51.43
14.937,53.31
14.953,54.38
14.968,54.53
14.984,53.76
15.000,52.21
15.015,50.17
15.031,47.97
15.046,45.94
15.062,44.32
15.078,43.17
15.093,42.39
15.109,41.77
15.125,41.01
15.140,39.86
15.156,38.17
15.171,35.9
15.187,33.09
15.203,29.85
15.218,26.28
15.234,22.49
15.250,18.53
15.265,14.44
15.281,10.14
15.296,5.57
15.312,0.58
15.328,-4.78
15.343,-10.3
15.359,-15.62
15.375,-20.36
15.390,-24.33
15.406,-27.69
15.421,-31.0
15.437,-35.04
15.453,-40.56
15.468,-47.93
15.484,-56.92
15.500,-66.63
15.515,-75.57
15.531,-81.95
15.546,-84.12
15.562,-81.01
15.578,-72.5
15.593,-59.46
15.609,-43.46
15.625,-26.37
15.640,-9.83
15.656,5.0
15.671,17.48
15.687,27.4
15.703,34.86
15.718,40.22
15.734,44.02
15.750,46.89
15.765,49.33
15.781,51.53
15.796,53.26
15.812,54.01
15.828,53.31
15.843,51.04
15.859,47.51
15.875,43.39
15.890,39.43
15.906,36.23
15.921,34.05
15.937,32.82
15.953,32.2
15.968,31.69
15.984,30.76
16.000,29.03
16.015,26.3
16.031,22.71
16.046,18.53
16.062,14.1
16.078,9.62
16.093,5.07
16.109,0.33
16.125,-4.8
16.140,-10.42
16.156,-16.43
16.171,-22.62
16.187,-28.63
16.203,-34.16
16.218,-39.0
16.234,-43.27
16.250,-47.33
16.265,-51.79
16.281,-57.25
16.296,-64.05
16.312,-72.07
16.328,-80.58
16.343,-88.26
16.359,-93.44
16.375,-94.49
16.390,-90.29
16.406,-80.63
16.421,-66.39
16.437,-49.25
16.453,-31.32
16.468,-14.48
16.484,-0.02
16.500,11.61
16.515,20.59
16.531,27.46
16.546,32.8
16.562,37.1
16.578,40.66
16.593,43.56
16.609,45.81
16.625,47.29
16.640,47.87
16.656,47.48
16.671,46.17
16.687,44.17
16.703,41.82
16.718,39.55
16.734,37.76
16.750,36.62
16.765,35.99
16.781,35.45
16.796,34.33
16.812,32.08
16.828,28.41
16.843,23.42
16.859,17.51
16.875,11.19
16.890,4.85
16.906,-1.33
16.921,-7.42
16.937,-13.61
16.953,-20.07
16.968,-26.76
16.984,-33.5
17.000,-39.89
17.015,-45.5
17.031,-49.98
17.046,-53.18
17.062,-55.32
17.078,-56.99
17.093,-59.02
17.109,-62.2
17.125,-66.91
17.140,-72.8
17.156,-78.7
17.171,-82.95
17.187,-83.83
17.203,-80.17
17.218,-71.77
17.234,-59.44
17.250,-44.82
17.265,-29.77
17.281,-15.91
17.296,-4.31
17.312,4.71
17.328,11.38
17.343,16.23
17.359,19.87
17.375,22.77
17.390,25.25
17.406,27.46
17.421,29.56
17.437,31.67
17.453,33.95
17.468,36.44
17.484,39.02
17.500,41.45
17.515,43.47
17.531,44.88
17.546,45.64
17.562,45.8
17.578,45.46
17.593,44.66
17.609,43.4
17.625,41.65
17.640,39.34
17.656,36.34
17.671,32.51
17.687,27.63
17.703,21.6
17.718,14.42
17.734,6.32
17.750,-2.34
17.765,-11.11
17.781,-19.57
17.796,-27.42
17.812,-34.5
17.828,-40.8
17.843,-46.44
17.859,-51.59
17.875,-56.44
17.890,-61.13
17.906,-65.78
17.921,-70.39
17.937,-74.82
17.953,-78.63
17.968,-80.94
17.984,-80.65
18.000,-76.64
18.015,-68.29
18.031,-55.81
18.046,-40.27
18.062,-23.35
18.078,-6.78
18.093,8.11
18.109,20.6
18.125,30.5
18.140,37.9
18.156,42.98
18.171,46.0
18.187,47.28
18.203,47.33
18.218,46.72
18.234,45.91
18.250,45.12
18.265,44.28
18.281,43.12
18.296,41.4
18.312,39.1
18.328,36.46
18.343,34.04
18.359,32.42
18.375,32.04
18.390,33.02
18.406,35.12
18.421,37.88
18.437,40.78
18.453,43.47
18.468,45.71
18.484,47.44
18.500,48.57
18.515,48.92
18.531,48.2
18.546,46.03
18.562,42.08
18.578,36.19
18.593,28.44
18.609,19.21
18.625,9.08
18.640,-1.34
18.656,-11.53
18.671,-21.28
18.687,-30.72
18.703,-40.2
18.718,-50.19
18.734,-61.0
18.750,-72.5
18.765,-83.92
18.781,-93.8
18.796,-100.17
18.812,-101.06
18.828,-95.09
18.843,-82.07
18.859,-63.12
18.875,-40.57
18.890,-17.23
18.906,4.41
18.921,22.67
18.937,37.04
18.953,47.86
18.968,55.92
18.984,62.0
19.000,66.54
19.015,69.66
19.031,71.22
19.046,70.98
19.062,68.73
19.078,64.35
19.093,57.93
19.109,49.75
19.125,40.36
19.140,30.59
19.156,21.37
19.171,13.62
19.187,7.99
19.203,4.85
19.218,4.19
19.234,5.75
19.250,9.12
19.265,13.86
19.281,19.48
19.296,25.54
19.312,31.49
19.328,36.8
19.343,40.89
19.359,43.26
19.375,43.63
19.390,41.94
19.406,38.44
19.421,33.49
19.437,27.38
19.453,20.3
19.468,12.2
19.484,2.9
19.500,-7.78
19.515,-20.05
19.531,-34.02
19.546,-49.77
19.562,-67.09
19.578,-85.38
19.593,-103.33
19.609,-119.02
19.625,-130.18
19.640,-134.79
19.656,-131.69
19.671,-121.0
19.687,-104.06
19.703,-83.02
19.718,-60.19
19.734,-37.45
19.750,-15.97
19.765,3.8
19.781,21.8
19.796,38.17
19.812,52.95
19.828,66.13
19.843,77.63
19.859,87.3
19.875,94.96
19.890,100.29
19.906,102.85
19.921,102.22
19.937,98.09
19.953,90.57
19.968,80.18
19.984,67.9
20.000,54.89
20.015,42.23
20.031,30.68
20.046,20.51
20.062,11.6
20.078,3.57
20.093,-3.89
20.109,-10.84
20.125,-17.1
20.140,-22.32
20.156,-26.2
20.171,-28.72
20.187,-30.09
20.203,-30.68
20.218,-30.85
20.234,-30.89
20.250,-31.0
20.265,-31.32
20.281,-32.03
20.296,-33.24
20.312,-35.1
20.328,-37.7
20.343,-41.1
20.359,-45.28
20.375,-50.01
20.390,-54.73
20.406,-58.57
20.421,-60.52
20.437,-59.76
20.453,-56.01
20.468,-49.71
20.484,-41.97
20.500,-34.2
20.515,-27.63
20.531,-23.03
20.546,-20.54
20.562,-19.8
20.578,-20.07
20.593,-20.37
20.609,-19.64
20.625,-16.96
20.640,-11.73
20.656,-3.93
20.671,5.76
20.687,16.22
20.703,26.18
20.718,34.6
20.734,41.01
20.750,45.48
20.765,48.52
20.781,50.78
20.796,52.73
20.812,54.55
20.828,56.09
20.843,56.98
20.859,56.81
20.875,55.3
20.890,52.33
20.906,47.99
20.921,42.4
20.937,35.6
20.953,27.47
20.968,17.8
20.984,6.43
21.000,-6.51
21.015,-20.49
21.031,-34.61
21.046,-47.83
21.062,-59.32
21.078,-68.69
21.093,-76.09
21.109,-82.17
21.125,-87.83
21.140,-93.86
21.156,-100.53
21.171,-107.45
21.187,-113.47
21.203,-117.0
21.218,-116.46
21.234,-110.72
21.250,-99.49
21.265,-83.28
21.281,-63.25
21.296,-40.9
21.312,-17.77
21.328,4.69
21.343,25.31
21.359,43.19
21.375,57.85
21.390,69.24
21.406,77.61
21.421,83.3
21.437,86.58
21.453,87.55
21.468,86.27
21.484,82.95
21.500,78.05
21.515,72.31
21.531,66.54
21.546,61.44
21.562,57.41
21.578,54.59
21.593,52.85
21.609,51.89
21.625,51.32
21.640,50.75
21.656,49.83
21.671,48.37
21.687,46.4
21.703,44.07
21.718,41.68
21.734,39.45
21.750,37.51
21.765,35.78
21.781,34.06
21.796,32.06
21.812,29.55
21.828,26.45
21.843,22.9
21.859,19.17
21.875,15.54
21.890,12.08
21.906,8.57
21.921,4.35
21.937,-1.49
21.953,-9.82
21.968,-21.0
21.984,-34.52
22.000,-48.93
22.015,-62.09
22.031,-71.79
22.046,-76.37
22.062,-75.18
22.078,-68.6
22.093,-57.77
22.109,-44.2
22.125,-29.41
22.140,-14.77
22.156,-1.39
22.171,9.97
22.187,18.98
22.203,25.8
22.218,30.97
22.234,35.2
22.250,39.06
22.265,42.86
22.281,46.64
22.296,50.3
22.312,53.7
22.328,56.69
22.343,59.15
22.359,61.02
22.375,62.34
22.390,63.29
22.406,64.07
22.421,64.67
22.437,64.69
22.453,63.32
22.468,59.74
22.484,53.4
22.500,44.46
22.515,33.7
22.531,22.32
22.546,11.45
22.562,1.83
22.578,-6.29
22.593,-13.07
22.609,-18.85
22.625,-23.92
22.640,-28.47
22.656,-32.61
22.671,-36.36
22.687,-39.75
22.703,-42.79
22.718,-45.75
22.734,-49.12
22.750,-53.66
22.765,-60.07
22.781,-68.52
22.796,-78.33
22.812,-87.68
22.828,-94.13
22.843,-95.34
22.859,-89.91
22.875,-77.86
22.890,-60.52
22.906,-39.96
22.921,-18.32
22.937,2.69
22.953,21.82
22.968,38.19
22.984,51.08
23.000,60.0
23.015,64.87
23.031,66.15
23.046,64.85
23.062,62.13
23.078,58.94
23.093,55.69
23.109,52.26
23.125,48.21
23.140,43.11
23.156,36.91
23.171,29.97
23.187,23.05
23.203,17.07
23.218,12.78
23.234,10.54
23.250,10.21
23.265,11.17
23.281,12.63
23.296,13.77
23.312,14.01
23.328,13.14
23.343,11.24
23.359,8.61
23.375,5.57
23.390,2.37
23.406,-0.86
23.421,-4.09
23.437,-7.27
23.453,-10.34
23.468,-13.23
23.484,-15.85
23.500,-18.27
23.515,-20.68
23.531,-23.43
23.546,-26.9
23.562,-31.44
23.578,-37.13
23.593,-43.69
23.609,-50.43
23.625,-56.3
23.640,-60.13
23.656,-60.86
23.671,-57.83
23.687,-50.96
23.703,-40.8
23.718,-28.38
23.734,-14.97
23.750,-1.82
23.765,10.08
23.781,20.15
23.796,28.2
23.812,34.33
23.828,38.84
23.843,41.98
23.859,43.99
23.875,44.97
23.890,44.93
23.906,43.9
23.921,41.86
23.937,38.9
23.953,35.26
23.968,31.32
23.984,27.55
24.000,24.39
24.015,22.09
24.031,20.62
24.046,19.66
24.062,18.8
24.078,17.63
24.093,15.92
24.109,13.65
24.125,10.89
24.140,7.82
24.156,4.57
24.171,1.2
24.187,-2.34
24.203,-6.21
24.218,-10.58
24.234,-15.56
24.250,-21.05
24.265,-26.74
24.281,-32.19
24.296,-37.07
24.312,-41.39
24.328,-45.48
24.343,-49.96
24.359,-55.39
24.375,-61.95
24.390,-69.33
24.406,-76.66
24.421,-82.71
24.437,-86.13
24.453,-85.8
24.468,-81.15
24.484,-72.25
24.500,-59.94
24.515,-45.61
24.531,-30.76
24.546,-16.74
24.562,-4.44
24.578,5.73
24.593,13.79
24.609,19.97
24.625,24.67
24.640,28.37
24.656,31.5
24.671,34.37
24.687,37.03
24.703,39.22
24.718,40.58
24.734,40.75
24.750,39.67
24.765,37.61
24.781,35.08
24.796,32.6
24.812,30.57
24.828,29.13
24.843,28.25
24.859,27.76
24.875,27.47
24.890,27.15
24.906,26.56
24.921,25.47
24.937,23.64
24.953,21.01
24.968,17.58
24.984,13.54
25.000,9.12
25.015,4.5
25.031,-0.24
25.046,-5.11
25.062,-10.17
25.078,-15.42
25.093,-20.75
25.109,-25.94
25.125,-30.82
25.140,-35.41
25.156,-40.0
25.171,-45.08
25.187,-51.05
25.203,-57.96
25.218,-65.21
25.234,-71.57
25.250,-75.52
25.265,-75.67
25.281,-71.27
25.296,-62.41
25.312,-50.02
25.328,-35.56
25.343,-20.64
25.359,-6.65
25.375,5.48
25.390,15.31
25.406,22.85
25.421,28.4
25.437,32.43
25.453,35.46
25.468,37.98
25.484,40.36
25.500,42.76
25.515,45.08
25.531,47.02
25.546,48.1
25.562,47.89
25.578,46.24
25.593,43.33
25.609,39.73
25.625,36.16
25.640,33.26
25.656,31.37
25.671,30.43
25.687,30.0
25.703,29.48
25.718,28.3
25.734,26.14
25.750,23.02
25.765,19.23
25.781,15.16
25.796,11.13
25.812,7.28
25.828,3.47
25.843,-0.46
25.859,-4.6
25.875,-8.97
25.890,-13.34
25.906,-17.51
25.921,-21.4
25.937,-25.12
25.953,-28.94
25.968,-33.18
25.984,-38.13
26.000,-43.97
26.015,-50.68
26.031,-57.98
26.046,-65.26
26.062,-71.57
26.078,-75.7
26.093,-76.48
26.109,-73.1
26.125,-65.44
26.140,-54.12
26.156,-40.38
26.171,-25.71
26.187,-11.53
26.203,1.16
26.218,11.84
26.234,20.45
26.250,27.18
26.265,32.32
26.281,36.22
26.296,39.07
26.312,41.13
26.328,42.55
26.343,43.5
26.359,44.02
26.375,44.02
26.390,43.35
26.406,41.83
26.421,39.44
26.437,36.4
26.453,33.15
26.468,30.25
26.484,28.12
26.500,26.9
26.515,26.39
26.531,26.09
26.546,25.42
26.562,23.83
26.578,21.11
26.593,17.4
26.609,13.14
26.625,8.9
26.640,5.1
26.656,1.85
26.671,-1.16
26.687,-4.38
26.703,-8.2
26.718,-12.74
26.734,-17.79
26.750,-22.95
26.765,-27.82
26.781,-32.16
26.796,-35.99
26.812,-39.52
26.828,-43.04
26.843,-46.92
26.859,-51.46
26.875,-56.84
26.890,-62.96
26.906,-69.31
26.921,-74.96
26.937,-78.63
26.953,-79.04
26.968,-75.26
26.984,-67.1
27.000,-55.24
27.015,-41.06
27.031,-26.2
27.046,-12.17
27.062,0.07
27.078,10.09
27.093,17.97
27.109,24.0
27.125,28.53
27.140,31.89
27.156,34.33
27.171,36.1
27.187,37.41
27.203,38.44
27.218,39.25
27.234,39.81
27.250,39.94
27.265,39.44
27.281,38.2
27.296,36.24
27.312,33.82
27.328,31.45
27.343,29.61
27.359,28.61
27.375,28.35
27.390,28.35
27.406,28.02
27.421,26.87
27.437,24.78
27.453,22.0
27.468,18.92
27.484,15.85
27.500,12.82
27.515,9.58
27.531,5.8
27.546,1.29
27.562,-3.82
27.578,-9.18
27.593,-14.36
27.609,-19.07
27.625,-23.26
27.640,-27.1
27.656,-30.93
27.671,-35.11
27.687,-39.99
27.703,-45.74
27.718,-52.36
27.734,-59.48
27.750,-66.28
27.765,-71.64
27.781,-74.25
27.796,-73.08
27.812,-67.68
27.828,-58.37
27.843,-46.17
27.859,-32.52
27.875,-18.87
27.890,-6.34
27.906,4.44
27.921,13.3
27.937,20.43
27.953,26.17
27.968,30.83
27.984,34.63
28.000,37.64
28.015,39.89
28.031,41.35
28.046,41.9
28.062,41.46
28.078,39.94
28.093,37.44
28.109,34.23
28.125,30.85
28.140,27.84
28.156,25.65
28.171,24.35
28.187,23.63
28.203,22.94
28.218,21.79
28.234,19.9
28.250,17.38
28.265,14.57
28.281,11.84
28.296,9.41
28.312,7.13
28.328,4.61
28.343,1.39
28.359,-2.88
28.375,-8.21
28.390,-14.3
28.406,-20.69
28.421,-26.98
28.437,-32.96
28.453,-38.64
28.468,-44.18
28.484,-49.75
28.500,-55.59
28.515,-61.91
28.531,-68.83
28.546,-76.11
28.562,-82.95
28.578,-87.93
28.593,-89.44
28.609,-86.16
28.625,-77.74
28.640,-64.96
28.656,-49.46
28.671,-33.25
28.687,-18.0
28.703,-4.8
28.718,6.04
28.734,14.64
28.750,21.42
28.765,26.89
28.781,31.47
28.796,35.47
28.812,38.96
28.828,41.83
28.843,43.88
28.859,44.89
28.875,44.82
28.890,43.77
28.906,41.96
28.921,39.65
28.937,37.06
28.953,34.47
28.968,32.19
28.984,30.5
29.000,29.58
29.015,29.29
29.031,29.24
29.046,28.83
29.062,27.56
29.078,25.25
29.093,22.04
29.109,18.39
29.125,14.71
29.140,11.15
29.156,7.56
29.171,3.53
29.187,-1.27
29.203,-6.92
29.218,-13.11
29.234,-19.29
29.250,-24.98
29.265,-29.96
29.281,-34.52
29.296,-39.32
29.312,-45.17
29.328,-52.58
29.343,-61.48
29.359,-70.99
29.375,-79.6
29.390,-85.49
29.406,-87.1
29.421,-83.53
29.437,-74.82
29.453,-61.85
29.468,-46.11
29.484,-29.29
29.500,-12.92
29.515,1.81
29.531,14.25
29.546,24.12
29.562,31.59
29.578,37.17
29.593,41.54
29.609,45.39
29.625,49.12
29.640,52.68
29.656,55.68
29.671,57.5
29.687,57.72
29.703,56.33
29.718,53.78
29.734,50.75
29.750,47.87
29.765,45.53
29.781,43.79
29.796,42.55
29.812,41.63
29.828,40.85
29.843,40.08
29.859,39.05
29.875,37.5
29.890,35.2
29.906,32.07
29.921,28.19
29.937,23.76
29.953,18.96
29.968,13.88
29.984,8.59
30.000,3.1
30.015,-2.56
30.031,-8.32
30.046,-14.13
30.062,-20.01
30.078,-25.96
30.093,-32.07
30.109,-38.53
30.125,-45.55
30.140,-53.36
30.156,-61.94
30.171,-70.85
30.187,-79.1
30.203,-85.32
30.218,-88.07
30.234,-86.29
30.250,-79.65
30.265,-68.62
30.281,-54.34
30.296,-38.32
30.312,-21.99
30.328,-6.55
30.343,7.17
30.359,18.72
30.375,27.96
30.390,35.05
30.406,40.37
30.421,44.42
30.437,47.67
30.453,50.44
30.468,52.85
30.484,54.77
30.500,55.93
30.515,55.98
30.531,54.74
30.546,52.35
30.562,49.16
30.578,45.79
30.593,42.79
30.609,40.52
30.625,39.04
30.640,38.15
30.656,37.47
30.671,36.6
30.687,35.26
30.703,33.35
30.718,30.88
30.734,28.03
30.750,24.94
30.765,21.66
30.781,18.13
30.796,14.19
30.812,9.68
30.828,4.54
30.843,-1.15
30.859,-7.16
30.875,-13.25
30.890,-19.18
30.906,-24.93
30.921,-30.61
30.937,-36.44
30.953,-42.74
30.968,-49.72
30.984,-57.4
31.000,-65.4
31.015,-72.77
31.031,-78.12
31.046,-79.93
31.062,-77.01
31.078,-68.92
31.093,-56.11
31.109,-39.77
31.125,-21.44
31.140,-2.63
31.156,15.45
31.171,31.92
31.187,46.15
31.203,57.73
31.218,66.5
31.234,72.66
31.250,76.77
31.265,79.53
31.281,81.55
31.296,82.98
31.312,83.45
31.328,82.28
31.343,78.76
31.359,72.6
31.375,64.01
31.390,53.74
31.406,42.82
31.421,32.26
31.437,22.86
31.453,15.05
31.468,8.88
31.484,4.03
31.500,-0.08
31.515,-4.16
31.531,-8.88
31.546,-14.71
31.562,-21.81
31.578,-30.07
31.593,-39.25
31.609,-49.14
31.625,-59.59
31.640,-70.39
31.656,-81.14
31.671,-91.08
31.687,-99.26
31.703,-104.84
31.718,-107.53
31.734,-107.85
31.750,-107.1
31.765,-106.94
31.781,-108.67
31.796,-112.54
31.812,-117.37
31.828,-120.66
31.843,-119.38
31.859,-111.09
31.875,-94.99
31.890,-72.45
31.906,-46.63
31.921,-21.33
31.937,0.61
31.953,18.53
31.968,34.31
31.984,51.59
32.000,74.25
32.015,104.41
32.031,140.99
32.046,179.18
32.062,211.18
32.078,227.98
32.093,222.01
32.109,189.72
32.125,133.67
32.140,62.79
32.156,-9.24
32.171,-67.58
32.187,-100.42
32.203,-102.31
32.218,-75.32
32.234,-27.68
32.250,29.74
32.265,87.25
32.281,139.09
32.296,183.99
32.312,223.69
32.328,260.38
32.343,294.57
32.359,324.35
32.375,346.25
32.390,357.08
32.406,355.53
32.421,342.82
32.437,322.04
32.453,296.82
32.468,269.91
32.484,242.44
32.500,214.33
32.515,185.07
32.531,154.44
32.546,122.69
32.562,90.38
32.578,58.09
32.593,26.64
32.609,-2.36
32.625,-26.03
32.640,-40.34
32.656,-41.23
32.671,-26.43
32.687,3.1
32.703,42.7
32.718,85.05
32.734,122.22
32.750,148.04
32.765,159.57
32.781,157.4
32.796,144.72
32.812,125.69
32.828,104.11
32.843,82.52
32.859,62.11
32.875,43.06
32.890,24.94
32.906,7.16
32.921,-10.97
32.937,-30.01
32.953,-50.4
32.968,-72.24
32.984,-95.17
33.000,-118.42
33.015,-141.04
33.031,-162.28
33.046,-182.15
33.062,-201.71
33.078,-222.92
33.093,-247.92
33.109,-277.79
33.125,-311.58
33.140,-345.87
33.156,-375.56
33.171,-395.39
33.187,-401.63
33.203,-393.09
33.218,-371.17
33.234,-339.0
33.250,-300.36
33.265,-258.92
33.281,-217.97
33.296,-180.42
33.312,-148.82
33.328,-125.0
33.343,-109.59
33.359,-101.64
33.375,-98.62
33.390,-97.11
33.406,-93.66
33.421,-85.74
33.437,-72.31
33.453,-53.95
33.468,-32.57
33.484,-10.6
33.500,9.63
33.515,26.55
33.531,39.57
33.546,48.94
33.562,55.35
33.578,59.65
33.593,62.5
33.609,64.3
33.625,65.18
33.640,65.01
33.656,63.55
33.671,60.44
33.687,55.57
33.703,49.1
33.718,41.59
33.734,33.88
33.750,26.8
33.765,20.98
33.781,16.7
33.796,13.81
33.812,11.96
33.828,10.7
33.843,9.64
33.859,8.46
33.875,6.91
33.890,4.73
33.906,1.72
33.921,-2.28
33.937,-7.27
33.953,-13.08
33.968,-19.39
33.984,-25.84
34.000,-32.12
34.015,-38.11
34.031,-43.89
34.046,-49.75
34.062,-56.14
34.078,-63.42
34.093,-71.79
34.109,-81.07
34.125,-90.67
34.140,-99.51
34.156,-106.21
34.171,-109.25
34.187,-107.35
34.203,-99.81
34.218,-86.84
34.234,-69.69
34.250,-50.34
34.265,-31.04
34.281,-13.68
34.296,0.68
34.312,11.87
34.328,20.29
34.343,26.54
34.359,31.09
34.375,34.22
34.390,36.16
34.406,37.17
34.421,37.57
34.437,37.59
34.453,37.28
34.468,36.63
34.484,35.63
34.500,34.49
34.515,33.47
34.531,32.81
34.546,32.5
34.562,32.31
34.578,31.92
34.593,31.17
34.609,30.12
34.625,29.05
34.640,28.17
34.656,27.5
34.671,26.71
34.687,25.22
34.703,22.39
34.718,17.71
34.734,11.14
34.750,3.07
34.765,-5.69
34.781,-14.2
34.796,-21.72
34.812,-27.98
34.828,-33.27
34.843,-38.3
34.859,-44.0
34.875,-51.06
34.890,-59.64
34.906,-69.11
34.921,-78.06
34.937,-84.53
34.953,-86.54
34.968,-82.69
34.984,-72.73
35.000,-57.75
35.015,-39.82
35.031,-21.32
35.046,-4.23
35.062,10.33
35.078,22.16
35.093,31.58
35.109,39.07
35.125,45.01
35.140,49.63
35.156,53.04
35.171,55.37
35.187,56.8
35.203,57.51
35.218,57.57
35.234,56.99
35.250,55.72
35.265,53.75
35.281,51.15
35.296,48.08
35.312,44.79
35.328,41.56
35.343,38.62
35.359,36.14
35.375,34.13
35.390,32.47
35.406,30.83
35.421,28.78
35.437,25.98
35.453,22.23
35.468,17.6
35.484,12.34
35.500,6.73
35.515,0.99
35.531,-4.8
35.546,-10.67
35.562,-16.64
35.578,-22.72
35.593,-28.96
35.609,-35.52
35.625,-42.65
35.640,-50.58
35.656,-59.23
35.671,-67.97
35.687,-75.55
35.703,-80.29
35.718,-80.56
35.734,-75.31
35.750,-64.47
35.765,-49.0
35.781,-30.69
35.796,-11.61
35.812,6.35
35.828,21.87
35.843,34.35
35.859,43.81
35.875,50.7
35.890,55.65
35.906,59.29
35.921,62.12
35.937,64.39
35.953,66.16
35.968,67.31
35.984,67.69
36.000,67.22
36.015,65.94
36.031,64.03
36.046,61.7
36.062,59.3
36.078,57.11
36.093,55.37
36.109,54.13
36.125,53.06
36.140,51.48
36.156,48.58
36.171,43.6
36.187,36.19
36.203,26.52
36.218,15.2
36.234,2.99
36.250,-9.3
36.265,-21.13
36.281,-32.13
36.296,-42.08
36.312,-50.87
36.328,-58.44
36.343,-64.8
36.359,-70.2
36.375,-75.01
36.390,-79.83
36.406,-85.16
36.421,-91.34
36.437,-98.12
36.453,-104.54
36.468,-109.0
36.484,-109.58
36.500,-104.75
36.515,-93.86
36.531,-77.47
36.546,-57.22
36.562,-35.33
36.578,-13.98
36.593,5.21
36.609,21.41
36.625,34.51
36.640,44.86
36.656,52.99
36.671,59.38
36.687,64.38
36.703,68.18
36.718,71.0
36.734,72.95
36.750,74.09
36.765,74.29
36.781,73.3
36.796,70.88
36.812,66.92
36.828,61.75
36.843,56.06
36.859,50.69
36.875,46.28
36.890,43.03
36.906,40.63
36.921,38.51
36.937,36.08
36.953,33.02
36.968,29.24
36.984,24.77
37.000,19.62
37.015,13.69
37.031,6.98
37.046,-0.36
37.062,-7.98
37.078,-15.49
37.093,-22.63
37.109,-29.34
37.125,-35.84
37.140,-42.36
37.156,-49.08
37.171,-56.16
37.187,-63.7
37.203,-71.89
37.218,-80.78
37.234,-90.04
37.250,-98.65
37.265,-104.94
37.281,-106.92
37.296,-102.97
37.312,-92.47
37.328,-76.1
37.343,-55.71
37.359,-33.76
37.375,-12.62
37.390,5.97
37.406,21.12
37.421,32.7
37.437,41.1
37.453,46.94
37.468,50.91
37.484,53.64
37.500,55.67
37.515,57.3
37.531,58.63
37.546,59.51
37.562,59.63
37.578,58.68
37.593,56.48
37.609,53.18
37.625,49.15
37.640,44.95
37.656,41.15
37.671,38.11
37.687,35.95
37.703,34.51
37.718,33.44
37.734,32.31
37.750,30.72
37.765,28.42
37.781,25.35
37.796,21.61
37.812,17.37
37.828,12.75
37.843,7.81
37.859,2.54
37.875,-3.0
37.890,-8.61
37.906,-14.04
37.921,-19.08
37.937,-23.78
37.953,-28.41
37.968,-33.49
37.984,-39.53
38.000,-46.9
38.015,-55.66
38.031,-65.46
38.046,-75.43
38.062,-84.26
38.078,-90.29
38.093,-91.88
38.109,-87.91
38.125,-78.23
38.140,-63.85
38.156,-46.65
38.171,-28.88
38.187,-12.46
38.203,1.39
38.218,12.33
38.234,20.67
38.250,26.95
38.265,31.73
38.281,35.37
38.296,38.06
38.312,39.92
38.328,41.06
38.343,41.57
38.359,41.44
38.375,40.56
38.390,38.84
38.406,36.31
38.421,33.26
38.437,30.12
38.453,27.32
38.468,25.14
38.484,23.49
38.500,22.15
38.515,20.78
38.531,19.21
38.546,17.35
38.562,15.22
38.578,12.83
38.593,10.12
38.609,7.08
38.625,3.69
38.640,-0.08
38.656,-4.25
38.671,-8.89
38.687,-14.05
38.703,-19.66
38.718,-25.45
38.734,-31.04
38.750,-36.08
38.765,-40.45
38.781,-44.27
38.796,-47.94
38.812,-51.96
38.828,-56.81
38.843,-62.72
38.859,-69.45
38.875,-76.16
38.890,-81.38
38.906,-83.42
38.921,-80.81
38.937,-72.92
38.953,-60.21
38.968,-44.14
38.984,-26.73
39.000,-9.91
39.015,4.92
39.031,17.13
39.046,26.71
39.062,34.04
39.078,39.68
39.093,44.15
39.109,47.87
39.125,51.11
39.140,53.92
39.156,56.16
39.171,57.52
39.187,57.7
39.203,56.58
39.218,54.28
39.234,51.21
39.250,47.94
39.265,44.98
39.281,42.64
39.296,40.93
39.312,39.66
39.328,38.51
39.343,37.17
39.359,35.47
39.375,33.34
39.390,30.81
39.406,27.93
39.421,24.69
39.437,21.11
39.453,17.14
39.468,12.78
39.484,8.05
39.500,3.03
39.515,-2.12
39.531,-7.22
39.546,-12.09
39.562,-16.63
39.578,-20.89
39.593,-25.06
39.609,-29.54
39.625,-34.72
39.640,-40.85
39.656,-47.75
39.671,-54.68
39.687,-60.34
39.703,-63.18
39.718,-61.8
39.734,-55.53
39.750,-44.61
39.765,-30.34
39.781,-14.53
39.796,0.81
39.812,14.11
39.828,24.53
39.843,31.93
39.859,36.8
39.875,39.85
39.890,41.8
39.906,43.17
39.921,44.24
39.937,45.08
39.953,45.57
39.968,45.5
39.984,44.62
40.000,42.75
40.015,39.93
40.031,36.4
40.046,32.59
40.062,28.95
40.078,25.81
40.093,23.38
40.109,21.66
40.125,20.58
40.140,19.91
40.156,19.3
40.171,18.3
40.187,16.42
40.203,13.36
40.218,9.07
40.234,3.83
40.250,-1.86
40.265,-7.52
40.281,-12.72
40.296,-17.24
40.312,-21.11
40.328,-24.49
40.343,-27.72
40.359,-31.25
40.375,-35.56
40.390,-41.05
40.406,-47.85
40.421,-55.71
40.437,-63.82
40.453,-70.94
40.468,-75.49
40.484,-75.98
40.500,-71.53
40.515,-62.19
40.531,-48.98
40.546,-33.74
40.562,-18.48
40.578,-4.82
40.593,6.39
40.609,15.05
40.625,21.51
40.640,26.33
40.656,29.99
40.671,32.85
40.687,35.14
40.703,36.98
40.718,38.38
40.734,39.22
40.750,39.37
40.765,38.75
40.781,37.37
40.796,35.39
40.812,32.97
40.828,30.29
40.843,27.49
40.859,24.71
40.875,22.08
40.890,19.72
40.906,17.71
40.921,16.05
40.937,14.66
40.953,13.41
40.968,12.03
40.984,10.3
41.000,7.91
41.015,4.68
41.031,0.59
41.046,-4.18
41.062,-9.28
41.078,-14.37
41.093,-19.18
41.109,-23.65
41.125,-27.84
41.140,-31.99
41.156,-36.41
41.171,-41.48
41.187,-47.54
41.203,-54.63
41.218,-62.18
41.234,-69.0
41.250,-73.42
41.265,-73.79
41.281,-69.14
41.296,-59.53
41.312,-46.09
41.328,-30.6
41.343,-14.93
41.359,-0.55
41.375,11.72
41.390,21.61
41.406,29.29
41.421,35.14
41.437,39.66
41.453,43.47
41.468,47.11
41.484,50.97
41.500,55.05
41.515,58.98
41.531,62.12
41.546,63.82
41.562,63.74
41.578,61.93
41.593,58.86
41.609,55.31
41.625,52.07
41.640,49.8
41.656,48.83
41.671,49.02
41.687,49.76
41.703,50.04
41.718,48.73
41.734,44.95
41.750,38.41
41.765,29.49
41.781,19.17
41.796,8.64
41.812,-1.2
41.828,-9.92
41.843,-17.66
41.859,-24.89
41.875,-32.07
41.890,-39.47
41.906,-47.08
41.921,-54.79
41.937,-62.63
41.953,-70.76
41.968,-79.44
41.984,-88.73
42.000,-98.17
42.015,-106.69
42.031,-112.67
42.046,-114.53
42.062,-111.18
42.078,-102.48
42.093,-89.36
42.109,-73.4
42.125,-56.42
42.140,-39.91
42.156,-24.76
42.171,-11.31
42.187,0.49
42.203,10.79
42.218,19.69
42.234,27.23
42.250,33.45
42.265,38.49
42.281,42.52
42.296,45.75
42.312,48.25
42.328,50.01
42.343,50.96
42.359,51.04
42.375,50.39
42.390,49.27
42.406,48.02
42.421,46.91
42.437,46.0
42.453,45.13
42.468,44.07
42.484,42.59
42.500,40.66
42.515,38.41
42.531,36.02
42.546,33.54
42.562,30.79
42.578,27.37
42.593,22.91
42.609,17.31
42.625,10.84
42.640,4.03
42.656,-2.55
42.671,-8.7
42.687,-14.62
42.703,-20.86
42.718,-28.0
42.734,-36.41
42.750,-46.16
42.765,-57.09
42.781,-68.89
42.796,-80.99
42.812,-92.51
42.828,-101.99
42.843,-107.65
42.859,-107.82
42.875,-101.62
42.890,-89.32
42.906,-72.4
42.921,-53.03
42.937,-33.44
42.953,-15.29
42.968,0.53
42.984,13.77
43.000,24.62
43.015,33.36
43.031,40.24
43.046,45.52
43.062,49.44
43.078,52.25
43.093,54.11
43.109,55.14
43.125,55.34
43.140,54.62
43.156,52.88
43.171,49.99
43.187,45.95
43.203,40.9
43.218,35.14
43.234,29.18
43.250,23.55
43.265,18.7
43.281,14.93
43.296,12.21
43.312,10.2
43.328,8.36
43.343,6.07
43.359,2.83
43.375,-1.7
43.390,-7.51
43.406,-14.47
43.421,-22.29
43.437,-30.63
43.453,-39.14
43.468,-47.42
43.484,-55.25
43.500,-62.54
43.515,-69.47
43.531,-76.54
43.546,-84.29
43.562,-93.07
43.578,-102.58
43.593,-111.76
43.609,-118.81
43.625,-121.7
43.640,-118.76
43.656,-109.22
43.671,-93.52
43.687,-73.1
43.703,-50.02
43.718,-26.37
43.734,-3.82
43.750,16.53
43.765,34.1
43.781,48.77
43.796,60.59
43.812,69.82
43.828,76.77
43.843,81.76
43.859,85.11
43.875,87.01
43.890,87.64
43.906,87.15
43.921,85.74
43.937,83.68
43.953,81.32
43.968,78.96
43.984,76.83
44.000,74.96
44.015,73.26
44.031,71.45
44.046,69.14
44.062,65.92
44.078,61.4
44.093,55.37
44.109,47.82
44.125,39.03
44.140,29.46
44.156,19.6
44.171,9.83
44.187,0.42
44.203,-8.49
44.218,-16.78
44.234,-24.41
44.250,-31.45
44.265,-38.24
44.281,-45.35
44.296,-53.56
44.312,-63.44
44.328,-75.07
44.343,-87.71
44.359,-99.79
44.375,-109.18
44.390,-113.81
44.406,-112.22
44.421,-104.06
44.437,-90.2
44.453,-72.48
44.468,-53.21
44.484,-34.57
44.500,-18.1
44.515,-4.49
44.531,6.28
44.546,14.68
44.562,21.27
44.578,26.52
44.593,30.8
44.609,34.34
44.625,37.27
44.640,39.51
44.656,40.8
44.671,40.78
44.687,39.11
44.703,35.76
44.718,31.07
44.734,25.71
44.750,20.45
44.765,15.95
44.781,12.51
44.796,10.08
44.812,8.29
44.828,6.7
44.843,4.87
44.859,2.46
44.875,-0.66
44.890,-4.56
44.906,-9.12
44.921,-14.28
44.937,-19.95
44.953,-26.11
44.968,-32.73
44.984,-39.69
45.000,-46.86
45.015,-54.07
45.031,-61.2
45.046,-68.26
45.062,-75.37
45.078,-82.8
45.093,-90.82
45.109,-99.62
45.125,-109.07
45.140,-118.5
45.156,-126.58
45.171,-131.47
45.187,-131.32
45.203,-124.78
45.218,-111.53
45.234,-92.41
45.250,-69.21
45.265,-44.11
45.281,-19.14
45.296,4.18
45.312,24.97
45.328,42.88
45.343,57.96
45.359,70.52
45.375,81.05
45.390,90.08
45.406,98.08
45.421,105.22
45.437,111.35
45.453,116.06
45.468,118.91
45.484,119.67
45.500,118.49
45.515,115.87
45.531,112.57
45.546,109.31
45.562,106.63
45.578,104.7
45.593,103.34
45.609,102.09
45.625,100.32
45.640,97.46
45.656,93.03
45.671,86.79
45.687,78.75
45.703,69.18
45.718,58.59
45.734,47.58
45.750,36.78
45.765,26.7
45.781,17.63
45.796,9.64
45.812,2.52
45.828,-4.04
45.843,-10.36
45.859,-16.75
45.875,-23.4
45.890,-30.61
45.906,-38.64
45.921,-47.7
45.937,-57.63
45.953,-67.61
45.968,-76.15
45.984,-81.28
46.000,-81.15
46.015,-74.64
46.031,-61.72
46.046,-43.54
46.062,-22.02
46.078,0.71
46.093,22.74
46.109,42.79
46.125,60.09
46.140,74.41
46.156,85.88
46.171,94.96
46.187,102.35
46.203,108.76
46.218,114.64
46.234,119.99
46.250,124.27
46.265,126.65
46.281,126.31
46.296,122.81
46.312,116.38
46.328,107.92
46.343,99.02
46.359,91.77
46.375,88.25
46.390,89.9
46.406,96.72
46.421,106.9
46.437,117.03
46.453,123.18
46.468,122.3
46.484,113.29
46.500,97.14
46.515,76.11
46.531,52.52
46.546,27.72
46.562,2.04
46.578,-24.54
46.593,-51.62
46.609,-77.92
46.625,-101.65
46.640,-121.32
46.656,-136.44
46.671,-147.79
46.687,-156.91
46.703,-165.55
46.718,-175.0
46.734,-185.76
46.750,-197.47
46.765,-209.03
46.781,-218.71
46.796,-224.51
46.812,-224.51
46.828,-217.45
46.843,-203.22
46.859,-183.03
46.875,-159.15
46.890,-134.24
46.906,-110.65
46.921,-89.77
46.937,-72.0
46.953,-56.9
46.968,-43.74
46.984,-31.88
47.000,-21.0
47.015,-11.03
47.031,-1.99
47.046,6.09
47.062,13.2
47.078,19.32
47.093,24.34
47.109,28.11
47.125,30.55
47.140,31.75
47.156,32.05
47.171,31.89
47.187,31.78
47.203,32.04
47.218,32.76
47.234,33.74
47.250,34.56
47.265,34.74
47.281,33.92
47.296,31.97
47.312,29.11
47.328,25.71
47.343,22.19
47.359,18.78
47.375,15.59
47.390,12.68
47.406,10.23
47.421,8.61
47.437,8.12
47.453,8.84
47.468,10.39
47.484,11.94
47.500,12.49
47.515,11.12
47.531,7.26
47.546,0.81
47.562,-7.74
47.578,-17.27
47.593,-26.16
47.609,-32.46
47.625,-34.32
47.640,-30.62
47.656,-21.36
47.671,-7.81
47.687,7.89
47.703,23.33
47.718,36.6
47.734,46.73
47.750,53.69
47.765,58.17
47.781,61.08
47.796,63.2
47.812,65.04
47.828,66.78
47.843,68.36
47.859,69.6
47.875,70.21
47.890,69.88
47.906,68.37
47.921,65.55
47.937,61.61
47.953,56.99
47.968,52.42
47.984,48.55
48.000,45.83
48.015,44.3
48.031,43.61
48.046,43.18
48.062,42.46
48.078,41.18
48.093,39.38
48.109,37.3
48.125,35.16
48.140,32.91
48.156,30.22
48.171,26.59
48.187,21.6
48.203,15.13
48.218,7.46
48.234,-0.92
48.250,-9.48
48.265,-17.93
48.281,-26.28
48.296,-34.79
48.312,-43.86
48.328,-53.82
48.343,-64.76
48.359,-76.24
48.375,-87.22
48.390,-96.15
48.406,-101.17
48.421,-100.78
48.437,-94.21
48.453,-81.86
48.468,-65.16
48.484,-46.17
48.500,-27.03
48.515,-9.36
48.531,5.94
48.546,18.72
48.562,29.24
48.578,37.94
48.593,45.25
48.609,51.45
48.625,56.79
48.640,61.38
48.656,65.17
48.671,67.97
48.687,69.47
48.703,69.4
48.718,67.72
48.734,64.72
48.750,60.95
48.765,57.04
48.781,53.41
48.796,50.14
48.812,46.93
48.828,43.44
48.843,39.36
48.859,34.63
48.875,29.4
48.890,23.89
48.906,18.32
48.921,12.82
48.937,7.49
48.953,2.29
48.968,-2.91
48.984,-8.39
49.000,-14.55
49.015,-21.69
49.031,-29.88
49.046,-38.84
49.062,-47.96
49.078,-56.61
49.093,-64.36
49.109,-71.23
49.125,-77.67
49.140,-84.35
49.156,-91.73
49.171,-99.69
49.187,-107.18
49.203,-112.44
49.218,-113.41
49.234,-108.47
49.250,-97.03
49.265,-79.86
49.281,-58.78
49.296,-36.16
49.312,-14.23
49.328,5.48
49.343,22.23
49.359,35.94
49.375,46.94
49.390,55.7
49.406,62.75
49.421,68.52
49.437,73.46
49.453,77.74
49.468,81.36
49.484,84.03
49.500,85.32
49.515,84.92
49.531,82.76
49.546,79.1
49.562,74.45
49.578,69.41
49.593,64.44
49.609,59.81
49.625,55.57
49.640,51.62
49.656,47.79
49.671,43.87
49.687,39.64
49.703,34.89
49.718,29.49
49.734,23.39
49.750,16.7
49.765,9.49
49.781,1.82
49.796,-6.29
49.812,-14.87
49.828,-23.81
49.843,-32.82
49.859,-41.51
49.875,-49.45
49.890,-56.38
49.906,-62.35
49.921,-67.73
49.937,-73.15
49.953,-79.29
49.968,-86.73
49.984,-95.51
50.000,-105.04
50.015,-113.96
50.031,-120.37
50.046,-122.32
50.062,-118.32
50.078,-107.9
50.093,-91.8
50.109,-71.74
50.125,-49.99
50.140,-28.65
50.156,-9.22
50.171,7.62
50.187,21.95
50.203,34.2
50.218,44.97
50.234,54.71
50.250,63.64
50.265,71.82
50.281,79.12
50.296,85.31
50.312,90.09
50.328,93.26
50.343,94.76
50.359,94.8
50.375,93.83
50.390,92.27
50.406,90.32
50.421,87.72
50.437,83.83
50.453,77.89
50.468,69.44
50.484,58.59
50.500,46.05
50.515,32.93
50.531,20.36
50.546,9.15
50.562,-0.36
50.578,-8.16
50.593,-14.46
50.609,-19.49
50.625,-23.49
50.640,-26.68
50.656,-29.29
50.671,-31.52
50.687,-33.43
50.703,-35.03
50.718,-36.32
50.734,-37.5
50.750,-39.09
50.765,-41.8
50.781,-46.25
50.796,-52.61
50.812,-60.3
50.828,-68.01
50.843,-73.89
50.859,-76.07
50.875,-73.16
50.890,-64.74
50.906,-51.41
50.921,-34.73
50.937,-16.75
50.953,0.55
50.968,15.73
50.984,28.18
51.000,37.99
51.015,45.69
51.031,51.86
51.046,56.92
51.062,61.01
51.078,64.23
51.093,66.61
51.109,68.24
51.125,69.13
51.140,69.2
51.156,68.31
51.171,66.3
51.187,63.26
51.203,59.42
51.218,55.18
51.234,51.01
51.250,47.28
51.265,44.21
51.281,41.85
51.296,40.04
51.312,38.35
51.328,36.23
51.343,33.13
51.359,28.64
51.375,22.72
51.390,15.66
51.406,7.94
51.421,0.12
51.437,-7.4
51.453,-14.34
51.468,-20.55
51.484,-26.04
51.500,-30.96
51.515,-35.66
51.531,-40.69
51.546,-46.61
51.562,-53.81
51.578,-62.14
51.593,-70.8
51.609,-78.4
51.625,-83.31
51.640,-84.15
51.656,-80.21
51.671,-71.68
51.687,-59.51
51.703,-45.17
51.718,-30.16
51.734,-15.71
51.750,-2.58
51.765,8.92
51.781,18.8
51.796,27.2
51.812,34.34
51.828,40.34
51.843,45.29
51.859,49.16
51.875,51.84
51.890,53.26
51.906,53.37
51.921,52.31
51.937,50.38
51.953,48.01
51.968,45.69
51.984,43.79
52.000,42.48
52.015,41.64
52.031,40.9
52.046,39.79
52.062,37.89
52.078,35.11
52.093,31.65
52.109,27.98
52.125,24.6
52.140,21.78
52.156,19.38
52.171,16.8
52.187,13.25
52.203,8.11
52.218,1.16
52.234,-7.24
52.250,-16.4
52.265,-25.47
52.281,-33.8
52.296,-41.1
52.312,-47.42
52.328,-53.11
52.343,-58.69
52.359,-64.77
52.375,-71.92
52.390,-80.38
52.406,-89.86
52.421,-99.27
52.437,-106.89
52.453,-110.73
52.468,-109.18
52.484,-101.59
52.500,-88.58
52.515,-71.91
52.531,-53.87
52.546,-36.64
52.562,-21.71
52.578,-9.59
52.609,7.75
52.625,14.39
52.640,20.37
52.656,25.87
52.671,30.91
52.687,35.44
52.703,39.38
52.718,42.55
52.734,44.72
52.750,45.56
52.765,44.88
52.781,42.8
52.796,39.78
52.812,36.54
52.828,33.83
52.843,32.11
52.859,31.39
52.875,31.24
52.890,31.08
52.906,30.36
52.921,28.84
52.937,26.64
52.953,24.0
52.968,21.18
52.984,18.15
53.000,14.57
53.015,10.07
53.031,4.34
53.046,-2.55
53.062,-10.25
53.078,-18.29
53.093,-26.22
53.109,-33.83
53.125,-41.05
53.140,-47.93
53.156,-54.59
53.171,-61.26
53.187,-68.2
53.203,-75.44
53.218,-82.63
53.234,-88.79
53.250,-92.48
53.265,-92.29
53.281,-87.32
53.296,-77.62
53.312,-64.18
53.328,-48.51
53.343,-32.23
53.359,-16.58
53.375,-2.4
53.390,9.85
53.406,20.02
53.421,28.16
53.437,34.56
53.453,39.61
53.468,43.73
53.484,47.21
53.500,50.12
53.515,52.37
53.531,53.78
53.546,54.15
53.562,53.36
53.578,51.42
53.593,48.56
53.609,45.15
53.625,41.73
53.640,38.77
53.656,36.51
53.671,34.88
53.687,33.47
53.703,31.73
53.718,29.23
53.734,25.83
53.750,21.68
53.765,17.07
53.781,12.3
53.796,7.53
53.812,2.68
53.828,-2.31
53.843,-7.51
53.859,-12.83
53.875,-18.08
53.890,-23.11
53.906,-27.81
53.921,-32.31
53.937,-36.9
53.953,-41.92
53.968,-47.68
53.984,-54.32
54.000,-61.75
54.015,-69.59
54.031,-77.11
54.046,-83.33
54.062,-87.08
54.078,-87.29
54.093,-83.25
54.109,-74.85
54.125,-62.75
54.140,-48.15
54.156,-32.58
54.171,-17.47
54.187,-3.81
54.203,7.9
54.218,17.68
54.234,25.74
54.250,32.33
54.265,37.6
54.281,41.56
54.296,44.21
54.312,45.56
54.328,45.76
54.343,44.99
54.359,43.48
54.375,41.47
54.390,39.18
54.406,36.85
54.421,34.67
54.437,32.74
54.453,31.09
54.468,29.63
54.484,28.23
54.500,26.76
54.515,25.13
54.531,23.37
54.546,21.52
54.562,19.65
54.578,17.71
54.593,15.5
54.609,12.75
54.625,9.24
54.640,4.86
54.656,-0.27
54.671,-5.91
54.687,-11.74
54.703,-17.47
54.718,-22.83
54.734,-27.65
54.750,-31.92
54.765,-35.82
54.781,-39.83
54.796,-44.56
54.812,-50.56
54.828,-57.95
54.843,-66.09
54.859,-73.66
54.875,-78.86
54.890,-80.03
54.906,-76.14
54.921,-67.16
54.937,-54.06
54.953,-38.48
54.968,-22.25
54.984,-6.97
55.000,6.36
55.015,17.32
55.031,26.01
55.046,32.71
55.062,37.81
55.078,41.63
55.093,44.47
55.109,46.57
55.125,48.09
55.140,49.03
55.156,49.26
55.171,48.61
55.187,47.07
55.203,44.92
55.218,42.62
55.234,40.66
55.250,39.27
55.265,38.41
55.281,37.83
55.296,37.21
55.312,36.36
55.328,35.27
55.343,33.98
55.359,32.47
55.375,30.64
55.390,28.35
55.406,25.46
55.421,21.9
55.437,17.62
55.453,12.6
55.468,6.92
55.484,0.78
55.500,-5.5
55.515,-11.62
55.531,-17.41
55.546,-23.0
55.562,-28.77
55.578,-35.16
55.593,-42.49
55.609,-50.64
55.625,-59.04
55.640,-66.64
55.656,-72.1
55.671,-74.14
55.687,-71.78
55.703,-64.7
55.718,-53.31
55.734,-38.72
55.750,-22.5
55.765,-6.3
55.781,8.5
55.796,21.04
55.812,31.02
55.828,38.62
55.843,44.31
55.859,48.62
55.875,52.05
55.890,54.94
55.906,57.46
55.921,59.63
55.937,61.32
55.953,62.27
55.968,62.23
55.984,61.08
56.000,58.95
56.015,56.29
56.031,53.74
56.046,51.93
56.062,51.23
56.078,51.58
56.093,52.56
56.109,53.61
56.125,54.23
56.140,54.17
56.156,53.39
56.171,51.96
56.187,49.91
56.203,47.24
56.218,43.86
56.234,39.78
56.250,35.0
56.265,29.57
56.281,23.53
56.296,16.8
56.312,9.28
56.328,0.78
56.343,-8.84
56.359,-19.68
56.375,-31.7
56.390,-44.62
56.406,-57.85
56.421,-70.36
56.437,-80.68
56.453,-87.18
56.468,-88.43
56.484,-83.73
56.500,-73.37
56.515,-58.67
56.531,-41.78
56.546,-25.1
56.562,-10.74
56.593,6.85
56.609,10.48
56.625,12.12
56.640,12.97
56.656,13.86
56.671,15.03
56.687,16.3
56.703,17.43
56.718,18.26
56.734,18.8
56.750,19.17
56.765,19.38
56.781,19.34
56.796,18.93
56.812,18.15
56.828,17.18
56.843,16.28
56.859,15.63
56.875,15.16
56.890,14.59
56.906,13.54
56.921,11.68
56.937,8.96
56.953,5.49
56.968,1.57
56.984,-2.53
57.000,-6.7
57.015,-11.0
57.031,-15.61
57.046,-20.73
57.062,-26.43
57.078,-32.62
57.093,-39.08
57.109,-45.55
57.125,-51.86
57.140,-57.97
57.156,-64.02
57.171,-70.21
57.187,-76.86
57.203,-84.12
57.218,-91.89
57.234,-99.6
57.250,-106.13
57.265,-109.99
57.281,-109.67
57.296,-104.22
57.312,-93.63
57.328,-78.86
57.343,-61.61
57.359,-43.7
57.375,-26.65
57.390,-11.31
57.406,2.05
57.421,13.56
57.437,23.5
57.453,32.15
57.468,39.68
57.484,46.21
57.500,51.68
57.515,55.99
57.531,58.99
57.546,60.54
57.562,60.62
57.578,59.38
57.593,57.13
57.609,54.26
57.625,51.21
57.640,48.41
57.656,46.16
57.671,44.59
57.687,43.6
57.703,42.94
57.718,42.23
57.734,41.14
57.750,39.48
57.765,37.21
57.781,34.43
57.796,31.26
57.812,27.71
57.828,23.67
57.843,18.91
57.859,13.21
57.875,6.49
57.890,-1.09
57.906,-9.05
57.921,-16.78
57.937,-23.7
57.953,-29.57
57.968,-34.58
57.984,-39.35
58.000,-44.72
58.015,-51.4
58.031,-59.59
58.046,-68.82
58.062,-77.88
58.078,-85.13
58.093,-88.87
58.109,-87.83
58.125,-81.54
58.140,-70.44
58.156,-55.78
58.171,-39.21
58.187,-22.38
58.203,-6.61
58.218,7.33
58.234,19.09
58.250,28.69
58.265,36.37
58.281,42.42
58.296,47.24
58.312,51.15
58.328,54.43
58.343,57.16
58.359,59.2
58.375,60.28
58.390,60.12
58.406,58.6
58.421,55.9
58.437,52.43
58.453,48.74
58.468,45.3
58.484,42.34
58.500,39.79
58.515,37.32
58.531,34.5
58.546,31.01
58.562,26.79
58.578,22.08
58.593,17.27
58.609,12.73
58.625,8.57
58.640,4.75
58.656,0.98
58.671,-3.02
58.687,-7.44
58.703,-12.39
58.718,-17.9
58.734,-23.95
58.750,-30.46
58.765,-37.27
58.781,-44.18
58.796,-50.95
58.812,-57.52
58.828,-64.1
58.843,-71.04
58.859,-78.73
58.875,-87.07
58.890,-95.35
58.906,-102.2
58.921,-105.93
58.937,-105.11
58.953,-99.05
58.968,-88.06
58.984,-73.37
59.000,-56.66
59.015,-39.59
59.031,-23.34
59.046,-8.56
59.062,4.52
59.078,15.83
59.093,25.32
59.109,32.98
59.125,38.82
59.140,43.02
59.156,45.88
59.171,47.64
59.187,48.5
59.203,48.55
59.218,47.85
59.234,46.51
59.250,44.7
59.265,42.71
59.281,40.75
59.296,38.99
59.312,37.51
59.328,36.29
59.343,35.33
59.359,34.51
59.375,33.71
59.390,32.7
59.406,31.29
59.421,29.35
59.437,26.84
59.453,23.75
59.468,20.02
59.484,15.59
59.500,10.42
59.515,4.58
59.531,-1.69
59.546,-8.1
59.562,-14.38
59.578,-20.41
59.593,-26.24
59.609,-32.05
59.625,-38.12
59.640,-44.77
59.656,-52.18
59.671,-60.29
59.687,-68.57
59.703,-76.01
59.718,-81.23
59.734,-82.79
59.750,-79.67
59.765,-71.59
59.781,-59.15
59.796,-43.72
59.812,-26.97
59.828,-10.54
59.843,4.39
59.859,17.17
59.875,27.71
59.890,36.33
59.906,43.44
59.921,49.38
59.937,54.22
59.953,57.83
59.968,60.01
59.984,60.7
