timestamp,value
00.000,-27.76
00.015,-13.2
00.031,-0.06
00.046,10.99
00.062,19.71
00.078,26.11
00.093,30.56
00.109,33.31
00.125,34.74
00.140,35.09
00.156,34.58
00.171,33.38
00.187,31.73
00.203,29.97
00.218,28.46
00.234,27.61
00.250,27.54
00.265,28.22
00.281,29.41
00.296,30.86
00.312,32.21
00.328,33.23
00.343,33.66
00.359,33.31
00.375,32.03
00.390,29.73
00.406,26.42
00.421,22.39
00.437,18.04
00.453,13.71
00.468,9.75
00.484,6.39
00.500,3.82
00.515,2.18
00.531,1.5
00.546,1.57
00.562,2.05
00.578,2.4
00.593,2.24
00.609,1.6
00.625,1.13
00.640,2.0
00.656,5.8
00.671,14.0
00.687,27.55
00.703,46.79
00.718,70.9
00.734,98.0
00.750,125.85
00.765,152.27
00.781,175.62
00.796,194.88
00.812,209.58
00.828,219.69
00.843,225.56
00.859,227.15
00.875,224.08
00.890,216.22
00.906,204.1
00.921,189.03
00.937,172.34
00.953,154.64
00.968,136.07
00.984,116.74
01.000,96.14
01.015,73.93
01.031,50.57
01.046,27.82
01.062,8.34
01.078,-5.71
01.093,-13.77
01.109,-16.81
01.125,-16.58
01.140,-16.93
01.156,-23.02
01.171,-40.18
01.187,-72.13
01.203,-119.88
01.218,-181.98
01.234,-255.26
01.250,-335.23
01.265,-409.11
01.281,-460.24
01.296,-475.8
01.312,-454.87
01.328,-407.36
01.343,-346.13
01.359,-280.64
01.375,-216.28
01.390,-155.69
01.406,-100.41
01.421,-52.57
01.437,-14.61
01.453,11.76
01.468,27.22
01.484,34.78
01.500,38.43
01.515,41.65
01.531,46.95
01.546,55.51
01.562,66.68
01.578,78.6
01.593,89.1
01.609,97.24
01.625,103.14
01.640,107.13
01.656,109.36
01.671,109.41
01.687,106.65
01.703,100.17
01.718,89.98
01.734,75.26
01.750,57.15
01.765,38.17
01.781,21.19
01.796,8.85
01.812,2.96
01.828,4.14
01.843,11.4
01.859,22.81
01.875,35.81
01.890,48.81
01.906,60.53
01.921,69.94
01.937,76.41
01.953,79.8
01.968,80.37
01.984,78.88
02.000,76.34
02.015,74.09
02.031,73.59
02.046,76.1
02.062,82.36
02.078,92.46
02.093,105.93
02.109,121.86
02.125,139.06
02.140,156.07
02.156,171.97
02.171,185.65
02.187,196.08
02.203,202.4
02.218,203.98
02.234,200.48
02.250,191.65
02.265,176.49
02.281,153.7
02.296,124.4
02.312,89.77
02.328,51.01
02.343,9.28
02.359,-34.39
02.375,-78.52
02.390,-121.64
02.406,-163.41
02.421,-202.75
02.437,-237.43
02.453,-265.61
02.468,-286.46
02.484,-300.32
02.500,-308.37
02.515,-311.77
02.531,-311.89
02.546,-312.18
02.562,-314.63
02.578,-319.1
02.593,-324.67
02.609,-330.43
02.625,-335.46
02.640,-338.42
02.656,-336.67
02.671,-326.89
02.687,-309.17
02.703,-282.9
02.718,-247.45
02.734,-203.95
02.750,-156.34
02.765,-110.77
02.781,-73.99
02.796,-51.09
02.812,-25.33
02.828,7.14
02.843,40.35
02.859,65.0
02.875,76.58
02.890,76.25
02.906,67.88
02.921,55.41
02.937,42.12
02.953,30.57
02.968,18.75
02.984,6.16
03.000,-4.56
03.015,-8.57
03.031,-1.6
03.046,17.55
03.062,45.14
03.078,73.15
03.093,92.48
03.109,93.87
03.125,75.17
03.140,42.31
03.156,5.33
03.171,-27.06
03.187,-51.2
03.203,-68.25
03.218,-83.15
03.234,-96.03
03.250,-106.43
03.265,-111.41
03.281,-107.37
03.296,-92.9
03.312,-70.09
03.328,-43.66
03.343,-18.82
03.359,1.28
03.375,15.84
03.390,24.57
03.406,28.11
03.421,27.6
03.437,23.44
03.453,15.51
03.468,3.52
03.484,-12.4
03.500,-30.56
03.515,-48.46
03.531,-63.96
03.546,-75.0
03.562,-79.72
03.578,-77.27
03.593,-67.38
03.609,-49.74
03.625,-28.66
03.640,-6.54
03.656,15.16
03.671,35.6
03.687,54.91
03.703,73.89
03.718,93.41
03.734,113.82
03.750,134.53
03.765,153.83
03.781,170.18
03.796,182.51
03.812,190.53
03.828,195.17
03.843,198.34
03.859,202.09
03.875,207.77
03.890,216.06
03.906,226.88
03.921,240.43
03.937,256.19
03.953,271.92
03.968,283.41
03.984,285.5
04.000,274.56
04.015,250.71
04.031,218.83
04.046,186.51
04.062,161.21
04.078,146.26
04.093,139.93
04.109,137.23
04.125,133.7
04.140,128.58
04.156,125.4
04.171,129.45
04.187,143.93
04.203,167.49
04.218,193.63
04.234,213.15
04.250,217.84
04.265,203.07
04.281,168.62
04.296,118.15
04.312,57.28
04.328,-8.2
04.343,-73.37
04.359,-134.38
04.375,-188.08
04.390,-231.59
04.406,-262.5
04.421,-279.85
04.437,-284.4
04.453,-278.75
04.468,-265.63
04.484,-246.39
04.500,-219.55
04.515,-181.76
04.531,-130.46
04.546,-67.46
04.562,-0.92
04.578,55.73
04.593,87.82
04.609,85.43
04.625,47.56
04.640,-16.6
04.656,-90.87
04.671,-157.69
04.687,-203.96
04.703,-224.04
04.718,-219.75
04.734,-198.39
04.750,-169.31
04.765,-141.82
04.781,-123.89
04.796,-121.43
04.812,-137.3
04.828,-170.16
04.843,-213.66
04.859,-257.39
04.875,-290.17
04.890,-304.22
04.906,-298.53
04.921,-279.08
04.937,-255.17
04.953,-234.32
04.968,-218.22
04.984,-203.02
05.000,-183.12
05.015,-156.59
05.031,-128.17
05.046,-107.97
05.062,-105.76
05.078,-124.29
05.093,-156.05
05.109,-185.58
05.125,-196.37
05.140,-178.49
05.156,-132.72
05.171,-69.1
05.187,-1.47
05.203,58.68
05.218,105.71
05.234,139.22
05.250,160.61
05.265,170.2
05.281,166.06
05.296,145.95
05.312,110.33
05.328,63.92
05.343,15.5
05.359,-25.02
05.375,-49.78
05.390,-55.51
05.406,-43.72
05.421,-19.25
05.437,12.36
05.453,47.34
05.468,84.29
05.484,123.63
05.500,165.54
05.515,208.49
05.531,248.73
05.546,281.29
05.562,301.86
05.578,308.42
05.593,302.44
05.609,288.04
05.625,270.75
05.640,255.74
05.656,246.6
05.671,244.4
05.687,247.32
05.703,250.8
05.718,248.2
05.734,233.26
05.750,202.19
05.765,156.34
05.781,102.37
05.796,50.42
05.812,10.38
05.828,-11.9
05.843,-16.56
05.859,-8.73
05.875,4.55
05.890,17.38
05.906,27.29
05.921,34.09
05.937,37.51
05.953,35.38
05.968,23.33
05.984,-2.83
06.000,-43.75
06.015,-94.38
06.031,-144.51
06.046,-181.98
06.062,-197.46
06.078,-187.95
06.093,-157.05
06.109,-113.48
06.125,-67.63
06.140,-29.18
06.156,-5.34
06.171,0.21
06.187,-11.76
06.203,-35.65
06.218,-62.58
06.234,-83.26
06.250,-92.04
06.265,-88.69
06.281,-77.93
06.296,-66.41
06.312,-59.35
06.328,-59.1
06.343,-66.21
06.359,-81.16
06.375,-104.69
06.390,-136.7
06.406,-172.85
06.421,-204.65
06.437,-222.07
06.453,-217.86
06.468,-190.72
06.484,-145.42
06.500,-90.22
06.515,-33.09
06.531,20.44
06.546,69.69
06.562,115.69
06.578,158.64
06.593,197.58
06.609,230.99
06.625,258.15
06.640,279.24
06.656,294.71
06.671,304.08
06.687,309.37
06.703,311.62
06.718,309.6
06.734,300.39
06.750,281.9
06.765,255.21
06.781,224.64
06.796,195.09
06.812,169.16
06.828,151.07
06.843,141.72
06.859,137.86
06.875,134.05
06.890,126.97
06.906,118.32
06.921,114.25
06.937,121.56
06.953,144.85
06.968,192.36
06.984,269.84
07.000,376.73
07.015,505.81
07.031,646.12
07.046,786.89
07.062,919.44
07.078,1036.92
07.093,1083.52
07.109,1021.03
07.125,846.28
07.140,595.1
07.156,320.7
07.171,65.66
07.187,-149.38
07.203,-321.42
07.218,-456.55
07.234,-558.75
07.250,-633.4
07.265,-680.28
07.281,-699.61
07.296,-696.08
07.312,-677.56
07.328,-651.74
07.343,-624.72
07.359,-601.46
07.375,-584.06
07.390,-570.16
07.406,-555.85
07.421,-538.8
07.437,-519.15
07.453,-497.61
07.468,-474.04
07.484,-447.55
07.500,-418.04
07.515,-386.71
07.531,-352.14
07.546,-311.16
07.562,-261.58
07.578,-203.54
07.593,-139.68
07.609,-74.22
07.625,-12.19
07.640,41.42
07.656,82.64
07.671,110.66
07.687,127.6
07.703,136.21
07.718,138.23
07.734,134.36
07.750,124.62
07.765,109.38
07.781,89.96
07.796,68.7
07.812,48.95
07.828,34.35
07.843,27.1
07.859,27.49
07.875,34.58
07.890,46.93
07.906,63.37
07.921,83.18
07.937,105.67
07.953,130.0
07.968,155.06
07.984,179.17
08.000,200.2
08.015,215.63
08.031,223.05
08.046,220.62
08.062,207.75
08.078,185.45
08.093,156.31
08.109,123.83
08.125,91.43
08.140,61.73
08.156,36.0
08.171,14.45
08.187,-3.37
08.203,-17.98
08.218,-29.9
08.234,-39.38
08.250,-46.73
08.265,-52.34
08.281,-56.59
08.296,-59.83
08.312,-62.36
08.328,-64.36
08.343,-65.93
08.359,-67.15
08.375,-67.92
08.390,-68.14
08.406,-67.86
08.421,-67.08
08.437,-65.96
08.453,-64.61
08.468,-63.06
08.484,-61.27
08.500,-59.14
08.515,-56.7
08.531,-54.03
08.546,-51.51
08.562,-49.37
08.578,-47.82
08.593,-46.8
08.609,-46.0
08.625,-45.1
08.640,-43.8
08.656,-42.11
08.671,-40.09
08.687,-38.06
08.703,-36.15
08.718,-34.6
08.734,-33.42
08.750,-32.56
08.765,-31.93
08.781,-31.46
08.796,-31.12
08.812,-30.84
08.828,-30.67
08.843,-30.5
08.859,-30.43
08.875,-30.45
08.890,-30.47
08.906,-30.29
08.921,-29.69
08.937,-28.44
08.953,-26.37
08.968,-23.56
08.984,-20.18
09.000,-16.54
09.015,-13.05
09.031,-9.91
09.046,-7.35
09.062,-5.37
09.078,-3.91
09.093,-2.86
09.109,-2.14
09.125,-1.68
09.140,-1.45
09.156,-1.48
09.171,-1.75
09.187,-2.29
09.203,-2.99
09.218,-3.8
09.234,-4.57
09.250,-5.1
09.265,-5.23
09.281,-4.91
09.296,-4.19
09.312,-3.24
09.328,-2.25
09.343,-1.3
09.359,-0.38
09.375,0.64
09.390,1.88
09.406,3.33
09.421,4.77
09.437,5.87
09.453,6.27
09.468,5.74
09.484,4.29
09.500,2.13
09.515,-0.5
09.531,-3.29
09.546,-6.0
09.562,-8.53
09.578,-10.86
09.593,-13.09
09.609,-15.35
09.625,-17.78
09.640,-20.49
09.656,-23.52
09.671,-26.68
09.687,-29.48
09.703,-31.22
09.718,-31.23
09.734,-29.21
09.750,-25.25
09.765,-19.93
09.781,-14.1
09.796,-8.57
09.812,-3.86
09.828,-0.18
09.843,2.51
09.859,4.35
09.875,5.3
09.890,5.38
09.906,4.61
09.921,3.12
09.937,1.26
09.953,-0.61
09.968,-2.21
09.984,-3.53
10.000,-4.6
10.015,-5.65
10.031,-6.78
10.046,-7.98
10.062,-9.13
10.078,-10.05
10.093,-10.7
10.109,-11.22
10.125,-11.79
10.140,-12.56
10.156,-13.51
10.171,-14.45
10.187,-15.26
10.203,-15.93
10.218,-16.52
10.234,-17.21
10.250,-18.12
10.265,-19.16
10.281,-20.03
10.296,-20.4
10.312,-20.05
10.328,-18.98
10.343,-17.44
10.359,-15.67
10.375,-13.97
10.390,-12.56
10.406,-11.57
10.421,-11.1
10.437,-11.31
10.453,-12.26
10.468,-13.76
10.484,-15.56
10.500,-17.01
10.515,-17.59
10.531,-16.8
10.546,-14.44
10.562,-10.65
10.578,-5.96
10.593,-1.07
10.609,3.38
10.625,6.83
10.640,9.07
10.656,10.12
10.671,10.22
10.687,9.8
10.703,9.29
10.718,9.02
10.734,9.3
10.750,10.16
10.765,11.45
10.781,12.91
10.796,14.29
10.812,15.39
10.828,16.16
10.843,16.77
10.859,17.42
10.875,18.31
10.890,19.48
10.906,20.75
10.921,21.8
10.937,22.29
10.953,21.97
10.968,20.8
10.984,18.93
11.000,16.65
11.015,14.27
11.031,11.89
11.046,9.43
11.062,6.83
11.078,4.12
11.093,1.46
11.109,-0.84
11.125,-2.55
11.140,-3.55
11.156,-3.96
11.171,-4.12
11.187,-4.51
11.203,-5.4
11.218,-6.87
11.234,-8.66
11.250,-10.24
11.265,-11.09
11.281,-10.84
11.296,-9.3
11.312,-6.52
11.328,-2.84
11.343,1.35
11.359,5.6
11.375,9.54
11.390,12.97
11.406,15.82
11.421,18.13
11.437,19.94
11.453,21.41
11.468,22.54
11.484,23.31
11.500,23.75
11.515,23.83
11.531,23.62
11.546,23.15
11.562,22.46
11.578,21.46
11.593,20.18
11.609,18.7
11.625,17.15
11.640,15.75
11.656,14.59
11.671,13.71
11.687,13.0
11.703,12.31
11.718,11.47
11.734,10.43
11.750,9.24
11.765,7.92
11.781,6.54
11.796,5.1
11.812,3.57
11.828,1.97
11.843,0.31
11.859,-1.34
11.875,-2.81
11.890,-3.99
11.906,-4.85
11.921,-5.34
11.937,-5.6
11.953,-5.83
11.968,-6.2
11.984,-6.95
12.000,-8.16
12.015,-9.75
12.031,-11.51
12.046,-13.05
12.062,-13.83
12.078,-13.4
12.093,-11.38
12.109,-7.68
12.125,-2.5
12.140,3.68
12.156,10.2
12.171,16.42
12.187,21.83
12.203,26.2
12.218,29.44
12.234,31.75
12.250,33.36
12.265,34.48
12.281,35.22
12.296,35.61
12.312,35.63
12.328,35.24
12.343,34.35
12.359,32.83
12.375,30.69
12.390,28.05
12.406,25.13
12.421,22.19
12.437,19.6
12.453,17.59
12.468,16.24
12.484,15.45
12.500,14.94
12.515,14.49
12.531,13.89
12.546,13.06
12.562,11.95
12.578,10.65
12.593,9.17
12.609,7.56
12.625,5.85
12.640,4.01
12.656,2.01
12.671,-0.21
12.687,-2.64
12.703,-5.2
12.718,-7.88
12.734,-10.7
12.750,-13.75
12.765,-17.06
12.781,-20.67
12.796,-24.56
12.812,-28.69
12.828,-32.94
12.843,-37.12
12.859,-40.99
12.875,-44.22
12.890,-46.31
12.906,-46.62
12.921,-44.7
12.937,-40.48
12.953,-34.37
12.968,-27.16
12.984,-19.84
13.000,-13.29
13.015,-8.16
13.031,-4.6
13.046,-2.46
13.062,-1.41
13.078,-1.07
13.093,-1.16
13.109,-1.47
13.125,-1.85
13.140,-2.16
13.156,-2.39
13.171,-2.52
13.187,-2.64
13.203,-2.86
13.218,-3.21
13.234,-3.68
13.250,-4.18
13.265,-4.58
13.281,-4.8
13.296,-4.92
13.312,-5.02
13.328,-5.27
13.343,-5.8
13.359,-6.64
13.375,-7.87
13.390,-9.46
13.406,-11.38
13.421,-13.54
13.437,-15.8
13.453,-17.92
13.468,-19.69
13.484,-20.92
13.500,-21.4
13.515,-21.25
13.531,-20.65
13.546,-19.92
13.562,-19.39
13.578,-19.24
13.593,-19.67
13.609,-20.74
13.625,-22.57
13.640,-24.96
13.656,-27.66
13.671,-30.12
13.687,-31.6
13.703,-31.25
13.718,-28.49
13.734,-23.24
13.750,-15.92
13.765,-7.43
13.781,1.27
13.796,9.17
13.812,15.53
13.828,20.04
13.843,22.84
13.859,24.35
13.875,25.0
13.890,25.18
13.906,25.05
13.921,24.6
13.937,23.79
13.953,22.58
13.968,21.12
13.984,19.59
14.000,18.25
14.015,17.13
14.031,16.24
14.046,15.49
14.062,14.82
14.078,14.34
14.093,14.13
14.109,14.32
14.125,14.78
14.140,15.26
14.156,15.47
14.171,15.23
14.187,14.47
14.203,13.28
14.218,11.91
14.234,10.44
14.250,8.91
14.265,7.1
14.281,4.84
14.296,2.06
14.312,-1.14
14.328,-4.56
14.343,-8.02
14.359,-11.26
14.375,-14.11
14.390,-16.45
14.406,-18.31
14.421,-19.79
14.437,-21.1
14.453,-22.42
14.468,-23.82
14.484,-25.23
14.500,-26.24
14.515,-26.29
14.531,-24.78
14.546,-21.31
14.562,-15.86
14.578,-8.83
14.593,-0.93
14.609,6.99
14.625,14.21
14.640,20.26
14.656,24.91
14.671,28.14
14.687,30.11
14.703,30.98
14.718,30.94
14.734,30.15
14.750,28.81
14.765,27.11
14.781,25.32
14.796,23.51
14.812,21.74
14.828,20.06
14.843,18.59
14.859,17.5
14.875,16.96
14.890,17.13
14.906,17.79
14.921,18.69
14.937,19.31
14.953,19.22
14.968,18.2
14.984,16.28
15.000,13.68
15.015,10.68
15.031,7.59
15.046,4.49
15.062,1.46
15.078,-1.5
15.093,-4.4
15.109,-7.16
15.125,-9.75
15.140,-12.11
15.156,-14.23
15.171,-16.08
15.187,-17.68
15.203,-19.03
15.218,-20.14
15.234,-21.08
15.250,-21.87
15.265,-22.68
15.281,-23.68
15.296,-24.92
15.312,-26.31
15.328,-27.53
15.343,-27.98
15.359,-26.98
15.375,-23.98
15.390,-18.68
15.406,-11.36
15.421,-2.76
15.437,6.12
15.453,14.36
15.468,21.27
15.484,26.59
15.500,30.3
15.515,32.46
15.531,33.23
15.546,32.65
15.562,30.89
15.578,28.22
15.593,25.11
15.609,21.95
15.625,19.12
15.640,16.71
15.656,14.67
15.671,12.91
15.687,11.29
15.703,9.84
15.718,8.64
15.734,7.76
15.750,7.06
15.765,6.38
15.781,5.49
15.796,4.16
15.812,2.48
15.828,0.6
15.843,-1.27
15.859,-3.04
15.875,-4.74
15.890,-6.51
15.906,-8.46
15.921,-10.49
15.937,-12.49
15.953,-14.18
15.968,-15.37
15.984,-16.09
16.000,-16.46
16.015,-16.79
16.031,-17.36
16.046,-18.4
16.062,-19.99
16.078,-22.1
16.093,-24.29
16.109,-26.03
16.125,-26.62
16.140,-25.41
16.156,-22.18
16.171,-17.02
16.187,-10.41
16.203,-3.03
16.218,4.27
16.234,10.89
16.250,16.34
16.265,20.27
16.281,22.72
16.296,23.73
16.312,23.61
16.328,22.67
16.343,21.29
16.359,19.66
16.375,17.9
16.390,16.03
16.406,13.99
16.421,11.86
16.437,9.73
16.453,7.78
16.468,6.12
16.484,4.88
16.500,4.12
16.515,3.77
16.531,3.82
16.546,4.11
16.562,4.51
16.578,4.75
16.593,4.69
16.609,4.13
16.625,2.98
16.640,1.29
16.656,-0.85
16.671,-3.31
16.687,-5.97
16.703,-8.67
16.718,-11.42
16.734,-14.12
16.750,-16.8
16.765,-19.48
16.781,-22.18
16.796,-24.86
16.812,-27.37
16.828,-29.47
16.843,-30.88
16.859,-31.31
16.875,-30.54
16.890,-28.51
16.906,-25.28
16.921,-21.02
16.937,-15.92
16.953,-10.15
16.968,-4.05
16.984,1.89
17.000,7.21
17.015,11.43
17.031,14.31
17.046,15.86
17.062,16.4
17.078,16.27
17.093,15.81
17.109,15.12
17.125,14.1
17.140,12.69
17.156,10.93
17.171,8.98
17.187,7.15
17.203,5.81
17.218,5.1
17.234,5.1
17.250,5.66
17.265,6.56
17.281,7.55
17.296,8.5
17.312,9.32
17.328,10.08
17.343,10.79
17.359,11.46
17.375,12.05
17.390,12.44
17.406,12.5
17.421,11.98
17.437,10.8
17.453,8.87
17.468,6.35
17.484,3.34
17.500,0.06
17.515,-3.23
17.531,-6.42
17.546,-9.32
17.562,-12.01
17.578,-14.44
17.593,-16.7
17.609,-18.84
17.625,-20.94
17.640,-23.05
17.656,-24.99
17.671,-26.49
17.687,-27.11
17.703,-26.36
17.718,-23.89
17.734,-19.68
17.750,-14.05
17.765,-7.62
17.781,-1.18
17.796,4.58
17.812,9.28
17.828,12.72
17.843,15.05
17.859,16.55
17.875,17.49
17.890,18.09
17.906,18.69
17.921,19.34
17.937,20.2
17.953,21.25
17.968,22.37
17.984,23.33
18.000,23.91
18.015,23.99
18.031,23.55
18.046,22.83
18.062,22.02
18.078,21.31
18.093,20.71
18.109,20.18
18.125,19.54
18.140,18.72
18.156,17.71
18.171,16.61
18.187,15.48
18.203,14.35
18.218,13.23
18.234,12.04
18.250,10.63
18.265,8.91
18.281,6.77
18.296,4.04
18.312,0.8
18.328,-2.82
18.343,-6.62
18.359,-10.2
18.375,-13.33
18.390,-15.94
18.406,-18.2
18.421,-20.41
18.437,-22.9
18.453,-25.74
18.468,-28.7
18.484,-31.31
18.500,-32.96
18.515,-33.11
18.531,-31.45
18.546,-27.97
18.562,-22.92
18.578,-16.76
18.593,-10.08
18.609,-3.5
18.625,2.37
18.640,7.1
18.656,10.43
18.671,12.4
18.687,13.21
18.703,13.21
18.718,12.7
18.734,11.94
18.750,11.05
18.765,10.02
18.781,8.94
18.796,7.87
18.812,6.94
18.828,6.22
18.843,5.75
18.859,5.47
18.875,5.21
18.890,4.88
18.906,4.41
18.921,3.93
18.937,3.56
18.953,3.43
18.968,3.47
18.984,3.43
19.000,3.07
19.015,2.21
19.031,0.87
19.046,-0.79
19.062,-2.44
19.078,-3.88
19.093,-5.0
19.109,-5.9
19.125,-6.76
19.140,-7.81
19.156,-9.27
19.171,-11.16
19.187,-13.55
19.203,-16.35
19.218,-19.42
19.234,-22.51
19.250,-25.19
19.265,-26.91
19.281,-27.15
19.296,-25.59
19.312,-22.01
19.328,-16.64
19.343,-9.9
19.359,-2.51
19.375,4.65
19.390,10.9
19.406,15.67
19.421,18.76
19.437,20.23
19.453,20.49
19.468,20.0
19.484,19.23
19.500,18.54
19.515,18.11
19.531,18.07
19.546,18.37
19.562,18.86
19.578,19.25
19.593,19.28
19.609,18.65
19.625,17.23
19.640,15.11
19.656,12.48
19.671,9.7
19.687,7.07
19.703,4.97
19.718,3.5
19.734,2.67
19.750,2.29
19.765,2.07
19.781,1.71
19.796,0.95
19.812,-0.36
19.828,-2.34
19.843,-4.88
19.859,-7.85
19.875,-11.06
19.890,-14.42
19.906,-17.91
19.921,-21.49
19.937,-25.21
19.953,-28.91
19.968,-32.45
19.984,-35.49
20.000,-37.67
20.015,-38.54
20.031,-37.76
20.046,-35.14
20.062,-30.62
20.078,-24.55
20.093,-17.4
20.109,-9.91
20.125,-2.82
20.140,3.2
20.156,7.8
20.171,10.97
20.187,12.89
20.203,13.96
20.218,14.51
20.234,14.79
20.250,14.9
20.265,14.89
20.281,14.85
20.296,14.87
20.312,15.2
20.328,15.88
20.343,16.9
20.359,18.17
20.375,19.45
20.390,20.62
20.406,21.53
20.421,22.24
20.437,22.74
20.453,23.05
20.468,23.14
20.484,22.85
20.500,22.04
20.515,20.62
20.531,18.62
20.546,16.19
20.562,13.59
20.578,10.99
20.593,8.41
20.609,5.75
20.625,2.81
20.640,-0.52
20.656,-4.23
20.671,-8.08
20.687,-11.87
20.703,-15.43
20.718,-18.86
20.734,-22.34
20.750,-26.0
20.765,-29.75
20.781,-33.17
20.796,-35.69
20.812,-36.57
20.828,-35.36
20.843,-31.98
20.859,-26.71
20.875,-20.18
20.890,-13.1
20.906,-6.13
20.921,0.23
20.937,5.61
20.953,9.84
20.968,12.94
20.984,15.01
21.000,16.17
21.015,16.66
21.031,16.7
21.046,16.43
21.062,16.06
21.078,15.78
21.093,15.77
21.109,16.23
21.125,17.28
21.140,18.83
21.156,20.73
21.171,22.66
21.187,24.23
21.203,25.13
21.218,25.1
21.234,24.0
21.250,21.77
21.265,18.39
21.281,14.09
21.296,9.35
21.312,4.74
21.328,0.79
21.343,-2.24
21.359,-4.43
21.375,-6.2
21.390,-8.02
21.406,-10.45
21.421,-13.7
21.437,-17.76
21.453,-22.35
21.468,-27.11
21.484,-31.58
21.500,-35.48
21.515,-38.71
21.531,-41.16
21.546,-42.94
21.562,-43.99
21.578,-44.2
21.593,-43.26
21.609,-40.87
21.625,-36.82
21.640,-31.17
21.656,-24.39
21.671,-17.08
21.687,-9.96
21.703,-3.58
21.718,1.63
21.734,5.54
21.750,8.22
21.765,9.92
21.781,10.85
21.796,11.18
21.812,11.0
21.828,10.43
21.843,9.68
21.859,8.93
21.875,8.37
21.890,8.14
21.906,8.3
21.921,8.81
21.937,9.57
21.953,10.48
21.968,11.52
21.984,12.63
22.000,13.76
22.015,14.8
22.031,15.62
22.046,16.07
22.062,16.17
22.078,15.94
22.093,15.46
22.109,14.87
22.125,14.14
22.140,13.4
22.156,12.7
22.171,12.15
22.187,11.79
22.203,11.71
22.218,11.83
22.234,11.93
22.250,11.78
22.265,11.06
22.281,9.7
22.296,7.68
22.312,5.2
22.328,2.38
22.343,-0.53
22.359,-3.29
22.375,-5.64
22.390,-7.23
22.406,-7.78
22.421,-7.04
22.437,-4.98
22.453,-1.78
22.468,2.18
22.484,6.47
22.500,10.54
22.515,13.93
22.531,16.39
22.546,17.71
22.562,17.99
22.578,17.36
22.593,16.03
22.609,14.2
22.625,11.96
22.640,9.36
22.656,6.4
22.671,3.17
22.687,-0.17
22.703,-3.43
22.718,-6.42
22.734,-9.0
22.750,-11.13
22.765,-12.97
22.781,-14.58
22.796,-16.13
22.812,-17.72
22.828,-19.4
22.843,-21.34
22.859,-23.6
22.875,-26.23
22.890,-29.09
22.906,-32.04
22.921,-34.74
22.937,-36.93
22.953,-38.29
22.968,-38.68
22.984,-38.17
23.000,-36.96
23.015,-35.43
23.031,-33.95
23.046,-32.9
23.062,-32.44
23.078,-32.7
23.093,-33.58
23.109,-34.88
23.125,-36.22
23.140,-37.07
23.156,-36.83
23.171,-35.0
23.187,-31.27
23.203,-25.69
23.218,-18.73
23.234,-11.19
23.250,-3.84
23.265,2.73
23.281,8.19
23.296,12.46
23.312,15.59
23.328,17.72
23.343,19.0
23.359,19.5
23.375,19.28
23.390,18.51
23.406,17.39
23.421,16.22
23.437,15.28
23.453,14.74
23.468,14.73
23.484,15.19
23.500,15.98
23.515,16.88
23.531,17.72
23.546,18.35
23.562,18.71
23.578,18.84
23.593,18.67
23.609,18.18
23.625,17.35
23.640,16.19
23.656,14.76
23.671,13.14
23.687,11.38
23.703,9.52
23.718,7.6
23.734,5.7
23.750,3.89
23.765,2.27
23.781,0.93
23.796,-0.15
23.812,-1.07
23.828,-2.07
23.843,-3.44
23.859,-5.39
23.875,-7.99
23.890,-11.09
23.906,-14.16
23.921,-16.51
23.937,-17.5
23.953,-16.61
23.968,-13.78
23.984,-9.37
24.000,-3.95
24.015,1.74
24.031,7.02
24.046,11.54
24.062,15.07
24.078,17.51
24.093,19.02
24.109,19.74
24.125,19.95
24.140,19.96
24.156,19.98
24.171,20.05
24.187,20.1
24.203,19.99
24.218,19.6
24.234,19.05
24.250,18.44
24.265,17.98
24.281,17.77
24.296,17.84
24.312,18.08
24.328,18.39
24.343,18.62
24.359,18.61
24.375,18.23
24.390,17.31
24.406,15.85
24.421,14.0
24.437,11.96
24.453,10.03
24.468,8.4
24.484,7.1
24.500,6.07
24.515,5.24
24.531,4.46
24.546,3.61
24.562,2.76
24.578,1.9
24.593,1.09
24.609,0.29
24.625,-0.49
24.640,-1.35
24.656,-2.37
24.671,-3.67
24.687,-5.36
24.703,-7.36
24.718,-9.52
24.734,-11.42
24.750,-12.63
24.765,-12.58
24.781,-10.94
24.796,-7.63
24.812,-2.85
24.828,2.96
24.843,9.23
24.859,15.3
24.875,20.62
24.890,24.67
24.906,27.15
24.921,27.95
24.937,27.19
24.953,25.23
24.968,22.51
24.984,19.45
25.000,16.35
25.015,13.38
25.031,10.53
25.046,7.82
25.062,5.24
25.078,2.88
25.093,0.78
25.109,-1.14
25.125,-3.0
25.140,-4.93
25.156,-7.0
25.171,-9.19
25.187,-11.37
25.203,-13.4
25.218,-15.16
25.234,-16.61
25.250,-17.81
25.265,-18.84
25.281,-19.73
25.296,-20.59
25.312,-21.54
25.328,-22.67
25.343,-24.06
25.359,-25.68
25.375,-27.4
25.390,-29.04
25.406,-30.44
25.421,-31.46
25.437,-32.13
25.453,-32.46
25.468,-32.53
25.484,-32.48
25.500,-32.32
25.515,-31.99
25.531,-31.27
25.546,-29.91
25.562,-27.55
25.578,-23.83
25.593,-18.59
25.609,-11.9
25.625,-4.11
25.640,4.07
25.656,11.9
25.671,18.72
25.687,24.01
25.703,27.59
25.718,29.54
25.734,30.16
25.750,29.84
25.765,28.99
25.781,27.89
25.796,26.65
25.812,25.3
25.828,23.82
25.843,22.27
25.859,20.67
25.875,19.1
25.890,17.61
25.906,16.18
25.921,14.78
25.937,13.35
25.953,11.88
25.968,10.47
25.984,9.19
26.000,8.13
26.015,7.33
26.031,6.76
26.046,6.37
26.062,5.99
26.078,5.52
26.093,4.85
26.109,3.85
26.125,2.48
26.140,0.77
26.156,-1.27
26.171,-3.5
26.187,-5.81
26.203,-8.03
26.218,-10.04
26.234,-11.77
26.250,-13.27
26.265,-14.61
26.281,-15.78
26.296,-16.81
26.312,-17.62
26.328,-18.05
26.343,-17.78
26.359,-16.45
26.375,-13.68
26.390,-9.23
26.406,-3.26
26.421,3.81
26.437,11.23
26.453,18.22
26.468,24.19
26.484,28.87
26.500,32.21
26.515,34.38
26.531,35.43
26.546,35.35
26.562,34.13
26.578,31.84
26.593,28.68
26.609,25.06
26.625,21.41
26.640,18.06
26.656,15.25
26.671,13.05
26.687,11.36
26.703,10.08
26.718,9.07
26.734,8.19
26.750,7.38
26.765,6.53
26.781,5.6
26.796,4.68
26.812,3.88
26.828,3.15
26.843,2.39
26.859,1.39
26.875,-0.12
26.890,-2.16
26.906,-4.67
26.921,-7.49
26.937,-10.38
26.953,-13.14
26.968,-15.69
26.984,-17.97
27.000,-20.0
27.015,-21.8
27.031,-23.37
27.046,-24.78
27.062,-26.12
27.078,-27.42
27.093,-28.67
27.109,-29.7
27.125,-30.24
27.140,-29.91
27.156,-28.39
27.171,-25.5
27.187,-21.27
27.203,-16.05
27.218,-10.32
27.234,-4.74
27.250,0.16
27.265,4.01
27.281,6.78
27.296,8.48
27.312,9.37
27.328,9.7
27.343,9.6
27.359,9.34
27.375,8.99
27.390,8.7
27.406,8.55
27.421,8.63
27.437,8.84
27.453,9.12
27.468,9.36
27.484,9.47
27.500,9.45
27.515,9.31
27.531,9.06
27.546,8.69
27.562,8.14
27.578,7.38
27.593,6.38
27.609,5.11
27.625,3.5
27.640,1.52
27.656,-0.76
27.671,-3.24
27.687,-5.77
27.703,-8.25
27.718,-10.54
27.734,-12.6
27.750,-14.47
27.765,-16.18
27.781,-17.75
27.796,-19.17
27.812,-20.49
27.828,-21.7
27.843,-22.86
27.859,-23.88
27.875,-24.48
27.890,-24.35
27.906,-23.19
27.921,-20.83
27.937,-17.31
27.953,-13.08
27.968,-8.6
27.984,-4.38
28.000,-0.74
28.015,2.2
28.031,4.47
28.046,6.15
28.062,7.23
28.078,7.7
28.093,7.52
28.109,6.7
28.125,5.37
28.140,3.7
28.156,1.88
28.171,0.09
28.187,-1.52
28.203,-2.85
28.218,-3.86
28.234,-4.43
28.250,-4.63
28.265,-4.52
28.281,-4.31
28.296,-4.17
28.312,-4.42
28.328,-5.22
28.343,-6.7
28.359,-8.87
28.375,-11.54
28.390,-14.51
28.406,-17.49
28.421,-20.29
28.437,-22.65
28.453,-24.42
28.468,-25.53
28.484,-26.03
28.500,-25.99
28.515,-25.62
28.531,-25.13
28.546,-24.71
28.562,-24.55
28.578,-24.7
28.593,-25.0
28.609,-25.23
28.625,-25.0
28.640,-24.0
28.656,-21.91
28.671,-18.58
28.687,-14.1
28.703,-8.71
28.718,-2.84
28.734,3.18
28.750,8.97
28.765,14.29
28.781,18.92
28.796,22.83
28.812,26.04
28.828,28.6
28.843,30.69
28.859,32.41
28.875,33.9
28.890,35.21
28.906,36.18
28.921,36.59
28.937,36.26
28.953,35.13
28.968,33.29
28.984,30.94
29.000,28.24
29.015,25.34
29.031,22.29
29.046,19.09
29.062,15.84
29.078,12.63
29.093,9.7
29.109,7.2
29.125,5.24
29.140,3.6
29.156,1.97
29.171,0.05
29.187,-2.46
29.203,-5.57
29.218,-9.24
29.234,-13.24
29.250,-17.34
29.265,-21.37
29.281,-25.31
29.296,-29.2
29.312,-33.05
29.328,-36.9
29.343,-40.61
29.359,-44.0
29.375,-46.74
29.390,-48.41
29.406,-48.7
29.421,-47.37
29.437,-44.47
29.453,-40.05
29.468,-34.42
29.484,-27.83
29.500,-20.62
29.515,-13.21
29.531,-6.03
29.546,0.51
29.562,6.11
29.578,10.62
29.593,14.2
29.609,17.03
29.625,19.39
29.640,21.47
29.656,23.29
29.671,24.82
29.687,26.04
29.703,26.9
29.718,27.4
29.734,27.55
29.750,27.26
29.765,26.45
29.781,25.12
29.796,23.24
29.812,20.9
29.828,18.23
29.843,15.26
29.859,11.96
29.875,8.27
29.890,4.24
29.906,-0.1
29.921,-4.51
29.937,-8.86
29.953,-12.91
29.968,-16.41
29.984,-19.13
30.000,-20.9
30.015,-21.76
30.031,-21.89
30.046,-21.67
30.062,-21.39
30.078,-21.38
30.093,-21.79
30.109,-22.63
30.125,-24.02
30.140,-25.87
30.156,-28.06
30.171,-30.32
30.187,-32.05
30.203,-32.48
30.218,-31.0
30.234,-27.22
30.250,-21.01
30.265,-12.85
30.281,-3.4
30.296,6.37
30.312,15.48
30.328,23.12
30.343,28.92
30.359,32.78
30.375,34.86
30.390,35.51
30.406,34.91
30.421,33.22
30.437,30.58
30.453,27.22
30.468,23.43
30.484,19.62
30.500,16.19
30.515,13.4
30.531,11.38
30.546,10.08
30.562,9.45
30.578,9.39
30.593,9.82
30.609,10.6
30.625,11.56
30.640,12.44
30.656,12.96
30.671,12.91
30.687,12.07
30.703,10.41
30.718,8.03
30.734,5.08
30.750,1.82
30.765,-1.44
30.781,-4.42
30.796,-6.97
30.812,-9.0
30.828,-10.59
30.843,-11.85
30.859,-12.85
30.875,-13.71
30.890,-14.51
30.906,-15.29
30.921,-16.11
30.937,-17.08
30.953,-18.2
30.968,-19.44
30.984,-20.61
31.000,-21.39
31.015,-21.41
31.031,-20.38
31.046,-18.18
31.062,-14.88
31.078,-10.72
31.093,-6.08
31.109,-1.26
31.125,3.48
31.140,7.95
31.156,12.0
31.171,15.47
31.187,18.22
31.203,20.16
31.218,21.33
31.234,21.84
31.250,21.83
31.265,21.52
31.281,20.98
31.296,20.31
31.312,19.55
31.328,18.71
31.343,17.88
31.359,17.13
31.375,16.54
31.390,16.01
31.406,15.45
31.421,14.66
31.437,13.56
31.453,12.14
31.468,10.46
31.484,8.59
31.500,6.56
31.515,4.32
31.531,1.82
31.546,-0.92
31.562,-3.79
31.578,-6.52
31.593,-8.88
31.609,-10.75
31.625,-12.08
31.640,-12.98
31.656,-13.65
31.671,-14.27
31.687,-14.93
31.703,-15.7
31.718,-16.54
31.734,-17.36
31.750,-18.16
31.765,-18.69
31.781,-18.69
31.796,-17.82
31.812,-15.75
31.828,-12.34
31.843,-7.66
31.859,-2.06
31.875,4.04
31.890,10.2
31.906,16.09
31.921,21.62
31.937,26.7
31.953,31.34
31.968,35.44
31.984,38.88
32.000,41.41
32.015,42.84
32.031,43.07
32.046,42.08
32.062,40.02
32.078,37.12
32.093,33.59
32.109,29.59
32.125,25.16
32.140,20.34
32.156,15.21
32.171,9.87
32.187,4.59
32.203,-0.36
32.218,-4.74
32.234,-8.39
32.250,-11.37
32.265,-13.88
32.281,-16.12
32.296,-18.16
32.312,-19.99
32.328,-21.52
32.343,-22.73
32.359,-23.69
32.375,-24.61
32.390,-25.62
32.406,-26.89
32.421,-28.31
32.437,-29.72
32.453,-30.88
32.468,-31.68
32.484,-32.01
32.500,-31.75
32.515,-30.86
32.531,-29.14
32.546,-26.57
32.562,-23.15
32.578,-18.98
32.593,-14.25
32.609,-9.23
32.625,-4.26
32.640,0.45
32.656,4.68
32.671,8.32
32.687,11.31
32.703,13.62
32.718,15.31
32.734,16.4
32.750,17.0
32.765,17.17
32.781,16.96
32.796,16.46
32.812,15.79
32.828,15.04
32.843,14.23
32.859,13.41
32.875,12.57
32.890,11.78
32.906,11.17
32.921,10.81
32.937,10.71
32.953,10.84
32.968,11.05
32.984,11.02
33.000,10.57
33.015,9.55
33.031,7.99
33.046,5.98
33.062,3.65
33.078,1.06
33.093,-1.63
33.109,-4.29
33.125,-6.85
33.140,-9.26
33.156,-11.54
33.171,-13.76
33.187,-15.97
33.203,-18.15
33.218,-20.14
33.234,-21.71
33.250,-22.48
33.265,-22.1
33.281,-20.36
33.296,-17.17
33.312,-12.79
33.328,-7.53
33.343,-1.84
33.359,3.79
33.375,8.94
33.390,13.3
33.406,16.76
33.421,19.31
33.437,21.02
33.453,22.02
33.468,22.44
33.484,22.46
33.500,22.18
33.515,21.67
33.531,21.12
33.546,20.63
33.562,20.31
33.578,20.17
33.593,20.13
33.609,19.99
33.625,19.55
33.640,18.62
33.656,17.14
33.671,15.22
33.687,12.96
33.703,10.46
33.718,7.73
33.734,4.77
33.750,1.54
33.765,-1.91
33.781,-5.4
33.796,-8.59
33.812,-11.08
33.828,-12.54
33.843,-12.58
33.859,-11.09
33.875,-8.23
33.890,-4.49
33.906,-0.61
33.921,2.48
33.937,4.02
33.953,3.52
33.968,0.83
33.984,-3.54
34.000,-8.72
34.015,-13.71
34.031,-17.49
34.046,-19.23
34.062,-18.58
34.078,-15.64
34.093,-10.82
34.109,-4.8
34.125,1.8
34.140,8.47
34.156,14.84
34.171,20.57
34.187,25.48
34.203,29.38
34.218,32.2
34.234,33.93
34.250,34.6
34.265,34.32
34.281,33.13
34.296,31.14
34.312,28.5
34.328,25.43
34.343,22.27
34.359,19.37
34.375,17.01
34.390,15.17
34.406,13.79
34.421,12.63
34.437,11.52
34.453,10.36
34.468,9.02
34.484,7.37
34.500,5.3
34.515,2.73
34.531,-0.4
34.546,-3.91
34.562,-7.54
34.578,-10.98
34.593,-14.01
34.609,-16.59
34.625,-18.81
34.640,-20.76
34.656,-22.43
34.671,-23.81
34.687,-24.86
34.703,-25.71
34.718,-26.56
34.734,-27.62
34.750,-29.06
34.765,-30.79
34.781,-32.49
34.796,-33.59
34.812,-33.65
34.828,-32.27
34.843,-29.32
34.859,-25.01
34.875,-19.61
34.890,-13.63
34.906,-7.58
34.921,-1.89
34.937,3.15
34.953,7.31
34.968,10.64
34.984,13.3
35.000,15.45
35.015,17.36
35.031,19.15
35.046,20.82
35.062,22.37
35.078,23.66
35.093,24.59
35.109,25.11
35.125,25.15
35.140,24.63
35.156,23.67
35.171,22.44
35.187,21.15
35.203,20.06
35.218,19.31
35.234,18.87
35.250,18.67
35.265,18.54
35.281,18.17
35.296,17.48
35.312,16.38
35.328,14.87
35.343,12.92
35.359,10.59
35.375,7.84
35.390,4.81
35.406,1.69
35.421,-1.4
35.437,-4.27
35.453,-6.96
35.468,-9.55
35.484,-12.23
35.500,-15.21
35.515,-18.62
35.531,-22.35
35.546,-26.16
35.562,-29.7
35.578,-32.59
35.593,-34.51
35.609,-35.1
35.625,-34.13
35.640,-31.51
35.656,-27.3
35.671,-21.76
35.687,-15.36
35.703,-8.66
35.718,-2.22
35.734,3.42
35.750,8.0
35.765,11.49
35.781,13.97
35.796,15.71
35.812,16.93
35.828,17.75
35.843,18.17
35.859,18.1
35.875,17.46
35.890,16.22
35.906,14.58
35.921,12.78
35.937,11.12
35.953,9.78
35.968,8.8
35.984,8.25
36.000,8.01
36.015,8.08
36.031,8.33
36.046,8.67
36.062,8.94
36.078,8.95
36.093,8.42
36.109,7.26
36.125,5.49
36.140,3.24
36.156,0.77
36.171,-1.68
36.187,-4.01
36.203,-6.18
36.218,-8.21
36.234,-10.24
36.250,-12.29
36.265,-14.3
36.281,-16.29
36.296,-18.24
36.312,-20.07
36.328,-21.76
36.343,-23.19
36.359,-24.15
36.375,-24.5
36.390,-24.03
36.406,-22.63
36.421,-20.32
36.437,-17.18
36.453,-13.42
36.468,-9.34
36.484,-5.25
36.500,-1.49
36.515,1.61
36.531,3.86
36.546,5.18
36.562,5.67
36.578,5.55
36.593,5.04
36.609,4.26
36.625,3.38
36.640,2.42
36.656,1.46
36.671,0.58
36.687,-0.18
36.703,-0.87
36.718,-1.47
36.734,-2.05
36.750,-2.68
36.765,-3.34
36.781,-4.0
36.796,-4.62
36.812,-5.16
36.828,-5.56
36.843,-5.93
36.859,-6.33
36.875,-6.85
36.890,-7.65
36.906,-8.81
36.921,-10.35
36.937,-12.2
36.953,-14.29
36.968,-16.47
36.984,-18.67
37.000,-20.78
37.015,-22.72
37.031,-24.42
37.046,-25.85
37.062,-27.01
37.078,-27.86
37.093,-28.38
37.109,-28.46
37.125,-27.99
37.140,-26.8
37.156,-24.66
37.171,-21.51
37.187,-17.33
37.203,-12.38
37.218,-6.98
37.234,-1.47
37.250,3.86
37.265,8.85
37.281,13.36
37.296,17.38
37.312,20.78
37.328,23.54
37.343,25.51
37.359,26.61
37.375,26.81
37.390,26.19
37.406,25.01
37.421,23.6
37.437,22.36
37.453,21.66
37.468,21.73
37.484,22.44
37.500,23.5
37.515,24.39
37.531,24.75
37.546,24.39
37.562,23.26
37.578,21.46
37.593,19.14
37.609,16.45
37.625,13.43
37.640,10.21
37.656,6.97
37.671,3.99
37.687,1.47
37.703,-0.52
37.718,-2.09
37.734,-3.4
37.750,-4.69
37.765,-6.06
37.781,-7.57
37.796,-9.25
37.812,-11.17
37.828,-13.44
37.843,-16.34
37.859,-19.97
37.875,-24.29
37.890,-29.01
37.906,-33.54
37.921,-37.12
37.937,-39.04
37.953,-38.84
37.968,-36.38
37.984,-31.91
38.000,-25.81
38.015,-18.68
38.031,-11.05
38.046,-3.45
38.062,3.74
38.078,10.12
38.093,15.48
38.109,19.71
38.125,22.79
38.140,24.89
38.156,26.12
38.171,26.73
38.187,26.86
38.203,26.64
38.218,26.04
38.234,25.02
38.250,23.52
38.265,21.43
38.281,18.92
38.296,16.15
38.312,13.44
38.328,11.16
38.343,9.53
38.359,8.56
38.375,8.15
38.390,8.02
38.406,7.86
38.421,7.43
38.437,6.6
38.453,5.22
38.468,3.23
38.484,0.66
38.500,-2.46
38.515,-5.99
38.531,-9.7
38.546,-13.41
38.562,-16.83
38.578,-19.86
38.593,-22.42
38.609,-24.6
38.625,-26.37
38.640,-27.69
38.656,-28.4
38.671,-28.24
38.687,-27.02
38.703,-24.56
38.718,-20.88
38.734,-16.2
38.750,-10.87
38.765,-5.29
38.781,0.1
38.796,4.98
38.812,9.06
38.828,12.1
38.843,14.06
38.859,15.03
38.875,15.18
38.890,14.74
38.906,13.9
38.921,12.82
38.937,11.65
38.953,10.61
38.968,9.82
38.984,9.38
39.000,9.33
39.015,9.54
39.031,9.88
39.046,10.05
39.062,9.82
39.078,9.03
39.093,7.75
39.109,6.0
39.125,3.96
39.140,1.82
39.156,-0.39
39.171,-2.62
39.187,-4.9
39.203,-7.23
39.218,-9.57
39.234,-11.74
39.250,-13.68
39.265,-15.39
39.281,-16.99
39.296,-18.69
39.312,-20.66
39.328,-22.94
39.343,-25.45
39.359,-27.95
39.375,-30.17
39.390,-31.79
39.406,-32.49
39.421,-32.03
39.437,-30.21
39.453,-26.9
39.468,-22.19
39.484,-16.34
39.500,-9.77
39.515,-3.06
39.531,3.24
39.546,8.72
39.562,13.12
39.578,16.38
39.593,18.62
39.609,19.97
39.625,20.57
39.640,20.6
39.656,20.17
39.671,19.43
39.687,18.5
39.703,17.53
39.718,16.6
39.734,15.84
39.750,15.25
39.765,14.81
39.781,14.55
39.796,14.47
39.812,14.53
39.828,14.68
39.843,14.78
39.859,14.7
39.875,14.32
39.890,13.57
39.906,12.4
39.921,10.8
39.937,8.74
39.953,6.27
39.968,3.48
39.984,0.44
40.000,-2.66
40.015,-5.64
40.031,-8.33
40.046,-10.7
40.062,-12.8
40.078,-14.83
40.093,-16.91
40.109,-18.96
40.125,-20.89
40.140,-22.25
40.156,-22.64
40.171,-21.65
40.187,-19.05
40.203,-14.82
40.218,-9.24
40.234,-2.79
40.250,4.06
40.265,10.66
40.281,16.53
40.296,21.22
40.312,24.6
40.328,26.62
40.343,27.47
40.359,27.36
40.375,26.47
40.390,25.06
40.406,23.24
40.421,21.23
40.437,19.1
40.453,17.05
40.468,15.17
40.484,13.5
40.500,12.01
40.515,10.62
40.531,9.29
40.546,7.91
40.562,6.53
40.578,5.16
40.593,3.75
40.609,2.3
40.625,0.71
40.640,-1.08
40.656,-3.14
40.671,-5.38
40.687,-7.75
40.703,-10.08
40.718,-12.22
40.734,-14.19
40.750,-15.99
40.765,-17.75
40.781,-19.51
40.796,-21.39
40.812,-23.3
40.828,-25.31
40.843,-27.32
40.859,-29.17
40.875,-30.6
40.890,-31.16
40.906,-30.36
40.921,-27.87
40.937,-23.66
40.953,-17.92
40.968,-11.21
40.984,-4.16
41.000,2.67
41.015,8.78
41.031,13.87
41.046,17.85
41.062,20.66
41.078,22.34
41.093,22.99
41.109,22.8
41.125,21.94
41.140,20.74
41.156,19.39
41.171,17.98
41.187,16.56
41.203,15.06
41.218,13.47
41.234,11.87
41.250,10.38
41.265,9.07
41.281,7.95
41.296,6.86
41.312,5.6
41.328,4.01
41.343,2.07
41.359,-0.13
41.375,-2.35
41.390,-4.54
41.406,-6.67
41.421,-8.74
41.437,-10.88
41.453,-12.98
41.468,-14.95
41.484,-16.63
41.500,-17.9
41.515,-18.7
41.531,-19.2
41.546,-19.62
41.562,-20.12
41.578,-20.93
41.593,-22.04
41.609,-23.27
41.625,-24.34
41.640,-24.77
41.656,-24.02
41.671,-21.68
41.687,-17.64
41.703,-12.08
41.718,-5.56
41.734,1.21
41.750,7.66
41.765,13.25
41.781,17.68
41.796,20.87
41.812,22.86
41.828,23.75
41.843,23.68
41.859,22.77
41.875,21.21
41.890,19.15
41.906,16.79
41.921,14.26
41.937,11.77
41.953,9.42
41.968,7.38
41.984,5.76
42.000,4.66
42.015,4.15
42.031,4.18
42.046,4.57
42.062,5.19
42.078,5.8
42.093,6.13
42.109,6.03
42.125,5.36
42.140,4.06
42.156,2.09
42.171,-0.5
42.187,-3.6
42.203,-6.97
42.218,-10.36
42.234,-13.59
42.250,-16.49
42.265,-18.94
42.281,-20.87
42.296,-22.28
42.312,-23.3
42.328,-24.06
42.343,-24.75
42.359,-25.45
42.375,-26.19
42.390,-26.77
42.406,-26.73
42.421,-25.61
42.437,-22.97
42.453,-18.66
42.468,-12.82
42.484,-5.99
42.500,1.16
42.515,7.93
42.531,13.81
42.546,18.52
42.562,22.05
42.578,24.54
42.593,26.06
42.609,26.81
42.625,26.82
42.640,26.21
42.656,25.12
42.671,23.78
42.687,22.28
42.703,20.74
42.718,19.25
42.734,17.79
42.750,16.4
42.765,15.09
42.781,13.95
42.796,13.06
42.812,12.53
42.828,12.25
42.843,12.12
42.859,12.0
42.875,11.73
42.890,11.18
42.906,10.25
42.921,8.95
42.937,7.3
42.953,5.44
42.968,3.42
42.984,1.22
43.000,-1.02
43.015,-3.38
43.031,-5.83
43.046,-8.37
43.062,-11.02
43.078,-13.69
43.093,-16.27
43.109,-18.65
43.125,-20.77
43.140,-22.38
43.156,-23.26
43.171,-23.01
43.187,-21.24
43.203,-17.82
43.218,-12.79
43.234,-6.43
43.250,0.7
43.265,7.94
43.281,14.63
43.296,20.16
43.312,24.22
43.328,26.66
43.343,27.49
43.359,26.95
43.375,25.3
43.390,22.82
43.406,19.81
43.421,16.51
43.437,12.99
43.453,9.43
43.468,5.96
43.484,2.73
43.500,0.03
43.515,-1.87
43.531,-2.79
43.546,-2.59
43.562,-1.39
43.578,0.44
43.593,2.61
43.609,4.86
43.625,6.91
43.640,8.65
43.656,9.97
43.671,10.54
43.687,10.22
43.703,8.87
43.718,6.57
43.734,3.64
43.750,0.49
43.765,-2.59
43.781,-5.43
43.796,-8.06
43.812,-10.6
43.828,-13.16
43.843,-15.65
43.859,-17.96
43.875,-19.99
43.890,-21.67
43.906,-22.94
43.921,-23.53
43.937,-23.08
43.953,-21.06
43.968,-16.99
43.984,-10.64
44.000,-2.25
44.015,7.54
44.031,17.74
44.046,27.4
44.062,35.74
44.078,42.34
44.093,47.11
44.109,50.26
44.125,52.08
44.140,52.82
44.156,52.78
44.171,52.17
44.187,51.23
44.203,50.07
44.218,48.83
44.234,47.42
44.250,45.72
44.265,43.52
44.281,40.6
44.296,36.87
44.312,32.37
44.328,27.2
44.343,21.39
44.359,15.04
44.375,8.25
44.390,1.23
44.406,-5.6
44.421,-11.7
44.437,-16.54
44.453,-19.7
44.468,-20.96
44.484,-20.33
44.500,-18.04
44.515,-14.42
44.531,-9.99
44.546,-5.32
44.562,-1.03
44.578,2.46
44.593,4.82
44.609,5.93
44.625,5.81
44.640,4.44
44.656,1.91
44.671,-1.65
44.687,-6.0
44.703,-10.86
44.718,-15.84
44.734,-20.57
44.750,-24.79
44.765,-28.22
44.781,-30.64
44.796,-31.83
44.812,-31.52
44.828,-29.62
44.843,-26.2
44.859,-21.52
44.875,-15.88
44.890,-9.71
44.906,-3.22
44.921,3.57
44.937,10.75
44.953,18.53
44.968,27.02
44.984,36.2
45.000,45.97
45.015,56.17
45.031,66.42
45.046,76.22
45.062,84.8
45.078,91.2
45.093,94.43
45.109,93.52
45.125,88.06
45.140,78.24
45.156,64.92
45.171,49.45
45.187,33.17
45.203,17.22
45.218,2.35
45.234,-10.94
45.250,-22.28
45.265,-31.12
45.281,-36.88
45.296,-39.2
45.312,-38.03
45.328,-33.92
45.343,-27.86
45.359,-21.12
45.375,-14.75
45.390,-9.58
45.406,-6.0
45.421,-4.01
45.437,-3.58
45.453,-4.38
45.468,-6.06
45.484,-8.21
45.500,-10.46
45.515,-12.22
45.531,-12.99
45.546,-12.41
45.562,-10.31
45.578,-7.01
45.593,-3.22
45.609,-0.07
45.625,1.18
45.640,-0.69
45.656,-6.57
45.671,-16.76
45.687,-31.13
45.703,-49.0
45.718,-69.24
45.734,-90.35
45.750,-110.69
45.765,-128.63
45.781,-142.78
45.796,-152.45
45.812,-157.33
45.828,-157.54
45.843,-153.36
45.859,-145.09
45.875,-133.22
45.890,-118.54
45.906,-102.21
45.921,-85.61
45.937,-70.24
45.953,-57.19
45.968,-46.91
45.984,-39.33
46.000,-34.0
46.015,-30.38
46.031,-28.05
46.046,-26.78
46.062,-26.36
46.078,-26.57
46.093,-26.96
46.109,-27.1
46.125,-26.72
46.140,-25.82
46.156,-24.72
46.171,-23.87
46.187,-23.5
46.203,-23.48
46.218,-23.36
46.234,-22.35
46.250,-19.85
46.265,-15.71
46.281,-10.15
46.296,-3.82
46.312,2.53
46.328,8.31
46.343,13.23
46.359,17.35
46.375,20.92
46.390,24.24
46.406,27.56
46.421,30.98
46.437,34.39
46.453,37.51
46.468,40.1
46.484,41.91
46.500,42.91
46.515,43.12
46.531,42.61
46.546,41.37
46.562,39.45
46.578,36.91
46.593,33.85
46.609,30.53
46.625,27.14
46.640,23.87
46.656,20.78
46.671,17.91
46.687,15.12
46.703,12.47
46.718,9.94
46.734,7.47
46.750,5.04
46.765,2.62
46.781,0.22
46.796,-2.13
46.812,-4.3
46.828,-6.36
46.843,-8.31
46.859,-10.17
46.875,-11.91
46.890,-13.44
46.906,-14.6
46.921,-15.19
46.937,-15.13
46.953,-14.2
46.968,-12.33
46.984,-9.44
47.000,-5.46
47.015,-0.49
47.031,5.26
47.046,11.28
47.062,16.95
47.078,21.72
47.093,25.22
47.109,27.29
47.125,27.88
47.140,27.05
47.156,24.85
47.171,21.52
47.187,17.39
47.203,12.93
47.218,8.77
47.234,5.49
47.250,3.59
47.265,3.37
47.281,4.93
47.296,8.14
47.312,12.86
47.328,18.88
47.343,25.92
47.359,33.66
47.375,41.51
47.390,48.69
47.406,54.24
47.421,57.27
47.437,57.02
47.453,53.19
47.468,46.04
47.484,36.25
47.500,24.89
47.515,13.05
47.531,1.72
47.546,-8.32
47.562,-16.52
47.578,-22.72
47.593,-26.93
47.609,-29.41
47.625,-30.47
47.640,-30.36
47.656,-29.21
47.671,-26.91
47.687,-23.17
47.703,-17.73
47.718,-10.61
47.734,-2.08
47.750,7.3
47.765,16.81
47.781,25.77
47.796,33.69
47.812,40.17
47.828,45.0
47.843,48.02
47.859,49.17
47.875,48.41
47.890,45.8
47.906,41.36
47.921,35.24
47.937,27.77
47.953,19.47
47.968,11.05
47.984,3.27
48.000,-3.08
48.015,-7.49
48.031,-9.77
48.046,-10.14
48.062,-8.99
48.078,-6.89
48.093,-4.5
48.109,-2.4
48.125,-1.16
48.140,-1.13
48.156,-2.59
48.171,-5.55
48.187,-9.81
48.203,-14.96
48.218,-20.46
48.234,-25.93
48.250,-31.09
48.265,-35.83
48.281,-40.23
48.296,-44.35
48.312,-48.17
48.328,-51.58
48.343,-54.41
48.359,-56.35
48.375,-57.19
48.390,-56.73
48.406,-54.79
48.421,-51.28
48.437,-46.2
48.453,-39.62
48.468,-31.82
48.484,-23.4
48.500,-14.99
48.515,-7.29
48.531,-0.75
48.546,4.41
48.562,8.3
48.578,11.19
48.593,13.43
48.609,15.26
48.625,16.67
48.640,17.7
48.656,18.28
48.671,18.42
48.687,18.22
48.703,17.7
48.718,16.98
48.734,16.1
48.750,15.05
48.765,13.79
48.781,12.36
48.796,10.82
48.812,9.21
48.828,7.71
48.843,6.37
48.859,5.27
48.875,4.37
48.890,3.59
48.906,2.78
48.921,1.91
48.937,0.89
48.953,-0.33
48.968,-1.69
48.984,-3.26
49.000,-5.11
49.015,-7.36
49.031,-10.07
49.046,-13.29
49.062,-16.85
49.078,-20.5
49.093,-23.82
49.109,-26.19
49.125,-27.06
49.140,-25.88
49.156,-22.4
49.171,-16.68
49.187,-9.18
49.203,-0.61
49.218,8.19
49.234,16.5
49.250,23.83
49.265,29.96
49.281,34.84
49.296,38.57
49.312,41.2
49.328,42.84
49.343,43.61
49.359,43.62
49.375,43.01
49.390,41.87
49.406,40.29
49.421,38.33
49.437,36.09
49.453,33.64
49.468,31.11
49.484,28.67
49.500,26.49
49.515,24.64
49.531,23.15
49.546,21.96
49.562,20.91
49.578,19.86
49.593,18.57
49.609,16.84
49.625,14.49
49.640,11.5
49.656,7.85
49.671,3.72
49.687,-0.64
49.703,-5.08
49.718,-9.37
49.734,-13.49
49.750,-17.48
49.765,-21.45
49.781,-25.55
49.796,-29.88
49.812,-34.38
49.828,-38.77
49.843,-42.55
49.859,-44.98
49.875,-45.38
49.890,-43.35
49.906,-38.84
49.921,-32.35
49.937,-24.56
49.953,-16.24
49.968,-7.99
49.984,-0.31
50.000,6.59
50.015,12.46
50.031,17.17
50.046,20.63
50.062,22.83
50.078,23.95
50.093,24.21
50.109,23.92
50.125,23.23
50.140,22.28
50.156,21.1
50.171,19.74
50.187,18.34
50.203,17.04
50.218,16.03
50.234,15.28
50.250,14.72
50.265,14.1
50.281,13.21
50.296,11.98
50.312,10.4
50.328,8.62
50.343,6.69
50.359,4.63
50.375,2.32
50.390,-0.24
50.406,-2.97
50.421,-5.65
50.437,-8.12
50.453,-10.27
50.468,-12.2
50.484,-14.19
50.500,-16.52
50.515,-19.43
50.531,-22.94
50.546,-26.82
50.562,-30.58
50.578,-33.64
50.593,-35.44
50.609,-35.57
50.625,-33.9
50.640,-30.53
50.656,-25.96
50.671,-20.79
50.687,-15.62
50.703,-10.86
50.718,-6.8
50.734,-3.5
50.750,-1.05
50.765,0.74
50.781,2.09
50.796,3.43
50.812,5.25
50.828,8.19
50.843,12.83
50.859,19.45
50.875,28.0
50.890,37.98
50.906,48.74
50.921,59.62
50.937,69.97
50.953,79.38
50.968,87.87
50.984,95.76
51.000,103.47
51.015,111.31
51.031,119.29
51.046,127.21
51.062,134.75
51.078,141.01
51.093,144.97
51.109,145.98
51.125,143.92
51.140,139.22
51.156,132.69
51.171,124.9
51.187,116.19
51.203,106.75
51.218,95.27
51.234,80.35
51.250,61.21
51.265,38.53
51.281,14.41
51.296,-8.3
51.312,-27.26
51.328,-41.36
51.343,-51.05
51.359,-60.55
51.375,-74.95
51.390,-98.12
51.406,-130.36
51.421,-167.76
51.437,-203.7
51.453,-231.71
51.468,-247.9
51.484,-252.27
51.500,-251.63
51.515,-255.35
51.531,-272.11
51.546,-306.98
51.562,-360.65
51.578,-430.77
51.593,-514.01
51.609,-606.77
51.625,-684.43
51.640,-722.31
51.656,-701.55
51.671,-619.09
51.687,-489.64
51.703,-337.13
51.718,-183.92
51.734,-45.19
51.750,71.64
51.765,165.24
51.781,234.77
51.796,280.39
51.812,303.59
51.828,308.14
51.843,299.93
51.859,285.69
51.875,271.35
51.890,260.82
51.906,256.64
51.921,257.48
51.937,260.3
51.953,262.25
51.968,262.36
51.984,261.93
52.000,263.1
52.015,267.58
52.031,275.43
52.046,285.7
52.062,296.42
52.078,302.97
52.093,301.14
52.109,288.83
52.125,266.28
52.140,235.34
52.156,198.72
52.171,159.14
52.187,119.19
52.203,80.6
52.218,44.42
52.234,11.66
52.250,-16.3
52.265,-37.68
52.281,-51.06
52.296,-55.53
52.312,-51.03
52.328,-38.48
52.343,-19.62
52.359,2.9
52.375,26.65
52.390,49.32
52.406,69.24
52.421,85.33
52.437,97.07
52.453,104.31
52.468,107.03
52.484,105.25
52.500,101.03
52.515,96.05
52.531,91.9
52.546,89.93
52.562,91.18
52.578,96.42
52.593,105.81
52.609,118.93
52.625,135.11
52.640,153.29
52.656,171.99
52.671,189.78
52.687,205.41
52.703,217.96
52.718,226.82
52.734,231.71
52.750,232.49
52.765,229.57
52.781,223.53
52.796,214.74
52.812,203.62
52.828,190.62
52.843,176.38
52.859,161.54
52.875,146.66
52.890,132.16
52.906,118.58
52.921,106.52
52.937,96.15
52.953,87.42
52.968,80.07
52.984,73.72
53.000,67.84
53.015,61.52
53.031,53.64
53.046,42.62
53.062,27.31
53.078,6.89
53.093,-19.14
53.109,-51.01
53.125,-87.92
53.140,-128.02
53.156,-168.57
53.171,-206.59
53.187,-239.66
53.203,-265.38
53.218,-281.91
53.234,-287.94
53.250,-283.3
53.265,-268.71
53.281,-245.39
53.296,-215.51
53.312,-181.93
53.328,-148.42
53.343,-118.71
53.359,-96.7
53.375,-85.37
53.390,-86.09
53.406,-98.33
53.421,-119.44
53.437,-145.84
53.453,-173.57
53.468,-199.42
53.484,-220.86
53.500,-237.1
53.515,-248.59
53.531,-255.98
53.546,-260.17
53.562,-262.26
53.578,-263.25
53.593,-264.04
53.609,-266.04
53.625,-270.72
53.640,-279.76
53.656,-294.24
53.671,-314.12
53.687,-338.76
53.703,-366.79
53.718,-395.41
53.734,-419.3
53.750,-431.11
53.765,-423.35
53.781,-391.48
53.796,-336.5
53.812,-264.9
53.828,-187.53
53.843,-115.79
53.859,-58.26
53.875,-19.3
53.890,1.53
53.906,7.34
53.921,1.85
53.937,-12.47
53.953,-33.5
53.968,-59.6
53.984,-88.26
54.000,-116.48
54.015,-142.33
54.031,-164.16
54.046,-181.79
54.062,-197.23
54.078,-214.07
54.093,-235.87
54.109,-265.2
54.125,-302.54
54.140,-346.71
54.156,-395.95
54.171,-446.18
54.187,-492.3
54.203,-530.02
54.218,-556.39
54.234,-568.94
54.250,-565.09
54.265,-541.65
54.281,-495.47
54.296,-425.3
54.312,-329.36
54.328,-206.95
54.343,-61.06
54.359,101.31
54.375,271.18
54.390,439.15
54.406,597.01
54.421,742.1
54.437,856.06
54.453,919.7
54.468,926.73
54.484,886.43
54.500,815.47
54.515,729.63
54.531,640.19
54.546,554.29
54.562,475.84
54.578,405.94
54.593,346.83
54.609,300.68
54.625,267.18
54.640,243.38
54.656,225.38
54.671,209.52
54.687,193.27
54.703,175.36
54.718,155.05
54.734,134.1
54.750,115.04
54.765,98.72
54.781,83.7
54.796,67.57
54.812,47.95
54.828,23.42
54.843,-5.92
54.859,-38.91
54.875,-72.41
54.890,-102.59
54.906,-126.75
54.921,-145.43
54.937,-158.55
54.953,-166.42
54.968,-169.03
54.984,-165.93
55.000,-156.55
55.015,-140.41
55.031,-117.9
55.046,-91.17
55.062,-64.02
55.078,-40.84
55.093,-25.5
55.109,-19.65
55.125,-22.53
55.140,-31.56
55.156,-43.79
55.171,-57.27
55.187,-72.0
55.203,-89.89
55.218,-113.89
55.234,-146.23
55.250,-186.4
55.265,-231.47
55.281,-276.46
55.296,-315.79
55.312,-344.26
55.328,-357.59
55.343,-352.89
55.359,-329.64
55.375,-289.6
55.390,-239.88
55.406,-191.62
55.421,-151.25
55.437,-118.68
55.453,-87.03
55.468,-44.66
55.484,20.27
55.500,115.17
55.515,232.34
55.531,357.68
55.546,473.91
55.562,566.15
55.578,625.14
55.593,648.62
55.609,639.94
55.625,605.2
55.640,550.75
55.656,482.48
55.671,407.26
55.687,332.7
55.703,267.1
55.718,216.27
55.734,181.72
55.750,160.53
55.765,146.43
55.781,131.36
55.796,108.33
55.812,74.11
55.828,29.48
55.843,-20.62
55.859,-70.07
55.875,-113.83
55.890,-149.35
55.906,-176.4
55.921,-196.46
55.937,-211.38
55.953,-222.01
55.968,-227.99
55.984,-227.02
56.000,-216.82
56.015,-196.45
56.031,-167.81
56.046,-135.03
56.062,-102.94
56.078,-75.18
56.093,-53.07
56.109,-35.98
56.125,-19.8
56.140,-0.64
56.156,23.45
56.171,50.57
56.187,75.25
56.203,90.88
56.218,92.88
56.234,80.0
56.250,54.06
56.265,22.56
56.281,-6.11
56.296,-24.58
56.312,-29.66
56.328,-22.63
56.343,-7.61
56.359,11.11
56.375,30.41
56.390,49.53
56.406,76.1
56.421,121.77
56.437,200.09
56.453,320.5
56.468,484.3
56.484,683.87
56.500,904.34
56.515,1126.65
56.531,1299.54
56.546,1377.61
56.562,1334.13
56.578,1175.28
56.593,934.84
56.609,655.59
56.625,372.81
56.640,108.4
56.656,-126.58
56.671,-327.05
56.687,-482.17
56.703,-592.27
56.718,-659.23
56.734,-688.62
56.750,-689.9
56.765,-673.83
56.781,-648.91
56.796,-619.87
56.812,-587.82
56.828,-547.86
56.843,-493.59
56.859,-421.99
56.875,-336.63
56.890,-247.68
56.906,-168.11
56.921,-109.09
56.937,-76.64
56.953,-70.52
56.968,-82.92
56.984,-103.61
57.000,-122.74
57.015,-134.54
57.031,-138.37
57.046,-136.62
57.062,-131.87
57.078,-125.34
57.093,-116.72
57.109,-104.15
57.125,-86.46
57.140,-63.41
57.156,-36.16
57.171,-6.66
57.187,23.3
57.203,52.73
57.218,81.14
57.234,107.61
57.250,130.57
57.265,147.53
57.281,155.89
57.296,153.79
57.312,140.62
57.328,117.55
57.343,87.26
57.359,53.23
57.375,19.04
57.390,-12.58
57.406,-39.78
57.421,-61.65
57.437,-77.85
57.453,-88.63
57.468,-94.33
57.484,-95.46
57.500,-92.85
57.515,-87.42
57.531,-80.25
57.546,-72.23
57.562,-63.98
57.578,-55.72
57.593,-47.44
57.609,-39.17
57.625,-31.17
57.640,-24.0
57.656,-18.38
57.671,-14.86
57.687,-13.46
57.703,-13.76
57.718,-14.88
57.734,-16.01
57.750,-16.55
57.765,-16.36
57.781,-15.71
57.796,-15.06
57.812,-14.98
57.828,-15.79
57.843,-17.56
57.859,-19.92
57.875,-22.22
57.890,-23.73
57.906,-23.72
57.921,-21.7
57.937,-17.48
57.953,-11.44
57.968,-4.24
57.984,3.23
58.000,10.12
58.015,15.96
58.031,20.49
58.046,23.79
58.062,25.98
58.078,27.19
58.093,27.39
58.109,26.54
58.125,24.57
58.140,21.58
58.156,17.81
58.171,13.41
58.187,8.37
58.203,2.47
58.218,-4.53
58.234,-12.79
58.250,-22.27
58.265,-32.79
58.281,-44.18
58.296,-56.24
58.312,-68.81
58.328,-81.57
58.343,-93.91
58.359,-104.92
58.375,-113.55
58.390,-118.88
58.406,-120.56
58.421,-118.74
58.437,-114.01
58.453,-107.04
58.468,-98.27
58.484,-87.73
58.500,-75.39
58.515,-61.44
58.531,-46.43
58.546,-31.35
58.562,-17.11
58.578,-4.18
58.593,7.52
58.609,18.58
58.625,29.6
58.640,40.81
58.656,51.94
58.671,62.43
58.687,71.71
58.703,79.51
58.718,85.93
58.734,91.2
58.750,95.44
58.765,98.72
58.781,100.96
58.796,102.26
58.812,102.83
58.828,103.01
58.843,103.05
58.859,102.84
58.875,101.83
58.890,99.14
58.906,93.83
58.921,85.29
58.937,73.63
58.953,59.66
58.968,44.63
58.984,30.0
59.000,16.76
59.015,5.45
59.031,-3.9
59.046,-11.64
59.062,-18.17
59.078,-23.89
59.093,-29.03
59.109,-33.82
59.125,-38.45
59.140,-42.91
59.156,-47.06
59.171,-50.83
59.187,-54.23
59.203,-57.59
59.218,-61.39
59.234,-66.03
59.250,-71.63
59.265,-77.76
59.281,-83.5
59.296,-87.65
59.312,-89.18
59.328,-87.39
59.343,-81.9
59.359,-72.75
59.375,-60.21
59.390,-44.97
59.406,-27.89
59.421,-10.02
59.437,7.56
59.453,23.91
59.468,38.38
59.484,50.72
59.500,61.01
59.515,69.42
59.531,76.08
59.546,81.01
59.562,83.99
59.578,84.61
59.593,82.63
59.609,77.98
59.625,71.01
59.640,62.55
59.656,53.66
59.671,45.39
59.687,38.4
59.703,32.84
59.718,28.27
59.734,24.17
59.750,20.09
59.765,15.8
59.781,11.52
59.796,7.56
59.812,4.23
59.828,1.57
59.843,-0.51
59.859,-2.32
59.875,-3.94
59.890,-5.4
59.906,-6.63
59.921,-7.43
59.937,-7.82
59.953,-7.97
59.968,-8.26
59.984,-9.24
