timestamp,value
00.000,-61.61
00.015,-61.75
00.031,-60.09
00.046,-58.03
00.062,-56.75
00.078,-56.9
00.093,-58.54
00.109,-61.21
00.125,-64.17
00.140,-66.69
00.156,-68.33
00.171,-68.98
00.187,-68.85
00.203,-68.24
00.218,-67.44
00.234,-66.49
00.250,-65.22
00.265,-63.33
00.281,-60.49
00.296,-56.51
00.312,-51.36
00.328,-45.22
00.343,-38.34
00.359,-31.03
00.375,-23.58
00.390,-16.23
00.406,-9.12
00.421,-2.34
00.437,4.14
00.453,10.43
00.468,16.61
00.484,22.71
00.500,28.68
00.515,34.36
00.531,39.57
00.546,44.17
00.562,48.03
00.578,51.09
00.593,53.27
00.609,54.44
00.625,54.48
00.640,53.34
00.656,51.17
00.671,48.28
00.687,45.1
00.703,42.02
00.718,39.34
00.734,37.33
00.750,36.19
00.765,36.01
00.781,36.53
00.796,36.97
00.812,36.06
00.828,32.42
00.843,25.2
00.859,14.78
00.875,2.91
00.890,-7.67
00.906,-14.16
00.921,-14.82
00.937,-9.71
00.953,-0.71
00.968,9.09
00.984,16.46
01.000,19.04
01.015,15.91
01.031,7.7
01.046,-3.9
01.062,-16.75
01.078,-28.93
01.093,-39.2
01.109,-47.1
01.125,-52.88
01.140,-57.06
01.156,-60.09
01.171,-61.91
01.187,-61.91
01.203,-59.12
01.218,-52.72
01.234,-42.63
01.250,-29.8
01.265,-16.22
01.281,-4.32
01.296,3.77
01.312,6.91
01.328,5.23
01.343,-0.14
01.359,-7.52
01.375,-15.31
01.390,-22.27
01.406,-27.53
01.421,-30.55
01.437,-31.02
01.453,-29.04
01.468,-25.18
01.484,-20.55
01.500,-16.49
01.515,-14.22
01.531,-14.33
01.546,-16.59
01.562,-20.01
01.578,-23.32
01.593,-25.43
01.609,-25.79
01.625,-24.49
01.640,-22.05
01.656,-19.13
01.671,-16.24
01.687,-13.62
01.703,-11.26
01.718,-9.03
01.734,-6.76
01.750,-4.42
01.765,-2.09
01.796,1.54
01.812,2.23
01.828,1.85
01.843,0.38
01.859,-2.03
01.875,-5.05
01.890,-8.34
01.906,-11.61
01.921,-14.76
01.937,-17.8
01.953,-20.83
01.968,-23.84
01.984,-26.64
02.000,-28.84
02.015,-29.97
02.031,-29.67
02.046,-27.87
02.062,-24.83
02.078,-21.08
02.093,-17.2
02.109,-13.56
02.125,-10.25
02.140,-7.11
02.156,-3.93
02.171,-0.65
02.187,2.51
02.203,5.16
02.218,6.94
02.234,7.7
02.250,7.67
02.265,7.25
02.281,6.89
02.296,6.87
02.312,7.21
02.328,7.74
02.343,8.23
02.359,8.57
02.375,8.82
02.390,9.1
02.406,9.49
02.421,9.94
02.437,10.3
02.453,10.39
02.468,10.14
02.484,9.61
02.500,8.98
02.515,8.4
02.531,7.89
02.546,7.31
02.562,6.46
02.578,5.18
02.593,3.41
02.609,1.29
02.625,-0.99
02.640,-3.24
02.656,-5.36
02.671,-7.31
02.687,-9.16
02.703,-10.96
02.718,-12.79
02.734,-14.76
02.750,-16.98
02.765,-19.52
02.781,-22.37
02.796,-25.33
02.812,-28.02
02.828,-29.94
02.843,-30.62
02.859,-29.75
02.875,-27.28
02.890,-23.42
02.906,-18.55
02.921,-13.06
02.937,-7.35
02.953,-1.7
02.968,3.6
02.984,8.33
03.000,12.33
03.015,15.63
03.031,18.43
03.046,21.16
03.062,24.37
03.078,28.49
03.093,33.72
03.109,39.82
03.125,46.11
03.140,51.56
03.156,55.11
03.171,56.03
03.187,54.27
03.203,50.6
03.218,46.49
03.234,43.59
03.250,43.22
03.265,45.88
03.281,51.06
03.296,57.38
03.312,63.04
03.328,66.41
03.343,66.55
03.359,63.48
03.375,58.1
03.390,51.84
03.406,46.13
03.421,41.87
03.437,39.22
03.453,37.7
03.468,36.46
03.484,34.64
03.500,31.74
03.515,27.7
03.531,22.8
03.546,17.53
03.562,12.41
03.578,7.84
03.593,4.06
03.609,1.13
03.625,-1.09
03.640,-2.82
03.656,-4.24
03.671,-5.37
03.687,-6.04
03.703,-5.96
03.718,-4.92
03.734,-3.04
03.750,-0.75
03.765,1.21
03.781,2.11
03.796,1.48
03.812,-0.68
03.828,-3.87
03.843,-7.24
03.859,-9.84
03.875,-11.0
03.890,-10.49
03.906,-8.69
03.921,-6.48
03.937,-5.06
03.953,-5.5
03.968,-8.29
03.984,-12.88
04.000,-17.72
04.015,-20.62
04.031,-19.49
04.046,-13.16
04.062,-2.05
04.078,11.78
04.093,25.2
04.109,34.92
04.125,38.65
04.140,35.75
04.156,27.42
04.171,16.15
04.187,4.82
04.203,-4.28
04.218,-9.95
04.234,-12.24
04.250,-12.05
04.265,-10.59
04.281,-8.76
04.296,-6.83
04.312,-4.4
04.328,-0.69
04.343,4.95
04.359,12.65
04.375,21.64
04.390,30.36
04.406,36.8
04.421,39.14
04.437,36.36
04.453,28.6
04.468,17.07
04.484,3.73
04.500,-9.32
04.515,-20.36
04.531,-28.36
04.546,-33.07
04.562,-34.89
04.578,-34.55
04.593,-32.84
04.609,-30.38
04.625,-27.46
04.640,-24.14
04.656,-20.43
04.671,-16.63
04.687,-13.5
04.703,-12.21
04.718,-13.94
04.734,-19.32
04.750,-27.89
04.765,-38.11
04.781,-47.73
04.796,-54.61
04.812,-57.46
04.828,-56.08
04.843,-51.23
04.859,-44.12
04.875,-35.93
04.890,-27.59
04.906,-19.82
04.921,-13.26
04.937,-8.51
04.953,-5.89
04.968,-5.17
04.984,-5.51
05.000,-5.68
05.015,-4.53
05.031,-1.51
05.046,3.15
05.062,8.55
05.078,13.59
05.093,17.36
05.109,19.39
05.125,19.66
05.140,18.41
05.156,15.93
05.171,12.52
05.187,8.45
05.203,4.04
05.218,-0.32
05.234,-4.39
05.250,-8.06
05.265,-11.45
05.281,-14.8
05.296,-18.31
05.312,-21.92
05.328,-25.35
05.343,-28.11
05.359,-29.74
05.375,-29.99
05.390,-28.82
05.406,-26.33
05.421,-22.63
05.437,-17.75
05.453,-11.68
05.468,-4.51
05.484,3.37
05.500,11.41
05.515,18.99
05.531,25.81
05.546,31.92
05.562,37.68
05.578,43.51
05.593,49.63
05.609,56.01
05.625,62.36
05.640,68.3
05.656,73.46
05.671,77.35
05.687,79.43
05.703,79.21
05.718,76.55
05.734,71.89
05.750,66.23
05.765,60.76
05.781,56.17
05.796,52.27
05.812,48.01
05.828,42.2
05.843,34.3
05.859,25.1
05.875,16.66
05.890,11.53
05.906,11.68
05.921,17.57
05.937,27.84
05.953,39.78
05.968,50.15
05.984,56.2
06.000,56.19
06.015,49.62
06.031,37.1
06.046,20.05
06.062,0.36
06.078,-19.82
06.093,-38.4
06.109,-53.72
06.125,-64.85
06.140,-71.81
06.156,-75.48
06.171,-77.22
06.187,-78.34
06.203,-79.6
06.218,-81.1
06.234,-82.36
06.250,-82.75
06.265,-81.72
06.281,-79.09
06.296,-74.96
06.312,-69.61
06.328,-63.42
06.343,-56.68
06.359,-49.73
06.375,-42.79
06.390,-36.06
06.406,-29.58
06.421,-23.28
06.437,-16.98
06.453,-10.6
06.468,-4.23
06.484,1.78
06.500,6.9
06.515,10.6
06.531,12.66
06.546,13.29
06.562,13.16
06.578,13.15
06.593,14.06
06.609,16.22
06.625,19.31
06.640,22.5
06.656,24.73
06.671,25.17
06.687,23.7
06.703,20.9
06.718,17.96
06.734,16.21
06.750,16.62
06.765,19.51
06.781,24.45
06.796,30.45
06.812,36.25
06.828,40.6
06.843,42.46
06.859,41.05
06.875,36.08
06.890,27.7
06.906,16.67
06.921,4.24
06.937,-8.12
06.953,-19.13
06.968,-28.04
06.984,-34.8
07.000,-39.95
07.015,-44.22
07.031,-48.16
07.046,-51.9
07.062,-55.14
07.078,-57.3
07.093,-57.85
07.109,-56.48
07.125,-53.17
07.140,-48.22
07.156,-42.02
07.171,-35.0
07.187,-27.54
07.203,-19.98
07.218,-12.65
07.234,-5.95
07.250,-0.26
07.265,4.15
07.281,7.21
07.296,9.12
07.312,10.27
07.328,11.04
07.343,11.7
07.359,12.33
07.375,12.83
07.390,13.11
07.406,13.15
07.421,13.04
07.437,12.95
07.453,13.05
07.468,13.43
07.484,14.1
07.500,15.0
07.515,16.0
07.531,16.96
07.546,17.8
07.562,18.43
07.578,18.9
07.593,19.24
07.609,19.48
07.625,19.57
07.640,19.37
07.656,18.74
07.671,17.64
07.687,16.19
07.703,14.59
07.718,13.12
07.734,11.94
07.750,11.1
07.765,10.55
07.781,10.22
07.796,10.0
07.812,9.74
07.828,9.25
07.843,8.32
07.859,6.85
07.875,4.94
07.890,3.01
07.906,1.67
07.921,1.66
07.937,3.59
07.953,7.8
07.968,14.3
07.984,22.77
08.000,32.58
08.015,42.91
08.031,52.78
08.046,61.16
08.062,67.1
08.078,69.93
08.093,69.39
08.109,65.78
08.125,59.87
08.140,52.79
08.156,45.78
08.171,40.0
08.187,36.26
08.203,34.99
08.218,36.17
08.234,39.49
08.250,44.5
08.265,50.76
08.281,57.95
08.296,65.71
08.312,73.48
08.328,80.42
08.343,85.42
08.359,87.44
08.375,85.86
08.390,80.72
08.406,72.7
08.421,62.81
08.437,52.02
08.453,40.9
08.468,29.74
08.484,18.69
08.500,8.14
08.515,-1.15
08.531,-8.19
08.546,-12.15
08.562,-12.82
08.578,-10.85
08.593,-7.78
08.609,-5.6
08.625,-6.25
08.640,-10.91
08.656,-19.62
08.671,-31.31
08.687,-44.17
08.703,-56.35
08.718,-66.43
08.734,-73.77
08.750,-78.25
08.765,-80.0
08.781,-79.04
08.796,-75.27
08.812,-68.69
08.828,-59.67
08.843,-49.14
08.859,-38.43
08.875,-28.85
08.890,-21.32
08.906,-16.13
08.921,-13.11
08.937,-11.82
08.953,-11.89
08.968,-12.94
08.984,-14.56
09.000,-16.08
09.015,-16.56
09.031,-15.11
09.046,-11.22
09.062,-5.17
09.078,1.92
09.093,8.31
09.109,12.29
09.125,12.8
09.140,9.8
09.156,4.28
09.171,-2.18
09.187,-7.98
09.203,-11.95
09.218,-13.6
09.234,-13.06
09.250,-10.87
09.265,-7.77
09.281,-4.56
09.296,-1.98
09.312,-0.64
09.328,-0.84
09.343,-2.46
09.359,-4.97
09.375,-7.65
09.390,-9.87
09.406,-11.43
09.421,-12.69
09.437,-14.34
09.453,-17.05
09.468,-21.12
09.484,-26.33
09.500,-32.02
09.515,-37.41
09.531,-41.82
09.546,-44.93
09.562,-46.72
09.578,-47.34
09.593,-46.94
09.609,-45.58
09.625,-43.2
09.640,-39.63
09.656,-34.64
09.671,-28.04
09.687,-19.74
09.703,-9.88
09.718,1.01
09.734,12.01
09.750,21.83
09.765,29.02
09.781,32.32
09.796,30.95
09.812,24.89
09.828,14.88
09.843,2.35
09.859,-10.89
09.875,-22.85
09.890,-31.73
09.906,-36.08
09.921,-35.16
09.937,-29.19
09.953,-19.34
09.968,-7.52
09.984,4.18
10.000,14.15
10.015,21.6
10.031,26.63
10.046,29.78
10.062,31.52
10.078,31.86
10.093,30.36
10.109,26.59
10.125,20.5
10.140,12.71
10.156,4.3
10.171,-3.56
10.187,-10.12
10.203,-15.24
10.218,-19.35
10.234,-23.13
10.250,-27.1
10.265,-31.41
10.281,-35.83
10.296,-39.89
10.312,-43.06
10.328,-44.97
10.343,-45.44
10.359,-44.44
10.375,-42.07
10.390,-38.55
10.406,-34.2
10.421,-29.41
10.437,-24.62
10.453,-20.16
10.468,-16.21
10.484,-12.74
10.500,-9.63
10.515,-6.72
10.531,-3.97
10.546,-1.46
10.562,0.63
10.578,2.15
10.593,3.06
10.609,3.48
10.625,3.6
10.640,3.63
10.656,3.73
10.671,3.96
10.687,4.35
10.703,4.9
10.718,5.6
10.734,6.43
10.750,7.28
10.765,8.01
10.781,8.54
10.796,8.91
10.812,9.28
10.828,9.86
10.843,10.76
10.859,11.9
10.875,12.93
10.890,13.34
10.906,12.65
10.921,10.58
10.937,7.22
10.953,3.12
10.968,-0.89
10.984,-3.93
11.000,-5.35
11.015,-5.01
11.031,-3.34
11.046,-1.2
11.062,0.34
11.078,0.39
11.093,-1.61
11.109,-5.75
11.125,-11.71
11.140,-18.79
11.156,-26.08
11.171,-32.48
11.187,-36.92
11.203,-38.7
11.218,-37.67
11.234,-34.35
11.250,-29.78
11.265,-25.13
11.281,-21.3
11.296,-18.68
11.312,-17.14
11.328,-16.26
11.343,-15.59
11.359,-14.83
11.375,-13.86
11.390,-12.65
11.406,-11.23
11.421,-9.62
11.437,-7.91
11.453,-6.24
11.468,-4.74
11.484,-3.55
11.500,-2.66
11.515,-1.95
11.531,-1.22
11.546,-0.32
11.562,0.81
11.578,2.07
11.593,3.26
11.609,4.12
11.625,4.43
11.640,4.02
11.656,2.89
11.671,1.19
11.687,-0.83
11.703,-2.86
11.718,-4.69
11.734,-6.31
11.750,-7.89
11.765,-9.73
11.781,-12.13
11.796,-15.19
11.812,-18.75
11.828,-22.37
11.843,-25.55
11.859,-27.92
11.875,-29.49
11.890,-30.64
11.906,-32.01
11.921,-34.24
11.937,-37.56
11.953,-41.58
11.968,-45.3
11.984,-47.39
12.000,-46.68
12.015,-42.53
12.031,-35.08
12.046,-25.23
12.062,-14.26
12.078,-3.54
12.093,5.85
12.109,13.39
12.125,19.17
12.140,23.83
12.156,28.29
12.171,33.48
12.187,39.92
12.203,47.53
12.218,55.5
12.234,62.52
12.250,67.22
12.265,68.69
12.281,66.85
12.296,62.58
12.312,57.34
12.328,52.71
12.343,49.79
12.359,48.83
12.375,49.24
12.390,49.88
12.406,49.6
12.421,47.66
12.437,43.99
12.453,39.03
12.468,33.51
12.484,28.07
12.500,23.05
12.515,18.4
12.531,13.8
12.546,8.83
12.562,3.18
12.578,-3.24
12.593,-10.24
12.609,-17.41
12.625,-24.28
12.640,-30.49
12.656,-35.83
12.671,-40.32
12.687,-44.11
12.703,-47.46
12.718,-50.61
12.734,-53.69
12.750,-56.68
12.765,-59.36
12.781,-61.31
12.796,-62.06
12.812,-61.22
12.828,-58.61
12.843,-54.31
12.859,-48.7
12.875,-42.27
12.890,-35.5
12.906,-28.75
12.921,-22.21
12.937,-15.96
12.953,-10.03
12.968,-4.48
12.984,0.58
13.000,5.03
13.015,8.76
13.031,11.76
13.046,14.15
13.062,16.05
13.078,17.64
13.093,18.97
13.109,20.05
13.125,20.9
13.140,21.52
13.156,21.95
13.171,22.26
13.187,22.47
13.203,22.58
13.218,22.58
13.234,22.45
13.250,22.23
13.265,21.89
13.281,21.37
13.296,20.54
13.312,19.27
13.328,17.43
13.343,15.04
13.359,12.22
13.375,9.15
13.390,6.02
13.406,2.92
13.421,-0.13
13.437,-3.21
13.453,-6.51
13.468,-10.2
13.484,-14.47
13.500,-19.33
13.515,-24.61
13.531,-29.88
13.546,-34.51
13.562,-37.82
13.578,-39.25
13.593,-38.53
13.609,-35.76
13.625,-31.32
13.640,-25.76
13.656,-19.63
13.671,-13.34
13.687,-7.12
13.703,-1.12
13.718,4.56
13.734,9.82
13.750,14.52
13.765,18.57
13.781,21.93
13.796,24.61
13.812,26.66
13.828,28.14
13.843,29.09
13.859,29.57
13.875,29.66
13.890,29.38
13.906,28.66
13.921,27.37
13.937,25.34
13.953,22.47
13.968,18.86
13.984,14.76
14.000,10.64
14.015,6.88
14.031,3.74
14.046,1.24
14.062,-0.75
14.078,-2.43
14.093,-3.93
14.109,-5.32
14.125,-6.66
14.140,-7.98
14.156,-9.35
14.171,-10.75
14.187,-12.05
14.203,-13.03
14.218,-13.51
14.234,-13.54
14.250,-13.42
14.265,-13.67
14.281,-14.71
14.296,-16.66
14.312,-19.16
14.328,-21.48
14.343,-22.73
14.359,-22.25
14.375,-19.75
14.390,-15.4
14.406,-9.65
14.421,-3.11
14.437,3.67
14.453,10.3
14.468,16.57
14.484,22.49
14.500,28.18
14.515,33.86
14.531,39.62
14.546,45.33
14.562,50.58
14.578,54.75
14.593,57.25
14.609,57.8
14.625,56.56
14.640,54.18
14.656,51.49
14.671,49.19
14.687,47.62
14.703,46.64
14.718,45.8
14.734,44.66
14.750,43.02
14.765,40.96
14.781,38.8
14.796,36.92
14.812,35.56
14.828,34.89
14.843,34.97
14.859,35.76
14.875,37.1
14.890,38.53
14.906,39.32
14.921,38.6
14.937,35.68
14.953,30.5
14.968,23.73
14.984,16.65
15.000,10.56
15.015,6.28
15.031,3.77
15.046,2.26
15.062,0.69
15.078,-1.84
15.093,-5.73
15.109,-10.91
15.125,-17.05
15.140,-23.66
15.156,-30.18
15.171,-35.87
15.187,-39.88
15.203,-41.42
15.218,-40.07
15.234,-36.03
15.250,-30.13
15.265,-23.54
15.281,-17.35
15.296,-12.31
15.312,-8.77
15.328,-6.87
15.343,-6.65
15.359,-8.05
15.375,-10.77
15.390,-14.2
15.406,-17.45
15.421,-19.63
15.437,-20.17
15.453,-18.9
15.468,-16.1
15.484,-12.26
15.500,-7.94
15.515,-3.62
15.531,0.2
15.546,3.07
15.562,4.61
15.578,4.67
15.593,3.43
15.609,1.35
15.625,-0.97
15.640,-3.09
15.656,-4.82
15.671,-6.23
15.687,-7.47
15.703,-8.57
15.718,-9.38
15.734,-9.69
15.750,-9.38
15.765,-8.52
15.781,-7.39
15.796,-6.35
15.812,-5.66
15.828,-5.39
15.843,-5.4
15.859,-5.45
15.875,-5.25
15.890,-4.5
15.906,-2.92
15.921,-0.22
15.937,3.81
15.953,9.16
15.968,15.59
15.984,22.58
16.000,29.48
16.015,35.82
16.031,41.44
16.046,46.53
16.062,51.37
16.078,56.07
16.093,60.22
16.109,62.96
16.125,63.18
16.140,59.97
16.156,53.05
16.171,42.89
16.187,30.65
16.203,17.77
16.218,5.61
16.234,-4.84
16.250,-13.12
16.265,-19.15
16.281,-23.12
16.296,-25.4
16.312,-26.49
16.328,-27.02
16.343,-27.66
16.359,-29.03
16.375,-31.42
16.390,-34.69
16.406,-38.27
16.421,-41.46
16.437,-43.76
16.453,-45.13
16.468,-46.02
16.484,-47.04
16.500,-48.64
16.515,-50.84
16.531,-53.21
16.546,-55.23
16.562,-56.57
16.578,-57.29
16.593,-57.8
16.609,-58.45
16.625,-59.35
16.640,-60.16
16.656,-60.37
16.671,-59.48
16.687,-57.33
16.703,-54.05
16.718,-49.98
16.734,-45.35
16.750,-40.22
16.765,-34.46
16.781,-27.97
16.796,-20.86
16.812,-13.52
16.828,-6.46
16.843,-0.17
16.859,5.1
16.875,9.37
16.890,12.8
16.906,15.57
16.921,17.73
16.937,19.26
16.953,20.1
16.968,20.24
16.984,19.76
17.000,18.82
17.015,17.61
17.031,16.36
17.046,15.34
17.062,14.82
17.078,15.0
17.093,15.99
17.109,17.7
17.125,19.85
17.140,22.03
17.156,23.82
17.171,24.89
17.187,25.08
17.203,24.44
17.218,23.17
17.234,21.53
17.250,19.7
17.265,17.69
17.281,15.36
17.296,12.43
17.312,8.7
17.328,4.13
17.343,-1.07
17.359,-6.53
17.375,-11.81
17.390,-16.53
17.406,-20.41
17.421,-23.25
17.437,-24.93
17.453,-25.34
17.468,-24.48
17.484,-22.5
17.500,-19.67
17.515,-16.27
17.531,-12.6
17.546,-8.83
17.562,-5.11
17.578,-1.58
17.593,1.56
17.609,4.06
17.625,5.72
17.640,6.49
17.656,6.54
17.671,6.2
17.687,5.92
17.703,6.07
17.718,6.86
17.734,8.22
17.750,9.91
17.765,11.55
17.781,12.83
17.796,13.57
17.812,13.78
17.828,13.57
17.843,13.1
17.859,12.42
17.875,11.48
17.890,10.19
17.906,8.47
17.921,6.37
17.937,4.01
17.953,1.61
17.968,-0.7
17.984,-2.87
18.000,-4.92
18.015,-6.9
18.031,-8.85
18.046,-10.72
18.062,-12.58
18.078,-14.54
18.093,-16.83
18.109,-19.65
18.125,-22.98
18.140,-26.44
18.156,-29.4
18.171,-31.12
18.187,-31.08
18.203,-29.16
18.218,-25.69
18.234,-21.25
18.250,-16.41
18.265,-11.54
18.281,-6.8
18.296,-2.18
18.312,2.32
18.328,6.65
18.343,10.71
18.359,14.35
18.375,17.43
18.390,19.9
18.406,21.76
18.421,23.15
18.437,24.22
18.453,25.16
18.468,26.07
18.484,26.93
18.500,27.59
18.515,27.86
18.531,27.57
18.546,26.7
18.562,25.33
18.578,23.67
18.593,21.9
18.609,20.14
18.625,18.42
18.640,16.73
18.656,15.06
18.671,13.39
18.687,11.73
18.703,10.11
18.718,8.55
18.734,7.09
18.750,5.67
18.765,4.23
18.781,2.65
18.796,0.79
18.812,-1.44
18.828,-4.16
18.843,-7.44
18.859,-11.31
18.875,-15.68
18.890,-20.27
18.906,-24.57
18.921,-27.96
18.937,-29.86
18.953,-30.0
18.968,-28.43
18.984,-25.51
19.000,-21.74
19.015,-17.49
19.031,-12.97
19.046,-8.16
19.062,-3.01
19.078,2.45
19.093,8.04
19.109,13.4
19.125,18.13
19.140,21.95
19.156,24.75
19.171,26.63
19.187,27.83
19.203,28.63
19.218,29.21
19.234,29.62
19.250,29.8
19.265,29.64
19.281,29.1
19.296,28.18
19.312,26.95
19.328,25.49
19.343,23.86
19.359,22.15
19.375,20.46
19.390,18.92
19.406,17.64
19.421,16.65
19.437,15.89
19.453,15.2
19.468,14.33
19.484,13.13
19.500,11.51
19.515,9.53
19.531,7.35
19.546,5.13
19.562,2.99
19.578,0.93
19.593,-1.09
19.609,-3.21
19.625,-5.49
19.640,-7.97
19.656,-10.55
19.671,-13.04
19.687,-15.13
19.703,-16.4
19.718,-16.52
19.734,-15.21
19.750,-12.47
19.765,-8.51
19.781,-3.76
19.796,1.3
19.812,6.24
19.828,10.78
19.843,14.79
19.859,18.25
19.875,21.21
19.890,23.76
19.906,26.01
19.921,28.15
19.937,30.34
19.953,32.58
19.968,34.64
19.984,36.03
20.000,36.2
20.015,34.8
20.031,31.93
20.046,28.21
20.062,24.59
20.078,22.06
20.093,21.31
20.109,22.47
20.125,25.09
20.140,28.27
20.156,30.92
20.171,32.05
20.187,30.97
20.203,27.42
20.218,21.59
20.234,14.07
20.250,5.66
20.265,-2.81
20.281,-10.58
20.296,-17.15
20.312,-22.27
20.328,-25.96
20.343,-28.52
20.359,-30.4
20.375,-32.13
20.390,-34.08
20.406,-36.43
20.421,-39.0
20.437,-41.35
20.453,-42.94
20.468,-43.3
20.484,-42.17
20.500,-39.59
20.515,-35.76
20.531,-30.94
20.546,-25.37
20.562,-19.23
20.578,-12.69
20.593,-5.98
20.609,0.5
20.625,6.28
20.640,10.9
20.656,14.07
20.671,15.79
20.687,16.31
20.703,16.05
20.718,15.45
20.734,14.88
20.750,14.56
20.765,14.59
20.781,14.98
20.796,15.69
20.812,16.57
20.828,17.46
20.843,18.14
20.859,18.49
20.875,18.4
20.890,17.92
20.906,17.08
20.921,15.99
20.937,14.71
20.953,13.29
20.968,11.79
20.984,10.28
21.000,8.8
21.015,7.31
21.031,5.73
21.046,3.93
21.062,1.76
21.078,-0.86
21.093,-3.93
21.109,-7.3
21.125,-10.72
21.140,-13.9
21.156,-16.55
21.171,-18.43
21.187,-19.44
21.203,-19.57
21.218,-18.92
21.234,-17.68
21.250,-16.05
21.265,-14.18
21.281,-12.16
21.296,-9.97
21.312,-7.49
21.328,-4.66
21.343,-1.49
21.359,1.83
21.375,5.0
21.390,7.67
21.406,9.58
21.421,10.66
21.437,11.01
21.453,10.84
21.468,10.41
21.484,9.97
21.500,9.74
21.515,9.82
21.531,10.24
21.546,10.91
21.562,11.7
21.578,12.41
21.593,12.89
21.609,13.0
21.625,12.61
21.640,11.67
21.656,10.16
21.671,8.18
21.687,5.84
21.703,3.3
21.718,0.68
21.734,-1.95
21.750,-4.62
21.765,-7.36
21.781,-10.23
21.796,-13.26
21.812,-16.42
21.828,-19.69
21.843,-23.01
21.859,-26.24
21.875,-29.14
21.890,-31.42
21.906,-32.79
21.921,-33.03
21.937,-32.13
21.953,-30.23
21.968,-27.58
21.984,-24.46
22.000,-21.09
22.015,-17.64
22.031,-14.21
22.046,-10.9
22.062,-7.8
22.078,-4.96
22.093,-2.4
22.109,-0.05
22.125,2.13
22.140,4.14
22.156,5.92
22.171,7.32
22.187,8.23
22.203,8.63
22.218,8.62
22.234,8.38
22.250,8.15
22.265,8.09
22.281,8.3
22.296,8.74
22.312,9.24
22.328,9.58
22.343,9.53
22.359,8.85
22.375,7.48
22.390,5.52
22.406,3.3
22.421,1.26
22.437,-0.19
22.453,-0.84
22.468,-0.85
22.484,-0.76
22.500,-1.34
22.515,-3.33
22.531,-7.11
22.546,-12.47
22.562,-18.62
22.578,-24.45
22.593,-28.82
22.609,-31.03
22.625,-30.99
22.640,-29.28
22.656,-26.96
22.671,-25.17
22.687,-24.81
22.703,-26.21
22.718,-29.08
22.734,-32.56
22.750,-35.52
22.765,-36.81
22.781,-35.62
22.796,-31.64
22.812,-25.21
22.828,-17.19
22.843,-8.75
22.859,-1.13
22.875,4.71
22.890,8.23
22.906,9.44
22.921,8.81
22.937,7.1
22.953,5.1
22.968,3.46
22.984,2.62
23.000,2.67
23.015,3.48
23.031,4.72
23.046,6.0
23.062,6.93
23.078,7.29
23.093,6.99
23.109,6.12
23.125,4.89
23.140,3.54
23.156,2.28
23.171,1.21
23.187,0.3
23.203,-0.61
23.218,-1.76
23.234,-3.3
23.250,-5.22
23.265,-7.33
23.281,-9.27
23.296,-10.77
23.312,-11.76
23.328,-12.49
23.343,-13.53
23.359,-15.49
23.375,-18.78
23.390,-23.4
23.406,-28.83
23.421,-34.21
23.437,-38.53
23.453,-40.9
23.468,-40.75
23.484,-37.86
23.500,-32.41
23.515,-24.85
23.531,-15.9
23.546,-6.4
23.562,2.75
23.578,10.71
23.593,16.85
23.609,21.01
23.625,23.48
23.640,25.07
23.656,26.83
23.671,29.78
23.687,34.45
23.703,40.64
23.718,47.42
23.734,53.36
23.750,56.99
23.765,57.29
23.781,53.93
23.796,47.29
23.812,38.31
23.828,28.16
23.843,17.99
23.859,8.81
23.875,1.34
23.890,-4.0
23.906,-7.2
23.921,-8.61
23.937,-8.9
23.953,-8.85
23.968,-9.04
23.984,-9.78
24.000,-11.02
24.015,-12.5
24.031,-13.95
24.046,-15.24
24.062,-16.4
24.078,-17.67
24.093,-19.31
24.109,-21.57
24.125,-24.5
24.140,-28.04
24.156,-31.99
24.171,-36.05
24.187,-39.83
24.203,-42.89
24.218,-44.75
24.234,-44.99
24.250,-43.43
24.265,-40.23
24.281,-35.89
24.296,-31.09
24.312,-26.4
24.328,-22.01
24.343,-17.75
24.359,-13.27
24.375,-8.34
24.390,-3.07
24.406,2.06
24.421,6.47
24.437,9.74
24.453,11.79
24.468,12.92
24.484,13.58
24.500,14.18
24.515,14.91
24.531,15.76
24.546,16.62
24.562,17.39
24.578,18.12
24.593,18.92
24.609,19.86
24.625,20.9
24.640,21.8
24.656,22.29
24.671,22.13
24.687,21.32
24.703,20.1
24.718,18.91
24.734,18.14
24.750,17.97
24.765,18.23
24.781,18.51
24.796,18.25
24.812,16.99
24.828,14.47
24.843,10.69
24.859,5.88
24.875,0.43
24.890,-5.22
24.906,-10.66
24.921,-15.62
24.937,-19.95
24.953,-23.61
24.968,-26.59
24.984,-28.77
25.000,-29.94
25.015,-29.85
25.031,-28.23
25.046,-25.0
25.062,-20.27
25.078,-14.37
25.093,-7.87
25.109,-1.47
25.125,4.01
25.140,7.9
25.156,9.7
25.171,9.32
25.187,7.09
25.203,3.68
25.218,-0.03
25.234,-3.17
25.250,-5.08
25.265,-5.43
25.281,-4.25
25.296,-1.92
25.312,0.98
25.328,3.78
25.343,5.97
25.359,7.28
25.375,7.72
25.390,7.47
25.406,6.78
25.421,5.91
25.437,5.03
25.453,4.3
25.468,3.75
25.484,3.35
25.500,2.94
25.515,2.32
25.531,1.26
25.546,-0.38
25.562,-2.55
25.578,-5.05
25.593,-7.54
25.609,-9.72
25.625,-11.42
25.640,-12.7
25.656,-13.79
25.671,-14.97
25.687,-16.43
25.703,-18.17
25.718,-19.93
25.734,-21.3
25.750,-21.9
25.765,-21.43
25.781,-19.82
25.796,-17.22
25.812,-13.95
25.828,-10.37
25.843,-6.81
25.859,-3.48
25.875,-0.44
25.890,2.32
25.906,4.87
25.921,7.18
25.937,9.08
25.953,10.36
25.968,10.89
25.984,10.65
26.000,9.81
26.015,8.66
26.031,7.44
26.046,6.32
26.062,5.32
26.078,4.43
26.093,3.61
26.109,2.84
26.125,2.15
26.140,1.52
26.156,0.94
26.171,0.32
26.187,-0.41
26.203,-1.36
26.218,-2.57
26.234,-4.08
26.250,-5.82
26.265,-7.67
26.281,-9.33
26.296,-10.45
26.312,-10.64
26.328,-9.69
26.343,-7.7
26.359,-5.22
26.375,-3.15
26.390,-2.51
26.406,-3.97
26.421,-7.51
26.437,-12.28
26.453,-16.81
26.468,-19.45
26.484,-18.99
26.500,-15.0
26.515,-8.02
26.531,0.61
26.546,9.16
26.562,16.0
26.578,20.02
26.593,20.97
26.609,19.45
26.625,16.73
26.640,14.28
26.656,13.22
26.671,13.93
26.687,15.94
26.703,18.22
26.718,19.78
26.734,20.18
26.750,19.81
26.765,19.79
26.781,21.44
26.796,25.61
26.812,32.23
26.828,40.23
26.843,47.82
26.859,53.21
26.875,55.19
26.890,53.5
26.906,48.86
26.921,42.61
26.937,36.24
26.953,30.96
26.968,27.33
26.984,25.18
27.000,23.73
27.015,21.88
27.031,18.66
27.046,13.6
27.062,6.99
27.078,-0.24
27.093,-6.91
27.109,-12.09
27.125,-15.49
27.140,-17.38
27.156,-18.32
27.171,-18.66
27.187,-18.26
27.203,-16.52
27.218,-12.8
27.234,-6.86
27.250,0.81
27.265,9.03
27.281,16.33
27.296,21.36
27.312,23.26
27.328,21.83
27.343,17.5
27.359,11.12
27.375,3.79
27.390,-3.37
27.406,-9.37
27.421,-13.5
27.437,-15.45
27.453,-15.3
27.468,-13.52
27.484,-10.85
27.500,-8.14
27.515,-6.18
27.531,-5.56
27.546,-6.5
27.562,-8.85
27.578,-12.14
27.593,-15.7
27.609,-18.89
27.625,-21.33
27.640,-22.95
27.656,-24.0
27.671,-24.94
27.687,-26.23
27.703,-28.2
27.718,-30.94
27.734,-34.29
27.750,-37.91
27.765,-41.36
27.781,-44.26
27.796,-46.38
27.812,-47.7
27.828,-48.35
27.843,-48.44
27.859,-47.94
27.875,-46.59
27.890,-43.98
27.906,-39.76
27.921,-33.8
27.937,-26.32
27.953,-17.76
27.968,-8.69
27.984,0.43
28.000,9.34
28.015,17.91
28.031,26.08
28.046,33.72
28.062,40.69
28.078,46.85
28.093,52.17
28.109,56.71
28.125,60.55
28.140,63.71
28.156,66.05
28.171,67.32
28.187,67.26
28.203,65.81
28.218,63.12
28.234,59.59
28.250,55.76
28.265,52.05
28.281,48.7
28.296,45.64
28.312,42.54
28.328,38.95
28.343,34.53
28.359,29.16
28.375,23.07
28.390,16.73
28.406,10.67
28.421,5.24
28.437,0.49
28.453,-3.83
28.468,-8.12
28.484,-12.69
28.500,-17.61
28.515,-22.71
28.531,-27.63
28.546,-31.95
28.562,-35.27
28.578,-37.21
28.593,-37.5
28.609,-35.96
28.625,-32.65
28.640,-27.83
28.656,-21.88
28.671,-15.2
28.687,-8.07
28.703,-0.78
28.718,6.26
28.734,12.39
28.750,16.73
28.765,18.52
28.781,17.57
28.796,14.6
28.812,11.23
28.828,9.53
28.843,11.28
28.859,17.22
28.875,26.71
28.890,37.87
28.906,48.22
28.921,55.53
28.937,58.5
28.953,57.11
28.968,52.51
28.984,46.53
29.000,41.04
29.015,37.39
29.031,36.01
29.046,36.36
29.062,37.19
29.078,37.06
29.093,34.99
29.109,30.87
29.125,25.58
29.140,20.65
29.156,17.66
29.171,17.55
29.187,20.06
29.203,23.81
29.218,26.61
29.234,26.27
29.250,21.29
29.265,11.33
29.281,-2.64
29.296,-18.66
29.312,-34.28
29.328,-47.12
29.343,-55.43
29.359,-58.41
29.375,-56.25
29.390,-50.02
29.406,-41.3
29.421,-31.76
29.437,-22.89
29.453,-15.69
29.468,-10.69
29.484,-7.95
29.500,-7.13
29.515,-7.62
29.531,-8.7
29.546,-9.62
29.562,-9.79
29.578,-8.98
29.593,-7.3
29.609,-5.1
29.625,-2.87
29.640,-0.96
29.656,0.46
29.671,1.42
29.687,2.09
29.703,2.61
29.718,3.1
29.734,3.59
29.750,4.09
29.765,4.59
29.781,5.02
29.796,5.25
29.812,5.13
29.828,4.48
29.843,3.27
29.859,1.75
29.875,0.47
29.890,0.28
29.906,2.03
29.921,6.23
29.937,12.67
29.953,20.34
29.968,27.59
29.984,32.65
30.000,34.22
30.015,32.01
30.031,26.8
30.046,20.16
30.062,13.95
30.078,9.65
30.093,8.04
30.109,9.08
30.125,12.03
30.140,15.91
30.156,19.75
30.171,22.94
30.187,25.38
30.203,27.53
30.218,30.15
30.234,33.94
30.250,39.16
30.265,45.29
30.281,51.06
30.296,54.66
30.312,54.38
30.328,49.15
30.343,39.02
30.359,25.18
30.375,9.72
30.390,-5.05
30.406,-17.2
30.421,-25.66
30.437,-30.4
30.453,-32.17
30.468,-32.23
30.484,-31.84
30.500,-32.05
30.515,-33.49
30.531,-36.35
30.546,-40.43
30.562,-45.2
30.578,-49.91
30.593,-53.73
30.609,-55.97
30.625,-56.21
30.640,-54.52
30.656,-51.41
30.671,-47.72
30.687,-44.32
30.703,-41.88
30.718,-40.58
30.734,-40.03
30.750,-39.47
30.765,-37.97
30.781,-34.83
30.796,-29.77
30.812,-23.12
30.828,-15.69
30.843,-8.65
30.859,-3.2
30.875,-0.21
30.890,0.04
30.906,-1.96
30.921,-5.19
30.937,-8.4
30.953,-10.56
30.968,-11.2
30.984,-10.41
31.000,-8.64
31.015,-6.43
31.031,-4.17
31.046,-1.99
31.062,0.09
31.078,2.11
31.093,4.04
31.109,5.8
31.125,7.29
31.140,8.43
31.156,9.18
31.171,9.56
31.187,9.67
31.203,9.58
31.218,9.35
31.234,8.93
31.250,8.23
31.265,7.12
31.281,5.6
31.296,3.77
31.312,1.8
31.328,-0.16
31.343,-2.11
31.359,-4.15
31.375,-6.35
31.390,-8.68
31.406,-10.93
31.421,-12.77
31.437,-13.98
31.453,-14.56
31.468,-14.82
31.484,-15.25
31.500,-16.25
31.515,-17.94
31.531,-19.96
31.546,-21.57
31.562,-21.9
31.578,-20.26
31.593,-16.42
31.609,-10.79
31.625,-4.31
31.640,1.75
31.656,6.16
31.671,8.09
31.687,7.42
31.703,4.8
31.718,1.47
31.734,-1.11
31.750,-1.83
31.765,-0.26
31.781,3.25
31.796,7.79
31.812,12.28
31.828,15.88
31.843,18.17
31.859,19.15
31.875,19.12
31.890,18.5
31.906,17.76
31.921,17.34
31.937,17.64
31.953,18.83
31.968,20.81
31.984,23.18
32.000,25.34
32.015,26.75
32.031,27.11
32.046,26.46
32.062,25.14
32.078,23.56
32.093,22.02
32.109,20.5
32.125,18.59
32.140,15.67
32.156,11.11
32.171,4.59
32.187,-3.67
32.203,-12.91
32.218,-21.96
32.234,-29.54
32.250,-34.54
32.265,-36.35
32.281,-34.99
32.296,-31.04
32.312,-25.52
32.328,-19.53
32.343,-13.95
32.359,-9.18
32.375,-5.09
32.390,-1.15
32.406,3.22
32.421,8.33
32.437,13.96
32.453,19.43
32.468,23.88
32.484,26.63
32.500,27.42
32.515,26.55
32.531,24.7
32.546,22.72
32.562,21.44
32.578,21.46
32.593,22.99
32.609,25.82
32.625,29.18
32.640,31.96
32.656,32.88
32.671,31.02
32.687,26.18
32.703,19.09
32.718,11.32
32.734,4.83
32.750,1.29
32.765,1.57
32.781,5.43
32.796,11.48
32.812,17.59
32.828,21.37
32.843,20.76
32.859,14.62
32.875,2.98
32.890,-12.92
32.906,-30.97
32.921,-48.65
32.937,-63.73
32.953,-74.57
32.968,-80.48
32.984,-81.63
33.000,-78.82
33.015,-73.23
33.031,-66.08
33.046,-58.44
33.062,-51.02
33.078,-44.23
33.093,-38.15
33.109,-32.7
33.125,-27.71
33.140,-23.01
33.156,-18.51
33.171,-14.13
33.187,-9.89
33.203,-5.83
33.218,-2.07
33.234,1.27
33.250,4.03
33.265,6.09
33.281,7.44
33.296,8.1
33.312,8.17
33.328,7.74
33.343,6.82
33.359,5.39
33.375,3.44
33.390,1.02
33.406,-1.71
33.421,-4.51
33.437,-7.15
33.453,-9.44
33.468,-11.32
33.484,-12.79
33.500,-13.95
33.515,-14.93
33.531,-15.92
33.546,-17.1
33.562,-18.65
33.578,-20.68
33.593,-23.13
33.609,-25.82
33.625,-28.38
33.640,-30.42
33.656,-31.54
33.671,-31.54
33.687,-30.36
33.703,-28.14
33.718,-25.19
33.734,-21.87
33.750,-18.58
33.765,-15.63
33.781,-13.19
33.796,-11.29
33.812,-9.87
33.828,-8.75
33.843,-7.82
33.859,-6.95
33.875,-6.02
33.890,-4.98
33.906,-3.77
33.921,-2.37
33.937,-0.82
33.953,0.76
33.968,2.17
33.984,3.24
34.000,3.89
34.015,4.15
34.031,4.19
34.046,4.21
34.062,4.28
34.078,4.38
34.093,4.32
34.109,3.94
34.125,3.15
34.140,2.04
34.156,0.8
34.171,-0.4
34.187,-1.45
34.203,-2.39
34.218,-3.37
34.234,-4.55
34.250,-6.1
34.265,-8.08
34.281,-10.46
34.296,-13.11
34.312,-15.74
34.328,-17.95
34.343,-19.3
34.359,-19.44
34.375,-18.2
34.390,-15.63
34.406,-12.06
34.421,-7.93
34.437,-3.67
34.453,0.39
34.468,4.05
34.484,7.26
34.500,10.0
34.515,12.3
34.531,14.13
34.546,15.52
34.562,16.53
34.578,17.21
34.593,17.64
34.609,17.89
34.625,17.96
34.640,17.87
34.656,17.6
34.671,17.19
34.687,16.68
34.703,16.14
34.718,15.58
34.734,15.0
34.750,14.29
34.765,13.35
34.781,12.1
34.796,10.51
34.812,8.66
34.828,6.69
34.843,4.72
34.859,2.84
34.875,1.02
34.890,-0.8
34.906,-2.74
34.921,-4.86
34.937,-7.23
34.953,-9.86
34.968,-12.71
34.984,-15.67
35.000,-18.51
35.015,-20.88
35.031,-22.39
35.046,-22.67
35.062,-21.5
35.078,-18.94
35.093,-15.25
35.109,-10.88
35.125,-6.28
35.140,-1.79
35.156,2.44
35.171,6.41
35.187,10.22
35.203,13.91
35.218,17.4
35.234,20.55
35.250,23.17
35.265,25.19
35.281,26.68
35.296,27.8
35.312,28.76
35.328,29.67
35.343,30.57
35.359,31.42
35.375,32.14
35.390,32.68
35.406,33.06
35.421,33.27
35.437,33.34
35.453,33.27
35.468,33.08
35.484,32.77
35.500,32.37
35.515,31.88
35.531,31.29
35.546,30.52
35.562,29.46
35.578,27.92
35.593,25.72
35.609,22.68
35.625,18.73
35.640,13.9
35.656,8.37
35.671,2.45
35.687,-3.44
35.703,-8.84
35.718,-13.31
35.734,-16.48
35.750,-18.05
35.765,-17.81
35.781,-15.68
35.796,-11.7
35.812,-6.04
35.828,0.98
35.843,8.91
35.859,17.21
35.875,25.28
35.890,32.52
35.906,38.32
35.921,42.22
35.937,44.03
35.953,43.88
35.968,42.25
35.984,39.78
36.000,37.11
36.015,34.65
36.031,32.57
36.046,30.92
36.062,29.72
36.078,29.04
36.093,28.9
36.109,29.21
36.125,29.65
36.140,29.76
36.156,29.07
36.171,27.2
36.187,23.99
36.203,19.43
36.218,13.68
36.234,7.04
36.250,-0.04
36.265,-6.96
36.281,-13.08
36.296,-17.94
36.312,-21.48
36.328,-24.0
36.343,-26.17
36.359,-28.64
36.375,-31.83
36.390,-35.73
36.406,-39.89
36.421,-43.58
36.437,-46.08
36.453,-46.91
36.468,-46.1
36.484,-44.22
36.500,-42.2
36.515,-41.03
36.531,-41.37
36.546,-43.29
36.562,-46.18
36.578,-49.1
36.593,-51.09
36.609,-51.57
36.625,-50.56
36.640,-48.55
36.656,-46.15
36.671,-43.76
36.687,-41.42
36.703,-38.83
36.718,-35.61
36.734,-31.57
36.750,-26.85
36.765,-21.89
36.781,-17.29
36.796,-13.6
36.812,-11.16
36.828,-9.98
36.843,-9.83
36.859,-10.24
36.875,-10.71
36.890,-10.74
36.906,-10.03
36.921,-8.43
36.937,-6.09
36.953,-3.34
36.968,-0.69
36.984,1.41
37.000,2.75
37.015,3.48
37.031,4.14
37.046,5.45
37.062,7.99
37.078,11.83
37.093,16.38
37.109,20.56
37.125,23.27
37.140,23.93
37.156,22.9
37.171,21.46
37.187,21.44
37.203,24.53
37.218,31.57
37.234,42.18
37.250,54.84
37.265,67.34
37.281,77.43
37.296,83.47
37.312,84.63
37.328,80.9
37.343,72.91
37.359,61.77
37.375,49.04
37.390,36.55
37.406,26.14
37.421,19.1
37.437,15.71
37.453,15.02
37.468,15.2
37.484,14.37
37.500,11.55
37.515,7.12
37.531,2.52
37.546,-0.65
37.562,-1.8
37.578,-1.81
37.593,-2.68
37.609,-6.44
37.625,-13.96
37.640,-24.29
37.656,-34.95
37.671,-43.04
37.687,-46.39
37.703,-44.43
37.718,-38.28
37.734,-30.11
37.750,-22.37
37.765,-17.01
37.781,-15.12
37.796,-16.81
37.812,-21.32
37.828,-27.19
37.843,-32.57
37.859,-35.52
37.875,-34.53
37.890,-28.9
37.906,-19.03
37.921,-6.33
37.937,7.04
37.953,18.68
37.968,26.52
37.984,29.37
38.000,27.33
38.015,21.85
38.031,15.4
38.046,10.73
38.062,9.88
38.078,13.44
38.093,20.37
38.109,28.42
38.125,35.09
38.140,38.59
38.156,38.4
38.171,35.31
38.187,30.89
38.203,26.76
38.218,24.01
38.234,22.89
38.250,22.93
38.265,23.2
38.281,22.78
38.296,21.13
38.312,18.36
38.328,15.22
38.343,12.91
38.359,12.53
38.375,14.59
38.390,18.7
38.406,23.59
38.421,27.56
38.437,28.96
38.453,26.67
38.468,20.29
38.484,10.05
38.500,-3.35
38.515,-18.93
38.531,-35.49
38.546,-51.64
38.562,-65.84
38.578,-76.72
38.593,-83.35
38.609,-85.57
38.625,-84.02
38.640,-79.99
38.656,-74.95
38.671,-70.06
38.687,-65.78
38.703,-61.82
38.718,-57.31
38.734,-51.33
38.750,-43.29
38.765,-33.32
38.781,-22.2
38.796,-11.23
38.812,-1.83
38.828,4.76
38.843,7.91
38.859,7.75
38.875,5.22
38.890,1.89
38.906,-0.55
38.921,-0.82
38.937,1.47
38.953,5.75
38.968,10.85
38.984,15.48
39.000,18.93
39.015,21.32
39.031,23.46
39.046,26.43
39.062,31.03
39.078,37.35
39.093,44.6
39.109,51.31
39.125,55.76
39.140,56.47
39.156,52.75
39.171,44.87
39.187,34.0
39.203,21.85
39.218,10.17
39.234,0.33
39.250,-6.95
39.265,-11.64
39.281,-14.27
39.296,-15.63
39.312,-16.39
39.328,-16.82
39.343,-16.58
39.359,-14.85
39.375,-10.85
39.390,-4.39
39.406,3.74
39.421,11.81
39.437,17.8
39.453,20.29
39.468,19.12
39.484,15.53
39.500,11.6
39.515,9.35
39.531,9.89
39.546,13.08
39.562,17.73
39.578,22.1
39.593,24.59
39.609,24.18
39.625,20.72
39.640,14.9
39.656,8.05
39.671,1.77
39.687,-2.56
39.703,-4.22
39.718,-3.27
39.734,-0.5
39.750,2.91
39.765,5.85
39.781,7.48
39.796,7.41
39.812,5.62
39.828,2.43
39.843,-1.63
39.859,-5.9
39.875,-9.91
39.890,-13.56
39.906,-17.26
39.921,-21.64
39.937,-27.07
39.953,-33.19
39.968,-38.69
39.984,-41.66
40.000,-40.36
40.015,-33.98
40.031,-23.13
40.046,-9.67
40.062,4.01
40.078,15.94
40.093,25.23
40.109,32.34
40.125,38.52
40.140,45.04
40.156,52.39
40.171,60.08
40.187,66.9
40.203,71.56
40.218,73.33
40.234,72.18
40.250,68.47
40.265,62.56
40.281,54.46
40.296,44.01
40.312,31.35
40.328,17.33
40.343,3.5
40.359,-8.3
40.375,-16.7
40.390,-21.25
40.406,-22.49
40.421,-21.59
40.437,-19.73
40.453,-17.72
40.468,-15.94
40.484,-14.53
40.500,-13.66
40.515,-13.7
40.531,-15.03
40.546,-17.91
40.562,-22.18
40.578,-27.26
40.593,-32.27
40.609,-36.35
40.625,-38.94
40.640,-39.97
40.656,-39.91
40.671,-39.53
40.687,-39.63
40.703,-40.71
40.718,-42.82
40.734,-45.5
40.750,-48.0
40.765,-49.49
40.781,-49.26
40.796,-46.81
40.812,-41.82
40.828,-34.14
40.843,-23.83
40.859,-11.35
40.875,2.23
40.890,15.23
40.906,25.55
40.921,31.18
40.937,30.93
40.953,24.88
40.968,14.42
40.984,1.86
41.000,-10.36
41.015,-20.37
41.031,-27.34
41.046,-31.47
41.062,-33.63
41.078,-34.86
41.093,-35.97
41.109,-37.4
41.125,-39.28
41.140,-41.49
41.156,-43.87
41.171,-46.2
41.187,-48.25
41.203,-49.68
41.218,-50.14
41.234,-49.25
41.250,-46.85
41.265,-43.07
41.281,-38.41
41.296,-33.66
41.312,-29.66
41.328,-27.04
41.343,-26.0
41.359,-26.22
41.375,-26.96
41.390,-27.38
41.406,-26.76
41.421,-24.74
41.437,-21.41
41.453,-17.12
41.468,-12.37
41.484,-7.6
41.500,-3.11
41.515,0.99
41.531,4.7
41.546,8.02
41.562,10.94
41.578,13.37
41.593,15.22
41.609,16.38
41.625,16.88
41.640,16.84
41.656,16.44
41.671,15.87
41.687,15.18
41.703,14.31
41.718,13.1
41.734,11.5
41.750,9.63
41.765,7.8
41.781,6.42
41.796,5.76
41.812,5.77
41.828,6.09
41.843,6.14
41.859,5.42
41.875,3.72
41.890,1.24
41.906,-1.5
41.921,-3.89
41.937,-5.43
41.953,-6.01
41.968,-5.93
41.984,-5.78
42.000,-6.19
42.015,-7.62
42.031,-10.08
42.046,-13.14
42.062,-15.87
42.078,-17.15
42.093,-15.86
42.109,-11.25
42.125,-3.19
42.140,7.69
42.156,19.99
42.171,31.93
42.187,41.78
42.203,48.46
42.218,51.88
42.234,52.96
42.250,53.25
42.265,54.2
42.281,56.6
42.296,60.2
42.312,63.96
42.328,66.61
42.343,67.3
42.359,66.04
42.375,63.57
42.390,60.92
42.406,58.84
42.421,57.36
42.437,55.86
42.453,53.43
42.468,49.41
42.484,43.79
42.500,37.29
42.515,31.15
42.531,26.58
42.546,24.38
42.562,24.67
42.578,26.88
42.593,30.06
42.609,33.0
42.625,34.53
42.640,33.51
42.656,28.97
42.671,20.33
42.687,7.66
42.703,-8.07
42.718,-25.04
42.734,-40.97
42.750,-53.73
42.765,-61.91
42.781,-65.22
42.796,-64.32
42.812,-60.45
42.828,-54.9
42.843,-48.67
42.859,-42.4
42.875,-36.47
42.890,-31.12
42.906,-26.56
42.921,-22.9
42.937,-20.22
42.953,-18.51
42.968,-17.72
42.984,-17.74
43.000,-18.34
43.015,-19.08
43.031,-19.44
43.046,-19.08
43.062,-18.11
43.078,-17.28
43.093,-17.69
43.109,-20.27
43.125,-25.14
43.140,-31.32
43.156,-36.97
43.171,-40.13
43.187,-39.47
43.203,-34.78
43.218,-26.88
43.234,-17.16
43.250,-7.1
43.265,1.99
43.281,8.97
43.296,12.82
43.312,12.76
43.328,8.63
43.343,1.22
43.359,-7.65
43.375,-15.54
43.390,-20.18
43.406,-20.3
43.421,-16.13
43.437,-9.29
43.453,-2.24
43.468,2.67
43.484,3.97
43.500,1.54
43.515,-3.42
43.531,-8.84
43.546,-12.61
43.562,-13.28
43.578,-10.55
43.593,-5.38
43.609,0.36
43.625,4.51
43.640,5.39
43.656,2.48
43.671,-3.37
43.687,-10.18
43.703,-15.54
43.718,-17.5
43.734,-15.32
43.750,-9.7
43.765,-2.47
43.781,4.18
43.796,8.56
43.812,10.12
43.828,9.62
43.843,8.64
43.859,8.88
43.875,11.5
43.890,16.69
43.906,23.71
43.921,31.1
43.937,37.2
43.953,40.68
43.968,40.91
43.984,38.1
44.000,33.1
44.015,27.01
44.031,20.65
44.046,14.29
44.062,7.67
44.078,0.35
44.093,-7.82
44.109,-16.35
44.125,-24.15
44.140,-29.82
44.156,-32.19
44.171,-30.71
44.187,-25.57
44.203,-17.7
44.218,-8.52
44.234,0.32
44.250,7.24
44.265,11.17
44.281,11.85
44.296,10.04
44.312,7.23
44.328,5.18
44.343,5.19
44.359,7.73
44.375,12.32
44.390,17.87
44.406,23.14
44.421,27.2
44.437,29.51
44.453,29.94
44.468,28.49
44.484,25.31
44.500,20.67
44.515,15.04
44.531,9.09
44.546,3.51
44.562,-1.18
44.578,-4.91
44.593,-8.02
44.609,-11.1
44.625,-14.65
44.640,-18.71
44.656,-22.87
44.671,-26.25
44.687,-27.99
44.703,-27.56
44.718,-25.06
44.734,-21.14
44.750,-16.75
44.765,-12.7
44.781,-9.41
44.796,-6.84
44.812,-4.57
44.828,-2.13
44.843,0.76
44.859,3.98
44.875,7.04
44.890,9.18
44.906,9.68
44.921,8.2
44.937,5.05
44.953,1.24
44.968,-1.7
44.984,-2.18
45.000,0.87
45.015,7.67
45.031,17.35
45.046,28.16
45.062,37.91
45.078,44.55
45.093,46.78
45.109,44.5
45.125,38.87
45.140,32.02
45.156,26.39
45.171,23.93
45.187,25.42
45.203,30.17
45.218,36.17
45.234,40.61
45.250,40.75
45.265,34.7
45.281,22.09
45.296,4.27
45.312,-15.87
45.328,-34.64
45.343,-48.59
45.359,-55.5
45.375,-55.05
45.390,-48.78
45.406,-39.43
45.421,-29.92
45.437,-22.37
45.453,-17.55
45.468,-14.89
45.484,-12.96
45.500,-10.2
45.515,-5.59
45.531,0.88
45.546,8.14
45.562,14.38
45.578,17.7
45.593,16.81
45.609,11.5
45.625,2.78
45.640,-7.47
45.656,-17.1
45.671,-24.28
45.687,-27.91
45.703,-27.81
45.718,-24.49
45.734,-18.99
45.750,-12.53
45.765,-6.33
45.781,-1.43
45.796,1.55
45.812,2.4
45.828,1.48
45.843,-0.42
45.859,-2.25
45.875,-2.96
45.890,-1.79
45.906,1.47
45.921,6.43
45.937,12.26
45.953,17.98
45.968,22.91
45.984,26.93
46.000,30.59
46.015,34.81
46.031,40.46
46.046,47.93
46.062,56.9
46.078,66.51
46.093,75.63
46.109,83.3
46.125,88.87
46.140,91.97
46.156,92.25
46.171,89.21
46.187,82.34
46.203,71.36
46.218,56.73
46.234,39.84
46.250,22.82
46.265,7.95
46.281,-3.03
46.296,-9.42
46.312,-11.65
46.328,-10.94
46.343,-8.89
46.359,-7.03
46.375,-6.65
46.390,-8.58
46.406,-13.04
46.421,-19.56
46.437,-26.94
46.453,-33.66
46.468,-38.45
46.484,-40.85
46.500,-41.46
46.515,-41.68
46.531,-43.04
46.546,-46.53
46.562,-52.17
46.578,-59.05
46.593,-65.88
46.609,-71.47
46.625,-75.16
46.640,-76.88
46.656,-76.98
46.671,-75.94
46.687,-74.12
46.703,-71.74
46.718,-68.89
46.734,-65.66
46.750,-62.17
46.765,-58.56
46.781,-54.9
46.796,-51.17
46.812,-47.21
46.828,-42.85
46.843,-38.03
46.859,-32.89
46.875,-27.74
46.890,-22.97
46.906,-18.88
46.921,-15.62
46.937,-13.14
46.953,-11.22
46.968,-9.53
46.984,-7.71
47.000,-5.49
47.015,-2.8
47.031,0.25
47.046,3.31
47.062,5.97
47.078,7.87
47.093,8.85
47.109,8.95
47.125,8.36
47.140,7.26
47.156,5.74
47.171,3.84
47.187,1.56
47.203,-1.02
47.218,-3.74
47.234,-6.44
47.250,-9.01
47.265,-11.46
47.281,-13.84
47.296,-16.11
47.312,-18.13
47.328,-19.57
47.343,-20.04
47.359,-19.19
47.375,-16.81
47.390,-12.9
47.406,-7.69
47.421,-1.68
47.437,4.55
47.453,10.41
47.468,15.5
47.484,19.63
47.500,22.86
47.515,25.37
47.531,27.43
47.546,29.28
47.562,31.15
47.578,33.25
47.593,35.66
47.609,38.29
47.625,40.77
47.640,42.53
47.656,42.97
47.671,41.74
47.687,38.81
47.703,34.58
47.718,29.68
47.734,24.78
47.750,20.41
47.765,16.85
47.781,14.18
47.796,12.28
47.812,10.92
47.828,9.71
47.843,8.23
47.859,6.04
47.875,2.9
47.890,-1.2
47.906,-5.96
47.921,-10.96
47.937,-15.71
47.953,-19.88
47.968,-23.26
47.984,-25.71
48.000,-27.1
48.015,-27.25
48.031,-26.05
48.046,-23.52
48.062,-19.95
48.078,-15.75
48.093,-11.38
48.109,-7.17
48.125,-3.2
48.140,0.59
48.156,4.34
48.171,8.12
48.187,11.94
48.203,15.71
48.218,19.36
48.234,22.79
48.250,25.9
48.265,28.53
48.281,30.49
48.296,31.67
48.312,32.06
48.328,31.74
48.343,30.89
48.359,29.71
48.375,28.37
48.390,26.98
48.406,25.65
48.421,24.48
48.437,23.54
48.453,22.82
48.468,22.26
48.484,21.69
48.500,20.9
48.515,19.69
48.531,17.87
48.546,15.32
48.562,11.99
48.578,7.94
48.593,3.34
48.609,-1.54
48.625,-6.36
48.640,-10.76
48.656,-14.44
48.671,-17.13
48.687,-18.57
48.703,-18.59
48.718,-17.13
48.734,-14.3
48.750,-10.46
48.765,-6.12
48.781,-1.79
48.796,2.12
48.812,5.46
48.828,8.28
48.843,10.73
48.859,12.9
48.875,14.74
48.890,16.08
48.906,16.77
48.921,16.77
48.937,16.21
48.953,15.29
48.968,14.23
48.984,13.19
49.000,12.24
49.015,11.4
49.031,10.73
49.046,10.23
49.062,9.87
49.078,9.48
49.093,8.86
49.109,7.81
49.125,6.31
49.140,4.49
49.156,2.65
49.171,1.08
49.187,-0.07
49.203,-0.88
49.218,-1.6
49.234,-2.58
49.250,-4.06
49.265,-6.11
49.281,-8.62
49.296,-11.33
49.312,-13.88
49.328,-15.97
49.343,-17.3
49.359,-17.67
49.375,-16.98
49.390,-15.2
49.406,-12.46
49.421,-9.0
49.437,-5.15
49.453,-1.29
49.468,2.28
49.484,5.35
49.500,7.88
49.515,9.91
49.531,11.49
49.546,12.67
49.562,13.43
49.578,13.73
49.593,13.54
49.609,12.89
49.625,11.87
49.640,10.65
49.656,9.38
49.671,8.21
49.687,7.28
49.703,6.63
49.718,6.25
49.734,6.06
49.750,5.91
49.765,5.59
49.781,4.92
49.796,3.8
49.812,2.24
49.828,0.33
49.843,-1.73
49.859,-3.78
49.875,-5.66
49.890,-7.33
49.906,-8.83
49.921,-10.26
49.937,-11.79
49.953,-13.56
49.968,-15.68
49.984,-18.07
50.000,-20.52
50.015,-22.61
50.031,-23.86
50.046,-23.81
50.062,-22.28
50.078,-19.41
50.093,-15.64
50.109,-11.54
50.125,-7.56
50.140,-3.91
50.156,-0.54
50.171,2.71
50.187,5.94
50.203,9.05
50.218,11.78
50.234,13.88
50.250,15.2
50.265,15.83
50.281,16.0
50.296,15.89
50.312,15.6
50.328,15.05
50.343,14.16
50.359,12.92
50.375,11.48
50.390,10.09
50.406,8.98
50.421,8.25
50.437,7.86
50.453,7.67
50.468,7.57
50.484,7.6
50.500,7.87
50.515,8.46
50.531,9.37
50.546,10.43
50.562,11.36
50.578,11.9
50.593,11.86
50.609,11.15
50.625,9.82
50.640,7.94
50.656,5.69
50.671,3.28
50.687,1.05
50.703,-0.62
50.718,-1.37
50.734,-1.02
50.750,0.38
50.765,2.48
50.781,4.79
50.796,6.76
50.812,8.08
50.828,8.76
50.843,9.08
50.859,9.48
50.875,10.34
50.890,11.75
50.906,13.51
50.921,15.19
50.937,16.37
50.953,16.8
50.968,16.52
50.984,15.79
51.000,14.97
51.015,14.33
51.031,13.95
51.046,13.76
51.062,13.59
51.078,13.25
51.093,12.67
51.109,11.83
51.125,10.78
51.140,9.56
51.156,8.2
51.171,6.69
51.187,5.02
51.203,3.22
51.218,1.33
51.234,-0.62
51.250,-2.66
51.265,-4.86
51.281,-7.35
51.296,-10.18
51.312,-13.33
51.328,-16.65
51.343,-19.95
51.359,-22.99
51.375,-25.58
51.390,-27.56
51.406,-28.79
51.421,-29.12
51.437,-28.47
51.453,-26.82
51.468,-24.32
51.484,-21.25
51.500,-17.97
51.515,-14.74
51.531,-11.68
51.546,-8.73
51.562,-5.76
51.578,-2.73
51.593,0.27
51.609,2.98
51.625,5.15
51.640,6.63
51.656,7.47
51.671,7.88
51.687,8.1
51.703,8.34
51.718,8.62
51.734,8.83
51.750,8.85
51.765,8.58
51.781,8.02
51.796,7.3
51.812,6.55
51.828,5.9
51.843,5.43
51.859,5.1
51.875,4.8
51.890,4.39
51.906,3.73
51.921,2.74
51.937,1.47
51.953,0.05
51.968,-1.31
51.984,-2.45
52.000,-3.29
52.015,-3.94
52.031,-4.65
52.046,-5.71
52.062,-7.33
52.078,-9.48
52.093,-11.91
52.109,-14.21
52.125,-15.96
52.140,-16.84
52.156,-16.73
52.171,-15.68
52.187,-13.86
52.203,-11.49
52.218,-8.77
52.234,-5.91
52.250,-3.1
52.265,-0.48
52.281,1.82
52.296,3.76
52.312,5.32
52.328,6.55
52.343,7.47
52.359,8.09
52.375,8.43
52.390,8.48
52.406,8.24
52.421,7.73
52.437,7.05
52.453,6.3
52.468,5.58
52.484,4.91
52.500,4.22
52.515,3.4
52.531,2.38
52.546,1.22
52.562,0.02
52.578,-1.04
52.593,-1.93
52.609,-2.69
52.625,-3.49
52.640,-4.47
52.656,-5.67
52.671,-7.03
52.687,-8.42
52.703,-9.71
52.718,-10.87
52.734,-11.97
52.750,-13.11
52.765,-14.43
52.781,-16.02
52.796,-17.91
52.812,-20.01
52.828,-22.13
52.843,-23.94
52.859,-25.13
52.875,-25.45
52.890,-24.75
52.906,-23.05
52.921,-20.46
52.937,-17.19
52.953,-13.5
52.968,-9.65
52.984,-5.89
53.000,-2.41
53.015,0.66
53.031,3.26
53.046,5.36
53.062,6.95
53.078,8.08
53.093,8.84
53.109,9.41
53.125,9.99
53.140,10.69
53.156,11.51
53.171,12.29
53.187,12.79
53.203,12.84
53.218,12.4
53.234,11.57
53.250,10.54
53.265,9.48
53.281,8.46
53.296,7.45
53.312,6.39
53.328,5.17
53.343,3.79
53.359,2.28
53.375,0.71
53.390,-0.84
53.406,-2.33
53.421,-3.75
53.437,-5.16
53.453,-6.63
53.468,-8.25
53.484,-10.11
53.500,-12.27
53.515,-14.77
53.531,-17.55
53.546,-20.46
53.562,-23.17
53.578,-25.27
53.593,-26.33
53.609,-26.09
53.625,-24.57
53.640,-22.09
53.656,-19.15
53.671,-16.24
53.687,-13.64
53.703,-11.4
53.718,-9.38
53.734,-7.43
53.750,-5.51
53.765,-3.75
53.781,-2.35
53.796,-1.43
53.812,-0.92
53.828,-0.56
53.843,-0.03
53.859,0.96
53.875,2.46
53.890,4.31
53.906,6.18
53.921,7.74
53.937,8.73
53.953,9.11
53.968,8.95
53.984,8.43
54.000,7.7
54.015,6.86
54.031,5.93
54.046,4.86
54.062,3.63
54.078,2.2
54.093,0.61
54.109,-1.07
54.125,-2.73
54.140,-4.28
54.156,-5.66
54.171,-6.83
54.187,-7.86
54.203,-8.82
54.218,-9.83
54.234,-10.99
54.250,-12.31
54.265,-13.67
54.281,-14.84
54.296,-15.51
54.312,-15.41
54.328,-14.39
54.343,-12.54
54.359,-10.1
54.375,-7.39
54.390,-4.69
54.406,-2.14
54.421,0.26
54.437,2.58
54.453,4.88
54.468,7.17
54.484,9.37
54.500,11.41
54.515,13.22
54.531,14.76
54.546,16.03
54.562,17.02
54.578,17.7
54.593,18.09
54.609,18.21
54.625,18.16
54.640,18.04
54.656,17.93
54.671,17.83
54.687,17.65
54.703,17.31
54.718,16.69
54.734,15.78
54.750,14.58
54.765,13.06
54.781,11.18
54.796,8.93
54.812,6.35
54.828,3.61
54.843,0.97
54.859,-1.32
54.875,-3.12
54.890,-4.46
54.906,-5.53
54.921,-6.53
54.937,-7.65
54.953,-8.95
54.968,-10.39
54.984,-11.86
55.000,-13.17
55.015,-14.1
55.031,-14.43
55.046,-13.94
55.062,-12.54
55.078,-10.29
55.093,-7.41
55.109,-4.23
55.125,-1.07
55.140,1.9
55.156,4.62
55.171,7.16
55.187,9.58
55.203,11.9
55.218,14.04
55.234,15.88
55.250,17.31
55.265,18.23
55.281,18.56
55.296,18.26
55.312,17.29
55.328,15.68
55.343,13.58
55.359,11.23
55.375,8.92
55.390,6.93
55.406,5.46
55.421,4.64
55.437,4.52
55.453,5.11
55.468,6.28
55.484,7.8
55.500,9.34
55.515,10.54
55.531,11.13
55.546,11.05
55.562,10.32
55.578,9.02
55.593,7.2
55.609,4.81
55.625,1.83
55.640,-1.7
55.656,-5.68
55.671,-9.95
55.687,-14.38
55.703,-18.81
55.718,-23.13
55.734,-27.15
55.750,-30.63
55.765,-33.34
55.781,-35.04
55.796,-35.63
55.812,-35.13
55.828,-33.65
55.843,-31.33
55.859,-28.35
55.875,-24.89
55.890,-21.09
55.906,-17.17
55.921,-13.33
55.937,-9.83
55.953,-6.91
55.968,-4.77
55.984,-3.51
56.000,-3.05
56.015,-3.14
56.031,-3.43
56.046,-3.56
56.062,-3.25
56.078,-2.36
56.093,-0.87
56.109,1.13
56.125,3.45
56.140,5.85
56.156,8.08
56.171,9.94
56.187,11.33
56.203,12.33
56.218,13.1
56.234,13.82
56.250,14.58
56.265,15.26
56.281,15.57
56.296,15.21
56.312,14.03
56.328,12.07
56.343,9.55
56.359,6.74
56.375,3.8
56.390,0.7
56.406,-2.72
56.421,-6.67
56.437,-11.15
56.453,-15.95
56.468,-20.6
56.484,-24.43
56.500,-26.68
56.515,-26.57
56.531,-23.57
56.546,-17.52
56.562,-8.94
56.578,0.95
56.593,10.43
56.609,17.73
56.625,21.66
56.640,22.06
56.656,19.85
56.671,16.69
56.687,14.32
56.703,13.96
56.718,15.92
56.734,19.7
56.750,24.27
56.765,28.58
56.781,31.93
56.796,34.11
56.812,35.37
56.828,36.25
56.843,37.34
56.859,39.07
56.875,41.51
56.890,44.3
56.906,46.63
56.921,47.53
56.937,46.12
56.953,42.03
56.968,35.52
56.984,27.47
57.000,19.05
57.015,11.31
57.031,4.78
57.046,-0.67
57.062,-5.67
57.078,-10.9
57.093,-16.67
57.109,-22.59
57.125,-27.72
57.140,-30.97
57.156,-31.56
57.171,-29.48
57.187,-25.45
57.203,-20.71
57.218,-16.52
57.234,-13.66
57.250,-12.27
57.265,-11.87
57.281,-11.64
57.296,-10.85
57.312,-9.11
57.328,-6.51
57.343,-3.39
57.359,-0.08
57.375,3.22
57.390,6.56
57.406,9.96
57.421,13.26
57.437,15.94
57.453,17.27
57.468,16.6
57.484,13.69
57.500,8.87
57.515,3.0
57.531,-2.9
57.546,-7.97
57.562,-11.8
57.578,-14.44
57.593,-16.27
57.609,-17.73
57.625,-19.07
57.640,-20.26
57.656,-21.06
57.671,-21.21
57.687,-20.66
57.703,-19.66
57.718,-18.7
57.734,-18.29
57.750,-18.67
57.765,-19.79
57.781,-21.25
57.796,-22.58
57.812,-23.43
57.828,-23.7
57.843,-23.53
57.859,-23.16
57.875,-22.85
57.890,-22.82
57.906,-23.23
57.921,-24.18
57.937,-25.68
57.953,-27.53
57.968,-29.31
57.984,-30.44
58.000,-30.36
58.015,-28.72
58.031,-25.51
58.046,-21.08
58.062,-15.96
58.078,-10.71
58.093,-5.75
58.109,-1.29
58.125,2.63
58.140,6.11
58.156,9.24
58.171,12.09
58.187,14.69
58.203,16.97
58.218,18.81
58.234,20.14
58.250,20.89
58.265,21.1
58.281,20.86
58.296,20.29
58.312,19.55
58.328,18.71
58.343,17.88
58.359,17.07
58.375,16.32
58.390,15.6
58.406,14.88
58.421,14.09
58.437,13.18
58.453,12.09
58.468,10.77
58.484,9.12
58.500,7.09
58.515,4.62
58.531,1.78
58.546,-1.27
58.562,-4.31
58.578,-7.13
58.593,-9.65
58.609,-11.94
58.625,-14.19
58.640,-16.62
58.656,-19.39
58.671,-22.53
58.687,-25.88
58.703,-29.15
58.718,-31.99
58.734,-34.04
58.750,-35.07
58.765,-34.93
58.781,-33.67
58.796,-31.45
58.812,-28.5
58.828,-25.06
58.843,-21.32
58.859,-17.44
58.875,-13.5
58.890,-9.66
58.906,-6.08
58.921,-3.02
58.937,-0.68
58.953,0.88
58.968,1.92
58.984,3.05
59.000,5.04
59.015,8.7
59.031,14.45
59.046,22.06
59.062,30.55
59.078,38.34
59.093,43.7
59.109,45.31
59.125,42.85
59.140,37.21
59.156,30.25
59.171,24.19
59.187,20.86
59.203,21.07
59.218,24.43
59.234,29.56
59.250,34.65
59.265,38.02
59.281,38.6
59.296,36.08
59.312,30.88
59.328,23.98
59.343,16.63
59.359,10.04
59.375,5.09
59.390,2.0
59.406,0.33
59.421,-0.93
59.437,-2.76
59.453,-5.67
59.468,-9.26
59.484,-12.28
59.500,-13.11
59.515,-10.49
59.531,-4.16
59.546,4.9
59.562,14.77
59.578,23.3
59.593,28.89
59.609,31.13
59.625,30.86
59.640,29.71
59.656,29.49
59.671,31.49
59.687,36.16
59.703,43.11
59.718,51.36
59.734,59.49
59.750,65.86
59.765,68.73
59.781,66.54
59.796,58.4
59.812,44.6
59.828,26.86
59.843,8.14
59.859,-8.14
59.875,-19.11
59.890,-23.32
59.906,-21.14
59.921,-14.51
59.937,-6.3
59.953,0.46
59.968,3.27
59.984,0.72
