timestamp,value
00.000,12.29
00.015,10.52
00.031,8.63
00.046,6.8
00.062,5.25
00.078,4.14
00.093,3.57
00.109,3.4
00.125,3.46
00.140,3.51
00.156,3.38
00.171,3.09
00.187,2.75
00.203,2.46
00.218,2.24
00.234,2.06
00.250,1.77
00.265,1.36
00.281,0.8
00.296,0.08
00.312,-0.73
00.328,-1.6
00.343,-2.42
00.359,-3.15
00.375,-3.59
00.390,-3.63
00.406,-3.14
00.421,-2.11
00.437,-0.72
00.453,0.82
00.468,2.23
00.484,3.31
00.500,4.02
00.515,4.4
00.531,4.59
00.546,4.72
00.562,4.88
00.578,5.08
00.593,5.35
00.609,5.62
00.625,5.8
00.640,5.88
00.656,5.72
00.671,5.29
00.687,4.56
00.703,3.51
00.718,2.21
00.734,0.85
00.750,-0.46
00.765,-1.6
00.781,-2.45
00.796,-3.09
00.812,-3.52
00.828,-3.82
00.843,-3.97
00.859,-3.94
00.875,-3.61
00.890,-3.0
00.906,-2.24
00.921,-1.45
00.937,-0.87
00.953,-0.56
00.968,-0.58
00.984,-0.85
01.000,-1.26
01.015,-1.71
01.031,-2.13
01.046,-2.44
01.062,-2.63
01.078,-2.77
01.093,-2.85
01.109,-2.95
01.125,-3.13
01.140,-3.31
01.156,-3.46
01.171,-3.47
01.187,-3.22
01.203,-2.62
01.218,-1.78
01.234,-0.83
01.250,0.09
01.265,0.86
01.281,1.5
01.296,1.97
01.312,2.26
01.328,2.34
01.343,2.29
01.359,2.11
01.375,1.9
01.390,1.79
01.406,1.79
01.421,1.89
01.437,1.94
01.453,1.87
01.468,1.66
01.484,1.38
01.500,1.12
01.515,0.96
01.531,0.97
01.546,1.05
01.562,1.2
01.578,1.28
01.593,1.23
01.609,1.07
01.625,0.81
01.640,0.53
01.656,0.31
01.671,0.22
01.687,0.14
01.703,0.05
01.718,-0.18
01.734,-0.63
01.750,-1.28
01.765,-2.14
01.781,-3.1
01.796,-4.09
01.812,-4.98
01.828,-5.8
01.843,-6.44
01.859,-6.97
01.875,-7.38
01.890,-7.64
01.906,-7.76
01.921,-7.64
01.937,-7.19
01.953,-6.37
01.968,-5.2
01.984,-3.69
02.000,-2.05
02.015,-0.52
02.031,0.71
02.046,1.53
02.062,1.97
02.078,2.17
02.093,2.29
02.109,2.4
02.125,2.53
02.140,2.61
02.156,2.52
02.171,2.21
02.187,1.65
02.203,0.89
02.218,0.04
02.234,-0.83
02.250,-1.56
02.265,-2.08
02.281,-2.26
02.296,-2.09
02.312,-1.62
02.328,-1.02
02.343,-0.44
02.359,-0.03
02.375,0.1
02.390,-0.01
02.406,-0.36
02.421,-0.89
02.437,-1.57
02.453,-2.4
02.468,-3.38
02.484,-4.41
02.500,-5.39
02.515,-6.18
02.531,-6.68
02.546,-6.87
02.562,-6.85
02.578,-6.74
02.593,-6.6
02.609,-6.47
02.625,-6.25
02.640,-5.87
02.656,-5.29
02.671,-4.59
02.687,-3.85
02.703,-3.21
02.718,-2.71
02.734,-2.3
02.750,-1.79
02.765,-1.06
02.781,-0.04
02.796,1.23
02.812,2.54
02.828,3.79
02.843,4.88
02.859,5.86
02.875,6.74
02.890,7.6
02.906,8.4
02.921,9.04
02.937,9.38
02.953,9.29
02.968,8.71
02.984,7.69
03.000,6.32
03.015,4.74
03.031,3.2
03.046,1.94
03.062,1.16
03.078,0.93
03.093,1.19
03.109,1.83
03.125,2.68
03.140,3.61
03.156,4.52
03.171,5.35
03.187,6.07
03.203,6.61
03.218,6.96
03.234,7.05
03.250,6.92
03.265,6.56
03.281,5.97
03.296,5.25
03.312,4.42
03.328,3.53
03.343,2.61
03.359,1.69
03.375,0.66
03.390,-0.5
03.406,-1.86
03.421,-3.47
03.437,-5.23
03.453,-6.96
03.468,-8.46
03.484,-9.41
03.500,-9.58
03.515,-8.93
03.531,-7.51
03.546,-5.61
03.562,-3.54
03.578,-1.57
03.593,0.08
03.609,1.33
03.625,2.16
03.640,2.6
03.656,2.65
03.671,2.43
03.687,2.02
03.703,1.57
03.718,1.19
03.734,0.88
03.750,0.61
03.765,0.3
03.781,-0.14
03.796,-0.76
03.812,-1.53
03.828,-2.4
03.843,-3.34
03.859,-4.25
03.875,-5.16
03.890,-5.97
03.906,-6.55
03.921,-6.84
03.937,-6.87
03.953,-6.61
03.968,-6.15
03.984,-5.6
04.000,-4.98
04.015,-4.41
04.031,-3.95
04.046,-3.59
04.062,-3.39
04.078,-3.42
04.093,-3.74
04.109,-4.48
04.125,-5.69
04.140,-7.37
04.156,-9.44
04.171,-11.56
04.187,-13.36
04.203,-14.44
04.218,-14.56
04.234,-13.7
04.250,-12.08
04.265,-10.02
04.281,-7.85
04.296,-5.82
04.312,-4.08
04.328,-2.69
04.343,-1.7
04.359,-1.1
04.375,-0.85
04.390,-0.88
04.406,-1.04
04.421,-1.16
04.437,-1.17
04.453,-1.04
04.468,-0.83
04.484,-0.55
04.500,-0.14
04.515,0.4
04.531,1.02
04.546,1.61
04.562,2.04
04.578,2.24
04.593,2.29
04.609,2.22
04.625,2.24
04.640,2.41
04.656,2.67
04.671,2.96
04.687,3.18
04.703,3.24
04.718,3.1
04.734,2.8
04.750,2.24
04.765,1.47
04.781,0.48
04.796,-0.75
04.812,-2.09
04.828,-3.46
04.843,-4.75
04.859,-5.84
04.875,-6.68
04.890,-7.34
04.906,-7.91
04.921,-8.52
04.937,-9.35
04.953,-10.38
04.968,-11.52
04.984,-12.55
05.000,-13.16
05.015,-13.06
05.031,-12.09
05.046,-10.28
05.062,-7.84
05.078,-5.19
05.093,-2.66
05.109,-0.57
05.125,0.93
05.140,1.79
05.156,2.04
05.171,1.84
05.187,1.35
05.203,0.75
05.218,0.12
05.234,-0.41
05.250,-0.86
05.265,-1.21
05.281,-1.43
05.296,-1.56
05.312,-1.59
05.328,-1.54
05.343,-1.4
05.359,-1.21
05.375,-0.96
05.390,-0.72
05.406,-0.58
05.421,-0.62
05.437,-0.92
05.453,-1.51
05.468,-2.26
05.484,-3.04
05.500,-3.72
05.515,-4.25
05.531,-4.77
05.546,-5.38
05.562,-6.19
05.578,-7.19
05.593,-8.3
05.609,-9.39
05.625,-10.29
05.640,-10.83
05.656,-10.85
05.671,-10.24
05.687,-8.97
05.703,-7.16
05.718,-5.01
05.734,-2.78
05.750,-0.59
05.765,1.56
05.781,3.9
05.796,6.52
05.812,9.44
05.828,12.38
05.843,15.01
05.859,16.94
05.875,18.02
05.890,18.22
05.906,17.66
05.921,16.61
05.937,15.09
05.953,13.18
05.968,10.96
05.984,8.55
06.000,6.11
06.015,3.91
06.031,2.06
06.046,0.62
06.062,-0.47
06.078,-1.27
06.093,-1.84
06.109,-2.08
06.125,-1.92
06.140,-1.3
06.156,-0.27
06.171,1.0
06.187,2.31
06.203,3.43
06.218,4.2
06.234,4.66
06.250,4.8
06.265,4.67
06.281,4.3
06.296,3.64
06.312,2.66
06.328,1.4
06.343,-0.06
06.359,-1.65
06.375,-3.16
06.390,-4.51
06.406,-5.71
06.421,-6.67
06.437,-7.43
06.453,-7.99
06.468,-8.35
06.484,-8.54
06.500,-8.73
06.515,-8.98
06.531,-9.34
06.546,-9.8
06.562,-10.2
06.578,-10.37
06.593,-10.22
06.609,-9.71
06.625,-8.99
06.640,-8.33
06.656,-7.9
06.671,-7.78
06.687,-7.89
06.703,-7.94
06.718,-7.77
06.734,-7.17
06.750,-6.19
06.765,-5.03
06.781,-3.93
06.796,-3.03
06.812,-2.41
06.828,-1.9
06.843,-1.2
06.875,2.03
06.890,5.07
06.906,9.05
06.921,13.72
06.937,18.68
06.953,23.37
06.968,27.27
06.984,29.9
07.000,30.96
07.015,30.36
07.031,28.22
07.046,24.87
07.062,20.78
07.078,16.39
07.093,12.14
07.109,8.35
07.125,5.17
07.140,2.76
07.156,1.11
07.171,0.18
07.187,-0.2
07.203,-0.27
07.218,-0.34
07.234,-0.59
07.250,-1.01
07.265,-1.42
07.281,-1.5
07.296,-0.85
07.312,0.79
07.328,3.46
07.343,6.94
07.359,10.72
07.375,14.26
07.390,17.09
07.406,18.91
07.421,19.68
07.437,19.56
07.453,18.78
07.468,17.59
07.484,16.17
07.500,14.59
07.515,12.92
07.531,11.35
07.546,9.97
07.562,9.01
07.578,8.5
07.593,8.32
07.609,8.28
07.625,8.17
07.640,7.89
07.656,7.49
07.671,7.14
07.687,6.99
07.703,7.19
07.718,7.59
07.734,7.96
07.750,8.01
07.765,7.55
07.781,6.49
07.796,4.93
07.812,3.07
07.828,1.16
07.843,-0.46
07.859,-1.59
07.875,-2.27
07.890,-2.65
07.906,-2.98
07.921,-3.55
07.937,-4.39
07.953,-5.41
07.968,-6.49
07.984,-7.36
08.000,-7.91
08.015,-8.2
08.031,-8.36
08.046,-8.63
08.062,-9.19
08.078,-9.98
08.093,-10.81
08.109,-11.38
08.125,-11.39
08.140,-10.68
08.156,-9.3
08.171,-7.42
08.187,-5.36
08.203,-3.38
08.218,-1.65
08.234,-0.21
08.250,0.99
08.265,2.06
08.281,3.0
08.296,3.8
08.312,4.4
08.328,4.74
08.343,4.8
08.359,4.67
08.375,4.42
08.390,4.12
08.406,3.85
08.421,3.62
08.437,3.47
08.453,3.49
08.468,3.73
08.484,4.21
08.500,4.88
08.515,5.61
08.531,6.18
08.546,6.37
08.562,6.03
08.578,5.14
08.593,3.76
08.609,2.03
08.625,0.18
08.640,-1.55
08.656,-2.99
08.671,-4.1
08.687,-4.87
08.703,-5.46
08.718,-5.96
08.734,-6.48
08.750,-7.05
08.765,-7.64
08.781,-8.18
08.796,-8.61
08.812,-8.95
08.828,-9.22
08.843,-9.54
08.859,-9.95
08.875,-10.42
08.890,-10.8
08.906,-10.96
08.921,-10.71
08.937,-9.95
08.953,-8.68
08.968,-6.92
08.984,-4.84
09.000,-2.59
09.015,-0.35
09.031,1.71
09.046,3.43
09.062,4.74
09.078,5.64
09.093,6.25
09.109,6.73
09.125,7.2
09.140,7.63
09.156,7.91
09.171,7.85
09.187,7.38
09.203,6.55
09.218,5.58
09.234,4.71
09.250,4.17
09.265,4.09
09.281,4.37
09.296,4.88
09.312,5.47
09.328,5.99
09.343,6.37
09.359,6.6
09.375,6.66
09.390,6.57
09.406,6.44
09.421,6.4
09.437,6.59
09.453,7.06
09.468,7.74
09.484,8.39
09.500,8.72
09.515,8.49
09.531,7.63
09.546,6.33
09.562,5.0
09.578,4.11
09.593,3.94
09.609,4.51
09.625,5.59
09.640,6.71
09.656,7.5
09.671,7.73
09.687,7.49
09.703,7.23
09.718,7.6
09.734,9.07
09.750,11.81
09.765,15.7
09.781,20.36
09.796,25.41
09.812,30.59
09.828,35.88
09.843,41.42
09.859,47.51
09.875,54.32
09.890,61.92
09.906,70.4
09.921,79.98
09.937,90.99
09.953,103.68
09.968,118.02
09.984,133.55
10.000,149.68
10.015,165.59
10.031,180.74
10.046,195.01
10.062,208.77
10.078,222.54
10.093,236.46
10.109,249.77
10.125,260.77
10.140,267.05
10.156,265.48
10.171,253.45
10.187,229.44
10.203,193.74
10.218,148.58
10.234,97.63
10.250,45.06
10.265,-5.29
10.281,-50.63
10.296,-90.57
10.312,-126.81
10.328,-162.79
10.343,-202.72
10.359,-250.24
10.375,-306.99
10.390,-371.98
10.406,-441.5
10.421,-504.4
10.437,-547.69
10.453,-560.02
10.468,-536.3
10.484,-480.48
10.500,-403.45
10.515,-318.11
10.531,-234.93
10.546,-160.17
10.562,-96.42
10.578,-44.94
10.593,-6.29
10.609,19.35
10.625,32.84
10.640,36.67
10.656,34.55
10.671,30.56
10.687,28.09
10.703,29.34
10.718,34.55
10.734,42.75
10.750,52.32
10.765,61.98
10.781,71.48
10.796,81.37
10.812,92.19
10.828,104.06
10.843,116.61
10.859,128.48
10.875,138.02
10.890,144.07
10.906,145.85
10.921,143.81
10.937,139.44
10.953,134.34
10.968,129.93
10.984,127.15
11.000,126.0
11.015,125.92
11.031,126.09
11.046,125.62
11.062,124.1
11.078,121.62
11.093,118.32
11.109,114.59
11.125,111.04
11.140,108.1
11.156,106.14
11.171,105.49
11.187,106.35
11.203,108.81
11.218,112.9
11.234,118.08
11.250,123.68
11.265,129.1
11.281,133.68
11.296,137.02
11.312,138.64
11.328,137.93
11.343,133.86
11.359,127.85
11.375,120.12
11.390,110.76
11.406,99.97
11.421,87.94
11.437,75.31
11.453,62.69
11.468,50.58
11.484,39.16
11.500,28.31
11.515,17.1
11.531,4.83
11.546,-8.73
11.562,-23.4
11.578,-38.32
11.593,-52.48
11.609,-65.21
11.625,-76.41
11.640,-86.7
11.656,-97.44
11.671,-109.81
11.687,-124.21
11.703,-140.05
11.718,-155.92
11.734,-170.17
11.750,-181.72
11.765,-190.29
11.781,-196.53
11.796,-201.71
11.812,-207.09
11.828,-213.53
11.843,-221.78
11.859,-232.02
11.875,-243.61
11.890,-254.4
11.906,-260.38
11.921,-256.58
11.937,-238.83
11.953,-205.83
11.968,-160.1
11.984,-107.56
12.000,-55.11
12.015,-8.27
12.031,30.48
12.046,61.56
12.062,86.85
12.078,107.85
12.093,124.95
12.109,137.98
12.125,146.87
12.140,152.28
12.156,155.37
12.171,157.34
12.187,158.81
12.203,159.8
12.218,160.09
12.234,159.66
12.250,159.08
12.265,159.29
12.281,161.1
12.296,164.16
12.312,166.84
12.328,166.2
12.343,158.8
12.359,142.07
12.375,115.45
12.390,81.0
12.406,42.95
12.421,6.27
12.437,-25.37
12.453,-50.3
12.468,-69.13
12.484,-84.01
12.500,-97.48
12.515,-111.82
12.531,-127.61
12.546,-142.78
12.562,-152.09
12.578,-148.17
12.593,-124.76
12.609,-80.5
12.625,-21.99
12.640,37.33
12.656,81.31
12.671,97.67
12.687,83.12
12.703,44.21
12.718,-5.64
12.734,-51.96
12.750,-83.93
12.765,-96.54
12.781,-89.16
12.796,-63.27
12.812,-20.75
12.828,36.09
12.843,103.15
12.859,174.14
12.875,240.76
12.890,294.67
12.906,329.7
12.921,343.55
12.937,337.22
12.953,314.24
12.968,278.46
12.984,232.41
13.000,177.19
13.015,112.83
13.031,39.47
13.046,-41.81
13.062,-128.68
13.078,-218.5
13.093,-308.91
13.109,-398.46
13.125,-487.37
13.140,-577.23
13.156,-670.43
13.171,-768.98
13.187,-872.6
13.203,-977.19
13.218,-1074.32
13.234,-1152.36
13.250,-1199.6
13.265,-1208.49
13.281,-1178.44
13.296,-1115.94
13.312,-1032.11
13.328,-938.79
13.343,-845.1
13.359,-756.08
13.375,-672.43
13.390,-593.46
13.406,-519.32
13.421,-451.46
13.437,-391.43
13.453,-339.31
13.468,-293.02
13.484,-249.18
13.500,-204.58
13.515,-155.27
13.531,-99.16
13.546,-37.04
13.562,27.71
13.578,90.83
13.593,149.0
13.609,200.53
13.625,244.99
13.640,282.63
13.656,317.03
13.671,351.79
13.687,388.5
13.703,426.25
13.718,463.35
13.734,498.93
13.750,533.58
13.765,568.8
13.781,606.05
13.796,650.35
13.812,705.71
13.828,772.46
13.843,846.63
13.859,922.37
13.875,994.3
13.890,1058.81
13.906,1113.77
13.921,1129.68
13.937,1084.19
13.953,972.09
13.968,810.46
13.984,626.96
14.000,445.08
14.015,277.38
14.031,127.78
14.046,-4.17
14.062,-119.98
14.078,-216.65
14.093,-290.92
14.109,-341.75
14.125,-374.05
14.140,-393.63
14.156,-405.41
14.171,-412.5
14.187,-416.48
14.203,-417.91
14.218,-413.66
14.234,-400.86
14.250,-379.05
14.265,-351.05
14.281,-321.02
14.296,-292.85
14.312,-268.52
14.328,-250.14
14.343,-238.84
14.359,-232.86
14.375,-229.95
14.390,-228.47
14.406,-228.21
14.421,-229.57
14.437,-232.67
14.453,-237.04
14.468,-241.48
14.484,-244.42
14.500,-243.45
14.515,-236.73
14.531,-223.27
14.546,-203.25
14.562,-177.44
14.578,-146.71
14.593,-112.0
14.609,-74.25
14.625,-34.41
14.640,6.68
14.656,47.92
14.671,87.97
14.687,125.17
14.703,157.86
14.718,184.97
14.734,205.94
14.750,220.49
14.765,228.6
14.781,230.39
14.796,226.18
14.812,216.87
14.828,203.67
14.843,188.2
14.859,173.43
14.875,162.22
14.890,156.71
14.906,158.02
14.921,166.31
14.937,180.98
14.953,201.16
14.968,225.75
14.984,253.48
15.000,285.33
15.015,321.48
15.031,360.77
15.046,400.33
15.062,436.62
15.078,466.15
15.093,486.83
15.109,498.51
15.125,502.76
15.140,506.35
15.156,515.42
15.171,533.67
15.187,560.62
15.203,592.51
15.218,623.38
15.234,647.3
15.250,659.62
15.265,657.61
15.281,646.0
15.296,630.26
15.312,614.95
15.328,601.94
15.343,591.0
15.359,581.33
15.375,573.54
15.390,569.98
15.406,541.22
15.421,470.89
15.437,356.09
15.453,210.64
15.468,58.28
15.484,-79.18
15.500,-189.83
15.515,-272.28
15.531,-332.63
15.546,-381.28
15.562,-423.6
15.578,-463.32
15.593,-501.22
15.609,-535.52
15.625,-562.61
15.640,-578.75
15.656,-582.07
15.671,-573.7
15.687,-558.06
15.703,-536.21
15.718,-508.84
15.734,-476.16
15.750,-439.14
15.765,-400.24
15.781,-363.02
15.796,-330.87
15.812,-305.83
15.828,-287.9
15.843,-272.6
15.859,-255.02
15.875,-231.42
15.890,-200.7
15.906,-164.4
15.921,-125.65
15.937,-87.92
15.953,-54.07
15.968,-25.82
15.984,-2.15
16.000,17.64
16.015,33.74
16.031,45.78
16.046,52.88
16.062,54.25
16.078,49.72
16.093,40.07
16.109,26.96
16.125,13.1
16.140,1.26
16.156,-6.86
16.171,-10.77
16.187,-11.3
16.203,-10.2
16.218,-9.55
16.234,-11.13
16.250,-16.02
16.265,-24.18
16.281,-34.51
16.296,-45.82
16.312,-57.06
16.328,-67.43
16.343,-76.41
16.359,-83.21
16.375,-86.67
16.390,-85.44
16.406,-78.14
16.421,-64.14
16.437,-44.9
16.453,-23.44
16.468,-3.93
16.484,9.35
16.500,13.1
16.515,5.56
16.531,-13.45
16.546,-43.01
16.562,-77.52
16.578,-112.19
16.593,-142.39
16.609,-164.45
16.625,-175.9
16.640,-175.42
16.656,-163.12
16.671,-140.5
16.687,-110.33
16.703,-75.87
16.718,-40.06
16.734,-3.2
16.750,37.47
16.765,86.47
16.781,147.39
16.796,219.59
16.812,296.72
16.828,367.83
16.843,421.38
16.859,449.35
16.875,450.81
16.890,431.22
16.906,399.37
16.921,363.34
16.937,327.92
16.953,294.52
16.968,263.04
16.984,233.6
17.000,206.69
17.015,182.61
17.031,160.33
17.046,137.12
17.062,109.31
17.078,74.15
17.093,31.19
17.109,-17.35
17.125,-67.75
17.140,-116.31
17.156,-160.53
17.171,-199.17
17.187,-231.72
17.203,-257.74
17.218,-276.27
17.234,-285.74
17.250,-284.32
17.265,-270.54
17.281,-243.93
17.296,-205.47
17.312,-157.59
17.328,-103.99
17.343,-48.93
17.359,3.69
17.375,50.76
17.390,90.52
17.406,122.22
17.421,145.73
17.437,161.29
17.453,169.24
17.468,170.39
17.484,166.29
17.500,159.42
17.515,152.27
17.531,147.21
17.546,146.04
17.562,149.57
17.578,157.64
17.593,169.08
17.609,181.9
17.625,193.5
17.640,201.37
17.656,203.13
17.671,197.3
17.687,183.56
17.703,162.59
17.718,135.58
17.734,103.49
17.750,67.4
17.765,28.73
17.781,-10.39
17.796,-47.39
17.812,-79.48
17.828,-104.35
17.843,-120.92
17.859,-129.54
17.875,-132.42
17.890,-132.34
17.906,-131.74
17.921,-132.19
17.937,-134.54
17.953,-139.1
17.968,-145.82
17.984,-154.58
18.000,-164.64
18.015,-175.67
18.031,-186.38
18.046,-194.45
18.062,-197.33
18.078,-193.26
18.093,-181.6
18.109,-162.82
18.125,-138.63
18.140,-111.47
18.156,-86.58
18.171,-67.99
18.187,-57.96
18.203,-57.31
18.218,-66.39
18.234,-85.14
18.250,-112.61
18.265,-147.34
18.281,-187.88
18.296,-237.77
18.312,-298.17
18.328,-367.15
18.343,-440.46
18.359,-513.83
18.375,-583.81
18.390,-647.66
18.406,-703.54
18.421,-750.76
18.437,-796.64
18.453,-843.9
18.468,-889.56
18.484,-927.65
18.500,-954.32
18.515,-969.06
18.531,-972.83
18.546,-965.56
18.562,-944.31
18.578,-912.41
18.593,-865.73
18.609,-795.06
18.625,-692.96
18.640,-561.46
18.656,-411.76
18.671,-259.1
18.687,-117.34
18.703,61.18
18.718,277.89
18.734,497.71
18.750,676.31
18.765,792.07
18.781,848.29
18.796,860.27
18.812,844.81
18.828,815.25
18.843,780.6
18.859,736.98
18.875,684.29
18.890,626.33
18.906,571.97
18.921,527.59
18.937,495.65
18.953,476.46
18.968,468.55
18.984,468.71
19.000,464.83
19.015,448.57
19.031,417.94
19.046,376.06
19.062,326.98
19.078,275.49
19.093,226.98
19.109,186.72
19.125,158.28
19.140,137.87
19.156,122.17
19.171,110.23
19.187,102.86
19.203,100.3
19.218,101.71
19.234,105.58
19.250,110.17
19.265,113.96
19.281,113.63
19.296,108.09
19.312,98.97
19.328,89.13
19.343,80.96
19.359,75.84
19.375,74.17
19.390,75.45
19.406,78.59
19.421,81.2
19.437,81.57
19.453,79.3
19.468,74.12
19.484,66.06
19.500,55.86
19.515,44.97
19.531,34.9
19.546,27.19
19.562,22.0
19.578,19.14
19.593,18.47
19.609,18.2
19.625,16.68
19.640,13.34
19.656,9.05
19.671,4.9
19.687,2.47
19.703,1.15
19.718,0.26
19.734,-0.21
19.750,-2.42
19.765,-8.14
19.781,-17.3
19.796,-27.47
19.812,-36.01
19.828,-39.59
19.843,-39.34
19.859,-37.75
19.875,-37.72
19.890,-45.69
19.906,-67.35
19.921,-104.95
19.937,-155.78
19.953,-214.89
19.968,-274.48
19.984,-331.03
20.000,-381.91
20.015,-402.3
20.031,-372.93
20.046,-291.92
20.062,-177.11
20.078,-51.24
20.093,59.84
20.109,161.69
20.125,258.92
20.140,352.53
20.156,441.97
20.171,518.52
20.187,572.01
20.203,596.91
20.218,594.14
20.234,555.6
20.250,482.81
20.265,384.66
20.281,277.44
20.296,177.33
20.312,92.09
20.328,22.49
20.343,-39.29
20.359,-94.43
20.375,-141.66
20.390,-180.78
20.406,-216.15
20.421,-253.23
20.437,-297.56
20.453,-341.56
20.468,-382.66
20.484,-418.07
20.500,-443.81
20.515,-457.23
20.531,-459.28
20.546,-453.64
20.562,-443.73
20.578,-431.71
20.593,-420.13
20.609,-412.56
20.625,-409.86
20.640,-408.9
20.656,-382.47
20.671,-315.73
20.687,-212.7
20.703,-94.53
20.718,13.65
20.734,93.69
20.750,137.97
20.765,149.75
20.781,138.34
20.796,114.45
20.812,82.86
20.828,45.41
20.843,3.26
20.859,-40.36
20.875,-80.61
20.890,-115.74
20.906,-141.76
20.921,-156.21
20.937,-158.8
20.953,-153.64
20.968,-144.5
20.984,-133.2
21.000,-118.43
21.015,-98.02
21.031,-71.0
21.046,-37.53
21.062,0.65
21.078,41.16
21.093,80.31
21.109,116.86
21.125,147.49
21.140,172.29
21.156,192.91
21.171,210.78
21.187,226.64
21.203,240.05
21.218,250.15
21.234,255.31
21.250,255.03
21.265,250.15
21.281,243.06
21.296,236.4
21.312,231.98
21.328,230.61
21.343,231.97
21.359,235.29
21.375,239.49
21.390,243.91
21.406,248.31
21.421,253.36
21.437,259.85
21.453,268.33
21.468,278.79
21.484,290.25
21.500,300.53
21.515,306.35
21.531,304.1
21.546,290.97
21.562,266.61
21.578,233.26
21.593,195.1
21.609,156.82
21.625,121.97
21.640,92.12
21.656,66.95
21.671,45.33
21.687,26.33
21.703,9.95
21.718,-3.29
21.734,-13.05
21.750,-19.85
21.765,-24.95
21.781,-29.92
21.796,-35.91
21.812,-43.1
21.828,-50.81
21.843,-57.84
21.859,-63.27
21.875,-66.8
21.890,-68.96
21.906,-70.69
21.921,-72.91
21.937,-76.14
21.953,-80.25
21.968,-84.54
21.984,-88.02
22.000,-89.64
22.015,-88.71
22.031,-84.99
22.046,-78.95
22.062,-71.53
22.078,-64.01
22.093,-57.3
22.109,-51.78
22.125,-47.28
22.140,-43.29
22.156,-39.5
22.171,-36.03
22.187,-33.31
22.203,-31.65
22.218,-30.85
22.234,-30.08
22.250,-28.23
22.265,-24.63
22.281,-19.24
22.296,-12.84
22.312,-6.67
22.328,-1.96
22.343,0.51
22.359,0.58
22.375,-1.37
22.390,-4.52
22.406,-8.05
22.421,-11.22
22.437,-13.6
22.453,-15.25
22.468,-16.5
22.484,-17.8
22.500,-19.53
22.515,-21.88
22.531,-24.9
22.546,-28.49
22.562,-32.44
22.578,-36.45
22.593,-40.0
22.609,-42.48
22.625,-43.36
22.640,-42.48
22.656,-40.14
22.671,-36.99
22.687,-33.77
22.703,-30.79
22.718,-27.69
22.734,-23.27
22.750,-15.91
22.765,-4.14
22.781,12.58
22.796,33.65
22.812,57.51
22.828,81.96
22.843,104.92
22.859,124.77
22.875,140.5
22.890,151.63
22.906,158.16
22.921,160.36
22.937,159.01
22.953,155.26
22.968,150.39
22.984,145.36
23.000,140.41
23.015,135.06
23.031,128.32
23.046,119.6
23.062,108.99
23.078,97.55
23.093,86.95
23.109,78.81
23.125,74.08
23.140,72.55
23.156,72.99
23.171,73.36
23.187,71.53
23.203,65.49
23.218,53.67
23.234,35.18
23.250,9.77
23.265,-21.72
23.281,-57.52
23.296,-94.86
23.312,-130.42
23.328,-160.79
23.343,-183.21
23.359,-196.09
23.375,-199.13
23.390,-193.26
23.406,-180.11
23.421,-161.53
23.437,-139.27
23.453,-114.75
23.468,-89.02
23.484,-62.94
23.500,-37.36
23.515,-13.16
23.531,8.62
23.546,26.99
23.562,41.13
23.578,50.66
23.593,55.7
23.609,56.78
23.625,54.8
23.640,50.61
23.656,44.91
23.671,38.07
23.687,30.08
23.703,20.64
23.718,9.19
23.734,-4.9
23.750,-21.87
23.765,-41.16
23.781,-61.12
23.796,-79.12
23.812,-92.23
23.828,-98.13
23.843,-95.93
23.859,-86.59
23.875,-72.5
23.890,-56.66
23.906,-41.74
23.921,-29.46
23.937,-20.57
23.953,-15.11
23.968,-12.87
23.984,-13.62
24.000,-17.16
24.015,-23.16
24.031,-31.08
24.046,-40.09
24.062,-49.28
24.078,-57.82
24.093,-64.98
24.109,-70.45
24.125,-74.23
24.140,-76.72
24.156,-78.57
24.171,-80.51
24.187,-83.05
24.203,-86.43
24.218,-90.47
24.234,-94.84
24.250,-99.22
24.265,-103.42
24.281,-107.18
24.296,-110.19
24.312,-111.99
24.328,-112.14
24.343,-110.45
24.359,-107.16
24.375,-102.92
24.390,-98.55
24.406,-94.75
24.421,-91.82
24.437,-89.88
24.453,-88.94
24.468,-89.02
24.484,-90.08
24.500,-91.71
24.515,-93.18
24.531,-93.55
24.546,-92.08
24.562,-88.81
24.578,-84.49
24.593,-80.34
24.609,-77.4
24.625,-76.03
24.640,-75.66
24.656,-75.24
24.671,-73.83
24.687,-70.95
24.703,-66.81
24.718,-61.77
24.734,-55.81
24.750,-48.42
24.765,-38.72
24.781,-25.87
24.796,-9.5
24.812,10.31
24.828,33.28
24.843,59.12
24.859,87.55
24.875,117.96
24.890,148.76
24.906,177.2
24.921,199.71
24.937,212.99
24.953,214.97
24.968,205.71
24.984,187.14
25.000,162.43
25.015,134.86
25.031,107.05
25.046,80.7
25.062,56.7
25.078,35.6
25.093,17.69
25.109,3.05
25.125,-8.76
25.140,-18.75
25.156,-28.34
25.171,-39.03
25.187,-51.71
25.203,-66.4
25.218,-82.18
25.234,-97.42
25.250,-110.29
25.265,-119.37
25.281,-124.09
25.296,-124.73
25.312,-122.28
25.328,-117.88
25.343,-112.28
25.359,-105.5
25.375,-96.81
25.390,-85.14
25.406,-69.55
25.421,-49.93
25.437,-27.15
25.453,-3.04
25.468,20.23
25.484,40.58
25.500,56.7
25.515,68.16
25.531,75.3
25.546,79.08
25.562,80.42
25.578,80.13
25.593,78.64
25.609,76.15
25.625,72.68
25.640,68.39
25.656,63.63
25.671,59.14
25.687,55.81
25.703,54.44
25.718,55.6
25.734,59.29
25.750,65.06
25.765,72.18
25.781,79.87
25.796,87.42
25.812,94.34
25.828,100.26
25.843,104.65
25.859,106.88
25.875,106.17
25.890,101.77
25.906,93.29
25.921,81.06
25.937,66.31
25.953,50.97
25.968,37.38
25.984,27.32
26.000,21.53
26.015,19.29
26.031,18.51
26.046,16.53
26.062,10.87
26.078,0.14
26.093,-15.72
26.109,-35.63
26.125,-58.13
26.140,-81.88
26.156,-106.02
26.171,-130.01
26.187,-153.26
26.203,-174.92
26.218,-193.78
26.234,-208.61
26.250,-218.47
26.265,-222.8
26.281,-221.24
26.296,-213.58
26.312,-199.7
26.328,-179.91
26.343,-155.09
26.359,-126.84
26.375,-97.07
26.390,-67.54
26.406,-39.54
26.421,-13.86
26.437,8.63
26.453,26.74
26.468,39.0
26.484,44.2
26.500,41.94
26.515,33.32
26.531,20.62
26.546,6.71
26.562,-5.84
26.578,-15.55
26.593,-21.9
26.609,-24.97
26.625,-24.65
26.640,-20.32
26.656,-10.8
26.671,5.12
26.687,27.87
26.703,56.34
26.718,87.81
26.734,118.66
26.750,145.38
26.765,165.69
26.781,178.76
26.796,184.82
26.812,184.16
26.828,176.42
26.843,160.87
26.859,137.28
26.875,107.08
26.890,73.54
26.906,41.0
26.921,13.25
26.937,-8.01
26.953,-23.57
26.968,-35.85
26.984,-47.24
27.000,-58.94
27.015,-70.61
27.031,-81.18
27.046,-90.04
27.062,-97.45
27.078,-104.68
27.093,-112.86
27.109,-122.21
27.125,-131.44
27.140,-138.24
27.156,-140.13
27.171,-135.51
27.187,-124.2
27.203,-107.39
27.218,-87.14
27.234,-65.59
27.250,-44.44
27.265,-24.79
27.281,-7.6
27.296,6.17
27.312,15.49
27.328,19.81
27.343,19.53
27.359,16.27
27.375,12.57
27.390,10.89
27.406,12.66
27.421,17.52
27.437,23.78
27.453,29.22
27.468,32.4
27.484,33.37
27.500,33.66
27.515,35.44
27.531,40.46
27.546,49.26
27.562,60.93
27.578,73.63
27.593,85.36
27.609,94.58
27.625,100.51
27.640,103.13
27.656,102.66
27.671,99.37
27.687,93.4
27.703,84.82
27.718,74.06
27.734,61.92
27.750,49.58
27.765,38.39
27.781,29.3
27.796,22.77
27.812,18.61
27.828,16.44
27.843,16.01
27.859,17.41
27.875,20.94
27.890,26.6
27.906,33.76
27.921,41.13
27.937,47.42
27.953,51.88
27.968,54.88
27.984,57.56
28.000,61.17
28.015,66.34
28.031,72.72
28.046,79.38
28.062,85.2
28.078,89.39
28.093,91.34
28.109,90.19
28.125,84.62
28.140,73.08
28.156,54.68
28.171,30.15
28.187,2.18
28.203,-25.33
28.218,-48.6
28.234,-65.41
28.250,-75.72
28.265,-81.16
28.281,-83.81
28.296,-85.09
28.312,-85.22
28.328,-83.39
28.343,-78.58
28.359,-70.34
28.375,-59.16
28.390,-46.42
28.406,-33.96
28.421,-23.29
28.437,-15.38
28.453,-10.5
28.468,-8.24
28.484,-7.79
28.500,-8.28
28.515,-9.11
28.531,-10.17
28.546,-11.68
28.562,-13.8
28.578,-16.49
28.593,-19.6
28.609,-22.9
28.625,-26.3
28.640,-29.71
28.656,-32.92
28.671,-35.4
28.687,-36.28
28.703,-34.55
28.718,-29.53
28.734,-21.29
28.750,-10.66
28.765,0.83
28.781,11.57
28.796,20.26
28.812,26.01
28.828,28.54
28.843,28.12
28.859,25.08
28.875,19.7
28.890,12.14
28.906,2.25
28.921,-9.81
28.937,-23.28
28.953,-36.54
28.968,-47.54
28.984,-54.4
29.000,-56.32
29.015,-53.91
29.031,-48.76
29.046,-42.98
29.062,-38.3
29.078,-35.54
29.093,-34.69
29.109,-35.26
29.125,-36.67
29.140,-38.38
29.156,-39.92
29.171,-40.77
29.187,-40.62
29.203,-39.53
29.218,-38.06
29.234,-37.08
29.250,-37.52
29.265,-39.83
29.281,-43.75
29.296,-48.41
29.312,-52.66
29.328,-55.64
29.343,-56.9
29.359,-56.46
29.375,-54.65
29.390,-51.85
29.406,-48.4
29.421,-44.58
29.437,-40.74
29.453,-37.24
29.468,-34.39
29.484,-32.03
29.500,-29.45
29.515,-25.65
29.531,-19.6
29.546,-10.74
29.562,0.88
29.578,14.59
29.593,29.38
29.609,44.15
29.625,57.93
29.640,69.94
29.656,79.55
29.671,86.43
29.687,90.66
29.703,92.83
29.718,93.91
29.734,94.84
29.750,96.16
29.765,97.56
29.781,98.17
29.796,96.71
29.812,92.2
29.828,84.24
29.843,73.13
29.859,59.68
29.875,44.82
29.890,29.31
29.906,13.57
29.921,-2.01
29.937,-17.08
29.953,-31.17
29.968,-43.82
29.984,-54.69
30.000,-63.58
30.015,-70.31
30.031,-74.52
30.046,-75.68
30.062,-73.23
30.078,-66.77
30.093,-56.37
30.109,-42.38
30.125,-25.23
30.140,-5.18
30.156,17.42
30.171,41.59
30.187,65.31
30.203,85.53
30.218,99.0
30.234,103.36
30.250,98.37
30.265,85.92
30.281,69.34
30.296,52.06
30.312,36.37
30.328,23.09
30.343,11.91
30.359,2.24
30.375,-6.29
30.390,-13.47
30.406,-19.05
30.421,-23.13
30.437,-26.25
30.453,-29.26
30.468,-32.93
30.484,-37.57
30.500,-43.03
30.515,-48.81
30.531,-54.16
30.546,-58.53
30.562,-61.61
30.578,-63.36
30.593,-63.98
30.609,-63.7
30.625,-62.58
30.640,-60.54
30.656,-57.44
30.671,-53.32
30.687,-48.66
30.703,-44.27
30.718,-40.95
30.734,-39.16
30.750,-38.72
30.765,-38.77
30.781,-38.35
30.796,-36.63
30.812,-33.28
30.828,-28.47
30.843,-22.47
30.859,-15.46
30.875,-7.44
30.890,1.47
30.906,10.97
30.921,20.34
30.937,28.68
30.953,35.26
30.968,39.67
30.984,41.94
31.000,42.37
31.015,41.43
31.031,39.61
31.046,37.57
31.062,35.92
31.078,35.24
31.093,35.69
31.109,36.87
31.125,37.98
31.140,38.13
31.156,36.82
31.171,34.17
31.187,30.91
31.203,27.97
31.218,26.08
31.234,25.38
31.250,25.43
31.265,25.39
31.281,24.4
31.296,21.95
31.312,18.15
31.328,13.52
31.343,8.96
31.359,5.26
31.375,2.78
31.390,1.33
31.406,0.3
31.421,-1.11
31.437,-3.47
31.453,-7.01
31.468,-11.66
31.484,-16.93
31.500,-22.03
31.515,-25.78
31.531,-26.75
31.546,-23.48
31.562,-15.14
31.578,-1.83
31.593,15.07
31.609,33.3
31.625,50.51
31.640,64.91
31.656,75.82
31.671,83.72
31.687,89.68
31.703,94.81
31.718,99.75
31.734,104.48
31.750,108.33
31.765,110.44
31.781,109.98
31.796,106.5
31.812,100.35
31.828,92.4
31.843,84.06
31.859,76.71
31.875,71.36
31.890,68.1
31.906,66.37
31.921,64.92
31.937,62.43
31.953,58.01
31.968,51.21
31.984,42.21
32.000,31.51
32.015,19.76
32.031,7.7
32.046,-3.77
32.062,-13.77
32.078,-21.62
32.093,-27.04
32.109,-30.55
32.125,-33.2
32.140,-36.2
32.156,-40.64
32.171,-46.9
32.187,-54.73
32.203,-63.4
32.218,-71.9
32.234,-79.2
32.250,-84.46
32.265,-86.95
32.281,-86.2
32.296,-82.06
32.312,-74.81
32.328,-65.13
32.343,-53.93
32.359,-42.22
32.375,-30.74
32.390,-20.13
32.406,-10.83
32.421,-3.14
32.437,2.62
32.453,6.36
32.468,8.17
32.484,8.46
32.500,7.79
32.515,6.78
32.531,5.88
32.546,5.25
32.562,4.92
32.578,4.73
32.593,4.57
32.609,4.3
32.625,3.84
32.640,3.16
32.656,2.23
32.671,1.09
32.687,-0.16
32.703,-1.38
32.718,-2.56
32.734,-3.71
32.750,-4.95
32.765,-6.43
32.781,-8.23
32.796,-10.33
32.812,-12.65
32.828,-15.12
32.843,-17.69
32.859,-20.41
32.875,-23.33
32.890,-26.55
32.906,-30.17
32.921,-34.31
32.937,-39.05
32.953,-44.32
32.968,-49.82
32.984,-54.91
33.000,-58.76
33.015,-60.54
33.031,-59.68
33.046,-56.16
33.062,-50.38
33.078,-43.12
33.093,-35.23
33.109,-27.55
33.125,-20.6
33.140,-14.73
33.156,-10.01
33.171,-6.45
33.187,-4.06
33.203,-2.75
33.218,-2.51
33.234,-3.23
33.250,-4.85
33.265,-7.18
33.281,-9.93
33.296,-12.78
33.312,-15.36
33.328,-17.5
33.343,-19.18
33.359,-20.62
33.375,-22.01
33.390,-23.53
33.406,-25.04
33.421,-26.12
33.437,-26.24
33.453,-24.89
33.468,-21.86
33.484,-17.32
33.500,-11.9
33.515,-6.32
33.531,-1.36
33.546,2.5
33.562,5.18
33.578,6.99
33.593,8.6
33.609,10.71
33.625,13.98
33.640,18.62
33.656,24.2
33.671,29.61
33.687,33.32
33.703,34.09
33.718,31.47
33.734,26.35
33.750,20.58
33.765,16.42
33.781,15.52
33.796,18.48
33.812,24.7
33.828,32.88
33.843,41.71
33.859,50.29
33.875,58.19
33.890,65.19
33.906,70.99
33.921,75.29
33.937,77.78
33.953,78.42
33.968,77.38
33.984,75.08
34.000,71.88
34.015,68.1
34.031,63.86
34.046,59.14
34.062,53.95
34.078,48.28
34.093,42.3
34.109,36.25
34.125,30.6
34.140,25.77
34.156,22.26
34.171,20.39
34.187,20.26
34.203,21.76
34.218,24.46
34.234,27.83
34.250,31.11
34.265,33.71
34.281,35.1
34.296,35.01
34.312,33.3
34.328,29.97
34.343,25.12
34.359,18.89
34.375,11.56
34.390,3.41
34.406,-5.06
34.421,-13.31
34.437,-20.83
34.453,-27.3
34.468,-32.74
34.484,-37.42
34.500,-41.74
34.515,-45.93
34.531,-49.85
34.546,-52.88
34.562,-54.2
34.578,-53.1
34.593,-49.27
34.609,-42.98
34.625,-34.79
34.640,-25.49
34.656,-15.67
34.671,-5.75
34.687,3.99
34.703,13.38
34.718,22.16
34.734,30.19
34.750,37.35
34.765,43.8
34.781,49.76
34.796,55.52
34.812,61.21
34.828,66.71
34.843,71.73
34.859,75.89
34.875,78.89
34.890,80.55
34.906,80.87
34.921,79.9
34.937,77.63
34.953,73.99
34.968,68.78
34.984,61.87
35.000,53.36
35.015,43.66
35.031,33.32
35.046,22.81
35.062,12.32
35.078,1.7
35.093,-9.38
35.109,-20.94
35.125,-32.39
35.140,-42.46
35.156,-49.55
35.171,-52.49
35.187,-50.97
35.203,-45.86
35.218,-38.75
35.234,-31.31
35.250,-24.53
35.265,-18.45
35.281,-12.42
35.296,-5.64
35.312,2.11
35.328,10.35
35.343,17.99
35.359,23.96
35.375,27.69
35.390,29.29
35.406,29.6
35.421,29.56
35.437,29.96
35.453,31.02
35.468,32.53
35.484,34.04
35.500,35.28
35.515,36.25
35.531,37.27
35.546,38.77
35.562,40.97
35.578,43.81
35.593,47.02
35.609,50.31
35.625,53.38
35.640,55.96
35.656,57.69
35.671,58.05
35.687,56.76
35.703,53.95
35.718,50.49
35.734,47.79
35.750,47.22
35.765,49.6
35.781,54.75
35.796,61.56
35.812,68.45
35.828,74.19
35.843,78.14
35.859,80.53
35.875,82.06
35.890,83.39
35.906,85.0
35.921,87.02
35.937,89.6
35.953,92.98
35.968,97.84
35.984,104.98
36.000,115.06
36.015,128.36
36.031,144.5
36.046,162.62
36.062,181.62
36.078,200.56
36.093,218.7
36.109,235.37
36.125,249.73
36.140,260.63
36.156,266.99
36.171,267.89
36.187,263.11
36.203,252.94
36.218,238.03
36.234,218.93
36.250,196.0
36.265,169.65
36.281,140.87
36.296,111.6
36.312,84.46
36.328,62.26
36.343,46.91
36.359,38.6
36.375,35.61
36.390,34.96
36.406,33.32
36.421,28.23
36.437,18.8
36.453,5.47
36.468,-10.32
36.484,-27.01
36.500,-43.41
36.515,-58.83
36.531,-72.82
36.546,-84.88
36.562,-94.41
36.578,-100.88
36.593,-104.34
36.609,-105.5
36.625,-105.8
36.640,-107.13
36.656,-111.18
36.671,-118.78
36.687,-129.19
36.703,-139.87
36.718,-146.99
36.734,-146.44
36.750,-135.15
36.765,-112.31
36.781,-79.89
36.796,-42.21
36.812,-4.76
36.828,27.12
36.843,49.56
36.859,60.77
36.875,61.02
36.890,52.39
36.906,37.89
36.921,20.81
36.937,3.97
36.953,-10.62
36.968,-21.96
36.984,-30.04
37.000,-35.6
37.015,-39.78
37.031,-44.14
37.046,-50.39
37.062,-59.61
37.078,-71.36
37.093,-83.2
37.109,-91.21
37.125,-91.44
37.140,-82.06
37.156,-64.61
37.171,-43.94
37.187,-26.57
37.203,-17.96
37.218,-20.6
37.234,-33.65
37.250,-53.84
37.265,-77.47
37.281,-101.93
37.296,-126.29
37.312,-150.72
37.328,-175.62
37.343,-200.92
37.359,-225.88
37.375,-249.91
37.390,-272.8
37.406,-295.27
37.421,-318.46
37.437,-343.66
37.453,-371.54
37.468,-401.98
37.484,-434.16
37.500,-467.24
37.515,-501.2
37.531,-536.65
37.546,-574.16
37.562,-613.04
37.578,-650.81
37.593,-683.62
37.609,-707.62
37.625,-720.17
37.640,-720.34
37.656,-708.53
37.671,-685.42
37.687,-651.62
37.703,-607.98
37.718,-556.31
37.734,-499.93
37.750,-443.2
37.765,-390.11
37.781,-342.96
37.796,-301.79
37.812,-264.99
37.828,-230.6
37.843,-197.62
37.859,-166.15
37.875,-137.1
37.890,-111.21
37.906,-88.86
37.921,-69.7
37.937,-52.83
37.953,-37.02
37.968,-21.08
37.984,-4.58
38.000,11.93
38.015,26.82
38.031,38.32
38.046,45.33
38.062,48.19
38.078,48.69
38.093,49.22
38.109,51.83
38.125,57.42
38.140,66.04
38.156,77.11
38.171,89.8
38.187,102.67
38.203,113.39
38.218,119.01
38.234,117.15
38.250,107.43
38.265,92.22
38.281,76.1
38.296,63.98
38.312,58.85
38.328,60.79
38.343,67.58
38.359,76.36
38.375,85.27
38.390,94.12
38.406,103.86
38.421,115.58
38.437,129.64
38.453,145.48
38.468,162.03
38.484,178.41
38.500,194.2
38.515,209.45
38.531,224.43
38.546,239.65
38.562,255.57
38.578,272.62
38.593,291.37
38.609,312.5
38.625,336.78
38.640,364.4
38.656,394.1
38.671,422.63
38.687,445.27
38.703,457.61
38.718,457.92
38.734,448.51
38.750,435.15
38.765,424.8
38.781,422.24
38.796,427.96
38.812,438.22
38.828,447.24
38.843,450.14
38.859,444.93
38.875,432.96
38.890,417.68
38.906,402.85
38.921,390.97
38.937,383.11
38.953,378.72
38.968,376.23
38.984,373.46
39.000,368.16
39.015,358.72
39.031,344.29
39.046,325.22
39.062,302.8
39.078,278.87
39.093,255.23
39.109,233.02
39.125,212.09
39.140,190.81
39.156,166.81
39.171,137.77
39.187,102.6
39.203,62.02
39.218,18.32
39.234,-25.53
39.250,-67.1
39.265,-104.94
39.281,-138.49
39.296,-167.34
39.312,-190.9
39.328,-208.39
39.343,-219.31
39.359,-224.45
39.375,-225.85
39.390,-226.32
39.406,-228.36
39.421,-233.57
39.437,-241.76
39.453,-251.8
39.468,-262.31
39.484,-272.4
39.500,-282.4
39.515,-293.54
39.531,-307.56
39.546,-326.18
39.562,-350.91
39.578,-382.78
39.593,-422.19
39.609,-467.91
39.625,-516.13
39.640,-560.18
39.656,-591.46
39.671,-601.96
39.687,-587.21
39.703,-548.01
39.718,-490.22
39.734,-422.51
39.750,-353.13
39.765,-287.51
39.781,-227.65
39.796,-172.84
39.812,-121.42
39.828,-72.02
39.843,-24.04
39.859,22.69
39.875,68.38
39.890,113.61
39.906,158.87
39.921,204.25
39.937,249.18
39.953,292.65
39.968,333.78
39.984,372.7
40.000,411.03
40.015,451.46
40.031,496.15
40.046,544.44
40.062,591.46
40.078,628.73
40.093,646.91
40.109,639.55
40.125,606.13
40.140,552.18
40.156,486.99
40.171,419.79
40.187,356.46
40.203,298.53
40.218,244.41
40.234,191.88
40.250,140.07
40.265,90.3
40.281,45.17
40.296,7.27
40.312,-22.16
40.328,-43.69
40.343,-59.5
40.359,-72.55
40.375,-85.92
40.390,-101.6
40.406,-119.76
40.421,-138.82
40.437,-156.02
40.453,-169.16
40.468,-177.52
40.484,-182.5
40.500,-186.17
40.515,-190.84
40.531,-198.2
40.546,-209.11
40.562,-224.08
40.578,-242.59
40.593,-262.75
40.609,-280.26
40.625,-288.56
40.640,-280.27
40.656,-251.82
40.671,-207.38
40.687,-159.52
40.703,-124.68
40.718,-115.94
40.734,-136.18
40.750,-176.58
40.765,-220.6
40.781,-251.27
40.796,-259.19
40.812,-245.34
40.828,-218.5
40.843,-188.81
40.859,-162.01
40.875,-137.6
40.890,-111.88
40.906,-81.21
40.921,-44.34
40.937,-2.92
40.953,39.83
40.968,81.3
40.984,120.41
41.000,157.89
41.015,194.8
41.031,230.35
41.046,254.63
41.062,256.09
41.078,228.73
41.093,176.21
41.109,109.08
41.125,38.61
41.140,-26.65
41.156,-80.53
41.171,-123.55
41.187,-157.58
41.203,-184.2
41.218,-205.04
41.234,-221.85
41.250,-236.47
41.265,-248.51
41.281,-257.73
41.296,-263.84
41.312,-267.14
41.328,-268.12
41.343,-266.94
41.359,-263.81
41.375,-259.06
41.390,-253.28
41.406,-247.07
41.421,-240.78
41.437,-234.31
41.453,-227.59
41.468,-220.31
41.484,-211.81
41.500,-201.64
41.515,-189.6
41.531,-176.08
41.546,-161.67
41.562,-147.01
41.578,-132.41
41.593,-117.98
41.609,-103.49
41.625,-88.45
41.640,-72.48
41.656,-55.44
41.671,-37.64
41.687,-19.61
41.703,-2.1
41.718,14.28
41.734,29.06
41.750,42.02
41.765,53.06
41.781,62.13
41.796,69.2
41.812,74.23
41.828,77.19
41.843,78.13
41.859,77.24
41.875,74.81
41.890,71.25
41.906,67.0
41.921,62.4
41.937,57.79
41.953,53.48
41.968,49.6
41.984,46.28
42.000,43.56
42.015,41.44
42.031,39.82
42.046,38.62
42.062,37.73
42.078,37.02
42.093,36.37
42.109,35.6
42.125,34.58
42.140,33.09
42.156,30.96
42.171,28.05
42.187,24.3
42.203,19.83
42.218,14.82
42.234,9.6
42.250,4.52
42.265,-0.02
42.281,-3.76
42.296,-6.53
42.312,-8.26
42.328,-8.89
42.343,-8.46
42.359,-6.87
42.375,-4.01
42.390,0.13
42.406,5.46
42.421,11.69
42.437,18.35
42.453,24.97
42.468,31.17
42.484,36.83
42.500,42.18
42.515,47.75
42.531,54.1
42.546,61.63
42.562,70.44
42.578,80.2
42.593,90.47
42.609,100.84
42.625,111.2
42.640,121.87
42.656,133.52
42.671,146.78
42.687,161.98
42.703,178.86
42.718,196.67
42.734,214.47
42.750,231.47
42.765,247.32
42.781,262.22
42.796,276.82
42.812,292.01
42.828,308.91
42.843,328.52
42.859,351.37
42.875,376.94
42.890,402.93
42.906,425.51
42.921,440.07
42.937,442.74
42.953,431.76
42.968,408.36
42.984,376.13
43.000,339.81
43.015,303.69
43.031,270.47
43.046,241.14
43.062,215.61
43.078,193.5
43.093,174.56
43.109,159.0
43.125,146.61
43.140,136.57
43.156,127.42
43.171,117.64
43.187,106.19
43.203,93.05
43.218,79.04
43.234,65.47
43.250,53.71
43.265,44.26
43.281,36.69
43.296,29.78
43.312,22.28
43.328,13.49
43.343,3.58
43.359,-6.58
43.375,-15.75
43.390,-22.35
43.406,-25.56
43.421,-25.5
43.437,-23.04
43.453,-19.24
43.468,-14.74
43.484,-9.61
43.500,-3.55
43.515,3.74
43.531,13.72
43.546,26.89
43.562,42.48
43.578,58.59
43.593,73.18
43.609,85.07
43.625,94.18
43.640,101.29
43.656,107.43
43.671,116.73
43.687,131.96
43.703,153.48
43.718,178.91
43.734,204.81
43.750,228.55
43.765,248.86
43.781,265.91
43.796,280.52
43.812,298.6
43.828,324.22
43.843,357.44
43.859,393.84
43.875,427.23
43.890,452.61
43.906,467.36
43.921,471.27
43.937,465.88
43.953,459.97
43.968,460.42
43.984,469.07
44.000,481.68
44.015,491.23
44.031,491.59
44.046,479.26
44.062,453.84
44.078,377.54
44.093,235.23
44.109,38.34
44.125,-176.91
44.140,-369.07
44.156,-510.97
44.171,-595.78
44.187,-631.8
44.203,-632.76
44.218,-611.86
44.234,-572.8
44.250,-517.81
44.265,-449.89
44.281,-378.67
44.296,-314.59
44.312,-265.14
44.328,-235.28
44.343,-225.69
44.359,-233.59
44.375,-249.05
44.390,-262.01
44.406,-269.28
44.421,-274.07
44.437,-282.06
44.453,-295.92
44.468,-318.27
44.484,-348.89
44.500,-384.72
44.515,-417.73
44.531,-438.8
44.546,-446.54
44.562,-445.24
44.578,-440.8
44.593,-438.65
44.609,-446.07
44.625,-467.14
44.640,-501.46
44.656,-542.66
44.671,-579.75
44.687,-607.89
44.703,-626.03
44.718,-634.1
44.734,-606.93
44.750,-530.18
44.765,-406.27
44.781,-255.14
44.796,-121.68
44.812,-10.8
44.828,81.0
44.843,156.94
44.859,222.65
44.875,277.67
44.890,316.53
44.906,335.33
44.921,333.87
44.937,316.16
44.953,291.34
44.968,263.2
44.984,232.84
45.000,200.5
45.015,165.71
45.031,125.52
45.046,78.24
45.062,24.36
45.078,-33.27
45.093,-88.29
45.109,-138.1
45.125,-180.74
45.140,-213.34
45.156,-233.07
45.171,-239.73
45.187,-234.66
45.203,-220.61
45.218,-200.74
45.234,-176.15
45.250,-149.15
45.265,-121.37
45.281,-93.86
45.296,-68.45
45.312,-48.61
45.328,-37.5
45.343,-36.31
45.359,-43.07
45.375,-52.72
45.390,-61.04
45.406,-65.46
45.421,-65.48
45.437,-62.15
45.453,-57.0
45.468,-50.69
45.484,-42.79
45.500,-32.47
45.515,-19.06
45.531,-3.43
45.546,12.8
45.562,27.89
45.578,40.48
45.593,49.99
45.609,56.24
45.625,59.24
45.640,59.37
45.656,57.43
45.671,54.11
45.687,50.08
45.703,45.97
45.718,42.01
45.734,38.51
45.750,35.76
45.765,33.95
45.781,33.22
45.796,33.72
45.812,35.39
45.828,38.05
45.843,41.09
45.859,43.58
45.875,44.5
45.890,43.31
45.906,40.4
45.921,37.04
45.937,34.96
45.953,35.25
45.968,37.99
45.984,42.07
46.000,45.74
46.015,47.54
46.031,46.75
46.046,43.61
46.062,38.87
46.078,33.34
46.093,27.41
46.109,21.19
46.125,14.62
46.140,7.66
46.156,0.54
46.171,-6.4
46.187,-12.51
46.203,-16.82
46.218,-18.42
46.234,-16.85
46.250,-12.38
46.265,-6.22
46.281,-0.05
46.296,4.66
46.312,7.18
46.328,7.81
46.343,7.57
46.359,7.45
46.375,7.86
46.390,8.43
46.406,8.41
46.421,7.25
46.437,4.96
46.453,1.99
46.468,-1.24
46.484,-4.84
46.500,-9.4
46.515,-15.59
46.531,-23.57
46.546,-32.54
46.562,-41.04
46.578,-47.59
46.593,-51.25
46.609,-52.12
46.625,-51.05
46.640,-49.09
46.656,-46.81
46.671,-44.11
46.687,-40.36
46.703,-34.96
46.718,-27.72
46.734,-18.99
46.750,-9.22
46.765,1.24
46.781,12.56
46.796,25.14
46.812,39.14
46.828,54.07
46.843,68.65
46.859,81.37
46.875,90.9
46.890,96.71
46.906,98.91
46.921,98.21
46.937,95.36
46.953,91.04
46.968,85.72
46.984,79.7
47.000,73.08
47.015,65.51
47.031,56.27
47.046,44.35
47.062,29.08
47.078,10.49
47.093,-10.35
47.109,-31.49
47.125,-50.76
47.140,-66.14
47.156,-76.28
47.171,-80.5
47.187,-78.74
47.203,-71.42
47.218,-59.43
47.234,-44.11
47.250,-27.06
47.265,-10.24
47.281,4.37
47.296,15.08
47.312,20.85
47.328,21.61
47.343,18.33
47.359,13.01
47.375,8.13
47.390,6.2
47.406,8.84
47.421,16.45
47.437,27.92
47.453,40.96
47.468,52.7
47.484,60.42
47.500,62.47
47.515,58.57
47.531,49.97
47.546,39.01
47.562,28.45
47.578,20.56
47.593,16.52
47.609,16.12
47.625,17.8
47.640,19.23
47.656,18.08
47.671,12.84
47.687,3.37
47.703,-9.09
47.718,-22.23
47.734,-33.56
47.750,-41.23
47.765,-44.58
47.781,-44.24
47.796,-41.75
47.812,-38.81
47.828,-36.53
47.843,-35.11
47.859,-33.63
47.875,-30.53
47.890,-24.25
47.906,-13.83
47.921,0.58
47.937,17.61
47.953,34.88
47.968,49.68
47.984,59.5
48.000,62.81
48.015,59.54
48.031,50.98
48.046,39.52
48.062,27.85
48.078,18.19
48.093,11.59
48.109,7.77
48.125,5.28
48.140,2.26
48.156,-2.55
48.171,-9.12
48.187,-15.87
48.203,-20.01
48.218,-18.71
48.234,-10.18
48.250,5.35
48.265,25.4
48.281,46.01
48.296,63.26
48.312,74.55
48.328,79.33
48.343,78.84
48.359,74.88
48.375,68.52
48.390,59.62
48.406,46.81
48.421,28.19
48.437,2.81
48.453,-28.97
48.468,-65.27
48.484,-103.19
48.500,-139.29
48.515,-170.41
48.531,-194.39
48.546,-210.87
48.562,-221.95
48.578,-231.41
48.593,-243.74
48.609,-262.07
48.625,-286.03
48.640,-310.89
48.656,-328.07
48.671,-327.84
48.687,-303.13
48.703,-252.36
48.718,-180.17
48.734,-95.83
48.750,-10.04
48.765,68.38
48.781,133.86
48.796,184.15
48.812,218.96
48.828,238.49
48.843,243.05
48.859,233.76
48.875,212.94
48.890,184.7
48.906,154.5
48.921,127.36
48.937,106.87
48.953,94.21
48.968,88.19
48.984,85.76
49.000,83.52
49.015,78.59
49.031,69.98
49.046,59.09
49.062,48.6
49.078,41.34
49.093,38.75
49.109,40.09
49.125,43.05
49.140,44.88
49.156,43.68
49.171,39.35
49.187,33.34
49.203,27.26
49.218,22.08
49.234,17.47
49.250,12.07
49.265,4.48
49.281,-6.36
49.296,-21.03
49.312,-39.93
49.328,-63.36
49.343,-91.21
49.359,-121.86
49.375,-151.87
49.390,-176.33
49.406,-190.45
49.421,-191.53
49.437,-180.08
49.453,-159.42
49.468,-134.05
49.484,-107.7
49.500,-82.12
49.515,-57.43
49.531,-33.32
49.546,-10.14
49.562,10.86
49.578,28.46
49.593,42.51
49.609,54.3
49.625,65.9
49.640,78.93
49.656,93.61
49.671,108.71
49.687,122.49
49.703,133.57
49.718,141.57
49.734,146.84
49.750,149.92
49.765,151.17
49.781,150.82
49.796,149.36
49.812,147.71
49.828,146.94
49.843,147.67
49.859,149.54
49.875,151.24
49.890,151.04
49.906,147.91
49.921,142.2
49.937,135.62
49.953,130.54
49.968,128.81
49.984,130.91
50.000,135.68
50.015,140.97
50.031,144.53
50.046,145.01
50.062,142.34
50.078,137.68
50.093,132.76
50.109,129.07
50.125,127.21
50.140,126.63
50.156,125.78
50.171,122.65
50.187,115.39
50.203,102.67
50.218,84.16
50.234,60.58
50.250,33.62
50.265,5.61
50.281,-21.0
50.296,-44.13
50.312,-62.6
50.328,-76.14
50.343,-85.35
50.359,-91.38
50.375,-95.56
50.390,-99.17
50.406,-103.16
50.421,-108.02
50.437,-113.53
50.453,-118.76
50.468,-122.39
50.484,-123.15
50.500,-120.53
50.515,-115.01
50.531,-107.96
50.546,-101.13
50.562,-96.01
50.578,-93.44
50.593,-93.43
50.609,-95.45
50.625,-98.73
50.640,-102.62
50.656,-106.66
50.671,-110.69
50.687,-114.72
50.703,-118.95
50.718,-123.55
50.734,-128.62
50.750,-133.93
50.765,-138.87
50.781,-142.54
50.796,-143.95
50.812,-142.24
50.828,-136.99
50.843,-128.29
50.859,-116.7
50.875,-102.79
50.890,-86.65
50.906,-67.63
50.921,-44.41
50.937,-15.52
50.953,19.86
50.968,61.24
50.984,106.52
51.000,152.26
51.015,194.37
51.031,229.2
51.046,254.33
51.062,269.04
51.078,274.27
51.093,272.16
51.109,265.2
51.125,255.43
51.140,243.85
51.156,230.25
51.171,213.8
51.187,193.79
51.203,170.26
51.218,144.24
51.234,117.34
51.250,91.08
51.265,66.27
51.281,42.81
51.296,19.74
51.312,-4.41
51.328,-31.35
51.343,-62.81
51.359,-99.94
51.375,-142.58
51.390,-188.22
51.406,-231.71
51.421,-266.02
51.437,-284.15
51.453,-281.43
51.468,-257.44
51.484,-216.29
51.500,-165.28
51.515,-112.71
51.531,-65.51
51.546,-28.0
51.562,-1.88
51.578,12.85
51.593,16.85
51.609,11.0
51.625,-3.35
51.640,-23.64
51.656,-45.77
51.671,-64.48
51.687,-74.46
51.703,-71.85
51.718,-55.48
51.734,-27.37
51.750,8.19
51.765,45.87
51.781,80.95
51.796,110.15
51.812,131.78
51.828,145.25
51.843,150.49
51.859,147.74
51.875,137.5
51.890,121.08
51.906,100.65
51.921,79.13
51.937,59.55
51.953,44.31
51.968,34.43
51.984,29.38
52.000,27.56
52.015,27.14
52.031,26.98
52.046,27.17
52.062,28.8
52.078,33.25
52.093,41.24
52.109,52.27
52.125,64.63
52.140,76.17
52.156,85.13
52.171,90.85
52.187,93.85
52.203,95.27
52.218,96.06
52.234,96.25
52.250,94.87
52.265,90.61
52.281,82.61
52.296,71.17
52.312,57.7
52.328,44.39
52.343,33.39
52.359,26.32
52.375,23.8
52.390,25.47
52.406,29.97
52.421,35.0
52.437,37.75
52.453,35.71
52.468,27.95
52.484,16.06
52.500,4.13
52.515,-2.69
52.531,-0.48
52.546,11.41
52.562,29.93
52.578,49.64
52.593,65.26
52.609,73.73
52.625,74.87
52.640,70.59
52.656,63.11
52.671,53.79
52.687,42.72
52.703,29.43
52.718,13.71
52.734,-3.87
52.750,-21.99
52.765,-38.86
52.781,-52.27
52.796,-59.86
52.812,-59.51
52.828,-50.34
52.843,-33.64
52.859,-13.23
52.875,5.2
52.890,15.83
52.906,14.73
52.921,1.26
52.937,-21.79
52.953,-49.36
52.968,-76.09
52.984,-98.05
53.000,-113.61
53.015,-123.17
53.031,-128.09
53.046,-129.51
53.062,-127.69
53.078,-122.17
53.093,-112.41
53.109,-98.6
53.125,-81.95
53.140,-64.4
53.156,-47.9
53.171,-33.6
53.187,-21.58
53.203,-11.13
53.218,-1.49
53.234,7.48
53.250,14.97
53.265,19.57
53.281,20.12
53.296,16.34
53.312,9.28
53.328,1.07
53.343,-5.99
53.359,-10.25
53.375,-11.28
53.390,-9.9
53.406,-7.55
53.421,-5.42
53.437,-3.92
53.453,-2.61
53.468,-0.56
53.484,2.92
53.500,7.79
53.515,13.22
53.531,17.95
53.546,20.85
53.562,21.41
53.578,19.89
53.593,17.14
53.609,14.1
53.625,11.48
53.640,9.31
53.656,7.1
53.671,4.09
53.687,-0.47
53.703,-6.99
53.718,-15.55
53.734,-26.0
53.750,-37.82
53.765,-50.3
53.781,-62.51
53.796,-73.35
53.812,-81.64
53.828,-86.23
53.843,-86.42
53.859,-82.29
53.875,-74.64
53.890,-64.72
53.906,-53.83
53.921,-42.97
53.937,-32.66
53.953,-23.09
53.968,-13.96
53.984,-5.06
54.000,3.7
54.015,12.21
54.031,20.46
54.046,28.49
54.062,36.15
54.078,43.08
54.093,48.75
54.109,53.21
54.125,56.55
54.140,58.98
54.156,60.41
54.171,61.35
54.187,62.23
54.203,63.45
54.218,65.16
54.234,67.7
54.250,72.58
54.265,81.04
54.281,93.44
54.296,108.39
54.312,124.62
54.328,140.56
54.343,154.57
54.359,165.15
54.375,171.62
54.390,175.64
54.406,178.84
54.421,182.05
54.437,183.96
54.453,184.14
54.468,181.95
54.484,176.25
54.500,164.91
54.515,145.72
54.531,118.99
54.546,85.4
54.562,45.99
54.578,0.78
54.593,-47.57
54.609,-95.86
54.625,-141.14
54.640,-181.73
54.656,-228.53
54.671,-283.33
54.687,-339.93
54.703,-378.4
54.718,-394.33
54.734,-387.46
54.750,-360.67
54.765,-314.96
54.781,-252.33
54.796,-176.67
54.812,-92.37
54.828,-6.77
54.843,71.13
54.859,131.94
54.875,172.09
54.890,193.44
54.906,201.87
54.921,204.11
54.937,205.64
54.953,210.48
54.968,218.78
54.984,227.75
55.000,232.26
55.015,229.53
55.031,218.5
55.046,199.22
55.062,171.59
55.078,135.29
55.093,91.19
55.109,40.56
55.125,-14.44
55.140,-71.31
55.156,-125.78
55.171,-173.68
55.187,-212.44
55.203,-242.11
55.218,-265.18
55.234,-284.84
55.250,-304.43
55.265,-325.89
55.281,-349.71
55.296,-374.11
55.312,-396.29
55.328,-413.32
55.343,-422.82
55.359,-423.02
55.375,-412.6
55.390,-391.03
55.406,-358.62
55.421,-317.01
55.437,-268.67
55.453,-216.84
55.468,-164.81
55.484,-115.38
55.500,-70.45
55.515,-30.88
55.531,3.08
55.546,31.01
55.562,51.6
55.578,62.58
55.593,61.79
55.609,49.19
55.625,28.58
55.640,7.71
55.656,-4.07
55.671,0.36
55.687,22.29
55.703,56.17
55.718,91.86
55.734,119.18
55.750,131.98
55.765,130.03
55.781,117.73
55.796,100.83
55.812,83.26
55.828,65.9
55.843,47.55
55.859,26.99
55.875,4.57
55.890,-17.55
55.906,-36.17
55.921,-48.43
55.937,-52.67
55.953,-48.92
55.968,-38.44
55.984,-23.1
56.000,-4.65
56.015,15.5
56.031,36.17
56.046,56.27
56.062,74.47
56.078,89.43
56.093,100.11
56.109,106.32
56.125,109.03
56.140,109.9
56.156,110.22
56.171,109.87
56.187,106.93
56.203,98.63
56.218,83.0
56.234,60.9
56.250,36.72
56.265,17.44
56.281,9.88
56.296,17.76
56.312,39.74
56.328,69.7
56.343,98.92
56.359,119.19
56.375,125.43
56.390,116.8
56.406,96.23
56.421,68.6
56.437,39.18
56.453,12.28
56.468,-9.25
56.484,-23.93
56.500,-31.39
56.515,-32.39
56.531,-28.73
56.546,-23.08
56.562,-18.38
56.578,-16.75
56.593,-18.58
56.609,-22.39
56.625,-25.28
56.640,-24.2
56.656,-17.37
56.671,-5.06
56.687,10.32
56.703,25.25
56.718,36.32
56.734,41.47
56.750,40.28
56.765,34.2
56.781,25.74
56.796,17.75
56.812,12.63
56.828,11.64
56.843,14.61
56.859,19.93
56.875,25.04
56.890,27.23
56.906,24.87
56.921,18.18
56.937,9.25
56.953,1.46
56.968,-2.01
56.984,0.7
57.000,9.38
57.015,21.91
57.031,35.16
57.046,45.96
57.062,52.08
57.078,52.42
57.093,47.24
57.109,37.73
57.125,25.9
57.140,14.12
57.156,4.61
57.171,-1.01
57.187,-2.36
57.203,-0.38
57.218,2.89
57.234,5.01
57.250,3.96
57.265,-0.99
57.281,-9.01
57.296,-17.99
57.312,-25.36
57.328,-29.17
57.343,-29.03
57.359,-26.28
57.375,-23.36
57.390,-23.02
57.406,-27.2
57.421,-36.27
57.437,-49.27
57.453,-64.29
57.468,-79.18
57.484,-91.76
57.500,-100.13
57.515,-102.54
57.531,-97.64
57.546,-85.16
57.562,-66.18
57.578,-43.25
57.593,-19.39
57.609,3.02
57.625,23.3
57.640,41.99
57.656,59.36
57.671,73.64
57.687,80.51
57.703,74.69
57.718,53.05
57.734,17.71
57.750,-23.22
57.765,-58.02
57.781,-76.01
57.796,-72.07
57.812,-48.8
57.828,-15.0
57.843,18.46
57.859,43.23
57.875,56.37
57.890,60.26
57.906,60.13
57.921,61.19
57.937,66.41
57.953,75.96
57.968,88.19
57.984,101.12
58.000,113.33
58.015,124.25
58.031,133.54
58.046,140.21
58.062,142.41
58.078,137.86
58.093,124.87
58.109,103.43
58.125,75.86
58.140,46.18
58.156,19.0
58.171,-2.05
58.187,-15.59
58.203,-22.39
58.218,-24.79
58.234,-25.15
58.250,-24.84
58.265,-23.75
58.281,-21.02
58.296,-15.96
58.312,-9.11
58.328,-2.37
58.343,1.63
58.359,0.6
58.375,-6.3
58.390,-18.43
58.406,-34.0
58.421,-50.67
58.437,-66.19
58.453,-78.97
58.468,-88.17
58.484,-93.6
58.500,-95.72
58.515,-95.35
58.531,-93.61
58.546,-91.26
58.562,-88.4
58.578,-84.41
58.593,-78.52
58.609,-70.36
58.625,-60.27
58.640,-49.36
58.656,-39.12
58.671,-30.97
58.687,-25.81
58.703,-23.29
58.718,-22.34
58.734,-21.65
58.750,-20.06
58.765,-16.86
58.781,-11.92
58.796,-5.66
58.812,0.94
58.828,6.74
58.843,11.8
58.859,16.19
58.875,19.25
58.890,19.35
58.906,14.22
58.921,2.0
58.937,-18.0
58.953,-44.99
58.968,-76.76
58.984,-108.07
59.000,-134.21
59.015,-152.74
59.031,-164.1
59.046,-170.14
59.062,-172.36
59.078,-171.46
59.093,-168.03
59.109,-163.25
59.125,-155.33
59.140,-143.2
59.156,-127.43
59.171,-109.96
59.187,-92.04
59.203,-72.53
59.218,-48.36
59.234,-16.26
59.250,25.71
59.265,82.11
59.281,154.83
59.296,241.3
59.312,334.56
59.328,426.58
59.343,511.51
59.359,586.71
59.375,651.93
59.390,678.39
59.406,647.54
59.421,560.69
59.437,440.7
59.453,316.12
59.468,205.91
59.484,116.43
59.500,46.04
59.515,-9.98
59.531,-56.49
59.546,-92.42
59.562,-115.99
59.578,-127.16
59.593,-129.18
59.609,-126.46
59.625,-122.65
59.640,-119.94
59.656,-119.13
59.671,-120.69
59.687,-121.17
59.703,-117.67
59.718,-109.54
59.734,-99.22
59.750,-90.08
59.765,-84.53
59.781,-83.5
59.796,-86.71
59.812,-93.87
59.828,-102.68
59.843,-111.43
59.859,-119.62
59.875,-128.35
59.890,-138.03
59.906,-147.67
59.921,-155.11
59.937,-158.1
59.953,-155.51
59.968,-146.53
59.984,-131.71
