timestamp,value
00.000,-299.91
00.015,-277.26
00.031,-254.88
00.046,-233.51
00.062,-213.63
00.078,-195.64
00.093,-179.81
00.109,-166.49
00.125,-156.23
00.140,-149.52
00.156,-146.51
00.171,-146.86
00.187,-149.68
00.203,-153.44
00.218,-156.68
00.234,-158.29
00.250,-157.66
00.265,-155.0
00.281,-151.07
00.296,-146.84
00.312,-142.98
00.328,-139.66
00.343,-136.37
00.359,-132.32
00.375,-126.8
00.390,-119.43
00.406,-110.36
00.421,-100.06
00.437,-89.27
00.453,-78.49
00.468,-67.88
00.484,-57.22
00.500,-45.96
00.515,-33.36
00.531,-18.65
00.546,-1.08
00.562,20.01
00.578,44.8
00.593,72.82
00.609,102.8
00.625,132.85
00.640,160.86
00.656,185.22
00.671,205.3
00.687,221.29
00.703,233.84
00.718,243.43
00.734,249.69
00.750,251.56
00.765,247.53
00.781,236.32
00.796,217.31
00.812,190.91
00.828,158.34
00.843,121.43
00.859,82.38
00.875,43.24
00.890,6.06
00.906,-27.46
00.921,-56.11
00.937,-79.29
00.953,-97.05
00.968,-109.78
00.984,-117.98
01.000,-122.12
01.015,-122.52
01.031,-119.59
01.046,-113.92
01.062,-106.4
01.078,-98.05
01.093,-89.93
01.109,-82.83
01.125,-77.08
01.140,-72.75
01.156,-69.55
01.171,-66.84
01.187,-63.59
01.203,-58.62
01.218,-50.65
01.234,-39.06
01.250,-24.03
01.265,-6.74
01.281,11.07
01.296,27.66
01.312,41.85
01.328,53.45
01.343,62.93
01.359,71.25
01.375,79.09
01.390,86.65
01.406,93.67
01.421,99.68
01.437,104.21
01.453,106.99
01.468,107.82
01.484,106.43
01.500,102.52
01.515,95.7
01.531,85.7
01.546,72.57
01.562,56.8
01.578,39.39
01.593,21.49
01.609,4.16
01.625,-11.87
01.640,-26.36
01.656,-39.46
01.671,-51.51
01.687,-62.8
01.703,-73.52
01.718,-83.49
01.734,-92.5
01.750,-100.22
01.765,-106.4
01.781,-110.85
01.796,-113.64
01.812,-114.93
01.828,-114.79
01.843,-113.25
01.859,-110.02
01.875,-104.94
01.890,-97.8
01.906,-88.89
01.921,-78.75
01.937,-68.41
01.953,-58.97
01.968,-51.1
01.984,-45.08
02.000,-40.69
02.015,-37.34
02.031,-34.14
02.046,-30.16
02.062,-24.5
02.078,-16.62
02.093,-6.26
02.109,6.33
02.125,20.37
02.140,34.75
02.156,48.22
02.171,59.8
02.187,68.95
02.203,75.58
02.218,79.94
02.234,82.49
02.250,83.51
02.265,82.96
02.281,80.87
02.296,77.21
02.312,72.16
02.328,66.1
02.343,59.62
02.359,53.17
02.375,47.17
02.390,41.75
02.406,36.7
02.421,31.85
02.437,27.05
02.453,22.13
02.468,16.99
02.484,11.59
02.500,5.72
02.515,-0.76
02.531,-8.01
02.546,-16.05
02.562,-24.75
02.578,-33.81
02.593,-42.96
02.609,-51.81
02.625,-59.83
02.640,-66.5
02.656,-71.18
02.671,-73.38
02.687,-72.8
02.703,-69.65
02.718,-64.54
02.734,-58.38
02.750,-52.09
02.765,-46.29
02.781,-41.34
02.796,-37.17
02.812,-33.39
02.828,-29.42
02.843,-24.43
02.859,-17.64
02.875,-8.46
02.890,3.24
02.906,16.94
02.921,31.21
02.937,44.22
02.953,54.06
02.968,59.21
02.984,59.01
03.000,53.93
03.015,45.21
03.031,34.53
03.046,23.71
03.062,14.17
03.078,6.91
03.093,2.47
03.109,0.88
03.125,1.94
03.140,5.4
03.156,11.01
03.171,18.35
03.187,26.99
03.203,36.23
03.218,45.25
03.234,53.21
03.250,59.33
03.265,63.26
03.281,65.11
03.296,65.42
03.312,64.93
03.328,64.4
03.343,64.21
03.359,64.49
03.375,65.01
03.390,65.2
03.406,64.55
03.421,62.62
03.437,59.23
03.453,54.47
03.468,48.59
03.484,41.56
03.500,33.47
03.515,24.56
03.531,15.13
03.546,5.83
03.562,-2.59
03.578,-9.53
03.593,-14.81
03.609,-18.69
03.625,-21.92
03.640,-25.44
03.656,-30.0
03.671,-36.07
03.687,-43.61
03.703,-52.23
03.718,-61.3
03.734,-70.12
03.750,-78.12
03.765,-84.99
03.781,-90.69
03.796,-95.47
03.812,-99.72
03.828,-103.75
03.843,-107.82
03.859,-112.09
03.875,-116.44
03.890,-120.82
03.906,-125.3
03.921,-130.14
03.937,-135.88
03.953,-143.04
03.968,-151.78
03.984,-161.82
04.000,-172.47
04.015,-182.51
04.031,-190.74
04.046,-196.12
04.062,-198.32
04.078,-197.66
04.093,-195.09
04.109,-191.91
04.125,-189.37
04.140,-188.48
04.156,-189.66
04.171,-192.79
04.187,-196.72
04.203,-199.69
04.218,-199.44
04.234,-193.75
04.250,-181.19
04.265,-161.4
04.281,-135.33
04.296,-104.64
04.312,-71.39
04.328,-37.1
04.343,-2.71
04.359,31.11
04.375,63.44
04.390,92.74
04.406,116.89
04.421,133.83
04.437,142.5
04.453,143.15
04.468,137.54
04.484,128.23
04.500,117.68
04.515,107.67
04.531,98.95
04.546,91.6
04.562,85.41
04.578,80.33
04.593,76.49
04.609,74.22
04.625,73.73
04.640,74.96
04.656,77.66
04.671,81.08
04.687,84.58
04.703,87.37
04.718,88.96
04.734,88.93
04.750,87.12
04.765,83.62
04.781,78.79
04.796,73.69
04.812,69.8
04.828,69.01
04.843,72.77
04.859,81.83
04.875,95.65
04.890,112.49
04.906,129.93
04.921,145.42
04.937,157.12
04.953,164.1
04.968,166.57
04.984,165.3
05.000,161.27
05.015,155.22
05.031,147.62
05.046,138.67
05.062,128.46
05.078,117.41
05.093,105.9
05.109,94.63
05.125,84.2
05.140,75.07
05.156,67.43
05.171,61.23
05.187,56.14
05.203,51.75
05.218,47.69
05.234,43.4
05.250,38.62
05.265,33.24
05.281,27.28
05.296,21.06
05.312,15.11
05.328,9.92
05.343,5.82
05.359,2.82
05.375,0.53
05.390,-1.62
05.406,-4.17
05.421,-7.44
05.437,-11.19
05.453,-14.49
05.468,-15.81
05.484,-13.42
05.500,-5.94
05.515,7.09
05.531,24.86
05.546,45.49
05.562,66.29
05.578,84.64
05.593,98.58
05.609,107.23
05.625,110.78
05.640,110.35
05.656,107.26
05.671,102.75
05.687,97.77
05.703,92.64
05.718,87.62
05.734,82.79
05.750,78.31
05.765,74.58
05.781,72.02
05.796,70.91
05.812,71.31
05.828,73.15
05.843,75.88
05.859,78.85
05.875,81.13
05.890,81.64
05.906,79.45
05.921,74.02
05.937,65.39
05.953,54.08
05.968,41.29
05.984,28.29
06.000,16.27
06.015,6.01
06.031,-2.44
06.046,-9.59
06.062,-16.27
06.078,-23.18
06.093,-30.85
06.109,-38.87
06.125,-46.22
06.140,-51.1
06.156,-51.48
06.171,-46.03
06.187,-34.45
06.203,-18.0
06.218,0.94
06.234,19.25
06.250,34.26
06.265,44.23
06.281,48.87
06.296,49.2
06.312,46.9
06.328,43.84
06.343,41.63
06.359,41.39
06.375,43.65
06.390,48.44
06.406,55.4
06.421,63.78
06.437,72.94
06.453,82.41
06.468,92.01
06.484,101.95
06.500,112.53
06.515,124.1
06.531,136.82
06.546,150.44
06.562,164.26
06.578,177.51
06.593,189.25
06.609,198.66
06.625,205.25
06.640,208.98
06.656,210.51
06.671,211.0
06.687,211.69
06.703,213.37
06.718,216.19
06.734,219.72
06.750,223.44
06.765,227.44
06.781,232.55
06.796,240.23
06.812,251.97
06.828,268.23
06.843,287.89
06.859,308.31
06.875,325.99
06.890,337.4
06.906,340.11
06.921,333.11
06.937,316.98
06.953,293.6
06.968,265.54
06.984,235.42
07.000,205.36
07.015,176.81
07.031,150.48
07.046,126.67
07.062,105.53
07.078,87.02
07.093,71.11
07.109,57.46
07.125,45.48
07.140,34.36
07.156,23.33
07.171,11.83
07.187,-0.32
07.203,-12.95
07.218,-25.87
07.234,-38.9
07.250,-52.05
07.265,-65.44
07.281,-79.09
07.296,-92.93
07.312,-106.77
07.328,-120.29
07.343,-133.41
07.359,-146.22
07.375,-158.95
07.390,-171.88
07.406,-185.12
07.421,-198.56
07.437,-212.07
07.453,-225.57
07.468,-239.06
07.484,-252.66
07.500,-266.76
07.515,-281.97
07.531,-299.09
07.546,-318.57
07.562,-339.95
07.578,-361.54
07.593,-380.47
07.609,-393.36
07.625,-397.47
07.640,-391.71
07.656,-377.05
07.671,-356.13
07.687,-331.99
07.703,-307.17
07.718,-283.07
07.734,-260.2
07.750,-238.72
07.765,-219.05
07.781,-201.95
07.796,-188.03
07.812,-177.55
07.828,-169.8
07.843,-163.4
07.859,-156.9
07.875,-149.22
07.890,-140.08
07.906,-129.9
07.921,-119.51
07.937,-109.51
07.953,-100.18
07.968,-91.36
07.984,-82.77
08.000,-74.22
08.015,-65.9
08.031,-58.37
08.046,-52.12
08.062,-47.57
08.078,-44.78
08.093,-43.58
08.109,-43.7
08.125,-44.96
08.140,-46.97
08.156,-48.88
08.171,-49.36
08.187,-46.6
08.203,-38.9
08.218,-25.39
08.234,-6.57
08.250,15.58
08.265,38.11
08.281,57.87
08.296,72.68
08.312,81.72
08.328,85.52
08.343,85.57
08.359,83.48
08.375,80.52
08.390,77.11
08.406,73.32
08.421,68.99
08.437,64.33
08.453,60.08
08.468,57.28
08.484,57.0
08.500,59.7
08.515,65.1
08.531,71.94
08.546,78.56
08.562,83.34
08.578,85.3
08.593,84.41
08.609,81.75
08.625,78.96
08.640,77.56
08.656,78.25
08.671,80.18
08.687,81.32
08.703,78.95
08.718,70.85
08.734,56.15
08.750,35.28
08.765,9.61
08.781,-19.72
08.796,-52.51
08.812,-89.53
08.828,-132.2
08.843,-181.6
08.859,-238.1
08.875,-300.96
08.890,-368.33
08.906,-436.82
08.921,-501.1
08.937,-554.29
08.953,-588.86
08.968,-599.27
08.984,-583.85
09.000,-546.07
09.015,-493.45
09.031,-434.95
09.046,-377.81
09.062,-325.57
09.078,-278.34
09.093,-234.44
09.109,-193.0
09.125,-155.32
09.140,-125.13
09.156,-107.29
09.171,-105.78
09.187,-121.63
09.203,-151.74
09.218,-189.04
09.234,-224.0
09.250,-247.65
09.265,-254.29
09.281,-243.01
09.296,-217.4
09.312,-182.91
09.328,-144.11
09.343,-103.04
09.359,-60.08
09.375,-16.37
09.390,23.62
09.406,51.85
09.421,59.64
09.437,41.6
09.453,-0.39
09.468,-57.08
09.484,-114.6
09.500,-159.61
09.515,-183.7
09.531,-185.3
09.546,-168.57
09.562,-139.89
09.578,-104.96
09.593,-66.74
09.609,-26.12
09.625,16.82
09.640,61.29
09.656,105.34
09.671,146.68
09.687,183.77
09.703,216.69
09.718,247.09
09.734,276.87
09.750,306.36
09.765,333.37
09.781,353.25
09.796,360.67
09.812,352.08
09.828,327.69
09.843,291.61
09.859,250.63
09.875,211.39
09.890,178.07
09.906,151.65
09.921,130.29
09.937,110.93
09.953,90.86
09.968,68.34
09.984,42.62
10.000,13.63
10.015,-18.36
10.031,-52.77
10.046,-88.07
10.062,-121.78
10.078,-150.72
10.093,-171.53
10.109,-181.97
10.125,-181.57
10.140,-171.83
10.156,-155.72
10.171,-136.69
10.187,-117.39
10.203,-98.99
10.218,-81.11
10.234,-62.34
10.250,-41.23
10.265,-16.85
10.281,10.9
10.296,41.41
10.312,73.21
10.328,104.24
10.343,131.75
10.359,152.8
10.375,165.07
10.390,167.57
10.406,161.18
10.421,148.45
10.437,132.93
10.453,117.85
10.468,105.51
10.484,96.89
10.500,92.27
10.515,92.07
10.531,96.98
10.546,107.96
10.562,125.58
10.578,149.62
10.593,178.71
10.609,210.62
10.625,242.87
10.640,272.92
10.656,298.78
10.671,318.65
10.687,331.05
10.703,334.89
10.718,329.96
10.734,317.07
10.750,297.9
10.765,274.88
10.781,249.89
10.796,223.88
10.812,196.33
10.828,165.46
10.843,129.21
10.859,86.47
10.875,38.28
10.890,-11.6
10.906,-57.02
10.921,-90.8
10.937,-106.6
10.953,-100.97
10.968,-74.55
10.984,-32.16
11.000,18.51
11.015,68.83
11.031,111.59
11.046,142.24
11.062,159.04
11.078,162.89
11.093,156.15
11.109,141.99
11.125,123.94
11.140,105.73
11.156,90.87
11.171,82.18
11.187,81.03
11.203,86.69
11.218,96.85
11.234,108.5
11.250,118.96
11.265,126.58
11.281,130.83
11.296,131.6
11.312,128.71
11.328,121.89
11.343,110.89
11.359,96.13
11.375,78.88
11.390,60.84
11.406,43.38
11.421,27.11
11.437,11.83
11.453,-2.85
11.468,-16.85
11.484,-29.4
11.500,-39.02
11.515,-44.19
11.531,-43.91
11.546,-38.24
11.562,-28.29
11.578,-16.29
11.593,-5.04
11.609,2.55
11.625,3.99
11.640,-1.93
11.656,-14.77
11.671,-32.5
11.687,-52.06
11.703,-70.14
11.718,-84.31
11.734,-93.2
11.750,-96.7
11.765,-95.73
11.781,-91.88
11.796,-87.04
11.812,-83.19
11.828,-82.04
11.843,-84.63
11.859,-91.26
11.875,-101.25
11.890,-113.05
11.906,-124.56
11.921,-133.6
11.937,-138.07
11.953,-136.59
11.968,-128.7
11.984,-115.09
12.000,-97.48
12.015,-78.08
12.031,-58.96
12.046,-41.56
12.062,-26.53
12.078,-14.01
12.093,-3.95
12.109,3.53
12.125,8.14
12.140,9.73
12.156,8.59
12.171,5.74
12.187,2.7
12.203,1.32
12.218,3.06
12.234,8.59
12.250,17.5
12.265,28.39
12.281,39.44
12.296,48.74
12.312,55.1
12.328,57.99
12.343,57.67
12.359,54.92
12.375,50.75
12.390,46.13
12.406,41.75
12.421,38.03
12.437,34.9
12.453,32.18
12.468,29.48
12.484,26.46
12.500,22.89
12.515,18.82
12.531,14.54
12.546,10.4
12.562,6.82
12.578,3.92
12.593,1.74
12.609,0.14
12.625,-1.22
12.640,-2.6
12.656,-4.31
12.671,-6.44
12.687,-9.16
12.703,-12.31
12.718,-15.72
12.734,-19.11
12.750,-22.15
12.765,-24.78
12.781,-26.94
12.796,-28.97
12.812,-31.07
12.828,-33.55
12.843,-36.12
12.859,-38.21
12.875,-39.11
12.890,-37.99
12.906,-34.37
12.921,-28.23
12.937,-20.33
12.953,-12.0
12.968,-4.79
12.984,0.2
13.000,2.57
13.015,2.63
13.031,1.35
13.046,-0.18
13.062,-1.0
13.078,-0.67
13.093,0.63
13.109,2.44
13.125,4.46
13.140,6.52
13.156,8.21
13.171,9.23
13.187,9.17
13.203,7.92
13.218,5.81
13.234,3.55
13.250,2.11
13.265,3.5
13.281,9.02
13.296,18.52
13.312,30.73
13.328,43.8
13.343,56.26
13.359,67.45
13.375,77.47
13.390,86.62
13.406,97.68
13.421,112.4
13.437,130.56
13.453,150.2
13.468,168.93
13.484,185.18
13.500,199.13
13.515,211.97
13.531,225.16
13.546,243.86
13.562,271.11
13.578,306.63
13.593,346.82
13.609,386.87
13.625,422.86
13.640,452.69
13.656,475.37
13.671,490.42
13.687,502.36
13.703,513.64
13.718,523.11
13.734,526.03
13.750,516.74
13.765,491.89
13.781,451.68
13.796,399.63
13.812,310.53
13.828,177.24
13.843,11.08
13.859,-160.94
13.875,-311.04
13.890,-423.85
13.906,-497.75
13.921,-539.3
13.937,-557.32
13.953,-559.77
13.968,-547.9
13.984,-523.27
14.000,-488.91
14.015,-449.7
14.031,-410.54
14.046,-373.94
14.062,-340.02
14.078,-307.84
14.093,-276.47
14.109,-241.92
14.125,-202.7
14.140,-158.85
14.156,-114.83
14.171,-75.9
14.187,-45.78
14.203,-26.16
14.218,-16.75
14.234,-15.77
14.250,-18.18
14.265,-19.55
14.281,-17.29
14.296,-11.65
14.312,-4.21
14.328,3.31
14.343,9.64
14.359,14.43
14.375,18.07
14.390,22.21
14.406,27.81
14.421,34.66
14.437,40.98
14.453,44.45
14.468,44.95
14.484,42.44
14.500,37.48
14.515,31.09
14.531,24.63
14.546,19.1
14.562,14.79
14.578,11.29
14.593,7.85
14.609,3.87
14.625,-1.21
14.640,-7.63
14.656,-15.32
14.671,-24.23
14.687,-34.29
14.703,-45.51
14.718,-57.87
14.734,-71.05
14.750,-84.39
14.765,-97.16
14.781,-108.37
14.796,-117.1
14.812,-122.73
14.828,-125.15
14.843,-124.74
14.859,-122.27
14.875,-118.56
14.890,-114.18
14.906,-109.5
14.921,-104.28
14.937,-97.88
14.953,-89.52
14.968,-78.47
14.984,-64.51
15.000,-48.01
15.015,-30.16
15.031,-12.54
15.046,3.15
15.062,15.67
15.078,24.53
15.093,29.99
15.109,32.85
15.125,34.01
15.140,34.13
15.156,33.47
15.171,31.99
15.187,29.68
15.203,26.77
15.218,23.74
15.234,21.14
15.250,19.28
15.265,18.16
15.281,17.4
15.296,16.39
15.312,14.71
15.328,12.03
15.343,8.22
15.359,3.15
15.375,-3.28
15.390,-10.65
15.406,-17.89
15.421,-23.31
15.437,-25.38
15.453,-23.4
15.468,-18.22
15.484,-11.81
15.500,-6.47
15.515,-3.71
15.531,-3.65
15.546,-5.33
15.562,-7.5
15.578,-9.64
15.593,-12.02
15.609,-15.41
15.625,-20.03
15.640,-25.12
15.656,-28.94
15.671,-29.55
15.687,-25.82
15.703,-17.97
15.718,-7.51
15.734,3.34
15.750,12.39
15.765,18.35
15.781,20.96
15.796,20.82
15.812,18.97
15.828,16.28
15.843,13.06
15.859,9.22
15.875,4.41
15.890,-1.47
15.906,-8.02
15.921,-14.45
15.937,-19.85
15.953,-23.58
15.968,-25.63
15.984,-26.53
16.000,-27.06
16.015,-27.97
16.031,-29.57
16.046,-31.74
16.062,-34.03
16.078,-36.01
16.093,-37.42
16.109,-38.45
16.125,-39.53
16.140,-41.17
16.156,-43.71
16.171,-46.97
16.187,-50.23
16.203,-52.35
16.218,-52.07
16.234,-48.51
16.250,-41.53
16.265,-31.98
16.281,-21.34
16.296,-11.32
16.312,-2.96
16.328,3.9
16.343,10.69
16.359,19.85
16.375,33.79
16.390,53.75
16.406,78.78
16.421,105.32
16.437,127.71
16.453,139.72
16.468,136.5
16.484,116.06
16.500,79.96
16.515,32.51
16.531,-20.61
16.546,-74.48
16.562,-126.18
16.578,-175.16
16.593,-222.62
16.609,-270.54
16.625,-320.7
16.640,-373.82
16.656,-428.64
16.671,-481.26
16.687,-525.22
16.703,-552.57
16.718,-556.28
16.734,-532.68
16.750,-483.04
16.765,-413.23
16.781,-331.52
16.796,-245.84
16.812,-161.57
16.828,-81.05
16.843,-4.92
16.859,66.17
16.875,130.21
16.890,183.98
16.906,224.11
16.921,248.49
16.937,257.07
16.953,251.59
16.968,234.87
16.984,209.98
17.000,179.58
17.015,145.89
17.031,111.13
17.046,77.95
17.062,49.38
17.078,28.32
17.093,16.62
17.109,14.24
17.125,19.25
17.140,28.48
17.156,38.5
17.171,46.97
17.187,53.09
17.203,57.56
17.218,62.02
17.234,67.96
17.250,76.0
17.265,85.5
17.281,94.91
17.296,102.27
17.312,106.05
17.328,105.47
17.343,100.69
17.359,92.54
17.375,82.24
17.390,71.02
17.406,59.85
17.421,49.32
17.437,39.77
17.453,31.42
17.468,24.38
17.484,18.81
17.500,14.67
17.515,11.76
17.531,9.58
17.546,7.45
17.562,4.76
17.578,1.07
17.593,-3.56
17.609,-8.88
17.625,-14.5
17.640,-20.24
17.656,-26.14
17.671,-32.36
17.687,-39.07
17.703,-46.33
17.718,-54.06
17.734,-61.95
17.750,-69.51
17.765,-76.07
17.781,-80.63
17.796,-82.2
17.812,-79.9
17.828,-73.28
17.843,-62.7
17.859,-49.3
17.875,-34.71
17.890,-20.64
17.906,-8.51
17.921,0.87
17.937,7.25
17.953,10.92
17.968,12.5
17.984,12.69
18.000,12.13
18.015,11.36
18.031,10.75
18.046,10.47
18.062,10.64
18.078,11.26
18.093,12.33
18.109,13.91
18.125,16.04
18.140,18.7
18.156,21.85
18.171,25.34
18.187,28.94
18.203,32.37
18.218,35.29
18.234,37.4
18.250,38.41
18.265,38.16
18.281,36.71
18.296,34.3
18.312,31.35
18.328,28.42
18.343,26.06
18.359,24.66
18.375,24.33
18.390,24.78
18.406,25.41
18.421,25.54
18.437,24.58
18.453,22.32
18.468,19.05
18.484,15.54
18.500,12.78
18.515,11.79
18.531,13.11
18.546,16.67
18.562,21.71
18.578,26.95
18.593,30.94
18.609,32.5
18.625,30.91
18.640,25.94
18.656,17.85
18.671,7.15
18.687,-5.3
18.703,-18.29
18.718,-30.34
18.734,-39.87
18.750,-45.61
18.765,-46.96
18.781,-44.15
18.796,-38.16
18.812,-30.27
18.828,-21.61
18.843,-12.82
18.859,-4.13
18.875,4.48
18.890,12.9
18.906,20.74
18.921,27.43
18.937,32.42
18.953,35.29
18.968,35.86
18.984,34.26
19.000,30.73
19.015,25.74
19.031,19.78
19.046,13.34
19.062,6.88
19.078,0.71
19.093,-5.02
19.109,-10.36
19.125,-15.33
19.140,-19.87
19.156,-23.61
19.171,-25.87
19.187,-25.85
19.203,-22.9
19.218,-16.78
19.234,-7.82
19.250,2.9
19.265,14.01
19.281,24.03
19.296,31.84
19.312,36.98
19.328,39.65
19.343,40.4
19.359,39.99
19.375,39.14
19.390,38.09
19.406,36.88
19.421,35.25
19.437,32.78
19.453,29.32
19.468,24.88
19.484,19.8
19.500,14.54
19.515,9.65
19.531,5.6
19.546,2.73
19.562,1.22
19.578,1.04
19.593,2.17
19.609,4.59
19.625,8.41
19.640,13.64
19.656,20.01
19.671,26.83
19.687,33.04
19.703,37.49
19.718,39.23
19.734,37.92
19.750,33.71
19.765,27.14
19.781,18.74
19.796,8.91
19.812,-2.05
19.828,-13.41
19.843,-24.11
19.859,-32.64
19.875,-37.35
19.890,-37.14
19.906,-31.77
19.921,-22.08
19.937,-9.77
19.953,3.01
19.968,14.3
19.984,22.78
20.000,27.9
20.015,29.86
20.031,29.31
20.046,26.98
20.062,23.52
20.078,19.35
20.093,14.68
20.109,9.72
20.125,4.75
20.140,0.09
20.156,-3.82
20.171,-6.62
20.187,-8.16
20.203,-8.5
20.218,-7.89
20.234,-6.69
20.250,-5.25
20.265,-3.78
20.281,-2.49
20.296,-1.48
20.312,-1.06
20.328,-1.49
20.343,-3.02
20.359,-5.73
20.375,-9.31
20.390,-13.25
20.406,-17.01
20.421,-20.23
20.437,-22.78
20.453,-25.06
20.468,-27.61
20.484,-30.98
20.500,-35.41
20.515,-40.65
20.531,-45.94
20.546,-50.19
20.562,-52.11
20.578,-50.58
20.593,-44.99
20.609,-35.43
20.625,-22.69
20.640,-8.25
20.656,6.2
20.671,18.99
20.687,29.02
20.703,35.82
20.718,39.61
20.734,40.95
20.750,40.42
20.765,38.52
20.781,35.44
20.796,31.45
20.812,26.76
20.828,21.83
20.843,17.15
20.859,13.12
20.875,9.93
20.890,7.54
20.906,5.88
20.921,4.75
20.937,4.17
20.953,4.07
20.968,4.32
20.984,4.54
21.000,4.18
21.015,2.66
21.031,-0.38
21.046,-4.98
21.062,-10.88
21.078,-17.41
21.093,-23.95
21.109,-29.91
21.125,-34.98
21.140,-39.29
21.156,-43.19
21.171,-47.19
21.187,-51.68
21.203,-56.76
21.218,-61.88
21.234,-66.17
21.250,-68.42
21.265,-67.47
21.281,-62.67
21.296,-54.08
21.312,-42.57
21.328,-29.64
21.343,-17.02
21.359,-6.11
21.375,2.27
21.390,8.11
21.406,12.14
21.421,15.62
21.437,19.82
21.453,25.63
21.468,33.28
21.484,42.13
21.500,51.01
21.515,58.36
21.531,62.78
21.546,63.3
21.562,59.59
21.578,52.01
21.593,41.34
21.609,28.54
21.625,14.62
21.640,0.54
21.656,-13.05
21.671,-25.61
21.687,-36.8
21.703,-46.5
21.718,-54.54
21.734,-60.69
21.750,-64.67
21.765,-66.03
21.781,-64.31
21.796,-59.45
21.812,-51.89
21.828,-42.77
21.843,-33.92
21.859,-27.5
21.875,-25.52
21.890,-29.24
21.906,-38.78
21.921,-52.84
21.937,-68.94
21.953,-83.82
21.968,-94.38
21.984,-98.35
22.000,-94.92
22.015,-84.85
22.031,-70.11
22.046,-53.32
22.062,-37.04
22.078,-23.14
22.093,-12.4
22.109,-4.7
22.125,0.85
22.140,5.5
22.156,10.42
22.171,16.32
22.187,23.32
22.203,31.0
22.218,38.59
22.234,45.4
22.250,50.75
22.265,54.22
22.281,55.75
22.296,55.56
22.312,54.17
22.328,52.42
22.343,51.14
22.359,50.95
22.375,52.04
22.390,54.04
22.406,56.34
22.421,58.32
22.437,59.63
22.453,60.19
22.468,60.17
22.484,59.8
22.500,59.14
22.515,58.3
22.531,57.21
22.546,55.79
22.562,53.97
22.578,51.53
22.593,48.36
22.609,44.29
22.625,39.25
22.640,33.28
22.656,26.62
22.671,19.52
22.687,12.21
22.703,4.93
22.718,-2.26
22.734,-9.26
22.750,-16.05
22.765,-22.61
22.781,-28.93
22.796,-34.82
22.812,-39.99
22.828,-44.02
22.843,-46.38
22.859,-46.74
22.875,-44.93
22.890,-41.11
22.906,-35.81
22.921,-29.74
22.937,-23.54
22.953,-17.62
22.968,-12.11
22.984,-6.9
23.000,-1.8
23.015,3.31
23.031,8.41
23.046,13.22
23.062,17.35
23.078,20.36
23.093,22.03
23.109,22.32
23.125,21.34
23.140,19.35
23.156,16.66
23.171,13.63
23.187,10.57
23.203,7.81
23.218,5.57
23.234,4.01
23.250,3.16
23.265,2.79
23.281,2.51
23.296,1.77
23.312,0.07
23.328,-2.79
23.343,-6.52
23.359,-10.34
23.375,-13.12
23.390,-13.73
23.406,-11.43
23.421,-6.12
23.437,1.59
23.453,10.71
23.468,20.11
23.484,28.94
23.500,36.67
23.515,43.2
23.531,48.64
23.546,53.07
23.562,56.52
23.578,58.9
23.593,60.12
23.609,60.24
23.625,59.45
23.640,58.03
23.656,56.31
23.671,54.58
23.687,53.06
23.703,52.07
23.718,51.91
23.734,52.74
23.750,54.51
23.765,56.83
23.781,59.02
23.796,60.36
23.812,60.25
23.828,58.45
23.843,55.09
23.859,50.55
23.875,45.34
23.890,39.99
23.906,34.98
23.921,30.7
23.937,27.38
23.953,25.06
23.968,23.58
23.984,22.75
24.000,22.23
24.015,21.76
24.031,21.13
24.046,20.22
24.062,19.11
24.078,17.98
24.093,17.11
24.109,16.72
24.125,17.09
24.140,18.32
24.156,20.4
24.171,23.24
24.187,26.62
24.203,30.4
24.218,34.48
24.234,38.73
24.250,43.06
24.265,47.34
24.281,51.49
24.296,55.46
24.312,59.26
24.328,62.96
24.343,66.69
24.359,70.55
24.375,74.48
24.390,78.45
24.406,82.32
24.421,86.04
24.437,89.76
24.453,93.78
24.468,98.48
24.484,104.17
24.500,110.98
24.515,118.59
24.531,126.41
24.546,133.89
24.562,140.72
24.578,146.68
24.593,151.47
24.609,154.47
24.625,154.67
24.640,151.13
24.656,142.93
24.671,129.26
24.687,109.53
24.703,83.41
24.718,50.8
24.734,11.9
24.750,-32.27
24.765,-79.7
24.781,-127.51
24.796,-172.48
24.812,-211.97
24.828,-244.64
24.843,-270.62
24.859,-291.08
24.875,-307.37
24.890,-320.19
24.906,-329.12
24.921,-333.19
24.937,-331.21
24.953,-322.58
24.968,-307.48
24.984,-287.09
25.000,-262.91
25.015,-236.54
25.031,-209.7
25.046,-183.91
25.062,-160.45
25.078,-140.09
25.093,-123.03
25.109,-108.95
25.125,-97.52
25.140,-88.21
25.156,-80.41
25.171,-73.5
25.187,-66.92
25.203,-60.14
25.218,-52.61
25.234,-44.03
25.250,-34.33
25.265,-23.84
25.281,-12.98
25.296,-2.37
25.312,7.45
25.328,16.07
25.343,23.3
25.359,29.13
25.375,33.7
25.390,37.22
25.406,40.0
25.421,42.5
25.437,45.02
25.453,47.94
25.468,51.36
25.484,55.26
25.500,59.42
25.515,63.53
25.531,67.18
25.546,70.02
25.562,72.0
25.578,73.17
25.593,73.92
25.609,74.56
25.625,75.26
25.640,76.0
25.656,76.59
25.671,76.72
25.687,76.14
25.703,74.75
25.718,72.45
25.734,69.38
25.750,65.82
25.765,62.33
25.781,59.69
25.796,58.81
25.812,60.26
25.828,64.14
25.843,69.76
25.859,75.75
25.875,80.34
25.890,81.88
25.906,79.21
25.921,71.9
25.937,60.23
25.953,45.05
25.968,27.65
25.984,9.63
26.000,-7.35
26.015,-21.59
26.031,-31.7
26.046,-36.84
26.062,-36.87
26.078,-32.34
26.093,-24.03
26.109,-12.84
26.125,0.48
26.140,14.9
26.156,29.12
26.171,41.51
26.187,50.31
26.203,54.14
26.218,52.33
26.234,45.01
26.250,32.76
26.265,16.31
26.281,-3.93
26.296,-27.46
26.312,-53.52
26.328,-80.56
26.343,-106.25
26.359,-127.83
26.375,-142.95
26.390,-150.39
26.406,-150.22
26.421,-143.8
26.437,-133.0
26.453,-119.86
26.468,-106.13
26.484,-93.1
26.500,-81.69
26.515,-72.26
26.531,-64.69
26.546,-58.25
26.562,-51.86
26.578,-44.45
26.593,-35.46
26.609,-24.92
26.625,-13.44
26.640,-1.74
26.656,9.62
26.671,20.16
26.687,29.5
26.703,37.23
26.718,43.05
26.734,46.98
26.750,49.71
26.765,52.44
26.781,56.49
26.796,62.82
26.812,71.67
26.828,82.72
26.843,95.35
26.859,109.0
26.875,123.03
26.890,136.58
26.906,148.24
26.921,156.15
26.937,158.55
26.953,154.4
26.968,143.95
26.984,128.57
27.000,110.3
27.015,91.19
27.031,72.89
27.046,56.55
27.062,43.03
27.078,32.92
27.093,26.53
27.109,23.73
27.125,23.74
27.140,25.2
27.156,26.66
27.171,26.95
27.187,25.54
27.203,22.73
27.218,19.34
27.234,16.39
27.250,14.65
27.265,14.29
27.281,14.95
27.296,15.97
27.312,16.78
27.328,17.18
27.343,17.43
27.359,18.22
27.375,20.17
27.390,23.77
27.406,29.03
27.421,35.62
27.437,43.09
27.453,51.02
27.468,59.18
27.484,67.46
27.500,75.96
27.515,84.79
27.531,94.16
27.546,104.22
27.562,115.27
27.578,127.5
27.593,141.14
27.609,156.24
27.625,172.59
27.640,189.56
27.656,206.17
27.671,221.16
27.687,233.18
27.703,241.15
27.718,244.1
27.734,241.36
27.750,232.34
27.765,216.55
27.781,193.61
27.796,163.48
27.812,126.55
27.828,83.7
27.843,36.51
27.859,-13.12
27.875,-62.94
27.890,-110.67
27.906,-154.38
27.921,-192.65
27.937,-224.87
27.953,-251.28
27.968,-273.11
27.984,-292.24
28.000,-311.04
28.015,-331.8
28.031,-356.06
28.046,-383.84
28.062,-413.11
28.078,-439.94
28.093,-459.26
28.109,-466.61
28.125,-459.66
28.140,-439.26
28.156,-409.12
28.171,-374.32
28.187,-339.53
28.203,-307.32
28.218,-277.88
28.234,-249.6
28.250,-220.48
28.265,-189.37
28.281,-156.81
28.296,-124.63
28.312,-95.2
28.328,-70.65
28.343,-52.05
28.359,-39.47
28.375,-32.01
28.390,-28.47
28.406,-27.57
28.421,-28.34
28.437,-29.96
28.453,-31.46
28.468,-31.82
28.484,-30.05
28.500,-25.63
28.515,-18.66
28.531,-10.08
28.546,-1.05
28.562,7.23
28.578,13.96
28.593,18.96
28.609,22.56
28.625,25.26
28.640,27.46
28.656,29.29
28.671,30.44
28.687,30.55
28.703,29.36
28.718,26.79
28.734,23.24
28.750,19.3
28.765,15.74
28.781,13.08
28.796,11.52
28.812,10.74
28.828,10.11
28.843,8.93
28.859,6.69
28.875,3.48
28.890,-0.09
28.906,-2.86
28.921,-3.57
28.937,-1.14
28.953,4.76
28.968,13.79
28.984,24.9
29.000,36.66
29.015,47.78
29.031,57.23
29.046,64.57
29.062,69.74
29.078,72.98
29.093,74.53
29.109,74.67
29.125,73.7
29.140,71.95
29.156,69.83
29.171,67.76
29.187,66.04
29.203,64.87
29.218,64.17
29.234,63.76
29.250,63.36
29.265,62.81
29.281,62.03
29.296,61.06
29.312,59.98
29.328,58.7
29.343,57.05
29.359,54.73
29.375,51.48
29.390,47.18
29.406,41.98
29.421,36.22
29.437,30.37
29.453,24.9
29.468,20.09
29.484,16.09
29.500,12.82
29.515,9.99
29.531,7.27
29.546,4.38
29.562,1.12
29.578,-2.28
29.593,-5.36
29.609,-7.34
29.625,-7.27
29.640,-4.41
29.656,1.53
29.671,10.22
29.687,20.65
29.703,31.48
29.718,41.25
29.734,48.83
29.750,53.66
29.765,55.87
29.781,55.94
29.796,54.55
29.812,52.34
29.828,49.63
29.843,46.72
29.859,43.81
29.875,41.11
29.890,38.84
29.906,37.14
29.921,35.86
29.937,34.67
29.953,33.19
29.968,31.11
29.984,28.44
30.000,25.51
30.015,22.69
30.031,20.24
30.046,18.11
30.062,15.95
30.078,13.29
30.093,9.86
30.109,5.64
30.125,1.01
30.140,-3.46
30.156,-7.27
30.171,-10.17
30.187,-12.27
30.203,-13.94
30.218,-15.69
30.234,-17.9
30.250,-20.75
30.265,-23.99
30.281,-26.98
30.296,-28.85
30.312,-28.65
30.328,-25.77
30.343,-20.09
30.359,-12.15
30.375,-2.97
30.390,6.18
30.406,14.17
30.421,20.19
30.437,23.89
30.453,25.39
30.468,24.99
30.484,23.16
30.500,20.36
30.515,17.04
30.531,13.62
30.546,10.48
30.562,7.89
30.578,5.92
30.593,4.51
30.609,3.46
30.625,2.64
30.640,2.01
30.656,1.58
30.671,1.43
30.687,1.53
30.703,1.71
30.718,1.57
30.734,0.77
30.750,-1.05
30.765,-3.93
30.781,-7.69
30.796,-11.94
30.812,-16.2
30.828,-20.03
30.843,-23.11
30.859,-25.43
30.875,-27.03
30.890,-28.19
30.906,-29.18
30.921,-30.25
30.937,-31.46
30.953,-32.54
30.968,-32.96
30.984,-32.02
31.000,-29.05
31.015,-23.67
31.031,-16.05
31.046,-6.87
31.062,2.73
31.078,11.42
31.093,18.16
31.109,22.38
31.125,24.02
31.140,23.6
31.156,21.83
31.171,19.43
31.187,16.9
31.203,14.5
31.218,12.35
31.234,10.51
31.250,9.09
31.265,8.11
31.281,7.58
31.296,7.36
31.312,7.16
31.328,6.73
31.343,5.9
31.359,4.71
31.375,3.29
31.390,1.87
31.406,0.5
31.421,-0.81
31.437,-2.3
31.453,-4.25
31.468,-6.84
31.484,-9.98
31.500,-13.45
31.515,-16.82
31.531,-19.62
31.546,-21.75
31.562,-23.28
31.578,-24.61
31.593,-26.32
31.609,-28.83
31.625,-32.26
31.640,-36.31
31.656,-40.22
31.671,-42.92
31.687,-43.42
31.703,-40.92
31.718,-35.16
31.734,-26.5
31.750,-15.68
31.765,-3.83
31.781,7.88
31.796,18.57
31.812,27.53
31.828,34.31
31.843,38.78
31.859,40.95
31.875,40.96
31.890,39.16
31.906,36.0
31.921,31.97
31.937,27.6
31.953,23.35
31.968,19.47
31.984,16.35
32.000,14.1
32.015,12.78
32.031,12.42
32.046,12.88
32.062,14.0
32.078,15.52
32.093,17.21
32.109,18.68
32.125,19.75
32.140,20.15
32.156,19.6
32.171,18.11
32.187,15.63
32.203,12.39
32.218,8.78
32.234,5.2
32.250,1.99
32.265,-0.6
32.281,-2.72
32.296,-4.67
32.312,-6.82
32.328,-9.51
32.343,-12.86
32.359,-16.52
32.375,-19.7
32.390,-21.36
32.406,-20.32
32.421,-15.88
32.437,-8.05
32.453,2.3
32.468,13.59
32.484,24.09
32.500,32.39
32.515,37.71
32.531,40.03
32.546,39.79
32.562,37.73
32.578,34.48
32.593,30.58
32.609,26.32
32.625,22.0
32.640,18.02
32.656,14.54
32.671,11.73
32.687,9.4
32.703,7.34
32.718,5.16
32.734,2.6
32.750,-0.52
32.765,-4.12
32.781,-7.96
32.796,-11.88
32.812,-15.75
32.828,-19.68
32.843,-23.75
32.859,-28.03
32.875,-32.36
32.890,-36.48
32.906,-39.95
32.921,-42.33
32.937,-43.23
32.953,-42.47
32.968,-39.92
32.984,-35.78
33.000,-30.45
33.015,-24.43
33.031,-18.29
33.046,-12.47
33.062,-6.95
33.078,-1.29
33.093,5.5
33.109,14.5
33.125,26.49
33.140,41.64
33.156,59.31
33.171,78.24
33.187,96.76
33.203,113.5
33.218,127.56
33.234,138.96
33.250,148.37
33.265,156.68
33.281,164.62
33.296,172.42
33.312,179.74
33.328,185.73
33.343,189.52
33.359,190.42
33.375,188.17
33.390,182.96
33.406,175.24
33.421,165.45
33.437,153.92
33.453,140.65
33.468,125.41
33.484,107.79
33.500,87.25
33.515,63.39
33.531,36.2
33.546,6.28
33.562,-24.98
33.578,-55.53
33.593,-83.2
33.609,-106.13
33.625,-123.3
33.640,-134.88
33.656,-142.2
33.671,-147.53
33.687,-153.64
33.703,-163.0
33.718,-177.0
33.734,-195.2
33.750,-214.8
33.765,-231.17
33.781,-239.25
33.796,-235.35
33.812,-218.53
33.828,-191.27
33.843,-158.43
33.859,-125.75
33.875,-98.15
33.890,-78.81
33.906,-69.04
33.921,-68.89
33.937,-77.68
33.953,-93.97
33.968,-115.33
33.984,-137.99
34.000,-157.47
34.015,-169.66
34.031,-172.24
34.046,-165.45
34.062,-151.69
34.078,-134.09
34.093,-115.07
34.109,-95.48
34.125,-74.77
34.140,-52.26
34.156,-28.2
34.171,-4.04
34.187,17.86
34.203,35.52
34.218,48.05
34.234,55.78
34.250,59.48
34.265,59.75
34.281,56.44
34.296,49.05
34.312,37.46
34.328,22.46
34.343,5.85
34.359,-10.1
34.375,-23.22
34.390,-32.34
34.406,-37.27
34.421,-38.8
34.437,-38.13
34.453,-36.35
34.468,-34.3
34.484,-32.25
34.500,-30.16
34.515,-27.66
34.531,-24.06
34.546,-18.47
34.562,-10.13
34.578,1.3
34.593,15.52
34.609,31.42
34.625,47.37
34.640,61.35
34.656,71.59
34.671,76.85
34.687,76.9
34.703,72.52
34.718,65.12
34.734,56.47
34.750,47.93
34.765,40.31
34.781,33.48
34.796,26.78
34.812,19.44
34.828,11.17
34.843,2.46
34.859,-5.78
34.875,-12.45
34.890,-17.16
34.906,-20.11
34.921,-22.13
34.937,-24.07
34.953,-26.43
34.968,-29.12
34.984,-31.77
35.000,-34.25
35.015,-36.92
35.031,-40.64
35.046,-45.94
35.062,-52.59
35.078,-59.33
35.093,-64.37
35.109,-66.37
35.125,-65.04
35.140,-61.38
35.156,-57.18
35.171,-54.02
35.187,-52.51
35.203,-52.2
35.218,-51.84
35.234,-50.11
35.250,-46.14
35.265,-39.48
35.281,-29.91
35.296,-17.2
35.312,-1.18
35.328,18.13
35.343,39.95
35.359,62.59
35.375,83.95
35.390,101.75
35.406,114.48
35.421,121.64
35.437,123.84
35.453,122.23
35.468,118.19
35.484,112.8
35.500,106.64
35.515,100.05
35.531,93.12
35.546,86.25
35.562,80.08
35.578,75.49
35.593,73.19
35.609,73.63
35.625,76.58
35.640,81.42
35.656,87.26
35.671,93.15
35.687,98.6
35.703,103.41
35.718,107.82
35.734,112.06
35.750,116.34
35.765,120.46
35.781,124.05
35.796,126.63
35.812,127.79
35.828,127.54
35.843,126.28
35.859,124.67
35.875,123.28
35.890,122.19
35.906,120.53
35.921,116.42
35.937,107.19
35.953,89.94
35.968,62.56
35.984,24.58
36.000,-22.18
36.015,-74.01
36.031,-126.09
36.046,-173.66
36.062,-213.18
36.078,-242.78
36.093,-262.51
36.109,-273.96
36.125,-279.92
36.140,-283.41
36.156,-287.13
36.171,-292.68
36.187,-300.08
36.203,-307.86
36.218,-313.58
36.234,-314.93
36.250,-310.39
36.265,-299.87
36.281,-284.32
36.296,-265.15
36.312,-243.69
36.328,-220.68
36.343,-196.12
36.359,-169.45
36.375,-139.93
36.390,-106.8
36.406,-69.5
36.421,-27.65
36.437,18.7
36.453,69.05
36.468,122.14
36.484,175.68
36.500,226.49
36.515,270.88
36.531,305.31
36.546,327.3
36.562,336.15
36.578,332.86
36.593,319.74
36.609,299.58
36.625,274.84
36.640,247.24
36.656,217.87
36.671,187.39
36.687,156.49
36.703,126.24
36.718,97.9
36.734,72.98
36.750,52.71
36.765,37.81
36.781,28.09
36.796,22.67
36.812,19.99
36.828,18.25
36.843,15.8
36.859,11.45
36.875,4.77
36.890,-3.97
36.906,-13.89
36.921,-23.79
36.937,-32.53
36.953,-39.28
36.968,-43.84
36.984,-46.39
37.000,-47.37
37.015,-47.04
37.031,-45.47
37.046,-42.6
37.062,-38.45
37.078,-33.27
37.093,-27.46
37.109,-21.4
37.125,-15.31
37.140,-9.23
37.156,-3.11
37.171,3.0
37.187,8.89
37.203,14.21
37.218,18.57
37.234,21.8
37.250,24.03
37.265,25.56
37.281,26.92
37.296,28.48
37.312,30.39
37.328,32.42
37.343,34.15
37.359,34.98
37.375,34.37
37.390,32.17
37.406,28.5
37.421,24.04
37.437,19.8
37.453,16.97
37.468,16.51
37.484,19.05
37.500,24.48
37.515,31.98
37.531,40.05
37.546,46.95
37.562,51.0
37.578,51.06
37.593,46.93
37.609,39.18
37.625,29.03
37.640,17.74
37.656,6.39
37.671,-4.47
37.687,-14.59
37.703,-23.7
37.718,-31.63
37.734,-37.96
37.750,-42.37
37.765,-44.72
37.781,-45.25
37.796,-44.37
37.812,-42.65
37.828,-40.51
37.843,-38.08
37.859,-35.38
37.875,-32.37
37.890,-29.18
37.906,-26.2
37.921,-23.93
37.937,-22.72
37.953,-22.57
37.968,-23.12
37.984,-23.67
38.000,-23.63
38.015,-22.71
38.031,-21.1
38.046,-19.28
38.062,-17.78
38.078,-16.94
38.093,-16.61
38.109,-16.36
38.125,-15.46
38.140,-13.17
38.156,-8.93
38.171,-2.46
38.187,6.26
38.203,16.94
38.218,28.81
38.234,40.82
38.250,51.56
38.265,59.78
38.281,64.57
38.296,65.75
38.312,63.8
38.328,59.61
38.343,54.21
38.359,48.4
38.375,42.71
38.390,37.28
38.406,32.06
38.421,26.94
38.437,21.78
38.453,16.57
38.468,11.21
38.484,5.66
38.500,-0.16
38.515,-6.18
38.531,-12.02
38.546,-17.22
38.562,-21.17
38.578,-23.63
38.593,-24.74
38.609,-25.11
38.625,-25.59
38.640,-26.9
38.656,-29.27
38.671,-32.43
38.687,-35.62
38.703,-38.04
38.718,-38.96
38.734,-38.13
38.750,-35.75
38.765,-32.43
38.781,-29.02
38.796,-26.2
38.812,-24.32
38.828,-23.08
38.843,-21.72
38.859,-19.2
38.875,-14.65
38.890,-7.65
38.906,1.55
38.921,12.06
38.937,22.64
38.953,31.87
38.968,38.67
38.984,42.37
39.000,42.75
39.015,40.06
39.031,34.9
39.046,28.08
39.062,20.53
39.078,13.25
39.093,6.91
39.109,1.94
39.125,-1.47
39.140,-3.49
39.156,-4.41
39.171,-4.61
39.187,-4.39
39.203,-4.04
39.218,-3.59
39.234,-2.98
39.250,-2.12
39.265,-0.83
39.281,0.78
39.296,2.52
39.312,3.99
39.328,4.8
39.343,4.66
39.359,3.54
39.375,1.52
39.390,-1.29
39.406,-4.66
39.421,-8.53
39.437,-12.71
39.453,-17.07
39.468,-21.26
39.484,-24.84
39.500,-27.22
39.515,-27.85
39.531,-26.15
39.546,-21.68
39.562,-14.24
39.578,-3.98
39.593,8.42
39.609,21.71
39.625,34.29
39.640,44.58
39.656,51.37
39.671,54.26
39.687,53.63
39.703,50.35
39.718,45.34
39.734,39.21
39.750,32.11
39.765,24.04
39.781,15.06
39.796,5.48
39.812,-4.04
39.828,-12.7
39.843,-19.87
39.859,-25.22
39.875,-28.78
39.890,-31.05
39.906,-32.55
39.921,-33.66
39.937,-34.67
39.953,-35.52
39.968,-36.13
39.984,-36.44
40.000,-36.39
40.015,-36.13
40.031,-35.74
40.046,-35.25
40.062,-34.57
40.078,-33.79
40.093,-33.11
40.109,-32.96
40.125,-33.93
40.140,-36.29
40.156,-40.13
40.171,-45.11
40.187,-50.47
40.203,-55.14
40.218,-57.97
40.234,-57.82
40.250,-53.9
40.265,-46.2
40.281,-35.29
40.296,-22.59
40.312,-9.8
40.328,1.42
40.343,10.07
40.359,15.91
40.375,19.56
40.390,22.17
40.406,24.93
40.421,29.06
40.437,35.35
40.453,44.31
40.468,56.03
40.484,70.19
40.500,86.1
40.515,102.57
40.531,118.05
40.546,130.82
40.562,139.51
40.578,142.95
40.593,140.67
40.609,132.75
40.625,119.73
40.640,102.51
40.656,82.17
40.671,60.07
40.687,37.77
40.703,17.13
40.718,-0.24
40.734,-13.4
40.750,-22.4
40.765,-28.45
40.781,-33.24
40.796,-38.32
40.812,-44.27
40.828,-50.67
40.843,-56.27
40.859,-59.66
40.875,-59.95
40.890,-56.72
40.906,-50.22
40.921,-40.94
40.937,-29.78
40.953,-17.87
40.968,-6.51
40.984,3.24
41.000,11.15
41.015,17.75
41.031,24.31
41.046,31.72
41.062,40.18
41.078,48.74
41.093,55.68
41.109,59.13
41.125,57.96
41.140,52.27
41.156,43.16
41.171,32.79
41.187,23.5
41.203,17.46
41.218,15.86
41.234,18.05
41.250,21.23
41.265,21.13
41.281,14.34
41.296,0.76
41.312,-14.35
41.328,-20.98
41.343,-6.94
41.359,37.51
41.375,115.35
41.390,220.69
41.406,339.61
41.421,454.39
41.437,548.84
41.453,612.64
41.468,643.55
41.484,646.49
41.500,630.35
41.515,604.54
41.531,576.59
41.546,551.07
41.562,530.14
41.578,514.65
41.593,504.69
41.609,499.37
41.625,496.43
41.640,491.8
41.656,480.18
41.671,456.84
41.687,419.1
41.703,367.45
41.718,305.0
41.734,236.36
41.750,165.86
41.765,96.27
41.781,28.19
41.796,-39.16
41.812,-106.63
41.828,-174.06
41.843,-239.25
41.859,-298.51
41.875,-347.7
41.890,-383.73
41.906,-405.6
41.921,-415.04
41.937,-415.63
41.953,-411.77
41.968,-407.41
41.984,-404.81
42.000,-404.3
42.015,-405.03
42.031,-405.69
42.046,-405.58
42.062,-405.05
42.078,-405.2
42.093,-407.76
42.109,-414.74
42.125,-427.97
42.140,-448.3
42.156,-474.43
42.171,-501.85
42.187,-522.94
42.203,-528.2
42.218,-509.23
42.234,-462.03
42.250,-388.79
42.265,-297.18
42.281,-197.82
42.296,-100.66
42.312,-12.45
42.328,63.76
42.343,127.91
42.359,181.13
42.375,224.42
42.390,258.24
42.406,282.68
42.421,297.8
42.437,303.68
42.453,300.43
42.468,288.01
42.484,266.52
42.500,236.5
42.515,199.03
42.531,155.78
42.546,108.66
42.562,59.63
42.578,10.55
42.593,-36.76
42.609,-80.9
42.625,-121.05
42.640,-157.14
42.656,-190.0
42.671,-220.93
42.687,-251.32
42.703,-282.23
42.718,-314.21
42.734,-347.36
42.750,-381.35
42.765,-415.28
42.781,-447.6
42.796,-475.8
42.812,-496.8
42.828,-507.66
42.843,-506.51
42.859,-493.39
42.875,-470.4
42.890,-440.74
42.906,-407.48
42.921,-372.52
42.937,-335.98
42.953,-296.62
42.968,-253.09
42.984,-204.85
43.000,-152.89
43.015,-99.49
43.031,-47.11
43.046,2.47
43.062,48.55
43.078,91.1
43.093,130.07
43.109,164.35
43.125,191.82
43.140,210.05
43.156,217.4
43.171,213.93
43.187,201.6
43.203,183.57
43.218,163.08
43.234,142.52
43.250,122.9
43.265,104.46
43.281,87.19
43.296,71.52
43.312,58.21
43.328,47.89
43.343,40.48
43.359,34.79
43.375,28.71
43.390,19.79
43.406,6.43
43.421,-11.77
43.437,-33.88
43.453,-58.04
43.468,-82.4
43.484,-105.51
43.500,-126.56
43.515,-144.93
43.531,-160.01
43.546,-170.86
43.562,-176.61
43.578,-176.94
43.593,-172.3
43.609,-164.01
43.625,-153.76
43.640,-143.08
43.656,-132.73
43.671,-122.73
43.687,-112.51
43.703,-101.54
43.718,-89.67
43.734,-77.22
43.750,-64.88
43.765,-53.17
43.781,-42.37
43.796,-32.4
43.812,-23.07
43.828,-14.25
43.843,-6.18
43.859,0.75
43.875,6.12
43.890,9.68
43.906,11.7
43.921,12.78
43.937,13.67
43.953,14.91
43.968,16.77
43.984,19.09
44.000,21.72
44.015,24.68
44.031,28.23
44.046,32.78
44.062,38.42
44.078,44.64
44.093,50.55
44.109,55.13
44.125,57.84
44.140,58.93
44.156,59.32
44.171,59.96
44.187,61.46
44.203,63.63
44.218,65.6
44.234,66.35
44.250,65.1
44.265,61.7
44.281,56.59
44.296,50.67
44.312,44.94
44.328,40.44
44.343,37.96
44.359,38.09
44.375,41.04
44.390,46.66
44.406,54.48
44.421,63.65
44.437,73.23
44.453,82.13
44.468,89.48
44.484,94.68
44.500,97.5
44.515,98.06
44.531,96.75
44.546,94.08
44.562,90.48
44.578,86.14
44.593,81.01
44.609,75.03
44.625,68.18
44.640,60.8
44.656,53.49
44.671,47.01
44.687,41.93
44.703,38.5
44.718,36.51
44.734,35.38
44.750,34.41
44.765,32.98
44.781,30.71
44.796,27.49
44.812,23.46
44.828,18.87
44.843,14.09
44.859,9.37
44.875,4.97
44.890,0.92
44.906,-2.82
44.921,-6.46
44.937,-10.2
44.953,-14.25
44.968,-18.6
44.984,-22.89
45.000,-26.33
45.015,-27.65
45.031,-25.45
45.046,-18.57
45.062,-6.72
45.078,9.31
45.093,27.71
45.109,45.84
45.125,61.13
45.140,71.74
45.156,76.97
45.171,77.38
45.187,74.21
45.203,68.85
45.218,62.33
45.234,55.21
45.250,47.73
45.265,40.12
45.281,32.85
45.296,26.49
45.312,21.64
45.328,18.4
45.343,16.58
45.359,15.55
45.375,14.7
45.390,13.71
45.406,12.58
45.421,11.58
45.437,10.85
45.453,10.26
45.468,9.29
45.484,7.4
45.500,4.13
45.515,-0.46
45.531,-5.9
45.546,-11.39
45.562,-16.25
45.578,-20.2
45.593,-23.44
45.609,-26.63
45.625,-30.29
45.640,-34.65
45.656,-39.14
45.671,-42.73
45.687,-44.14
45.703,-42.38
45.718,-37.06
45.734,-28.45
45.750,-17.44
45.765,-5.2
45.781,7.08
45.796,18.4
45.812,27.97
45.828,35.3
45.843,40.16
45.859,42.5
45.875,42.5
45.890,40.52
45.906,37.06
45.921,32.68
45.937,28.0
45.953,23.48
45.968,19.55
45.984,16.54
46.000,14.58
46.015,13.84
46.031,14.26
46.046,15.74
46.062,17.92
46.078,20.33
46.093,22.3
46.109,23.3
46.125,23.06
46.140,21.5
46.156,19.09
46.171,16.37
46.187,13.9
46.203,11.87
46.218,10.09
46.234,8.07
46.250,5.31
46.265,1.66
46.281,-2.76
46.296,-7.44
46.312,-11.86
46.328,-15.57
46.343,-18.14
46.359,-19.17
46.375,-18.24
46.390,-15.05
46.406,-9.59
46.421,-2.26
46.437,6.07
46.453,14.2
46.468,21.1
46.484,26.15
46.500,29.36
46.515,31.19
46.531,32.19
46.546,32.74
46.562,32.85
46.578,32.32
46.593,30.78
46.609,28.07
46.625,24.49
46.640,20.56
46.656,17.0
46.671,14.31
46.687,12.64
46.703,11.7
46.718,10.99
46.734,10.04
46.750,8.56
46.765,6.57
46.781,4.29
46.796,1.92
46.812,-0.48
46.828,-3.04
46.843,-5.99
46.859,-9.41
46.875,-13.17
46.890,-16.99
46.906,-20.64
46.921,-24.11
46.937,-27.52
46.953,-30.96
46.968,-34.34
46.984,-37.04
47.000,-38.05
47.015,-36.29
47.031,-30.96
47.046,-22.06
47.062,-10.47
47.078,2.31
47.093,14.66
47.109,25.26
47.125,33.49
47.140,39.37
47.156,43.29
47.171,45.67
47.187,46.67
47.203,46.24
47.218,44.35
47.234,41.08
47.250,36.87
47.265,32.29
47.281,27.97
47.296,24.25
47.312,21.22
47.328,18.76
47.343,16.7
47.359,15.08
47.375,13.93
47.390,13.25
47.406,12.85
47.421,12.31
47.437,11.05
47.453,8.69
47.468,5.1
47.484,0.55
47.500,-4.31
47.515,-8.99
47.531,-13.13
47.546,-16.77
47.562,-20.28
47.578,-24.07
47.593,-28.35
47.609,-32.92
47.625,-37.2
47.640,-40.34
47.656,-41.57
47.671,-40.35
47.687,-36.53
47.703,-30.42
47.718,-22.47
47.734,-13.23
47.750,-3.21
47.765,7.0
47.781,16.84
47.796,25.69
47.812,32.97
47.828,38.35
47.843,41.69
47.859,43.28
47.875,43.69
47.890,43.62
47.906,43.65
47.921,44.12
47.937,44.99
47.953,45.99
47.968,46.83
47.984,47.42
48.000,47.96
48.015,48.91
48.031,50.63
48.046,53.19
48.062,56.25
48.078,59.09
48.093,61.09
48.109,61.95
48.125,61.64
48.140,60.48
48.156,58.92
48.171,57.21
48.187,55.49
48.203,53.8
48.218,52.09
48.234,50.39
48.250,48.89
48.265,47.72
48.281,46.91
48.296,46.49
48.312,46.37
48.328,46.53
48.343,47.03
48.359,48.02
48.375,49.64
48.390,51.93
48.406,54.71
48.421,57.44
48.437,59.53
48.453,60.37
48.468,59.78
48.484,57.98
48.500,55.4
48.515,52.49
48.531,49.35
48.546,45.67
48.562,40.97
48.578,34.76
48.593,26.81
48.609,17.52
48.625,7.7
48.640,-1.77
48.656,-10.15
48.671,-17.21
48.687,-23.13
48.703,-28.24
48.718,-32.79
48.734,-36.81
48.750,-40.08
48.765,-42.58
48.781,-44.7
48.796,-47.18
48.812,-51.17
48.828,-57.46
48.843,-66.23
48.859,-76.77
48.875,-87.7
48.890,-97.48
48.906,-104.87
48.921,-109.47
48.937,-111.42
48.953,-111.65
48.968,-111.05
48.984,-110.2
49.000,-109.18
49.015,-107.64
49.031,-104.89
49.046,-100.37
49.062,-93.78
49.078,-85.0
49.093,-74.38
49.109,-62.38
49.125,-49.5
49.140,-36.49
49.156,-24.24
49.171,-13.67
49.187,-5.54
49.203,-0.26
49.218,2.57
49.234,3.66
49.250,3.95
49.265,4.14
49.281,4.32
49.296,4.07
49.312,2.82
49.328,0.19
49.343,-3.88
49.359,-8.85
49.375,-14.0
49.390,-18.5
49.406,-21.73
49.421,-23.42
49.437,-23.52
49.453,-22.31
49.468,-20.18
49.484,-17.71
49.500,-15.34
49.515,-13.6
49.531,-12.9
49.546,-13.56
49.562,-15.9
49.578,-19.89
49.593,-25.32
49.609,-31.69
49.625,-38.44
49.640,-44.94
49.656,-50.9
49.671,-56.19
49.687,-60.6
49.703,-63.72
49.718,-64.73
49.734,-62.62
49.750,-56.57
49.765,-46.53
49.781,-33.2
49.796,-18.07
49.812,-2.84
49.828,11.18
49.843,23.24
49.859,33.23
49.875,41.45
49.890,48.16
49.906,53.35
49.921,56.88
49.937,58.47
49.953,58.27
49.968,56.86
49.984,55.15
50.000,54.06
50.015,54.19
50.031,55.39
50.046,57.06
50.062,58.42
50.078,58.87
50.093,58.26
50.109,56.96
50.125,55.5
50.140,54.16
50.156,53.06
50.171,51.75
50.187,49.67
50.203,46.49
50.218,42.2
50.234,37.17
50.250,31.99
50.265,26.95
50.281,21.73
50.296,15.65
50.312,7.71
50.328,-2.81
50.343,-15.83
50.359,-30.44
50.375,-44.98
50.390,-57.58
50.406,-66.77
50.421,-71.75
50.437,-72.37
50.453,-68.91
50.468,-61.82
50.484,-51.51
50.500,-38.45
50.515,-23.35
50.531,-7.41
50.546,7.8
50.562,20.59
50.578,29.81
50.593,35.15
50.609,37.01
50.625,36.43
50.640,34.38
50.656,31.56
50.671,28.31
50.687,24.72
50.703,20.94
50.718,17.43
50.734,14.78
50.750,13.43
50.765,13.31
50.781,13.67
50.796,13.49
50.812,11.87
50.828,8.42
50.843,3.51
50.859,-1.95
50.875,-7.06
50.890,-11.33
50.906,-14.87
50.921,-18.27
50.937,-22.04
50.953,-26.36
50.968,-31.0
50.984,-35.52
51.000,-39.55
51.015,-42.99
51.031,-46.12
51.046,-49.13
51.062,-51.85
51.078,-53.4
51.093,-52.54
51.109,-48.08
51.125,-39.66
51.140,-27.95
51.156,-14.54
51.171,-1.53
51.187,9.36
51.203,17.22
51.218,22.11
51.234,24.69
51.250,25.65
51.265,25.29
51.281,23.37
51.296,19.55
51.312,13.8
51.328,6.7
51.343,-0.76
51.359,-7.35
51.375,-12.3
51.390,-15.44
51.406,-17.34
51.421,-18.89
51.437,-20.72
51.453,-22.9
51.468,-24.9
51.484,-26.13
51.500,-26.23
51.515,-25.49
51.531,-24.69
51.546,-24.84
51.562,-26.71
51.578,-30.34
51.593,-35.15
51.609,-40.17
51.625,-44.7
51.640,-48.64
51.656,-52.46
51.671,-56.69
51.687,-61.56
51.703,-66.42
51.718,-69.89
51.734,-70.32
51.750,-66.59
51.765,-58.55
51.781,-47.22
51.796,-34.18
51.812,-20.85
51.828,-8.07
51.843,3.93
51.859,15.26
51.875,25.82
51.890,35.1
51.906,42.38
51.921,46.93
51.937,48.6
51.953,47.88
51.968,45.69
51.984,42.94
52.000,40.17
52.015,37.43
52.031,34.49
52.046,31.28
52.062,27.98
52.078,25.19
52.093,23.66
52.109,23.91
52.125,25.92
52.140,29.01
52.156,32.1
52.171,34.13
52.187,34.58
52.203,33.52
52.218,31.58
52.234,29.47
52.250,27.57
52.265,25.64
52.281,23.03
52.296,18.91
52.312,12.93
52.328,5.44
52.343,-2.52
52.359,-9.56
52.375,-14.23
52.390,-15.62
52.406,-13.31
52.421,-7.57
52.437,0.9
52.453,11.13
52.468,22.06
52.484,32.66
52.500,41.99
52.515,49.36
52.531,54.29
52.546,56.66
52.562,56.76
52.578,55.12
52.593,52.36
52.609,49.03
52.625,45.39
52.640,41.47
52.656,37.2
52.671,32.65
52.687,28.12
52.703,24.13
52.718,21.27
52.734,19.74
52.750,19.41
52.765,19.68
52.781,19.84
52.796,19.27
52.812,17.74
52.828,15.41
52.843,12.61
52.859,9.76
52.875,7.01
52.890,4.29
52.906,1.46
52.921,-1.55
52.937,-4.69
52.953,-7.65
52.968,-10.01
52.984,-11.27
53.000,-11.0
53.015,-8.91
53.031,-4.85
53.046,1.13
53.062,8.78
53.078,17.52
53.093,26.68
53.109,35.4
53.125,42.89
53.140,48.52
53.156,51.95
53.171,53.21
53.187,52.65
53.203,50.73
53.218,47.92
53.234,44.54
53.250,40.64
53.265,36.06
53.281,30.67
53.296,24.58
53.312,18.13
53.328,12.08
53.343,7.12
53.359,3.74
53.375,2.01
53.390,1.53
53.406,1.63
53.421,1.71
53.437,1.36
53.453,0.47
53.468,-0.91
53.484,-2.79
53.500,-5.27
53.515,-8.57
53.531,-12.92
53.546,-18.29
53.562,-24.43
53.578,-30.82
53.593,-36.89
53.609,-42.04
53.625,-45.82
53.640,-47.8
53.656,-47.57
53.671,-44.85
53.687,-39.53
53.703,-31.83
53.718,-22.37
53.734,-12.24
53.750,-2.61
53.765,5.35
53.781,10.81
53.796,13.58
53.812,14.0
53.828,12.82
53.843,10.81
53.859,8.56
53.875,6.32
53.890,4.12
53.906,1.93
53.921,-0.21
53.937,-2.01
53.953,-3.25
53.968,-3.69
53.984,-3.59
54.000,-3.33
54.015,-3.48
54.031,-4.37
54.046,-5.96
54.062,-8.0
54.078,-9.93
54.093,-11.51
54.109,-12.6
54.125,-13.63
54.140,-15.15
54.156,-17.66
54.171,-21.27
54.187,-25.62
54.203,-30.06
54.218,-33.74
54.234,-36.26
54.250,-37.35
54.265,-37.11
54.281,-35.59
54.296,-32.77
54.312,-28.39
54.328,-22.22
54.343,-14.32
54.359,-5.08
54.375,4.47
54.390,13.31
54.406,20.49
54.421,25.59
54.437,28.68
54.453,30.01
54.468,29.98
54.484,28.66
54.500,26.15
54.515,22.35
54.531,17.54
54.546,12.41
54.562,7.75
54.578,4.37
54.593,2.44
54.609,1.77
54.625,1.63
54.640,1.38
54.656,0.51
54.671,-1.0
54.687,-2.74
54.703,-4.34
54.718,-5.55
54.734,-6.59
54.750,-7.78
54.765,-9.51
54.781,-11.85
54.796,-14.55
54.812,-17.23
54.828,-19.45
54.843,-21.1
54.859,-22.14
54.875,-22.68
54.890,-22.66
54.906,-21.87
54.921,-19.88
54.937,-16.39
54.953,-11.4
54.968,-5.17
54.984,1.66
55.000,8.62
55.015,15.23
55.031,21.19
55.046,26.38
55.062,30.75
55.078,34.34
55.093,37.09
55.109,38.93
55.125,39.72
55.140,39.48
55.156,38.47
55.171,37.03
55.187,35.73
55.203,35.09
55.218,35.43
55.234,36.71
55.250,38.59
55.265,40.65
55.281,42.51
55.296,44.13
55.312,45.54
55.328,46.87
55.343,48.19
55.359,49.33
55.375,49.98
55.390,49.87
55.406,48.93
55.421,47.34
55.437,45.41
55.453,43.36
55.468,41.18
55.484,38.66
55.500,35.58
55.515,32.04
55.531,28.52
55.546,25.68
55.562,24.12
55.578,23.92
55.593,24.65
55.609,25.52
55.625,25.89
55.640,25.49
55.656,24.64
55.671,24.04
55.687,24.38
55.703,25.88
55.718,28.2
55.734,30.57
55.750,31.97
55.765,31.57
55.781,28.96
55.796,24.19
55.812,17.62
55.828,9.94
55.843,1.81
55.859,-6.14
55.875,-13.35
55.890,-19.48
55.906,-24.45
55.921,-28.35
55.937,-31.59
55.953,-34.65
55.968,-37.76
55.984,-40.86
56.000,-43.47
56.015,-44.99
56.031,-44.87
56.046,-42.97
56.062,-39.56
56.078,-35.52
56.093,-32.2
56.109,-31.07
56.125,-33.5
56.140,-40.22
56.156,-51.1
56.171,-64.97
56.187,-79.73
56.203,-92.86
56.218,-101.97
56.234,-105.45
56.250,-102.59
56.265,-93.59
56.281,-79.21
56.296,-60.41
56.312,-38.31
56.328,-14.22
56.343,10.2
56.359,33.25
56.375,53.1
56.390,68.52
56.406,78.92
56.421,84.52
56.437,86.11
56.453,84.64
56.468,80.84
56.484,75.16
56.500,68.01
56.515,59.84
56.531,51.52
56.546,43.9
56.562,37.63
56.578,32.8
56.593,28.67
56.609,24.16
56.625,18.21
56.640,10.56
56.656,1.68
56.671,-7.13
56.687,-14.63
56.703,-20.18
56.718,-23.99
56.734,-27.31
56.750,-31.75
56.765,-38.6
56.781,-48.11
56.796,-59.56
56.812,-71.15
56.828,-80.86
56.843,-87.06
56.859,-88.82
56.875,-86.06
56.890,-79.34
56.906,-69.58
56.921,-58.06
56.937,-46.53
56.953,-36.82
56.968,-30.63
56.984,-28.68
57.000,-30.27
57.015,-33.7
57.031,-36.84
57.046,-38.21
57.062,-37.66
57.078,-36.23
57.093,-35.28
57.109,-35.6
57.125,-37.08
57.140,-38.6
57.156,-39.31
57.171,-39.15
57.187,-39.21
57.203,-41.33
57.218,-47.12
57.234,-57.03
57.250,-70.17
57.265,-84.58
57.281,-97.69
57.296,-107.6
57.312,-112.95
57.328,-113.24
57.343,-108.57
57.359,-99.48
57.375,-86.93
57.390,-72.27
57.406,-57.2
57.421,-43.12
57.437,-30.93
57.453,-20.55
57.468,-11.05
57.484,-1.16
57.500,10.28
57.515,23.81
57.531,39.25
57.546,55.81
57.562,72.53
57.578,88.31
57.593,102.25
57.609,113.66
57.625,122.15
57.640,127.73
57.656,130.69
57.671,131.6
57.687,131.04
57.703,129.37
57.718,126.6
57.734,122.58
57.750,117.04
57.765,109.82
57.781,101.28
57.796,91.94
57.812,82.72
57.828,74.61
57.843,68.35
57.859,64.28
57.875,62.3
57.890,62.07
57.906,63.18
57.921,65.32
57.937,68.27
57.953,71.82
57.968,75.8
57.984,79.88
58.000,83.8
58.015,87.33
58.031,90.45
58.046,93.26
58.062,95.88
58.078,98.5
58.093,101.3
58.109,104.4
58.125,107.8
58.140,111.41
58.156,114.74
58.171,117.05
58.187,117.49
58.203,115.28
58.218,110.09
58.234,102.13
58.250,92.03
58.265,80.52
58.281,68.32
58.296,55.7
58.312,42.49
58.328,28.38
58.343,12.87
58.359,-4.28
58.375,-23.06
58.390,-43.03
58.406,-63.53
58.421,-83.73
58.437,-102.82
58.453,-120.26
58.468,-135.74
58.484,-149.08
58.500,-160.16
58.515,-169.08
58.531,-175.96
58.546,-181.06
58.562,-184.77
58.578,-187.62
58.593,-190.14
58.609,-192.84
58.625,-195.96
58.640,-199.52
58.656,-203.37
58.671,-207.32
58.687,-211.02
58.703,-213.97
58.718,-215.4
58.734,-214.26
58.750,-209.48
58.765,-200.2
58.781,-186.3
58.796,-168.52
58.812,-148.42
58.828,-127.91
58.843,-108.81
58.859,-92.14
58.875,-78.18
58.890,-66.58
58.906,-56.82
58.921,-48.54
58.937,-41.74
58.953,-36.27
58.968,-32.13
58.984,-29.04
59.000,-26.51
59.015,-23.93
59.031,-20.96
59.046,-17.92
59.062,-15.83
59.078,-16.33
59.093,-20.8
59.109,-30.23
59.125,-44.79
59.140,-63.89
59.156,-86.35
59.171,-110.41
59.187,-134.29
59.203,-156.07
59.218,-173.9
59.234,-185.89
59.250,-190.3
59.265,-186.02
59.281,-172.71
59.296,-151.41
59.312,-123.82
59.328,-92.37
59.343,-59.21
59.359,-25.95
59.375,6.51
59.390,37.88
59.406,67.84
59.421,96.09
59.437,121.59
59.453,143.49
59.468,161.04
59.484,174.11
59.500,182.9
59.515,187.86
59.531,189.71
59.546,189.13
59.562,187.11
59.578,184.4
59.593,182.03
59.609,180.66
59.625,180.65
59.640,181.56
59.656,181.79
59.671,179.56
59.687,173.44
59.703,163.31
59.718,150.43
59.734,137.2
59.750,126.08
59.765,118.53
59.781,114.82
59.796,113.65
59.812,113.33
59.828,112.02
59.843,108.58
59.859,102.56
59.875,94.17
59.890,84.07
59.906,72.97
59.921,61.87
59.937,51.61
59.953,42.89
59.968,36.05
59.984,31.17
