timestamp,value
00.000,-103.95
00.015,-103.61
00.031,-100.78
00.046,-96.01
00.062,-90.2
00.078,-84.67
00.093,-80.91
00.109,-79.85
00.125,-81.5
00.140,-84.72
00.156,-87.68
00.171,-88.6
00.187,-86.55
00.203,-81.78
00.218,-75.43
00.234,-68.87
00.250,-62.87
00.265,-57.42
00.281,-51.85
00.296,-45.47
00.312,-38.08
00.328,-30.08
00.343,-22.03
00.359,-14.25
00.375,-6.46
00.390,2.0
00.406,11.5
00.421,21.57
00.437,30.81
00.453,37.32
00.468,39.78
00.484,38.07
00.500,33.39
00.515,27.57
00.531,22.06
00.546,17.27
00.562,12.47
00.578,6.6
00.593,-0.98
00.609,-9.87
00.625,-18.68
00.640,-25.53
00.656,-28.93
00.671,-28.14
00.687,-23.46
00.703,-16.03
00.718,-7.3
00.734,1.42
00.750,9.26
00.765,15.9
00.781,21.41
00.796,25.91
00.812,29.25
00.828,31.02
00.843,30.7
00.859,28.09
00.875,23.6
00.890,18.36
00.906,13.77
00.921,11.03
00.937,10.6
00.953,12.15
00.968,14.81
00.984,17.66
01.000,20.17
01.015,22.27
01.031,24.16
01.046,25.85
01.062,27.03
01.078,27.0
01.093,25.05
01.109,20.87
01.125,14.82
01.140,7.82
01.156,0.97
01.171,-4.93
01.187,-9.68
01.203,-13.67
01.218,-17.55
01.234,-21.85
01.250,-26.56
01.265,-31.19
01.281,-34.88
01.296,-36.82
01.312,-36.56
01.328,-34.09
01.343,-29.75
01.359,-23.97
01.375,-17.08
01.390,-9.22
01.406,-0.56
01.421,8.51
01.437,17.3
01.453,24.88
01.468,30.47
01.484,33.75
01.500,35.03
01.515,35.1
01.531,34.7
01.546,34.14
01.562,33.21
01.578,31.5
01.593,28.71
01.609,25.15
01.625,21.63
01.640,19.07
01.656,18.06
01.671,18.54
01.687,19.8
01.703,20.98
01.718,21.38
01.734,20.81
01.750,19.51
01.765,17.95
01.781,16.46
01.796,14.95
01.812,12.96
01.828,9.9
01.843,5.46
01.859,-0.2
01.875,-6.4
01.890,-12.22
01.906,-16.94
01.921,-20.44
01.937,-23.12
01.953,-25.65
01.968,-28.51
01.984,-31.44
02.000,-33.58
02.015,-33.63
02.031,-30.51
02.046,-23.96
02.062,-14.67
02.078,-4.05
02.093,6.34
02.109,15.34
02.125,22.58
02.140,28.28
02.156,32.95
02.171,36.86
02.187,39.83
02.203,41.5
02.218,41.62
02.234,40.42
02.250,38.6
02.265,37.2
02.281,37.0
02.296,38.36
02.312,40.95
02.328,43.97
02.343,46.63
02.359,48.53
02.375,49.79
02.390,50.98
02.406,52.75
02.421,55.37
02.437,58.55
02.453,61.51
02.468,63.26
02.484,63.19
02.500,61.34
02.515,58.46
02.531,55.59
02.546,53.56
02.562,52.63
02.578,52.43
02.593,52.29
02.609,51.62
02.625,50.1
02.640,47.49
02.656,43.37
02.671,36.89
02.687,27.09
02.703,13.38
02.718,-3.71
02.734,-22.35
02.750,-40.0
02.765,-54.58
02.781,-65.69
02.796,-74.97
02.812,-85.48
02.828,-100.02
02.843,-119.69
02.859,-142.96
02.875,-166.15
02.890,-184.92
02.906,-195.87
02.921,-197.66
02.937,-190.92
02.953,-177.4
02.968,-158.92
02.984,-136.68
03.000,-111.34
03.015,-83.42
03.031,-54.0
03.046,-24.89
03.062,1.77
03.078,24.07
03.093,40.98
03.109,52.64
03.125,60.14
03.140,64.93
03.156,68.17
03.171,70.18
03.187,70.53
03.203,68.5
03.218,63.66
03.234,56.39
03.250,47.91
03.265,39.7
03.281,32.87
03.296,27.61
03.312,23.15
03.328,18.3
03.343,12.24
03.359,5.07
03.375,-2.14
03.390,-7.73
03.406,-10.34
03.421,-9.55
03.437,-5.98
03.453,-0.84
03.468,4.61
03.484,9.65
03.500,14.16
03.515,18.27
03.531,22.03
03.546,25.11
03.562,26.9
03.578,26.89
03.593,25.04
03.609,21.91
03.625,18.45
03.640,15.49
03.656,13.36
03.671,11.77
03.687,10.09
03.703,7.81
03.718,4.9
03.734,1.85
03.750,-0.6
03.765,-1.97
03.781,-2.36
03.796,-2.48
03.812,-3.33
03.828,-5.69
03.843,-9.76
03.859,-14.98
03.875,-20.44
03.890,-25.28
03.906,-29.06
03.921,-31.97
03.937,-34.61
03.953,-37.6
03.968,-41.2
03.984,-45.25
04.000,-49.19
04.015,-52.48
04.031,-54.95
04.046,-56.68
04.062,-57.87
04.078,-58.41
04.093,-57.66
04.109,-54.67
04.125,-48.68
04.140,-39.62
04.156,-28.37
04.171,-16.6
04.187,-6.09
04.203,1.94
04.218,7.25
04.234,10.62
04.250,13.26
04.265,16.13
04.281,19.53
04.296,23.08
04.312,26.04
04.328,27.87
04.343,28.58
04.359,28.69
04.375,29.01
04.390,30.21
04.406,32.41
04.421,35.28
04.437,38.19
04.453,40.6
04.468,42.44
04.484,44.08
04.500,45.95
04.515,48.29
04.531,50.72
04.546,52.33
04.562,52.11
04.578,49.47
04.593,44.65
04.609,38.68
04.625,32.95
04.640,28.32
04.656,24.8
04.671,21.58
04.687,17.45
04.703,11.68
04.718,4.49
04.734,-2.98
04.750,-9.14
04.765,-12.7
04.781,-13.18
04.796,-11.04
04.812,-7.43
04.828,-3.53
04.843,-0.18
04.859,2.21
04.875,3.47
04.890,3.29
04.906,1.13
04.921,-3.62
04.937,-11.15
04.953,-21.02
04.968,-32.06
04.984,-42.68
05.000,-51.48
05.015,-57.65
05.031,-61.22
05.046,-62.68
05.062,-62.69
05.078,-61.5
05.093,-59.0
05.109,-54.84
05.125,-48.84
05.140,-41.5
05.156,-34.09
05.171,-28.24
05.187,-25.44
05.203,-26.47
05.218,-31.1
05.234,-38.25
05.250,-46.55
05.265,-54.74
05.281,-62.02
05.296,-67.99
05.312,-72.46
05.328,-75.32
05.343,-76.65
05.359,-76.84
05.375,-76.53
05.390,-76.35
05.406,-76.49
05.421,-76.45
05.437,-75.22
05.453,-71.71
05.468,-65.27
05.484,-55.95
05.500,-44.35
05.515,-31.21
05.531,-17.19
05.546,-2.78
05.562,11.52
05.578,25.04
05.593,36.97
05.609,46.75
05.625,54.24
05.640,59.69
05.656,63.52
05.671,66.0
05.687,67.04
05.703,66.36
05.718,63.83
05.734,59.68
05.750,54.54
05.765,49.1
05.781,43.88
05.796,39.04
05.812,34.62
05.828,30.77
05.843,27.87
05.859,26.45
05.875,26.78
05.890,28.6
05.906,31.03
05.921,32.95
05.937,33.45
05.953,32.17
05.968,29.4
05.984,25.79
06.000,21.97
06.015,18.09
06.031,13.91
06.046,9.0
06.062,3.31
06.078,-2.5
06.093,-7.19
06.109,-9.32
06.125,-7.93
06.140,-3.0
06.156,4.4
06.171,12.65
06.187,20.25
06.203,26.44
06.218,31.3
06.234,35.4
06.250,39.24
06.265,42.82
06.281,45.56
06.296,46.66
06.312,45.63
06.328,42.61
06.343,38.39
06.359,34.12
06.375,30.77
06.390,28.67
06.406,27.58
06.421,26.81
06.437,25.82
06.453,24.57
06.468,23.49
06.484,23.2
06.500,23.95
06.515,25.43
06.531,26.7
06.546,26.84
06.562,25.3
06.578,22.37
06.593,19.02
06.609,16.36
06.625,15.01
06.640,14.82
06.656,15.08
06.671,14.86
06.687,13.74
06.703,11.96
06.718,10.48
06.734,10.44
06.750,12.81
06.765,17.94
06.781,25.57
06.796,35.17
06.812,46.18
06.828,58.22
06.843,71.04
06.859,84.33
06.875,97.43
06.890,109.32
06.906,118.83
06.921,125.02
06.937,127.46
06.953,126.63
06.968,123.62
06.984,119.79
07.000,116.19
07.015,113.17
07.031,110.28
07.046,106.72
07.062,101.93
07.078,95.93
07.093,89.3
07.109,82.66
07.125,76.12
07.140,68.97
07.156,60.11
07.171,48.7
07.187,34.8
07.203,19.36
07.218,3.7
07.234,-11.32
07.250,-25.82
07.265,-40.7
07.281,-56.99
07.296,-75.12
07.312,-94.58
07.328,-114.14
07.343,-132.53
07.359,-148.8
07.375,-162.59
07.390,-174.0
07.406,-183.18
07.421,-190.05
07.437,-194.14
07.453,-194.72
07.468,-190.91
07.484,-182.26
07.500,-169.0
07.515,-152.25
07.531,-133.84
07.546,-115.74
07.562,-99.39
07.578,-85.25
07.593,-72.94
07.609,-61.66
07.625,-50.88
07.640,-40.65
07.656,-31.43
07.671,-23.66
07.687,-17.28
07.703,-11.65
07.718,-5.9
07.734,0.57
07.750,7.77
07.765,15.14
07.781,21.85
07.796,27.3
07.812,31.39
07.828,34.48
07.843,37.14
07.859,39.69
07.875,42.01
07.890,43.57
07.906,43.76
07.921,42.34
07.937,39.59
07.953,36.33
07.968,33.54
07.984,31.83
08.000,31.1
08.015,30.48
08.031,28.79
08.046,25.15
08.062,19.34
08.078,11.97
08.093,4.04
08.109,-3.43
08.125,-9.84
08.140,-14.94
08.156,-18.75
08.171,-21.22
08.187,-22.02
08.203,-20.72
08.218,-16.96
08.234,-10.89
08.250,-3.16
08.265,5.12
08.281,12.85
08.296,19.31
08.312,24.32
08.328,28.25
08.343,31.57
08.359,34.64
08.375,37.25
08.390,38.85
08.406,38.76
08.421,36.71
08.437,33.05
08.453,28.72
08.468,24.85
08.484,22.16
08.500,20.7
08.515,19.68
08.531,18.09
08.546,15.1
08.562,10.72
08.578,5.78
08.593,1.47
08.609,-1.22
08.625,-2.07
08.640,-1.65
08.656,-1.06
08.671,-1.29
08.687,-2.89
08.703,-5.81
08.718,-9.71
08.734,-14.41
08.750,-20.11
08.765,-27.27
08.781,-36.19
08.796,-46.56
08.812,-57.26
08.828,-66.61
08.843,-73.01
08.859,-75.45
08.875,-73.97
08.890,-69.56
08.906,-63.62
08.921,-57.42
08.937,-51.65
08.953,-46.33
08.968,-41.02
08.984,-35.47
09.000,-29.77
09.015,-24.64
09.031,-20.93
09.046,-19.26
09.062,-19.51
09.078,-20.8
09.093,-21.83
09.109,-21.55
09.125,-19.75
09.140,-17.0
09.156,-14.45
09.171,-13.0
09.187,-12.84
09.203,-13.4
09.218,-13.73
09.234,-13.15
09.250,-11.67
09.265,-10.01
09.281,-9.02
09.296,-9.16
09.312,-10.16
09.328,-11.25
09.343,-11.83
09.359,-11.97
09.375,-12.57
09.390,-14.95
09.406,-19.97
09.421,-27.37
09.437,-35.51
09.453,-41.92
09.468,-44.2
09.484,-41.1
09.500,-33.05
09.515,-21.87
09.531,-10.03
09.546,0.48
09.562,8.81
09.578,15.43
09.593,21.42
09.609,27.72
09.625,34.33
09.640,40.32
09.656,44.4
09.671,45.65
09.687,44.18
09.703,41.07
09.718,37.91
09.734,35.87
09.750,35.33
09.765,35.71
09.781,36.04
09.796,35.58
09.812,34.27
09.828,32.69
09.843,31.48
09.859,30.88
09.875,30.39
09.890,29.01
09.906,25.84
09.921,20.67
09.937,14.35
09.953,8.42
09.968,4.39
09.984,2.96
10.000,3.65
10.015,5.04
10.031,5.54
10.046,4.16
10.062,0.91
10.078,-3.26
10.093,-7.13
10.109,-9.74
10.125,-10.69
10.140,-10.18
10.156,-8.55
10.171,-5.99
10.187,-2.47
10.203,2.02
10.218,7.26
10.234,12.55
10.250,16.89
10.265,19.33
10.281,19.36
10.296,17.05
10.312,13.12
10.328,8.57
10.343,4.21
10.359,0.5
10.375,-2.61
10.390,-5.32
10.406,-7.79
10.421,-9.99
10.437,-11.68
10.453,-12.61
10.468,-12.75
10.484,-12.42
10.500,-12.16
10.515,-12.6
10.531,-14.09
10.546,-16.49
10.562,-19.23
10.578,-21.52
10.593,-22.75
10.609,-23.04
10.625,-23.16
10.640,-24.32
10.656,-27.46
10.671,-32.6
10.687,-38.42
10.703,-42.7
10.718,-43.16
10.734,-38.48
10.750,-28.95
10.765,-16.31
10.781,-2.91
10.796,9.3
10.812,19.44
10.828,27.79
10.843,35.05
10.859,41.61
10.875,47.05
10.890,50.37
10.906,50.61
10.921,47.5
10.937,41.77
10.953,34.8
10.968,28.1
10.984,22.51
11.000,18.13
11.015,14.46
11.031,10.89
11.046,7.19
11.062,3.73
11.078,1.19
11.093,0.24
11.109,1.11
11.125,3.43
11.140,6.37
11.156,8.99
11.171,10.57
11.187,10.9
11.203,10.29
11.218,9.27
11.234,8.21
11.250,7.13
11.265,5.65
11.281,3.26
11.296,-0.2
11.312,-4.32
11.328,-8.16
11.343,-10.53
11.359,-10.51
11.375,-7.85
11.390,-2.95
11.406,3.31
11.421,10.01
11.437,16.59
11.453,22.82
11.468,28.71
11.484,34.15
11.500,38.82
11.515,42.24
11.531,44.05
11.546,44.29
11.562,43.53
11.578,42.68
11.593,42.56
11.609,43.49
11.625,45.05
11.640,46.26
11.656,46.08
11.671,44.02
11.687,40.37
11.703,36.14
11.718,32.48
11.734,30.06
11.750,28.7
11.765,27.44
11.781,24.98
11.796,20.31
11.812,12.99
11.828,3.23
11.843,-8.55
11.859,-21.92
11.875,-36.51
11.890,-51.76
11.906,-66.56
11.921,-79.27
11.937,-87.99
11.953,-91.32
11.968,-88.97
11.984,-81.97
12.000,-72.34
12.015,-62.3
12.031,-53.53
12.046,-46.59
12.062,-41.11
12.078,-36.11
12.093,-30.79
12.109,-24.76
12.125,-18.25
12.140,-11.9
12.156,-6.29
12.171,-1.67
12.187,2.19
12.203,5.65
12.218,8.85
12.234,11.26
12.250,11.84
12.265,9.52
12.281,3.86
12.296,-4.45
12.312,-13.71
12.328,-21.85
12.343,-27.43
12.359,-30.28
12.375,-31.45
12.390,-32.6
12.406,-35.14
12.421,-39.68
12.437,-45.76
12.453,-52.36
12.468,-58.33
12.484,-62.76
12.500,-65.11
12.515,-65.07
12.531,-62.44
12.546,-57.05
12.562,-49.06
12.578,-38.89
12.593,-27.53
12.609,-16.23
12.625,-6.27
12.640,1.45
12.656,6.65
12.671,9.67
12.687,11.35
12.703,12.54
12.718,13.89
12.734,15.54
12.750,17.28
12.765,18.76
12.781,19.76
12.796,20.21
12.812,20.27
12.828,20.07
12.843,19.64
12.859,18.83
12.875,17.43
12.890,15.33
12.906,12.63
12.921,9.71
12.937,6.96
12.953,4.64
12.968,2.68
12.984,0.69
13.000,-1.81
13.015,-5.24
13.031,-9.43
13.046,-13.62
13.062,-16.53
13.078,-16.8
13.093,-13.58
13.109,-6.91
13.125,2.18
13.140,12.01
13.156,20.84
13.171,27.6
13.187,32.04
13.203,34.64
13.218,36.01
13.234,36.41
13.250,35.61
13.265,33.22
13.281,29.2
13.296,24.07
13.312,19.0
13.328,15.06
13.343,12.66
13.359,11.26
13.375,9.67
13.390,6.71
13.406,1.88
13.421,-4.27
13.437,-10.56
13.453,-15.61
13.468,-18.7
13.484,-19.91
13.500,-20.0
13.515,-19.85
13.531,-20.07
13.546,-20.7
13.562,-21.36
13.578,-21.68
13.593,-21.53
13.609,-21.12
13.625,-20.71
13.640,-20.23
13.656,-19.01
13.671,-15.92
13.687,-9.84
13.703,-0.26
13.718,12.23
13.734,26.05
13.750,39.17
13.765,49.99
13.781,57.83
13.796,63.04
13.812,66.66
13.828,69.69
13.843,72.64
13.859,75.28
13.875,77.1
13.890,77.58
13.906,76.71
13.921,74.91
13.937,72.87
13.953,71.14
13.968,69.88
13.984,68.95
14.000,68.01
14.015,67.0
14.031,66.14
14.046,65.92
14.062,66.67
14.078,68.26
14.093,69.95
14.109,70.6
14.125,69.12
14.140,64.91
14.156,58.15
14.171,49.68
14.187,40.69
14.203,32.2
14.218,24.8
14.234,18.53
14.250,13.04
14.265,7.86
14.281,2.66
14.296,-2.7
14.312,-8.17
14.328,-13.65
14.343,-19.28
14.359,-25.54
14.375,-33.19
14.390,-43.04
14.406,-55.54
14.421,-70.6
14.437,-87.52
14.453,-105.18
14.468,-122.48
14.484,-138.55
14.500,-152.8
14.515,-164.62
14.531,-173.2
14.546,-177.38
14.562,-176.2
14.578,-169.48
14.593,-158.18
14.609,-144.24
14.625,-129.96
14.640,-117.08
14.656,-106.31
14.671,-97.44
14.687,-89.72
14.703,-82.69
14.718,-76.38
14.734,-71.12
14.750,-67.1
14.765,-64.18
14.781,-61.76
14.796,-59.1
14.812,-55.65
14.828,-51.18
14.843,-45.71
14.859,-39.35
14.875,-32.22
14.890,-24.46
14.906,-16.32
14.921,-8.15
14.937,-0.37
14.953,6.55
14.968,12.25
14.984,16.35
15.000,18.64
15.015,19.08
15.031,17.73
15.046,14.77
15.062,10.47
15.078,5.06
15.093,-1.39
15.109,-8.79
15.125,-17.11
15.140,-26.04
15.156,-34.83
15.171,-42.37
15.187,-47.42
15.203,-49.37
15.218,-48.51
15.234,-46.16
15.250,-43.83
15.265,-42.43
15.281,-41.56
15.296,-39.61
15.312,-34.69
15.328,-25.68
15.343,-13.15
15.359,0.95
15.375,14.12
15.390,24.82
15.406,32.97
15.421,39.92
15.437,47.49
15.453,56.72
15.468,67.42
15.484,78.05
15.500,86.65
15.515,91.64
15.531,92.63
15.546,90.54
15.562,87.14
15.578,84.23
15.593,82.65
15.609,81.93
15.625,80.59
15.640,76.95
15.656,70.29
15.671,61.18
15.687,51.48
15.703,43.3
15.718,38.04
15.734,35.65
15.750,34.89
15.765,34.28
15.781,32.98
15.796,31.42
15.812,30.89
15.828,32.69
15.843,37.2
15.859,43.65
15.875,50.38
15.890,55.68
15.906,58.57
15.921,58.91
15.937,57.24
15.953,54.18
15.968,50.05
15.984,44.82
16.000,38.44
16.015,31.19
16.031,23.92
16.046,17.86
16.062,14.15
16.078,13.25
16.093,14.6
16.109,16.9
16.125,18.67
16.140,18.97
16.156,17.81
16.171,15.96
16.187,14.43
16.203,13.75
16.218,13.63
16.234,13.11
16.250,11.19
16.265,7.54
16.281,2.76
16.296,-1.76
16.312,-4.68
16.328,-5.43
16.343,-4.53
16.359,-3.25
16.375,-2.86
16.390,-3.9
16.406,-5.87
16.421,-7.58
16.437,-7.89
16.453,-6.5
16.468,-4.19
16.484,-2.5
16.500,-2.87
16.515,-5.88
16.531,-11.09
16.546,-17.16
16.562,-22.69
16.578,-26.77
16.593,-29.2
16.609,-30.32
16.625,-30.44
16.640,-29.43
16.656,-26.65
16.671,-21.29
16.687,-13.0
16.703,-2.21
16.718,9.75
16.734,21.14
16.750,30.45
16.765,36.89
16.781,40.53
16.796,42.13
16.812,42.57
16.828,42.37
16.843,41.63
16.859,40.05
16.875,37.4
16.890,33.68
16.906,29.29
16.921,24.78
16.937,20.58
16.953,16.79
16.968,13.14
16.984,9.3
17.000,5.13
17.015,0.88
17.031,-2.88
17.046,-5.57
17.062,-6.92
17.078,-7.29
17.093,-7.45
17.109,-8.38
17.125,-10.86
17.140,-15.17
17.156,-20.96
17.171,-27.54
17.187,-34.13
17.203,-40.03
17.218,-44.86
17.234,-48.34
17.250,-50.23
17.265,-50.18
17.281,-47.83
17.296,-42.94
17.312,-35.56
17.328,-26.22
17.343,-15.83
17.359,-5.51
17.375,3.84
17.390,11.71
17.406,18.21
17.421,23.86
17.437,29.27
17.453,34.84
17.468,40.46
17.484,45.64
17.500,49.81
17.515,52.65
17.531,54.29
17.546,55.08
17.562,55.38
17.578,55.06
17.593,53.59
17.609,50.26
17.625,44.67
17.640,37.09
17.656,28.56
17.671,20.44
17.687,13.69
17.703,8.59
17.718,4.51
17.734,0.35
17.750,-4.7
17.765,-10.76
17.781,-17.04
17.796,-22.14
17.812,-24.71
17.828,-24.0
17.843,-20.07
17.859,-13.71
17.875,-6.1
17.890,1.74
17.906,9.1
17.921,15.66
17.937,21.37
17.953,26.08
17.968,29.62
17.984,31.69
18.000,32.09
18.015,30.86
18.031,28.36
18.046,25.05
18.062,21.28
18.078,17.22
18.093,12.72
18.109,7.71
18.125,2.36
18.140,-2.82
18.156,-7.17
18.171,-10.21
18.187,-11.99
18.203,-13.13
18.218,-14.51
18.234,-16.92
18.250,-20.56
18.265,-24.95
18.281,-29.3
18.296,-32.87
18.312,-35.45
18.328,-37.49
18.343,-39.85
18.359,-43.28
18.375,-47.92
18.390,-53.13
18.406,-57.54
18.421,-59.71
18.437,-58.58
18.453,-53.94
18.468,-46.44
18.484,-37.23
18.500,-27.48
18.515,-17.95
18.531,-8.94
18.546,-0.45
18.562,7.51
18.578,14.65
18.593,20.48
18.609,24.42
18.625,26.22
18.640,25.99
18.656,24.35
18.671,22.06
18.687,19.71
18.703,17.62
18.718,15.72
18.734,13.81
18.750,11.76
18.765,9.72
18.781,8.0
18.796,6.93
18.812,6.49
18.828,6.26
18.843,5.5
18.859,3.5
18.875,-0.02
18.890,-4.71
18.906,-9.69
18.921,-14.03
18.937,-17.19
18.953,-19.38
18.968,-21.3
18.984,-23.73
19.000,-26.85
19.015,-30.08
19.031,-32.3
19.046,-32.48
19.062,-30.28
19.078,-26.22
19.093,-21.41
19.109,-16.93
19.125,-13.18
19.140,-9.77
19.156,-5.93
19.171,-1.05
19.187,4.66
19.203,10.22
19.218,14.29
19.234,15.86
19.250,14.7
19.265,11.55
19.281,7.72
19.296,4.54
19.312,2.75
19.328,2.34
19.343,2.62
19.359,2.7
19.375,1.94
19.390,0.16
19.406,-2.32
19.421,-5.12
19.437,-8.04
19.453,-11.23
19.468,-14.94
19.484,-19.2
19.500,-23.57
19.515,-27.19
19.531,-29.16
19.546,-29.07
19.562,-27.41
19.578,-25.29
19.593,-23.96
19.609,-24.06
19.625,-25.17
19.640,-26.02
19.656,-25.13
19.671,-21.48
19.687,-15.0
19.703,-6.58
19.718,2.46
19.734,10.99
19.750,18.3
19.765,24.35
19.781,29.35
19.796,33.42
19.812,36.4
19.828,37.87
19.843,37.39
19.859,34.9
19.875,30.86
19.890,26.14
19.906,21.76
19.921,18.41
19.937,16.22
19.953,14.79
19.968,13.4
19.984,11.48
20.000,8.99
20.015,6.4
20.031,4.37
20.046,3.47
20.062,3.75
20.078,4.77
20.093,5.8
20.109,6.19
20.125,5.62
20.140,4.3
20.156,2.71
20.171,1.22
20.187,-0.11
20.203,-1.7
20.218,-4.1
20.234,-7.49
20.250,-11.44
20.265,-14.81
20.281,-16.22
20.296,-14.65
20.312,-9.99
20.328,-2.95
20.343,5.11
20.359,12.94
20.375,19.83
20.390,25.69
20.406,30.78
20.421,35.29
20.437,39.0
20.453,41.41
20.468,42.12
20.484,41.06
20.500,38.66
20.515,35.73
20.531,32.93
20.546,30.58
20.562,28.49
20.578,26.14
20.593,23.06
20.609,19.21
20.625,15.08
20.640,11.4
20.656,8.82
20.671,7.45
20.687,6.78
20.703,5.95
20.718,4.07
20.734,0.72
20.750,-3.83
20.765,-8.79
20.781,-13.33
20.796,-17.02
20.812,-20.11
20.828,-23.3
20.843,-27.27
20.859,-32.1
20.875,-37.04
20.890,-40.63
20.906,-41.32
20.921,-38.15
20.937,-31.18
20.953,-21.5
20.968,-10.74
20.984,-0.39
21.000,8.72
21.015,16.57
21.031,23.47
21.046,29.67
21.062,35.0
21.078,38.84
21.093,40.52
21.109,39.76
21.125,36.94
21.140,33.04
21.156,29.19
21.171,26.19
21.187,24.21
21.203,22.89
21.218,21.62
21.234,20.0
21.250,17.94
21.265,15.78
21.281,13.94
21.296,12.64
21.312,11.73
21.328,10.79
21.343,9.37
21.359,7.26
21.375,4.6
21.390,1.77
21.406,-0.84
21.421,-3.13
21.437,-5.35
21.453,-8.05
21.468,-11.63
21.484,-16.05
21.500,-20.66
21.515,-24.28
21.531,-25.7
21.546,-24.09
21.562,-19.46
21.578,-12.58
21.593,-4.67
21.609,3.11
21.625,10.11
21.640,16.21
21.656,21.6
21.671,26.36
21.687,30.21
21.703,32.62
21.718,33.15
21.734,31.73
21.750,28.84
21.765,25.2
21.781,21.43
21.796,17.83
21.812,14.3
21.828,10.61
21.843,6.59
21.859,2.26
21.875,-2.12
21.890,-6.28
21.906,-10.1
21.921,-13.65
21.937,-17.11
21.953,-20.69
21.968,-24.53
21.984,-28.51
22.000,-32.41
22.015,-35.92
22.031,-38.86
22.046,-41.23
22.062,-43.47
22.078,-46.12
22.093,-49.69
22.109,-54.2
22.125,-59.05
22.140,-63.13
22.156,-65.17
22.171,-64.33
22.187,-60.44
22.203,-54.11
22.218,-46.4
22.234,-38.36
22.250,-30.69
22.265,-23.53
22.281,-16.76
22.296,-10.21
22.312,-4.02
22.328,1.35
22.343,5.24
22.359,7.17
22.375,7.12
22.390,5.6
22.406,3.44
22.421,1.45
22.437,0.1
22.453,-0.73
22.468,-1.36
22.484,-2.14
22.500,-3.09
22.515,-3.91
22.531,-4.25
22.546,-3.94
22.562,-3.26
22.578,-2.8
22.593,-3.23
22.609,-4.91
22.625,-7.67
22.640,-11.0
22.656,-14.25
22.671,-17.05
22.687,-19.35
22.703,-21.44
22.718,-23.62
22.734,-25.89
22.750,-27.82
22.765,-28.59
22.781,-27.37
22.796,-23.55
22.812,-17.16
22.828,-8.78
22.843,0.65
22.859,10.19
22.875,19.21
22.890,27.46
22.906,34.89
22.921,41.29
22.937,46.36
22.953,49.58
22.968,50.62
22.984,49.5
23.000,46.76
23.015,43.21
23.031,39.64
23.046,36.48
23.062,33.66
23.078,30.8
23.093,27.43
23.109,23.38
23.125,18.78
23.140,14.05
23.156,9.59
23.171,5.58
23.187,1.88
23.203,-1.77
23.218,-5.59
23.234,-9.42
23.250,-12.67
23.265,-14.74
23.281,-15.33
23.296,-14.74
23.312,-13.86
23.328,-13.75
23.343,-15.11
23.359,-17.94
23.375,-21.54
23.390,-24.77
23.406,-26.58
23.421,-26.43
23.437,-24.22
23.453,-20.25
23.468,-14.83
23.484,-8.21
23.500,-0.67
23.515,7.28
23.531,14.82
23.546,20.85
23.562,24.35
23.578,24.71
23.593,22.07
23.609,17.32
23.625,11.86
23.640,7.11
23.656,3.98
23.671,2.5
23.687,2.02
23.703,1.58
23.718,0.43
23.734,-1.67
23.750,-4.3
23.765,-6.77
23.781,-8.52
23.796,-9.45
23.812,-9.94
23.828,-10.54
23.843,-11.58
23.859,-12.93
23.875,-14.18
23.890,-14.83
23.906,-14.76
23.921,-14.33
23.937,-14.3
23.953,-15.42
23.968,-17.97
23.984,-21.54
24.000,-24.96
24.015,-26.81
24.031,-26.0
24.046,-22.17
24.062,-15.81
24.078,-7.95
24.093,0.42
24.109,8.62
24.125,16.45
24.140,23.9
24.156,30.86
24.171,36.8
24.187,40.86
24.203,42.2
24.218,40.4
24.234,35.79
24.250,29.24
24.265,21.98
24.281,14.96
24.296,8.65
24.312,2.99
24.328,-2.35
24.343,-7.65
24.359,-12.93
24.375,-17.97
24.390,-22.58
24.406,-26.82
24.421,-31.05
24.437,-35.77
24.453,-41.21
24.468,-47.15
24.484,-52.96
24.500,-57.96
24.515,-61.73
24.531,-64.37
24.546,-66.4
24.562,-68.43
24.578,-70.78
24.593,-73.15
24.609,-74.68
24.625,-74.21
24.640,-70.83
24.656,-64.26
24.671,-55.07
24.687,-44.45
24.703,-33.73
24.718,-23.82
24.734,-14.91
24.750,-6.55
24.765,1.91
24.781,10.64
24.796,19.1
24.812,26.2
24.828,30.94
24.843,32.99
24.859,32.91
24.875,31.77
24.890,30.52
24.906,29.43
24.921,28.08
24.937,25.76
24.953,22.15
24.968,17.63
24.984,13.26
25.000,10.09
25.015,8.56
25.031,8.26
25.046,8.02
25.062,6.6
25.078,3.28
25.093,-1.86
25.109,-8.04
25.125,-14.13
25.140,-19.33
25.156,-23.43
25.171,-26.92
25.187,-30.78
25.203,-36.0
25.218,-43.08
25.234,-51.65
25.250,-60.49
25.265,-67.85
25.281,-72.0
25.296,-71.87
25.312,-67.28
25.328,-58.8
25.343,-47.43
25.359,-34.32
25.375,-20.4
25.390,-6.5
25.406,6.62
25.421,18.3
25.437,28.03
25.453,35.55
25.468,40.97
25.484,44.7
25.500,47.28
25.515,49.09
25.531,50.24
25.546,50.52
25.562,49.54
25.578,47.12
25.593,43.41
25.609,39.07
25.625,35.09
25.640,32.41
25.656,31.4
25.671,31.73
25.687,32.37
25.703,32.16
25.718,30.35
25.734,26.91
25.750,22.45
25.765,17.78
25.781,13.47
25.796,9.5
25.812,5.49
25.828,0.92
25.843,-4.38
25.859,-10.17
25.875,-15.94
25.890,-21.19
25.906,-25.7
25.921,-29.41
25.937,-32.19
25.953,-33.4
25.968,-32.2
25.984,-27.71
26.000,-19.66
26.015,-8.74
26.031,3.48
26.046,14.95
26.062,23.92
26.078,29.56
26.093,32.22
26.109,32.96
26.125,32.99
26.140,33.01
26.156,32.87
26.171,31.92
26.187,29.41
26.203,25.23
26.218,20.04
26.234,15.22
26.250,12.01
26.265,10.97
26.281,11.69
26.296,12.84
26.312,13.04
26.328,11.35
26.343,7.82
26.359,3.19
26.375,-1.49
26.390,-5.53
26.406,-8.91
26.421,-12.08
26.437,-15.68
26.453,-19.91
26.468,-24.46
26.484,-28.63
26.500,-31.77
26.515,-33.67
26.531,-34.61
26.546,-35.05
26.562,-35.14
26.578,-34.51
26.593,-32.14
26.609,-27.0
26.625,-18.6
26.640,-7.39
26.656,5.16
26.671,17.2
26.687,27.12
26.703,34.25
26.718,38.79
26.734,41.68
26.750,43.83
26.765,45.65
26.781,46.83
26.796,46.59
26.812,44.23
26.828,39.53
26.843,33.19
26.859,26.41
26.875,20.6
26.890,16.6
26.906,14.48
26.921,13.53
26.937,12.75
26.953,11.42
26.968,9.45
26.984,7.39
27.000,6.0
27.015,5.74
27.031,6.42
27.046,7.29
27.062,7.37
27.078,5.98
27.093,3.11
27.109,-0.68
27.125,-4.65
27.140,-8.27
27.156,-11.61
27.171,-15.13
27.187,-19.31
27.203,-24.08
27.218,-28.58
27.234,-31.32
27.250,-30.81
27.265,-26.23
27.281,-17.95
27.296,-7.39
27.312,3.5
27.328,13.11
27.343,20.6
27.359,26.03
27.375,29.92
27.390,32.73
27.406,34.46
27.421,34.82
27.437,33.5
27.453,30.57
27.468,26.68
27.484,22.77
27.500,19.64
27.515,17.44
27.531,15.57
27.546,12.92
27.562,8.62
27.578,2.54
27.593,-4.47
27.609,-10.86
27.625,-15.24
27.640,-17.01
27.656,-16.69
27.671,-15.68
27.687,-15.32
27.703,-16.22
27.718,-17.98
27.734,-19.59
27.750,-20.12
27.765,-19.48
27.781,-18.52
27.796,-18.55
27.812,-20.64
27.828,-24.82
27.843,-30.01
27.859,-34.34
27.875,-36.02
27.890,-33.91
27.906,-27.99
27.921,-19.23
27.937,-8.98
27.953,1.42
27.968,11.11
27.984,19.77
28.000,27.39
28.015,33.93
28.031,39.2
28.046,42.76
28.062,44.18
28.078,43.35
28.093,40.65
28.109,36.89
28.125,33.02
28.140,29.71
28.156,27.11
28.171,24.9
28.187,22.6
28.203,19.91
28.218,17.0
28.234,14.33
28.250,12.37
28.265,11.22
28.281,10.4
28.296,9.16
28.312,6.83
28.328,3.23
28.343,-1.22
28.359,-5.82
28.375,-10.02
28.390,-13.79
28.406,-17.61
28.421,-22.29
28.437,-28.37
28.453,-35.82
28.468,-43.78
28.484,-50.84
28.500,-55.41
28.515,-56.27
28.531,-53.03
28.546,-46.13
28.562,-36.74
28.578,-26.28
28.593,-15.97
28.609,-6.51
28.625,1.94
28.640,9.44
28.656,15.99
28.671,21.26
28.687,24.76
28.703,26.1
28.718,25.32
28.734,22.94
28.750,19.7
28.765,16.28
28.781,12.79
28.796,8.93
28.812,4.29
28.828,-1.19
28.843,-7.01
28.859,-12.27
28.875,-16.08
28.890,-18.13
28.906,-18.83
28.921,-19.05
28.937,-19.63
28.953,-20.82
28.968,-22.25
28.984,-23.13
29.000,-22.86
29.015,-21.38
29.031,-19.32
29.046,-17.64
29.062,-17.2
29.078,-18.3
29.093,-20.52
29.109,-22.95
29.125,-24.44
29.140,-24.08
29.156,-21.46
29.171,-16.71
29.187,-10.39
29.203,-3.25
29.218,3.98
29.234,10.77
29.250,16.64
29.265,21.24
29.281,24.29
29.296,25.49
29.312,24.79
29.328,22.44
29.343,19.12
29.359,15.7
29.375,13.0
29.390,11.37
29.406,10.63
29.421,10.22
29.437,9.44
29.453,7.88
29.468,5.67
29.484,3.35
29.500,1.61
29.515,0.87
29.531,0.93
29.546,1.23
29.562,1.08
29.578,0.05
29.593,-1.76
29.609,-3.86
29.625,-5.7
29.640,-7.15
29.656,-8.5
29.671,-10.46
29.687,-13.58
29.703,-17.81
29.718,-22.34
29.734,-25.87
29.750,-27.14
29.765,-25.57
29.781,-21.52
29.796,-16.05
29.812,-10.44
29.828,-5.55
29.843,-1.46
29.859,2.25
29.875,6.12
29.890,10.23
29.906,14.0
29.921,16.46
29.937,16.74
29.953,14.62
29.968,10.64
29.984,6.02
30.000,1.93
30.015,-0.81
30.031,-2.03
30.046,-2.14
30.062,-1.67
30.078,-1.01
30.093,-0.29
30.109,0.61
30.125,1.85
30.140,3.36
30.156,4.87
30.171,6.07
30.187,6.68
30.203,6.67
30.218,6.33
30.234,5.97
30.250,5.83
30.265,5.9
30.281,5.95
30.296,5.76
30.312,5.39
30.328,5.37
30.343,6.58
30.359,9.94
30.375,15.93
30.390,24.24
30.406,33.83
30.421,43.28
30.437,51.39
30.453,57.6
30.468,62.13
30.484,65.61
30.500,68.6
30.515,71.19
30.531,73.03
30.546,73.65
30.562,72.88
30.578,71.18
30.593,69.52
30.609,68.86
30.625,69.67
30.640,71.61
30.656,73.62
30.671,74.56
30.687,73.77
30.703,71.39
30.718,68.28
30.734,65.48
30.750,63.58
30.765,62.49
30.781,61.55
30.796,59.91
30.812,57.05
30.828,53.05
30.843,48.46
30.859,43.92
30.875,39.83
30.890,36.12
30.906,32.54
30.921,28.91
30.937,25.41
30.953,22.66
30.968,21.5
30.984,22.54
31.000,25.75
31.015,30.38
31.031,35.14
31.046,38.75
31.062,40.42
31.078,39.99
31.093,37.92
31.109,34.74
31.125,30.8
31.140,26.06
31.156,20.31
31.171,13.49
31.187,5.92
31.203,-1.73
31.218,-8.81
31.234,-14.91
31.250,-20.15
31.265,-24.94
31.281,-29.76
31.296,-34.8
31.312,-39.87
31.328,-44.54
31.343,-48.32
31.359,-51.03
31.375,-52.84
31.390,-54.28
31.406,-55.95
31.421,-58.23
31.437,-61.19
31.453,-64.4
31.468,-67.24
31.484,-68.9
31.500,-68.86
31.515,-66.87
31.531,-63.13
31.546,-58.08
31.562,-52.2
31.578,-45.88
31.593,-39.25
31.609,-32.37
31.625,-25.38
31.640,-18.75
31.656,-13.29
31.671,-9.99
31.687,-9.59
31.703,-12.15
31.718,-16.98
31.734,-22.82
31.750,-28.4
31.765,-32.91
31.781,-36.19
31.796,-38.67
31.812,-40.85
31.828,-42.9
31.843,-44.45
31.859,-44.87
31.875,-43.63
31.890,-40.85
31.906,-37.26
31.921,-33.93
31.937,-31.82
31.953,-31.41
31.968,-32.61
31.984,-34.94
32.000,-37.9
32.015,-41.0
32.031,-43.85
32.046,-45.86
32.062,-46.16
32.078,-43.71
32.093,-37.69
32.109,-28.04
32.125,-15.59
32.140,-2.06
32.156,10.55
32.171,20.64
32.187,27.45
32.203,31.22
32.218,32.78
32.234,33.02
32.250,32.4
32.265,30.89
32.281,28.21
32.296,24.21
32.312,19.23
32.328,14.01
32.343,9.44
32.359,6.02
32.375,3.65
32.390,1.58
32.406,-1.18
32.421,-5.33
32.437,-10.85
32.453,-16.98
32.468,-22.65
32.484,-27.06
32.500,-30.2
32.515,-32.93
32.531,-36.58
32.546,-42.21
32.562,-49.93
32.578,-58.5
32.593,-65.7
32.609,-69.13
32.625,-67.16
32.640,-59.5
32.656,-47.26
32.671,-32.32
32.687,-16.54
32.703,-1.13
32.718,13.44
32.734,27.07
32.750,39.42
32.765,49.68
32.781,56.82
32.796,60.0
32.812,59.23
32.828,55.46
32.843,50.21
32.859,44.88
32.875,40.16
32.890,35.74
32.906,30.65
32.921,23.99
32.937,15.43
32.953,5.53
32.968,-4.54
32.984,-13.56
33.000,-20.87
33.015,-26.55
33.031,-31.27
33.046,-35.88
33.062,-40.89
33.078,-46.38
33.093,-52.11
33.109,-57.77
33.125,-63.16
33.140,-68.04
33.156,-71.97
33.171,-74.13
33.187,-73.4
33.203,-68.74
33.218,-59.56
33.234,-46.1
33.250,-29.48
33.265,-11.37
33.281,6.49
33.296,22.71
33.312,36.49
33.328,47.69
33.343,56.44
33.359,62.95
33.375,67.22
33.390,69.06
33.406,68.27
33.421,64.95
33.437,59.64
33.453,53.19
33.468,46.57
33.484,40.34
33.500,34.6
33.515,29.07
33.531,23.37
33.546,17.44
33.562,11.63
33.578,6.49
33.593,2.44
33.609,-0.66
33.625,-3.59
33.640,-7.47
33.656,-13.27
33.671,-21.25
33.687,-30.64
33.703,-39.82
33.718,-46.83
33.734,-50.06
33.750,-48.75
33.765,-43.24
33.781,-34.55
33.796,-24.03
33.812,-12.73
33.828,-1.21
33.843,10.36
33.859,21.9
33.875,32.91
33.890,42.55
33.906,49.66
33.921,53.39
33.937,53.57
33.953,50.88
33.968,46.57
33.984,41.93
34.000,37.66
34.015,33.68
34.031,29.36
34.046,24.03
34.062,17.57
34.078,10.55
34.093,4.01
34.109,-1.11
34.125,-4.46
34.140,-6.45
34.156,-7.94
34.171,-9.73
34.187,-12.21
34.203,-15.27
34.218,-18.57
34.234,-21.93
34.250,-25.38
34.265,-29.0
34.281,-32.57
34.296,-35.25
34.312,-35.73
34.328,-32.78
34.343,-25.82
34.359,-15.35
34.375,-2.85
34.390,9.77
34.406,20.84
34.421,29.59
34.437,36.21
34.453,41.51
34.468,46.26
34.484,50.77
34.500,54.57
34.515,56.72
34.531,56.26
34.546,52.77
34.562,46.67
34.578,39.13
34.593,31.52
34.609,24.79
34.625,19.22
34.640,14.29
34.656,9.23
34.671,3.55
34.687,-2.66
34.703,-8.71
34.718,-13.76
34.734,-17.44
34.750,-20.04
34.765,-22.46
34.781,-25.7
34.796,-30.33
34.812,-36.21
34.828,-42.63
34.843,-48.66
34.859,-53.57
34.875,-57.02
34.890,-58.93
34.906,-59.21
34.921,-57.68
34.937,-53.83
34.953,-47.17
34.968,-37.48
34.984,-25.05
35.000,-10.77
35.015,4.03
35.031,17.97
35.046,30.07
35.062,39.84
35.078,47.38
35.093,53.0
35.109,56.84
35.125,58.64
35.140,58.03
35.156,54.76
35.171,49.14
35.187,42.13
35.203,34.95
35.218,28.66
35.234,23.69
35.250,19.77
35.265,16.14
35.281,12.05
35.296,7.25
35.312,1.99
35.328,-3.09
35.343,-7.37
35.359,-10.62
35.375,-13.02
35.390,-15.13
35.406,-17.44
35.421,-20.15
35.437,-23.0
35.453,-25.46
35.468,-26.97
35.484,-27.33
35.500,-26.67
35.515,-25.25
35.531,-23.14
35.546,-19.85
35.562,-14.52
35.578,-6.24
35.593,5.31
35.609,19.52
35.625,34.9
35.640,49.59
35.656,62.13
35.671,71.97
35.687,79.52
35.703,85.66
35.718,91.06
35.734,95.75
35.750,99.08
35.765,100.22
35.781,98.74
35.796,94.97
35.812,89.97
35.828,85.05
35.843,81.07
35.859,78.09
35.875,75.37
35.890,71.82
35.906,66.53
35.921,59.28
35.937,50.48
35.953,40.96
35.968,31.42
35.984,22.04
36.000,12.4
36.015,1.81
36.031,-10.3
36.046,-24.05
36.062,-39.0
36.078,-54.46
36.093,-69.75
36.109,-84.51
36.125,-98.64
36.140,-112.06
36.156,-124.32
36.171,-134.42
36.187,-140.85
36.203,-142.19
36.218,-137.74
36.234,-127.91
36.250,-114.35
36.265,-99.28
36.281,-84.65
36.296,-71.46
36.312,-59.6
36.328,-48.16
36.343,-36.4
36.359,-24.28
36.375,-12.65
36.390,-2.76
36.406,4.5
36.421,9.28
36.437,12.61
36.453,15.93
36.468,20.24
36.484,25.56
36.500,30.89
36.515,34.89
36.531,36.59
36.546,35.9
36.562,33.73
36.578,31.45
36.593,30.18
36.609,30.23
36.625,31.11
36.640,31.73
36.656,31.18
36.671,29.09
36.687,25.75
36.703,21.85
36.718,17.95
36.734,14.19
36.750,10.21
36.765,5.47
36.781,-0.41
36.796,-7.34
36.812,-14.85
36.828,-22.3
36.843,-29.15
36.859,-35.15
36.875,-40.21
36.890,-44.19
36.906,-46.74
36.921,-47.33
36.937,-45.38
36.953,-40.65
36.968,-33.37
36.984,-24.21
37.000,-14.24
37.015,-4.55
37.031,3.98
37.046,10.92
37.062,16.25
37.078,20.26
37.093,23.22
37.109,25.2
37.125,26.13
37.140,25.86
37.156,24.54
37.171,22.63
37.187,20.87
37.203,19.85
37.218,19.74
37.234,20.18
37.250,20.41
37.265,19.79
37.281,17.99
37.296,15.25
37.312,12.14
37.328,9.17
37.343,6.56
37.359,4.14
37.375,1.38
37.390,-2.23
37.406,-6.89
37.421,-12.47
37.437,-18.44
37.453,-24.14
37.468,-29.2
37.484,-33.6
37.500,-37.61
37.515,-41.6
37.531,-45.66
37.546,-49.29
37.562,-51.61
37.578,-51.58
37.593,-48.5
37.609,-42.4
37.625,-34.02
37.640,-24.49
37.656,-14.83
37.671,-5.63
37.687,3.05
37.703,11.34
37.718,19.17
37.734,26.04
37.750,31.12
37.765,33.77
37.781,33.95
37.796,32.39
37.812,30.43
37.828,29.33
37.843,29.75
37.859,31.43
37.875,33.37
37.890,34.36
37.906,33.63
37.921,31.26
37.937,28.02
37.953,24.97
37.968,22.81
37.984,21.42
38.000,20.05
38.015,17.66
38.031,13.56
38.046,7.81
38.062,1.18
38.078,-5.29
38.093,-10.82
38.109,-15.22
38.125,-18.88
38.140,-22.29
38.156,-25.75
38.171,-29.05
38.187,-31.7
38.203,-33.41
38.218,-34.5
38.234,-35.79
38.250,-38.25
38.265,-42.27
38.281,-47.17
38.296,-51.38
38.312,-52.95
38.328,-50.48
38.343,-43.8
38.359,-34.04
38.375,-22.98
38.390,-12.25
38.406,-2.62
38.421,6.05
38.437,14.35
38.453,22.78
38.468,31.22
38.484,38.91
38.500,44.89
38.515,48.42
38.531,49.43
38.546,48.51
38.562,46.57
38.578,44.42
38.593,42.4
38.609,40.41
38.625,38.04
38.640,35.09
38.656,31.64
38.671,28.21
38.687,25.5
38.703,23.97
38.718,23.46
38.734,23.25
38.750,22.35
38.765,19.97
38.781,16.08
38.796,11.37
38.812,6.93
38.828,3.59
38.843,1.44
38.859,-0.34
38.875,-2.96
38.890,-7.48
38.906,-14.08
38.921,-22.06
38.937,-30.2
38.953,-37.41
38.968,-43.28
38.984,-48.13
39.000,-52.57
39.015,-56.86
39.031,-60.59
39.046,-62.72
39.062,-62.11
39.078,-58.2
39.093,-51.33
39.109,-42.69
39.125,-33.74
39.140,-25.55
39.156,-18.33
39.171,-11.7
39.187,-5.09
39.203,1.71
39.218,8.2
39.234,13.47
39.250,16.63
39.265,17.35
39.281,16.09
39.296,13.95
39.312,12.06
39.328,11.11
39.343,11.09
39.359,11.39
39.375,11.3
39.390,10.43
39.406,8.98
39.421,7.55
39.437,6.76
39.453,6.88
39.468,7.54
39.484,8.02
39.500,7.5
39.515,5.57
39.531,2.4
39.546,-1.44
39.562,-5.24
39.578,-8.61
39.593,-11.59
39.609,-14.6
39.625,-18.11
39.640,-22.41
39.656,-27.36
39.671,-32.49
39.687,-37.28
39.703,-41.47
39.718,-45.22
39.734,-48.92
39.750,-52.84
39.765,-56.62
39.781,-59.41
39.796,-59.92
39.812,-57.12
39.828,-50.75
39.843,-41.56
39.859,-30.96
39.875,-20.57
39.890,-11.39
39.906,-3.54
39.921,3.55
39.937,10.62
39.953,17.92
39.968,24.98
39.984,30.82
40.000,34.48
40.015,35.62
40.031,34.77
40.046,33.07
40.062,31.76
40.078,31.54
40.093,32.35
40.109,33.44
40.125,34.01
40.140,33.68
40.156,32.85
40.171,32.45
40.187,33.44
40.203,36.19
40.218,40.17
40.234,44.19
40.250,46.86
40.265,47.43
40.281,46.07
40.296,43.88
40.312,42.19
40.328,41.94
40.343,43.12
40.359,44.94
40.375,46.23
40.390,46.0
40.406,43.74
40.421,39.4
40.437,33.12
40.453,24.99
40.468,15.0
40.484,3.34
40.500,-9.34
40.515,-21.88
40.531,-33.0
40.546,-41.97
40.562,-49.0
40.578,-55.25
40.593,-62.31
40.609,-71.29
40.625,-82.08
40.640,-93.28
40.656,-102.65
40.671,-108.12
40.687,-108.7
40.703,-104.86
40.718,-98.28
40.734,-91.12
40.750,-85.05
40.765,-80.75
40.781,-77.95
40.796,-75.77
40.812,-73.4
40.828,-70.38
40.843,-66.74
40.859,-62.57
40.875,-57.84
40.890,-52.09
40.906,-44.71
40.921,-35.46
40.937,-24.8
40.953,-13.96
40.968,-4.44
40.984,2.39
41.000,5.96
41.015,6.69
41.031,5.83
41.046,4.99
41.062,5.38
41.078,7.43
41.093,10.57
41.109,13.58
41.125,15.21
41.140,14.74
41.156,12.44
41.171,9.39
41.187,7.13
41.203,6.96
41.218,9.62
41.234,14.98
41.250,22.5
41.265,31.49
41.281,41.55
41.296,52.47
41.312,64.05
41.328,75.81
41.343,86.94
41.359,96.62
41.375,104.21
41.390,109.76
41.406,113.79
41.421,117.05
41.437,120.1
41.453,122.87
41.468,124.8
41.484,125.33
41.500,124.36
41.515,122.47
41.531,120.82
41.546,120.56
41.562,122.18
41.578,125.35
41.593,129.03
41.609,132.04
41.625,133.68
41.640,133.99
41.656,133.59
41.671,133.19
41.687,133.01
41.703,132.46
41.718,130.58
41.734,126.36
41.750,119.32
41.765,109.42
41.781,96.8
41.796,81.11
41.812,61.33
41.828,35.96
41.843,3.54
41.859,-36.51
41.875,-83.62
41.890,-135.85
41.906,-190.07
41.921,-242.16
41.937,-287.43
41.953,-321.18
41.968,-339.79
41.984,-341.79
42.000,-328.44
42.015,-303.67
42.031,-272.92
42.046,-241.53
42.062,-213.41
42.078,-190.41
42.093,-172.66
42.109,-159.4
42.125,-149.66
42.140,-142.7
42.156,-137.9
42.171,-134.49
42.187,-131.41
42.203,-127.5
42.218,-121.69
42.234,-113.39
42.250,-102.64
42.265,-89.92
42.281,-75.92
42.296,-61.31
42.312,-46.63
42.328,-32.24
42.343,-18.56
42.359,-5.99
42.375,5.27
42.390,15.32
42.406,24.61
42.421,33.72
42.437,42.77
42.453,51.19
42.468,57.71
42.484,60.79
42.500,59.31
42.515,53.06
42.531,42.65
42.546,29.3
42.562,14.38
42.578,-0.68
42.593,-14.27
42.609,-24.52
42.625,-29.39
42.640,-27.26
42.656,-17.5
42.671,-0.89
42.687,20.57
42.703,44.15
42.718,67.21
42.734,87.82
42.750,104.99
42.765,118.58
42.781,128.98
42.796,136.79
42.812,142.47
42.828,146.25
42.843,148.05
42.859,147.6
42.875,144.75
42.890,139.68
42.906,132.87
42.921,125.0
42.937,116.65
42.953,108.07
42.968,99.18
42.984,89.82
43.000,79.97
43.015,69.91
43.031,60.11
43.046,50.86
43.062,42.03
43.078,33.07
43.093,23.24
43.109,11.94
43.125,-0.78
43.140,-14.24
43.156,-27.33
43.171,-38.92
43.187,-48.29
43.203,-55.37
43.218,-60.63
43.234,-64.84
43.250,-68.67
43.265,-72.41
43.281,-75.93
43.296,-78.7
43.312,-80.06
43.328,-79.42
43.343,-76.41
43.359,-71.05
43.375,-63.56
43.390,-54.26
43.406,-43.37
43.421,-31.09
43.437,-17.79
43.453,-4.06
43.468,9.19
43.484,21.08
43.500,31.05
43.515,39.16
43.531,45.97
43.546,52.15
43.562,57.88
43.578,62.67
43.593,65.6
43.609,65.88
43.625,63.51
43.640,59.32
43.656,54.61
43.671,50.41
43.687,46.95
43.703,43.59
43.718,39.25
43.734,33.15
43.750,25.36
43.765,16.79
43.781,8.78
43.796,2.4
43.812,-2.09
43.828,-5.23
43.843,-8.03
43.859,-11.42
43.875,-15.69
43.890,-20.47
43.906,-25.11
43.921,-29.12
43.937,-32.56
43.953,-36.0
43.968,-40.18
43.984,-45.54
44.000,-52.06
44.015,-59.09
44.031,-65.73
44.046,-71.15
44.062,-74.82
44.078,-76.52
44.093,-76.19
44.109,-73.59
44.125,-68.39
44.140,-60.22
44.156,-49.06
44.171,-35.52
44.187,-20.96
44.203,-7.04
44.218,4.71
44.234,13.54
44.250,19.76
44.265,24.41
44.281,28.57
44.296,32.72
44.312,36.33
44.328,38.16
44.343,37.12
44.359,32.91
44.375,26.44
44.390,19.5
44.406,13.94
44.421,10.85
44.437,10.22
44.453,11.1
44.468,12.31
44.484,13.09
44.500,13.35
44.515,13.67
44.531,14.73
44.546,16.9
44.562,19.95
44.578,23.22
44.593,25.88
44.609,27.35
44.625,27.4
44.640,26.17
44.656,23.92
44.671,20.98
44.687,17.57
44.703,13.84
44.718,9.74
44.734,5.12
44.750,-0.23
44.765,-6.46
44.781,-13.37
44.796,-20.39
44.812,-26.51
44.828,-30.55
44.843,-31.47
44.859,-28.58
44.875,-21.66
44.890,-10.77
44.906,3.79
44.921,21.52
44.937,41.53
44.953,62.67
44.968,83.65
44.984,103.38
45.000,121.12
45.015,136.52
45.031,149.4
45.046,159.42
45.062,166.05
45.078,168.67
45.093,167.0
45.109,161.24
45.125,152.01
45.140,139.93
45.156,125.19
45.171,107.46
45.187,86.07
45.203,60.73
45.218,32.08
45.234,2.07
45.250,-26.22
45.265,-49.51
45.281,-65.41
45.296,-73.5
45.312,-75.67
45.328,-75.59
45.343,-77.48
45.359,-84.49
45.375,-97.7
45.390,-115.93
45.406,-136.43
45.421,-156.12
45.437,-172.46
45.453,-184.05
45.468,-190.59
45.484,-192.67
45.500,-191.44
45.515,-188.37
45.531,-184.63
45.546,-180.68
45.562,-175.89
45.578,-168.81
45.593,-157.91
45.609,-142.44
45.625,-123.05
45.640,-101.53
45.656,-80.16
45.671,-60.65
45.687,-43.68
45.703,-28.97
45.718,-15.69
45.734,-3.14
45.750,9.12
45.765,21.25
45.781,33.24
45.796,44.92
45.812,55.86
45.828,65.41
45.843,72.86
45.859,77.74
45.875,79.98
45.890,79.84
45.906,77.9
45.921,74.81
45.937,71.28
45.953,68.0
45.968,65.53
45.984,64.19
46.000,63.89
46.015,64.15
46.031,64.28
46.046,63.58
46.062,61.55
46.078,58.02
46.093,53.07
46.109,46.99
46.125,40.18
46.140,33.17
46.156,26.35
46.171,19.94
46.187,13.83
46.203,7.65
46.218,1.03
46.234,-5.96
46.250,-12.74
46.265,-18.1
46.281,-20.77
46.296,-19.91
46.312,-15.51
46.328,-8.37
46.343,0.18
46.359,8.81
46.375,16.68
46.390,23.51
46.406,29.38
46.421,34.4
46.437,38.33
46.453,40.53
46.468,40.36
46.484,37.5
46.500,32.45
46.515,26.46
46.531,21.14
46.546,17.74
46.562,16.68
46.578,17.41
46.593,18.82
46.609,19.82
46.625,19.8
46.640,18.82
46.656,17.29
46.671,15.51
46.687,13.38
46.703,10.54
46.718,6.49
46.734,1.1
46.750,-5.44
46.765,-12.59
46.781,-19.79
46.796,-26.69
46.812,-33.4
46.828,-40.29
46.843,-47.8
46.859,-56.2
46.875,-65.25
46.890,-74.13
46.906,-81.56
46.921,-86.15
46.937,-86.77
46.953,-82.99
46.968,-75.08
46.984,-63.94
47.000,-50.7
47.015,-36.4
47.031,-21.84
47.046,-7.72
47.062,5.28
47.078,16.44
47.093,25.13
47.109,31.15
47.125,34.76
47.140,36.64
47.156,37.57
47.171,38.0
47.187,37.83
47.203,36.58
47.218,33.66
47.234,28.86
47.250,22.7
47.265,16.31
47.281,11.12
47.296,8.19
47.312,7.71
47.328,8.72
47.343,9.57
47.359,8.51
47.375,4.59
47.390,-1.98
47.406,-10.0
47.421,-17.96
47.437,-24.81
47.453,-30.42
47.468,-35.43
47.484,-40.6
47.500,-46.26
47.515,-51.98
47.531,-56.86
47.546,-60.25
47.562,-62.11
47.578,-62.93
47.593,-63.3
47.609,-63.21
47.625,-61.87
47.640,-57.99
47.656,-50.6
47.671,-39.67
47.687,-26.38
47.703,-12.65
47.718,-0.3
47.734,9.68
47.750,17.31
47.765,23.28
47.781,28.38
47.796,32.89
47.812,36.51
47.828,38.6
47.843,38.71
47.859,36.94
47.875,34.03
47.890,31.01
47.906,28.78
47.921,27.71
47.937,27.57
47.953,27.74
47.968,27.5
47.984,26.42
48.000,24.5
48.015,22.01
48.031,19.32
48.046,16.64
48.062,13.79
48.078,10.49
48.093,6.43
48.109,1.58
48.125,-3.79
48.140,-9.17
48.156,-14.17
48.171,-18.83
48.187,-23.63
48.203,-29.39
48.218,-36.7
48.234,-45.31
48.250,-54.05
48.265,-60.98
48.281,-64.09
48.296,-62.14
48.312,-55.07
48.328,-44.02
48.343,-30.88
48.359,-17.48
48.375,-5.0
48.390,6.12
48.406,16.06
48.421,24.97
48.437,32.7
48.453,38.75
48.468,42.58
48.484,44.0
48.500,43.37
48.515,41.55
48.531,39.42
48.546,37.48
48.562,35.56
48.578,32.98
48.593,29.04
48.609,23.65
48.625,17.45
48.640,11.68
48.656,7.63
48.671,5.88
48.687,6.11
48.703,7.21
48.718,7.79
48.734,6.82
48.750,4.1
48.765,0.16
48.781,-4.07
48.796,-7.7
48.812,-10.43
48.828,-12.49
48.843,-14.51
48.859,-17.18
48.875,-20.86
48.890,-25.36
48.906,-29.98
48.921,-33.7
48.937,-35.36
48.953,-34.13
48.968,-29.57
48.984,-21.79
49.000,-11.38
49.015,0.76
49.031,13.6
49.046,26.15
49.062,37.45
49.078,46.8
49.093,53.7
49.109,57.96
49.125,59.67
49.140,59.13
49.156,56.66
49.171,52.43
49.187,46.46
49.203,38.62
49.218,28.97
49.234,17.93
49.250,6.5
49.265,-3.94
49.281,-11.99
49.296,-16.77
49.312,-18.19
49.328,-16.9
49.343,-14.09
49.359,-10.91
49.375,-8.14
49.390,-6.06
49.406,-4.53
49.421,-3.41
49.437,-2.74
49.453,-2.84
49.468,-4.11
49.484,-6.84
49.500,-11.0
49.515,-16.31
49.531,-22.44
49.546,-29.13
49.562,-36.19
49.578,-43.31
49.593,-49.76
49.609,-54.28
49.625,-55.38
49.640,-51.68
49.656,-42.72
49.671,-29.29
49.687,-13.25
49.703,3.1
49.718,17.74
49.734,29.65
49.750,38.78
49.765,45.64
49.781,50.88
49.796,54.82
49.812,57.29
49.828,57.97
49.843,56.65
49.859,53.47
49.875,49.05
49.890,44.21
49.906,39.76
49.921,36.24
49.937,33.71
49.953,31.79
49.968,29.96
49.984,27.73
50.000,24.96
50.015,21.85
50.031,18.79
50.046,16.0
50.062,13.3
50.078,10.06
50.093,5.54
50.109,-0.56
50.125,-7.93
50.140,-15.46
50.156,-21.76
50.171,-25.9
50.187,-27.88
50.203,-28.71
50.218,-29.99
50.234,-33.03
50.250,-38.03
50.265,-43.86
50.281,-48.46
50.296,-49.72
50.312,-46.45
50.328,-38.84
50.343,-28.19
50.359,-16.19
50.375,-4.14
50.390,7.49
50.406,18.88
50.421,30.31
50.437,41.67
50.453,52.27
50.468,61.12
50.484,67.4
50.500,70.86
50.515,71.91
50.531,71.28
50.546,69.61
50.562,67.14
50.578,63.73
50.593,59.1
50.609,53.28
50.625,46.78
50.640,40.45
50.656,35.28
50.671,31.9
50.687,30.2
50.703,29.48
50.718,28.64
50.734,26.71
50.750,23.23
50.765,18.41
50.781,12.91
50.796,7.5
50.812,2.58
50.828,-1.88
50.843,-6.26
50.859,-10.87
50.875,-15.69
50.890,-20.32
50.906,-24.25
50.921,-27.28
50.937,-29.73
50.953,-32.4
50.968,-36.01
50.984,-40.67
51.000,-45.55
51.015,-49.2
51.031,-50.07
51.046,-47.33
51.062,-41.08
51.078,-32.34
51.093,-22.42
51.109,-12.41
51.125,-2.83
51.140,6.24
51.156,14.84
51.171,22.76
51.187,29.49
51.203,34.41
51.218,37.1
51.234,37.59
51.250,36.48
51.265,34.78
51.281,33.52
51.296,33.43
51.312,34.52
51.328,36.14
51.343,37.21
51.359,36.84
51.375,34.79
51.390,31.69
51.406,28.71
51.421,26.87
51.437,26.34
51.453,26.29
51.468,25.26
51.484,21.96
51.500,16.04
51.515,8.33
51.531,0.45
51.546,-6.09
51.562,-10.49
51.578,-13.01
51.593,-14.63
51.609,-16.49
51.625,-19.3
51.640,-23.26
51.656,-28.12
51.671,-33.44
51.687,-38.75
51.703,-43.58
51.718,-47.32
51.734,-49.12
51.750,-48.14
51.765,-43.81
51.781,-36.21
51.796,-26.26
51.812,-15.5
51.828,-5.67
51.843,1.91
51.859,6.81
51.875,9.49
51.890,10.93
51.906,12.13
51.921,13.59
51.937,15.16
51.953,16.32
51.968,16.51
51.984,15.56
52.000,13.77
52.015,11.67
52.031,9.63
52.046,7.71
52.062,5.58
52.078,2.94
52.093,-0.27
52.109,-3.69
52.125,-6.79
52.140,-9.03
52.156,-10.14
52.171,-10.37
52.187,-10.31
52.203,-10.74
52.218,-12.37
52.234,-15.51
52.250,-19.88
52.265,-24.79
52.281,-29.28
52.296,-32.72
52.312,-35.03
52.328,-36.8
52.343,-38.86
52.359,-41.94
52.375,-46.11
52.390,-50.77
52.406,-54.8
52.421,-57.07
52.437,-56.83
52.453,-53.94
52.468,-48.71
52.484,-41.73
52.500,-33.61
52.515,-24.8
52.531,-15.57
52.546,-6.18
52.562,3.07
52.578,11.66
52.593,18.74
52.609,23.53
52.625,25.45
52.640,24.46
52.656,21.2
52.671,16.73
52.687,12.2
52.703,8.49
52.718,6.07
52.734,4.99
52.750,5.25
52.765,6.8
52.781,9.66
52.796,13.83
52.812,19.03
52.828,24.67
52.843,29.96
52.859,34.18
52.875,36.77
52.890,37.57
52.906,36.64
52.921,34.22
52.937,30.52
52.953,25.7
52.968,19.78
52.984,12.89
53.000,5.38
53.015,-2.15
53.031,-9.01
53.046,-14.74
53.062,-19.35
53.078,-23.26
53.093,-27.02
53.109,-30.81
53.125,-34.14
53.140,-35.95
53.156,-35.04
53.171,-30.79
53.187,-23.5
53.203,-14.41
53.218,-5.1
53.234,3.15
53.250,9.86
53.265,15.34
53.281,20.16
53.296,24.76
53.312,29.02
53.328,32.32
53.343,33.93
53.359,33.49
53.375,31.35
53.390,28.34
53.406,25.47
53.421,23.31
53.437,21.83
53.453,20.44
53.468,18.39
53.484,15.21
53.500,10.98
53.515,6.36
53.531,2.27
53.546,-0.58
53.562,-2.07
53.578,-2.73
53.593,-3.44
53.609,-5.07
53.625,-8.01
53.640,-11.94
53.656,-16.04
53.671,-19.46
53.687,-21.7
53.703,-22.92
53.718,-23.93
53.734,-25.76
53.750,-29.09
53.765,-33.98
53.781,-39.82
53.796,-45.61
53.812,-50.43
53.828,-53.58
53.843,-54.62
53.859,-53.27
53.875,-49.37
53.890,-43.0
53.906,-34.52
53.921,-24.94
53.937,-15.59
53.953,-7.86
53.968,-2.63
53.984,0.06
54.000,0.96
54.015,1.21
54.031,1.73
54.046,2.78
54.062,3.89
54.078,4.21
54.093,3.12
54.109,0.68
54.125,-2.35
54.140,-4.7
54.156,-5.19
54.171,-3.3
54.187,0.61
54.203,5.57
54.218,10.52
54.234,14.73
54.250,18.01
54.265,20.53
54.281,22.52
54.296,23.93
54.312,24.26
54.328,22.81
54.343,18.97
54.359,12.58
54.375,4.1
54.390,-5.47
54.406,-14.9
54.421,-23.21
54.437,-29.95
54.453,-35.42
54.468,-40.38
54.484,-45.5
54.500,-50.89
54.515,-55.68
54.531,-58.31
54.546,-57.18
54.562,-51.64
54.578,-42.38
54.593,-31.25
54.609,-20.32
54.625,-10.99
54.640,-3.52
54.656,2.74
54.671,8.63
54.687,14.42
54.703,19.69
54.718,23.61
54.734,25.6
54.750,25.67
54.765,24.48
54.781,22.92
54.796,21.71
54.812,21.16
54.828,21.11
54.843,21.15
54.859,20.87
54.875,20.03
54.890,18.64
54.906,16.9
54.921,15.05
54.937,13.24
54.953,11.41
54.968,9.2
54.984,6.33
55.000,2.75
55.015,-1.13
55.031,-4.55
55.046,-6.83
55.062,-7.7
55.078,-7.55
55.093,-7.28
55.109,-7.87
55.125,-9.89
55.140,-13.31
55.156,-17.48
55.171,-21.45
55.187,-24.38
55.203,-25.68
55.218,-25.1
55.234,-22.65
55.250,-18.54
55.265,-13.11
55.281,-6.83
55.296,-0.28
55.312,5.94
55.328,11.38
55.343,15.78
55.359,19.23
55.375,21.97
55.390,24.3
55.406,26.43
55.421,28.28
55.437,29.55
55.453,29.9
55.468,29.08
55.484,27.25
55.500,24.83
55.515,22.43
55.531,20.64
55.546,19.8
55.562,19.88
55.578,20.54
55.593,21.4
55.609,21.99
55.625,22.15
55.640,21.84
55.656,21.14
55.671,20.25
55.687,19.21
55.703,17.93
55.718,16.25
55.734,14.13
55.750,11.75
55.765,9.54
55.781,7.94
55.796,7.14
55.812,6.86
55.828,6.48
55.843,5.36
55.859,3.3
55.875,0.8
55.890,-1.02
55.906,-0.96
55.921,1.67
55.937,6.69
55.953,13.09
55.968,19.42
55.984,24.47
56.000,27.65
56.015,29.02
56.031,29.13
56.046,28.63
56.062,27.89
56.078,26.92
56.093,25.47
56.109,23.18
56.125,19.93
56.140,16.09
56.156,12.38
56.171,9.68
56.187,8.52
56.203,8.73
56.218,9.43
56.234,9.41
56.250,7.65
56.265,3.85
56.281,-1.49
56.296,-7.47
56.312,-13.24
56.328,-18.45
56.343,-23.14
56.359,-27.47
56.375,-31.35
56.390,-34.41
56.406,-36.22
56.421,-36.66
56.437,-36.25
56.453,-35.99
56.468,-36.89
56.484,-39.36
56.500,-42.93
56.515,-46.31
56.531,-47.83
56.546,-46.23
56.562,-41.13
56.578,-33.22
56.593,-23.94
56.609,-14.91
56.625,-7.24
56.640,-1.33
56.656,3.1
56.671,6.62
56.687,9.59
56.703,11.98
56.718,13.41
56.734,13.61
56.750,12.72
56.765,11.31
56.781,10.28
56.796,10.32
56.812,11.56
56.828,13.53
56.843,15.42
56.859,16.42
56.875,16.21
56.890,15.08
56.906,13.57
56.921,12.29
56.937,11.42
56.953,10.65
56.968,9.39
56.984,7.18
57.000,3.88
57.015,-0.2
57.031,-4.57
57.046,-8.86
57.062,-13.09
57.078,-17.5
57.093,-22.39
57.109,-27.79
57.125,-33.22
57.140,-37.84
57.156,-40.57
57.171,-40.51
57.187,-37.27
57.203,-31.07
57.218,-22.73
57.234,-13.33
57.250,-3.92
57.265,4.86
57.281,12.69
57.296,19.59
57.312,25.4
57.328,29.66
57.343,31.76
57.359,31.34
57.375,28.62
57.390,24.71
57.406,21.17
57.421,19.34
57.437,19.74
57.453,21.84
57.468,24.31
57.484,25.92
57.500,26.15
57.515,25.51
57.531,25.14
57.546,26.13
57.562,28.66
57.578,31.98
57.593,34.79
57.609,35.97
57.625,35.27
57.640,33.32
57.656,31.23
57.671,29.92
57.687,29.51
57.703,29.33
57.718,28.27
57.734,25.53
57.750,21.05
57.765,15.73
57.781,11.04
57.796,8.5
57.812,9.09
57.828,12.94
57.843,19.3
57.859,27.0
57.875,34.78
57.890,41.78
57.906,47.69
57.921,52.61
57.937,56.66
57.953,59.81
57.968,61.77
57.984,62.13
58.000,60.66
58.015,57.53
58.031,53.21
58.046,48.34
58.062,43.42
58.078,38.52
58.093,33.41
58.109,27.79
58.125,21.55
58.140,15.03
58.156,8.85
58.171,3.64
58.187,-0.28
58.203,-3.15
58.218,-5.69
58.234,-8.68
58.250,-12.61
58.265,-17.4
58.281,-22.46
58.296,-27.04
58.312,-30.73
58.328,-33.69
58.343,-36.68
58.359,-40.59
58.375,-45.96
58.390,-52.65
58.406,-59.86
58.421,-66.34
58.437,-70.95
58.453,-72.96
58.468,-72.26
58.484,-69.17
58.500,-64.18
58.515,-57.67
58.531,-49.91
58.546,-41.16
58.562,-31.85
58.578,-22.55
58.593,-13.95
58.609,-6.69
58.625,-1.16
58.640,2.54
58.656,4.6
58.671,5.4
58.687,5.32
58.703,4.7
58.718,3.8
58.734,2.76
58.750,1.71
58.765,0.76
58.796,-0.56
58.812,-0.99
58.828,-1.55
58.843,-2.51
58.859,-3.94
58.875,-5.71
58.890,-7.42
58.906,-8.66
58.921,-9.3
58.937,-9.58
58.953,-10.14
58.968,-11.7
58.984,-14.7
59.000,-18.97
59.015,-23.77
59.031,-28.11
59.046,-31.07
59.062,-32.26
59.078,-31.79
59.093,-30.13
59.109,-27.79
59.125,-24.94
59.140,-21.37
59.156,-16.7
59.171,-10.65
59.187,-3.48
59.203,4.02
59.218,10.73
59.234,15.73
59.250,18.7
59.265,19.98
59.281,20.29
59.296,20.26
59.312,20.17
59.328,19.73
59.343,18.45
59.359,16.05
59.375,12.64
59.390,8.73
59.406,4.96
59.421,1.61
59.437,-1.43
59.453,-4.6
59.468,-8.4
59.484,-13.12
59.500,-18.67
59.515,-24.73
59.531,-30.8
59.546,-36.58
59.562,-41.9
59.578,-46.82
59.593,-51.45
59.609,-55.9
59.625,-60.19
59.640,-64.19
59.656,-67.76
59.671,-70.58
59.687,-72.35
59.703,-72.64
59.718,-71.01
59.734,-67.15
59.750,-60.91
59.765,-52.4
59.781,-41.95
59.796,-30.15
59.812,-17.69
59.828,-5.51
59.843,5.39
59.859,14.05
59.875,19.81
59.890,22.79
59.906,23.99
59.921,24.97
59.937,27.07
59.953,30.85
59.968,35.61
59.984,39.89
