timestamp,value
00.000,67.71
00.015,62.76
00.031,57.47
00.046,51.63
00.062,45.37
00.078,39.03
00.093,32.91
00.109,27.07
00.125,21.31
00.140,15.38
00.156,9.12
00.171,2.6
00.187,-4.11
00.203,-11.0
00.218,-18.29
00.234,-26.38
00.250,-35.49
00.265,-45.33
00.281,-54.79
00.296,-62.11
00.312,-65.3
00.328,-62.79
00.343,-54.05
00.359,-39.87
00.375,-22.09
00.390,-3.13
00.406,14.69
00.421,29.7
00.437,41.08
00.453,48.6
00.468,52.32
00.484,52.36
00.500,48.91
00.515,42.44
00.531,33.86
00.546,24.45
00.562,15.49
00.578,7.85
00.593,1.78
00.609,-2.94
00.625,-6.51
00.640,-8.91
00.656,-9.82
00.671,-9.1
00.687,-7.17
00.703,-5.16
00.718,-4.56
00.734,-6.63
00.750,-11.71
00.765,-19.05
00.781,-27.0
00.796,-33.65
00.812,-37.48
00.828,-37.68
00.843,-34.13
00.859,-27.18
00.875,-17.3
00.890,-4.92
00.906,9.59
00.921,25.82
00.937,43.28
00.953,61.21
00.968,78.74
00.984,94.71
01.000,107.75
01.015,116.35
01.031,119.17
01.046,115.42
01.062,105.28
01.078,90.1
01.093,72.07
01.109,53.62
01.125,36.81
01.140,22.64
01.156,11.03
01.171,1.13
01.187,-8.07
01.203,-17.16
01.218,-26.1
01.234,-34.4
01.250,-41.52
01.265,-47.27
01.281,-51.85
01.296,-55.52
01.312,-58.24
01.328,-59.3
01.343,-57.49
01.359,-51.47
01.375,-40.42
01.390,-24.35
01.406,-4.14
01.421,18.86
01.437,43.29
01.453,67.98
01.468,92.04
01.484,114.51
01.500,134.37
01.515,150.65
01.531,162.86
01.546,171.32
01.562,177.14
01.578,181.88
01.593,186.79
01.609,192.21
01.625,197.44
01.640,201.17
01.656,202.13
01.671,199.58
01.687,193.36
01.703,183.49
01.718,170.01
01.734,152.87
01.750,132.32
01.765,109.18
01.781,84.72
01.796,59.99
01.812,35.23
01.828,9.95
01.843,-16.25
01.859,-42.45
01.875,-65.86
01.890,-82.42
01.906,-88.65
01.921,-83.67
01.937,-70.19
01.953,-53.64
01.968,-39.93
01.984,-32.95
02.000,-33.17
02.015,-38.01
02.031,-43.64
02.046,-47.12
02.062,-47.76
02.078,-47.17
02.093,-47.85
02.109,-51.48
02.125,-57.62
02.140,-63.81
02.156,-67.05
02.171,-65.98
02.187,-62.19
02.203,-60.1
02.218,-64.86
02.234,-79.61
02.250,-103.61
02.265,-132.43
02.281,-160.07
02.296,-181.73
02.312,-195.57
02.328,-202.33
02.343,-203.69
02.359,-200.62
02.375,-193.02
02.390,-180.93
02.406,-165.89
02.421,-150.8
02.437,-138.46
02.453,-129.37
02.468,-120.24
02.484,-104.84
02.500,-77.21
02.515,-35.44
02.531,16.15
02.546,68.17
02.562,110.08
02.578,134.74
02.593,141.13
02.609,133.68
02.625,119.03
02.640,102.55
02.656,86.51
02.671,70.81
02.687,55.18
02.703,40.83
02.718,30.39
02.734,26.24
02.750,28.48
02.765,34.14
02.781,38.35
02.796,36.67
02.812,27.06
02.828,10.43
02.843,-10.36
02.859,-32.2
02.875,-52.61
02.890,-70.01
02.906,-83.51
02.921,-92.42
02.937,-96.14
02.953,-94.52
02.968,-87.92
02.984,-76.99
03.000,-62.28
03.015,-43.86
03.031,-21.35
03.046,5.6
03.062,36.78
03.078,70.88
03.093,105.35
03.109,136.97
03.125,162.57
03.140,179.9
03.156,188.28
03.171,188.61
03.187,183.34
03.203,176.09
03.218,170.99
03.234,171.47
03.250,179.09
03.265,192.79
03.281,208.81
03.296,221.66
03.312,225.64
03.328,216.5
03.343,192.53
03.359,154.57
03.375,105.63
03.390,50.31
03.406,-5.37
03.421,-54.32
03.437,-89.69
03.453,-107.32
03.468,-108.11
03.484,-98.11
03.500,-86.01
03.515,-78.43
03.531,-76.15
03.546,-73.81
03.562,-63.24
03.578,-40.29
03.593,-8.9
03.609,20.27
03.625,36.0
03.640,33.18
03.656,15.53
03.671,-7.06
03.687,-24.55
03.703,-30.51
03.718,-25.52
03.734,-15.35
03.750,-6.59
03.765,-2.32
03.781,-1.08
03.796,0.59
03.812,4.84
03.828,10.61
03.843,16.74
03.859,21.02
03.875,21.44
03.890,17.41
03.906,11.18
03.921,7.44
03.937,10.87
03.953,23.88
03.968,45.75
03.984,77.4
04.000,118.75
04.015,168.46
04.031,223.13
04.046,277.84
04.062,327.08
04.078,364.99
04.093,387.26
04.109,371.68
04.125,309.46
04.140,210.22
04.156,99.41
04.171,2.23
04.187,-68.87
04.203,-113.77
04.218,-138.74
04.234,-150.14
04.250,-152.69
04.265,-146.33
04.281,-132.49
04.296,-114.87
04.312,-98.75
04.328,-88.11
04.343,-82.56
04.359,-80.78
04.375,-80.42
04.390,-80.2
04.406,-77.56
04.421,-73.24
04.437,-70.63
04.453,-74.48
04.468,-88.31
04.484,-111.42
04.500,-140.39
04.515,-169.06
04.531,-191.78
04.546,-194.45
04.562,-171.68
04.578,-128.16
04.593,-76.36
04.609,-34.58
04.625,-8.25
04.640,2.82
04.656,2.73
04.671,-5.08
04.687,-17.55
04.703,-32.61
04.718,-50.55
04.734,-72.75
04.750,-100.11
04.765,-131.36
04.781,-164.9
04.796,-197.97
04.812,-229.38
04.828,-256.89
04.843,-278.72
04.859,-293.35
04.875,-300.07
04.890,-299.64
04.906,-293.71
04.921,-285.6
04.937,-265.43
04.953,-228.64
04.968,-175.0
04.984,-109.39
05.000,-39.31
05.015,27.91
05.031,86.38
05.046,132.61
05.062,164.89
05.078,185.36
05.093,196.08
05.109,198.87
05.125,195.34
05.140,187.01
05.156,176.08
05.171,165.09
05.187,156.82
05.203,150.52
05.218,145.22
05.234,137.02
05.250,122.43
05.265,100.12
05.281,70.93
05.296,37.57
05.312,2.49
05.328,-31.23
05.343,-60.67
05.359,-83.31
05.375,-99.22
05.390,-109.85
05.406,-113.92
05.421,-112.46
05.437,-107.34
05.453,-100.62
05.468,-93.75
05.484,-87.56
05.500,-81.85
05.515,-76.71
05.531,-71.9
05.546,-66.91
05.562,-61.85
05.578,-57.12
05.593,-53.49
05.609,-51.82
05.625,-52.67
05.640,-55.69
05.656,-59.91
05.671,-63.7
05.687,-65.2
05.703,-63.38
05.718,-57.83
05.734,-48.64
05.750,-36.07
05.765,-20.62
05.781,-2.81
05.796,16.51
05.812,36.29
05.828,55.44
05.843,72.84
05.859,87.96
05.875,100.74
05.890,111.51
05.906,120.44
05.921,127.46
05.937,132.32
05.953,135.04
05.968,136.19
05.984,136.89
06.000,138.57
06.015,142.5
06.031,149.2
06.046,158.1
06.062,167.72
06.078,176.2
06.093,182.03
06.109,184.46
06.125,183.61
06.140,180.34
06.156,175.66
06.171,170.14
06.187,163.41
06.203,154.05
06.218,139.92
06.234,119.03
06.250,90.51
06.265,55.29
06.281,16.37
06.296,-21.98
06.312,-55.43
06.328,-80.84
06.343,-97.43
06.359,-107.26
06.375,-114.7
06.390,-125.04
06.406,-142.66
06.421,-169.27
06.437,-202.97
06.453,-238.43
06.468,-268.49
06.484,-286.35
06.500,-287.7
06.515,-271.74
06.531,-240.93
06.546,-199.84
06.562,-153.66
06.578,-107.34
06.593,-64.97
06.609,-29.43
06.625,-2.52
06.640,15.09
06.656,23.71
06.671,24.5
06.687,19.04
06.703,9.05
06.718,-3.75
06.734,-17.48
06.750,-29.65
06.765,-38.15
06.781,-41.96
06.796,-41.5
06.812,-38.18
06.828,-33.59
06.843,-28.75
06.859,-24.07
06.875,-19.59
06.890,-14.55
06.906,-9.08
06.921,-4.38
06.937,-2.27
06.953,-3.95
06.968,-8.99
06.984,-15.19
07.000,-19.29
07.015,-17.95
07.031,-7.34
07.046,13.71
07.062,42.83
07.078,74.75
07.093,104.01
07.109,127.71
07.125,146.35
07.140,162.65
07.156,179.42
07.171,199.74
07.187,223.61
07.203,248.0
07.218,268.43
07.234,281.45
07.250,286.31
07.265,284.24
07.281,277.06
07.296,253.54
07.312,208.73
07.328,147.03
07.343,81.18
07.359,23.9
07.375,-18.81
07.390,-47.09
07.406,-63.9
07.421,-72.05
07.437,-73.47
07.453,-67.92
07.468,-56.82
07.484,-44.21
07.500,-35.11
07.515,-35.42
07.531,-47.79
07.546,-70.54
07.562,-98.04
07.578,-121.98
07.593,-132.47
07.609,-123.23
07.625,-94.55
07.640,-53.72
07.656,-12.39
07.671,18.2
07.687,30.97
07.703,23.1
07.718,-2.2
07.734,-35.57
07.750,-65.86
07.765,-84.08
07.781,-85.99
07.796,-72.4
07.812,-47.5
07.828,-17.15
07.843,12.88
07.859,38.35
07.875,57.33
07.890,69.23
07.906,73.99
07.921,71.83
07.937,63.42
07.953,50.48
07.968,35.59
07.984,21.48
08.000,10.2
08.015,2.03
08.031,-5.15
08.046,-15.27
08.062,-32.16
08.078,-57.44
08.093,-89.13
08.109,-122.0
08.125,-149.36
08.140,-165.34
08.156,-167.12
08.171,-155.95
08.187,-136.56
08.203,-115.4
08.218,-98.53
08.234,-89.92
08.250,-90.71
08.265,-99.49
08.281,-113.11
08.296,-127.71
08.312,-139.94
08.328,-147.68
08.343,-150.42
08.359,-149.14
08.375,-145.71
08.390,-142.17
08.406,-140.1
08.421,-140.26
08.437,-142.79
08.453,-147.49
08.468,-154.13
08.484,-162.46
08.500,-171.97
08.515,-181.9
08.531,-191.34
08.546,-199.75
08.562,-207.12
08.578,-213.82
08.593,-219.91
08.609,-224.6
08.625,-226.06
08.640,-222.05
08.656,-210.9
08.671,-192.2
08.687,-167.06
08.703,-137.64
08.718,-106.33
08.734,-75.16
08.750,-45.42
08.765,-17.75
08.781,7.65
08.796,30.72
08.812,51.4
08.828,69.54
08.843,84.77
08.859,96.52
08.875,104.33
08.890,108.14
08.906,108.61
08.921,107.09
08.937,105.17
08.953,104.21
08.968,104.75
08.984,106.43
09.000,108.29
09.015,109.33
09.031,108.95
09.046,107.06
09.062,103.84
09.078,99.28
09.093,93.19
09.109,85.19
09.125,75.2
09.140,63.74
09.156,52.05
09.171,41.88
09.187,35.16
09.203,33.69
09.218,38.78
09.234,51.09
09.250,70.22
09.265,94.39
09.281,120.13
09.296,142.45
09.312,155.68
09.328,155.24
09.343,139.53
09.359,111.23
09.375,76.97
09.390,45.32
09.406,23.68
09.421,15.74
09.437,20.45
09.453,33.18
09.468,48.27
09.484,61.4
09.500,70.74
09.515,76.44
09.531,79.19
09.546,79.02
09.562,75.18
09.578,66.98
09.593,54.84
09.609,40.61
09.625,27.05
09.640,16.79
09.656,11.57
09.671,11.97
09.687,17.89
09.703,29.07
09.718,45.06
09.734,64.67
09.750,85.58
09.765,104.29
09.781,117.16
09.796,121.82
09.812,118.22
09.828,108.9
09.843,98.18
09.859,90.65
09.875,89.57
09.890,95.91
09.906,108.26
09.921,123.42
09.937,137.47
09.953,146.96
09.968,149.96
09.984,146.71
10.000,139.65
10.015,132.59
10.031,129.13
10.046,130.85
10.062,136.13
10.078,140.29
10.093,137.06
10.109,121.09
10.125,90.2
10.140,46.68
10.156,-3.08
10.171,-50.45
10.187,-87.1
10.203,-107.33
10.218,-109.39
10.234,-95.43
10.250,-70.2
10.265,-39.15
10.281,-6.61
10.296,25.07
10.312,55.38
10.328,84.47
10.343,111.97
10.359,136.42
10.375,155.82
10.390,168.78
10.406,175.39
10.421,177.12
10.437,175.81
10.453,172.49
10.468,166.85
10.484,157.69
10.500,143.89
10.515,125.45
10.531,103.74
10.546,81.02
10.562,59.73
10.578,42.05
10.593,29.82
10.609,24.46
10.625,26.66
10.640,35.83
10.656,49.68
10.671,64.6
10.687,76.7
10.703,83.24
10.718,83.46
10.734,78.37
10.750,69.68
10.765,58.29
10.781,43.89
10.796,25.38
10.812,2.64
10.828,-22.08
10.843,-43.98
10.859,-57.21
10.875,-57.47
10.890,-44.18
10.906,-21.0
10.921,5.74
10.937,29.63
10.953,46.44
10.968,54.8
10.984,55.12
11.000,47.94
11.015,32.66
11.031,7.84
11.046,-27.66
11.062,-73.4
11.078,-126.79
11.093,-183.39
11.109,-237.76
11.125,-284.48
11.140,-318.92
11.156,-338.22
11.171,-341.94
11.187,-332.44
11.203,-314.32
11.218,-292.98
11.234,-272.81
11.250,-255.67
11.265,-240.83
11.281,-226.06
11.296,-209.48
11.312,-190.69
11.328,-170.82
11.343,-151.38
11.359,-132.89
11.375,-114.38
11.390,-93.85
11.406,-70.08
11.421,-44.42
11.437,-21.62
11.453,-8.6
11.468,-11.19
11.484,-30.67
11.500,-61.67
11.515,-93.65
11.531,-115.32
11.546,-119.92
11.562,-108.37
11.578,-88.39
11.593,-69.94
11.609,-59.82
11.625,-58.73
11.640,-62.21
11.656,-64.6
11.671,-63.04
11.687,-58.72
11.703,-54.9
11.718,-53.53
11.734,-53.34
11.750,-50.82
11.765,-43.35
11.781,-31.91
11.796,-21.47
11.812,-18.37
11.828,-26.55
11.843,-44.62
11.859,-65.83
11.875,-81.04
11.890,-82.85
11.906,-68.94
11.921,-42.96
11.937,-12.49
11.953,14.73
11.968,34.22
11.984,46.11
12.000,54.18
12.015,63.21
12.031,75.89
12.046,91.23
12.062,104.98
12.078,111.91
12.093,108.52
12.109,94.73
12.125,73.91
12.140,51.2
12.156,31.48
12.171,17.46
12.187,9.3
12.203,5.4
12.218,3.9
12.234,3.9
12.250,5.6
12.265,9.79
12.281,16.9
12.296,26.58
12.312,37.39
12.328,47.38
12.343,55.09
12.359,60.3
12.375,64.03
12.390,67.73
12.406,72.2
12.421,77.03
12.437,81.53
12.453,84.46
12.468,84.8
12.484,82.59
12.500,79.51
12.515,78.33
12.531,81.75
12.546,90.92
12.562,104.9
12.578,122.73
12.593,142.44
12.609,161.68
12.625,178.77
12.640,193.73
12.656,208.4
12.671,225.31
12.687,246.07
12.703,270.44
12.718,298.79
12.734,329.01
12.750,356.25
12.765,374.3
12.781,378.61
12.796,368.59
12.812,348.0
12.828,323.51
12.843,302.34
12.859,293.16
12.875,299.77
12.890,319.17
12.906,343.15
12.921,362.55
12.937,371.23
12.953,367.58
12.968,353.9
12.984,311.71
13.000,236.17
13.015,137.82
13.031,38.2
13.046,-43.22
13.062,-97.82
13.078,-126.78
13.093,-135.81
13.109,-131.31
13.125,-117.62
13.140,-96.89
13.156,-71.16
13.171,-44.0
13.187,-20.31
13.203,-4.16
13.218,2.6
13.234,0.08
13.250,-11.05
13.265,-28.48
13.281,-47.68
13.296,-65.44
13.312,-81.1
13.328,-96.11
13.343,-112.21
13.359,-129.89
13.375,-148.25
13.390,-165.7
13.406,-180.85
13.421,-191.83
13.437,-198.36
13.453,-202.64
13.468,-208.59
13.484,-220.18
13.500,-240.0
13.515,-268.7
13.531,-304.96
13.546,-345.79
13.562,-386.24
13.578,-421.0
13.593,-445.92
13.609,-459.12
13.625,-461.18
13.640,-454.53
13.656,-442.54
13.671,-428.11
13.687,-412.73
13.703,-395.97
13.718,-376.01
13.734,-351.02
13.750,-320.24
13.765,-284.68
13.781,-247.2
13.796,-212.23
13.812,-184.61
13.828,-168.03
13.843,-163.12
13.859,-166.18
13.875,-169.64
13.890,-164.36
13.906,-143.21
13.921,-103.77
13.937,-49.22
13.953,13.21
13.968,75.24
13.984,130.47
14.000,175.58
14.015,209.8
14.031,233.45
14.046,246.8
14.062,250.34
14.078,245.51
14.093,235.43
14.109,224.21
14.125,214.98
14.140,208.06
14.156,200.39
14.171,187.02
14.187,163.76
14.203,129.58
14.218,87.49
14.234,43.26
14.250,3.05
14.265,-29.12
14.281,-52.49
14.296,-69.22
14.312,-82.87
14.328,-96.76
14.343,-112.96
14.359,-131.94
14.375,-152.63
14.390,-172.82
14.406,-189.76
14.421,-200.95
14.437,-204.83
14.453,-201.41
14.468,-192.15
14.484,-179.38
14.500,-165.4
14.515,-151.68
14.531,-138.73
14.546,-126.37
14.562,-114.3
14.578,-102.58
14.593,-91.69
14.609,-82.22
14.625,-74.64
14.640,-69.03
14.656,-65.05
14.671,-62.11
14.687,-59.39
14.703,-55.86
14.718,-50.43
14.734,-42.17
14.750,-30.73
14.765,-16.68
14.781,-1.5
14.796,12.79
14.812,24.26
14.828,31.67
14.843,34.87
14.859,34.68
14.875,32.65
14.890,30.53
14.906,29.89
14.921,31.52
14.937,35.25
14.953,39.97
14.968,44.02
14.984,45.9
15.000,44.88
15.015,41.24
15.031,36.15
15.046,31.04
15.062,27.09
15.078,24.98
15.093,25.04
15.109,27.41
15.125,32.16
15.140,39.13
15.156,47.74
15.171,57.15
15.187,66.7
15.203,76.48
15.218,87.4
15.234,100.68
15.250,116.99
15.265,135.95
15.281,156.06
15.296,175.37
15.312,192.14
15.328,205.16
15.343,213.58
15.359,216.63
15.375,213.76
15.390,204.84
15.406,190.54
15.421,172.16
15.437,151.11
15.453,128.34
15.468,104.37
15.484,79.82
15.500,55.96
15.515,34.6
15.531,17.08
15.546,3.09
15.562,-9.66
15.578,-24.28
15.593,-42.9
15.609,-65.14
15.625,-88.03
15.640,-107.53
15.656,-120.41
15.671,-125.8
15.687,-125.01
15.703,-120.36
15.718,-113.83
15.734,-106.76
15.750,-100.24
15.765,-95.6
15.781,-94.26
15.796,-96.67
15.812,-101.92
15.828,-107.7
15.843,-110.87
15.859,-108.65
15.875,-99.52
15.890,-83.68
15.906,-62.45
15.921,-37.54
15.937,-9.67
15.953,20.37
15.968,51.39
15.984,81.66
16.000,109.28
16.015,132.68
16.031,151.01
16.046,164.66
16.062,175.31
16.078,186.77
16.093,202.21
16.109,223.0
16.125,248.31
16.140,275.66
16.156,301.91
16.171,323.91
16.187,339.33
16.203,346.61
16.218,346.18
16.234,337.52
16.250,319.12
16.265,289.51
16.281,249.08
16.296,200.91
16.312,149.82
16.328,101.41
16.343,51.22
16.359,0.68
16.375,-45.33
16.390,-81.14
16.406,-103.98
16.421,-114.79
16.437,-116.6
16.453,-113.27
16.468,-107.7
16.484,-101.59
16.500,-94.37
16.515,-86.01
16.531,-76.93
16.546,-69.34
16.562,-65.4
16.578,-66.6
16.593,-74.62
16.609,-90.57
16.625,-114.64
16.640,-144.43
16.656,-176.4
16.671,-206.36
16.687,-230.5
16.703,-246.67
16.718,-250.09
16.734,-241.01
16.750,-223.17
16.765,-201.8
16.781,-180.43
16.796,-160.41
16.812,-141.07
16.828,-120.74
16.843,-98.16
16.859,-73.44
16.875,-48.97
16.890,-27.67
16.906,-11.88
16.921,-2.36
16.937,1.03
16.953,-1.39
16.968,-9.64
16.984,-23.98
17.000,-44.41
17.015,-70.4
17.031,-99.61
17.046,-128.09
17.062,-151.28
17.078,-165.79
17.093,-170.68
17.109,-167.41
17.125,-158.56
17.140,-146.13
17.156,-130.88
17.171,-112.16
17.187,-89.21
17.203,-62.74
17.218,-35.49
17.234,-11.49
17.250,5.68
17.265,14.58
17.281,16.53
17.296,14.59
17.312,12.15
17.328,11.5
17.343,13.2
17.359,16.41
17.375,19.9
17.390,22.76
17.406,24.59
17.421,25.17
17.437,23.92
17.453,19.81
17.468,11.86
17.484,-0.29
17.500,-15.84
17.515,-32.93
17.531,-49.07
17.546,-61.92
17.562,-69.81
17.578,-71.88
17.593,-67.84
17.609,-57.66
17.625,-41.45
17.640,-19.77
17.656,6.0
17.671,33.48
17.687,59.53
17.703,81.03
17.718,95.68
17.734,102.63
17.750,102.51
17.765,96.98
17.781,88.06
17.796,77.56
17.812,66.98
17.828,57.68
17.843,51.06
17.859,48.56
17.875,51.28
17.890,59.43
17.906,72.04
17.921,87.1
17.937,102.29
17.953,115.86
17.968,127.21
17.984,136.92
18.000,146.1
18.015,155.67
18.031,165.76
18.046,175.61
18.062,184.08
18.078,190.39
18.093,194.52
18.109,197.3
18.125,199.82
18.140,202.7
18.156,205.59
18.171,207.18
18.187,205.79
18.203,200.32
18.218,190.95
18.234,179.23
18.250,167.48
18.265,157.76
18.281,150.98
18.296,146.66
18.312,143.42
18.328,139.86
18.343,135.18
18.359,129.21
18.375,121.92
18.390,112.8
18.406,100.7
18.421,84.22
18.437,62.6
18.453,36.36
18.468,7.41
18.484,-21.56
18.500,-48.01
18.515,-70.38
18.531,-88.43
18.546,-102.9
18.562,-114.87
18.578,-125.04
18.593,-133.4
18.609,-139.3
18.625,-141.8
18.640,-140.2
18.656,-134.27
18.671,-124.31
18.687,-110.96
18.703,-94.81
18.718,-76.46
18.734,-56.54
18.750,-35.9
18.765,-15.57
18.781,3.66
18.796,21.67
18.812,39.16
18.828,57.33
18.843,76.88
18.859,97.4
18.875,117.27
18.890,134.13
18.906,145.65
18.921,150.43
18.937,148.38
18.953,140.47
18.968,128.22
18.984,112.8
19.000,94.9
19.015,74.91
19.031,52.91
19.046,28.74
19.062,2.43
19.078,-25.41
19.093,-53.56
19.109,-80.39
19.125,-104.92
19.140,-126.93
19.156,-146.73
19.171,-165.04
19.187,-183.38
19.203,-202.89
19.218,-223.9
19.234,-246.03
19.250,-268.1
19.265,-289.82
19.281,-310.33
19.296,-326.94
19.312,-335.27
19.328,-331.9
19.343,-314.45
19.359,-282.22
19.375,-236.45
19.390,-178.98
19.406,-114.6
19.421,-47.72
19.437,19.52
19.453,86.31
19.468,148.83
19.484,201.61
19.500,239.0
19.515,257.3
19.531,257.44
19.546,239.8
19.562,206.38
19.578,161.38
19.593,108.98
19.609,48.8
19.625,-20.75
19.640,-99.57
19.656,-183.78
19.671,-264.28
19.687,-335.78
19.703,-395.15
19.718,-439.74
19.734,-446.76
19.750,-402.31
19.765,-310.98
19.781,-196.73
19.796,-104.46
19.812,-41.41
19.828,-4.83
19.843,10.28
19.859,14.92
19.875,17.6
19.890,22.83
19.906,33.37
19.921,50.79
19.937,75.56
19.953,108.46
19.968,145.54
19.984,176.37
20.000,193.03
20.015,194.74
20.031,185.11
20.046,169.35
20.062,151.21
20.078,132.82
20.093,116.19
20.109,99.77
20.125,81.49
20.140,61.24
20.156,39.91
20.171,17.0
20.187,-7.04
20.203,-31.15
20.218,-52.91
20.234,-67.79
20.250,-73.78
20.265,-70.33
20.281,-57.12
20.296,-34.68
20.312,-5.63
20.328,25.67
20.343,54.46
20.359,77.56
20.375,95.04
20.390,107.43
20.406,115.31
20.421,119.12
20.437,119.08
20.453,115.16
20.468,107.55
20.484,97.06
20.500,85.22
20.515,74.21
20.531,64.36
20.546,54.29
20.562,41.91
20.578,26.53
20.593,11.25
20.609,1.41
20.625,1.72
20.640,9.4
20.656,21.23
20.671,33.4
20.687,43.61
20.703,48.23
20.718,45.29
20.734,35.3
20.750,20.75
20.765,4.79
20.781,-9.37
20.796,-18.68
20.812,-20.94
20.828,-14.75
20.843,-0.91
20.859,19.16
20.875,42.99
20.890,66.18
20.906,82.59
20.921,86.87
20.937,77.04
20.953,55.69
20.968,28.91
20.984,1.32
21.000,-24.08
21.015,-46.55
21.031,-67.61
21.046,-89.84
21.062,-114.26
21.078,-139.85
21.093,-163.71
21.109,-183.18
21.125,-200.12
21.140,-217.46
21.156,-236.39
21.171,-255.27
21.187,-270.22
21.203,-275.82
21.218,-268.29
21.234,-246.66
21.250,-198.96
21.265,-128.17
21.281,-50.97
21.296,12.55
21.312,51.72
21.328,64.37
21.343,62.09
21.359,54.46
21.375,47.06
21.390,41.98
21.406,39.96
21.421,40.87
21.437,45.71
21.453,55.54
21.468,69.46
21.484,84.88
21.500,97.5
21.515,104.42
21.531,105.13
21.546,99.41
21.562,88.45
21.578,74.95
21.593,61.9
21.609,51.34
21.625,44.35
21.640,40.04
21.656,36.95
21.671,33.33
21.687,26.49
21.703,14.96
21.734,-15.2
21.750,-27.51
21.765,-35.86
21.781,-42.65
21.796,-52.21
21.812,-68.65
21.828,-94.01
21.843,-126.76
21.859,-162.21
21.875,-194.88
21.890,-220.57
21.906,-237.73
21.921,-247.24
21.937,-250.85
21.953,-249.92
21.968,-245.35
21.984,-237.9
22.000,-228.81
22.015,-219.8
22.031,-211.3
22.046,-202.77
22.062,-193.12
22.078,-181.47
22.093,-167.63
22.109,-152.05
22.125,-135.68
22.140,-119.7
22.156,-104.96
22.171,-89.03
22.187,-68.95
22.203,-42.84
22.218,-11.73
22.234,21.09
22.250,51.81
22.265,77.74
22.281,97.92
22.296,113.49
22.312,131.46
22.328,158.89
22.343,199.5
22.359,250.44
22.375,303.81
22.390,350.66
22.406,384.57
22.421,402.81
22.437,406.46
22.453,404.98
22.468,408.9
22.484,426.42
22.500,460.1
22.515,508.48
22.531,569.11
22.546,639.46
22.562,715.56
22.578,756.19
22.593,726.13
22.609,611.7
22.625,434.3
22.640,235.35
22.656,52.13
22.671,-94.69
22.687,-200.99
22.703,-274.06
22.718,-326.6
22.734,-363.59
22.750,-388.53
22.765,-400.22
22.781,-397.62
22.796,-381.41
22.812,-353.37
22.828,-316.47
22.843,-274.9
22.859,-233.29
22.875,-190.59
22.890,-147.3
22.906,-103.72
22.921,-62.31
22.937,-26.95
22.953,-0.93
22.968,14.17
22.984,18.97
23.000,16.17
23.015,12.45
23.031,13.8
23.046,23.12
23.062,37.23
23.078,48.35
23.093,48.35
23.109,32.39
23.125,1.27
23.140,-39.07
23.156,-78.39
23.171,-106.65
23.187,-116.82
23.203,-107.6
23.218,-83.05
23.234,-50.2
23.250,-16.36
23.265,13.01
23.281,35.05
23.296,50.02
23.312,60.03
23.328,67.8
23.343,74.82
23.359,80.8
23.375,84.38
23.390,84.31
23.406,80.48
23.421,73.78
23.437,66.06
23.453,59.79
23.468,57.58
23.484,61.25
23.500,71.15
23.515,85.85
23.531,102.08
23.546,115.24
23.562,120.03
23.578,112.27
23.593,90.74
23.609,57.64
23.625,17.55
23.640,-24.35
23.656,-63.72
23.671,-98.91
23.687,-125.94
23.703,-141.38
23.718,-144.61
23.734,-137.89
23.750,-124.42
23.765,-106.83
23.781,-86.88
23.796,-66.35
23.812,-46.24
23.828,-28.11
23.843,-14.68
23.859,-8.5
23.875,-10.29
23.890,-18.67
23.906,-30.68
23.921,-43.5
23.937,-53.47
23.953,-57.46
23.968,-53.74
23.984,-43.72
24.000,-31.61
24.015,-22.67
24.031,-21.33
24.046,-29.52
24.062,-46.02
24.078,-66.5
24.093,-85.51
24.109,-96.34
24.125,-94.96
24.140,-82.59
24.156,-64.59
24.171,-46.83
24.187,-32.88
24.203,-24.5
24.218,-21.17
24.234,-22.71
24.250,-28.7
24.265,-38.12
24.281,-48.87
24.296,-57.48
24.312,-60.83
24.328,-58.08
24.343,-51.74
24.359,-46.72
24.375,-48.31
24.390,-59.22
24.406,-78.25
24.421,-100.32
24.437,-118.06
24.453,-124.74
24.468,-117.05
24.484,-96.59
24.500,-69.02
24.515,-41.84
24.531,-21.43
24.546,-11.36
24.562,-11.67
24.578,-19.3
24.593,-29.49
24.609,-37.4
24.625,-39.32
24.640,-33.27
24.656,-19.43
24.671,0.07
24.687,21.44
24.703,40.22
24.718,52.47
24.734,55.91
24.750,50.44
24.765,37.76
24.781,20.53
24.796,1.51
24.812,-16.78
24.828,-31.98
24.843,-41.72
24.859,-44.03
24.875,-38.28
24.890,-25.67
24.906,-9.13
24.921,7.9
24.937,22.8
24.953,34.67
24.968,44.32
24.984,53.25
25.000,62.49
25.015,71.84
25.031,80.22
25.046,86.24
25.062,88.93
25.078,88.1
25.093,84.2
25.109,78.04
25.125,70.42
25.140,62.04
25.156,53.43
25.171,44.97
25.187,36.79
25.203,28.66
25.218,20.19
25.234,11.0
25.250,1.12
25.265,-9.07
25.281,-18.92
25.296,-27.94
25.312,-35.85
25.328,-42.77
25.343,-48.91
25.359,-54.39
25.375,-59.11
25.390,-62.85
25.406,-65.41
25.421,-66.87
25.437,-67.43
25.453,-67.2
25.468,-65.93
25.484,-62.95
25.500,-57.34
25.515,-48.43
25.531,-36.11
25.546,-21.0
25.562,-4.35
25.578,12.43
25.593,28.09
25.609,41.86
25.625,53.54
25.640,63.32
25.656,71.49
25.671,78.28
25.687,83.64
25.703,87.4
25.718,89.28
25.734,89.12
25.750,87.01
25.765,83.32
25.781,78.61
25.796,73.43
25.812,68.24
25.828,63.28
25.843,58.62
25.859,54.25
25.875,50.13
25.890,46.27
25.906,42.63
25.921,39.14
25.937,35.66
25.953,32.04
25.968,28.17
25.984,23.99
26.000,19.62
26.015,15.27
26.031,11.22
26.046,7.59
26.062,4.18
26.078,0.44
26.093,-4.37
26.109,-10.71
26.125,-18.35
26.140,-26.26
26.156,-32.74
26.171,-36.14
26.187,-35.41
26.203,-30.59
26.218,-22.66
26.234,-13.04
26.250,-3.0
26.265,6.6
26.281,15.23
26.296,22.6
26.312,28.5
26.328,32.99
26.343,36.6
26.359,40.26
26.375,44.97
26.390,51.29
26.406,58.98
26.421,67.24
26.437,75.08
26.453,82.04
26.468,88.32
26.484,94.55
26.500,101.34
26.515,108.85
26.531,116.87
26.546,125.06
26.562,133.06
26.578,140.37
26.593,146.0
26.609,148.49
26.625,146.33
26.640,138.8
26.656,126.54
26.671,111.38
26.687,95.68
26.703,81.25
26.718,68.83
26.734,58.21
26.750,48.91
26.765,40.82
26.781,34.4
26.796,30.23
26.812,28.48
26.828,28.69
26.843,30.18
26.859,32.5
26.875,35.96
26.890,41.52
26.906,50.29
26.921,62.98
26.937,79.45
26.953,98.67
26.968,118.93
26.984,138.21
27.000,154.32
27.015,165.07
27.031,168.57
27.046,163.72
27.062,150.64
27.078,130.87
27.093,106.88
27.109,81.45
27.125,56.8
27.140,34.01
27.156,12.84
27.171,-7.98
27.187,-30.04
27.203,-54.59
27.218,-81.97
27.234,-111.5
27.250,-141.2
27.265,-167.97
27.281,-188.68
27.296,-201.36
27.312,-206.07
27.328,-204.73
27.343,-200.2
27.359,-195.11
27.375,-191.54
27.390,-190.13
27.406,-189.98
27.421,-189.68
27.437,-188.4
27.453,-186.51
27.468,-185.18
27.484,-185.68
27.500,-188.67
27.515,-194.38
27.531,-201.15
27.546,-204.87
27.562,-200.42
27.578,-184.01
27.593,-154.91
27.609,-116.21
27.625,-74.11
27.640,-36.36
27.656,-11.76
27.671,-6.65
27.687,-22.22
27.703,-53.82
27.718,-92.21
27.734,-125.94
27.750,-144.67
27.765,-142.68
27.781,-114.65
27.796,-66.56
27.812,-15.08
27.828,21.97
27.843,37.65
27.859,38.21
27.875,35.76
27.890,39.22
27.906,50.28
27.921,64.8
27.937,76.08
27.953,80.47
27.968,79.55
27.984,77.59
28.000,77.25
28.015,77.89
28.031,77.59
28.046,74.52
28.062,69.65
28.078,66.08
28.093,68.33
28.109,79.7
28.125,100.12
28.140,123.92
28.156,143.02
28.171,151.42
28.187,147.34
28.203,133.0
28.218,111.73
28.234,86.38
28.250,58.47
28.265,28.57
28.281,-2.68
28.296,-34.18
28.312,-63.02
28.328,-85.27
28.343,-97.38
28.359,-97.88
28.375,-87.7
28.390,-69.92
28.406,-48.19
28.421,-25.56
28.437,-3.28
28.453,19.02
28.468,41.93
28.484,65.06
28.500,86.36
28.515,102.9
28.531,112.27
28.546,113.66
28.562,107.76
28.578,95.83
28.593,78.87
28.609,57.19
28.625,30.58
28.640,-0.72
28.656,-35.4
28.671,-70.62
28.687,-102.77
28.703,-128.61
28.718,-146.36
28.734,-156.11
28.750,-159.76
28.765,-160.59
28.781,-162.05
28.796,-166.6
28.812,-174.69
28.828,-183.94
28.843,-189.37
28.859,-184.55
28.875,-163.65
28.890,-124.18
28.906,-68.84
28.921,-5.45
28.937,55.29
28.953,103.51
28.968,133.37
28.984,144.45
29.000,140.57
29.015,127.16
29.031,108.81
29.046,88.24
29.062,67.16
29.078,47.34
29.093,31.11
29.109,20.53
29.125,15.79
29.140,14.3
29.156,11.34
29.171,2.41
29.187,-14.37
29.203,-37.02
29.218,-60.71
29.234,-80.3
29.250,-92.81
29.265,-98.46
29.281,-99.75
29.296,-99.38
29.312,-98.54
29.328,-96.62
29.343,-92.0
29.359,-83.64
29.375,-71.95
29.390,-58.62
29.406,-45.89
29.421,-35.65
29.437,-29.08
29.453,-26.66
29.468,-28.35
29.484,-33.52
29.500,-40.99
29.515,-49.13
29.531,-56.29
29.546,-61.3
29.562,-63.59
29.578,-63.0
29.593,-59.46
29.609,-52.54
29.625,-41.52
29.640,-25.6
29.656,-4.37
29.671,21.91
29.687,52.03
29.703,83.79
29.718,114.08
29.734,139.36
29.750,156.68
29.765,164.85
29.781,165.21
29.796,161.39
29.812,157.85
29.828,157.94
29.843,162.41
29.859,169.15
29.875,174.48
29.890,175.08
29.906,169.56
29.921,158.92
29.937,145.69
29.953,132.54
29.968,121.18
29.984,112.13
30.000,105.11
30.015,99.44
30.031,94.3
30.046,88.51
30.062,80.48
30.078,68.5
30.093,51.52
30.109,29.76
30.125,5.01
30.140,-19.87
30.156,-41.97
30.171,-59.53
30.187,-72.54
30.203,-82.64
30.218,-92.17
30.234,-103.18
30.250,-116.59
30.265,-131.85
30.281,-147.13
30.296,-160.0
30.312,-168.32
30.328,-171.21
30.343,-169.41
30.359,-165.06
30.375,-160.69
30.390,-157.96
30.406,-156.61
30.421,-154.48
30.437,-148.34
30.453,-135.32
30.468,-114.22
30.484,-85.98
30.500,-53.27
30.515,-19.73
30.531,10.84
30.546,35.02
30.562,50.31
30.578,55.56
30.593,51.74
30.609,41.99
30.625,31.24
30.640,24.93
30.656,26.9
30.671,38.04
30.687,56.02
30.703,76.43
30.718,94.78
30.734,108.08
30.750,114.88
30.765,115.19
30.781,109.84
30.796,99.91
30.812,86.46
30.828,70.71
30.843,54.25
30.859,39.07
30.875,26.98
30.890,17.9
30.906,10.12
30.921,0.97
30.937,-11.98
30.953,-29.71
30.968,-51.2
30.984,-73.56
31.000,-92.83
31.015,-105.38
31.031,-110.19
31.046,-108.29
31.062,-102.11
31.078,-94.44
31.093,-88.03
31.109,-85.45
31.125,-88.78
31.140,-98.93
31.156,-108.32
31.171,-109.34
31.187,-96.36
31.203,-69.01
31.218,-31.92
31.234,8.29
31.250,45.75
31.265,76.42
31.281,98.28
31.296,110.92
31.312,114.84
31.328,110.49
31.343,99.29
31.359,84.31
31.375,69.68
31.390,59.19
31.406,54.8
31.421,56.15
31.437,61.89
31.453,68.01
31.468,70.31
31.484,66.08
31.500,54.9
31.515,38.21
31.531,18.2
31.546,-3.03
31.562,-23.73
31.578,-42.55
31.593,-59.08
31.609,-73.25
31.625,-84.93
31.640,-93.78
31.656,-99.17
31.671,-100.34
31.687,-96.35
31.703,-86.41
31.718,-70.39
31.734,-49.8
31.750,-27.68
31.765,-7.95
31.781,5.7
31.796,10.86
31.812,6.85
31.828,-5.46
31.843,-24.26
31.859,-47.38
31.875,-72.83
31.890,-98.63
31.906,-122.85
31.921,-143.68
31.937,-159.83
31.953,-170.83
31.968,-177.16
31.984,-179.91
32.000,-180.22
32.015,-178.92
32.031,-176.24
32.046,-171.86
32.062,-165.16
32.078,-155.74
32.093,-143.78
32.109,-130.37
32.125,-117.31
32.140,-106.68
32.156,-100.23
32.171,-98.78
32.187,-102.15
32.203,-109.22
32.218,-118.26
32.234,-127.03
32.250,-132.88
32.265,-133.15
32.281,-125.78
32.296,-110.07
32.312,-87.2
32.328,-59.83
32.343,-31.14
32.359,-3.52
32.375,22.2
32.390,46.52
32.406,70.36
32.421,93.94
32.437,116.44
32.453,136.3
32.468,152.0
32.484,162.81
32.500,169.0
32.515,171.53
32.531,171.41
32.546,169.07
32.562,164.27
32.578,156.47
32.593,145.36
32.609,131.35
32.625,115.65
32.640,99.85
32.656,85.33
32.671,72.71
32.687,61.79
32.703,52.08
32.718,43.51
32.734,36.92
32.750,33.64
32.765,34.47
32.781,38.48
32.796,42.8
32.812,43.6
32.828,37.97
32.843,25.34
32.859,7.79
32.875,-11.12
32.890,-28.19
32.906,-41.71
32.921,-51.63
32.937,-58.51
32.953,-62.45
32.968,-62.73
32.984,-58.32
33.000,-48.99
33.015,-35.87
33.031,-21.17
33.046,-7.26
33.062,4.33
33.078,13.29
33.093,20.32
33.109,26.39
33.125,32.13
33.140,37.56
33.156,42.14
33.171,45.12
33.187,45.98
33.203,44.62
33.218,41.42
33.234,37.09
33.250,32.38
33.265,27.91
33.281,23.95
33.296,20.52
33.312,17.43
33.328,14.53
33.343,11.67
33.359,8.81
33.375,5.99
33.390,3.2
33.406,0.42
33.421,-2.42
33.437,-5.38
33.453,-8.55
33.468,-12.06
33.484,-16.0
33.500,-20.49
33.515,-25.6
33.531,-31.36
33.546,-37.7
33.562,-44.42
33.578,-51.07
33.593,-56.95
33.609,-61.07
33.625,-62.33
33.640,-59.8
33.656,-53.11
33.671,-42.68
33.687,-29.67
33.703,-15.72
33.718,-2.39
33.734,9.22
33.750,18.63
33.765,25.98
33.781,31.66
33.796,36.12
33.812,39.71
33.828,42.64
33.843,45.07
33.859,47.18
33.875,49.08
33.890,50.87
33.906,52.55
33.921,54.04
33.937,55.24
33.953,56.08
33.968,56.56
33.984,56.62
34.000,56.13
34.015,54.87
34.031,52.57
34.046,49.07
34.062,44.54
34.078,39.46
34.093,34.54
34.109,30.46
34.125,27.63
34.140,26.03
34.156,25.23
34.171,24.49
34.187,22.99
34.203,20.04
34.218,15.3
34.234,8.96
34.250,1.77
34.265,-5.01
34.281,-9.87
34.296,-11.47
34.312,-9.06
34.328,-2.67
34.343,6.93
34.359,18.59
34.375,31.19
34.390,43.91
34.406,56.37
34.421,68.45
34.437,80.09
34.453,91.12
34.468,101.23
34.484,109.99
34.500,117.0
34.515,121.91
34.531,124.48
34.546,124.54
34.562,122.07
34.578,117.19
34.593,110.25
34.609,101.84
34.625,92.67
34.640,83.44
34.656,74.68
34.671,66.69
34.687,59.49
34.703,52.98
34.718,47.01
34.734,41.47
34.750,36.31
34.765,31.43
34.781,26.69
34.796,21.87
34.812,16.72
34.828,10.98
34.843,4.42
34.859,-3.14
34.875,-11.85
34.890,-21.68
34.906,-32.25
34.921,-42.73
34.937,-51.88
34.953,-58.25
34.968,-60.64
34.984,-58.42
35.000,-51.73
35.015,-41.4
35.031,-28.68
35.046,-14.86
35.062,-0.99
35.078,12.21
35.093,24.31
35.109,35.01
35.125,44.12
35.140,51.42
35.156,56.72
35.171,59.89
35.187,60.9
35.203,59.83
35.218,56.83
35.234,52.15
35.250,46.09
35.265,39.02
35.281,31.35
35.296,23.53
35.312,15.98
35.328,9.12
35.343,3.3
35.359,-1.3
35.375,-4.68
35.390,-7.05
35.406,-8.83
35.421,-10.39
35.437,-12.02
35.453,-13.64
35.468,-14.9
35.484,-15.21
35.500,-14.12
35.515,-11.39
35.531,-7.2
35.546,-2.07
35.562,3.3
35.578,8.26
35.593,12.35
35.609,15.43
35.625,17.69
35.640,19.64
35.656,22.01
35.671,25.51
35.687,30.68
35.703,37.64
35.718,46.02
35.734,55.03
35.750,63.66
35.765,71.0
35.781,76.42
35.796,79.68
35.812,80.8
35.828,79.9
35.843,77.08
35.859,72.48
35.875,66.29
35.890,58.92
35.906,50.94
35.921,43.08
35.937,35.88
35.953,29.7
35.968,24.49
35.984,20.04
36.000,16.06
36.015,12.43
36.031,9.32
36.046,7.08
36.062,6.1
36.078,6.63
36.093,8.65
36.109,11.89
36.125,15.84
36.140,19.9
36.156,23.33
36.171,25.32
36.187,25.07
36.203,22.05
36.218,16.32
36.234,8.73
36.250,0.75
36.265,-6.02
36.281,-10.46
36.296,-12.39
36.312,-12.44
36.328,-11.48
36.343,-10.03
36.359,-7.84
36.375,-4.12
36.390,1.79
36.406,9.8
36.421,18.79
36.437,26.96
36.453,32.55
36.468,34.64
36.484,33.46
36.500,30.12
36.515,26.04
36.531,22.27
36.546,19.12
36.562,16.21
36.578,12.76
36.593,7.98
36.609,1.37
36.625,-7.17
36.640,-17.33
36.656,-28.34
36.671,-39.09
36.687,-48.05
36.703,-53.57
36.718,-54.28
36.734,-49.47
36.750,-39.44
36.765,-25.47
36.781,-9.54
36.796,6.19
36.812,19.88
36.828,30.36
36.843,37.19
36.859,40.5
36.875,40.84
36.890,38.97
36.906,35.75
36.921,32.0
36.937,28.41
36.953,25.3
36.968,22.52
36.984,19.47
37.000,15.31
37.015,9.46
37.031,1.9
37.046,-6.59
37.062,-14.65
37.078,-20.76
37.093,-23.64
37.109,-22.62
37.125,-17.63
37.140,-9.01
37.156,2.64
37.171,16.65
37.187,32.31
37.203,48.82
37.218,65.34
37.234,81.12
37.250,95.56
37.265,108.28
37.281,119.13
37.296,128.09
37.312,135.19
37.328,140.45
37.343,143.82
37.359,145.09
37.375,143.89
37.390,139.74
37.406,132.15
37.421,120.96
37.437,106.44
37.453,89.33
37.468,70.73
37.484,51.86
37.500,33.86
37.515,17.7
37.531,4.18
37.546,-6.02
37.562,-12.39
37.578,-14.7
37.593,-13.26
37.609,-9.02
37.625,-3.55
37.640,1.32
37.656,3.96
37.671,3.43
37.687,-0.21
37.703,-6.04
37.718,-12.59
37.734,-18.44
37.750,-22.62
37.765,-24.88
37.781,-25.53
37.796,-25.23
37.812,-24.68
37.828,-24.43
37.843,-24.82
37.859,-25.9
37.875,-27.52
37.890,-29.33
37.906,-30.98
37.921,-32.27
37.937,-33.3
37.953,-34.5
37.968,-36.59
37.984,-40.31
38.000,-46.17
38.015,-54.28
38.031,-64.31
38.046,-75.59
38.062,-87.26
38.078,-98.43
38.093,-108.37
38.109,-116.58
38.125,-122.93
38.140,-127.58
38.156,-130.98
38.171,-133.62
38.187,-135.82
38.203,-137.57
38.218,-138.44
38.234,-137.83
38.250,-135.19
38.265,-130.46
38.281,-124.16
38.296,-117.3
38.312,-110.87
38.328,-105.47
38.343,-100.96
38.359,-96.63
38.375,-91.7
38.390,-85.7
38.406,-78.77
38.421,-71.38
38.437,-63.89
38.453,-56.06
38.468,-46.94
38.484,-35.16
38.500,-19.5
38.515,0.44
38.531,23.86
38.546,48.52
38.562,71.23
38.578,88.41
38.593,97.13
38.609,95.96
38.625,85.46
38.640,68.08
38.656,47.32
38.671,26.6
38.687,8.25
38.703,-6.99
38.718,-19.71
38.734,-31.11
38.750,-42.21
38.765,-53.29
38.781,-63.95
38.796,-73.48
38.812,-81.31
38.828,-87.39
38.843,-92.1
38.859,-96.03
38.875,-99.56
38.890,-102.67
38.906,-104.94
38.921,-105.83
38.937,-105.03
38.953,-102.62
38.968,-99.1
38.984,-95.12
39.000,-91.16
39.015,-87.45
39.031,-83.9
39.046,-80.35
39.062,-76.65
39.078,-72.74
39.093,-68.48
39.109,-63.56
39.125,-57.41
39.140,-49.4
39.156,-39.16
39.171,-26.88
39.187,-13.51
39.203,-0.63
39.218,9.97
39.234,16.85
39.250,19.35
39.265,17.81
39.281,13.4
39.296,7.76
39.312,2.4
39.328,-1.73
39.343,-4.39
39.359,-6.03
39.375,-7.37
39.390,-9.05
39.406,-11.46
39.421,-14.61
39.437,-18.35
39.453,-22.46
39.468,-26.73
39.484,-30.9
39.500,-34.66
39.515,-37.63
39.531,-39.49
39.546,-40.1
39.562,-39.68
39.578,-38.66
39.593,-37.62
39.609,-36.99
39.625,-37.0
39.640,-37.57
39.656,-38.48
39.671,-39.39
39.687,-39.98
39.703,-39.93
39.718,-39.0
39.734,-37.04
39.750,-34.03
39.765,-30.05
39.781,-25.4
39.796,-20.49
39.812,-15.83
39.828,-11.87
39.843,-8.84
39.859,-6.62
39.875,-4.7
39.890,-2.39
39.906,0.85
39.921,5.15
39.937,10.06
39.953,14.76
39.968,18.43
39.984,20.65
40.000,21.56
40.015,21.76
40.031,21.91
40.046,22.4
40.062,23.18
40.078,23.79
40.093,23.66
40.109,22.4
40.125,19.91
40.140,16.45
40.156,12.42
40.171,8.39
40.187,4.89
40.203,2.45
40.218,1.42
40.234,1.74
40.250,2.73
40.265,3.01
40.281,0.76
40.296,-5.59
40.312,-16.63
40.328,-31.38
40.343,-47.3
40.359,-60.98
40.375,-69.24
40.390,-70.21
40.406,-63.87
40.421,-51.88
40.437,-36.67
40.453,-20.55
40.468,-5.04
40.484,9.23
40.500,22.18
40.515,33.84
40.531,44.08
40.546,52.6
40.562,59.17
40.578,63.84
40.593,66.88
40.609,68.65
40.625,69.27
40.640,68.53
40.656,66.04
40.671,61.53
40.687,55.18
40.703,47.67
40.718,40.04
40.734,33.23
40.750,27.78
40.765,23.63
40.781,20.3
40.796,17.14
40.812,13.69
40.828,9.84
40.843,5.7
40.859,1.44
40.875,-2.95
40.890,-7.69
40.906,-13.08
40.921,-19.32
40.937,-26.22
40.953,-33.08
40.968,-38.74
40.984,-41.78
41.000,-40.96
41.015,-35.61
41.031,-25.81
41.046,-12.46
41.062,2.97
41.078,18.77
41.093,33.36
41.109,45.53
41.125,54.52
41.140,60.11
41.156,62.45
41.171,61.97
41.187,59.17
41.203,54.61
41.218,48.8
41.234,42.17
41.250,35.19
41.265,28.25
41.281,21.67
41.296,15.46
41.312,9.4
41.328,3.3
41.343,-2.73
41.359,-8.07
41.375,-11.87
41.390,-13.4
41.406,-12.6
41.421,-10.12
41.437,-7.1
41.453,-4.6
41.468,-3.11
41.484,-2.51
41.500,-2.41
41.515,-2.56
41.531,-3.08
41.546,-4.25
41.562,-6.11
41.578,-8.15
41.593,-9.35
41.609,-8.64
41.625,-5.41
41.640,0.17
41.656,7.27
41.671,14.72
41.687,21.46
41.703,26.76
41.718,30.25
41.734,31.74
41.750,31.04
41.765,28.07
41.781,23.07
41.796,16.81
41.812,10.57
41.828,5.85
41.843,3.88
41.859,5.31
41.875,10.07
41.890,17.71
41.906,27.78
41.921,40.03
41.937,54.49
41.953,71.11
41.968,89.52
41.984,108.7
42.000,126.86
42.015,141.38
42.031,149.06
42.046,146.73
42.062,132.26
42.078,105.51
42.093,68.85
42.109,26.85
42.125,-14.77
42.140,-50.57
42.156,-76.57
42.171,-90.9
42.187,-93.74
42.203,-86.66
42.218,-71.96
42.234,-52.04
42.250,-29.05
42.265,-4.83
42.281,19.18
42.296,41.72
42.312,61.63
42.328,77.78
42.343,89.19
42.359,95.29
42.375,96.18
42.390,92.57
42.406,85.53
42.421,76.19
42.437,65.4
42.453,53.79
42.468,41.9
42.484,30.25
42.500,19.35
42.515,9.54
42.531,0.83
42.546,-7.3
42.562,-15.69
42.578,-25.31
42.593,-36.91
42.609,-50.83
42.625,-66.9
42.640,-84.51
42.656,-102.75
42.671,-120.61
42.687,-137.18
42.703,-151.71
42.718,-163.81
42.734,-173.41
42.750,-180.62
42.765,-185.49
42.781,-187.82
42.796,-187.04
42.812,-182.61
42.828,-174.39
42.843,-162.89
42.859,-149.04
42.875,-133.64
42.890,-116.93
42.906,-98.47
42.921,-77.59
42.937,-54.05
42.953,-28.6
42.968,-2.9
42.984,21.13
43.000,42.16
43.015,59.8
43.031,74.31
43.046,85.83
43.062,94.05
43.078,98.43
43.093,99.07
43.109,97.44
43.125,96.21
43.140,98.15
43.156,104.63
43.171,114.51
43.187,124.36
43.203,129.9
43.218,128.03
43.234,118.3
43.250,102.92
43.265,85.63
43.281,70.01
43.296,58.47
43.312,51.9
43.328,49.85
43.343,50.91
43.359,52.69
43.375,52.06
43.390,45.64
43.406,30.97
43.421,7.75
43.437,-21.35
43.453,-51.15
43.468,-75.6
43.484,-89.91
43.500,-92.19
43.515,-83.96
43.531,-69.17
43.546,-52.76
43.562,-39.16
43.578,-31.56
43.593,-31.76
43.609,-40.26
43.625,-56.31
43.640,-77.87
43.656,-101.56
43.671,-123.16
43.687,-138.43
43.703,-144.43
43.718,-140.48
43.734,-128.4
43.750,-111.79
43.765,-94.75
43.781,-80.5
43.796,-70.46
43.812,-63.83
43.828,-57.93
43.843,-49.02
43.859,-33.55
43.875,-9.93
43.890,19.97
43.906,50.31
43.921,72.45
43.937,77.82
43.953,61.47
43.968,24.69
43.984,-24.77
44.000,-74.85
44.015,-113.23
44.031,-131.11
44.046,-125.53
44.062,-99.38
44.078,-59.69
44.093,-14.99
44.109,27.1
44.125,61.35
44.140,85.41
44.156,99.19
44.171,103.68
44.187,99.87
44.203,88.37
44.218,69.82
44.234,45.85
44.250,19.63
44.265,-4.54
44.281,-22.73
44.296,-33.12
44.312,-36.85
44.328,-37.46
44.343,-39.08
44.359,-44.22
44.375,-52.62
44.390,-61.44
44.406,-66.91
44.421,-66.25
44.437,-59.08
44.453,-47.49
44.468,-35.14
44.484,-25.62
44.500,-21.11
44.515,-21.72
44.531,-25.76
44.546,-30.72
44.562,-34.29
44.578,-35.1
44.593,-32.96
44.609,-28.54
44.625,-22.87
44.640,-16.98
44.656,-11.56
44.671,-6.93
44.687,-3.02
44.703,0.6
44.718,4.48
44.734,8.86
44.750,13.45
44.765,17.36
44.781,19.48
44.796,19.07
44.812,16.18
44.828,11.68
44.843,6.88
44.859,2.8
44.875,-0.29
44.890,-2.96
44.906,-6.22
44.921,-10.86
44.937,-16.94
44.953,-23.65
44.968,-29.52
44.984,-33.07
45.000,-33.39
45.015,-30.48
45.031,-25.19
45.046,-18.75
45.062,-12.18
45.078,-5.8
45.093,0.76
45.109,8.12
45.125,16.57
45.140,25.69
45.156,34.44
45.171,41.57
45.187,46.24
45.203,48.32
45.218,48.36
45.234,47.19
45.250,45.54
45.265,43.75
45.281,41.83
45.296,39.64
45.312,37.18
45.328,34.63
45.343,32.29
45.359,30.42
45.375,29.14
45.390,28.31
45.406,27.63
45.421,26.68
45.437,25.02
45.453,22.33
45.468,18.52
45.484,13.74
45.500,8.43
45.515,3.25
45.531,-1.02
45.546,-3.58
45.562,-3.84
45.578,-1.43
45.593,3.62
45.609,10.96
45.625,19.89
45.640,29.59
45.656,39.19
45.671,47.97
45.687,55.47
45.703,61.44
45.718,65.81
45.734,68.64
45.750,70.1
45.765,70.44
45.781,70.06
45.796,69.4
45.812,68.79
45.828,68.43
45.843,68.25
45.859,68.09
45.875,67.8
45.890,67.41
45.906,67.13
45.921,67.3
45.937,68.22
45.953,69.92
45.968,72.18
45.984,74.55
46.000,76.46
46.015,77.45
46.031,77.16
46.046,75.52
46.062,72.74
46.078,69.26
46.093,65.64
46.109,62.44
46.125,60.07
46.140,58.69
46.156,58.14
46.171,58.08
46.187,58.02
46.203,57.54
46.218,56.37
46.234,54.4
46.250,51.72
46.265,48.45
46.281,44.58
46.296,39.93
46.312,34.17
46.328,27.03
46.343,18.56
46.359,9.36
46.375,0.37
46.390,-7.53
46.406,-14.07
46.421,-19.87
46.437,-26.21
46.453,-34.37
46.468,-45.07
46.484,-58.01
46.500,-72.15
46.515,-86.32
46.531,-99.72
46.546,-112.18
46.562,-123.79
46.578,-134.41
46.593,-143.34
46.609,-149.43
46.625,-151.54
46.640,-148.97
46.656,-141.69
46.671,-130.15
46.687,-114.94
46.703,-96.63
46.718,-75.84
46.734,-53.5
46.750,-30.95
46.765,-9.8
46.781,8.55
46.796,23.31
46.812,34.51
46.828,42.79
46.843,48.94
46.859,53.41
46.875,56.27
46.890,57.48
46.906,57.27
46.921,56.5
46.937,56.34
46.953,57.75
46.968,60.83
46.984,64.59
47.000,67.25
47.015,67.11
47.031,63.33
47.046,56.3
47.062,47.45
47.078,38.38
47.093,30.11
47.109,22.67
47.125,15.35
47.140,7.26
47.156,-1.96
47.171,-11.97
47.187,-21.95
47.203,-31.12
47.218,-39.32
47.234,-47.13
47.250,-55.53
47.265,-65.3
47.281,-76.42
47.296,-87.87
47.312,-97.9
47.328,-104.67
47.343,-106.79
47.359,-103.64
47.375,-95.44
47.390,-83.01
47.406,-67.61
47.421,-50.74
47.437,-34.06
47.453,-19.13
47.468,-7.11
47.484,1.53
47.500,7.25
47.515,11.35
47.531,15.6
47.546,21.89
47.562,31.75
47.578,45.97
47.593,64.21
47.609,84.85
47.625,105.24
47.640,122.45
47.656,134.2
47.671,139.72
47.687,139.81
47.703,136.1
47.718,129.93
47.734,121.39
47.750,109.3
47.765,92.15
47.781,69.46
47.796,42.85
47.812,15.93
47.828,-6.86
47.843,-21.98
47.859,-28.03
47.875,-25.99
47.890,-18.37
47.906,-7.97
47.921,3.02
47.937,13.23
47.953,21.72
47.968,27.78
47.984,31.04
48.000,32.01
48.015,32.46
48.031,35.23
48.046,43.22
48.062,58.09
48.078,79.5
48.093,105.11
48.109,131.53
48.125,155.58
48.140,175.19
48.156,189.6
48.171,199.06
48.187,204.06
48.203,205.01
48.218,201.98
48.234,194.72
48.250,182.92
48.265,166.42
48.281,145.42
48.296,120.66
48.312,93.3
48.328,64.68
48.343,35.88
48.359,7.44
48.375,-20.55
48.390,-48.16
48.406,-75.12
48.421,-100.55
48.437,-123.1
48.453,-141.49
48.468,-155.06
48.484,-164.13
48.500,-169.8
48.515,-173.31
48.531,-175.52
48.546,-176.5
48.562,-175.78
48.578,-172.9
48.593,-167.81
48.609,-161.03
48.625,-153.49
48.640,-146.02
48.656,-139.07
48.671,-132.62
48.687,-126.34
48.703,-119.87
48.718,-113.0
48.734,-105.64
48.750,-97.86
48.765,-89.81
48.781,-81.72
48.796,-73.96
48.812,-66.92
48.828,-60.9
48.843,-55.93
48.859,-51.79
48.875,-48.04
48.890,-44.4
48.906,-40.86
48.921,-37.83
48.937,-35.92
48.953,-35.67
48.968,-37.22
48.984,-40.13
49.000,-43.56
49.015,-46.57
49.031,-48.57
49.046,-49.58
49.062,-50.13
49.078,-51.04
49.093,-53.0
49.109,-56.23
49.125,-60.46
49.140,-65.07
49.156,-69.32
49.171,-72.54
49.187,-74.25
49.203,-74.01
49.218,-71.51
49.234,-66.49
49.250,-58.85
49.265,-48.79
49.281,-36.85
49.296,-23.87
49.312,-10.82
49.328,1.36
49.343,11.96
49.359,20.54
49.375,27.04
49.390,31.61
49.406,34.57
49.421,36.26
49.437,36.96
49.453,36.84
49.468,36.06
49.484,34.82
49.500,33.43
49.515,32.25
49.531,31.6
49.546,31.56
49.562,31.89
49.578,32.06
49.593,31.4
49.609,29.33
49.625,25.64
49.640,20.51
49.656,14.45
49.671,8.14
49.687,2.17
49.703,-3.15
49.718,-7.81
49.734,-12.16
49.750,-16.64
49.765,-21.69
49.781,-27.38
49.796,-33.33
49.812,-38.68
49.828,-42.19
49.843,-42.66
49.859,-39.22
49.875,-31.69
49.890,-20.59
49.906,-7.06
49.921,7.51
49.937,21.76
49.953,34.64
49.968,45.52
49.984,54.11
50.000,60.37
50.015,64.38
50.031,66.28
50.046,66.2
50.062,64.4
50.078,61.21
50.093,57.13
50.109,52.67
50.125,48.28
50.140,44.14
50.156,40.11
50.171,35.75
50.187,30.46
50.203,23.76
50.218,15.51
50.234,5.98
50.250,-4.28
50.265,-14.64
50.281,-24.58
50.296,-33.77
50.312,-42.08
50.328,-49.57
50.343,-56.45
50.359,-63.18
50.375,-70.3
50.390,-78.24
50.406,-87.01
50.421,-95.88
50.437,-103.38
50.453,-107.65
50.468,-107.06
50.484,-100.68
50.500,-88.67
50.515,-72.13
50.531,-52.79
50.546,-32.51
50.562,-12.91
50.578,4.8
50.593,19.89
50.609,32.0
50.625,41.06
50.640,47.16
50.656,50.53
50.671,51.45
50.687,50.28
50.703,47.53
50.718,43.77
50.734,39.61
50.750,35.54
50.765,31.78
50.781,28.31
50.796,24.96
50.812,21.57
50.828,18.09
50.843,14.58
50.859,11.09
50.875,7.52
50.890,3.6
50.906,-1.03
50.921,-6.63
50.937,-13.21
50.953,-20.63
50.968,-28.68
50.984,-37.29
51.000,-46.36
51.015,-55.67
51.031,-64.48
51.046,-71.53
51.062,-75.28
51.078,-74.35
51.093,-68.08
51.109,-56.79
51.125,-41.71
51.140,-24.56
51.156,-7.04
51.171,9.5
51.187,24.24
51.203,36.76
51.218,46.78
51.234,54.16
51.250,58.81
51.265,60.81
51.281,60.45
51.296,58.25
51.312,54.85
51.328,50.86
51.343,46.73
51.359,42.68
51.375,38.71
51.390,34.69
51.406,30.49
51.421,26.08
51.437,21.55
51.453,17.0
51.468,12.51
51.484,8.07
51.500,3.5
51.515,-1.41
51.531,-6.84
51.546,-12.83
51.562,-19.34
51.578,-26.25
51.593,-33.45
51.609,-40.69
51.625,-47.51
51.640,-52.99
51.656,-55.76
51.671,-54.14
51.687,-46.63
51.703,-32.47
51.718,-12.04
51.734,13.01
51.750,40.19
51.765,66.67
51.781,90.03
51.796,108.65
51.812,121.88
51.828,129.8
51.843,132.97
51.859,132.2
51.875,128.33
51.890,122.28
51.906,114.83
51.921,106.53
51.937,97.43
51.953,87.07
51.968,74.61
51.984,59.28
52.000,40.7
52.015,19.1
52.031,-4.8
52.046,-30.1
52.062,-56.11
52.078,-82.37
52.093,-108.53
52.109,-133.94
52.125,-157.57
52.140,-178.01
52.156,-193.9
52.171,-204.41
52.187,-209.51
52.203,-210.1
52.218,-207.61
52.234,-203.49
52.250,-198.66
52.265,-193.12
52.281,-185.9
52.296,-175.51
52.312,-160.57
52.328,-140.43
52.343,-115.55
52.359,-87.42
52.375,-58.02
52.390,-29.23
52.406,-2.37
52.421,21.84
52.437,43.02
52.453,60.73
52.468,74.3
52.484,82.95
52.500,86.17
52.515,84.13
52.531,77.82
52.546,68.83
52.562,58.9
52.578,49.34
52.593,40.76
52.609,32.94
52.625,25.03
52.640,15.87
52.656,4.37
52.671,-10.11
52.687,-27.45
52.703,-46.64
52.718,-65.87
52.734,-82.95
52.750,-95.89
52.765,-103.47
52.781,-105.54
52.796,-102.92
52.812,-97.02
52.828,-89.28
52.843,-80.75
52.859,-71.94
52.875,-62.83
52.890,-52.91
52.906,-41.37
52.921,-27.33
52.937,-10.13
52.953,10.34
52.968,33.46
52.984,57.84
53.000,81.62
53.015,103.14
53.031,121.44
53.046,136.57
53.062,149.37
53.078,160.88
53.093,171.62
53.109,181.18
53.125,188.45
53.140,192.13
53.156,191.47
53.171,186.62
53.187,178.48
53.203,168.33
53.218,157.33
53.234,146.39
53.250,136.27
53.265,127.57
53.281,120.44
53.296,114.22
53.312,107.06
53.328,96.39
53.343,79.83
53.359,56.47
53.375,27.73
53.390,-2.81
53.406,-30.61
53.421,-51.8
53.437,-64.53
53.453,-69.43
53.468,-68.92
53.484,-66.06
53.500,-63.35
53.515,-62.14
53.531,-62.58
53.546,-64.15
53.562,-66.07
53.578,-67.57
53.593,-67.85
53.609,-65.91
53.625,-60.63
53.640,-51.1
53.656,-37.12
53.671,-19.54
53.687,-0.13
53.703,19.03
53.718,36.26
53.734,50.86
53.750,63.24
53.765,74.64
53.781,86.5
53.796,99.87
53.812,114.83
53.828,130.2
53.843,143.5
53.859,151.45
53.875,150.78
53.890,139.38
53.906,117.27
53.921,87.02
53.937,53.39
53.953,22.13
53.968,-1.55
53.984,-14.43
54.000,-15.81
54.015,-7.34
54.031,7.81
54.046,26.01
54.062,43.99
54.078,59.36
54.093,70.77
54.109,77.93
54.125,81.48
54.140,82.94
54.156,84.37
54.171,87.94
54.187,95.25
54.203,106.72
54.218,121.3
54.234,136.78
54.250,150.69
54.265,161.35
54.281,168.62
54.296,173.78
54.312,178.73
54.328,184.91
54.343,192.53
54.359,200.55
54.375,207.19
54.390,210.64
54.406,209.62
54.421,203.33
54.437,191.41
54.453,174.01
54.468,152.11
54.484,127.85
54.500,104.36
54.515,85.03
54.531,72.24
54.546,66.39
54.562,65.89
54.578,68.04
54.593,70.64
54.609,73.03
54.625,76.37
54.640,82.55
54.656,92.82
54.671,106.59
54.687,121.43
54.703,133.9
54.718,141.1
54.734,141.88
54.750,137.22
54.765,129.51
54.781,121.15
54.796,113.38
54.812,105.96
54.828,97.85
54.843,88.3
54.859,77.58
54.875,66.91
54.890,57.66
54.906,50.42
54.921,44.57
54.937,38.58
54.953,31.04
54.968,21.45
54.984,10.64
55.000,0.29
55.015,-7.83
55.031,-12.65
55.046,-14.09
55.062,-12.84
55.078,-9.85
55.093,-5.95
55.109,-1.72
55.125,2.61
55.140,7.06
55.156,11.71
55.171,16.49
55.187,21.11
55.203,25.01
55.218,27.4
55.234,27.41
55.250,24.27
55.265,17.36
55.281,6.36
55.296,-8.77
55.312,-28.0
55.328,-51.21
55.343,-78.37
55.359,-109.48
55.375,-144.58
55.390,-183.5
55.406,-225.76
55.421,-270.46
55.437,-316.25
55.453,-361.32
55.468,-403.3
55.484,-439.16
55.500,-465.47
55.515,-479.09
55.531,-478.03
55.546,-462.31
55.562,-434.21
55.578,-397.64
55.593,-357.06
55.609,-316.24
55.625,-277.61
55.640,-242.37
55.656,-210.89
55.671,-183.29
55.687,-159.61
55.703,-139.58
55.718,-122.51
55.734,-107.35
55.750,-93.07
55.765,-79.4
55.781,-66.88
55.796,-56.45
55.812,-48.44
55.828,-41.99
55.843,-34.95
55.859,-24.91
55.875,-10.49
55.890,7.97
55.906,28.38
55.921,47.82
55.937,63.56
55.953,73.76
55.968,77.52
55.984,74.9
56.000,66.81
56.015,55.32
56.031,43.65
56.046,35.44
56.062,33.48
56.078,38.03
56.093,46.12
56.109,52.33
56.125,50.93
56.140,38.36
56.156,14.78
56.171,-16.08
56.187,-48.71
56.203,-77.82
56.218,-99.99
56.234,-114.08
56.250,-120.6
56.265,-121.04
56.281,-117.5
56.296,-112.52
56.312,-108.96
56.328,-109.45
56.343,-115.28
56.359,-125.59
56.375,-137.37
56.390,-146.3
56.406,-148.47
56.421,-141.87
56.437,-127.06
56.453,-106.8
56.468,-84.81
56.484,-64.48
56.500,-47.98
56.515,-36.04
56.531,-28.24
56.546,-23.53
56.562,-20.79
56.578,-19.09
56.593,-17.88
56.609,-16.75
56.625,-15.45
56.640,-13.78
56.656,-11.76
56.671,-9.7
56.687,-8.18
56.703,-7.7
56.718,-8.44
56.734,-10.22
56.750,-12.68
56.765,-15.39
56.781,-17.97
56.796,-19.89
56.812,-20.46
56.828,-18.89
56.843,-14.65
56.859,-7.9
56.875,0.56
56.890,9.57
56.906,18.26
56.921,26.32
56.937,33.96
56.953,41.38
56.968,48.46
56.984,54.58
57.000,59.04
57.015,61.52
57.031,62.39
57.046,62.63
57.062,63.4
57.078,65.48
57.093,68.96
57.109,73.25
57.125,77.45
57.140,80.73
57.156,82.82
57.171,84.08
57.187,85.31
57.203,87.26
57.218,90.25
57.234,93.97
57.250,97.64
57.265,100.44
57.281,101.66
57.296,100.67
57.312,96.68
57.328,88.85
57.343,76.68
57.359,60.67
57.375,42.63
57.390,25.19
57.406,10.78
57.421,0.44
57.437,-6.51
57.453,-11.63
57.468,-15.85
57.484,-18.33
57.500,-16.65
57.515,-8.33
57.531,7.4
57.546,28.64
57.562,51.51
57.578,71.83
57.593,87.13
57.609,97.3
57.625,103.99
57.640,109.08
57.656,113.23
57.671,115.57
57.687,114.28
57.703,107.67
57.718,95.1
57.734,77.34
57.750,56.21
57.765,34.22
57.781,14.15
57.796,-1.45
57.812,-10.85
57.828,-13.75
57.843,-11.5
57.859,-6.68
57.875,-2.04
57.890,0.49
57.906,0.48
57.921,-1.33
57.937,-3.96
57.953,-7.08
57.968,-11.27
57.984,-17.47
58.000,-25.97
58.015,-35.92
58.031,-45.61
58.046,-53.36
58.062,-58.37
58.078,-60.91
58.093,-61.76
58.109,-61.51
58.125,-60.11
58.140,-57.3
58.156,-53.43
58.171,-49.86
58.187,-48.44
58.203,-50.29
58.218,-54.58
58.234,-58.41
58.250,-57.93
58.265,-50.4
58.281,-35.7
58.296,-16.54
58.312,2.77
58.328,18.46
58.343,28.8
58.359,34.44
58.375,37.37
58.390,39.47
58.406,41.59
58.421,43.67
58.437,45.44
58.453,47.07
58.468,49.06
58.484,51.61
58.500,54.12
58.515,55.15
58.531,52.97
58.546,46.52
58.562,35.86
58.578,22.35
58.593,8.06
58.609,-4.81
58.625,-14.55
58.640,-20.3
58.656,-22.24
58.671,-21.58
58.687,-20.46
58.703,-21.64
58.718,-27.8
58.734,-40.61
58.750,-59.96
58.765,-83.83
58.781,-108.73
58.796,-130.72
58.812,-146.69
58.828,-155.18
58.843,-156.78
58.859,-153.77
58.875,-149.32
58.890,-146.5
58.906,-147.21
58.921,-151.45
58.937,-157.16
58.953,-160.89
58.968,-159.18
58.984,-150.31
59.000,-135.38
59.015,-118.27
59.031,-104.25
59.046,-97.88
59.062,-101.28
59.078,-113.54
59.093,-131.52
59.109,-151.49
59.125,-170.38
59.140,-186.43
59.156,-198.98
59.171,-208.07
59.187,-214.11
59.203,-217.84
59.218,-220.26
59.234,-222.31
59.250,-224.3
59.265,-225.5
59.281,-224.25
59.296,-218.58
59.312,-207.02
59.328,-189.13
59.343,-165.62
59.359,-137.91
59.375,-107.62
59.390,-76.19
59.406,-44.93
59.421,-15.13
59.437,11.79
59.453,34.46
59.468,51.72
59.484,62.64
59.500,66.6
59.515,63.31
59.531,53.13
59.546,37.44
59.562,18.8
59.578,0.8
59.593,-12.71
59.609,-18.87
59.625,-16.94
59.640,-8.9
59.656,0.93
59.671,7.27
59.687,5.67
59.703,-5.98
59.718,-26.89
59.734,-53.72
59.750,-81.8
59.765,-106.65
59.781,-125.28
59.796,-136.91
59.812,-142.85
59.828,-145.52
59.843,-147.13
59.859,-148.66
59.875,-149.64
59.890,-148.67
59.906,-144.41
59.921,-136.39
59.937,-125.26
59.953,-112.29
59.968,-98.57
59.984,-84.47
