timestamp,value
00.000,37.28
00.015,33.9
00.031,30.82
00.046,28.16
00.062,25.91
00.078,23.98
00.093,22.18
00.109,20.23
00.125,17.88
00.140,14.95
00.156,11.37
00.171,7.26
00.187,2.77
00.203,-1.86
00.218,-6.49
00.234,-11.04
00.250,-15.46
00.265,-19.69
00.281,-23.68
00.296,-27.38
00.312,-30.9
00.328,-34.51
00.343,-38.64
00.359,-43.71
00.375,-49.89
00.390,-56.93
00.406,-64.05
00.421,-70.11
00.437,-73.85
00.453,-74.23
00.468,-70.74
00.484,-63.48
00.500,-53.11
00.515,-40.67
00.531,-27.26
00.546,-13.88
00.562,-1.24
00.578,10.24
00.593,20.35
00.609,29.02
00.625,36.25
00.640,42.08
00.656,46.53
00.671,49.69
00.687,51.62
00.703,52.36
00.718,51.97
00.734,50.46
00.750,47.94
00.765,44.63
00.781,40.89
00.796,37.09
00.812,33.56
00.828,30.42
00.843,27.64
00.859,25.07
00.875,22.52
00.890,19.88
00.906,17.13
00.921,14.26
00.937,11.24
00.953,7.99
00.968,4.38
00.984,0.34
01.000,-4.04
01.015,-8.55
01.031,-12.94
01.046,-17.02
01.062,-20.8
01.078,-24.5
01.093,-28.46
01.109,-33.08
01.125,-38.63
01.140,-45.25
01.156,-52.76
01.171,-60.66
01.187,-68.1
01.203,-73.92
01.218,-76.92
01.234,-76.14
01.250,-71.19
01.265,-62.36
01.281,-50.56
01.296,-37.01
01.312,-22.94
01.328,-9.34
01.343,3.19
01.359,14.39
01.375,24.28
01.390,32.99
01.406,40.65
01.421,47.3
01.437,52.81
01.453,56.98
01.468,59.52
01.484,60.21
01.500,59.01
01.515,56.06
01.531,51.68
01.546,46.3
01.562,40.44
01.578,34.62
01.593,29.28
01.609,24.7
01.625,20.97
01.640,18.01
01.656,15.56
01.671,13.3
01.687,10.9
01.703,8.07
01.718,4.67
01.734,0.71
01.750,-3.73
01.765,-8.53
01.781,-13.58
01.796,-18.86
01.812,-24.36
01.828,-30.06
01.843,-35.88
01.859,-41.74
01.875,-47.49
01.890,-53.18
01.906,-58.99
01.921,-65.24
01.937,-72.23
01.953,-79.94
01.968,-87.99
01.984,-95.57
02.000,-101.57
02.015,-104.76
02.031,-104.16
02.046,-99.23
02.062,-90.12
02.078,-77.59
02.093,-62.93
02.109,-47.58
02.125,-32.86
02.140,-19.66
02.156,-8.3
02.171,1.4
02.187,9.92
02.203,17.78
02.218,25.27
02.234,32.35
02.250,38.71
02.265,43.85
02.281,47.27
02.296,48.63
02.312,47.84
02.328,45.12
02.343,40.99
02.359,36.12
02.375,31.2
02.390,26.84
02.406,23.39
02.421,20.92
02.437,19.26
02.453,18.09
02.468,17.05
02.484,15.92
02.500,14.57
02.515,13.07
02.531,11.62
02.546,10.41
02.562,9.64
02.578,9.27
02.593,9.13
02.609,8.85
02.625,8.1
02.640,6.66
02.656,4.51
02.671,1.85
02.687,-1.12
02.703,-4.26
02.718,-7.67
02.734,-11.69
02.750,-16.72
02.765,-22.96
02.781,-30.17
02.796,-37.59
02.812,-44.02
02.828,-48.1
02.843,-48.72
02.859,-45.28
02.875,-37.85
02.890,-27.1
02.906,-14.11
02.921,-0.08
02.937,13.84
02.953,26.7
02.968,37.88
02.984,47.18
03.000,54.66
03.015,60.59
03.031,65.24
03.046,68.74
03.062,71.04
03.078,72.01
03.093,71.61
03.109,69.98
03.125,67.5
03.140,64.64
03.156,61.87
03.171,59.49
03.187,57.61
03.203,56.16
03.218,54.95
03.234,53.69
03.250,52.05
03.265,49.74
03.281,46.51
03.296,42.28
03.312,37.12
03.328,31.29
03.343,25.1
03.359,18.86
03.375,12.71
03.390,6.7
03.406,0.76
03.421,-5.14
03.437,-11.01
03.453,-16.77
03.468,-22.38
03.484,-27.88
03.500,-33.38
03.515,-39.12
03.531,-45.35
03.546,-52.26
03.562,-59.76
03.578,-67.42
03.593,-74.42
03.609,-79.63
03.625,-81.87
03.640,-80.21
03.656,-74.29
03.671,-64.44
03.687,-51.61
03.703,-37.05
03.718,-22.03
03.734,-7.6
03.750,5.53
03.765,16.93
03.781,26.43
03.796,34.0
03.812,39.74
03.828,43.82
03.843,46.44
03.859,47.8
03.875,47.99
03.890,47.05
03.906,44.94
03.921,41.73
03.937,37.54
03.953,32.67
03.968,27.54
03.984,22.62
04.000,18.34
04.015,14.98
04.031,12.68
04.046,11.34
04.062,10.68
04.078,10.36
04.093,9.98
04.109,9.15
04.125,7.65
04.140,5.3
04.156,2.11
04.171,-1.83
04.187,-6.36
04.203,-11.26
04.218,-16.29
04.234,-21.27
04.250,-26.1
04.265,-30.83
04.281,-35.7
04.296,-41.12
04.312,-47.42
04.328,-54.71
04.343,-62.62
04.359,-70.27
04.375,-76.33
04.390,-79.48
04.406,-78.65
04.421,-73.48
04.437,-64.3
04.453,-52.02
04.468,-37.87
04.484,-23.09
04.500,-8.68
04.515,4.63
04.531,16.39
04.546,26.38
04.562,34.52
04.578,40.84
04.593,45.54
04.609,48.81
04.625,50.87
04.640,51.85
04.656,51.73
04.671,50.49
04.687,48.16
04.703,44.89
04.718,41.03
04.734,37.03
04.750,33.35
04.765,30.24
04.781,27.76
04.796,25.7
04.812,23.82
04.828,21.88
04.843,19.7
04.859,17.2
04.875,14.26
04.890,10.73
04.906,6.47
04.921,1.5
04.937,-4.0
04.953,-9.6
04.968,-14.85
04.984,-19.46
05.000,-23.44
05.015,-27.1
05.031,-30.95
05.046,-35.46
05.062,-40.96
05.078,-47.51
05.093,-54.93
05.109,-62.8
05.125,-70.45
05.140,-76.94
05.156,-81.15
05.171,-81.99
05.187,-78.75
05.203,-71.24
05.218,-60.0
05.234,-46.12
05.250,-30.88
05.265,-15.47
05.281,-0.73
05.296,12.88
05.312,25.14
05.328,35.87
05.343,44.92
05.359,52.08
05.375,57.26
05.390,60.53
05.406,62.09
05.421,62.28
05.437,61.37
05.453,59.57
05.468,57.0
05.484,53.76
05.500,49.99
05.515,45.95
05.531,41.97
05.546,38.35
05.562,35.32
05.578,32.89
05.593,30.89
05.609,29.07
05.625,27.12
05.640,24.81
05.656,21.99
05.671,18.65
05.687,14.78
05.703,10.41
05.718,5.53
05.734,0.2
05.750,-5.47
05.765,-11.24
05.781,-16.89
05.796,-22.18
05.812,-27.05
05.828,-31.62
05.843,-36.2
05.859,-41.23
05.875,-47.08
05.890,-53.88
05.906,-61.35
05.921,-68.74
05.937,-74.89
05.953,-78.53
05.968,-78.59
05.984,-74.46
06.000,-66.22
06.015,-54.59
06.031,-40.62
06.046,-25.54
06.062,-10.41
06.078,3.94
06.093,17.02
06.109,28.52
06.125,38.41
06.140,46.67
06.156,53.35
06.171,58.47
06.187,62.05
06.203,64.08
06.218,64.64
06.234,63.81
06.250,61.72
06.265,58.61
06.281,54.71
06.296,50.34
06.312,45.88
06.328,41.7
06.343,38.1
06.359,35.25
06.375,33.12
06.390,31.54
06.406,30.25
06.421,28.95
06.437,27.34
06.453,25.19
06.468,22.32
06.484,18.63
06.500,14.12
06.515,8.94
06.531,3.31
06.546,-2.5
06.562,-8.27
06.578,-13.92
06.593,-19.44
06.609,-24.91
06.625,-30.46
06.640,-36.18
06.656,-42.18
06.671,-48.57
06.687,-55.41
06.703,-62.7
06.718,-70.23
06.734,-77.39
06.750,-83.23
06.765,-86.6
06.781,-86.41
06.796,-81.98
06.812,-73.31
06.828,-60.99
06.843,-46.15
06.859,-30.08
06.875,-13.98
06.890,1.18
06.906,14.78
06.921,26.52
06.937,36.34
06.953,44.33
06.968,50.68
06.984,55.56
07.000,59.1
07.015,61.28
07.031,62.04
07.046,61.3
07.062,59.09
07.078,55.58
07.093,51.07
07.109,45.98
07.125,40.8
07.140,36.0
07.156,31.9
07.171,28.65
07.187,26.16
07.203,24.21
07.218,22.52
07.234,20.84
07.250,19.06
07.265,17.09
07.281,14.84
07.296,12.14
07.312,8.8
07.328,4.66
07.343,-0.31
07.359,-5.95
07.375,-11.99
07.390,-18.09
07.406,-23.99
07.421,-29.6
07.437,-34.95
07.453,-40.24
07.468,-45.76
07.484,-51.83
07.500,-58.6
07.515,-65.87
07.531,-73.0
07.546,-78.89
07.562,-82.31
07.578,-82.15
07.593,-77.79
07.609,-69.33
07.625,-57.51
07.640,-43.47
07.656,-28.43
07.671,-13.45
07.687,0.72
07.703,13.61
07.718,25.01
07.734,34.85
07.750,43.15
07.765,49.92
07.781,55.19
07.796,58.89
07.812,60.96
07.828,61.37
07.843,60.27
07.859,57.96
07.875,54.92
07.890,51.63
07.906,48.44
07.921,45.54
07.937,42.91
07.953,40.41
07.968,37.82
07.984,34.99
08.000,31.81
08.015,28.22
08.031,24.24
08.046,19.87
08.062,15.13
08.078,9.97
08.093,4.34
08.109,-1.77
08.125,-8.18
08.140,-14.58
08.156,-20.6
08.171,-25.97
08.187,-30.64
08.203,-34.83
08.218,-38.91
08.234,-43.22
08.250,-47.94
08.265,-53.13
08.281,-58.68
08.296,-64.34
08.312,-69.61
08.328,-73.74
08.343,-75.73
08.359,-74.63
08.375,-69.77
08.390,-61.04
08.406,-49.0
08.421,-34.69
08.437,-19.34
08.453,-4.09
08.468,10.25
08.484,23.12
08.500,34.23
08.515,43.51
08.531,50.97
08.546,56.74
08.562,60.99
08.578,63.84
08.593,65.34
08.609,65.47
08.625,64.21
08.640,61.62
08.656,57.89
08.671,53.36
08.687,48.45
08.703,43.63
08.718,39.31
08.734,35.72
08.750,32.93
08.765,30.81
08.781,29.02
08.796,27.17
08.812,24.89
08.828,21.99
08.843,18.51
08.859,14.63
08.875,10.51
08.890,6.21
08.906,1.62
08.921,-3.41
08.937,-8.91
08.953,-14.79
08.968,-20.73
08.984,-26.45
09.000,-31.82
09.015,-36.87
09.031,-41.89
09.046,-47.19
09.062,-53.1
09.078,-59.79
09.093,-67.25
09.109,-75.19
09.125,-82.94
09.140,-89.48
09.156,-93.52
09.171,-93.82
09.187,-89.63
09.203,-80.87
09.218,-68.19
09.234,-52.81
09.250,-36.12
09.265,-19.37
09.281,-3.51
09.296,10.86
09.312,23.4
09.328,33.97
09.343,42.55
09.359,49.26
09.375,54.33
09.390,57.94
09.406,60.24
09.421,61.24
09.437,60.91
09.453,59.26
09.468,56.4
09.484,52.64
09.500,48.39
09.515,44.12
09.531,40.24
09.546,37.01
09.562,34.49
09.578,32.58
09.593,30.99
09.609,29.39
09.625,27.5
09.640,25.1
09.656,22.11
09.671,18.53
09.687,14.47
09.703,10.04
09.718,5.33
09.734,0.43
09.750,-4.66
09.765,-9.93
09.781,-15.39
09.796,-20.98
09.812,-26.62
09.828,-32.15
09.843,-37.42
09.859,-42.4
09.875,-47.2
09.890,-52.22
09.906,-57.88
09.921,-64.52
09.937,-72.07
09.953,-79.9
09.968,-86.81
09.984,-91.36
10.000,-92.23
10.015,-88.67
10.031,-80.73
10.046,-69.08
10.062,-54.85
10.078,-39.28
10.093,-23.45
10.109,-8.2
10.125,5.79
10.140,18.05
10.156,28.28
10.171,36.42
10.187,42.68
10.203,47.45
10.218,51.07
10.234,53.75
10.250,55.5
10.265,56.13
10.281,55.54
10.296,53.8
10.312,51.22
10.328,48.27
10.343,45.33
10.359,42.62
10.375,40.14
10.390,37.73
10.406,35.18
10.421,32.42
10.437,29.49
10.453,26.48
10.468,23.42
10.484,20.21
10.500,16.69
10.515,12.71
10.531,8.23
10.546,3.36
10.562,-1.71
10.578,-6.85
10.593,-12.03
10.609,-17.25
10.625,-22.54
10.640,-27.85
10.656,-33.08
10.671,-38.17
10.687,-43.25
10.703,-48.6
10.718,-54.5
10.734,-61.01
10.750,-67.71
10.765,-73.64
10.781,-77.51
10.796,-78.07
10.812,-74.56
10.828,-66.86
10.843,-55.58
10.859,-41.74
10.875,-26.52
10.890,-11.01
10.906,3.87
10.921,17.5
10.937,29.41
10.953,39.35
10.968,47.23
10.984,53.06
11.000,56.9
11.015,58.91
11.031,59.19
11.046,57.89
11.062,55.32
11.078,51.78
11.093,47.62
11.109,43.17
11.125,38.65
11.140,34.18
11.156,29.85
11.171,25.69
11.187,21.75
11.203,18.05
11.218,14.57
11.234,11.19
11.250,7.75
11.265,4.12
11.281,0.24
11.296,-3.85
11.312,-8.08
11.328,-12.41
11.343,-16.98
11.359,-22.04
11.375,-27.8
11.390,-34.25
11.406,-41.04
11.421,-47.58
11.437,-53.27
11.453,-57.82
11.468,-61.41
11.484,-64.54
11.500,-67.92
11.515,-72.09
11.531,-77.27
11.546,-83.28
11.562,-89.56
11.578,-95.13
11.593,-98.8
11.609,-99.34
11.625,-95.69
11.640,-87.35
11.656,-74.57
11.671,-58.3
11.687,-39.98
11.703,-21.14
11.718,-3.06
11.734,13.38
11.750,27.71
11.765,39.82
11.781,49.75
11.796,57.63
11.812,63.64
11.828,67.85
11.843,70.3
11.859,71.01
11.875,70.06
11.890,67.62
11.906,63.94
11.921,59.42
11.937,54.53
11.953,49.83
11.968,45.9
11.984,43.24
12.000,42.12
12.015,42.51
12.031,43.92
12.046,45.66
12.062,46.93
12.078,47.13
12.093,46.05
12.109,43.77
12.125,40.6
12.140,36.84
12.156,32.61
12.171,27.95
12.187,22.84
12.203,17.3
12.218,11.46
12.234,5.53
12.250,-0.35
12.265,-6.08
12.281,-11.7
12.296,-17.29
12.312,-22.99
12.328,-28.96
12.343,-35.4
12.359,-42.44
12.375,-50.09
12.390,-57.96
12.406,-65.26
12.421,-70.76
12.437,-73.18
12.453,-71.51
12.468,-65.38
12.484,-55.16
12.500,-41.88
12.515,-26.91
12.531,-11.56
12.546,3.17
12.562,16.63
12.578,28.47
12.593,38.55
12.609,46.84
12.625,53.38
12.640,58.3
12.656,61.75
12.671,63.86
12.687,64.72
12.703,64.34
12.718,62.75
12.734,60.05
12.750,56.41
12.765,52.17
12.781,47.65
12.796,43.28
12.812,39.34
12.828,35.99
12.843,33.2
12.859,30.77
12.875,28.38
12.890,25.74
12.906,22.67
12.921,19.25
12.937,15.68
12.953,12.26
12.968,9.17
12.984,6.39
13.000,3.68
13.015,0.68
13.031,-2.91
13.046,-7.18
13.062,-11.97
13.078,-16.93
13.093,-21.69
13.109,-26.05
13.125,-29.97
13.140,-33.57
13.156,-37.12
13.171,-40.87
13.187,-45.03
13.203,-49.66
13.218,-54.58
13.234,-59.26
13.250,-62.82
13.265,-64.12
13.281,-62.14
13.296,-56.31
13.312,-46.74
13.328,-34.26
13.343,-20.19
13.359,-5.87
13.375,7.61
13.390,19.64
13.406,30.0
13.421,38.76
13.437,46.05
13.453,51.91
13.468,56.31
13.484,59.16
13.500,60.4
13.515,60.07
13.531,58.38
13.546,55.59
13.562,52.03
13.578,48.04
13.593,43.93
13.609,39.98
13.625,36.41
13.640,33.4
13.656,31.01
13.671,29.17
13.687,27.7
13.703,26.28
13.718,24.57
13.734,22.31
13.750,19.38
13.765,15.85
13.781,11.91
13.796,7.78
13.812,3.63
13.828,-0.51
13.843,-4.72
13.859,-9.13
13.875,-13.83
13.890,-18.77
13.906,-23.83
13.921,-28.81
13.937,-33.6
13.953,-38.21
13.968,-42.81
13.984,-47.68
14.000,-53.14
14.015,-59.33
14.031,-66.09
14.046,-72.86
14.062,-78.65
14.078,-82.19
14.093,-82.31
14.109,-78.2
14.125,-69.79
14.140,-57.71
14.156,-43.21
14.171,-27.72
14.187,-12.53
14.203,1.53
14.218,14.06
14.234,24.97
14.250,34.3
14.265,42.06
14.281,48.27
14.296,52.88
14.312,55.92
14.328,57.5
14.343,57.72
14.359,56.7
14.375,54.54
14.390,51.37
14.406,47.45
14.421,43.13
14.437,38.9
14.453,35.2
14.468,32.3
14.484,30.2
14.500,28.64
14.515,27.22
14.531,25.54
14.546,23.36
14.562,20.64
14.578,17.51
14.593,14.14
14.609,10.66
14.625,7.04
14.640,3.17
14.656,-1.09
14.671,-5.86
14.687,-11.1
14.703,-16.62
14.718,-22.16
14.734,-27.44
14.750,-32.34
14.765,-36.94
14.781,-41.47
14.796,-46.28
14.812,-51.67
14.828,-57.73
14.843,-64.24
14.859,-70.55
14.875,-75.74
14.890,-78.74
14.906,-78.61
14.921,-74.83
14.937,-67.42
14.953,-56.97
14.968,-44.44
14.984,-30.91
15.000,-17.37
15.015,-4.58
15.031,6.93
15.046,16.83
15.062,24.98
15.078,31.35
15.093,36.03
15.109,39.19
15.125,40.98
15.140,41.53
15.156,40.87
15.171,39.07
15.187,36.24
15.203,32.57
15.218,28.34
15.234,23.83
15.250,19.28
15.265,14.86
15.281,10.59
15.296,6.45
15.312,2.43
15.328,-1.44
15.343,-5.1
15.359,-8.47
15.375,-11.45
15.390,-13.96
15.406,-15.92
15.421,-17.27
15.437,-18.05
15.453,-18.43
15.468,-18.7
15.484,-19.22
15.500,-20.23
15.515,-21.82
15.531,-23.84
15.546,-26.07
15.562,-28.4
15.578,-31.01
15.593,-34.37
15.609,-38.99
15.625,-45.07
15.640,-52.19
15.656,-59.34
15.671,-65.07
15.687,-67.88
15.703,-66.7
15.718,-61.06
15.734,-51.27
15.750,-38.21
15.765,-23.11
15.781,-7.3
15.796,8.03
15.812,21.96
15.828,33.99
15.843,44.03
15.859,52.25
15.875,58.98
15.890,64.45
15.906,68.76
15.921,71.86
15.937,73.63
15.953,73.99
15.968,72.98
15.984,70.74
16.000,67.44
16.015,63.34
16.031,58.7
16.046,53.86
16.062,49.2
16.078,45.01
16.093,41.44
16.109,38.45
16.125,35.86
16.140,33.42
16.156,30.9
16.171,28.2
16.187,25.28
16.203,22.1
16.218,18.59
16.234,14.65
16.250,10.16
16.265,5.16
16.281,-0.22
16.296,-5.7
16.312,-11.03
16.328,-16.06
16.343,-20.85
16.359,-25.69
16.375,-30.99
16.390,-37.09
16.406,-44.08
16.421,-51.51
16.437,-58.46
16.453,-63.68
16.468,-65.93
16.484,-64.36
16.500,-58.72
16.515,-49.44
16.531,-37.49
16.546,-24.12
16.562,-10.53
16.578,2.34
16.593,13.85
16.609,23.72
16.625,31.91
16.640,38.59
16.656,43.95
16.671,48.14
16.687,51.16
16.703,52.91
16.718,53.24
16.734,52.08
16.750,49.61
16.765,46.13
16.781,42.1
16.796,37.91
16.812,33.79
16.828,29.76
16.843,25.77
16.859,21.79
16.875,17.88
16.890,14.22
16.906,10.88
16.921,7.84
16.937,4.86
16.953,1.65
16.968,-2.05
16.984,-6.31
17.000,-10.96
17.015,-15.76
17.031,-20.44
17.046,-24.89
17.062,-29.18
17.078,-33.5
17.093,-38.05
17.109,-42.98
17.125,-48.33
17.140,-54.1
17.156,-60.29
17.171,-66.8
17.187,-73.35
17.203,-79.32
17.218,-83.81
17.234,-85.8
17.250,-84.41
17.265,-79.17
17.281,-70.2
17.296,-58.09
17.312,-43.8
17.328,-28.47
17.343,-13.15
17.359,1.24
17.375,14.09
17.390,25.13
17.406,34.36
17.421,41.96
17.437,48.1
17.453,52.81
17.468,56.02
17.484,57.58
17.500,57.48
17.515,55.91
17.531,53.22
17.546,49.84
17.562,46.15
17.578,42.4
17.593,38.77
17.609,35.33
17.625,32.16
17.640,29.33
17.656,26.89
17.671,24.77
17.687,22.82
17.703,20.78
17.718,18.39
17.734,15.43
17.750,11.78
17.765,7.39
17.781,2.37
17.796,-3.15
17.812,-8.97
17.828,-14.92
17.843,-20.88
17.859,-26.82
17.875,-32.75
17.890,-38.72
17.906,-44.88
17.921,-51.42
17.937,-58.55
17.953,-66.33
17.968,-74.48
17.984,-82.23
18.000,-88.41
18.015,-91.62
18.031,-90.68
18.046,-85.03
18.062,-74.96
18.078,-61.43
18.093,-45.85
18.109,-29.63
18.125,-13.94
18.140,0.5
18.156,13.33
18.171,24.41
18.187,33.83
18.203,41.66
18.218,48.04
18.234,53.01
18.250,56.62
18.265,58.86
18.281,59.72
18.296,59.24
18.312,57.46
18.328,54.53
18.343,50.62
18.359,46.05
18.375,41.16
18.390,36.32
18.406,31.85
18.421,27.87
18.437,24.38
18.453,21.23
18.468,18.28
18.484,15.4
18.500,12.57
18.515,9.7
18.531,6.64
18.546,3.22
18.562,-0.78
18.578,-5.4
18.593,-10.52
18.609,-15.9
18.625,-21.28
18.640,-26.51
18.656,-31.61
18.671,-36.76
18.687,-42.19
18.703,-48.15
18.718,-54.79
18.734,-62.03
18.750,-69.47
18.765,-76.32
18.781,-81.5
18.796,-83.83
18.812,-82.41
18.828,-76.82
18.843,-67.3
18.859,-54.61
18.875,-39.87
18.890,-24.25
18.906,-8.8
18.921,5.67
18.937,18.66
18.953,29.88
18.968,39.3
18.984,46.96
19.000,53.0
19.015,57.49
19.031,60.37
19.046,61.58
19.062,61.09
19.078,59.01
19.093,55.67
19.109,51.53
19.125,47.1
19.140,42.82
19.156,38.92
19.171,35.49
19.187,32.48
19.203,29.85
19.218,27.53
19.234,25.46
19.250,23.55
19.265,21.61
19.281,19.38
19.296,16.62
19.312,13.16
19.328,9.01
19.343,4.27
19.359,-0.9
19.375,-6.36
19.390,-12.02
19.406,-17.87
19.421,-23.97
19.437,-30.4
19.453,-37.26
19.468,-44.62
19.484,-52.4
19.500,-60.25
19.515,-67.45
19.531,-72.96
19.546,-75.64
19.562,-74.58
19.578,-69.33
19.593,-60.2
19.609,-48.06
19.625,-34.12
19.640,-19.57
19.656,-5.4
19.671,7.84
19.687,19.89
19.703,30.69
19.718,40.25
19.734,48.52
19.750,55.35
19.765,60.55
19.781,63.92
19.796,65.3
19.812,64.68
19.828,62.23
19.843,58.27
19.859,53.3
19.875,47.89
19.890,42.54
19.906,37.65
19.921,33.44
19.937,29.99
19.953,27.28
19.968,25.21
19.984,23.59
20.000,22.21
20.015,20.77
20.031,18.93
20.046,16.34
20.062,12.76
20.078,8.12
20.093,2.59
20.109,-3.5
20.125,-9.72
20.140,-15.66
20.156,-21.14
20.171,-26.19
20.187,-31.04
20.203,-36.08
20.218,-41.74
20.234,-48.34
20.250,-55.93
20.265,-64.23
20.281,-72.52
20.296,-79.71
20.312,-84.52
20.328,-85.81
20.343,-82.89
20.359,-75.72
20.375,-64.91
20.390,-51.54
20.406,-36.81
20.421,-21.8
20.437,-7.33
20.453,6.07
20.468,18.15
20.484,28.85
20.500,38.22
20.515,46.4
20.531,53.45
20.546,59.31
20.562,63.76
20.578,66.49
20.593,67.25
20.609,65.98
20.625,62.86
20.640,58.36
20.656,53.06
20.671,47.62
20.687,42.59
20.703,38.36
20.718,35.12
20.734,32.81
20.750,31.16
20.765,29.78
20.781,28.25
20.796,26.3
20.812,23.83
20.828,20.88
20.843,17.55
20.859,13.93
20.875,9.96
20.890,5.54
20.906,0.51
20.921,-5.18
20.937,-11.52
20.953,-18.41
20.968,-25.65
20.984,-33.03
21.000,-40.36
21.015,-47.49
21.031,-54.45
21.046,-61.44
21.062,-68.7
21.078,-76.34
21.093,-84.11
21.109,-91.17
21.125,-96.24
21.140,-97.94
21.156,-95.22
21.171,-87.75
21.187,-76.04
21.203,-61.22
21.218,-44.67
21.234,-27.69
21.250,-11.24
21.265,4.08
21.281,17.92
21.296,30.07
21.312,40.44
21.328,48.98
21.343,55.76
21.359,60.9
21.375,64.57
21.390,66.88
21.406,67.85
21.421,67.41
21.437,65.48
21.453,62.12
21.468,57.56
21.484,52.27
21.500,46.82
21.515,41.7
21.531,37.26
21.546,33.64
21.562,30.72
21.578,28.31
21.593,26.12
21.609,23.85
21.625,21.27
21.640,18.25
21.656,14.75
21.671,10.85
21.687,6.62
21.703,2.17
21.718,-2.53
21.734,-7.5
21.750,-12.79
21.765,-18.41
21.781,-24.3
21.796,-30.37
21.812,-36.57
21.828,-42.91
21.843,-49.51
21.859,-56.62
21.875,-64.53
21.890,-73.34
21.906,-82.81
21.921,-92.23
21.937,-100.43
21.953,-105.99
21.968,-107.68
21.984,-104.78
22.000,-97.34
22.015,-86.09
22.031,-72.21
22.046,-56.98
22.062,-41.54
22.078,-26.75
22.093,-13.2
22.109,-1.24
22.125,8.94
22.140,17.3
22.156,23.93
22.171,28.93
22.187,32.36
22.203,34.22
22.218,34.46
22.234,33.18
22.250,30.65
22.265,27.33
22.281,23.87
22.296,20.81
22.312,18.54
22.328,17.1
22.343,16.34
22.359,15.96
22.375,15.71
22.390,15.47
22.406,15.25
22.421,15.07
22.437,14.89
22.453,14.53
22.468,13.75
22.484,12.35
22.500,10.31
22.515,7.78
22.531,5.05
22.546,2.42
22.562,0.08
22.578,-1.89
22.593,-3.56
22.609,-5.09
22.625,-6.67
22.640,-8.58
22.656,-11.16
22.671,-14.84
22.687,-19.95
22.703,-26.52
22.718,-34.05
22.734,-41.41
22.750,-47.01
22.765,-49.19
22.781,-46.71
22.796,-39.2
22.812,-27.23
22.828,-12.06
22.843,4.72
22.859,21.7
22.875,37.84
22.890,52.53
22.906,65.46
22.921,76.51
22.937,85.67
22.953,93.02
22.968,98.63
22.984,102.5
23.000,104.46
23.015,104.22
23.031,101.59
23.046,96.69
23.062,90.02
23.078,82.4
23.093,74.71
23.109,67.73
23.125,61.79
23.140,56.93
23.156,52.92
23.171,49.44
23.187,46.14
23.203,42.68
23.218,38.87
23.234,34.59
23.250,29.88
23.265,24.87
23.281,19.73
23.296,14.56
23.312,9.36
23.328,4.0
23.343,-1.59
23.359,-7.44
23.375,-13.41
23.390,-19.27
23.406,-24.88
23.421,-30.18
23.437,-35.33
23.453,-40.59
23.468,-46.29
23.484,-52.67
23.500,-59.87
23.515,-67.79
23.531,-75.99
23.546,-83.62
23.562,-89.47
23.578,-92.16
23.593,-90.52
23.609,-83.92
23.625,-72.56
23.640,-57.44
23.656,-40.08
23.671,-22.08
23.687,-4.81
23.703,10.79
23.718,24.24
23.734,35.44
23.750,44.54
23.765,51.78
23.781,57.4
23.796,61.51
23.812,64.12
23.828,65.14
23.843,64.54
23.859,62.42
23.875,59.09
23.890,54.9
23.906,50.31
23.921,45.65
23.937,41.17
23.953,37.06
23.968,33.42
23.984,30.33
24.000,27.77
24.015,25.57
24.031,23.36
24.046,20.79
24.062,17.59
24.078,13.72
24.093,9.31
24.109,4.62
24.125,-0.16
24.140,-4.97
24.156,-9.88
24.171,-15.0
24.187,-20.37
24.203,-25.94
24.218,-31.67
24.234,-37.58
24.250,-43.88
24.265,-50.86
24.281,-58.63
24.296,-66.89
24.312,-74.79
24.328,-81.0
24.343,-84.1
24.359,-82.97
24.375,-77.14
24.390,-66.94
24.406,-53.32
24.421,-37.62
24.437,-21.16
24.453,-5.0
24.468,10.07
24.484,23.58
24.500,35.28
24.515,45.07
24.531,52.95
24.546,59.0
24.562,63.31
24.578,65.98
24.593,67.1
24.609,66.69
24.625,64.84
24.640,61.65
24.656,57.34
24.671,52.25
24.687,46.81
24.703,41.42
24.718,36.43
24.734,32.06
24.750,28.39
24.765,25.35
24.781,22.78
24.796,20.4
24.812,17.91
24.828,15.0
24.843,11.48
24.859,7.28
24.875,2.5
24.890,-2.66
24.906,-7.94
24.921,-13.15
24.937,-18.25
24.953,-23.23
24.968,-28.14
24.984,-33.03
25.000,-37.94
25.015,-42.96
25.031,-48.34
25.046,-54.36
25.062,-61.17
25.078,-68.6
25.093,-75.93
25.109,-81.95
25.125,-85.21
25.140,-84.49
25.156,-79.17
25.171,-69.48
25.187,-56.29
25.203,-40.89
25.218,-24.59
25.234,-8.44
25.250,6.8
25.265,20.63
25.281,32.75
25.296,43.01
25.312,51.4
25.328,57.99
25.343,62.92
25.359,66.27
25.375,68.03
25.390,68.15
25.406,66.56
25.421,63.39
25.437,58.95
25.453,53.74
25.468,48.34
25.484,43.27
25.500,38.83
25.515,35.05
25.531,31.75
25.546,28.67
25.562,25.52
25.578,22.19
25.593,18.65
25.609,14.99
25.625,11.26
25.640,7.48
25.656,3.57
25.671,-0.6
25.687,-5.14
25.703,-10.1
25.718,-15.39
25.734,-20.85
25.750,-26.29
25.765,-31.57
25.781,-36.66
25.796,-41.64
25.812,-46.66
25.828,-51.98
25.843,-57.88
25.859,-64.54
25.875,-71.94
25.890,-79.64
25.906,-86.75
25.921,-91.95
25.937,-93.8
25.953,-91.17
25.968,-83.58
25.984,-71.47
26.000,-56.02
26.015,-38.83
26.031,-21.45
26.046,-5.11
26.062,9.5
26.078,22.11
26.093,32.79
26.109,41.71
26.125,49.0
26.140,54.81
26.156,59.18
26.171,62.11
26.187,63.53
26.203,63.36
26.218,61.62
26.234,58.47
26.250,54.24
26.265,49.47
26.281,44.7
26.296,40.42
26.312,36.85
26.328,33.98
26.343,31.58
26.359,29.33
26.375,26.99
26.390,24.42
26.406,21.56
26.421,18.41
26.437,14.95
26.453,11.1
26.468,6.87
26.484,2.3
26.500,-2.42
26.515,-7.05
26.531,-11.36
26.546,-15.3
26.562,-18.99
26.578,-22.7
26.593,-26.78
26.609,-31.49
26.625,-37.04
26.640,-43.46
26.656,-50.56
26.671,-57.83
26.687,-64.47
26.703,-69.45
26.718,-71.68
26.734,-70.33
26.750,-65.02
26.765,-55.88
26.781,-43.61
26.796,-29.27
26.812,-14.07
26.828,0.89
26.843,14.77
26.859,27.04
26.875,37.51
26.890,46.18
26.906,53.09
26.921,58.21
26.937,61.37
26.953,62.41
26.968,61.27
26.984,58.14
27.000,53.45
27.015,47.76
27.031,41.69
27.046,35.72
27.062,30.19
27.078,25.23
27.093,20.78
27.109,16.7
27.125,12.69
27.140,8.47
27.156,3.76
27.171,-1.57
27.187,-7.46
27.203,-13.68
27.218,-19.85
27.234,-25.63
27.250,-30.83
27.265,-35.47
27.281,-39.67
27.296,-43.65
27.312,-47.6
27.328,-51.65
27.343,-55.83
27.359,-60.17
27.375,-64.73
27.390,-69.67
27.406,-75.22
27.421,-81.56
27.437,-88.66
27.453,-96.06
27.468,-102.84
27.484,-107.71
27.500,-109.24
27.515,-106.33
27.531,-98.43
27.546,-85.76
27.562,-69.24
27.578,-50.24
27.593,-30.32
27.609,-10.98
27.625,6.56
27.640,21.47
27.656,33.35
27.671,42.24
27.687,48.5
27.703,52.57
27.718,54.89
27.734,55.69
27.750,55.05
27.765,53.01
27.781,49.69
27.796,45.28
27.812,40.15
27.828,34.72
27.843,29.48
27.859,24.94
27.875,21.62
27.890,19.82
27.906,19.57
27.921,20.51
27.937,21.89
27.953,22.89
27.968,22.85
27.984,21.54
28.000,19.12
28.015,16.06
28.031,12.8
28.046,9.62
28.062,6.54
28.078,3.43
28.093,0.18
28.109,-3.26
28.125,-6.82
28.140,-10.47
28.156,-14.28
28.171,-18.49
28.187,-23.44
28.203,-29.38
28.218,-36.38
28.234,-44.11
28.250,-51.87
28.265,-58.67
28.281,-63.37
28.296,-64.97
28.312,-62.81
28.328,-56.74
28.343,-47.16
28.359,-34.92
28.375,-21.07
28.390,-6.69
28.406,7.37
28.421,20.5
28.437,32.35
28.453,42.78
28.468,51.76
28.484,59.39
28.500,65.79
28.515,71.02
28.531,75.05
28.546,77.71
28.562,78.83
28.578,78.3
28.593,76.17
28.609,72.72
28.625,68.43
28.640,63.85
28.656,59.45
28.671,55.48
28.687,52.01
28.703,48.92
28.718,46.01
28.734,43.04
28.750,39.83
28.765,36.24
28.781,32.22
28.796,27.79
28.812,23.06
28.828,18.25
28.843,13.51
28.859,8.94
28.875,4.46
28.890,-0.11
28.906,-4.96
28.921,-10.19
28.937,-15.72
28.953,-21.32
28.968,-26.78
28.984,-32.06
29.000,-37.35
29.015,-43.01
29.031,-49.42
29.046,-56.77
29.062,-64.81
29.078,-72.79
29.093,-79.53
29.109,-83.75
29.125,-84.31
29.140,-80.59
29.156,-72.6
29.171,-61.0
29.187,-46.83
29.203,-31.36
29.218,-15.73
29.234,-0.86
29.250,12.61
29.265,24.28
29.281,34.0
29.296,41.79
29.312,47.74
29.328,52.01
29.343,54.74
29.359,56.02
29.375,55.98
29.390,54.7
29.406,52.35
29.421,49.1
29.437,45.16
29.453,40.77
29.468,36.24
29.484,31.91
29.500,28.07
29.515,24.95
29.531,22.59
29.546,20.81
29.562,19.31
29.578,17.75
29.593,15.87
29.609,13.49
29.625,10.44
29.640,6.63
29.656,2.03
29.671,-3.26
29.687,-8.95
29.703,-14.59
29.718,-19.79
29.734,-24.26
29.750,-28.04
29.765,-31.47
29.781,-35.05
29.796,-39.25
29.812,-44.4
29.828,-50.53
29.843,-57.3
29.859,-63.99
29.875,-69.58
29.890,-72.92
29.906,-72.86
29.921,-68.66
29.937,-60.14
29.953,-47.82
29.968,-32.83
29.984,-16.61
30.000,-0.63
30.015,14.0
30.031,26.61
30.046,37.02
30.062,45.38
30.078,51.9
30.093,56.73
30.109,59.83
30.125,61.11
30.140,60.46
30.156,57.97
30.171,53.94
30.187,48.88
30.203,43.39
30.218,38.02
30.234,33.16
30.250,29.04
30.265,25.72
30.281,23.12
30.296,21.11
30.312,19.47
30.328,18.0
30.343,16.47
30.359,14.63
30.375,12.31
30.390,9.36
30.406,5.78
30.421,1.62
30.437,-2.94
30.453,-7.74
30.468,-12.62
30.484,-17.49
30.500,-22.29
30.515,-27.03
30.531,-31.77
30.546,-36.64
30.562,-41.88
30.578,-47.76
30.593,-54.44
30.609,-61.74
30.625,-69.01
30.640,-75.21
30.656,-79.07
30.671,-79.45
30.687,-75.77
30.703,-68.11
30.718,-57.11
30.734,-43.83
30.750,-29.34
30.765,-14.59
30.781,-0.28
30.796,12.99
30.812,24.86
30.828,35.05
30.843,43.46
30.859,50.14
30.875,55.21
30.890,58.82
30.906,61.05
30.921,61.88
30.937,61.29
30.953,59.31
30.968,56.09
30.984,51.94
31.000,47.3
31.015,42.57
31.031,38.1
31.046,34.06
31.062,30.49
31.078,27.31
31.093,24.42
31.109,21.66
31.125,18.86
31.140,15.9
31.156,12.63
31.171,8.98
31.187,4.94
31.203,0.61
31.218,-3.9
31.234,-8.47
31.250,-13.08
31.265,-17.73
31.281,-22.42
31.296,-27.16
31.312,-31.91
31.328,-36.66
31.343,-41.52
31.359,-46.75
31.375,-52.66
31.390,-59.42
31.406,-66.8
31.421,-74.04
31.437,-79.93
31.453,-83.07
31.468,-82.3
31.484,-77.07
31.500,-67.61
31.515,-54.85
31.531,-40.12
31.546,-24.79
31.562,-9.91
31.578,3.81
31.593,16.14
31.609,27.06
31.625,36.7
31.640,45.18
31.656,52.5
31.671,58.53
31.687,63.0
31.703,65.73
31.718,66.58
31.734,65.65
31.750,63.14
31.765,59.36
31.781,54.68
31.796,49.46
31.812,44.08
31.828,38.88
31.843,34.18
31.859,30.12
31.875,26.71
31.890,23.76
31.906,21.08
31.921,18.5
31.937,15.93
31.953,13.31
31.968,10.53
31.984,7.38
32.000,3.64
32.015,-0.81
32.031,-5.98
32.046,-11.72
32.062,-17.8
32.078,-24.05
32.093,-30.35
32.109,-36.64
32.125,-42.87
32.140,-48.99
32.156,-55.05
32.171,-61.2
32.187,-67.73
32.203,-74.78
32.218,-82.26
32.234,-89.54
32.250,-95.57
32.265,-99.09
32.281,-98.98
32.296,-94.66
32.312,-86.27
32.328,-74.55
32.343,-60.62
32.359,-45.73
32.375,-30.94
32.390,-17.08
32.406,-4.73
32.421,5.81
32.437,14.38
32.453,20.95
32.468,25.62
32.484,28.54
32.500,29.85
32.515,29.66
32.531,28.09
32.546,25.3
32.562,21.51
32.578,16.99
32.593,12.13
32.609,7.3
32.625,2.91
32.640,-0.65
32.656,-3.05
32.671,-4.11
32.687,-3.87
32.703,-2.65
32.718,-0.94
32.734,0.71
32.750,1.81
32.765,2.14
32.781,1.68
32.796,0.62
32.812,-0.74
32.828,-2.1
32.843,-3.22
32.859,-3.96
32.875,-4.32
32.890,-4.38
32.906,-4.32
32.921,-4.3
32.937,-4.52
32.953,-5.07
32.968,-5.99
32.984,-7.27
33.000,-8.82
33.015,-10.48
33.031,-11.96
33.046,-12.88
33.062,-12.8
33.078,-11.27
33.093,-7.93
33.109,-2.58
33.125,4.74
33.140,13.72
33.156,23.89
33.171,34.6
33.187,45.25
33.203,55.32
33.218,64.49
33.234,72.59
33.250,79.46
33.265,84.9
33.281,88.59
33.296,90.25
33.312,89.74
33.328,87.2
33.343,83.03
33.359,77.75
33.375,71.83
33.390,65.63
33.406,59.32
33.421,53.07
33.437,47.06
33.453,41.49
33.468,36.56
33.484,32.32
33.500,28.65
33.515,25.22
33.531,21.71
33.546,17.8
33.562,13.39
33.578,8.46
33.593,3.08
33.609,-2.64
33.625,-8.59
33.640,-14.65
33.656,-20.65
33.671,-26.42
33.687,-31.9
33.703,-37.12
33.718,-42.23
33.734,-47.51
33.750,-53.26
33.765,-59.69
33.781,-66.77
33.796,-74.15
33.812,-81.13
33.828,-86.72
33.843,-89.74
33.859,-89.23
33.875,-84.59
33.890,-75.83
33.906,-63.62
33.921,-49.08
33.937,-33.51
33.953,-18.07
33.968,-3.58
33.984,9.56
34.000,21.19
34.015,31.25
34.031,39.7
34.046,46.42
34.062,51.33
34.078,54.44
34.093,55.89
34.109,55.92
34.125,54.78
34.140,52.69
34.156,49.82
34.171,46.36
34.187,42.53
34.203,38.64
34.218,35.0
34.234,31.91
34.250,29.44
34.265,27.49
34.281,25.76
34.296,23.86
34.312,21.51
34.328,18.55
34.343,15.03
34.359,11.1
34.375,6.94
34.390,2.65
34.406,-1.76
34.421,-6.36
34.437,-11.2
34.453,-16.23
34.468,-21.33
34.484,-26.3
34.500,-31.01
34.515,-35.39
34.531,-39.53
34.546,-43.65
34.562,-48.08
34.578,-53.21
34.593,-59.33
34.609,-66.46
34.625,-74.21
34.640,-81.66
34.656,-87.51
34.671,-90.35
34.687,-89.07
34.703,-83.14
34.718,-72.82
34.734,-59.08
34.750,-43.25
34.765,-26.75
34.781,-10.78
34.796,3.84
34.812,16.68
34.828,27.64
34.843,36.85
34.859,44.51
34.875,50.77
34.890,55.72
34.906,59.32
34.921,61.55
34.937,62.4
34.953,61.97
34.968,60.4
34.984,57.86
35.000,54.5
35.015,50.49
35.031,46.1
35.046,41.71
35.062,37.78
35.078,34.68
35.093,32.49
35.109,30.97
35.125,29.58
35.140,27.81
35.156,25.32
35.171,22.05
35.187,18.21
35.203,14.08
35.218,9.9
35.234,5.7
35.250,1.47
35.265,-2.95
35.281,-7.62
35.296,-12.56
35.312,-17.75
35.328,-23.1
35.343,-28.45
35.359,-33.67
35.375,-38.77
35.390,-43.89
35.406,-49.38
35.421,-55.59
35.437,-62.74
35.453,-70.73
35.468,-78.96
35.484,-86.37
35.500,-91.65
35.515,-93.52
35.531,-91.03
35.546,-83.88
35.562,-72.5
35.578,-57.94
35.593,-41.65
35.609,-25.07
35.625,-9.36
35.640,4.78
35.656,17.05
35.671,27.49
35.687,36.21
35.703,43.36
35.718,49.07
35.734,53.42
35.750,56.49
35.765,58.3
35.781,58.81
35.796,58.01
35.812,55.87
35.828,52.55
35.843,48.4
35.859,43.91
35.875,39.55
35.890,35.72
35.906,32.56
35.921,30.0
35.937,27.87
35.953,25.95
35.968,24.02
35.984,21.97
36.000,19.73
36.015,17.23
36.031,14.4
36.046,11.12
36.062,7.28
36.078,2.82
36.093,-2.22
36.109,-7.7
36.125,-13.33
36.140,-18.84
36.156,-24.06
36.171,-28.98
36.187,-33.75
36.203,-38.64
36.218,-43.91
36.234,-49.78
36.250,-56.32
36.265,-63.36
36.281,-70.44
36.296,-76.65
36.312,-80.8
36.328,-81.65
36.343,-78.23
36.359,-70.27
36.375,-58.31
36.390,-43.55
36.406,-27.55
36.421,-11.71
36.437,2.94
36.453,15.91
36.468,27.11
36.484,36.62
36.500,44.55
36.515,50.9
36.531,55.7
36.546,58.9
36.562,60.57
36.578,60.85
36.593,59.96
36.609,58.1
36.625,55.5
36.640,52.39
36.656,48.95
36.671,45.38
36.687,41.83
36.703,38.39
36.718,35.09
36.734,31.87
36.750,28.58
36.765,25.14
36.781,21.53
36.796,17.82
36.812,14.19
36.828,10.78
36.843,7.61
36.859,4.55
36.875,1.29
36.890,-2.45
36.906,-6.85
36.921,-11.82
36.937,-17.11
36.953,-22.33
36.968,-27.22
36.984,-31.75
37.000,-36.11
37.015,-40.72
37.031,-46.02
37.046,-52.37
37.062,-59.81
37.078,-68.01
37.093,-76.14
37.109,-82.94
37.125,-86.89
37.140,-86.66
37.156,-81.49
37.171,-71.45
37.187,-57.49
37.203,-41.13
37.218,-24.01
37.234,-7.47
37.250,7.62
37.265,20.91
37.281,32.38
37.296,42.17
37.312,50.44
37.328,57.28
37.343,62.73
37.359,66.78
37.375,69.32
37.390,70.24
37.406,69.46
37.421,66.99
37.437,63.04
37.453,57.96
37.468,52.23
37.484,46.42
37.500,41.11
37.515,36.74
37.531,33.51
37.546,31.24
37.562,29.47
37.578,27.57
37.593,25.03
37.609,21.67
37.625,17.69
37.640,13.51
37.656,9.48
37.671,5.7
37.687,1.97
37.703,-2.03
37.718,-6.54
37.734,-11.51
37.750,-16.7
37.765,-21.82
37.781,-26.68
37.796,-31.35
37.812,-35.99
37.828,-40.83
37.843,-46.12
37.859,-52.07
37.875,-58.85
37.890,-66.55
37.906,-74.95
37.921,-83.41
37.937,-90.74
37.953,-95.45
37.968,-96.07
37.984,-91.69
38.000,-82.21
38.015,-68.47
38.031,-51.89
38.046,-34.13
38.062,-16.61
38.078,-0.26
38.093,14.43
38.109,27.31
38.125,38.42
38.140,47.83
38.156,55.63
38.171,61.93
38.187,66.79
38.203,70.22
38.218,72.11
38.234,72.31
38.250,70.66
38.265,67.22
38.281,62.33
38.296,56.54
38.312,50.58
38.328,45.06
38.343,40.34
38.359,36.47
38.375,33.26
38.390,30.41
38.406,27.67
38.421,24.89
38.437,22.05
38.453,19.17
38.468,16.22
38.484,13.11
38.500,9.71
38.515,5.92
38.531,1.63
38.546,-3.11
38.562,-8.22
38.578,-13.59
38.593,-19.07
38.609,-24.57
38.625,-29.94
38.640,-35.12
38.656,-40.15
38.671,-45.24
38.687,-50.77
38.703,-57.14
38.718,-64.48
38.734,-72.39
38.750,-79.91
38.765,-85.63
38.781,-88.11
38.796,-86.35
38.812,-80.07
38.828,-69.7
38.843,-56.22
38.859,-40.81
38.875,-24.57
38.890,-8.51
38.906,6.68
38.921,20.44
38.937,32.48
38.953,42.69
38.968,51.06
38.984,57.68
39.000,62.49
39.015,65.44
39.031,66.42
39.046,65.45
39.062,62.76
39.078,58.78
39.093,54.05
39.109,49.09
39.125,44.39
39.140,40.22
39.156,36.67
39.171,33.74
39.187,31.22
39.203,28.9
39.218,26.56
39.234,24.05
39.250,21.27
39.265,18.19
39.281,14.78
39.296,11.0
39.312,6.84
39.328,2.34
39.343,-2.4
39.359,-7.17
39.375,-11.77
39.390,-16.13
39.406,-20.32
39.421,-24.56
39.437,-29.16
39.453,-34.32
39.468,-40.15
39.484,-46.58
39.500,-53.49
39.515,-60.64
39.531,-67.63
39.546,-73.76
39.562,-77.99
39.578,-79.09
39.593,-76.01
39.609,-68.35
39.625,-56.52
39.640,-41.73
39.656,-25.6
39.671,-9.56
39.687,5.43
39.703,18.98
39.718,31.07
39.734,41.78
39.750,51.03
39.765,58.62
39.781,64.26
39.796,67.83
39.812,69.34
39.828,68.98
39.843,67.0
39.859,63.71
39.875,59.42
39.890,54.5
39.906,49.39
39.921,44.51
39.937,40.22
39.953,36.72
39.968,34.01
39.984,31.85
40.000,29.88
40.015,27.72
40.031,25.06
40.046,21.82
40.062,18.07
40.078,13.99
40.093,9.75
40.109,5.36
40.125,0.71
40.140,-4.34
40.156,-9.86
40.171,-15.76
40.187,-21.74
40.203,-27.5
40.218,-32.81
40.234,-37.64
40.250,-42.23
40.265,-46.97
40.281,-52.28
40.296,-58.49
40.312,-65.67
40.328,-73.5
40.343,-81.24
40.359,-87.72
40.375,-91.58
40.390,-91.64
40.406,-87.16
40.421,-78.08
40.437,-65.11
40.453,-49.48
40.468,-32.61
40.484,-15.79
40.500,0.02
40.515,14.3
40.531,26.84
40.546,37.7
40.562,47.04
40.578,54.99
40.593,61.64
40.609,66.96
40.625,70.8
40.640,72.99
40.656,73.44
40.671,72.2
40.687,69.53
40.703,65.85
40.718,61.65
40.734,57.38
40.750,53.36
40.765,49.73
40.781,46.55
40.796,43.7
40.812,40.96
40.828,38.08
40.843,34.77
40.859,30.84
40.875,26.25
40.890,21.07
40.906,15.47
40.921,9.66
40.937,3.79
40.953,-2.07
40.968,-7.94
40.984,-13.78
41.000,-19.61
41.015,-25.37
41.031,-31.0
41.046,-36.45
41.062,-41.76
41.078,-47.01
41.093,-52.43
41.109,-58.28
41.125,-64.84
41.140,-72.29
41.156,-80.61
41.171,-89.52
41.187,-98.44
41.203,-106.51
41.218,-112.64
41.234,-115.7
41.250,-114.7
41.265,-109.11
41.281,-99.02
41.296,-85.15
41.312,-68.75
41.328,-51.31
41.343,-34.19
41.359,-18.33
41.375,-4.2
41.390,8.13
41.406,18.78
41.421,27.9
41.437,35.48
41.453,41.41
41.468,45.5
41.484,47.66
41.500,47.92
41.515,46.52
41.531,43.83
41.546,40.31
41.562,36.35
41.578,32.3
41.593,28.41
41.609,24.89
41.625,21.9
41.640,19.48
41.656,17.6
41.671,16.09
41.687,14.77
41.703,13.46
41.718,12.14
41.734,10.91
41.750,9.94
41.765,9.41
41.781,9.44
41.796,10.1
41.812,11.33
41.828,12.99
41.843,14.75
41.859,16.23
41.875,17.0
41.890,16.73
41.906,15.28
41.921,12.78
41.937,9.52
41.953,5.78
41.968,1.76
41.984,-2.5
42.000,-7.15
42.015,-12.35
42.031,-18.31
42.046,-25.08
42.062,-32.48
42.078,-40.0
42.093,-46.75
42.109,-51.62
42.125,-53.49
42.140,-51.57
42.156,-45.59
42.171,-35.95
42.187,-23.6
42.203,-9.74
42.218,4.48
42.234,18.17
42.250,30.86
42.265,42.35
42.281,52.53
42.296,61.32
42.312,68.49
42.328,73.83
42.343,77.17
42.359,78.53
42.375,78.11
42.390,76.28
42.406,73.35
42.421,69.58
42.437,65.18
42.453,60.35
42.468,55.4
42.484,50.71
42.500,46.63
42.515,43.32
42.531,40.72
42.546,38.57
42.562,36.5
42.578,34.2
42.593,31.49
42.609,28.35
42.625,24.83
42.640,21.05
42.656,17.06
42.671,12.88
42.687,8.5
42.703,3.88
42.718,-1.02
42.734,-6.17
42.750,-11.48
42.765,-16.77
42.781,-21.83
42.796,-26.5
42.812,-30.77
42.828,-34.76
42.843,-38.79
42.859,-43.23
42.875,-48.41
42.890,-54.46
42.906,-61.22
42.921,-68.1
42.937,-74.16
42.953,-78.2
42.968,-79.05
42.984,-75.94
43.000,-68.62
43.015,-57.57
43.031,-43.77
43.046,-28.49
43.062,-12.99
43.078,1.68
43.093,14.86
43.109,26.2
43.125,35.62
43.140,43.23
43.156,49.18
43.171,53.58
43.187,56.46
43.203,57.81
43.218,57.64
43.234,56.04
43.250,53.25
43.265,49.64
43.281,45.6
43.296,41.49
43.312,37.61
43.328,34.22
43.343,31.51
43.359,29.58
43.375,28.41
43.390,27.77
43.406,27.3
43.421,26.59
43.437,25.31
43.453,23.28
43.468,20.54
43.484,17.29
43.500,13.73
43.515,10.01
43.531,6.14
43.546,1.98
43.562,-2.66
43.578,-7.89
43.593,-13.65
43.609,-19.7
43.625,-25.63
43.640,-31.06
43.656,-35.75
43.671,-39.76
43.687,-43.46
43.703,-47.42
43.718,-52.19
43.734,-58.17
43.750,-65.28
43.765,-73.02
43.781,-80.35
43.796,-85.9
43.812,-88.3
43.828,-86.46
43.843,-79.91
43.859,-69.01
43.875,-54.8
43.890,-38.74
43.906,-22.29
43.921,-6.62
43.937,7.63
43.953,20.19
43.968,31.09
43.984,40.38
44.000,48.05
44.015,54.08
44.031,58.44
44.046,61.15
44.062,62.35
44.078,62.21
44.093,60.89
44.109,58.5
44.125,55.14
44.140,50.93
44.156,46.14
44.171,41.17
44.187,36.46
44.203,32.4
44.218,29.18
44.234,26.76
44.250,24.86
44.265,23.13
44.281,21.21
44.296,18.95
44.312,16.24
44.328,13.1
44.343,9.54
44.359,5.58
44.375,1.24
44.390,-3.41
44.406,-8.3
44.421,-13.39
44.437,-18.65
44.453,-24.09
44.468,-29.71
44.484,-35.46
44.500,-41.21
44.515,-46.77
44.531,-52.02
44.546,-56.95
44.562,-61.73
44.578,-66.59
44.593,-71.83
44.609,-77.57
44.625,-83.76
44.640,-90.0
44.656,-95.55
44.671,-99.35
44.687,-100.26
44.703,-97.31
44.718,-89.98
44.734,-78.46
44.750,-63.62
44.765,-46.86
44.781,-29.75
44.796,-13.57
44.812,0.85
44.828,13.31
44.843,23.97
44.859,33.18
44.875,41.14
44.890,47.82
44.906,53.05
44.921,56.58
44.937,58.31
44.953,58.47
44.968,57.51
44.984,56.06
45.000,54.74
45.015,54.08
45.031,54.48
45.046,56.17
45.062,59.1
45.078,62.95
45.093,66.96
45.109,70.14
45.125,71.39
45.140,70.02
45.156,65.97
45.171,59.9
45.187,52.96
45.203,46.22
45.218,40.38
45.234,35.47
45.250,31.1
45.265,26.66
45.281,21.8
45.296,16.48
45.312,10.93
45.328,5.48
45.343,0.31
45.359,-4.63
45.375,-9.6
45.390,-14.9
45.406,-20.79
45.421,-27.4
45.437,-34.75
45.453,-42.79
45.468,-51.23
45.484,-59.56
45.500,-66.87
45.515,-71.97
45.531,-73.63
45.546,-70.93
45.562,-63.65
45.578,-52.42
45.593,-38.56
45.609,-23.62
45.625,-9.01
45.640,4.32
45.656,15.92
45.671,25.71
45.687,33.74
45.703,40.05
45.718,44.69
45.734,47.7
45.750,49.24
45.765,49.49
45.781,48.69
45.796,46.99
45.812,44.52
45.828,41.39
45.843,37.73
45.859,33.79
45.875,29.86
45.890,26.24
45.906,23.13
45.921,20.58
45.937,18.46
45.953,16.55
45.968,14.59
45.984,12.47
46.000,10.14
46.015,7.69
46.031,5.12
46.046,2.38
46.062,-0.73
46.078,-4.38
46.093,-8.59
46.109,-13.26
46.125,-18.07
46.140,-22.78
46.156,-27.27
46.171,-31.57
46.187,-35.84
46.203,-40.27
46.218,-45.07
46.234,-50.43
46.250,-56.58
46.265,-63.63
46.281,-71.33
46.296,-78.91
46.312,-85.02
46.328,-88.08
46.343,-86.82
46.359,-80.75
46.375,-70.41
46.390,-57.13
46.406,-42.54
46.421,-28.09
46.437,-14.63
46.453,-2.46
46.468,8.47
46.484,18.4
46.500,27.53
46.515,35.97
46.531,43.65
46.546,50.33
46.562,55.56
46.578,58.82
46.593,59.69
46.609,58.03
46.625,54.22
46.640,48.9
46.656,42.95
46.671,37.07
46.687,31.73
46.703,27.03
46.718,22.86
46.734,19.03
46.750,15.36
46.765,11.7
46.781,7.93
46.796,3.95
46.812,-0.3
46.828,-4.85
46.843,-9.69
46.859,-14.74
46.875,-19.93
46.890,-25.16
46.906,-30.3
46.921,-35.24
46.937,-39.92
46.953,-44.4
46.968,-48.85
46.984,-53.56
47.000,-58.86
47.015,-64.99
47.031,-72.01
47.046,-79.6
47.062,-87.18
47.078,-93.8
47.093,-98.37
47.109,-99.83
47.125,-97.33
47.140,-90.49
47.156,-79.48
47.171,-65.03
47.187,-48.31
47.203,-30.69
47.218,-13.47
47.234,2.37
47.250,16.35
47.265,28.37
47.281,38.64
47.296,47.33
47.312,54.52
47.328,60.05
47.343,63.67
47.359,65.23
47.375,64.74
47.390,62.47
47.406,58.85
47.421,54.34
47.437,49.38
47.453,44.35
47.468,39.51
47.484,35.04
47.500,31.04
47.515,27.47
47.531,24.21
47.546,21.13
47.562,18.08
47.578,14.96
47.593,11.66
47.609,7.96
47.625,3.59
47.640,-1.74
47.656,-8.25
47.671,-15.89
47.687,-24.31
47.703,-32.97
47.718,-41.23
47.734,-48.59
47.750,-54.83
47.765,-60.13
47.781,-64.97
47.796,-70.02
47.812,-75.82
47.828,-82.49
47.843,-89.55
47.859,-95.87
47.875,-99.97
47.890,-100.47
47.906,-96.52
47.921,-88.09
47.937,-75.94
47.953,-61.35
47.968,-45.71
47.984,-30.22
48.000,-15.74
48.015,-2.76
48.031,8.53
48.046,18.22
48.062,26.52
48.078,33.6
48.093,39.6
48.109,44.47
48.125,48.04
48.140,50.14
48.156,50.69
48.171,49.78
48.187,47.66
48.203,44.68
48.218,41.19
48.234,37.56
48.250,34.12
48.265,31.24
48.281,29.12
48.296,27.83
48.312,27.16
48.328,26.75
48.343,26.14
48.359,24.98
48.375,23.12
48.390,20.6
48.406,17.61
48.421,14.35
48.437,11.02
48.453,7.68
48.468,4.35
48.484,1.06
48.500,-2.12
48.515,-5.08
48.531,-7.7
48.546,-9.93
48.562,-11.92
48.578,-13.96
48.593,-16.54
48.609,-20.11
48.625,-24.88
48.640,-30.55
48.656,-36.3
48.671,-40.89
48.687,-42.99
48.703,-41.56
48.718,-36.2
48.734,-27.26
48.750,-15.68
48.765,-2.69
48.781,10.55
48.796,23.23
48.812,34.89
48.828,45.31
48.843,54.28
48.859,61.48
48.875,66.48
48.890,68.92
48.906,68.68
48.921,66.01
48.937,61.5
48.953,55.89
48.968,49.88
48.984,43.92
49.000,38.28
49.015,33.09
49.031,28.46
49.046,24.54
49.062,21.4
49.078,19.06
49.093,17.3
49.109,15.72
49.125,13.9
49.140,11.52
49.156,8.47
49.171,4.9
49.187,1.0
49.203,-3.0
49.218,-7.02
49.234,-11.12
49.250,-15.43
49.265,-20.04
49.281,-24.99
49.296,-30.21
49.312,-35.65
49.328,-41.33
49.343,-47.37
49.359,-53.95
49.375,-61.1
49.390,-68.5
49.406,-75.39
49.421,-80.64
49.437,-82.96
49.453,-81.28
49.468,-74.99
49.484,-64.21
49.500,-49.69
49.515,-32.64
49.531,-14.49
49.546,3.46
49.562,20.23
49.578,35.2
49.593,48.14
49.609,59.09
49.625,68.22
49.640,75.72
49.656,81.69
49.671,86.18
49.687,89.12
49.703,90.48
49.718,90.31
49.734,88.77
49.750,86.16
49.765,82.91
49.781,79.46
49.796,76.24
49.812,73.57
49.828,71.58
49.843,70.2
49.859,69.23
49.875,68.32
49.890,67.07
49.906,65.15
49.921,62.26
49.937,58.32
49.953,53.36
49.968,47.53
49.984,40.95
50.000,33.67
50.015,25.65
50.031,16.77
50.046,6.95
50.062,-3.72
50.078,-14.95
50.093,-26.34
50.109,-37.54
50.125,-48.34
50.140,-58.77
50.156,-69.09
50.171,-79.45
50.187,-89.72
50.203,-99.2
50.218,-106.69
50.234,-110.72
50.250,-110.04
50.265,-104.08
50.281,-93.11
50.296,-78.26
50.312,-61.03
50.328,-42.94
50.343,-25.09
50.359,-8.15
50.375,7.54
50.390,21.8
50.406,34.44
50.421,45.27
50.437,54.19
50.453,61.31
50.468,66.76
50.484,70.69
50.500,73.18
50.515,74.23
50.531,73.94
50.546,72.52
50.562,70.43
50.578,68.17
50.593,66.22
50.609,64.87
50.625,64.16
50.640,64.07
50.656,64.44
50.671,65.05
50.687,65.48
50.703,65.19
50.718,63.59
50.734,60.23
50.750,54.97
50.765,47.99
50.781,39.74
50.796,30.69
50.812,21.14
50.828,11.2
50.843,0.93
50.859,-9.56
50.875,-19.92
50.890,-29.6
50.906,-38.06
50.921,-44.94
50.937,-50.18
50.953,-54.01
50.968,-56.8
50.984,-58.93
51.000,-60.73
51.015,-62.45
51.031,-64.21
51.046,-66.05
51.062,-67.75
51.078,-68.83
51.093,-68.65
51.109,-66.53
51.125,-62.04
51.140,-55.16
51.156,-46.29
51.171,-36.11
51.187,-25.4
51.203,-14.81
51.218,-4.81
51.234,4.3
51.250,12.35
51.265,19.25
51.281,24.91
51.296,29.36
51.312,32.55
51.328,34.44
51.343,35.01
51.359,34.34
51.375,32.63
51.390,30.34
51.406,28.02
51.421,26.19
51.437,25.25
51.453,25.4
51.468,26.66
51.484,28.91
51.500,31.94
51.515,35.49
51.531,39.28
51.546,43.0
51.562,46.35
51.578,49.1
51.593,51.05
51.609,52.04
51.625,51.88
51.640,50.24
51.656,46.75
51.671,41.1
51.687,33.12
51.703,23.02
51.718,11.37
51.734,-0.94
51.750,-12.95
51.765,-23.82
51.781,-33.15
51.796,-41.13
51.812,-48.42
51.828,-56.02
51.843,-64.83
51.859,-75.24
51.875,-86.89
51.890,-98.54
51.906,-108.33
51.921,-114.31
51.937,-115.04
51.953,-109.98
51.968,-99.69
51.984,-85.59
52.000,-69.4
52.015,-52.72
52.031,-36.63
52.046,-21.58
52.062,-7.58
52.078,5.46
52.093,17.56
52.109,28.48
52.125,37.91
52.140,45.56
52.156,51.46
52.171,55.9
52.187,59.42
52.203,62.55
52.218,65.67
52.234,68.95
52.250,72.32
52.265,75.61
52.281,78.51
52.296,80.53
52.312,81.1
52.328,79.6
52.343,75.6
52.359,69.07
52.375,60.53
52.390,50.84
52.406,41.02
52.421,31.89
52.437,23.87
52.453,16.99
52.468,10.96
52.484,5.31
52.500,-0.41
52.515,-6.49
52.531,-13.11
52.546,-20.18
52.562,-27.52
52.578,-34.83
52.593,-41.95
52.609,-48.92
52.625,-55.97
52.640,-63.49
52.656,-71.68
52.671,-80.39
52.687,-88.9
52.703,-96.05
52.718,-100.52
52.734,-101.17
52.750,-97.46
52.765,-89.49
52.781,-78.05
52.796,-64.29
52.812,-49.5
52.828,-34.8
52.843,-21.0
52.859,-8.56
52.875,2.4
52.890,11.97
52.906,20.46
52.921,28.13
52.937,35.16
52.953,41.51
52.968,47.02
52.984,51.42
53.000,54.54
53.015,56.47
53.031,57.52
53.046,58.15
53.062,58.72
53.078,59.33
53.093,59.69
53.109,59.2
53.125,57.16
53.140,53.13
53.156,47.05
53.171,39.29
53.187,30.56
53.203,21.55
53.218,12.79
53.234,4.6
53.250,-2.97
53.265,-10.02
53.281,-16.64
53.296,-22.96
53.312,-29.1
53.328,-35.14
53.343,-41.15
53.359,-47.1
53.375,-52.81
53.390,-58.04
53.406,-62.52
53.421,-66.17
53.437,-69.14
53.453,-71.86
53.468,-74.85
53.484,-78.61
53.500,-83.21
53.515,-88.1
53.531,-92.17
53.546,-93.86
53.562,-91.67
53.578,-84.55
53.593,-72.21
53.609,-55.19
53.625,-34.75
53.640,-12.45
53.656,10.22
53.671,32.08
53.687,52.45
53.703,71.06
53.718,87.87
53.734,102.71
53.750,115.16
53.765,124.35
53.781,129.26
53.796,129.08
53.812,123.74
53.828,114.11
53.843,101.81
53.859,88.68
53.875,76.25
53.890,65.3
53.906,55.95
53.921,47.94
53.937,41.07
53.953,35.26
53.968,30.49
53.984,26.42
54.000,22.35
54.015,17.4
54.031,10.99
54.046,3.17
54.062,-5.27
54.078,-13.23
54.093,-19.84
54.109,-24.85
54.125,-28.78
54.140,-32.6
54.156,-37.29
54.171,-43.36
54.187,-50.75
54.203,-58.93
54.218,-67.15
54.234,-74.77
54.250,-81.34
54.265,-86.73
54.281,-91.07
54.296,-94.66
54.312,-98.0
54.328,-101.54
54.343,-105.54
54.359,-109.78
54.375,-113.52
54.390,-115.56
54.406,-114.63
54.421,-109.81
54.437,-100.9
54.453,-88.52
54.468,-73.87
54.484,-58.33
54.500,-43.09
54.515,-28.88
54.531,-15.94
54.546,-4.25
54.562,6.27
54.578,15.62
54.593,23.62
54.609,30.08
54.625,34.9
54.640,38.08
54.656,39.73
54.671,39.96
54.687,38.86
54.703,36.56
54.718,33.27
54.734,29.44
54.750,25.62
54.765,22.44
54.781,20.36
54.796,19.58
54.812,20.07
54.828,21.58
54.843,23.79
54.859,26.31
54.875,28.69
54.890,30.42
54.906,31.07
54.921,30.38
54.937,28.38
54.953,25.4
54.968,21.92
54.984,18.37
55.000,14.97
55.015,11.67
55.031,8.26
55.046,4.47
55.062,0.19
55.078,-4.57
55.093,-9.73
55.109,-15.29
55.125,-21.33
55.140,-27.94
55.156,-35.01
55.171,-42.06
55.187,-48.2
55.203,-52.22
55.218,-53.03
55.234,-49.97
55.250,-43.08
55.265,-33.14
55.281,-21.29
55.296,-8.77
55.312,3.47
55.328,14.87
55.343,25.21
55.359,34.47
55.375,42.63
55.390,49.59
55.406,55.19
55.421,59.31
55.437,61.87
55.453,62.96
55.468,62.68
55.484,61.22
55.500,58.76
55.515,55.52
55.531,51.72
55.546,47.56
55.562,43.3
55.578,39.15
55.593,35.32
55.609,31.94
55.625,29.08
55.640,26.62
55.656,24.39
55.671,22.11
55.687,19.52
55.703,16.46
55.718,12.85
55.734,8.81
55.750,4.47
55.765,-0.03
55.781,-4.61
55.796,-9.28
55.812,-13.99
55.828,-18.74
55.843,-23.51
55.859,-28.29
55.875,-33.17
55.890,-38.38
55.906,-44.19
55.921,-50.87
55.937,-58.56
55.953,-67.02
55.968,-75.55
55.984,-83.01
56.000,-88.07
56.015,-89.52
56.031,-86.69
56.046,-79.6
56.062,-68.9
56.078,-55.67
56.093,-41.05
56.109,-26.02
56.125,-11.36
56.140,2.36
56.156,14.73
56.171,25.44
56.187,34.41
56.203,41.74
56.218,47.63
56.234,52.23
56.250,55.57
56.265,57.49
56.281,57.81
56.296,56.48
56.312,53.64
56.328,49.68
56.343,45.06
56.359,40.27
56.375,35.69
56.390,31.56
56.406,28.02
56.421,25.07
56.437,22.65
56.453,20.53
56.468,18.45
56.484,16.18
56.500,13.56
56.515,10.59
56.531,7.35
56.546,3.9
56.562,0.24
56.578,-3.76
56.593,-8.28
56.609,-13.4
56.625,-19.08
56.640,-25.07
56.656,-31.07
56.671,-36.8
56.687,-42.12
56.703,-47.09
56.718,-51.96
56.734,-57.11
56.750,-62.91
56.765,-69.51
56.781,-76.64
56.796,-83.57
56.812,-89.11
56.828,-91.93
56.843,-90.91
56.859,-85.52
56.875,-75.96
56.890,-63.13
56.906,-48.28
56.921,-32.7
56.937,-17.38
56.953,-2.94
56.968,10.3
56.984,22.27
57.000,32.94
57.015,42.3
57.031,50.25
57.046,56.63
57.062,61.25
57.078,63.95
57.093,64.68
57.109,63.63
57.125,61.18
57.140,57.83
57.156,54.08
57.171,50.31
57.187,46.79
57.203,43.68
57.218,41.11
57.234,39.14
57.250,37.7
57.265,36.61
57.281,35.48
57.296,33.92
57.312,31.69
57.328,28.82
57.343,25.54
57.359,22.17
57.375,18.89
57.390,15.63
57.406,12.12
57.421,8.1
57.437,3.42
57.453,-1.79
57.468,-7.22
57.484,-12.5
57.500,-17.45
57.515,-22.13
57.531,-26.82
57.546,-31.87
57.562,-37.62
57.578,-44.19
57.593,-51.44
57.609,-58.91
57.625,-65.78
57.640,-70.94
57.656,-73.22
57.671,-71.63
57.687,-65.69
57.703,-55.64
57.718,-42.39
57.734,-27.3
57.750,-11.8
57.765,3.01
57.781,16.46
57.796,28.31
57.812,38.51
57.828,47.05
57.843,53.86
57.859,58.8
57.875,61.8
57.890,62.89
57.906,62.27
57.921,60.24
57.937,57.19
57.953,53.45
57.968,49.34
57.984,45.14
58.000,41.12
58.015,37.49
58.031,34.42
58.046,31.97
58.062,30.08
58.078,28.55
58.093,27.13
58.109,25.51
58.125,23.43
58.140,20.71
58.156,17.27
58.171,13.09
58.187,8.28
58.203,2.94
58.218,-2.69
58.234,-8.33
58.250,-13.75
58.265,-18.78
58.281,-23.41
58.296,-27.78
58.312,-32.14
58.328,-36.82
58.343,-42.14
58.359,-48.32
58.375,-55.36
58.390,-62.98
58.406,-70.47
58.421,-76.78
58.437,-80.66
58.453,-80.91
58.468,-76.71
58.484,-67.94
58.500,-55.16
58.515,-39.54
58.531,-22.58
58.546,-5.77
58.562,9.68
58.578,23.03
58.593,33.99
58.609,42.69
58.625,49.46
58.640,54.67
58.656,58.52
58.671,60.95
58.687,61.74
58.703,60.64
58.718,57.6
58.734,52.93
58.750,47.27
58.765,41.42
58.781,36.09
58.796,31.76
58.812,28.57
58.828,26.5
58.843,25.38
58.859,25.05
58.875,25.24
58.890,25.61
58.906,25.66
58.921,24.95
58.937,23.26
58.953,20.62
58.968,17.32
58.984,13.69
59.000,9.94
59.015,6.15
59.031,2.3
59.046,-1.52
59.062,-5.06
59.078,-8.02
59.093,-10.26
59.109,-11.96
59.125,-13.66
59.140,-16.07
59.156,-19.84
59.171,-25.38
59.187,-32.7
59.203,-41.39
59.218,-50.65
59.234,-59.38
59.250,-66.26
59.265,-69.99
59.281,-69.59
59.296,-64.68
59.312,-55.6
59.328,-43.26
59.343,-28.93
59.359,-13.9
59.375,0.77
59.390,14.3
59.406,26.24
59.421,36.36
59.437,44.65
59.453,51.26
59.468,56.4
59.484,60.29
59.500,62.95
59.515,64.34
59.531,64.31
59.546,62.8
59.562,59.94
59.578,56.06
59.593,51.63
59.609,47.14
59.625,43.0
59.640,39.46
59.656,36.57
59.671,34.25
59.687,32.25
59.703,30.26
59.718,27.99
59.734,25.22
59.750,21.9
59.765,18.14
59.781,14.08
59.796,9.91
59.812,5.67
59.828,1.32
59.843,-3.29
59.859,-8.24
59.875,-13.52
59.890,-19.03
59.906,-24.57
59.921,-29.92
59.937,-34.99
59.953,-39.76
59.968,-44.38
59.984,-49.07
