timestamp,value
00.000,-44.48
00.015,-41.9
00.031,-37.59
00.046,-32.7
00.062,-28.38
00.078,-25.3
00.093,-23.52
00.109,-22.49
00.125,-21.43
00.140,-19.85
00.156,-17.67
00.171,-15.25
00.187,-13.06
00.203,-11.42
00.218,-10.24
00.234,-9.09
00.250,-7.49
00.265,-5.29
00.281,-2.95
00.296,-1.35
00.312,-1.39
00.328,-3.54
00.343,-7.65
00.359,-12.99
00.375,-18.68
00.390,-23.98
00.406,-28.8
00.421,-33.51
00.437,-38.7
00.453,-44.73
00.468,-51.53
00.484,-58.4
00.500,-64.24
00.515,-67.94
00.531,-68.49
00.546,-65.48
00.562,-59.14
00.578,-50.22
00.593,-39.91
00.609,-29.37
00.625,-19.34
00.640,-10.07
00.656,-1.37
00.671,7.11
00.687,15.47
00.703,23.3
00.718,29.81
00.734,33.85
00.750,34.33
00.765,30.86
00.781,23.95
00.796,15.15
00.812,6.85
00.828,1.6
00.843,1.3
00.859,6.43
00.875,15.68
00.890,26.27
00.906,35.0
00.921,39.42
00.937,38.65
00.953,33.67
00.968,26.65
00.984,19.86
01.000,14.83
01.015,11.77
01.031,9.64
01.046,6.97
01.062,2.44
01.078,-4.47
01.093,-13.44
01.109,-23.8
01.125,-34.86
01.140,-46.25
01.156,-57.71
01.171,-68.84
01.187,-78.67
01.203,-85.89
01.218,-89.22
01.234,-88.03
01.250,-82.95
01.265,-75.43
01.281,-67.44
01.296,-60.71
01.312,-56.36
01.328,-54.73
01.343,-55.47
01.359,-57.62
01.375,-59.53
01.390,-59.14
01.406,-54.33
01.421,-43.84
01.437,-27.93
01.453,-8.66
01.468,10.87
01.484,27.7
01.500,40.25
01.515,48.89
01.531,55.27
01.546,61.07
01.562,66.75
01.578,71.18
01.593,72.34
01.609,68.69
01.625,60.19
01.640,48.55
01.656,36.71
01.671,27.64
01.687,23.54
01.703,25.34
01.718,32.9
01.734,45.09
01.750,59.87
01.765,74.59
01.781,86.14
01.796,91.76
01.812,89.8
01.828,80.56
01.843,66.23
01.859,50.36
01.875,36.4
01.890,26.33
01.906,20.18
01.921,16.49
01.937,13.41
01.953,9.94
01.968,6.39
01.984,4.14
02.000,4.79
02.015,9.21
02.031,17.13
02.046,27.45
02.062,38.83
02.078,50.27
02.093,61.21
02.109,71.19
02.125,79.58
02.140,85.39
02.156,87.6
02.171,85.53
02.187,79.21
02.203,69.54
02.218,58.03
02.234,46.37
02.250,35.8
02.265,26.97
02.281,19.78
02.296,13.77
02.312,8.43
02.328,3.42
02.343,-1.32
02.359,-5.66
02.375,-9.32
02.390,-12.16
02.406,-14.25
02.421,-16.01
02.437,-18.01
02.453,-20.72
02.468,-24.39
02.484,-28.79
02.500,-33.21
02.515,-36.58
02.531,-37.75
02.546,-35.85
02.562,-30.63
02.578,-22.56
02.593,-12.59
02.609,-2.07
02.625,7.79
02.640,16.01
02.656,22.15
02.671,26.15
02.687,28.24
02.703,28.75
02.718,28.03
02.734,26.37
02.750,23.97
02.765,21.05
02.781,17.71
02.796,14.13
02.812,10.51
02.828,6.95
02.843,3.55
02.859,0.38
02.875,-2.56
02.890,-5.27
02.906,-7.76
02.921,-10.04
02.937,-12.16
02.953,-14.21
02.968,-16.26
02.984,-18.4
03.000,-20.7
03.015,-23.12
03.031,-25.46
03.046,-27.53
03.062,-29.09
03.078,-30.03
03.093,-30.35
03.109,-30.23
03.125,-30.04
03.140,-30.15
03.156,-30.8
03.171,-31.75
03.187,-32.29
03.203,-31.41
03.218,-28.06
03.234,-21.69
03.250,-12.47
03.265,-1.38
03.281,10.19
03.296,20.97
03.312,30.29
03.328,38.08
03.343,44.57
03.359,49.97
03.375,54.04
03.390,56.25
03.406,55.91
03.421,52.71
03.437,46.99
03.453,39.58
03.468,31.57
03.484,23.82
03.500,16.87
03.515,11.03
03.531,6.73
03.546,4.11
03.562,2.9
03.578,2.09
03.593,0.21
03.609,-3.98
03.625,-10.48
03.640,-17.68
03.656,-22.86
03.671,-23.18
03.687,-17.13
03.703,-5.19
03.718,10.54
03.734,27.42
03.750,43.41
03.765,57.53
03.781,69.74
03.796,80.1
03.812,88.44
03.828,94.29
03.843,97.52
03.859,98.6
03.875,98.83
03.890,99.93
03.906,103.21
03.921,109.02
03.937,116.48
03.953,123.89
03.968,129.23
03.984,130.74
04.000,127.16
04.015,117.86
04.031,102.82
04.046,82.72
04.062,59.0
04.078,33.64
04.093,9.03
04.109,-12.79
04.125,-30.38
04.140,-43.21
04.156,-51.5
04.171,-55.94
04.187,-57.28
04.203,-56.35
04.218,-54.07
04.234,-51.36
04.250,-49.2
04.265,-48.29
04.281,-48.83
04.296,-50.55
04.312,-52.82
04.328,-54.96
04.343,-56.56
04.359,-57.63
04.375,-58.43
04.390,-59.32
04.406,-60.49
04.421,-61.91
04.437,-63.48
04.453,-64.96
04.468,-66.22
04.484,-67.17
04.500,-67.82
04.515,-68.06
04.531,-67.65
04.546,-66.11
04.562,-62.9
04.578,-57.65
04.593,-50.27
04.609,-41.12
04.625,-30.92
04.640,-20.57
04.656,-10.93
04.671,-2.6
04.687,4.22
04.703,9.78
04.718,14.52
04.734,18.99
04.750,23.51
04.765,28.08
04.781,32.54
04.796,36.62
04.812,40.13
04.828,43.12
04.843,45.91
04.859,48.9
04.875,52.41
04.890,56.56
04.906,61.13
04.921,65.71
04.937,69.72
04.953,72.6
04.968,73.85
04.984,73.17
05.000,70.45
05.015,65.8
05.031,59.58
05.046,52.28
05.062,44.62
05.078,37.21
05.093,30.73
05.109,25.61
05.125,22.02
05.140,19.8
05.156,18.52
05.171,17.67
05.187,16.77
05.203,15.75
05.218,14.89
05.234,14.9
05.250,16.57
05.265,20.43
05.281,26.39
05.296,33.73
05.312,41.3
05.328,47.83
05.343,52.49
05.359,55.04
05.375,55.72
05.390,55.04
05.406,53.47
05.421,51.28
05.437,48.61
05.453,45.51
05.468,42.12
05.484,38.71
05.500,35.57
05.515,33.01
05.531,31.21
05.546,30.17
05.562,29.81
05.578,29.92
05.593,30.3
05.609,30.69
05.625,30.88
05.640,30.59
05.656,29.63
05.671,27.79
05.687,24.99
05.703,21.32
05.718,16.93
05.734,12.13
05.750,7.2
05.765,2.3
05.781,-2.52
05.796,-7.33
05.812,-12.31
05.828,-17.64
05.843,-23.52
05.859,-29.96
05.875,-36.78
05.890,-43.45
05.906,-49.19
05.921,-53.12
05.937,-54.47
05.953,-52.94
05.968,-48.68
05.984,-42.42
06.000,-35.16
06.015,-27.91
06.031,-21.42
06.046,-16.11
06.062,-12.15
06.078,-9.52
06.093,-8.07
06.109,-7.63
06.125,-7.91
06.140,-8.66
06.156,-9.56
06.171,-10.33
06.187,-10.86
06.203,-11.15
06.218,-11.39
06.234,-11.83
06.250,-12.61
06.265,-13.6
06.281,-14.63
06.296,-15.37
06.312,-15.78
06.328,-16.12
06.343,-16.92
06.359,-18.74
06.375,-21.91
06.390,-26.24
06.406,-31.06
06.421,-35.54
06.437,-38.92
06.453,-40.83
06.468,-41.45
06.484,-41.34
06.500,-41.14
06.515,-41.46
06.531,-42.62
06.546,-44.57
06.562,-46.92
06.578,-49.01
06.593,-49.99
06.609,-49.17
06.625,-46.09
06.640,-40.63
06.656,-33.15
06.671,-24.35
06.687,-15.19
06.703,-6.65
06.718,0.49
06.734,5.87
06.750,9.43
06.765,11.5
06.781,12.57
06.796,13.1
06.812,13.39
06.828,13.51
06.843,13.39
06.859,12.89
06.875,12.01
06.890,10.78
06.906,9.34
06.921,7.88
06.937,6.47
06.953,5.2
06.968,4.22
06.984,3.71
07.000,3.72
07.015,4.2
07.031,4.82
07.046,5.08
07.062,4.52
07.078,2.88
07.093,0.24
07.109,-2.99
07.125,-6.25
07.140,-9.15
07.156,-11.5
07.171,-13.44
07.187,-15.3
07.203,-17.47
07.218,-20.26
07.234,-23.72
07.250,-27.61
07.265,-31.35
07.281,-34.22
07.296,-35.42
07.312,-34.46
07.328,-31.17
07.343,-25.77
07.359,-18.95
07.375,-11.54
07.390,-4.41
07.406,1.73
07.421,6.46
07.437,9.74
07.453,11.71
07.468,12.69
07.484,13.06
07.500,13.05
07.515,12.8
07.531,12.33
07.546,11.61
07.562,10.6
07.578,9.44
07.593,8.16
07.609,6.87
07.625,5.64
07.640,4.4
07.656,3.18
07.671,2.02
07.687,1.06
07.703,0.36
07.718,-0.11
07.734,-0.61
07.750,-1.51
07.765,-3.1
07.781,-5.52
07.796,-8.54
07.812,-11.81
07.828,-14.86
07.843,-17.38
07.859,-19.34
07.875,-20.88
07.890,-22.38
07.906,-24.12
07.921,-26.47
07.937,-29.4
07.953,-32.77
07.968,-36.02
07.984,-38.42
08.000,-39.2
08.015,-37.7
08.031,-33.8
08.046,-27.76
08.062,-20.37
08.078,-12.58
08.093,-5.34
08.109,0.83
08.125,5.72
08.140,9.49
08.156,12.43
08.171,14.72
08.187,16.58
08.203,18.0
08.218,19.0
08.234,19.64
08.250,19.95
08.265,20.05
08.281,20.01
08.296,19.86
08.312,19.46
08.328,18.78
08.343,17.7
08.359,16.29
08.375,14.78
08.390,13.37
08.406,12.28
08.421,11.39
08.437,10.45
08.453,8.97
08.468,6.68
08.484,3.51
08.500,-0.3
08.515,-4.25
08.531,-7.91
08.546,-10.99
08.562,-13.51
08.578,-15.6
08.593,-17.54
08.609,-19.52
08.625,-21.71
08.640,-24.29
08.656,-27.2
08.671,-30.3
08.687,-33.09
08.703,-34.88
08.718,-34.9
08.734,-32.64
08.750,-27.99
08.765,-21.38
08.781,-13.64
08.796,-5.66
08.812,1.65
08.828,7.71
08.843,12.16
08.859,14.96
08.875,16.27
08.890,16.33
08.906,15.41
08.921,13.76
08.937,11.64
08.953,9.27
08.968,6.99
08.984,5.06
09.000,3.62
09.015,2.75
09.031,2.2
09.046,1.67
09.062,0.94
09.078,0.03
09.093,-0.94
09.109,-1.73
09.125,-2.3
09.140,-2.91
09.156,-3.88
09.171,-5.54
09.187,-8.01
09.203,-11.14
09.218,-14.5
09.234,-17.68
09.250,-20.22
09.265,-21.93
09.281,-22.86
09.296,-23.25
09.312,-23.5
09.328,-24.06
09.343,-25.33
09.359,-27.46
09.375,-30.29
09.390,-33.17
09.406,-35.12
09.421,-35.07
09.437,-32.26
09.453,-26.56
09.468,-18.49
09.484,-9.12
09.500,0.34
09.515,8.89
09.531,16.06
09.546,21.81
09.562,26.32
09.578,29.79
09.593,32.26
09.609,33.75
09.625,34.34
09.640,34.19
09.656,33.56
09.671,32.72
09.687,31.76
09.703,30.56
09.718,28.96
09.734,26.78
09.750,24.1
09.765,21.14
09.781,18.29
09.796,15.91
09.812,14.2
09.828,13.2
09.843,12.62
09.859,12.16
09.875,11.37
09.890,9.84
09.906,7.23
09.921,3.54
09.937,-1.04
09.953,-5.96
09.968,-10.6
09.984,-14.44
10.000,-17.23
10.015,-19.11
10.031,-20.57
10.046,-22.41
10.062,-25.23
10.078,-29.36
10.093,-34.43
10.109,-39.52
10.125,-43.28
10.140,-44.49
10.156,-42.5
10.171,-37.46
10.187,-30.38
10.203,-22.74
10.218,-15.95
10.234,-10.72
10.250,-7.06
10.265,-4.48
10.281,-2.29
10.296,-0.13
10.312,1.81
10.328,2.71
10.343,1.44
10.359,-3.24
10.375,-11.98
10.390,-24.6
10.406,-39.97
10.421,-56.01
10.437,-70.13
10.453,-79.94
10.468,-84.09
10.484,-82.51
10.500,-76.62
10.515,-68.7
10.531,-60.95
10.546,-54.87
10.562,-50.79
10.578,-47.83
10.593,-44.38
10.609,-38.87
10.625,-30.41
10.640,-19.36
10.656,-7.47
10.671,2.73
10.687,9.03
10.703,10.25
10.718,6.89
10.734,0.94
10.750,-5.06
10.765,-9.01
10.781,-9.96
10.796,-8.18
10.812,-4.44
10.828,0.7
10.843,7.21
10.859,15.34
10.875,25.25
10.890,36.55
10.906,48.46
10.921,60.04
10.937,70.63
10.953,80.1
10.968,88.5
10.984,95.62
11.000,100.68
11.015,102.3
11.031,98.91
11.046,89.54
11.062,74.29
11.078,54.47
11.093,32.26
11.109,10.05
11.125,-10.37
11.140,-27.94
11.156,-42.41
11.171,-54.07
11.187,-63.21
11.203,-70.07
11.218,-74.88
11.234,-78.01
11.250,-80.11
11.265,-82.07
11.281,-84.6
11.296,-88.1
11.312,-92.52
11.328,-97.42
11.343,-102.23
11.359,-106.63
11.375,-110.55
11.390,-114.22
11.406,-117.91
11.421,-121.61
11.437,-124.9
11.453,-127.11
11.468,-127.33
11.484,-124.81
11.500,-119.22
11.515,-110.52
11.531,-99.05
11.546,-85.27
11.562,-69.62
11.578,-52.4
11.593,-33.96
11.609,-14.71
11.625,4.69
11.640,23.39
11.656,40.54
11.671,55.38
11.687,67.35
11.703,76.0
11.718,81.16
11.734,82.77
11.750,80.99
11.765,76.1
11.781,68.65
11.796,59.61
11.812,50.17
11.828,41.7
11.843,35.27
11.859,31.6
11.875,30.75
11.890,32.23
11.906,35.18
11.921,38.61
11.937,41.63
11.953,43.68
11.968,44.56
11.984,44.4
12.000,43.64
12.015,42.71
12.031,41.9
12.046,41.21
12.062,40.39
12.078,39.09
12.093,37.04
12.109,34.26
12.125,30.91
12.140,27.35
12.156,24.06
12.171,21.62
12.187,20.81
12.203,22.41
12.218,26.97
12.234,34.58
12.250,44.74
12.265,56.29
12.281,67.94
12.296,78.54
12.312,87.47
12.328,94.8
12.343,100.87
12.359,106.08
12.375,110.44
12.390,113.63
12.406,115.08
12.421,114.51
12.437,111.95
12.453,107.92
12.468,103.39
12.484,99.38
12.500,96.78
12.515,96.02
12.531,97.01
12.546,99.09
12.562,101.21
12.578,102.05
12.593,100.32
12.609,95.14
12.625,86.33
12.640,74.5
12.656,60.95
12.671,47.28
12.687,34.76
12.703,24.04
12.718,14.9
12.734,6.55
12.750,-1.89
12.765,-10.99
12.781,-20.85
12.796,-31.2
12.812,-41.74
12.828,-52.37
12.843,-63.12
12.859,-73.86
12.875,-84.06
12.890,-92.73
12.906,-98.67
12.921,-100.87
12.937,-98.93
12.953,-93.29
12.968,-85.06
12.984,-75.71
13.000,-66.42
13.015,-57.94
13.031,-50.59
13.046,-44.32
13.062,-39.04
13.078,-34.74
13.093,-31.47
13.109,-29.24
13.125,-27.88
13.140,-26.95
13.156,-25.84
13.171,-24.05
13.187,-21.2
13.203,-17.29
13.218,-12.56
13.234,-7.33
13.250,-1.95
13.265,3.47
13.281,8.92
13.296,14.45
13.312,20.01
13.328,25.34
13.343,29.93
13.359,33.18
13.375,34.63
13.390,34.01
13.406,31.42
13.421,27.2
13.437,21.7
13.453,15.25
13.468,8.05
13.484,0.14
13.500,-8.4
13.515,-17.27
13.531,-25.99
13.546,-33.7
13.562,-39.46
13.578,-42.37
13.593,-41.95
13.609,-38.19
13.625,-31.69
13.640,-23.56
13.656,-15.16
13.671,-7.96
13.687,-3.04
13.703,-0.94
13.718,-1.5
13.734,-3.98
13.750,-7.31
13.765,-10.5
13.781,-12.9
13.796,-14.33
13.812,-15.01
13.828,-15.27
13.843,-15.34
13.859,-15.32
13.875,-15.08
13.890,-14.56
13.906,-13.71
13.921,-12.52
13.937,-11.05
13.953,-9.29
13.968,-7.24
13.984,-4.91
14.000,-2.46
14.015,-0.13
14.031,1.56
14.046,2.14
14.062,1.35
14.078,-0.71
14.093,-3.54
14.109,-6.39
14.125,-8.53
14.140,-9.48
14.156,-9.05
14.171,-7.49
14.187,-5.21
14.203,-2.76
14.218,-0.73
14.234,0.38
14.250,0.29
14.265,-1.01
14.281,-3.07
14.296,-5.07
14.312,-6.11
14.328,-5.39
14.343,-2.57
14.359,2.12
14.375,8.08
14.390,14.62
14.406,21.1
14.421,27.27
14.437,33.08
14.453,38.64
14.468,44.0
14.484,49.16
14.500,53.84
14.515,57.73
14.531,60.56
14.546,62.18
14.562,62.72
14.578,62.47
14.593,61.93
14.609,61.58
14.625,61.75
14.640,62.4
14.656,63.27
14.671,63.76
14.687,63.02
14.703,60.13
14.718,54.11
14.734,44.34
14.750,30.8
14.765,14.26
14.781,-3.92
14.796,-22.17
14.812,-39.35
14.828,-55.02
14.843,-69.3
14.859,-82.65
14.875,-95.21
14.890,-106.69
14.906,-116.5
14.921,-124.04
14.937,-129.05
14.953,-131.57
14.968,-131.78
14.984,-129.6
15.000,-124.72
15.015,-116.61
15.031,-104.99
15.046,-90.1
15.062,-72.64
15.078,-53.9
15.093,-35.22
15.109,-17.86
15.125,-2.55
15.140,10.4
15.156,21.18
15.171,30.04
15.187,37.11
15.203,42.44
15.218,45.9
15.234,47.5
15.250,47.47
15.265,46.33
15.281,44.69
15.296,43.25
15.312,42.49
15.328,42.58
15.343,43.46
15.359,44.85
15.375,46.48
15.390,48.14
15.406,49.72
15.421,51.12
15.437,52.3
15.453,53.17
15.468,53.64
15.484,53.68
15.500,53.3
15.515,52.6
15.531,51.74
15.546,50.84
15.562,49.96
15.578,49.04
15.593,47.94
15.609,46.54
15.625,44.79
15.640,42.63
15.656,40.22
15.671,37.89
15.687,36.12
15.703,35.57
15.718,36.84
15.734,40.38
15.750,46.42
15.765,54.9
15.781,65.49
15.796,77.7
15.812,90.97
15.828,104.57
15.843,117.48
15.859,128.57
15.875,136.64
15.890,140.88
15.906,141.04
15.921,137.47
15.937,131.03
15.953,122.77
15.968,113.69
15.984,104.64
16.000,96.34
16.015,89.13
16.031,82.87
16.046,76.88
16.062,69.95
16.078,60.94
16.093,49.23
16.109,35.17
16.125,19.93
16.140,4.98
16.156,-8.71
16.171,-20.97
16.187,-32.42
16.203,-43.98
16.218,-56.22
16.234,-69.21
16.250,-82.52
16.265,-95.6
16.281,-108.0
16.296,-119.48
16.312,-129.74
16.328,-138.27
16.343,-144.3
16.359,-146.73
16.375,-144.63
16.390,-137.46
16.406,-125.28
16.421,-108.67
16.437,-88.68
16.453,-66.5
16.468,-43.3
16.484,-20.27
16.500,1.7
16.515,21.97
16.531,40.34
16.546,57.23
16.562,73.43
16.578,89.72
16.593,106.42
16.609,123.04
16.625,138.44
16.640,151.36
16.656,161.19
16.671,168.4
16.687,174.28
16.703,180.55
16.718,188.51
16.734,198.52
16.750,209.83
16.765,220.84
16.781,229.38
16.796,233.0
16.812,229.36
16.828,216.44
16.843,193.28
16.859,160.45
16.875,120.13
16.890,75.51
16.906,29.77
16.921,-15.01
16.937,-58.23
16.953,-100.17
16.968,-140.71
16.984,-178.42
17.000,-210.1
17.015,-231.76
17.031,-240.52
17.046,-235.99
17.062,-221.17
17.078,-201.73
17.093,-184.53
17.109,-175.34
17.125,-177.64
17.140,-192.04
17.156,-216.56
17.171,-247.68
17.187,-281.41
17.203,-313.93
17.218,-341.9
17.234,-362.46
17.250,-373.48
17.265,-373.74
17.281,-363.36
17.296,-343.81
17.312,-317.62
17.328,-287.91
17.343,-257.68
17.359,-229.01
17.375,-202.89
17.390,-179.32
17.406,-157.77
17.421,-137.77
17.437,-119.0
17.453,-101.52
17.468,-85.09
17.484,-69.12
17.500,-52.56
17.515,-34.15
17.531,-12.98
17.546,11.25
17.562,37.97
17.578,66.18
17.593,94.38
17.609,121.46
17.625,146.63
17.640,169.56
17.656,190.05
17.671,207.89
17.687,222.75
17.703,234.25
17.718,242.03
17.734,245.67
17.750,244.7
17.765,238.45
17.781,226.17
17.796,207.24
17.812,181.75
17.828,150.85
17.843,116.8
17.859,82.62
17.875,51.28
17.890,24.93
17.906,4.4
17.921,-10.8
17.937,-21.88
17.953,-30.1
17.968,-36.25
17.984,-40.6
18.000,-43.07
18.015,-43.6
18.031,-42.4
18.046,-40.0
18.062,-37.02
18.078,-33.87
18.093,-30.7
18.109,-27.5
18.125,-24.24
18.140,-21.08
18.156,-18.39
18.171,-16.57
18.187,-15.95
18.203,-16.57
18.218,-18.02
18.234,-19.59
18.250,-20.63
18.265,-20.62
18.281,-19.39
18.296,-17.18
18.312,-14.34
18.328,-11.26
18.343,-8.12
18.359,-4.95
18.375,-1.6
18.390,2.0
18.406,5.86
18.421,9.78
18.437,13.39
18.453,16.42
18.468,18.55
18.484,19.77
18.500,20.11
18.515,19.87
18.531,19.37
18.546,18.91
18.562,18.65
18.578,18.59
18.593,18.83
18.609,19.4
18.625,20.54
18.640,22.26
18.656,24.38
18.671,26.59
18.687,28.53
18.703,30.13
18.718,31.6
18.734,33.54
18.750,36.3
18.765,39.81
18.781,43.42
18.796,46.04
18.812,46.68
18.828,44.85
18.843,40.66
18.859,34.68
18.875,27.74
18.890,20.43
18.906,13.35
18.921,7.01
18.937,1.95
18.953,-1.35
18.968,-2.52
18.984,-1.61
19.000,0.94
19.015,4.46
19.031,8.21
19.046,11.84
19.062,15.42
19.078,19.39
19.093,24.2
19.109,30.12
19.125,37.0
19.140,44.26
19.156,51.14
19.171,57.02
19.187,61.68
19.203,65.51
19.218,68.94
19.234,72.59
19.250,77.12
19.265,83.0
19.281,90.29
19.296,98.65
19.312,107.71
19.328,117.4
19.343,128.22
19.359,140.56
19.375,154.93
19.390,171.64
19.406,190.87
19.421,212.35
19.437,235.02
19.453,256.79
19.468,274.5
19.484,284.4
19.500,281.91
19.515,264.06
19.531,230.58
19.546,184.68
19.562,132.21
19.578,79.94
19.593,33.62
19.609,-3.0
19.625,-28.71
19.640,-46.88
19.656,-61.67
19.671,-76.23
19.687,-91.74
19.703,-107.86
19.718,-124.27
19.734,-141.18
19.750,-158.74
19.765,-176.65
19.781,-198.54
19.796,-226.62
19.812,-260.53
19.828,-297.15
19.843,-332.89
19.859,-365.93
19.875,-395.97
19.890,-422.43
19.906,-443.5
19.921,-463.48
19.937,-485.25
19.953,-508.72
19.968,-529.86
19.984,-543.86
20.000,-548.92
20.015,-546.56
20.031,-539.83
20.046,-532.58
20.062,-537.62
20.078,-564.69
20.093,-616.76
20.109,-687.63
20.125,-766.6
20.140,-844.79
20.156,-917.1
20.171,-980.72
20.187,-974.26
20.203,-858.91
20.218,-634.66
20.234,-346.84
20.250,-54.38
20.265,202.53
20.281,409.3
20.296,568.47
20.312,689.66
20.328,780.92
20.343,838.15
20.359,861.34
20.375,852.69
20.390,821.17
20.406,779.09
20.421,735.13
20.437,693.49
20.453,655.29
20.468,616.45
20.484,562.94
20.500,489.46
20.515,399.21
20.531,303.1
20.546,213.93
20.562,139.46
20.578,76.35
20.593,25.1
20.609,-15.54
20.625,-52.54
20.640,-92.13
20.656,-139.35
20.671,-196.72
20.687,-253.19
20.703,-303.31
20.718,-342.54
20.734,-350.05
20.750,-313.55
20.765,-236.1
20.781,-132.93
20.796,-24.24
20.812,74.75
20.828,157.64
20.843,220.15
20.859,267.38
20.875,302.58
20.890,325.74
20.906,334.6
20.921,328.76
20.937,310.02
20.953,279.1
20.968,239.03
20.984,190.69
21.000,134.27
21.015,68.43
21.031,-5.4
21.046,-82.49
21.062,-154.81
21.078,-214.03
21.093,-252.56
21.109,-264.09
21.125,-247.22
21.140,-205.74
21.156,-157.89
21.171,-111.12
21.187,-72.34
21.203,-45.43
21.218,-30.47
21.234,-23.44
21.250,-18.17
21.265,-9.49
21.281,9.99
21.296,36.37
21.312,68.5
21.328,100.19
21.343,124.8
21.359,135.94
21.375,131.37
21.390,115.9
21.406,100.36
21.421,94.43
21.437,101.62
21.453,121.34
21.468,147.11
21.484,174.49
21.500,199.03
21.515,216.22
21.531,220.23
21.546,206.6
21.562,172.54
21.578,119.3
21.593,54.77
21.609,-12.96
21.625,-72.26
21.640,-113.34
21.656,-131.64
21.671,-130.57
21.687,-117.03
21.703,-100.7
21.718,-90.28
21.734,-89.49
21.750,-99.39
21.765,-116.21
21.781,-133.54
21.796,-137.98
21.812,-132.72
21.828,-115.77
21.843,-88.38
21.859,-53.33
21.875,-12.47
21.890,31.84
21.906,79.75
21.921,131.62
21.937,186.29
21.953,237.42
21.968,273.82
21.984,282.78
22.000,258.92
22.015,218.41
22.031,174.6
22.046,136.82
22.062,106.85
22.078,88.54
22.093,78.91
22.109,71.44
22.125,61.99
22.140,49.53
22.156,36.46
22.171,24.8
22.187,16.53
22.203,11.85
22.218,8.3
22.234,0.18
22.250,-16.83
22.265,-44.97
22.281,-84.23
22.296,-131.53
22.312,-184.77
22.328,-242.97
22.343,-306.22
22.359,-374.25
22.375,-446.12
22.390,-517.05
22.406,-578.23
22.421,-618.82
22.437,-626.29
22.453,-592.35
22.468,-516.85
22.484,-408.6
22.500,-282.83
22.515,-157.99
22.531,-50.02
22.546,33.66
22.562,81.15
22.578,87.58
22.593,59.31
22.609,9.25
22.625,-50.25
22.640,-109.69
22.656,-165.71
22.671,-215.22
22.687,-255.37
22.703,-284.59
22.718,-301.36
22.734,-302.98
22.750,-290.67
22.765,-267.66
22.781,-235.71
22.796,-196.54
22.812,-152.02
22.828,-104.86
22.843,-57.9
22.859,-11.83
22.875,33.52
22.890,77.65
22.906,120.16
22.921,164.2
22.937,210.82
22.953,258.03
22.968,300.48
22.984,332.56
23.000,352.1
23.015,360.17
23.031,359.79
23.046,355.96
23.062,360.57
23.078,383.0
23.093,427.61
23.109,492.1
23.125,570.11
23.140,653.54
23.156,733.1
23.171,799.42
23.187,845.8
23.203,877.03
23.218,898.93
23.234,913.54
23.250,917.81
23.265,906.96
23.281,877.36
23.296,827.08
23.312,755.85
23.328,620.33
23.343,411.57
23.359,157.96
23.375,-89.46
23.390,-288.48
23.406,-422.16
23.421,-494.59
23.437,-521.85
23.453,-522.42
23.468,-512.52
23.484,-495.44
23.500,-471.53
23.515,-442.81
23.531,-414.47
23.546,-392.33
23.562,-379.77
23.578,-378.17
23.593,-385.31
23.609,-397.01
23.625,-402.83
23.640,-396.05
23.656,-376.76
23.671,-350.45
23.687,-324.81
23.703,-302.79
23.718,-284.04
23.734,-265.83
23.750,-245.06
23.765,-215.9
23.781,-176.48
23.796,-130.3
23.812,-84.64
23.828,-47.16
23.843,-22.78
23.859,-13.31
23.875,-17.61
23.890,-32.8
23.906,-53.41
23.921,-74.9
23.937,-94.94
23.953,-112.86
23.968,-128.5
23.984,-141.16
24.000,-149.8
24.015,-153.16
24.031,-150.16
24.046,-139.84
24.062,-122.35
24.078,-99.67
24.093,-74.85
24.109,-51.16
24.125,-31.34
24.140,-17.32
24.156,-10.24
24.171,-10.57
24.187,-18.18
24.203,-32.43
24.218,-52.24
24.234,-76.19
24.250,-102.68
24.265,-130.03
24.281,-156.49
24.296,-180.52
24.312,-200.85
24.328,-216.5
24.343,-226.96
24.359,-232.09
24.375,-232.03
24.390,-227.06
24.406,-217.72
24.421,-204.7
24.437,-188.81
24.453,-170.93
24.468,-151.97
24.484,-132.76
24.500,-114.15
24.515,-96.85
24.531,-81.44
24.546,-68.28
24.562,-57.57
24.578,-49.27
24.593,-43.2
24.609,-39.04
24.625,-36.39
24.640,-34.92
24.656,-34.28
24.671,-34.25
24.687,-34.65
24.703,-35.45
24.718,-36.62
24.734,-38.22
24.750,-40.25
24.765,-42.74
24.781,-45.71
24.796,-49.14
24.812,-52.92
24.828,-56.84
24.843,-60.56
24.859,-63.69
24.875,-65.8
24.890,-66.46
24.906,-65.33
24.921,-62.29
24.937,-57.33
24.953,-50.62
24.968,-42.35
24.984,-32.69
25.000,-21.71
25.015,-9.44
25.031,4.03
25.046,18.56
25.062,33.78
25.078,49.12
25.093,63.89
25.109,77.52
25.125,89.78
25.140,100.76
25.156,110.92
25.171,120.75
25.187,130.62
25.203,140.55
25.218,150.2
25.234,158.99
25.250,166.47
25.265,172.78
25.281,178.61
25.296,185.12
25.312,193.43
25.328,204.2
25.343,217.38
25.359,232.22
25.375,247.7
25.390,262.97
25.406,277.87
25.421,292.92
25.437,309.17
25.453,327.67
25.468,349.2
25.484,374.28
25.500,403.03
25.515,434.88
25.531,468.19
25.546,500.04
25.562,526.65
25.578,544.43
25.593,551.37
25.609,547.91
25.625,536.89
25.640,522.12
25.656,506.6
25.671,491.11
25.687,474.14
25.703,453.24
25.718,426.66
25.734,394.75
25.750,359.81
25.765,324.94
25.781,292.16
25.796,261.33
25.812,230.41
25.828,196.75
25.843,158.94
25.859,117.79
25.875,76.3
25.890,38.02
25.906,5.39
25.921,-21.41
25.937,-44.27
25.953,-65.83
25.968,-88.15
25.984,-111.85
26.000,-136.31
26.015,-160.48
26.031,-183.41
26.046,-204.53
26.062,-223.22
26.078,-238.44
26.093,-248.63
26.109,-252.33
26.125,-248.72
26.140,-238.26
26.156,-222.77
26.171,-204.92
26.187,-187.54
26.203,-172.68
26.218,-161.27
26.234,-153.0
26.250,-146.87
26.265,-141.74
26.281,-136.97
26.296,-132.47
26.312,-128.43
26.328,-124.78
26.343,-120.64
26.359,-114.62
26.375,-105.2
26.390,-91.57
26.406,-74.18
26.421,-54.76
26.437,-35.74
26.453,-19.36
26.468,-6.96
26.484,1.5
26.500,6.78
26.515,9.9
26.531,11.6
26.546,12.15
26.562,11.53
26.578,9.94
26.593,8.12
26.609,7.31
26.625,9.05
26.640,14.27
26.656,23.06
26.671,34.43
26.687,46.8
26.703,58.59
26.718,68.78
26.734,76.86
26.750,82.19
26.765,83.72
26.781,79.56
26.796,67.73
26.812,47.12
26.828,18.35
26.843,-15.97
26.859,-51.92
26.875,-85.55
26.890,-114.35
26.906,-137.51
26.921,-156.05
26.937,-171.47
26.953,-184.74
26.968,-195.73
26.984,-203.15
27.000,-205.62
27.015,-202.57
27.031,-194.85
27.046,-184.31
27.062,-173.09
27.078,-162.44
27.093,-152.38
27.109,-142.27
27.125,-131.29
27.140,-119.29
27.156,-106.63
27.171,-93.57
27.187,-79.56
27.203,-63.14
27.218,-42.44
27.234,-16.23
27.250,15.02
27.265,49.16
27.281,82.86
27.296,112.91
27.312,137.15
27.328,155.03
27.343,167.27
27.359,174.92
27.375,178.51
27.390,177.14
27.406,168.8
27.421,151.11
27.437,122.9
27.453,85.35
27.468,42.33
27.484,-0.26
27.500,-36.42
27.515,-61.76
27.531,-74.98
27.546,-77.74
27.562,-73.57
27.578,-66.24
27.593,-58.62
27.609,-52.75
27.625,-50.19
27.640,-52.72
27.656,-62.09
27.671,-78.8
27.687,-101.26
27.703,-125.51
27.718,-146.46
27.734,-160.04
27.750,-165.26
27.765,-164.73
27.781,-163.31
27.796,-165.51
27.812,-173.17
27.828,-184.86
27.843,-196.87
27.859,-205.4
27.875,-208.28
27.890,-205.3
27.906,-197.55
27.921,-186.09
27.937,-171.39
27.953,-153.65
27.968,-134.01
27.984,-114.92
28.000,-99.71
28.015,-91.14
28.031,-89.71
28.046,-93.56
28.062,-99.35
28.078,-104.05
28.093,-106.12
28.109,-106.02
28.125,-105.14
28.140,-104.6
28.156,-104.75
28.171,-104.7
28.187,-103.28
28.203,-99.64
28.218,-93.39
28.234,-84.29
28.250,-72.19
28.265,-57.74
28.281,-42.86
28.296,-30.74
28.312,-24.51
28.328,-25.46
28.343,-31.29
28.359,-36.45
28.375,-34.42
28.390,-20.71
28.406,4.75
28.421,37.76
28.437,72.15
28.453,102.89
28.468,127.89
28.484,148.02
28.500,165.47
28.515,181.71
28.531,196.71
28.546,209.56
28.562,219.65
28.578,227.55
28.593,234.67
28.609,242.26
28.625,250.07
28.640,255.52
28.656,253.95
28.671,240.33
28.687,211.6
28.703,168.57
28.718,116.56
28.734,64.06
28.750,20.17
28.765,-8.66
28.781,-20.58
28.796,-18.41
28.812,-7.86
28.828,4.73
28.843,14.71
28.859,20.15
28.875,21.72
28.890,22.08
28.906,24.38
28.921,31.23
28.937,43.77
28.953,61.48
28.968,82.17
28.984,102.77
29.000,120.43
29.015,133.13
29.031,139.95
29.046,140.87
29.062,136.51
29.078,127.96
29.093,116.8
29.109,104.95
29.125,94.26
29.140,85.65
29.156,78.41
29.171,70.17
29.187,58.11
29.203,40.53
29.218,18.1
29.234,-6.16
29.250,-28.37
29.265,-45.62
29.281,-57.16
29.296,-64.29
29.312,-68.92
29.328,-72.42
29.343,-75.18
29.359,-77.11
29.375,-78.52
29.390,-80.07
29.406,-82.23
29.421,-84.2
29.437,-83.85
29.453,-78.57
29.468,-66.8
29.484,-49.31
29.500,-28.64
29.515,-8.29
29.531,9.03
29.546,21.8
29.562,29.73
29.578,33.02
29.593,31.87
29.609,26.86
29.625,19.34
29.640,11.82
29.656,7.19
29.671,7.43
29.687,12.46
29.703,19.98
29.718,26.48
29.734,29.14
29.750,27.22
29.765,22.83
29.781,19.56
29.796,20.5
29.812,26.82
29.828,37.33
29.843,49.36
29.859,60.17
29.875,68.07
29.890,72.66
29.906,75.62
29.921,78.73
29.937,82.96
29.953,88.07
29.968,93.26
29.984,97.51
30.000,100.64
30.015,103.36
30.031,107.16
30.046,115.76
30.062,131.74
30.078,155.57
30.093,185.17
30.109,217.18
30.125,248.23
30.140,276.41
30.156,301.5
30.171,324.33
30.187,349.82
30.203,381.75
30.218,421.43
30.234,466.87
30.250,513.6
30.265,556.56
30.281,591.86
30.296,617.68
30.312,633.9
30.328,646.55
30.343,661.21
30.359,680.93
30.375,704.47
30.390,726.59
30.406,740.16
30.421,739.19
30.437,720.94
30.453,655.77
30.468,529.65
30.484,344.91
30.500,122.12
30.515,-107.54
30.531,-315.59
30.546,-485.71
30.562,-614.18
30.578,-704.92
30.593,-764.65
30.609,-795.31
30.625,-799.32
30.640,-781.12
30.656,-747.65
30.671,-707.21
30.687,-667.14
30.703,-631.94
30.718,-602.82
30.734,-579.02
30.750,-555.23
30.765,-527.21
30.781,-493.38
30.796,-455.19
30.812,-416.35
30.828,-380.74
30.843,-350.87
30.859,-327.22
30.875,-308.88
30.890,-292.04
30.906,-273.49
30.921,-251.71
30.937,-227.27
30.953,-202.33
30.968,-179.4
30.984,-160.42
31.000,-145.78
31.015,-135.0
31.031,-125.96
31.046,-116.64
31.062,-105.75
31.078,-92.83
31.093,-78.1
31.109,-61.88
31.125,-44.81
31.140,-27.6
31.156,-11.43
31.171,2.54
31.187,13.36
31.203,20.7
31.218,25.0
31.234,27.35
31.250,29.48
31.265,32.11
31.281,35.36
31.296,38.54
31.312,40.62
31.328,41.25
31.343,41.01
31.359,41.01
31.375,42.2
31.390,44.65
31.406,47.19
31.421,48.26
31.437,46.66
31.453,42.0
31.468,35.11
31.484,27.11
31.500,18.88
31.515,11.05
31.531,3.94
31.546,-1.95
31.562,-5.78
31.578,-6.47
31.593,-3.46
31.609,3.22
31.625,12.72
31.640,23.26
31.656,33.04
31.671,40.66
31.687,45.32
31.703,47.18
31.718,47.12
31.734,46.04
31.750,44.56
31.765,42.97
31.781,40.89
31.796,38.28
31.812,35.42
31.828,32.8
31.843,31.05
31.859,30.33
31.875,30.47
31.890,31.12
31.906,32.23
31.921,33.47
31.937,35.36
31.953,38.49
31.968,43.09
31.984,48.59
32.000,53.5
32.015,55.83
32.031,53.62
32.046,49.03
32.062,43.53
32.078,39.18
32.093,38.04
32.109,41.23
32.125,48.46
32.140,58.34
32.156,68.83
32.171,78.35
32.187,86.31
32.203,92.43
32.218,96.88
32.234,99.69
32.250,100.36
32.265,98.1
32.281,92.59
32.296,84.32
32.312,74.64
32.328,65.21
32.343,56.86
32.359,49.44
32.375,41.87
32.390,32.75
32.406,21.47
32.421,8.78
32.437,-3.29
32.453,-12.51
32.468,-17.23
32.484,-17.78
32.500,-16.04
32.515,-14.65
32.531,-16.15
32.546,-21.9
32.562,-31.71
32.578,-43.89
32.593,-55.73
32.609,-64.08
32.625,-66.56
32.640,-62.25
32.656,-52.27
32.671,-39.74
32.687,-28.84
32.703,-23.13
32.718,-24.38
32.734,-31.96
32.750,-43.19
32.765,-54.74
32.781,-63.84
32.796,-68.75
32.812,-68.9
32.828,-64.4
32.843,-55.69
32.859,-43.46
32.875,-28.75
32.890,-13.26
32.906,1.13
32.921,12.57
32.937,20.12
32.953,23.57
32.968,23.59
32.984,20.99
33.000,16.4
33.015,10.08
33.031,1.99
33.046,-7.74
33.062,-18.7
33.078,-29.98
33.093,-40.65
33.109,-50.14
33.125,-58.49
33.140,-66.23
33.156,-73.97
33.171,-81.79
33.187,-89.14
33.203,-95.17
33.218,-99.32
33.234,-101.88
33.250,-104.09
33.265,-107.45
33.281,-113.13
33.296,-121.23
33.312,-130.68
33.328,-139.83
33.343,-147.23
33.359,-152.5
33.375,-156.33
33.390,-160.21
33.406,-165.25
33.421,-171.73
33.437,-178.88
33.453,-185.25
33.468,-189.52
33.484,-190.94
33.500,-189.35
33.515,-184.82
33.531,-177.11
33.546,-165.4
33.562,-148.65
33.578,-126.23
33.593,-98.52
33.609,-67.21
33.625,-34.94
33.640,-4.53
33.656,21.77
33.671,42.91
33.687,59.17
33.703,71.67
33.718,81.73
33.734,90.25
33.750,97.33
33.765,102.49
33.781,105.12
33.796,104.94
33.812,102.36
33.828,98.14
33.843,93.02
33.859,87.25
33.875,80.61
33.890,72.55
33.906,62.83
33.921,51.82
33.937,40.63
33.953,30.7
33.968,23.01
33.984,17.54
34.000,13.34
34.015,8.89
34.031,3.17
34.046,-3.86
34.062,-11.09
34.078,-16.83
34.093,-20.01
34.109,-20.78
34.125,-20.76
34.140,-21.92
34.156,-25.37
34.171,-30.47
34.187,-34.7
34.203,-35.02
34.218,-29.13
34.234,-16.86
34.250,-0.09
34.265,17.94
34.281,34.22
34.296,47.08
34.312,56.43
34.328,63.39
34.343,69.08
34.359,74.05
34.375,77.93
34.390,79.99
34.406,79.9
34.421,78.11
34.437,75.94
34.453,74.86
34.468,75.7
34.484,77.91
34.500,79.96
34.515,79.86
34.531,76.28
34.546,69.35
34.562,60.5
34.578,51.9
34.593,45.18
34.609,40.93
34.625,38.23
34.640,35.46
34.656,31.12
34.671,24.54
34.687,16.17
34.703,7.01
34.718,-1.99
34.734,-10.58
34.750,-19.05
34.765,-28.06
34.781,-37.89
34.796,-48.21
34.812,-58.29
34.828,-67.46
34.843,-75.82
34.859,-84.21
34.875,-93.89
34.890,-105.62
34.906,-118.91
34.921,-131.84
34.937,-141.69
34.953,-145.96
34.968,-143.77
34.984,-136.39
35.000,-126.92
35.015,-118.9
35.031,-114.88
35.046,-115.72
35.062,-120.25
35.078,-126.11
35.093,-131.32
35.109,-135.41
35.125,-139.47
35.140,-144.97
35.156,-152.01
35.171,-158.73
35.187,-162.23
35.203,-159.99
35.218,-151.14
35.234,-137.18
35.250,-121.43
35.265,-107.54
35.281,-97.7
35.296,-91.71
35.312,-87.24
35.328,-81.79
35.343,-72.86
35.359,-58.14
35.375,-35.7
35.390,-4.72
35.406,34.23
35.421,79.23
35.437,127.37
35.453,175.37
35.468,217.83
35.484,250.94
35.500,274.22
35.515,290.55
35.531,303.94
35.546,317.63
35.562,333.33
35.578,351.28
35.593,370.07
35.609,381.4
35.625,377.69
35.640,355.98
35.656,319.16
35.671,273.03
35.687,223.08
35.703,173.3
35.718,126.18
35.734,82.72
35.750,33.99
35.765,-27.41
35.781,-101.81
35.796,-182.04
35.812,-259.33
35.828,-328.46
35.843,-388.26
35.859,-439.92
35.875,-485.59
35.890,-538.75
35.906,-609.6
35.921,-698.64
35.937,-796.27
35.953,-890.96
35.968,-975.51
35.984,-1047.34
36.000,-1106.19
36.015,-1081.35
36.031,-933.83
36.046,-679.93
36.062,-384.43
36.078,-110.68
36.093,110.72
36.109,277.2
36.125,398.66
36.140,487.17
36.156,552.72
36.171,591.83
36.187,603.47
36.203,592.19
36.218,569.14
36.234,545.17
36.250,525.26
36.265,509.29
36.281,495.67
36.296,483.88
36.312,466.49
36.328,436.23
36.343,395.29
36.359,352.53
36.375,316.55
36.390,291.16
36.406,275.95
36.421,268.53
36.437,266.32
36.453,261.35
36.468,247.1
36.484,221.92
36.500,188.91
36.515,152.79
36.531,117.03
36.546,83.53
36.562,53.18
36.578,26.73
36.593,2.49
36.609,-20.13
36.625,-39.16
36.640,-51.2
36.656,-53.94
36.671,-48.07
36.687,-36.9
36.703,-24.83
36.718,-15.89
36.734,-13.56
36.750,-19.44
36.765,-32.9
36.781,-52.01
36.796,-74.45
36.812,-98.2
36.828,-121.44
36.843,-142.57
36.859,-160.26
36.875,-174.02
36.890,-184.15
36.906,-191.49
36.921,-196.83
36.937,-200.23
36.953,-200.49
36.968,-195.43
36.984,-182.44
37.000,-159.74
37.015,-127.46
37.031,-87.96
37.046,-45.33
37.062,-4.05
37.078,32.79
37.093,64.55
37.109,92.72
37.125,119.41
37.140,146.15
37.156,172.74
37.171,197.69
37.187,218.16
37.203,231.0
37.218,233.5
37.234,224.4
37.250,204.13
37.265,174.55
37.281,139.25
37.296,102.52
37.312,68.51
37.328,38.65
37.343,11.4
37.359,-16.21
37.375,-45.61
37.390,-74.86
37.406,-98.76
37.421,-110.34
37.437,-103.93
37.453,-77.71
37.468,-36.24
37.484,10.83
37.500,52.44
37.515,79.69
37.531,87.62
37.546,75.25
37.562,45.0
37.578,0.87
37.593,-46.21
37.609,-82.13
37.625,-97.87
37.640,-93.27
37.656,-73.91
37.671,-46.11
37.687,-14.75
37.703,17.38
37.718,48.39
37.734,77.13
37.750,102.08
37.765,121.28
37.781,134.45
37.796,143.41
37.812,151.24
37.828,160.55
37.843,172.7
37.859,187.27
37.875,203.9
37.890,219.13
37.906,228.67
37.921,229.86
37.937,222.63
37.953,208.76
37.968,190.85
37.984,171.45
38.000,152.44
38.015,134.95
38.031,119.2
38.046,103.72
38.062,87.37
38.078,69.91
38.093,51.78
38.109,33.72
38.125,16.16
38.140,-1.52
38.156,-21.77
38.171,-40.15
38.187,-56.23
38.203,-70.43
38.218,-83.22
38.234,-95.11
38.250,-106.51
38.265,-117.86
38.281,-129.77
38.296,-143.09
38.312,-158.74
38.328,-178.58
38.343,-203.52
38.359,-233.62
38.375,-268.37
38.390,-307.17
38.406,-349.14
38.421,-392.87
38.437,-435.58
38.453,-472.38
38.468,-497.94
38.484,-506.84
38.500,-495.74
38.515,-464.98
38.531,-418.66
38.546,-362.71
38.562,-302.99
38.578,-243.87
38.593,-187.81
38.609,-136.99
38.625,-93.36
38.640,-58.61
38.656,-33.56
38.671,-17.51
38.687,-7.58
38.703,-0.07
38.718,8.21
38.734,18.65
38.750,29.97
38.765,39.26
38.781,43.87
38.796,42.69
38.812,36.65
38.828,28.1
38.843,19.47
38.859,11.92
38.875,5.31
38.890,-1.37
38.906,-8.65
38.921,-15.57
38.937,-20.17
38.953,-20.41
38.968,-15.52
38.984,-6.7
39.000,3.37
39.015,11.98
39.031,17.67
39.046,20.92
39.062,23.71
39.078,28.41
39.093,37.04
39.109,50.78
39.125,69.81
39.140,93.02
39.156,118.07
39.171,141.44
39.187,159.63
39.203,170.05
39.218,171.95
39.234,166.84
39.250,157.66
39.265,147.42
39.281,137.99
39.296,129.68
39.312,121.77
39.328,113.41
39.343,104.57
39.359,95.91
39.375,88.29
39.390,82.1
39.406,76.86
39.421,71.62
39.437,65.61
39.453,58.89
39.468,52.23
39.484,46.79
39.500,43.41
39.515,41.98
39.531,41.39
39.546,39.97
39.562,36.27
39.578,29.65
39.593,20.6
39.609,10.38
39.625,0.52
39.640,-7.89
39.656,-14.55
39.671,-20.02
39.687,-25.23
39.703,-30.96
39.718,-37.47
39.734,-44.36
39.750,-50.68
39.765,-55.22
39.781,-56.78
39.796,-54.22
39.812,-46.62
39.828,-33.6
39.843,-15.62
39.859,5.63
39.875,27.34
39.890,46.28
39.906,59.82
39.921,66.91
39.937,68.38
39.953,66.44
39.968,63.55
39.984,61.39
40.000,60.36
40.015,59.85
40.031,59.05
40.046,57.52
40.062,55.5
40.078,53.56
40.093,52.25
40.109,51.72
40.125,51.75
40.140,51.95
40.156,51.97
40.171,51.61
40.187,50.7
40.203,49.3
40.218,47.32
40.234,44.74
40.250,41.44
40.265,37.25
40.281,32.0
40.296,25.85
40.312,19.41
40.328,13.69
40.343,9.82
40.359,8.38
40.375,8.86
40.390,9.61
40.406,8.71
40.421,5.25
40.437,0.49
40.453,-2.22
40.468,1.04
40.484,12.77
40.500,32.53
40.515,57.17
40.531,82.34
40.546,104.58
40.562,122.36
40.578,135.72
40.593,145.12
40.609,150.2
40.625,150.03
40.640,144.11
40.656,133.46
40.671,120.64
40.687,108.19
40.703,96.96
40.718,85.13
40.734,69.19
40.750,46.23
40.765,16.08
40.781,-17.84
40.796,-49.52
40.812,-72.66
40.828,-83.53
40.843,-82.37
40.859,-73.02
40.875,-61.18
40.890,-52.11
40.906,-48.72
40.921,-50.96
40.937,-56.62
40.953,-62.25
40.968,-64.47
40.984,-60.47
41.000,-48.6
41.015,-29.04
41.031,-4.7
41.046,18.43
41.062,32.23
41.078,28.83
41.093,4.04
41.109,-40.24
41.125,-95.66
41.140,-149.97
41.156,-191.19
41.171,-211.54
41.187,-209.13
41.203,-187.08
41.218,-151.18
41.234,-107.18
41.250,-59.47
41.265,-10.85
41.281,36.72
41.296,81.48
41.312,121.77
41.328,156.13
41.343,183.11
41.359,201.0
41.375,207.75
41.390,200.98
41.406,179.26
41.421,143.03
41.437,95.26
41.453,41.24
41.468,-12.55
41.484,-60.11
41.500,-97.07
41.515,-120.91
41.531,-130.55
41.546,-125.65
41.562,-106.11
41.578,-72.34
41.593,-25.96
41.609,29.52
41.625,88.16
41.640,141.96
41.656,182.09
41.671,201.21
41.687,195.97
41.703,168.4
41.718,125.17
41.734,74.84
41.750,24.62
41.765,-21.9
41.781,-65.2
41.796,-108.54
41.812,-155.79
41.828,-209.24
41.843,-268.29
41.859,-329.0
41.875,-384.69
41.890,-427.5
41.906,-450.62
41.921,-450.62
41.937,-428.82
41.953,-390.87
41.968,-344.26
41.984,-295.4
42.000,-247.38
42.015,-199.83
42.031,-150.9
42.046,-99.54
42.062,-46.66
42.078,5.71
42.093,55.36
42.109,101.04
42.125,142.21
42.140,178.38
42.156,208.31
42.171,230.37
42.187,243.75
42.203,249.64
42.218,251.76
42.234,255.27
42.250,264.65
42.265,281.78
42.281,304.63
42.296,327.8
42.312,344.21
42.328,347.72
42.343,334.94
42.359,306.32
42.375,265.49
42.390,217.51
42.406,167.24
42.421,117.7
42.437,69.59
42.453,21.51
42.468,-28.75
42.484,-82.89
42.500,-140.48
42.515,-198.43
42.531,-251.37
42.546,-293.07
42.562,-318.38
42.578,-324.87
42.593,-313.47
42.609,-287.85
42.625,-252.98
42.640,-213.51
42.656,-172.95
42.671,-133.71
42.687,-97.61
42.703,-66.11
42.718,-40.44
42.734,-21.07
42.750,-7.56
42.765,1.48
42.781,7.81
42.796,12.92
42.812,17.67
42.828,22.17
42.843,26.12
42.859,29.1
42.875,31.26
42.890,33.08
42.906,35.53
42.921,39.7
42.937,46.42
42.953,56.17
42.968,69.2
42.984,85.89
43.000,106.93
43.015,133.21
43.031,165.01
43.046,201.06
43.062,237.98
43.078,270.45
43.093,292.29
43.109,298.16
43.125,285.12
43.140,253.6
43.156,207.39
43.171,152.66
43.187,96.36
43.203,44.9
43.218,3.05
43.234,-26.46
43.250,-43.0
43.265,-47.75
43.281,-43.05
43.296,-32.04
43.312,-17.77
43.328,-2.94
43.343,10.48
43.359,21.34
43.375,29.31
43.390,34.41
43.406,36.76
43.421,36.36
43.437,32.84
43.453,25.66
43.468,14.28
43.484,-1.46
43.500,-21.08
43.515,-43.31
43.531,-66.16
43.546,-87.27
43.562,-104.39
43.578,-115.94
43.593,-121.48
43.609,-121.71
43.625,-118.14
43.640,-112.45
43.656,-105.93
43.671,-99.17
43.687,-92.12
43.703,-84.57
43.718,-76.69
43.734,-69.32
43.750,-63.71
43.765,-60.97
43.781,-61.21
43.796,-63.33
43.812,-65.16
43.828,-64.3
43.843,-59.09
43.859,-49.58
43.875,-37.49
43.890,-25.78
43.906,-17.34
43.921,-13.69
43.937,-14.07
43.953,-15.44
43.968,-13.59
43.984,-4.79
44.000,12.37
44.015,36.38
44.031,62.93
44.046,86.88
44.062,103.98
44.078,112.5
44.093,113.46
44.109,110.07
44.125,106.89
44.140,108.75
44.156,119.46
44.171,139.97
44.187,168.2
44.203,198.36
44.218,222.38
44.234,232.49
44.250,225.59
44.265,206.12
44.281,185.76
44.296,179.0
44.312,194.73
44.328,233.01
44.343,284.61
44.359,335.1
44.375,370.83
44.390,384.23
44.406,374.36
44.421,344.55
44.437,298.55
44.453,235.55
44.468,153.67
44.484,53.34
44.500,-59.71
44.515,-174.97
44.531,-279.25
44.546,-361.51
44.562,-415.29
44.578,-439.63
44.593,-441.2
44.609,-428.57
44.625,-408.8
44.640,-385.74
44.656,-361.17
44.671,-336.34
44.687,-314.75
44.703,-301.32
44.718,-282.48
44.734,-251.44
44.750,-209.05
44.765,-163.38
44.781,-122.67
44.796,-90.89
44.812,-67.74
44.828,-52.7
44.843,-44.25
44.859,-39.63
44.875,-38.89
44.890,-41.93
44.906,-48.36
44.921,-57.08
44.937,-72.54
44.953,-89.63
44.968,-103.83
44.984,-111.09
45.000,-107.7
45.015,-93.45
45.031,-69.31
45.046,-37.65
45.062,0.11
45.078,43.66
45.093,94.23
45.109,151.08
45.125,212.38
45.140,275.5
45.156,337.61
45.171,392.06
45.187,428.9
45.203,440.02
45.218,421.6
45.234,375.04
45.250,303.83
45.265,213.59
45.281,111.34
45.296,4.16
45.312,-101.24
45.328,-203.03
45.343,-300.45
45.359,-391.5
45.375,-472.22
45.390,-540.3
45.406,-595.6
45.421,-640.67
45.437,-680.35
45.453,-687.83
45.468,-648.88
45.484,-566.62
45.500,-458.04
45.515,-341.26
45.531,-228.72
45.546,-126.93
45.562,-39.42
45.578,32.05
45.593,82.45
45.609,114.12
45.625,129.88
45.640,134.45
45.656,133.29
45.671,130.35
45.687,128.07
45.703,128.53
45.718,134.44
45.734,150.14
45.750,174.51
45.765,203.44
45.781,232.54
45.796,255.99
45.812,266.23
45.828,256.43
45.843,223.86
45.859,171.78
45.875,108.37
45.890,42.29
45.906,-19.34
45.921,-66.28
45.937,-89.05
45.953,-85.26
45.968,-60.85
45.984,-24.9
46.000,16.33
46.015,59.49
46.031,101.85
46.046,139.57
46.062,170.06
46.078,191.78
46.093,204.58
46.109,210.39
46.125,212.65
46.140,215.65
46.156,221.06
46.171,230.51
46.187,239.86
46.203,244.92
46.218,242.25
46.234,229.55
46.250,206.71
46.265,175.44
46.281,139.03
46.296,99.19
46.312,56.94
46.328,11.7
46.343,-37.22
46.359,-90.58
46.375,-149.12
46.390,-212.82
46.406,-281.42
46.421,-345.59
46.437,-398.09
46.453,-433.14
46.468,-447.78
46.484,-441.95
46.500,-418.2
46.515,-381.73
46.531,-338.9
46.546,-295.6
46.562,-255.5
46.578,-221.07
46.593,-192.8
46.609,-170.07
46.625,-151.61
46.640,-134.94
46.656,-118.74
46.671,-103.39
46.687,-90.13
46.703,-79.3
46.718,-70.45
46.734,-61.99
46.750,-52.45
46.765,-40.27
46.781,-22.45
46.796,2.28
46.812,32.5
46.828,65.19
46.843,97.88
46.859,129.58
46.875,160.44
46.890,190.23
46.906,219.69
46.921,252.48
46.937,291.62
46.953,336.6
46.968,382.67
46.984,422.7
47.000,449.78
47.015,458.42
47.031,445.76
47.046,395.58
47.062,307.83
47.078,202.0
47.093,106.19
47.109,38.97
47.125,2.38
47.140,-11.0
47.156,-7.32
47.171,5.09
47.187,21.44
47.203,39.81
47.218,57.51
47.234,69.63
47.250,71.86
47.265,58.68
47.281,34.51
47.296,8.35
47.312,-17.11
47.328,-39.67
47.343,-60.24
47.359,-82.28
47.375,-110.15
47.390,-144.66
47.406,-185.17
47.421,-225.88
47.437,-259.73
47.453,-281.79
47.468,-284.73
47.484,-263.58
47.500,-215.09
47.515,-141.09
47.531,-49.77
47.546,46.28
47.562,134.63
47.578,205.77
47.593,255.78
47.609,287.88
47.625,297.76
47.640,286.09
47.656,256.84
47.671,214.44
47.687,161.74
47.703,101.98
47.718,40.36
47.734,-16.63
47.750,-62.83
47.765,-96.25
47.781,-117.25
47.796,-128.89
47.812,-135.14
47.828,-139.1
47.843,-142.01
47.859,-143.87
47.875,-144.88
47.890,-145.62
47.906,-148.17
47.921,-152.91
47.937,-159.65
47.953,-167.75
47.968,-176.18
47.984,-183.37
48.000,-187.47
48.015,-188.75
48.031,-186.35
48.046,-180.83
48.062,-172.43
48.078,-161.59
48.093,-149.01
48.109,-135.46
48.125,-121.64
48.140,-107.86
48.156,-94.61
48.171,-82.56
48.187,-72.75
48.203,-65.63
48.218,-61.26
48.234,-59.47
48.250,-59.82
48.265,-61.79
48.281,-64.3
48.296,-66.76
48.312,-68.73
48.328,-70.24
48.343,-71.21
48.359,-71.5
48.375,-70.83
48.390,-68.48
48.406,-66.98
48.421,-67.12
48.437,-69.34
48.453,-73.55
48.468,-79.29
48.484,-85.69
48.500,-91.64
48.515,-95.94
48.531,-97.4
48.546,-95.32
48.562,-88.87
48.578,-77.94
48.593,-63.09
48.609,-45.51
48.625,-26.82
48.640,-8.85
48.656,6.58
48.671,17.76
48.687,23.38
48.703,23.2
48.718,17.4
48.734,6.77
48.750,-7.41
48.765,-23.58
48.781,-39.95
48.796,-54.59
48.812,-65.88
48.828,-72.62
48.843,-73.74
48.859,-68.87
48.875,-58.19
48.890,-42.46
48.906,-22.95
48.921,-1.33
48.937,20.68
48.953,41.26
48.968,58.75
48.984,71.98
49.000,80.14
49.015,82.95
49.031,80.6
49.046,73.66
49.062,62.94
49.078,49.51
49.093,34.48
49.109,18.82
49.125,3.4
49.140,-11.2
49.156,-24.58
49.171,-36.54
49.187,-47.15
49.203,-56.55
49.218,-64.95
49.234,-72.54
49.250,-79.45
49.265,-85.67
49.281,-91.29
49.296,-96.26
49.312,-100.43
49.328,-103.7
49.343,-105.88
49.359,-106.91
49.375,-106.69
49.390,-105.26
49.406,-102.61
49.421,-98.82
49.437,-93.99
49.453,-88.23
49.468,-81.76
49.484,-74.66
49.500,-67.1
49.515,-59.14
49.531,-50.87
49.546,-42.38
49.562,-33.77
49.578,-25.23
49.593,-16.93
49.609,-9.1
49.625,-1.9
49.640,4.51
49.656,10.09
49.671,14.95
49.687,19.22
49.703,23.13
49.718,26.83
49.734,30.43
49.750,33.91
49.765,37.29
49.781,40.53
49.796,43.7
49.812,47.03
49.828,50.72
49.843,55.01
49.859,59.94
49.875,65.5
49.890,71.43
49.906,77.47
49.921,83.38
49.937,89.18
49.953,95.13
49.968,101.58
49.984,108.86
50.000,117.06
50.015,125.95
50.031,134.98
50.046,143.57
50.062,151.34
50.078,158.38
50.093,165.25
50.109,172.88
50.125,182.26
50.140,194.04
50.156,208.41
50.171,224.98
50.187,242.97
50.203,261.59
50.218,280.35
50.234,299.31
50.250,319.24
50.265,341.63
50.281,368.02
50.296,399.3
50.312,434.77
50.328,471.58
50.343,504.88
50.359,528.97
50.375,538.96
50.390,532.17
50.406,508.95
50.421,472.36
50.437,427.11
50.453,378.12
50.468,329.43
50.484,283.57
50.500,241.45
50.515,202.81
50.531,166.56
50.546,131.58
50.562,97.16
50.578,63.63
50.593,32.23
50.609,4.77
50.625,-17.12
50.640,-32.77
50.656,-42.48
50.671,-47.31
50.687,-48.16
50.703,-45.3
50.718,-38.18
50.734,-26.09
50.750,-9.15
50.765,11.06
50.781,31.49
50.796,48.4
50.812,58.81
50.828,61.94
50.843,59.67
50.859,55.95
50.875,54.93
50.890,58.69
50.906,66.2
50.921,73.38
50.937,75.0
50.953,67.11
50.968,49.2
50.984,24.21
51.000,-2.81
51.015,-27.02
51.031,-45.44
51.046,-56.6
51.062,-59.5
51.078,-53.07
51.093,-36.88
51.109,-12.94
51.125,13.59
51.140,35.72
51.156,47.87
51.171,49.14
51.187,44.22
51.203,41.08
51.218,46.21
51.234,61.08
51.250,81.57
51.265,101.06
51.281,115.33
51.296,125.31
51.312,136.36
51.328,154.61
51.343,182.86
51.359,218.77
51.375,255.86
51.390,286.36
51.406,304.08
51.421,305.85
51.437,290.88
51.453,259.49
51.468,212.53
51.484,151.04
51.500,77.15
51.515,-5.22
51.531,-90.65
51.546,-173.1
51.562,-247.0
51.578,-308.5
51.593,-356.0
51.609,-390.02
51.625,-412.7
51.640,-426.61
51.656,-433.89
51.671,-435.49
51.687,-431.18
51.703,-419.46
51.718,-398.65
51.734,-367.57
51.750,-326.37
51.765,-277.27
51.781,-224.27
51.796,-172.58
51.812,-127.81
51.828,-95.45
51.843,-79.65
51.859,-81.97
51.875,-100.26
51.890,-128.45
51.906,-158.0
51.921,-180.74
51.937,-191.64
51.953,-190.77
51.968,-182.25
51.984,-171.69
52.000,-163.13
52.015,-157.33
52.031,-152.21
52.046,-145.06
52.062,-134.57
52.078,-121.51
52.093,-108.04
52.109,-96.0
52.125,-85.88
52.140,-76.99
52.156,-68.28
52.171,-59.07
52.187,-49.05
52.203,-37.58
52.218,-23.31
52.234,-4.43
52.250,20.59
52.265,51.69
52.281,86.78
52.296,121.84
52.312,152.27
52.328,174.45
52.343,186.99
52.359,191.07
52.375,189.27
52.390,183.97
52.406,175.88
52.421,163.82
52.437,145.82
52.453,120.91
52.468,90.51
52.484,58.44
52.500,29.54
52.515,7.74
52.531,-5.56
52.546,-11.53
52.562,-12.86
52.578,-12.01
52.593,-10.26
52.609,-7.66
52.625,-3.87
52.640,0.73
52.656,4.69
52.671,5.92
52.687,2.91
52.703,-4.4
52.718,-14.1
52.734,-22.99
52.750,-28.05
52.765,-27.71
52.781,-22.6
52.796,-15.07
52.812,-7.95
52.828,-3.0
52.843,-0.09
52.859,2.48
52.875,6.81
52.890,13.73
52.906,21.64
52.921,26.75
52.937,24.46
52.953,11.3
52.968,-13.28
52.984,-46.46
53.000,-82.84
53.015,-116.19
53.031,-141.43
53.046,-155.75
53.062,-158.78
53.078,-151.79
53.093,-136.93
53.109,-116.69
53.125,-93.84
53.140,-71.45
53.156,-52.48
53.171,-39.06
53.187,-31.81
53.203,-29.48
53.218,-29.49
53.234,-28.95
53.250,-25.75
53.265,-19.11
53.281,-9.63
53.296,1.4
53.312,12.61
53.328,22.72
53.343,30.58
53.359,35.14
53.375,35.47
53.390,31.23
53.406,22.95
53.421,11.92
53.437,-0.24
53.453,-12.17
53.468,-23.2
53.484,-32.94
53.500,-40.99
53.515,-46.4
53.531,-47.86
53.546,-44.06
53.562,-34.67
53.578,-20.44
53.593,-2.76
53.609,17.14
53.625,39.15
53.640,64.24
53.656,93.53
53.671,126.63
53.687,161.01
53.703,192.2
53.718,215.29
53.734,226.6
53.750,224.78
53.765,210.92
53.781,187.67
53.796,158.51
53.812,127.15
53.828,97.75
53.843,74.75
53.859,62.01
53.875,61.25
53.890,70.57
53.906,84.27
53.921,94.39
53.937,93.88
53.953,79.72
53.968,54.68
53.984,26.3
54.000,3.52
54.015,-7.5
54.031,-6.4
54.046,1.43
54.062,7.26
54.078,2.98
54.093,-15.23
54.109,-45.93
54.125,-83.48
54.140,-120.84
54.156,-152.12
54.171,-174.34
54.187,-187.1
54.203,-191.57
54.218,-189.13
54.234,-180.78
54.250,-167.33
54.265,-150.09
54.281,-131.1
54.296,-112.7
54.312,-96.73
54.328,-83.78
54.343,-72.79
54.359,-61.5
54.375,-47.45
54.390,-29.15
54.406,-7.05
54.421,16.66
54.437,38.9
54.453,56.96
54.468,69.73
54.484,78.0
54.500,83.67
54.515,88.6
54.531,93.41
54.546,97.21
54.562,98.43
54.578,95.98
54.593,90.31
54.609,83.26
54.625,77.25
54.640,73.77
54.656,72.62
54.671,71.84
54.687,68.83
54.703,61.76
54.718,50.05
54.734,34.41
54.750,15.99
54.765,-4.48
54.781,-26.95
54.796,-51.4
54.812,-77.22
54.828,-102.68
54.843,-125.24
54.859,-142.62
54.875,-153.91
54.890,-159.95
54.906,-163.07
54.921,-165.93
54.937,-170.41
54.953,-176.89
54.968,-184.25
54.984,-190.49
55.000,-193.41
55.015,-191.34
55.031,-183.4
55.046,-169.77
55.062,-151.5
55.078,-130.39
55.093,-108.35
55.109,-87.11
55.125,-67.78
55.140,-50.82
55.156,-36.23
55.171,-23.78
55.187,-13.61
55.203,-6.13
55.218,-2.01
55.234,-1.67
55.250,-5.04
55.265,-11.38
55.281,-19.77
55.296,-29.49
55.312,-40.39
55.328,-52.88
55.343,-67.43
55.359,-84.16
55.375,-102.44
55.390,-120.76
55.406,-136.91
55.421,-148.43
55.437,-153.23
55.453,-149.93
55.468,-138.54
55.484,-120.41
55.500,-98.23
55.515,-75.25
55.531,-54.13
55.546,-36.09
55.562,-20.38
55.578,-5.06
55.593,12.2
55.609,32.82
55.625,56.8
55.640,82.86
55.656,109.1
55.671,133.8
55.687,155.72
55.703,174.19
55.718,188.79
55.734,199.28
55.750,205.67
55.765,208.31
55.781,207.7
55.796,203.91
55.812,196.23
55.828,183.22
55.843,163.61
55.859,137.25
55.875,105.54
55.890,70.76
55.906,34.9
55.921,-1.22
55.937,-37.94
55.953,-75.39
55.968,-112.08
55.984,-144.31
56.000,-167.17
56.015,-176.72
56.031,-171.82
56.046,-154.91
56.062,-130.78
56.078,-104.63
56.093,-80.19
56.109,-59.07
56.125,-41.15
56.140,-25.43
56.156,-10.97
56.171,2.91
56.187,16.27
56.203,28.71
56.218,39.39
56.234,47.26
56.250,51.49
56.265,51.57
56.281,47.51
56.296,39.67
56.312,28.53
56.328,14.75
56.343,-0.86
56.359,-17.35
56.375,-33.69
56.390,-48.95
56.406,-62.62
56.421,-74.67
56.437,-85.29
56.453,-94.65
56.468,-102.52
56.484,-108.3
56.500,-111.35
56.515,-111.42
56.531,-108.79
56.546,-104.2
56.562,-98.65
56.578,-93.01
56.593,-88.15
56.609,-84.95
56.625,-84.35
56.640,-87.07
56.656,-93.41
56.671,-102.85
56.687,-113.92
56.703,-124.34
56.718,-131.67
56.734,-134.26
56.750,-131.75
56.765,-125.61
56.781,-118.57
56.796,-113.59
56.812,-112.69
56.828,-116.02
56.843,-121.81
56.859,-127.21
56.875,-129.58
56.890,-127.45
56.906,-120.63
56.921,-109.75
56.937,-95.51
56.953,-78.25
56.968,-57.92
56.984,-34.4
57.000,-7.85
57.015,21.17
57.031,51.85
57.046,83.65
57.062,116.29
57.078,149.94
57.093,185.04
57.109,222.0
57.125,260.71
57.140,299.9
57.156,336.65
57.171,366.47
57.187,384.31
57.203,386.05
57.218,369.9
57.234,337.05
57.250,291.48
57.265,238.38
57.281,182.74
57.296,128.38
57.312,77.86
57.328,32.93
57.343,-5.1
57.359,-35.22
57.375,-57.01
57.390,-70.67
57.406,-76.93
57.421,-76.51
57.437,-70.18
57.453,-58.37
57.468,-41.77
57.484,-21.84
57.500,-0.97
57.515,18.41
57.531,34.72
57.546,47.88
57.562,59.64
57.578,72.61
57.593,90.07
57.609,114.61
57.625,146.21
57.640,180.69
57.656,209.79
57.671,223.19
57.687,211.55
57.703,170.61
57.718,102.88
57.734,18.75
57.750,-67.29
57.765,-142.58
57.781,-200.83
57.796,-243.32
57.812,-275.81
57.828,-304.82
57.843,-333.9
57.859,-362.21
57.875,-383.35
57.890,-388.18
57.906,-369.19
57.921,-323.54
57.937,-254.7
57.953,-170.71
57.968,-82.61
57.984,0.66
58.000,65.13
58.015,99.48
58.031,101.35
58.046,77.54
58.062,41.58
58.078,0.45
58.093,-42.96
58.109,-86.18
58.125,-125.17
58.140,-154.63
58.156,-168.79
58.171,-164.25
58.187,-142.6
58.203,-110.01
58.218,-75.49
58.234,-46.36
58.250,-26.18
58.265,-14.52
58.281,-8.48
58.296,-3.25
58.312,5.63
58.328,20.48
58.343,41.12
58.359,65.21
58.375,89.77
58.390,111.31
58.406,125.77
58.421,128.58
58.437,117.73
58.453,95.36
58.468,67.94
58.484,44.8
58.500,34.55
58.515,42.28
58.531,67.42
58.546,104.39
58.562,145.07
58.578,182.78
58.593,214.17
58.609,238.71
58.625,256.98
58.640,268.52
58.656,271.7
58.671,264.58
58.687,246.54
58.703,219.09
58.718,186.05
58.734,152.18
58.750,121.2
58.765,94.67
58.781,71.75
58.796,50.22
58.812,27.79
58.828,3.13
58.843,-23.72
58.859,-51.38
58.875,-77.87
58.890,-101.35
58.906,-120.57
58.921,-135.47
58.937,-147.12
58.953,-157.17
58.968,-167.07
58.984,-177.42
59.000,-187.57
59.015,-196.08
59.031,-201.54
59.046,-203.11
59.062,-200.81
59.078,-195.16
59.093,-186.66
59.109,-175.33
59.125,-160.88
59.140,-142.83
59.156,-121.07
59.171,-95.83
59.187,-67.41
59.203,-35.9
59.218,-1.42
59.234,35.56
59.250,73.86
59.265,111.52
59.281,146.54
59.296,177.67
59.312,204.84
59.328,228.86
59.343,250.64
59.359,270.28
59.375,286.86
59.390,299.05
59.406,305.92
59.421,307.56
59.437,305.07
59.453,299.52
59.468,291.23
59.484,279.31
59.500,261.97
59.515,237.6
59.531,205.66
59.546,167.23
59.562,124.9
59.578,82.21
59.593,42.51
59.609,8.27
59.625,-19.76
59.640,-42.43
59.656,-61.61
59.671,-79.27
59.687,-96.52
59.703,-113.14
59.718,-127.88
59.734,-139.37
59.750,-146.67
59.765,-149.85
59.781,-149.64
59.796,-146.83
59.812,-141.88
59.828,-134.99
59.843,-126.35
59.859,-116.55
59.875,-106.76
59.890,-98.18
59.906,-91.61
59.921,-87.12
59.937,-83.89
59.953,-80.72
59.968,-76.46
59.984,-70.4
