timestamp,value
00.000,24.48
00.015,16.22
00.031,5.98
00.046,-4.41
00.062,-13.32
00.078,-19.76
00.093,-23.67
00.109,-25.7
00.125,-26.8
00.140,-27.72
00.156,-28.74
00.171,-29.64
00.187,-29.94
00.203,-29.22
00.218,-27.25
00.234,-24.1
00.250,-20.01
00.265,-15.3
00.281,-10.21
00.296,-4.89
00.312,0.63
00.328,6.27
00.343,11.85
00.359,17.06
00.375,21.52
00.390,24.95
00.406,27.26
00.421,28.57
00.437,29.14
00.453,29.25
00.468,29.11
00.484,28.85
00.500,28.53
00.515,28.19
00.531,27.84
00.546,27.39
00.562,26.52
00.578,24.83
00.593,21.86
00.609,17.47
00.625,12.0
00.640,6.32
00.656,1.6
00.671,-1.04
00.687,-1.04
00.703,1.39
00.718,5.11
00.734,8.45
00.750,9.63
00.765,7.42
00.781,1.48
00.796,-7.42
00.812,-17.68
00.828,-27.31
00.843,-34.51
00.859,-38.13
00.875,-37.93
00.890,-34.6
00.906,-29.57
00.921,-24.67
00.937,-21.66
00.953,-21.76
00.968,-25.25
00.984,-31.29
01.000,-38.12
01.015,-43.59
01.031,-45.83
01.046,-43.89
01.062,-37.95
01.078,-29.08
01.093,-18.88
01.109,-8.82
01.125,0.05
01.140,7.24
01.156,12.65
01.171,16.44
01.187,18.84
01.203,20.11
01.218,20.59
01.234,20.63
01.250,20.57
01.265,20.71
01.281,21.17
01.296,21.94
01.312,22.88
01.328,23.81
01.343,24.55
01.359,25.03
01.375,25.27
01.390,25.39
01.406,25.51
01.421,25.72
01.437,25.99
01.453,26.17
01.468,26.06
01.484,25.49
01.500,24.42
01.515,22.93
01.531,21.25
01.546,19.55
01.562,17.9
01.578,16.27
01.593,14.5
01.609,12.47
01.625,10.15
01.640,7.6
01.656,4.98
01.671,2.46
01.687,0.13
01.703,-2.04
01.718,-4.22
01.734,-6.6
01.750,-9.34
01.765,-12.42
01.781,-15.53
01.796,-18.2
01.812,-19.87
01.828,-20.17
01.843,-19.03
01.859,-16.67
01.875,-13.49
01.890,-9.88
01.906,-6.05
01.921,-2.01
01.937,2.32
01.953,6.96
01.968,11.9
01.984,16.95
02.000,21.85
02.015,26.3
02.031,29.91
02.046,32.22
02.062,32.71
02.078,30.95
02.093,26.88
02.109,21.02
02.125,14.53
02.140,8.94
02.156,5.74
02.171,5.76
02.187,8.9
02.203,14.05
02.218,19.5
02.234,23.48
02.250,24.76
02.265,22.96
02.281,18.57
02.296,12.8
02.312,7.12
02.328,2.89
02.343,0.98
02.359,1.58
02.375,4.14
02.390,7.47
02.406,10.14
02.421,10.83
02.437,8.83
02.453,4.17
02.468,-2.35
02.484,-9.54
02.500,-16.19
02.515,-21.57
02.531,-25.56
02.546,-28.65
02.562,-31.56
02.578,-34.87
02.593,-38.63
02.609,-42.31
02.625,-44.95
02.640,-45.53
02.656,-43.38
02.671,-38.4
02.687,-31.17
02.703,-22.7
02.718,-14.21
02.734,-6.76
02.750,-1.0
02.765,2.96
02.781,5.53
02.796,7.39
02.812,9.33
02.828,11.88
02.843,15.13
02.859,18.69
02.875,21.76
02.890,23.32
02.906,22.48
02.921,18.72
02.937,12.21
02.953,3.82
02.968,-4.95
02.984,-12.34
03.000,-16.78
03.015,-17.42
03.031,-14.5
03.046,-9.34
03.062,-4.01
03.078,-0.72
03.093,-1.13
03.109,-5.89
03.125,-14.54
03.140,-25.66
03.156,-37.4
03.171,-47.87
03.187,-55.55
03.203,-59.42
03.218,-59.0
03.234,-54.37
03.250,-46.18
03.265,-35.7
03.281,-24.74
03.296,-15.44
03.312,-9.81
03.328,-9.27
03.343,-14.18
03.359,-23.69
03.375,-35.87
03.390,-48.18
03.406,-58.04
03.421,-63.43
03.437,-63.2
03.453,-57.19
03.468,-46.13
03.484,-31.39
03.500,-14.79
03.515,1.73
03.531,16.25
03.546,27.16
03.562,33.47
03.578,35.02
03.593,32.6
03.609,27.79
03.625,22.58
03.640,18.9
03.656,18.17
03.671,21.05
03.687,27.41
03.703,36.47
03.718,47.02
03.734,57.68
03.750,67.03
03.765,73.77
03.781,76.97
03.796,76.3
03.812,72.17
03.828,65.74
03.843,58.63
03.859,52.45
03.875,48.29
03.890,46.44
03.906,46.45
03.921,47.4
03.937,48.34
03.953,48.62
03.968,47.95
03.984,46.35
04.000,43.88
04.015,40.58
04.031,36.36
04.046,31.05
04.062,24.54
04.078,16.9
04.093,8.49
04.109,-0.1
04.125,-8.13
04.140,-14.94
04.156,-20.26
04.171,-24.33
04.187,-27.85
04.203,-31.69
04.218,-36.6
04.234,-42.77
04.250,-49.78
04.265,-56.62
04.281,-61.96
04.296,-64.53
04.312,-63.41
04.328,-58.25
04.343,-49.33
04.359,-37.52
04.375,-24.1
04.390,-10.57
04.406,1.56
04.421,11.09
04.437,17.4
04.453,20.57
04.468,21.4
04.484,21.17
04.500,21.19
04.515,22.45
04.531,25.25
04.546,29.29
04.562,33.81
04.578,38.02
04.593,41.4
04.609,43.81
04.625,45.43
04.640,46.57
04.656,47.37
04.671,47.73
04.687,47.29
04.703,45.58
04.718,42.28
04.734,37.44
04.750,31.52
04.765,25.34
04.781,19.76
04.796,15.45
04.812,12.65
04.828,11.15
04.843,10.34
04.859,9.44
04.875,7.68
04.890,4.44
04.906,-0.47
04.921,-6.87
04.937,-14.1
04.953,-21.26
04.968,-27.53
04.984,-32.44
05.000,-36.14
05.015,-39.31
05.031,-42.87
05.046,-47.52
05.062,-53.36
05.078,-59.74
05.093,-65.37
05.109,-68.74
05.125,-68.52
05.140,-64.02
05.156,-55.36
05.171,-43.49
05.187,-30.0
05.203,-16.75
05.218,-5.36
05.234,3.15
05.250,8.64
05.265,11.76
05.281,13.68
05.296,15.58
05.312,18.3
05.328,22.08
05.343,26.55
05.359,30.99
05.375,34.51
05.390,36.3
05.406,35.83
05.421,32.89
05.437,27.72
05.453,21.0
05.468,13.84
05.484,7.53
05.500,3.33
05.515,1.96
05.531,3.29
05.546,6.32
05.562,9.38
05.578,10.7
05.593,8.95
05.609,3.81
05.625,-3.98
05.640,-12.76
05.656,-20.56
05.671,-25.61
05.687,-26.87
05.703,-24.3
05.718,-18.9
05.734,-12.49
05.750,-7.3
05.765,-5.5
05.781,-8.5
05.796,-16.53
05.812,-28.44
05.828,-41.96
05.843,-54.3
05.859,-62.88
05.875,-65.96
05.890,-62.95
05.906,-54.4
05.921,-41.75
05.937,-26.89
05.953,-11.74
05.968,2.14
05.984,13.8
06.000,23.04
06.015,30.2
06.031,35.91
06.046,40.63
06.062,44.49
06.078,47.23
06.093,48.47
06.109,48.03
06.125,46.16
06.140,43.52
06.156,40.97
06.171,39.25
06.187,38.8
06.203,39.64
06.218,41.49
06.234,43.85
06.250,46.19
06.265,48.01
06.281,48.94
06.296,48.81
06.312,47.58
06.328,45.32
06.343,42.05
06.359,37.71
06.375,32.1
06.390,25.08
06.406,16.7
06.421,7.43
06.437,-1.87
06.453,-10.16
06.468,-16.52
06.484,-20.54
06.500,-22.51
06.515,-23.42
06.531,-24.64
06.546,-27.49
06.562,-32.74
06.578,-40.34
06.593,-49.37
06.609,-58.24
06.625,-65.12
06.640,-68.4
06.656,-67.16
06.671,-61.35
06.687,-51.84
06.703,-40.23
06.718,-28.33
06.734,-17.79
06.750,-9.59
06.765,-3.9
06.781,-0.09
06.796,2.91
06.812,6.26
06.828,10.74
06.843,16.53
06.859,23.22
06.875,29.99
06.890,35.98
06.906,40.54
06.921,43.42
06.937,44.75
06.953,44.81
06.968,43.87
06.984,42.0
07.000,39.15
07.015,35.35
07.031,30.86
07.046,26.25
07.062,22.27
07.078,19.54
07.093,18.32
07.109,18.37
07.125,19.06
07.140,19.59
07.156,19.29
07.171,17.82
07.187,15.25
07.203,11.97
07.218,8.55
07.234,5.5
07.250,3.13
07.265,1.47
07.281,0.23
07.296,-1.06
07.312,-2.98
07.328,-6.0
07.343,-10.38
07.359,-16.08
07.375,-22.71
07.390,-29.6
07.406,-35.89
07.421,-40.69
07.437,-43.29
07.453,-43.31
07.468,-40.93
07.484,-36.73
07.500,-31.63
07.515,-26.52
07.531,-22.0
07.546,-18.17
07.562,-14.65
07.578,-10.78
07.593,-5.94
07.609,0.16
07.625,7.35
07.640,15.03
07.656,22.29
07.671,28.08
07.687,31.45
07.703,31.71
07.718,28.69
07.734,22.89
07.750,15.48
07.765,8.03
07.781,2.13
07.796,-1.03
07.812,-1.04
07.828,1.77
07.843,6.5
07.859,12.01
07.875,17.18
07.890,21.06
07.906,22.94
07.921,22.36
07.937,19.19
07.953,13.78
07.968,6.97
07.984,-0.04
08.000,-5.97
08.015,-9.88
08.031,-11.5
08.046,-11.32
08.062,-10.44
08.078,-10.17
08.093,-11.53
08.109,-15.01
08.125,-20.38
08.140,-26.95
08.156,-33.85
08.171,-40.41
08.187,-46.39
08.203,-51.99
08.218,-57.79
08.234,-64.36
08.250,-72.01
08.265,-80.56
08.281,-89.31
08.296,-97.18
08.312,-102.97
08.328,-105.6
08.343,-104.25
08.359,-98.46
08.375,-88.1
08.390,-73.59
08.406,-55.94
08.421,-36.91
08.437,-18.86
08.453,-4.35
08.468,4.52
08.484,6.8
08.500,3.03
08.515,-4.89
08.531,-14.25
08.546,-22.33
08.562,-27.14
08.578,-27.71
08.593,-24.18
08.609,-17.46
08.625,-8.82
08.640,0.44
08.656,9.19
08.671,16.61
08.687,22.22
08.703,25.87
08.718,27.72
08.734,28.14
08.750,27.51
08.765,26.13
08.781,24.17
08.796,21.68
08.812,18.73
08.828,15.5
08.843,12.33
08.859,9.64
08.875,7.81
08.890,7.0
08.906,7.14
08.921,7.85
08.937,8.56
08.953,8.64
08.968,7.51
08.984,4.78
09.000,0.4
09.015,-5.28
09.031,-11.57
09.046,-17.49
09.062,-22.05
09.078,-24.47
09.093,-24.31
09.109,-21.58
09.125,-16.65
09.140,-10.14
09.156,-2.74
09.171,4.84
09.187,12.04
09.203,18.52
09.218,24.18
09.234,29.15
09.250,33.66
09.265,37.83
09.281,41.63
09.296,44.79
09.312,46.99
09.328,48.0
09.343,47.82
09.359,46.66
09.375,44.85
09.390,42.75
09.406,40.61
09.421,38.62
09.437,36.91
09.453,35.59
09.468,34.67
09.484,34.06
09.500,33.57
09.515,32.92
09.531,31.89
09.546,30.35
09.562,28.37
09.578,26.14
09.593,23.93
09.609,21.94
09.625,20.29
09.640,18.98
09.656,17.9
09.671,16.88
09.687,15.68
09.703,14.08
09.718,11.89
09.734,8.99
09.750,5.41
09.765,1.22
09.781,-3.36
09.796,-8.04
09.812,-12.38
09.828,-15.86
09.843,-17.9
09.859,-18.09
09.875,-16.28
09.890,-12.79
09.906,-8.2
09.921,-3.22
09.937,1.63
09.953,6.11
09.968,10.33
09.984,14.52
10.000,18.86
10.015,23.35
10.031,27.8
10.046,31.91
10.062,35.38
10.078,38.0
10.093,39.72
10.109,40.66
10.125,41.04
10.140,41.12
10.156,41.11
10.171,41.06
10.187,40.89
10.203,40.45
10.218,39.61
10.234,38.39
10.250,36.87
10.265,35.2
10.281,33.46
10.296,31.63
10.312,29.66
10.328,27.49
10.343,25.19
10.359,22.91
10.375,20.83
10.390,19.02
10.406,17.42
10.421,15.77
10.437,13.81
10.453,11.37
10.468,8.5
10.484,5.41
10.500,2.45
10.515,-0.16
10.531,-2.37
10.546,-4.44
10.562,-6.82
10.578,-10.02
10.593,-14.45
10.609,-20.25
10.625,-27.12
10.640,-34.33
10.656,-40.82
10.671,-45.45
10.687,-47.2
10.703,-45.55
10.718,-40.54
10.734,-32.8
10.750,-23.42
10.765,-13.66
10.781,-4.68
10.796,2.67
10.812,8.03
10.828,11.52
10.843,13.67
10.859,15.19
10.875,16.76
10.890,18.82
10.906,21.44
10.921,24.33
10.937,26.9
10.953,28.37
10.968,28.02
10.984,25.43
11.000,20.68
11.015,14.49
11.031,8.14
11.046,3.05
11.062,0.38
11.078,0.48
11.093,2.83
11.109,6.1
11.125,8.77
11.140,9.6
11.156,8.07
11.171,4.44
11.187,-0.47
11.203,-5.64
11.218,-10.23
11.234,-13.79
11.250,-16.21
11.265,-17.63
11.281,-18.28
11.296,-18.37
11.312,-18.12
11.328,-17.86
11.343,-18.04
11.359,-19.22
11.375,-21.95
11.390,-26.68
11.406,-33.52
11.421,-42.27
11.437,-52.18
11.453,-62.14
11.468,-70.73
11.484,-76.52
11.500,-78.37
11.515,-75.68
11.531,-68.6
11.546,-57.98
11.562,-45.21
11.578,-31.92
11.593,-19.64
11.609,-9.51
11.625,-1.99
11.640,3.13
11.656,6.6
11.671,9.43
11.687,12.51
11.703,16.36
11.718,21.02
11.734,26.17
11.750,31.26
11.765,35.65
11.781,38.71
11.796,39.91
11.812,38.93
11.828,35.88
11.843,31.4
11.859,26.53
11.875,22.45
11.890,20.01
11.906,19.42
11.921,20.15
11.937,21.12
11.953,21.11
11.968,19.12
11.984,14.64
12.000,7.81
12.015,-0.7
12.031,-9.86
12.046,-18.56
12.062,-25.86
12.078,-31.24
12.093,-34.75
12.109,-37.03
12.125,-39.12
12.140,-42.08
12.156,-46.7
12.171,-53.23
12.187,-61.37
12.203,-70.39
12.218,-79.38
12.234,-87.39
12.250,-93.47
12.265,-96.68
12.281,-96.17
12.296,-91.32
12.312,-81.87
12.328,-68.16
12.343,-51.15
12.359,-32.31
12.375,-13.42
12.390,3.72
12.406,17.57
12.421,27.23
12.437,32.55
12.453,34.26
12.468,33.73
12.484,32.56
12.500,32.19
12.515,33.45
12.531,36.44
12.546,40.67
12.562,45.28
12.578,49.44
12.593,52.51
12.609,54.12
12.625,54.2
12.640,52.82
12.656,50.13
12.671,46.25
12.687,41.35
12.703,35.63
12.718,29.48
12.734,23.46
12.750,18.17
12.765,14.06
12.781,11.16
12.796,8.99
12.812,6.65
12.828,3.12
12.843,-2.3
12.859,-9.69
12.875,-18.4
12.890,-27.19
12.906,-34.62
12.921,-39.46
12.937,-40.93
12.953,-38.87
12.968,-33.76
12.984,-26.57
13.000,-18.72
13.015,-11.88
13.031,-7.75
13.046,-7.68
13.062,-12.3
13.078,-21.34
13.093,-33.51
13.109,-46.84
13.125,-59.04
13.140,-68.04
13.156,-72.31
13.171,-71.18
13.187,-64.8
13.203,-54.2
13.218,-41.06
13.234,-27.42
13.250,-15.35
13.265,-6.47
13.281,-1.65
13.296,-0.82
13.312,-3.04
13.328,-6.84
13.343,-10.58
13.359,-12.97
13.375,-13.28
13.390,-11.48
13.406,-8.1
13.421,-3.87
13.437,0.49
13.453,4.54
13.468,8.08
13.484,11.08
13.500,13.53
13.515,15.38
13.531,16.58
13.546,17.16
13.562,17.28
13.578,17.28
13.593,17.47
13.609,18.06
13.625,18.98
13.640,19.95
13.656,20.58
13.671,20.5
13.687,19.56
13.703,17.8
13.718,15.43
13.734,12.72
13.750,9.87
13.765,6.99
13.781,4.09
13.796,1.11
13.812,-1.98
13.828,-5.21
13.843,-8.58
13.859,-12.14
13.875,-16.03
13.890,-20.45
13.906,-25.59
13.921,-31.47
13.937,-37.81
13.953,-44.01
13.968,-49.2
13.984,-52.49
14.000,-53.3
14.015,-51.55
14.031,-47.66
14.046,-42.39
14.062,-36.5
14.078,-30.55
14.093,-24.7
14.109,-18.9
14.125,-13.02
14.140,-7.11
14.156,-1.43
14.171,3.58
14.187,7.54
14.203,10.27
14.218,11.82
14.234,12.43
14.250,12.41
14.265,12.03
14.281,11.47
14.296,10.9
14.312,10.5
14.328,10.59
14.343,11.56
14.359,13.83
14.375,17.5
14.390,22.22
14.406,27.1
14.421,31.02
14.437,32.98
14.453,32.68
14.468,30.6
14.484,27.85
14.500,25.6
14.515,24.59
14.531,24.85
14.546,25.8
14.562,26.69
14.578,26.98
14.593,26.49
14.609,25.28
14.625,23.47
14.640,21.16
14.656,18.51
14.671,15.93
14.687,13.92
14.703,12.86
14.718,12.61
14.734,12.38
14.750,11.13
14.765,8.09
14.781,3.43
14.796,-1.61
14.812,-5.23
14.828,-5.78
14.843,-2.64
14.859,3.54
14.875,11.12
14.890,18.25
14.906,23.58
14.921,26.76
14.937,28.36
14.953,29.39
14.968,30.79
14.984,32.99
15.000,35.88
15.015,38.98
15.031,41.88
15.046,44.31
15.062,46.25
15.078,47.63
15.093,48.22
15.109,47.65
15.125,45.7
15.140,42.59
15.156,39.1
15.171,36.43
15.187,35.63
15.203,37.21
15.218,40.91
15.234,45.83
15.250,50.88
15.265,55.18
15.281,58.31
15.296,60.17
15.312,60.84
15.328,60.29
15.343,58.42
15.359,55.17
15.375,50.63
15.390,45.14
15.406,39.26
15.421,33.54
15.437,28.4
15.453,24.01
15.468,20.33
15.484,17.14
15.500,14.16
15.515,11.12
15.531,7.71
15.546,3.65
15.562,-1.33
15.578,-7.36
15.593,-14.31
15.609,-21.77
15.625,-29.0
15.640,-35.17
15.656,-39.55
15.671,-41.79
15.687,-42.04
15.703,-40.9
15.718,-39.18
15.734,-37.69
15.750,-37.04
15.765,-37.55
15.781,-39.3
15.796,-42.19
15.812,-45.92
15.828,-50.01
15.843,-53.75
15.859,-56.4
15.875,-57.34
15.890,-56.35
15.906,-53.64
15.921,-49.83
15.937,-45.66
15.953,-41.75
15.968,-38.42
15.984,-35.61
16.000,-32.97
16.015,-29.95
16.031,-26.04
16.046,-20.9
16.062,-14.61
16.078,-7.69
16.093,-0.97
16.109,4.66
16.125,8.61
16.140,10.77
16.156,11.49
16.171,11.35
16.187,10.83
16.203,10.1
16.218,9.0
16.234,7.26
16.250,4.63
16.265,1.11
16.281,-3.11
16.296,-7.75
16.312,-12.54
16.328,-17.28
16.343,-21.9
16.359,-26.38
16.375,-30.62
16.390,-34.42
16.406,-37.37
16.421,-39.0
16.437,-38.9
16.453,-36.92
16.468,-33.21
16.484,-28.15
16.500,-22.25
16.515,-15.91
16.531,-9.41
16.546,-2.86
16.562,3.73
16.578,10.37
16.593,16.99
16.609,23.43
16.625,29.35
16.640,34.3
16.656,37.74
16.671,39.26
16.687,38.81
16.703,36.76
16.718,33.9
16.734,31.09
16.750,28.97
16.765,27.73
16.781,27.06
16.796,26.4
16.812,25.28
16.828,23.58
16.843,21.64
16.859,20.13
16.875,19.72
16.890,20.84
16.906,23.42
16.921,26.9
16.937,30.4
16.953,32.9
16.968,33.5
16.984,31.57
17.000,26.96
17.015,20.12
17.031,12.16
17.046,4.79
17.062,-0.05
17.078,-0.81
17.093,3.15
17.109,11.02
17.125,20.72
17.140,29.34
17.156,34.1
17.171,33.16
17.187,26.21
17.203,14.49
17.218,0.34
17.234,-13.54
17.250,-24.81
17.265,-31.92
17.281,-34.29
17.296,-32.14
17.312,-26.26
17.328,-17.73
17.343,-7.82
17.359,2.15
17.375,10.96
17.390,17.7
17.406,21.98
17.421,23.97
17.437,24.37
17.453,24.05
17.468,23.78
17.484,23.98
17.500,24.61
17.515,25.38
17.531,25.84
17.546,25.71
17.562,24.96
17.578,23.83
17.593,22.68
17.609,21.87
17.625,21.57
17.640,21.7
17.656,22.04
17.671,22.25
17.687,22.11
17.703,21.48
17.718,20.3
17.734,18.55
17.750,16.11
17.765,12.83
17.781,8.62
17.796,3.52
17.812,-2.26
17.828,-8.32
17.843,-14.2
17.859,-19.5
17.875,-23.96
17.890,-27.63
17.906,-30.8
17.921,-33.89
17.937,-37.25
17.953,-40.97
17.968,-44.85
17.984,-48.38
18.000,-51.02
18.015,-52.32
18.031,-52.02
18.046,-50.05
18.062,-46.56
18.078,-41.73
18.093,-35.87
18.109,-29.3
18.125,-22.36
18.140,-15.41
18.156,-8.8
18.171,-2.89
18.187,1.95
18.203,5.42
18.218,7.32
18.234,7.63
18.250,6.49
18.265,4.23
18.281,1.22
18.296,-2.13
18.312,-5.43
18.328,-8.37
18.343,-10.77
18.359,-12.56
18.375,-13.74
18.390,-14.22
18.406,-13.79
18.421,-12.07
18.437,-8.72
18.453,-3.7
18.468,2.6
18.484,9.45
18.500,15.95
18.515,21.46
18.531,25.77
18.546,29.06
18.562,31.61
18.578,33.5
18.593,34.41
18.609,33.79
18.625,31.23
18.640,26.84
18.656,21.34
18.671,15.81
18.687,11.15
18.703,7.63
18.718,4.73
18.734,1.46
18.750,-3.04
18.765,-8.91
18.781,-15.34
18.796,-20.88
18.812,-23.95
18.828,-23.44
18.843,-18.98
18.859,-10.93
18.875,-0.12
18.890,12.4
18.906,25.55
18.921,38.39
18.937,50.13
18.953,60.21
18.968,68.21
18.984,73.87
19.000,77.02
19.015,77.52
19.031,75.31
19.046,70.45
19.062,63.11
19.078,53.67
19.093,42.73
19.109,31.21
19.125,20.27
19.140,11.12
19.156,4.64
19.171,1.0
19.187,-0.55
19.203,-1.51
19.218,-3.61
19.234,-8.16
19.250,-15.44
19.265,-24.54
19.281,-33.63
19.296,-40.62
19.312,-43.83
19.328,-42.69
19.343,-37.95
19.359,-31.46
19.375,-25.54
19.390,-22.22
19.406,-22.52
19.421,-26.15
19.437,-31.72
19.453,-37.33
19.468,-41.25
19.484,-42.53
19.500,-41.28
19.515,-38.53
19.531,-35.9
19.546,-35.0
19.562,-36.88
19.578,-41.62
19.593,-48.33
19.609,-55.44
19.625,-61.3
19.640,-64.77
19.656,-65.43
19.671,-63.53
19.687,-59.57
19.703,-53.97
19.718,-46.84
19.734,-38.28
19.750,-28.65
19.765,-18.88
19.781,-10.32
19.796,-4.33
19.812,-1.71
19.828,-2.34
19.843,-5.21
19.859,-8.9
19.875,-12.14
19.890,-14.21
19.906,-15.08
19.921,-15.08
19.937,-14.57
19.953,-13.66
19.968,-12.18
19.984,-9.86
20.000,-6.56
20.015,-2.38
20.031,2.36
20.046,7.32
20.062,12.18
20.078,16.8
20.093,21.1
20.109,25.02
20.125,28.42
20.140,31.04
20.156,32.57
20.171,32.73
20.187,31.4
20.203,28.67
20.218,24.89
20.234,20.59
20.250,16.37
20.265,12.77
20.281,10.05
20.296,8.13
20.312,6.59
20.328,4.85
20.343,2.37
20.359,-1.08
20.375,-5.36
20.390,-9.89
20.406,-13.94
20.421,-16.93
20.437,-18.57
20.453,-19.02
20.468,-18.72
20.484,-18.12
20.500,-17.38
20.515,-16.26
20.531,-14.24
20.546,-10.74
20.562,-5.45
20.578,1.46
20.593,9.33
20.609,17.15
20.625,23.93
20.640,28.9
20.656,31.7
20.671,32.34
20.687,31.17
20.703,28.67
20.718,25.43
20.734,22.03
20.750,18.99
20.765,16.65
20.781,15.08
20.796,14.05
20.812,13.16
20.828,11.96
20.843,10.22
20.859,8.0
20.875,5.56
20.890,3.23
20.906,1.22
20.921,-0.46
20.937,-1.94
20.953,-3.36
20.968,-4.72
20.984,-5.92
21.000,-6.83
21.015,-7.44
21.031,-7.97
21.046,-8.74
21.062,-10.08
21.078,-12.17
21.093,-14.91
21.109,-18.0
21.125,-21.01
21.140,-23.53
21.156,-25.23
21.171,-25.93
21.187,-25.62
21.203,-24.4
21.218,-22.45
21.234,-19.99
21.250,-17.24
21.265,-14.36
21.281,-11.44
21.296,-8.49
21.312,-5.44
21.328,-2.24
21.343,1.12
21.359,4.61
21.375,8.16
21.390,11.66
21.406,14.99
21.421,18.01
21.437,20.56
21.453,22.56
21.468,23.95
21.484,24.84
21.500,25.46
21.515,26.09
21.531,26.97
21.546,28.2
21.562,29.67
21.578,31.14
21.593,32.35
21.609,33.11
21.625,33.4
21.640,33.32
21.656,33.02
21.671,32.67
21.687,32.4
21.703,32.3
21.718,32.37
21.734,32.52
21.750,32.53
21.765,32.12
21.781,31.02
21.796,29.09
21.812,26.41
21.828,23.23
21.843,19.82
21.859,16.35
21.875,12.76
21.890,8.83
21.906,4.33
21.921,-0.8
21.937,-6.32
21.953,-11.74
21.968,-16.46
21.984,-19.96
22.000,-21.91
22.015,-22.24
22.031,-21.07
22.046,-18.63
22.062,-15.21
22.078,-11.1
22.093,-6.56
22.109,-1.8
22.125,3.06
22.140,7.93
22.156,12.76
22.171,17.46
22.187,21.94
22.203,26.04
22.218,29.68
22.234,32.83
22.250,35.5
22.265,37.71
22.281,39.48
22.296,40.83
22.312,41.75
22.328,42.35
22.343,42.74
22.359,42.96
22.375,42.94
22.390,42.43
22.406,41.16
22.421,38.84
22.437,35.35
22.453,30.83
22.468,25.66
22.484,20.36
22.500,15.49
22.515,11.43
22.531,8.3
22.546,5.97
22.562,4.04
22.578,2.07
22.593,-0.27
22.609,-3.07
22.625,-6.13
22.640,-9.05
22.656,-11.5
22.671,-13.36
22.687,-14.88
22.703,-16.65
22.718,-19.4
22.734,-23.65
22.750,-29.44
22.765,-36.2
22.781,-42.76
22.796,-47.73
22.812,-50.04
22.828,-49.29
22.843,-46.0
22.859,-41.47
22.875,-37.29
22.890,-34.88
22.906,-34.93
22.921,-37.25
22.937,-40.81
22.953,-44.06
22.968,-45.39
22.984,-43.53
23.000,-37.99
23.015,-29.18
23.031,-18.33
23.046,-7.19
23.062,2.54
23.078,9.66
23.093,13.81
23.109,15.48
23.125,15.72
23.140,15.66
23.156,16.12
23.171,17.36
23.187,19.04
23.203,20.47
23.218,20.86
23.234,19.64
23.250,16.72
23.265,12.44
23.281,7.54
23.296,2.89
23.312,-0.84
23.328,-3.4
23.343,-5.05
23.359,-6.45
23.375,-8.33
23.390,-11.18
23.406,-14.98
23.421,-19.18
23.437,-22.91
23.453,-25.31
23.468,-25.86
23.484,-24.68
23.500,-22.55
23.515,-20.77
23.531,-20.72
23.546,-23.36
23.562,-28.84
23.578,-36.26
23.593,-43.97
23.609,-50.0
23.625,-52.73
23.640,-51.37
23.656,-46.14
23.671,-38.07
23.687,-28.67
23.703,-19.55
23.718,-12.06
23.734,-7.07
23.750,-4.76
23.765,-4.59
23.781,-5.46
23.796,-5.99
23.812,-5.09
23.828,-2.41
23.843,1.48
23.859,5.25
23.875,7.37
23.890,6.67
23.906,2.87
23.921,-3.27
23.937,-10.25
23.953,-16.32
23.968,-20.13
23.984,-21.18
24.000,-20.0
24.015,-17.91
24.031,-16.57
24.046,-17.35
24.062,-20.8
24.078,-26.5
24.093,-33.18
24.109,-39.15
24.125,-42.74
24.140,-42.78
24.156,-38.95
24.171,-31.89
24.187,-23.07
24.203,-14.53
24.218,-8.31
24.234,-5.91
24.250,-7.85
24.265,-13.53
24.281,-21.49
24.296,-29.87
24.312,-37.06
24.328,-41.97
24.343,-44.25
24.359,-44.05
24.375,-41.85
24.390,-38.26
24.406,-33.89
24.421,-29.34
24.437,-25.07
24.453,-21.34
24.468,-18.13
24.484,-15.15
24.500,-12.01
24.515,-8.41
24.531,-4.24
24.546,0.35
24.562,5.02
24.578,9.42
24.593,13.25
24.609,16.36
24.625,18.8
24.640,20.75
24.656,22.47
24.671,24.18
24.687,26.01
24.703,27.98
24.718,29.96
24.734,31.8
24.750,33.35
24.765,34.51
24.781,35.28
24.796,35.66
24.812,35.72
24.828,35.56
24.843,35.26
24.859,34.87
24.875,34.33
24.890,33.43
24.906,31.85
24.921,29.27
24.937,25.51
24.953,20.66
24.968,15.14
24.984,9.57
25.000,4.65
25.015,0.94
25.031,-1.33
25.046,-2.31
25.062,-2.53
25.078,-2.67
25.093,-3.49
25.109,-5.54
25.125,-9.07
25.140,-14.03
25.156,-20.0
25.171,-26.29
25.187,-32.0
25.203,-36.18
25.218,-38.09
25.234,-37.4
25.250,-34.41
25.265,-29.98
25.281,-25.32
25.296,-21.47
25.312,-18.91
25.328,-17.27
25.343,-15.47
25.359,-12.18
25.375,-6.41
25.390,2.08
25.406,12.59
25.421,23.73
25.437,33.8
25.453,41.31
25.468,45.35
25.484,45.81
25.500,43.37
25.515,39.25
25.531,34.87
25.546,31.42
25.562,29.48
25.578,28.9
25.593,28.97
25.609,28.66
25.625,27.08
25.640,23.71
25.656,18.58
25.671,12.18
25.687,5.3
25.703,-1.23
25.718,-6.79
25.734,-11.19
25.750,-14.7
25.765,-18.02
25.781,-21.93
25.796,-27.05
25.812,-33.48
25.828,-40.75
25.843,-47.98
25.859,-54.21
25.875,-58.75
25.890,-61.39
25.906,-62.37
25.921,-62.24
25.937,-61.73
25.953,-61.46
25.968,-61.9
25.984,-63.2
26.000,-65.2
26.015,-67.37
26.031,-68.97
26.046,-69.14
26.062,-67.24
26.078,-62.97
26.093,-56.48
26.109,-48.34
26.125,-39.37
26.140,-30.36
26.156,-21.92
26.171,-14.3
26.187,-7.4
26.203,-0.91
26.218,5.52
26.234,12.1
26.250,18.76
26.265,25.19
26.281,30.97
26.296,35.74
26.312,39.38
26.328,42.0
26.343,43.91
26.359,45.46
26.375,46.94
26.390,48.52
26.406,50.25
26.421,52.11
26.437,54.0
26.453,55.67
26.468,56.8
26.484,56.95
26.500,55.83
26.515,53.34
26.531,49.77
26.546,45.71
26.562,41.91
26.578,38.98
26.593,37.19
26.609,36.37
26.625,35.96
26.640,35.19
26.656,33.32
26.671,29.83
26.687,24.55
26.703,17.64
26.718,9.59
26.734,1.1
26.750,-7.03
26.765,-14.11
26.781,-19.78
26.796,-24.13
26.812,-27.75
26.828,-31.53
26.843,-36.23
26.859,-42.14
26.875,-48.8
26.890,-55.12
26.906,-59.76
26.921,-61.66
26.937,-60.46
26.953,-56.62
26.968,-51.26
26.984,-45.79
27.000,-41.36
27.015,-38.58
27.031,-37.32
27.046,-36.86
27.062,-36.17
27.078,-34.26
27.093,-30.51
27.109,-24.75
27.125,-17.22
27.140,-8.46
27.156,0.87
27.171,9.99
27.187,18.12
27.203,24.54
27.218,28.73
27.234,30.6
27.250,30.59
27.265,29.59
27.281,28.64
27.296,28.62
27.312,29.96
27.328,32.47
27.343,35.64
27.359,38.77
27.375,41.32
27.390,43.05
27.406,43.94
27.421,44.09
27.437,43.51
27.453,42.08
27.468,39.62
27.484,35.96
27.500,31.11
27.515,25.3
27.531,18.96
27.546,12.49
27.562,6.23
27.578,0.24
27.593,-5.64
27.609,-11.79
27.625,-18.71
27.640,-26.79
27.656,-36.13
27.671,-46.31
27.687,-56.35
27.703,-64.83
27.718,-70.28
27.734,-71.69
27.750,-68.84
27.765,-62.43
27.781,-53.87
27.796,-44.81
27.812,-36.74
27.828,-30.63
27.843,-26.87
27.859,-25.33
27.875,-25.5
27.890,-26.65
27.906,-27.93
27.921,-28.58
27.937,-28.0
27.953,-25.95
27.968,-22.56
27.984,-18.22
28.000,-13.47
28.015,-8.76
28.031,-4.34
28.046,-0.25
28.062,3.5
28.078,6.89
28.093,9.77
28.109,11.99
28.125,13.42
28.140,14.06
28.156,14.05
28.171,13.54
28.187,12.62
28.203,11.34
28.218,9.7
28.234,7.78
28.250,5.69
28.265,3.63
28.281,1.74
28.296,0.06
28.312,-1.47
28.328,-3.0
28.343,-4.66
28.359,-6.57
28.375,-8.82
28.390,-11.53
28.406,-14.84
28.421,-18.91
28.437,-23.83
28.453,-29.51
28.468,-35.51
28.484,-41.14
28.500,-45.52
28.515,-47.88
28.531,-47.8
28.546,-45.4
28.562,-41.19
28.578,-35.89
28.593,-30.13
28.609,-24.25
28.625,-18.33
28.640,-12.33
28.656,-6.22
28.671,-0.11
28.687,5.81
28.703,11.31
28.718,16.27
28.734,20.65
28.750,24.47
28.765,27.72
28.781,30.36
28.796,32.34
28.812,33.65
28.828,34.42
28.843,34.8
28.859,35.08
28.875,35.5
28.890,36.19
28.906,37.18
28.921,38.33
28.937,39.45
28.953,40.34
28.968,40.84
28.984,40.92
29.000,40.63
29.015,40.15
29.031,39.77
29.046,39.77
29.062,40.41
29.078,41.81
29.093,43.84
29.109,46.2
29.125,48.45
29.140,50.22
29.156,51.32
29.171,51.86
29.187,52.2
29.203,52.84
29.218,54.27
29.234,56.78
29.250,60.38
29.265,64.79
29.281,69.48
29.296,73.74
29.312,76.84
29.328,78.28
29.343,77.97
29.359,76.37
29.375,74.33
29.390,72.8
29.406,72.39
29.421,73.13
29.437,74.48
29.453,75.67
29.468,75.98
29.484,74.99
29.500,72.6
29.515,68.83
29.531,63.62
29.546,56.76
29.562,47.92
29.578,36.88
29.593,23.64
29.609,8.45
29.625,-8.32
29.640,-26.24
29.656,-44.77
29.671,-63.2
29.687,-80.53
29.703,-95.56
29.718,-107.13
29.734,-114.4
29.750,-117.13
29.765,-115.74
29.781,-111.13
29.796,-104.38
29.812,-96.44
29.828,-87.94
29.843,-79.19
29.859,-70.43
29.875,-61.93
29.890,-54.09
29.906,-47.26
29.921,-41.63
29.937,-37.08
29.953,-33.31
29.968,-29.93
29.984,-26.72
30.000,-23.68
30.015,-20.95
30.031,-18.73
30.046,-17.14
30.062,-16.22
30.078,-15.99
30.093,-16.54
30.109,-18.03
30.125,-20.68
30.140,-24.58
30.156,-29.63
30.171,-35.44
30.187,-41.38
30.203,-46.76
30.218,-50.87
30.234,-53.25
30.250,-53.77
30.265,-52.63
30.281,-50.22
30.296,-46.89
30.312,-42.79
30.328,-37.8
30.343,-31.75
30.359,-24.58
30.375,-16.57
30.390,-8.24
30.406,-0.27
30.421,6.82
30.437,12.71
30.453,17.37
30.468,20.92
30.484,23.51
30.500,25.24
30.515,26.23
30.531,26.57
30.546,26.48
30.562,26.17
30.578,25.94
30.593,25.98
30.609,26.42
30.625,27.25
30.640,28.35
30.656,29.48
30.671,30.36
30.687,30.79
30.703,30.65
30.718,30.02
30.734,29.1
30.750,28.11
30.765,27.21
30.781,26.44
30.796,25.74
30.812,24.94
30.828,23.93
30.843,22.72
30.859,21.39
30.875,20.13
30.890,19.06
30.906,18.2
30.921,17.45
30.937,16.63
30.953,15.59
30.968,14.26
30.984,12.65
31.000,10.78
31.015,8.69
31.031,6.47
31.046,4.32
31.062,2.66
31.078,2.12
31.093,3.43
31.109,7.25
31.125,13.97
31.140,23.53
31.156,35.41
31.171,48.66
31.187,62.07
31.203,74.38
31.218,84.56
31.234,91.9
31.250,96.18
31.265,97.58
31.281,96.62
31.296,94.0
31.312,90.45
31.328,86.64
31.343,83.06
31.359,79.85
31.375,76.84
31.390,73.6
31.406,69.7
31.421,64.95
31.437,59.64
31.453,54.49
31.468,50.39
31.484,47.98
31.500,47.42
31.515,48.24
31.531,49.53
31.546,50.38
31.562,50.15
31.578,48.71
31.593,46.38
31.609,43.77
31.625,41.41
31.640,39.59
31.656,38.17
31.671,36.71
31.687,34.6
31.703,31.36
31.718,26.88
31.734,21.46
31.750,15.64
31.765,10.02
31.781,4.9
31.796,0.21
31.812,-4.55
31.828,-10.04
31.843,-16.72
31.859,-24.6
31.875,-33.07
31.890,-41.03
31.906,-47.26
31.921,-50.77
31.937,-51.18
31.953,-48.85
31.968,-44.61
31.984,-39.45
32.000,-34.1
32.015,-28.83
32.031,-23.56
32.046,-18.15
32.062,-12.74
32.078,-7.85
32.093,-4.25
32.109,-2.57
32.125,-3.0
32.140,-5.17
32.156,-8.32
32.171,-11.61
32.187,-14.52
32.203,-16.87
32.218,-18.81
32.234,-20.59
32.250,-22.3
32.265,-23.84
32.281,-24.99
32.296,-25.58
32.312,-25.63
32.328,-25.43
32.343,-25.42
32.359,-26.01
32.375,-27.38
32.390,-29.47
32.406,-31.97
32.421,-34.5
32.437,-36.81
32.453,-38.82
32.468,-40.63
32.484,-42.34
32.500,-44.0
32.515,-45.52
32.531,-46.78
32.546,-47.77
32.562,-48.58
32.578,-49.37
32.593,-50.29
32.609,-51.35
32.625,-52.42
32.640,-53.32
32.656,-53.96
32.671,-54.44
32.687,-55.04
32.703,-56.03
32.718,-57.53
32.734,-59.33
32.750,-60.89
32.765,-61.47
32.781,-60.38
32.796,-57.19
32.812,-51.92
32.828,-45.0
32.843,-37.16
32.859,-29.21
32.875,-21.85
32.890,-15.53
32.906,-10.43
32.921,-6.47
32.937,-3.37
32.953,-0.83
32.968,1.46
32.984,3.68
33.000,5.89
33.015,7.98
33.031,9.79
33.046,11.05
33.062,11.58
33.078,11.27
33.093,10.18
33.109,8.61
33.125,7.05
33.140,6.08
33.156,6.17
33.171,7.52
33.187,9.89
33.203,12.69
33.218,15.18
33.234,16.75
33.250,17.13
33.265,16.38
33.281,14.78
33.296,12.63
33.312,10.09
33.328,7.17
33.343,3.86
33.359,0.22
33.375,-3.58
33.390,-7.29
33.406,-10.67
33.421,-13.55
33.437,-15.8
33.453,-17.38
33.468,-18.27
33.484,-18.5
33.500,-18.2
33.515,-17.57
33.531,-16.87
33.546,-16.41
33.562,-16.45
33.578,-17.18
33.593,-18.61
33.609,-20.55
33.625,-22.56
33.640,-24.06
33.656,-24.43
33.671,-23.26
33.687,-20.37
33.703,-15.92
33.718,-10.26
33.734,-3.8
33.750,3.13
33.765,10.33
33.781,17.65
33.796,25.01
33.812,32.31
33.828,39.46
33.843,46.34
33.859,52.78
33.875,58.48
33.890,63.08
33.906,66.19
33.921,67.6
33.937,67.38
33.953,65.92
33.968,63.81
33.984,61.66
34.000,59.86
34.015,58.48
34.031,57.29
34.046,56.01
34.062,54.4
34.078,52.39
34.093,50.06
34.109,47.52
34.125,44.77
34.140,41.68
34.156,38.07
34.171,33.79
34.187,28.91
34.203,23.63
34.218,18.23
34.234,12.94
34.250,7.78
34.265,2.62
34.281,-2.7
34.296,-8.19
34.312,-13.63
34.328,-18.63
34.343,-22.81
34.359,-26.01
34.375,-28.38
34.390,-30.24
34.406,-31.89
34.421,-33.47
34.437,-34.93
34.453,-36.18
34.468,-37.29
34.484,-38.54
34.500,-40.33
34.515,-42.94
34.531,-46.38
34.546,-50.25
34.562,-53.89
34.578,-56.55
34.593,-57.64
34.609,-56.94
34.625,-54.58
34.640,-50.99
34.656,-46.7
34.671,-42.18
34.687,-37.71
34.703,-33.36
34.718,-29.08
34.734,-24.82
34.750,-20.63
34.765,-16.62
34.781,-12.93
34.796,-9.59
34.812,-6.5
34.828,-3.55
34.843,-0.63
34.859,2.24
34.875,4.98
34.890,7.5
34.906,9.75
34.921,11.75
34.937,13.52
34.953,15.07
34.968,16.34
34.984,17.23
35.000,17.63
35.015,17.43
35.031,16.54
35.046,14.95
35.062,12.77
35.078,10.2
35.093,7.55
35.109,5.14
35.125,3.14
35.140,1.49
35.156,0.01
35.171,-1.47
35.187,-2.99
35.203,-4.41
35.218,-5.48
35.234,-5.98
35.250,-5.88
35.265,-5.37
35.281,-4.77
35.296,-4.47
35.312,-4.82
35.328,-6.07
35.343,-8.34
35.359,-11.56
35.375,-15.48
35.390,-19.71
35.406,-23.73
35.421,-27.07
35.437,-29.33
35.453,-30.28
35.468,-29.83
35.484,-28.04
35.500,-25.1
35.515,-21.32
35.531,-17.07
35.546,-12.73
35.562,-8.58
35.578,-4.77
35.593,-1.31
35.609,1.81
35.625,4.64
35.640,7.18
35.656,9.38
35.671,11.23
35.687,12.72
35.703,13.89
35.718,14.83
35.734,15.63
35.750,16.41
35.765,17.26
35.781,18.22
35.796,19.23
35.812,20.2
35.828,20.96
35.843,21.37
35.859,21.37
35.875,20.92
35.890,20.02
35.906,18.72
35.921,17.12
35.937,15.36
35.953,13.7
35.968,12.37
35.984,11.53
36.000,11.17
36.015,11.17
36.031,11.24
36.046,11.1
36.062,10.51
36.078,9.32
36.093,7.56
36.109,5.3
36.125,2.68
36.140,-0.14
36.156,-3.02
36.171,-5.89
36.187,-8.72
36.203,-11.58
36.218,-14.61
36.234,-17.95
36.250,-21.7
36.265,-25.8
36.281,-29.95
36.296,-33.64
36.312,-36.28
36.328,-37.33
36.343,-36.48
36.359,-33.74
36.375,-29.5
36.390,-24.29
36.406,-18.72
36.421,-13.2
36.437,-7.99
36.453,-3.13
36.468,1.4
36.484,5.62
36.500,9.52
36.515,13.03
36.531,16.08
36.546,18.66
36.562,20.81
36.578,22.57
36.593,23.98
36.609,25.05
36.625,25.76
36.640,26.13
36.656,26.25
36.671,26.22
36.687,26.23
36.703,26.41
36.718,26.9
36.734,27.74
36.750,28.8
36.765,29.8
36.781,30.31
36.796,29.89
36.812,28.22
36.828,25.24
36.843,21.16
36.859,16.41
36.875,11.46
36.890,6.69
36.906,2.23
36.921,-2.06
36.937,-6.46
36.953,-11.27
36.968,-16.49
36.984,-21.78
37.000,-26.44
37.015,-29.69
37.031,-31.01
37.046,-30.45
37.062,-28.67
37.078,-26.72
37.093,-25.68
37.109,-26.28
37.125,-28.71
37.140,-32.59
37.156,-37.19
37.171,-41.59
37.187,-44.94
37.203,-46.57
37.218,-46.09
37.234,-43.43
37.250,-38.75
37.265,-32.29
37.281,-24.26
37.296,-14.83
37.312,-4.14
37.328,7.51
37.343,19.6
37.359,31.45
37.375,42.3
37.390,51.57
37.406,58.82
37.421,63.79
37.437,66.39
37.453,66.69
37.468,65.07
37.484,62.21
37.500,58.89
37.515,55.84
37.531,53.43
37.546,51.6
37.562,50.13
37.578,48.86
37.593,47.89
37.609,47.52
37.625,48.05
37.640,49.46
37.656,51.18
37.671,52.09
37.687,50.8
37.703,46.1
37.718,37.72
37.734,26.68
37.750,15.35
37.765,6.73
37.781,3.33
37.796,6.0
37.812,13.47
37.828,22.63
37.843,29.67
37.859,31.55
37.875,26.85
37.890,15.99
37.906,0.61
37.921,-17.27
37.937,-35.89
37.953,-53.99
37.968,-70.54
37.984,-84.59
38.000,-95.3
38.015,-102.04
38.031,-104.74
38.046,-103.93
38.062,-100.7
38.078,-96.25
38.093,-91.51
38.109,-86.87
38.125,-82.11
38.140,-76.69
38.156,-70.16
38.171,-62.45
38.187,-54.05
38.203,-45.91
38.218,-39.06
38.234,-34.26
38.250,-31.65
38.265,-30.78
38.281,-30.7
38.296,-30.39
38.312,-29.1
38.328,-26.59
38.343,-23.13
38.359,-19.26
38.375,-15.54
38.390,-12.36
38.406,-9.89
38.421,-8.15
38.437,-7.01
38.453,-6.24
38.468,-5.52
38.484,-4.51
38.500,-3.0
38.515,-0.97
38.531,1.36
38.546,3.57
38.562,5.26
38.578,6.18
38.593,6.24
38.609,5.54
38.625,4.24
38.640,2.62
38.656,0.99
38.671,-0.2
38.687,-0.52
38.703,0.35
38.718,2.41
38.734,5.33
38.750,8.49
38.765,11.17
38.781,12.71
38.796,12.72
38.812,11.03
38.828,7.76
38.843,3.27
38.859,-1.89
38.875,-6.94
38.890,-11.05
38.906,-13.39
38.921,-13.41
38.937,-10.89
38.953,-6.07
38.968,0.46
38.984,7.9
39.000,15.44
39.015,22.46
39.031,28.57
39.046,33.68
39.062,37.81
39.078,41.07
39.093,43.48
39.109,45.01
39.125,45.63
39.140,45.43
39.156,44.69
39.171,43.79
39.187,43.08
39.203,42.74
39.218,42.68
39.234,42.64
39.250,42.36
39.265,41.72
39.281,40.81
39.296,39.83
39.312,38.93
39.328,38.11
39.343,37.19
39.359,35.95
39.375,34.21
39.390,31.97
39.406,29.33
39.421,26.49
39.437,23.56
39.453,20.59
39.468,17.59
39.484,14.45
39.500,11.12
39.515,7.57
39.531,3.8
39.546,-0.1
39.562,-3.96
39.578,-7.64
39.593,-11.11
39.609,-14.48
39.625,-18.07
39.640,-22.22
39.656,-27.21
39.671,-33.08
39.687,-39.64
39.703,-46.45
39.718,-52.95
39.734,-58.51
39.750,-62.57
39.765,-64.7
39.781,-64.62
39.796,-62.34
39.812,-58.08
39.828,-52.24
39.843,-45.27
39.859,-37.67
39.875,-29.88
39.890,-22.28
39.906,-15.22
39.921,-8.96
39.937,-3.7
39.953,0.49
39.968,3.62
39.984,5.82
40.000,7.34
40.015,8.49
40.031,9.64
40.046,11.03
40.062,12.74
40.078,14.67
40.093,16.61
40.109,18.33
40.125,19.75
40.140,20.97
40.156,22.19
40.171,23.59
40.187,25.17
40.203,26.74
40.218,28.03
40.234,28.82
40.250,29.08
40.265,28.95
40.281,28.67
40.296,28.41
40.312,28.23
40.328,28.04
40.343,27.7
40.359,27.13
40.375,26.26
40.390,25.04
40.406,23.43
40.421,21.29
40.437,18.53
40.453,15.09
40.468,11.04
40.484,6.49
40.500,1.59
40.515,-3.61
40.531,-9.15
40.546,-15.11
40.562,-21.46
40.578,-27.92
40.593,-33.98
40.609,-38.97
40.625,-42.29
40.640,-43.55
40.656,-42.67
40.671,-39.92
40.687,-35.73
40.703,-30.56
40.718,-24.81
40.734,-18.71
40.750,-12.47
40.765,-6.26
40.781,-0.26
40.796,5.33
40.812,10.3
40.828,14.46
40.843,17.68
40.859,19.99
40.875,21.57
40.890,22.77
40.906,24.01
40.921,25.72
40.937,28.24
40.953,31.78
40.968,36.46
40.984,42.24
41.000,48.92
41.015,56.15
41.031,63.45
41.046,70.27
41.062,76.15
41.078,80.76
41.093,83.93
41.109,85.57
41.125,85.53
41.140,83.6
41.156,79.46
41.171,72.91
41.187,63.94
41.203,52.9
41.218,40.43
41.234,27.38
41.250,14.65
41.265,2.99
41.281,-7.07
41.296,-15.38
41.312,-22.11
41.328,-27.72
41.343,-32.81
41.359,-37.92
41.375,-43.33
41.390,-49.01
41.406,-54.54
41.421,-59.29
41.437,-62.57
41.453,-63.77
41.468,-62.54
41.484,-58.85
41.500,-52.98
41.515,-45.54
41.531,-37.23
41.546,-28.81
41.562,-20.85
41.578,-13.73
41.593,-7.59
41.609,-2.42
41.625,1.88
41.640,5.41
41.656,8.25
41.671,10.53
41.687,12.35
41.703,13.85
41.718,15.13
41.734,16.29
41.750,17.37
41.765,18.4
41.781,19.34
41.796,20.14
41.812,20.73
41.828,21.01
41.843,20.97
41.859,20.64
41.875,20.13
41.890,19.61
41.906,19.27
41.921,19.37
41.937,20.06
41.953,21.37
41.968,23.05
41.984,24.49
42.000,24.86
42.015,23.34
42.031,19.41
42.046,13.08
42.062,4.91
42.078,-4.17
42.093,-13.07
42.109,-20.86
42.125,-26.87
42.140,-30.8
42.156,-32.72
42.171,-33.07
42.187,-32.56
42.203,-31.95
42.218,-31.88
42.234,-32.62
42.250,-33.97
42.265,-35.35
42.281,-35.96
42.296,-35.13
42.312,-32.52
42.328,-28.35
42.343,-23.21
42.359,-18.0
42.375,-13.52
42.390,-10.33
42.406,-8.53
42.421,-7.84
42.437,-7.71
42.453,-7.56
42.468,-7.04
42.484,-6.17
42.500,-5.4
42.515,-5.46
42.531,-7.09
42.546,-10.55
42.562,-15.36
42.578,-20.26
42.593,-23.64
42.609,-24.17
42.625,-21.42
42.640,-16.16
42.656,-10.02
42.671,-4.8
42.687,-1.71
42.703,-0.89
42.718,-1.53
42.734,-2.46
42.750,-2.87
42.765,-2.8
42.781,-3.17
42.796,-5.35
42.812,-10.47
42.828,-18.89
42.843,-30.01
42.859,-42.48
42.875,-54.62
42.890,-64.8
42.906,-71.69
42.921,-74.33
42.937,-72.34
42.953,-66.13
42.968,-57.05
42.984,-47.24
43.000,-38.88
43.015,-33.22
43.031,-29.97
43.046,-27.31
43.062,-22.95
43.078,-15.47
43.093,-5.34
43.109,5.14
43.125,12.95
43.140,15.91
43.156,13.74
43.171,8.1
43.187,1.65
43.203,-3.3
43.218,-5.77
43.234,-6.19
43.250,-5.83
43.265,-5.84
43.281,-6.68
43.296,-8.0
43.312,-9.12
43.328,-9.49
43.343,-9.06
43.359,-8.2
43.375,-7.32
43.390,-6.4
43.406,-4.89
43.421,-1.75
43.437,3.99
43.453,12.64
43.468,23.51
43.484,34.94
43.500,44.77
43.515,51.14
43.531,53.12
43.546,51.07
43.562,46.48
43.578,41.44
43.593,37.9
43.609,37.02
43.625,38.88
43.640,42.52
43.656,46.49
43.671,49.34
43.687,50.19
43.703,48.88
43.718,46.01
43.734,42.63
43.750,39.79
43.765,38.09
43.781,37.43
43.796,36.99
43.812,35.72
43.828,32.9
43.843,28.74
43.859,24.52
43.875,22.1
43.890,23.14
43.906,28.25
43.921,36.69
43.937,46.65
43.953,55.98
43.968,63.13
43.984,67.53
44.000,69.52
44.015,69.86
44.031,69.27
44.046,68.07
44.062,66.37
44.078,64.14
44.093,61.45
44.109,58.51
44.125,55.5
44.140,52.46
44.156,49.23
44.171,45.52
44.187,41.05
44.203,35.71
44.218,29.64
44.234,23.21
44.250,16.92
44.265,11.25
44.281,6.55
44.296,2.9
44.312,0.17
44.328,-1.99
44.343,-3.92
44.359,-5.93
44.375,-8.15
44.390,-10.49
44.406,-12.7
44.421,-14.43
44.437,-15.3
44.453,-15.01
44.468,-13.52
44.484,-11.03
44.500,-8.02
44.515,-5.14
44.531,-3.06
44.546,-2.26
44.562,-2.99
44.578,-5.18
44.593,-8.55
44.609,-12.65
44.625,-16.97
44.640,-21.03
44.656,-24.4
44.671,-26.82
44.687,-28.2
44.703,-28.69
44.718,-28.54
44.734,-28.12
44.750,-27.75
44.765,-27.63
44.781,-27.76
44.796,-27.9
44.812,-27.66
44.828,-26.56
44.843,-24.23
44.859,-20.65
44.875,-16.15
44.890,-11.42
44.906,-7.29
44.921,-4.51
44.937,-3.49
44.953,-4.22
44.968,-6.31
44.984,-9.18
45.000,-12.28
45.015,-15.24
45.031,-17.94
45.046,-20.45
45.062,-22.83
45.078,-25.03
45.093,-26.75
45.109,-27.51
45.125,-26.77
45.140,-24.19
45.156,-19.81
45.171,-14.1
45.187,-7.94
45.203,-2.4
45.218,1.49
45.234,3.01
45.250,1.83
45.265,-1.94
45.281,-7.88
45.296,-15.34
45.312,-23.6
45.328,-31.86
45.343,-39.39
45.359,-45.54
45.375,-49.9
45.390,-52.43
45.406,-53.43
45.421,-53.5
45.437,-53.28
45.453,-53.33
45.468,-53.93
45.484,-55.06
45.500,-56.49
45.515,-57.85
45.531,-58.75
45.546,-58.84
45.562,-57.92
45.578,-55.98
45.593,-53.24
45.609,-50.06
45.625,-46.84
45.640,-43.84
45.656,-41.11
45.671,-38.51
45.687,-35.74
45.703,-32.59
45.718,-28.93
45.734,-24.75
45.750,-20.09
45.765,-14.97
45.781,-9.35
45.796,-3.26
45.812,3.15
45.828,9.56
45.843,15.54
45.859,20.7
45.875,24.87
45.890,28.16
45.906,30.94
45.921,33.55
45.937,36.19
45.953,38.78
45.968,41.05
45.984,42.7
46.000,43.53
46.015,43.55
46.031,42.85
46.046,41.56
46.062,39.66
46.078,37.01
46.093,33.39
46.109,28.73
46.125,23.14
46.140,17.0
46.156,10.84
46.171,5.14
46.187,0.27
46.203,-3.65
46.218,-6.59
46.234,-8.54
46.250,-9.38
46.265,-8.98
46.281,-7.23
46.296,-4.27
46.312,-0.49
46.328,3.53
46.343,7.18
46.359,10.04
46.375,11.99
46.390,13.14
46.406,13.76
46.421,14.07
46.437,14.2
46.453,14.12
46.468,13.81
46.484,13.28
46.500,12.65
46.515,12.12
46.531,11.83
46.546,11.81
46.562,11.81
46.578,11.45
46.593,10.33
46.609,8.26
46.625,5.31
46.640,1.86
46.656,-1.62
46.671,-4.72
46.687,-7.28
46.703,-9.35
46.718,-11.07
46.734,-12.6
46.750,-14.03
46.765,-15.38
46.781,-16.7
46.796,-18.04
46.812,-19.41
46.828,-20.7
46.843,-21.69
46.859,-22.05
46.875,-21.56
46.890,-20.13
46.906,-17.89
46.921,-15.05
46.937,-11.85
46.953,-8.5
46.968,-5.25
46.984,-2.47
47.000,-0.6
47.015,-0.02
47.031,-0.87
47.046,-2.91
47.062,-5.63
47.078,-8.47
47.093,-11.03
47.109,-13.12
47.125,-14.75
47.140,-15.9
47.156,-16.47
47.171,-16.23
47.187,-14.94
47.203,-12.54
47.218,-9.16
47.234,-5.09
47.250,-0.69
47.265,3.67
47.281,7.62
47.296,10.79
47.312,12.83
47.328,13.44
47.343,12.46
47.359,9.92
47.375,6.1
47.390,1.51
47.406,-3.2
47.421,-7.34
47.437,-10.32
47.453,-11.74
47.468,-11.47
47.484,-9.65
47.500,-6.63
47.515,-2.84
47.531,1.28
47.546,5.4
47.562,9.3
47.578,12.81
47.593,15.77
47.609,18.01
47.625,19.32
47.640,19.6
47.656,18.8
47.671,17.06
47.687,14.56
47.703,11.52
47.718,8.0
47.734,3.94
47.750,-0.87
47.765,-6.63
47.781,-13.4
47.796,-21.05
47.812,-29.22
47.828,-37.47
47.843,-45.28
47.859,-52.17
47.875,-57.61
47.890,-61.05
47.906,-61.84
47.921,-59.48
47.937,-53.73
47.953,-44.89
47.968,-33.84
47.984,-21.91
48.000,-10.62
48.015,-1.31
48.031,5.14
48.046,8.45
48.062,8.98
48.078,7.46
48.093,4.82
48.109,1.95
48.125,-0.49
48.140,-2.08
48.156,-2.75
48.171,-2.59
48.187,-1.77
48.203,-0.39
48.218,1.55
48.234,4.11
48.250,7.34
48.265,11.21
48.281,15.53
48.296,19.93
48.312,23.88
48.328,26.79
48.343,28.15
48.359,27.7
48.375,25.54
48.390,22.08
48.406,17.95
48.421,13.75
48.437,9.83
48.453,6.27
48.468,3.0
48.484,-0.08
48.500,-2.91
48.515,-5.31
48.531,-7.0
48.546,-7.87
48.562,-7.96
48.578,-7.54
48.593,-6.95
48.609,-6.56
48.625,-6.66
48.640,-7.4
48.656,-8.73
48.671,-10.38
48.687,-11.9
48.703,-12.74
48.718,-12.39
48.734,-10.58
48.750,-7.26
48.765,-2.67
48.781,2.85
48.796,8.85
48.812,14.91
48.828,20.6
48.843,25.55
48.859,29.42
48.875,32.05
48.890,33.44
48.906,33.73
48.921,33.14
48.937,31.86
48.953,29.99
48.968,27.56
48.984,24.65
49.000,21.45
49.015,18.26
49.031,15.41
49.046,13.12
49.062,11.45
49.078,10.29
49.093,9.44
49.109,8.71
49.125,7.94
49.140,7.04
49.156,5.92
49.171,4.49
49.187,2.73
49.203,0.72
49.218,-1.27
49.234,-2.87
49.250,-3.73
49.265,-3.72
49.281,-3.07
49.296,-2.27
49.312,-1.99
49.328,-2.81
49.343,-5.1
49.359,-8.85
49.375,-13.79
49.390,-19.43
49.406,-25.13
49.421,-30.21
49.437,-33.95
49.453,-35.72
49.468,-35.09
49.484,-31.97
49.500,-26.68
49.515,-19.85
49.531,-12.23
49.546,-4.49
49.562,2.84
49.578,9.49
49.593,15.35
49.609,20.41
49.625,24.72
49.640,28.36
49.656,31.39
49.671,33.89
49.687,35.98
49.703,37.72
49.718,39.17
49.734,40.26
49.750,40.83
49.765,40.69
49.781,39.68
49.796,37.8
49.812,35.22
49.828,32.15
49.843,28.79
49.859,25.2
49.875,21.31
49.890,17.04
49.906,12.36
49.921,7.38
49.937,2.36
49.953,-2.42
49.968,-6.75
49.984,-10.56
50.000,-13.95
50.015,-17.16
50.031,-20.48
50.046,-24.16
50.062,-28.35
50.078,-32.99
50.093,-37.85
50.109,-42.51
50.125,-46.46
50.140,-49.15
50.156,-50.13
50.171,-49.13
50.187,-46.11
50.203,-41.28
50.218,-35.07
50.234,-27.96
50.250,-20.34
50.265,-12.38
50.281,-4.07
50.296,4.62
50.312,13.52
50.328,22.17
50.343,29.86
50.359,35.92
50.375,39.93
50.390,41.86
50.406,42.03
50.421,40.8
50.437,38.36
50.453,34.62
50.468,29.36
50.484,22.43
50.500,14.1
50.515,5.12
50.531,-3.46
50.546,-10.59
50.562,-15.58
50.578,-18.27
50.593,-19.01
50.609,-18.55
50.625,-17.74
50.640,-17.38
50.656,-18.0
50.671,-19.88
50.687,-22.99
50.703,-27.08
50.718,-31.62
50.734,-35.93
50.750,-39.25
50.765,-40.89
50.781,-40.45
50.796,-37.98
50.812,-34.02
50.828,-29.39
50.843,-24.95
50.859,-21.27
50.875,-18.45
50.890,-16.11
50.906,-13.59
50.921,-10.26
50.937,-5.77
50.953,-0.24
50.968,5.84
50.984,11.78
51.000,16.97
51.015,21.08
51.031,24.1
51.046,26.29
51.062,27.94
51.078,29.18
51.093,29.89
51.109,29.78
51.125,28.6
51.140,26.31
51.156,23.23
51.171,19.83
51.187,16.58
51.203,13.67
51.218,10.95
51.234,8.19
51.250,5.26
51.265,2.38
51.281,0.11
51.296,-0.94
51.312,-0.45
51.328,1.35
51.343,3.68
51.359,5.56
51.375,6.29
51.390,5.76
51.406,4.53
51.421,3.55
51.437,3.74
51.453,5.58
51.468,8.95
51.484,13.19
51.500,17.38
51.515,20.62
51.531,22.27
51.546,22.08
51.562,20.1
51.578,16.67
51.593,12.22
51.609,7.27
51.625,2.3
51.640,-2.23
51.656,-5.9
51.671,-8.46
51.687,-9.79
51.703,-10.0
51.718,-9.42
51.734,-8.44
51.750,-7.37
51.765,-6.27
51.781,-4.93
51.796,-3.08
51.812,-0.6
51.828,2.3
51.843,5.12
51.859,7.31
51.875,8.57
51.890,8.99
51.906,9.01
51.921,9.11
51.937,9.55
51.953,10.22
51.968,10.74
51.984,10.71
52.000,9.95
52.015,8.62
52.031,7.08
52.046,5.71
52.062,4.71
52.078,4.14
52.093,3.97
52.109,4.22
52.125,5.02
52.140,6.56
52.156,8.91
52.171,11.83
52.187,14.8
52.203,17.14
52.218,18.25
52.234,17.81
52.250,15.95
52.265,13.12
52.281,9.94
52.296,6.95
52.312,4.42
52.328,2.32
52.343,0.34
52.359,-1.92
52.375,-4.8
52.390,-8.35
52.406,-12.29
52.421,-15.97
52.437,-18.69
52.453,-19.89
52.468,-19.41
52.484,-17.42
52.500,-14.35
52.515,-10.68
52.531,-6.92
52.546,-3.67
52.562,-1.6
52.578,-1.17
52.593,-2.29
52.609,-4.07
52.625,-5.01
52.640,-3.65
52.656,0.68
52.671,7.4
52.687,14.88
52.703,21.27
52.718,25.35
52.734,27.08
52.750,27.3
52.765,27.11
52.781,27.14
52.796,27.34
52.812,27.19
52.828,26.31
52.843,24.73
52.859,22.97
52.875,21.57
52.890,20.79
52.906,20.39
52.921,19.79
52.937,18.42
52.953,16.02
52.968,12.8
52.984,9.25
53.000,5.89
53.015,2.99
53.031,0.49
53.046,-1.86
53.062,-4.33
53.078,-7.04
53.093,-10.05
53.109,-13.31
53.125,-16.8
53.140,-20.44
53.156,-24.07
53.171,-27.36
53.187,-29.89
53.203,-31.3
53.218,-31.38
53.234,-30.16
53.250,-27.82
53.265,-24.6
53.281,-20.65
53.296,-15.98
53.312,-10.53
53.328,-4.32
53.343,2.48
53.359,9.41
53.375,15.89
53.390,21.3
53.406,25.19
53.421,27.45
53.437,28.26
53.453,28.07
53.468,27.32
53.484,26.31
53.500,25.12
53.515,23.6
53.531,21.52
53.546,18.69
53.562,15.04
53.578,10.63
53.593,5.61
53.609,0.27
53.625,-5.01
53.640,-9.76
53.656,-13.58
53.671,-16.16
53.687,-17.33
53.703,-17.12
53.718,-15.65
53.734,-13.13
53.750,-9.81
53.765,-6.02
53.781,-2.15
53.796,1.4
53.812,4.29
53.828,6.39
53.843,7.87
53.859,9.12
53.875,10.62
53.890,12.71
53.906,15.51
53.921,18.86
53.937,22.51
53.953,26.18
53.968,29.71
53.984,33.0
54.000,35.89
54.015,38.16
54.031,39.45
54.046,39.45
54.062,38.0
54.078,35.21
54.093,31.44
54.109,27.14
54.125,22.77
54.140,18.57
54.156,14.62
54.171,10.78
54.187,6.87
54.203,2.71
54.218,-1.89
54.234,-7.07
54.250,-12.96
54.265,-19.57
54.281,-26.72
54.296,-33.9
54.312,-40.3
54.328,-44.99
54.343,-47.22
54.359,-46.67
54.375,-43.61
54.390,-38.77
54.406,-32.97
54.421,-26.88
54.437,-20.88
54.453,-15.16
54.468,-9.93
54.484,-5.48
54.500,-2.12
54.515,0.04
54.531,1.21
54.546,1.9
54.562,2.68
54.578,3.92
54.593,5.68
54.609,7.77
54.625,9.96
54.640,12.16
54.656,14.48
54.671,17.06
54.687,19.97
54.703,23.08
54.718,26.11
54.734,28.75
54.750,30.68
54.765,31.69
54.781,31.66
54.796,30.5
54.812,28.23
54.828,24.96
54.843,20.92
54.859,16.35
54.875,11.53
54.890,6.67
54.906,1.93
54.921,-2.55
54.937,-6.66
54.953,-10.33
54.968,-13.51
54.984,-16.21
55.000,-18.54
55.015,-20.64
55.031,-22.67
55.046,-24.7
55.062,-26.69
55.078,-28.49
55.093,-29.89
55.109,-30.74
55.125,-31.01
55.140,-30.77
55.156,-30.23
55.171,-29.64
55.187,-29.18
55.203,-28.94
55.218,-28.81
55.234,-28.5
55.250,-27.61
55.265,-25.76
55.281,-22.72
55.296,-18.51
55.312,-13.44
55.328,-7.98
55.343,-2.6
55.359,2.4
55.375,7.01
55.390,11.27
55.406,15.23
55.421,18.73
55.437,21.49
55.453,23.2
55.468,23.78
55.484,23.44
55.500,22.6
55.515,21.73
55.531,21.18
55.546,21.1
55.562,21.47
55.578,22.14
55.593,22.94
55.609,23.58
55.625,23.61
55.640,22.39
55.656,19.23
55.671,13.7
55.687,5.91
55.703,-3.35
55.718,-12.89
55.734,-21.55
55.750,-28.72
55.765,-34.5
55.781,-39.49
55.796,-44.18
55.812,-48.49
55.828,-51.65
55.843,-52.6
55.859,-50.74
55.875,-46.38
55.890,-40.86
55.906,-35.93
55.921,-32.96
55.937,-32.31
55.953,-33.26
55.968,-34.49
55.984,-34.78
56.000,-33.6
56.015,-31.14
56.031,-28.07
56.046,-25.1
56.062,-22.62
56.078,-20.64
56.093,-18.92
56.109,-17.22
56.125,-15.5
56.140,-13.9
56.156,-12.62
56.171,-11.73
56.187,-11.11
56.203,-10.41
56.218,-9.29
56.234,-7.52
56.250,-5.11
56.265,-2.37
56.281,0.26
56.296,2.32
56.312,3.54
56.328,3.93
56.343,3.69
56.359,3.16
56.375,2.61
56.390,2.08
56.406,1.42
56.421,0.39
56.437,-1.19
56.453,-3.22
56.468,-5.37
56.484,-7.15
56.500,-8.17
56.515,-8.37
56.531,-8.02
56.546,-7.66
56.562,-7.77
56.578,-8.56
56.593,-9.91
56.609,-11.45
56.625,-12.83
56.640,-13.91
56.656,-14.86
56.671,-16.01
56.687,-17.67
56.703,-19.92
56.718,-22.6
56.734,-25.29
56.750,-27.52
56.765,-28.94
56.781,-29.37
56.796,-28.85
56.812,-27.51
56.828,-25.46
56.843,-22.86
56.859,-19.86
56.875,-16.74
56.890,-13.86
56.906,-11.61
56.921,-10.14
56.937,-9.28
56.953,-8.59
56.968,-7.58
56.984,-6.06
57.000,-4.28
57.015,-2.78
57.031,-2.11
57.046,-2.41
57.062,-3.3
57.078,-4.04
57.093,-3.92
57.109,-2.64
57.125,-0.4
57.140,2.18
57.156,4.42
57.171,5.86
57.187,6.34
57.203,6.0
57.218,5.09
57.234,3.88
57.250,2.58
57.265,1.38
57.281,0.4
57.296,-0.21
57.312,-0.36
57.328,0.04
57.343,1.04
57.359,2.65
57.375,4.75
57.390,7.15
57.406,9.51
57.421,11.41
57.437,12.46
57.453,12.32
57.468,10.85
57.484,8.05
57.500,4.13
57.515,-0.53
57.531,-5.47
57.546,-10.09
57.562,-13.86
57.578,-16.3
57.593,-17.17
57.609,-16.53
57.625,-14.7
57.640,-12.16
57.656,-9.39
57.671,-6.71
57.687,-4.17
57.703,-1.62
57.718,1.25
57.734,4.71
57.750,8.87
57.765,13.54
57.781,18.32
57.796,22.62
57.812,25.88
57.828,27.8
57.843,28.4
57.859,28.07
57.875,27.42
57.890,27.06
57.906,27.37
57.921,28.35
57.937,29.63
57.953,30.55
57.968,30.43
57.984,28.69
58.000,25.09
58.015,19.76
58.031,13.14
58.046,5.81
58.062,-1.67
58.078,-8.86
58.093,-15.52
58.109,-21.55
58.125,-26.88
58.140,-31.46
58.156,-35.26
58.171,-38.29
58.187,-40.61
58.203,-42.29
58.218,-43.38
58.234,-43.89
58.250,-43.85
58.265,-43.42
58.281,-42.86
58.296,-42.52
58.312,-42.62
58.328,-43.1
58.343,-43.52
58.359,-43.23
58.375,-41.57
58.390,-38.12
58.406,-32.9
58.421,-26.22
58.437,-18.66
58.453,-10.79
58.468,-3.11
58.484,3.96
58.500,10.13
58.515,15.22
58.531,19.14
58.546,21.98
58.562,23.89
58.578,25.12
58.593,25.88
58.609,26.42
58.625,26.95
58.640,27.66
58.656,28.72
58.671,30.14
58.687,31.84
58.703,33.64
58.718,35.31
58.734,36.62
58.750,37.41
58.765,37.46
58.781,36.56
58.796,34.53
58.812,31.26
58.828,26.83
58.843,21.52
58.859,15.76
58.875,10.02
58.890,4.7
58.906,0.02
58.921,-3.99
58.937,-7.42
58.953,-10.4
58.968,-13.04
58.984,-15.42
59.000,-17.55
59.015,-19.39
59.031,-20.83
59.046,-21.7
59.062,-21.78
59.078,-20.87
59.093,-18.95
59.109,-16.19
59.125,-13.02
59.140,-10.01
59.156,-7.73
59.171,-6.5
59.187,-6.31
59.203,-6.75
59.218,-7.17
59.234,-6.89
59.250,-5.36
59.265,-2.34
59.281,2.14
59.296,7.85
59.312,14.43
59.328,21.39
59.343,28.23
59.359,34.39
59.375,39.33
59.390,42.65
59.406,44.19
59.421,44.06
59.437,42.57
59.453,40.14
59.468,37.16
59.484,33.87
59.500,30.38
59.515,26.68
59.531,22.78
59.546,18.79
59.562,14.98
59.578,11.72
59.593,9.36
59.609,8.12
59.625,7.92
59.640,8.49
59.656,9.5
59.671,10.65
59.687,11.86
59.703,13.02
59.718,13.91
59.734,14.0
59.750,12.49
59.765,8.49
59.781,1.35
59.796,-9.0
59.812,-22.0
59.828,-36.52
59.843,-51.08
59.859,-64.14
59.875,-74.37
59.890,-80.81
59.906,-82.94
59.921,-80.7
59.937,-74.51
59.953,-65.18
59.968,-53.88
59.984,-41.93
