timestamp,value
00.000,69.34
00.015,64.56
00.031,62.33
00.046,62.85
00.062,66.69
00.078,74.21
00.093,84.4
00.109,93.9
00.125,97.3
00.140,89.02
00.156,66.0
00.171,29.72
00.187,-13.77
00.203,-56.22
00.218,-90.25
00.234,-112.02
00.250,-121.56
00.265,-121.27
00.281,-113.59
00.296,-99.91
00.312,-81.16
00.328,-59.47
00.343,-39.43
00.359,-27.54
00.375,-29.71
00.390,-48.63
00.406,-82.35
00.421,-125.04
00.437,-169.28
00.453,-209.27
00.468,-242.98
00.484,-272.4
00.500,-301.95
00.515,-335.56
00.531,-373.94
00.546,-413.55
00.562,-447.77
00.578,-469.09
00.593,-472.24
00.609,-456.21
00.625,-424.19
00.640,-381.57
00.656,-333.29
00.671,-281.89
00.687,-227.53
00.703,-169.59
00.718,-108.53
00.734,-46.86
00.750,11.84
00.765,64.4
00.781,109.46
00.796,147.5
00.812,179.38
00.828,205.34
00.843,224.44
00.859,235.41
00.875,237.85
00.890,233.29
00.906,224.52
00.921,214.05
00.937,202.99
00.953,190.63
00.968,175.35
00.984,156.07
01.000,133.01
01.015,107.51
01.031,81.62
01.046,57.18
01.062,35.21
01.078,15.86
01.093,-1.09
01.109,-15.92
01.125,-28.78
01.140,-39.58
01.156,-48.2
01.171,-54.53
01.187,-58.66
01.203,-60.83
01.218,-61.31
01.234,-60.49
01.250,-58.65
01.265,-56.1
01.281,-53.15
01.296,-49.91
01.312,-46.2
01.328,-41.69
01.343,-35.8
01.359,-27.85
01.375,-17.54
01.390,-5.02
01.406,8.99
01.421,23.26
01.437,36.46
01.453,47.71
01.468,56.69
01.484,63.79
01.500,70.08
01.515,76.57
01.531,83.85
01.546,91.86
01.562,99.86
01.578,106.85
01.593,112.25
01.609,116.12
01.625,119.16
01.640,122.66
01.656,127.87
01.671,135.31
01.687,144.59
01.703,154.11
01.718,161.64
01.734,165.23
01.750,164.0
01.765,158.6
01.781,151.28
01.796,145.18
01.812,143.26
01.828,147.21
01.843,156.46
01.859,168.33
01.875,178.99
01.890,185.08
01.906,185.08
01.921,180.05
01.937,173.3
01.953,169.52
01.968,173.34
01.984,187.79
02.000,213.08
02.015,246.02
02.031,280.42
02.046,308.47
02.062,322.95
02.078,319.48
02.093,298.15
02.109,263.58
02.125,222.84
02.140,182.87
02.156,148.22
02.171,120.11
02.187,97.51
02.203,78.91
02.218,63.78
02.234,52.85
02.250,47.42
02.265,47.96
02.281,53.31
02.296,61.21
02.312,69.46
02.328,77.26
02.343,85.73
02.359,97.24
02.375,113.47
02.390,134.08
02.406,156.09
02.421,174.36
02.437,183.1
02.453,177.84
02.468,156.46
02.484,120.01
02.500,72.22
02.515,17.99
02.531,-38.23
02.546,-93.48
02.562,-146.56
02.578,-197.65
02.593,-247.53
02.609,-297.25
02.625,-347.57
02.640,-398.35
02.656,-447.89
02.671,-492.32
02.687,-525.42
02.703,-539.67
02.718,-528.44
02.734,-488.89
02.750,-423.99
02.765,-342.24
02.781,-255.2
02.796,-174.02
02.812,-106.53
02.828,-55.83
02.843,-21.18
02.859,-0.02
02.875,9.93
02.890,9.69
02.906,-0.45
02.921,-19.35
02.937,-44.47
02.953,-73.03
02.968,-102.34
02.984,-130.65
03.000,-157.41
03.015,-182.81
03.031,-206.5
03.046,-226.61
03.062,-239.37
03.078,-240.64
03.093,-229.97
03.109,-209.46
03.125,-182.52
03.140,-151.97
03.156,-119.44
03.171,-85.93
03.187,-52.45
03.203,-19.92
03.218,11.48
03.234,39.01
03.250,61.07
03.265,77.46
03.281,88.0
03.296,90.42
03.312,79.5
03.328,49.16
03.343,-3.39
03.359,-75.22
03.375,-163.32
03.390,-262.62
03.406,-367.33
03.421,-471.58
03.437,-570.02
03.453,-658.59
03.468,-734.35
03.484,-794.99
03.500,-807.91
03.515,-751.24
03.531,-622.96
03.546,-446.27
03.562,-257.17
03.578,-85.43
03.593,54.45
03.609,161.08
03.625,239.94
03.640,298.4
03.656,337.76
03.671,357.55
03.687,358.41
03.703,344.24
03.718,321.74
03.734,297.64
03.750,276.67
03.765,261.38
03.781,252.47
03.796,245.69
03.812,236.25
03.828,221.31
03.843,201.49
03.859,180.51
03.875,162.6
03.890,150.36
03.906,144.96
03.921,146.4
03.937,151.75
03.953,157.73
03.968,162.25
03.984,164.73
04.000,166.8
04.015,170.42
04.031,176.23
04.046,183.38
04.062,189.99
04.078,194.44
04.093,193.84
04.109,186.54
04.125,171.95
04.140,151.48
04.156,127.43
04.171,102.61
04.187,79.38
04.203,58.83
04.218,41.78
04.234,28.44
04.250,18.6
04.265,11.9
04.281,8.08
04.296,6.82
04.312,8.22
04.328,12.29
04.343,18.3
04.359,25.98
04.375,34.7
04.390,43.44
04.406,50.95
04.421,56.25
04.437,58.3
04.453,57.08
04.468,52.56
04.484,44.01
04.500,30.69
04.515,13.59
04.531,-7.86
04.546,-34.23
04.562,-65.26
04.578,-104.03
04.593,-147.09
04.609,-189.94
04.625,-228.17
04.640,-256.87
04.656,-273.69
04.671,-278.13
04.687,-270.8
04.703,-253.02
04.718,-226.16
04.734,-189.7
04.750,-144.15
04.765,-90.95
04.781,-22.92
04.796,58.92
04.812,148.15
04.828,235.07
04.843,310.08
04.859,364.86
04.875,395.37
04.890,399.26
04.906,371.69
04.921,314.4
04.937,236.24
04.953,149.82
04.968,65.73
04.984,-8.6
05.000,-78.51
05.015,-145.9
05.031,-210.77
05.046,-272.3
05.062,-328.86
05.078,-381.15
05.093,-419.68
05.109,-441.3
05.125,-444.47
05.140,-430.49
05.156,-402.22
05.171,-365.88
05.187,-328.85
05.203,-296.66
05.218,-259.04
05.234,-213.72
05.250,-164.55
05.265,-116.86
05.281,-76.0
05.296,-44.74
05.312,-24.9
05.328,-16.84
05.343,-17.93
05.359,-24.07
05.375,-32.84
05.390,-45.94
05.406,-61.05
05.421,-75.96
05.437,-88.19
05.453,-96.2
05.468,-98.27
05.484,-91.05
05.500,-72.19
05.515,-43.17
05.531,-8.13
05.546,29.3
05.562,66.93
05.578,103.38
05.593,138.58
05.609,174.43
05.625,215.52
05.640,265.31
05.656,323.22
05.671,385.27
05.687,446.09
05.703,499.53
05.718,540.57
05.734,565.49
05.750,558.33
05.765,510.71
05.781,424.58
05.796,311.91
05.812,189.17
05.828,70.85
05.843,-34.82
05.859,-122.04
05.875,-194.47
05.890,-254.64
05.906,-301.58
05.921,-334.24
05.937,-353.09
05.953,-360.63
05.968,-357.53
05.984,-345.8
06.000,-327.46
06.015,-304.29
06.031,-276.87
06.046,-244.37
06.062,-207.24
06.078,-167.4
06.093,-128.36
06.109,-94.22
06.125,-68.68
06.140,-54.0
06.156,-50.68
06.171,-56.84
06.187,-68.62
06.203,-82.27
06.218,-94.76
06.234,-104.47
06.250,-110.89
06.265,-114.57
06.281,-116.73
06.296,-119.15
06.312,-123.58
06.328,-131.57
06.343,-144.93
06.359,-165.29
06.375,-194.0
06.390,-231.37
06.406,-276.22
06.421,-325.76
06.437,-375.72
06.453,-420.78
06.468,-455.33
06.484,-474.38
06.500,-473.98
06.515,-452.02
06.531,-408.42
06.546,-344.85
06.562,-264.81
06.578,-173.03
06.593,-74.8
06.609,24.07
06.625,118.03
06.640,202.25
06.656,273.24
06.671,329.16
06.687,370.17
06.703,397.8
06.718,414.55
06.734,423.25
06.750,426.29
06.765,425.09
06.781,420.08
06.796,410.65
06.812,395.92
06.828,375.07
06.843,347.53
06.859,313.18
06.875,272.15
06.890,224.65
06.906,170.69
06.921,110.65
06.937,45.37
06.953,-23.11
06.968,-91.56
06.984,-155.91
07.000,-211.66
07.015,-255.09
07.031,-284.12
07.046,-298.68
07.062,-300.02
07.078,-290.26
07.093,-270.97
07.109,-242.57
07.125,-204.26
07.140,-154.02
07.156,-89.49
07.171,-8.72
07.187,89.0
07.203,201.86
07.218,324.16
07.234,446.27
07.250,556.33
07.265,643.16
07.281,700.07
07.296,725.9
07.312,724.97
07.328,704.88
07.343,673.94
07.359,638.2
07.375,600.31
07.390,560.28
07.406,516.93
07.421,471.28
07.437,426.06
07.453,386.64
07.468,360.27
07.484,354.71
07.500,375.76
07.515,425.0
07.531,499.66
07.546,592.69
07.562,696.27
07.578,800.31
07.593,893.43
07.609,964.23
07.625,1002.16
07.640,999.15
07.656,950.75
07.671,858.51
07.687,729.1
07.703,574.8
07.718,407.47
07.734,236.05
07.750,66.89
07.765,-95.75
07.781,-248.29
07.796,-387.27
07.812,-507.67
07.828,-618.45
07.843,-716.13
07.859,-791.0
07.875,-832.56
07.890,-835.2
07.906,-802.23
07.921,-739.49
07.937,-659.99
07.953,-576.06
07.968,-498.5
07.984,-433.45
08.000,-385.44
08.015,-362.84
08.031,-367.26
08.046,-393.75
08.062,-432.14
08.078,-470.53
08.093,-498.3
08.109,-509.75
08.125,-502.86
08.140,-480.29
08.156,-446.59
08.171,-404.18
08.187,-353.13
08.203,-292.85
08.218,-224.21
08.234,-149.92
08.250,-74.5
08.265,-1.15
08.281,67.86
08.296,131.61
08.312,191.24
08.328,248.72
08.343,305.79
08.359,363.0
08.375,419.49
08.390,472.23
08.406,516.62
08.421,546.25
08.437,554.85
08.453,539.35
08.468,501.3
08.484,446.9
08.500,384.72
08.515,323.0
08.531,267.09
08.546,219.07
08.562,178.34
08.578,143.45
08.593,113.58
08.609,88.32
08.625,66.92
08.640,47.65
08.656,28.02
08.671,5.67
08.687,-20.54
08.703,-50.11
08.718,-80.99
08.734,-110.61
08.750,-137.28
08.765,-160.69
08.781,-181.91
08.796,-202.65
08.812,-224.21
08.828,-246.88
08.843,-269.99
08.859,-292.12
08.875,-311.91
08.890,-328.82
08.906,-343.12
08.921,-355.74
08.937,-368.0
08.953,-381.29
08.968,-396.97
08.984,-415.76
09.000,-437.22
09.015,-459.27
09.031,-478.8
09.046,-492.51
09.062,-498.18
09.078,-495.69
09.093,-487.22
09.109,-476.56
09.125,-467.39
09.140,-461.83
09.156,-460.08
09.171,-461.38
09.187,-464.3
09.203,-466.84
09.218,-465.98
09.234,-457.54
09.250,-437.04
09.265,-401.04
09.281,-348.62
09.296,-282.42
09.312,-209.07
09.328,-136.48
09.343,-70.86
09.359,-14.41
09.375,34.95
09.390,82.0
09.406,131.09
09.421,183.77
09.437,236.7
09.453,280.68
09.468,304.01
09.484,296.72
09.500,254.73
09.515,181.57
09.531,87.8
09.546,-13.1
09.562,-108.32
09.578,-178.01
09.593,-206.31
09.609,-186.84
09.625,-126.76
09.640,-42.53
09.656,48.98
09.671,137.01
09.687,213.27
09.703,280.2
09.718,338.52
09.734,385.34
09.750,416.88
09.765,431.02
09.781,428.49
09.796,407.69
09.812,370.27
09.828,319.49
09.843,261.08
09.859,201.63
09.875,146.85
09.890,100.6
09.906,63.75
09.921,33.97
09.937,7.13
09.953,-20.04
09.968,-49.3
09.984,-79.84
10.000,-109.97
10.015,-138.9
10.031,-166.84
10.046,-194.4
10.062,-221.74
10.078,-247.53
10.093,-268.86
10.109,-283.03
10.125,-288.48
10.140,-285.75
10.156,-277.48
10.171,-267.32
10.187,-258.34
10.203,-252.09
10.218,-248.02
10.234,-243.41
10.250,-235.11
10.265,-220.43
10.281,-198.28
10.296,-169.73
10.312,-137.19
10.328,-103.37
10.343,-70.15
10.359,-38.02
10.375,-6.21
10.390,25.98
10.406,58.21
10.421,88.66
10.437,114.78
10.453,134.69
10.468,147.84
10.484,154.56
10.500,154.96
10.515,148.22
10.531,133.1
10.546,109.8
10.562,81.6
10.578,54.85
10.593,37.1
10.609,33.47
10.625,44.26
10.640,64.62
10.656,86.84
10.671,103.75
10.687,111.42
10.703,109.72
10.718,100.69
10.734,86.9
10.750,70.0
10.765,50.91
10.781,30.67
10.796,11.32
10.812,-4.27
10.828,-13.31
10.843,-13.72
10.859,-5.26
10.875,10.56
10.890,31.01
10.906,52.95
10.921,73.57
10.937,90.75
10.953,103.39
10.968,110.85
10.984,113.02
11.000,109.74
11.015,101.09
11.031,87.24
11.046,68.89
11.062,47.22
11.078,23.68
11.093,0.04
11.109,-22.15
11.125,-41.46
11.140,-56.93
11.156,-67.95
11.171,-74.25
11.187,-76.02
11.203,-73.82
11.218,-68.59
11.234,-61.37
11.250,-53.18
11.265,-44.5
11.281,-35.41
11.296,-25.6
11.312,-14.28
11.328,-0.53
11.343,16.73
11.359,38.39
11.375,64.65
11.390,94.31
11.406,124.66
11.421,151.93
11.437,172.28
11.453,183.44
11.468,185.45
11.484,180.78
11.500,173.16
11.515,166.05
11.531,161.33
11.546,159.05
11.562,158.0
11.578,156.79
11.593,154.66
11.609,151.49
11.625,147.46
11.640,142.54
11.656,136.23
11.671,128.09
11.687,118.03
11.703,106.65
11.718,95.12
11.734,84.88
11.750,76.93
11.765,71.36
11.781,67.59
11.796,64.37
11.812,60.59
11.828,55.38
11.843,48.34
11.859,39.47
11.875,28.94
11.890,17.04
11.906,4.07
11.921,-9.45
11.937,-22.77
11.953,-34.88
11.968,-45.02
11.984,-52.88
12.000,-58.28
12.015,-60.62
12.031,-58.74
12.046,-51.2
12.062,-36.61
12.078,-14.61
12.093,14.75
12.109,49.73
12.125,87.43
12.140,124.47
12.156,157.81
12.171,185.33
12.187,205.33
12.203,217.76
12.218,223.07
12.234,224.1
12.250,223.48
12.265,223.19
12.281,224.56
12.296,228.55
12.312,236.31
12.328,248.11
12.343,265.62
12.359,289.77
12.375,323.64
12.390,368.11
12.406,421.46
12.421,479.43
12.437,535.85
12.453,584.21
12.468,617.38
12.484,632.99
12.500,631.62
12.515,620.89
12.531,608.81
12.546,601.11
12.562,599.37
12.578,600.24
12.593,597.91
12.609,584.97
12.625,560.99
12.640,500.51
12.656,393.09
12.671,242.36
12.687,66.48
12.703,-108.52
12.718,-261.42
12.734,-366.01
12.750,-429.56
12.765,-463.97
12.781,-479.45
12.796,-479.01
12.812,-464.81
12.828,-445.25
12.843,-427.4
12.859,-418.17
12.875,-421.75
12.890,-440.8
12.906,-471.27
12.921,-508.02
12.937,-544.2
12.953,-576.15
12.968,-602.93
12.984,-624.88
13.000,-643.51
13.015,-659.37
13.031,-673.34
13.046,-682.56
13.062,-683.42
13.078,-670.06
13.093,-636.09
13.109,-574.88
13.125,-481.59
13.140,-357.23
13.156,-208.72
13.171,-49.13
13.187,108.43
13.203,252.59
13.218,370.38
13.234,449.15
13.250,481.87
13.265,470.32
13.281,422.3
13.296,348.59
13.312,259.07
13.328,163.55
13.343,71.15
13.359,-8.84
13.375,-72.99
13.390,-119.88
13.406,-150.87
13.421,-171.75
13.437,-191.28
13.453,-219.01
13.468,-261.41
13.484,-320.39
13.500,-389.21
13.515,-452.44
13.531,-493.11
13.546,-498.24
13.562,-464.4
13.578,-398.49
13.593,-314.27
13.609,-225.73
13.625,-142.59
13.640,-69.58
13.656,-7.99
13.671,42.06
13.687,80.19
13.703,105.68
13.718,118.84
13.734,121.5
13.750,117.36
13.765,111.0
13.781,105.84
13.796,103.62
13.812,103.97
13.828,105.33
13.843,105.78
13.859,104.59
13.875,102.27
13.890,101.26
13.906,104.4
13.921,113.59
13.937,129.18
13.953,149.68
13.968,172.73
13.984,195.22
14.000,216.12
14.015,232.79
14.031,243.62
14.046,247.45
14.062,242.94
14.078,228.61
14.093,203.13
14.109,166.39
14.125,118.02
14.140,62.66
14.156,5.08
14.171,-49.98
14.187,-98.88
14.203,-139.91
14.218,-172.86
14.234,-200.84
14.250,-224.1
14.265,-242.22
14.281,-254.02
14.296,-258.74
14.312,-256.02
14.328,-247.03
14.343,-234.41
14.359,-221.37
14.375,-210.8
14.390,-203.7
14.406,-199.61
14.421,-196.83
14.437,-193.49
14.453,-187.29
14.468,-175.79
14.484,-156.81
14.500,-128.55
14.515,-90.92
14.531,-46.22
14.546,0.8
14.562,44.58
14.578,80.98
14.593,108.54
14.609,128.24
14.625,141.61
14.640,149.27
14.656,150.06
14.671,141.93
14.687,123.88
14.703,95.57
14.718,61.27
14.734,28.25
14.750,4.12
14.765,-5.83
14.781,-0.49
14.796,16.43
14.812,38.17
14.828,57.53
14.843,69.5
14.859,73.55
14.875,73.22
14.890,74.03
14.906,80.59
14.921,94.74
14.937,114.85
14.953,137.55
14.968,159.97
14.984,181.07
15.000,201.97
15.015,224.4
15.031,248.58
15.046,271.82
15.062,288.89
15.078,293.69
15.093,281.84
15.109,252.99
15.125,211.36
15.140,164.85
15.156,122.2
15.171,89.74
15.187,68.97
15.203,55.95
15.218,42.82
15.234,21.41
15.250,-13.38
15.265,-61.9
15.281,-120.02
15.296,-182.14
15.312,-243.97
15.328,-303.42
15.343,-360.18
15.359,-414.11
15.375,-463.43
15.390,-504.18
15.406,-531.67
15.421,-542.38
15.437,-535.92
15.453,-515.69
15.468,-487.54
15.484,-458.34
15.500,-434.13
15.515,-418.44
15.531,-411.09
15.546,-408.2
15.562,-403.41
15.578,-390.34
15.593,-365.63
15.609,-330.17
15.625,-288.71
15.640,-247.18
15.656,-209.86
15.671,-177.4
15.687,-147.15
15.703,-114.95
15.718,-77.59
15.734,-34.82
15.750,11.46
15.765,58.21
15.781,103.28
15.796,146.02
15.812,186.55
15.828,224.56
15.843,258.73
15.859,286.66
15.875,305.26
15.890,312.65
15.906,309.1
15.921,297.11
15.937,281.0
15.953,265.13
15.968,252.81
15.984,245.11
16.000,241.5
16.015,239.64
16.031,237.46
16.046,233.97
16.062,229.72
16.078,226.46
16.093,225.84
16.109,228.55
16.125,233.42
16.140,238.77
16.156,241.12
16.171,238.53
16.187,230.72
16.203,218.82
16.218,204.5
16.234,188.5
16.250,170.62
16.265,150.01
16.281,127.94
16.296,102.79
16.312,74.64
16.328,42.62
16.343,4.82
16.359,-40.75
16.375,-95.0
16.390,-155.6
16.406,-216.8
16.421,-267.23
16.437,-302.01
16.453,-317.2
16.468,-312.88
16.484,-291.34
16.500,-254.47
16.515,-202.71
16.531,-136.38
16.546,-58.5
16.562,29.46
16.578,114.94
16.593,187.76
16.609,240.1
16.625,269.51
16.640,279.72
16.656,278.95
16.671,275.93
16.687,253.31
16.703,242.34
16.718,236.6
16.734,229.21
16.750,211.84
16.765,179.46
16.781,133.98
16.796,85.5
16.812,49.37
16.828,40.32
16.843,75.45
16.859,155.71
16.875,275.48
16.890,421.49
16.906,577.92
16.921,730.88
16.937,870.68
16.953,991.12
16.968,1056.63
16.984,1044.62
17.000,943.91
17.015,769.47
17.031,553.21
17.046,329.89
17.062,125.49
17.078,-46.53
17.093,-183.33
17.109,-288.49
17.125,-361.7
17.140,-406.61
17.156,-426.03
17.171,-424.68
17.187,-409.07
17.203,-385.98
17.218,-361.17
17.234,-339.7
17.250,-324.22
17.265,-310.74
17.281,-295.68
17.296,-274.71
17.312,-245.26
17.328,-206.96
17.343,-161.8
17.359,-114.04
17.375,-70.56
17.390,-39.25
17.406,-24.01
17.421,-25.91
17.437,-41.59
17.453,-65.12
17.468,-90.32
17.484,-113.18
17.500,-130.6
17.515,-142.77
17.531,-151.89
17.546,-159.46
17.562,-166.48
17.578,-173.3
17.593,-180.48
17.609,-189.06
17.625,-200.0
17.640,-213.54
17.656,-228.96
17.671,-244.44
17.687,-257.28
17.703,-265.78
17.718,-269.36
17.734,-269.01
17.750,-266.41
17.765,-262.75
17.781,-258.38
17.796,-252.79
17.812,-245.01
17.828,-234.31
17.843,-221.72
17.859,-208.86
17.875,-197.9
17.890,-190.23
17.906,-185.57
17.921,-182.31
17.937,-178.38
17.953,-171.92
17.968,-162.15
17.984,-150.8
18.000,-140.15
18.015,-133.21
18.031,-132.73
18.046,-140.74
18.062,-158.43
18.078,-185.58
18.093,-220.03
18.109,-249.51
18.125,-262.52
18.140,-250.65
18.156,-214.22
18.171,-163.03
18.187,-112.08
18.203,-75.13
18.218,-59.41
18.234,-64.28
18.250,-83.18
18.265,-111.31
18.281,-142.7
18.296,-173.85
18.312,-202.49
18.328,-226.25
18.343,-242.38
18.359,-248.43
18.375,-243.26
18.390,-227.91
18.406,-205.73
18.421,-179.37
18.437,-152.42
18.453,-126.92
18.468,-102.8
18.484,-78.29
18.500,-51.35
18.515,-20.43
18.531,14.51
18.546,51.59
18.562,88.13
18.578,120.67
18.593,146.24
18.609,162.78
18.625,169.06
18.640,164.45
18.656,149.36
18.671,125.01
18.687,93.76
18.703,59.49
18.718,26.72
18.734,0.54
18.750,-14.57
18.765,-15.75
18.781,-2.23
18.796,25.07
18.812,63.47
18.828,109.44
18.843,159.49
18.859,210.42
18.875,260.51
18.890,309.45
18.906,357.84
18.921,406.23
18.937,453.88
18.953,497.66
18.968,532.63
18.984,554.12
19.000,559.43
19.015,549.71
19.031,529.42
19.046,504.64
19.062,480.84
19.078,460.93
19.093,444.44
19.109,427.98
19.125,406.7
19.140,375.47
19.156,330.68
19.171,271.17
19.187,198.98
19.203,119.77
19.218,41.84
19.234,-25.51
19.250,-74.2
19.265,-99.24
19.281,-99.86
19.296,-79.42
19.312,-44.78
19.328,-5.13
19.343,29.9
19.359,51.81
19.375,55.33
19.390,39.89
19.406,9.6
19.421,-28.22
19.437,-65.5
19.453,-96.38
19.468,-118.9
19.484,-134.06
19.500,-144.16
19.515,-150.78
19.531,-153.67
19.546,-151.7
19.562,-144.03
19.578,-131.44
19.593,-116.41
19.609,-102.09
19.625,-90.67
19.640,-82.64
19.656,-76.76
19.671,-70.45
19.687,-60.82
19.703,-45.27
19.718,-22.31
19.734,7.83
19.750,43.02
19.765,79.54
19.781,113.25
19.796,140.91
19.812,161.08
19.828,174.04
19.843,180.98
19.859,183.02
19.875,180.65
19.890,174.16
19.906,163.82
19.921,150.44
19.937,135.45
19.953,120.09
19.968,104.52
19.984,87.52
20.000,67.02
20.015,41.19
20.031,9.72
20.046,-26.05
20.062,-63.41
20.078,-99.33
20.093,-131.46
20.109,-158.13
20.125,-177.66
20.140,-187.95
20.156,-186.69
20.171,-172.74
20.187,-148.09
20.203,-118.69
20.218,-93.06
20.234,-79.49
20.250,-82.81
20.265,-102.73
20.281,-134.66
20.296,-172.11
20.312,-209.06
20.328,-241.06
20.343,-265.04
20.359,-277.9
20.375,-276.28
20.390,-257.24
20.406,-219.46
20.421,-164.44
20.437,-96.67
20.453,-22.77
20.468,49.97
20.484,114.93
20.500,167.6
20.515,205.83
20.531,229.67
20.546,240.76
20.562,241.49
20.578,233.86
20.593,218.82
20.609,196.49
20.625,166.53
20.640,129.09
20.656,85.71
20.671,39.64
20.687,-3.47
20.703,-36.16
20.718,-50.83
20.734,-42.91
20.750,-13.7
20.765,28.62
20.781,70.72
20.796,98.08
20.812,99.38
20.828,70.13
20.843,13.78
20.859,-59.24
20.875,-134.06
20.890,-194.99
20.906,-229.43
20.921,-230.84
20.937,-200.83
20.953,-149.47
20.968,-92.08
20.984,-44.6
21.000,-17.65
21.015,-13.16
21.031,-24.93
21.046,-43.2
21.062,-59.35
21.078,-69.13
21.093,-72.71
21.109,-71.5
21.125,-66.12
21.140,-55.31
21.156,-36.96
21.171,-10.42
21.187,21.97
21.203,55.72
21.218,86.44
21.234,111.76
21.250,132.55
21.265,151.12
21.281,170.22
21.296,191.92
21.312,217.11
21.328,246.19
21.343,280.01
21.359,319.76
21.375,365.45
21.390,414.89
21.406,461.39
21.421,495.1
21.437,505.21
21.453,482.21
21.468,420.85
21.484,322.35
21.500,194.89
21.515,51.49
21.531,-92.2
21.546,-222.71
21.562,-329.71
21.578,-402.58
21.593,-433.8
21.609,-421.81
21.625,-371.94
21.640,-294.34
21.656,-204.48
21.671,-111.16
21.687,-20.06
21.703,64.55
21.718,139.19
21.734,200.69
21.750,244.62
21.765,267.81
21.781,269.29
21.796,250.32
21.812,213.85
21.828,162.17
21.843,97.34
21.859,21.59
21.875,-63.6
21.890,-156.7
21.906,-255.55
21.921,-356.29
21.937,-452.55
21.953,-535.04
21.968,-594.17
21.984,-622.74
22.000,-618.17
22.015,-584.98
22.031,-533.06
22.046,-474.56
22.062,-419.33
22.078,-372.31
22.093,-332.88
22.109,-297.84
22.125,-264.96
22.140,-234.08
22.156,-207.59
22.171,-188.25
22.187,-177.08
22.203,-171.67
22.218,-167.2
22.234,-157.99
22.250,-139.78
22.265,-110.67
22.281,-70.66
22.296,-22.34
22.312,32.1
22.328,86.27
22.343,130.64
22.359,155.6
22.375,156.37
22.390,135.62
22.406,102.84
22.421,70.85
22.437,48.6
22.453,39.33
22.468,40.84
22.484,48.61
22.500,58.92
22.515,70.78
22.531,85.64
22.546,106.43
22.562,139.04
22.578,185.41
22.593,244.15
22.609,310.33
22.625,376.45
22.640,434.13
22.656,476.15
22.671,497.44
22.687,486.66
22.703,444.98
22.718,378.9
22.734,297.13
22.750,207.82
22.765,117.97
22.781,33.39
22.796,-41.35
22.812,-103.48
22.828,-152.03
22.843,-186.64
22.859,-209.35
22.875,-221.87
22.890,-225.1
22.906,-218.83
22.921,-202.46
22.937,-175.63
22.953,-139.15
22.968,-95.55
22.984,-47.84
23.000,-1.37
23.015,37.8
23.031,64.88
23.046,78.6
23.062,81.5
23.078,78.99
23.093,76.63
23.109,77.27
23.125,79.31
23.140,78.13
23.156,68.61
23.171,48.26
23.187,19.2
23.203,-12.74
23.218,-40.85
23.234,-60.87
23.250,-72.87
23.265,-79.92
23.281,-85.91
23.296,-92.55
23.312,-97.84
23.328,-96.61
23.343,-83.64
23.359,-56.28
23.375,-16.22
23.390,30.65
23.406,76.3
23.421,113.18
23.437,136.21
23.453,143.69
23.468,137.22
23.484,119.87
23.500,94.91
23.515,65.48
23.531,34.98
23.546,8.2
23.562,-8.77
23.578,-10.24
23.593,6.52
23.609,38.92
23.625,78.38
23.640,113.1
23.656,132.59
23.671,132.15
23.687,114.92
23.703,90.13
23.718,68.64
23.734,58.17
23.750,60.25
23.765,69.09
23.781,74.12
23.796,63.7
23.812,29.25
23.828,-32.04
23.843,-117.15
23.859,-218.61
23.875,-327.03
23.890,-427.36
23.906,-503.52
23.921,-542.18
23.937,-537.21
23.953,-491.93
23.968,-416.92
23.984,-325.56
24.000,-230.07
24.015,-139.82
24.031,-60.88
24.046,2.91
24.062,49.7
24.078,79.85
24.093,95.89
24.109,102.34
24.125,103.91
24.140,104.58
24.156,106.18
24.171,109.27
24.187,113.32
24.203,117.5
24.218,120.94
24.234,123.78
24.250,127.35
24.265,132.5
24.281,139.65
24.296,147.53
24.312,153.96
24.328,157.51
24.343,156.46
24.359,148.95
24.375,135.63
24.390,119.41
24.406,103.72
24.421,91.5
24.437,83.67
24.453,79.31
24.468,76.56
24.484,73.27
24.500,65.96
24.515,52.73
24.531,33.14
24.546,7.53
24.562,-23.09
24.578,-57.81
24.593,-96.4
24.609,-138.81
24.625,-185.51
24.640,-238.14
24.656,-295.16
24.671,-351.37
24.687,-398.52
24.703,-427.19
24.718,-430.06
24.734,-404.83
24.750,-354.57
24.765,-274.59
24.781,-174.26
24.796,-68.05
24.812,30.01
24.828,111.03
24.843,173.3
24.859,218.61
24.875,249.14
24.890,266.76
24.906,273.71
24.921,271.59
24.937,264.14
24.953,253.91
24.968,239.7
24.984,217.64
25.000,183.46
25.015,136.47
25.031,81.47
25.046,27.19
25.062,-19.19
25.078,-52.43
25.093,-71.07
25.109,-76.34
25.125,-68.87
25.140,-48.15
25.156,-13.32
25.171,34.1
25.187,88.72
25.203,140.95
25.218,182.92
25.234,213.29
25.250,232.44
25.265,243.36
25.281,247.86
25.296,244.53
25.312,228.63
25.328,195.18
25.343,141.32
25.359,70.47
25.375,-8.86
25.390,-86.64
25.406,-154.04
25.421,-205.82
25.437,-240.52
25.453,-259.82
25.468,-262.03
25.484,-250.66
25.500,-229.21
25.515,-200.12
25.531,-166.52
25.546,-131.77
25.562,-98.98
25.578,-69.93
25.593,-45.44
25.609,-24.57
25.625,-5.74
25.640,12.67
25.656,32.33
25.671,53.84
25.687,76.74
25.703,99.9
25.718,122.99
25.734,144.14
25.750,161.69
25.765,173.67
25.781,178.47
25.796,174.81
25.812,161.8
25.828,139.6
25.843,108.43
25.859,72.56
25.875,35.78
25.890,1.43
25.906,-28.62
25.921,-53.59
25.937,-73.75
25.953,-89.94
25.968,-102.78
25.984,-111.98
26.000,-116.91
26.015,-117.72
26.031,-114.77
26.046,-109.4
26.062,-103.41
26.078,-98.57
26.093,-96.04
26.109,-96.47
26.125,-99.36
26.140,-103.41
26.156,-107.23
26.171,-108.13
26.187,-102.71
26.203,-88.13
26.218,-63.97
26.234,-33.07
26.250,-1.42
26.265,23.9
26.281,37.99
26.296,38.98
26.312,28.59
26.328,10.54
26.343,-11.44
26.359,-35.04
26.375,-58.42
26.390,-79.51
26.406,-95.32
26.421,-102.27
26.437,-97.43
26.453,-79.55
26.468,-49.7
26.484,-10.61
26.500,31.78
26.515,70.65
26.531,99.34
26.546,112.88
26.562,109.88
26.578,93.32
26.593,69.66
26.609,46.38
26.625,28.86
26.640,18.85
26.656,14.67
26.671,13.0
26.687,11.42
26.703,9.94
26.718,10.34
26.734,14.23
26.750,21.28
26.765,28.41
26.781,31.78
26.796,28.94
26.812,20.28
26.828,8.65
26.843,-1.79
26.859,-7.4
26.875,-7.2
26.890,-3.0
26.906,1.87
26.921,4.66
26.937,4.43
26.953,2.81
26.968,2.55
26.984,6.46
27.000,15.95
27.015,30.59
27.031,47.98
27.046,64.81
27.062,78.68
27.078,87.84
27.093,91.75
27.109,90.3
27.125,83.55
27.140,72.27
27.156,58.14
27.171,44.15
27.187,33.91
27.203,30.3
27.218,33.02
27.234,38.96
27.250,42.93
27.265,40.06
27.281,28.66
27.296,10.95
27.312,-7.79
27.328,-22.29
27.343,-29.32
27.359,-29.51
27.375,-26.15
27.390,-23.07
27.406,-22.81
27.421,-25.31
27.437,-29.07
27.453,-32.98
27.468,-37.27
27.484,-43.27
27.500,-51.74
27.515,-60.62
27.531,-65.3
27.546,-61.01
27.562,-45.25
27.578,-20.97
27.593,3.97
27.609,20.2
27.625,21.07
27.640,6.45
27.656,-17.07
27.671,-39.75
27.687,-53.39
27.703,-53.79
27.718,-42.13
27.734,-23.71
27.750,-4.56
27.765,10.97
27.781,21.33
27.796,27.64
27.812,32.15
27.828,36.53
27.843,41.06
27.859,44.96
27.875,46.53
27.890,44.82
27.906,39.97
27.921,32.47
27.937,23.34
27.953,13.03
27.968,1.58
27.984,-10.88
28.000,-23.4
28.015,-33.65
28.031,-38.07
28.046,-33.36
28.062,-17.76
28.078,8.01
28.093,40.56
28.109,74.96
28.125,105.83
28.140,128.6
28.156,140.49
28.171,141.54
28.187,134.28
28.203,123.29
28.218,114.3
28.234,111.81
28.250,117.07
28.265,127.09
28.281,136.5
28.296,138.02
28.312,126.09
28.328,99.98
28.343,64.91
28.359,30.53
28.375,6.31
28.390,-2.29
28.406,4.29
28.421,20.01
28.437,35.6
28.453,43.02
28.468,38.3
28.484,22.35
28.500,-0.22
28.515,-24.01
28.531,-44.77
28.546,-60.08
28.562,-69.58
28.578,-75.01
28.593,-78.71
28.609,-82.61
28.625,-87.79
28.640,-94.21
28.656,-100.92
28.671,-106.5
28.687,-109.79
28.703,-110.63
28.718,-110.77
28.734,-113.16
28.750,-120.02
28.765,-131.1
28.781,-143.18
28.796,-151.32
28.812,-151.37
28.828,-142.06
28.843,-124.89
28.859,-102.91
28.875,-79.57
28.890,-58.13
28.906,-41.58
28.921,-32.33
28.937,-32.37
28.953,-42.36
28.968,-61.15
28.984,-85.95
29.000,-113.06
29.015,-138.67
29.031,-159.35
29.046,-171.55
29.062,-170.97
29.078,-154.35
29.093,-121.75
29.109,-77.8
29.125,-31.48
29.140,7.14
29.156,31.16
29.171,39.93
29.187,38.12
29.203,32.84
29.218,28.76
29.234,25.23
29.250,17.28
29.265,-1.02
29.281,-32.64
29.296,-75.28
29.312,-121.96
29.328,-163.74
29.343,-191.81
29.359,-199.57
29.375,-182.89
29.390,-140.4
29.406,-74.35
29.421,8.69
29.437,97.77
29.453,179.4
29.468,240.7
29.484,273.3
29.500,275.1
29.515,249.7
29.531,203.64
29.546,143.27
29.562,73.55
29.578,-2.18
29.593,-80.98
29.609,-159.45
29.625,-233.32
29.640,-297.44
29.656,-346.16
29.671,-373.88
29.687,-376.41
29.703,-351.87
29.718,-302.04
29.734,-232.85
29.750,-153.82
29.765,-75.47
29.781,-6.73
29.796,47.56
29.812,86.77
29.828,112.66
29.843,127.49
29.859,132.87
29.875,129.74
29.890,119.24
29.906,103.93
29.921,87.56
29.937,75.48
29.953,73.36
29.968,85.37
29.984,112.34
30.000,151.15
30.015,195.77
30.031,238.95
30.046,275.05
30.062,301.7
30.078,321.64
30.093,340.72
30.109,363.9
30.125,391.02
30.140,415.78
30.156,428.08
30.171,418.03
30.187,379.54
30.203,311.08
30.218,218.01
30.234,110.86
30.250,2.99
30.265,-92.37
30.281,-165.15
30.296,-210.03
30.312,-228.32
30.328,-222.32
30.343,-202.22
30.359,-181.89
30.375,-170.18
30.390,-163.71
30.406,-152.43
30.421,-130.09
30.437,-97.82
30.453,-61.78
30.468,-28.02
30.484,0.52
30.500,28.9
30.515,62.22
30.531,100.89
30.546,139.53
30.562,169.28
30.578,181.99
30.593,173.58
30.609,145.03
30.625,92.82
30.640,27.03
30.656,-38.46
30.671,-90.72
30.687,-121.55
30.703,-129.0
30.718,-116.8
30.734,-92.61
30.750,-65.27
30.765,-41.97
30.781,-24.62
30.796,-12.53
30.812,-3.43
30.828,4.26
30.843,10.3
30.859,13.06
30.875,11.11
30.890,4.42
30.906,-4.91
30.921,-12.14
30.937,-14.03
30.953,-9.61
30.968,-0.32
30.984,10.8
31.000,19.97
31.015,24.92
31.031,25.41
31.046,22.97
31.062,21.47
31.078,23.43
31.093,28.47
31.109,32.86
31.125,30.56
31.140,14.83
31.156,-18.21
31.171,-67.35
31.187,-127.3
31.203,-187.23
31.218,-236.33
31.234,-267.13
31.250,-277.56
31.265,-269.47
31.281,-247.24
31.296,-214.66
31.312,-171.13
31.328,-120.11
31.343,-63.69
31.359,-4.53
31.375,53.64
31.390,106.06
31.406,149.39
31.421,181.72
31.437,204.07
31.453,217.72
31.468,223.5
31.484,222.06
31.500,213.2
31.515,196.16
31.531,170.24
31.546,136.13
31.562,95.37
31.578,51.38
31.593,7.8
31.609,-32.63
31.625,-67.6
31.640,-96.28
31.656,-119.06
31.671,-136.63
31.687,-150.13
31.703,-161.25
31.718,-170.05
31.734,-175.92
31.750,-177.88
31.765,-174.41
31.781,-164.29
31.796,-147.2
31.812,-122.96
31.828,-88.75
31.843,-48.61
31.859,-6.64
31.875,32.15
31.890,66.12
31.906,93.86
31.921,113.26
31.937,122.05
31.953,118.39
31.968,101.28
31.984,70.7
32.000,29.82
32.015,-16.7
32.031,-62.59
32.046,-101.48
32.062,-128.12
32.078,-139.75
32.093,-136.04
32.109,-119.14
32.125,-92.89
32.140,-57.52
32.156,-17.09
32.171,23.41
32.187,58.9
32.203,86.33
32.218,105.74
32.234,120.46
32.250,135.06
32.265,148.7
32.281,158.91
32.296,159.39
32.312,144.17
32.328,111.04
32.343,63.07
32.359,7.15
32.375,-49.31
32.390,-101.67
32.406,-148.25
32.421,-188.69
32.437,-223.77
32.453,-253.11
32.468,-277.71
32.484,-295.4
32.500,-304.39
32.515,-304.61
32.531,-297.67
32.546,-285.53
32.562,-269.18
32.578,-249.25
32.593,-225.84
32.609,-198.98
32.625,-168.84
32.640,-136.46
32.656,-103.22
32.671,-73.26
32.687,-49.79
32.703,-34.39
32.718,-26.81
32.734,-25.35
32.750,-27.2
32.765,-29.5
32.781,-30.18
32.796,-28.13
32.812,-23.59
32.828,-16.83
32.843,-8.29
32.859,1.6
32.875,12.42
32.890,23.96
32.906,35.92
32.921,47.55
32.937,57.92
32.953,65.72
32.968,70.03
32.984,70.05
33.000,65.33
33.015,55.67
33.031,41.59
33.046,24.39
33.062,5.62
33.078,-12.76
33.093,-28.76
33.109,-40.08
33.125,-45.23
33.140,-43.53
33.156,-35.05
33.171,-20.64
33.187,-1.52
33.203,20.56
33.218,43.74
33.234,65.69
33.250,84.18
33.265,96.78
33.281,101.33
33.296,96.82
33.312,83.69
33.328,64.19
33.343,41.96
33.359,21.63
33.375,7.42
33.390,2.44
33.406,7.99
33.421,23.42
33.437,46.89
33.453,76.06
33.468,108.89
33.484,143.85
33.500,180.03
33.515,216.55
33.531,252.35
33.546,286.18
33.562,316.03
33.578,338.93
33.593,350.79
33.609,347.32
33.625,325.72
33.640,286.61
33.656,234.58
33.671,177.67
33.687,125.05
33.703,84.12
33.718,58.17
33.734,45.76
33.750,42.54
33.765,44.19
33.781,49.33
33.796,60.22
33.812,81.12
33.828,114.94
33.843,160.09
33.859,210.01
33.875,255.12
33.890,285.97
33.906,296.88
33.921,287.54
33.937,261.69
33.953,224.98
33.968,182.53
33.984,137.83
34.000,93.7
34.015,52.97
34.031,17.93
34.046,-10.83
34.062,-35.51
34.078,-60.07
34.093,-87.26
34.109,-115.9
34.125,-140.18
34.140,-151.69
34.156,-144.29
34.171,-118.27
34.187,-80.9
34.203,-43.32
34.218,-14.78
34.234,1.72
34.250,10.57
34.265,19.32
34.281,34.17
34.296,56.15
34.312,81.42
34.328,104.61
34.343,122.29
34.359,134.58
34.375,144.09
34.390,153.36
34.406,162.27
34.421,168.28
34.437,167.81
34.453,158.52
34.468,140.65
34.484,116.06
34.500,86.89
34.515,54.23
34.531,18.39
34.546,-20.28
34.562,-59.9
34.578,-97.09
34.593,-127.44
34.609,-146.54
34.625,-151.21
34.640,-139.77
34.656,-113.35
34.671,-76.2
34.687,-35.62
34.703,-0.8
34.718,18.96
34.734,16.87
34.750,-8.54
34.765,-53.33
34.781,-109.13
34.796,-166.01
34.812,-215.07
34.828,-250.34
34.843,-269.28
34.859,-272.69
34.875,-263.93
34.890,-247.75
34.906,-229.54
34.921,-214.21
34.937,-204.68
34.953,-200.72
34.968,-199.03
34.984,-194.06
35.000,-180.25
35.015,-154.01
35.031,-114.55
35.046,-64.03
35.062,-6.07
35.078,55.49
35.093,117.3
35.109,176.11
35.125,228.51
35.140,271.19
35.156,301.47
35.171,318.37
35.187,322.37
35.203,315.2
35.218,298.53
35.234,273.18
35.250,239.19
35.265,196.2
35.281,144.86
35.296,87.77
35.312,29.36
35.328,-25.26
35.343,-71.9
35.359,-108.84
35.375,-136.89
35.390,-158.32
35.406,-175.13
35.421,-187.73
35.437,-194.76
35.453,-194.18
35.468,-185.04
35.484,-168.19
35.500,-145.66
35.515,-119.83
35.531,-92.69
35.546,-66.06
35.562,-41.86
35.578,-22.74
35.593,-11.28
35.609,-9.21
35.625,-16.29
35.640,-30.06
35.656,-46.79
35.671,-62.92
35.687,-75.92
35.703,-84.54
35.718,-88.95
35.734,-89.97
35.750,-88.69
35.765,-86.44
35.781,-84.98
35.796,-85.76
35.812,-89.55
35.828,-95.79
35.843,-102.27
35.859,-106.33
35.875,-105.71
35.890,-99.42
35.906,-88.22
35.921,-74.62
35.937,-62.14
35.953,-54.43
35.968,-54.41
35.984,-63.46
36.000,-81.08
36.015,-104.76
36.031,-130.45
36.046,-153.35
36.062,-169.28
36.078,-175.66
36.093,-172.26
36.109,-160.75
36.125,-143.81
36.140,-123.76
36.156,-101.3
36.171,-75.43
36.187,-44.07
36.203,-5.81
36.218,38.25
36.234,83.59
36.250,123.28
36.265,150.23
36.281,159.9
36.296,151.98
36.312,130.21
36.328,100.52
36.343,69.03
36.359,40.78
36.375,19.66
36.390,9.0
36.406,11.75
36.421,29.69
36.437,61.78
36.453,102.9
36.468,143.88
36.484,173.51
36.500,182.71
36.515,167.84
36.531,132.23
36.546,85.01
36.562,37.29
36.578,-1.99
36.593,-28.87
36.609,-44.73
36.625,-54.28
36.640,-62.2
36.656,-70.39
36.671,-77.43
36.687,-79.74
36.703,-74.32
36.718,-60.61
36.734,-41.17
36.750,-20.51
36.765,-2.8
36.781,9.63
36.796,17.05
36.812,21.43
36.828,24.82
36.843,27.84
36.859,29.37
36.875,27.4
36.890,20.62
36.906,9.41
36.921,-4.34
36.937,-18.28
36.953,-30.75
36.968,-40.68
36.984,-46.77
37.000,-46.58
37.015,-36.58
37.031,-13.18
37.046,25.34
37.062,77.44
37.078,138.36
37.093,201.34
37.109,259.99
37.125,310.01
37.140,349.1
37.156,376.57
37.171,392.48
37.187,397.05
37.203,390.19
37.218,372.47
37.234,345.49
37.250,312.26
37.265,276.88
37.281,242.48
37.296,210.04
37.312,177.87
37.328,142.47
37.343,99.68
37.359,47.05
37.375,-15.04
37.390,-83.0
37.406,-151.64
37.421,-216.58
37.437,-275.54
37.453,-328.25
37.468,-372.38
37.484,-402.4
37.500,-412.44
37.515,-400.49
37.531,-369.61
37.546,-326.2
37.562,-277.13
37.578,-227.78
37.593,-181.58
37.609,-140.33
37.625,-104.68
37.640,-74.89
37.656,-51.38
37.671,-33.99
37.687,-21.69
37.703,-13.78
37.718,-8.82
37.734,-5.32
37.750,-1.92
37.765,2.43
37.781,8.24
37.796,14.96
37.812,22.3
37.828,30.97
37.843,41.32
37.859,54.27
37.875,70.56
37.890,90.44
37.906,112.96
37.921,137.37
37.937,159.73
37.953,176.25
37.968,184.05
37.984,181.49
38.000,168.44
38.015,145.99
38.031,115.82
38.046,78.55
38.062,37.95
38.078,-3.2
38.093,-42.44
38.109,-77.7
38.125,-107.71
38.140,-132.45
38.156,-152.53
38.171,-168.3
38.187,-178.17
38.203,-178.89
38.218,-166.9
38.234,-140.2
38.250,-100.48
38.265,-53.46
38.281,-8.08
38.296,27.38
38.312,48.22
38.328,55.02
38.343,51.69
38.359,43.33
38.375,33.43
38.390,23.15
38.406,12.84
38.421,2.47
38.437,-7.13
38.453,-14.89
38.468,-20.9
38.484,-28.09
38.500,-38.69
38.515,-53.66
38.531,-70.91
38.546,-84.81
38.562,-88.61
38.578,-77.41
38.593,-50.81
38.609,-13.74
38.625,25.63
38.640,59.16
38.656,81.32
38.671,90.21
38.687,87.16
38.703,74.73
38.718,55.29
38.734,30.77
38.750,2.48
38.765,-27.71
38.781,-57.62
38.796,-85.04
38.812,-107.39
38.828,-121.16
38.843,-123.14
38.859,-110.98
38.875,-84.65
38.890,-48.17
38.906,-8.33
38.921,27.42
38.937,53.46
38.953,67.73
38.968,72.47
38.984,71.27
39.000,67.15
39.015,61.47
39.031,54.08
39.046,44.47
39.062,33.32
39.078,22.39
39.093,12.82
39.109,3.8
39.125,-7.76
39.140,-25.88
39.156,-53.44
39.171,-89.75
39.187,-131.11
39.203,-172.58
39.218,-208.26
39.234,-234.21
39.250,-248.27
39.265,-249.51
39.281,-237.88
39.296,-214.6
39.312,-183.28
39.328,-150.06
39.343,-121.91
39.359,-103.46
39.375,-94.88
39.390,-91.16
39.406,-83.81
39.421,-66.74
39.437,-38.11
39.453,-1.15
39.468,38.03
39.484,73.57
39.500,102.39
39.515,124.04
39.531,139.73
39.546,150.25
39.562,155.19
39.578,154.26
39.593,148.12
39.609,138.76
39.625,128.29
39.640,119.23
39.656,112.56
39.671,108.19
39.687,105.05
39.703,101.39
39.718,96.76
39.734,92.2
39.750,89.56
39.765,90.41
39.781,95.94
39.796,105.86
39.812,118.59
39.828,131.35
39.843,140.93
39.859,143.73
39.875,137.51
39.890,121.69
39.906,98.45
39.921,72.45
39.937,48.72
39.953,29.84
39.968,15.85
39.984,2.49
40.000,-16.33
40.015,-44.69
40.031,-83.3
40.046,-128.74
40.062,-175.14
40.078,-216.87
40.093,-250.4
40.109,-273.93
40.125,-287.29
40.140,-290.17
40.156,-281.63
40.171,-260.66
40.187,-227.36
40.203,-183.66
40.218,-133.36
40.234,-81.04
40.250,-31.54
40.265,11.74
40.281,47.25
40.296,75.0
40.312,95.78
40.328,110.62
40.343,120.23
40.359,124.74
40.375,125.22
40.390,121.94
40.406,115.74
40.421,107.92
40.437,99.83
40.453,92.55
40.468,86.7
40.484,82.32
40.500,78.52
40.515,74.64
40.531,70.15
40.546,64.97
40.562,59.42
40.578,54.01
40.593,49.15
40.609,45.22
40.625,42.02
40.640,39.29
40.656,36.74
40.671,34.11
40.687,31.22
40.703,28.15
40.718,25.09
40.734,22.14
40.750,19.94
40.765,18.39
40.781,17.48
40.796,17.06
40.812,16.93
40.828,16.77
40.843,16.5
40.859,16.22
40.875,15.6
40.890,15.61
40.906,16.27
40.921,17.46
40.937,18.69
40.953,19.68
40.968,20.14
40.984,20.06
41.000,19.97
41.015,19.98
41.031,21.79
41.046,26.17
41.062,33.72
41.078,44.02
41.093,56.6
41.109,69.87
41.125,82.36
41.140,92.78
41.156,99.21
41.171,100.62
41.187,95.22
41.203,81.78
41.218,60.14
41.234,31.77
41.250,-0.3
41.265,-33.01
41.281,-64.11
41.296,-93.7
41.312,-122.42
41.328,-150.43
41.343,-175.47
41.359,-192.38
41.375,-196.89
41.390,-185.84
41.406,-158.78
41.421,-116.9
41.437,-63.82
41.453,-2.16
41.468,63.89
41.484,128.17
41.500,183.46
41.515,220.94
41.531,234.9
41.546,222.79
41.562,192.11
41.578,152.06
41.593,111.8
41.609,77.11
41.625,50.24
41.640,30.5
41.656,14.61
41.671,-1.13
41.687,-21.67
41.703,-50.59
41.718,-90.47
41.734,-138.94
41.750,-188.58
41.765,-229.84
41.781,-253.79
41.796,-257.67
41.812,-245.39
41.828,-225.66
41.843,-205.44
41.859,-187.07
41.875,-166.81
41.890,-139.26
41.906,-101.6
41.921,-56.15
41.937,-9.65
41.953,31.41
41.968,63.68
41.984,88.55
42.000,108.36
42.015,124.46
42.031,134.03
42.046,132.11
42.062,115.6
42.078,85.57
42.093,48.14
42.109,11.54
42.125,-15.77
42.140,-29.13
42.156,-27.51
42.171,-13.23
42.187,9.97
42.203,38.14
42.218,67.47
42.234,94.24
42.250,114.17
42.265,123.35
42.281,118.56
42.296,99.4
42.312,69.3
42.328,36.88
42.343,11.69
42.359,1.51
42.375,9.06
42.390,31.56
42.406,62.43
42.421,93.49
42.437,117.95
42.453,131.71
42.468,133.84
42.484,124.13
42.500,103.09
42.515,72.01
42.531,33.83
42.546,-6.42
42.562,-43.15
42.578,-71.5
42.593,-87.81
42.609,-91.4
42.625,-84.98
42.640,-74.08
42.656,-64.84
42.671,-63.2
42.687,-69.35
42.703,-79.71
42.718,-91.73
42.734,-103.45
42.750,-114.18
42.765,-124.36
42.781,-134.74
42.796,-145.07
42.812,-155.54
42.828,-165.54
42.843,-175.18
42.859,-183.4
42.875,-187.35
42.890,-182.71
42.906,-165.18
42.921,-132.79
42.937,-87.14
42.953,-35.17
42.968,14.52
42.984,53.26
43.000,76.85
43.015,86.08
43.031,85.55
43.046,80.42
43.062,74.35
43.078,68.46
43.093,62.15
43.109,55.08
43.125,47.45
43.140,40.38
43.156,34.7
43.171,30.77
43.187,27.62
43.203,24.05
43.218,19.02
43.234,12.4
43.250,5.24
43.265,-1.29
43.281,-6.05
43.296,-8.7
43.312,-9.47
43.328,-9.34
43.343,-9.48
43.359,-11.05
43.375,-14.81
43.390,-20.66
43.406,-28.68
43.421,-37.89
43.437,-47.29
43.453,-55.43
43.468,-60.48
43.484,-60.57
43.500,-54.35
43.515,-41.64
43.531,-23.42
43.546,-2.17
43.562,19.41
43.578,38.24
43.593,52.2
43.609,60.43
43.625,63.27
43.640,62.2
43.656,59.35
43.671,57.47
43.687,58.91
43.703,64.43
43.718,71.99
43.734,76.15
43.750,71.69
43.765,55.37
43.781,28.55
43.796,-2.78
43.812,-30.04
43.828,-46.05
43.843,-48.14
43.859,-39.53
43.875,-26.93
43.890,-16.5
43.906,-11.5
43.921,-10.8
43.937,-10.66
43.953,-7.61
43.968,0.01
43.984,11.59
44.000,24.78
44.015,37.62
44.031,49.62
44.046,60.76
44.062,71.94
44.078,84.19
44.093,97.08
44.109,110.71
44.125,125.49
44.140,141.46
44.156,157.46
44.171,170.52
44.187,175.45
44.203,166.01
44.218,139.99
44.234,98.39
44.250,45.97
44.265,-10.31
44.281,-63.23
44.296,-108.52
44.312,-143.26
44.328,-168.4
44.343,-185.75
44.359,-197.57
44.375,-205.44
44.390,-209.23
44.406,-206.26
44.421,-195.02
44.437,-175.01
44.453,-147.86
44.468,-117.27
44.484,-86.71
44.500,-58.21
44.515,-31.44
44.531,-4.53
44.546,23.41
44.562,52.02
44.578,79.08
44.593,101.3
44.609,115.86
44.625,122.81
44.640,124.15
44.656,124.33
44.671,128.96
44.687,141.64
44.703,161.84
44.718,184.65
44.734,200.91
44.750,203.34
44.765,188.12
44.781,156.77
44.796,115.32
44.812,71.13
44.828,30.25
44.843,-5.03
44.859,-35.32
44.875,-62.38
44.890,-87.57
44.906,-112.32
44.921,-137.36
44.937,-163.59
44.953,-191.39
44.968,-219.28
44.984,-243.33
45.000,-258.11
45.015,-257.13
45.031,-238.93
45.046,-205.74
45.062,-162.95
45.078,-117.06
45.093,-73.78
45.109,-36.92
45.125,-8.64
45.140,10.55
45.156,21.12
45.171,24.15
45.187,22.49
45.203,19.67
45.218,18.99
45.234,22.64
45.250,31.38
45.265,44.02
45.281,58.25
45.296,71.43
45.312,81.13
45.328,87.5
45.343,93.24
45.359,102.72
45.375,119.48
45.390,144.2
45.406,173.0
45.421,198.07
45.437,210.47
45.453,202.77
45.468,174.94
45.484,131.7
45.500,81.32
45.515,31.41
45.531,-13.51
45.546,-52.43
45.562,-86.75
45.578,-117.92
45.593,-145.48
45.609,-166.83
45.625,-179.34
45.640,-180.83
45.656,-170.51
45.671,-148.9
45.687,-117.68
45.703,-79.12
45.718,-38.15
45.734,-0.25
45.750,28.64
45.765,43.21
45.781,41.62
45.796,26.66
45.812,5.24
45.828,-13.67
45.843,-23.54
45.859,-21.73
45.875,-9.52
45.890,8.89
45.906,28.54
45.921,46.08
45.937,60.18
45.953,71.25
45.968,81.53
45.984,92.53
46.000,105.5
46.015,120.26
46.031,134.2
46.046,141.87
46.062,139.21
46.078,123.69
46.093,95.99
46.109,60.43
46.125,22.0
46.140,-15.46
46.156,-50.32
46.171,-83.21
46.187,-114.9
46.203,-143.42
46.218,-165.56
46.234,-177.29
46.250,-175.7
46.265,-160.32
46.281,-132.75
46.296,-95.71
46.312,-52.1
46.328,-6.52
46.343,37.49
46.359,75.65
46.375,104.15
46.390,121.37
46.406,127.47
46.421,125.13
46.437,118.36
46.453,109.96
46.468,100.82
46.484,89.35
46.500,72.39
46.515,47.93
46.531,16.78
46.546,-15.61
46.562,-41.66
46.578,-54.6
46.593,-52.28
46.609,-37.56
46.625,-17.17
46.640,1.04
46.656,11.85
46.671,14.4
46.687,11.69
46.703,8.51
46.718,8.51
46.734,11.89
46.750,15.68
46.765,15.59
46.781,8.39
46.796,-6.3
46.812,-25.92
46.828,-46.97
46.843,-66.5
46.859,-82.49
46.875,-94.47
46.890,-102.78
46.906,-107.6
46.921,-108.72
46.937,-106.03
46.953,-99.78
46.968,-90.55
46.984,-79.1
47.000,-64.76
47.015,-46.4
47.031,-22.47
47.046,7.16
47.062,40.26
47.078,72.48
47.093,98.12
47.109,112.05
47.125,112.03
47.140,98.62
47.156,77.76
47.171,55.62
47.187,36.23
47.203,20.41
47.218,3.73
47.234,-21.44
47.250,-61.31
47.265,-116.59
47.281,-181.4
47.296,-243.11
47.312,-287.46
47.328,-302.33
47.343,-282.61
47.359,-231.09
47.375,-155.53
47.390,-69.4
47.406,16.26
47.421,93.72
47.437,160.16
47.453,213.6
47.468,253.07
47.484,277.4
47.500,285.33
47.515,276.52
47.531,252.28
47.546,216.36
47.562,171.16
47.578,122.29
47.593,72.37
47.609,22.58
47.625,-25.89
47.640,-72.46
47.656,-114.89
47.671,-149.32
47.687,-171.6
47.703,-178.96
47.718,-170.05
47.734,-147.07
47.750,-113.84
47.765,-74.39
47.781,-33.87
47.796,4.08
47.812,37.05
47.828,63.75
47.843,83.61
47.859,97.72
47.875,106.74
47.890,111.36
47.906,112.81
47.921,112.24
47.937,111.32
47.953,111.79
47.968,115.1
47.984,121.15
48.000,128.31
48.015,132.73
48.031,129.53
48.046,115.97
48.062,92.75
48.078,64.5
48.093,38.14
48.109,18.25
48.125,6.45
48.140,1.16
48.156,-1.65
48.171,-5.94
48.187,-13.61
48.203,-24.6
48.218,-37.59
48.234,-51.46
48.250,-65.89
48.265,-81.56
48.281,-98.19
48.296,-114.89
48.312,-130.02
48.328,-141.43
48.343,-147.4
48.359,-147.12
48.375,-140.37
48.390,-126.16
48.406,-106.05
48.421,-80.52
48.437,-50.1
48.453,-15.85
48.468,20.78
48.484,57.27
48.500,90.75
48.515,118.08
48.531,136.83
48.546,145.59
48.562,144.51
48.578,134.61
48.593,117.06
48.609,92.79
48.625,64.01
48.640,32.43
48.656,0.02
48.671,-30.81
48.687,-57.6
48.703,-78.19
48.718,-91.49
48.734,-98.14
48.750,-99.6
48.765,-98.25
48.781,-96.61
48.796,-96.49
48.812,-98.86
48.828,-103.63
48.843,-109.0
48.859,-111.55
48.875,-107.24
48.890,-92.21
48.906,-65.56
48.921,-30.4
48.937,6.71
48.953,38.48
48.968,59.7
48.984,69.1
49.000,69.88
49.015,67.17
49.031,65.4
49.046,66.06
49.062,67.23
49.078,65.39
49.093,57.67
49.109,43.49
49.125,25.22
49.140,7.39
49.156,-5.43
49.171,-10.02
49.187,-5.92
49.203,4.06
49.218,15.41
49.234,23.62
49.250,25.59
49.265,20.5
49.281,9.69
49.296,-4.93
49.312,-21.49
49.328,-38.36
49.343,-54.18
49.359,-66.99
49.375,-75.02
49.390,-77.93
49.406,-77.04
49.421,-74.78
49.437,-73.75
49.453,-74.56
49.468,-74.26
49.484,-69.36
49.500,-56.44
49.515,-34.83
49.531,-7.52
49.546,20.32
49.562,43.71
49.578,59.7
49.593,68.33
49.609,71.79
49.625,72.41
49.640,72.38
49.656,73.24
49.671,76.07
49.687,81.61
49.703,90.02
49.718,100.26
49.734,110.4
49.750,117.9
49.765,119.89
49.781,114.43
49.796,100.63
49.812,79.01
49.828,51.04
49.843,19.76
49.859,-11.96
49.875,-41.8
49.890,-68.55
49.906,-92.55
49.921,-115.12
49.937,-136.85
49.953,-156.25
49.968,-169.5
49.984,-171.9
50.000,-160.92
50.015,-138.06
50.031,-109.46
50.046,-82.74
50.062,-64.85
50.078,-59.47
50.093,-65.07
50.109,-76.49
50.125,-87.63
50.140,-93.39
50.156,-90.45
50.171,-76.99
50.187,-52.79
50.203,-19.52
50.218,18.82
50.234,55.35
50.250,82.7
50.265,96.03
50.281,94.83
50.296,83.39
50.312,69.24
50.328,59.84
50.343,60.2
50.359,71.16
50.375,90.76
50.390,114.52
50.406,137.5
50.421,154.11
50.437,159.49
50.453,150.9
50.468,128.85
50.484,97.57
50.500,63.67
50.515,33.26
50.531,8.7
50.546,-10.96
50.562,-29.75
50.578,-50.65
50.593,-72.82
50.609,-91.65
50.625,-101.59
50.640,-99.37
50.656,-86.26
50.671,-66.88
50.687,-47.15
50.703,-31.46
50.718,-20.81
50.734,-12.97
50.750,-4.76
50.765,5.93
50.781,18.91
50.796,31.68
50.812,42.04
50.828,49.58
50.843,55.81
50.859,62.86
50.875,72.98
50.890,85.6
50.906,97.97
50.921,105.55
50.937,103.64
50.953,89.17
50.968,61.38
50.984,22.31
51.000,-24.87
51.015,-76.84
51.031,-129.59
51.046,-179.08
51.062,-220.31
51.078,-247.84
51.093,-257.28
51.109,-247.21
51.125,-219.74
51.140,-179.78
51.156,-133.83
51.171,-87.54
51.187,-44.28
51.203,-6.36
51.218,25.61
51.234,51.86
51.250,72.54
51.265,88.41
51.281,101.32
51.296,113.54
51.312,126.99
51.328,142.23
51.343,158.12
51.359,171.56
51.375,178.73
51.390,175.93
51.406,162.89
51.421,144.52
51.437,127.46
51.453,119.01
51.468,122.99
51.484,136.7
51.500,151.58
51.515,156.76
51.531,142.86
51.546,106.77
51.562,52.96
51.578,-8.33
51.593,-65.37
51.609,-108.62
51.625,-133.43
51.640,-140.2
51.656,-132.34
51.671,-114.19
51.687,-89.35
51.703,-60.43
51.718,-30.19
51.734,-2.1
51.750,19.39
51.765,29.9
51.781,26.35
51.796,8.75
51.812,-19.8
51.828,-53.99
51.843,-87.52
51.859,-114.59
51.875,-130.02
51.890,-130.54
51.906,-116.08
51.921,-90.58
51.937,-60.02
51.953,-31.8
51.968,-10.75
51.984,1.69
52.000,6.59
52.015,6.61
52.031,3.78
52.046,-1.89
52.062,-11.79
52.078,-26.18
52.093,-44.49
52.109,-64.56
52.125,-83.7
52.140,-99.96
52.156,-113.06
52.171,-123.07
52.187,-130.18
52.203,-133.88
52.218,-132.36
52.234,-123.56
52.250,-105.9
52.265,-79.44
52.281,-45.92
52.296,-9.41
52.312,26.06
52.328,57.09
52.343,81.66
52.359,99.43
52.375,110.78
52.390,116.92
52.406,119.11
52.421,119.01
52.437,118.28
52.453,117.53
52.468,115.56
52.484,108.62
52.500,92.84
52.515,66.1
52.531,30.37
52.546,-9.09
52.562,-45.68
52.578,-73.93
52.593,-92.02
52.609,-101.13
52.625,-103.05
52.640,-97.77
52.656,-83.54
52.671,-58.22
52.687,-22.75
52.703,17.94
52.718,56.66
52.734,86.58
52.750,104.64
52.765,112.6
52.781,115.97
52.796,119.57
52.812,126.16
52.828,134.97
52.843,143.39
52.859,148.55
52.875,148.65
52.890,143.29
52.906,132.76
52.921,117.4
52.937,96.27
52.953,70.75
52.968,41.38
52.984,9.75
53.000,-21.81
53.015,-50.73
53.031,-74.54
53.046,-91.54
53.062,-101.69
53.078,-105.3
53.093,-103.19
53.109,-96.84
53.125,-87.42
53.140,-75.76
53.156,-62.89
53.171,-49.88
53.187,-37.97
53.203,-28.56
53.218,-22.29
53.234,-18.79
53.250,-16.92
53.265,-14.93
53.281,-11.12
53.296,-4.66
53.312,4.04
53.328,13.09
53.343,20.62
53.359,25.23
53.375,26.9
53.390,26.77
53.406,26.6
53.421,27.92
53.437,31.57
53.453,37.49
53.468,44.19
53.484,49.58
53.500,51.12
53.515,46.32
53.531,33.75
53.546,13.46
53.562,-11.91
53.578,-37.91
53.593,-59.18
53.609,-72.11
53.625,-75.52
53.640,-70.49
53.656,-59.65
53.671,-45.23
53.687,-29.04
53.703,-11.18
53.718,8.86
53.734,31.12
53.750,53.47
53.765,71.77
53.781,81.05
53.796,77.14
53.812,58.78
53.828,28.47
53.843,-6.71
53.859,-37.5
53.875,-52.94
53.890,-47.26
53.906,-22.51
53.921,12.53
53.937,46.46
53.953,70.04
53.968,78.85
53.984,74.14
54.000,60.86
54.015,44.67
54.031,29.55
54.046,16.97
54.062,6.39
54.078,-4.28
54.093,-16.83
54.109,-31.99
54.125,-48.92
54.140,-65.67
54.156,-80.06
54.171,-90.15
54.187,-95.18
54.203,-94.94
54.218,-89.24
54.234,-77.29
54.250,-58.19
54.265,-31.83
54.281,-0.58
54.296,30.97
54.312,57.58
54.328,75.82
54.343,86.13
54.359,92.53
54.375,100.35
54.390,112.93
54.406,130.02
54.421,147.98
54.437,161.13
54.453,165.14
54.468,158.77
54.484,143.34
54.500,120.96
54.515,92.62
54.531,57.74
54.546,15.61
54.562,-32.77
54.578,-83.8
54.593,-131.83
54.609,-171.42
54.625,-199.62
54.640,-217.07
54.656,-227.33
54.671,-234.92
54.687,-243.24
54.703,-253.05
54.718,-262.14
54.734,-266.08
54.750,-259.99
54.765,-240.42
54.781,-206.62
54.796,-160.7
54.812,-106.9
54.828,-50.77
54.843,1.85
54.859,45.81
54.875,77.98
54.890,98.72
54.906,112.31
54.921,126.0
54.937,147.29
54.953,180.31
54.968,223.54
54.984,269.91
55.000,309.63
55.015,334.32
55.031,339.97
55.046,327.7
55.062,301.89
55.078,267.45
55.093,227.58
55.109,183.61
55.125,136.18
55.140,86.49
55.156,37.07
55.171,-8.45
55.187,-46.41
55.203,-73.89
55.218,-89.22
55.234,-92.54
55.250,-85.35
55.265,-70.02
55.281,-49.4
55.296,-26.5
55.312,-3.96
55.328,16.06
55.343,31.98
55.359,43.21
55.375,49.72
55.390,52.12
55.406,51.31
55.421,48.02
55.437,42.43
55.453,34.02
55.468,21.55
55.484,3.56
55.500,-20.63
55.515,-49.96
55.531,-81.29
55.546,-109.93
55.562,-131.18
55.578,-142.23
55.593,-143.28
55.609,-137.77
55.625,-131.0
55.640,-128.2
55.656,-132.4
55.671,-143.91
55.687,-160.81
55.703,-180.74
55.718,-202.52
55.734,-226.54
55.750,-253.82
55.765,-283.96
55.781,-313.23
55.796,-334.31
55.812,-338.03
55.828,-316.25
55.843,-265.33
55.859,-188.0
55.875,-92.99
55.890,7.61
55.906,101.54
55.921,179.6
55.937,237.27
55.953,274.41
55.968,293.97
55.984,299.76
56.000,294.64
56.015,279.75
56.031,255.01
56.046,220.14
56.062,176.09
56.078,125.72
56.093,73.52
56.109,24.72
56.125,-15.82
56.140,-44.63
56.156,-59.63
56.171,-60.44
56.187,-48.55
56.203,-27.11
56.218,-0.82
56.234,24.73
56.250,43.98
56.265,52.53
56.281,47.72
56.296,29.01
56.312,-2.42
56.328,-43.54
56.343,-89.01
56.359,-131.32
56.375,-161.86
56.390,-173.36
56.406,-163.02
56.421,-134.35
56.437,-96.47
56.453,-61.49
56.468,-39.9
56.484,-36.8
56.500,-50.59
56.515,-73.92
56.531,-97.07
56.546,-111.47
56.562,-112.16
56.578,-98.19
56.593,-71.64
56.609,-35.9
56.625,5.62
56.640,49.68
56.656,93.04
56.671,131.98
56.687,162.33
56.703,180.09
56.718,182.54
56.734,169.48
56.750,143.54
56.765,109.43
56.781,72.63
56.796,38.64
56.812,12.09
56.828,-3.55
56.843,-6.91
56.859,0.92
56.875,16.42
56.890,34.88
56.906,51.59
56.921,62.7
56.937,66.34
56.953,62.11
56.968,51.31
56.984,35.59
57.000,16.31
57.015,-5.41
57.031,-28.37
57.046,-51.58
57.062,-74.93
57.078,-98.95
57.093,-124.79
57.109,-151.77
57.125,-177.0
57.140,-194.9
57.156,-198.51
57.171,-182.33
57.187,-145.22
57.203,-92.14
57.218,-32.18
57.234,24.04
57.250,69.6
57.265,102.33
57.281,125.73
57.296,146.9
57.312,171.89
57.328,202.96
57.343,236.31
57.359,264.89
57.375,279.71
57.390,275.53
57.406,250.54
57.421,207.69
57.437,154.87
57.453,101.71
57.468,58.2
57.484,31.88
57.500,27.68
57.515,42.59
57.531,68.17
57.546,88.64
57.562,86.05
57.578,47.25
57.593,-31.23
57.609,-141.91
57.625,-270.28
57.640,-398.13
57.656,-513.7
57.671,-588.04
57.687,-597.02
57.703,-533.24
57.718,-412.57
57.734,-264.54
57.750,-115.48
57.765,7.22
57.781,105.07
57.796,179.91
57.812,232.67
57.828,262.24
57.843,269.4
57.859,259.63
57.875,240.08
57.890,218.95
57.906,202.04
57.921,192.8
57.937,186.14
57.953,176.05
57.968,156.44
57.984,124.33
58.000,80.85
58.015,30.0
58.031,-21.99
58.046,-68.91
58.062,-104.4
58.078,-131.4
58.093,-156.11
58.109,-187.4
58.125,-232.76
58.140,-295.88
58.156,-375.85
58.171,-466.14
58.187,-557.34
58.203,-615.51
58.218,-616.04
58.234,-551.58
58.250,-438.35
58.265,-303.96
58.281,-171.67
58.296,-54.0
58.312,46.07
58.328,125.53
58.343,190.81
58.359,240.75
58.375,273.65
58.390,291.4
58.406,301.57
58.421,314.36
58.437,329.94
58.453,346.4
58.468,357.7
58.484,357.8
58.500,340.23
58.515,304.09
58.531,254.78
58.546,201.64
58.562,153.17
58.578,113.48
58.593,83.44
58.609,61.12
58.625,44.68
58.640,31.18
58.656,18.52
58.671,5.84
58.687,-6.67
58.703,-18.64
58.718,-30.26
58.734,-41.26
58.750,-50.2
58.765,-54.72
58.781,-53.81
58.796,-46.87
58.812,-33.61
58.828,-14.06
58.843,11.24
58.859,40.66
58.875,71.56
58.890,99.44
58.906,118.31
58.921,121.6
58.937,105.38
58.953,70.85
58.968,24.7
58.984,-23.26
59.000,-63.54
59.015,-90.57
59.031,-104.47
59.046,-108.47
59.062,-108.32
59.078,-109.25
59.093,-113.62
59.109,-120.25
59.125,-126.2
59.140,-127.84
59.156,-121.71
59.171,-104.85
59.187,-75.99
59.203,-35.52
59.218,14.09
59.234,68.53
59.250,122.64
59.265,171.82
59.281,213.63
59.296,248.57
59.312,279.35
59.328,307.61
59.343,332.21
59.359,348.4
59.375,349.14
59.390,328.2
59.406,282.16
59.421,211.94
59.437,123.16
59.453,24.92
59.468,-73.55
59.484,-164.49
59.500,-243.0
59.515,-307.46
59.531,-358.01
59.546,-396.79
59.562,-427.69
59.578,-455.09
59.593,-470.49
59.609,-465.45
59.625,-434.89
59.640,-380.45
59.656,-310.11
59.671,-232.29
59.687,-153.83
59.703,-79.7
59.718,-13.24
59.734,43.98
59.750,92.1
59.765,134.89
59.781,175.4
59.796,214.78
59.812,254.74
59.828,295.22
59.843,333.47
59.859,365.37
59.875,376.86
59.890,361.35
59.906,320.98
59.921,272.17
59.937,220.6
59.953,168.56
59.968,115.79
59.984,60.71
