timestamp,value
00.000,42.4
00.015,41.98
00.031,41.79
00.046,42.0
00.062,42.61
00.078,43.51
00.093,44.54
00.109,45.54
00.125,46.41
00.140,47.03
00.156,47.34
00.171,47.3
00.187,46.86
00.203,46.01
00.218,44.8
00.234,43.3
00.250,41.66
00.265,39.95
00.281,38.23
00.296,36.5
00.312,34.72
00.328,32.82
00.343,30.8
00.359,28.69
00.375,26.6
00.390,24.55
00.406,22.57
00.421,20.58
00.437,18.47
00.453,16.19
00.468,13.75
00.484,11.24
00.500,8.79
00.515,6.46
00.531,4.23
00.546,1.96
00.562,-0.52
00.578,-3.37
00.593,-6.69
00.609,-10.42
00.625,-14.45
00.640,-18.63
00.656,-22.86
00.671,-27.1
00.687,-31.38
00.703,-35.79
00.718,-40.44
00.734,-45.47
00.750,-51.01
00.765,-57.08
00.781,-63.49
00.796,-69.72
00.812,-74.98
00.828,-78.32
00.843,-78.96
00.859,-76.53
00.875,-71.2
00.890,-63.67
00.906,-54.86
00.921,-45.65
00.937,-36.66
00.953,-28.16
00.968,-20.13
00.984,-12.44
01.000,-4.93
01.015,2.39
01.031,9.37
01.046,15.78
01.062,21.34
01.078,25.93
01.093,29.57
01.109,32.4
01.125,34.57
01.140,36.12
01.156,37.03
01.171,37.26
01.187,36.9
01.203,36.29
01.218,35.89
01.234,36.13
01.250,37.19
01.265,38.88
01.281,40.8
01.296,42.44
01.312,43.49
01.328,43.87
01.343,43.77
01.359,43.39
01.375,42.88
01.390,42.3
01.406,41.58
01.421,40.67
01.437,39.52
01.453,38.15
01.468,36.65
01.484,35.07
01.500,33.45
01.515,31.83
01.531,30.26
01.546,28.77
01.562,27.39
01.578,26.12
01.593,24.88
01.609,23.56
01.625,21.98
01.640,19.96
01.656,17.39
01.671,14.28
01.687,10.8
01.703,7.21
01.718,3.78
01.734,0.66
01.750,-2.16
01.765,-4.83
01.781,-7.53
01.796,-10.41
01.812,-13.52
01.828,-16.88
01.843,-20.45
01.859,-24.21
01.875,-28.2
01.890,-32.44
01.906,-36.99
01.921,-41.9
01.937,-47.21
01.953,-52.85
01.968,-58.54
01.984,-63.75
02.000,-67.77
02.015,-69.96
02.031,-69.83
02.046,-67.29
02.062,-62.66
02.078,-56.44
02.093,-49.24
02.109,-41.59
02.125,-33.9
02.140,-26.46
02.156,-19.47
02.171,-13.03
02.187,-7.19
02.203,-1.91
02.218,2.9
02.234,7.29
02.250,11.2
02.265,14.52
02.281,17.05
02.296,18.66
02.312,19.38
02.328,19.4
02.343,19.08
02.359,18.8
02.375,18.85
02.390,19.35
02.406,20.26
02.421,21.47
02.437,22.89
02.453,24.55
02.468,26.5
02.484,28.83
02.500,31.51
02.515,34.33
02.531,36.99
02.546,39.12
02.562,40.4
02.578,40.65
02.593,39.86
02.609,38.15
02.625,35.76
02.640,32.96
02.656,29.95
02.671,26.86
02.687,23.69
02.703,20.39
02.718,16.83
02.734,12.91
02.750,8.56
02.765,3.78
02.781,-1.37
02.796,-6.72
02.812,-12.0
02.828,-16.86
02.843,-20.94
02.859,-23.91
02.875,-25.61
02.890,-26.14
02.906,-25.86
02.921,-25.34
02.937,-25.17
02.953,-25.8
02.968,-27.42
02.984,-29.92
03.000,-33.13
03.015,-36.85
03.031,-41.05
03.046,-45.8
03.062,-51.16
03.078,-57.01
03.093,-62.94
03.109,-68.22
03.125,-72.03
03.140,-73.6
03.156,-72.52
03.171,-68.79
03.187,-62.81
03.203,-55.26
03.218,-46.86
03.234,-38.29
03.250,-30.07
03.265,-22.51
03.281,-15.78
03.296,-9.84
03.312,-4.54
03.328,0.44
03.343,5.42
03.359,10.62
03.375,16.05
03.390,21.45
03.406,26.42
03.421,30.54
03.437,33.57
03.453,35.47
03.468,36.42
03.484,36.7
03.500,36.64
03.515,36.54
03.531,36.67
03.546,37.19
03.562,38.12
03.578,39.38
03.593,40.79
03.609,42.09
03.625,43.04
03.640,43.45
03.656,43.24
03.671,42.37
03.687,40.96
03.703,39.15
03.718,37.11
03.734,34.95
03.750,32.75
03.765,30.53
03.781,28.22
03.796,25.81
03.812,23.26
03.828,20.61
03.843,17.93
03.859,15.29
03.875,12.81
03.890,10.52
03.906,8.4
03.921,6.34
03.937,4.24
03.953,2.03
03.968,-0.3
03.984,-2.71
04.000,-5.22
04.015,-7.83
04.031,-10.59
04.046,-13.44
04.062,-16.23
04.078,-18.76
04.093,-20.86
04.109,-22.53
04.125,-23.97
04.140,-25.52
04.156,-27.44
04.171,-29.9
04.187,-32.87
04.203,-36.25
04.218,-39.97
04.234,-44.07
04.250,-48.55
04.265,-53.27
04.281,-57.81
04.296,-61.49
04.312,-63.53
04.328,-63.31
04.343,-60.6
04.359,-55.66
04.375,-49.17
04.390,-41.97
04.406,-34.82
04.421,-28.18
04.437,-22.16
04.453,-16.6
04.468,-11.25
04.484,-5.89
04.500,-0.41
04.515,5.19
04.531,10.82
04.546,16.37
04.562,21.73
04.578,26.72
04.593,31.15
04.609,34.79
04.625,37.45
04.640,39.02
04.656,39.6
04.671,39.45
04.687,38.94
04.703,38.5
04.718,38.44
04.734,38.9
04.750,39.83
04.765,41.04
04.781,42.28
04.796,43.37
04.812,44.18
04.828,44.68
04.843,44.83
04.859,44.58
04.875,43.81
04.890,42.45
04.906,40.44
04.921,37.9
04.937,35.08
04.953,32.28
04.968,29.77
04.984,27.66
05.000,25.88
05.015,24.26
05.031,22.65
05.046,20.94
05.062,19.18
05.078,17.44
05.093,15.76
05.109,14.1
05.125,12.41
05.140,10.62
05.156,8.7
05.171,6.67
05.187,4.52
05.203,2.24
05.218,-0.19
05.234,-2.73
05.250,-5.35
05.265,-8.06
05.281,-10.85
05.296,-13.77
05.312,-16.81
05.328,-19.92
05.343,-22.99
05.359,-25.94
05.375,-28.76
05.390,-31.62
05.406,-34.75
05.421,-38.44
05.437,-42.92
05.453,-48.29
05.468,-54.45
05.484,-60.99
05.500,-67.19
05.515,-72.09
05.531,-74.71
05.546,-74.39
05.562,-71.08
05.578,-65.31
05.593,-58.03
05.609,-50.27
05.625,-42.76
05.640,-35.81
05.656,-29.36
05.671,-23.23
05.687,-17.27
05.703,-11.44
05.718,-5.77
05.734,-0.28
05.750,5.11
05.765,10.45
05.781,15.72
05.796,20.7
05.812,25.04
05.828,28.33
05.843,30.34
05.859,31.11
05.875,30.99
05.890,30.5
05.906,30.14
05.921,30.23
05.937,30.9
05.953,32.04
05.968,33.49
05.984,35.04
06.000,36.53
06.015,37.81
06.031,38.78
06.046,39.35
06.062,39.51
06.078,39.27
06.093,38.71
06.109,37.88
06.125,36.83
06.140,35.59
06.156,34.2
06.171,32.69
06.187,31.09
06.203,29.41
06.218,27.61
06.234,25.63
06.250,23.47
06.265,21.13
06.281,18.75
06.296,16.44
06.312,14.26
06.328,12.19
06.343,10.12
06.359,7.91
06.375,5.46
06.390,2.74
06.406,-0.26
06.421,-3.53
06.437,-7.07
06.453,-10.87
06.468,-14.88
06.484,-18.95
06.500,-22.91
06.515,-26.59
06.531,-29.98
06.546,-33.2
06.562,-36.54
06.578,-40.36
06.593,-44.97
06.609,-50.45
06.625,-56.57
06.640,-62.74
06.656,-68.05
06.671,-71.57
06.687,-72.54
06.703,-70.67
06.718,-66.23
06.734,-59.93
06.750,-52.63
06.765,-45.12
06.781,-37.88
06.796,-31.1
06.812,-24.79
06.828,-18.86
06.843,-13.23
06.859,-7.8
06.875,-2.48
06.890,2.82
06.906,8.05
06.921,13.03
06.937,17.43
06.953,20.91
06.968,23.25
06.984,24.44
07.000,24.69
07.015,24.33
07.031,23.7
07.046,23.04
07.062,22.56
07.078,22.4
07.093,22.66
07.109,23.37
07.125,24.46
07.140,25.75
07.156,26.99
07.171,27.97
07.187,28.58
07.203,28.86
07.218,28.9
07.234,28.73
07.250,28.29
07.265,27.49
07.281,26.24
07.296,24.63
07.312,22.8
07.328,20.95
07.343,19.16
07.359,17.42
07.375,15.61
07.390,13.61
07.406,11.37
07.421,8.96
07.437,6.5
07.453,4.12
07.468,1.87
07.484,-0.28
07.500,-2.43
07.515,-4.73
07.531,-7.27
07.546,-10.07
07.562,-13.1
07.578,-16.26
07.593,-19.47
07.609,-22.68
07.625,-25.94
07.640,-29.34
07.656,-33.0
07.671,-37.05
07.687,-41.66
07.703,-46.95
07.718,-53.03
07.734,-59.71
07.750,-66.52
07.765,-72.64
07.781,-77.13
07.796,-79.11
07.812,-78.08
07.828,-74.09
07.843,-67.67
07.859,-59.71
07.875,-51.11
07.890,-42.58
07.906,-34.52
07.921,-27.07
07.937,-20.17
07.953,-13.7
07.968,-7.49
07.984,-1.37
08.000,4.8
08.015,11.11
08.031,17.5
08.046,23.75
08.062,29.54
08.078,34.51
08.093,38.39
08.109,41.15
08.125,42.94
08.140,44.06
08.156,44.86
08.171,45.61
08.187,46.51
08.203,47.6
08.218,48.83
08.234,50.03
08.250,50.97
08.265,51.53
08.281,51.67
08.296,51.48
08.312,51.14
08.328,50.73
08.343,50.22
08.359,49.42
08.375,48.13
08.390,46.25
08.406,43.9
08.421,41.36
08.437,39.0
08.453,37.07
08.468,35.59
08.484,34.36
08.500,33.07
08.515,31.44
08.531,29.31
08.546,26.68
08.562,23.68
08.578,20.46
08.593,17.15
08.609,13.87
08.625,10.7
08.640,7.74
08.656,5.07
08.671,2.7
08.687,0.57
08.703,-1.5
08.718,-3.76
08.734,-6.41
08.750,-9.55
08.765,-13.18
08.781,-17.15
08.796,-21.26
08.812,-25.41
08.828,-29.57
08.843,-33.87
08.859,-38.46
08.875,-43.52
08.890,-49.14
08.906,-55.34
08.921,-61.97
08.937,-68.7
08.953,-75.08
08.968,-80.44
08.984,-84.11
09.000,-85.48
09.015,-84.17
09.031,-80.19
09.046,-73.97
09.062,-66.16
09.078,-57.53
09.093,-48.68
09.109,-40.0
09.125,-31.67
09.140,-23.68
09.156,-16.01
09.171,-8.6
09.187,-1.38
09.203,5.75
09.218,12.88
09.234,19.97
09.250,26.84
09.265,33.13
09.281,38.39
09.296,42.25
09.312,44.56
09.328,45.47
09.343,45.34
09.359,44.72
09.375,44.11
09.390,43.9
09.406,44.3
09.421,45.32
09.437,46.85
09.453,48.67
09.468,50.48
09.484,51.98
09.500,52.87
09.515,52.91
09.531,51.98
09.546,50.08
09.562,47.36
09.578,44.09
09.593,40.65
09.609,37.38
09.625,34.47
09.640,32.06
09.656,30.09
09.671,28.44
09.687,26.95
09.703,25.45
09.718,23.89
09.734,22.26
09.750,20.59
09.765,18.92
09.781,17.18
09.796,15.27
09.812,13.04
09.828,10.44
09.843,7.5
09.859,4.38
09.875,1.29
09.890,-1.65
09.906,-4.47
09.921,-7.34
09.937,-10.51
09.953,-14.15
09.968,-18.25
09.984,-22.65
10.000,-27.08
10.015,-31.32
10.031,-35.27
10.046,-38.98
10.062,-42.64
10.078,-46.5
10.093,-50.75
10.109,-55.53
10.125,-60.84
10.140,-66.54
10.156,-72.25
10.171,-77.4
10.187,-81.27
10.203,-83.08
10.218,-82.27
10.234,-78.61
10.250,-72.37
10.265,-64.23
10.281,-55.11
10.296,-45.88
10.312,-37.14
10.328,-29.17
10.343,-21.88
10.359,-14.99
10.375,-8.17
10.390,-1.22
10.406,5.86
10.421,12.89
10.437,19.55
10.453,25.56
10.468,30.7
10.484,34.88
10.500,38.1
10.515,40.4
10.531,41.85
10.546,42.6
10.562,42.87
10.578,42.94
10.593,43.1
10.609,43.57
10.625,44.37
10.640,45.34
10.656,46.24
10.671,46.77
10.687,46.78
10.703,46.26
10.718,45.33
10.734,44.16
10.750,42.91
10.765,41.63
10.781,40.29
10.796,38.77
10.812,36.96
10.828,34.79
10.843,32.34
10.859,29.8
10.875,27.45
10.890,25.48
10.906,23.9
10.921,22.54
10.937,21.07
10.953,19.18
10.968,16.73
10.984,13.77
11.000,10.58
11.015,7.46
11.031,4.67
11.046,2.23
11.062,0.01
11.078,-2.21
11.093,-4.65
11.109,-7.38
11.125,-10.33
11.140,-13.34
11.156,-16.21
11.171,-18.79
11.187,-21.07
11.203,-23.24
11.218,-25.65
11.234,-28.91
11.250,-33.72
11.265,-40.64
11.281,-49.89
11.296,-60.98
11.312,-72.71
11.328,-83.35
11.343,-91.05
11.359,-94.39
11.375,-92.78
11.390,-86.56
11.406,-76.8
11.421,-65.01
11.437,-52.63
11.453,-40.79
11.468,-30.13
11.484,-20.89
11.500,-13.0
11.515,-6.28
11.531,-0.43
11.546,4.74
11.562,9.43
11.578,13.76
11.593,17.78
11.609,21.55
11.625,25.0
11.640,28.03
11.656,30.49
11.671,32.29
11.687,33.47
11.703,34.28
11.718,35.11
11.734,36.29
11.750,38.0
11.765,40.11
11.781,42.28
11.796,44.1
11.812,45.27
11.828,45.74
11.843,45.65
11.859,45.27
11.875,44.8
11.890,44.39
11.906,44.02
11.921,43.67
11.937,43.22
11.953,42.58
11.968,41.7
11.984,40.51
12.000,39.04
12.015,37.33
12.031,35.49
12.046,33.62
12.062,31.83
12.078,30.18
12.093,28.65
12.109,27.1
12.125,25.33
12.140,23.13
12.156,20.36
12.171,17.02
12.187,13.2
12.203,9.18
12.218,5.23
12.234,1.67
12.250,-1.26
12.265,-3.52
12.281,-5.3
12.296,-7.13
12.312,-9.83
12.328,-14.36
12.343,-21.49
12.359,-31.48
12.375,-43.95
12.390,-57.83
12.406,-71.57
12.421,-83.52
12.437,-92.25
12.453,-96.82
12.468,-96.94
12.484,-93.0
12.500,-85.94
12.515,-76.97
12.531,-67.25
12.546,-57.66
12.562,-48.67
12.578,-40.38
12.593,-32.66
12.609,-25.34
12.625,-18.26
12.640,-11.38
12.656,-4.69
12.671,1.71
12.687,7.71
12.703,13.1
12.718,17.64
12.734,21.1
12.750,23.41
12.765,24.63
12.781,25.0
12.796,24.88
12.812,24.62
12.828,24.54
12.843,24.86
12.859,25.66
12.875,26.91
12.890,28.46
12.906,30.1
12.921,31.59
12.937,32.73
12.953,33.38
12.968,33.54
12.984,33.27
13.000,32.69
13.015,31.9
13.031,31.0
13.046,29.99
13.062,28.84
13.078,27.45
13.093,25.7
13.109,23.45
13.125,20.62
13.140,17.28
13.156,13.61
13.171,9.99
13.187,6.82
13.203,4.42
13.218,2.97
13.234,2.31
13.250,2.13
13.265,1.98
13.281,1.47
13.296,0.39
13.312,-1.25
13.328,-3.27
13.343,-5.53
13.359,-7.91
13.375,-10.45
13.390,-13.28
13.406,-16.51
13.421,-20.14
13.437,-24.06
13.453,-28.02
13.468,-31.78
13.484,-35.18
13.500,-38.19
13.515,-40.98
13.531,-43.87
13.546,-47.28
13.562,-51.52
13.578,-56.76
13.593,-62.8
13.609,-69.0
13.625,-74.46
13.640,-78.18
13.656,-79.4
13.671,-77.8
13.687,-73.53
13.703,-67.12
13.718,-59.28
13.734,-50.69
13.750,-41.94
13.765,-33.44
13.781,-25.46
13.796,-18.11
13.812,-11.33
13.828,-4.91
13.843,1.44
13.859,7.94
13.875,14.66
13.890,21.38
13.906,27.69
13.921,33.12
13.937,37.26
13.953,39.93
13.968,41.24
13.984,41.52
14.000,41.24
14.015,40.87
14.031,40.81
14.046,41.23
14.062,42.16
14.078,43.48
14.093,44.98
14.109,46.43
14.125,47.62
14.140,48.36
14.156,48.53
14.171,48.06
14.187,46.99
14.203,45.47
14.218,43.69
14.234,41.86
14.250,40.12
14.265,38.49
14.281,36.9
14.296,35.18
14.312,33.22
14.328,30.98
14.343,28.57
14.359,26.15
14.375,23.91
14.390,21.89
14.406,20.02
14.421,18.13
14.437,16.02
14.453,13.57
14.468,10.8
14.484,7.87
14.500,4.98
14.515,2.31
14.531,-0.06
14.546,-2.21
14.562,-4.27
14.578,-6.36
14.593,-8.59
14.609,-11.0
14.625,-13.57
14.640,-16.32
14.656,-19.21
14.671,-22.27
14.687,-25.52
14.703,-29.04
14.718,-32.92
14.734,-37.25
14.750,-42.11
14.765,-47.44
14.781,-53.01
14.796,-58.43
14.812,-63.12
14.828,-66.51
14.843,-68.05
14.859,-67.42
14.875,-64.55
14.890,-59.65
14.906,-53.15
14.921,-45.59
14.937,-37.44
14.953,-29.05
14.968,-20.65
14.984,-12.37
15.000,-4.4
15.015,3.02
15.031,9.57
15.046,15.04
15.062,19.35
15.078,22.59
15.093,24.96
15.109,26.7
15.125,27.99
15.140,28.95
15.156,29.71
15.171,30.38
15.187,31.09
15.203,31.94
15.218,32.98
15.234,34.17
15.250,35.39
15.265,36.48
15.281,37.34
15.296,37.88
15.312,38.03
15.328,37.75
15.343,37.05
15.359,35.92
15.375,34.42
15.390,32.65
15.406,30.73
15.421,28.74
15.437,26.81
15.453,24.97
15.468,23.24
15.484,21.58
15.500,19.93
15.515,18.22
15.531,16.42
15.546,14.47
15.562,12.38
15.578,10.11
15.593,7.67
15.609,5.06
15.625,2.33
15.640,-0.47
15.656,-3.33
15.671,-6.22
15.687,-9.21
15.703,-12.34
15.718,-15.65
15.734,-19.1
15.750,-22.58
15.765,-26.02
15.781,-29.39
15.796,-32.82
15.812,-36.52
15.828,-40.78
15.843,-45.74
15.859,-51.41
15.875,-57.49
15.890,-63.47
15.906,-68.72
15.921,-72.62
15.937,-74.6
15.953,-74.29
15.968,-71.57
15.984,-66.62
16.000,-59.91
16.015,-52.13
16.031,-43.98
16.046,-36.05
16.062,-28.64
16.078,-21.75
16.093,-15.19
16.109,-8.74
16.125,-2.25
16.140,4.24
16.156,10.55
16.171,16.45
16.187,21.73
16.203,26.22
16.218,29.78
16.234,32.33
16.250,33.86
16.265,34.46
16.281,34.38
16.296,33.94
16.312,33.46
16.328,33.18
16.343,33.21
16.359,33.54
16.375,34.07
16.390,34.71
16.406,35.42
16.421,36.24
16.437,37.17
16.453,38.18
16.468,39.12
16.484,39.8
16.500,40.04
16.515,39.74
16.531,38.89
16.546,37.61
16.562,36.05
16.578,34.3
16.593,32.41
16.609,30.38
16.625,28.2
16.640,25.94
16.656,23.65
16.671,21.39
16.687,19.19
16.703,16.94
16.718,14.47
16.734,11.64
16.750,8.39
16.765,4.82
16.781,1.08
16.796,-2.65
16.812,-6.31
16.828,-9.9
16.843,-13.52
16.859,-17.22
16.875,-21.01
16.890,-24.82
16.906,-28.54
16.921,-32.13
16.937,-35.61
16.953,-39.06
16.968,-42.66
16.984,-46.68
17.000,-51.37
17.015,-56.85
17.031,-63.02
17.046,-69.38
17.062,-75.18
17.078,-79.48
17.093,-81.49
17.109,-80.73
17.125,-77.22
17.140,-71.34
17.156,-63.81
17.171,-55.4
17.187,-46.82
17.203,-38.54
17.218,-30.75
17.234,-23.44
17.250,-16.42
17.265,-9.44
17.281,-2.35
17.296,4.95
17.312,12.38
17.328,19.75
17.343,26.76
17.359,33.05
17.375,38.26
17.390,42.13
17.406,44.59
17.421,45.76
17.437,45.96
17.453,45.56
17.468,44.92
17.484,44.28
17.500,43.75
17.515,43.36
17.531,43.12
17.546,42.99
17.562,42.9
17.578,42.81
17.593,42.67
17.609,42.44
17.625,42.1
17.640,41.64
17.656,41.09
17.671,40.42
17.687,39.61
17.703,38.58
17.718,37.29
17.734,35.68
17.750,33.76
17.765,31.59
17.781,29.28
17.796,26.94
17.812,24.7
17.828,22.62
17.843,20.72
17.859,18.91
17.875,17.11
17.890,15.13
17.906,12.8
17.921,9.99
17.937,6.72
17.953,3.19
17.968,-0.3
17.984,-3.44
18.000,-6.12
18.015,-8.46
18.031,-10.76
18.046,-13.36
18.062,-16.43
18.078,-19.9
18.093,-23.56
18.109,-27.14
18.125,-30.52
18.140,-33.8
18.156,-37.24
18.171,-41.14
18.187,-45.68
18.203,-50.86
18.218,-56.6
18.234,-62.72
18.250,-69.01
18.265,-75.17
18.281,-80.73
18.296,-85.04
18.312,-87.37
18.328,-87.12
18.343,-84.09
18.359,-78.54
18.375,-71.15
18.390,-62.76
18.406,-54.1
18.421,-45.62
18.437,-37.47
18.453,-29.59
18.468,-21.87
18.484,-14.26
18.500,-6.79
18.515,0.52
18.531,7.65
18.546,14.56
18.562,21.15
18.578,27.21
18.593,32.48
18.609,36.69
18.625,39.73
18.640,41.64
18.656,42.65
18.671,43.07
18.687,43.21
18.703,43.33
18.718,43.57
18.734,44.01
18.750,44.64
18.765,45.4
18.781,46.14
18.796,46.69
18.812,46.92
18.828,46.76
18.843,46.27
18.859,45.56
18.875,44.73
18.890,43.79
18.906,42.71
18.921,41.41
18.937,39.94
18.953,38.41
18.968,37.02
18.984,35.89
19.000,35.03
19.015,34.26
19.031,33.31
19.046,31.92
19.062,29.96
19.078,27.53
19.093,24.88
19.109,22.38
19.125,20.45
19.140,19.37
19.156,19.24
19.171,19.81
19.187,20.4
19.203,20.1
19.218,17.94
19.234,13.24
19.250,5.9
19.265,-3.53
19.281,-14.0
19.296,-24.35
19.312,-33.63
19.328,-41.28
19.343,-47.12
19.359,-51.24
19.375,-53.89
19.390,-55.38
19.406,-56.19
19.421,-56.9
19.437,-58.16
19.453,-60.46
19.468,-64.02
19.484,-68.62
19.500,-73.67
19.515,-78.28
19.531,-81.51
19.546,-82.57
19.562,-81.03
19.578,-76.82
19.593,-70.33
19.609,-62.19
19.625,-53.17
19.640,-43.92
19.656,-34.92
19.671,-26.4
19.687,-18.4
19.703,-10.91
19.718,-3.9
19.734,2.61
19.750,8.58
19.765,13.96
19.781,18.72
19.796,22.87
19.812,26.38
19.828,29.15
19.843,31.12
19.859,32.22
19.875,32.57
19.890,32.4
19.906,32.12
19.921,32.09
19.937,32.58
19.953,33.65
19.968,35.12
19.984,36.74
20.000,38.23
20.015,39.44
20.031,40.33
20.046,40.95
20.062,41.36
20.078,41.51
20.093,41.35
20.109,40.79
20.125,39.83
20.140,38.52
20.156,37.03
20.171,35.53
20.187,34.04
20.203,32.52
20.218,30.81
20.234,28.74
20.250,26.17
20.265,23.08
20.281,19.54
20.296,15.71
20.312,11.77
20.328,7.85
20.343,4.04
20.359,0.3
20.375,-3.47
20.390,-7.37
20.406,-11.4
20.421,-15.47
20.437,-19.41
20.453,-22.98
20.468,-26.1
20.484,-28.83
20.500,-31.44
20.515,-34.26
20.531,-37.63
20.546,-41.74
20.562,-46.61
20.578,-52.08
20.593,-57.79
20.609,-63.15
20.625,-67.46
20.640,-69.97
20.656,-70.19
20.671,-67.99
20.687,-63.71
20.703,-58.03
20.718,-51.73
20.734,-45.43
20.750,-39.44
20.765,-33.72
20.781,-28.06
20.796,-22.18
20.812,-15.82
20.828,-8.89
20.843,-1.4
20.859,6.43
20.875,14.26
20.890,21.64
20.906,28.11
20.921,33.32
20.937,37.09
20.953,39.47
20.968,40.65
20.984,40.96
21.000,40.72
21.015,40.3
21.031,39.96
21.046,39.92
21.062,40.3
21.078,41.13
21.093,42.32
21.109,43.67
21.125,44.96
21.140,45.98
21.156,46.63
21.171,46.96
21.187,47.05
21.203,47.0
21.218,46.79
21.234,46.33
21.250,45.51
21.265,44.25
21.281,42.57
21.296,40.53
21.312,38.23
21.328,35.7
21.343,32.91
21.359,29.78
21.375,26.31
21.390,22.54
21.406,18.62
21.421,14.68
21.437,10.89
21.453,7.31
21.468,4.03
21.484,1.03
21.500,-1.72
21.515,-4.27
21.531,-6.75
21.546,-9.29
21.562,-12.09
21.578,-15.27
21.593,-18.9
21.609,-22.89
21.625,-27.04
21.640,-31.09
21.656,-34.84
21.671,-38.22
21.687,-41.32
21.703,-44.34
21.718,-47.6
21.734,-51.4
21.750,-56.04
21.765,-61.64
21.781,-68.05
21.796,-74.67
21.812,-80.5
21.828,-84.37
21.843,-85.24
21.859,-82.64
21.875,-76.85
21.890,-68.74
21.906,-59.51
21.921,-50.18
21.937,-41.36
21.953,-33.22
21.968,-25.65
21.984,-18.45
22.000,-11.57
22.015,-4.98
22.031,1.34
22.046,7.46
22.062,13.5
22.078,19.49
22.093,25.3
22.109,30.57
22.125,34.95
22.140,38.1
22.156,39.97
22.171,40.77
22.187,40.94
22.203,40.94
22.218,41.15
22.234,41.76
22.250,42.77
22.265,43.99
22.281,45.22
22.296,46.3
22.312,47.19
22.328,47.91
22.343,48.45
22.359,48.72
22.375,48.56
22.390,47.79
22.406,46.34
22.421,44.31
22.437,41.99
22.453,39.73
22.468,37.77
22.484,36.2
22.500,34.9
22.515,33.69
22.531,32.43
22.546,31.08
22.562,29.69
22.578,28.27
22.593,26.82
22.609,25.24
22.625,23.42
22.640,21.25
22.656,18.66
22.671,15.64
22.687,12.25
22.703,8.65
22.718,5.04
22.734,1.62
22.750,-1.49
22.765,-4.33
22.781,-7.13
22.796,-10.2
22.812,-13.83
22.828,-18.11
22.843,-22.9
22.859,-27.84
22.875,-32.61
22.890,-37.01
22.906,-41.12
22.921,-45.24
22.937,-49.77
22.953,-55.06
22.968,-61.27
22.984,-68.22
23.000,-75.39
23.015,-81.97
23.031,-87.05
23.046,-89.81
23.062,-89.72
23.078,-86.71
23.093,-81.15
23.109,-73.71
23.125,-65.18
23.140,-56.26
23.156,-47.45
23.171,-39.03
23.187,-31.08
23.203,-23.57
23.218,-16.4
23.234,-9.48
23.250,-2.74
23.265,3.8
23.281,10.09
23.296,16.0
23.312,21.38
23.328,26.03
23.343,29.83
23.359,32.72
23.375,34.81
23.390,36.31
23.406,37.48
23.421,38.54
23.437,39.63
23.453,40.72
23.468,41.79
23.484,42.77
23.500,43.68
23.515,44.54
23.531,45.35
23.546,46.0
23.562,46.37
23.578,46.3
23.593,45.73
23.609,44.7
23.625,43.34
23.640,41.72
23.656,39.97
23.671,38.18
23.687,36.44
23.703,34.83
23.718,33.36
23.734,31.93
23.750,30.31
23.765,28.27
23.781,25.63
23.796,22.4
23.812,18.76
23.828,14.97
23.843,11.27
23.859,7.83
23.875,4.71
23.890,1.86
23.906,-0.88
23.921,-3.69
23.937,-6.72
23.953,-10.07
23.968,-13.65
23.984,-17.34
24.000,-20.97
24.015,-24.5
24.031,-27.98
24.046,-31.61
24.062,-35.58
24.078,-40.01
24.093,-45.01
24.109,-50.5
24.125,-56.3
24.140,-62.06
24.156,-67.16
24.171,-70.89
24.187,-72.48
24.203,-71.38
24.218,-67.45
24.234,-61.11
24.250,-53.15
24.265,-44.58
24.281,-36.26
24.296,-28.74
24.312,-22.19
24.328,-16.4
24.343,-11.0
24.359,-5.6
24.375,0.03
24.390,5.94
24.406,11.97
24.421,17.83
24.437,23.14
24.453,27.56
24.468,30.84
24.484,32.87
24.500,33.76
24.515,33.77
24.531,33.28
24.546,32.66
24.562,32.25
24.578,32.33
24.593,33.02
24.609,34.37
24.625,36.21
24.640,38.24
24.656,40.02
24.671,41.17
24.687,41.45
24.703,40.85
24.718,39.57
24.734,37.94
24.750,36.22
24.765,34.58
24.781,33.02
24.796,31.49
24.812,29.96
24.828,28.46
24.843,27.07
24.859,25.79
24.875,24.52
24.890,23.07
24.906,21.21
24.921,18.76
24.937,15.73
24.953,12.28
24.968,8.67
24.984,5.15
25.000,1.85
25.015,-1.26
25.031,-4.36
25.046,-7.63
25.062,-11.16
25.078,-14.94
25.093,-18.85
25.109,-22.78
25.125,-26.71
25.140,-30.74
25.156,-35.03
25.171,-39.77
25.187,-45.11
25.203,-51.08
25.218,-57.6
25.234,-64.49
25.250,-71.43
25.265,-77.93
25.281,-83.4
25.296,-87.17
25.312,-88.63
25.328,-87.42
25.343,-83.48
25.359,-77.13
25.375,-69.05
25.390,-60.07
25.406,-50.93
25.421,-42.19
25.437,-34.03
25.453,-26.36
25.468,-18.91
25.484,-11.45
25.500,-3.84
25.515,3.85
25.531,11.46
25.546,18.76
25.562,25.48
25.578,31.38
25.593,36.19
25.609,39.73
25.625,41.88
25.640,42.74
25.656,42.6
25.671,41.95
25.687,41.27
25.703,40.99
25.718,41.31
25.734,42.2
25.750,43.53
25.765,45.04
25.781,46.5
25.796,47.72
25.812,48.58
25.828,49.0
25.843,48.88
25.859,48.19
25.875,46.95
25.890,45.24
25.906,43.22
25.921,41.09
25.937,38.98
25.953,36.96
25.968,35.05
25.984,33.2
26.000,31.39
26.015,29.58
26.031,27.77
26.046,25.97
26.062,24.13
26.078,22.27
26.093,20.32
26.109,18.24
26.125,16.02
26.140,13.67
26.156,11.23
26.171,8.8
26.187,6.48
26.203,4.32
26.218,2.33
26.234,0.41
26.250,-1.49
26.265,-3.37
26.281,-5.12
26.296,-6.69
26.312,-8.23
26.328,-10.17
26.343,-13.17
26.359,-17.86
26.375,-24.63
26.390,-33.47
26.406,-44.01
26.421,-55.64
26.437,-67.62
26.453,-79.12
26.468,-89.28
26.484,-97.11
26.500,-101.74
26.515,-102.57
26.531,-99.53
26.546,-93.21
26.562,-84.66
26.578,-75.11
26.593,-65.51
26.609,-56.4
26.625,-47.83
26.640,-39.57
26.656,-31.36
26.671,-23.05
26.687,-14.64
26.703,-6.25
26.718,1.97
26.734,9.87
26.750,17.29
26.765,23.96
26.781,29.59
26.796,33.86
26.812,36.63
26.828,38.02
26.843,38.41
26.859,38.37
26.875,38.41
26.890,38.85
26.906,39.81
26.921,41.14
26.937,42.64
26.953,44.1
26.968,45.37
26.984,46.36
27.000,46.99
27.015,47.21
27.031,46.92
27.046,46.11
27.062,44.78
27.078,43.02
27.093,40.97
27.109,38.75
27.125,36.46
27.140,34.19
27.156,32.0
27.171,29.93
27.187,28.0
27.203,26.19
27.218,24.43
27.234,22.64
27.250,20.77
27.265,18.76
27.281,16.61
27.296,14.35
27.312,11.99
27.328,9.54
27.343,6.99
27.359,4.38
27.375,1.75
27.390,-0.88
27.406,-3.52
27.421,-6.27
27.437,-9.23
27.453,-12.46
27.468,-15.92
27.484,-19.44
27.500,-22.83
27.515,-25.97
27.531,-28.93
27.546,-31.91
27.562,-35.18
27.578,-38.95
27.593,-43.33
27.609,-48.27
27.625,-53.65
27.640,-59.32
27.656,-64.94
27.671,-70.05
27.687,-73.95
27.703,-75.86
27.718,-75.13
27.734,-71.51
27.750,-65.32
27.765,-57.34
27.781,-48.6
27.796,-39.94
27.812,-31.83
27.828,-24.36
27.843,-17.34
27.859,-10.56
27.875,-3.87
27.890,2.8
27.906,9.42
27.921,15.91
27.937,22.1
27.953,27.75
27.968,32.51
27.984,36.09
28.000,38.29
28.015,39.18
28.031,39.03
28.046,38.31
28.062,37.56
28.078,37.22
28.093,37.51
28.109,38.42
28.125,39.73
28.140,41.07
28.156,42.13
28.171,42.76
28.187,42.98
28.203,42.98
28.218,42.93
28.234,42.87
28.250,42.69
28.265,42.24
28.281,41.35
28.296,40.0
28.312,38.21
28.328,36.06
28.343,33.62
28.359,30.88
28.375,27.83
28.390,24.49
28.406,20.95
28.421,17.32
28.437,13.72
28.453,10.26
28.468,6.97
28.484,3.82
28.500,0.74
28.515,-2.39
28.531,-5.69
28.546,-9.19
28.562,-12.87
28.578,-16.58
28.593,-20.12
28.609,-23.37
28.625,-26.29
28.640,-28.96
28.656,-31.63
28.671,-34.56
28.687,-38.01
28.703,-42.21
28.718,-47.27
28.734,-53.1
28.750,-59.39
28.765,-65.53
28.781,-70.73
28.796,-74.13
28.812,-75.04
28.828,-73.2
28.843,-68.79
28.859,-62.46
28.875,-55.05
28.890,-47.34
28.906,-39.83
28.921,-32.72
28.937,-25.95
28.953,-19.38
28.968,-12.89
28.984,-6.42
29.000,0.02
29.015,6.41
29.031,12.67
29.046,18.66
29.062,24.14
29.078,28.79
29.093,32.31
29.109,34.46
29.125,35.27
29.140,34.98
29.156,34.06
29.171,32.99
29.187,32.23
29.203,32.09
29.218,32.62
29.234,33.71
29.250,35.11
29.265,36.54
29.281,37.78
29.296,38.73
29.312,39.38
29.328,39.75
29.343,39.87
29.359,39.73
29.375,39.31
29.390,38.62
29.406,37.7
29.421,36.6
29.437,35.39
29.453,34.11
29.468,32.75
29.484,31.29
29.500,29.75
29.515,28.14
29.531,26.46
29.546,24.65
29.562,22.62
29.578,20.23
29.593,17.44
29.609,14.3
29.625,11.01
29.640,7.79
29.656,4.83
29.671,2.18
29.687,-0.25
29.703,-2.66
29.718,-5.31
29.734,-8.33
29.750,-11.77
29.765,-15.5
29.781,-19.31
29.796,-22.98
29.812,-26.4
29.828,-29.56
29.843,-32.62
29.859,-35.81
29.875,-39.36
29.890,-43.55
29.906,-48.51
29.921,-54.3
29.937,-60.7
29.953,-67.25
29.968,-73.19
29.984,-77.63
30.000,-79.8
30.015,-79.24
30.031,-76.0
30.046,-70.54
30.062,-63.59
30.078,-55.92
30.093,-48.11
30.109,-40.47
30.125,-33.11
30.140,-25.96
30.156,-18.97
30.171,-12.11
30.187,-5.36
30.203,1.28
30.218,7.84
30.234,14.29
30.250,20.49
30.265,26.15
30.281,30.91
30.296,34.43
30.312,36.52
30.328,37.34
30.343,37.26
30.359,36.79
30.375,36.4
30.390,36.35
30.406,36.64
30.421,37.11
30.437,37.57
30.453,37.85
30.468,37.95
30.484,37.91
30.500,37.81
30.515,37.67
30.531,37.52
30.546,37.35
30.562,37.14
30.578,36.9
30.593,36.62
30.609,36.3
30.625,35.94
30.640,35.55
30.656,35.11
30.671,34.59
30.687,33.9
30.703,32.92
30.718,31.51
30.734,29.63
30.750,27.36
30.765,24.85
30.781,22.29
30.796,19.82
30.812,17.45
30.828,15.12
30.843,12.67
30.859,10.01
30.875,7.15
30.890,4.13
30.906,1.07
30.921,-2.03
30.937,-5.25
30.953,-8.73
30.968,-12.64
30.984,-17.01
31.000,-21.7
31.015,-26.49
31.031,-31.1
31.046,-35.4
31.062,-39.37
31.078,-43.17
31.093,-47.01
31.109,-51.07
31.125,-55.48
31.140,-60.25
31.156,-65.3
31.171,-70.34
31.187,-74.87
31.203,-78.26
31.218,-79.8
31.234,-78.95
31.250,-75.51
31.265,-69.73
31.281,-62.2
31.296,-53.73
31.312,-45.07
31.328,-36.77
31.343,-29.11
31.359,-22.09
31.375,-15.55
31.390,-9.24
31.406,-2.97
31.421,3.41
31.437,9.88
31.453,16.3
31.468,22.4
31.484,27.82
31.500,32.24
31.515,35.42
31.531,37.31
31.546,38.07
31.562,38.06
31.578,37.7
31.593,37.35
31.609,37.25
31.625,37.45
31.640,37.95
31.656,38.73
31.671,39.7
31.687,40.81
31.703,41.93
31.718,42.84
31.734,43.34
31.750,43.33
31.765,42.81
31.781,41.89
31.796,40.74
31.812,39.49
31.828,38.2
31.843,36.88
31.859,35.46
31.875,33.87
31.890,32.05
31.906,29.91
31.921,27.49
31.937,24.84
31.953,22.15
31.968,19.6
31.984,17.35
32.000,15.45
32.015,13.82
32.031,12.28
32.046,10.62
32.062,8.65
32.078,6.32
32.093,3.64
32.109,0.69
32.125,-2.43
32.140,-5.65
32.156,-8.89
32.171,-12.11
32.187,-15.33
32.203,-18.52
32.218,-21.72
32.234,-24.98
32.250,-28.4
32.265,-32.13
32.281,-36.32
32.296,-41.19
32.312,-46.89
32.328,-53.39
32.343,-60.42
32.359,-67.35
32.375,-73.28
32.390,-77.23
32.406,-78.44
32.421,-76.64
32.437,-72.18
32.453,-65.85
32.468,-58.58
32.484,-51.08
32.500,-43.74
32.515,-36.56
32.531,-29.43
32.546,-22.3
32.562,-15.22
32.578,-8.29
32.593,-1.58
32.609,4.94
32.625,11.3
32.640,17.41
32.656,22.95
32.671,27.48
32.687,30.54
32.703,31.94
32.718,31.82
32.734,30.71
32.750,29.28
32.765,28.18
32.781,27.8
32.796,28.26
32.812,29.41
32.828,30.95
32.843,32.57
32.859,34.0
32.875,35.02
32.890,35.47
32.906,35.22
32.921,34.25
32.937,32.64
32.953,30.64
32.968,28.6
32.984,26.77
33.000,25.28
33.015,24.02
33.031,22.72
33.046,21.11
33.062,19.0
33.078,16.44
33.093,13.57
33.109,10.62
33.125,7.75
33.140,5.06
33.156,2.54
33.171,0.11
33.187,-2.35
33.203,-4.96
33.218,-7.88
33.234,-11.19
33.250,-14.89
33.265,-18.84
33.281,-22.82
33.296,-26.61
33.312,-30.03
33.328,-33.13
33.343,-36.12
33.359,-39.37
33.375,-43.25
33.390,-48.05
33.406,-53.85
33.421,-60.47
33.437,-67.45
33.453,-74.08
33.468,-79.42
33.484,-82.6
33.500,-82.92
33.515,-80.12
33.531,-74.49
33.546,-66.73
33.562,-57.8
33.578,-48.64
33.593,-39.86
33.609,-31.73
33.625,-24.17
33.640,-16.89
33.656,-9.6
33.671,-2.11
33.687,5.71
33.703,13.84
33.718,22.15
33.734,30.36
33.750,38.07
33.765,44.76
33.781,49.92
33.796,53.22
33.812,54.58
33.828,54.3
33.843,52.91
33.859,51.12
33.875,49.52
33.890,48.51
33.906,48.24
33.921,48.65
33.937,49.55
33.953,50.71
33.968,51.89
33.984,52.88
34.000,53.47
34.015,53.51
34.031,52.91
34.046,51.67
34.062,49.96
34.078,48.0
34.093,46.02
34.109,44.21
34.125,42.58
34.140,41.03
34.156,39.39
34.171,37.46
34.187,35.2
34.203,32.61
34.218,29.82
34.234,26.94
34.250,24.07
34.265,21.23
34.281,18.4
34.296,15.56
34.312,12.63
34.328,9.63
34.343,6.52
34.359,3.35
34.375,0.11
34.390,-3.21
34.406,-6.69
34.421,-10.41
34.437,-14.38
34.453,-18.51
34.468,-22.65
34.484,-26.59
34.500,-30.25
34.515,-33.7
34.531,-37.18
34.546,-41.0
34.562,-45.47
34.578,-50.75
34.593,-56.85
34.609,-63.62
34.625,-70.65
34.640,-77.33
34.656,-82.82
34.671,-86.22
34.687,-86.79
34.703,-84.22
34.718,-78.79
34.734,-71.28
34.750,-62.73
34.765,-54.03
34.781,-45.69
34.796,-37.83
34.812,-30.33
34.828,-23.03
34.843,-15.87
34.859,-8.89
34.875,-2.11
34.890,4.54
34.906,11.14
34.921,17.71
34.937,24.07
34.953,29.81
34.968,34.46
34.984,37.67
35.000,39.36
35.015,39.82
35.031,39.57
35.046,39.15
35.062,38.99
35.078,39.28
35.093,40.01
35.109,41.05
35.125,42.22
35.140,43.34
35.156,44.29
35.171,44.97
35.187,45.3
35.203,45.22
35.218,44.75
35.234,43.97
35.250,42.99
35.265,41.92
35.281,40.78
35.296,39.56
35.312,38.17
35.328,36.55
35.343,34.73
35.359,32.78
35.375,30.85
35.390,29.01
35.406,27.31
35.421,25.73
35.437,24.22
35.453,22.72
35.468,21.08
35.484,19.16
35.500,16.84
35.515,14.04
35.531,10.84
35.546,7.45
35.562,4.09
35.578,0.92
35.593,-2.07
35.609,-5.06
35.625,-8.28
35.640,-11.87
35.656,-15.81
35.671,-19.9
35.687,-23.92
35.703,-27.68
35.718,-31.19
35.734,-34.6
35.750,-38.11
35.765,-42.02
35.781,-46.51
35.796,-51.72
35.812,-57.6
35.828,-63.85
35.843,-69.93
35.859,-75.05
35.875,-78.32
35.890,-79.04
35.906,-76.89
35.921,-72.06
35.937,-65.26
35.953,-57.38
35.968,-49.27
35.984,-41.47
36.000,-34.14
36.015,-27.15
36.031,-20.28
36.046,-13.43
36.062,-6.56
36.078,0.31
36.093,7.13
36.109,13.83
36.125,20.26
36.140,26.09
36.156,30.93
36.171,34.4
36.187,36.35
36.203,36.95
36.218,36.62
36.234,35.9
36.250,35.26
36.265,35.02
36.281,35.32
36.296,36.14
36.312,37.4
36.328,38.96
36.343,40.58
36.359,42.0
36.375,42.92
36.390,43.13
36.406,42.55
36.421,41.21
36.437,39.25
36.453,36.87
36.468,34.3
36.484,31.74
36.500,29.38
36.515,27.32
36.531,25.54
36.546,23.9
36.562,22.21
36.578,20.29
36.593,18.03
36.609,15.44
36.625,12.62
36.640,9.72
36.656,6.9
36.671,4.26
36.687,1.83
36.703,-0.49
36.718,-2.89
36.734,-5.61
36.750,-8.79
36.765,-12.44
36.781,-16.43
36.796,-20.5
36.812,-24.45
36.828,-28.15
36.843,-31.61
36.859,-34.96
36.875,-38.42
36.890,-42.22
36.906,-46.59
36.921,-51.65
36.937,-57.35
36.953,-63.3
36.968,-68.81
36.984,-72.99
37.000,-75.0
37.015,-74.3
37.031,-70.86
37.046,-65.14
37.062,-57.91
37.078,-49.98
37.093,-41.96
37.109,-34.19
37.125,-26.74
37.140,-19.56
37.156,-12.58
37.171,-5.75
37.187,0.89
37.203,7.33
37.218,13.49
37.234,19.27
37.250,24.49
37.265,28.87
37.281,32.12
37.296,34.07
37.312,34.75
37.328,34.44
37.343,33.62
37.359,32.81
37.375,32.45
37.390,32.76
37.406,33.68
37.421,34.99
37.437,36.34
37.453,37.45
37.468,38.09
37.484,38.2
37.500,37.8
37.515,36.98
37.531,35.87
37.546,34.59
37.562,33.24
37.578,31.89
37.593,30.63
37.609,29.49
37.625,28.48
37.640,27.54
37.656,26.54
37.671,25.34
37.687,23.83
37.703,22.01
37.718,19.91
37.734,17.59
37.750,15.07
37.765,12.37
37.781,9.47
37.796,6.34
37.812,3.02
37.828,-0.41
37.843,-3.91
37.859,-7.46
37.875,-11.05
37.890,-14.72
37.906,-18.49
37.921,-22.36
37.937,-26.36
37.953,-30.47
37.968,-34.74
37.984,-39.2
38.000,-43.94
38.015,-49.06
38.031,-54.66
38.046,-60.74
38.062,-67.14
38.078,-73.48
38.093,-79.09
38.109,-83.16
38.125,-84.93
38.140,-83.88
38.156,-79.98
38.171,-73.66
38.187,-65.75
38.203,-57.13
38.218,-48.5
38.234,-40.23
38.250,-32.38
38.265,-24.84
38.281,-17.51
38.296,-10.35
38.312,-3.43
38.328,3.23
38.343,9.7
38.359,16.03
38.375,22.15
38.390,27.82
38.406,32.64
38.421,36.25
38.437,38.47
38.453,39.49
38.468,39.78
38.484,39.9
38.500,40.28
38.515,41.05
38.531,42.09
38.546,43.15
38.562,44.04
38.578,44.69
38.593,45.2
38.609,45.7
38.625,46.19
38.640,46.57
38.656,46.58
38.671,45.95
38.687,44.54
38.703,42.42
38.718,39.85
38.734,37.2
38.750,34.74
38.765,32.62
38.781,30.79
38.796,29.11
38.812,27.46
38.828,25.73
38.843,23.97
38.859,22.21
38.875,20.5
38.890,18.81
38.906,17.0
38.921,14.98
38.937,12.67
38.953,10.11
38.968,7.4
38.984,4.61
39.000,1.76
39.015,-1.26
39.031,-4.57
39.046,-8.3
39.062,-12.4
39.078,-16.66
39.093,-20.81
39.109,-24.62
39.125,-28.09
39.140,-31.49
39.156,-35.24
39.171,-39.79
39.187,-45.37
39.203,-51.99
39.218,-59.3
39.234,-66.74
39.250,-73.6
39.265,-79.06
39.281,-82.4
39.296,-83.08
39.312,-80.91
39.328,-76.07
39.343,-69.15
39.359,-60.96
39.375,-52.28
39.390,-43.68
39.406,-35.43
39.421,-27.54
39.437,-19.87
39.453,-12.28
39.468,-4.71
39.484,2.79
39.500,10.11
39.515,17.09
39.531,23.51
39.546,29.17
39.562,33.88
39.578,37.5
39.593,40.03
39.609,41.57
39.625,42.33
39.640,42.65
39.656,42.84
39.671,43.18
39.687,43.81
39.703,44.71
39.718,45.75
39.734,46.74
39.750,47.49
39.765,47.93
39.781,48.06
39.796,47.98
39.812,47.78
39.828,47.5
39.843,47.1
39.859,46.48
39.875,45.52
39.890,44.14
39.906,42.33
39.921,40.14
39.937,37.63
39.953,34.94
39.968,32.12
39.984,29.3
40.000,26.56
40.015,24.01
40.031,21.73
40.046,19.7
40.062,17.8
40.078,15.81
40.093,13.5
40.109,10.76
40.125,7.65
40.140,4.41
40.156,1.31
40.171,-1.47
40.187,-3.96
40.203,-6.34
40.218,-8.9
40.234,-11.82
40.250,-15.09
40.265,-18.58
40.281,-22.08
40.296,-25.5
40.312,-28.91
40.328,-32.49
40.343,-36.45
40.359,-40.92
40.375,-45.95
40.390,-51.49
40.406,-57.49
40.421,-63.87
40.437,-70.38
40.453,-76.56
40.468,-81.73
40.484,-84.98
40.500,-85.59
40.515,-83.12
40.531,-77.7
40.546,-69.98
40.562,-60.9
40.578,-51.46
40.593,-42.38
40.609,-33.97
40.625,-26.22
40.640,-18.86
40.656,-11.61
40.671,-4.28
40.687,3.12
40.703,10.42
40.718,17.34
40.734,23.5
40.750,28.58
40.765,32.29
40.781,34.51
40.796,35.28
40.812,34.85
40.828,33.64
40.843,32.17
40.859,30.99
40.875,30.47
40.890,30.77
40.906,31.75
40.921,33.02
40.937,34.16
40.953,34.84
40.968,34.97
40.984,34.72
41.000,34.35
41.015,34.03
41.031,33.78
41.046,33.43
41.062,32.85
41.078,31.98
41.093,30.96
41.109,29.98
41.125,29.14
41.140,28.4
41.156,27.58
41.171,26.45
41.187,24.9
41.203,22.95
41.218,20.72
41.234,18.42
41.250,16.15
41.265,14.0
41.281,11.91
41.296,9.72
41.312,7.2
41.328,4.08
41.343,0.26
41.359,-4.21
41.375,-9.03
41.390,-13.86
41.406,-18.43
41.421,-22.7
41.437,-26.88
41.453,-31.29
41.468,-36.22
41.484,-41.76
41.500,-47.84
41.515,-54.22
41.531,-60.59
41.546,-66.55
41.562,-71.57
41.578,-75.02
41.593,-76.23
41.609,-74.76
41.625,-70.51
41.640,-63.9
41.656,-55.7
41.671,-46.85
41.687,-38.1
41.703,-29.9
41.718,-22.29
41.734,-15.07
41.750,-8.0
41.765,-0.97
41.781,5.95
41.796,12.55
41.812,18.58
41.828,23.89
41.843,28.43
41.859,32.19
41.875,35.22
41.890,37.56
41.906,39.26
41.921,40.42
41.937,41.21
41.953,41.83
41.968,42.49
41.984,43.3
42.000,44.25
42.015,45.25
42.031,46.16
42.046,46.9
42.062,47.38
42.078,47.55
42.093,47.32
42.109,46.61
42.125,45.37
42.140,43.64
42.156,41.54
42.171,39.26
42.187,36.97
42.203,34.8
42.218,32.79
42.234,30.94
42.250,29.25
42.265,27.67
42.281,26.12
42.296,24.47
42.312,22.54
42.328,20.22
42.343,17.47
42.359,14.4
42.375,11.12
42.390,7.81
42.406,4.55
42.421,1.36
42.437,-1.76
42.453,-4.86
42.468,-7.98
42.484,-11.23
42.500,-14.66
42.515,-18.36
42.531,-22.3
42.546,-26.4
42.562,-30.56
42.578,-34.71
42.593,-38.9
42.609,-43.26
42.625,-47.96
42.640,-53.14
42.656,-58.92
42.671,-65.2
42.687,-71.7
42.703,-77.85
42.718,-82.82
42.734,-85.74
42.750,-85.89
42.765,-83.03
42.781,-77.42
42.796,-69.81
42.812,-61.14
42.828,-52.23
42.843,-43.57
42.859,-35.24
42.875,-27.08
42.890,-18.84
42.906,-10.44
42.921,-1.96
42.937,6.35
42.953,14.24
42.968,21.51
42.984,28.1
43.000,33.94
43.015,38.92
43.031,42.86
43.046,45.52
43.062,46.79
43.078,46.72
43.093,45.66
43.109,44.13
43.125,42.64
43.140,41.6
43.156,41.14
43.171,41.18
43.187,41.55
43.203,42.06
43.218,42.58
43.234,43.06
43.250,43.47
43.265,43.76
43.281,43.87
43.296,43.67
43.312,43.06
43.328,41.99
43.343,40.49
43.359,38.69
43.375,36.78
43.390,34.91
43.406,33.19
43.421,31.57
43.437,29.92
43.453,28.08
43.468,25.93
43.484,23.5
43.500,20.87
43.515,18.15
43.531,15.41
43.546,12.65
43.562,9.84
43.578,6.97
43.593,4.08
43.609,1.23
43.625,-1.55
43.640,-4.34
43.656,-7.33
43.671,-10.71
43.687,-14.58
43.703,-18.88
43.718,-23.39
43.734,-27.76
43.750,-31.73
43.765,-35.28
43.781,-38.59
43.796,-42.0
43.812,-45.89
43.828,-50.5
43.843,-55.86
43.859,-61.76
43.875,-67.76
43.890,-73.25
43.906,-77.47
43.921,-79.7
43.937,-79.42
43.953,-76.53
43.968,-71.36
43.984,-64.57
44.000,-56.88
44.015,-48.88
44.031,-40.87
44.046,-32.92
44.062,-25.04
44.078,-17.26
44.093,-9.73
44.109,-2.55
44.125,4.28
44.140,10.88
44.156,17.35
44.171,23.71
44.187,29.75
44.203,35.12
44.218,39.41
44.234,42.32
44.250,43.79
44.265,44.01
44.281,43.41
44.296,42.5
44.312,41.74
44.328,41.44
44.343,41.69
44.359,42.41
44.375,43.35
44.390,44.27
44.406,44.95
44.421,45.24
44.437,45.13
44.453,44.62
44.468,43.74
44.484,42.5
44.500,40.94
44.515,39.12
44.531,37.14
44.546,35.12
44.562,33.14
44.578,31.28
44.593,29.54
44.609,27.87
44.625,26.17
44.640,24.38
44.656,22.46
44.671,20.43
44.687,18.3
44.703,16.09
44.718,13.75
44.734,11.23
44.750,8.49
44.765,5.57
44.781,2.6
44.796,-0.27
44.812,-2.92
44.828,-5.35
44.843,-7.69
44.859,-10.13
44.875,-12.85
44.890,-15.95
44.906,-19.33
44.921,-22.81
44.937,-26.23
44.953,-29.49
44.968,-32.67
44.984,-35.94
45.000,-39.6
45.015,-43.9
45.031,-49.0
45.046,-54.87
45.062,-61.22
45.078,-67.45
45.093,-72.76
45.109,-76.25
45.125,-77.2
45.140,-75.28
45.156,-70.6
45.171,-63.77
45.187,-55.65
45.203,-47.11
45.218,-38.85
45.234,-31.26
45.250,-24.41
45.265,-18.14
45.281,-12.23
45.296,-6.43
45.312,-0.6
45.328,5.22
45.343,10.93
45.359,16.3
45.375,21.07
45.390,25.01
45.406,27.92
45.421,29.71
45.437,30.49
45.453,30.47
45.468,30.04
45.484,29.55
45.500,29.31
45.515,29.46
45.531,29.95
45.546,30.62
45.562,31.31
45.578,31.9
45.593,32.35
45.609,32.63
45.625,32.72
45.640,32.59
45.656,32.21
45.671,31.6
45.687,30.76
45.703,29.72
45.718,28.49
45.734,27.07
45.750,25.48
45.765,23.74
45.781,21.91
45.796,20.01
45.812,17.99
45.828,15.78
45.843,13.29
45.859,10.51
45.875,7.55
45.890,4.55
45.906,1.61
45.921,-1.28
45.937,-4.26
45.953,-7.47
45.968,-10.99
45.984,-14.79
46.000,-18.73
46.015,-22.67
46.031,-26.55
46.046,-30.38
46.062,-34.24
46.078,-38.24
46.093,-42.48
46.109,-47.05
46.125,-52.03
46.140,-57.39
46.156,-62.97
46.171,-68.32
46.187,-72.7
46.203,-75.3
46.218,-75.41
46.234,-72.76
46.250,-67.57
46.265,-60.53
46.281,-52.59
46.296,-44.54
46.312,-36.9
46.328,-29.8
46.343,-23.15
46.359,-16.77
46.375,-10.53
46.390,-4.36
46.406,1.77
46.421,7.86
46.437,13.89
46.453,19.75
46.468,25.18
46.484,29.82
46.500,33.32
46.515,35.51
46.531,36.47
46.546,36.52
46.562,36.12
46.578,35.72
46.593,35.61
46.609,35.93
46.625,36.62
46.640,37.51
46.656,38.39
46.671,39.08
46.687,39.49
46.703,39.63
46.718,39.61
46.734,39.53
46.750,39.42
46.765,39.22
46.781,38.77
46.796,37.94
46.812,36.69
46.828,35.17
46.843,33.55
46.859,31.97
46.875,30.49
46.890,29.0
46.906,27.4
46.921,25.54
46.937,23.41
46.953,20.97
46.968,18.29
46.984,15.37
47.000,12.22
47.015,8.87
47.031,5.38
47.046,1.85
47.062,-1.6
47.078,-4.95
47.093,-8.23
47.109,-11.59
47.125,-15.18
47.140,-19.1
47.156,-23.32
47.171,-27.69
47.187,-31.95
47.203,-35.91
47.218,-39.5
47.234,-42.87
47.250,-46.31
47.265,-50.15
47.281,-54.65
47.296,-59.84
47.312,-65.49
47.328,-71.12
47.343,-76.02
47.359,-79.43
47.375,-80.67
47.390,-79.31
47.406,-75.4
47.421,-69.37
47.437,-61.95
47.453,-53.91
47.468,-45.85
47.484,-38.1
47.500,-30.67
47.515,-23.49
47.531,-16.45
47.546,-9.48
47.562,-2.59
47.578,4.23
47.593,10.91
47.609,17.33
47.625,23.25
47.640,28.33
47.656,32.27
47.671,34.85
47.687,36.19
47.703,36.56
47.718,36.41
47.734,36.15
47.750,36.06
47.765,36.28
47.781,36.82
47.796,37.63
47.812,38.67
47.828,39.85
47.843,41.03
47.859,42.05
47.875,42.74
47.890,42.98
47.906,42.75
47.921,42.15
47.937,41.27
47.953,40.2
47.968,38.99
47.984,37.67
48.000,36.27
48.015,34.84
48.031,33.43
48.046,32.02
48.062,30.58
48.078,29.01
48.093,27.26
48.109,25.33
48.125,23.27
48.140,21.12
48.156,18.86
48.171,16.44
48.187,13.79
48.203,10.93
48.218,7.97
48.234,5.04
48.250,2.19
48.265,-0.64
48.281,-3.63
48.296,-6.97
48.312,-10.75
48.328,-14.87
48.343,-19.11
48.359,-23.2
48.375,-26.95
48.390,-30.32
48.406,-33.44
48.421,-36.57
48.437,-40.02
48.453,-44.08
48.468,-48.93
48.484,-54.54
48.500,-60.64
48.515,-66.73
48.531,-72.09
48.546,-75.97
48.562,-77.74
48.578,-77.01
48.593,-73.72
48.609,-68.18
48.625,-60.91
48.640,-52.55
48.656,-43.7
48.671,-34.86
48.687,-26.29
48.703,-18.05
48.718,-10.06
48.734,-2.21
48.750,5.54
48.765,13.1
48.781,20.27
48.796,26.82
48.812,32.5
48.828,37.16
48.843,40.68
48.859,43.01
48.875,44.14
48.890,44.19
48.906,43.42
48.921,42.25
48.937,41.12
48.953,40.39
48.968,40.19
48.984,40.47
49.000,41.02
49.015,41.65
49.031,42.22
49.046,42.68
49.062,43.0
49.078,43.12
49.093,42.96
49.109,42.42
49.125,41.45
49.140,40.05
49.156,38.3
49.171,36.35
49.187,34.34
49.203,32.41
49.218,30.61
49.234,28.92
49.250,27.26
49.265,25.51
49.281,23.62
49.296,21.63
49.312,19.63
49.328,17.68
49.343,15.76
49.359,13.8
49.375,11.67
49.390,9.34
49.406,6.85
49.421,4.31
49.437,1.79
49.453,-0.7
49.468,-3.29
49.484,-6.06
49.500,-9.11
49.515,-12.4
49.531,-15.86
49.546,-19.39
49.562,-22.96
49.578,-26.6
49.593,-30.36
49.609,-34.29
49.625,-38.4
49.640,-42.76
49.656,-47.46
49.671,-52.59
49.687,-58.08
49.703,-63.62
49.718,-68.6
49.734,-72.22
49.750,-73.75
49.765,-72.76
49.781,-69.23
49.796,-63.6
49.812,-56.63
49.828,-49.09
49.843,-41.59
49.859,-34.49
49.875,-27.87
49.890,-21.59
49.906,-15.42
49.921,-9.17
49.937,-2.78
49.953,3.63
49.968,9.79
49.984,15.39
50.000,20.19
50.015,24.11
50.031,27.18
50.046,29.44
50.062,30.93
50.078,31.65
50.093,31.68
50.109,31.23
50.125,30.66
50.140,30.35
50.156,30.58
50.171,31.4
50.187,32.64
50.203,33.99
50.218,35.13
50.234,35.88
50.250,36.15
50.265,35.96
50.281,35.36
50.296,34.45
50.312,33.25
50.328,31.84
50.343,30.28
50.359,28.63
50.375,26.92
50.390,25.18
50.406,23.38
50.421,21.48
50.437,19.39
50.453,17.09
50.468,14.59
50.484,11.98
50.500,9.38
50.515,6.9
50.531,4.57
50.546,2.29
50.562,-0.06
50.578,-2.59
50.593,-5.33
50.609,-8.24
50.625,-11.29
50.640,-14.5
50.656,-17.99
50.671,-21.88
50.687,-26.24
50.703,-31.01
50.718,-36.08
50.734,-41.37
50.750,-46.89
50.765,-52.73
50.781,-58.94
50.796,-65.35
50.812,-71.47
50.828,-76.49
50.843,-79.52
50.859,-79.86
50.875,-77.24
50.890,-71.93
50.906,-64.66
50.921,-56.37
50.937,-47.9
50.953,-39.77
50.968,-32.12
50.984,-24.79
51.000,-17.56
51.015,-10.32
51.031,-3.08
51.046,3.98
51.062,10.71
51.078,17.02
51.093,22.84
51.109,28.11
51.125,32.69
51.140,36.4
51.156,39.04
51.171,40.55
51.187,41.05
51.203,40.86
51.218,40.37
51.234,39.96
51.250,39.88
51.265,40.14
51.281,40.67
51.296,41.26
51.312,41.73
51.328,41.98
51.343,41.98
51.359,41.73
51.375,41.25
51.390,40.55
51.406,39.62
51.421,38.48
51.437,37.2
51.453,35.87
51.468,34.56
51.484,33.27
51.500,31.94
51.515,30.46
51.531,28.72
51.546,26.72
51.562,24.52
51.578,22.19
51.593,19.79
51.609,17.29
51.625,14.67
51.640,11.95
51.656,9.22
51.671,6.56
51.687,4.0
51.703,1.5
51.718,-1.12
51.734,-4.0
51.750,-7.21
51.765,-10.71
51.781,-14.36
51.796,-18.03
51.812,-21.62
51.828,-25.16
51.843,-28.69
51.859,-32.36
51.875,-36.35
51.890,-40.86
51.906,-46.13
51.921,-52.26
51.937,-59.17
51.953,-66.43
51.968,-73.3
51.984,-78.81
52.000,-82.01
52.015,-82.2
52.031,-79.18
52.046,-73.34
52.062,-65.51
52.078,-56.68
52.093,-47.68
52.109,-39.0
52.125,-30.69
52.140,-22.6
52.156,-14.49
52.171,-6.29
52.187,1.89
52.203,9.83
52.218,17.27
52.234,23.94
52.250,29.68
52.265,34.34
52.281,37.8
52.296,40.07
52.312,41.25
52.328,41.56
52.343,41.39
52.359,41.12
52.375,41.1
52.390,41.5
52.406,42.31
52.421,43.35
52.437,44.42
52.453,45.31
52.468,45.93
52.484,46.22
52.500,46.19
52.515,45.86
52.531,45.24
52.546,44.35
52.562,43.23
52.578,41.92
52.593,40.47
52.609,38.9
52.625,37.2
52.640,35.33
52.656,33.25
52.671,30.98
52.687,28.56
52.703,26.12
52.718,23.8
52.734,21.68
52.750,19.75
52.765,17.89
52.781,15.91
52.796,13.63
52.812,10.93
52.828,7.8
52.843,4.38
52.859,0.88
52.875,-2.41
52.890,-5.31
52.906,-7.83
52.921,-10.16
52.937,-12.62
52.953,-15.47
52.968,-18.82
52.984,-22.55
53.000,-26.41
53.015,-30.14
53.031,-33.64
53.046,-37.0
53.062,-40.45
53.078,-44.34
53.093,-48.92
53.109,-54.33
53.125,-60.45
53.140,-66.86
53.156,-72.84
53.171,-77.51
53.187,-79.99
53.203,-79.75
53.218,-76.68
53.234,-71.17
53.250,-63.96
53.265,-55.88
53.281,-47.61
53.296,-39.54
53.312,-31.8
53.328,-24.34
53.343,-17.05
53.359,-9.93
53.375,-2.94
53.390,3.86
53.406,10.44
53.421,16.78
53.437,22.8
53.453,28.26
53.468,32.88
53.484,36.31
53.500,38.39
53.515,39.16
53.531,38.97
53.546,38.29
53.562,37.61
53.578,37.25
53.593,37.32
53.609,37.75
53.625,38.37
53.640,39.01
53.656,39.52
53.671,39.84
53.687,39.95
53.703,39.84
53.718,39.54
53.734,39.06
53.750,38.39
53.765,37.52
53.781,36.44
53.796,35.12
53.812,33.57
53.828,31.84
53.843,29.95
53.859,28.01
53.875,26.07
53.890,24.21
53.906,22.46
53.921,20.77
53.937,19.09
53.953,17.34
53.968,15.5
53.984,13.56
54.000,11.58
54.015,9.62
54.031,7.67
54.046,5.65
54.062,3.49
54.078,1.09
54.093,-1.58
54.109,-4.53
54.125,-7.76
54.140,-11.23
54.156,-14.89
54.171,-18.7
54.187,-22.53
54.203,-26.34
54.218,-30.16
54.234,-34.21
54.250,-38.73
54.265,-44.0
54.281,-50.07
54.296,-56.73
54.312,-63.47
54.328,-69.52
54.343,-74.07
54.359,-76.41
54.375,-76.05
54.390,-72.88
54.406,-67.13
54.421,-59.41
54.437,-50.5
54.453,-41.21
54.468,-32.22
54.484,-23.98
54.500,-16.68
54.515,-10.29
54.531,-4.6
54.546,0.62
54.562,5.58
54.578,10.37
54.593,14.93
54.609,19.05
54.625,22.48
54.640,25.01
54.656,26.55
54.671,27.21
54.687,27.23
54.703,26.91
54.718,26.5
54.734,26.2
54.750,26.07
54.765,26.14
54.781,26.41
54.796,26.88
54.812,27.51
54.828,28.27
54.843,29.1
54.859,29.86
54.875,30.44
54.890,30.74
54.906,30.73
54.921,30.41
54.937,29.79
54.953,28.91
54.968,27.79
54.984,26.44
55.000,24.88
55.015,23.17
55.031,21.35
55.046,19.44
55.062,17.48
55.078,15.44
55.093,13.28
55.109,11.01
55.125,8.64
55.140,6.27
55.156,3.95
55.171,1.68
55.187,-0.67
55.203,-3.27
55.218,-6.28
55.234,-9.75
55.250,-13.6
55.265,-17.63
55.281,-21.66
55.296,-25.6
55.312,-29.48
55.328,-33.49
55.343,-37.84
55.359,-42.73
55.375,-48.2
55.390,-54.06
55.406,-59.82
55.421,-64.7
55.437,-67.79
55.453,-68.32
55.468,-65.9
55.484,-60.68
55.500,-53.28
55.515,-44.53
55.531,-35.23
55.546,-25.91
55.562,-16.79
55.578,-7.86
55.593,0.98
55.609,9.89
55.625,18.93
55.640,28.02
55.656,36.86
55.671,44.88
55.687,51.34
55.703,55.55
55.718,57.14
55.734,56.29
55.750,53.73
55.765,50.6
55.781,48.0
55.796,46.67
55.812,46.85
55.828,48.25
55.843,50.39
55.859,52.69
55.875,54.71
55.890,56.09
55.906,56.53
55.921,55.85
55.937,54.07
55.953,51.43
55.968,48.5
55.984,45.92
56.000,44.24
56.015,43.6
56.031,43.68
56.046,43.81
56.062,43.26
56.078,41.44
56.093,38.16
56.109,33.56
56.125,28.09
56.140,22.28
56.156,16.72
56.171,11.84
56.187,7.93
56.203,5.06
56.218,3.07
56.234,1.61
56.250,0.21
56.265,-1.55
56.281,-3.95
56.296,-7.01
56.312,-10.49
56.328,-14.14
56.343,-17.69
56.359,-21.14
56.375,-24.64
56.390,-28.46
56.406,-32.74
56.421,-37.47
56.437,-42.43
56.453,-47.37
56.468,-52.16
56.484,-56.86
56.500,-61.7
56.515,-66.94
56.531,-72.7
56.546,-78.84
56.562,-84.94
56.578,-90.33
56.593,-94.25
56.609,-96.06
56.625,-95.36
56.640,-92.13
56.656,-86.68
56.671,-79.62
56.687,-71.63
56.703,-63.28
56.718,-54.98
56.734,-46.93
56.750,-39.16
56.765,-31.68
56.781,-24.49
56.796,-17.56
56.812,-10.82
56.828,-4.21
56.843,2.36
56.859,8.84
56.875,15.01
56.890,20.53
56.906,24.99
56.921,28.13
56.937,29.91
56.953,30.6
56.968,30.67
56.984,30.66
57.000,31.04
57.015,32.06
57.031,33.75
57.046,35.9
57.062,38.16
57.078,40.11
57.093,41.44
57.109,42.0
57.125,41.84
57.140,41.2
57.156,40.36
57.171,39.53
57.187,38.75
57.203,37.97
57.218,37.09
57.234,36.02
57.250,34.69
57.265,33.07
57.281,31.15
57.296,28.97
57.312,26.62
57.328,24.27
57.343,22.02
57.359,19.98
57.375,18.09
57.390,16.27
57.406,14.46
57.421,12.64
57.437,10.88
57.453,9.21
57.468,7.56
57.484,5.75
57.500,3.53
57.515,0.76
57.531,-2.6
57.546,-6.38
57.562,-10.36
57.578,-14.3
57.593,-18.04
57.609,-21.56
57.625,-24.96
57.640,-28.4
57.656,-32.02
57.671,-35.93
57.687,-40.21
57.703,-44.9
57.718,-50.06
57.734,-55.72
57.750,-61.8
57.765,-68.03
57.781,-73.88
57.796,-78.58
57.812,-81.3
57.828,-81.35
57.843,-78.41
57.859,-72.7
57.875,-64.95
57.890,-56.18
57.906,-47.41
57.921,-39.4
57.937,-32.42
57.953,-26.3
57.968,-20.64
57.984,-15.02
58.000,-9.17
58.015,-3.03
58.031,3.37
58.046,9.94
58.062,16.6
58.078,23.15
58.093,29.22
58.109,34.37
58.125,38.2
58.140,40.52
58.156,41.5
58.171,41.61
58.187,41.4
58.203,41.3
58.218,41.51
58.234,42.01
58.250,42.67
58.265,43.36
58.281,43.97
58.296,44.46
58.312,44.73
58.328,44.72
58.343,44.38
58.359,43.72
58.375,42.78
58.390,41.62
58.406,40.3
58.421,38.81
58.437,37.17
58.453,35.39
58.468,33.49
58.484,31.56
58.500,29.62
58.515,27.7
58.531,25.79
58.546,23.88
58.562,21.98
58.578,20.13
58.593,18.31
58.609,16.49
58.625,14.6
58.640,12.54
58.656,10.26
58.671,7.83
58.687,5.38
58.703,3.06
58.718,0.96
58.734,-1.02
58.750,-3.11
58.765,-5.63
58.781,-8.8
58.796,-12.66
58.812,-17.02
58.828,-21.57
58.843,-25.99
58.859,-30.14
58.875,-33.97
58.890,-37.59
58.906,-41.2
58.921,-45.08
58.937,-49.49
58.953,-54.62
58.968,-60.44
58.984,-66.54
59.000,-72.12
59.015,-76.16
59.031,-77.75
59.046,-76.4
59.062,-72.24
59.078,-65.89
59.093,-58.24
59.109,-50.18
59.125,-42.35
59.140,-35.02
59.156,-28.24
59.171,-21.86
59.187,-15.62
59.203,-9.26
59.218,-2.6
59.234,4.41
59.250,11.64
59.265,18.69
59.281,25.09
59.296,30.36
59.312,34.14
59.328,36.35
59.343,37.13
59.359,36.79
59.375,35.78
59.390,34.51
59.406,33.36
59.421,32.55
59.437,32.19
59.453,32.22
59.468,32.54
59.484,32.98
59.500,33.41
59.515,33.75
59.531,33.95
59.546,34.0
59.562,33.81
59.578,33.34
59.593,32.56
59.609,31.5
59.625,30.23
59.640,28.84
59.656,27.4
59.671,25.93
59.687,24.41
59.703,22.81
59.718,21.08
59.734,19.19
59.750,17.09
59.765,14.77
59.781,12.21
59.796,9.48
59.812,6.63
59.828,3.72
59.843,0.79
59.859,-2.23
59.875,-5.37
59.890,-8.7
59.906,-12.17
59.921,-15.73
59.937,-19.3
59.953,-22.82
59.968,-26.26
59.984,-29.63
