timestamp,value
00.000,2.69
00.015,-0.41
00.031,-3.35
00.046,-6.02
00.062,-8.49
00.078,-10.73
00.093,-12.86
00.109,-14.97
00.125,-17.05
00.140,-18.96
00.156,-20.42
00.171,-21.09
00.187,-20.59
00.203,-18.79
00.218,-15.7
00.234,-11.55
00.250,-6.74
00.265,-1.59
00.281,3.57
00.296,8.48
00.312,12.87
00.328,16.56
00.343,19.35
00.359,21.22
00.375,22.25
00.390,22.6
00.406,22.52
00.421,22.2
00.437,21.77
00.453,21.28
00.468,20.81
00.484,20.31
00.500,19.79
00.515,19.2
00.531,18.46
00.546,17.61
00.562,16.68
00.578,15.81
00.593,15.1
00.609,14.58
00.625,14.15
00.640,13.58
00.656,12.64
00.671,11.06
00.687,8.87
00.703,6.28
00.718,3.64
00.734,1.35
00.750,-0.38
00.765,-1.6
00.781,-2.6
00.796,-3.77
00.812,-5.51
00.828,-7.95
00.843,-11.03
00.859,-14.47
00.875,-17.87
00.890,-20.81
00.906,-22.89
00.921,-23.79
00.937,-23.22
00.953,-21.04
00.968,-17.25
00.984,-12.09
01.000,-6.11
01.015,-0.01
01.031,5.47
01.046,9.78
01.062,12.73
01.078,14.54
01.093,15.53
01.109,16.1
01.125,16.43
01.140,16.45
01.156,16.0
01.171,14.93
01.187,13.35
01.203,11.59
01.218,10.13
01.234,9.31
01.250,9.33
01.265,9.98
01.281,10.89
01.296,11.6
01.312,11.82
01.328,11.55
01.343,11.01
01.359,10.53
01.375,10.24
01.390,10.06
01.406,9.66
01.421,8.65
01.437,6.83
01.453,4.28
01.468,1.34
01.484,-1.56
01.500,-4.15
01.515,-6.33
01.531,-8.16
01.546,-9.77
01.562,-11.3
01.578,-12.92
01.593,-14.79
01.609,-17.07
01.625,-19.81
01.640,-22.76
01.656,-25.41
01.671,-27.1
01.687,-27.17
01.703,-25.38
01.718,-21.86
01.734,-17.1
01.750,-11.76
01.765,-6.48
01.781,-1.71
01.796,2.28
01.812,5.36
01.828,7.62
01.843,9.24
01.859,10.5
01.875,11.61
01.890,12.65
01.906,13.6
01.921,14.31
01.937,14.64
01.953,14.57
01.968,14.14
01.984,13.53
02.000,12.83
02.015,12.06
02.031,11.14
02.046,10.04
02.062,8.79
02.078,7.52
02.093,6.38
02.109,5.38
02.125,4.43
02.140,3.32
02.156,1.93
02.171,0.25
02.187,-1.58
02.203,-3.33
02.218,-4.89
02.234,-6.26
02.250,-7.61
02.265,-9.1
02.281,-10.71
02.296,-12.33
02.312,-13.76
02.328,-14.92
02.343,-15.85
02.359,-16.72
02.375,-17.7
02.390,-18.94
02.406,-20.4
02.421,-21.95
02.437,-23.36
02.453,-24.25
02.468,-24.28
02.484,-23.05
02.500,-20.4
02.515,-16.47
02.531,-11.73
02.546,-6.85
02.562,-2.49
02.578,0.87
02.593,3.14
02.609,4.52
02.625,5.4
02.640,6.2
02.656,7.15
02.671,8.35
02.687,9.69
02.703,10.92
02.718,11.77
02.734,12.05
02.750,11.7
02.765,10.88
02.781,9.89
02.796,9.1
02.812,8.82
02.828,9.11
02.843,9.76
02.859,10.35
02.875,10.49
02.890,9.9
02.906,8.7
02.921,7.22
02.937,5.9
02.953,5.05
02.968,4.51
02.984,3.96
03.000,2.98
03.015,1.45
03.031,-0.5
03.046,-2.55
03.062,-4.51
03.078,-6.34
03.093,-8.2
03.109,-10.28
03.125,-12.58
03.140,-14.94
03.156,-17.19
03.171,-19.3
03.187,-21.4
03.203,-23.62
03.218,-25.89
03.234,-27.79
03.250,-28.73
03.265,-28.04
03.281,-25.43
03.296,-21.04
03.312,-15.5
03.328,-9.64
03.343,-4.19
03.359,0.39
03.375,3.95
03.390,6.59
03.406,8.48
03.421,9.74
03.437,10.44
03.453,10.74
03.468,10.83
03.484,10.99
03.500,11.42
03.515,12.11
03.531,12.85
03.546,13.35
03.562,13.32
03.578,12.66
03.593,11.55
03.609,10.33
03.625,9.39
03.640,8.9
03.656,8.84
03.671,8.98
03.687,9.02
03.703,8.72
03.718,8.02
03.734,7.07
03.750,6.15
03.765,5.51
03.781,5.2
03.796,5.06
03.812,4.77
03.828,4.01
03.843,2.6
03.859,0.63
03.875,-1.71
03.890,-4.12
03.906,-6.39
03.921,-8.34
03.937,-9.97
03.953,-11.33
03.968,-12.52
03.984,-13.74
04.000,-15.21
04.015,-17.2
04.031,-19.78
04.046,-22.77
04.062,-25.6
04.078,-27.55
04.093,-27.99
04.109,-26.56
04.125,-23.36
04.140,-18.85
04.156,-13.69
04.171,-8.51
04.187,-3.78
04.203,0.22
04.218,3.47
04.234,5.96
04.250,7.77
04.265,8.98
04.281,9.64
04.296,9.81
04.312,9.58
04.328,9.06
04.343,8.47
04.359,8.05
04.375,7.97
04.390,8.26
04.406,8.75
04.421,9.23
04.437,9.48
04.453,9.46
04.468,9.27
04.484,9.08
04.500,9.04
04.515,9.13
04.531,9.19
04.546,8.97
04.562,8.24
04.578,6.97
04.593,5.32
04.609,3.57
04.625,1.95
04.640,0.54
04.656,-0.78
04.671,-2.3
04.687,-4.28
04.703,-6.8
04.718,-9.65
04.734,-12.51
04.750,-15.05
04.765,-17.1
04.781,-18.77
04.796,-20.34
04.812,-22.11
04.828,-24.18
04.843,-26.42
04.859,-28.4
04.875,-29.66
04.890,-29.72
04.906,-28.34
04.921,-25.49
04.937,-21.39
04.953,-16.43
04.968,-11.1
04.984,-5.92
05.000,-1.27
05.015,2.61
05.031,5.7
05.046,8.12
05.062,10.01
05.078,11.43
05.093,12.39
05.109,12.88
05.125,13.05
05.140,13.12
05.156,13.34
05.171,13.87
05.187,14.71
05.203,15.65
05.218,16.38
05.234,16.69
05.250,16.47
05.265,15.83
05.281,14.96
05.296,14.06
05.312,13.21
05.328,12.37
05.343,11.38
05.359,10.09
05.375,8.37
05.390,6.23
05.406,3.83
05.421,1.36
05.437,-0.99
05.453,-3.08
05.468,-4.88
05.484,-6.4
05.500,-7.64
05.515,-8.64
05.531,-9.44
05.546,-10.15
05.562,-10.96
05.578,-12.02
05.593,-13.49
05.609,-15.47
05.625,-18.03
05.640,-21.16
05.656,-24.83
05.671,-28.87
05.687,-32.9
05.703,-36.42
05.718,-38.86
05.734,-39.7
05.750,-38.73
05.765,-36.01
05.781,-31.92
05.796,-26.94
05.812,-21.57
05.828,-16.15
05.843,-10.85
05.859,-5.71
05.875,-0.74
05.890,3.97
05.906,8.28
05.921,11.97
05.937,14.87
05.953,16.94
05.968,18.22
05.984,18.82
06.000,18.87
06.015,18.46
06.031,17.7
06.046,16.74
06.062,15.82
06.078,15.21
06.093,15.08
06.109,15.46
06.125,16.18
06.140,17.0
06.156,17.74
06.171,18.34
06.187,18.84
06.203,19.33
06.218,19.83
06.234,20.26
06.250,20.41
06.265,20.02
06.281,18.93
06.296,17.0
06.312,14.31
06.328,11.01
06.343,7.3
06.359,3.47
06.375,-0.27
06.390,-3.77
06.406,-6.85
06.421,-9.37
06.437,-11.2
06.453,-12.29
06.468,-12.76
06.484,-12.99
06.500,-13.46
06.515,-14.55
06.531,-16.3
06.546,-18.33
06.562,-19.95
06.578,-20.43
06.593,-19.28
06.609,-16.43
06.625,-12.2
06.640,-7.18
06.656,-1.9
06.671,3.33
06.687,8.48
06.703,13.55
06.718,18.56
06.734,23.36
06.750,27.61
06.765,31.01
06.781,33.37
06.796,34.72
06.812,35.28
06.828,35.39
06.843,35.22
06.859,34.72
06.875,33.7
06.890,31.9
06.906,29.24
06.921,25.84
06.937,22.08
06.953,18.35
06.968,14.97
06.984,12.06
07.000,9.54
07.015,7.27
07.031,5.15
07.046,3.21
07.062,1.52
07.078,0.11
07.093,-1.02
07.109,-1.94
07.125,-2.73
07.140,-3.44
07.156,-4.17
07.171,-5.05
07.187,-6.25
07.203,-7.94
07.218,-10.15
07.234,-12.68
07.250,-15.28
07.265,-17.59
07.281,-19.5
07.296,-20.98
07.312,-22.14
07.328,-23.09
07.343,-23.89
07.359,-24.6
07.375,-25.19
07.390,-25.71
07.406,-26.03
07.421,-26.01
07.437,-25.46
07.453,-24.24
07.468,-22.31
07.484,-19.71
07.500,-16.37
07.515,-12.13
07.531,-6.8
07.546,-0.34
07.562,6.78
07.578,13.57
07.593,18.67
07.609,20.77
07.625,18.96
07.640,13.12
07.656,4.08
07.671,-6.42
07.687,-15.83
07.703,-21.49
07.718,-21.29
07.734,-14.42
07.750,-1.94
07.765,13.59
07.781,28.63
07.796,39.86
07.812,45.08
07.828,43.77
07.843,36.94
07.859,26.56
07.875,14.84
07.890,3.62
07.906,-5.73
07.921,-12.47
07.937,-16.32
07.953,-17.46
07.968,-16.38
07.984,-13.83
08.000,-10.72
08.015,-7.93
08.031,-6.23
08.046,-5.93
08.062,-6.99
08.078,-8.95
08.093,-11.18
08.109,-13.11
08.125,-14.55
08.140,-15.69
08.156,-17.08
08.171,-19.38
08.187,-23.08
08.203,-28.27
08.218,-34.51
08.234,-40.92
08.250,-46.4
08.265,-49.97
08.281,-51.01
08.296,-49.42
08.312,-45.64
08.328,-40.43
08.343,-34.62
08.359,-28.89
08.375,-23.63
08.390,-18.96
08.406,-14.86
08.421,-11.28
08.437,-8.24
08.453,-5.87
08.468,-4.26
08.484,-3.37
08.500,-3.0
08.515,-2.85
08.531,-2.72
08.546,-2.56
08.562,-2.46
08.578,-2.6
08.593,-3.02
08.609,-3.63
08.625,-4.22
08.640,-4.62
08.656,-4.82
08.671,-4.99
08.687,-5.46
08.703,-6.64
08.718,-8.77
08.734,-11.82
08.750,-15.35
08.765,-18.54
08.781,-20.41
08.796,-20.16
08.812,-17.48
08.828,-12.71
08.843,-6.89
08.859,-1.28
08.875,2.85
08.890,4.68
08.906,3.99
08.921,1.01
08.937,-3.68
08.953,-9.43
08.968,-15.59
08.984,-21.62
09.000,-27.07
09.015,-31.51
09.031,-34.52
09.046,-35.61
09.062,-34.41
09.078,-30.76
09.093,-24.83
09.109,-17.13
09.125,-8.41
09.140,0.63
09.156,9.37
09.171,17.42
09.187,24.6
09.203,30.91
09.218,36.47
09.234,41.54
09.250,46.38
09.265,51.06
09.281,55.46
09.296,59.14
09.312,61.55
09.328,62.28
09.343,61.33
09.359,59.21
09.375,56.91
09.390,55.56
09.406,55.99
09.421,58.48
09.437,62.43
09.453,66.4
09.468,68.39
09.484,66.32
09.500,58.66
09.515,45.14
09.531,27.05
09.546,7.17
09.562,-10.91
09.578,-23.82
09.593,-29.49
09.609,-27.71
09.625,-20.21
09.640,-10.03
09.656,-0.57
09.671,5.44
09.687,6.54
09.703,2.75
09.718,-4.69
09.734,-13.92
09.750,-22.97
09.765,-30.35
09.781,-35.23
09.796,-37.4
09.812,-37.13
09.828,-34.94
09.843,-31.39
09.859,-27.0
09.875,-22.28
09.890,-17.69
09.906,-13.55
09.921,-9.9
09.937,-6.39
09.953,-2.38
09.968,2.67
09.984,8.78
10.000,15.08
10.015,19.73
10.031,20.57
10.046,15.82
10.062,5.15
10.078,-9.96
10.093,-26.41
10.109,-40.56
10.125,-49.32
10.140,-51.34
10.156,-47.32
10.171,-39.69
10.187,-31.69
10.203,-26.32
10.218,-25.41
10.234,-29.23
10.250,-36.64
10.265,-45.67
10.281,-54.41
10.296,-61.65
10.312,-67.07
10.328,-71.06
10.343,-74.17
10.359,-76.62
10.375,-78.21
10.390,-78.58
10.406,-77.67
10.421,-75.89
10.437,-74.19
10.453,-73.48
10.468,-74.24
10.484,-76.19
10.500,-78.35
10.515,-79.24
10.531,-77.4
10.546,-71.77
10.562,-62.08
10.578,-48.98
10.593,-33.84
10.609,-18.35
10.625,-3.95
10.640,8.6
10.656,19.29
10.671,28.73
10.687,37.79
10.703,47.16
10.718,57.19
10.734,67.77
10.750,78.46
10.765,88.63
10.781,97.62
10.796,104.79
10.812,109.5
10.828,111.15
10.843,109.12
10.859,102.89
10.875,92.3
10.890,77.91
10.906,61.03
10.921,43.5
10.937,27.16
10.953,13.19
10.968,1.85
10.984,-7.34
11.000,-14.97
11.015,-21.23
11.031,-25.67
11.046,-27.61
11.062,-26.68
11.078,-23.32
11.093,-18.72
11.109,-14.33
11.125,-11.28
11.140,-9.72
11.156,-9.07
11.171,-8.37
11.187,-6.9
11.203,-4.53
11.218,-1.77
11.234,0.51
11.250,1.5
11.265,0.59
11.281,-2.46
11.296,-7.58
11.312,-14.48
11.328,-22.6
11.343,-31.13
11.359,-39.02
11.375,-45.13
11.390,-48.49
11.406,-48.52
11.421,-45.17
11.437,-38.88
11.453,-30.37
11.468,-20.44
11.484,-9.8
11.500,1.04
11.515,11.72
11.531,21.93
11.546,31.41
11.562,39.88
11.578,47.19
11.593,53.35
11.609,58.59
11.625,63.19
11.640,67.4
11.656,71.34
11.671,74.8
11.687,77.33
11.703,78.31
11.718,77.11
11.734,73.3
11.750,66.81
11.765,57.99
11.781,47.5
11.796,36.15
11.812,24.77
11.828,14.12
11.843,4.82
11.859,-2.73
11.875,-8.29
11.890,-11.84
11.906,-13.58
11.921,-13.91
11.937,-13.41
11.953,-12.68
11.968,-12.27
11.984,-12.64
12.000,-14.17
12.015,-17.02
12.031,-21.15
12.046,-26.22
12.062,-31.61
12.078,-36.42
12.093,-39.77
12.109,-40.97
12.125,-39.69
12.140,-36.06
12.156,-30.53
12.171,-23.72
12.187,-16.21
12.203,-8.46
12.218,-0.77
12.234,6.7
12.250,13.73
12.265,20.06
12.281,25.44
12.296,29.65
12.312,32.61
12.328,34.39
12.343,35.22
12.359,35.41
12.375,35.27
12.390,35.0
12.406,34.71
12.421,34.41
12.437,34.09
12.453,33.75
12.468,33.41
12.484,33.09
12.500,32.8
12.515,32.41
12.531,31.73
12.546,30.54
12.562,28.62
12.578,25.94
12.593,22.64
12.609,19.1
12.625,15.78
12.640,12.99
12.656,10.76
12.671,8.74
12.687,6.39
12.703,3.09
12.718,-1.54
12.734,-7.42
12.750,-14.0
12.765,-20.38
12.781,-25.54
12.796,-28.6
12.812,-29.01
12.828,-26.69
12.843,-22.02
12.859,-15.82
12.875,-8.93
12.890,-2.09
12.906,4.29
12.921,10.14
12.937,15.49
12.953,20.33
12.968,24.63
12.984,28.24
13.000,31.04
13.015,33.08
13.031,34.52
13.046,35.58
13.062,36.41
13.078,37.05
13.093,37.33
13.109,37.16
13.125,36.54
13.140,35.62
13.156,34.65
13.171,33.84
13.187,33.22
13.203,32.66
13.218,31.87
13.234,30.55
13.250,28.56
13.265,25.92
13.281,22.83
13.296,19.52
13.312,16.19
13.328,12.94
13.343,9.88
13.359,7.05
13.375,4.44
13.390,1.95
13.406,-0.65
13.421,-3.61
13.437,-7.07
13.453,-10.93
13.468,-14.79
13.484,-17.93
13.500,-19.71
13.515,-19.64
13.531,-17.6
13.546,-13.87
13.562,-8.93
13.578,-3.31
13.593,2.49
13.609,8.1
13.625,13.3
13.640,17.85
13.656,21.67
13.671,24.76
13.687,27.23
13.703,29.2
13.718,30.83
13.734,32.19
13.750,33.23
13.765,33.93
13.781,34.21
13.796,34.07
13.812,33.54
13.828,32.57
13.843,31.17
13.859,29.4
13.875,27.42
13.890,25.49
13.906,23.89
13.921,22.78
13.937,22.09
13.953,21.54
13.968,20.74
13.984,19.41
14.000,17.45
14.015,15.01
14.031,12.37
14.046,9.78
14.062,7.32
14.078,4.87
14.093,2.23
14.109,-0.77
14.125,-4.1
14.140,-7.64
14.156,-11.21
14.171,-14.72
14.187,-18.14
14.203,-21.46
14.218,-24.48
14.234,-26.79
14.250,-27.82
14.265,-27.04
14.281,-24.28
14.296,-19.77
14.312,-14.13
14.328,-8.12
14.343,-2.4
14.359,2.62
14.375,6.79
14.390,10.19
14.406,12.92
14.421,15.11
14.437,16.86
14.453,18.25
14.468,19.33
14.484,20.15
14.500,20.71
14.515,20.94
14.531,20.8
14.546,20.31
14.562,19.49
14.578,18.51
14.593,17.51
14.609,16.67
14.625,16.14
14.640,15.95
14.656,16.03
14.671,16.22
14.687,16.37
14.703,16.32
14.718,16.01
14.734,15.43
14.750,14.59
14.765,13.56
14.781,12.31
14.796,10.83
14.812,9.05
14.828,6.95
14.843,4.55
14.859,2.0
14.875,-0.55
14.890,-2.95
14.906,-5.05
14.921,-6.86
14.937,-8.5
14.953,-10.18
14.968,-12.09
14.984,-14.28
15.000,-16.61
15.015,-18.7
15.031,-20.15
15.046,-20.5
15.062,-19.57
15.078,-17.51
15.093,-14.71
15.109,-11.66
15.125,-8.74
15.140,-6.1
15.156,-3.66
15.171,-1.3
15.187,1.08
15.203,3.41
15.218,5.46
15.234,7.05
15.250,8.02
15.265,8.38
15.281,8.34
15.296,8.23
15.312,8.3
15.328,8.72
15.343,9.49
15.359,10.4
15.375,11.22
15.390,11.78
15.406,11.96
15.421,11.82
15.437,11.42
15.453,10.78
15.468,9.93
15.484,8.94
15.500,7.84
15.515,6.81
15.531,5.86
15.546,4.95
15.562,3.89
15.578,2.47
15.593,0.57
15.609,-1.74
15.625,-4.22
15.640,-6.64
15.656,-8.74
15.671,-10.46
15.687,-11.85
15.703,-13.04
15.718,-14.25
15.734,-15.73
15.750,-17.58
15.765,-19.76
15.781,-22.07
15.796,-24.1
15.812,-25.39
15.828,-25.58
15.843,-24.48
15.859,-22.16
15.875,-18.88
15.890,-15.05
15.906,-11.04
15.921,-7.18
15.937,-3.65
15.953,-0.49
15.968,2.28
15.984,4.67
16.000,6.63
16.015,8.14
16.031,9.2
16.046,9.85
16.062,10.2
16.078,10.32
16.093,10.23
16.109,9.89
16.125,9.26
16.140,8.37
16.156,7.41
16.171,6.55
16.187,5.95
16.203,5.6
16.218,5.35
16.234,5.0
16.250,4.46
16.265,3.74
16.281,2.99
16.296,2.37
16.312,1.93
16.328,1.59
16.343,1.18
16.359,0.5
16.375,-0.57
16.390,-2.04
16.406,-3.81
16.421,-5.77
16.437,-7.77
16.453,-9.73
16.468,-11.53
16.484,-13.11
16.500,-14.48
16.515,-15.74
16.531,-17.02
16.546,-18.48
16.562,-20.18
16.578,-22.0
16.593,-23.71
16.609,-24.9
16.625,-25.23
16.640,-24.51
16.656,-22.7
16.671,-20.0
16.687,-16.72
16.703,-13.23
16.718,-9.8
16.734,-6.69
16.750,-3.94
16.765,-1.58
16.781,0.4
16.796,2.03
16.812,3.37
16.828,4.47
16.843,5.34
16.859,6.03
16.875,6.45
16.890,6.55
16.906,6.3
16.921,5.71
16.937,4.91
16.953,4.08
16.968,3.38
16.984,2.85
17.000,2.56
17.015,2.43
17.031,2.46
17.046,2.61
17.062,2.8
17.078,2.97
17.093,3.0
17.109,2.82
17.125,2.4
17.140,1.82
17.156,1.18
17.171,0.58
17.187,0.05
17.203,-0.53
17.218,-1.28
17.234,-2.39
17.250,-3.95
17.265,-5.93
17.281,-8.12
17.296,-10.24
17.312,-11.98
17.328,-13.08
17.343,-13.52
17.359,-13.4
17.375,-13.06
17.390,-12.88
17.406,-13.22
17.421,-14.27
17.437,-16.01
17.453,-18.19
17.468,-20.41
17.484,-22.16
17.500,-22.96
17.515,-22.48
17.531,-20.67
17.546,-17.7
17.562,-14.01
17.578,-10.08
17.593,-6.37
17.609,-3.2
17.625,-0.69
17.640,1.18
17.656,2.53
17.671,3.53
17.687,4.36
17.703,5.15
17.718,5.96
17.734,6.73
17.750,7.39
17.765,7.8
17.781,7.87
17.796,7.61
17.812,7.11
17.828,6.58
17.843,6.21
17.859,6.09
17.875,6.2
17.890,6.42
17.906,6.57
17.921,6.49
17.937,6.16
17.953,5.61
17.968,4.94
17.984,4.28
18.000,3.74
18.015,3.3
18.031,2.86
18.046,2.3
18.062,1.5
18.078,0.49
18.093,-0.65
18.109,-1.83
18.125,-2.99
18.140,-4.19
18.156,-5.49
18.171,-6.94
18.187,-8.47
18.203,-9.96
18.218,-11.22
18.234,-12.29
18.250,-13.28
18.265,-14.39
18.281,-15.81
18.296,-17.54
18.312,-19.41
18.328,-21.12
18.343,-22.32
18.359,-22.64
18.375,-21.91
18.390,-20.1
18.406,-17.42
18.421,-14.26
18.437,-11.07
18.453,-8.21
18.468,-5.88
18.484,-4.1
18.500,-2.68
18.515,-1.4
18.531,-0.12
18.546,1.26
18.562,2.68
18.578,4.04
18.593,5.25
18.609,6.21
18.625,6.83
18.640,7.1
18.656,7.1
18.671,6.89
18.687,6.6
18.703,6.31
18.718,6.1
18.734,5.97
18.750,5.92
18.765,5.94
18.781,6.04
18.796,6.17
18.812,6.26
18.828,6.12
18.843,5.6
18.859,4.61
18.875,3.29
18.890,1.85
18.906,0.61
18.921,-0.25
18.937,-0.73
18.953,-1.01
18.968,-1.33
18.984,-1.87
19.000,-2.67
19.015,-3.6
19.031,-4.57
19.046,-5.53
19.062,-6.56
19.078,-7.77
19.093,-9.19
19.109,-10.7
19.125,-12.15
19.140,-13.41
19.156,-14.46
19.171,-15.4
19.187,-16.38
19.203,-17.44
19.218,-18.44
19.234,-19.05
19.250,-18.87
19.265,-17.68
19.281,-15.52
19.296,-12.74
19.312,-9.79
19.328,-7.06
19.343,-4.71
19.359,-2.64
19.375,-0.66
19.390,1.38
19.406,3.38
19.421,5.08
19.437,6.2
19.453,6.65
19.468,6.62
19.484,6.46
19.500,6.5
19.515,6.86
19.531,7.43
19.546,7.96
19.562,8.23
19.578,8.14
19.593,7.74
19.609,7.1
19.625,6.26
19.640,5.24
19.656,4.08
19.671,2.92
19.687,1.96
19.703,1.37
19.718,1.17
19.734,1.25
19.750,1.43
19.765,1.58
19.781,1.64
19.796,1.62
19.812,1.49
19.828,1.13
19.843,0.4
19.859,-0.75
19.875,-2.25
19.890,-3.82
19.906,-5.13
19.921,-6.0
19.937,-6.53
19.953,-6.99
19.968,-7.73
19.984,-8.96
20.000,-10.68
20.015,-12.72
20.031,-14.85
20.046,-16.88
20.062,-18.69
20.078,-20.14
20.093,-21.06
20.109,-21.21
20.125,-20.53
20.140,-19.09
20.156,-17.2
20.171,-15.21
20.187,-13.35
20.203,-11.66
20.218,-9.97
20.234,-8.06
20.250,-5.8
20.265,-3.35
20.281,-0.9
20.296,1.32
20.312,3.21
20.328,4.85
20.343,6.35
20.359,7.72
20.375,8.87
20.390,9.58
20.406,9.68
20.421,9.25
20.437,8.53
20.453,7.95
20.468,7.78
20.484,8.14
20.500,8.81
20.515,9.53
20.531,10.01
20.546,10.2
20.562,10.18
20.578,10.09
20.593,9.97
20.609,9.74
20.625,9.31
20.640,8.59
20.656,7.61
20.671,6.5
20.687,5.33
20.703,4.11
20.718,2.7
20.734,0.93
20.750,-1.24
20.765,-3.75
20.781,-6.4
20.796,-8.92
20.812,-11.13
20.828,-12.96
20.843,-14.37
20.859,-15.47
20.875,-16.33
20.890,-17.06
20.906,-17.73
20.921,-18.43
20.937,-19.23
20.953,-20.07
20.968,-20.78
20.984,-21.03
21.000,-20.53
21.015,-19.12
21.031,-16.92
21.046,-14.21
21.062,-11.38
21.078,-8.75
21.093,-6.49
21.109,-4.62
21.125,-3.08
21.140,-1.79
21.156,-0.66
21.171,0.4
21.187,1.43
21.203,2.53
21.218,3.68
21.234,4.86
21.250,5.97
21.265,6.89
21.281,7.54
21.296,7.91
21.312,8.13
21.328,8.38
21.343,8.92
21.359,9.9
21.375,11.34
21.390,13.01
21.406,14.55
21.421,15.55
21.437,15.77
21.453,15.14
21.468,13.81
21.484,12.11
21.500,10.3
21.515,8.6
21.531,7.1
21.546,5.78
21.562,4.54
21.578,3.25
21.593,1.82
21.609,0.28
21.625,-1.26
21.640,-2.67
21.656,-3.94
21.671,-5.15
21.687,-6.46
21.703,-7.99
21.718,-9.75
21.734,-11.67
21.750,-13.67
21.765,-15.73
21.781,-17.95
21.796,-20.4
21.812,-22.94
21.828,-25.19
21.843,-26.63
21.859,-26.76
21.875,-25.42
21.890,-22.69
21.906,-18.97
21.921,-14.71
21.937,-10.3
21.953,-6.07
21.968,-2.23
21.984,1.02
22.000,3.57
22.015,5.41
22.031,6.68
22.046,7.57
22.062,8.27
22.078,8.87
22.093,9.33
22.109,9.56
22.125,9.5
22.140,9.22
22.156,8.88
22.171,8.69
22.187,8.78
22.203,9.23
22.218,9.97
22.234,10.92
22.250,11.97
22.265,12.96
22.281,13.8
22.296,14.35
22.312,14.55
22.328,14.33
22.343,13.71
22.359,12.71
22.375,11.4
22.390,9.83
22.406,7.97
22.421,5.78
22.437,3.32
22.453,0.6
22.468,-2.24
22.484,-5.04
22.500,-7.62
22.515,-9.83
22.531,-11.52
22.546,-12.7
22.562,-13.53
22.578,-14.28
22.593,-15.32
22.609,-16.85
22.625,-18.85
22.640,-20.97
22.656,-22.67
22.671,-23.35
22.687,-22.62
22.703,-20.41
22.718,-16.99
22.734,-12.9
22.750,-8.65
22.765,-4.66
22.781,-1.16
22.796,1.8
22.812,4.24
22.828,6.16
22.843,7.56
22.859,8.46
22.875,8.94
22.890,9.2
22.906,9.49
22.921,10.02
22.937,10.87
22.953,11.96
22.968,12.99
22.984,13.7
23.000,13.9
23.015,13.57
23.031,12.88
23.046,12.04
23.062,11.24
23.078,10.58
23.093,10.02
23.109,9.47
23.125,8.83
23.140,8.0
23.156,6.88
23.171,5.39
23.187,3.59
23.203,1.66
23.218,-0.1
23.234,-1.42
23.250,-2.15
23.265,-2.46
23.281,-2.68
23.296,-3.21
23.312,-4.28
23.328,-5.9
23.343,-7.89
23.359,-10.1
23.375,-12.46
23.390,-15.1
23.406,-18.11
23.421,-21.44
23.437,-24.72
23.453,-27.34
23.468,-28.69
23.484,-28.38
23.500,-26.41
23.515,-23.1
23.531,-19.04
23.546,-14.79
23.562,-10.74
23.578,-7.05
23.593,-3.6
23.609,-0.24
23.625,3.16
23.640,6.56
23.656,9.84
23.671,12.78
23.687,15.21
23.703,17.07
23.718,18.36
23.734,19.2
23.750,19.7
23.765,19.92
23.781,19.92
23.796,19.71
23.812,19.34
23.828,18.87
23.843,18.36
23.859,17.81
23.875,17.16
23.890,16.29
23.906,15.15
23.921,13.85
23.937,12.59
23.953,11.56
23.968,10.89
23.984,10.44
24.000,9.85
24.015,8.83
24.031,7.16
24.046,4.92
24.062,2.45
24.078,0.08
24.093,-2.01
24.109,-3.81
24.125,-5.51
24.140,-7.36
24.156,-9.51
24.171,-12.0
24.187,-14.78
24.203,-17.68
24.218,-20.54
24.234,-23.11
24.250,-25.11
24.265,-26.24
24.281,-26.29
24.296,-25.1
24.312,-22.71
24.328,-19.34
24.343,-15.28
24.359,-10.83
24.375,-6.29
24.390,-1.89
24.406,2.2
24.421,5.9
24.437,9.19
24.453,12.07
24.468,14.53
24.484,16.48
24.500,17.75
24.515,18.25
24.531,18.0
24.546,17.24
24.562,16.38
24.578,15.9
24.593,16.1
24.609,17.01
24.625,18.32
24.640,19.57
24.656,20.4
24.671,20.65
24.687,20.43
24.703,19.95
24.718,19.37
24.734,18.7
24.750,17.84
24.765,16.6
24.781,14.86
24.796,12.71
24.812,10.31
24.828,7.88
24.843,5.51
24.859,3.22
24.875,0.99
24.890,-1.16
24.906,-3.17
24.921,-4.94
24.937,-6.44
24.953,-7.75
24.968,-9.04
24.984,-10.56
25.000,-12.49
25.015,-14.9
25.031,-17.64
25.046,-20.36
25.062,-22.54
25.078,-23.68
25.093,-23.41
25.109,-21.6
25.125,-18.42
25.140,-14.28
25.156,-9.71
25.171,-5.23
25.187,-1.22
25.203,2.17
25.218,4.96
25.234,7.27
25.250,9.33
25.265,11.31
25.281,13.24
25.296,15.07
25.312,16.62
25.328,17.68
25.343,18.09
25.359,17.88
25.375,17.18
25.390,16.25
25.406,15.39
25.421,14.8
25.437,14.67
25.453,15.01
25.468,15.74
25.484,16.59
25.500,17.23
25.515,17.29
25.531,16.51
25.546,14.85
25.562,12.5
25.578,9.78
25.593,7.03
25.609,4.48
25.625,2.16
25.640,0.02
25.656,-2.04
25.671,-3.98
25.687,-5.7
25.703,-7.04
25.718,-7.9
25.734,-8.31
25.750,-8.45
25.765,-8.61
25.781,-9.05
25.796,-9.96
25.812,-11.36
25.828,-13.05
25.843,-14.69
25.859,-15.89
25.875,-16.29
25.890,-15.73
25.906,-14.17
25.921,-11.76
25.937,-8.75
25.953,-5.46
25.968,-2.16
25.984,0.92
26.000,3.63
26.015,5.89
26.031,7.64
26.046,8.85
26.062,9.52
26.078,9.72
26.093,9.55
26.109,9.17
26.125,8.67
26.140,8.17
26.156,7.76
26.171,7.5
26.187,7.45
26.203,7.62
26.218,7.98
26.234,8.44
26.250,8.85
26.265,9.01
26.281,8.79
26.296,8.16
26.312,7.15
26.328,5.88
26.343,4.49
26.359,3.04
26.375,1.64
26.390,0.37
26.406,-0.75
26.421,-1.74
26.437,-2.69
26.453,-3.72
26.468,-4.93
26.484,-6.34
26.500,-7.91
26.515,-9.61
26.531,-11.37
26.546,-13.26
26.562,-15.36
26.578,-17.61
26.593,-19.81
26.609,-21.52
26.625,-22.25
26.640,-21.64
26.656,-19.63
26.671,-16.54
26.687,-12.85
26.703,-9.12
26.718,-5.63
26.734,-2.5
26.750,0.37
26.765,3.06
26.781,5.59
26.796,7.86
26.812,9.69
26.828,11.0
26.843,11.76
26.859,12.03
26.875,11.83
26.890,11.27
26.906,10.46
26.921,9.56
26.937,8.72
26.953,8.06
26.968,7.62
26.984,7.27
27.000,6.91
27.015,6.42
27.031,5.86
27.046,5.35
27.062,4.96
27.078,4.72
27.093,4.53
27.109,4.26
27.125,3.85
27.140,3.34
27.156,2.77
27.171,2.17
27.187,1.41
27.203,0.29
27.218,-1.33
27.234,-3.47
27.250,-5.88
27.265,-8.21
27.281,-10.14
27.296,-11.55
27.312,-12.56
27.328,-13.49
27.343,-14.65
27.359,-16.22
27.375,-18.16
27.390,-20.16
27.406,-21.74
27.421,-22.39
27.437,-21.84
27.453,-20.08
27.468,-17.38
27.484,-14.21
27.500,-11.0
27.515,-8.1
27.531,-5.6
27.546,-3.45
27.562,-1.53
27.578,0.2
27.593,1.71
27.609,2.92
27.625,3.8
27.640,4.44
27.656,4.93
27.671,5.33
27.687,5.61
27.703,5.63
27.718,5.29
27.734,4.62
27.750,3.77
27.765,2.99
27.781,2.49
27.796,2.27
27.812,2.11
27.828,1.76
27.843,1.04
27.859,0.03
27.875,-1.04
27.890,-1.93
27.906,-2.57
27.921,-3.06
27.937,-3.65
27.953,-4.52
27.968,-5.62
27.984,-6.83
28.000,-7.88
28.015,-8.64
28.031,-9.13
28.046,-9.39
28.062,-9.5
28.078,-9.44
28.093,-9.16
28.109,-8.67
28.125,-8.18
28.140,-7.94
28.156,-8.18
28.171,-8.87
28.187,-9.7
28.203,-10.21
28.218,-10.04
28.234,-9.08
28.250,-7.51
28.265,-5.69
28.281,-3.88
28.296,-2.15
28.312,-0.48
28.328,1.27
28.343,3.09
28.359,4.85
28.375,6.41
28.390,7.7
28.406,8.77
28.421,9.8
28.437,10.89
28.453,12.09
28.468,13.33
28.484,14.43
28.500,15.21
28.515,15.65
28.531,15.79
28.546,15.82
28.562,15.93
28.578,16.2
28.593,16.52
28.609,16.71
28.625,16.55
28.640,15.87
28.656,14.73
28.671,13.27
28.687,11.69
28.703,10.13
28.718,8.63
28.734,7.12
28.750,5.53
28.765,3.83
28.781,2.07
28.796,0.41
28.812,-1.06
28.828,-2.31
28.843,-3.42
28.859,-4.54
28.875,-5.84
28.890,-7.41
28.906,-9.26
28.921,-11.28
28.937,-13.21
28.953,-14.77
28.968,-15.64
28.984,-15.53
29.000,-14.28
29.015,-11.95
29.031,-8.82
29.046,-5.36
29.062,-2.08
29.078,0.7
29.093,2.89
29.109,4.67
29.125,6.35
29.140,8.12
29.156,9.94
29.171,11.54
29.187,12.56
29.203,12.8
29.218,12.38
29.234,11.6
29.250,10.88
29.265,10.47
29.281,10.37
29.296,10.41
29.312,10.41
29.328,10.31
29.343,10.17
29.359,10.15
29.375,10.29
29.390,10.49
29.406,10.48
29.421,10.02
29.437,8.97
29.453,7.47
29.468,5.77
29.484,4.15
29.500,2.81
29.515,1.78
29.531,0.97
29.546,0.2
29.562,-0.7
29.578,-1.79
29.593,-3.02
29.609,-4.28
29.625,-5.47
29.640,-6.5
29.656,-7.36
29.671,-8.06
29.687,-8.69
29.703,-9.33
29.718,-9.97
29.734,-10.59
29.750,-10.98
29.765,-10.93
29.781,-10.29
29.796,-9.01
29.812,-7.2
29.828,-5.03
29.843,-2.76
29.859,-0.6
29.875,1.32
29.890,2.95
29.906,4.23
29.921,5.05
29.937,5.36
29.953,5.18
29.968,4.65
29.984,4.01
30.000,3.47
30.015,3.18
30.031,3.18
30.046,3.39
30.062,3.65
30.078,3.81
30.093,3.72
30.109,3.34
30.125,2.75
30.140,2.12
30.156,1.67
30.171,1.58
30.187,1.88
30.203,2.43
30.218,2.91
30.234,2.96
30.250,2.3
30.265,0.95
30.281,-0.85
30.296,-2.68
30.312,-4.17
30.328,-5.09
30.343,-5.52
30.359,-5.77
30.375,-6.25
30.390,-7.2
30.406,-8.63
30.421,-10.37
30.437,-12.09
30.453,-13.57
30.468,-14.71
30.484,-15.5
30.500,-15.87
30.515,-15.68
30.531,-14.78
30.546,-13.07
30.562,-10.73
30.578,-8.1
30.593,-5.56
30.609,-3.39
30.625,-1.61
30.640,-0.08
30.656,1.45
30.671,3.01
30.687,4.5
30.703,5.72
30.718,6.47
30.734,6.74
30.750,6.61
30.765,6.26
30.781,5.88
30.796,5.63
30.812,5.59
30.828,5.74
30.843,6.04
30.859,6.37
30.875,6.59
30.890,6.61
30.906,6.4
30.921,5.97
30.937,5.38
30.953,4.72
30.968,4.04
30.984,3.41
31.000,2.84
31.015,2.29
31.031,1.69
31.046,0.94
31.062,-0.09
31.078,-1.48
31.093,-3.16
31.109,-4.97
31.125,-6.65
31.140,-8.01
31.156,-9.0
31.171,-9.7
31.187,-10.35
31.203,-11.16
31.218,-12.28
31.234,-13.71
31.250,-15.32
31.265,-16.85
31.281,-17.99
31.296,-18.43
31.312,-17.92
31.328,-16.43
31.343,-14.01
31.359,-10.92
31.375,-7.45
31.390,-3.97
31.406,-0.76
31.421,1.98
31.437,4.16
31.453,5.81
31.468,6.96
31.484,7.72
31.500,8.19
31.515,8.46
31.531,8.62
31.546,8.77
31.562,9.01
31.578,9.37
31.593,9.81
31.609,10.21
31.625,10.46
31.640,10.51
31.656,10.37
31.671,10.1
31.687,9.8
31.703,9.51
31.718,9.2
31.734,8.84
31.750,8.33
31.765,7.63
31.781,6.71
31.796,5.58
31.812,4.31
31.828,2.96
31.843,1.66
31.859,0.49
31.875,-0.46
31.890,-1.19
31.906,-1.86
31.921,-2.66
31.937,-3.81
31.953,-5.37
31.968,-7.26
31.984,-9.3
32.000,-11.29
32.015,-13.05
32.031,-14.53
32.046,-15.69
32.062,-16.43
32.078,-16.65
32.093,-16.18
32.109,-14.92
32.125,-12.91
32.140,-10.31
32.156,-7.3
32.171,-4.13
32.187,-1.05
32.203,1.68
32.218,3.79
32.234,5.13
32.250,5.72
32.265,5.79
32.281,5.68
32.296,5.74
32.312,6.1
32.328,6.69
32.343,7.29
32.359,7.73
32.375,7.92
32.390,7.95
32.406,7.93
32.421,7.89
32.437,7.79
32.453,7.57
32.468,7.13
32.484,6.49
32.500,5.71
32.515,4.92
32.531,4.22
32.546,3.68
32.562,3.34
32.578,3.17
32.593,3.13
32.609,3.12
32.625,3.03
32.640,2.72
32.656,2.14
32.671,1.3
32.687,0.29
32.703,-0.8
32.718,-1.88
32.734,-2.97
32.750,-4.14
32.765,-5.5
32.781,-7.09
32.796,-8.89
32.812,-10.71
32.828,-12.31
32.843,-13.38
32.859,-13.75
32.875,-13.3
32.890,-12.08
32.906,-10.18
32.921,-7.83
32.937,-5.31
32.953,-2.9
32.968,-0.84
32.984,0.76
33.000,1.87
33.015,2.62
33.031,3.16
33.046,3.62
33.062,4.07
33.078,4.48
33.093,4.81
33.109,5.04
33.125,5.22
33.140,5.46
33.156,5.77
33.171,6.08
33.187,6.28
33.203,6.17
33.218,5.71
33.234,5.0
33.250,4.27
33.265,3.78
33.281,3.61
33.296,3.62
33.312,3.51
33.328,2.97
33.343,1.86
33.359,0.3
33.375,-1.38
33.390,-2.87
33.406,-3.98
33.421,-4.7
33.437,-5.18
33.453,-5.59
33.468,-6.03
33.484,-6.54
33.500,-7.11
33.515,-7.76
33.531,-8.53
33.546,-9.39
33.562,-10.22
33.578,-10.78
33.593,-10.81
33.609,-10.08
33.625,-8.61
33.640,-6.53
33.656,-4.11
33.671,-1.67
33.687,0.57
33.703,2.54
33.718,4.18
33.734,5.48
33.750,6.41
33.765,6.82
33.781,6.65
33.796,5.9
33.812,4.69
33.828,3.28
33.843,2.05
33.859,1.28
33.875,1.12
33.890,1.55
33.906,2.34
33.921,3.2
33.937,3.86
33.953,4.1
33.968,3.94
33.984,3.52
34.000,3.03
34.015,2.55
34.031,2.12
34.046,1.57
34.062,0.78
34.078,-0.35
34.093,-1.84
34.109,-3.56
34.125,-5.33
34.140,-6.94
34.156,-8.19
34.171,-8.97
34.187,-9.29
34.203,-9.26
34.218,-9.11
34.234,-9.07
34.250,-9.32
34.265,-9.9
34.281,-10.75
34.296,-11.6
34.312,-12.16
34.328,-12.16
34.343,-11.44
34.359,-9.94
34.375,-7.83
34.390,-5.33
34.406,-2.77
34.421,-0.52
34.437,1.19
34.453,2.22
34.468,2.6
34.484,2.52
34.500,2.27
34.515,2.04
34.531,1.95
34.546,2.0
34.562,2.11
34.578,2.21
34.593,2.33
34.609,2.62
34.625,3.16
34.640,3.93
34.656,4.73
34.671,5.26
34.687,5.26
34.703,4.66
34.718,3.61
34.734,2.47
34.750,1.55
34.765,1.02
34.781,0.81
34.796,0.74
34.812,0.66
34.828,0.56
34.843,0.53
34.859,0.64
34.875,0.88
34.890,1.1
34.906,1.12
34.921,0.73
34.937,-0.16
34.953,-1.55
34.968,-3.43
34.984,-5.76
35.000,-8.45
35.015,-11.38
35.031,-14.29
35.046,-16.82
35.062,-18.58
35.078,-19.27
35.093,-18.79
35.109,-17.2
35.125,-14.69
35.140,-11.56
35.156,-8.09
35.171,-4.62
35.187,-1.41
35.203,1.28
35.218,3.32
35.234,4.66
35.250,5.4
35.265,5.71
35.281,5.79
35.296,5.74
35.312,5.59
35.328,5.3
35.343,4.87
35.359,4.35
35.375,3.87
35.390,3.53
35.406,3.44
35.421,3.59
35.437,3.88
35.453,4.19
35.468,4.47
35.484,4.71
35.500,4.87
35.515,4.88
35.531,4.62
35.546,4.04
35.562,3.12
35.578,1.98
35.593,0.72
35.609,-0.56
35.625,-1.85
35.640,-3.19
35.656,-4.62
35.671,-6.11
35.687,-7.53
35.703,-8.76
35.718,-9.7
35.734,-10.37
35.750,-10.87
35.765,-11.39
35.781,-12.06
35.796,-13.0
35.812,-14.18
35.828,-15.45
35.843,-16.53
35.859,-17.04
35.875,-16.67
35.890,-15.3
35.906,-13.06
35.921,-10.25
35.937,-7.25
35.953,-4.4
35.968,-1.85
35.984,0.36
36.000,2.29
36.015,3.9
36.031,5.1
36.046,5.79
36.062,5.97
36.078,5.78
36.093,5.52
36.109,5.44
36.125,5.57
36.140,5.8
36.156,5.84
36.171,5.46
36.187,4.67
36.203,3.62
36.218,2.63
36.234,2.02
36.250,1.86
36.265,2.05
36.281,2.34
36.296,2.53
36.312,2.49
36.328,2.31
36.343,2.11
36.359,2.02
36.375,1.98
36.390,1.77
36.406,1.13
36.421,-0.06
36.437,-1.68
36.453,-3.52
36.468,-5.32
36.484,-7.01
36.500,-8.65
36.515,-10.44
36.531,-12.46
36.546,-14.56
36.562,-16.36
36.578,-17.43
36.593,-17.48
36.609,-16.38
36.625,-14.31
36.640,-11.57
36.656,-8.54
36.671,-5.52
36.687,-2.7
36.703,-0.25
36.718,1.78
36.734,3.27
36.750,4.19
36.765,4.58
36.781,4.55
36.796,4.39
36.812,4.38
36.828,4.79
36.843,5.68
36.859,6.94
36.875,8.28
36.890,9.41
36.906,10.1
36.921,10.24
36.937,9.95
36.953,9.4
36.968,8.84
36.984,8.44
37.000,8.33
37.015,8.47
37.031,8.73
37.046,8.89
37.062,8.66
37.078,7.9
37.093,6.55
37.109,4.7
37.125,2.61
37.140,0.53
37.156,-1.33
37.171,-2.82
37.187,-4.0
37.203,-5.07
37.218,-6.21
37.234,-7.64
37.250,-9.5
37.265,-11.68
37.281,-14.0
37.296,-16.1
37.312,-17.61
37.328,-18.2
37.343,-17.76
37.359,-16.27
37.375,-13.95
37.390,-11.15
37.406,-8.18
37.421,-5.35
37.437,-2.8
37.453,-0.5
37.468,1.7
37.484,3.93
37.500,6.19
37.515,8.33
37.531,10.08
37.546,11.26
37.562,11.82
37.578,11.92
37.593,11.83
37.609,11.82
37.625,12.0
37.640,12.39
37.656,12.83
37.671,13.2
37.687,13.38
37.703,13.33
37.718,13.04
37.734,12.58
37.750,12.02
37.765,11.41
37.781,10.82
37.796,10.16
37.812,9.31
37.828,8.19
37.843,6.74
37.859,5.05
37.875,3.26
37.890,1.49
37.906,-0.22
37.921,-1.88
37.937,-3.59
37.953,-5.49
37.968,-7.63
37.984,-10.08
38.000,-12.84
38.015,-15.84
38.031,-18.92
38.046,-21.83
38.062,-24.21
38.078,-25.71
38.093,-26.05
38.109,-25.02
38.125,-22.6
38.140,-19.0
38.156,-14.6
38.171,-9.88
38.187,-5.38
38.203,-1.45
38.218,1.75
38.234,4.33
38.250,6.51
38.265,8.47
38.281,10.2
38.296,11.59
38.312,12.48
38.328,12.78
38.343,12.59
38.359,12.15
38.375,11.68
38.390,11.39
38.406,11.33
38.421,11.48
38.437,11.83
38.453,12.3
38.468,12.83
38.484,13.33
38.500,13.65
38.515,13.66
38.531,13.32
38.546,12.63
38.562,11.63
38.578,10.44
38.593,9.06
38.609,7.53
38.625,5.89
38.640,4.2
38.656,2.5
38.671,0.85
38.687,-0.76
38.703,-2.39
38.718,-4.09
38.734,-5.94
38.750,-7.93
38.765,-10.02
38.781,-12.1
38.796,-14.05
38.812,-15.71
38.828,-16.9
38.843,-17.43
38.859,-17.17
38.875,-15.99
38.890,-13.87
38.906,-10.9
38.921,-7.3
38.937,-3.42
38.953,0.32
38.968,3.61
38.984,6.32
39.000,8.5
39.015,10.28
39.031,11.78
39.046,13.01
39.062,13.84
39.078,14.2
39.093,14.04
39.109,13.52
39.125,12.83
39.140,12.19
39.156,11.65
39.171,11.19
39.187,10.74
39.203,10.27
39.218,9.85
39.234,9.6
39.250,9.63
39.265,9.88
39.281,10.2
39.296,10.42
39.312,10.36
39.328,9.93
39.343,9.18
39.359,8.2
39.375,7.09
39.390,5.94
39.406,4.75
39.421,3.5
39.437,2.2
39.453,0.79
39.468,-0.74
39.484,-2.4
39.500,-4.17
39.515,-6.03
39.531,-7.95
39.546,-9.84
39.562,-11.64
39.578,-13.28
39.593,-14.72
39.609,-15.89
39.625,-16.58
39.640,-16.55
39.656,-15.53
39.671,-13.49
39.687,-10.57
39.703,-7.17
39.718,-3.67
39.734,-0.4
39.750,2.5
39.765,5.05
39.781,7.31
39.796,9.31
39.812,11.0
39.828,12.28
39.843,13.08
39.859,13.43
39.875,13.47
39.890,13.39
39.906,13.36
39.921,13.5
39.937,13.83
39.953,14.24
39.968,14.52
39.984,14.43
40.000,13.86
40.015,12.94
40.031,11.87
40.046,11.01
40.062,10.49
40.078,10.28
40.093,10.17
40.109,9.85
40.125,9.11
40.140,7.87
40.156,6.3
40.171,4.53
40.187,2.74
40.203,0.99
40.218,-0.72
40.234,-2.37
40.250,-3.95
40.265,-5.46
40.281,-7.04
40.296,-8.83
40.312,-10.99
40.328,-13.48
40.343,-16.07
40.359,-18.32
40.375,-19.74
40.390,-19.87
40.406,-18.49
40.421,-15.74
40.437,-11.96
40.453,-7.71
40.468,-3.49
40.484,0.24
40.500,3.31
40.515,5.8
40.531,7.92
40.546,9.89
40.562,11.75
40.578,13.37
40.593,14.54
40.609,15.09
40.625,15.06
40.640,14.65
40.656,14.17
40.671,13.79
40.687,13.59
40.703,13.46
40.718,13.29
40.734,13.02
40.750,12.66
40.765,12.3
40.781,11.95
40.796,11.58
40.812,11.08
40.828,10.41
40.843,9.56
40.859,8.64
40.875,7.69
40.890,6.72
40.906,5.64
40.921,4.34
40.937,2.69
40.953,0.71
40.968,-1.43
40.984,-3.56
41.000,-5.53
41.015,-7.28
41.031,-8.89
41.046,-10.52
41.062,-12.29
41.078,-14.29
41.093,-16.48
41.109,-18.73
41.125,-20.82
41.140,-22.57
41.156,-23.73
41.171,-24.03
41.187,-23.29
41.203,-21.39
41.218,-18.39
41.234,-14.47
41.250,-9.97
41.265,-5.31
41.281,-0.9
41.296,2.97
41.312,6.15
41.328,8.64
41.343,10.51
41.359,11.84
41.375,12.65
41.390,12.94
41.406,12.72
41.421,12.1
41.437,11.32
41.453,10.68
41.468,10.42
41.484,10.67
41.500,11.36
41.515,12.32
41.531,13.31
41.546,14.1
41.562,14.57
41.578,14.6
41.593,14.15
41.609,13.26
41.625,12.02
41.640,10.55
41.656,9.02
41.671,7.54
41.687,6.1
41.703,4.68
41.718,3.21
41.734,1.63
41.750,0.03
41.765,-1.53
41.781,-2.94
41.796,-4.2
41.812,-5.42
41.828,-6.73
41.843,-8.28
41.859,-10.05
41.875,-11.96
41.890,-13.8
41.906,-15.37
41.921,-16.53
41.937,-17.25
41.953,-17.46
41.968,-17.12
41.984,-16.14
42.000,-14.44
42.015,-12.02
42.031,-9.07
42.046,-5.85
42.062,-2.63
42.078,0.41
42.093,3.16
42.109,5.62
42.125,7.78
42.140,9.53
42.156,10.73
42.171,11.32
42.187,11.34
42.203,10.99
42.218,10.56
42.234,10.32
42.250,10.39
42.265,10.79
42.281,11.39
42.296,11.98
42.312,12.42
42.328,12.6
42.343,12.49
42.359,12.14
42.375,11.52
42.390,10.59
42.406,9.29
42.421,7.67
42.437,5.79
42.453,3.9
42.468,2.25
42.484,0.97
42.500,0.01
42.515,-0.87
42.531,-1.99
42.546,-3.52
42.562,-5.39
42.578,-7.32
42.593,-8.95
42.609,-10.07
42.625,-10.75
42.640,-11.27
42.656,-11.99
42.671,-13.18
42.687,-14.82
42.703,-16.7
42.718,-18.45
42.734,-19.66
42.750,-20.07
42.765,-19.56
42.781,-18.12
42.796,-15.95
42.812,-13.32
42.828,-10.54
42.843,-7.9
42.859,-5.56
42.875,-3.5
42.890,-1.63
42.906,0.2
42.921,2.08
42.937,3.96
42.953,5.72
42.968,7.19
42.984,8.24
43.000,8.83
43.015,9.08
43.031,9.17
43.046,9.27
43.062,9.45
43.078,9.62
43.093,9.61
43.109,9.32
43.125,8.72
43.140,8.0
43.156,7.41
43.171,7.07
43.187,6.98
43.203,6.91
43.218,6.57
43.234,5.78
43.250,4.61
43.265,3.27
43.281,2.05
43.296,1.11
43.312,0.36
43.328,-0.37
43.343,-1.29
43.359,-2.47
43.375,-3.81
43.390,-5.06
43.406,-6.1
43.421,-6.96
43.437,-7.87
43.453,-9.11
43.468,-10.87
43.484,-13.11
43.500,-15.55
43.515,-17.83
43.531,-19.51
43.546,-20.35
43.562,-20.16
43.578,-18.93
43.593,-16.8
43.609,-13.99
43.625,-10.8
43.640,-7.51
43.656,-4.3
43.671,-1.24
43.687,1.57
43.703,4.12
43.718,6.29
43.734,7.91
43.750,8.88
43.765,9.19
43.781,9.02
43.796,8.6
43.812,8.18
43.828,7.8
43.843,7.47
43.859,7.16
43.875,6.8
43.890,6.49
43.906,6.27
43.921,6.17
43.937,6.04
43.953,5.79
43.968,5.28
43.984,4.54
44.000,3.74
44.015,3.01
44.031,2.47
44.046,2.12
44.062,1.82
44.078,1.45
44.093,0.93
44.109,0.22
44.125,-0.71
44.140,-1.82
44.156,-3.12
44.171,-4.52
44.187,-5.9
44.203,-7.16
44.218,-8.2
44.234,-9.08
44.250,-9.96
44.265,-10.95
44.281,-12.19
44.296,-13.67
44.312,-15.17
44.328,-16.41
44.343,-17.03
44.359,-16.76
44.375,-15.52
44.390,-13.43
44.406,-10.81
44.421,-8.02
44.437,-5.38
44.453,-3.02
44.468,-0.95
44.484,0.88
44.500,2.54
44.515,3.99
44.531,5.22
44.546,6.23
44.562,7.07
44.578,7.78
44.593,8.34
44.609,8.71
44.625,8.77
44.640,8.55
44.656,8.11
44.671,7.67
44.687,7.41
44.703,7.43
44.718,7.72
44.734,8.1
44.750,8.37
44.765,8.29
44.781,7.73
44.796,6.64
44.812,5.1
44.828,3.31
44.843,1.5
44.859,-0.07
44.875,-1.24
44.890,-2.03
44.906,-2.59
44.921,-3.14
44.937,-3.86
44.953,-4.75
44.968,-5.7
44.984,-6.54
45.000,-7.19
45.015,-7.73
45.031,-8.3
45.046,-9.1
45.062,-10.23
45.078,-11.67
45.093,-13.29
45.109,-14.93
45.125,-16.43
45.140,-17.59
45.156,-18.23
45.171,-18.07
45.187,-16.95
45.203,-14.88
45.218,-12.08
45.234,-8.93
45.250,-5.87
45.265,-3.15
45.281,-0.9
45.296,0.94
45.312,2.45
45.328,3.71
45.343,4.78
45.359,5.66
45.375,6.34
45.390,6.83
45.406,7.17
45.421,7.38
45.437,7.55
45.453,7.71
45.468,7.87
45.484,8.03
45.500,8.2
45.515,8.34
45.531,8.43
45.546,8.43
45.562,8.29
45.578,7.95
45.593,7.42
45.609,6.76
45.625,6.07
45.640,5.48
45.656,4.99
45.671,4.45
45.687,3.75
45.703,2.8
45.718,1.61
45.734,0.37
45.750,-0.77
45.765,-1.72
45.781,-2.54
45.796,-3.38
45.812,-4.33
45.828,-5.45
45.843,-6.68
45.859,-8.03
45.875,-9.51
45.890,-11.2
45.906,-13.19
45.921,-15.46
45.937,-17.83
45.953,-19.92
45.968,-21.3
45.984,-21.55
46.000,-20.44
46.015,-18.0
46.031,-14.56
46.046,-10.61
46.062,-6.62
46.078,-2.96
46.093,0.19
46.109,2.84
46.125,4.97
46.140,6.52
46.156,7.48
46.171,7.82
46.187,7.67
46.203,7.36
46.218,7.18
46.234,7.35
46.250,7.92
46.265,8.72
46.281,9.48
46.296,9.99
46.312,10.15
46.328,10.0
46.343,9.68
46.359,9.3
46.375,8.93
46.390,8.58
46.406,8.22
46.421,7.83
46.437,7.36
46.453,6.79
46.468,6.13
46.484,5.41
46.500,4.68
46.515,3.95
46.531,3.18
46.546,2.21
46.562,0.95
46.578,-0.71
46.593,-2.66
46.609,-4.7
46.625,-6.62
46.640,-8.28
46.656,-9.75
46.671,-11.22
46.687,-12.92
46.703,-14.89
46.718,-16.99
46.734,-18.94
46.750,-20.39
46.765,-21.04
46.781,-20.71
46.796,-19.34
46.812,-17.06
46.828,-14.1
46.843,-10.78
46.859,-7.44
46.875,-4.38
46.890,-1.74
46.906,0.41
46.921,2.15
46.937,3.59
46.953,4.78
46.968,5.66
46.984,6.14
47.000,6.15
47.015,5.72
47.031,5.07
47.046,4.45
47.062,4.18
47.078,4.4
47.093,5.12
47.109,6.15
47.125,7.23
47.140,8.13
47.156,8.69
47.171,8.87
47.187,8.74
47.203,8.39
47.218,7.84
47.234,7.12
47.250,6.18
47.265,5.07
47.281,3.84
47.296,2.59
47.312,1.39
47.328,0.21
47.343,-1.06
47.359,-2.5
47.375,-4.08
47.390,-5.62
47.406,-6.9
47.421,-7.83
47.437,-8.59
47.453,-9.52
47.468,-11.0
47.484,-13.2
47.500,-15.93
47.515,-18.74
47.531,-21.04
47.546,-22.34
47.562,-22.36
47.578,-21.08
47.593,-18.69
47.609,-15.54
47.625,-12.01
47.640,-8.39
47.656,-4.85
47.671,-1.39
47.687,2.09
47.703,5.59
47.718,8.99
47.734,11.98
47.750,14.23
47.765,15.55
47.781,15.96
47.796,15.7
47.812,15.12
47.828,14.57
47.843,14.22
47.859,14.12
47.875,14.19
47.890,14.31
47.906,14.44
47.921,14.51
47.937,14.48
47.953,14.32
47.968,13.99
47.984,13.42
48.000,12.54
48.015,11.36
48.031,9.89
48.046,8.26
48.062,6.57
48.078,4.89
48.093,3.26
48.109,1.68
48.125,0.14
48.140,-1.33
48.156,-2.67
48.171,-3.81
48.187,-4.72
48.203,-5.52
48.218,-6.39
48.234,-7.64
48.250,-9.44
48.265,-11.81
48.281,-14.55
48.296,-17.34
48.312,-19.91
48.328,-22.01
48.343,-23.51
48.359,-24.28
48.375,-24.17
48.390,-22.99
48.406,-20.67
48.421,-17.39
48.437,-13.55
48.453,-9.65
48.468,-6.09
48.484,-3.03
48.500,-0.34
48.515,2.21
48.531,4.79
48.546,7.43
48.562,9.95
48.578,12.14
48.593,13.88
48.609,15.11
48.625,15.87
48.640,16.17
48.656,16.01
48.671,15.44
48.687,14.59
48.703,13.7
48.718,13.11
48.734,12.99
48.750,13.36
48.765,14.02
48.781,14.67
48.796,15.04
48.812,14.97
48.828,14.4
48.843,13.35
48.859,11.89
48.875,10.08
48.890,8.02
48.906,5.9
48.921,3.93
48.937,2.28
48.953,0.93
48.968,-0.27
48.984,-1.51
49.000,-2.91
49.015,-4.48
49.031,-6.13
49.046,-7.79
49.062,-9.49
49.078,-11.36
49.093,-13.53
49.109,-15.99
49.125,-18.48
49.140,-20.52
49.156,-21.52
49.171,-21.05
49.187,-19.03
49.203,-15.72
49.218,-11.66
49.234,-7.4
49.250,-3.32
49.265,0.46
49.281,3.95
49.296,7.17
49.312,10.05
49.328,12.41
49.343,14.1
49.359,15.1
49.375,15.57
49.390,15.69
49.406,15.54
49.421,15.06
49.437,14.17
49.453,12.9
49.468,11.46
49.484,10.18
49.500,9.37
49.515,9.12
49.531,9.32
49.546,9.64
49.562,9.78
49.578,9.49
49.593,8.68
49.609,7.42
49.625,5.81
49.640,3.97
49.656,2.0
49.671,0.01
49.687,-1.92
49.703,-3.78
49.718,-5.54
49.734,-7.29
49.750,-9.07
49.765,-10.89
49.781,-12.71
49.796,-14.49
49.812,-16.15
49.828,-17.68
49.843,-19.21
49.859,-20.88
49.875,-22.9
49.890,-25.45
49.906,-28.52
49.921,-31.94
49.937,-35.24
49.953,-37.81
49.968,-39.01
49.984,-38.41
50.000,-35.8
50.015,-31.37
50.031,-25.62
50.046,-19.17
50.062,-12.55
50.078,-6.1
50.093,0.09
50.109,6.13
50.125,12.12
50.140,18.17
50.156,24.2
50.171,29.99
50.187,35.28
50.203,39.85
50.218,43.57
50.234,46.4
50.250,48.3
50.265,49.24
50.281,49.13
50.296,47.9
50.312,45.51
50.328,42.08
50.343,37.8
50.359,32.99
50.375,28.01
50.390,23.14
50.406,18.65
50.421,14.62
50.437,11.01
50.453,7.67
50.468,4.47
50.484,1.31
50.500,-1.78
50.515,-4.64
50.531,-7.12
50.546,-9.08
50.562,-10.47
50.578,-11.36
50.593,-11.88
50.609,-12.17
50.625,-12.5
50.640,-13.09
50.656,-14.13
50.671,-15.71
50.687,-17.63
50.703,-19.52
50.718,-20.81
50.734,-21.06
50.750,-20.03
50.765,-17.81
50.781,-14.71
50.796,-11.08
50.812,-7.27
50.828,-3.51
50.843,0.03
50.859,3.18
50.875,5.82
50.890,7.88
50.906,9.43
50.921,10.64
50.937,11.72
50.953,12.87
50.968,14.11
50.984,15.32
51.000,16.33
51.015,16.96
51.031,17.19
51.046,17.08
51.062,16.81
51.078,16.47
51.093,16.08
51.109,15.64
51.125,15.06
51.140,14.34
51.156,13.52
51.171,12.69
51.187,11.84
51.203,10.85
51.218,9.59
51.234,7.97
51.250,5.99
51.265,3.77
51.281,1.51
51.296,-0.62
51.312,-2.49
51.328,-4.07
51.343,-5.48
51.359,-6.85
51.375,-8.4
51.390,-10.3
51.406,-12.56
51.421,-15.01
51.437,-17.32
51.453,-19.07
51.468,-19.87
51.484,-19.55
51.500,-18.09
51.515,-15.68
51.531,-12.55
51.546,-9.03
51.562,-5.33
51.578,-1.7
51.593,1.65
51.609,4.58
51.625,7.05
51.640,9.1
51.656,10.77
51.671,12.09
51.687,13.07
51.703,13.65
51.718,13.85
51.734,13.72
51.750,13.41
51.765,13.12
51.781,13.05
51.796,13.32
51.812,13.89
51.828,14.53
51.843,14.95
51.859,14.82
51.875,14.01
51.890,12.61
51.906,10.92
51.921,9.3
51.937,7.95
51.953,6.92
51.968,6.09
51.984,5.3
52.000,4.53
52.015,3.79
52.031,3.11
52.046,2.39
52.062,1.36
52.078,-0.29
52.093,-2.61
52.109,-5.45
52.125,-8.44
52.140,-11.19
52.156,-13.51
52.171,-15.49
52.187,-17.36
52.203,-19.31
52.218,-21.27
52.234,-22.84
52.250,-23.46
52.265,-22.69
52.281,-20.39
52.296,-16.77
52.312,-12.32
52.328,-7.62
52.343,-3.16
52.359,0.73
52.375,3.97
52.390,6.71
52.406,9.26
52.421,12.03
52.437,15.27
52.453,18.93
52.468,22.67
52.484,25.87
52.500,28.01
52.515,28.87
52.531,28.74
52.546,28.33
52.562,28.49
52.578,29.8
52.593,32.34
52.609,35.7
52.625,39.09
52.640,41.68
52.656,42.78
52.671,41.96
52.687,39.11
52.703,34.39
52.718,28.32
52.734,21.72
52.750,15.45
52.765,10.09
52.781,5.51
52.796,0.63
52.812,-6.32
52.828,-17.07
52.843,-32.29
52.859,-50.9
52.875,-70.08
52.890,-86.13
52.906,-95.82
52.921,-97.56
52.937,-91.95
52.953,-81.34
52.968,-68.76
52.984,-56.76
53.000,-46.65
53.015,-38.61
53.031,-32.21
53.046,-27.09
53.062,-23.24
53.078,-20.84
53.093,-19.76
53.109,-19.27
53.125,-18.12
53.140,-15.09
53.156,-9.59
53.171,-2.14
53.187,5.94
53.203,13.11
53.218,18.36
53.234,21.71
53.250,24.01
53.265,26.48
53.281,30.0
53.296,34.77
53.312,40.34
53.328,45.95
53.343,51.06
53.359,55.46
53.375,59.46
53.390,63.5
53.406,67.91
53.421,72.71
53.437,77.59
53.453,82.0
53.468,85.47
53.484,87.67
53.500,88.49
53.515,88.01
53.531,86.37
53.546,83.64
53.562,79.86
53.578,75.07
53.593,69.33
53.609,62.93
53.625,56.24
53.640,49.76
53.656,44.0
53.671,39.45
53.687,36.43
53.703,34.97
53.718,34.77
53.734,35.12
53.750,35.15
53.765,34.01
53.781,31.2
53.796,26.82
53.812,21.58
53.828,16.56
53.843,12.87
53.859,11.13
53.875,11.23
53.890,12.33
53.906,13.2
53.921,12.79
53.937,10.65
53.953,7.07
53.968,2.8
53.984,-1.52
54.000,-5.75
54.015,-10.41
54.031,-16.41
54.046,-24.62
54.062,-35.46
54.078,-48.66
54.093,-63.43
54.109,-78.64
54.125,-93.17
54.140,-106.15
54.156,-117.17
54.171,-126.54
54.187,-135.29
54.203,-144.95
54.218,-156.94
54.234,-171.75
54.250,-188.17
54.265,-203.38
54.281,-213.55
54.296,-215.33
54.312,-207.0
54.328,-189.2
54.343,-164.65
54.359,-137.14
54.375,-110.27
54.390,-86.38
54.406,-66.34
54.421,-49.79
54.437,-35.89
54.453,-23.76
54.468,-12.7
54.484,-2.19
54.500,8.17
54.515,18.66
54.531,29.33
54.546,39.83
54.562,49.5
54.578,57.52
54.593,63.32
54.609,66.8
54.625,68.57
54.640,69.64
54.656,71.1
54.671,73.69
54.687,77.5
54.703,81.91
54.718,85.87
54.734,88.24
54.750,88.24
54.765,85.68
54.781,81.0
54.796,75.04
54.812,68.67
54.828,62.51
54.843,56.84
54.859,51.63
54.875,46.71
54.890,41.9
54.906,37.01
54.921,31.85
54.937,26.26
54.953,20.23
54.968,14.12
54.984,8.62
55.000,4.54
55.015,2.33
55.031,1.79
55.046,2.1
55.062,2.22
55.078,1.47
55.093,-0.16
55.109,-2.08
55.125,-3.6
55.140,-4.39
55.156,-4.56
55.171,-4.25
55.187,-3.22
55.203,-0.85
55.218,3.27
55.234,8.56
55.250,13.3
55.265,15.06
55.281,11.78
55.296,2.81
55.312,-10.75
55.328,-26.48
55.343,-41.48
55.359,-53.31
55.375,-60.61
55.390,-63.04
55.406,-61.12
55.421,-55.81
55.437,-48.23
55.453,-39.35
55.468,-29.95
55.484,-20.55
55.500,-11.62
55.515,-3.71
55.531,2.59
55.546,6.9
55.562,9.44
55.578,11.14
55.593,13.25
55.609,16.73
55.625,21.86
55.640,28.05
55.656,34.32
55.671,39.72
55.687,43.73
55.703,46.23
55.718,47.38
55.734,47.34
55.750,46.14
55.765,43.83
55.781,40.45
55.796,36.18
55.812,31.27
55.828,25.94
55.843,20.3
55.859,14.45
55.875,8.39
55.890,2.21
55.906,-3.89
55.921,-9.71
55.937,-15.05
55.953,-19.71
55.968,-23.63
55.984,-26.74
56.000,-29.1
56.015,-30.8
56.031,-32.04
56.046,-33.0
56.062,-33.89
56.078,-34.79
56.093,-35.6
56.109,-36.12
56.125,-35.93
56.140,-34.71
56.156,-32.28
56.171,-28.72
56.187,-24.36
56.203,-19.79
56.218,-15.54
56.234,-12.09
56.250,-9.7
56.265,-8.29
56.281,-7.64
56.296,-7.42
56.312,-7.4
56.328,-7.42
56.343,-7.43
56.359,-7.4
56.375,-7.27
56.390,-6.99
56.406,-6.43
56.421,-5.62
56.437,-4.71
56.453,-3.9
56.468,-3.41
56.484,-3.38
56.500,-3.74
56.515,-4.34
56.531,-5.01
56.546,-5.52
56.562,-5.83
56.578,-5.97
56.593,-6.0
56.609,-6.05
56.625,-6.12
56.640,-6.19
56.656,-6.24
56.671,-6.34
56.687,-6.55
56.703,-7.03
56.718,-7.81
56.734,-8.84
56.750,-10.03
56.765,-11.3
56.781,-12.65
56.796,-14.06
56.812,-15.53
56.828,-16.81
56.843,-17.57
56.859,-17.41
56.875,-16.07
56.890,-13.61
56.906,-10.38
56.921,-6.98
56.937,-4.0
56.953,-1.9
56.968,-0.82
56.984,-0.7
57.000,-1.17
57.015,-1.77
57.031,-2.16
57.046,-2.07
57.062,-1.49
57.078,-0.51
57.093,0.72
57.109,2.01
57.125,3.22
57.140,4.28
57.156,5.22
57.171,6.03
57.187,6.78
57.203,7.44
57.218,8.03
57.234,8.48
57.250,8.67
57.265,8.47
57.281,7.79
57.296,6.69
57.312,5.23
57.328,3.61
57.343,1.85
57.359,0.01
57.375,-1.88
57.390,-3.77
57.406,-5.48
57.421,-6.92
57.437,-8.15
57.453,-9.39
57.468,-10.96
57.484,-13.09
57.500,-15.7
57.515,-18.32
57.531,-20.32
57.546,-21.15
57.562,-20.6
57.578,-18.8
57.593,-16.12
57.609,-12.92
57.625,-9.49
57.640,-6.0
57.656,-2.72
57.671,-0.1
57.687,1.48
57.703,1.72
57.718,0.72
57.734,-0.99
57.750,-2.58
57.765,-3.36
57.781,-2.97
57.796,-1.55
57.812,0.27
57.828,1.65
57.843,1.73
57.859,-0.06
57.875,-3.75
57.890,-8.82
57.906,-14.2
57.921,-18.56
57.937,-20.83
57.953,-20.63
57.968,-18.61
57.984,-16.31
58.000,-15.45
58.015,-16.89
58.031,-20.15
58.046,-23.37
58.062,-24.15
58.078,-20.57
58.093,-11.84
58.109,1.63
58.125,18.61
58.140,37.72
58.156,57.63
58.171,76.99
58.187,94.28
58.203,107.77
58.218,115.91
58.234,117.79
58.250,113.5
58.265,103.83
58.281,89.93
58.296,72.86
58.312,53.33
58.328,31.92
58.343,9.27
58.359,-13.72
58.375,-35.92
58.390,-56.19
58.406,-73.63
58.421,-87.49
58.437,-97.17
58.453,-102.15
58.468,-102.08
58.484,-97.01
58.500,-87.63
58.515,-75.15
58.531,-61.04
58.546,-46.74
58.562,-33.22
58.578,-20.99
58.593,-10.16
58.609,-0.44
58.625,8.63
58.640,17.75
58.656,27.84
58.671,39.63
58.687,53.38
58.703,68.52
58.718,83.68
58.734,97.19
58.750,107.64
58.765,114.14
58.781,116.26
58.796,113.76
58.812,106.24
58.828,93.29
58.843,74.81
58.859,51.25
58.875,23.96
58.890,-5.03
58.906,-33.42
58.921,-59.06
58.937,-80.38
58.953,-96.56
58.968,-107.46
58.984,-113.39
59.000,-114.95
59.015,-112.62
59.031,-106.77
59.046,-97.68
59.062,-85.86
59.078,-72.23
59.093,-58.16
59.109,-45.11
59.125,-34.14
59.140,-25.53
59.156,-18.7
59.171,-12.71
59.187,-6.57
59.203,0.19
59.218,7.51
59.234,15.07
59.250,22.66
59.265,30.27
59.281,38.03
59.296,45.88
59.312,53.31
59.328,59.33
59.343,62.76
59.359,62.63
59.375,58.5
59.390,50.57
59.406,39.51
59.421,26.35
59.437,12.19
59.453,-1.74
59.468,-14.28
59.484,-24.46
59.500,-31.76
59.515,-36.23
59.531,-38.29
59.546,-38.5
59.562,-37.2
59.578,-34.68
59.593,-31.27
59.609,-27.61
59.625,-24.55
59.640,-22.82
59.656,-22.6
59.671,-23.54
59.687,-25.07
59.703,-26.78
59.718,-28.89
59.734,-31.96
59.750,-36.27
59.765,-41.35
59.781,-45.78
59.796,-47.77
59.812,-46.09
59.828,-40.67
59.843,-32.65
59.859,-23.74
59.875,-15.47
59.890,-8.4
59.906,-2.12
59.921,4.52
59.937,12.71
59.953,23.01
59.968,35.06
59.984,47.83
