timestamp,value
00.000,27.84
00.015,27.46
00.031,26.63
00.046,25.53
00.062,24.41
00.078,23.55
00.093,23.11
00.109,23.15
00.125,23.57
00.140,24.18
00.156,24.8
00.171,25.26
00.187,25.5
00.203,25.49
00.218,25.25
00.234,24.84
00.250,24.28
00.265,23.64
00.281,22.95
00.296,22.18
00.312,21.32
00.328,20.32
00.343,19.17
00.359,17.88
00.375,16.51
00.390,15.13
00.406,13.76
00.421,12.38
00.437,10.9
00.453,9.26
00.468,7.43
00.484,5.44
00.500,3.32
00.515,1.1
00.531,-1.22
00.546,-3.69
00.562,-6.34
00.578,-9.17
00.593,-12.14
00.609,-15.13
00.625,-18.07
00.640,-20.95
00.656,-23.82
00.671,-26.86
00.687,-30.29
00.703,-34.3
00.718,-38.97
00.734,-44.18
00.750,-49.6
00.765,-54.67
00.781,-58.67
00.796,-60.87
00.812,-60.72
00.828,-58.02
00.843,-53.07
00.859,-46.54
00.875,-39.24
00.890,-31.93
00.906,-25.04
00.921,-18.67
00.937,-12.71
00.953,-7.0
00.968,-1.44
00.984,3.94
01.000,9.05
01.015,13.85
01.031,18.21
01.046,22.06
01.062,25.24
01.078,27.59
01.093,29.02
01.109,29.6
01.125,29.58
01.140,29.26
01.156,28.94
01.171,28.76
01.187,28.75
01.203,28.77
01.218,28.72
01.234,28.58
01.250,28.43
01.265,28.38
01.281,28.51
01.296,28.82
01.312,29.16
01.328,29.38
01.343,29.33
01.359,28.95
01.375,28.24
01.390,27.26
01.406,26.11
01.421,24.89
01.437,23.69
01.453,22.58
01.468,21.56
01.484,20.55
01.500,19.4
01.515,17.94
01.531,16.07
01.546,13.77
01.562,11.2
01.578,8.57
01.593,6.03
01.609,3.7
01.625,1.57
01.640,-0.44
01.656,-2.4
01.671,-4.38
01.687,-6.45
01.703,-8.64
01.718,-10.96
01.734,-13.43
01.750,-15.99
01.765,-18.64
01.781,-21.4
01.796,-24.37
01.812,-27.72
01.828,-31.66
01.843,-36.27
01.859,-41.44
01.875,-46.73
01.890,-51.41
01.906,-54.56
01.921,-55.35
01.937,-53.33
01.953,-48.58
01.968,-41.73
01.984,-33.76
02.000,-25.67
02.015,-18.2
02.031,-11.71
02.046,-6.25
02.062,-1.68
02.078,2.21
02.093,5.58
02.109,8.62
02.125,11.46
02.140,14.15
02.156,16.62
02.171,18.69
02.187,20.09
02.203,20.64
02.218,20.33
02.234,19.33
02.250,17.93
02.265,16.44
02.281,15.1
02.296,14.03
02.312,13.28
02.328,12.85
02.343,12.69
02.359,12.72
02.375,12.79
02.390,12.75
02.406,12.53
02.421,12.16
02.437,11.8
02.453,11.62
02.468,11.68
02.484,11.98
02.500,12.34
02.515,12.61
02.531,12.65
02.546,12.46
02.562,12.07
02.578,11.49
02.593,10.75
02.609,9.8
02.625,8.63
02.640,7.29
02.656,5.82
02.671,4.35
02.687,2.95
02.703,1.61
02.718,0.26
02.734,-1.18
02.750,-2.84
02.765,-4.76
02.781,-6.91
02.796,-9.19
02.812,-11.44
02.828,-13.55
02.843,-15.47
02.859,-17.29
02.875,-19.25
02.890,-21.65
02.906,-24.76
02.921,-28.7
02.937,-33.4
02.953,-38.5
02.968,-43.41
02.984,-47.33
03.000,-49.49
03.015,-49.27
03.031,-46.45
03.046,-41.3
03.062,-34.47
03.078,-26.87
03.093,-19.34
03.109,-12.5
03.125,-6.57
03.140,-1.48
03.156,3.0
03.171,7.12
03.187,10.98
03.203,14.52
03.218,17.55
03.234,19.81
03.250,21.1
03.265,21.31
03.281,20.44
03.296,18.64
03.312,16.18
03.328,13.41
03.343,10.66
03.359,8.21
03.375,6.21
03.390,4.63
03.406,3.3
03.421,1.91
03.437,0.19
03.453,-2.09
03.468,-4.99
03.484,-8.44
03.500,-12.29
03.515,-16.38
03.531,-20.64
03.546,-25.14
03.562,-30.06
03.578,-35.61
03.593,-41.92
03.609,-48.89
03.625,-56.26
03.640,-63.56
03.656,-70.21
03.671,-75.71
03.687,-79.72
03.703,-82.13
03.718,-83.15
03.734,-83.18
03.750,-82.72
03.765,-82.1
03.781,-81.27
03.796,-79.72
03.812,-76.52
03.828,-70.6
03.843,-61.17
03.859,-48.08
03.875,-32.0
03.890,-14.37
03.906,3.01
03.921,18.35
03.937,30.3
03.953,38.17
03.968,41.88
03.984,41.92
04.000,39.1
04.015,34.41
04.031,29.03
04.046,24.16
04.062,20.87
04.078,19.79
04.093,20.89
04.109,23.46
04.125,26.38
04.140,28.69
04.156,30.12
04.171,31.27
04.187,33.35
04.203,37.56
04.218,44.38
04.234,53.43
04.250,63.48
04.265,73.06
04.281,80.9
04.296,86.26
04.312,88.93
04.328,89.01
04.343,86.81
04.359,82.72
04.375,77.28
04.390,71.19
04.406,65.17
04.421,59.86
04.437,55.58
04.453,52.32
04.468,49.77
04.484,47.51
04.500,45.18
04.515,42.61
04.531,39.85
04.546,37.08
04.562,34.54
04.578,32.39
04.593,30.65
04.609,29.15
04.625,27.66
04.640,25.86
04.656,23.55
04.671,20.65
04.687,17.31
04.703,13.84
04.718,10.58
04.734,7.76
04.750,5.4
04.765,3.38
04.781,1.5
04.796,-0.42
04.812,-2.37
04.828,-4.32
04.843,-6.16
04.859,-7.89
04.875,-9.57
04.890,-11.29
04.906,-13.16
04.921,-15.2
04.937,-17.39
04.953,-19.61
04.968,-21.72
04.984,-23.58
05.000,-25.07
05.015,-26.21
05.031,-27.18
05.046,-28.27
05.062,-29.89
05.078,-32.36
05.093,-35.84
05.109,-40.23
05.125,-45.11
05.140,-49.85
05.156,-53.71
05.171,-55.97
05.187,-56.12
05.203,-53.97
05.218,-49.72
05.234,-43.87
05.250,-37.11
05.265,-30.11
05.281,-23.37
05.296,-17.12
05.312,-11.34
05.328,-5.91
05.343,-0.65
05.359,4.49
05.375,9.44
05.390,14.0
05.406,17.95
05.421,21.08
05.437,23.26
05.453,24.51
05.468,24.97
05.484,24.89
05.500,24.55
05.515,24.19
05.531,23.98
05.546,23.98
05.562,24.21
05.578,24.66
05.593,25.36
05.609,26.3
05.625,27.39
05.640,28.44
05.656,29.14
05.671,29.28
05.687,28.73
05.703,27.66
05.718,26.31
05.734,24.96
05.750,23.74
05.765,22.58
05.781,21.34
05.796,19.86
05.812,18.14
05.828,16.28
05.843,14.48
05.859,12.82
05.875,11.34
05.890,9.98
05.906,8.64
05.921,7.25
05.937,5.8
05.953,4.28
05.968,2.69
05.984,1.07
06.000,-0.52
06.015,-2.03
06.031,-3.45
06.046,-4.85
06.062,-6.36
06.078,-8.15
06.093,-10.28
06.109,-12.69
06.125,-15.23
06.140,-17.74
06.156,-20.13
06.171,-22.46
06.187,-24.89
06.203,-27.58
06.218,-30.66
06.234,-34.15
06.250,-37.99
06.265,-42.0
06.281,-45.86
06.296,-49.06
06.312,-51.0
06.328,-51.11
06.343,-49.07
06.359,-45.01
06.375,-39.42
06.390,-33.12
06.406,-26.87
06.421,-21.1
06.437,-15.92
06.453,-11.09
06.468,-6.36
06.484,-1.59
06.500,3.13
06.515,7.58
06.531,11.47
06.546,14.61
06.562,16.93
06.578,18.52
06.593,19.57
06.609,20.32
06.625,20.97
06.640,21.61
06.656,22.26
06.671,22.86
06.687,23.37
06.703,23.79
06.718,24.27
06.734,24.96
06.750,25.94
06.765,27.14
06.781,28.35
06.796,29.31
06.812,29.85
06.828,29.96
06.843,29.78
06.859,29.56
06.875,29.4
06.890,29.3
06.906,29.0
06.921,28.21
06.937,26.67
06.953,24.35
06.968,21.44
06.984,18.23
07.000,15.03
07.015,11.98
07.031,9.06
07.046,6.12
07.062,3.04
07.078,-0.24
07.093,-3.66
07.109,-7.18
07.125,-10.74
07.140,-14.35
07.156,-17.98
07.171,-21.57
07.187,-24.95
07.203,-27.98
07.218,-30.61
07.234,-32.99
07.250,-35.44
07.265,-38.36
07.281,-42.08
07.296,-46.61
07.312,-51.6
07.328,-56.3
07.343,-59.76
07.359,-61.09
07.375,-59.78
07.390,-55.8
07.406,-49.66
07.421,-42.21
07.437,-34.4
07.453,-26.98
07.468,-20.37
07.484,-14.62
07.500,-9.49
07.515,-4.68
07.531,0.03
07.546,4.7
07.562,9.18
07.578,13.26
07.593,16.76
07.609,19.54
07.625,21.69
07.640,23.37
07.656,24.79
07.671,26.08
07.687,27.32
07.703,28.42
07.718,29.25
07.734,29.71
07.750,29.73
07.765,29.36
07.781,28.71
07.796,27.86
07.812,26.88
07.828,25.76
07.843,24.44
07.859,22.91
07.875,21.17
07.890,19.23
07.906,17.09
07.921,14.8
07.937,12.58
07.953,10.91
07.968,10.57
07.984,12.39
08.000,16.88
08.015,23.82
08.031,32.15
08.046,40.29
08.062,46.69
08.078,50.45
08.093,51.62
08.109,51.04
08.125,49.84
08.140,48.96
08.156,48.73
08.171,48.97
08.187,49.25
08.203,49.12
08.218,48.38
08.234,47.01
08.250,45.04
08.265,42.48
08.281,39.2
08.296,34.97
08.312,29.56
08.328,22.9
08.343,15.15
08.359,6.85
08.375,-1.25
08.390,-8.37
08.406,-14.06
08.421,-18.34
08.437,-21.66
08.453,-24.65
08.468,-27.77
08.484,-31.03
08.500,-34.11
08.515,-36.43
08.531,-37.59
08.546,-37.44
08.562,-36.13
08.578,-33.94
08.593,-31.19
08.609,-28.13
08.625,-24.95
08.640,-21.91
08.656,-19.25
08.671,-17.28
08.687,-16.16
08.703,-15.93
08.718,-16.45
08.734,-17.45
08.750,-18.63
08.765,-19.73
08.781,-20.51
08.796,-20.83
08.812,-20.59
08.828,-19.8
08.843,-18.5
08.859,-16.83
08.875,-15.01
08.890,-13.25
08.906,-11.81
08.921,-10.86
08.937,-10.41
08.953,-10.39
08.968,-10.55
08.984,-10.66
09.000,-10.59
09.015,-10.38
09.031,-10.3
09.046,-10.69
09.062,-11.88
09.078,-13.93
09.093,-16.47
09.109,-18.73
09.125,-19.63
09.140,-18.21
09.156,-13.91
09.171,-6.9
09.187,1.91
09.203,11.15
09.218,19.37
09.234,25.48
09.250,28.99
09.265,30.05
09.281,29.29
09.296,27.49
09.312,25.35
09.328,23.28
09.343,21.34
09.359,19.33
09.375,16.93
09.390,13.92
09.406,10.32
09.421,6.38
09.437,2.51
09.453,-0.9
09.468,-3.6
09.484,-5.53
09.500,-6.69
09.515,-7.08
09.531,-6.61
09.546,-5.18
09.562,-2.73
09.578,0.59
09.593,4.44
09.609,8.3
09.625,11.63
09.640,13.99
09.656,15.1
09.671,14.84
09.687,13.25
09.703,10.46
09.718,6.76
09.734,2.51
09.750,-1.88
09.765,-6.01
09.781,-9.61
09.796,-12.47
09.812,-14.54
09.828,-15.75
09.843,-15.92
09.859,-14.75
09.875,-11.75
09.890,-6.43
09.906,1.52
09.921,12.0
09.937,24.43
09.953,37.75
09.968,50.66
09.984,61.87
10.000,70.54
10.015,76.44
10.031,80.03
10.046,82.18
10.062,83.82
10.078,85.51
10.093,87.17
10.109,88.12
10.125,87.41
10.140,84.19
10.156,78.17
10.171,69.75
10.187,59.81
10.203,49.41
10.218,39.34
10.234,29.95
10.250,21.18
10.265,12.82
10.281,4.65
10.296,-3.39
10.312,-11.3
10.328,-19.13
10.343,-27.06
10.359,-35.44
10.375,-44.66
10.390,-55.01
10.406,-66.58
10.421,-79.22
10.437,-92.47
10.453,-105.6
10.468,-117.67
10.484,-127.66
10.500,-134.7
10.515,-138.22
10.531,-138.12
10.546,-134.79
10.562,-129.0
10.578,-121.7
10.593,-113.68
10.609,-105.52
10.625,-97.4
10.640,-89.26
10.656,-80.96
10.671,-72.39
10.687,-63.64
10.703,-54.98
10.718,-46.8
10.734,-39.46
10.750,-33.26
10.765,-28.28
10.781,-24.42
10.796,-21.43
10.812,-19.05
10.828,-16.97
10.843,-14.9
10.859,-12.61
10.875,-9.85
10.890,-6.48
10.906,-2.51
10.921,1.84
10.937,6.19
10.953,10.06
10.968,13.11
10.984,15.21
11.000,16.47
11.015,17.13
11.031,17.39
11.046,17.42
11.062,17.22
11.078,16.76
11.093,16.01
11.109,14.89
11.125,13.36
11.140,11.39
11.156,9.06
11.171,6.54
11.187,4.06
11.203,1.79
11.218,-0.25
11.234,-2.28
11.250,-4.6
11.265,-7.49
11.281,-10.94
11.296,-14.72
11.312,-18.42
11.328,-21.75
11.343,-24.72
11.359,-27.74
11.375,-31.41
11.390,-36.27
11.406,-42.49
11.421,-49.71
11.437,-56.95
11.453,-62.96
11.468,-66.45
11.484,-66.61
11.500,-63.33
11.515,-57.2
11.531,-49.33
11.546,-40.84
11.562,-32.53
11.578,-24.7
11.593,-17.14
11.609,-9.5
11.625,-1.56
11.640,6.59
11.656,14.59
11.671,22.02
11.687,28.55
11.703,34.1
11.718,38.76
11.734,42.7
11.750,46.23
11.765,49.75
11.781,53.81
11.796,58.92
11.812,65.13
11.828,71.78
11.843,77.42
11.859,80.24
11.875,78.87
11.890,73.05
11.906,63.92
11.921,53.67
11.937,44.7
11.953,38.72
11.968,36.33
11.984,37.01
12.000,39.63
12.015,43.01
12.031,46.26
12.046,48.75
12.062,50.05
12.078,49.74
12.093,47.58
12.109,43.61
12.125,38.29
12.140,32.39
12.156,26.72
12.171,21.84
12.187,17.87
12.203,14.5
12.218,11.15
12.234,7.28
12.250,2.64
12.265,-2.71
12.281,-8.39
12.296,-13.94
12.312,-18.95
12.328,-23.17
12.343,-26.6
12.359,-29.44
12.375,-32.13
12.390,-35.18
12.406,-39.11
12.421,-44.23
12.437,-50.51
12.453,-57.45
12.468,-64.09
12.484,-69.19
12.500,-71.6
12.515,-70.58
12.531,-66.07
12.546,-58.7
12.562,-49.58
12.578,-39.9
12.593,-30.56
12.609,-22.05
12.625,-14.43
12.640,-7.5
12.656,-1.05
12.671,5.13
12.687,11.13
12.703,17.02
12.718,22.78
12.734,28.3
12.750,33.34
12.765,37.56
12.781,40.66
12.796,42.48
12.812,43.08
12.828,42.77
12.843,42.0
12.859,41.24
12.875,40.85
12.890,41.0
12.906,41.68
12.921,42.73
12.937,43.87
12.953,44.82
12.968,45.37
12.984,45.42
13.000,44.94
13.015,44.0
13.031,42.67
13.046,41.02
13.062,39.11
13.078,37.01
13.093,34.73
13.109,32.3
13.125,29.69
13.140,26.84
13.156,23.73
13.171,20.35
13.187,16.74
13.203,12.98
13.218,9.19
13.234,5.5
13.250,2.04
13.265,-1.09
13.281,-3.9
13.296,-6.52
13.312,-9.17
13.328,-12.07
13.343,-15.38
13.359,-19.04
13.375,-22.86
13.390,-26.6
13.406,-30.08
13.421,-33.28
13.437,-36.31
13.453,-39.34
13.468,-42.52
13.484,-46.01
13.500,-49.9
13.515,-54.34
13.531,-59.32
13.546,-64.62
13.562,-69.68
13.578,-73.57
13.593,-75.26
13.609,-73.92
13.625,-69.3
13.640,-61.78
13.656,-52.38
13.671,-42.31
13.687,-32.66
13.703,-24.07
13.718,-16.68
13.734,-10.27
13.750,-4.43
13.765,1.14
13.781,6.64
13.796,12.02
13.812,17.16
13.828,21.88
13.843,25.98
13.859,29.32
13.875,31.76
13.890,33.22
13.906,33.68
13.921,33.26
13.937,32.23
13.953,31.05
13.968,30.26
13.984,30.26
14.000,31.21
14.015,32.9
14.031,34.8
14.046,36.35
14.062,37.14
14.078,37.04
14.093,36.26
14.109,35.1
14.125,33.79
14.140,32.43
14.156,30.92
14.171,29.18
14.187,27.19
14.203,25.04
14.218,22.86
14.234,20.73
14.250,18.64
14.265,16.5
14.281,14.24
14.296,11.88
14.312,9.52
14.328,7.31
14.343,5.36
14.359,3.68
14.375,2.12
14.390,0.45
14.406,-1.56
14.421,-4.07
14.437,-7.04
14.453,-10.33
14.468,-13.71
14.484,-16.92
14.500,-19.83
14.515,-22.38
14.531,-24.63
14.546,-26.77
14.562,-29.04
14.578,-31.69
14.593,-34.91
14.609,-38.75
14.625,-43.03
14.640,-47.31
14.656,-50.9
14.671,-53.02
14.687,-52.95
14.703,-50.3
14.718,-45.09
14.734,-37.85
14.750,-29.4
14.765,-20.66
14.781,-12.41
14.796,-5.08
14.812,1.21
14.828,6.61
14.843,11.34
14.859,15.63
14.875,19.61
14.890,23.3
14.906,26.63
14.921,29.42
14.937,31.48
14.953,32.63
14.968,32.8
14.984,32.09
15.000,30.79
15.015,29.26
15.031,27.88
15.046,26.91
15.062,26.41
15.078,26.31
15.093,26.49
15.109,26.79
15.125,27.1
15.140,27.29
15.156,27.26
15.171,26.85
15.187,25.95
15.203,24.45
15.218,22.41
15.234,19.99
15.250,17.48
15.265,15.16
15.281,13.18
15.296,11.51
15.312,9.87
15.328,7.96
15.343,5.56
15.359,2.66
15.375,-0.56
15.390,-3.82
15.406,-6.88
15.421,-9.62
15.437,-12.08
15.453,-14.38
15.468,-16.63
15.484,-18.91
15.500,-21.27
15.515,-23.74
15.531,-26.32
15.546,-28.98
15.562,-31.67
15.578,-34.36
15.593,-37.06
15.609,-39.82
15.625,-42.78
15.640,-46.04
15.656,-49.66
15.671,-53.61
15.687,-57.68
15.703,-61.46
15.718,-64.34
15.734,-65.6
15.750,-64.61
15.765,-60.99
15.781,-54.86
15.796,-46.81
15.812,-37.8
15.828,-28.86
15.843,-20.78
15.859,-13.91
15.875,-8.16
15.890,-3.14
15.906,1.53
15.921,6.1
15.937,10.62
15.953,14.94
15.968,18.94
15.984,22.53
16.000,25.67
16.015,28.35
16.031,30.44
16.046,31.79
16.062,32.3
16.078,32.08
16.093,31.4
16.109,30.7
16.125,30.36
16.140,30.52
16.156,31.03
16.171,31.56
16.187,31.78
16.203,31.52
16.218,30.83
16.234,29.89
16.250,28.91
16.265,28.02
16.281,27.18
16.296,26.27
16.312,25.13
16.328,23.7
16.343,21.95
16.359,19.94
16.375,17.8
16.390,15.64
16.406,13.52
16.421,11.46
16.437,9.43
16.453,7.39
16.468,5.26
16.484,2.94
16.500,0.33
16.515,-2.6
16.531,-5.79
16.546,-9.04
16.562,-12.1
16.578,-14.73
16.593,-16.87
16.609,-18.66
16.625,-20.43
16.640,-22.46
16.656,-24.91
16.671,-27.74
16.687,-30.69
16.703,-33.49
16.718,-36.01
16.734,-38.33
16.750,-40.82
16.765,-43.9
16.781,-47.93
16.796,-52.91
16.812,-58.41
16.828,-63.51
16.843,-67.12
16.859,-68.27
16.875,-66.41
16.890,-61.64
16.906,-54.59
16.921,-46.22
16.937,-37.52
16.953,-29.24
16.968,-21.8
16.984,-15.29
17.000,-9.53
17.015,-4.25
17.031,0.83
17.046,5.9
17.062,10.97
17.078,15.94
17.093,20.54
17.109,24.5
17.125,27.55
17.140,29.52
17.156,30.35
17.171,30.09
17.187,28.97
17.203,27.37
17.218,25.74
17.234,24.53
17.250,23.95
17.265,24.01
17.281,24.44
17.296,24.91
17.312,25.09
17.328,24.85
17.343,24.17
17.359,23.17
17.375,22.03
17.390,20.87
17.406,19.75
17.421,18.66
17.437,17.51
17.453,16.2
17.468,14.66
17.484,12.91
17.500,11.04
17.515,9.18
17.531,7.48
17.546,5.99
17.562,4.69
17.578,3.47
17.593,2.25
17.609,0.98
17.625,-0.3
17.640,-1.51
17.656,-2.59
17.671,-3.55
17.687,-4.49
17.703,-5.57
17.718,-6.97
17.734,-8.78
17.750,-10.98
17.765,-13.46
17.781,-16.08
17.796,-18.69
17.812,-21.15
17.828,-23.41
17.843,-25.42
17.859,-27.25
17.875,-29.06
17.890,-31.16
17.906,-33.88
17.921,-37.47
17.937,-41.85
17.953,-46.54
17.968,-50.68
17.984,-53.21
18.000,-53.25
18.015,-50.39
18.031,-44.79
18.046,-37.21
18.062,-28.68
18.078,-20.23
18.093,-12.55
18.109,-5.92
18.125,-0.19
18.140,5.0
18.156,10.01
18.171,15.02
18.187,20.03
18.203,24.85
18.218,29.21
18.234,32.86
18.250,35.57
18.265,37.2
18.281,37.77
18.296,37.38
18.312,36.31
18.328,34.95
18.343,33.68
18.359,32.81
18.375,32.49
18.390,32.66
18.406,33.13
18.421,33.7
18.437,34.13
18.453,34.35
18.468,34.33
18.484,34.11
18.500,33.71
18.515,33.09
18.531,32.2
18.546,30.99
18.562,29.52
18.578,27.9
18.593,26.27
18.609,24.69
18.625,23.14
18.640,21.5
18.656,19.67
18.671,17.59
18.687,15.31
18.703,13.0
18.718,10.81
18.734,8.86
18.750,7.12
18.765,5.48
18.781,3.74
18.796,1.73
18.812,-0.62
18.828,-3.25
18.843,-6.0
18.859,-8.68
18.875,-11.18
18.890,-13.51
18.906,-15.85
18.921,-18.37
18.937,-21.23
18.953,-24.45
18.968,-27.96
18.984,-31.64
19.000,-35.41
19.015,-39.15
19.031,-42.63
19.046,-45.45
19.062,-47.02
19.078,-46.7
19.093,-44.06
19.109,-39.04
19.125,-32.03
19.140,-23.67
19.156,-14.67
19.171,-5.61
19.187,3.1
19.203,11.18
19.218,18.37
19.234,24.45
19.250,29.3
19.265,32.98
19.281,35.79
19.296,38.14
19.312,40.36
19.328,42.55
19.343,44.53
19.359,45.92
19.375,46.35
19.390,45.58
19.406,43.63
19.421,40.79
19.437,37.59
19.453,34.65
19.468,32.52
19.484,31.53
19.500,31.67
19.515,32.58
19.531,33.62
19.546,34.1
19.562,33.46
19.578,31.44
19.593,28.14
19.609,23.95
19.625,19.43
19.640,15.2
19.656,11.67
19.671,8.94
19.687,6.74
19.703,4.58
19.718,1.88
19.734,-1.78
19.750,-6.58
19.765,-12.47
19.781,-19.22
19.796,-26.55
19.812,-34.1
19.828,-41.52
19.843,-48.4
19.859,-54.4
19.875,-59.26
19.890,-62.88
19.906,-65.33
19.921,-66.76
19.937,-67.49
19.953,-67.88
19.968,-68.33
19.984,-69.25
20.000,-70.89
20.015,-73.29
20.031,-76.2
20.046,-79.14
20.062,-81.54
20.078,-82.9
20.093,-82.88
20.109,-81.37
20.125,-78.54
20.140,-74.65
20.156,-69.99
20.171,-64.69
20.187,-58.64
20.203,-51.55
20.218,-43.11
20.234,-33.19
20.250,-22.04
20.265,-10.29
20.281,1.17
20.296,11.52
20.312,20.23
20.328,27.22
20.343,32.81
20.359,37.58
20.375,42.14
20.390,46.94
20.406,52.15
20.421,57.74
20.437,63.5
20.453,69.22
20.468,74.71
20.484,79.68
20.500,83.67
20.515,86.09
20.531,86.41
20.546,84.44
20.562,80.49
20.578,75.39
20.593,70.11
20.609,65.42
20.625,61.54
20.640,58.27
20.656,55.18
20.671,52.03
20.687,49.01
20.703,46.59
20.718,45.35
20.734,45.61
20.750,47.38
20.765,50.34
20.781,54.11
20.796,58.37
20.812,62.92
20.828,67.57
20.843,72.09
20.859,76.17
20.875,79.45
20.890,81.66
20.906,82.67
20.921,82.5
20.937,81.16
20.953,78.7
20.968,75.15
20.984,70.6
21.000,65.32
21.015,59.67
21.031,54.07
21.046,48.81
21.062,43.9
21.078,39.18
21.093,34.32
21.109,29.15
21.125,23.67
21.140,18.14
21.156,12.98
21.171,8.51
21.187,4.91
21.203,2.02
21.218,-0.57
21.234,-3.43
21.250,-6.93
21.265,-11.01
21.281,-15.12
21.296,-18.34
21.312,-19.84
21.328,-19.23
21.343,-16.82
21.359,-13.39
21.375,-9.73
21.390,-6.32
21.406,-3.04
21.421,0.53
21.437,4.71
21.453,9.44
21.468,14.13
21.484,18.09
21.500,20.83
21.515,22.35
21.531,23.08
21.546,23.56
21.562,24.06
21.578,24.42
21.593,24.06
21.609,22.3
21.625,18.69
21.640,13.14
21.656,6.06
21.671,-1.97
21.687,-10.27
21.703,-18.34
21.718,-25.8
21.734,-32.46
21.750,-38.2
21.765,-42.97
21.781,-46.82
21.796,-49.94
21.812,-52.6
21.828,-55.11
21.843,-57.63
21.859,-60.14
21.875,-62.42
21.890,-64.14
21.906,-65.08
21.921,-65.21
21.937,-64.62
21.953,-63.53
21.968,-62.13
21.984,-60.59
22.000,-58.97
22.015,-57.39
22.031,-55.95
22.046,-54.76
22.062,-53.88
22.078,-53.29
22.093,-52.89
22.109,-52.56
22.125,-52.18
22.140,-51.68
22.156,-51.07
22.171,-50.43
22.187,-49.83
22.203,-49.35
22.218,-49.0
22.234,-48.76
22.250,-48.61
22.265,-48.61
22.281,-48.89
22.296,-49.7
22.312,-51.25
22.328,-53.54
22.343,-56.31
22.359,-58.95
22.375,-60.7
22.390,-60.79
22.406,-58.76
22.421,-54.63
22.437,-48.89
22.453,-42.33
22.468,-35.76
22.484,-29.78
22.500,-24.61
22.515,-20.09
22.531,-15.87
22.546,-11.57
22.562,-7.0
22.578,-2.17
22.593,2.68
22.609,7.19
22.625,11.01
22.640,13.95
22.656,15.91
22.671,16.97
22.687,17.28
22.703,17.02
22.718,16.42
22.734,15.76
22.750,15.28
22.765,15.25
22.781,15.78
22.796,16.79
22.812,18.01
22.828,19.07
22.843,19.67
22.859,19.66
22.875,19.14
22.890,18.38
22.906,17.62
22.921,17.07
22.937,16.74
22.953,16.54
22.968,16.37
22.984,16.14
23.000,15.85
23.015,15.49
23.031,15.01
23.046,14.27
23.062,13.1
23.078,11.42
23.093,9.3
23.109,6.98
23.125,4.76
23.140,2.9
23.156,1.46
23.171,0.3
23.187,-0.9
23.203,-2.43
23.218,-4.47
23.234,-7.01
23.250,-9.88
23.265,-12.91
23.281,-15.92
23.296,-18.87
23.312,-21.74
23.328,-24.6
23.343,-27.54
23.359,-30.67
23.375,-34.13
23.390,-37.99
23.406,-42.32
23.421,-47.03
23.437,-51.93
23.453,-56.65
23.468,-60.64
23.484,-63.25
23.500,-63.83
23.515,-61.89
23.531,-57.33
23.546,-50.47
23.562,-42.08
23.578,-33.16
23.593,-24.64
23.609,-17.11
23.625,-10.7
23.640,-5.12
23.656,0.07
23.671,5.28
23.687,10.68
23.703,16.19
23.718,21.6
23.734,26.63
23.750,31.04
23.765,34.63
23.781,37.33
23.796,39.13
23.812,40.17
23.828,40.66
23.843,40.86
23.859,41.01
23.875,41.23
23.890,41.55
23.906,41.94
23.921,42.37
23.937,42.81
23.953,43.24
23.968,43.59
23.984,43.74
24.000,43.54
24.015,42.85
24.031,41.64
24.046,39.97
24.062,38.01
24.078,35.95
24.093,33.93
24.109,31.95
24.125,29.92
24.140,27.68
24.156,25.08
24.171,22.09
24.187,18.82
24.203,15.48
24.218,12.29
24.234,9.41
24.250,6.84
24.265,4.47
24.281,2.14
24.296,-0.31
24.312,-3.01
24.328,-5.95
24.343,-9.1
24.359,-12.39
24.375,-15.8
24.390,-19.35
24.406,-23.11
24.421,-27.13
24.437,-31.41
24.453,-35.89
24.468,-40.43
24.484,-44.95
24.500,-49.45
24.515,-54.09
24.531,-59.12
24.546,-64.73
24.562,-70.91
24.578,-77.28
24.593,-83.21
24.609,-87.81
24.625,-90.25
24.640,-89.93
24.656,-86.58
24.671,-80.4
24.687,-71.95
24.703,-62.04
24.718,-51.55
24.734,-41.3
24.750,-31.86
24.765,-23.52
24.781,-16.23
24.796,-9.67
24.812,-3.35
24.828,3.09
24.843,9.81
24.859,16.63
24.875,23.12
24.890,28.77
24.906,33.18
24.921,36.25
24.937,38.12
24.953,39.12
24.968,39.58
24.984,39.79
25.000,39.91
25.015,40.04
25.031,40.23
25.046,40.51
25.062,40.86
25.078,41.21
25.093,41.44
25.109,41.43
25.125,41.14
25.140,40.58
25.156,39.84
25.171,39.05
25.187,38.36
25.203,37.86
25.218,37.58
25.234,37.42
25.250,37.22
25.265,36.79
25.281,36.0
25.296,34.79
25.312,33.2
25.328,31.27
25.343,29.04
25.359,26.54
25.375,23.8
25.390,20.91
25.406,17.99
25.421,15.14
25.437,12.38
25.453,9.61
25.468,6.62
25.484,3.24
25.500,-0.6
25.515,-4.82
25.531,-9.28
25.546,-13.84
25.562,-18.41
25.578,-22.92
25.593,-27.3
25.609,-31.49
25.625,-35.53
25.640,-39.54
25.656,-43.78
25.671,-48.48
25.687,-53.68
25.703,-59.09
25.718,-64.1
25.734,-67.93
25.750,-69.86
25.765,-69.38
25.781,-66.29
25.796,-60.7
25.812,-53.03
25.828,-43.96
25.843,-34.36
25.859,-25.05
25.875,-16.68
25.890,-9.46
25.906,-3.26
25.921,2.33
25.937,7.77
25.953,13.29
25.968,18.89
25.984,24.36
26.000,29.42
26.015,33.83
26.031,37.46
26.046,40.23
26.062,42.11
26.078,43.11
26.093,43.34
26.109,43.05
26.125,42.6
26.140,42.4
26.156,42.75
26.171,43.74
26.187,45.16
26.203,46.63
26.218,47.73
26.234,48.2
26.250,48.06
26.265,47.46
26.281,46.64
26.296,45.67
26.312,44.44
26.328,42.75
26.343,40.48
26.359,37.74
26.375,34.83
26.390,32.12
26.406,29.83
26.421,27.97
26.437,26.3
26.453,24.49
26.468,22.32
26.484,19.71
26.500,16.78
26.515,13.71
26.531,10.63
26.546,7.59
26.562,4.53
26.578,1.36
26.593,-1.97
26.609,-5.37
26.625,-8.73
26.640,-11.91
26.656,-14.84
26.671,-17.55
26.687,-20.16
26.703,-22.92
26.718,-26.07
26.734,-29.9
26.750,-34.53
26.765,-39.88
26.781,-45.52
26.796,-50.67
26.812,-54.34
26.828,-55.57
26.843,-53.83
26.859,-49.18
26.875,-42.3
26.890,-34.2
26.906,-25.94
26.921,-18.3
26.937,-11.61
26.953,-5.9
26.968,-0.98
26.984,3.37
27.000,7.29
27.015,10.89
27.031,14.16
27.046,17.1
27.062,19.66
27.078,21.74
27.093,23.2
27.109,23.88
27.125,23.66
27.140,22.56
27.156,20.72
27.171,18.4
27.187,15.98
27.203,13.81
27.218,12.11
27.234,10.89
27.250,10.0
27.265,9.09
27.281,7.8
27.296,5.85
27.312,3.16
27.328,-0.22
27.343,-4.09
27.359,-8.27
27.375,-12.66
27.390,-17.27
27.406,-22.18
27.421,-27.48
27.437,-33.21
27.453,-39.37
27.468,-45.89
27.484,-52.71
27.500,-59.76
27.515,-66.99
27.531,-74.25
27.546,-81.31
27.562,-87.78
27.578,-93.14
27.593,-96.78
27.609,-98.05
27.625,-96.43
27.640,-91.56
27.656,-83.34
27.671,-71.9
27.687,-57.6
27.703,-41.01
27.718,-22.91
27.734,-4.3
27.750,13.66
27.765,29.77
27.781,42.93
27.796,52.36
27.812,57.73
27.828,59.28
27.843,57.83
27.859,54.6
27.875,50.96
27.890,48.1
27.906,46.79
27.921,47.24
27.937,49.11
27.953,51.77
27.968,54.54
27.984,56.88
28.000,58.5
28.015,59.38
28.031,59.7
28.046,59.76
28.062,59.88
28.078,60.34
28.093,61.24
28.109,62.52
28.125,63.92
28.140,65.05
28.156,65.57
28.171,65.22
28.187,63.99
28.203,62.11
28.218,59.97
28.234,58.03
28.250,56.61
28.265,55.86
28.281,55.64
28.296,55.68
28.312,55.66
28.328,55.35
28.343,54.63
28.359,53.53
28.375,52.12
28.390,50.45
28.406,48.55
28.421,46.38
28.437,43.96
28.453,41.31
28.468,38.47
28.484,35.5
28.500,32.4
28.515,29.19
28.531,25.9
28.546,22.67
28.562,19.68
28.578,17.09
28.593,14.91
28.609,13.02
28.625,11.17
28.640,9.1
28.656,6.71
28.671,4.07
28.687,1.31
28.703,-1.49
28.718,-4.35
28.734,-7.44
28.750,-10.92
28.765,-14.79
28.781,-18.88
28.796,-22.93
28.812,-26.66
28.828,-29.93
28.843,-32.75
28.859,-35.27
28.875,-37.69
28.890,-40.21
28.906,-43.04
28.921,-46.33
28.937,-50.17
28.953,-54.49
28.968,-58.96
28.984,-62.95
29.000,-65.68
29.015,-66.35
29.031,-64.51
29.046,-60.21
29.062,-54.05
29.078,-46.98
29.093,-39.99
29.109,-33.76
29.125,-28.52
29.140,-24.1
29.156,-20.19
29.171,-16.46
29.187,-12.79
29.203,-9.18
29.218,-5.7
29.234,-2.35
29.250,0.84
29.265,3.83
29.281,6.45
29.296,8.47
29.312,9.74
29.328,10.27
29.343,10.26
29.359,10.11
29.375,10.21
29.390,10.78
29.406,11.85
29.421,13.27
29.437,14.75
29.453,15.97
29.468,16.74
29.484,16.96
29.500,16.71
29.515,16.17
29.531,15.55
29.546,15.04
29.562,14.67
29.578,14.39
29.593,14.07
29.609,13.59
29.625,12.92
29.640,12.06
29.656,11.06
29.671,10.0
29.687,8.89
29.703,7.78
29.718,6.72
29.734,5.76
29.750,4.9
29.765,4.07
29.781,3.19
29.796,2.14
29.812,0.95
29.828,-0.28
29.843,-1.36
29.859,-2.15
29.875,-2.69
29.890,-3.23
29.906,-4.13
29.921,-5.72
29.937,-8.14
29.953,-11.31
29.968,-14.95
29.984,-18.75
30.000,-22.49
30.015,-26.04
30.031,-29.45
30.046,-32.8
30.062,-36.2
30.078,-39.74
30.093,-43.5
30.109,-47.43
30.125,-51.32
30.140,-54.68
30.156,-56.87
30.171,-57.22
30.187,-55.33
30.203,-51.29
30.218,-45.7
30.234,-39.48
30.250,-33.6
30.265,-28.72
30.281,-25.01
30.296,-22.23
30.312,-19.98
30.328,-17.92
30.343,-15.99
30.359,-14.42
30.375,-13.61
30.390,-13.86
30.406,-15.25
30.421,-17.57
30.437,-20.43
30.453,-23.4
30.468,-26.24
30.484,-28.92
30.500,-31.6
30.515,-34.45
30.531,-37.5
30.546,-40.62
30.562,-43.5
30.578,-45.88
30.593,-47.65
30.609,-48.88
30.625,-49.8
30.640,-50.64
30.656,-51.55
30.671,-52.48
30.687,-53.25
30.703,-53.52
30.718,-52.86
30.734,-50.77
30.750,-46.73
30.765,-40.31
30.781,-31.49
30.796,-20.89
30.812,-9.72
30.828,0.37
30.843,7.85
30.859,11.93
30.875,12.82
30.890,11.73
30.906,10.36
30.921,10.24
30.937,12.33
30.953,16.97
30.968,24.11
30.984,33.63
31.000,45.55
31.015,59.88
31.031,76.31
31.046,93.99
31.062,111.45
31.078,126.84
31.093,138.33
31.109,144.33
31.125,143.86
31.140,136.65
31.156,123.31
31.171,105.4
31.187,85.17
31.203,65.08
31.218,47.08
31.234,32.0
31.250,19.34
31.265,7.69
31.281,-4.54
31.296,-18.35
31.312,-33.71
31.328,-49.65
31.343,-64.77
31.359,-77.81
31.375,-88.0
31.390,-95.06
31.406,-98.83
31.421,-99.17
31.437,-95.86
31.453,-89.01
31.468,-79.44
31.484,-68.8
31.500,-59.27
31.515,-52.84
31.531,-50.43
31.546,-51.46
31.562,-53.97
31.578,-55.47
31.593,-53.86
31.609,-48.24
31.625,-38.99
31.640,-27.31
31.656,-14.65
31.671,-2.14
31.687,9.42
31.703,19.5
31.718,27.69
31.734,33.7
31.750,37.68
31.765,40.26
31.781,42.49
31.796,45.38
31.812,49.41
31.828,54.34
31.843,59.38
31.859,63.74
31.875,67.16
31.890,70.07
31.906,73.32
31.921,77.72
31.937,83.57
31.953,90.69
31.968,98.66
31.984,107.11
32.000,115.76
32.015,124.16
32.031,131.53
32.046,136.85
32.062,139.54
32.078,140.03
32.093,139.97
32.109,141.58
32.125,146.3
32.140,153.55
32.156,160.48
32.171,163.01
32.187,157.73
32.203,143.57
32.218,122.58
32.234,99.05
32.250,77.83
32.265,62.58
32.281,54.87
32.296,54.45
32.312,60.12
32.328,70.54
32.343,84.48
32.359,100.45
32.375,116.3
32.390,129.02
32.406,135.45
32.421,133.07
32.437,120.9
32.453,99.78
32.468,71.94
32.484,40.3
32.500,7.65
32.515,-23.84
32.531,-52.72
32.546,-78.2
32.562,-99.94
32.578,-117.91
32.593,-132.35
32.609,-143.67
32.625,-152.38
32.640,-159.03
32.656,-164.11
32.671,-167.94
32.687,-170.61
32.703,-171.91
32.718,-171.42
32.734,-168.62
32.750,-163.12
32.765,-154.89
32.781,-144.37
32.796,-132.42
32.812,-120.13
32.828,-108.46
32.843,-97.98
32.859,-88.76
32.875,-80.38
32.890,-72.24
32.906,-63.73
32.921,-54.5
32.937,-44.51
32.953,-34.05
32.968,-23.67
32.984,-14.05
33.000,-5.89
33.015,0.23
33.031,4.02
33.046,5.52
33.062,5.17
33.078,3.6
33.093,1.4
33.109,-1.03
33.125,-3.6
33.140,-6.36
33.156,-9.34
33.171,-12.44
33.187,-15.47
33.203,-18.24
33.218,-20.67
33.234,-22.95
33.250,-25.4
33.265,-28.38
33.281,-32.19
33.296,-36.92
33.312,-42.47
33.328,-48.54
33.343,-54.73
33.359,-60.58
33.375,-65.7
33.390,-69.95
33.406,-73.39
33.421,-76.34
33.437,-79.14
33.453,-81.93
33.468,-84.5
33.484,-86.29
33.500,-86.5
33.515,-84.43
33.531,-79.79
33.546,-72.76
33.562,-63.98
33.578,-54.26
33.593,-44.36
33.609,-34.81
33.625,-25.86
33.640,-17.54
33.656,-9.78
33.671,-2.45
33.687,4.54
33.703,11.27
33.718,17.72
33.734,23.74
33.750,29.11
33.765,33.53
33.781,36.74
33.796,38.7
33.812,39.51
33.828,39.52
33.843,39.09
33.859,38.57
33.875,38.23
33.890,38.22
33.906,38.62
33.921,39.43
33.937,40.57
33.953,41.82
33.968,42.9
33.984,43.51
34.000,43.45
34.015,42.75
34.031,41.55
34.046,40.08
34.062,38.49
34.078,36.85
34.093,35.16
34.109,33.43
34.125,31.73
34.140,30.14
34.156,28.68
34.171,27.24
34.187,25.69
34.203,23.86
34.218,21.75
34.234,19.49
34.250,17.28
34.265,15.33
34.281,13.64
34.296,12.13
34.312,10.55
34.328,8.67
34.343,6.3
34.359,3.33
34.375,-0.2
34.390,-4.13
34.406,-8.22
34.421,-12.16
34.437,-15.74
34.453,-18.87
34.468,-21.7
34.484,-24.53
34.500,-27.74
34.515,-31.59
34.531,-36.03
34.546,-40.7
34.562,-44.87
34.578,-47.73
34.593,-48.53
34.609,-46.84
34.625,-42.63
34.640,-36.37
34.656,-28.81
34.671,-20.87
34.687,-13.35
34.703,-6.76
34.718,-1.18
34.734,3.61
34.750,8.04
34.765,12.46
34.781,17.0
34.796,21.52
34.812,25.7
34.828,29.2
34.843,31.83
34.859,33.57
34.875,34.54
34.890,34.88
34.906,34.76
34.921,34.31
34.937,33.66
34.953,33.06
34.968,32.73
34.984,32.88
35.000,33.5
35.015,34.43
35.031,35.37
35.046,35.94
35.062,35.9
35.078,35.15
35.093,33.79
35.109,32.01
35.125,30.07
35.140,28.14
35.156,26.34
35.171,24.68
35.187,23.13
35.203,21.59
35.218,19.96
35.234,18.12
35.250,15.96
35.265,13.44
35.281,10.61
35.296,7.61
35.312,4.62
35.328,1.79
35.343,-0.84
35.359,-3.32
35.375,-5.78
35.390,-8.35
35.406,-11.05
35.421,-13.85
35.437,-16.7
35.453,-19.57
35.468,-22.52
35.484,-25.63
35.500,-29.0
35.515,-32.73
35.531,-36.79
35.546,-41.08
35.562,-45.34
35.578,-49.15
35.593,-51.93
35.609,-53.08
35.625,-52.15
35.640,-49.01
35.656,-43.91
35.671,-37.41
35.687,-30.19
35.703,-22.91
35.718,-16.0
35.734,-9.69
35.750,-4.01
35.765,1.13
35.781,5.87
35.796,10.4
35.812,14.91
35.828,19.48
35.843,24.01
35.859,28.23
35.875,31.71
35.890,34.08
35.906,35.2
35.921,35.23
35.937,34.55
35.953,33.63
35.968,32.81
35.984,32.27
36.000,32.03
36.015,32.04
36.031,32.24
36.046,32.56
36.062,32.83
36.078,32.86
36.093,32.43
36.109,31.45
36.125,29.97
36.140,28.22
36.156,26.46
36.171,24.85
36.187,23.45
36.203,22.14
36.218,20.78
36.234,19.21
36.250,17.34
36.265,15.14
36.281,12.66
36.296,10.01
36.312,7.33
36.328,4.76
36.343,2.39
36.359,0.23
36.375,-1.85
36.390,-3.99
36.406,-6.32
36.421,-8.91
36.437,-11.73
36.453,-14.69
36.468,-17.7
36.484,-20.71
36.500,-23.7
36.515,-26.72
36.531,-29.75
36.546,-32.76
36.562,-35.78
36.578,-38.84
36.593,-42.11
36.609,-45.82
36.625,-50.15
36.640,-55.11
36.656,-60.38
36.671,-65.3
36.687,-69.01
36.703,-70.71
36.718,-69.94
36.734,-66.74
36.750,-61.57
36.765,-55.17
36.781,-48.26
36.796,-41.38
36.812,-34.77
36.828,-28.48
36.843,-22.42
36.859,-16.44
36.875,-10.44
36.890,-4.37
36.906,1.85
36.921,8.14
36.937,14.36
36.953,20.27
36.968,25.57
36.984,29.98
37.000,33.41
37.015,35.88
37.031,37.57
37.046,38.7
37.062,39.42
37.078,39.81
37.093,39.91
37.109,39.78
37.125,39.52
37.140,39.28
37.156,39.21
37.171,39.35
37.187,39.61
37.203,39.78
37.218,39.57
37.234,38.78
37.250,37.36
37.265,35.48
37.281,33.48
37.296,31.66
37.312,30.24
37.328,29.18
37.343,28.24
37.359,27.12
37.375,25.65
37.390,23.84
37.406,21.89
37.421,20.09
37.437,18.53
37.453,17.15
37.468,15.77
37.484,14.14
37.500,12.13
37.515,9.76
37.531,7.13
37.546,4.42
37.562,1.76
37.578,-0.75
37.593,-3.1
37.609,-5.31
37.625,-7.51
37.640,-9.86
37.656,-12.53
37.671,-15.6
37.687,-19.04
37.703,-22.66
37.718,-26.18
37.734,-29.39
37.750,-32.19
37.765,-34.68
37.781,-37.12
37.796,-39.87
37.812,-43.21
37.828,-47.25
37.843,-51.81
37.859,-56.42
37.875,-60.38
37.890,-62.87
37.906,-63.22
37.921,-61.01
37.937,-56.26
37.953,-49.43
37.968,-41.25
37.984,-32.59
38.000,-24.23
38.015,-16.67
38.031,-10.04
38.046,-4.17
38.062,1.29
38.078,6.71
38.093,12.3
38.109,18.02
38.125,23.59
38.140,28.56
38.156,32.5
38.171,35.11
38.187,36.36
38.203,36.46
38.218,35.83
38.234,34.92
38.250,34.12
38.265,33.72
38.281,33.81
38.296,34.4
38.312,35.37
38.328,36.52
38.343,37.63
38.359,38.44
38.375,38.75
38.390,38.47
38.406,37.63
38.421,36.36
38.437,34.81
38.453,33.12
38.468,31.34
38.484,29.48
38.500,27.52
38.515,25.45
38.531,23.25
38.546,20.91
38.562,18.47
38.578,16.05
38.593,13.81
38.609,11.98
38.625,10.69
38.640,9.9
38.656,9.39
38.671,8.8
38.687,7.83
38.703,6.31
38.718,4.32
38.734,2.05
38.750,-0.34
38.765,-2.79
38.781,-5.38
38.796,-8.16
38.812,-11.1
38.828,-14.05
38.843,-16.82
38.859,-19.31
38.875,-21.64
38.890,-24.1
38.906,-26.97
38.921,-30.39
38.937,-34.26
38.953,-38.21
38.968,-41.78
38.984,-44.47
39.000,-45.91
39.015,-45.81
39.031,-44.04
39.046,-40.63
39.062,-35.77
39.078,-29.8
39.093,-23.2
39.109,-16.44
39.125,-9.92
39.140,-3.93
39.156,1.43
39.171,6.17
39.187,10.44
39.203,14.36
39.218,18.0
39.234,21.3
39.250,24.09
39.265,26.2
39.281,27.51
39.296,28.1
39.312,28.17
39.328,28.0
39.343,27.84
39.359,27.84
39.375,28.05
39.390,28.5
39.406,29.16
39.421,30.01
39.437,30.88
39.453,31.54
39.468,31.67
39.484,31.05
39.500,29.62
39.515,27.53
39.531,25.1
39.546,22.66
39.562,20.41
39.578,18.35
39.593,16.35
39.609,14.23
39.625,11.9
39.640,9.42
39.656,6.94
39.671,4.66
39.687,2.65
39.703,0.84
39.718,-0.97
39.734,-2.99
39.750,-5.31
39.765,-7.91
39.781,-10.66
39.796,-13.44
39.812,-16.19
39.828,-18.86
39.843,-21.44
39.859,-23.8
39.875,-25.8
39.890,-27.34
39.906,-28.48
39.921,-29.38
39.937,-30.29
39.953,-31.36
39.968,-32.61
39.984,-33.98
40.000,-35.47
40.015,-37.27
40.031,-39.79
40.046,-43.54
40.062,-48.81
40.078,-55.47
40.093,-62.77
40.109,-69.52
40.125,-74.35
40.140,-76.11
40.156,-74.16
40.171,-68.56
40.187,-59.93
40.203,-49.35
40.218,-38.04
40.234,-27.1
40.250,-17.33
40.265,-9.13
40.281,-2.4
40.296,3.2
40.312,8.16
40.328,12.84
40.343,17.33
40.359,21.46
40.375,24.94
40.390,27.53
40.406,29.16
40.421,29.96
40.437,30.16
40.453,30.0
40.468,29.69
40.484,29.44
40.500,29.38
40.515,29.66
40.531,30.34
40.546,31.32
40.562,32.37
40.578,33.19
40.593,33.52
40.609,33.26
40.625,32.5
40.640,31.44
40.656,30.29
40.671,29.2
40.687,28.18
40.703,27.19
40.718,26.14
40.734,24.96
40.750,23.59
40.765,22.01
40.781,20.22
40.796,18.28
40.812,16.26
40.828,14.34
40.843,12.63
40.859,11.2
40.875,9.98
40.890,8.78
40.906,7.37
40.921,5.53
40.937,3.28
40.953,0.72
40.968,-1.94
40.984,-4.53
41.000,-6.98
41.015,-9.36
41.031,-11.76
41.046,-14.23
41.062,-16.74
41.078,-19.19
41.093,-21.5
41.109,-23.67
41.125,-25.78
41.140,-27.98
41.156,-30.36
41.171,-32.93
41.187,-35.68
41.203,-38.55
41.218,-41.6
41.234,-44.95
41.250,-48.67
41.265,-52.64
41.281,-56.48
41.296,-59.49
41.312,-60.95
41.328,-60.28
41.343,-57.24
41.359,-52.05
41.375,-45.23
41.390,-37.47
41.406,-29.35
41.421,-21.35
41.437,-13.72
41.453,-6.59
41.468,0.04
41.484,6.21
41.500,11.98
41.515,17.36
41.531,22.33
41.546,26.79
41.562,30.59
41.578,33.56
41.593,35.57
41.609,36.61
41.625,36.8
41.640,36.4
41.656,35.77
41.671,35.35
41.687,35.43
41.703,36.12
41.718,37.28
41.734,38.61
41.750,39.76
41.765,40.48
41.781,40.65
41.796,40.28
41.812,39.43
41.828,38.19
41.843,36.64
41.859,34.96
41.875,33.31
41.890,31.84
41.906,30.63
41.921,29.6
41.937,28.61
41.953,27.49
41.968,26.18
41.984,24.72
42.000,23.27
42.015,22.02
42.031,21.09
42.046,20.45
42.062,19.92
42.078,19.18
42.093,17.94
42.109,16.01
42.125,13.43
42.140,10.46
42.156,7.42
42.171,4.61
42.187,2.09
42.203,-0.28
42.218,-2.78
42.234,-5.58
42.250,-8.65
42.265,-11.79
42.281,-14.69
42.296,-17.11
42.312,-18.99
42.328,-20.47
42.343,-21.78
42.359,-23.19
42.375,-24.95
42.390,-27.27
42.406,-30.27
42.421,-33.97
42.437,-38.18
42.453,-42.44
42.468,-46.06
42.484,-48.22
42.500,-48.32
42.515,-46.1
42.531,-41.8
42.546,-36.06
42.562,-29.64
42.578,-23.21
42.593,-17.16
42.609,-11.62
42.625,-6.54
42.640,-1.88
42.656,2.38
42.671,6.19
42.687,9.45
42.703,12.09
42.718,14.11
42.734,15.53
42.750,16.46
42.765,17.02
42.781,17.31
42.796,17.4
42.812,17.29
42.828,16.99
42.843,16.52
42.859,15.94
42.875,15.42
42.890,15.07
42.906,15.01
42.921,15.2
42.937,15.5
42.953,15.71
42.968,15.65
42.984,15.23
43.000,14.45
43.015,13.4
43.031,12.16
43.046,10.82
43.062,9.35
43.078,7.72
43.093,5.92
43.109,4.01
43.125,2.08
43.140,0.29
43.156,-1.31
43.171,-2.73
43.187,-4.08
43.203,-5.47
43.218,-6.92
43.234,-8.37
43.250,-9.71
43.265,-10.84
43.281,-11.85
43.296,-12.91
43.312,-14.25
43.328,-16.03
43.343,-18.22
43.359,-20.64
43.375,-23.02
43.390,-25.12
43.406,-26.85
43.421,-28.32
43.437,-29.79
43.453,-31.56
43.468,-33.87
43.484,-36.83
43.500,-40.32
43.515,-44.06
43.531,-47.59
43.546,-50.44
43.562,-52.14
43.578,-52.38
43.593,-51.05
43.609,-48.26
43.625,-44.37
43.640,-39.87
43.656,-35.32
43.671,-31.12
43.687,-27.43
43.703,-24.2
43.718,-21.1
43.734,-17.78
43.750,-13.95
43.765,-9.51
43.781,-4.61
43.796,0.44
43.812,5.2
43.828,9.35
43.843,12.71
43.859,15.35
43.875,17.51
43.890,19.46
43.906,21.28
43.921,22.92
43.937,24.19
43.953,25.02
43.968,25.59
43.984,26.4
44.000,28.03
44.015,30.93
44.031,35.1
44.046,40.12
44.062,45.28
44.078,49.88
44.093,53.47
44.109,55.89
44.125,57.27
44.140,57.77
44.156,57.57
44.171,56.71
44.187,55.17
44.203,52.85
44.218,49.67
44.234,45.6
44.250,40.72
44.265,35.24
44.281,29.46
44.296,23.76
44.312,18.44
44.328,13.64
44.343,9.3
44.359,5.15
44.375,0.83
44.390,-3.99
44.406,-9.49
44.421,-15.65
44.437,-22.25
44.453,-28.86
44.468,-35.02
44.484,-40.29
44.500,-44.42
44.515,-47.44
44.531,-49.66
44.546,-51.58
44.562,-53.71
44.578,-56.5
44.593,-60.12
44.609,-64.52
44.625,-69.38
44.640,-74.14
44.656,-78.1
44.671,-80.43
44.687,-80.39
44.703,-77.46
44.718,-71.54
44.734,-63.08
44.750,-52.99
44.765,-42.36
44.781,-32.19
44.796,-23.17
44.812,-15.55
44.828,-9.19
44.843,-3.73
44.859,1.29
44.875,6.27
44.890,11.43
44.906,16.74
44.921,21.96
44.937,26.68
44.953,30.49
44.968,33.14
44.984,34.7
45.000,35.44
45.015,35.79
45.031,36.14
45.046,36.71
45.062,37.51
45.078,38.4
45.093,39.19
45.109,39.74
45.125,40.04
45.140,40.13
45.156,40.14
45.171,40.13
45.187,40.1
45.203,39.95
45.218,39.52
45.234,38.72
45.250,37.52
45.265,36.03
45.281,34.42
45.296,32.85
45.312,31.35
45.328,29.8
45.343,27.99
45.359,25.66
45.375,22.7
45.390,19.15
45.406,15.25
45.421,11.33
45.437,7.68
45.453,4.47
45.468,1.65
45.484,-0.98
45.500,-3.66
45.515,-6.57
45.531,-9.77
45.546,-13.16
45.562,-16.62
45.578,-20.0
45.593,-23.26
45.609,-26.43
45.625,-29.63
45.640,-33.0
45.656,-36.65
45.671,-40.64
45.687,-44.91
45.703,-49.25
45.718,-53.34
45.734,-56.76
45.750,-59.0
45.765,-59.59
45.781,-58.18
45.796,-54.64
45.812,-49.19
45.828,-42.3
45.843,-34.66
45.859,-26.94
45.875,-19.7
45.890,-13.22
45.906,-7.57
45.921,-2.65
45.937,1.7
45.953,5.6
45.968,9.12
45.984,12.22
46.000,14.8
46.015,16.72
46.031,17.83
46.046,18.04
46.062,17.35
46.078,15.82
46.093,13.56
46.109,10.69
46.125,7.32
46.140,3.58
46.156,-0.37
46.171,-4.35
46.187,-8.19
46.203,-11.87
46.218,-15.46
46.234,-19.14
46.250,-22.96
46.265,-26.69
46.281,-29.81
46.296,-31.6
46.312,-31.5
46.328,-29.38
46.343,-25.66
46.359,-21.18
46.375,-16.82
46.390,-13.19
46.406,-10.38
46.421,-8.06
46.437,-5.69
46.453,-2.86
46.468,0.51
46.484,4.15
46.500,7.61
46.515,10.44
46.531,12.38
46.546,13.46
46.562,13.94
46.578,14.15
46.593,14.4
46.609,14.83
46.625,15.37
46.640,15.75
46.656,15.64
46.671,14.67
46.687,12.6
46.703,9.32
46.718,4.87
46.734,-0.56
46.750,-6.69
46.765,-13.12
46.781,-19.32
46.796,-24.64
46.812,-28.38
46.828,-29.85
46.843,-28.63
46.859,-24.65
46.875,-18.27
46.890,-10.29
46.906,-1.68
46.921,6.65
46.937,14.06
46.953,20.37
46.968,25.71
46.984,30.39
47.000,34.67
47.015,38.63
47.031,42.08
47.046,44.69
47.062,46.1
47.078,46.13
47.093,44.8
47.109,42.38
47.125,39.31
47.140,36.08
47.156,33.11
47.171,30.69
47.187,28.96
47.203,27.9
47.218,27.42
47.234,27.4
47.250,27.69
47.265,28.09
47.281,28.35
47.296,28.18
47.312,27.33
47.328,25.72
47.343,23.55
47.359,21.21
47.375,19.19
47.390,17.86
47.406,17.33
47.421,17.41
47.437,17.78
47.453,18.14
47.468,18.45
47.484,18.83
47.500,19.48
47.515,20.45
47.531,21.42
47.546,21.79
47.562,20.89
47.578,18.24
47.593,13.82
47.609,8.08
47.625,1.74
47.640,-4.46
47.656,-10.04
47.671,-14.87
47.687,-19.04
47.703,-22.76
47.718,-26.18
47.734,-29.39
47.750,-32.43
47.765,-35.33
47.781,-38.16
47.796,-40.94
47.812,-43.65
47.828,-46.21
47.843,-48.57
47.859,-50.79
47.875,-53.03
47.890,-55.4
47.906,-57.84
47.921,-59.93
47.937,-60.93
47.953,-59.97
47.968,-56.31
47.984,-49.66
48.000,-40.26
48.015,-28.88
48.031,-16.59
48.046,-4.45
48.062,6.67
48.078,16.25
48.093,24.14
48.109,30.49
48.125,35.6
48.140,39.87
48.156,43.62
48.171,47.12
48.187,50.53
48.203,53.86
48.218,56.97
48.234,59.58
48.250,61.38
48.265,62.05
48.281,61.52
48.296,59.87
48.312,57.48
48.328,54.73
48.343,51.87
48.359,48.96
48.375,45.81
48.390,42.23
48.406,38.1
48.421,33.5
48.437,28.59
48.453,23.62
48.468,18.73
48.484,14.02
48.500,9.54
48.515,5.29
48.531,1.29
48.546,-2.56
48.562,-6.31
48.578,-9.95
48.593,-13.26
48.609,-15.77
48.625,-16.91
48.640,-16.19
48.656,-13.44
48.671,-8.9
48.687,-3.09
48.703,3.36
48.718,9.95
48.734,16.45
48.750,22.92
48.765,29.56
48.781,36.62
48.796,44.16
48.812,52.0
48.828,59.72
48.843,66.73
48.859,72.46
48.875,76.48
48.890,78.58
48.906,78.78
48.921,77.28
48.937,74.32
48.953,70.11
48.968,64.84
48.984,58.61
49.000,51.56
49.015,43.89
49.031,35.93
49.046,28.13
49.062,21.03
49.078,15.11
49.093,10.72
49.109,7.89
49.125,6.3
49.140,5.33
49.156,4.23
49.171,2.36
49.187,-0.66
49.203,-4.82
49.218,-9.81
49.234,-15.19
49.250,-20.51
49.265,-25.44
49.281,-29.77
49.296,-33.33
49.312,-35.88
49.328,-37.23
49.343,-37.23
49.359,-35.93
49.375,-33.59
49.390,-30.6
49.406,-27.41
49.421,-24.36
49.437,-21.63
49.453,-19.24
49.468,-17.14
49.484,-15.3
49.500,-13.75
49.515,-12.55
49.531,-11.74
49.546,-11.27
49.562,-10.98
49.578,-10.65
49.593,-10.09
49.609,-9.21
49.625,-8.05
49.640,-6.77
49.656,-5.58
49.671,-4.63
49.687,-4.03
49.703,-3.78
49.718,-3.86
49.734,-4.17
49.750,-4.64
49.765,-5.15
49.781,-5.66
49.796,-6.14
49.812,-6.68
49.828,-7.43
49.843,-8.55
49.859,-10.09
49.875,-11.98
49.890,-14.01
49.906,-15.92
49.921,-17.56
49.937,-18.86
49.953,-19.92
49.968,-20.79
49.984,-21.42
50.000,-21.66
50.015,-21.32
50.031,-20.38
50.046,-19.02
50.062,-17.59
50.078,-16.41
50.093,-15.51
50.109,-14.53
50.125,-12.79
50.140,-9.57
50.156,-4.38
50.171,2.82
50.187,11.67
50.203,21.54
50.218,31.61
50.234,41.03
50.250,48.95
50.265,54.72
50.281,57.99
50.296,58.94
50.312,58.14
50.328,56.36
50.343,54.15
50.359,51.62
50.375,48.48
50.390,44.29
50.406,38.85
50.421,32.42
50.437,25.62
50.453,19.12
50.468,13.34
50.484,8.28
50.500,3.65
50.515,-0.85
50.531,-5.3
50.546,-9.42
50.562,-12.77
50.578,-14.96
50.593,-15.92
50.609,-16.05
50.625,-16.02
50.640,-16.55
50.656,-18.0
50.671,-20.26
50.687,-22.79
50.703,-24.97
50.718,-26.35
50.734,-26.91
50.750,-26.97
50.765,-27.04
50.781,-27.48
50.796,-28.41
50.812,-29.64
50.828,-30.86
50.843,-31.85
50.859,-32.52
50.875,-32.96
50.890,-33.38
50.906,-34.03
50.921,-35.07
50.937,-36.52
50.953,-38.26
50.968,-40.08
50.984,-41.73
51.000,-42.99
51.015,-43.78
51.031,-44.15
51.046,-44.25
51.062,-44.33
51.078,-44.57
51.093,-45.17
51.109,-46.23
51.125,-47.75
51.140,-49.56
51.156,-51.24
51.171,-52.18
51.187,-51.71
51.203,-49.32
51.218,-44.88
51.234,-38.77
51.250,-31.79
51.265,-24.92
51.281,-19.04
51.296,-14.68
51.312,-11.86
51.328,-10.23
51.343,-9.26
51.359,-8.37
51.375,-7.14
51.390,-5.36
51.406,-3.03
51.421,-0.35
51.437,2.42
51.453,4.98
51.468,7.08
51.484,8.56
51.500,9.36
51.515,9.6
51.531,9.47
51.546,9.3
51.562,9.4
51.578,10.01
51.593,11.14
51.609,12.64
51.625,14.17
51.640,15.34
51.656,15.87
51.671,15.67
51.687,14.9
51.703,13.87
51.718,12.89
51.734,12.12
51.750,11.56
51.765,11.04
51.781,10.39
51.796,9.56
51.812,8.64
51.828,7.77
51.843,7.0
51.859,6.23
51.875,5.23
51.890,3.73
51.906,1.67
51.921,-0.82
51.937,-3.33
51.953,-5.48
51.968,-7.0
51.984,-7.89
52.000,-8.4
52.015,-8.87
52.031,-9.64
52.046,-10.88
52.062,-12.6
52.078,-14.71
52.093,-17.05
52.109,-19.46
52.125,-21.79
52.140,-23.9
52.156,-25.71
52.171,-27.24
52.187,-28.63
52.203,-30.16
52.218,-32.1
52.234,-34.54
52.250,-37.27
52.265,-39.71
52.281,-41.05
52.296,-40.57
52.312,-37.88
52.328,-33.16
52.343,-27.09
52.359,-20.63
52.375,-14.72
52.390,-9.97
52.406,-6.55
52.421,-4.28
52.437,-2.79
52.453,-1.68
52.468,-0.64
52.484,0.54
52.500,1.98
52.515,3.74
52.531,5.84
52.546,8.21
52.562,10.65
52.578,12.87
52.593,14.53
52.609,15.35
52.625,15.26
52.640,14.38
52.656,13.05
52.671,11.67
52.687,10.58
52.703,9.98
52.718,9.87
52.734,10.07
52.750,10.32
52.765,10.4
52.781,10.23
52.796,9.88
52.812,9.51
52.828,9.3
52.843,9.34
52.859,9.57
52.875,9.79
52.890,9.79
52.906,9.39
52.921,8.59
52.937,7.5
52.953,6.37
52.968,5.42
52.984,4.8
53.000,4.53
53.015,4.47
53.031,4.36
53.046,3.89
53.062,2.83
53.078,1.09
53.093,-1.28
53.109,-4.09
53.125,-7.13
53.140,-10.25
53.156,-13.36
53.171,-16.49
53.187,-19.69
53.203,-23.04
53.218,-26.59
53.234,-30.36
53.250,-34.33
53.265,-38.47
53.281,-42.75
53.296,-47.16
53.312,-51.77
53.328,-56.8
53.343,-62.45
53.359,-68.86
53.375,-75.93
53.390,-83.24
53.406,-90.09
53.421,-95.68
53.437,-99.35
53.453,-100.79
53.468,-100.16
53.484,-97.99
53.500,-94.95
53.515,-91.64
53.531,-88.36
53.546,-85.1
53.562,-81.61
53.578,-77.55
53.593,-72.6
53.609,-66.69
53.625,-59.94
53.640,-52.65
53.656,-45.22
53.671,-38.03
53.687,-31.29
53.703,-24.98
53.718,-18.9
53.734,-12.66
53.750,-5.91
53.765,1.67
53.781,10.19
53.796,19.54
53.812,29.38
53.828,39.16
53.843,48.29
53.859,56.27
53.875,62.92
53.890,68.39
53.906,72.98
53.921,77.02
53.937,80.77
53.953,84.34
53.968,87.86
53.984,91.41
54.000,95.01
54.015,98.47
54.031,101.39
54.046,103.35
54.062,104.26
54.078,104.58
54.093,105.23
54.109,107.15
54.125,110.6
54.140,114.85
54.156,118.3
54.171,119.03
54.187,115.65
54.203,107.88
54.218,96.5
54.234,83.03
54.250,69.0
54.265,55.47
54.281,42.82
54.296,30.91
54.312,19.34
54.328,7.7
54.343,-4.22
54.359,-16.43
54.375,-28.75
54.390,-40.94
54.406,-52.72
54.421,-63.93
54.437,-74.62
54.453,-84.91
54.468,-94.91
54.484,-104.42
54.500,-112.77
54.515,-118.89
54.531,-121.57
54.546,-119.9
54.562,-113.62
54.578,-103.31
54.593,-90.19
54.609,-75.79
54.625,-61.47
54.640,-48.16
54.656,-36.24
54.671,-25.62
54.687,-15.98
54.703,-6.91
54.718,1.91
54.734,10.62
54.750,19.15
54.765,27.26
54.781,34.56
54.796,40.64
54.812,45.23
54.828,48.29
54.843,50.03
54.859,50.89
54.875,51.35
54.890,51.81
54.906,52.47
54.921,53.24
54.937,53.83
54.953,53.78
54.968,52.62
54.984,49.98
55.000,45.78
55.015,40.28
55.031,34.05
55.046,27.85
55.062,22.31
55.078,17.8
55.093,14.3
55.109,11.53
55.125,9.16
55.140,7.01
55.156,5.13
55.171,3.79
55.187,3.39
55.203,4.32
55.218,6.91
55.234,11.39
55.250,17.87
55.265,26.31
55.281,36.47
55.296,47.85
55.312,59.69
55.328,71.07
55.343,81.01
55.359,88.69
55.375,93.55
55.390,95.43
55.406,94.61
55.421,91.74
55.437,87.68
55.453,83.33
55.468,79.33
55.484,75.97
55.500,73.22
55.515,70.81
55.531,68.5
55.546,66.18
55.562,63.95
55.578,62.08
55.593,60.88
55.609,60.58
55.625,61.31
55.640,63.07
55.656,65.66
55.671,68.62
55.687,71.2
55.703,72.38
55.718,71.21
55.734,67.03
55.750,59.81
55.765,50.14
55.781,39.07
55.796,27.75
55.812,17.03
55.828,7.35
55.843,-1.27
55.859,-9.0
55.875,-16.02
55.890,-22.44
55.906,-28.3
55.921,-33.56
55.937,-38.18
55.953,-42.08
55.968,-45.21
55.984,-47.45
56.000,-48.7
56.015,-48.93
56.031,-48.18
56.046,-46.67
56.062,-44.74
56.078,-42.8
56.093,-41.24
56.109,-40.29
56.125,-39.95
56.140,-39.97
56.156,-39.99
56.171,-39.64
56.187,-38.73
56.203,-37.32
56.218,-35.66
56.234,-34.12
56.250,-32.91
56.265,-32.09
56.281,-31.49
56.296,-30.86
56.312,-30.04
56.328,-29.01
56.343,-27.94
56.359,-27.08
56.375,-26.62
56.390,-26.63
56.406,-27.05
56.421,-27.73
56.437,-28.52
56.453,-29.33
56.468,-30.09
56.484,-30.72
56.500,-31.15
56.515,-31.36
56.531,-31.44
56.546,-31.62
56.562,-32.08
56.578,-32.97
56.593,-34.19
56.609,-35.44
56.625,-36.2
56.640,-35.94
56.656,-34.29
56.671,-31.19
56.687,-26.86
56.703,-21.8
56.718,-16.57
56.734,-11.64
56.750,-7.3
56.765,-3.62
56.781,-0.53
56.796,2.11
56.812,4.39
56.828,6.36
56.843,8.02
56.859,9.34
56.875,10.35
56.890,11.06
56.906,11.56
56.921,11.87
56.937,12.05
56.953,12.12
56.968,12.11
56.984,12.11
57.000,12.19
57.015,12.41
57.031,12.77
57.046,13.19
57.062,13.55
57.078,13.7
57.093,13.57
57.109,13.11
57.125,12.39
57.140,11.49
57.156,10.51
57.171,9.52
57.187,8.62
57.203,7.82
57.218,7.13
57.234,6.5
57.250,5.86
57.265,5.11
57.281,4.21
57.296,3.15
57.312,1.98
57.328,0.82
57.343,-0.2
57.359,-1.0
57.375,-1.56
57.390,-1.94
57.406,-2.26
57.421,-2.68
57.437,-3.31
57.453,-4.2
57.468,-5.32
57.484,-6.56
57.500,-7.79
57.515,-8.92
57.531,-9.94
57.546,-10.91
57.562,-11.95
57.578,-13.15
57.593,-14.61
57.609,-16.42
57.625,-18.66
57.640,-21.43
57.656,-24.71
57.671,-28.36
57.687,-32.0
57.703,-35.11
57.718,-37.12
57.734,-37.61
57.750,-36.43
57.765,-33.76
57.781,-30.07
57.796,-25.9
57.812,-21.79
57.828,-18.1
57.843,-15.08
57.859,-12.78
57.875,-11.18
57.890,-10.19
57.906,-9.62
57.921,-9.24
57.937,-8.72
57.953,-7.77
57.968,-6.22
57.984,-4.07
58.000,-1.54
58.015,0.98
58.031,3.09
58.046,4.55
58.062,5.35
58.078,5.72
58.093,5.99
58.109,6.46
58.125,7.26
58.140,8.31
58.156,9.44
58.171,10.47
58.187,11.34
58.203,12.07
58.218,12.72
58.234,13.27
58.250,13.6
58.265,13.56
58.281,13.04
58.296,12.03
58.312,10.71
58.328,9.29
58.343,7.93
58.359,6.68
58.375,5.42
58.390,4.01
58.406,2.4
58.421,0.65
58.437,-0.99
58.453,-2.29
58.468,-3.13
58.484,-3.55
58.500,-3.8
58.515,-4.15
58.531,-4.8
58.546,-5.82
58.562,-7.17
58.578,-8.71
58.593,-10.34
58.609,-11.99
58.625,-13.63
58.640,-15.26
58.656,-16.84
58.671,-18.39
58.687,-19.95
58.703,-21.63
58.718,-23.52
58.734,-25.61
58.750,-27.73
58.765,-29.62
58.781,-30.93
58.796,-31.39
58.812,-30.87
58.828,-29.42
58.843,-27.27
58.859,-24.65
58.875,-21.82
58.890,-18.93
58.906,-16.05
58.921,-13.16
58.937,-10.16
58.953,-7.01
58.968,-3.7
58.984,-0.29
59.000,3.08
59.015,6.22
59.031,8.95
59.046,11.11
59.062,12.64
59.078,13.58
59.093,14.03
59.109,14.2
59.125,14.28
59.140,14.5
59.156,14.95
59.171,15.64
59.187,16.47
59.203,17.25
59.218,17.84
59.234,18.18
59.250,18.34
59.265,18.41
59.281,18.5
59.296,18.63
59.312,18.72
59.328,18.66
59.343,18.4
59.359,17.95
59.375,17.41
59.390,16.88
59.406,16.41
59.421,15.97
59.437,15.47
59.453,14.76
59.468,13.76
59.484,12.5
59.500,11.08
59.515,9.66
59.531,8.39
59.546,7.25
59.562,6.15
59.578,4.92
59.593,3.5
59.609,1.89
59.625,0.19
59.640,-1.49
59.656,-3.14
59.671,-4.82
59.687,-6.68
59.703,-8.74
59.718,-10.98
59.734,-13.22
59.750,-15.34
59.765,-17.3
59.781,-19.21
59.796,-21.25
59.812,-23.61
59.828,-26.38
59.843,-29.52
59.859,-32.88
59.875,-36.16
59.890,-39.04
59.906,-41.24
59.921,-42.55
59.937,-42.87
59.953,-42.15
59.968,-40.42
59.984,-37.74
