timestamp,value
00.000,-121.17
00.015,-124.14
00.031,-126.55
00.046,-126.27
00.062,-122.35
00.078,-113.29
00.093,-98.64
00.109,-82.4
00.125,-66.83
00.140,-51.18
00.156,-34.73
00.171,-17.55
00.187,-0.76
00.203,13.85
00.218,25.73
00.234,34.84
00.250,39.17
00.265,38.09
00.281,32.93
00.296,24.79
00.312,14.45
00.328,2.34
00.343,-11.09
00.359,-24.24
00.375,-34.97
00.390,-42.2
00.406,-44.85
00.421,-42.15
00.437,-34.75
00.453,-24.53
00.468,-13.8
00.484,-4.33
00.500,3.46
00.515,10.15
00.531,16.23
00.546,21.99
00.562,27.29
00.578,31.49
00.593,34.17
00.609,35.67
00.625,37.15
00.640,40.16
00.656,45.68
00.671,53.55
00.687,62.59
00.703,71.32
00.718,78.8
00.734,85.55
00.750,93.31
00.765,103.78
00.781,117.59
00.796,133.26
00.812,147.63
00.828,157.26
00.843,159.87
00.859,155.39
00.875,146.08
00.890,135.12
00.906,124.92
00.921,116.48
00.937,109.05
00.953,101.25
00.968,91.8
00.984,79.34
01.000,62.05
01.015,37.86
01.031,5.41
01.046,-34.78
01.062,-78.85
01.078,-120.92
01.093,-154.97
01.109,-178.01
01.125,-191.96
01.140,-202.87
01.156,-217.52
01.171,-234.86
01.187,-249.03
01.203,-250.48
01.218,-232.78
01.234,-196.94
01.250,-150.09
01.265,-100.37
01.281,-52.68
01.296,-7.67
01.312,36.66
01.328,80.8
01.343,124.86
01.359,163.55
01.375,190.08
01.390,199.0
01.406,187.93
01.421,158.42
01.437,115.75
01.453,68.21
01.468,24.65
01.484,-7.56
01.500,-26.05
01.515,-31.92
01.531,-29.6
01.546,-26.16
01.562,-27.85
01.578,-36.44
01.593,-47.85
01.609,-54.47
01.625,-48.57
01.640,-26.56
01.656,9.94
01.671,55.26
01.687,102.31
01.703,145.5
01.718,181.92
01.734,210.58
01.750,230.38
01.765,239.4
01.781,235.09
01.796,215.71
01.812,182.16
01.828,138.61
01.843,92.14
01.859,50.62
01.875,19.83
01.890,0.97
01.906,-9.35
01.921,-17.05
01.937,-27.3
01.953,-42.02
01.968,-59.55
01.984,-75.95
02.000,-87.68
02.015,-93.42
02.031,-94.37
02.046,-92.81
02.062,-90.4
02.078,-87.39
02.093,-83.21
02.109,-77.9
02.125,-72.76
02.140,-70.21
02.156,-72.57
02.171,-80.72
02.187,-93.63
02.203,-109.06
02.218,-124.66
02.234,-138.77
02.250,-150.33
02.265,-158.39
02.281,-162.06
02.296,-160.95
02.312,-155.81
02.328,-148.61
02.343,-141.83
02.359,-137.12
02.375,-134.19
02.390,-131.2
02.406,-126.36
02.421,-119.79
02.437,-114.16
02.453,-113.7
02.468,-121.95
02.484,-139.53
02.500,-163.15
02.515,-186.27
02.531,-201.41
02.546,-202.51
02.562,-186.76
02.578,-155.23
02.593,-112.53
02.609,-65.43
02.625,-21.13
02.640,14.21
02.656,36.55
02.671,44.26
02.687,38.15
02.703,21.54
02.718,-0.49
02.734,-21.97
02.750,-37.24
02.765,-42.19
02.781,-35.31
02.796,-17.27
02.812,10.01
02.828,44.28
02.843,83.15
02.859,123.23
02.875,159.52
02.890,186.18
02.906,199.33
02.921,199.85
02.937,194.79
02.953,195.34
02.968,211.84
02.984,248.31
03.000,299.28
03.015,351.21
03.031,387.03
03.046,392.19
03.062,358.95
03.078,288.55
03.093,190.06
03.109,77.64
03.125,-33.16
03.140,-128.8
03.156,-199.99
03.171,-242.92
03.187,-259.05
03.203,-253.34
03.218,-231.93
03.234,-201.19
03.250,-168.07
03.265,-140.18
03.281,-124.6
03.296,-125.32
03.312,-141.51
03.328,-167.26
03.343,-193.87
03.359,-211.82
03.375,-214.18
03.390,-199.0
03.406,-169.0
03.421,-129.1
03.437,-84.18
03.453,-39.15
03.468,0.74
03.484,29.73
03.500,45.16
03.515,47.85
03.531,40.73
03.546,27.0
03.562,9.53
03.578,-9.14
03.593,-27.47
03.609,-44.31
03.625,-58.14
03.640,-63.11
03.656,-51.06
03.671,-15.84
03.687,43.62
03.703,123.82
03.718,218.63
03.734,320.47
03.750,421.35
03.765,496.33
03.781,520.22
03.796,485.27
03.812,407.49
03.828,312.69
03.843,220.72
03.859,140.96
03.875,75.5
03.890,22.82
03.906,-21.18
03.921,-58.32
03.937,-88.64
03.953,-112.59
03.968,-131.94
03.984,-148.59
04.000,-163.24
04.015,-176.89
04.031,-186.95
04.046,-192.07
04.062,-190.4
04.078,-181.16
04.093,-166.92
04.109,-153.66
04.125,-147.58
04.140,-151.41
04.156,-161.06
04.171,-163.65
04.187,-149.47
04.203,-113.66
04.218,-60.09
04.234,-1.56
04.250,45.69
04.265,72.16
04.281,75.8
04.296,63.69
04.312,48.14
04.328,39.93
04.343,45.57
04.359,65.15
04.375,92.79
04.390,119.74
04.406,138.54
04.421,140.86
04.437,124.55
04.453,93.15
04.468,53.08
04.484,12.12
04.500,-23.42
04.515,-50.34
04.531,-68.47
04.546,-79.48
04.562,-86.05
04.578,-89.48
04.593,-90.26
04.609,-88.99
04.625,-85.89
04.640,-81.09
04.656,-74.37
04.671,-65.11
04.687,-52.76
04.703,-38.06
04.718,-22.05
04.734,-6.4
04.750,7.15
04.765,17.92
04.781,26.55
04.796,34.6
04.812,43.83
04.828,55.45
04.843,69.21
04.859,84.02
04.875,97.53
04.890,106.2
04.906,105.95
04.921,93.08
04.937,65.84
04.953,26.0
04.968,-20.77
04.984,-66.29
05.000,-101.89
05.015,-121.1
05.031,-121.11
05.046,-103.02
05.062,-70.61
05.078,-29.0
05.093,16.52
05.109,60.72
05.125,98.75
05.140,127.02
05.156,143.96
05.171,150.72
05.187,150.92
05.203,149.08
05.218,148.88
05.234,151.58
05.250,155.57
05.265,156.98
05.281,151.27
05.296,134.97
05.312,107.04
05.328,69.71
05.343,28.17
05.359,-10.7
05.375,-40.47
05.390,-57.3
05.406,-61.24
05.421,-55.93
05.437,-46.52
05.453,-37.33
05.468,-29.95
05.484,-23.16
05.500,-14.31
05.515,-1.17
05.531,16.74
05.546,37.92
05.562,59.61
05.578,79.0
05.593,93.81
05.609,102.52
05.625,104.09
05.640,98.21
05.656,85.53
05.671,67.87
05.687,48.05
05.703,29.11
05.718,13.58
05.734,2.79
05.750,-3.22
05.765,-5.38
05.781,-5.21
05.796,-4.11
05.812,-3.13
05.828,-2.74
05.843,-3.0
05.859,-3.85
05.875,-5.47
05.890,-8.51
05.906,-13.73
05.921,-21.66
05.937,-32.05
05.953,-43.97
05.968,-56.21
05.984,-68.04
06.000,-79.8
06.015,-92.86
06.031,-108.95
06.046,-128.79
06.062,-151.2
06.078,-173.05
06.093,-190.2
06.109,-198.84
06.125,-196.57
06.140,-182.81
06.156,-158.15
06.171,-123.46
06.187,-78.97
06.203,-24.43
06.218,40.36
06.234,114.17
06.250,193.5
06.265,272.38
06.281,343.05
06.296,397.52
06.312,429.06
06.328,433.62
06.343,410.45
06.359,362.14
06.375,293.83
06.390,212.21
06.406,124.41
06.421,37.23
06.437,-43.44
06.453,-112.99
06.468,-168.52
06.484,-209.1
06.500,-235.8
06.515,-251.3
06.531,-258.91
06.546,-261.65
06.562,-261.42
06.578,-258.75
06.593,-253.26
06.609,-244.32
06.625,-231.64
06.640,-215.42
06.656,-196.21
06.671,-174.49
06.687,-150.49
06.703,-124.53
06.718,-97.08
06.734,-68.96
06.750,-41.41
06.765,-15.82
06.781,6.57
06.796,25.09
06.812,40.08
06.828,53.04
06.843,66.33
06.859,82.63
06.875,103.95
06.890,130.68
06.906,160.82
06.921,190.2
06.937,213.23
06.953,224.57
06.968,220.57
06.984,200.48
07.000,166.55
07.015,123.26
07.031,75.85
07.046,28.71
07.062,-15.26
07.078,-54.84
07.093,-89.67
07.109,-119.35
07.125,-143.07
07.140,-159.84
07.156,-169.17
07.171,-171.8
07.187,-169.56
07.203,-164.63
07.218,-158.32
07.234,-150.31
07.250,-138.8
07.265,-121.7
07.281,-98.07
07.296,-69.22
07.312,-38.61
07.328,-10.84
07.343,9.76
07.359,20.33
07.375,20.11
07.390,10.34
07.406,-6.27
07.421,-25.91
07.437,-44.34
07.453,-57.51
07.468,-62.41
07.484,-57.65
07.500,-43.97
07.515,-23.91
07.531,-1.19
07.546,20.04
07.562,35.98
07.578,43.64
07.593,41.02
07.609,27.52
07.625,4.25
07.640,-26.05
07.656,-59.37
07.671,-91.4
07.687,-118.65
07.703,-139.15
07.718,-152.48
07.734,-159.32
07.750,-160.47
07.765,-156.04
07.781,-144.98
07.796,-125.31
07.812,-95.16
07.828,-53.72
07.843,-2.12
07.859,56.6
07.875,118.43
07.890,179.26
07.906,235.37
07.921,283.34
07.937,319.57
07.953,340.15
07.968,341.36
07.984,321.15
08.000,279.94
08.015,221.35
08.031,151.54
08.046,77.94
08.062,8.13
08.078,-50.75
08.093,-92.44
08.109,-112.02
08.125,-107.08
08.140,-79.29
08.156,-34.76
08.171,16.53
08.187,63.28
08.203,96.19
08.218,110.88
08.234,109.06
08.250,97.66
08.265,85.82
08.281,81.38
08.296,88.13
08.312,104.75
08.328,125.88
08.343,144.7
08.359,155.39
08.375,154.97
08.390,143.4
08.406,122.65
08.421,95.2
08.437,63.3
08.453,28.81
08.468,-6.32
08.484,-39.58
08.500,-68.28
08.515,-90.39
08.531,-105.27
08.546,-113.95
08.562,-118.61
08.578,-121.43
08.593,-123.93
08.609,-126.39
08.625,-128.12
08.640,-128.12
08.656,-125.79
08.671,-121.23
08.687,-115.27
08.703,-109.01
08.718,-103.21
08.734,-98.16
08.750,-93.66
08.765,-89.56
08.781,-85.97
08.796,-83.67
08.812,-83.97
08.828,-88.32
08.843,-97.95
08.859,-113.16
08.875,-132.92
08.890,-154.77
08.906,-174.94
08.921,-189.05
08.937,-193.34
08.953,-185.77
08.968,-166.81
08.984,-139.27
09.000,-107.06
09.015,-73.84
09.031,-41.92
09.046,-12.05
09.062,15.9
09.078,42.08
09.093,66.13
09.109,87.23
09.125,104.65
09.140,118.18
09.156,128.16
09.171,135.04
09.187,138.8
09.203,138.69
09.218,133.54
09.234,122.78
09.250,106.98
09.265,88.07
09.281,69.01
09.296,52.8
09.312,41.53
09.328,35.65
09.343,33.73
09.359,32.93
09.375,30.23
09.390,23.53
09.406,12.44
09.421,-1.61
09.437,-15.95
09.453,-27.74
09.468,-34.93
09.484,-37.07
09.500,-35.63
09.515,-33.46
09.531,-33.61
09.546,-38.27
09.562,-47.88
09.578,-61.09
09.593,-75.4
09.609,-88.08
09.625,-97.05
09.640,-101.51
09.656,-101.66
09.671,-98.03
09.687,-90.73
09.703,-79.19
09.718,-62.6
09.734,-40.58
09.750,-13.51
09.765,17.65
09.781,51.27
09.796,85.37
09.812,117.47
09.828,144.49
09.843,163.05
09.859,170.02
09.875,163.43
09.890,144.6
09.906,118.12
09.921,90.26
09.937,66.59
09.953,50.14
09.968,40.9
09.984,36.63
10.000,34.47
10.015,31.65
10.031,28.42
10.046,27.1
10.062,29.76
10.078,36.35
10.093,44.43
10.109,50.48
10.125,51.08
10.140,43.58
10.156,24.99
10.171,-4.98
10.187,-44.67
10.203,-92.29
10.218,-146.65
10.234,-206.23
10.250,-267.51
10.265,-325.0
10.281,-372.5
10.296,-406.3
10.312,-421.46
10.328,-412.21
10.343,-373.86
10.359,-304.79
10.375,-207.88
10.390,-90.64
10.406,34.64
10.421,161.76
10.437,266.68
10.453,323.62
10.468,323.29
10.484,278.35
10.500,212.38
10.515,146.27
10.531,91.36
10.546,48.45
10.562,14.7
10.578,-15.88
10.593,-47.2
10.609,-81.09
10.625,-118.47
10.640,-153.77
10.656,-181.67
10.671,-195.5
10.687,-189.67
10.703,-162.97
10.718,-122.15
10.734,-77.28
10.750,-38.4
10.765,-12.65
10.781,-1.87
10.796,-2.66
10.812,-7.28
10.828,-6.9
10.843,5.24
10.859,30.67
10.875,67.05
10.890,108.68
10.906,147.15
10.921,172.89
10.937,177.41
10.953,156.58
10.968,111.69
10.984,49.07
11.000,-22.01
11.015,-90.06
11.031,-143.22
11.046,-171.98
11.062,-171.86
11.078,-145.07
11.093,-99.39
11.109,-45.76
11.125,5.22
11.140,46.47
11.156,76.91
11.171,100.81
11.187,124.32
11.203,151.5
11.218,181.84
11.234,210.65
11.250,231.43
11.265,239.1
11.281,232.36
11.296,214.46
11.312,191.61
11.328,170.1
11.343,153.75
11.359,143.0
11.375,135.05
11.390,125.78
11.406,111.59
11.421,90.43
11.437,61.97
11.453,27.24
11.468,-11.61
11.484,-50.94
11.500,-85.24
11.515,-108.58
11.531,-116.2
11.546,-106.45
11.562,-81.98
11.578,-49.33
11.593,-17.12
11.609,6.69
11.625,16.89
11.640,12.19
11.656,-6.5
11.671,-36.41
11.687,-72.87
11.703,-109.35
11.718,-138.01
11.734,-151.04
11.750,-142.49
11.765,-110.17
11.781,-56.25
11.796,10.39
11.812,76.74
11.828,129.77
11.843,160.19
11.859,164.61
11.875,145.63
11.890,111.17
11.906,72.42
11.921,42.32
11.937,29.39
11.953,37.72
11.968,68.37
11.984,120.24
12.000,189.99
12.015,271.14
12.031,354.7
12.046,430.55
12.062,490.14
12.078,522.72
12.093,518.16
12.109,470.27
12.125,379.48
12.140,252.89
12.156,102.93
12.171,-54.33
12.187,-209.66
12.203,-336.1
12.218,-407.43
12.234,-416.11
12.250,-376.68
12.265,-312.42
12.281,-242.71
12.296,-179.25
12.312,-127.69
12.328,-90.14
12.343,-62.42
12.359,-44.11
12.375,-36.86
12.390,-40.73
12.406,-52.63
12.421,-67.85
12.437,-82.8
12.453,-96.01
12.468,-107.12
12.484,-114.5
12.500,-117.41
12.515,-114.14
12.531,-100.89
12.546,-72.14
12.562,-24.06
12.578,42.03
12.593,118.9
12.609,188.19
12.625,228.49
12.640,226.13
12.656,181.47
12.671,107.14
12.687,19.64
12.703,-67.27
12.718,-143.78
12.734,-210.02
12.750,-266.07
12.765,-310.88
12.781,-343.67
12.796,-368.11
12.812,-390.22
12.828,-408.89
12.843,-413.89
12.859,-396.46
12.875,-352.5
12.890,-284.76
12.906,-209.19
12.921,-128.61
12.937,-44.72
12.953,41.77
12.968,128.16
12.984,210.26
13.000,284.43
13.015,347.62
13.031,396.55
13.046,427.46
13.062,438.27
13.078,425.24
13.093,387.27
13.109,326.8
13.125,252.43
13.140,177.9
13.156,118.02
13.171,84.07
13.187,80.93
13.203,108.14
13.218,157.47
13.234,218.12
13.250,266.01
13.265,277.47
13.281,241.54
13.296,166.11
13.312,70.1
13.328,-28.88
13.343,-116.59
13.359,-196.41
13.375,-270.17
13.390,-337.26
13.406,-393.97
13.421,-437.03
13.437,-460.96
13.453,-459.01
13.468,-430.95
13.484,-380.24
13.500,-315.58
13.515,-246.4
13.531,-182.98
13.546,-133.88
13.562,-92.86
13.578,-51.69
13.593,-4.45
13.609,50.98
13.625,113.5
13.640,172.92
13.656,218.59
13.671,239.34
13.687,228.97
13.703,190.14
13.718,133.19
13.734,73.38
13.750,25.51
13.765,-0.38
13.781,-2.92
13.796,12.41
13.812,34.7
13.828,53.03
13.843,60.68
13.859,55.45
13.875,39.06
13.890,14.99
13.906,-12.94
13.921,-42.12
13.937,-70.15
13.953,-95.45
13.968,-116.18
13.984,-129.41
14.000,-132.51
14.015,-123.57
14.031,-102.68
14.046,-72.39
14.062,-37.74
14.078,-4.13
14.093,23.9
14.109,44.13
14.125,56.82
14.140,62.53
14.156,60.66
14.171,48.52
14.187,22.78
14.203,-17.47
14.218,-67.57
14.234,-116.95
14.250,-151.72
14.265,-159.42
14.281,-134.41
14.296,-80.39
14.312,-9.8
14.328,59.93
14.343,111.48
14.359,132.49
14.375,118.99
14.390,76.51
14.406,18.82
14.421,-36.07
14.437,-71.11
14.453,-75.34
14.468,-46.91
14.484,8.22
14.500,78.84
14.515,152.24
14.531,216.96
14.546,263.62
14.562,284.52
14.578,274.59
14.593,232.89
14.609,164.43
14.625,81.73
14.640,1.08
14.656,-62.6
14.671,-100.59
14.687,-112.33
14.703,-104.42
14.718,-85.88
14.734,-65.18
14.750,-48.12
14.765,-35.4
14.781,-26.76
14.796,-22.89
14.812,-25.36
14.828,-34.51
14.843,-48.66
14.859,-62.12
14.875,-68.7
14.890,-64.05
14.906,-43.57
14.921,-7.01
14.937,41.03
14.953,93.42
14.968,144.2
14.984,189.43
15.000,230.26
15.015,268.47
15.031,304.75
15.046,342.72
15.062,383.81
15.078,426.02
15.093,465.36
15.109,499.1
15.125,525.75
15.140,548.64
15.156,570.67
15.171,564.5
15.187,515.25
15.203,427.67
15.218,322.96
15.234,222.7
15.250,149.19
15.265,96.19
15.281,58.64
15.296,34.26
15.312,22.29
15.328,25.73
15.343,45.76
15.359,77.12
15.375,108.15
15.390,125.39
15.406,117.05
15.421,80.79
15.437,20.89
15.453,-53.71
15.468,-129.28
15.484,-195.55
15.500,-249.51
15.515,-295.01
15.531,-337.88
15.546,-382.82
15.562,-428.37
15.578,-470.72
15.593,-505.72
15.609,-527.63
15.625,-531.62
15.640,-514.26
15.656,-473.83
15.671,-410.26
15.687,-327.08
15.703,-229.88
15.718,-127.82
15.734,-31.41
15.750,51.34
15.765,115.61
15.781,159.62
15.796,183.9
15.812,190.85
15.828,183.89
15.843,168.02
15.859,148.0
15.875,127.04
15.890,105.74
15.906,81.25
15.921,48.14
15.937,0.19
15.953,-66.86
15.968,-153.78
15.984,-256.42
16.000,-365.86
16.015,-469.7
16.031,-554.34
16.046,-608.5
16.062,-627.23
16.078,-615.06
16.093,-585.63
16.109,-557.06
16.125,-544.85
16.140,-555.12
16.156,-582.45
16.171,-613.29
16.187,-633.14
16.203,-633.25
16.218,-613.92
16.234,-582.4
16.250,-547.55
16.265,-514.84
16.281,-484.57
16.296,-453.81
16.312,-419.81
16.328,-382.71
16.343,-345.34
16.359,-311.29
16.375,-282.2
16.390,-256.58
16.406,-230.65
16.421,-200.38
16.437,-163.83
16.453,-122.17
16.468,-79.23
16.484,-39.68
16.500,-6.92
16.515,18.4
16.531,38.62
16.546,57.96
16.562,80.95
16.578,110.51
16.593,147.02
16.609,188.13
16.625,229.76
16.640,267.42
16.656,297.43
16.671,317.55
16.687,326.82
16.703,325.16
16.718,312.76
16.734,289.53
16.750,254.97
16.765,208.6
16.781,150.77
16.796,83.55
16.812,11.23
16.828,-59.84
16.843,-122.08
16.859,-167.83
16.875,-191.0
16.890,-188.3
16.906,-159.99
16.921,-109.7
16.937,-43.18
16.953,32.84
16.968,111.47
16.984,186.44
17.000,252.45
17.015,305.68
17.031,344.6
17.046,370.42
17.062,386.65
17.078,397.76
17.093,407.38
17.109,416.92
17.125,426.09
17.140,434.68
17.156,444.62
17.171,460.12
17.187,486.03
17.203,524.38
17.218,571.69
17.234,619.24
17.250,654.98
17.265,667.55
17.281,649.96
17.296,601.35
17.312,526.13
17.328,432.48
17.343,329.85
17.359,227.7
17.375,136.3
17.390,64.88
17.406,21.36
17.421,11.48
17.437,37.75
17.453,97.37
17.468,180.86
17.484,272.61
17.500,354.01
17.515,410.5
17.531,432.15
17.546,416.12
17.562,367.01
17.578,295.53
17.593,215.44
17.609,140.85
17.625,84.15
17.640,55.52
17.656,66.01
17.671,119.38
17.687,210.21
17.703,324.85
17.718,445.68
17.734,555.3
17.750,640.01
17.765,691.08
17.781,704.75
17.796,686.26
17.812,639.5
17.828,565.96
17.843,466.51
17.859,345.66
17.875,212.77
17.890,80.27
17.906,-40.27
17.921,-172.44
17.937,-317.04
17.953,-458.05
17.968,-572.59
17.984,-646.72
18.000,-679.7
18.015,-679.18
18.031,-654.78
18.046,-616.2
18.062,-572.02
18.078,-524.28
18.093,-476.48
18.109,-430.72
18.125,-391.55
18.140,-360.7
18.156,-336.44
18.171,-314.85
18.187,-293.06
18.203,-269.87
18.218,-241.73
18.234,-208.47
18.250,-172.95
18.265,-139.68
18.281,-112.41
18.296,-97.18
18.312,-96.42
18.328,-109.87
18.343,-134.5
18.359,-162.71
18.375,-187.77
18.390,-205.34
18.406,-213.75
18.421,-212.11
18.437,-199.45
18.453,-174.4
18.468,-137.55
18.484,-93.23
18.500,-48.74
18.515,-14.49
18.531,-0.49
18.546,-12.43
18.562,-48.59
18.578,-99.94
18.593,-152.74
18.609,-192.73
18.625,-208.49
18.640,-193.66
18.656,-148.46
18.671,-78.93
18.687,4.78
18.703,91.22
18.718,169.6
18.734,230.67
18.750,266.26
18.765,269.89
18.781,237.97
18.796,172.19
18.812,81.93
18.828,-15.58
18.843,-98.6
18.859,-147.73
18.875,-152.33
18.890,-114.33
18.906,-46.48
18.921,32.8
18.937,105.42
18.953,157.7
18.968,181.83
18.984,175.26
19.000,140.09
19.015,83.68
19.031,18.71
19.046,-38.34
19.062,-71.42
19.078,-69.75
19.093,-31.79
19.109,34.47
19.125,114.89
19.140,194.12
19.156,259.92
19.171,304.95
19.187,325.6
19.203,320.0
19.218,287.19
19.234,227.45
19.250,143.32
19.265,40.22
19.281,-74.0
19.296,-190.75
19.312,-302.45
19.328,-403.3
19.343,-488.67
19.359,-554.44
19.375,-596.73
19.390,-613.06
19.406,-604.19
19.421,-575.03
19.437,-534.09
19.453,-490.9
19.468,-452.57
19.484,-420.85
19.500,-391.54
19.515,-356.55
19.531,-307.46
19.546,-239.06
19.562,-151.29
19.578,-49.39
19.593,58.02
19.609,161.46
19.625,252.63
19.640,325.59
19.656,376.97
19.671,406.35
19.687,415.94
19.703,410.11
19.718,393.93
19.734,371.7
19.750,345.65
19.765,315.66
19.781,280.3
19.796,238.68
19.812,192.54
19.828,146.57
19.843,106.9
19.859,78.21
19.875,61.34
19.890,52.77
19.906,46.1
19.921,34.74
19.937,14.38
19.953,-15.6
19.968,-52.79
19.984,-93.32
20.000,-133.2
20.015,-168.54
20.031,-194.66
20.046,-205.47
20.062,-194.15
20.078,-155.62
20.093,-89.45
20.109,-1.94
20.125,94.42
20.140,184.07
20.156,252.73
20.171,291.21
20.187,296.41
20.203,270.27
20.218,217.68
20.234,145.13
20.250,60.62
20.265,-25.93
20.281,-103.16
20.296,-160.35
20.312,-190.34
20.328,-192.03
20.343,-170.4
20.359,-134.59
20.375,-95.33
20.390,-62.49
20.406,-43.36
20.421,-41.53
20.437,-55.74
20.453,-79.6
20.468,-102.48
20.484,-112.47
20.500,-100.27
20.515,-62.96
20.531,-5.17
20.546,63.13
20.562,130.77
20.578,189.66
20.593,236.68
20.609,272.99
20.625,301.36
20.640,323.53
20.656,338.8
20.671,344.48
20.687,337.63
20.703,316.51
20.718,281.64
20.734,235.59
20.750,182.12
20.765,125.13
20.781,67.77
20.796,12.16
20.812,-40.11
20.828,-87.63
20.843,-129.2
20.859,-164.06
20.875,-192.35
20.890,-214.98
20.906,-232.6
20.921,-244.46
20.937,-248.13
20.953,-240.33
20.968,-219.32
20.984,-187.2
21.000,-150.39
21.015,-117.84
21.031,-97.57
21.046,-93.21
21.062,-102.92
21.078,-120.91
21.093,-140.5
21.109,-157.08
21.125,-169.22
21.140,-178.01
21.156,-185.16
21.171,-191.29
21.187,-195.28
21.203,-195.32
21.218,-190.7
21.234,-183.63
21.250,-179.69
21.265,-186.47
21.281,-209.99
21.296,-250.99
21.312,-302.54
21.328,-351.16
21.343,-381.24
21.359,-380.93
21.375,-346.58
21.390,-283.7
21.406,-203.94
21.421,-119.88
21.437,-40.92
21.453,28.59
21.468,88.25
21.484,139.24
21.500,182.3
21.515,217.26
21.531,243.33
21.546,260.02
21.562,267.74
21.578,267.77
21.593,262.09
21.609,252.92
21.625,242.26
21.640,231.28
21.656,220.16
21.671,208.1
21.687,193.82
21.703,176.39
21.718,155.75
21.734,132.94
21.750,109.62
21.765,87.24
21.781,66.3
21.796,46.23
21.812,25.86
21.828,4.22
21.843,-18.46
21.859,-40.36
21.875,-58.61
21.890,-70.14
21.906,-72.85
21.921,-66.56
21.937,-53.12
21.953,-35.73
21.968,-17.97
21.984,-2.48
22.000,9.71
22.015,18.94
22.031,26.26
22.046,32.44
22.062,37.46
22.078,40.48
22.093,40.61
22.109,37.49
22.125,31.87
22.140,25.26
22.156,19.29
22.171,15.05
22.187,12.64
22.203,11.42
22.218,10.42
22.234,9.08
22.250,7.37
22.265,5.81
22.281,4.92
22.296,4.81
22.312,5.11
22.328,5.11
22.343,4.21
22.359,2.2
22.375,-0.75
22.390,-4.44
22.406,-8.93
22.421,-14.82
22.437,-22.81
22.453,-33.09
22.468,-44.88
22.484,-56.45
22.500,-65.71
22.515,-71.23
22.531,-72.91
22.546,-71.8
22.562,-69.56
22.578,-67.5
22.593,-66.0
22.609,-64.68
22.625,-62.85
22.640,-60.17
22.656,-56.92
22.671,-53.82
22.687,-51.56
22.703,-50.39
22.718,-50.15
22.734,-50.39
22.750,-50.6
22.765,-50.39
22.781,-49.42
22.796,-47.46
22.812,-44.43
22.828,-40.44
22.843,-35.73
22.859,-30.68
22.875,-25.54
22.890,-20.35
22.906,-14.81
22.921,-8.44
22.937,-0.86
22.953,7.89
22.968,17.38
22.984,27.05
23.000,36.58
23.015,46.23
23.031,56.56
23.046,68.05
23.062,80.52
23.078,93.12
23.093,104.59
23.109,113.87
23.125,120.56
23.140,124.89
23.156,127.53
23.171,128.94
23.187,129.36
23.203,128.84
23.218,127.7
23.234,126.5
23.250,125.9
23.265,126.37
23.281,127.88
23.296,129.79
23.312,130.81
23.328,129.55
23.343,124.89
23.359,116.79
23.375,106.58
23.390,96.77
23.406,90.16
23.421,88.74
23.437,92.96
23.453,101.64
23.468,112.98
23.484,125.58
23.500,138.97
23.515,153.16
23.531,167.72
23.546,181.23
23.562,191.45
23.578,196.26
23.593,194.39
23.609,185.58
23.625,169.95
23.640,147.34
23.656,116.98
23.671,77.87
23.687,29.93
23.703,-25.12
23.718,-83.3
23.734,-139.13
23.750,-186.97
23.765,-222.72
23.781,-244.74
23.796,-254.38
23.812,-255.35
23.828,-252.0
23.843,-247.36
23.859,-241.9
23.875,-233.73
23.890,-220.2
23.906,-199.85
23.921,-173.82
23.937,-145.7
23.953,-120.67
23.968,-103.99
23.984,-99.79
24.000,-109.84
24.015,-132.76
24.031,-163.28
24.046,-192.58
24.062,-209.97
24.078,-206.16
24.093,-177.08
24.109,-126.54
24.125,-65.66
24.140,-8.76
24.156,32.15
24.171,52.07
24.187,54.14
24.203,47.28
24.218,41.51
24.234,42.85
24.250,50.95
24.265,59.73
24.281,60.78
24.296,47.55
24.312,18.41
24.328,-22.28
24.343,-65.38
24.359,-99.66
24.375,-115.61
24.390,-108.37
24.406,-78.81
24.421,-32.99
24.437,20.38
24.453,72.66
24.468,117.41
24.484,150.94
24.500,171.62
24.515,178.21
24.531,169.08
24.546,142.37
24.562,96.97
24.578,34.07
24.593,-41.63
24.609,-122.14
24.625,-197.78
24.640,-259.35
24.656,-300.83
24.671,-320.72
24.687,-321.91
24.703,-310.0
24.718,-290.27
24.734,-265.24
24.750,-234.33
24.765,-195.5
24.781,-147.72
24.796,-92.78
24.812,-34.8
24.828,21.77
24.843,74.33
24.859,123.6
24.875,172.53
24.890,223.77
24.906,277.44
24.921,330.44
24.937,377.61
24.953,414.06
24.968,436.91
24.984,445.61
25.000,441.15
25.015,424.48
25.031,395.62
25.046,354.01
25.062,299.58
25.078,233.76
25.093,159.81
25.109,82.38
25.125,6.62
25.140,-62.47
25.156,-120.86
25.171,-165.92
25.187,-196.46
25.203,-212.96
25.218,-217.29
25.234,-212.28
25.250,-200.86
25.265,-185.46
25.281,-167.49
25.296,-147.46
25.312,-125.57
25.328,-101.92
25.343,-76.81
25.359,-50.51
25.375,-23.03
25.390,5.8
25.406,36.03
25.421,66.97
25.437,96.67
25.453,121.69
25.468,137.72
25.484,140.56
25.500,127.53
25.515,98.46
25.531,55.99
25.546,5.09
25.562,-47.89
25.578,-96.42
25.593,-134.8
25.609,-158.91
25.625,-166.42
25.640,-156.9
25.656,-131.41
25.671,-92.13
25.687,-41.9
25.703,16.17
25.718,78.92
25.734,142.94
25.750,204.37
25.765,258.77
25.781,301.44
25.796,327.9
25.812,334.54
25.828,319.09
25.843,280.97
25.859,221.76
25.875,145.36
25.890,58.1
25.906,-31.96
25.921,-116.4
25.937,-188.34
25.953,-243.92
25.968,-282.73
25.984,-306.68
26.000,-318.11
26.015,-318.37
26.031,-307.64
26.046,-286.4
26.062,-256.85
26.078,-223.47
26.093,-192.25
26.109,-168.6
26.125,-155.12
26.140,-150.9
26.156,-152.26
26.171,-154.24
26.187,-152.51
26.203,-144.45
26.218,-129.39
26.234,-108.45
26.250,-83.75
26.265,-57.5
26.281,-31.73
26.296,-7.75
26.312,13.98
26.328,33.83
26.343,53.16
26.359,74.07
26.375,98.69
26.390,127.89
26.406,160.49
26.421,193.2
26.437,221.87
26.453,243.38
26.468,256.91
26.484,264.11
26.500,267.39
26.515,267.56
26.531,261.94
26.546,244.58
26.562,209.15
26.578,153.21
26.593,80.71
26.609,1.11
26.625,-73.52
26.640,-132.77
26.656,-170.33
26.671,-184.76
26.687,-178.06
26.703,-153.46
26.718,-112.89
26.734,-57.71
26.750,8.9
26.765,80.22
26.781,145.89
26.796,196.05
26.812,224.05
26.828,228.11
26.843,211.16
26.859,179.78
26.875,140.92
26.890,98.17
26.906,50.95
26.921,-3.84
26.937,-65.57
26.953,-129.2
26.968,-186.91
26.984,-230.73
27.000,-254.52
27.015,-256.22
27.031,-240.09
27.046,-216.06
27.062,-197.21
27.078,-190.79
27.093,-198.18
27.109,-215.73
27.125,-235.61
27.140,-245.77
27.156,-232.4
27.171,-185.42
27.187,-102.87
27.203,6.77
27.218,132.76
27.234,262.04
27.250,380.98
27.265,466.65
27.281,495.01
27.296,460.27
27.312,381.8
27.328,301.74
27.343,231.74
27.359,172.93
27.375,122.76
27.390,76.09
27.406,29.86
27.421,-16.54
27.437,-60.05
27.453,-96.0
27.468,-120.98
27.484,-135.76
27.500,-140.14
27.515,-135.65
27.531,-126.8
27.546,-119.32
27.562,-117.0
27.578,-119.31
27.593,-123.4
27.609,-127.15
27.625,-131.64
27.640,-136.27
27.656,-139.28
27.671,-139.02
27.687,-134.6
27.703,-126.05
27.718,-113.52
27.734,-97.41
27.750,-78.69
27.765,-58.72
27.781,-35.96
27.796,-6.84
27.812,30.91
27.828,78.23
27.843,126.0
27.859,158.97
27.875,165.31
27.890,143.13
27.906,101.83
27.921,50.6
27.937,-2.2
27.953,-50.02
27.968,-89.65
27.984,-118.83
28.000,-138.33
28.015,-150.83
28.031,-159.75
28.046,-167.91
28.062,-175.85
28.078,-180.01
28.093,-173.44
28.109,-148.79
28.125,-102.32
28.140,-35.28
28.156,47.17
28.171,137.18
28.187,224.9
28.203,299.3
28.218,351.09
28.234,375.75
28.250,373.37
28.265,346.37
28.281,297.8
28.296,230.94
28.312,148.78
28.328,54.01
28.343,-51.24
28.359,-163.27
28.375,-274.11
28.390,-365.85
28.406,-416.19
28.421,-411.57
28.437,-356.92
28.453,-271.85
28.468,-177.52
28.484,-88.62
28.500,-11.95
28.515,52.44
28.531,107.79
28.546,155.71
28.562,194.1
28.578,221.77
28.593,241.6
28.609,259.69
28.625,281.92
28.640,298.72
28.656,303.92
28.671,292.46
28.687,261.6
28.703,211.92
28.718,148.15
28.734,78.11
28.750,10.0
28.765,-50.11
28.781,-98.91
28.796,-134.69
28.812,-156.28
28.828,-163.37
28.843,-157.7
28.859,-142.47
28.875,-121.32
28.890,-97.69
28.906,-75.08
28.921,-56.56
28.937,-42.66
28.953,-32.97
28.968,-26.8
28.984,-24.13
29.000,-25.54
29.015,-31.41
29.031,-41.43
29.046,-55.71
29.062,-74.86
29.078,-99.0
29.093,-128.27
29.109,-159.09
29.125,-185.94
29.140,-202.49
29.156,-204.33
29.171,-189.83
29.187,-160.92
29.203,-121.63
29.218,-76.35
29.234,-29.3
29.250,15.89
29.265,55.83
29.281,87.34
29.296,110.1
29.312,125.28
29.328,134.89
29.343,142.59
29.359,153.18
29.375,170.54
29.390,196.08
29.406,227.54
29.421,259.94
29.437,276.56
29.453,269.96
29.468,240.36
29.484,194.14
29.500,140.11
29.515,85.3
29.531,33.56
29.546,-14.56
29.562,-59.8
29.578,-102.45
29.593,-139.91
29.609,-169.13
29.625,-189.24
29.640,-198.71
29.656,-197.33
29.671,-186.54
29.687,-169.52
29.703,-150.75
29.718,-134.99
29.734,-124.35
29.750,-118.58
29.765,-114.86
29.781,-108.75
29.796,-96.65
29.812,-77.3
29.828,-52.1
29.843,-23.78
29.859,4.88
29.875,32.09
29.890,57.23
29.906,80.51
29.921,102.17
29.937,121.2
29.953,135.63
29.968,143.36
29.984,143.43
30.000,136.58
30.015,125.33
30.031,112.79
30.046,101.26
30.062,91.76
30.078,83.8
30.093,76.37
30.109,68.68
30.125,60.71
30.140,53.19
30.156,47.04
30.171,42.7
30.187,39.53
30.203,36.11
30.218,30.64
30.234,21.87
30.250,9.56
30.265,-5.46
30.281,-21.57
30.296,-37.02
30.312,-50.25
30.328,-60.37
30.343,-67.12
30.359,-70.74
30.375,-71.64
30.390,-70.34
30.406,-67.26
30.421,-62.75
30.437,-57.17
30.453,-50.79
30.468,-43.98
30.484,-37.23
30.500,-31.01
30.515,-25.67
30.531,-21.34
30.546,-17.9
30.562,-15.06
30.578,-12.56
30.593,-10.16
30.609,-7.63
30.625,-4.72
30.640,-1.07
30.656,3.74
30.671,10.05
30.687,17.92
30.703,27.11
30.718,37.05
30.734,47.01
30.750,56.27
30.765,64.26
30.781,70.65
30.796,75.34
30.812,78.58
30.828,80.75
30.843,82.35
30.859,83.83
30.875,85.54
30.890,87.62
30.906,89.97
30.921,92.33
30.937,94.29
30.953,95.47
30.968,95.56
30.984,94.29
31.000,91.35
31.015,86.31
31.031,78.7
31.046,68.1
31.062,54.36
31.078,37.84
31.093,19.27
31.109,-0.33
31.125,-19.94
31.140,-38.74
31.156,-56.21
31.171,-72.06
31.187,-86.1
31.203,-98.16
31.218,-108.07
31.234,-115.67
31.250,-120.92
31.265,-123.75
31.281,-124.07
31.296,-121.78
31.312,-116.87
31.328,-109.6
31.343,-100.52
31.359,-90.48
31.375,-80.4
31.390,-70.91
31.406,-62.32
31.421,-54.42
31.437,-46.82
31.453,-39.16
31.468,-31.38
31.484,-23.81
31.500,-16.95
31.515,-11.29
31.531,-6.87
31.546,-3.33
31.562,0.01
31.578,3.84
31.593,8.52
31.609,14.04
31.625,19.98
31.640,25.84
31.656,31.07
31.671,35.19
31.687,37.64
31.703,37.79
31.718,35.09
31.734,29.28
31.750,20.7
31.765,10.3
31.781,-0.52
31.796,-10.48
31.812,-18.71
31.828,-25.07
31.843,-29.97
31.859,-34.14
31.875,-38.14
31.890,-42.01
31.906,-45.24
31.921,-46.94
31.937,-46.21
31.953,-42.44
31.968,-35.56
31.984,-26.04
32.000,-14.64
32.015,-2.28
32.031,10.27
32.046,22.4
32.062,33.62
32.078,43.69
32.093,52.4
32.109,59.7
32.125,65.61
32.140,70.24
32.156,73.67
32.171,75.87
32.187,76.63
32.203,75.48
32.218,71.94
32.234,65.54
32.250,56.15
32.265,44.03
32.281,29.72
32.296,13.86
32.312,-3.02
32.328,-20.52
32.343,-38.16
32.359,-55.19
32.375,-70.53
32.390,-82.93
32.406,-91.56
32.421,-96.28
32.437,-97.73
32.453,-96.99
32.468,-94.92
32.484,-91.85
32.500,-87.43
32.515,-80.86
32.531,-71.27
32.546,-58.04
32.562,-40.98
32.578,-20.37
32.593,2.84
32.609,26.93
32.625,49.58
32.640,68.3
32.656,81.19
32.671,87.46
32.687,87.59
32.703,82.63
32.718,73.93
32.734,62.39
32.750,48.49
32.765,32.58
32.781,15.24
32.796,-2.45
32.812,-19.03
32.828,-33.13
32.843,-43.98
32.859,-51.4
32.875,-55.73
32.890,-57.65
32.906,-58.09
32.921,-58.46
32.937,-60.5
32.953,-65.8
32.968,-75.06
32.984,-87.64
33.000,-101.4
33.015,-113.36
33.031,-120.73
33.046,-122.08
33.062,-117.93
33.078,-110.34
33.093,-101.67
33.109,-93.52
33.125,-86.58
33.140,-80.38
33.156,-73.43
33.171,-63.47
33.187,-48.13
33.203,-25.5
33.218,5.51
33.234,45.24
33.250,92.85
33.265,144.88
33.281,195.76
33.296,238.89
33.312,268.24
33.328,279.6
33.343,271.35
33.359,245.11
33.375,205.69
33.390,159.83
33.406,112.8
33.421,67.99
33.437,27.51
33.453,-6.63
33.468,-32.3
33.484,-48.04
33.500,-53.52
33.515,-50.02
33.531,-40.51
33.546,-31.56
33.562,-31.1
33.578,-45.41
33.593,-76.9
33.609,-123.88
33.625,-181.97
33.640,-245.41
33.656,-308.15
33.671,-351.48
33.687,-358.64
33.703,-324.12
33.718,-258.57
33.734,-181.02
33.750,-106.52
33.765,-41.72
33.781,13.04
33.796,59.98
33.812,101.07
33.828,135.6
33.843,160.85
33.859,174.22
33.875,175.37
33.890,166.82
33.906,152.22
33.921,135.7
33.937,121.55
33.953,114.3
33.968,116.66
33.984,128.03
34.000,148.8
34.015,175.03
34.031,199.92
34.046,214.03
34.062,210.32
34.078,188.2
34.093,153.3
34.109,112.41
34.125,70.48
34.140,29.99
34.156,-9.21
34.171,-47.25
34.187,-83.47
34.203,-115.82
34.218,-143.5
34.234,-164.62
34.250,-179.17
34.265,-188.66
34.281,-194.98
34.296,-200.08
34.312,-204.13
34.328,-205.98
34.343,-203.6
34.359,-194.88
34.375,-178.42
34.390,-154.65
34.406,-125.69
34.421,-92.12
34.437,-56.93
34.453,-22.91
34.468,7.84
34.484,34.4
34.500,56.76
34.515,75.55
34.531,91.25
34.546,104.01
34.562,113.85
34.578,120.55
34.593,124.62
34.609,127.13
34.625,129.39
34.640,132.33
34.656,136.19
34.671,140.27
34.687,143.3
34.703,143.94
34.718,140.92
34.734,133.81
34.750,122.98
34.765,109.39
34.781,94.23
34.796,78.62
34.812,63.35
34.828,48.91
34.843,35.63
34.859,23.64
34.875,13.13
34.890,4.38
34.906,-2.43
34.921,-7.26
34.937,-10.23
34.953,-11.59
34.968,-11.67
34.984,-10.82
35.000,-9.49
35.015,-8.22
35.031,-7.79
35.046,-8.9
35.062,-12.19
35.078,-17.91
35.093,-25.79
35.109,-35.28
35.125,-45.74
35.140,-56.72
35.156,-68.06
35.171,-79.68
35.187,-91.33
35.203,-102.44
35.218,-112.16
35.234,-119.49
35.250,-123.82
35.265,-125.08
35.281,-123.64
35.296,-119.97
35.312,-114.32
35.328,-106.45
35.343,-95.96
35.359,-82.55
35.375,-66.45
35.390,-48.58
35.406,-30.48
35.421,-13.93
35.437,-0.52
35.453,8.83
35.468,14.03
35.484,15.74
35.500,15.18
35.515,13.63
35.531,11.98
35.546,10.66
35.562,9.63
35.578,8.63
35.593,7.52
35.609,6.48
35.625,5.92
35.640,6.47
35.656,8.6
35.671,12.35
35.687,17.37
35.703,23.02
35.718,28.53
35.734,33.24
35.750,36.7
35.765,38.87
35.781,40.17
35.796,41.59
35.812,44.72
35.828,51.85
35.843,65.6
35.859,87.89
35.875,118.63
35.890,154.73
35.906,190.49
35.921,219.21
35.937,235.49
35.953,236.87
35.968,224.14
35.984,200.11
36.000,167.87
36.015,129.69
36.031,86.98
36.046,41.31
36.062,-4.87
36.078,-48.37
36.093,-86.47
36.109,-118.04
36.125,-143.81
36.140,-165.14
36.156,-182.4
36.171,-194.1
36.187,-197.29
36.203,-189.1
36.218,-168.45
36.234,-136.82
36.250,-98.03
36.265,-57.0
36.281,-18.27
36.296,14.92
36.312,40.9
36.328,59.42
36.343,71.19
36.359,77.6
36.375,80.39
36.390,81.24
36.406,81.37
36.421,81.37
36.437,81.36
36.453,81.29
36.468,81.28
36.484,81.48
36.500,81.84
36.515,81.79
36.531,80.23
36.546,75.87
36.562,67.76
36.578,55.73
36.593,40.54
36.609,23.48
36.625,5.97
36.640,-10.7
36.656,-25.43
36.671,-37.08
36.687,-44.6
36.703,-47.21
36.718,-44.94
36.734,-38.8
36.750,-30.66
36.765,-22.71
36.781,-16.53
36.796,-12.7
36.812,-10.67
36.828,-9.33
36.843,-7.48
36.859,-4.49
36.875,-0.28
36.890,4.67
36.906,9.73
36.921,14.24
36.937,17.76
36.953,19.93
36.968,20.56
36.984,19.65
37.000,17.52
37.015,14.84
37.031,12.27
37.046,10.37
37.062,9.25
37.078,8.76
37.093,8.37
37.109,7.48
37.125,5.51
37.140,2.23
37.156,-2.3
37.171,-7.97
37.187,-14.77
37.203,-23.17
37.218,-33.84
37.234,-47.65
37.250,-65.37
37.265,-87.16
37.281,-111.99
37.296,-137.72
37.312,-161.45
37.328,-180.16
37.343,-191.56
37.359,-194.22
37.375,-188.18
37.390,-174.85
37.406,-156.62
37.421,-135.69
37.437,-114.14
37.453,-93.75
37.468,-75.93
37.484,-61.96
37.500,-52.02
37.515,-45.85
37.531,-42.95
37.546,-42.57
37.562,-42.52
37.578,-40.53
37.593,-35.07
37.609,-25.94
37.625,-14.77
37.640,-2.61
37.656,9.53
37.671,20.81
37.687,30.95
37.703,41.83
37.718,55.42
37.734,72.6
37.750,92.75
37.765,113.48
37.781,134.55
37.796,155.99
37.812,177.47
37.828,198.26
37.843,219.69
37.859,243.25
37.875,269.74
37.890,298.74
37.906,327.46
37.921,355.2
37.937,381.09
37.953,403.68
37.968,407.43
37.984,382.68
38.000,330.71
38.015,263.03
38.031,201.96
38.046,147.1
38.062,94.08
38.078,39.39
38.093,-19.2
38.109,-79.72
38.125,-137.03
38.140,-187.13
38.156,-228.8
38.171,-263.29
38.187,-293.68
38.203,-319.08
38.218,-336.96
38.234,-345.09
38.250,-342.77
38.265,-330.09
38.281,-309.3
38.296,-284.44
38.312,-260.08
38.328,-240.68
38.343,-226.53
38.359,-216.13
38.375,-207.89
38.390,-200.69
38.406,-193.28
38.421,-185.06
38.437,-176.31
38.453,-168.24
38.468,-163.05
38.484,-161.11
38.500,-161.69
38.515,-163.2
38.531,-163.2
38.546,-158.51
38.562,-146.32
38.578,-125.41
38.593,-96.75
38.609,-63.88
38.625,-31.07
38.640,-2.68
38.656,17.91
38.671,29.44
38.687,33.3
38.703,33.07
38.718,33.21
38.734,37.71
38.750,48.76
38.765,66.74
38.781,90.14
38.796,116.43
38.812,142.84
38.828,166.95
38.843,187.15
38.859,202.58
38.875,213.05
38.890,218.8
38.906,220.34
38.921,218.24
38.937,213.09
38.953,205.44
38.968,195.57
38.984,183.54
39.000,169.26
39.015,152.61
39.031,133.53
39.046,112.11
39.062,88.64
39.078,63.79
39.093,38.62
39.109,14.38
39.125,-7.53
39.140,-26.1
39.156,-40.7
39.171,-51.26
39.187,-58.22
39.203,-62.15
39.218,-63.65
39.234,-63.18
39.250,-61.2
39.265,-58.13
39.281,-54.48
39.296,-50.67
39.312,-46.89
39.328,-43.19
39.343,-39.33
39.359,-35.11
39.375,-30.31
39.390,-24.89
39.406,-18.91
39.421,-12.48
39.437,-5.74
39.453,1.2
39.468,8.17
39.484,15.18
39.500,22.16
39.515,29.03
39.531,35.47
39.546,40.86
39.562,44.19
39.578,44.47
39.593,41.07
39.609,33.91
39.625,23.4
39.640,10.2
39.656,-4.92
39.671,-20.76
39.687,-35.63
39.703,-47.17
39.718,-53.01
39.734,-51.68
39.750,-43.47
39.765,-30.58
39.781,-16.37
39.796,-4.0
39.812,4.77
39.828,9.81
39.843,11.98
39.859,12.01
39.875,9.83
39.890,4.69
39.906,-4.07
39.921,-16.32
39.937,-30.77
39.953,-45.61
39.968,-59.24
39.984,-70.88
40.000,-80.7
40.015,-89.28
40.031,-96.92
40.046,-103.23
40.062,-107.16
40.078,-107.27
40.093,-102.31
40.109,-91.37
40.125,-74.17
40.140,-51.03
40.156,-22.82
40.171,9.13
40.187,43.32
40.203,78.29
40.218,112.92
40.234,146.2
40.250,176.94
40.265,203.42
40.281,223.28
40.296,234.07
40.312,234.17
40.328,223.65
40.343,204.53
40.359,180.2
40.375,154.13
40.390,128.66
40.406,104.54
40.421,81.31
40.437,58.34
40.453,35.61
40.468,14.08
40.484,-4.88
40.500,-20.28
40.515,-32.05
40.531,-41.14
40.546,-48.89
40.562,-56.28
40.578,-63.42
40.593,-69.5
40.609,-73.31
40.625,-73.83
40.640,-70.73
40.656,-64.49
40.671,-55.96
40.687,-46.14
40.703,-35.69
40.718,-24.82
40.734,-13.33
40.750,-0.83
40.765,13.25
40.781,29.55
40.796,48.74
40.812,71.32
40.828,96.96
40.843,123.86
40.859,148.38
40.875,165.6
40.890,170.62
40.906,160.3
40.921,134.49
40.937,96.24
40.953,50.74
40.968,3.66
40.984,-40.33
41.000,-78.46
41.015,-109.54
41.031,-133.42
41.046,-150.31
41.062,-160.48
41.078,-164.15
41.093,-161.5
41.109,-152.81
41.125,-138.47
41.140,-119.3
41.156,-96.71
41.171,-72.69
41.187,-49.7
41.203,-30.24
41.218,-16.45
41.234,-9.53
41.250,-9.49
41.265,-14.86
41.281,-22.89
41.296,-29.94
41.312,-32.35
41.328,-27.42
41.343,-14.17
41.359,6.38
41.375,31.8
41.390,58.84
41.406,84.42
41.421,106.07
41.437,122.62
41.453,134.06
41.468,141.19
41.484,144.95
41.500,145.93
41.515,144.24
41.531,139.01
41.546,129.16
41.562,113.49
41.578,92.12
41.593,66.85
41.609,40.49
41.625,15.44
41.640,-6.9
41.656,-26.26
41.671,-43.44
41.687,-59.02
41.703,-73.65
41.718,-86.95
41.734,-98.08
41.750,-106.89
41.765,-114.97
41.781,-124.58
41.796,-136.59
41.812,-149.92
41.828,-160.4
41.843,-163.35
41.859,-154.22
41.875,-129.75
41.890,-89.2
41.906,-34.49
41.921,31.15
41.937,104.64
41.953,182.27
41.968,260.58
41.984,326.53
42.000,363.35
42.015,361.56
42.031,326.6
42.046,274.15
42.062,220.36
42.078,179.84
42.093,152.91
42.109,137.93
42.125,132.25
42.140,133.67
42.156,139.99
42.171,148.51
42.187,155.09
42.203,155.55
42.218,147.53
42.234,130.46
42.250,107.12
42.265,81.31
42.281,57.91
42.296,41.69
42.312,35.1
42.328,36.15
42.343,38.73
42.359,34.7
42.375,16.47
42.390,-18.74
42.406,-68.71
42.421,-126.18
42.437,-181.42
42.453,-225.89
42.468,-255.11
42.484,-268.72
42.500,-268.85
42.515,-258.52
42.531,-239.41
42.546,-212.66
42.562,-178.92
42.578,-139.3
42.593,-95.62
42.609,-50.95
42.625,-8.66
42.640,28.43
42.656,58.51
42.671,81.76
42.687,99.6
42.703,114.61
42.718,129.45
42.734,145.75
42.750,162.82
42.765,177.72
42.781,186.07
42.796,183.45
42.812,167.06
42.828,135.91
42.843,91.9
42.859,38.72
42.875,-19.3
42.890,-79.82
42.906,-142.22
42.921,-207.09
42.937,-274.98
42.953,-345.43
42.968,-417.96
42.984,-489.89
43.000,-556.21
43.015,-609.06
43.031,-640.6
43.046,-643.84
43.062,-615.83
43.078,-560.85
43.093,-491.33
43.109,-427.94
43.125,-390.27
43.140,-389.6
43.156,-423.77
43.171,-480.37
43.187,-539.97
43.203,-583.35
43.218,-597.48
43.234,-577.9
43.250,-530.32
43.265,-462.53
43.281,-381.14
43.296,-289.56
43.312,-193.13
43.328,-98.39
43.343,-13.45
43.359,53.45
43.375,111.94
43.390,160.0
43.406,191.19
43.421,192.23
43.437,170.82
43.453,135.81
43.468,95.66
43.484,53.62
43.500,11.21
43.515,-27.83
43.531,-61.9
43.546,-87.96
43.562,-102.82
43.578,-103.2
43.593,-90.3
43.609,-67.49
43.625,-39.52
43.640,-10.67
43.656,20.41
43.671,53.53
43.687,88.54
43.703,124.33
43.718,160.36
43.734,194.71
43.750,226.02
43.765,253.34
43.781,276.4
43.796,302.81
43.812,337.16
43.828,380.22
43.843,428.27
43.859,476.85
43.875,521.97
43.890,562.06
43.906,597.11
43.921,628.15
43.937,666.2
43.953,718.29
43.968,784.55
43.984,857.91
44.000,929.12
44.015,990.61
44.031,1038.41
44.046,1070.4
44.062,1033.02
44.078,900.37
44.093,682.42
44.109,421.73
44.125,164.8
44.140,-60.53
44.156,-247.15
44.171,-399.84
44.187,-523.44
44.203,-631.69
44.218,-721.02
44.234,-783.92
44.250,-815.55
44.265,-816.99
44.281,-793.39
44.296,-751.06
44.312,-691.8
44.328,-621.44
44.343,-547.87
44.359,-470.48
44.375,-389.59
44.390,-308.97
44.406,-236.11
44.421,-178.94
44.437,-142.18
44.453,-126.28
44.468,-129.02
44.484,-146.07
44.500,-166.93
44.515,-183.35
44.531,-191.5
44.546,-192.33
44.562,-188.72
44.578,-182.46
44.593,-173.37
44.609,-160.7
44.625,-143.53
44.640,-118.67
44.656,-84.71
44.671,-42.75
44.687,4.11
44.703,52.25
44.718,99.34
44.734,144.77
44.750,188.83
44.765,232.22
44.781,276.23
44.796,320.5
44.812,362.66
44.828,398.99
44.843,425.76
44.859,440.89
44.875,444.96
44.890,440.5
44.906,431.15
44.921,420.3
44.937,409.66
44.953,399.15
44.968,387.34
44.984,372.07
45.000,351.01
45.015,322.16
45.031,284.1
45.046,236.78
45.062,181.72
45.078,121.92
45.093,61.49
45.109,4.83
45.125,-44.28
45.140,-82.99
45.156,-109.41
45.171,-122.39
45.187,-121.36
45.203,-107.13
45.218,-82.84
45.234,-54.3
45.250,-29.17
45.265,-15.21
45.281,-17.54
45.296,-36.85
45.312,-69.27
45.328,-107.73
45.343,-144.58
45.359,-174.15
45.375,-193.83
45.390,-203.74
45.406,-205.54
45.421,-200.63
45.437,-189.6
45.453,-172.74
45.468,-150.88
45.484,-126.06
45.500,-101.54
45.515,-80.77
45.531,-66.41
45.546,-59.32
45.562,-58.02
45.578,-59.37
45.593,-59.57
45.609,-55.5
45.625,-45.5
45.640,-29.59
45.656,-9.22
45.671,13.46
45.687,36.2
45.703,57.18
45.718,74.99
45.734,88.62
45.750,97.21
45.765,100.06
45.781,96.75
45.796,87.34
45.812,72.64
45.828,54.09
45.843,33.41
45.859,12.22
45.875,-8.06
45.890,-26.43
45.906,-42.32
45.921,-55.59
45.937,-66.33
45.953,-74.57
45.968,-80.02
45.984,-82.05
46.000,-79.92
46.015,-72.72
46.031,-60.0
46.046,-41.94
46.062,-19.56
46.078,5.59
46.093,31.74
46.109,57.15
46.125,80.36
46.140,100.22
46.156,116.66
46.171,129.86
46.187,139.93
46.203,146.75
46.218,150.2
46.234,150.37
46.250,147.69
46.265,142.85
46.281,136.58
46.296,130.95
46.312,127.46
46.328,126.32
46.343,126.51
46.359,126.43
46.375,124.87
46.390,121.21
46.406,115.55
46.421,108.18
46.437,101.87
46.453,98.65
46.468,98.75
46.484,100.58
46.500,101.97
46.515,101.43
46.531,98.52
46.546,93.75
46.562,87.59
46.578,83.48
46.593,83.59
46.609,87.86
46.625,94.11
46.640,99.63
46.656,102.74
46.671,102.89
46.687,100.49
46.703,78.86
46.718,30.72
46.734,-39.34
46.750,-116.02
46.765,-183.32
46.781,-232.7
46.796,-263.71
46.812,-280.4
46.828,-286.16
46.843,-286.83
46.859,-283.06
46.875,-274.76
46.890,-262.61
46.906,-248.34
46.921,-233.42
46.937,-217.93
46.953,-202.44
46.968,-186.78
46.984,-171.72
47.000,-156.05
47.015,-139.5
47.031,-122.8
47.046,-107.43
47.062,-94.57
47.078,-84.56
47.093,-77.21
47.109,-71.88
47.125,-68.22
47.140,-63.89
47.156,-56.64
47.171,-45.27
47.187,-30.07
47.203,-12.02
47.218,7.97
47.234,29.4
47.250,52.24
47.265,76.33
47.281,101.77
47.296,127.46
47.312,150.65
47.328,167.47
47.343,174.6
47.359,170.82
47.375,157.66
47.390,138.79
47.406,118.04
47.421,98.08
47.437,79.38
47.453,60.86
47.468,41.27
47.484,20.63
47.500,0.33
47.515,-17.76
47.531,-32.56
47.546,-44.42
47.562,-54.3
47.578,-62.69
47.593,-68.71
47.609,-70.33
47.625,-65.52
47.640,-53.39
47.656,-34.4
47.671,-9.92
47.687,17.98
47.703,46.75
47.718,73.52
47.734,95.17
47.750,108.9
47.765,112.82
47.781,106.56
47.796,91.19
47.812,68.77
47.828,41.85
47.843,13.13
47.859,-14.7
47.875,-38.85
47.890,-57.0
47.906,-67.92
47.921,-71.85
47.937,-70.46
47.953,-66.24
47.968,-61.51
47.984,-57.61
48.000,-54.88
48.015,-52.9
48.031,-51.34
48.046,-50.06
48.062,-49.26
48.078,-48.93
48.093,-48.77
48.109,-48.12
48.125,-46.04
48.140,-41.76
48.156,-35.05
48.171,-26.37
48.187,-16.74
48.203,-7.58
48.218,-0.16
48.234,4.85
48.250,7.65
48.265,9.24
48.281,11.17
48.296,14.88
48.312,21.17
48.328,29.79
48.343,39.38
48.359,47.65
48.375,51.94
48.390,49.93
48.406,40.22
48.421,22.66
48.437,-1.51
48.453,-30.17
48.468,-60.88
48.484,-91.39
48.500,-119.56
48.515,-143.13
48.531,-159.43
48.546,-165.48
48.562,-159.14
48.578,-140.06
48.593,-110.43
48.609,-74.65
48.625,-37.92
48.640,-4.53
48.656,23.13
48.671,44.68
48.687,60.98
48.703,72.72
48.718,79.84
48.734,81.76
48.750,77.85
48.765,68.31
48.781,54.33
48.796,37.84
48.812,20.81
48.828,4.73
48.843,-9.65
48.859,-21.99
48.875,-32.25
48.890,-40.55
48.906,-47.26
48.921,-52.97
48.937,-58.22
48.953,-63.17
48.968,-67.39
48.984,-70.04
49.000,-70.04
49.015,-66.84
49.031,-60.73
49.046,-52.85
49.062,-44.77
49.078,-37.88
49.093,-32.8
49.109,-29.33
49.125,-26.64
49.140,-23.52
49.156,-18.79
49.171,-11.48
49.187,-0.99
49.203,12.76
49.218,29.37
49.234,47.98
49.250,67.61
49.265,87.23
49.281,106.08
49.296,123.52
49.312,139.06
49.328,152.14
49.343,162.15
49.359,168.42
49.375,170.45
49.390,168.13
49.406,161.73
49.421,151.85
49.437,139.13
49.453,124.17
49.468,107.41
49.484,89.4
49.500,71.08
49.515,53.77
49.531,38.99
49.546,28.06
49.562,21.58
49.578,19.28
49.593,20.14
49.609,22.42
49.625,23.97
49.640,23.04
49.656,18.99
49.671,12.94
49.687,7.51
49.703,5.68
49.718,9.24
49.734,17.47
49.750,27.09
49.765,33.54
49.781,33.2
49.796,25.15
49.812,11.46
49.828,-4.25
49.843,-18.75
49.859,-30.56
49.875,-39.86
49.890,-47.54
49.906,-54.0
49.921,-58.45
49.937,-59.33
49.953,-55.14
49.968,-45.16
49.984,-29.76
50.000,-10.35
50.015,10.83
50.031,30.99
50.046,47.28
50.062,57.34
50.078,59.9
50.093,54.97
50.109,43.95
50.125,29.03
50.140,12.51
50.156,-3.7
50.171,-18.34
50.187,-30.59
50.203,-39.76
50.218,-44.9
50.234,-44.81
50.250,-38.36
50.265,-25.0
50.281,-5.34
50.296,18.74
50.312,44.37
50.328,68.12
50.343,86.75
50.359,97.83
50.375,100.11
50.390,93.39
50.406,78.33
50.421,56.13
50.437,28.33
50.453,-3.73
50.468,-39.29
50.484,-78.46
50.500,-122.11
50.515,-171.05
50.531,-225.27
50.546,-282.85
50.562,-339.6
50.578,-389.37
50.593,-425.36
50.609,-441.86
50.625,-435.87
50.640,-407.91
50.656,-361.64
50.671,-302.84
50.687,-237.94
50.703,-172.82
50.718,-112.01
50.734,-58.29
50.750,-12.81
50.765,24.77
50.781,55.66
50.796,81.65
50.812,104.68
50.828,126.15
50.843,146.33
50.859,164.07
50.875,177.44
50.890,184.65
50.906,185.28
50.921,180.85
50.937,174.79
50.953,171.28
50.968,173.67
50.984,183.36
51.000,199.01
51.015,217.17
51.031,233.26
51.046,243.23
51.062,245.32
51.078,241.28
51.093,236.31
51.109,237.39
51.125,250.14
51.140,275.2
51.156,306.72
51.171,333.21
51.187,341.65
51.203,322.7
51.218,274.45
51.234,202.94
51.250,119.24
51.265,34.8
51.281,-42.3
51.296,-108.51
51.312,-163.38
51.328,-207.21
51.343,-239.19
51.359,-257.53
51.375,-260.93
51.390,-250.25
51.406,-229.25
51.421,-203.88
51.437,-180.18
51.453,-162.19
51.468,-150.7
51.484,-143.36
51.500,-136.39
51.515,-126.54
51.531,-112.64
51.546,-96.23
51.562,-80.54
51.578,-68.92
51.593,-63.18
51.609,-62.76
51.625,-65.22
51.640,-67.57
51.656,-67.79
51.671,-65.56
51.687,-62.32
51.703,-60.25
51.718,-61.11
51.734,-65.35
51.750,-71.7
51.765,-77.7
51.781,-80.78
51.796,-79.2
51.812,-72.71
51.828,-62.41
51.843,-50.01
51.859,-37.07
51.875,-24.54
51.890,-12.45
51.906,-0.23
51.921,12.71
51.937,26.43
51.953,40.3
51.968,53.3
51.984,64.66
52.000,74.25
52.015,82.42
52.031,89.63
52.046,95.84
52.062,100.08
52.078,100.64
52.093,95.72
52.109,84.4
52.125,67.32
52.140,46.3
52.156,23.29
52.171,-0.24
52.187,-23.57
52.203,-46.45
52.218,-68.65
52.234,-89.97
52.250,-109.5
52.265,-125.78
52.281,-137.04
52.296,-142.06
52.312,-139.98
52.328,-130.42
52.343,-114.02
52.359,-92.94
52.375,-71.47
52.390,-53.56
52.406,-41.45
52.421,-34.8
52.437,-32.54
52.453,-32.97
52.468,-34.71
52.484,-37.54
52.500,-42.7
52.515,-53.63
52.531,-72.54
52.546,-99.45
52.562,-131.4
52.578,-165.24
52.593,-196.64
52.609,-220.48
52.625,-231.87
52.640,-227.88
52.656,-210.33
52.671,-182.06
52.687,-145.64
52.703,-101.8
52.718,-52.37
52.734,1.14
52.750,57.16
52.765,113.37
52.781,177.87
52.796,246.82
52.812,308.54
52.828,343.99
52.843,350.71
52.859,329.58
52.875,283.48
52.890,216.48
52.906,136.41
52.921,54.24
52.937,-20.41
52.953,-79.53
52.968,-118.88
52.984,-138.01
53.000,-141.86
53.015,-136.25
53.031,-125.28
53.046,-110.72
53.062,-93.38
53.078,-75.6
53.093,-59.11
53.109,-44.13
53.125,-28.62
53.140,-11.3
53.156,8.41
53.171,29.75
53.187,50.76
53.203,68.48
53.218,79.07
53.234,80.26
53.250,72.16
53.265,57.32
53.281,38.87
53.296,20.41
53.312,5.55
53.328,-2.78
53.343,-3.23
53.359,3.24
53.375,14.41
53.390,27.75
53.406,41.21
53.421,53.01
53.437,62.07
53.453,68.05
53.468,71.07
53.484,71.49
53.500,69.56
53.515,65.81
53.531,61.16
53.546,56.89
53.562,54.12
53.578,53.73
53.593,56.15
53.609,61.26
53.625,68.45
53.640,76.63
53.656,84.39
53.671,90.21
53.687,92.74
53.703,91.05
53.718,84.96
53.734,75.21
53.750,63.19
53.765,50.77
53.781,39.54
53.796,30.19
53.812,22.14
53.828,13.89
53.843,3.9
53.859,-8.35
53.875,-21.9
53.890,-34.89
53.906,-45.55
53.921,-53.32
53.937,-59.25
53.953,-65.68
53.968,-75.0
53.984,-88.49
54.000,-105.51
54.015,-123.63
54.031,-139.68
54.046,-150.7
54.062,-154.73
54.078,-151.04
54.093,-139.96
54.109,-122.64
54.125,-100.86
54.140,-76.69
54.156,-52.33
54.171,-30.39
54.187,-12.99
54.203,-0.86
54.218,7.32
54.234,14.75
54.250,25.3
54.265,41.8
54.281,64.68
54.296,91.79
54.312,118.39
54.328,139.59
54.343,152.82
54.359,158.53
54.375,159.52
54.390,159.0
54.406,159.39
54.421,161.85
54.437,166.44
54.453,171.05
54.468,172.92
54.484,170.03
54.500,161.43
54.515,146.92
54.531,126.12
54.546,99.03
54.562,66.39
54.578,29.32
54.593,-13.08
54.609,-62.7
54.625,-120.46
54.640,-185.1
54.656,-253.7
54.671,-323.29
54.687,-391.54
54.703,-456.65
54.718,-501.92
54.734,-511.01
54.750,-476.74
54.765,-405.66
54.781,-312.87
54.796,-213.12
54.812,-117.15
54.828,-32.0
54.843,38.0
54.859,91.9
54.875,131.22
54.890,156.32
54.906,168.8
54.921,172.65
54.937,172.87
54.953,173.68
54.968,177.98
54.984,188.01
55.000,200.62
55.015,213.18
55.031,222.63
55.046,227.49
55.062,228.74
55.078,229.01
55.093,230.63
55.109,234.08
55.125,236.76
55.140,233.1
55.156,215.82
55.171,178.5
55.187,119.93
55.203,45.78
55.218,-32.79
55.234,-102.82
55.250,-153.51
55.265,-178.72
55.281,-177.66
55.296,-153.68
55.312,-112.96
55.328,-62.16
55.343,-7.44
55.359,45.43
55.375,90.87
55.390,123.65
55.406,139.88
55.421,137.76
55.437,118.05
55.453,83.13
55.468,36.58
55.484,-17.5
55.500,-75.08
55.515,-131.98
55.531,-183.61
55.546,-224.98
55.562,-251.3
55.578,-258.99
55.593,-247.39
55.609,-218.98
55.625,-178.75
55.640,-132.7
55.656,-86.03
55.671,-41.76
55.687,-0.44
55.703,38.87
55.718,77.15
55.734,113.97
55.750,147.14
55.765,173.49
55.781,190.29
55.796,196.6
55.812,193.66
55.828,184.34
55.843,171.8
55.859,158.19
55.875,144.29
55.890,129.91
55.906,114.87
55.921,99.56
55.937,84.98
55.953,72.11
55.968,61.25
55.984,51.82
56.000,42.62
56.015,32.46
56.031,20.78
56.046,7.97
56.062,-4.94
56.078,-16.71
56.093,-26.46
56.109,-33.9
56.125,-39.3
56.140,-43.15
56.156,-45.92
56.171,-47.86
56.187,-49.08
56.203,-49.76
56.218,-50.15
56.234,-50.58
56.250,-51.22
56.265,-52.06
56.281,-52.98
56.296,-53.82
56.312,-54.5
56.328,-54.96
56.343,-54.93
56.359,-53.92
56.375,-51.27
56.390,-46.47
56.406,-39.38
56.421,-30.46
56.437,-20.56
56.453,-10.48
56.468,-0.68
56.484,8.9
56.500,18.88
56.515,30.0
56.531,42.74
56.546,57.07
56.562,72.16
56.578,86.78
56.593,99.51
56.609,109.2
56.625,115.05
56.640,116.87
56.656,114.7
56.671,108.59
56.687,98.53
56.703,84.4
56.718,66.25
56.734,44.44
56.750,19.69
56.765,-7.02
56.781,-34.48
56.796,-61.46
56.812,-86.82
56.828,-109.43
56.843,-128.47
56.859,-143.52
56.875,-154.71
56.890,-162.74
56.906,-168.55
56.921,-172.87
56.937,-175.77
56.953,-176.45
56.968,-173.29
56.984,-164.41
57.000,-148.28
57.015,-124.54
57.031,-94.21
57.046,-59.66
57.062,-23.97
57.078,9.74
57.093,38.8
57.109,61.32
57.125,76.26
57.140,83.26
57.156,82.47
57.171,74.38
57.187,59.87
57.203,40.19
57.218,16.59
57.234,-9.98
57.250,-39.07
57.265,-70.03
57.281,-101.65
57.296,-132.05
57.312,-159.07
57.328,-180.75
57.343,-195.68
57.359,-203.5
57.375,-204.77
57.390,-200.73
57.406,-192.17
57.421,-179.28
57.437,-162.16
57.453,-141.36
57.468,-118.26
57.484,-94.47
57.500,-71.23
57.515,-48.91
57.531,-26.97
57.546,-3.47
57.562,23.91
57.578,56.48
57.593,93.69
57.609,133.24
57.625,172.53
57.640,209.54
57.656,244.2
57.671,272.88
57.687,290.84
57.703,294.92
57.718,285.34
57.734,265.2
57.750,238.89
57.765,211.98
57.781,187.17
57.796,164.65
57.812,143.43
57.828,122.77
57.843,102.5
57.859,82.24
57.875,63.39
57.890,45.85
57.906,29.72
57.921,15.23
57.937,0.23
57.953,-17.97
57.968,-40.93
57.984,-68.14
58.000,-97.43
58.015,-125.6
58.031,-149.87
58.046,-167.71
58.062,-178.85
58.078,-188.87
58.093,-204.95
58.109,-231.92
58.125,-269.89
58.140,-314.99
58.156,-361.68
58.171,-405.41
58.187,-442.43
58.203,-453.76
58.218,-428.73
58.234,-368.62
58.250,-286.58
58.265,-198.5
58.281,-114.5
58.296,-37.36
58.312,33.67
58.328,99.1
58.343,163.34
58.359,224.47
58.375,279.17
58.390,325.88
58.406,366.0
58.421,402.24
58.437,437.05
58.453,463.08
58.468,475.19
58.484,470.64
58.500,447.11
58.515,406.19
58.531,352.98
58.546,294.4
58.562,236.43
58.578,182.72
58.593,134.85
58.609,94.53
58.625,62.67
58.640,36.4
58.656,10.95
58.671,-19.04
58.687,-57.05
58.703,-102.87
58.718,-152.15
58.734,-197.76
58.750,-231.6
58.765,-248.52
58.781,-249.35
58.796,-238.85
58.812,-223.23
58.828,-207.36
58.843,-193.65
58.859,-182.39
58.875,-172.9
58.890,-163.68
58.906,-152.85
58.921,-138.52
58.937,-118.31
58.953,-90.28
58.968,-53.58
58.984,-9.29
59.000,39.15
59.015,86.08
59.031,124.86
59.046,149.45
59.062,155.91
59.078,143.86
59.093,116.47
59.109,80.15
59.125,43.32
59.140,13.67
59.156,-4.49
59.171,-11.3
59.187,-10.44
59.203,-7.27
59.218,-5.75
59.234,-7.54
59.250,-11.33
59.265,-13.47
59.281,-10.74
59.296,-3.12
59.312,5.82
59.328,10.82
59.343,7.25
59.359,-5.73
59.375,-25.53
59.390,-46.85
59.406,-62.7
59.421,-66.71
59.437,-55.53
59.453,-28.78
59.468,12.18
59.484,64.38
59.500,124.39
59.515,184.38
59.531,229.35
59.546,245.77
59.562,231.45
59.578,195.7
59.593,151.87
59.609,113.19
59.625,80.44
59.640,51.61
59.656,24.63
59.671,-0.57
59.687,-20.76
59.703,-29.49
59.718,-22.01
59.734,1.98
59.750,37.74
59.765,76.51
59.781,109.39
59.796,129.01
59.812,131.51
59.828,117.53
59.843,90.67
59.859,54.92
59.875,13.88
59.890,-28.61
59.906,-68.37
59.921,-100.05
59.937,-119.14
59.953,-123.13
59.968,-111.7
59.984,-86.84
