timestamp,value
00.000,-19.12
00.015,-21.37
00.031,-24.18
00.046,-27.36
00.062,-30.62
00.078,-33.63
00.093,-35.9
00.109,-36.84
00.125,-35.91
00.140,-32.78
00.156,-27.58
00.171,-20.81
00.187,-13.22
00.203,-5.53
00.218,1.76
00.234,8.37
00.250,14.18
00.265,19.06
00.281,22.82
00.296,25.34
00.312,26.54
00.328,26.49
00.343,25.35
00.359,23.29
00.375,20.49
00.390,17.14
00.406,13.48
00.421,9.78
00.437,6.39
00.453,3.59
00.468,1.66
00.484,0.72
00.500,0.83
00.515,1.91
00.531,3.79
00.546,6.2
00.562,8.78
00.578,11.16
00.593,13.03
00.609,14.14
00.625,14.4
00.640,13.9
00.656,12.9
00.671,11.76
00.687,10.83
00.703,10.3
00.718,10.14
00.734,10.06
00.750,9.7
00.765,8.79
00.781,7.26
00.796,5.28
00.812,3.11
00.828,0.99
00.843,-0.99
00.859,-2.83
00.875,-4.61
00.890,-6.41
00.906,-8.29
00.921,-10.25
00.937,-12.38
00.953,-14.74
00.968,-17.33
00.984,-20.08
01.000,-22.8
01.015,-25.26
01.031,-27.3
01.046,-28.99
01.062,-30.58
01.078,-32.44
01.093,-34.85
01.109,-37.81
01.125,-40.99
01.140,-43.77
01.156,-45.49
01.171,-45.66
01.187,-44.08
01.203,-40.93
01.218,-36.65
01.234,-31.79
01.250,-26.86
01.265,-22.21
01.281,-18.06
01.296,-14.44
01.312,-11.32
01.328,-8.62
01.343,-6.22
01.359,-3.96
01.375,-1.76
01.390,0.44
01.406,2.59
01.421,4.53
01.437,6.06
01.453,6.97
01.468,7.24
01.484,6.97
01.500,6.44
01.515,5.98
01.531,5.83
01.546,6.15
01.562,6.95
01.578,8.09
01.593,9.35
01.609,10.41
01.625,10.89
01.640,10.5
01.656,9.08
01.671,6.72
01.687,3.69
01.703,0.37
01.718,-2.91
01.734,-5.92
01.750,-8.59
01.765,-10.86
01.781,-12.64
01.796,-13.77
01.812,-14.18
01.828,-13.91
01.843,-13.2
01.859,-12.41
01.875,-11.78
01.890,-11.43
01.906,-11.24
01.921,-11.01
01.937,-10.64
01.953,-10.27
01.968,-10.24
01.984,-10.96
02.000,-12.65
02.015,-15.19
02.031,-18.13
02.046,-20.92
02.062,-23.06
02.078,-24.35
02.093,-24.96
02.109,-25.28
02.125,-25.8
02.140,-26.9
02.156,-28.7
02.171,-31.08
02.187,-33.69
02.203,-36.05
02.218,-37.59
02.234,-37.81
02.250,-36.35
02.265,-33.13
02.281,-28.4
02.296,-22.68
02.312,-16.67
02.328,-11.03
02.343,-6.19
02.359,-2.27
02.375,0.94
02.390,3.87
02.406,6.91
02.421,10.3
02.437,13.95
02.453,17.54
02.468,20.64
02.484,22.91
02.500,24.23
02.515,24.77
02.531,24.83
02.546,24.71
02.562,24.58
02.578,24.47
02.593,24.35
02.609,24.27
02.625,24.36
02.640,24.77
02.656,25.52
02.671,26.43
02.687,27.14
02.703,27.29
02.718,26.67
02.734,25.36
02.750,23.61
02.765,21.82
02.781,20.19
02.796,18.77
02.812,17.42
02.828,15.98
02.843,14.47
02.859,13.02
02.875,11.84
02.890,10.97
02.906,10.23
02.921,9.25
02.937,7.7
02.953,5.45
02.968,2.72
02.984,-0.05
03.000,-2.45
03.015,-4.32
03.031,-5.78
03.046,-7.19
03.062,-8.86
03.078,-10.94
03.093,-13.34
03.109,-15.88
03.125,-18.44
03.140,-20.98
03.156,-23.58
03.171,-26.37
03.187,-29.43
03.203,-32.82
03.218,-36.56
03.234,-40.67
03.250,-45.09
03.265,-49.6
03.281,-53.74
03.296,-56.77
03.312,-57.96
03.328,-56.71
03.343,-52.91
03.359,-47.01
03.375,-39.84
03.390,-32.42
03.406,-25.62
03.421,-19.87
03.437,-15.23
03.453,-11.4
03.468,-7.9
03.484,-4.33
03.500,-0.4
03.515,3.92
03.531,8.45
03.546,12.86
03.562,16.8
03.578,19.95
03.593,22.23
03.609,23.76
03.625,24.85
03.640,25.82
03.656,26.96
03.671,28.36
03.687,29.97
03.703,31.66
03.718,33.26
03.734,34.62
03.750,35.65
03.765,36.25
03.781,36.34
03.796,35.86
03.812,34.79
03.828,33.16
03.843,31.11
03.859,28.82
03.875,26.52
03.890,24.37
03.906,22.4
03.921,20.52
03.937,18.56
03.953,16.4
03.968,14.04
03.984,11.68
04.000,9.52
04.015,7.71
04.031,6.18
04.046,4.66
04.062,2.81
04.078,0.38
04.093,-2.68
04.109,-6.21
04.125,-9.85
04.140,-13.28
04.156,-16.28
04.171,-18.82
04.187,-21.12
04.203,-23.47
04.218,-26.17
04.234,-29.43
04.250,-33.29
04.265,-37.61
04.281,-42.21
04.296,-46.81
04.312,-51.08
04.328,-54.63
04.343,-56.9
04.359,-57.32
04.375,-55.45
04.390,-51.17
04.406,-44.81
04.421,-37.08
04.437,-28.82
04.453,-20.78
04.468,-13.41
04.484,-6.82
04.500,-0.93
04.515,4.45
04.531,9.44
04.546,14.08
04.562,18.37
04.578,22.23
04.593,25.6
04.609,28.43
04.625,30.75
04.640,32.65
04.656,34.23
04.671,35.62
04.687,36.91
04.703,38.12
04.718,39.24
04.734,40.23
04.750,41.05
04.765,41.67
04.781,42.0
04.796,42.01
04.812,41.65
04.828,40.94
04.843,39.94
04.859,38.74
04.875,37.4
04.890,35.98
04.906,34.5
04.921,33.06
04.937,31.7
04.953,30.47
04.968,29.34
04.984,28.17
05.000,26.85
05.015,25.37
05.031,23.73
05.046,21.99
05.062,20.09
05.078,17.91
05.093,15.31
05.109,12.25
05.125,8.82
05.140,5.2
05.156,1.47
05.171,-2.4
05.187,-6.57
05.203,-11.21
05.218,-16.36
05.234,-21.91
05.250,-27.61
05.265,-33.34
05.281,-39.15
05.296,-45.28
05.312,-51.93
05.328,-59.06
05.343,-66.25
05.359,-72.68
05.375,-77.35
05.390,-79.37
05.406,-78.2
05.421,-73.85
05.437,-66.83
05.453,-58.03
05.468,-48.45
05.484,-38.96
05.500,-30.12
05.515,-22.17
05.531,-15.02
05.546,-8.37
05.562,-1.87
05.578,4.78
05.593,11.69
05.609,18.7
05.625,25.44
05.640,31.43
05.656,36.22
05.671,39.62
05.687,41.69
05.703,42.74
05.718,43.14
05.734,43.24
05.750,43.24
05.765,43.27
05.781,43.43
05.796,43.82
05.812,44.55
05.828,45.59
05.843,46.66
05.859,47.35
05.875,47.19
05.890,45.93
05.906,43.63
05.921,40.67
05.937,37.49
05.953,34.44
05.968,31.64
05.984,29.01
06.000,26.43
06.015,23.84
06.031,21.25
06.046,18.73
06.062,16.27
06.078,13.85
06.093,11.39
06.109,8.85
06.125,6.26
06.140,3.67
06.156,1.12
06.171,-1.42
06.187,-4.08
06.203,-7.07
06.218,-10.69
06.234,-15.13
06.250,-20.41
06.265,-26.31
06.281,-32.36
06.296,-38.06
06.312,-42.94
06.328,-46.83
06.343,-49.83
06.359,-52.22
06.375,-54.36
06.390,-56.57
06.406,-59.05
06.421,-61.77
06.437,-64.46
06.453,-66.54
06.468,-67.17
06.484,-65.51
06.500,-61.0
06.515,-53.67
06.531,-44.14
06.546,-33.48
06.562,-22.77
06.578,-12.8
06.593,-3.95
06.609,3.87
06.625,10.92
06.640,17.61
06.656,24.22
06.671,30.95
06.687,37.78
06.703,44.46
06.718,50.54
06.734,55.51
06.750,58.95
06.765,60.75
06.781,61.14
06.796,60.62
06.812,59.76
06.828,59.02
06.843,58.66
06.859,58.65
06.875,58.83
06.890,58.96
06.906,58.81
06.921,58.22
06.937,57.17
06.953,55.64
06.968,53.68
06.984,51.29
07.000,48.5
07.015,45.33
07.031,41.89
07.046,38.34
07.062,34.9
07.078,31.71
07.093,28.85
07.109,26.29
07.125,23.93
07.140,21.64
07.156,19.26
07.171,16.73
07.187,14.04
07.203,11.22
07.218,8.37
07.234,5.56
07.250,2.78
07.265,-0.03
07.281,-2.94
07.296,-5.99
07.312,-9.15
07.328,-12.37
07.343,-15.58
07.359,-18.8
07.375,-22.04
07.390,-25.36
07.406,-28.78
07.421,-32.24
07.437,-35.69
07.453,-39.06
07.468,-42.39
07.484,-45.77
07.500,-49.31
07.515,-52.98
07.531,-56.55
07.546,-59.5
07.562,-61.12
07.578,-60.64
07.593,-57.57
07.609,-51.88
07.625,-44.06
07.640,-35.0
07.656,-25.67
07.671,-16.87
07.687,-9.0
07.703,-2.09
07.718,4.09
07.734,9.93
07.750,15.72
07.765,21.62
07.781,27.63
07.796,33.57
07.812,39.12
07.828,43.85
07.843,47.28
07.859,49.08
07.875,49.15
07.890,47.71
07.906,45.27
07.921,42.49
07.937,39.97
07.953,38.14
07.968,37.12
07.984,36.78
08.000,36.82
08.015,36.91
08.031,36.83
08.046,36.41
08.062,35.57
08.078,34.27
08.093,32.53
08.109,30.43
08.125,28.12
08.140,25.75
08.156,23.4
08.171,21.01
08.187,18.39
08.203,15.35
08.218,11.78
08.234,7.83
08.250,3.86
08.265,0.31
08.281,-2.51
08.296,-4.56
08.312,-6.07
08.328,-7.37
08.343,-8.78
08.359,-10.42
08.375,-12.27
08.390,-14.23
08.406,-16.28
08.421,-18.44
08.437,-20.77
08.453,-23.23
08.468,-25.69
08.484,-27.94
08.500,-29.85
08.515,-31.49
08.531,-33.11
08.546,-35.12
08.562,-37.83
08.578,-41.3
08.593,-45.21
08.609,-48.91
08.625,-51.54
08.640,-52.33
08.656,-50.78
08.671,-46.88
08.687,-41.0
08.703,-33.82
08.718,-26.05
08.734,-18.32
08.750,-11.01
08.765,-4.28
08.781,1.94
08.796,7.84
08.812,13.6
08.828,19.32
08.843,24.9
08.859,30.07
08.875,34.41
08.890,37.54
08.906,39.2
08.921,39.43
08.937,38.58
08.953,37.22
08.968,35.94
08.984,35.21
09.000,35.31
09.015,36.23
09.031,37.78
09.046,39.67
09.062,41.55
09.078,43.08
09.093,44.03
09.109,44.29
09.125,43.88
09.140,43.02
09.156,42.02
09.171,41.18
09.187,40.71
09.203,40.62
09.218,40.7
09.234,40.63
09.250,40.1
09.265,38.95
09.281,37.32
09.296,35.6
09.312,34.26
09.328,33.61
09.343,33.63
09.359,33.97
09.375,34.14
09.390,33.79
09.406,32.93
09.421,31.82
09.437,30.78
09.453,29.84
09.468,28.67
09.484,26.58
09.500,22.89
09.515,17.16
09.531,9.33
09.546,-0.36
09.562,-11.54
09.578,-23.85
09.593,-36.85
09.609,-49.89
09.625,-61.96
09.640,-71.98
09.656,-79.0
09.671,-82.69
09.687,-83.45
09.703,-82.31
09.718,-80.46
09.734,-78.81
09.750,-77.71
09.765,-76.91
09.781,-75.93
09.796,-74.19
09.812,-71.31
09.828,-67.05
09.843,-61.23
09.859,-53.75
09.875,-44.63
09.890,-34.14
09.906,-22.96
09.921,-12.02
09.937,-2.27
09.953,5.56
09.968,11.17
09.984,14.67
10.000,16.36
10.015,16.7
10.031,16.01
10.046,14.52
10.062,12.33
10.078,9.51
10.093,6.11
10.109,2.27
10.125,-1.73
10.140,-5.49
10.156,-8.53
10.171,-10.45
10.187,-11.01
10.203,-10.25
10.218,-8.46
10.234,-6.12
10.250,-3.78
10.265,-1.89
10.281,-0.75
10.296,-0.44
10.312,-0.85
10.328,-1.67
10.343,-2.63
10.359,-3.56
10.375,-4.45
10.390,-5.43
10.406,-6.6
10.421,-8.0
10.437,-9.48
10.453,-10.92
10.468,-12.22
10.484,-13.44
10.500,-14.79
10.515,-16.46
10.531,-18.55
10.546,-21.03
10.562,-23.82
10.578,-26.87
10.593,-30.12
10.609,-33.54
10.625,-36.96
10.640,-40.03
10.656,-42.26
10.671,-43.11
10.687,-42.19
10.703,-39.41
10.718,-35.01
10.734,-29.51
10.750,-23.55
10.765,-17.67
10.781,-12.21
10.796,-7.26
10.812,-2.71
10.828,1.62
10.843,5.85
10.859,10.02
10.875,14.07
10.890,17.86
10.906,21.25
10.921,24.05
10.937,26.13
10.953,27.4
10.968,27.92
10.984,27.91
11.000,27.7
11.015,27.6
11.031,27.79
11.046,28.28
11.062,28.91
11.078,29.48
11.093,29.82
11.109,29.86
11.125,29.64
11.140,29.26
11.156,28.74
11.171,28.11
11.187,27.38
11.203,26.5
11.218,25.46
11.234,24.17
11.250,22.58
11.265,20.66
11.281,18.46
11.296,16.11
11.312,13.8
11.328,11.65
11.343,9.69
11.359,7.85
11.375,6.03
11.390,4.16
11.406,2.28
11.421,0.5
11.437,-1.07
11.453,-2.39
11.468,-3.57
11.484,-4.82
11.500,-6.35
11.515,-8.29
11.531,-10.74
11.546,-13.72
11.562,-17.17
11.578,-20.99
11.593,-24.98
11.609,-28.94
11.625,-32.65
11.640,-36.0
11.656,-39.05
11.671,-41.99
11.687,-45.02
11.703,-48.3
11.718,-51.86
11.734,-55.51
11.750,-58.86
11.765,-61.4
11.781,-62.63
11.796,-62.1
11.812,-59.62
11.828,-55.34
11.843,-49.68
11.859,-43.27
11.875,-36.68
11.890,-30.33
11.906,-24.38
11.921,-18.82
11.937,-13.57
11.953,-8.62
11.968,-3.98
11.984,0.28
12.000,4.16
12.015,7.73
12.031,11.0
12.046,13.9
12.062,16.21
12.078,17.72
12.093,18.3
12.109,18.06
12.125,17.29
12.140,16.42
12.156,15.83
12.171,15.76
12.187,16.24
12.203,17.13
12.218,18.16
12.234,19.0
12.250,19.38
12.265,19.13
12.281,18.22
12.296,16.74
12.312,14.89
12.328,12.83
12.343,10.65
12.359,8.41
12.375,6.05
12.390,3.59
12.406,1.13
12.421,-1.1
12.437,-2.83
12.453,-3.82
12.468,-4.0
12.484,-3.5
12.500,-2.57
12.515,-1.57
12.531,-0.82
12.546,-0.53
12.562,-0.83
12.578,-1.73
12.593,-3.22
12.609,-5.25
12.625,-7.78
12.640,-10.62
12.656,-13.53
12.671,-16.18
12.687,-18.33
12.703,-19.89
12.718,-20.96
12.734,-21.86
12.750,-22.98
12.765,-24.7
12.781,-27.24
12.796,-30.65
12.812,-34.59
12.828,-38.51
12.843,-41.66
12.859,-43.36
12.875,-43.19
12.890,-41.14
12.906,-37.55
12.921,-32.98
12.937,-28.05
12.953,-23.25
12.968,-18.85
12.984,-14.9
13.000,-11.22
13.015,-7.56
13.031,-3.65
13.046,0.66
13.062,5.26
13.078,9.71
13.093,13.39
13.109,15.63
13.125,15.92
13.140,14.19
13.156,10.77
13.171,6.36
13.187,1.78
13.203,-2.13
13.218,-4.72
13.234,-5.5
13.250,-4.23
13.265,-0.9
13.281,4.17
13.296,10.41
13.312,17.02
13.328,23.17
13.343,28.22
13.359,31.8
13.375,33.99
13.390,35.05
13.406,35.33
13.421,35.04
13.437,34.21
13.453,32.76
13.468,30.69
13.484,28.15
13.500,25.49
13.515,23.12
13.531,21.37
13.546,20.34
13.562,19.9
13.578,19.68
13.593,19.35
13.609,18.67
13.625,17.59
13.640,16.26
13.656,14.86
13.671,13.54
13.687,12.29
13.703,11.06
13.718,9.75
13.734,8.24
13.750,6.39
13.765,3.93
13.781,0.54
13.796,-3.99
13.812,-9.57
13.828,-15.55
13.843,-20.8
13.859,-24.02
13.875,-24.3
13.890,-21.58
13.906,-16.77
13.921,-11.36
13.937,-6.81
13.953,-3.92
13.968,-2.63
13.984,-2.19
14.000,-1.73
14.015,-0.71
14.031,0.81
14.046,2.4
14.062,3.6
14.078,4.27
14.093,4.55
14.109,4.76
14.125,5.08
14.140,5.5
14.156,5.96
14.171,6.43
14.187,7.13
14.203,8.36
14.218,10.34
14.234,12.94
14.250,15.75
14.265,18.06
14.281,19.18
14.296,18.74
14.312,16.73
14.328,13.54
14.343,9.74
14.359,5.94
14.375,2.62
14.390,0.08
14.406,-1.65
14.421,-2.65
14.437,-3.14
14.453,-3.36
14.468,-3.57
14.484,-4.04
14.500,-4.9
14.515,-6.21
14.531,-7.75
14.546,-9.16
14.562,-10.02
14.578,-10.04
14.593,-9.25
14.609,-8.0
14.625,-6.95
14.640,-6.77
14.656,-7.95
14.671,-10.63
14.687,-14.48
14.703,-18.89
14.718,-23.15
14.734,-26.76
14.750,-29.51
14.765,-31.54
14.781,-33.12
14.796,-34.38
14.812,-35.12
14.828,-34.81
14.843,-32.88
14.859,-29.04
14.875,-23.57
14.890,-17.28
14.906,-11.27
14.921,-6.48
14.937,-3.28
14.953,-1.38
14.968,0.07
14.984,2.14
15.000,5.77
15.015,11.48
15.031,19.28
15.046,28.7
15.062,38.93
15.078,49.0
15.093,57.99
15.109,65.17
15.125,70.22
15.140,73.24
15.156,74.72
15.171,75.31
15.187,75.64
15.203,76.19
15.218,77.15
15.234,78.54
15.250,80.28
15.265,82.21
15.281,84.22
15.296,86.13
15.312,87.74
15.328,88.65
15.343,88.38
15.359,86.28
15.375,81.72
15.390,74.23
15.406,63.81
15.421,51.1
15.437,37.24
15.453,23.62
15.468,11.28
15.484,0.58
15.500,-8.89
15.515,-17.96
15.531,-27.38
15.546,-37.45
15.562,-48.0
15.578,-58.66
15.593,-69.15
15.609,-79.52
15.625,-89.97
15.640,-100.57
15.656,-111.08
15.671,-120.96
15.687,-129.67
15.703,-136.88
15.718,-142.6
15.734,-146.98
15.750,-150.03
15.765,-151.34
15.781,-150.12
15.796,-145.38
15.812,-136.33
15.828,-122.67
15.843,-104.72
15.859,-83.34
15.875,-59.76
15.890,-35.38
15.906,-11.67
15.921,9.97
15.937,28.28
15.953,42.26
15.968,51.3
15.984,55.31
16.000,54.61
16.015,49.89
16.031,42.1
16.046,32.33
16.062,21.88
16.078,12.22
16.093,4.83
16.109,0.93
16.125,1.2
16.140,5.44
16.156,12.73
16.171,21.65
16.187,30.69
16.203,38.55
16.218,44.39
16.234,47.74
16.250,48.48
16.265,46.79
16.281,43.05
16.296,37.83
16.312,31.83
16.328,25.73
16.343,20.01
16.359,14.85
16.375,10.12
16.390,5.49
16.406,0.59
16.421,-4.81
16.437,-10.69
16.453,-16.73
16.468,-22.47
16.484,-27.4
16.500,-31.16
16.515,-33.69
16.531,-35.19
16.546,-36.03
16.562,-36.68
16.578,-37.48
16.593,-38.69
16.609,-40.34
16.625,-42.34
16.640,-44.35
16.656,-45.83
16.671,-46.05
16.687,-44.23
16.703,-39.89
16.718,-32.98
16.734,-24.08
16.750,-14.25
16.765,-4.72
16.781,3.61
16.796,10.32
16.812,15.61
16.828,20.13
16.843,24.56
16.859,29.42
16.875,34.84
16.890,40.65
16.906,46.41
16.921,51.63
16.937,55.86
16.953,58.8
16.968,60.3
16.984,60.38
17.000,59.24
17.015,57.26
17.031,54.93
17.046,52.77
17.062,51.23
17.078,50.51
17.093,50.53
17.109,50.93
17.125,51.18
17.140,50.87
17.156,49.79
17.171,48.03
17.187,45.87
17.203,43.56
17.218,41.2
17.234,38.69
17.250,35.84
17.265,32.53
17.281,28.78
17.296,24.77
17.312,20.69
17.328,16.7
17.343,12.86
17.359,9.09
17.375,5.37
17.390,1.69
17.406,-1.91
17.421,-5.32
17.437,-8.5
17.453,-11.44
17.468,-14.19
17.484,-16.82
17.500,-19.38
17.515,-21.93
17.531,-24.46
17.546,-27.08
17.562,-29.92
17.578,-33.2
17.593,-37.0
17.609,-41.2
17.625,-45.34
17.640,-48.71
17.656,-50.47
17.671,-50.02
17.687,-47.19
17.703,-42.26
17.718,-35.92
17.734,-28.93
17.750,-21.95
17.765,-15.29
17.781,-9.0
17.796,-2.98
17.812,2.87
17.828,8.51
17.843,13.78
17.859,18.52
17.875,22.64
17.890,26.17
17.906,29.21
17.921,31.81
17.937,33.87
17.953,35.24
17.968,35.75
17.984,35.41
18.000,34.41
18.015,33.16
18.031,32.11
18.046,31.63
18.062,31.82
18.078,32.53
18.093,33.32
18.109,33.67
18.125,33.18
18.140,31.66
18.156,29.31
18.171,26.53
18.187,23.83
18.203,21.56
18.218,19.78
18.234,18.31
18.250,16.82
18.265,15.0
18.281,12.69
18.296,9.97
18.312,7.07
18.328,4.27
18.343,1.7
18.359,-0.61
18.375,-2.77
18.390,-4.98
18.406,-7.35
18.421,-9.94
18.437,-12.73
18.453,-15.65
18.468,-18.54
18.484,-21.23
18.500,-23.58
18.515,-25.48
18.531,-27.05
18.546,-28.59
18.562,-30.49
18.578,-33.1
18.593,-36.44
18.609,-40.14
18.625,-43.43
18.640,-45.43
18.656,-45.4
18.671,-43.04
18.687,-38.55
18.703,-32.56
18.718,-25.96
18.734,-19.54
18.750,-13.84
18.765,-8.98
18.781,-4.72
18.796,-0.65
18.812,3.57
18.828,8.04
18.843,12.52
18.859,16.53
18.875,19.52
18.890,21.01
18.906,20.72
18.921,18.65
18.937,15.06
18.953,10.51
18.968,5.76
18.984,1.63
19.000,-1.13
19.015,-2.03
19.031,-0.85
19.046,2.21
19.062,6.68
19.078,11.83
19.093,16.89
19.109,21.12
19.125,24.08
19.140,25.69
19.156,26.24
19.171,26.23
19.187,26.13
19.203,26.13
19.218,26.09
19.234,25.66
19.250,24.54
19.265,22.61
19.281,20.02
19.296,17.02
19.312,13.82
19.328,10.5
19.343,7.07
19.359,3.59
19.375,0.21
19.390,-2.9
19.406,-5.64
19.421,-8.13
19.437,-10.55
19.453,-13.16
19.468,-16.04
19.484,-19.14
19.500,-22.3
19.515,-25.47
19.531,-28.7
19.546,-32.17
19.562,-36.0
19.578,-40.03
19.593,-43.81
19.609,-46.65
19.625,-47.78
19.640,-46.58
19.656,-42.83
19.671,-36.79
19.687,-29.2
19.703,-21.09
19.718,-13.52
19.734,-7.29
19.750,-2.74
19.765,0.19
19.781,1.95
19.796,2.94
19.812,3.59
19.828,4.09
19.843,4.56
19.859,5.1
19.875,5.84
19.890,6.94
19.906,8.46
19.921,10.34
19.937,12.39
19.953,14.45
19.968,16.45
19.984,18.45
20.000,20.55
20.015,22.76
20.031,24.91
20.046,26.64
20.062,27.62
20.078,27.64
20.093,26.8
20.109,25.42
20.125,23.92
20.140,22.6
20.156,21.55
20.171,20.64
20.187,19.67
20.203,18.59
20.218,17.51
20.234,16.73
20.250,16.54
20.265,17.03
20.281,18.08
20.296,19.25
20.312,20.02
20.328,19.91
20.343,18.66
20.359,16.21
20.375,12.77
20.390,8.72
20.406,4.44
20.421,0.28
20.437,-3.6
20.453,-7.22
20.468,-10.77
20.484,-14.47
20.500,-18.49
20.515,-22.79
20.531,-27.05
20.546,-30.78
20.562,-33.41
20.578,-34.55
20.593,-34.09
20.609,-32.24
20.625,-29.45
20.640,-26.23
20.656,-23.09
20.671,-20.28
20.687,-17.96
20.703,-16.13
20.718,-14.72
20.734,-13.64
20.750,-12.84
20.765,-12.25
20.781,-11.86
20.796,-11.69
20.812,-11.8
20.828,-12.18
20.843,-12.7
20.859,-13.04
20.875,-12.8
20.890,-11.64
20.906,-9.48
20.921,-6.52
20.937,-3.23
20.953,-0.12
20.968,2.39
20.984,4.15
21.000,5.2
21.015,5.69
21.031,5.78
21.046,5.47
21.062,4.72
21.078,3.49
21.093,1.84
21.109,-0.13
21.125,-2.24
21.140,-4.34
21.156,-6.38
21.171,-8.39
21.187,-10.4
21.203,-12.36
21.218,-14.08
21.234,-15.26
21.250,-15.68
21.265,-15.31
21.281,-14.38
21.296,-13.26
21.312,-12.17
21.328,-11.16
21.343,-10.04
21.359,-8.64
21.375,-7.01
21.390,-5.52
21.406,-4.82
21.421,-5.58
21.437,-8.31
21.453,-13.14
21.468,-19.84
21.484,-27.77
21.500,-36.05
21.515,-43.63
21.531,-49.47
21.546,-52.7
21.562,-52.9
21.578,-50.23
21.593,-45.29
21.609,-39.03
21.625,-32.37
21.640,-25.95
21.656,-20.08
21.671,-14.75
21.687,-9.81
21.703,-5.06
21.718,-0.35
21.734,4.33
21.750,8.79
21.765,12.74
21.781,15.8
21.796,17.7
21.812,18.41
21.828,18.17
21.843,17.45
21.859,16.75
21.875,16.45
21.890,16.65
21.906,17.17
21.921,17.79
21.937,18.33
21.953,18.75
21.968,19.14
21.984,19.56
22.000,19.97
22.015,20.14
22.031,19.85
22.046,18.89
22.062,17.3
22.078,15.24
22.093,13.04
22.109,10.95
22.125,9.11
22.140,7.49
22.156,5.96
22.171,4.43
22.187,2.89
22.203,1.39
22.218,-0.01
22.234,-1.31
22.250,-2.6
22.265,-4.07
22.281,-5.91
22.296,-8.25
22.312,-11.18
22.328,-14.7
22.343,-18.77
22.359,-23.32
22.375,-28.27
22.390,-33.45
22.406,-38.61
22.421,-43.37
22.437,-47.3
22.453,-49.92
22.468,-50.9
22.484,-50.05
22.500,-47.43
22.515,-43.33
22.531,-38.23
22.546,-32.68
22.562,-27.17
22.578,-22.06
22.593,-17.5
22.609,-13.52
22.625,-10.03
22.640,-6.95
22.656,-4.19
22.671,-1.75
22.687,0.38
22.703,2.15
22.718,3.54
22.734,4.52
22.750,5.09
22.765,5.32
22.781,5.32
22.796,5.3
22.812,5.54
22.828,6.33
22.843,7.95
22.859,10.5
22.875,13.86
22.890,17.7
22.906,21.52
22.921,24.82
22.937,27.21
22.953,28.61
22.968,29.13
22.984,29.05
23.000,28.63
23.015,28.04
23.031,27.29
23.046,26.32
23.062,25.08
23.078,23.52
23.093,21.66
23.109,19.53
23.125,17.17
23.140,14.63
23.156,12.0
23.171,9.37
23.187,6.8
23.203,4.23
23.218,1.53
23.234,-1.49
23.250,-4.97
23.265,-8.85
23.281,-12.93
23.296,-16.85
23.312,-20.35
23.328,-23.35
23.343,-26.07
23.359,-28.93
23.375,-32.36
23.390,-36.64
23.406,-41.67
23.421,-46.94
23.437,-51.66
23.453,-54.92
23.468,-55.97
23.484,-54.4
23.500,-50.21
23.515,-43.81
23.531,-35.99
23.546,-27.61
23.562,-19.44
23.578,-11.98
23.593,-5.4
23.609,0.4
23.625,5.71
23.640,10.79
23.656,15.76
23.671,20.55
23.687,25.0
23.703,28.91
23.718,32.2
23.734,34.97
23.750,37.38
23.765,39.62
23.781,41.72
23.796,43.56
23.812,44.96
23.828,45.8
23.843,46.1
23.859,46.06
23.875,45.91
23.890,45.73
23.906,45.38
23.921,44.5
23.937,42.62
23.953,39.47
23.968,35.15
23.984,30.17
24.000,25.29
24.015,21.32
24.031,18.83
24.046,17.93
24.062,18.35
24.078,19.39
24.093,20.28
24.109,20.35
24.125,19.22
24.140,16.86
24.156,13.47
24.171,9.38
24.187,4.89
24.203,0.23
24.218,-4.37
24.234,-8.67
24.250,-12.35
24.265,-15.11
24.281,-16.8
24.296,-17.67
24.312,-18.3
24.328,-19.51
24.343,-22.05
24.359,-26.21
24.375,-31.66
24.390,-37.44
24.406,-42.25
24.421,-44.82
24.437,-44.52
24.453,-41.44
24.468,-36.48
24.484,-30.88
24.500,-25.83
24.515,-21.97
24.531,-19.32
24.546,-17.41
24.562,-15.59
24.578,-13.34
24.593,-10.42
24.609,-6.77
24.625,-2.46
24.640,2.39
24.656,7.54
24.671,12.64
24.687,17.22
24.703,20.86
24.718,23.38
24.734,24.88
24.750,25.75
24.765,26.46
24.781,27.38
24.796,28.67
24.812,30.29
24.828,32.04
24.843,33.63
24.859,34.82
24.875,35.45
24.890,35.54
24.906,35.2
24.921,34.69
24.937,34.24
24.953,34.0
24.968,33.95
24.984,33.94
25.000,33.74
25.015,33.11
25.031,31.92
25.046,30.15
25.062,27.87
25.078,25.21
25.093,22.36
25.109,19.46
25.125,16.6
25.140,13.77
25.156,10.93
25.171,8.02
25.187,5.07
25.203,2.17
25.218,-0.54
25.234,-3.05
25.250,-5.43
25.265,-7.9
25.281,-10.7
25.296,-13.97
25.312,-17.69
25.328,-21.67
25.343,-25.69
25.359,-29.64
25.375,-33.61
25.390,-37.86
25.406,-42.66
25.421,-48.12
25.437,-53.99
25.453,-59.61
25.468,-64.01
25.484,-66.1
25.500,-65.05
25.515,-60.6
25.531,-53.18
25.546,-43.81
25.562,-33.76
25.578,-24.17
25.593,-15.69
25.609,-8.41
25.625,-2.08
25.640,3.69
25.656,9.18
25.671,14.53
25.687,19.76
25.703,24.82
25.718,29.65
25.734,34.14
25.750,38.1
25.765,41.33
25.781,43.63
25.796,44.93
25.812,45.31
25.828,44.94
25.843,44.03
25.859,42.81
25.875,41.52
25.890,40.39
25.906,39.63
25.921,39.31
25.937,39.28
25.953,39.24
25.968,38.81
25.984,37.69
26.000,35.81
26.015,33.33
26.031,30.59
26.046,27.89
26.062,25.38
26.078,23.04
26.093,20.72
26.109,18.32
26.125,15.83
26.140,13.32
26.156,10.89
26.171,8.56
26.187,6.34
26.203,4.21
26.218,2.31
26.234,0.8
26.250,-0.17
26.265,-0.65
26.281,-0.83
26.296,-1.05
26.312,-1.63
26.328,-2.78
26.343,-4.56
26.359,-6.94
26.375,-9.89
26.390,-13.38
26.406,-17.32
26.421,-21.58
26.437,-25.99
26.453,-30.4
26.468,-34.74
26.484,-39.07
26.500,-43.41
26.515,-47.66
26.531,-51.44
26.546,-54.04
26.562,-54.72
26.578,-52.87
26.593,-48.42
26.609,-41.84
26.625,-34.11
26.640,-26.34
26.656,-19.43
26.671,-13.72
26.687,-8.99
26.703,-4.67
26.718,-0.12
26.734,5.05
26.750,10.86
26.765,16.91
26.781,22.6
26.796,27.35
26.812,30.8
26.828,32.86
26.843,33.77
26.859,33.94
26.875,33.74
26.890,33.47
26.906,33.28
26.921,33.19
26.937,33.21
26.953,33.36
26.968,33.64
26.984,33.99
27.000,34.26
27.015,34.23
27.031,33.74
27.046,32.72
27.062,31.24
27.078,29.46
27.093,27.52
27.109,25.47
27.125,23.34
27.140,21.17
27.156,19.02
27.171,17.03
27.187,15.31
27.203,13.82
27.218,12.39
27.234,10.73
27.250,8.64
27.265,6.05
27.281,3.18
27.296,0.39
27.312,-2.02
27.328,-3.91
27.343,-5.42
27.359,-6.81
27.375,-8.38
27.390,-10.23
27.406,-12.33
27.421,-14.48
27.437,-16.58
27.453,-18.63
27.468,-20.74
27.484,-23.08
27.500,-25.76
27.515,-28.77
27.531,-32.05
27.546,-35.57
27.562,-39.36
27.578,-43.44
27.593,-47.65
27.609,-51.47
27.625,-54.17
27.640,-54.91
27.656,-53.12
27.671,-48.72
27.687,-42.2
27.703,-34.4
27.718,-26.3
27.734,-18.69
27.750,-12.01
27.765,-6.32
27.781,-1.38
27.796,3.14
27.812,7.53
27.828,11.95
27.843,16.33
27.859,20.46
27.875,24.03
27.890,26.8
27.906,28.6
27.921,29.48
27.937,29.56
27.953,29.1
27.968,28.36
27.984,27.62
28.000,27.14
28.015,27.08
28.031,27.54
28.046,28.38
28.062,29.36
28.078,30.16
28.093,30.44
28.109,30.04
28.125,28.94
28.140,27.29
28.156,25.3
28.171,23.19
28.187,21.09
28.203,19.01
28.218,16.92
28.234,14.7
28.250,12.29
28.265,9.68
28.281,6.93
28.296,4.2
28.312,1.64
28.328,-0.6
28.343,-2.51
28.359,-4.14
28.375,-5.68
28.390,-7.3
28.406,-9.17
28.421,-11.38
28.437,-13.94
28.453,-16.82
28.468,-19.94
28.484,-23.21
28.500,-26.48
28.515,-29.56
28.531,-32.28
28.546,-34.63
28.562,-36.81
28.578,-39.17
28.593,-42.02
28.609,-45.4
28.625,-48.91
28.640,-51.68
28.656,-52.69
28.671,-51.12
28.687,-46.77
28.703,-40.15
28.718,-32.31
28.734,-24.43
28.750,-17.37
28.765,-11.44
28.781,-6.49
28.796,-2.08
28.812,2.19
28.828,6.51
28.843,10.84
28.859,14.98
28.875,18.72
28.890,21.88
28.906,24.36
28.921,26.16
28.937,27.25
28.953,27.69
28.968,27.52
28.984,26.92
29.000,26.17
29.015,25.61
29.031,25.54
29.046,26.12
29.062,27.3
29.078,28.74
29.093,30.01
29.109,30.71
29.125,30.63
29.140,29.8
29.156,28.41
29.171,26.72
29.187,24.87
29.203,22.9
29.218,20.76
29.234,18.39
29.250,15.82
29.265,13.11
29.281,10.37
29.296,7.72
29.312,5.23
29.328,2.95
29.343,0.85
29.359,-1.12
29.375,-3.06
29.390,-5.02
29.406,-7.08
29.421,-9.26
29.437,-11.6
29.453,-14.15
29.468,-16.9
29.484,-19.8
29.500,-22.7
29.515,-25.41
29.531,-27.82
29.546,-30.04
29.562,-32.32
29.578,-35.07
29.593,-38.6
29.609,-42.98
29.625,-47.95
29.640,-52.95
29.656,-57.31
29.671,-60.32
29.687,-61.42
29.703,-60.27
29.718,-56.79
29.734,-51.27
29.750,-44.31
29.765,-36.71
29.781,-29.25
29.796,-22.54
29.812,-16.82
29.828,-11.99
29.843,-7.74
29.859,-3.69
29.875,0.42
29.890,4.68
29.906,9.0
29.921,13.2
29.937,17.03
29.953,20.3
29.968,22.85
29.984,24.64
30.000,25.73
30.015,26.25
30.031,26.38
30.046,26.27
30.062,26.06
30.078,25.89
30.093,25.9
30.109,26.16
30.125,26.67
30.140,27.25
30.156,27.63
30.171,27.48
30.187,26.6
30.203,25.04
30.218,23.16
30.234,21.43
30.250,20.24
30.265,19.7
30.281,19.58
30.296,19.45
30.312,18.92
30.328,17.89
30.343,16.42
30.359,14.72
30.375,12.87
30.390,10.8
30.406,8.34
30.421,5.4
30.437,2.08
30.453,-1.34
30.468,-4.51
30.484,-7.18
30.500,-9.27
30.515,-10.94
30.531,-12.42
30.546,-13.96
30.562,-15.76
30.578,-17.95
30.593,-20.58
30.609,-23.58
30.625,-26.82
30.640,-30.15
30.656,-33.48
30.671,-36.84
30.687,-40.28
30.703,-43.79
30.718,-47.16
30.734,-49.91
30.750,-51.37
30.765,-50.89
30.781,-48.1
30.796,-43.04
30.812,-36.21
30.828,-28.36
30.843,-20.32
30.859,-12.76
30.875,-6.12
30.890,-0.61
30.906,3.74
30.921,7.01
30.937,9.42
30.953,11.27
30.968,12.91
30.984,14.6
31.000,16.41
31.015,18.2
31.031,19.69
31.046,20.58
31.062,20.76
31.078,20.35
31.093,19.65
31.109,18.96
31.125,18.5
31.140,18.31
31.156,18.26
31.171,18.19
31.187,17.99
31.203,17.64
31.218,17.29
31.234,17.08
31.250,17.16
31.265,17.54
31.281,18.14
31.296,18.78
31.312,19.25
31.328,19.39
31.343,19.09
31.359,18.36
31.375,17.24
31.390,15.81
31.406,14.13
31.421,12.28
31.437,10.32
31.453,8.32
31.468,6.34
31.484,4.41
31.500,2.47
31.515,0.48
31.531,-1.67
31.546,-4.04
31.562,-6.62
31.578,-9.38
31.593,-12.2
31.609,-14.96
31.625,-17.47
31.640,-19.64
31.656,-21.44
31.671,-23.0
31.687,-24.63
31.703,-26.69
31.718,-29.49
31.734,-33.13
31.750,-37.39
31.765,-41.78
31.781,-45.66
31.796,-48.42
31.812,-49.6
31.828,-48.96
31.843,-46.52
31.859,-42.54
31.875,-37.46
31.890,-31.85
31.906,-26.26
31.921,-21.06
31.937,-16.41
31.953,-12.16
31.968,-8.03
31.984,-3.72
32.000,0.86
32.015,5.6
32.031,10.19
32.046,14.32
32.062,17.74
32.078,20.41
32.093,22.45
32.109,24.03
32.125,25.32
32.140,26.39
32.156,27.22
32.171,27.76
32.187,27.97
32.203,27.95
32.218,27.8
32.234,27.71
32.250,27.72
32.265,27.82
32.281,27.86
32.296,27.77
32.312,27.53
32.328,27.26
32.343,27.11
32.359,27.06
32.375,26.94
32.390,26.38
32.406,25.06
32.421,22.86
32.437,19.91
32.453,16.55
32.468,13.2
32.484,10.13
32.500,7.42
32.515,4.99
32.531,2.73
32.546,0.52
32.562,-1.72
32.578,-4.13
32.593,-6.85
32.609,-10.03
32.625,-13.73
32.640,-17.87
32.656,-22.2
32.671,-26.41
32.687,-30.25
32.703,-33.64
32.718,-36.78
32.734,-39.99
32.750,-43.65
32.765,-47.97
32.781,-52.86
32.796,-57.83
32.812,-62.17
32.828,-65.04
32.843,-65.73
32.859,-63.83
32.875,-59.3
32.890,-52.55
32.906,-44.22
32.921,-35.12
32.937,-26.01
32.953,-17.53
32.968,-10.05
32.984,-3.65
33.000,1.81
33.015,6.68
33.031,11.33
33.046,16.06
33.062,20.97
33.078,25.9
33.093,30.44
33.109,34.19
33.125,36.81
33.140,38.29
33.156,38.91
33.171,39.18
33.187,39.58
33.203,40.45
33.218,41.84
33.234,43.49
33.250,45.05
33.265,46.25
33.281,46.91
33.296,47.07
33.312,46.82
33.328,46.19
33.343,45.1
33.359,43.42
33.375,41.11
33.390,38.33
33.406,35.42
33.421,32.75
33.437,30.5
33.453,28.59
33.468,26.7
33.484,24.49
33.500,21.76
33.515,18.61
33.531,15.31
33.546,12.15
33.562,9.27
33.578,6.6
33.593,3.95
33.609,1.12
33.625,-1.98
33.640,-5.28
33.656,-8.67
33.671,-12.05
33.687,-15.41
33.703,-18.75
33.718,-22.09
33.734,-25.43
33.750,-28.72
33.765,-31.93
33.781,-35.13
33.796,-38.46
33.812,-42.12
33.828,-46.27
33.843,-50.99
33.859,-56.16
33.875,-61.53
33.890,-66.65
33.906,-70.94
33.921,-73.77
33.937,-74.55
33.953,-72.96
33.968,-68.96
33.984,-62.87
34.000,-55.25
34.015,-46.68
34.031,-37.61
34.046,-28.38
34.062,-19.18
34.078,-10.15
34.093,-1.37
34.109,7.05
34.125,15.03
34.140,22.46
34.156,29.14
34.171,34.82
34.187,39.22
34.203,42.19
34.218,43.81
34.234,44.46
34.250,44.65
34.265,44.87
34.281,45.43
34.296,46.39
34.312,47.57
34.328,48.71
34.343,49.54
34.359,49.83
34.375,49.46
34.390,48.38
34.406,46.64
34.421,44.41
34.437,41.97
34.453,39.66
34.468,37.7
34.484,36.25
34.500,35.18
34.515,34.24
34.531,33.11
34.546,31.57
34.562,29.62
34.578,27.39
34.593,25.12
34.609,22.9
34.625,20.63
34.640,18.01
34.656,14.74
34.671,10.77
34.687,6.33
34.703,1.94
34.718,-1.93
34.734,-4.98
34.750,-7.3
34.765,-9.3
34.781,-11.43
34.796,-14.09
34.812,-17.38
34.828,-21.17
34.843,-25.19
34.859,-29.14
34.875,-32.78
34.890,-36.0
34.906,-38.82
34.921,-41.41
34.937,-44.08
34.953,-47.17
34.968,-50.99
34.984,-55.63
35.000,-60.83
35.015,-65.96
35.031,-70.07
35.046,-72.09
35.062,-71.15
35.078,-66.85
35.093,-59.47
35.109,-49.89
35.125,-39.43
35.140,-29.33
35.156,-20.44
35.171,-12.99
35.187,-6.69
35.203,-0.9
35.218,4.93
35.234,11.11
35.250,17.59
35.265,24.12
35.281,30.31
35.296,35.82
35.312,40.35
35.328,43.65
35.343,45.66
35.359,46.45
35.375,46.31
35.390,45.67
35.406,44.95
35.421,44.49
35.437,44.4
35.453,44.65
35.468,45.09
35.484,45.57
35.500,45.87
35.515,45.79
35.531,45.09
35.546,43.65
35.562,41.49
35.578,38.81
35.593,35.96
35.609,33.28
35.625,30.88
35.640,28.66
35.656,26.4
35.671,23.93
35.687,21.25
35.703,18.52
35.718,15.93
35.734,13.48
35.750,11.03
35.765,8.32
35.781,5.2
35.796,1.76
35.812,-1.62
35.828,-4.57
35.843,-6.9
35.859,-8.76
35.875,-10.59
35.890,-12.77
35.906,-15.47
35.921,-18.5
35.937,-21.45
35.953,-24.02
35.968,-26.11
35.984,-27.95
36.000,-29.96
36.015,-32.57
36.031,-35.98
36.046,-40.18
36.062,-44.89
36.078,-49.61
36.093,-53.7
36.109,-56.39
36.125,-56.94
36.140,-54.89
36.156,-50.21
36.171,-43.41
36.187,-35.44
36.203,-27.28
36.218,-19.71
36.234,-13.05
36.250,-7.15
36.265,-1.61
36.281,3.91
36.296,9.54
36.312,15.12
36.328,20.33
36.343,24.91
36.359,28.69
36.375,31.62
36.390,33.71
36.406,34.97
36.421,35.44
36.437,35.24
36.453,34.61
36.468,33.85
36.484,33.28
36.500,33.13
36.515,33.51
36.531,34.36
36.546,35.46
36.562,36.48
36.578,37.03
36.593,36.79
36.609,35.69
36.625,33.97
36.640,32.08
36.656,30.49
36.671,29.37
36.687,28.58
36.703,27.79
36.718,26.65
36.734,25.08
36.750,23.22
36.765,21.37
36.781,19.7
36.796,18.25
36.812,16.85
36.828,15.36
36.843,13.71
36.859,11.88
36.875,9.92
36.890,7.82
36.906,5.54
36.921,3.01
36.937,0.17
36.953,-3.02
36.968,-6.61
36.984,-10.69
37.000,-15.41
37.015,-20.99
37.031,-27.62
37.046,-35.5
37.062,-44.58
37.078,-54.47
37.093,-64.39
37.109,-73.15
37.125,-79.46
37.140,-82.27
37.156,-81.11
37.171,-76.25
37.187,-68.51
37.203,-58.99
37.218,-48.69
37.234,-38.37
37.250,-28.58
37.265,-19.68
37.281,-12.01
37.296,-5.76
37.312,-0.95
37.328,2.62
37.343,5.38
37.359,7.73
37.375,9.94
37.390,12.11
37.406,14.16
37.421,15.98
37.437,17.56
37.453,19.04
37.468,20.58
37.484,22.33
37.500,24.3
37.515,26.31
37.531,28.11
37.546,29.42
37.562,30.11
37.578,30.15
37.593,29.63
37.609,28.67
37.625,27.37
37.640,25.77
37.656,23.89
37.671,21.8
37.687,19.68
37.703,17.67
37.718,15.89
37.734,14.36
37.750,12.95
37.765,11.52
37.781,10.0
37.796,8.43
37.812,6.95
37.828,5.66
37.843,4.55
37.859,3.45
37.875,2.02
37.890,-0.09
37.906,-3.11
37.921,-7.03
37.937,-11.58
37.953,-16.3
37.968,-20.72
37.984,-24.51
38.000,-27.61
38.015,-30.18
38.031,-32.56
38.046,-35.11
38.062,-38.17
38.078,-41.86
38.093,-46.11
38.109,-50.46
38.125,-54.22
38.140,-56.47
38.156,-56.45
38.171,-53.8
38.187,-48.7
38.203,-41.86
38.218,-34.26
38.234,-26.73
38.250,-19.81
38.265,-13.6
38.281,-7.93
38.296,-2.59
38.312,2.6
38.328,7.69
38.343,12.67
38.359,17.47
38.375,21.95
38.390,25.98
38.406,29.32
38.421,31.78
38.437,33.26
38.453,33.82
38.468,33.71
38.484,33.31
38.500,32.99
38.515,33.01
38.531,33.39
38.546,33.98
38.562,34.45
38.578,34.47
38.593,33.82
38.609,32.5
38.625,30.65
38.640,28.52
38.656,26.37
38.671,24.36
38.687,22.54
38.703,20.89
38.718,19.35
38.734,17.9
38.750,16.49
38.765,15.01
38.781,13.33
38.796,11.27
38.812,8.74
38.828,5.79
38.843,2.56
38.859,-0.71
38.875,-3.9
38.890,-6.98
38.906,-10.12
38.921,-13.44
38.937,-17.02
38.953,-20.7
38.968,-24.28
38.984,-27.56
39.000,-30.43
39.015,-32.98
39.031,-35.38
39.046,-37.84
39.062,-40.5
39.078,-43.49
39.093,-46.82
39.109,-50.34
39.125,-53.66
39.140,-56.1
39.156,-56.86
39.171,-55.29
39.187,-51.19
39.203,-45.0
39.218,-37.61
39.234,-30.09
39.250,-23.28
39.265,-17.54
39.281,-12.72
39.296,-8.37
39.312,-3.98
39.328,0.83
39.343,6.16
39.359,11.9
39.375,17.71
39.390,23.18
39.406,27.87
39.421,31.37
39.437,33.45
39.453,34.14
39.468,33.75
39.484,32.82
39.500,31.91
39.515,31.49
39.531,31.75
39.546,32.58
39.562,33.65
39.578,34.51
39.593,34.8
39.609,34.3
39.625,33.02
39.640,31.1
39.656,28.82
39.671,26.49
39.687,24.34
39.703,22.54
39.718,21.03
39.734,19.65
39.750,18.08
39.765,16.02
39.781,13.34
39.796,10.1
39.812,6.52
39.828,2.94
39.843,-0.36
39.859,-3.25
39.875,-5.76
39.890,-8.05
39.906,-10.27
39.921,-12.54
39.937,-14.91
39.953,-17.36
39.968,-19.87
39.984,-22.47
40.000,-25.17
40.015,-28.02
40.031,-31.08
40.046,-34.42
40.062,-38.09
40.078,-41.94
40.093,-45.64
40.109,-48.59
40.125,-50.12
40.140,-49.69
40.156,-47.09
40.171,-42.48
40.187,-36.4
40.203,-29.49
40.218,-22.35
40.234,-15.41
40.250,-8.93
40.265,-3.0
40.281,2.4
40.296,7.36
40.312,12.01
40.328,16.41
40.343,20.52
40.359,24.14
40.375,27.01
40.390,28.94
40.406,29.93
40.421,30.22
40.437,30.15
40.453,30.07
40.468,30.2
40.484,30.6
40.500,31.2
40.515,31.88
40.531,32.52
40.546,32.98
40.562,33.09
40.578,32.71
40.593,31.77
40.609,30.27
40.625,28.38
40.640,26.3
40.656,24.2
40.671,22.16
40.687,20.16
40.703,18.09
40.718,15.85
40.734,13.38
40.750,10.69
40.765,7.9
40.781,5.13
40.796,2.5
40.812,0.02
40.828,-2.35
40.843,-4.79
40.859,-7.46
40.875,-10.43
40.890,-13.62
40.906,-16.8
40.921,-19.69
40.937,-22.11
40.953,-24.08
40.968,-25.82
40.984,-27.73
41.000,-30.13
41.015,-33.21
41.031,-36.99
41.046,-41.23
41.062,-45.51
41.078,-49.25
41.093,-51.74
41.109,-52.31
41.125,-50.49
41.140,-46.2
41.156,-39.83
41.171,-32.17
41.187,-24.07
41.203,-16.21
41.218,-8.9
41.234,-2.12
41.250,4.34
41.265,10.65
41.281,16.88
41.296,22.92
41.312,28.56
41.328,33.55
41.343,37.63
41.359,40.53
41.375,42.0
41.390,41.95
41.406,40.47
41.421,37.91
41.437,34.73
41.453,31.37
41.468,28.19
41.484,25.31
41.500,22.78
41.515,20.57
41.531,18.66
41.546,17.01
41.562,15.58
41.578,14.23
41.593,12.81
41.609,11.22
41.625,9.43
41.640,7.54
41.656,5.78
41.671,4.35
41.687,3.38
41.703,2.81
41.718,2.42
41.734,1.91
41.750,1.02
41.765,-0.37
41.781,-2.15
41.796,-4.05
41.812,-5.85
41.828,-7.43
41.843,-8.88
41.859,-10.49
41.875,-12.51
41.890,-15.06
41.906,-18.05
41.921,-21.18
41.937,-24.15
41.953,-26.79
41.968,-29.1
41.984,-31.24
42.000,-33.51
42.015,-36.13
42.031,-39.25
42.046,-42.86
42.062,-46.74
42.078,-50.48
42.093,-53.55
42.109,-55.29
42.125,-55.15
42.140,-52.83
42.156,-48.37
42.171,-42.23
42.187,-35.05
42.203,-27.53
42.218,-20.19
42.234,-13.3
42.250,-6.88
42.265,-0.8
42.281,5.17
42.296,11.23
42.312,17.45
42.328,23.73
42.343,29.78
42.359,35.11
42.375,39.24
42.390,41.83
42.406,42.82
42.421,42.51
42.437,41.48
42.453,40.31
42.468,39.45
42.484,39.08
42.500,39.09
42.515,39.26
42.531,39.39
42.546,39.32
42.562,39.0
42.578,38.44
42.593,37.63
42.609,36.59
42.625,35.3
42.640,33.78
42.656,32.09
42.671,30.34
42.687,28.58
42.703,26.86
42.718,25.16
42.734,23.43
42.750,21.62
42.765,19.71
42.781,17.78
42.796,15.96
42.812,14.38
42.828,13.1
42.843,12.07
42.859,11.12
42.875,10.02
42.890,8.63
42.906,6.93
42.921,5.02
42.937,3.15
42.953,1.53
42.968,0.25
42.984,-0.67
43.000,-1.36
43.015,-2.08
43.031,-3.21
43.046,-5.17
43.062,-8.33
43.078,-12.82
43.093,-18.36
43.109,-24.23
43.125,-29.44
43.140,-33.03
43.156,-34.43
43.171,-33.67
43.187,-31.37
43.203,-28.43
43.218,-25.62
43.234,-23.32
43.250,-21.39
43.265,-19.34
43.281,-16.62
43.296,-12.89
43.312,-8.18
43.328,-2.79
43.343,2.88
43.359,8.45
43.375,13.6
43.390,18.0
43.406,21.29
43.421,23.03
43.437,22.86
43.453,20.7
43.468,16.82
43.484,11.85
43.500,6.55
43.515,1.61
43.531,-2.65
43.546,-6.28
43.562,-9.64
43.578,-13.12
43.593,-16.93
43.609,-20.91
43.625,-24.52
43.640,-27.07
43.656,-27.82
43.671,-26.42
43.687,-23.06
43.703,-18.5
43.718,-13.86
43.734,-10.16
43.750,-8.07
43.765,-7.57
43.781,-8.17
43.796,-9.2
43.812,-10.12
43.828,-10.78
43.843,-11.23
43.859,-11.63
43.875,-11.95
43.890,-12.04
43.906,-11.78
43.921,-11.28
43.937,-10.91
43.953,-11.12
43.968,-12.23
43.984,-14.18
44.000,-16.65
44.015,-19.19
44.031,-21.49
44.046,-23.49
44.062,-25.29
44.078,-26.96
44.093,-28.37
44.109,-29.09
44.125,-28.52
44.140,-26.16
44.156,-21.8
44.171,-15.72
44.187,-8.58
44.203,-1.21
44.218,5.75
44.234,12.05
44.250,17.8
44.265,23.34
44.281,28.93
44.296,34.59
44.312,40.08
44.328,45.01
44.343,48.99
44.359,51.77
44.375,53.26
44.390,53.51
44.406,52.69
44.421,51.0
44.437,48.65
44.453,45.94
44.468,43.08
44.484,40.33
44.500,37.85
44.515,35.73
44.531,33.95
44.546,32.34
44.562,30.61
44.578,28.39
44.593,25.4
44.609,21.48
44.625,16.75
44.640,11.55
44.656,6.36
44.671,1.67
44.687,-2.17
44.703,-4.9
44.718,-6.45
44.734,-6.82
44.750,-6.17
44.765,-4.79
44.781,-3.15
44.796,-1.83
44.812,-1.43
44.828,-2.44
44.843,-5.04
44.859,-9.14
44.875,-14.3
44.890,-19.97
44.906,-25.65
44.921,-31.02
44.937,-35.98
44.953,-40.5
44.968,-44.54
44.984,-48.01
45.000,-50.81
45.015,-52.89
45.031,-54.3
45.046,-55.12
45.062,-55.34
45.078,-54.79
45.093,-53.05
45.109,-49.79
45.125,-44.88
45.140,-38.58
45.156,-31.51
45.171,-24.34
45.187,-17.61
45.203,-11.42
45.218,-5.63
45.234,0.06
45.250,5.81
45.265,11.53
45.281,16.9
45.296,21.59
45.312,25.36
45.328,28.2
45.343,30.27
45.359,31.75
45.375,32.77
45.390,33.36
45.406,33.53
45.421,33.3
45.437,32.8
45.453,32.24
45.468,31.79
45.484,31.54
45.500,31.41
45.515,31.23
45.531,30.81
45.546,30.0
45.562,28.78
45.578,27.25
45.593,25.57
45.609,23.88
45.625,22.2
45.640,20.44
45.656,18.39
45.671,15.96
45.687,13.2
45.703,10.31
45.718,7.6
45.734,5.3
45.750,3.46
45.765,1.95
45.781,0.51
45.796,-1.03
45.812,-2.69
45.828,-4.35
45.843,-5.83
45.859,-7.05
45.875,-8.1
45.890,-9.17
45.906,-10.44
45.921,-12.04
45.937,-13.99
45.953,-16.22
45.968,-18.66
45.984,-21.26
46.000,-24.03
46.015,-26.94
46.031,-29.84
46.046,-32.41
46.062,-34.18
46.078,-34.58
46.093,-33.17
46.109,-29.78
46.125,-24.56
46.140,-18.02
46.156,-10.84
46.171,-3.67
46.187,3.01
46.203,8.93
46.218,14.03
46.234,18.46
46.250,22.52
46.265,26.73
46.281,31.67
46.296,37.89
46.312,45.48
46.328,53.87
46.343,61.72
46.359,67.31
46.375,69.04
46.390,66.08
46.406,58.78
46.421,48.49
46.437,37.15
46.453,26.56
46.468,17.98
46.484,11.79
46.500,7.74
46.515,5.11
46.531,3.03
46.546,0.73
46.562,-2.36
46.578,-6.49
46.593,-11.44
46.609,-16.61
46.625,-21.17
46.640,-24.38
46.656,-25.93
46.671,-26.05
46.687,-25.24
46.703,-24.1
46.718,-22.98
46.734,-22.0
46.750,-21.18
46.765,-20.65
46.781,-20.75
46.796,-21.79
46.812,-23.92
46.828,-26.87
46.843,-30.12
46.859,-33.07
46.875,-35.4
46.890,-37.1
46.906,-38.45
46.921,-39.82
46.937,-41.46
46.953,-43.49
46.968,-45.92
46.984,-48.72
47.000,-51.76
47.015,-54.86
47.031,-57.8
47.046,-60.31
47.062,-62.17
47.078,-63.12
47.093,-62.87
47.109,-61.08
47.125,-57.41
47.140,-51.77
47.156,-44.37
47.171,-35.87
47.187,-27.11
47.203,-18.88
47.218,-11.66
47.234,-5.56
47.250,-0.37
47.265,4.22
47.281,8.43
47.296,12.44
47.312,16.28
47.328,19.95
47.343,23.37
47.359,26.41
47.375,28.83
47.390,30.46
47.406,31.25
47.421,31.37
47.437,31.17
47.453,31.04
47.468,31.24
47.484,31.85
47.500,32.73
47.515,33.65
47.531,34.38
47.546,34.72
47.562,34.58
47.578,33.92
47.593,32.73
47.609,31.03
47.625,28.9
47.640,26.48
47.656,23.91
47.671,21.3
47.687,18.71
47.703,16.14
47.718,13.6
47.734,11.1
47.750,8.68
47.765,6.37
47.781,4.14
47.796,1.91
47.812,-0.38
47.828,-2.79
47.843,-5.26
47.859,-7.71
47.875,-10.04
47.890,-12.21
47.906,-14.24
47.921,-16.24
47.937,-18.32
47.953,-20.6
47.968,-23.17
47.984,-26.04
48.000,-29.2
48.015,-32.6
48.031,-36.15
48.046,-39.6
48.062,-42.57
48.078,-44.52
48.093,-44.98
48.109,-43.68
48.125,-40.66
48.140,-36.33
48.156,-31.35
48.171,-26.39
48.187,-21.87
48.203,-17.96
48.218,-14.45
48.234,-11.12
48.250,-7.77
48.265,-4.36
48.281,-1.02
48.296,2.01
48.312,4.52
48.328,6.56
48.343,8.27
48.359,10.06
48.375,12.04
48.390,14.34
48.406,17.01
48.421,20.06
48.437,23.54
48.453,27.47
48.468,32.06
48.484,37.19
48.500,42.88
48.515,48.68
48.531,54.42
48.546,60.21
48.562,66.2
48.578,72.42
48.593,78.52
48.609,84.21
48.625,88.47
48.640,90.45
48.656,88.6
48.671,81.84
48.687,69.68
48.703,52.19
48.718,30.19
48.734,4.89
48.750,-21.71
48.765,-48.68
48.781,-75.45
48.796,-102.85
48.812,-131.54
48.828,-161.45
48.843,-191.69
48.859,-220.58
48.875,-246.56
48.890,-268.02
48.906,-285.74
48.921,-291.91
48.937,-280.44
48.953,-247.92
48.968,-195.96
48.984,-131.24
49.000,-62.39
49.015,-3.4
49.031,43.47
49.046,78.36
49.062,101.62
49.078,112.24
49.093,109.5
49.109,95.45
49.125,73.07
49.140,47.32
49.156,24.03
49.171,9.4
49.187,6.35
49.203,14.95
49.218,31.85
49.234,52.54
49.250,72.85
49.265,90.12
49.281,103.84
49.296,114.91
49.312,125.05
49.328,134.18
49.343,141.15
49.359,143.81
49.375,140.67
49.390,131.64
49.406,118.08
49.421,102.57
49.437,87.87
49.453,76.32
49.468,68.43
49.484,63.68
49.500,61.0
49.515,59.67
49.531,59.64
49.546,61.21
49.562,64.88
49.578,70.89
49.593,79.13
49.609,88.66
49.625,98.13
49.640,106.06
49.656,111.24
49.671,112.99
49.687,111.15
49.703,106.09
49.718,98.47
49.734,89.09
49.750,78.59
49.765,67.66
49.781,57.24
49.796,48.53
49.812,42.67
49.828,40.31
49.843,41.12
49.859,43.67
49.875,45.72
49.890,45.01
49.906,39.92
49.921,30.08
49.937,16.22
49.953,-0.18
49.968,-17.61
49.984,-34.76
50.000,-50.73
50.015,-64.77
50.031,-76.13
50.046,-84.0
50.062,-87.74
50.078,-87.03
50.093,-82.11
50.109,-73.69
50.125,-62.81
50.140,-50.5
50.156,-37.64
50.171,-24.79
50.187,-12.17
50.203,0.24
50.218,12.48
50.234,24.42
50.250,35.6
50.265,45.21
50.281,52.24
50.296,55.87
50.312,55.69
50.328,51.89
50.343,45.07
50.359,35.94
50.375,25.03
50.390,12.69
50.406,-0.64
50.421,-14.2
50.437,-26.82
50.453,-37.24
50.468,-44.58
50.484,-48.68
50.500,-50.15
50.515,-50.0
50.531,-49.02
50.546,-47.46
50.562,-44.99
50.578,-41.08
50.593,-35.48
50.609,-28.5
50.625,-20.98
50.640,-13.91
50.656,-8.1
50.671,-3.94
50.687,-1.45
50.703,-0.38
50.718,-0.4
50.734,-1.23
50.750,-2.7
50.765,-4.72
50.781,-7.29
50.796,-10.49
50.812,-14.48
50.828,-19.42
50.843,-25.28
50.859,-31.72
50.875,-37.94
50.890,-42.81
50.906,-45.08
50.921,-43.75
50.937,-38.44
50.953,-29.67
50.968,-18.71
50.984,-7.27
51.000,3.02
51.015,11.11
51.031,16.71
51.046,20.25
51.062,22.47
51.078,24.06
51.093,25.4
51.109,26.44
51.125,26.85
51.140,26.1
51.156,23.68
51.171,19.19
51.187,12.51
51.203,3.93
51.218,-5.71
51.234,-15.01
51.250,-22.32
51.265,-26.09
51.281,-25.44
51.296,-20.51
51.312,-12.54
51.328,-3.64
51.343,3.69
51.359,7.18
51.375,5.22
51.390,-2.84
51.406,-16.55
51.421,-34.52
51.437,-54.55
51.453,-74.07
51.468,-90.65
51.484,-102.43
51.500,-108.64
51.515,-109.57
51.531,-106.41
51.546,-100.9
51.562,-94.7
51.578,-89.13
51.593,-84.86
51.609,-82.07
51.625,-80.54
51.640,-79.93
51.656,-79.95
51.671,-80.48
51.687,-81.62
51.703,-83.59
51.718,-86.69
51.734,-91.12
51.750,-96.81
51.765,-103.15
51.781,-109.01
51.796,-112.85
51.812,-113.09
51.828,-108.74
51.843,-99.73
51.859,-87.1
51.875,-72.72
51.890,-58.73
51.906,-46.85
51.921,-38.03
51.937,-32.35
51.953,-29.3
51.968,-28.13
51.984,-28.21
52.000,-29.15
52.015,-30.85
52.031,-33.33
52.046,-36.73
52.062,-41.22
52.078,-46.96
52.093,-53.98
52.109,-62.08
52.125,-70.84
52.140,-79.53
52.156,-87.46
52.171,-94.21
52.187,-99.87
52.203,-105.12
52.218,-111.0
52.234,-118.43
52.250,-127.83
52.265,-138.87
52.281,-150.54
52.296,-161.44
52.312,-170.24
52.328,-176.07
52.343,-178.77
52.359,-178.77
52.375,-176.98
52.390,-174.4
52.406,-171.93
52.421,-169.93
52.437,-168.19
52.453,-165.81
52.468,-161.42
52.484,-153.6
52.500,-141.5
52.515,-125.43
52.531,-107.09
52.546,-89.29
52.562,-74.94
52.578,-65.84
52.593,-61.81
52.609,-60.6
52.625,-58.9
52.640,-53.8
52.656,-44.12
52.671,-30.82
52.687,-16.31
52.703,-3.12
52.718,7.29
52.734,15.07
52.750,21.61
52.765,28.52
52.781,36.83
52.796,46.53
52.812,56.86
52.828,66.94
52.843,76.27
52.859,84.91
52.875,93.27
52.890,101.75
52.906,110.46
52.921,119.38
52.937,128.76
52.953,139.33
52.968,152.13
52.984,167.97
53.000,186.61
53.015,206.41
53.031,224.62
53.046,238.22
53.062,244.97
53.078,244.18
53.093,236.72
53.109,224.62
53.125,210.35
53.140,196.25
53.156,184.14
53.171,175.02
53.187,169.03
53.203,165.39
53.218,162.63
53.234,158.98
53.250,153.14
53.265,144.7
53.281,134.26
53.296,123.03
53.312,112.24
53.328,102.61
53.343,94.16
53.359,86.47
53.375,79.02
53.390,71.52
53.406,64.07
53.421,56.95
53.437,50.47
53.453,44.84
53.468,40.06
53.484,36.13
53.500,33.0
53.515,30.69
53.531,29.15
53.546,28.22
53.562,27.58
53.578,26.74
53.593,25.23
53.609,22.63
53.625,18.69
53.640,13.3
53.656,6.44
53.671,-1.83
53.687,-11.39
53.703,-21.83
53.718,-32.41
53.734,-41.93
53.750,-49.0
53.765,-52.34
53.781,-51.24
53.796,-45.86
53.812,-37.14
53.828,-26.56
53.843,-15.63
53.859,-5.43
53.875,3.67
53.890,11.85
53.906,19.55
53.921,27.1
53.937,34.45
53.953,41.19
53.968,46.73
53.984,50.59
54.000,52.67
54.015,53.26
54.031,52.98
54.046,52.39
54.062,51.83
54.078,51.3
54.093,50.66
54.109,49.78
54.125,48.69
54.140,47.59
54.156,46.68
54.171,46.02
54.187,45.39
54.203,44.39
54.218,42.66
54.234,40.06
54.250,36.73
54.265,33.1
54.281,29.63
54.296,26.61
54.312,24.11
54.328,21.92
54.343,19.77
54.359,17.39
54.375,14.71
54.390,11.73
54.406,8.56
54.421,5.31
54.437,2.03
54.453,-1.24
54.468,-4.5
54.484,-7.82
54.500,-11.34
54.515,-15.32
54.531,-20.05
54.546,-25.7
54.562,-32.34
54.578,-39.75
54.593,-47.47
54.609,-54.87
54.625,-61.11
54.640,-65.3
54.656,-66.65
54.671,-64.63
54.687,-59.18
54.703,-50.89
54.718,-40.88
54.734,-30.43
54.750,-20.72
54.765,-12.43
54.781,-5.62
54.796,0.13
54.812,5.43
54.828,10.84
54.843,16.52
54.859,22.24
54.875,27.59
54.890,32.02
54.906,35.22
54.921,37.13
54.937,37.98
54.953,38.2
54.968,38.26
54.984,38.48
55.000,39.03
55.015,39.88
55.031,40.88
55.046,41.89
55.062,42.8
55.078,43.51
55.093,43.95
55.109,44.03
55.125,43.58
55.140,42.54
55.156,40.92
55.171,38.87
55.187,36.64
55.203,34.45
55.218,32.4
55.234,30.45
55.250,28.5
55.265,26.44
55.281,24.28
55.296,22.14
55.312,20.06
55.328,18.03
55.343,15.84
55.359,13.19
55.375,9.93
55.390,6.09
55.406,1.98
55.421,-2.07
55.437,-5.79
55.453,-9.2
55.468,-12.65
55.484,-16.61
55.500,-21.52
55.515,-27.61
55.531,-34.69
55.546,-42.2
55.562,-49.23
55.578,-54.7
55.593,-57.62
55.609,-57.31
55.625,-53.61
55.640,-46.95
55.656,-38.23
55.671,-28.54
55.687,-18.88
55.703,-9.92
55.718,-1.86
55.734,5.46
55.750,12.36
55.765,19.08
55.781,25.64
55.796,31.83
55.812,37.29
55.828,41.71
55.843,44.96
55.859,47.15
55.875,48.53
55.890,49.31
55.906,49.68
55.921,49.68
55.937,49.37
55.953,48.83
55.968,48.19
55.984,47.58
56.000,47.06
56.015,46.56
56.031,45.94
56.046,45.04
56.062,43.74
56.078,41.96
56.093,39.76
56.109,37.27
56.125,34.66
56.140,32.09
56.156,29.61
56.171,27.19
56.187,24.7
56.203,21.9
56.218,18.66
56.234,14.95
56.250,10.95
56.265,6.94
56.281,3.23
56.296,-0.05
56.312,-2.91
56.328,-5.55
56.343,-8.21
56.359,-11.1
56.375,-14.32
56.390,-17.86
56.406,-21.62
56.421,-25.48
56.437,-29.29
56.453,-32.95
56.468,-36.45
56.484,-39.88
56.500,-43.37
56.515,-47.04
56.531,-50.84
56.546,-54.44
56.562,-57.26
56.578,-58.56
56.593,-57.79
56.609,-54.76
56.625,-49.79
56.640,-43.56
56.656,-36.82
56.671,-30.17
56.687,-23.88
56.703,-17.93
56.718,-12.17
56.734,-6.47
56.750,-0.75
56.765,4.9
56.781,10.37
56.796,15.48
56.812,20.08
56.828,24.0
56.843,27.08
56.859,29.28
56.875,30.62
56.890,31.25
56.906,31.4
56.921,31.31
56.937,31.21
56.953,31.23
56.968,31.49
56.984,31.96
57.000,32.48
57.015,32.78
57.031,32.58
57.046,31.7
57.062,30.13
57.078,28.13
57.093,26.07
57.109,24.31
57.125,23.05
57.140,22.18
57.156,21.42
57.171,20.4
57.187,18.86
57.203,16.67
57.218,13.9
57.234,10.71
57.250,7.34
57.265,3.98
57.281,0.86
57.296,-1.88
57.312,-4.17
57.328,-6.09
57.343,-7.86
57.359,-9.76
57.375,-12.09
57.390,-14.96
57.406,-18.31
57.421,-21.85
57.437,-25.25
57.453,-28.31
57.468,-31.0
57.484,-33.59
57.500,-36.43
57.515,-39.9
57.531,-44.11
57.546,-48.87
57.562,-53.6
57.578,-57.5
57.593,-59.75
57.609,-59.71
57.625,-57.19
57.640,-52.48
57.656,-46.31
57.671,-39.63
57.687,-33.35
57.703,-27.99
57.718,-23.61
57.734,-19.86
57.750,-16.22
57.765,-12.3
57.781,-7.94
57.796,-3.33
57.812,1.22
57.828,5.35
57.843,8.85
57.859,11.62
57.875,13.61
57.890,14.84
57.906,15.39
57.921,15.46
57.937,15.39
57.953,15.56
57.968,16.25
57.984,17.55
58.000,19.26
58.015,21.0
58.031,22.34
58.046,23.0
58.062,22.88
58.078,22.07
58.093,20.79
58.109,19.32
58.125,17.88
58.140,16.61
58.156,15.56
58.171,14.64
58.187,13.64
58.203,12.36
58.218,10.62
58.234,8.38
58.250,5.78
58.265,3.09
58.281,0.59
58.296,-1.54
58.312,-3.25
58.328,-4.64
58.343,-5.95
58.359,-7.42
58.375,-9.26
58.390,-11.49
58.406,-14.02
58.421,-16.61
58.437,-19.02
58.453,-21.13
58.468,-23.07
58.484,-25.16
58.500,-27.82
58.515,-31.3
58.531,-35.55
58.546,-40.14
58.562,-44.39
58.578,-47.6
58.593,-49.22
58.609,-48.98
58.625,-46.88
58.640,-43.11
58.656,-37.95
58.671,-31.79
58.687,-25.05
58.703,-18.13
58.718,-11.37
58.734,-5.03
58.750,0.73
58.765,5.8
58.781,10.01
58.796,13.19
58.812,15.24
58.828,16.22
58.843,16.41
58.859,16.24
58.875,16.15
58.890,16.39
58.906,16.89
58.921,17.39
58.937,17.56
58.953,17.23
58.968,16.5
58.984,15.62
59.000,14.88
59.015,14.43
59.031,14.13
59.046,13.78
59.062,13.13
59.078,12.11
59.093,10.84
59.109,9.6
59.125,8.59
59.140,7.82
59.156,7.07
59.171,6.03
59.187,4.42
59.203,2.17
59.218,-0.53
59.234,-3.34
59.250,-5.93
59.265,-8.08
59.281,-9.77
59.296,-11.11
59.312,-12.24
59.328,-13.28
59.343,-14.31
59.359,-15.43
59.375,-16.8
59.390,-18.53
59.406,-20.7
59.421,-23.25
59.437,-26.06
59.453,-29.02
59.468,-32.11
59.484,-35.44
59.500,-39.21
59.515,-43.5
59.531,-48.13
59.546,-52.52
59.562,-55.76
59.578,-56.86
59.593,-55.16
59.609,-50.52
59.625,-43.55
59.640,-35.33
59.656,-27.01
59.671,-19.41
59.687,-12.82
59.703,-7.09
59.718,-1.79
59.734,3.46
59.750,8.9
59.765,14.63
59.781,20.52
59.796,26.31
59.812,31.58
59.828,35.78
59.843,38.36
59.859,38.95
59.875,37.59
59.890,34.96
59.906,32.4
59.921,31.84
59.937,35.43
59.953,44.9
59.968,60.78
59.984,81.74
