timestamp,value
00.000,31.48
00.015,28.17
00.031,24.31
00.046,20.0
00.062,15.5
00.078,11.13
00.093,7.11
00.109,3.41
00.125,-0.28
00.140,-4.35
00.156,-9.18
00.171,-14.83
00.187,-21.04
00.203,-27.28
00.218,-32.96
00.234,-37.72
00.250,-41.57
00.265,-44.91
00.281,-48.44
00.296,-52.93
00.312,-59.03
00.328,-67.1
00.343,-76.88
00.359,-87.34
00.375,-96.65
00.390,-102.52
00.406,-102.86
00.421,-96.52
00.437,-83.85
00.453,-66.67
00.468,-47.64
00.484,-29.43
00.500,-13.87
00.515,-1.59
00.531,7.77
00.546,15.07
00.562,21.17
00.578,26.59
00.593,31.54
00.609,36.03
00.625,39.95
00.640,43.2
00.656,45.62
00.671,47.09
00.687,47.55
00.703,47.15
00.718,46.16
00.734,45.01
00.750,44.1
00.765,43.78
00.781,44.2
00.796,45.35
00.812,46.97
00.828,48.7
00.843,50.06
00.859,50.64
00.875,50.2
00.890,48.75
00.906,46.49
00.921,43.75
00.937,40.78
00.953,37.61
00.968,34.13
00.984,30.16
01.000,25.67
01.015,20.77
01.031,15.81
01.046,11.1
01.062,6.79
01.078,2.76
01.093,-1.35
01.109,-5.95
01.125,-11.28
01.140,-17.29
01.156,-23.58
01.171,-29.59
01.187,-34.86
01.203,-39.26
01.218,-43.06
01.234,-46.87
01.250,-51.48
01.265,-57.58
01.281,-65.5
01.296,-74.96
01.312,-84.95
01.328,-93.75
01.343,-99.27
01.359,-99.64
01.375,-93.83
01.390,-82.1
01.406,-66.03
01.421,-47.98
01.437,-30.33
01.453,-14.77
01.468,-1.92
01.484,8.49
01.500,17.18
01.515,24.9
01.531,32.13
01.546,39.03
01.562,45.5
01.578,51.28
01.593,56.01
01.609,59.31
01.625,60.9
01.640,60.75
01.656,59.15
01.671,56.62
01.687,53.84
01.703,51.43
01.718,49.81
01.734,49.19
01.750,49.49
01.765,50.48
01.781,51.74
01.796,52.78
01.812,53.14
01.828,52.46
01.843,50.64
01.859,47.81
01.875,44.29
01.890,40.39
01.906,36.36
01.921,32.27
01.937,28.07
01.953,23.77
01.968,19.44
01.984,15.22
02.000,11.27
02.015,7.64
02.031,4.21
02.046,0.68
02.062,-3.32
02.078,-8.05
02.093,-13.59
02.109,-19.74
02.125,-26.13
02.140,-32.42
02.156,-38.32
02.171,-43.81
02.187,-49.05
02.203,-54.41
02.218,-60.42
02.234,-67.59
02.250,-76.25
02.265,-86.23
02.281,-96.65
02.296,-105.85
02.312,-111.7
02.328,-112.27
02.343,-106.51
02.359,-94.78
02.375,-78.75
02.390,-60.86
02.406,-43.48
02.421,-28.16
02.437,-15.39
02.453,-4.84
02.468,4.25
02.484,12.5
02.500,20.3
02.515,27.77
02.531,34.95
02.546,41.85
02.562,48.38
02.578,54.32
02.593,59.23
02.609,62.68
02.625,64.38
02.640,64.38
02.656,63.1
02.671,61.23
02.687,59.51
02.703,58.5
02.718,58.44
02.734,59.24
02.750,60.51
02.765,61.73
02.781,62.44
02.796,62.32
02.812,61.33
02.828,59.64
02.843,57.47
02.859,54.98
02.875,52.14
02.890,48.82
02.906,44.88
02.921,40.28
02.937,35.17
02.953,29.81
02.968,24.5
02.984,19.46
03.000,14.78
03.015,10.35
03.031,5.96
03.046,1.29
03.062,-3.95
03.078,-9.89
03.093,-16.48
03.109,-23.41
03.125,-30.26
03.140,-36.63
03.156,-42.31
03.171,-47.45
03.187,-52.54
03.203,-58.26
03.218,-65.27
03.234,-73.93
03.250,-84.05
03.265,-94.62
03.281,-103.92
03.296,-109.88
03.312,-110.66
03.328,-105.31
03.343,-94.15
03.359,-78.71
03.375,-61.2
03.390,-43.79
03.406,-27.99
03.421,-14.4
03.437,-2.89
03.453,7.01
03.468,15.79
03.484,23.71
03.500,30.92
03.515,37.55
03.531,43.68
03.546,49.33
03.562,54.31
03.578,58.22
03.593,60.65
03.609,61.37
03.625,60.53
03.640,58.63
03.656,56.37
03.671,54.46
03.687,53.28
03.703,52.9
03.718,53.02
03.734,53.16
03.750,52.76
03.765,51.42
03.781,48.99
03.796,45.62
03.812,41.7
03.828,37.61
03.843,33.65
03.859,29.86
03.875,26.15
03.890,22.35
03.906,18.42
03.921,14.44
03.937,10.64
03.953,7.23
03.968,4.26
03.984,1.66
04.000,-0.89
04.015,-3.75
04.031,-7.31
04.046,-11.77
04.062,-17.11
04.078,-23.07
04.093,-29.2
04.109,-35.07
04.125,-40.42
04.140,-45.32
04.156,-50.04
04.171,-55.02
04.187,-60.68
04.203,-67.27
04.218,-74.76
04.234,-82.61
04.250,-89.77
04.265,-94.82
04.281,-96.27
04.296,-93.12
04.312,-85.23
04.328,-73.47
04.343,-59.46
04.359,-45.01
04.375,-31.58
04.390,-19.91
04.406,-10.08
04.421,-1.75
04.437,5.52
04.453,12.05
04.468,18.05
04.484,23.52
04.500,28.37
04.515,32.41
04.531,35.4
04.546,37.15
04.562,37.61
04.578,36.98
04.593,35.69
04.609,34.28
04.625,33.24
04.640,32.87
04.656,33.22
04.671,34.2
04.687,35.56
04.703,37.03
04.718,38.3
04.734,39.06
04.750,39.07
04.765,38.21
04.781,36.52
04.796,34.18
04.812,31.5
04.828,28.78
04.843,26.23
04.859,23.89
04.875,21.66
04.890,19.33
04.906,16.68
04.921,13.54
04.937,9.78
04.953,5.36
04.968,0.38
04.984,-5.01
05.000,-10.55
05.015,-16.0
05.031,-21.21
05.046,-26.24
05.062,-31.39
05.078,-37.15
05.093,-44.0
05.109,-52.21
05.125,-61.54
05.140,-71.16
05.156,-79.75
05.171,-85.7
05.187,-87.67
05.203,-84.91
05.218,-77.51
05.234,-66.36
05.250,-52.86
05.265,-38.53
05.281,-24.71
05.296,-12.33
05.312,-1.8
05.328,6.91
05.343,14.2
05.359,20.65
05.375,26.85
05.390,33.18
05.406,39.72
05.421,46.22
05.437,52.21
05.453,57.15
05.468,60.6
05.484,62.39
05.500,62.64
05.515,61.68
05.531,60.09
05.546,58.44
05.562,57.16
05.578,56.48
05.593,56.35
05.609,56.58
05.625,56.89
05.640,57.05
05.656,56.78
05.671,55.84
05.687,53.95
05.703,51.0
05.718,47.03
05.734,42.36
05.750,37.44
05.765,32.7
05.781,28.35
05.796,24.31
05.812,20.29
05.828,15.97
05.843,11.06
05.859,5.52
05.875,-0.53
05.890,-6.88
05.906,-13.27
05.921,-19.5
05.937,-25.43
05.953,-31.09
05.968,-36.63
05.984,-42.32
06.000,-48.47
06.015,-55.45
06.031,-63.44
06.046,-72.42
06.062,-81.92
06.078,-90.89
06.093,-97.96
06.109,-101.66
06.125,-100.96
06.140,-95.55
06.156,-86.06
06.171,-73.78
06.187,-60.2
06.203,-46.61
06.218,-33.79
06.234,-22.11
06.250,-11.52
06.265,-1.88
06.281,7.02
06.296,15.37
06.312,23.33
06.328,30.97
06.343,38.21
06.359,44.8
06.375,50.36
06.390,54.56
06.406,57.17
06.421,58.25
06.437,58.11
06.453,57.28
06.468,56.31
06.484,55.65
06.500,55.52
06.515,55.87
06.531,56.49
06.546,57.1
06.562,57.46
06.578,57.44
06.593,57.0
06.609,56.1
06.625,54.67
06.640,52.61
06.656,49.86
06.671,46.39
06.687,42.26
06.703,37.57
06.718,32.5
06.734,27.2
06.750,21.87
06.765,16.6
06.781,11.39
06.796,6.13
06.812,0.69
06.828,-4.99
06.843,-10.83
06.859,-16.58
06.875,-22.02
06.890,-27.03
06.906,-31.75
06.921,-36.52
06.937,-41.77
06.953,-47.84
06.968,-54.9
06.984,-62.91
07.000,-71.59
07.015,-80.32
07.031,-88.13
07.046,-93.75
07.062,-95.97
07.078,-93.94
07.093,-87.55
07.109,-77.54
07.125,-65.26
07.140,-52.21
07.156,-39.61
07.171,-28.12
07.187,-17.78
07.203,-8.33
07.218,0.59
07.234,9.16
07.250,17.37
07.265,25.06
07.281,32.02
07.296,38.01
07.312,42.79
07.328,46.18
07.343,48.12
07.359,48.72
07.375,48.29
07.390,47.35
07.406,46.45
07.421,45.99
07.437,46.15
07.453,46.82
07.468,47.78
07.484,48.75
07.500,49.49
07.515,49.82
07.531,49.57
07.546,48.57
07.562,46.75
07.578,44.13
07.593,40.88
07.609,37.19
07.625,33.25
07.640,29.21
07.656,25.17
07.671,21.2
07.687,17.36
07.703,13.61
07.718,9.84
07.734,5.86
07.750,1.52
07.765,-3.2
07.781,-8.19
07.796,-13.19
07.812,-18.01
07.828,-22.57
07.843,-26.98
07.859,-31.45
07.875,-36.24
07.890,-41.62
07.906,-47.79
07.921,-54.87
07.937,-62.72
07.953,-70.72
07.968,-77.76
07.984,-82.47
08.000,-83.57
08.015,-80.35
08.031,-73.01
08.046,-62.55
08.062,-50.41
08.078,-38.0
08.093,-26.28
08.109,-15.67
08.125,-6.18
08.140,2.33
08.156,9.99
08.171,16.84
08.187,22.88
08.203,28.11
08.218,32.54
08.234,36.12
08.250,38.72
08.265,40.2
08.281,40.53
08.296,39.91
08.312,38.74
08.328,37.55
08.343,36.84
08.359,36.88
08.375,37.7
08.390,39.11
08.406,40.75
08.421,42.26
08.437,43.3
08.453,43.62
08.468,43.05
08.484,41.53
08.500,39.19
08.515,36.23
08.531,32.93
08.546,29.48
08.562,25.99
08.578,22.4
08.593,18.61
08.609,14.53
08.625,10.16
08.640,5.6
08.656,0.99
08.671,-3.58
08.687,-8.06
08.703,-12.46
08.718,-16.83
08.734,-21.19
08.750,-25.56
08.765,-29.96
08.781,-34.46
08.796,-39.15
08.812,-44.25
08.828,-50.07
08.843,-56.85
08.859,-64.7
08.875,-73.34
08.890,-82.0
08.906,-89.45
08.921,-94.29
08.937,-95.3
08.953,-91.91
08.968,-84.38
08.984,-73.71
09.000,-61.28
09.015,-48.5
09.031,-36.38
09.046,-25.42
09.062,-15.64
09.078,-6.74
09.093,1.62
09.109,9.71
09.125,17.6
09.140,25.18
09.156,32.21
09.171,38.37
09.187,43.35
09.203,46.91
09.218,49.03
09.234,49.85
09.250,49.75
09.265,49.27
09.281,48.91
09.296,49.03
09.312,49.76
09.328,50.94
09.343,52.27
09.359,53.35
09.375,53.87
09.390,53.62
09.406,52.55
09.421,50.79
09.437,48.55
09.453,46.09
09.468,43.6
09.484,41.14
09.500,38.6
09.515,35.78
09.531,32.47
09.546,28.59
09.562,24.25
09.578,19.73
09.593,15.31
09.609,11.19
09.625,7.31
09.640,3.42
09.656,-0.82
09.671,-5.67
09.687,-11.19
09.703,-17.22
09.718,-23.44
09.734,-29.52
09.750,-35.26
09.765,-40.64
09.781,-45.84
09.796,-51.2
09.812,-57.13
09.828,-64.06
09.843,-72.14
09.859,-81.06
09.875,-89.89
09.890,-97.13
09.906,-101.15
09.921,-100.72
09.937,-95.44
09.953,-85.98
09.968,-73.69
09.984,-60.17
10.000,-46.79
10.015,-34.35
10.031,-23.13
10.046,-13.11
10.062,-4.15
10.078,3.98
10.093,11.47
10.109,18.6
10.125,25.61
10.140,32.56
10.156,39.27
10.171,45.28
10.187,50.06
10.203,53.21
10.218,54.68
10.234,54.76
10.250,54.03
10.265,53.14
10.281,52.6
10.296,52.7
10.312,53.51
10.328,54.81
10.343,56.27
10.359,57.46
10.375,57.94
10.390,57.42
10.406,55.77
10.421,53.15
10.437,49.9
10.453,46.44
10.468,43.13
10.484,40.17
10.500,37.51
10.515,34.9
10.531,32.01
10.546,28.55
10.562,24.41
10.578,19.72
10.593,14.84
10.609,10.2
10.625,6.1
10.640,2.61
10.656,-0.51
10.671,-3.63
10.687,-7.16
10.703,-11.24
10.718,-15.83
10.734,-20.71
10.750,-25.62
10.765,-30.43
10.781,-35.12
10.796,-39.78
10.812,-44.51
10.828,-49.54
10.843,-55.09
10.859,-61.47
10.875,-68.9
10.890,-77.21
10.906,-85.68
10.921,-93.0
10.937,-97.6
10.953,-98.11
10.968,-93.95
10.984,-85.57
11.000,-74.26
11.015,-61.72
11.031,-49.41
11.046,-38.18
11.062,-28.2
11.078,-19.25
11.093,-10.98
11.109,-3.18
11.125,4.26
11.140,11.34
11.156,18.08
11.171,24.46
11.187,30.35
11.203,35.48
11.218,39.48
11.234,42.13
11.250,43.43
11.265,43.7
11.281,43.5
11.296,43.42
11.312,43.86
11.328,44.93
11.343,46.5
11.359,48.27
11.375,49.93
11.390,51.21
11.406,51.98
11.421,52.18
11.437,51.8
11.453,50.88
11.468,49.46
11.484,47.61
11.500,45.37
11.515,42.8
11.531,39.88
11.546,36.61
11.562,32.98
11.578,29.01
11.593,24.8
11.609,20.51
11.625,16.36
11.640,12.47
11.656,8.88
11.671,5.44
11.687,1.88
11.703,-2.09
11.718,-6.58
11.734,-11.56
11.750,-16.77
11.765,-21.94
11.781,-26.82
11.796,-31.33
11.812,-35.6
11.828,-39.93
11.843,-44.71
11.859,-50.41
11.875,-57.31
11.890,-65.37
11.906,-73.93
11.921,-81.77
11.937,-87.26
11.953,-88.96
11.968,-86.03
11.984,-78.63
12.000,-67.83
12.015,-55.21
12.031,-42.41
12.046,-30.52
12.062,-20.03
12.078,-10.9
12.093,-2.84
12.109,4.42
12.125,11.0
12.140,16.92
12.156,22.08
12.171,26.44
12.187,29.96
12.203,32.62
12.218,34.46
12.234,35.55
12.250,36.05
12.265,36.17
12.281,36.18
12.296,36.35
12.312,36.85
12.328,37.8
12.343,39.16
12.359,40.8
12.375,42.48
12.390,43.91
12.406,44.84
12.421,45.03
12.437,44.42
12.453,43.02
12.468,41.01
12.484,38.58
12.500,35.89
12.515,33.06
12.531,30.12
12.546,26.98
12.562,23.55
12.578,19.79
12.593,15.71
12.609,11.41
12.625,7.04
12.640,2.71
12.656,-1.54
12.671,-5.77
12.687,-10.12
12.703,-14.71
12.718,-19.58
12.734,-24.68
12.750,-29.86
12.765,-35.01
12.781,-40.03
12.796,-44.96
12.812,-49.94
12.828,-55.2
12.843,-61.07
12.859,-67.84
12.875,-75.61
12.890,-84.03
12.906,-92.22
12.921,-98.86
12.937,-102.43
12.953,-101.76
12.968,-96.37
12.984,-86.79
13.000,-74.34
13.015,-60.74
13.031,-47.53
13.046,-35.65
13.062,-25.34
13.078,-16.27
13.093,-7.91
13.109,0.2
13.125,8.27
13.140,16.27
13.156,24.05
13.171,31.39
13.187,38.05
13.203,43.73
13.218,48.14
13.234,51.05
13.250,52.46
13.265,52.6
13.281,52.02
13.296,51.36
13.312,51.15
13.328,51.67
13.343,52.85
13.359,54.37
13.375,55.83
13.390,56.82
13.406,57.09
13.421,56.54
13.437,55.2
13.453,53.22
13.468,50.82
13.484,48.17
13.500,45.43
13.515,42.59
13.531,39.61
13.546,36.37
13.562,32.81
13.578,28.89
13.593,24.62
13.609,20.08
13.625,15.35
13.640,10.6
13.656,5.97
13.671,1.51
13.687,-2.82
13.703,-7.23
13.718,-12.0
13.734,-17.34
13.750,-23.25
13.765,-29.47
13.781,-35.63
13.796,-41.4
13.812,-46.73
13.828,-51.87
13.843,-57.28
13.859,-63.46
13.875,-70.72
13.890,-79.0
13.906,-87.75
13.921,-95.94
13.937,-102.18
13.953,-105.09
13.968,-103.7
13.984,-97.81
14.000,-88.05
14.015,-75.72
14.031,-62.35
14.046,-49.16
14.062,-36.84
14.078,-25.51
14.093,-15.01
14.109,-5.13
14.125,4.21
14.140,13.03
14.156,21.3
14.171,29.06
14.187,36.34
14.203,43.08
14.218,49.04
14.234,53.8
14.250,56.92
14.265,58.15
14.281,57.57
14.296,55.62
14.312,53.0
14.328,50.53
14.343,48.81
14.359,48.11
14.375,48.27
14.390,48.75
14.406,48.9
14.421,48.22
14.437,46.52
14.453,43.95
14.468,40.88
14.484,37.64
14.500,34.41
14.515,31.13
14.531,27.6
14.546,23.58
14.562,18.86
14.578,13.37
14.593,7.14
14.609,0.37
14.625,-6.53
14.640,-13.03
14.656,-18.62
14.671,-22.98
14.687,-26.14
14.703,-28.55
14.718,-30.85
14.734,-33.69
14.750,-37.41
14.765,-41.99
14.781,-47.12
14.796,-52.45
14.812,-57.77
14.828,-63.1
14.843,-68.65
14.859,-74.61
14.875,-80.97
14.890,-87.34
14.906,-93.0
14.921,-97.03
14.937,-98.54
14.953,-96.84
14.968,-91.69
14.984,-83.22
15.000,-71.96
15.015,-58.64
15.031,-44.09
15.046,-29.09
15.062,-14.33
15.078,-0.26
15.093,12.9
15.109,25.14
15.125,36.63
15.140,47.55
15.156,57.98
15.171,67.76
15.187,76.59
15.203,84.04
15.218,89.72
15.234,93.44
15.250,95.14
15.265,95.09
15.281,93.69
15.296,91.5
15.312,89.02
15.328,86.62
15.343,84.46
15.359,82.48
15.375,80.49
15.390,78.27
15.406,75.66
15.421,72.6
15.437,69.12
15.453,65.25
15.468,61.0
15.484,56.37
15.500,51.37
15.515,46.06
15.531,40.56
15.546,35.0
15.562,29.47
15.578,23.95
15.593,18.31
15.609,12.4
15.625,6.06
15.640,-0.7
15.656,-7.69
15.671,-14.61
15.687,-21.15
15.703,-27.12
15.718,-32.52
15.734,-37.59
15.750,-42.68
15.765,-48.14
15.781,-54.25
15.796,-61.1
15.812,-68.55
15.828,-76.14
15.843,-83.02
15.859,-88.11
15.875,-90.28
15.890,-88.7
15.906,-83.17
15.921,-74.24
15.937,-63.03
15.953,-50.86
15.968,-38.87
15.984,-27.68
16.000,-17.47
16.015,-8.09
16.031,0.74
16.046,9.2
16.062,17.38
16.078,25.22
16.093,32.59
16.109,39.24
16.125,44.86
16.140,49.15
16.156,51.92
16.171,53.22
16.187,53.35
16.203,52.81
16.218,52.14
16.234,51.75
16.250,51.84
16.265,52.35
16.281,53.04
16.296,53.66
16.312,53.94
16.328,53.7
16.343,52.84
16.359,51.33
16.375,49.22
16.390,46.56
16.406,43.4
16.421,39.82
16.437,35.88
16.453,31.75
16.468,27.57
16.484,23.52
16.500,19.69
16.515,16.02
16.531,12.35
16.546,8.43
16.562,4.03
16.578,-0.88
16.593,-6.15
16.609,-11.54
16.625,-16.81
16.640,-21.89
16.656,-26.83
16.671,-31.87
16.687,-37.23
16.703,-43.16
16.718,-49.85
16.734,-57.38
16.750,-65.64
16.765,-74.17
16.781,-82.14
16.796,-88.37
16.812,-91.65
16.828,-91.09
16.843,-86.42
16.859,-78.16
16.875,-67.42
16.890,-55.63
16.906,-44.02
16.921,-33.34
16.937,-23.83
16.953,-15.25
16.968,-7.21
16.984,0.64
17.000,8.4
17.015,15.92
17.031,22.91
17.046,29.07
17.062,34.17
17.078,38.17
17.093,41.06
17.109,42.9
17.125,43.73
17.140,43.63
17.156,42.81
17.171,41.6
17.187,40.44
17.203,39.7
17.218,39.6
17.234,40.06
17.250,40.77
17.265,41.31
17.281,41.28
17.296,40.43
17.312,38.7
17.328,36.1
17.343,32.79
17.359,28.99
17.375,25.01
17.390,21.17
17.406,17.73
17.421,14.76
17.437,12.11
17.453,9.48
17.468,6.51
17.484,2.96
17.500,-1.19
17.515,-5.76
17.531,-10.47
17.546,-15.11
17.562,-19.55
17.578,-23.8
17.593,-27.97
17.609,-32.25
17.625,-36.86
17.640,-42.01
17.656,-47.92
17.671,-54.61
17.687,-61.79
17.703,-68.76
17.718,-74.44
17.734,-77.61
17.750,-77.3
17.765,-73.12
17.781,-65.49
17.796,-55.5
17.812,-44.5
17.828,-33.73
17.843,-23.94
17.859,-15.3
17.875,-7.64
17.890,-0.63
17.906,5.9
17.921,11.92
17.937,17.26
17.953,21.75
17.968,25.29
17.984,27.91
18.000,29.7
18.015,30.76
18.031,31.17
18.046,30.99
18.062,30.38
18.078,29.6
18.093,28.98
18.109,28.86
18.125,29.38
18.140,30.48
18.156,31.88
18.171,33.13
18.187,33.85
18.203,33.75
18.218,32.69
18.234,30.63
18.250,27.64
18.265,23.92
18.281,19.78
18.296,15.63
18.312,11.87
18.328,8.77
18.343,6.28
18.359,4.12
18.375,1.79
18.390,-1.09
18.406,-4.72
18.421,-8.97
18.437,-13.55
18.453,-18.08
18.468,-22.31
18.484,-26.19
18.500,-29.89
18.515,-33.69
18.531,-37.93
18.546,-42.98
18.562,-49.08
18.578,-56.28
18.593,-64.25
18.609,-72.24
18.625,-79.08
18.640,-83.48
18.656,-84.37
18.671,-81.33
18.687,-74.66
18.703,-65.39
18.718,-54.79
18.734,-44.07
18.750,-33.95
18.765,-24.68
18.781,-16.16
18.796,-8.16
18.812,-0.54
18.828,6.72
18.843,13.53
18.859,19.79
18.875,25.42
18.890,30.31
18.906,34.35
18.921,37.4
18.937,39.35
18.953,40.24
18.968,40.27
18.984,39.87
19.000,39.49
19.015,39.55
19.031,40.25
19.046,41.51
19.062,43.04
19.078,44.42
19.093,45.25
19.109,45.29
19.125,44.54
19.140,43.15
19.156,41.38
19.171,39.43
19.187,37.4
19.203,35.24
19.218,32.83
19.234,29.99
19.250,26.63
19.265,22.8
19.281,18.67
19.296,14.43
19.312,10.22
19.328,6.02
19.343,1.68
19.359,-3.03
19.375,-8.21
19.390,-13.79
19.406,-19.49
19.421,-24.98
19.437,-30.09
19.453,-34.87
19.468,-39.65
19.484,-44.87
19.500,-50.93
19.515,-57.99
19.531,-65.91
19.546,-74.22
19.562,-82.18
19.578,-88.76
19.593,-92.92
19.609,-93.75
19.625,-90.86
19.640,-84.41
19.656,-75.18
19.671,-64.32
19.687,-53.03
19.703,-42.21
19.718,-32.31
19.734,-23.36
19.750,-15.08
19.765,-7.13
19.781,0.79
19.796,8.77
19.812,16.76
19.828,24.53
19.843,31.73
19.859,37.98
19.875,42.92
19.890,46.35
19.906,48.23
19.921,48.75
19.937,48.26
19.953,47.23
19.968,46.21
19.984,45.67
20.000,45.93
20.015,47.02
20.031,48.66
20.046,50.38
20.062,51.61
20.078,51.94
20.093,51.22
20.109,49.56
20.125,47.31
20.140,44.85
20.156,42.43
20.171,40.09
20.187,37.71
20.203,35.05
20.218,31.93
20.234,28.27
20.250,24.18
20.265,19.8
20.281,15.35
20.296,10.89
20.312,6.4
20.328,1.8
20.343,-3.02
20.359,-8.07
20.375,-13.3
20.390,-18.58
20.406,-23.76
20.421,-28.76
20.437,-33.55
20.453,-38.23
20.468,-42.98
20.484,-48.04
20.500,-53.69
20.515,-60.09
20.531,-67.25
20.546,-74.81
20.562,-82.0
20.578,-87.75
20.593,-90.92
20.609,-90.62
20.625,-86.56
20.640,-79.13
20.656,-69.3
20.671,-58.34
20.687,-47.36
20.703,-37.11
20.718,-27.82
20.734,-19.39
20.750,-11.53
20.765,-3.98
20.781,3.4
20.796,10.68
20.812,17.75
20.828,24.44
20.843,30.45
20.859,35.46
20.875,39.22
20.890,41.63
20.906,42.86
20.921,43.32
20.937,43.51
20.953,43.93
20.968,44.89
20.984,46.47
21.000,48.5
21.015,50.67
21.031,52.56
21.046,53.85
21.062,54.28
21.078,53.83
21.093,52.58
21.109,50.74
21.125,48.53
21.140,46.12
21.156,43.58
21.171,40.83
21.187,37.74
21.203,34.21
21.218,30.29
21.234,26.14
21.250,22.08
21.265,18.33
21.281,14.96
21.296,11.72
21.312,8.23
21.328,4.16
21.343,-0.61
21.359,-5.87
21.375,-11.22
21.390,-16.28
21.406,-20.9
21.421,-25.21
21.437,-29.59
21.453,-34.43
21.468,-40.09
21.484,-46.78
21.500,-54.42
21.515,-62.62
21.531,-70.59
21.546,-77.22
21.562,-81.3
21.578,-81.83
21.593,-78.35
21.609,-71.14
21.625,-61.14
21.640,-49.68
21.656,-38.03
21.671,-27.14
21.687,-17.44
21.703,-8.9
21.718,-1.25
21.734,5.85
21.750,12.57
21.765,18.88
21.781,24.61
21.796,29.48
21.812,33.31
21.828,36.02
21.843,37.67
21.859,38.44
21.875,38.59
21.890,38.42
21.906,38.28
21.921,38.43
21.937,39.06
21.953,40.21
21.968,41.76
21.984,43.39
22.000,44.75
22.015,45.47
22.031,45.32
22.046,44.28
22.062,42.47
22.078,40.18
22.093,37.67
22.109,35.15
22.125,32.63
22.140,29.97
22.156,27.01
22.171,23.58
22.187,19.65
22.203,15.3
22.218,10.68
22.234,5.93
22.250,1.13
22.265,-3.77
22.281,-8.76
22.296,-13.87
22.312,-19.02
22.328,-24.1
22.343,-28.99
22.359,-33.65
22.375,-38.21
22.390,-42.91
22.406,-48.13
22.421,-54.23
22.437,-61.41
22.453,-69.53
22.468,-77.93
22.484,-85.56
22.500,-91.1
22.515,-93.36
22.531,-91.66
22.546,-86.09
22.562,-77.43
22.578,-66.92
22.593,-55.84
22.609,-45.12
22.625,-35.22
22.640,-26.16
22.656,-17.73
22.671,-9.68
22.687,-1.87
22.703,5.78
22.718,13.23
22.734,20.41
22.750,27.21
22.765,33.45
22.781,38.92
22.796,43.39
22.812,46.76
22.828,49.06
22.843,50.5
22.859,51.39
22.875,52.11
22.890,52.94
22.906,54.05
22.921,55.4
22.937,56.84
22.953,58.17
22.968,59.22
22.984,59.9
23.000,60.12
23.015,59.78
23.031,58.76
23.046,56.98
23.062,54.4
23.078,51.14
23.093,47.45
23.109,43.6
23.125,39.78
23.140,36.06
23.156,32.38
23.171,28.62
23.187,24.72
23.203,20.7
23.218,16.64
23.234,12.54
23.250,8.34
23.265,3.85
23.281,-1.09
23.296,-6.55
23.312,-12.44
23.328,-18.5
23.343,-24.45
23.359,-30.06
23.375,-35.27
23.390,-40.21
23.406,-45.19
23.421,-50.62
23.437,-56.9
23.453,-64.35
23.468,-72.88
23.484,-82.0
23.500,-90.6
23.515,-97.29
23.531,-100.7
23.546,-99.99
23.562,-95.09
23.578,-86.78
23.593,-76.36
23.609,-65.15
23.625,-54.19
23.640,-43.98
23.656,-34.61
23.671,-25.93
23.687,-17.66
23.703,-9.52
23.718,-1.23
23.734,7.4
23.750,16.43
23.765,25.58
23.781,34.35
23.796,42.03
23.812,47.98
23.828,51.89
23.843,53.87
23.859,54.39
23.875,54.12
23.890,53.72
23.906,53.69
23.921,54.23
23.937,55.37
23.953,56.88
23.968,58.49
23.984,59.85
24.000,60.68
24.015,60.8
24.031,60.16
24.046,58.81
24.062,56.88
24.078,54.48
24.093,51.75
24.109,48.82
24.125,45.82
24.140,42.91
24.156,40.14
24.171,37.48
24.187,34.74
24.203,31.72
24.218,28.24
24.234,24.32
24.250,20.11
24.265,15.86
24.281,11.76
24.296,7.86
24.312,4.07
24.328,0.2
24.343,-3.94
24.359,-8.46
24.375,-13.35
24.390,-18.48
24.406,-23.67
24.421,-28.76
24.437,-33.65
24.453,-38.39
24.468,-43.18
24.484,-48.27
24.500,-53.96
24.515,-60.52
24.531,-68.04
24.546,-76.36
24.562,-84.89
24.578,-92.59
24.593,-98.12
24.609,-100.2
24.625,-98.01
24.640,-91.62
24.656,-81.96
24.671,-70.56
24.687,-59.0
24.703,-48.41
24.718,-39.24
24.734,-31.27
24.750,-23.99
24.765,-16.9
24.781,-9.68
24.796,-2.25
24.812,5.33
24.828,12.94
24.843,20.39
24.859,27.44
24.875,33.76
24.890,38.96
24.906,42.71
24.921,44.91
24.937,45.73
24.953,45.59
24.968,45.11
24.984,44.84
25.000,45.2
25.015,46.31
25.031,48.0
25.046,49.95
25.062,51.73
25.078,53.0
25.093,53.54
25.109,53.3
25.125,52.37
25.140,50.94
25.156,49.21
25.171,47.37
25.187,45.49
25.203,43.55
25.218,41.41
25.234,38.91
25.250,35.9
25.265,32.31
25.281,28.25
25.296,23.94
25.312,19.66
25.328,15.63
25.343,11.9
25.359,8.34
25.375,4.65
25.390,0.54
25.406,-4.2
25.421,-9.53
25.437,-15.17
25.453,-20.74
25.468,-25.88
25.484,-30.46
25.500,-34.63
25.515,-38.81
25.531,-43.49
25.546,-49.09
25.562,-55.73
25.578,-63.12
25.593,-70.52
25.609,-76.86
25.625,-81.02
25.640,-82.06
25.656,-79.49
25.671,-73.47
25.687,-64.76
25.703,-54.52
25.718,-44.02
25.734,-34.27
25.750,-25.81
25.765,-18.7
25.781,-12.66
25.796,-7.24
25.812,-2.03
25.828,3.24
25.843,8.65
25.859,14.15
25.875,19.5
25.890,24.34
25.906,28.29
25.921,31.07
25.937,32.66
25.953,33.36
25.968,33.7
25.984,34.3
26.000,35.54
26.015,37.52
26.031,39.98
26.046,42.46
26.062,44.51
26.078,45.85
26.093,46.34
26.109,45.96
26.125,44.77
26.140,42.85
26.156,40.38
26.171,37.59
26.187,34.8
26.203,32.28
26.218,30.14
26.234,28.26
26.250,26.33
26.265,23.95
26.281,20.88
26.296,17.12
26.312,12.91
26.328,8.65
26.343,4.65
26.359,1.01
26.375,-2.48
26.390,-6.2
26.406,-10.49
26.421,-15.49
26.437,-20.98
26.453,-26.55
26.468,-31.75
26.484,-36.33
26.500,-40.31
26.515,-43.99
26.531,-47.83
26.546,-52.32
26.562,-57.86
26.578,-64.64
26.593,-72.5
26.609,-80.84
26.625,-88.62
26.640,-94.5
26.656,-97.19
26.671,-95.82
26.687,-90.36
26.703,-81.6
26.718,-70.92
26.734,-59.85
26.750,-49.59
26.765,-40.75
26.781,-33.21
26.796,-26.44
26.812,-19.75
26.828,-12.53
26.843,-4.52
26.859,4.2
26.875,13.27
26.890,22.15
26.906,30.26
26.921,37.06
26.937,42.16
26.953,45.42
26.968,46.99
26.984,47.32
27.000,47.08
27.015,46.96
27.031,47.5
27.046,48.92
27.062,51.09
27.078,53.66
27.093,56.18
27.109,58.29
27.125,59.73
27.140,60.38
27.156,60.21
27.171,59.25
27.187,57.59
27.203,55.37
27.218,52.81
27.234,50.08
27.250,47.39
27.265,44.82
27.281,42.38
27.296,39.95
27.312,37.33
27.328,34.35
27.343,30.88
27.359,26.95
27.375,22.71
27.390,18.35
27.406,14.04
27.421,9.87
27.437,5.72
27.453,1.42
27.468,-3.24
27.484,-8.39
27.500,-14.02
27.515,-19.98
27.531,-26.02
27.546,-31.89
27.562,-37.43
27.578,-42.61
27.593,-47.53
27.609,-52.42
27.625,-57.56
27.640,-63.29
27.656,-69.9
27.671,-77.56
27.687,-86.1
27.703,-94.88
27.718,-102.77
27.734,-108.33
27.750,-110.28
27.765,-107.92
27.781,-101.45
27.796,-91.94
27.812,-80.92
27.828,-69.84
27.843,-59.68
27.859,-50.69
27.875,-42.61
27.890,-34.88
27.906,-26.99
27.921,-18.63
27.937,-9.71
27.953,-0.29
27.968,9.45
27.984,19.22
28.000,28.66
28.015,37.27
28.031,44.52
28.046,50.01
28.062,53.61
28.078,55.57
28.093,56.43
28.109,56.92
28.125,57.71
28.140,59.21
28.156,61.47
28.171,64.2
28.187,66.85
28.203,68.89
28.218,69.93
28.234,69.86
28.250,68.75
28.265,66.84
28.281,64.37
28.296,61.59
28.312,58.64
28.328,55.65
28.343,52.69
28.359,49.77
28.375,46.82
28.390,43.76
28.406,40.48
28.421,36.91
28.437,33.09
28.453,29.09
28.468,25.0
28.484,20.86
28.500,16.69
28.515,12.47
28.531,8.14
28.546,3.63
28.562,-1.17
28.578,-6.38
28.593,-12.06
28.609,-18.1
28.625,-24.29
28.640,-30.3
28.656,-35.85
28.671,-40.91
28.687,-45.68
28.703,-50.61
28.718,-56.21
28.734,-62.9
28.750,-70.82
28.765,-79.78
28.781,-89.16
28.796,-97.96
28.812,-105.0
28.828,-109.06
28.843,-109.31
28.859,-105.47
28.875,-98.06
28.890,-88.19
28.906,-77.23
28.921,-66.43
28.937,-56.54
28.953,-47.65
28.968,-39.38
28.984,-31.1
29.000,-22.22
29.015,-12.44
29.031,-1.83
29.046,9.16
29.062,19.92
29.078,29.72
29.093,37.99
29.109,44.38
29.125,48.84
29.140,51.61
29.156,53.18
29.171,54.11
29.187,54.98
29.203,56.19
29.218,57.89
29.234,59.99
29.250,62.24
29.265,64.34
29.281,66.05
29.296,67.19
29.312,67.68
29.328,67.51
29.343,66.64
29.359,65.1
29.375,62.94
29.390,60.29
29.406,57.3
29.421,54.08
29.437,50.63
29.453,46.89
29.468,42.76
29.484,38.24
29.500,33.41
29.515,28.5
29.531,23.71
29.546,19.19
29.562,15.02
29.578,11.11
29.593,7.29
29.609,3.32
29.625,-1.01
29.640,-5.83
29.656,-11.08
29.671,-16.61
29.687,-22.18
29.703,-27.58
29.718,-32.75
29.734,-37.83
29.750,-43.1
29.765,-48.89
29.781,-55.53
29.796,-63.11
29.812,-71.39
29.828,-79.72
29.843,-87.05
29.859,-92.1
29.875,-93.73
29.890,-91.32
29.906,-85.01
29.921,-75.7
29.937,-64.74
29.953,-53.48
29.968,-42.87
29.984,-33.24
30.000,-24.44
30.015,-16.03
30.031,-7.62
30.046,0.96
30.062,9.63
30.078,18.05
30.093,25.77
30.109,32.4
30.125,37.65
30.140,41.43
30.156,43.84
30.171,45.17
30.187,45.76
30.203,46.03
30.218,46.33
30.234,46.93
30.250,48.0
30.265,49.51
30.281,51.25
30.296,52.88
30.312,53.97
30.328,54.21
30.343,53.44
30.359,51.81
30.375,49.64
30.390,47.28
30.406,45.0
30.421,42.9
30.437,40.83
30.453,38.56
30.468,35.83
30.484,32.53
30.500,28.67
30.515,24.41
30.531,19.96
30.546,15.46
30.562,11.03
30.578,6.62
30.593,2.1
30.609,-2.66
30.625,-7.84
30.640,-13.45
30.656,-19.44
30.671,-25.58
30.687,-31.59
30.703,-37.26
30.718,-42.52
30.734,-47.55
30.750,-52.76
30.765,-58.67
30.781,-65.78
30.796,-74.29
30.812,-83.93
30.828,-93.81
30.843,-102.53
30.859,-108.56
30.875,-110.6
30.890,-108.09
30.906,-101.38
30.921,-91.62
30.937,-80.34
30.953,-68.91
30.968,-58.18
30.984,-48.29
31.000,-38.89
31.015,-29.48
31.031,-19.66
31.046,-9.32
31.062,1.44
31.078,12.41
31.093,23.29
31.109,33.73
31.125,43.28
31.140,51.39
31.156,57.56
31.171,61.52
31.187,63.41
31.203,63.78
31.218,63.4
31.234,63.09
31.250,63.37
31.265,64.42
31.281,66.06
31.296,67.88
31.312,69.41
31.328,70.26
31.343,70.2
31.359,69.14
31.375,67.18
31.390,64.5
31.406,61.34
31.421,57.94
31.437,54.5
31.453,51.09
31.468,47.68
31.484,44.13
31.500,40.3
31.515,36.08
31.531,31.51
31.546,26.79
31.562,22.17
31.578,17.86
31.593,13.87
31.609,9.99
31.625,5.87
31.640,1.18
31.656,-4.26
31.671,-10.42
31.687,-17.04
31.703,-23.76
31.718,-30.29
31.734,-36.48
31.750,-42.4
31.765,-48.27
31.781,-54.45
31.796,-61.31
31.812,-69.13
31.828,-78.01
31.843,-87.64
31.859,-97.34
31.875,-105.92
31.890,-111.97
31.906,-114.28
31.921,-112.16
31.937,-105.83
31.953,-96.29
31.968,-85.02
31.984,-73.36
32.000,-62.13
32.015,-51.44
32.031,-40.93
32.046,-30.16
32.062,-18.91
32.078,-7.26
32.093,4.52
32.109,16.11
32.125,27.26
32.140,37.68
32.156,46.98
32.171,54.71
32.187,60.43
32.203,63.97
32.218,65.52
32.234,65.66
32.250,65.14
32.265,64.74
32.281,64.94
32.296,65.9
32.312,67.47
32.328,69.26
32.343,70.84
32.359,71.84
32.375,71.97
32.390,71.06
32.406,69.07
32.421,66.09
32.437,62.38
32.453,58.32
32.468,54.32
32.484,50.66
32.500,47.43
32.515,44.45
32.531,41.43
32.546,38.11
32.562,34.34
32.578,30.2
32.593,25.9
32.609,21.59
32.625,17.36
32.640,13.19
32.656,8.95
32.671,4.5
32.687,-0.26
32.703,-5.42
32.718,-10.95
32.734,-16.78
32.750,-22.78
32.765,-28.77
32.781,-34.6
32.796,-40.2
32.812,-45.64
32.828,-51.16
32.843,-57.15
32.859,-64.03
32.875,-72.06
32.890,-81.12
32.906,-90.54
32.921,-99.06
32.937,-105.17
32.953,-107.56
32.968,-105.57
32.984,-99.42
33.000,-90.14
33.015,-79.12
33.031,-67.67
33.046,-56.62
33.062,-46.27
33.078,-36.48
33.093,-26.99
33.109,-17.54
33.125,-7.96
33.140,1.78
33.156,11.61
33.171,21.27
33.187,30.34
33.203,38.25
33.218,44.47
33.234,48.74
33.250,51.14
33.265,52.07
33.281,52.17
33.296,52.1
33.312,52.35
33.328,53.21
33.343,54.7
33.359,56.64
33.375,58.72
33.390,60.58
33.406,61.89
33.421,62.41
33.437,62.09
33.453,61.03
33.468,59.42
33.484,57.52
33.500,55.47
33.515,53.34
33.531,51.1
33.546,48.63
33.562,45.78
33.578,42.43
33.593,38.47
33.609,33.99
33.625,29.13
33.640,24.21
33.656,19.53
33.671,15.35
33.687,11.7
33.703,8.41
33.718,5.11
33.734,1.39
33.750,-3.07
33.765,-8.34
33.781,-14.25
33.796,-20.42
33.812,-26.44
33.828,-32.03
33.843,-37.15
33.859,-41.95
33.875,-46.81
33.890,-52.15
33.906,-58.39
33.921,-65.71
33.937,-73.9
33.953,-82.21
33.968,-89.39
33.984,-94.02
34.000,-94.92
34.015,-91.59
34.031,-84.47
34.046,-74.78
34.062,-63.99
34.078,-53.41
34.093,-43.72
34.109,-35.02
34.125,-26.97
34.140,-19.18
34.156,-11.32
34.171,-3.23
34.187,5.06
34.203,13.36
34.218,21.29
34.234,28.37
34.250,34.13
34.265,38.28
34.281,40.82
34.296,42.03
34.312,42.36
34.328,42.26
34.343,42.15
34.359,42.3
34.375,42.97
34.390,44.29
34.406,46.24
34.421,48.54
34.437,50.67
34.453,52.0
34.468,52.1
34.484,50.84
34.500,48.54
34.515,45.72
34.531,42.85
34.546,40.18
34.562,37.59
34.578,34.83
34.593,31.64
34.609,27.94
34.625,23.89
34.640,19.75
34.656,15.75
34.671,11.93
34.687,8.21
34.703,4.38
34.718,0.27
34.734,-4.24
34.750,-9.19
34.765,-14.58
34.781,-20.31
34.796,-26.27
34.812,-32.27
34.828,-38.09
34.843,-43.62
34.859,-48.92
34.875,-54.25
34.890,-60.05
34.906,-66.7
34.921,-74.29
34.937,-82.4
34.953,-90.07
34.968,-95.96
34.984,-98.8
35.000,-97.76
35.015,-92.85
35.031,-84.89
35.046,-75.2
35.062,-65.1
35.078,-55.5
35.093,-46.63
35.109,-38.19
35.125,-29.65
35.140,-20.56
35.156,-10.79
35.171,-0.48
35.187,10.02
35.203,20.23
35.218,29.67
35.234,37.89
35.250,44.51
35.265,49.31
35.281,52.31
35.296,53.77
35.312,54.18
35.328,54.13
35.343,54.18
35.359,54.69
35.375,55.82
35.390,57.47
35.406,59.36
35.421,61.07
35.437,62.2
35.453,62.48
35.468,61.86
35.484,60.46
35.500,58.54
35.515,56.34
35.531,54.02
35.546,51.6
35.562,49.04
35.578,46.21
35.593,43.01
35.609,39.37
35.625,35.27
35.640,30.75
35.656,25.97
35.671,21.13
35.687,16.47
35.703,12.16
35.718,8.26
35.734,4.62
35.750,0.98
35.765,-2.96
35.781,-7.4
35.796,-12.37
35.812,-17.67
35.828,-23.06
35.843,-28.28
35.859,-33.27
35.875,-38.16
35.890,-43.23
35.906,-48.86
35.921,-55.38
35.937,-62.97
35.953,-71.52
35.968,-80.56
35.984,-89.17
36.000,-96.14
36.015,-100.21
36.031,-100.46
36.046,-96.65
36.062,-89.33
36.078,-79.67
36.093,-69.09
36.109,-58.78
36.125,-49.4
36.140,-41.05
36.156,-33.41
36.171,-26.02
36.187,-18.47
36.203,-10.47
36.218,-1.95
36.234,7.01
36.250,16.17
36.265,25.13
36.281,33.35
36.296,40.3
36.312,45.55
36.328,48.98
36.343,50.77
36.359,51.39
36.375,51.44
36.390,51.5
36.406,51.91
36.421,52.78
36.437,53.93
36.453,55.07
36.468,55.92
36.484,56.28
36.500,56.14
36.515,55.6
36.531,54.79
36.546,53.75
36.562,52.49
36.578,50.95
36.593,49.06
36.609,46.86
36.625,44.41
36.640,41.84
36.656,39.25
36.671,36.69
36.687,34.15
36.703,31.57
36.718,28.86
36.734,25.95
36.750,22.83
36.765,19.53
36.781,16.1
36.796,12.59
36.812,9.01
36.828,5.29
36.843,1.33
36.859,-2.95
36.875,-7.59
36.890,-12.54
36.906,-17.7
36.921,-22.97
36.937,-28.25
36.953,-33.47
36.968,-38.55
36.984,-43.44
37.000,-48.15
37.015,-52.87
37.031,-58.0
37.046,-64.07
37.062,-71.43
37.078,-79.94
37.093,-88.76
37.109,-96.39
37.125,-101.11
37.140,-101.63
37.156,-97.57
37.171,-89.63
37.187,-79.28
37.203,-68.16
37.218,-57.51
37.234,-47.97
37.250,-39.54
37.265,-31.93
37.281,-24.77
37.296,-17.76
37.312,-10.65
37.328,-3.19
37.343,4.76
37.359,13.12
37.375,21.51
37.390,29.24
37.406,35.59
37.421,40.02
37.437,42.45
37.453,43.23
37.468,43.08
37.484,42.74
37.500,42.84
37.515,43.67
37.531,45.22
37.546,47.25
37.562,49.4
37.578,51.35
37.593,52.81
37.609,53.62
37.625,53.64
37.640,52.8
37.656,51.17
37.671,48.87
37.687,46.15
37.703,43.27
37.718,40.47
37.734,37.85
37.750,35.42
37.765,33.03
37.781,30.47
37.796,27.6
37.812,24.35
37.828,20.81
37.843,17.17
37.859,13.63
37.875,10.34
37.890,7.28
37.906,4.33
37.921,1.25
37.937,-2.16
37.953,-6.05
37.968,-10.35
37.984,-14.93
38.000,-19.55
38.015,-24.0
38.031,-28.21
38.046,-32.27
38.062,-36.42
38.078,-41.02
38.093,-46.4
38.109,-52.74
38.125,-59.91
38.140,-67.4
38.156,-74.24
38.171,-79.22
38.187,-81.15
38.203,-79.29
38.218,-73.6
38.234,-64.86
38.250,-54.39
38.265,-43.71
38.281,-33.95
38.296,-25.67
38.312,-18.76
38.328,-12.78
38.343,-7.17
38.359,-1.59
38.375,4.09
38.390,9.81
38.406,15.43
38.421,20.77
38.437,25.67
38.453,29.91
38.468,33.3
38.484,35.7
38.500,37.11
38.515,37.73
38.531,37.87
38.546,37.9
38.562,38.13
38.578,38.73
38.593,39.7
38.609,40.9
38.625,42.09
38.640,42.96
38.656,43.21
38.671,42.62
38.687,41.14
38.703,38.93
38.718,36.28
38.734,33.58
38.750,31.11
38.765,28.96
38.781,27.01
38.796,24.99
38.812,22.62
38.828,19.77
38.843,16.47
38.859,12.9
38.875,9.23
38.890,5.52
38.906,1.67
38.921,-2.58
38.937,-7.43
38.953,-12.9
38.968,-18.78
38.984,-24.64
39.000,-30.03
39.015,-34.68
39.031,-38.66
39.046,-42.33
39.062,-46.22
39.078,-50.83
39.093,-56.52
39.109,-63.35
39.125,-71.08
39.140,-79.08
39.156,-86.37
39.171,-91.72
39.187,-93.98
39.203,-92.41
39.218,-86.99
39.234,-78.48
39.250,-68.21
39.265,-57.6
39.281,-47.71
39.296,-39.01
39.312,-31.35
39.328,-24.25
39.343,-17.15
39.359,-9.62
39.375,-1.46
39.390,7.26
39.406,16.24
39.421,24.98
39.437,32.86
39.453,39.33
39.468,44.02
39.484,46.95
39.500,48.49
39.515,49.22
39.531,49.71
39.546,50.39
39.562,51.42
39.578,52.74
39.593,54.26
39.609,55.79
39.625,57.22
39.640,58.38
39.656,59.03
39.671,58.93
39.687,57.91
39.703,55.99
39.718,53.31
39.734,50.22
39.750,47.04
39.765,43.98
39.781,41.12
39.796,38.37
39.812,35.63
39.828,32.78
39.843,29.76
39.859,26.52
39.875,23.05
39.890,19.33
39.906,15.35
39.921,11.13
39.937,6.68
39.953,1.99
39.968,-2.98
39.984,-8.26
40.000,-13.83
40.015,-19.58
40.031,-25.35
40.046,-30.94
40.062,-36.22
40.078,-41.25
40.093,-46.23
40.109,-51.54
40.125,-57.62
40.140,-64.8
40.156,-73.13
40.171,-82.21
40.187,-91.1
40.203,-98.46
40.218,-102.9
40.234,-103.42
40.250,-99.72
40.265,-92.35
40.281,-82.52
40.296,-71.65
40.312,-60.99
40.328,-51.22
40.343,-42.45
40.359,-34.41
40.375,-26.64
40.390,-18.74
40.406,-10.49
40.421,-1.78
40.437,7.36
40.453,16.75
40.468,26.06
40.484,34.77
40.500,42.3
40.515,48.14
40.531,52.08
40.546,54.25
40.562,55.13
40.578,55.34
40.593,55.44
40.609,55.76
40.625,56.44
40.640,57.41
40.656,58.5
40.671,59.51
40.687,60.23
40.703,60.47
40.718,60.13
40.734,59.2
40.750,57.77
40.765,55.99
40.781,53.98
40.796,51.78
40.812,49.36
40.828,46.66
40.843,43.65
40.859,40.33
40.875,36.71
40.890,32.79
40.906,28.55
40.921,24.03
40.937,19.39
40.953,14.87
40.968,10.78
40.984,7.29
41.000,4.32
41.015,1.52
41.031,-1.6
41.046,-5.49
41.062,-10.29
41.078,-15.81
41.093,-21.58
41.109,-27.12
41.125,-32.15
41.140,-36.72
41.156,-41.13
41.171,-45.91
41.187,-51.57
41.203,-58.44
41.218,-66.41
41.234,-74.84
41.250,-82.53
41.265,-88.02
41.281,-89.9
41.296,-87.34
41.312,-80.41
41.328,-69.98
41.343,-57.5
41.359,-44.36
41.375,-31.59
41.390,-19.55
41.406,-8.15
41.421,2.97
41.437,14.16
41.453,25.66
41.468,37.57
41.484,49.87
41.500,62.43
41.515,75.04
41.531,87.38
41.546,99.12
41.562,109.96
41.578,119.7
41.593,128.22
41.609,135.59
41.625,142.0
41.640,147.84
41.656,153.6
41.671,159.72
41.687,166.48
41.703,173.93
41.718,181.89
41.734,190.05
41.750,197.84
41.765,204.32
41.781,208.02
41.796,207.15
41.812,200.21
41.828,186.75
41.843,167.73
41.859,145.46
41.875,122.64
41.890,101.36
41.906,82.32
41.921,64.9
41.937,47.84
41.953,30.25
41.968,12.09
41.984,-5.79
42.000,-22.3
42.015,-36.73
42.031,-49.11
42.046,-60.07
42.062,-70.37
42.078,-80.4
42.093,-89.94
42.109,-98.26
42.125,-104.51
42.140,-108.11
42.156,-109.07
42.171,-107.94
42.187,-105.6
42.203,-102.94
42.218,-100.54
42.234,-98.68
42.250,-97.38
42.265,-96.61
42.281,-96.29
42.296,-96.34
42.312,-96.54
42.328,-96.61
42.343,-96.19
42.359,-94.95
42.375,-92.75
42.390,-89.58
42.406,-85.49
42.421,-80.51
42.437,-74.61
42.453,-67.72
42.468,-59.93
42.484,-51.55
42.500,-43.14
42.515,-35.44
42.531,-29.15
42.546,-24.69
42.562,-22.05
42.578,-20.88
42.593,-20.58
42.609,-20.55
42.625,-20.29
42.640,-19.42
42.656,-17.68
42.671,-14.96
42.687,-11.32
42.703,-7.09
42.718,-2.86
42.734,0.68
42.750,2.94
42.765,3.7
42.781,3.18
42.796,1.92
42.812,0.6
42.828,-0.3
42.843,-0.62
42.859,-0.53
42.875,-0.39
42.890,-0.61
42.906,-1.45
42.921,-3.02
42.937,-5.16
42.953,-7.57
42.968,-9.81
42.984,-11.39
43.000,-11.89
43.015,-11.15
43.031,-9.38
43.046,-7.13
43.062,-5.16
43.078,-4.13
43.093,-4.38
43.109,-5.85
43.125,-8.17
43.140,-10.84
43.156,-13.52
43.171,-16.1
43.187,-18.65
43.203,-21.35
43.218,-24.33
43.234,-27.61
43.250,-31.09
43.265,-34.62
43.281,-38.04
43.296,-41.11
43.312,-43.6
43.328,-45.14
43.343,-45.37
43.359,-44.05
43.375,-41.13
43.390,-36.86
43.406,-31.7
43.421,-26.23
43.437,-20.89
43.453,-15.93
43.468,-11.33
43.484,-6.94
43.500,-2.65
43.515,1.49
43.531,5.31
43.546,8.62
43.562,11.29
43.578,13.39
43.593,15.09
43.609,16.61
43.625,18.11
43.640,19.67
43.656,21.29
43.671,22.92
43.687,24.51
43.703,26.04
43.718,27.47
43.734,28.71
43.750,29.62
43.765,30.03
43.781,29.77
43.796,28.82
43.812,27.26
43.828,25.3
43.843,23.19
43.859,21.1
43.875,19.08
43.890,17.04
43.906,14.81
43.921,12.31
43.937,9.55
43.953,6.7
43.968,4.0
43.984,1.7
44.000,-0.07
44.015,-1.3
44.031,-2.15
44.046,-2.87
44.062,-3.65
44.078,-4.62
44.093,-5.76
44.109,-6.98
44.125,-8.12
44.140,-9.09
44.156,-9.83
44.171,-10.37
44.187,-10.87
44.203,-11.59
44.218,-12.9
44.234,-15.16
44.250,-18.56
44.265,-22.93
44.281,-27.73
44.296,-32.07
44.312,-35.02
44.328,-35.89
44.343,-34.42
44.359,-30.85
44.375,-25.81
44.390,-20.14
44.406,-14.67
44.421,-10.13
44.437,-6.94
44.453,-5.18
44.468,-4.6
44.484,-4.7
44.500,-4.96
44.515,-5.01
44.531,-4.86
44.546,-4.77
44.562,-5.11
44.578,-6.23
44.593,-8.36
44.609,-11.56
44.625,-15.84
44.640,-21.08
44.656,-26.99
44.671,-32.98
44.687,-38.21
44.703,-41.8
44.718,-43.03
44.734,-41.67
44.750,-37.99
44.765,-32.7
44.781,-26.59
44.796,-20.33
44.812,-14.34
44.828,-8.77
44.843,-3.67
44.859,0.9
44.875,4.87
44.890,8.13
44.906,10.73
44.921,12.77
44.937,14.5
44.953,16.17
44.968,17.95
44.984,19.83
45.000,21.55
45.015,22.81
45.031,23.3
45.046,22.91
45.062,21.68
45.078,19.79
45.093,17.45
45.109,14.81
45.125,11.98
45.140,9.01
45.156,5.97
45.171,3.04
45.187,0.38
45.203,-1.85
45.218,-3.53
45.234,-4.72
45.250,-5.58
45.265,-6.39
45.281,-7.48
45.296,-9.12
45.312,-11.44
45.328,-14.33
45.343,-17.47
45.359,-20.43
45.375,-22.75
45.390,-24.14
45.406,-24.52
45.421,-23.98
45.437,-22.76
45.453,-21.07
45.468,-19.09
45.484,-16.93
45.500,-14.64
45.515,-12.28
45.531,-9.89
45.546,-7.53
45.562,-5.21
45.578,-2.93
45.593,-0.68
45.609,1.58
45.625,3.83
45.640,6.01
45.656,8.02
45.671,9.75
45.687,11.12
45.703,12.09
45.718,12.66
45.734,12.87
45.750,12.71
45.765,12.13
45.781,11.05
45.796,9.44
45.812,7.32
45.828,4.84
45.843,2.24
45.859,-0.24
45.875,-2.38
45.890,-4.04
45.906,-5.19
45.921,-5.9
45.937,-6.37
45.953,-6.84
45.968,-7.53
45.984,-8.6
46.000,-10.04
46.015,-11.68
46.031,-13.3
46.046,-14.78
46.062,-16.13
46.078,-17.56
46.093,-19.33
46.109,-21.58
46.125,-24.31
46.140,-27.27
46.156,-30.14
46.171,-32.65
46.187,-34.7
46.203,-36.44
46.218,-38.15
46.234,-40.24
46.250,-42.96
46.265,-46.37
46.281,-50.29
46.296,-54.33
46.312,-57.97
46.328,-60.72
46.343,-62.24
46.359,-62.37
46.375,-61.21
46.390,-59.03
46.406,-56.23
46.421,-53.08
46.437,-49.66
46.453,-45.65
46.468,-40.43
46.484,-33.28
46.500,-23.73
46.515,-11.85
46.531,1.69
46.546,15.62
46.562,28.53
46.578,39.18
46.593,46.83
46.609,51.41
46.625,53.39
46.640,53.65
46.656,53.16
46.671,52.75
46.687,52.95
46.703,53.89
46.718,55.4
46.734,57.11
46.750,58.57
46.765,59.45
46.781,59.57
46.796,58.9
46.812,57.51
46.828,55.49
46.843,52.94
46.859,49.9
46.875,46.44
46.890,42.65
46.906,38.6
46.921,34.39
46.937,30.1
46.953,25.86
46.968,21.81
46.984,18.14
47.000,15.11
47.015,12.98
47.031,11.86
47.046,11.59
47.062,11.76
47.078,11.75
47.093,11.01
47.109,9.23
47.125,6.41
47.140,2.8
47.156,-1.18
47.171,-5.16
47.187,-8.84
47.203,-12.06
47.218,-14.78
47.234,-17.16
47.250,-19.54
47.265,-22.37
47.281,-26.08
47.296,-30.77
47.312,-36.12
47.328,-41.36
47.343,-45.53
47.359,-47.84
47.375,-47.94
47.390,-45.98
47.406,-42.44
47.421,-37.86
47.437,-32.62
47.453,-26.89
47.468,-20.75
47.484,-14.33
47.500,-7.88
47.515,-1.8
47.531,3.52
47.546,7.85
47.562,11.14
47.578,13.64
47.593,15.69
47.609,17.68
47.625,19.83
47.640,22.17
47.656,24.64
47.671,27.14
47.687,29.69
47.703,32.45
47.718,35.5
47.734,38.74
47.750,41.62
47.765,43.33
47.781,43.08
47.796,40.43
47.812,35.5
47.828,28.96
47.843,21.74
47.859,14.73
47.875,8.57
47.890,3.61
47.906,0.01
47.921,-2.25
47.937,-3.21
47.953,-3.05
47.968,-2.03
47.984,-0.48
48.000,1.28
48.015,2.93
48.031,4.28
48.046,5.23
48.062,5.78
48.078,6.11
48.093,6.41
48.109,6.87
48.125,7.48
48.140,8.1
48.156,8.52
48.171,8.57
48.187,8.31
48.203,7.91
48.218,7.63
48.234,7.64
48.250,7.95
48.265,8.42
48.281,8.84
48.296,9.05
48.312,8.91
48.328,8.34
48.343,7.26
48.359,5.7
48.375,3.82
48.390,2.02
48.406,0.83
48.421,0.73
48.437,1.95
48.453,4.34
48.468,7.36
48.484,10.28
48.500,12.4
48.515,13.25
48.531,12.77
48.546,11.17
48.562,8.89
48.578,6.42
48.593,4.21
48.609,2.55
48.625,1.55
48.640,1.06
48.656,0.71
48.671,0.08
48.687,-1.19
48.703,-3.21
48.718,-5.79
48.734,-8.51
48.750,-10.93
48.765,-12.72
48.781,-13.84
48.796,-14.44
48.812,-14.76
48.828,-15.1
48.843,-15.63
48.859,-16.41
48.875,-17.39
48.890,-18.42
48.906,-19.3
48.921,-19.83
48.937,-19.86
48.953,-19.38
48.968,-18.46
48.984,-17.18
49.000,-15.67
49.015,-14.03
49.031,-12.43
49.046,-11.11
49.062,-10.36
49.078,-10.48
49.093,-11.56
49.109,-13.46
49.125,-15.75
49.140,-17.92
49.156,-19.59
49.171,-20.67
49.187,-21.33
49.203,-21.88
49.218,-22.53
49.234,-23.29
49.250,-23.96
49.265,-24.36
49.281,-24.45
49.296,-24.43
49.312,-24.61
49.328,-25.31
49.343,-26.64
49.359,-28.48
49.375,-30.52
49.390,-32.27
49.406,-33.26
49.421,-33.06
49.437,-31.4
49.453,-28.29
49.468,-23.99
49.484,-18.96
49.500,-13.71
49.515,-8.66
49.531,-4.01
49.546,0.2
49.562,4.11
49.578,7.87
49.593,11.55
49.609,15.07
49.625,18.25
49.640,20.74
49.656,22.24
49.671,22.62
49.687,22.0
49.703,20.78
49.718,19.51
49.734,18.69
49.750,18.59
49.765,19.21
49.781,20.3
49.796,21.49
49.812,22.4
49.828,22.78
49.843,22.44
49.859,21.39
49.875,19.72
49.890,17.65
49.906,15.47
49.921,13.39
49.937,11.5
49.953,9.6
49.968,7.28
49.984,4.05
50.000,-0.45
50.015,-6.24
50.031,-12.92
50.046,-19.74
50.062,-25.87
50.078,-30.61
50.093,-33.67
50.109,-35.16
50.125,-35.41
50.140,-34.86
50.156,-33.8
50.171,-32.42
50.187,-30.78
50.203,-29.03
50.218,-27.44
50.234,-26.3
50.250,-25.9
50.265,-26.37
50.281,-27.71
50.296,-29.82
50.312,-32.61
50.328,-35.96
50.343,-39.65
50.359,-43.19
50.375,-45.84
50.390,-46.68
50.406,-44.88
50.421,-40.06
50.437,-32.38
50.453,-22.64
50.468,-11.96
50.484,-1.57
50.500,7.56
50.515,14.86
50.531,20.15
50.546,23.67
50.562,25.86
50.578,27.25
50.593,28.23
50.609,28.96
50.625,29.43
50.640,29.45
50.656,28.93
50.671,27.93
50.687,26.73
50.703,25.75
50.718,25.33
50.734,25.62
50.750,26.5
50.765,27.72
50.781,28.98
50.796,30.09
50.812,30.98
50.828,31.63
50.843,32.0
50.859,31.98
50.875,31.37
50.890,30.1
50.906,28.29
50.921,26.2
50.937,24.25
50.953,22.67
50.968,21.51
50.984,20.52
51.000,19.33
51.015,17.56
51.031,15.07
51.046,11.95
51.062,8.4
51.078,4.65
51.093,0.88
51.109,-2.88
51.125,-6.63
51.140,-10.28
51.156,-13.72
51.171,-16.79
51.187,-19.41
51.203,-21.72
51.218,-23.98
51.234,-26.57
51.250,-29.81
51.265,-33.87
51.281,-38.7
51.296,-44.09
51.312,-49.56
51.328,-54.54
51.343,-58.43
51.359,-60.7
51.375,-61.06
51.390,-59.5
51.406,-56.3
51.421,-51.97
51.437,-47.11
51.453,-42.19
51.468,-37.55
51.484,-33.2
51.500,-28.94
51.515,-24.34
51.531,-18.97
51.546,-12.45
51.562,-4.77
51.578,3.78
51.593,12.55
51.609,20.83
51.625,28.04
51.640,33.94
51.656,38.58
51.671,42.15
51.687,44.89
51.703,46.97
51.718,48.53
51.734,49.75
51.750,50.94
51.765,52.37
51.781,54.27
51.796,56.68
51.812,59.39
51.828,62.03
51.843,64.2
51.859,65.55
51.875,65.84
51.890,64.96
51.906,62.96
51.921,59.96
51.937,56.16
51.953,51.78
51.968,47.01
51.984,42.03
52.000,36.96
52.015,31.96
52.031,27.1
52.046,22.4
52.062,17.79
52.078,13.16
52.093,8.43
52.109,3.64
52.125,-1.07
52.140,-5.46
52.156,-9.34
52.171,-12.55
52.187,-15.02
52.203,-16.76
52.218,-17.86
52.234,-18.54
52.250,-19.11
52.265,-19.96
52.281,-21.44
52.296,-23.73
52.312,-26.79
52.328,-30.29
52.343,-33.74
52.359,-36.53
52.375,-38.16
52.390,-38.29
52.406,-36.78
52.421,-33.76
52.437,-29.56
52.453,-24.62
52.468,-19.39
52.484,-14.18
52.500,-9.11
52.515,-4.13
52.531,0.9
52.546,6.05
52.562,11.19
52.578,16.01
52.593,20.07
52.609,22.97
52.625,24.46
52.640,24.52
52.656,23.24
52.671,20.8
52.687,17.39
52.703,13.26
52.718,8.8
52.734,4.47
52.750,0.79
52.765,-1.94
52.781,-3.74
52.796,-5.0
52.812,-6.31
52.828,-8.23
52.843,-11.07
52.859,-14.79
52.875,-19.16
52.890,-23.95
52.906,-28.97
52.921,-34.19
52.937,-39.47
52.953,-44.54
52.968,-48.96
52.984,-52.32
53.000,-54.47
53.015,-55.69
53.031,-56.69
53.046,-58.31
53.062,-61.25
53.078,-65.79
53.093,-71.68
53.109,-78.32
53.125,-84.89
53.140,-90.64
53.156,-95.03
53.171,-97.72
53.187,-98.71
53.203,-98.32
53.218,-97.16
53.234,-96.04
53.250,-95.82
53.265,-97.14
53.281,-100.02
53.296,-103.74
53.312,-106.79
53.328,-107.06
53.343,-102.43
53.359,-91.3
53.375,-73.13
53.390,-48.72
53.406,-20.14
53.421,9.7
53.437,37.81
53.453,61.76
53.468,80.24
53.484,93.15
53.500,101.37
53.515,106.23
53.531,108.95
53.546,110.31
53.562,110.57
53.578,109.63
53.593,107.32
53.609,103.62
53.625,98.71
53.640,93.03
53.656,87.05
53.671,81.28
53.687,76.19
53.703,72.19
53.718,69.56
53.734,68.38
53.750,68.4
53.765,69.07
53.781,69.73
53.796,69.69
53.812,68.5
53.828,66.02
53.843,62.42
53.859,58.04
53.875,53.24
53.890,48.32
53.906,43.42
53.921,38.59
53.937,33.77
53.953,28.96
53.968,24.16
53.984,19.48
54.000,15.0
54.015,10.76
54.031,6.71
54.046,2.69
54.062,-1.52
54.078,-6.06
54.093,-10.92
54.109,-15.95
54.125,-20.9
54.140,-25.53
54.156,-29.78
54.171,-33.73
54.187,-37.7
54.203,-42.11
54.218,-47.46
54.234,-54.18
54.250,-62.39
54.265,-71.63
54.281,-80.66
54.296,-87.66
54.312,-90.62
54.328,-88.13
54.343,-80.01
54.359,-67.41
54.375,-52.48
54.390,-37.58
54.406,-24.43
54.421,-13.76
54.437,-5.38
54.453,1.41
54.468,7.3
54.484,12.71
54.500,17.83
54.515,22.75
54.531,27.6
54.546,32.49
54.562,37.4
54.578,42.05
54.593,45.98
54.609,48.72
54.625,49.94
54.640,49.72
54.656,48.54
54.671,47.12
54.687,46.26
54.703,46.52
54.718,48.13
54.734,50.88
54.750,54.31
54.765,57.85
54.781,61.06
54.796,63.6
54.812,65.3
54.828,66.08
54.843,65.86
54.859,64.59
54.875,62.24
54.890,58.83
54.906,54.48
54.921,49.38
54.937,43.81
54.953,38.11
54.968,32.59
54.984,27.45
55.000,22.7
55.015,18.17
55.031,13.51
55.046,8.41
55.062,2.7
55.078,-3.58
55.093,-10.19
55.109,-16.78
55.125,-23.12
55.140,-29.07
55.156,-34.73
55.171,-40.37
55.187,-46.41
55.203,-53.31
55.218,-61.42
55.234,-70.72
55.250,-80.55
55.265,-89.62
55.281,-96.16
55.296,-98.42
55.312,-95.34
55.328,-86.98
55.343,-74.55
55.359,-60.02
55.375,-45.44
55.390,-32.26
55.406,-21.06
55.421,-11.64
55.437,-3.39
55.453,4.26
55.468,11.68
55.484,19.01
55.500,26.23
55.515,33.27
55.531,40.0
55.546,46.18
55.562,51.48
55.578,55.56
55.593,58.16
55.609,59.28
55.625,59.12
55.640,58.19
55.656,57.08
55.671,56.4
55.687,56.52
55.703,57.51
55.718,59.07
55.734,60.67
55.750,61.71
55.765,61.75
55.781,60.65
55.796,58.63
55.812,56.02
55.828,53.2
55.843,50.41
55.859,47.69
55.875,44.95
55.890,41.99
55.906,38.69
55.921,34.92
55.937,30.68
55.953,26.08
55.968,21.25
55.984,16.41
56.000,11.65
56.015,7.02
56.031,2.44
56.046,-2.2
56.062,-6.98
56.078,-11.85
56.093,-16.69
56.109,-21.33
56.125,-25.65
56.140,-29.73
56.156,-33.81
56.171,-38.31
56.187,-43.75
56.203,-50.51
56.218,-58.74
56.234,-68.11
56.250,-77.74
56.265,-86.2
56.281,-91.81
56.296,-93.03
56.312,-89.07
56.328,-80.15
56.343,-67.53
56.359,-53.13
56.375,-38.9
56.390,-26.28
56.406,-15.86
56.421,-7.49
56.437,-0.55
56.453,5.64
56.468,11.57
56.484,17.44
56.500,23.24
56.515,28.8
56.531,33.9
56.546,38.24
56.562,41.54
56.578,43.56
56.593,44.24
56.609,43.7
56.625,42.38
56.640,40.85
56.656,39.74
56.671,39.5
56.687,40.23
56.703,41.73
56.718,43.52
56.734,45.07
56.750,45.94
56.765,45.99
56.781,45.29
56.796,44.08
56.812,42.6
56.828,40.97
56.843,39.14
56.859,36.93
56.875,34.16
56.890,30.72
56.906,26.7
56.921,22.29
56.937,17.81
56.953,13.48
56.968,9.38
56.984,5.45
57.000,1.49
57.015,-2.71
57.031,-7.3
57.046,-12.27
57.062,-17.43
57.078,-22.49
57.093,-27.18
57.109,-31.34
57.125,-35.07
57.140,-38.7
57.156,-42.74
57.171,-47.74
57.187,-54.11
57.203,-61.96
57.218,-70.82
57.234,-79.62
57.250,-86.77
57.265,-90.59
57.281,-89.87
57.296,-84.35
57.312,-74.83
57.328,-62.94
57.343,-50.52
57.359,-39.0
57.375,-28.99
57.390,-20.39
57.406,-12.63
57.421,-5.14
57.437,2.44
57.453,10.15
57.468,17.87
57.484,25.41
57.500,32.55
57.515,38.98
57.531,44.36
57.546,48.34
57.562,50.7
57.578,51.44
57.593,50.9
57.609,49.63
57.625,48.31
57.640,47.54
57.656,47.69
57.671,48.73
57.687,50.36
57.703,52.08
57.718,53.4
57.734,53.99
57.750,53.72
57.765,52.7
57.781,51.1
57.796,49.14
57.812,46.96
57.828,44.68
57.843,42.38
57.859,40.03
57.875,37.58
57.890,34.87
57.906,31.74
57.921,28.11
57.937,24.03
57.953,19.72
57.968,15.48
57.984,11.57
58.000,8.07
58.015,4.81
58.031,1.42
58.046,-2.52
58.062,-7.29
58.078,-12.94
58.093,-19.17
58.109,-25.54
58.125,-31.56
58.140,-36.94
58.156,-41.66
58.171,-45.99
58.187,-50.4
58.203,-55.43
58.218,-61.59
58.234,-69.18
58.250,-78.07
58.265,-87.56
58.281,-96.33
58.296,-102.68
58.312,-105.03
58.328,-102.49
58.343,-95.23
58.359,-84.42
58.375,-71.77
58.390,-58.95
58.406,-47.04
58.421,-36.39
58.437,-26.79
58.453,-17.81
58.468,-9.08
58.484,-0.4
58.500,8.36
58.515,17.24
58.531,26.23
58.546,35.1
58.562,43.35
58.578,50.32
58.593,55.43
58.609,58.43
58.625,59.5
58.640,59.24
58.656,58.42
58.671,57.71
58.687,57.51
58.703,57.89
58.718,58.62
58.734,59.37
58.750,59.76
58.765,59.53
58.781,58.6
58.796,57.03
58.812,55.01
58.828,52.76
58.843,50.45
58.859,48.12
58.875,45.7
58.890,43.1
58.906,40.31
58.921,37.45
58.937,34.69
58.953,32.16
58.968,29.87
58.984,27.65
59.000,25.25
59.015,22.43
59.031,19.09
59.046,15.28
59.062,11.19
59.078,7.03
59.093,2.94
59.109,-1.11
59.125,-5.25
59.140,-9.68
59.156,-14.52
59.171,-19.76
59.187,-25.22
59.203,-30.63
59.218,-35.78
59.234,-40.52
59.250,-44.92
59.265,-49.18
59.281,-53.54
59.296,-58.33
59.312,-63.85
59.328,-70.36
59.343,-77.86
59.359,-85.97
59.375,-93.72
59.390,-99.66
59.406,-102.26
59.421,-100.42
59.437,-94.02
59.453,-83.97
59.468,-71.93
59.484,-59.68
59.500,-48.46
59.515,-38.75
59.531,-30.26
59.546,-22.41
59.562,-14.68
59.578,-6.82
59.593,1.18
59.609,9.21
59.625,17.18
59.640,24.93
59.656,32.17
59.671,38.47
59.687,43.36
59.703,46.55
59.718,48.08
59.734,48.36
59.750,48.02
59.765,47.68
59.781,47.71
59.796,48.18
59.812,48.95
59.828,49.82
59.843,50.61
59.859,51.19
59.875,51.43
59.890,51.24
59.906,50.53
59.921,49.26
59.937,47.51
59.953,45.45
59.968,43.23
59.984,40.94
