timestamp,value
00.000,3.4
00.015,1.15
00.031,-0.84
00.046,-2.71
00.062,-4.7
00.078,-7.01
00.093,-9.84
00.109,-13.15
00.125,-16.76
00.140,-20.36
00.156,-23.61
00.171,-26.35
00.187,-28.65
00.203,-30.85
00.218,-33.38
00.234,-36.62
00.250,-40.7
00.265,-45.37
00.281,-50.04
00.296,-53.83
00.312,-55.82
00.328,-55.29
00.343,-51.97
00.359,-46.16
00.375,-38.56
00.390,-30.12
00.406,-21.67
00.421,-13.77
00.437,-6.55
00.453,0.06
00.468,6.21
00.484,12.05
00.500,17.62
00.515,22.88
00.531,27.71
00.546,31.94
00.562,35.4
00.578,37.94
00.593,39.46
00.609,40.01
00.625,39.75
00.640,38.96
00.656,37.91
00.671,36.9
00.687,36.13
00.703,35.72
00.718,35.64
00.734,35.74
00.750,35.72
00.765,35.3
00.781,34.3
00.796,32.73
00.812,30.75
00.828,28.55
00.843,26.33
00.859,24.11
00.875,21.89
00.890,19.65
00.906,17.4
00.921,15.13
00.937,12.83
00.953,10.42
00.968,7.84
00.984,5.08
01.000,2.34
01.015,-0.17
01.031,-2.27
01.046,-4.0
01.062,-5.65
01.078,-7.57
01.093,-10.06
01.109,-13.12
01.125,-16.48
01.140,-19.78
01.156,-22.7
01.171,-25.24
01.187,-27.62
01.203,-30.22
01.218,-33.35
01.234,-37.09
01.250,-41.23
01.265,-45.29
01.281,-48.73
01.296,-50.93
01.312,-51.46
01.328,-50.06
01.343,-46.71
01.359,-41.64
01.375,-35.28
01.390,-28.15
01.406,-20.75
01.421,-13.45
01.437,-6.41
01.453,0.32
01.468,6.78
01.484,12.98
01.500,18.82
01.515,24.12
01.531,28.65
01.546,32.23
01.562,34.79
01.578,36.39
01.593,37.18
01.609,37.36
01.625,37.07
01.640,36.43
01.656,35.49
01.671,34.38
01.687,33.29
01.703,32.4
01.718,31.81
01.734,31.44
01.750,31.01
01.765,30.21
01.781,28.74
01.796,26.6
01.812,24.04
01.828,21.37
01.843,18.84
01.859,16.51
01.875,14.21
01.890,11.77
01.906,9.06
01.921,6.13
01.937,3.14
01.953,0.2
01.968,-2.68
01.984,-5.59
02.000,-8.68
02.015,-11.99
02.031,-15.46
02.046,-18.98
02.062,-22.41
02.078,-25.71
02.093,-28.84
02.109,-31.74
02.125,-34.38
02.140,-36.75
02.156,-39.02
02.171,-41.51
02.187,-44.64
02.203,-48.66
02.218,-53.38
02.234,-58.14
02.250,-61.88
02.265,-63.53
02.281,-62.41
02.296,-58.54
02.312,-52.55
02.328,-45.43
02.343,-38.09
02.359,-31.05
02.375,-24.36
02.390,-17.82
02.406,-11.21
02.421,-4.57
02.437,1.92
02.453,7.98
02.468,13.46
02.484,18.37
02.500,22.77
02.515,26.64
02.531,29.79
02.546,31.92
02.562,32.86
02.578,32.7
02.593,31.89
02.609,31.0
02.625,30.48
02.640,30.49
02.656,30.8
02.671,31.01
02.687,30.76
02.703,29.88
02.718,28.48
02.734,26.78
02.750,24.96
02.765,23.14
02.781,21.26
02.796,19.21
02.812,16.93
02.828,14.41
02.843,11.72
02.859,8.97
02.875,6.22
02.890,3.52
02.906,0.94
02.921,-1.49
02.937,-3.82
02.953,-6.12
02.968,-8.56
02.984,-11.3
03.000,-14.44
03.015,-17.95
03.031,-21.66
03.046,-25.29
03.062,-28.58
03.078,-31.43
03.093,-33.89
03.109,-36.24
03.125,-38.87
03.140,-42.1
03.156,-46.13
03.171,-50.83
03.187,-55.76
03.203,-60.14
03.218,-63.06
03.234,-63.73
03.250,-61.67
03.265,-56.93
03.281,-50.04
03.296,-41.88
03.312,-33.38
03.328,-25.21
03.343,-17.7
03.359,-10.83
03.375,-4.38
03.390,1.82
03.406,7.79
03.421,13.44
03.437,18.57
03.453,23.0
03.468,26.61
03.484,29.33
03.500,31.17
03.515,32.17
03.531,32.46
03.546,32.21
03.562,31.63
03.578,30.93
03.593,30.3
03.609,29.81
03.625,29.42
03.640,29.04
03.656,28.56
03.671,27.89
03.687,27.03
03.703,25.98
03.718,24.71
03.734,23.13
03.750,21.14
03.765,18.73
03.781,16.02
03.796,13.27
03.812,10.72
03.828,8.55
03.843,6.72
03.859,5.05
03.875,3.28
03.890,1.21
03.906,-1.23
03.921,-3.99
03.937,-6.95
03.953,-9.97
03.968,-12.96
03.984,-15.9
04.000,-18.82
04.015,-21.79
04.031,-24.87
04.046,-28.05
04.062,-31.26
04.078,-34.45
04.093,-37.7
04.109,-41.15
04.125,-44.95
04.140,-48.95
04.156,-52.64
04.171,-55.16
04.187,-55.58
04.203,-53.25
04.218,-48.14
04.234,-40.87
04.250,-32.47
04.265,-24.02
04.281,-16.3
04.296,-9.6
04.312,-3.83
04.328,1.35
04.343,6.24
04.359,11.06
04.375,15.83
04.390,20.48
04.406,24.88
04.421,28.89
04.437,32.35
04.453,35.04
04.468,36.74
04.484,37.32
04.500,36.8
04.515,35.41
04.531,33.57
04.546,31.74
04.562,30.27
04.578,29.28
04.593,28.64
04.609,28.12
04.625,27.52
04.640,26.75
04.656,25.89
04.671,24.99
04.687,24.03
04.703,22.86
04.718,21.3
04.734,19.26
04.750,16.8
04.765,14.11
04.781,11.42
04.796,8.86
04.812,6.48
04.828,4.2
04.843,1.94
04.859,-0.38
04.875,-2.8
04.890,-5.32
04.906,-8.01
04.921,-10.89
04.937,-13.92
04.953,-17.0
04.968,-19.99
04.984,-22.73
05.000,-25.16
05.015,-27.33
05.031,-29.43
05.046,-31.76
05.062,-34.49
05.078,-37.56
05.093,-40.55
05.109,-42.78
05.125,-43.49
05.140,-42.09
05.156,-38.48
05.171,-32.99
05.187,-26.27
05.203,-19.01
05.218,-11.72
05.234,-4.66
05.250,2.07
05.265,8.37
05.281,14.15
05.296,19.34
05.312,23.98
05.328,28.22
05.343,32.24
05.359,36.13
05.375,39.79
05.390,42.95
05.406,45.29
05.421,46.64
05.437,47.01
05.453,46.66
05.468,45.86
05.484,44.87
05.500,43.86
05.515,42.9
05.531,42.01
05.546,41.15
05.562,40.23
05.578,39.12
05.593,37.67
05.609,35.75
05.625,33.37
05.640,30.61
05.656,27.62
05.671,24.56
05.687,21.52
05.703,18.55
05.718,15.64
05.734,12.8
05.750,10.04
05.765,7.32
05.781,4.57
05.796,1.66
05.812,-1.43
05.828,-4.66
05.843,-7.87
05.859,-10.92
05.875,-13.72
05.890,-16.32
05.906,-18.85
05.921,-21.48
05.937,-24.37
05.953,-27.65
05.968,-31.47
05.984,-35.89
06.000,-40.87
06.015,-46.1
06.031,-50.99
06.046,-54.78
06.062,-56.63
06.078,-55.98
06.093,-52.64
06.109,-46.97
06.125,-39.69
06.140,-31.7
06.156,-23.84
06.171,-16.64
06.187,-10.23
06.203,-4.36
06.218,1.36
06.234,7.21
06.250,13.2
06.265,18.98
06.281,24.05
06.296,28.0
06.312,30.7
06.328,32.31
06.343,33.11
06.359,33.33
06.375,33.05
06.390,32.26
06.406,31.0
06.421,29.45
06.437,27.96
06.453,26.83
06.468,26.13
06.484,25.67
06.500,25.03
06.515,23.82
06.531,21.89
06.546,19.38
06.562,16.59
06.578,13.78
06.593,11.08
06.609,8.42
06.625,5.66
06.640,2.74
06.656,-0.3
06.671,-3.32
06.687,-6.2
06.703,-8.9
06.718,-11.45
06.734,-13.9
06.750,-16.33
06.765,-18.7
06.781,-21.01
06.796,-23.25
06.812,-25.51
06.828,-27.9
06.843,-30.56
06.859,-33.62
06.875,-37.18
06.890,-41.28
06.906,-45.86
06.921,-50.67
06.937,-55.22
06.953,-58.82
06.968,-60.75
06.984,-60.45
07.000,-57.76
07.015,-52.96
07.031,-46.62
07.046,-39.45
07.062,-32.0
07.078,-24.61
07.093,-17.36
07.109,-10.29
07.125,-3.44
07.140,3.07
07.156,9.08
07.171,14.48
07.187,19.24
07.203,23.37
07.218,26.84
07.234,29.61
07.250,31.57
07.265,32.65
07.281,32.91
07.296,32.53
07.312,31.8
07.328,31.0
07.343,30.29
07.359,29.64
07.375,28.95
07.390,28.08
07.406,26.98
07.421,25.74
07.437,24.48
07.453,23.3
07.468,22.14
07.484,20.8
07.500,19.07
07.515,16.83
07.531,14.15
07.546,11.26
07.562,8.46
07.578,5.93
07.593,3.71
07.609,1.68
07.625,-0.37
07.640,-2.54
07.656,-4.88
07.671,-7.32
07.687,-9.73
07.703,-12.04
07.718,-14.22
07.734,-16.34
07.750,-18.5
07.765,-20.87
07.781,-23.54
07.796,-26.61
07.812,-30.15
07.828,-34.13
07.843,-38.49
07.859,-42.98
07.875,-47.15
07.890,-50.39
07.906,-52.03
07.921,-51.51
07.937,-48.61
07.953,-43.53
07.968,-36.83
07.984,-29.26
08.000,-21.49
08.015,-14.02
08.031,-7.04
08.046,-0.6
08.062,5.43
08.078,11.1
08.093,16.47
08.109,21.51
08.125,26.09
08.140,30.01
08.156,33.09
08.171,35.16
08.187,36.22
08.203,36.38
08.218,35.89
08.234,35.06
08.250,34.23
08.265,33.64
08.281,33.39
08.296,33.46
08.312,33.65
08.328,33.78
08.343,33.64
08.359,33.15
08.375,32.28
08.390,31.06
08.406,29.5
08.421,27.64
08.437,25.55
08.453,23.34
08.468,21.19
08.484,19.2
08.500,17.28
08.515,15.25
08.531,12.87
08.546,10.08
08.562,7.08
08.578,4.17
08.593,1.57
08.609,-0.71
08.625,-2.92
08.640,-5.44
08.656,-8.53
08.671,-12.16
08.687,-16.05
08.703,-19.79
08.718,-23.04
08.734,-25.73
08.750,-28.04
08.765,-30.32
08.781,-32.94
08.796,-36.11
08.812,-39.86
08.828,-43.99
08.843,-48.03
08.859,-51.36
08.875,-53.25
08.890,-53.1
08.906,-50.57
08.921,-45.8
08.937,-39.35
08.953,-32.1
08.968,-24.89
08.984,-18.27
09.000,-12.37
09.015,-6.96
09.031,-1.7
09.046,3.66
09.062,9.17
09.078,14.71
09.093,20.03
09.109,24.89
09.125,29.1
09.140,32.47
09.156,34.91
09.171,36.4
09.187,37.06
09.203,37.13
09.218,36.85
09.234,36.4
09.250,35.86
09.265,35.25
09.281,34.58
09.296,33.89
09.312,33.24
09.328,32.59
09.343,31.8
09.359,30.68
09.375,29.12
09.390,27.21
09.406,25.23
09.421,23.52
09.437,22.34
09.453,21.67
09.468,21.24
09.484,20.63
09.500,19.5
09.515,17.74
09.531,15.47
09.546,12.95
09.562,10.43
09.578,8.06
09.593,5.84
09.609,3.68
09.625,1.47
09.640,-0.79
09.656,-3.03
09.671,-5.08
09.687,-6.78
09.703,-8.05
09.718,-8.93
09.734,-9.62
09.750,-10.38
09.765,-11.5
09.781,-13.16
09.796,-15.37
09.812,-17.92
09.828,-20.34
09.843,-21.97
09.859,-22.04
09.875,-19.97
09.890,-15.49
09.906,-8.79
09.921,-0.41
09.937,8.98
09.953,18.86
09.968,28.99
09.984,39.43
10.000,50.29
10.015,61.52
10.031,72.79
10.046,83.58
10.062,93.44
10.078,102.16
10.093,109.83
10.109,116.66
10.125,122.85
10.140,128.59
10.156,134.06
10.171,139.56
10.187,145.41
10.203,151.55
10.218,157.15
10.234,160.37
10.250,158.62
10.265,149.28
10.281,130.73
10.296,102.94
10.312,67.43
10.328,26.48
10.343,-17.8
10.359,-63.88
10.375,-110.56
10.390,-156.21
10.406,-198.22
10.421,-233.1
10.437,-257.4
10.453,-268.88
10.468,-267.4
10.484,-254.59
10.500,-233.04
10.515,-205.14
10.531,-172.7
10.546,-137.15
10.562,-100.03
10.578,-63.41
10.593,-29.78
10.609,-1.63
10.625,19.36
10.640,32.72
10.656,38.99
10.671,39.1
10.687,33.9
10.703,24.03
10.718,10.12
10.734,-6.96
10.750,-26.28
10.765,-46.58
10.781,-66.39
10.796,-84.21
10.812,-98.88
10.828,-109.61
10.843,-115.97
10.859,-117.91
10.875,-115.62
10.890,-110.02
10.906,-102.18
10.921,-92.83
10.937,-82.1
10.953,-69.91
10.968,-56.37
10.984,-42.33
11.000,-29.46
11.015,-16.03
11.031,-1.29
11.046,15.31
11.062,34.61
11.078,57.51
11.093,84.2
11.109,113.47
11.125,142.69
11.140,168.63
11.156,187.59
11.171,198.69
11.187,202.52
11.203,200.42
11.218,193.72
11.234,183.14
11.250,168.7
11.265,150.03
11.281,126.61
11.296,99.54
11.312,69.78
11.328,38.47
11.343,7.2
11.359,-22.05
11.375,-47.16
11.390,-66.31
11.406,-78.52
11.421,-83.96
11.437,-83.94
11.453,-80.78
11.468,-77.0
11.484,-74.48
11.500,-74.07
11.515,-75.82
11.531,-79.35
11.546,-84.09
11.562,-89.35
11.578,-94.27
11.593,-97.93
11.609,-99.43
11.625,-98.08
11.640,-93.65
11.656,-86.61
11.671,-78.12
11.687,-69.79
11.703,-63.19
11.718,-59.42
11.734,-58.95
11.750,-61.33
11.765,-65.3
11.781,-69.03
11.796,-70.6
11.812,-68.61
11.828,-62.6
11.843,-53.16
11.859,-41.67
11.875,-29.81
11.890,-18.99
11.906,-9.9
11.921,-2.48
11.937,3.78
11.953,9.59
11.968,15.44
11.984,21.53
12.000,27.68
12.015,33.48
12.031,38.36
12.046,41.78
12.062,43.3
12.078,42.81
12.093,40.64
12.109,37.49
12.125,34.21
12.140,31.54
12.156,29.87
12.171,29.12
12.187,28.99
12.203,29.05
12.218,29.02
12.234,28.79
12.250,28.31
12.265,27.54
12.281,26.39
12.296,24.76
12.312,22.61
12.328,20.11
12.343,17.48
12.359,14.97
12.375,12.67
12.390,10.56
12.406,8.41
12.421,6.04
12.437,3.23
12.453,-0.1
12.468,-3.9
12.484,-8.07
12.500,-12.4
12.515,-16.67
12.531,-20.66
12.546,-24.19
12.562,-27.21
12.578,-29.82
12.593,-32.18
12.609,-34.49
12.625,-36.88
12.640,-39.49
12.656,-42.44
12.671,-45.92
12.687,-50.09
12.703,-54.92
12.718,-60.03
12.734,-64.57
12.750,-67.4
12.765,-67.48
12.781,-64.24
12.796,-57.88
12.812,-49.25
12.828,-39.63
12.843,-30.2
12.859,-21.7
12.875,-14.26
12.890,-7.53
12.906,-1.04
12.921,5.6
12.937,12.42
12.953,19.23
12.968,25.62
12.984,31.26
13.000,35.85
13.015,39.25
13.031,41.41
13.046,42.33
13.062,42.17
13.078,41.17
13.093,39.74
13.109,38.3
13.125,37.21
13.140,36.59
13.156,36.37
13.171,36.27
13.187,35.98
13.203,35.35
13.218,34.35
13.234,33.09
13.250,31.78
13.265,30.58
13.281,29.58
13.296,28.74
13.312,27.88
13.328,26.74
13.343,25.1
13.359,22.82
13.375,19.96
13.390,16.73
13.406,13.44
13.421,10.37
13.437,7.62
13.453,5.16
13.468,2.74
13.484,0.08
13.500,-3.06
13.515,-6.79
13.531,-11.04
13.546,-15.55
13.562,-19.99
13.578,-24.04
13.593,-27.51
13.609,-30.47
13.625,-33.18
13.640,-36.1
13.656,-39.64
13.671,-44.03
13.687,-49.14
13.703,-54.41
13.718,-58.95
13.734,-61.73
13.750,-61.95
13.765,-59.2
13.781,-53.66
13.796,-45.95
13.812,-36.93
13.828,-27.38
13.843,-17.84
13.859,-8.55
13.875,0.44
13.890,9.07
13.906,17.22
13.921,24.72
13.937,31.42
13.953,37.28
13.968,42.34
13.984,46.65
14.000,50.11
14.015,52.63
14.031,54.03
14.046,54.33
14.062,53.67
14.078,52.41
14.093,50.98
14.109,49.73
14.125,48.92
14.140,48.58
14.156,48.63
14.171,48.81
14.187,48.8
14.203,48.31
14.218,47.11
14.234,45.18
14.250,42.65
14.265,39.81
14.281,36.94
14.296,34.28
14.312,31.8
14.328,29.36
14.343,26.71
14.359,23.68
14.375,20.2
14.390,16.41
14.406,12.52
14.421,8.74
14.437,5.21
14.453,1.84
14.468,-1.57
14.484,-5.27
14.500,-9.43
14.515,-13.97
14.531,-18.67
14.546,-23.25
14.562,-27.58
14.578,-31.72
14.593,-36.0
14.609,-40.82
14.625,-46.45
14.640,-52.78
14.656,-59.25
14.671,-64.89
14.687,-68.64
14.703,-69.58
14.718,-67.24
14.734,-61.74
14.750,-53.7
14.765,-44.04
14.781,-33.75
14.796,-23.6
14.812,-14.03
14.828,-5.17
14.843,3.04
14.859,10.76
14.875,18.1
14.890,25.1
14.906,31.66
14.921,37.55
14.937,42.46
14.953,46.12
14.968,48.39
14.984,49.32
15.000,49.17
15.015,48.34
15.031,47.28
15.046,46.34
15.062,45.74
15.078,45.5
15.093,45.55
15.109,45.72
15.125,45.78
15.140,45.52
15.156,44.77
15.171,43.43
15.187,41.5
15.203,39.09
15.218,36.36
15.234,33.46
15.250,30.51
15.265,27.52
15.281,24.45
15.296,21.25
15.312,17.83
15.328,14.19
15.343,10.37
15.359,6.49
15.375,2.68
15.390,-0.97
15.406,-4.49
15.421,-8.03
15.437,-11.78
15.453,-15.83
15.468,-20.17
15.484,-24.62
15.500,-28.94
15.515,-32.96
15.531,-36.63
15.546,-40.13
15.562,-43.8
15.578,-48.04
15.593,-53.11
15.609,-59.0
15.625,-65.25
15.640,-71.1
15.656,-75.54
15.671,-77.64
15.687,-76.81
15.703,-72.92
15.718,-66.37
15.734,-57.84
15.750,-48.18
15.765,-38.14
15.781,-28.22
15.796,-18.7
15.812,-9.58
15.828,-0.77
15.843,7.81
15.859,16.07
15.875,23.73
15.890,30.36
15.906,35.53
15.921,39.01
15.937,40.85
15.953,41.46
15.968,41.35
15.984,41.02
16.000,40.84
16.015,40.92
16.031,41.24
16.046,41.68
16.062,42.18
16.078,42.68
16.093,43.11
16.109,43.42
16.125,43.46
16.140,43.07
16.156,42.16
16.171,40.75
16.187,38.96
16.203,36.99
16.218,35.0
16.234,33.03
16.250,30.97
16.265,28.66
16.281,25.97
16.296,22.91
16.312,19.65
16.328,16.46
16.343,13.57
16.359,11.04
16.375,8.81
16.390,6.62
16.406,4.2
16.421,1.31
16.437,-2.13
16.453,-6.03
16.468,-10.15
16.484,-14.16
16.500,-17.83
16.515,-21.07
16.531,-24.03
16.546,-27.01
16.562,-30.32
16.578,-34.15
16.593,-38.56
16.609,-43.5
16.625,-48.78
16.640,-54.13
16.656,-59.06
16.671,-62.83
16.687,-64.56
16.703,-63.46
16.718,-59.15
16.734,-51.78
16.750,-42.16
16.765,-31.37
16.781,-20.5
16.796,-10.31
16.812,-1.1
16.828,7.18
16.843,14.78
16.859,21.91
16.875,28.73
16.890,35.21
16.906,41.22
16.921,46.56
16.937,50.97
16.953,54.21
16.968,56.07
16.984,56.47
17.000,55.5
17.015,53.54
17.031,51.12
17.046,48.83
17.062,47.11
17.078,46.04
17.093,45.38
17.109,44.66
17.125,43.44
17.140,41.55
17.156,39.08
17.171,36.37
17.187,33.73
17.203,31.34
17.218,29.15
17.234,26.93
17.250,24.41
17.265,21.41
17.281,17.91
17.296,14.01
17.312,9.86
17.328,5.6
17.343,1.32
17.359,-3.0
17.375,-7.46
17.390,-12.15
17.406,-17.06
17.421,-22.03
17.437,-26.75
17.453,-30.94
17.468,-34.45
17.484,-37.33
17.500,-39.8
17.515,-42.17
17.531,-44.77
17.546,-47.88
17.562,-51.64
17.578,-56.02
17.593,-60.77
17.609,-65.28
17.625,-68.69
17.640,-70.08
17.656,-68.71
17.671,-64.29
17.687,-57.17
17.703,-48.2
17.718,-38.45
17.734,-28.87
17.750,-20.04
17.765,-12.04
17.781,-4.64
17.796,2.48
17.812,9.51
17.828,16.42
17.843,22.94
17.859,28.76
17.875,33.63
17.890,37.4
17.906,40.09
17.921,41.77
17.937,42.52
17.953,42.44
17.968,41.63
17.984,40.32
18.000,38.78
18.015,37.33
18.031,36.18
18.046,35.43
18.062,34.99
18.078,34.67
18.093,34.24
18.109,33.49
18.125,32.27
18.140,30.49
18.156,28.07
18.171,25.02
18.187,21.44
18.203,17.55
18.218,13.6
18.234,9.86
18.250,6.38
18.265,3.08
18.281,-0.22
18.296,-3.77
18.312,-7.64
18.328,-11.83
18.343,-16.23
18.359,-20.7
18.375,-25.11
18.390,-29.34
18.406,-33.34
18.421,-37.09
18.437,-40.69
18.453,-44.32
18.468,-48.27
18.484,-52.79
18.500,-57.94
18.515,-63.41
18.531,-68.47
18.546,-72.19
18.562,-73.62
18.578,-72.13
18.593,-67.69
18.609,-60.7
18.625,-51.98
18.640,-42.37
18.656,-32.64
18.671,-23.32
18.687,-14.71
18.703,-6.92
18.718,0.1
18.734,6.56
18.750,12.71
18.765,18.67
18.781,24.34
18.796,29.37
18.812,33.3
18.828,35.81
18.843,36.85
18.859,36.75
18.875,36.03
18.890,35.23
18.906,34.72
18.921,34.62
18.937,34.89
18.953,35.33
18.968,35.71
18.984,35.78
19.000,35.38
19.015,34.41
19.031,32.93
19.046,31.08
19.062,28.98
19.078,26.73
19.093,24.29
19.109,21.57
19.125,18.49
19.140,15.06
19.156,11.41
19.171,7.75
19.187,4.25
19.203,0.95
19.218,-2.24
19.234,-5.56
19.250,-9.2
19.265,-13.27
19.281,-17.71
19.296,-22.33
19.312,-26.85
19.328,-30.98
19.343,-34.58
19.359,-37.7
19.375,-40.6
19.390,-43.68
19.406,-47.34
19.421,-51.9
19.437,-57.31
19.453,-63.15
19.468,-68.58
19.484,-72.58
19.500,-74.13
19.515,-72.58
19.531,-67.79
19.546,-60.21
19.562,-50.78
19.578,-40.6
19.593,-30.66
19.609,-21.54
19.625,-13.37
19.640,-5.86
19.656,1.37
19.671,8.56
19.687,15.71
19.703,22.52
19.718,28.68
19.734,33.9
19.750,38.07
19.765,41.24
19.781,43.45
19.796,44.74
19.812,45.11
19.828,44.63
19.843,43.48
19.859,42.07
19.875,40.91
19.890,40.44
19.906,40.84
19.921,41.85
19.937,42.92
19.953,43.34
19.968,42.65
19.984,40.74
20.000,37.99
20.015,34.96
20.031,32.13
20.046,29.67
20.062,27.31
20.078,24.62
20.093,21.22
20.109,17.13
20.125,12.69
20.140,8.4
20.156,4.71
20.171,1.74
20.187,-0.66
20.203,-2.88
20.218,-5.29
20.234,-8.08
20.250,-11.19
20.265,-14.39
20.281,-17.44
20.296,-20.26
20.312,-23.01
20.328,-26.02
20.343,-29.66
20.359,-34.18
20.375,-39.55
20.390,-45.34
20.406,-50.8
20.421,-54.94
20.437,-56.8
20.453,-55.76
20.468,-51.7
20.484,-45.07
20.500,-36.73
20.515,-27.71
20.531,-18.8
20.546,-10.4
20.562,-2.53
20.578,5.03
20.593,12.45
20.609,19.66
20.625,26.38
20.640,32.21
20.656,36.81
20.671,40.06
20.687,42.05
20.703,43.04
20.718,43.3
20.734,43.13
20.750,42.71
20.765,42.16
20.781,41.57
20.796,41.0
20.812,40.53
20.828,40.21
20.843,40.08
20.859,40.07
20.875,40.02
20.890,39.68
20.906,38.8
20.921,37.28
20.937,35.17
20.953,32.69
20.968,30.06
20.984,27.45
21.000,24.85
21.015,22.1
21.031,19.02
21.046,15.53
21.062,11.74
21.078,7.83
21.093,4.01
21.109,0.34
21.125,-3.21
21.140,-6.77
21.156,-10.46
21.171,-14.35
21.187,-18.45
21.203,-22.75
21.218,-27.22
21.234,-31.83
21.250,-36.58
21.265,-41.47
21.281,-46.5
21.296,-51.56
21.312,-56.39
21.328,-60.53
21.343,-63.34
21.359,-64.11
21.375,-62.33
21.390,-57.87
21.406,-51.1
21.421,-42.79
21.437,-33.92
21.453,-25.34
21.468,-17.6
21.484,-10.83
21.500,-4.76
21.515,1.04
21.531,6.88
21.546,12.86
21.562,18.83
21.578,24.41
21.593,29.21
21.609,32.86
21.625,35.22
21.640,36.25
21.656,36.13
21.671,35.16
21.687,33.7
21.703,32.15
21.718,30.81
21.734,29.86
21.750,29.35
21.765,29.17
21.781,29.18
21.796,29.18
21.812,28.91
21.828,28.17
21.843,26.76
21.859,24.59
21.875,21.73
21.890,18.37
21.906,14.72
21.921,11.01
21.937,7.42
21.953,4.09
21.968,1.12
21.984,-1.45
22.000,-3.73
22.015,-5.9
22.031,-8.2
22.046,-10.89
22.062,-14.07
22.078,-17.72
22.093,-21.64
22.109,-25.62
22.125,-29.48
22.140,-33.17
22.156,-36.75
22.171,-40.42
22.187,-44.41
22.203,-48.91
22.218,-53.81
22.234,-58.67
22.250,-62.69
22.265,-64.88
22.281,-64.41
22.296,-60.93
22.312,-54.76
22.328,-46.73
22.343,-37.93
22.359,-29.25
22.375,-21.2
22.390,-13.86
22.406,-7.13
22.421,-0.83
22.437,5.08
22.453,10.53
22.468,15.39
22.484,19.56
22.500,22.99
22.515,25.63
22.531,27.42
22.546,28.25
22.562,28.14
22.578,27.23
22.593,25.81
22.609,24.33
22.625,23.17
22.640,22.6
22.656,22.69
22.671,23.3
22.687,24.13
22.703,24.84
22.718,25.1
22.734,24.73
22.750,23.7
22.765,22.11
22.781,20.15
22.796,18.02
22.812,15.86
22.828,13.7
22.843,11.49
22.859,9.1
22.875,6.45
22.890,3.58
22.906,0.59
22.921,-2.4
22.937,-5.37
22.953,-8.37
22.968,-11.52
22.984,-14.9
23.000,-18.51
23.015,-22.28
23.031,-26.05
23.046,-29.72
23.062,-33.31
23.078,-36.9
23.093,-40.64
23.109,-44.69
23.125,-49.18
23.140,-54.08
23.156,-59.15
23.171,-63.87
23.187,-67.44
23.203,-69.02
23.218,-67.94
23.234,-63.99
23.250,-57.57
23.265,-49.49
23.281,-40.69
23.296,-31.91
23.312,-23.53
23.328,-15.58
23.343,-7.95
23.359,-0.59
23.375,6.41
23.390,12.83
23.406,18.46
23.421,23.16
23.437,26.93
23.453,29.87
23.468,32.14
23.484,33.82
23.500,34.89
23.515,35.32
23.531,35.13
23.546,34.41
23.562,33.47
23.578,32.62
23.593,32.17
23.609,32.19
23.625,32.52
23.640,32.79
23.656,32.59
23.671,31.64
23.687,29.96
23.703,27.83
23.718,25.66
23.734,23.81
23.750,22.46
23.765,21.52
23.781,20.68
23.796,19.49
23.812,17.54
23.828,14.65
23.843,10.91
23.859,6.66
23.875,2.41
23.890,-1.39
23.906,-4.54
23.921,-7.08
23.937,-9.38
23.953,-11.9
23.968,-14.99
23.984,-18.82
24.000,-23.26
24.015,-28.02
24.031,-32.71
24.046,-37.05
24.062,-40.82
24.078,-44.01
24.093,-46.81
24.109,-49.6
24.125,-52.85
24.140,-56.89
24.156,-61.61
24.171,-66.4
24.187,-70.2
24.203,-71.87
24.218,-70.62
24.234,-66.34
24.250,-59.53
24.265,-51.12
24.281,-42.01
24.296,-32.84
24.312,-23.92
24.328,-15.31
24.343,-7.04
24.359,0.83
24.375,8.26
24.390,15.2
24.406,21.67
24.421,27.66
24.437,33.08
24.453,37.69
24.468,41.27
24.484,43.68
24.500,44.94
24.515,45.28
24.531,45.0
24.546,44.45
24.562,43.89
24.578,43.55
24.593,43.54
24.609,43.89
24.625,44.52
24.640,45.22
24.656,45.72
24.671,45.72
24.687,45.04
24.703,43.67
24.718,41.85
24.734,39.84
24.750,37.91
24.765,36.11
24.781,34.29
24.796,32.17
24.812,29.53
24.828,26.24
24.843,22.42
24.859,18.24
24.875,13.98
24.890,9.82
24.906,5.86
24.921,2.13
24.937,-1.39
24.953,-4.78
24.968,-8.17
24.984,-11.68
25.000,-15.44
25.015,-19.44
25.031,-23.61
25.046,-27.82
25.062,-32.04
25.078,-36.4
25.093,-41.17
25.109,-46.64
25.125,-52.88
25.140,-59.63
25.156,-66.21
25.171,-71.66
25.187,-74.95
25.203,-75.34
25.218,-72.53
25.234,-66.83
25.250,-58.99
25.265,-49.92
25.281,-40.45
25.296,-31.1
25.312,-22.04
25.328,-13.27
25.343,-4.75
25.359,3.43
25.375,11.05
25.390,17.87
25.406,23.73
25.421,28.58
25.437,32.51
25.453,35.64
25.468,38.04
25.484,39.77
25.500,40.9
25.515,41.52
25.531,41.78
25.546,41.86
25.562,41.93
25.578,42.03
25.593,42.13
25.609,42.04
25.625,41.57
25.640,40.57
25.656,39.03
25.671,37.02
25.687,34.71
25.703,32.31
25.718,29.96
25.734,27.67
25.750,25.29
25.765,22.61
25.781,19.43
25.796,15.77
25.812,11.76
25.828,7.73
25.843,3.97
25.859,0.64
25.875,-2.33
25.890,-5.18
25.906,-8.21
25.921,-11.66
25.937,-15.57
25.953,-19.79
25.968,-24.15
25.984,-28.48
26.000,-32.74
26.015,-36.99
26.031,-41.4
26.046,-46.17
26.062,-51.5
26.078,-57.53
26.093,-64.17
26.109,-71.0
26.125,-77.2
26.140,-81.72
26.156,-83.55
26.171,-82.05
26.187,-77.18
26.203,-69.49
26.218,-59.9
26.234,-49.35
26.250,-38.6
26.265,-28.06
26.281,-17.91
26.296,-8.16
26.312,1.2
26.328,10.18
26.343,18.83
26.359,27.1
26.375,34.8
26.390,41.57
26.406,46.99
26.421,50.72
26.437,52.69
26.453,53.22
26.468,52.85
26.484,52.26
26.500,51.92
26.515,52.04
26.531,52.49
26.546,53.0
26.562,53.28
26.578,53.16
26.593,52.56
26.609,51.47
26.625,49.92
26.640,47.98
26.656,45.77
26.671,43.41
26.687,41.03
26.703,38.69
26.718,36.3
26.734,33.7
26.750,30.7
26.765,27.25
26.781,23.39
26.796,19.34
26.812,15.31
26.828,11.54
26.843,8.12
26.859,5.0
26.875,1.98
26.890,-1.23
26.906,-4.9
26.921,-9.15
26.937,-13.92
26.953,-18.97
26.968,-24.01
26.984,-28.77
27.000,-33.09
27.015,-36.97
27.031,-40.48
27.046,-43.77
27.062,-47.11
27.078,-50.88
27.093,-55.51
27.109,-61.26
27.125,-67.89
27.140,-74.59
27.156,-80.01
27.171,-82.69
27.187,-81.49
27.203,-76.08
27.218,-67.01
27.234,-55.54
27.250,-43.18
27.265,-31.18
27.281,-20.26
27.296,-10.53
27.312,-1.75
27.328,6.47
27.343,14.39
27.359,22.15
27.375,29.7
27.390,36.9
27.406,43.51
27.421,49.18
27.437,53.51
27.453,56.17
27.468,57.09
27.484,56.57
27.500,55.21
27.515,53.66
27.531,52.43
27.546,51.66
27.562,51.26
27.578,50.98
27.593,50.61
27.609,50.01
27.625,49.17
27.640,48.06
27.656,46.67
27.671,44.99
27.687,43.05
27.703,40.94
27.718,38.72
27.734,36.44
27.750,34.1
27.765,31.7
27.781,29.26
27.796,26.84
27.812,24.48
27.828,22.19
27.843,19.9
27.859,17.58
27.875,15.15
27.890,12.65
27.906,10.01
27.921,7.18
27.937,3.99
27.953,0.35
27.968,-3.81
27.984,-8.39
28.000,-13.2
28.015,-18.02
28.031,-22.63
28.046,-26.95
28.062,-30.99
28.078,-34.89
28.093,-38.85
28.109,-43.12
28.125,-47.89
28.140,-53.22
28.156,-58.84
28.171,-64.19
28.187,-68.41
28.203,-70.58
28.218,-69.96
28.234,-66.19
28.250,-59.41
28.265,-50.24
28.281,-39.58
28.296,-28.41
28.312,-17.54
28.328,-7.47
28.343,1.63
28.359,9.8
28.375,17.14
28.390,23.79
28.406,29.79
28.421,35.18
28.437,39.91
28.453,43.91
28.468,47.09
28.484,49.36
28.500,50.71
28.515,51.27
28.531,51.25
28.546,50.93
28.562,50.5
28.578,50.06
28.593,49.64
28.609,49.21
28.625,48.8
28.640,48.39
28.656,47.9
28.671,47.17
28.687,45.97
28.703,44.14
28.718,41.65
28.734,38.65
28.750,35.35
28.765,31.97
28.781,28.64
28.796,25.45
28.812,22.4
28.828,19.48
28.843,16.62
28.859,13.75
28.875,10.75
28.890,7.55
28.906,4.15
28.921,0.6
28.937,-3.0
28.953,-6.6
28.968,-10.21
28.984,-13.94
29.000,-17.83
29.015,-21.79
29.031,-25.65
29.046,-29.25
29.062,-32.52
29.078,-35.62
29.093,-38.91
29.109,-42.8
29.125,-47.62
29.140,-53.43
29.156,-60.0
29.171,-66.76
29.187,-72.96
29.203,-77.67
29.218,-80.03
29.234,-79.39
29.250,-75.46
29.265,-68.47
29.281,-59.13
29.296,-48.43
29.312,-37.39
29.328,-26.81
29.343,-17.09
29.359,-8.32
29.375,-0.36
29.390,6.98
29.406,13.87
29.421,20.37
29.437,26.45
29.453,31.98
29.468,36.8
29.484,40.73
29.500,43.61
29.515,45.4
29.531,46.17
29.546,46.15
29.562,45.6
29.578,44.83
29.593,44.03
29.609,43.3
29.625,42.61
29.640,41.82
29.656,40.76
29.671,39.31
29.687,37.45
29.703,35.24
29.718,32.8
29.734,30.24
29.750,27.6
29.765,24.91
29.781,22.15
29.796,19.35
29.812,16.6
29.828,13.97
29.843,11.48
29.859,9.08
29.875,6.62
29.890,3.98
29.906,1.13
29.921,-1.85
29.937,-4.79
29.953,-7.54
29.968,-10.11
29.984,-12.69
30.000,-15.6
30.015,-19.09
30.031,-23.27
30.046,-27.93
30.062,-32.7
30.078,-37.16
30.093,-41.1
30.109,-44.56
30.125,-47.91
30.140,-51.62
30.156,-56.12
30.171,-61.55
30.187,-67.67
30.203,-73.85
30.218,-79.22
30.234,-82.85
30.250,-83.88
30.265,-81.81
30.281,-76.61
30.296,-68.68
30.312,-58.84
30.328,-48.07
30.343,-37.23
30.359,-26.98
30.375,-17.62
30.390,-9.14
30.406,-1.38
30.421,5.92
30.437,12.99
30.453,19.92
30.468,26.64
30.484,32.89
30.500,38.29
30.515,42.48
30.531,45.3
30.546,46.81
30.562,47.39
30.578,47.47
30.593,47.45
30.609,47.57
30.625,47.84
30.640,48.19
30.656,48.53
30.671,48.82
30.687,49.01
30.703,49.03
30.718,48.74
30.734,47.93
30.750,46.43
30.765,44.14
30.781,41.13
30.796,37.61
30.812,33.93
30.828,30.43
30.843,27.34
30.859,24.71
30.875,22.37
30.890,20.02
30.906,17.43
30.921,14.48
30.937,11.21
30.953,7.82
30.968,4.46
30.984,1.21
31.000,-2.06
31.015,-5.53
31.031,-9.31
31.046,-13.46
31.062,-17.81
31.078,-22.18
31.093,-26.41
31.109,-30.44
31.125,-34.29
31.140,-38.06
31.156,-41.88
31.171,-45.89
31.187,-50.24
31.203,-55.02
31.218,-60.23
31.234,-65.68
31.250,-70.85
31.265,-74.98
31.281,-77.19
31.296,-76.72
31.312,-73.16
31.328,-66.7
31.343,-58.05
31.359,-48.26
31.375,-38.36
31.390,-29.06
31.406,-20.59
31.421,-12.73
31.437,-5.06
31.453,2.68
31.468,10.51
31.484,18.18
31.500,25.34
31.515,31.66
31.531,36.99
31.546,41.2
31.562,44.22
31.578,46.0
31.593,46.59
31.609,46.21
31.625,45.24
31.640,44.16
31.656,43.35
31.671,42.97
31.687,42.92
31.703,42.9
31.718,42.64
31.734,41.96
31.750,40.86
31.765,39.41
31.781,37.69
31.796,35.69
31.812,33.34
31.828,30.64
31.843,27.62
31.859,24.41
31.875,21.16
31.890,17.96
31.906,14.79
31.921,11.51
31.937,7.97
31.953,4.08
31.968,-0.07
31.984,-4.24
32.000,-8.2
32.015,-11.83
32.031,-15.22
32.046,-18.6
32.062,-22.22
32.078,-26.21
32.093,-30.5
32.109,-34.9
32.125,-39.24
32.140,-43.5
32.156,-47.83
32.171,-52.45
32.187,-57.53
32.203,-63.09
32.218,-69.0
32.234,-74.95
32.250,-80.47
32.265,-84.93
32.281,-87.55
32.296,-87.54
32.312,-84.38
32.328,-77.98
32.343,-68.8
32.359,-57.77
32.375,-45.92
32.390,-34.2
32.406,-23.18
32.421,-13.08
32.437,-3.84
32.453,4.71
32.468,12.71
32.484,20.18
32.500,27.02
32.515,33.09
32.531,38.26
32.546,42.45
32.562,45.62
32.578,47.73
32.593,48.77
32.609,48.78
32.625,47.94
32.640,46.59
32.656,45.23
32.671,44.31
32.687,44.05
32.703,44.34
32.718,44.74
32.734,44.65
32.750,43.65
32.765,41.59
32.781,38.72
32.796,35.51
32.812,32.44
32.828,29.77
32.843,27.45
32.859,25.15
32.875,22.42
32.890,18.93
32.906,14.54
32.921,9.43
32.937,3.98
32.953,-1.36
32.968,-6.25
32.984,-10.54
33.000,-14.38
33.015,-18.09
33.031,-22.02
33.046,-26.4
33.062,-31.14
33.078,-35.98
33.093,-40.56
33.109,-44.64
33.125,-48.22
33.140,-51.57
33.156,-55.15
33.171,-59.43
33.187,-64.73
33.203,-71.07
33.218,-78.12
33.234,-85.17
33.250,-91.13
33.265,-94.82
33.281,-95.2
33.296,-91.71
33.312,-84.53
33.328,-74.51
33.343,-62.91
33.359,-51.01
33.375,-39.75
33.390,-29.53
33.406,-20.33
33.421,-11.77
33.437,-3.45
33.453,4.94
33.468,13.43
33.484,21.79
33.500,29.6
33.515,36.39
33.531,41.8
33.546,45.69
33.562,48.11
33.578,49.21
33.593,49.23
33.609,48.42
33.625,47.12
33.640,45.7
33.656,44.52
33.671,43.79
33.687,43.5
33.703,43.39
33.718,43.13
33.734,42.4
33.750,41.07
33.765,39.21
33.781,37.02
33.796,34.75
33.812,32.63
33.828,30.83
33.843,29.44
33.859,28.4
33.875,27.52
33.890,26.5
33.906,25.04
33.921,22.98
33.937,20.33
33.953,17.31
33.968,14.19
33.984,11.2
34.000,8.43
34.015,5.79
34.031,3.1
34.046,0.15
34.062,-3.23
34.078,-7.16
34.093,-11.67
34.109,-16.71
34.125,-22.11
34.140,-27.59
34.156,-32.88
34.171,-37.86
34.187,-42.67
34.203,-47.78
34.218,-53.65
34.234,-60.52
34.250,-68.05
34.265,-75.29
34.281,-80.91
34.296,-83.63
34.312,-82.67
34.328,-77.97
34.343,-70.13
34.359,-60.13
34.375,-48.93
34.390,-37.35
34.406,-25.88
34.421,-14.86
34.437,-4.47
34.453,5.2
34.468,14.23
34.484,22.78
34.500,31.07
34.515,39.11
34.531,46.68
34.546,53.33
34.562,58.54
34.578,61.96
34.593,63.64
34.609,64.02
34.625,63.71
34.640,63.21
34.656,62.79
34.671,62.36
34.687,61.78
34.703,60.88
34.718,59.72
34.734,58.43
34.750,57.19
34.765,56.0
34.781,54.77
34.796,53.25
34.812,51.3
34.828,48.86
34.843,46.04
34.859,43.0
34.875,39.89
34.890,36.76
34.906,33.6
34.921,30.36
34.937,27.02
34.953,23.61
34.968,20.2
34.984,16.83
35.000,13.53
35.015,10.31
35.031,7.14
35.046,3.97
35.062,0.69
35.078,-2.9
35.093,-6.98
35.109,-11.65
35.125,-16.81
35.140,-22.12
35.156,-27.18
35.171,-31.65
35.187,-35.5
35.203,-39.06
35.218,-42.93
35.234,-47.74
35.250,-53.8
35.265,-60.9
35.281,-68.26
35.296,-74.67
35.312,-78.81
35.328,-79.63
35.343,-76.6
35.359,-69.87
35.375,-60.12
35.390,-48.37
35.406,-35.73
35.421,-23.14
35.437,-11.29
35.453,-0.51
35.468,9.1
35.484,17.66
35.500,25.38
35.515,32.48
35.531,39.11
35.546,45.26
35.562,50.74
35.578,55.26
35.593,58.52
35.609,60.33
35.625,60.7
35.640,59.86
35.656,58.23
35.671,56.33
35.687,54.64
35.703,53.47
35.718,52.9
35.734,52.76
35.750,52.72
35.765,52.48
35.781,51.76
35.796,50.45
35.812,48.57
35.828,46.25
35.843,43.71
35.859,41.11
35.875,38.58
35.890,36.05
35.906,33.37
35.921,30.3
35.937,26.61
35.953,22.29
35.968,17.52
35.984,12.68
36.000,8.12
36.015,4.03
36.031,0.37
36.046,-3.14
36.062,-6.81
36.078,-10.91
36.093,-15.52
36.109,-20.49
36.125,-25.57
36.140,-30.47
36.156,-34.95
36.171,-38.94
36.187,-42.56
36.203,-46.16
36.218,-50.22
36.234,-55.24
36.250,-61.43
36.265,-68.58
36.281,-75.96
36.296,-82.4
36.312,-86.63
36.328,-87.59
36.343,-84.73
36.359,-78.17
36.375,-68.58
36.390,-57.0
36.406,-44.58
36.421,-32.27
36.437,-20.71
36.453,-10.14
36.468,-0.54
36.484,8.31
36.500,16.57
36.515,24.31
36.531,31.46
36.546,37.88
36.562,43.37
36.578,47.81
36.593,51.09
36.609,53.17
36.625,54.14
36.640,54.12
36.656,53.41
36.671,52.33
36.687,51.24
36.703,50.39
36.718,49.89
36.734,49.67
36.750,49.56
36.765,49.33
36.781,48.77
36.796,47.69
36.812,45.94
36.828,43.47
36.843,40.32
36.859,36.7
36.875,32.86
36.890,29.1
36.906,25.58
36.921,22.36
36.937,19.32
36.953,16.28
36.968,13.09
36.984,9.7
37.000,6.2
37.015,2.76
37.031,-0.48
37.046,-3.48
37.062,-6.37
37.078,-9.35
37.093,-12.61
37.109,-16.26
37.125,-20.24
37.140,-24.43
37.156,-28.66
37.171,-32.79
37.187,-36.74
37.203,-40.55
37.218,-44.28
37.234,-48.04
37.250,-51.93
37.265,-56.11
37.281,-60.8
37.296,-66.1
37.312,-72.0
37.328,-78.12
37.343,-83.65
37.359,-87.44
37.375,-88.25
37.390,-85.21
37.406,-78.21
37.421,-67.99
37.437,-55.92
37.453,-43.51
37.468,-31.9
37.484,-21.54
37.500,-12.28
37.515,-3.62
37.531,4.97
37.546,13.71
37.562,22.54
37.578,31.13
37.593,39.04
37.609,45.87
37.625,51.36
37.640,55.43
37.656,58.15
37.671,59.63
37.687,60.0
37.703,59.31
37.718,57.71
37.734,55.47
37.750,53.11
37.765,51.22
37.781,50.21
37.796,50.09
37.812,50.41
37.828,50.5
37.843,49.69
37.859,47.75
37.875,44.76
37.890,41.11
37.906,37.19
37.921,33.36
37.937,29.79
37.953,26.67
37.968,24.05
37.984,21.92
38.000,20.06
38.015,18.2
38.031,16.02
38.046,13.34
38.062,10.17
38.078,6.68
38.093,3.08
38.109,-0.45
38.125,-3.79
38.140,-6.93
38.156,-9.97
38.171,-13.12
38.187,-16.68
38.203,-20.86
38.218,-25.72
38.234,-31.04
38.250,-36.39
38.265,-41.33
38.281,-45.66
38.296,-49.55
38.312,-53.41
38.328,-57.69
38.343,-62.68
38.359,-68.27
38.375,-74.01
38.390,-79.17
38.406,-82.9
38.421,-84.38
38.437,-82.99
38.453,-78.47
38.468,-70.96
38.484,-61.03
38.500,-49.55
38.515,-37.48
38.531,-25.69
38.546,-14.76
38.562,-4.99
38.578,3.7
38.593,11.55
38.609,18.9
38.625,25.99
38.640,32.87
38.656,39.36
38.671,45.08
38.687,49.61
38.703,52.68
38.718,54.3
38.734,54.73
38.750,54.43
38.765,53.82
38.781,53.21
38.796,52.68
38.812,52.25
38.828,51.91
38.843,51.62
38.859,51.42
38.875,51.19
38.890,50.76
38.906,49.82
38.921,48.16
38.937,45.69
38.953,42.55
38.968,39.08
38.984,35.6
39.000,32.34
39.015,29.4
39.031,26.7
39.046,24.12
39.062,21.54
39.078,18.84
39.093,15.95
39.109,12.85
39.125,9.61
39.140,6.34
39.156,3.14
39.171,-0.02
39.187,-3.25
39.203,-6.76
39.218,-10.78
39.234,-15.3
39.250,-20.15
39.265,-25.01
39.281,-29.57
39.296,-33.66
39.312,-37.39
39.328,-40.99
39.343,-44.77
39.359,-48.97
39.375,-53.69
39.390,-59.01
39.406,-64.92
39.421,-71.27
39.437,-77.68
39.453,-83.4
39.468,-87.39
39.484,-88.59
39.500,-86.29
39.515,-80.37
39.531,-71.37
39.546,-60.36
39.562,-48.5
39.578,-36.84
39.593,-26.02
39.609,-16.28
39.625,-7.61
39.640,0.21
39.656,7.46
39.671,14.39
39.687,21.17
39.703,27.8
39.718,34.05
39.734,39.52
39.750,43.78
39.765,46.58
39.781,47.89
39.796,48.01
39.812,47.41
39.828,46.61
39.843,46.01
39.859,45.78
39.875,45.89
39.890,46.11
39.906,46.16
39.921,45.76
39.937,44.76
39.953,43.15
39.968,41.0
39.984,38.51
40.000,35.85
40.015,33.18
40.031,30.6
40.046,28.08
40.062,25.52
40.078,22.76
40.093,19.67
40.109,16.22
40.125,12.53
40.140,8.77
40.156,5.12
40.171,1.63
40.187,-1.79
40.203,-5.23
40.218,-8.77
40.234,-12.34
40.250,-15.87
40.265,-19.37
40.281,-23.01
40.296,-27.1
40.312,-31.81
40.328,-37.07
40.343,-42.45
40.359,-47.35
40.375,-51.32
40.390,-54.34
40.406,-56.83
40.421,-59.52
40.437,-63.11
40.453,-67.97
40.468,-74.01
40.484,-80.72
40.500,-87.2
40.515,-92.46
40.531,-95.45
40.546,-95.35
40.562,-91.76
40.578,-84.79
40.593,-75.11
40.609,-63.77
40.625,-51.87
40.640,-40.23
40.656,-29.23
40.671,-18.87
40.687,-8.94
40.703,0.74
40.718,10.15
40.734,19.08
40.750,27.28
40.765,34.49
40.781,40.62
40.796,45.59
40.812,49.35
40.828,51.86
40.843,53.1
40.859,53.2
40.875,52.49
40.890,51.42
40.906,50.38
40.921,49.62
40.937,49.13
40.953,48.78
40.968,48.44
40.984,48.04
41.000,47.62
41.015,47.2
41.031,46.67
41.046,45.83
41.062,44.45
41.078,42.42
41.093,39.75
41.109,36.64
41.125,33.23
41.140,29.65
41.156,25.97
41.171,22.3
41.187,18.75
41.203,15.45
41.218,12.44
41.234,9.67
41.250,7.02
41.265,4.34
41.281,1.6
41.296,-1.2
41.312,-4.04
41.328,-6.97
41.343,-10.07
41.359,-13.49
41.375,-17.31
41.390,-21.43
41.406,-25.73
41.421,-30.02
41.437,-34.2
41.453,-38.27
41.468,-42.25
41.484,-46.22
41.500,-50.3
41.515,-54.65
41.531,-59.44
41.546,-64.88
41.562,-70.98
41.578,-77.41
41.593,-83.48
41.609,-88.15
41.625,-90.36
41.640,-89.28
41.656,-84.61
41.671,-76.64
41.687,-66.23
41.703,-54.48
41.718,-42.43
41.734,-30.89
41.750,-20.24
41.765,-10.52
41.781,-1.54
41.796,6.95
41.812,15.18
41.828,23.14
41.843,30.71
41.859,37.68
41.875,43.75
41.890,48.78
41.906,52.65
41.921,55.31
41.937,56.81
41.953,57.24
41.968,56.76
41.984,55.7
42.000,54.48
42.015,53.52
42.031,53.1
42.046,53.2
42.062,53.51
42.078,53.54
42.093,52.88
42.109,51.35
42.125,49.07
42.140,46.33
42.156,43.38
42.171,40.32
42.187,37.1
42.203,33.65
42.218,29.99
42.234,26.26
42.250,22.64
42.265,19.24
42.281,16.0
42.296,12.69
42.312,9.17
42.328,5.38
42.343,1.48
42.359,-2.33
42.375,-5.89
42.390,-9.25
42.406,-12.6
42.421,-16.19
42.437,-20.2
42.453,-24.63
42.468,-29.38
42.484,-34.26
42.500,-39.11
42.515,-43.89
42.531,-48.62
42.546,-53.42
42.562,-58.51
42.578,-64.21
42.593,-70.72
42.609,-77.99
42.625,-85.43
42.640,-91.88
42.656,-95.95
42.671,-96.39
42.687,-92.61
42.703,-84.91
42.718,-74.37
42.734,-62.42
42.750,-50.28
42.765,-38.68
42.781,-27.81
42.796,-17.53
42.812,-7.66
42.828,1.91
42.843,11.15
42.859,20.06
42.875,28.62
42.890,36.69
42.906,43.99
42.921,50.01
42.937,54.22
42.953,56.35
42.968,56.52
42.984,55.32
43.000,53.62
43.015,52.23
43.031,51.63
43.046,51.85
43.062,52.59
43.078,53.32
43.093,53.6
43.109,53.12
43.125,51.79
43.140,49.71
43.156,47.1
43.171,44.28
43.187,41.49
43.203,38.9
43.218,36.54
43.234,34.3
43.250,32.0
43.265,29.41
43.281,26.38
43.296,22.86
43.312,18.95
43.328,14.86
43.343,10.85
43.359,7.08
43.375,3.59
43.390,0.15
43.406,-3.54
43.421,-7.79
43.437,-12.74
43.453,-18.3
43.468,-24.24
43.484,-30.27
43.500,-36.16
43.515,-41.77
43.531,-47.12
43.546,-52.35
43.562,-57.71
43.578,-63.54
43.593,-70.1
43.609,-77.4
43.625,-84.99
43.640,-91.89
43.656,-96.75
43.671,-98.24
43.687,-95.5
43.703,-88.51
43.718,-78.09
43.734,-65.59
43.750,-52.39
43.765,-39.53
43.781,-27.52
43.796,-16.4
43.812,-5.98
43.828,3.95
43.843,13.51
43.859,22.7
43.875,31.5
43.890,39.8
43.906,47.4
43.921,53.92
43.937,58.93
43.953,62.09
43.968,63.37
43.984,63.09
44.000,61.86
44.015,60.36
44.031,59.12
44.046,58.36
44.062,58.0
44.078,57.81
44.093,57.46
44.109,56.76
44.125,55.63
44.140,54.06
44.156,52.04
44.171,49.49
44.187,46.39
44.203,42.8
44.218,38.97
44.234,35.18
44.250,31.73
44.265,28.66
44.281,25.79
44.296,22.8
44.312,19.37
44.328,15.4
44.343,11.03
44.359,6.56
44.375,2.26
44.390,-1.74
44.406,-5.55
44.421,-9.39
44.437,-13.47
44.453,-17.94
44.468,-22.74
44.484,-27.71
44.500,-32.6
44.515,-37.22
44.531,-41.5
44.546,-45.52
44.562,-49.57
44.578,-54.02
44.593,-59.28
44.609,-65.58
44.625,-72.86
44.640,-80.65
44.656,-88.04
44.671,-93.83
44.687,-96.8
44.703,-96.01
44.718,-91.1
44.734,-82.38
44.750,-70.73
44.765,-57.36
44.781,-43.47
44.796,-29.99
44.812,-17.47
44.828,-6.01
44.843,4.55
44.859,14.52
44.875,24.15
44.890,33.56
44.906,42.64
44.921,51.01
44.937,58.2
44.953,63.71
44.968,67.21
44.984,68.66
45.000,68.31
45.015,66.7
45.031,64.48
45.046,62.25
45.062,60.44
45.078,59.27
45.093,58.7
45.109,58.58
45.125,58.64
45.140,58.52
45.156,57.92
45.171,56.57
45.187,54.33
45.203,51.27
45.218,47.63
45.234,43.74
45.250,39.96
45.265,36.48
45.281,33.22
45.296,30.0
45.312,26.56
45.328,22.8
45.343,18.78
45.359,14.74
45.375,10.91
45.390,7.45
45.406,4.39
45.421,1.59
45.437,-1.13
45.453,-4.02
45.468,-7.26
45.484,-10.99
45.500,-15.25
45.515,-19.93
45.531,-24.83
45.546,-29.67
45.562,-34.21
45.578,-38.31
45.593,-42.03
45.609,-45.62
45.625,-49.42
45.640,-53.88
45.656,-59.32
45.671,-65.87
45.687,-73.21
45.703,-80.55
45.718,-86.55
45.734,-89.73
45.750,-88.82
45.765,-83.23
45.781,-73.33
45.796,-60.34
45.812,-45.95
45.828,-31.78
45.843,-18.92
45.859,-7.71
45.875,2.07
45.890,11.01
45.906,19.64
45.921,28.24
45.937,36.77
45.953,44.92
45.968,52.21
45.984,58.21
46.000,62.61
46.015,65.34
46.031,66.54
46.046,66.48
46.062,65.49
46.078,63.9
46.093,62.06
46.109,60.32
46.125,59.01
46.140,58.37
46.156,58.41
46.171,58.81
46.187,59.09
46.203,58.68
46.218,57.21
46.234,54.6
46.250,51.11
46.265,47.17
46.281,43.21
46.296,39.48
46.312,36.02
46.328,32.71
46.343,29.4
46.359,25.98
46.375,22.34
46.390,18.45
46.406,14.31
46.421,9.97
46.437,5.55
46.453,1.21
46.468,-2.93
46.484,-6.85
46.500,-10.69
46.515,-14.68
46.531,-19.08
46.546,-23.91
46.562,-29.05
46.578,-34.22
46.593,-39.13
46.609,-43.66
46.625,-47.91
46.640,-52.13
46.656,-56.61
46.671,-61.59
46.687,-67.14
46.703,-73.18
46.718,-79.32
46.734,-84.84
46.750,-88.72
46.765,-89.84
46.781,-87.34
46.796,-80.94
46.812,-71.15
46.828,-59.11
46.843,-46.24
46.859,-33.69
46.875,-22.09
46.890,-11.53
46.906,-1.77
46.921,7.46
46.937,16.27
46.953,24.58
46.968,32.24
46.984,39.11
47.000,45.02
47.015,49.82
47.031,53.32
47.046,55.42
47.062,56.16
47.078,55.86
47.093,54.95
47.109,53.9
47.125,53.08
47.140,52.61
47.156,52.45
47.171,52.4
47.187,52.15
47.203,51.43
47.218,49.99
47.234,47.7
47.250,44.63
47.265,41.04
47.281,37.31
47.296,33.79
47.312,30.69
47.328,27.99
47.343,25.46
47.359,22.8
47.375,19.75
47.390,16.16
47.406,12.03
47.421,7.48
47.437,2.8
47.453,-1.75
47.468,-5.94
47.484,-9.68
47.500,-13.1
47.515,-16.53
47.531,-20.31
47.546,-24.63
47.562,-29.4
47.578,-34.3
47.593,-38.91
47.609,-42.99
47.625,-46.58
47.640,-50.05
47.656,-53.9
47.671,-58.59
47.687,-64.36
47.703,-71.03
47.718,-78.01
47.734,-84.34
47.750,-88.85
47.765,-90.46
47.781,-88.45
47.796,-82.69
47.812,-73.69
47.828,-62.48
47.843,-50.25
47.859,-38.05
47.875,-26.55
47.890,-15.98
47.906,-6.24
47.921,2.87
47.937,11.61
47.953,20.09
47.968,28.26
47.984,35.92
48.000,42.69
48.015,48.12
48.031,51.88
48.046,53.88
48.062,54.36
48.078,53.82
48.093,52.84
48.109,51.9
48.125,51.21
48.140,50.69
48.156,50.21
48.171,49.64
48.187,48.97
48.203,48.23
48.218,47.4
48.234,46.36
48.250,44.88
48.265,42.76
48.281,39.97
48.296,36.64
48.312,33.06
48.328,29.54
48.343,26.28
48.359,23.32
48.375,20.57
48.390,17.85
48.406,15.0
48.421,11.93
48.437,8.64
48.453,5.24
48.468,1.87
48.484,-1.31
48.500,-4.23
48.515,-6.91
48.531,-9.47
48.546,-12.12
48.562,-15.1
48.578,-18.67
48.593,-22.99
48.609,-28.08
48.625,-33.71
48.640,-39.46
48.656,-44.8
48.671,-49.26
48.687,-52.75
48.703,-55.58
48.718,-58.47
48.734,-62.22
48.750,-67.36
48.765,-73.86
48.781,-81.03
48.796,-87.67
48.812,-92.38
48.828,-93.94
48.843,-91.68
48.859,-85.54
48.875,-76.12
48.890,-64.45
48.906,-51.74
48.921,-39.07
48.937,-27.19
48.953,-16.48
48.968,-6.89
48.984,1.85
49.000,10.15
49.015,18.29
49.031,26.36
49.046,34.17
49.062,41.27
49.078,47.12
49.093,51.29
49.109,53.62
49.125,54.29
49.140,53.79
49.156,52.68
49.171,51.48
49.187,50.5
49.203,49.86
49.218,49.55
49.234,49.44
49.250,49.32
49.265,48.93
49.281,48.07
49.296,46.62
49.312,44.62
49.328,42.25
49.343,39.72
49.359,37.15
49.375,34.53
49.390,31.77
49.406,28.77
49.421,25.55
49.437,22.17
49.453,18.68
49.468,15.12
49.484,11.47
49.500,7.74
49.515,4.07
49.531,0.65
49.546,-2.33
49.562,-4.89
49.578,-7.3
49.593,-9.99
49.609,-13.34
49.625,-17.46
49.640,-22.19
49.656,-27.17
49.671,-32.01
49.687,-36.47
49.703,-40.49
49.718,-44.14
49.734,-47.52
49.750,-50.79
49.765,-54.21
49.781,-58.12
49.796,-62.84
49.812,-68.47
49.828,-74.59
49.843,-80.23
49.859,-84.03
49.875,-84.67
49.890,-81.36
49.906,-74.12
49.921,-63.76
49.937,-51.53
49.953,-38.74
49.968,-26.37
49.984,-14.9
50.000,-4.38
50.015,5.33
50.031,14.45
50.046,23.06
50.062,31.12
50.078,38.49
50.093,44.98
50.109,50.32
50.125,54.34
50.140,56.99
50.156,58.33
50.171,58.58
50.187,58.03
50.203,57.01
50.218,55.8
50.234,54.58
50.250,53.45
50.265,52.43
50.281,51.48
50.296,50.52
50.312,49.45
50.328,48.05
50.343,46.16
50.359,43.66
50.375,40.66
50.390,37.4
50.406,34.2
50.421,31.31
50.437,28.71
50.453,26.18
50.468,23.41
50.484,20.2
50.500,16.57
50.515,12.76
50.531,9.0
50.546,5.42
50.562,1.92
50.578,-1.75
50.593,-5.72
50.609,-10.04
50.625,-14.59
50.640,-19.2
50.656,-23.79
50.671,-28.35
50.687,-32.93
50.703,-37.56
50.718,-42.19
50.734,-46.77
50.750,-51.31
50.765,-56.01
50.781,-61.17
50.796,-67.02
50.812,-73.5
50.828,-80.09
50.843,-85.83
50.859,-89.52
50.875,-90.1
50.890,-87.0
50.906,-80.33
50.921,-70.86
50.937,-59.77
50.953,-48.2
50.968,-36.97
50.984,-26.42
51.000,-16.43
51.015,-6.68
51.031,3.07
51.046,12.85
51.062,22.35
51.078,31.1
51.093,38.57
51.109,44.4
51.125,48.46
51.140,50.83
51.156,51.79
51.171,51.69
51.187,50.86
51.203,49.66
51.218,48.34
51.234,47.07
51.250,45.96
51.265,45.06
51.281,44.42
51.296,43.95
51.312,43.56
51.328,43.03
51.343,42.09
51.359,40.51
51.375,38.18
51.390,35.13
51.406,31.58
51.421,27.77
51.437,23.89
51.453,20.03
51.468,16.18
51.484,12.25
51.500,8.2
51.515,4.09
51.531,-0.02
51.546,-4.07
51.562,-8.09
51.578,-12.19
51.593,-16.51
51.609,-21.14
51.625,-26.06
51.640,-31.11
51.656,-36.08
51.671,-40.73
51.687,-45.03
51.703,-49.06
51.718,-53.06
51.734,-57.38
51.750,-62.37
51.765,-68.32
51.781,-75.27
51.796,-82.91
51.812,-90.46
51.828,-96.72
51.843,-100.31
51.859,-100.09
51.875,-95.57
51.890,-87.03
51.906,-75.48
51.921,-62.28
51.937,-48.69
51.953,-35.62
51.968,-23.43
51.984,-12.15
52.000,-1.56
52.015,8.51
52.031,18.23
52.046,27.57
52.062,36.42
52.078,44.48
52.093,51.38
52.109,56.74
52.125,60.33
52.140,62.16
52.156,62.48
52.171,61.74
52.187,60.39
52.203,58.84
52.218,57.38
52.234,56.15
52.250,55.19
52.265,54.44
52.281,53.74
52.296,52.87
52.312,51.57
52.328,49.63
52.343,46.89
52.359,43.41
52.375,39.36
52.390,35.06
52.406,30.87
52.421,26.99
52.437,23.46
52.453,20.14
52.468,16.79
52.484,13.18
52.500,9.19
52.515,4.82
52.531,0.17
52.546,-4.61
52.562,-9.37
52.578,-14.0
52.593,-18.49
52.609,-22.89
52.625,-27.27
52.640,-31.74
52.656,-36.33
52.671,-41.04
52.687,-45.89
52.703,-50.88
52.718,-56.13
52.734,-61.75
52.750,-67.92
52.765,-74.78
52.781,-82.31
52.796,-90.25
52.812,-97.96
52.828,-104.49
52.843,-108.68
52.859,-109.47
52.875,-106.21
52.890,-98.93
52.906,-88.39
52.921,-75.77
52.937,-62.3
52.953,-48.92
52.968,-36.11
52.984,-23.95
53.000,-12.35
53.015,-1.17
53.031,9.6
53.046,19.85
53.062,29.4
53.078,38.02
53.093,45.47
53.109,51.53
53.125,56.07
53.140,59.06
53.156,60.65
53.171,61.09
53.187,60.75
53.203,59.99
53.218,59.14
53.234,58.43
53.250,57.94
53.265,57.66
53.281,57.49
53.296,57.31
53.312,56.93
53.328,56.25
53.343,55.16
53.359,53.55
53.375,51.48
53.390,49.04
53.406,46.39
53.421,43.59
53.437,40.63
53.453,37.39
53.468,33.74
53.484,29.66
53.500,25.27
53.515,20.81
53.531,16.54
53.546,12.61
53.562,9.02
53.578,5.6
53.593,2.1
53.609,-1.79
53.625,-6.26
53.640,-11.31
53.656,-16.73
53.671,-22.16
53.687,-27.2
53.703,-31.63
53.718,-35.49
53.734,-39.14
53.750,-43.11
53.765,-47.87
53.781,-53.65
53.796,-60.27
53.812,-67.11
53.828,-73.14
53.843,-77.12
53.859,-77.87
53.875,-74.63
53.890,-67.32
53.906,-56.65
53.921,-43.91
53.937,-30.56
53.953,-17.75
53.968,-6.06
53.984,4.5
54.000,14.34
54.015,23.91
54.031,33.46
54.046,42.89
54.062,51.81
54.078,59.67
54.093,65.9
54.109,70.14
54.125,72.33
54.140,72.71
54.156,71.76
54.171,70.06
54.187,68.11
54.203,66.26
54.218,64.68
54.234,63.4
54.250,62.33
54.265,61.32
54.281,60.14
54.296,58.6
54.312,56.53
54.328,53.84
54.343,50.56
54.359,46.83
54.375,42.83
54.390,38.74
54.406,34.7
54.421,30.77
54.437,26.94
54.453,23.13
54.468,19.22
54.484,15.11
54.500,10.69
54.515,5.92
54.531,0.85
54.546,-4.44
54.562,-9.8
54.578,-15.12
54.593,-20.33
54.609,-25.35
54.625,-30.16
54.640,-34.73
54.656,-39.04
54.671,-43.19
54.687,-47.39
54.703,-52.1
54.718,-57.73
54.734,-64.48
54.750,-72.0
54.765,-79.26
54.781,-84.77
54.796,-87.04
54.812,-85.08
54.828,-78.8
54.843,-68.99
54.859,-57.02
54.875,-44.35
54.890,-32.02
54.906,-20.55
54.921,-9.94
54.937,0.04
54.953,9.65
54.968,19.02
54.984,28.11
55.000,36.74
55.015,44.6
55.031,51.25
55.046,56.26
55.062,59.3
55.078,60.25
55.093,59.38
55.109,57.27
55.125,54.62
55.140,52.13
55.156,50.22
55.171,48.93
55.187,48.11
55.203,47.45
55.218,46.68
55.234,45.63
55.250,44.18
55.265,42.24
55.281,39.72
55.296,36.57
55.312,32.84
55.328,28.66
55.343,24.25
55.359,19.82
55.375,15.53
55.390,11.45
55.406,7.63
55.421,4.1
55.437,0.83
55.453,-2.31
55.468,-5.6
55.484,-9.3
55.500,-13.63
55.515,-18.51
55.531,-23.61
55.546,-28.5
55.562,-32.87
55.578,-36.73
55.593,-40.43
55.609,-44.44
55.625,-49.21
55.640,-54.99
55.656,-61.64
55.671,-68.77
55.687,-75.63
55.703,-81.27
55.718,-84.6
55.734,-84.73
55.750,-81.16
55.765,-73.98
55.781,-63.88
55.796,-51.92
55.812,-39.23
55.828,-26.72
55.843,-14.93
55.859,-4.07
55.875,5.94
55.890,15.26
55.906,24.08
55.921,32.41
55.937,40.21
55.953,47.25
55.968,53.2
55.984,57.75
56.000,60.63
56.015,61.74
56.031,61.15
56.046,59.19
56.062,56.37
56.078,53.33
56.093,50.7
56.109,48.91
56.125,48.07
56.140,47.91
56.156,47.9
56.171,47.45
56.187,46.19
56.203,44.02
56.218,41.12
56.234,37.84
56.250,34.46
56.265,31.1
56.281,27.73
56.296,24.21
56.312,20.47
56.328,16.54
56.343,12.57
56.359,8.78
56.375,5.29
56.390,2.11
56.406,-0.89
56.421,-3.96
56.437,-7.3
56.453,-11.01
56.468,-15.07
56.484,-19.37
56.500,-23.78
56.515,-28.22
56.531,-32.67
56.546,-37.1
56.562,-41.5
56.578,-45.87
56.593,-50.3
56.609,-54.97
56.625,-60.17
56.640,-66.09
56.656,-72.6
56.671,-79.14
56.687,-84.71
56.703,-88.13
56.718,-88.38
56.734,-84.91
56.750,-77.82
56.765,-67.79
56.781,-55.8
56.796,-42.9
56.812,-29.93
56.828,-17.47
56.843,-5.84
56.859,4.83
56.875,14.55
56.890,23.39
56.906,31.42
56.921,38.65
56.937,45.03
56.953,50.37
56.968,54.51
56.984,57.3
57.000,58.76
57.015,58.99
57.031,58.2
57.046,56.71
57.062,54.86
57.078,53.04
57.093,51.58
57.109,50.67
57.125,50.29
57.140,50.17
57.156,49.93
57.171,49.15
57.187,47.56
57.203,45.11
57.218,41.95
57.234,38.3
57.250,34.48
57.265,30.71
57.281,27.17
57.296,23.91
57.312,20.84
57.328,17.73
57.343,14.37
57.359,10.62
57.375,6.52
57.390,2.29
57.406,-1.79
57.421,-5.45
57.437,-8.6
57.453,-11.31
57.468,-13.75
57.484,-16.18
57.500,-18.78
57.515,-21.67
57.531,-24.87
57.546,-28.36
57.562,-32.09
57.578,-36.02
57.593,-40.13
57.609,-44.47
57.625,-49.14
57.640,-54.29
57.656,-60.0
57.671,-66.1
57.687,-72.07
57.703,-76.96
57.718,-79.64
57.734,-79.07
57.750,-74.75
57.765,-66.92
57.781,-56.51
57.796,-44.8
57.812,-32.89
57.828,-21.45
57.843,-10.64
57.859,-0.26
57.875,9.85
57.890,19.69
57.906,28.96
57.921,37.25
57.937,44.2
57.953,49.62
57.968,53.52
57.984,56.02
58.000,57.3
58.015,57.51
58.031,56.81
58.046,55.4
58.062,53.55
58.078,51.55
58.093,49.74
58.109,48.3
58.125,47.28
58.140,46.58
58.156,45.97
58.171,45.17
58.187,43.93
58.203,42.11
58.218,39.67
58.234,36.71
58.250,33.4
58.265,29.96
58.281,26.57
58.296,23.33
58.312,20.22
58.328,17.14
58.343,13.95
58.359,10.51
58.375,6.78
58.390,2.85
58.406,-1.04
58.421,-4.64
58.437,-7.79
58.453,-10.54
58.468,-13.13
58.484,-15.89
58.500,-19.11
58.515,-22.9
58.531,-27.12
58.546,-31.48
58.562,-35.64
58.578,-39.43
58.593,-42.93
58.609,-46.49
58.625,-50.56
58.640,-55.53
58.656,-61.47
58.671,-67.93
58.687,-74.04
58.703,-78.58
58.718,-80.38
58.734,-78.68
58.750,-73.35
58.765,-64.94
58.781,-54.47
58.796,-43.07
58.812,-31.68
58.828,-20.87
58.843,-10.77
58.859,-1.33
58.875,7.59
58.890,16.07
58.906,24.03
58.921,31.29
58.937,37.62
58.953,42.78
58.968,46.65
58.984,49.2
59.000,50.55
59.015,50.89
59.031,50.45
59.046,49.42
59.062,47.92
59.078,46.08
59.093,44.04
59.109,42.01
59.125,40.21
59.140,38.77
59.156,37.66
59.171,36.74
59.187,35.73
59.203,34.35
59.218,32.41
59.234,29.86
59.250,26.79
59.265,23.46
59.281,20.12
59.296,16.96
59.312,14.03
59.328,11.15
59.343,8.15
59.359,4.82
59.375,1.17
59.390,-2.63
59.406,-6.29
59.421,-9.66
59.437,-12.8
59.453,-15.91
59.468,-19.34
59.484,-23.25
59.500,-27.63
59.515,-32.32
59.531,-37.09
59.546,-41.79
59.562,-46.39
59.578,-51.01
59.593,-55.8
59.609,-61.02
59.625,-66.89
59.640,-73.44
59.656,-80.38
59.671,-86.95
59.687,-91.99
59.703,-94.2
59.718,-92.62
59.734,-87.0
59.750,-77.89
59.765,-66.44
59.781,-53.94
59.796,-41.48
59.812,-29.66
59.828,-18.66
59.843,-8.42
59.859,1.17
59.875,10.22
59.890,18.69
59.906,26.54
59.921,33.63
59.937,39.76
59.953,44.68
59.968,48.2
59.984,50.19
