timestamp,value
00.000,-4.6
00.015,-6.06
00.031,-7.43
00.046,-8.8
00.062,-10.16
00.078,-11.46
00.093,-12.64
00.109,-13.66
00.125,-14.55
00.140,-15.27
00.156,-15.78
00.171,-15.97
00.187,-15.76
00.203,-15.19
00.218,-14.5
00.234,-14.04
00.250,-14.15
00.265,-15.11
00.281,-16.88
00.296,-19.12
00.312,-21.21
00.328,-22.38
00.343,-22.0
00.359,-19.69
00.375,-15.43
00.390,-9.55
00.406,-2.64
00.421,4.75
00.437,12.09
00.453,19.03
00.468,25.27
00.484,30.6
00.500,34.83
00.515,37.92
00.531,39.95
00.546,41.03
00.562,41.32
00.578,40.92
00.593,39.91
00.609,38.32
00.625,36.22
00.640,33.75
00.656,31.09
00.671,28.39
00.687,25.81
00.703,23.41
00.718,21.23
00.734,19.27
00.750,17.55
00.765,16.09
00.781,14.84
00.796,13.67
00.812,12.4
00.828,10.9
00.843,9.16
00.859,7.27
00.875,5.48
00.890,4.03
00.906,2.97
00.921,2.19
00.937,1.26
00.953,-0.29
00.968,-2.82
00.984,-6.45
01.000,-11.16
01.015,-16.72
01.031,-22.82
01.046,-29.11
01.062,-35.12
01.078,-40.29
01.093,-43.97
01.109,-45.56
01.125,-44.77
01.140,-41.68
01.156,-36.79
01.171,-30.81
01.187,-24.32
01.203,-17.61
01.218,-10.67
01.234,-3.35
01.250,4.38
01.265,12.28
01.281,19.86
01.296,26.59
01.312,32.1
01.328,36.27
01.343,39.18
01.359,40.98
01.375,41.81
01.390,41.79
01.406,41.11
01.421,39.98
01.437,38.65
01.453,37.27
01.468,35.82
01.484,34.09
01.500,31.78
01.515,28.66
01.531,24.67
01.546,20.0
01.562,15.0
01.578,10.04
01.593,5.4
01.609,1.24
01.625,-2.43
01.640,-5.63
01.656,-8.45
01.671,-10.95
01.687,-13.29
01.703,-15.61
01.718,-18.07
01.734,-20.79
01.750,-23.78
01.765,-26.95
01.781,-30.2
01.796,-33.49
01.812,-36.79
01.828,-40.0
01.843,-42.85
01.859,-44.76
01.875,-45.04
01.890,-43.12
01.906,-38.8
01.921,-32.44
01.937,-24.79
01.953,-16.8
01.968,-9.19
01.984,-2.3
02.000,3.87
02.015,9.44
02.031,14.44
02.046,18.66
02.062,21.83
02.078,23.78
02.093,24.55
02.109,24.42
02.125,23.82
02.140,23.07
02.156,22.34
02.171,21.63
02.187,20.83
02.203,19.92
02.218,18.9
02.234,17.83
02.250,16.77
02.265,15.71
02.281,14.61
02.296,13.39
02.312,11.93
02.328,10.15
02.343,7.95
02.359,5.32
02.375,2.28
02.390,-1.08
02.406,-4.67
02.421,-8.33
02.437,-11.95
02.453,-15.44
02.468,-18.74
02.484,-21.92
02.500,-25.05
02.515,-28.14
02.531,-31.19
02.546,-34.13
02.562,-36.99
02.578,-39.86
02.593,-42.77
02.609,-45.7
02.625,-48.29
02.640,-49.97
02.656,-50.03
02.671,-47.99
02.687,-43.75
02.703,-37.72
02.718,-30.63
02.734,-23.19
02.750,-15.88
02.765,-8.92
02.781,-2.3
02.796,4.02
02.812,9.89
02.828,15.08
02.843,19.28
02.859,22.26
02.875,24.0
02.890,24.73
02.906,24.8
02.921,24.68
02.937,24.73
02.953,25.03
02.968,25.55
02.984,26.0
03.000,26.12
03.015,25.77
03.031,24.98
03.046,23.91
03.062,22.75
03.078,21.61
03.093,20.49
03.109,19.35
03.125,18.17
03.140,16.86
03.156,15.39
03.171,13.6
03.187,11.41
03.203,8.79
03.218,5.84
03.234,2.79
03.250,-0.08
03.265,-2.62
03.281,-4.91
03.296,-7.15
03.312,-9.6
03.328,-12.45
03.343,-15.75
03.359,-19.44
03.375,-23.5
03.390,-27.77
03.406,-31.97
03.421,-35.57
03.437,-37.84
03.453,-38.05
03.468,-35.71
03.484,-30.8
03.500,-23.76
03.515,-15.37
03.531,-6.44
03.546,2.36
03.562,10.66
03.578,18.39
03.593,25.61
03.609,32.5
03.625,39.18
03.640,45.68
03.656,51.92
03.671,57.74
03.687,62.95
03.703,67.4
03.718,71.1
03.734,74.13
03.750,76.69
03.765,78.96
03.781,81.06
03.796,82.98
03.812,84.56
03.828,85.47
03.843,85.28
03.859,83.58
03.875,80.05
03.890,74.69
03.906,67.86
03.921,60.17
03.937,52.29
03.953,44.61
03.968,37.1
03.984,29.36
04.000,20.86
04.015,11.37
04.031,1.12
04.046,-9.37
04.062,-19.47
04.078,-28.88
04.093,-37.72
04.109,-46.4
04.125,-55.33
04.140,-64.8
04.156,-74.81
04.171,-85.11
04.187,-95.24
04.203,-104.32
04.218,-111.04
04.234,-113.9
04.250,-111.61
04.265,-103.74
04.281,-91.13
04.296,-75.73
04.312,-59.99
04.328,-46.0
04.343,-34.84
04.359,-26.47
04.375,-20.11
04.390,-14.86
04.406,-10.14
04.421,-5.87
04.437,-2.28
04.453,0.39
04.468,2.07
04.484,2.89
04.500,3.08
04.515,2.85
04.531,2.3
04.546,1.52
04.562,0.61
04.578,-0.22
04.593,-0.63
04.609,-0.33
04.625,0.83
04.640,2.69
04.656,4.78
04.671,6.45
04.687,7.09
04.703,6.42
04.718,4.57
04.734,2.04
04.750,-0.54
04.765,-2.7
04.781,-4.31
04.796,-5.6
04.812,-6.97
04.828,-8.8
04.843,-11.2
04.859,-14.06
04.875,-17.09
04.890,-20.09
04.906,-23.04
04.921,-26.07
04.937,-29.21
04.953,-32.27
04.968,-34.65
04.984,-35.63
05.000,-34.58
05.015,-31.25
05.031,-25.97
05.046,-19.46
05.062,-12.5
05.078,-5.73
05.093,0.55
05.109,6.28
05.125,11.46
05.140,15.97
05.156,19.54
05.171,21.97
05.187,23.17
05.203,23.37
05.218,22.95
05.234,22.35
05.250,21.8
05.265,21.31
05.281,20.73
05.296,19.9
05.312,18.72
05.328,17.23
05.343,15.58
05.359,13.82
05.375,11.93
05.390,9.76
05.406,7.13
05.421,3.96
05.437,0.42
05.453,-3.21
05.468,-6.59
05.484,-9.48
05.500,-11.83
05.515,-13.79
05.531,-15.46
05.546,-17.01
05.562,-18.45
05.578,-19.75
05.593,-20.89
05.609,-21.84
05.625,-22.61
05.640,-23.19
05.656,-23.64
05.671,-24.04
05.687,-24.69
05.703,-25.95
05.718,-28.18
05.734,-31.43
05.750,-35.3
05.765,-38.9
05.781,-41.11
05.796,-40.98
05.812,-38.08
05.828,-32.63
05.843,-25.35
05.859,-17.2
05.875,-9.09
05.890,-1.65
05.906,4.83
05.921,10.32
05.937,14.96
05.953,19.0
05.968,22.62
05.984,25.84
06.000,28.57
06.015,30.57
06.031,31.67
06.046,31.92
06.062,31.58
06.078,31.18
06.093,31.38
06.109,32.74
06.125,35.57
06.140,39.95
06.156,45.58
06.171,51.93
06.187,58.2
06.203,63.51
06.218,67.15
06.234,68.97
06.250,69.42
06.265,69.5
06.281,70.35
06.296,72.66
06.312,76.38
06.328,80.73
06.343,84.55
06.359,86.86
06.375,87.3
06.390,86.11
06.406,83.99
06.421,81.63
06.437,79.46
06.453,77.51
06.468,75.59
06.484,73.43
06.500,70.72
06.515,67.09
06.531,62.06
06.546,55.09
06.562,45.79
06.578,34.16
06.593,20.78
06.609,6.86
06.625,-6.02
06.640,-16.43
06.656,-23.51
06.671,-27.28
06.687,-28.54
06.703,-28.39
06.718,-27.87
06.734,-27.4
06.750,-26.87
06.765,-25.75
06.781,-23.67
06.796,-20.61
06.812,-17.07
06.828,-13.75
06.843,-11.26
06.859,-9.91
06.875,-9.57
06.890,-9.86
06.906,-10.43
06.921,-11.15
06.937,-12.1
06.953,-13.5
06.968,-15.48
06.984,-17.92
07.000,-20.45
07.015,-22.63
07.031,-24.08
07.046,-24.72
07.062,-24.9
07.078,-25.16
07.093,-26.09
07.109,-28.02
07.125,-30.88
07.140,-34.21
07.156,-37.42
07.171,-39.97
07.187,-41.55
07.203,-42.15
07.218,-41.9
07.234,-41.01
07.250,-39.66
07.265,-38.0
07.281,-36.21
07.296,-34.5
07.312,-33.15
07.328,-32.41
07.343,-32.38
07.359,-32.97
07.375,-33.9
07.390,-34.75
07.406,-35.05
07.421,-34.5
07.437,-32.94
07.453,-30.41
07.468,-26.96
07.484,-22.54
07.500,-17.06
07.515,-10.5
07.531,-3.22
07.546,4.06
07.562,10.37
07.578,14.82
07.593,17.0
07.609,17.04
07.625,15.35
07.640,12.19
07.656,7.52
07.671,1.1
07.687,-7.07
07.703,-16.38
07.718,-25.52
07.734,-32.91
07.750,-37.3
07.765,-38.47
07.781,-37.25
07.796,-35.26
07.812,-34.19
07.828,-35.15
07.843,-38.33
07.859,-43.12
07.875,-48.31
07.890,-52.67
07.906,-55.19
07.921,-55.33
07.937,-53.02
07.953,-48.64
07.968,-42.79
07.984,-36.24
08.000,-29.83
08.015,-24.4
08.031,-20.86
08.046,-19.95
08.062,-22.11
08.078,-27.22
08.093,-34.6
08.109,-43.09
08.125,-51.52
08.140,-59.18
08.156,-66.11
08.171,-73.12
08.187,-81.34
08.203,-91.48
08.218,-103.13
08.234,-114.46
08.250,-122.44
08.265,-123.86
08.281,-116.56
08.296,-100.33
08.312,-77.23
08.328,-51.03
08.343,-25.98
08.359,-5.62
08.375,8.13
08.390,15.13
08.406,16.82
08.421,15.57
08.437,14.14
08.453,15.05
08.468,20.0
08.484,29.4
08.500,42.06
08.515,55.42
08.531,66.34
08.546,72.26
08.562,72.08
08.578,66.59
08.593,58.13
08.609,49.6
08.625,43.58
08.640,41.39
08.656,42.88
08.671,46.81
08.687,51.35
08.703,54.84
08.718,56.2
08.734,55.07
08.750,51.4
08.765,45.09
08.781,35.72
08.796,22.82
08.812,6.47
08.828,-12.24
08.843,-31.28
08.859,-48.43
08.875,-62.12
08.890,-72.1
08.906,-79.19
08.921,-84.53
08.937,-88.6
08.953,-90.86
08.968,-90.24
08.984,-85.95
09.000,-78.35
09.015,-68.98
09.031,-60.05
09.046,-53.47
09.062,-50.14
09.078,-49.77
09.093,-51.11
09.109,-52.59
09.125,-52.84
09.140,-51.04
09.156,-47.01
09.171,-41.11
09.187,-33.93
09.203,-26.1
09.218,-18.12
09.234,-10.3
09.250,-2.82
09.265,4.22
09.281,10.81
09.296,17.03
09.312,23.04
09.328,29.08
09.343,35.43
09.359,42.33
09.375,49.96
09.390,58.41
09.406,67.73
09.421,77.78
09.437,88.18
09.453,98.27
09.468,107.13
09.484,113.8
09.500,117.52
09.515,117.9
09.531,114.99
09.546,109.12
09.562,100.62
09.578,89.66
09.593,76.16
09.609,59.86
09.625,40.65
09.640,18.76
09.656,-5.08
09.671,-29.63
09.687,-53.33
09.703,-74.57
09.718,-91.84
09.734,-103.85
09.750,-109.7
09.765,-109.03
09.781,-102.18
09.796,-90.24
09.812,-74.87
09.828,-58.01
09.843,-41.42
09.859,-26.28
09.875,-13.18
09.890,-2.38
09.906,5.92
09.921,11.38
09.937,13.71
09.953,13.05
09.968,10.03
09.984,5.43
10.000,-0.31
10.015,-7.61
10.031,-17.58
10.046,-31.42
10.062,-49.3
10.078,-69.64
10.093,-88.9
10.109,-102.53
10.125,-106.46
10.140,-98.4
10.156,-78.8
10.171,-50.7
10.187,-18.83
10.203,11.82
10.218,37.41
10.234,56.25
10.250,68.97
10.265,78.08
10.281,86.81
10.296,97.85
10.312,112.04
10.328,127.77
10.343,140.95
10.359,146.29
10.375,138.86
10.390,115.81
10.406,77.57
10.421,27.88
10.437,-26.86
10.453,-79.27
10.468,-122.61
10.484,-151.93
10.500,-164.56
10.515,-160.1
10.531,-140.18
10.546,-108.16
10.562,-68.65
10.578,-26.51
10.593,13.97
10.609,49.6
10.625,78.53
10.640,100.48
10.656,116.27
10.671,127.41
10.687,135.23
10.703,140.38
10.718,143.24
10.734,144.04
10.750,142.83
10.765,139.56
10.781,134.38
10.796,127.84
10.812,120.86
10.828,114.54
10.843,109.98
10.859,108.77
10.875,112.78
10.890,123.11
10.906,139.5
10.921,160.93
10.937,186.24
10.953,214.64
10.968,245.72
10.984,272.71
11.000,288.69
11.015,288.78
11.031,271.23
11.046,237.24
11.062,190.03
11.078,133.08
11.093,69.8
11.109,4.05
11.125,-58.41
11.140,-114.22
11.156,-159.4
11.171,-191.48
11.187,-211.0
11.203,-220.83
11.218,-225.09
11.234,-227.64
11.250,-231.45
11.265,-235.86
11.281,-240.51
11.296,-244.54
11.312,-244.82
11.328,-239.54
11.343,-226.72
11.359,-204.38
11.375,-171.58
11.390,-129.73
11.406,-82.93
11.421,-39.09
11.437,-1.13
11.453,29.6
11.468,52.37
11.484,67.12
11.500,73.95
11.515,72.77
11.531,63.17
11.546,45.61
11.562,21.77
11.578,-4.68
11.593,-30.19
11.609,-52.58
11.625,-71.38
11.640,-87.94
11.656,-104.4
11.671,-121.99
11.687,-139.72
11.703,-154.32
11.718,-160.56
11.734,-153.99
11.750,-132.59
11.765,-97.15
11.781,-51.33
11.796,-0.77
11.812,48.18
11.828,89.81
11.843,120.03
11.859,137.42
11.875,142.72
11.890,138.52
11.906,128.37
11.921,115.57
11.937,102.37
11.953,89.62
11.968,77.25
11.984,64.92
12.000,52.59
12.015,40.11
12.031,26.99
12.046,12.34
12.062,-4.95
12.078,-25.17
12.093,-47.29
12.109,-68.83
12.125,-86.61
12.140,-97.76
12.156,-100.71
12.171,-95.6
12.187,-83.83
12.203,-67.65
12.218,-49.41
12.234,-31.06
12.250,-14.0
12.265,1.14
12.281,14.53
12.296,26.98
12.312,39.49
12.328,52.81
12.343,66.9
12.359,80.86
12.375,93.08
12.390,101.77
12.406,105.64
12.421,104.25
12.437,98.13
12.453,88.21
12.468,75.49
12.484,60.58
12.500,43.89
12.515,26.07
12.531,8.38
12.546,-7.11
12.562,-18.17
12.578,-23.2
12.593,-22.08
12.609,-16.35
12.625,-8.67
12.640,-1.74
12.656,2.65
12.671,4.01
12.687,3.23
12.703,1.85
12.718,1.4
12.734,2.8
12.750,6.11
12.765,10.95
12.781,16.79
12.796,23.2
12.812,30.15
12.828,38.32
12.843,48.62
12.859,61.62
12.875,76.91
12.890,92.79
12.906,107.2
12.921,117.75
12.937,121.82
12.953,116.93
12.968,101.47
12.984,75.1
13.000,39.06
13.015,-3.83
13.031,-49.94
13.046,-94.54
13.062,-133.13
13.078,-162.48
13.093,-180.65
13.109,-186.25
13.125,-177.89
13.140,-154.38
13.156,-115.61
13.171,-64.1
13.187,-4.04
13.203,58.26
13.218,113.61
13.234,150.87
13.250,161.11
13.265,142.17
13.281,100.44
13.296,51.47
13.312,5.39
13.328,-31.95
13.343,-58.79
13.359,-77.06
13.375,-90.07
13.390,-101.54
13.406,-114.17
13.421,-128.19
13.437,-140.41
13.453,-145.55
13.468,-136.72
13.484,-109.23
13.500,-63.65
13.515,-6.22
13.531,53.07
13.546,103.97
13.562,138.63
13.578,153.01
13.593,146.01
13.609,119.49
13.625,76.81
13.640,22.47
13.656,-37.48
13.671,-95.24
13.687,-142.29
13.703,-171.69
13.718,-180.54
13.734,-171.4
13.750,-150.61
13.765,-125.98
13.781,-103.95
13.796,-87.5
13.812,-75.85
13.828,-65.68
13.843,-52.98
13.859,-34.95
13.875,-10.94
13.890,18.04
13.906,49.83
13.921,81.85
13.937,111.56
13.953,136.8
13.968,155.98
13.984,168.26
14.000,173.54
14.015,172.23
14.031,165.08
14.046,152.96
14.062,136.78
14.078,117.68
14.093,97.03
14.109,76.4
14.125,57.29
14.140,40.53
14.156,26.2
14.171,13.76
14.187,2.63
14.203,-7.31
14.218,-15.61
14.234,-21.6
14.250,-24.8
14.265,-25.49
14.281,-24.81
14.296,-24.45
14.312,-26.08
14.328,-30.73
14.343,-38.37
14.359,-47.95
14.375,-57.92
14.390,-66.79
14.406,-73.64
14.421,-78.26
14.437,-80.71
14.453,-81.01
14.468,-78.81
14.484,-73.49
14.500,-64.55
14.515,-52.08
14.531,-36.9
14.546,-20.33
14.562,-3.82
14.578,11.51
14.593,25.0
14.609,36.4
14.625,45.66
14.640,52.7
14.656,57.5
14.671,60.06
14.687,60.48
14.703,58.99
14.718,55.86
14.734,51.35
14.750,45.61
14.765,38.69
14.781,30.71
14.796,21.9
14.812,12.65
14.828,3.44
14.843,-5.29
14.859,-13.3
14.875,-20.68
14.890,-27.83
14.906,-35.36
14.921,-43.92
14.937,-53.71
14.953,-64.23
14.968,-74.23
14.984,-82.04
15.000,-86.25
15.015,-86.49
15.031,-83.62
15.046,-79.45
15.062,-75.94
15.078,-74.47
15.093,-75.56
15.109,-79.24
15.125,-85.48
15.140,-94.51
15.156,-106.49
15.171,-120.94
15.187,-136.08
15.203,-148.93
15.218,-155.91
15.234,-153.7
15.250,-140.13
15.265,-114.62
15.281,-78.42
15.296,-34.41
15.312,13.19
15.328,59.41
15.343,99.6
15.359,130.34
15.375,150.31
15.390,160.32
15.406,162.65
15.421,159.96
15.437,154.53
15.453,147.86
15.468,140.87
15.484,134.18
15.500,128.38
15.515,123.74
15.531,120.04
15.546,116.51
15.562,112.08
15.578,105.89
15.593,97.68
15.609,87.84
15.625,77.23
15.640,66.69
15.656,56.77
15.671,47.51
15.687,38.66
15.703,29.81
15.718,20.68
15.734,11.14
15.750,1.31
15.765,-8.53
15.781,-17.95
15.796,-26.42
15.812,-33.42
15.828,-38.48
15.843,-41.29
15.859,-41.81
15.875,-40.27
15.890,-37.09
15.906,-32.83
15.921,-27.94
15.937,-22.8
15.953,-17.64
15.968,-12.64
15.984,-7.99
16.000,-3.9
16.015,-0.6
16.031,1.71
16.046,2.97
16.062,3.24
16.078,2.85
16.093,2.14
16.109,1.56
16.125,1.34
16.140,1.49
16.156,1.82
16.171,2.01
16.187,1.8
16.203,1.19
16.218,0.32
16.234,-0.6
16.250,-1.39
16.265,-2.15
16.281,-3.03
16.296,-4.23
16.312,-5.85
16.328,-7.82
16.343,-9.92
16.359,-11.86
16.375,-13.5
16.390,-14.77
16.406,-15.82
16.421,-16.87
16.437,-18.12
16.453,-19.71
16.468,-21.59
16.484,-23.42
16.500,-24.74
16.515,-25.07
16.531,-23.99
16.546,-21.35
16.562,-17.26
16.578,-12.01
16.593,-6.03
16.609,0.14
16.625,6.01
16.640,11.1
16.656,15.02
16.671,17.63
16.687,18.94
16.703,19.25
16.718,18.98
16.734,18.56
16.750,18.23
16.765,18.0
16.781,17.64
16.796,16.77
16.812,15.17
16.828,12.82
16.843,10.0
16.859,7.17
16.875,4.74
16.890,2.97
16.906,1.86
16.921,1.13
16.937,0.39
16.953,-0.75
16.968,-2.57
16.984,-5.13
17.000,-8.22
17.015,-11.46
17.031,-14.49
17.046,-17.0
17.062,-18.95
17.078,-20.55
17.093,-22.09
17.109,-23.85
17.125,-25.91
17.140,-28.05
17.156,-29.76
17.171,-30.48
17.187,-29.78
17.203,-27.46
17.218,-23.66
17.234,-18.69
17.250,-13.04
17.265,-7.17
17.281,-1.45
17.296,3.77
17.312,8.26
17.328,11.77
17.343,14.15
17.359,15.35
17.375,15.48
17.390,14.77
17.406,13.61
17.421,12.34
17.437,11.19
17.453,10.2
17.468,9.25
17.484,8.22
17.500,7.03
17.515,5.85
17.531,4.85
17.546,4.21
17.562,3.92
17.578,3.76
17.593,3.37
17.609,2.46
17.625,0.92
17.640,-1.16
17.656,-3.48
17.671,-5.79
17.687,-7.96
17.703,-10.0
17.718,-12.04
17.734,-14.2
17.750,-16.55
17.765,-19.09
17.781,-21.81
17.796,-24.61
17.812,-27.36
17.828,-29.78
17.843,-31.49
17.859,-32.02
17.875,-31.0
17.890,-28.28
17.906,-23.98
17.921,-18.56
17.937,-12.56
17.953,-6.58
17.968,-1.05
17.984,3.84
18.000,8.05
18.015,11.64
18.031,14.63
18.046,17.03
18.062,18.75
18.078,19.77
18.093,20.12
18.109,19.94
18.125,19.45
18.140,18.88
18.156,18.35
18.171,17.83
18.187,17.2
18.203,16.26
18.218,14.94
18.234,13.24
18.250,11.33
18.265,9.43
18.281,7.69
18.296,6.13
18.312,4.62
18.328,3.01
18.343,1.12
18.359,-1.06
18.375,-3.5
18.390,-6.09
18.406,-8.65
18.421,-11.12
18.437,-13.48
18.453,-15.88
18.468,-18.51
18.484,-21.64
18.500,-25.29
18.515,-29.21
18.531,-32.77
18.546,-35.21
18.562,-35.85
18.578,-34.41
18.593,-31.03
18.609,-26.2
18.625,-20.54
18.640,-14.52
18.656,-8.46
18.671,-2.51
18.687,3.2
18.703,8.47
18.718,13.0
18.734,16.54
18.750,18.89
18.765,20.01
18.781,20.14
18.796,19.7
18.812,19.1
18.828,18.68
18.843,18.5
18.859,18.37
18.875,17.99
18.890,17.17
18.906,15.94
18.921,14.63
18.937,13.6
18.953,12.97
18.968,12.65
18.984,12.31
19.000,11.63
19.015,10.4
19.031,8.7
19.046,6.62
19.062,4.31
19.078,1.74
19.093,-1.16
19.109,-4.36
19.125,-7.67
19.140,-10.78
19.156,-13.45
19.171,-15.64
19.187,-17.64
19.203,-19.79
19.218,-22.45
19.234,-25.63
19.250,-28.98
19.265,-31.89
19.281,-33.64
19.296,-33.65
19.312,-31.59
19.328,-27.52
19.343,-21.73
19.359,-14.8
19.375,-7.36
19.406,6.72
19.421,12.43
19.437,16.88
19.453,20.0
19.468,21.81
19.484,22.52
19.500,22.45
19.515,21.97
19.531,21.5
19.546,21.22
19.562,21.11
19.578,20.93
19.593,20.42
19.609,19.36
19.625,17.72
19.640,15.7
19.656,13.64
19.671,11.89
19.687,10.62
19.703,9.81
19.718,9.22
19.734,8.62
19.750,7.79
19.765,6.61
19.781,5.07
19.796,3.15
19.812,0.86
19.828,-1.77
19.843,-4.66
19.859,-7.63
19.875,-10.51
19.890,-13.17
19.906,-15.6
19.921,-17.88
19.937,-20.17
19.953,-22.66
19.968,-25.42
19.984,-28.45
20.000,-31.47
20.015,-34.03
20.031,-35.52
20.046,-35.31
20.062,-32.99
20.078,-28.7
20.093,-22.92
20.109,-16.41
20.125,-9.87
20.140,-3.74
20.156,1.87
20.171,6.98
20.187,11.62
20.203,15.71
20.218,19.01
20.234,21.4
20.250,22.92
20.265,23.74
20.281,24.1
20.296,24.16
20.312,23.94
20.328,23.43
20.343,22.65
20.359,21.71
20.375,20.81
20.390,20.12
20.406,19.62
20.421,19.15
20.437,18.41
20.453,17.12
20.468,15.28
20.484,13.01
20.500,10.56
20.515,8.16
20.531,5.85
20.546,3.51
20.562,1.13
20.578,-1.3
20.593,-3.63
20.609,-5.71
20.625,-7.51
20.640,-9.16
20.656,-10.82
20.671,-12.63
20.687,-14.69
20.703,-16.95
20.718,-19.47
20.734,-22.31
20.750,-25.51
20.765,-28.94
20.781,-32.08
20.796,-34.1
20.812,-34.15
20.828,-31.69
20.843,-26.73
20.859,-19.92
20.875,-12.21
20.890,-4.56
20.906,2.36
20.921,8.25
20.937,13.1
20.953,16.93
20.968,19.8
20.984,21.72
21.000,22.77
21.015,23.15
21.031,23.1
21.046,22.9
21.062,22.77
21.078,22.81
21.093,23.06
21.109,23.49
21.125,24.1
21.140,24.76
21.156,25.42
21.171,26.03
21.187,26.65
21.203,27.39
21.218,28.35
21.234,29.53
21.250,30.79
21.265,31.91
21.281,32.71
21.296,33.16
21.312,33.41
21.328,33.8
21.343,34.65
21.359,36.19
21.375,38.49
21.390,41.42
21.406,44.82
21.421,48.45
21.437,52.06
21.453,55.41
21.468,58.22
21.484,60.35
21.500,61.86
21.515,63.19
21.531,64.85
21.546,67.19
21.562,69.81
21.578,71.54
21.593,70.62
21.609,65.47
21.625,55.31
21.640,40.42
21.656,22.12
21.671,2.08
21.687,-18.12
21.703,-37.42
21.718,-55.09
21.734,-70.56
21.750,-83.19
21.765,-92.28
21.781,-97.28
21.796,-98.07
21.812,-94.97
21.828,-88.63
21.843,-79.8
21.859,-69.01
21.875,-56.45
21.890,-42.05
21.906,-25.57
21.921,-6.94
21.937,13.57
21.953,35.27
21.968,57.12
21.984,77.94
22.000,96.57
22.015,111.99
22.031,123.48
22.046,130.65
22.062,133.48
22.078,132.38
22.093,128.07
22.109,121.41
22.125,113.17
22.140,103.85
22.156,93.52
22.171,82.02
22.187,69.17
22.203,54.91
22.218,39.56
22.234,23.77
22.250,8.44
22.265,-5.45
22.281,-17.05
22.296,-25.93
22.312,-32.04
22.328,-35.7
22.343,-37.37
22.359,-37.4
22.375,-36.08
22.390,-33.64
22.406,-30.51
22.421,-27.31
22.437,-24.73
22.453,-23.24
22.468,-22.88
22.484,-23.21
22.500,-23.42
22.515,-22.81
22.531,-21.01
22.546,-18.11
22.562,-14.56
22.578,-10.99
22.593,-7.94
22.609,-5.81
22.625,-4.83
22.640,-5.02
22.656,-6.32
22.671,-8.55
22.687,-11.49
22.703,-14.98
22.718,-18.88
22.734,-23.13
22.750,-27.61
22.765,-32.18
22.781,-36.61
22.796,-40.73
22.812,-44.39
22.828,-47.72
22.843,-51.03
22.859,-54.74
22.875,-59.18
22.890,-64.37
22.906,-69.97
22.921,-75.3
22.937,-79.61
22.953,-82.19
22.968,-82.53
22.984,-80.5
23.000,-76.13
23.015,-69.7
23.031,-61.61
23.046,-52.47
23.062,-42.99
23.078,-33.99
23.093,-26.17
23.109,-19.9
23.125,-15.11
23.140,-11.47
23.156,-8.52
23.171,-5.9
23.187,-3.55
23.203,-1.49
23.218,0.16
23.234,1.41
23.250,2.46
23.265,3.55
23.281,4.82
23.296,6.2
23.312,7.42
23.328,8.15
23.343,8.2
23.359,7.53
23.375,6.3
23.390,4.75
23.406,3.02
23.421,1.18
23.437,-0.89
23.453,-3.32
23.468,-6.12
23.484,-9.13
23.500,-12.03
23.515,-14.45
23.531,-16.23
23.546,-17.61
23.562,-19.09
23.578,-21.27
23.593,-24.49
23.609,-28.62
23.625,-32.96
23.640,-36.6
23.656,-38.67
23.671,-38.62
23.687,-36.39
23.703,-32.19
23.718,-26.47
23.734,-19.72
23.750,-12.44
23.765,-5.12
23.781,1.73
23.796,7.7
23.812,12.58
23.828,16.31
23.843,19.1
23.859,21.2
23.875,22.86
23.890,24.19
23.906,25.26
23.921,25.99
23.937,26.32
23.953,26.22
23.968,25.66
23.984,24.75
24.000,23.56
24.015,22.27
24.031,21.05
24.046,20.02
24.062,19.18
24.078,18.37
24.093,17.29
24.109,15.63
24.125,13.33
24.140,10.48
24.156,7.41
24.171,4.38
24.187,1.46
24.203,-1.38
24.218,-4.3
24.234,-7.31
24.250,-10.29
24.265,-13.03
24.281,-15.46
24.296,-17.75
24.312,-20.22
24.328,-23.11
24.343,-26.26
24.359,-29.08
24.375,-30.69
24.390,-30.41
24.406,-27.92
24.421,-23.45
24.437,-17.64
24.453,-11.18
24.468,-4.71
24.484,1.33
24.500,6.64
24.515,11.03
24.531,14.38
24.546,16.67
24.562,17.99
24.578,18.57
24.593,18.69
24.609,18.61
24.625,18.49
24.640,18.39
24.656,18.33
24.671,18.3
24.687,18.34
24.703,18.49
24.718,18.79
24.734,19.24
24.750,19.69
24.765,20.01
24.781,20.05
24.796,19.82
24.812,19.37
24.828,18.77
24.843,17.88
24.859,16.24
24.875,13.35
24.890,8.82
24.906,2.82
24.921,-3.76
24.937,-9.7
24.953,-14.11
24.968,-16.89
24.984,-18.71
25.000,-20.54
25.015,-22.79
25.031,-24.71
25.046,-24.53
25.062,-20.32
25.078,-11.16
25.093,2.46
25.109,18.96
25.125,36.64
25.140,54.1
25.156,70.35
25.171,84.15
25.187,93.63
25.203,96.47
25.218,90.77
25.234,76.15
25.250,53.94
25.265,26.69
25.281,-2.96
25.296,-33.04
25.312,-62.44
25.328,-90.2
25.343,-114.74
25.359,-133.46
25.375,-142.96
25.390,-140.12
25.406,-123.24
25.421,-92.88
25.437,-51.91
25.453,-5.34
25.468,40.54
25.484,79.52
25.500,106.71
25.515,119.56
25.531,117.88
25.546,103.52
25.562,79.4
25.578,48.78
25.593,14.73
25.609,-19.95
25.625,-52.31
25.640,-79.34
25.656,-98.2
25.671,-106.91
25.687,-105.11
25.703,-94.34
25.718,-77.77
25.734,-59.21
25.750,-41.93
25.765,-27.87
25.781,-17.57
25.796,-10.68
25.812,-6.55
25.828,-4.65
25.843,-4.52
25.859,-5.51
25.875,-6.64
25.890,-6.74
25.906,-4.93
25.921,-1.08
25.937,4.1
25.953,9.45
25.968,13.76
25.984,16.25
26.000,16.65
26.015,15.18
26.031,12.31
26.046,8.73
26.062,5.21
26.078,2.53
26.093,1.31
26.109,1.82
26.125,3.92
26.140,7.12
26.156,10.68
26.171,14.01
26.187,16.87
26.203,19.53
26.218,22.6
26.234,26.67
26.250,31.98
26.265,38.12
26.281,44.07
26.296,48.48
26.312,50.13
26.328,48.27
26.343,42.79
26.359,34.11
26.375,22.9
26.390,10.02
26.406,-3.45
26.421,-16.16
26.437,-26.4
26.453,-32.44
26.468,-32.99
26.484,-27.68
26.500,-17.32
26.515,-3.73
26.531,10.76
26.546,23.92
26.562,34.11
26.578,40.43
26.593,42.68
26.609,41.15
26.625,36.45
26.640,29.49
26.656,21.39
26.671,13.35
26.687,6.44
26.703,1.32
26.718,-1.78
26.734,-3.06
26.750,-2.94
26.765,-1.82
26.796,2.32
26.812,4.98
26.828,7.77
26.843,10.44
26.859,12.84
26.875,14.98
26.890,17.13
26.906,19.76
26.921,23.33
26.937,28.08
26.953,33.69
26.968,39.21
26.984,43.17
27.000,44.01
27.015,40.59
27.031,32.72
27.046,21.25
27.062,7.88
27.078,-5.37
27.093,-16.83
27.109,-25.52
27.125,-31.28
27.140,-34.57
27.156,-36.2
27.171,-36.94
27.187,-37.44
27.203,-38.16
27.218,-39.31
27.234,-40.94
27.250,-42.91
27.265,-44.8
27.281,-45.99
27.296,-45.81
27.312,-43.73
27.328,-39.49
27.343,-33.29
27.359,-25.7
27.375,-17.52
27.390,-9.56
27.406,-2.44
27.421,3.49
27.437,8.14
27.453,11.54
27.468,13.77
27.484,14.84
27.500,14.88
27.515,14.01
27.531,12.61
27.546,11.16
27.562,10.16
27.578,9.99
27.593,10.75
27.609,12.16
27.625,13.76
27.640,15.15
27.656,16.07
27.671,16.53
27.687,16.62
27.703,16.36
27.718,15.65
27.734,14.36
27.750,12.44
27.765,10.09
27.781,7.75
27.796,5.84
27.812,4.59
27.828,3.91
27.843,3.44
27.859,2.81
27.875,1.89
27.890,0.7
27.906,-0.61
27.921,-1.9
27.937,-3.2
27.953,-4.59
27.968,-6.14
27.984,-7.87
28.000,-9.63
28.015,-11.3
28.031,-12.87
28.046,-14.39
28.062,-15.97
28.078,-17.66
28.093,-19.38
28.109,-20.92
28.125,-22.01
28.140,-22.29
28.156,-21.5
28.171,-19.53
28.187,-16.47
28.203,-12.75
28.218,-8.93
28.234,-5.47
28.250,-2.6
28.265,-0.3
28.281,1.67
28.296,3.41
28.312,4.83
28.328,5.72
28.343,5.84
28.359,5.24
28.375,4.27
28.390,3.37
28.406,2.79
28.421,2.5
28.437,2.24
28.453,1.66
28.468,0.73
28.484,-0.4
28.500,-1.42
28.515,-2.08
28.531,-2.32
28.546,-2.23
28.562,-1.94
28.578,-1.58
28.593,-1.22
28.609,-0.9
28.625,-0.72
28.640,-0.77
28.656,-1.02
28.671,-1.38
28.687,-1.66
28.703,-1.76
28.718,-1.76
28.734,-1.75
28.750,-1.84
28.765,-2.02
28.781,-2.16
28.796,-2.21
28.812,-2.22
28.828,-2.37
28.843,-2.89
28.859,-3.83
28.875,-5.04
28.890,-6.22
28.906,-7.0
28.921,-7.25
28.937,-7.01
28.953,-6.48
28.968,-5.77
28.984,-4.84
29.000,-3.49
29.015,-1.57
29.031,0.92
29.046,3.86
29.062,6.96
29.078,9.95
29.093,12.64
29.109,14.99
29.125,16.99
29.140,18.59
29.156,19.71
29.171,20.19
29.187,19.94
29.203,19.1
29.218,17.88
29.234,16.6
29.250,15.48
29.265,14.56
29.281,13.65
29.296,12.33
29.312,10.08
29.328,6.41
29.343,1.08
29.359,-5.87
29.375,-14.07
29.390,-22.93
29.406,-31.7
29.421,-39.66
29.437,-46.22
29.453,-51.07
29.468,-54.19
29.484,-55.8
29.500,-56.21
29.515,-55.75
29.531,-54.61
29.546,-52.82
29.562,-50.25
29.578,-46.79
29.593,-42.39
29.609,-37.17
29.625,-31.39
29.640,-25.36
29.656,-19.36
29.671,-13.6
29.687,-8.23
29.703,-3.35
29.718,0.93
29.734,4.59
29.750,7.64
29.765,10.21
29.781,12.47
29.796,14.5
29.812,16.31
29.828,17.82
29.843,18.9
29.859,19.46
29.875,19.57
29.890,19.31
29.906,18.87
29.921,18.32
29.937,17.69
29.953,17.0
29.968,16.31
29.984,15.7
30.000,15.28
30.015,15.06
30.031,14.86
30.046,14.44
30.062,13.55
30.078,12.0
30.093,9.83
30.109,7.15
30.125,4.11
30.140,0.85
30.156,-2.57
30.171,-6.09
30.187,-9.57
30.203,-12.83
30.218,-15.76
30.234,-18.36
30.250,-20.8
30.265,-23.29
30.281,-25.93
30.296,-28.59
30.312,-30.98
30.328,-32.8
30.343,-33.93
30.359,-34.54
30.375,-34.96
30.390,-35.58
30.406,-36.59
30.421,-37.87
30.437,-38.99
30.453,-39.34
30.468,-38.21
30.484,-35.05
30.500,-29.53
30.515,-21.73
30.531,-12.2
30.546,-1.84
30.562,8.44
30.578,17.9
30.593,26.27
30.609,33.76
30.625,40.87
30.640,48.11
30.656,55.59
30.671,62.96
30.687,69.49
30.703,74.2
30.718,76.09
30.734,74.28
30.750,68.17
30.765,57.63
30.781,43.22
30.796,26.08
30.812,7.88
30.828,-9.49
30.843,-24.39
30.859,-35.74
30.875,-43.11
30.890,-46.68
30.906,-47.08
30.921,-45.08
30.937,-41.51
30.953,-37.11
30.968,-32.5
30.984,-28.14
31.000,-24.44
31.015,-21.73
31.031,-20.19
31.046,-19.85
31.062,-20.41
31.078,-21.28
31.093,-21.69
31.109,-21.04
31.125,-19.21
31.140,-16.57
31.156,-13.91
31.171,-11.98
31.187,-11.25
31.203,-11.63
31.218,-12.65
31.234,-13.66
31.250,-14.13
31.265,-13.75
31.281,-12.51
31.296,-10.44
31.312,-7.71
31.328,-4.43
31.343,-0.79
31.359,2.95
31.375,6.52
31.390,9.73
31.406,12.5
31.421,14.84
31.437,16.78
31.453,18.22
31.468,19.01
31.484,18.99
31.500,18.03
31.515,16.2
31.531,13.69
31.546,10.78
31.562,7.79
31.578,5.03
31.593,2.75
31.609,1.05
31.625,-0.02
31.640,-0.59
31.656,-0.86
31.671,-1.05
31.687,-1.3
31.703,-1.64
31.718,-2.03
31.734,-2.38
31.750,-2.7
31.765,-3.02
31.781,-3.46
31.796,-4.13
31.812,-5.13
31.828,-6.46
31.843,-8.04
31.859,-9.78
31.875,-11.51
31.890,-13.12
31.906,-14.47
31.921,-15.54
31.937,-16.38
31.953,-17.12
31.968,-17.99
31.984,-19.16
32.000,-20.72
32.015,-22.56
32.031,-24.33
32.046,-25.53
32.062,-25.69
32.078,-24.47
32.093,-21.79
32.109,-17.89
32.125,-13.24
32.140,-8.42
32.156,-3.97
32.171,-0.24
32.187,2.67
32.203,4.89
32.218,6.68
32.234,8.39
32.250,10.21
32.265,12.16
32.281,14.14
32.296,15.85
32.312,17.1
32.328,17.71
32.343,17.68
32.359,17.13
32.375,16.29
32.390,15.47
32.406,14.96
32.421,14.91
32.437,15.3
32.453,15.9
32.468,16.32
32.484,16.28
32.500,15.61
32.515,14.37
32.531,12.76
32.546,11.03
32.562,9.32
32.578,7.67
32.593,6.06
32.609,4.44
32.625,2.88
32.640,1.47
32.656,0.21
32.671,-0.98
32.687,-2.24
32.703,-3.75
32.718,-5.58
32.734,-7.67
32.750,-9.91
32.765,-12.15
32.781,-14.3
32.796,-16.35
32.812,-18.19
32.828,-19.64
32.843,-20.38
32.859,-20.07
32.875,-18.49
32.890,-15.58
32.906,-11.55
32.921,-6.76
32.937,-1.65
32.953,3.3
32.968,7.71
32.984,11.26
33.000,13.77
33.015,15.28
33.031,15.87
33.046,15.78
33.062,15.25
33.078,14.5
33.093,13.71
33.109,13.03
33.125,12.53
33.140,12.23
33.156,12.14
33.171,12.14
33.187,12.12
33.203,12.02
33.218,11.82
33.234,11.57
33.250,11.38
33.265,11.24
33.281,11.1
33.296,10.79
33.312,10.15
33.328,9.05
33.343,7.55
33.359,5.79
33.375,4.01
33.390,2.41
33.406,1.09
33.421,-0.02
33.437,-1.09
33.453,-2.31
33.468,-3.82
33.484,-5.64
33.500,-7.66
33.515,-9.66
33.531,-11.42
33.546,-12.76
33.562,-13.59
33.578,-13.87
33.593,-13.57
33.609,-12.73
33.625,-11.25
33.640,-9.17
33.656,-6.55
33.671,-3.57
33.687,-0.55
33.703,2.22
33.718,4.59
33.734,6.63
33.750,8.54
33.765,10.47
33.781,12.39
33.796,14.02
33.812,15.03
33.828,15.24
33.843,14.76
33.859,13.99
33.875,13.33
33.890,13.03
33.906,13.05
33.921,13.09
33.937,12.91
33.953,12.41
33.968,11.7
33.984,10.93
34.000,10.15
34.015,9.3
34.031,8.27
34.046,7.0
34.062,5.6
34.078,4.26
34.093,3.15
34.109,2.27
34.125,1.44
34.140,0.4
34.156,-1.07
34.171,-3.07
34.187,-5.54
34.203,-8.35
34.218,-11.38
34.234,-14.44
34.250,-17.33
34.265,-19.76
34.281,-21.42
34.296,-21.99
34.312,-21.29
34.328,-19.24
34.343,-16.06
34.359,-12.05
34.375,-7.68
34.390,-3.37
34.406,0.54
34.421,3.83
34.437,6.42
34.453,8.36
34.468,9.82
34.484,10.96
34.500,11.91
34.515,12.66
34.531,13.26
34.546,13.69
34.562,14.02
34.578,14.41
34.593,14.9
34.609,15.44
34.625,15.85
34.640,15.86
34.656,15.34
34.671,14.34
34.687,13.13
34.703,12.02
34.718,11.27
34.734,10.87
34.750,10.66
34.765,10.39
34.781,9.87
34.796,8.99
34.812,7.7
34.828,6.03
34.843,4.04
34.859,1.88
34.875,-0.29
34.890,-2.27
34.906,-3.97
34.921,-5.41
34.937,-6.79
34.953,-8.41
34.968,-10.41
34.984,-12.76
35.000,-15.15
35.015,-17.18
35.031,-18.5
35.046,-18.89
35.062,-18.38
35.078,-16.99
35.093,-14.83
35.109,-11.85
35.125,-8.05
35.140,-3.56
35.156,1.29
35.171,6.05
35.187,10.31
35.203,13.81
35.218,16.58
35.234,18.78
35.250,20.66
35.265,22.34
35.281,23.86
35.296,25.12
35.312,25.97
35.328,26.3
35.343,26.06
35.359,25.32
35.375,24.23
35.390,23.06
35.406,22.05
35.421,21.28
35.437,20.62
35.453,19.78
35.468,18.39
35.484,16.26
35.500,13.38
35.515,9.95
35.531,6.26
35.546,2.47
35.562,-1.31
35.578,-5.0
35.593,-8.54
35.609,-11.8
35.625,-14.71
35.640,-17.3
35.656,-19.8
35.671,-22.43
35.687,-25.34
35.703,-28.31
35.718,-30.82
35.734,-32.2
35.750,-31.97
35.765,-29.99
35.781,-26.6
35.796,-22.4
35.812,-17.99
35.828,-13.76
35.843,-9.76
35.859,-5.84
35.875,-1.89
35.890,2.06
35.906,5.75
35.921,8.77
35.937,10.77
35.953,11.66
35.968,11.56
35.984,10.88
36.000,10.04
36.015,9.35
36.031,8.92
36.046,8.73
36.062,8.71
36.078,8.81
36.093,9.14
36.109,9.83
36.125,11.0
36.140,12.54
36.156,14.13
36.171,15.31
36.187,15.75
36.203,15.33
36.218,14.2
36.234,12.76
36.250,11.42
36.265,10.55
36.281,10.21
36.296,10.29
36.312,10.5
36.328,10.56
36.343,10.3
36.359,9.68
36.375,8.81
36.390,7.91
36.406,7.23
36.421,6.94
36.437,7.15
36.453,7.82
36.468,8.73
36.484,9.52
36.500,9.73
36.515,8.84
36.531,6.38
36.546,2.18
36.562,-3.57
36.578,-10.24
36.593,-16.93
36.609,-22.69
36.625,-26.77
36.640,-28.78
36.656,-28.74
36.671,-27.07
36.687,-24.4
36.703,-21.34
36.718,-18.38
36.734,-15.8
36.750,-13.59
36.765,-11.62
36.781,-9.71
36.796,-7.83
36.812,-6.11
36.828,-4.86
36.843,-4.33
36.859,-4.61
36.875,-5.5
36.890,-6.62
36.906,-7.51
36.921,-7.82
36.937,-7.42
36.953,-6.37
36.968,-4.85
36.984,-3.14
37.000,-1.46
37.015,-0.01
37.031,1.0
37.046,1.52
37.062,1.53
37.078,1.18
37.093,0.73
37.109,0.47
37.125,0.58
37.140,1.11
37.156,1.91
37.171,2.74
37.187,3.43
37.203,3.84
37.218,3.87
37.234,3.51
37.250,2.73
37.265,1.55
37.281,0.04
37.296,-1.7
37.312,-3.55
37.328,-5.45
37.343,-7.38
37.359,-9.36
37.375,-11.3
37.390,-12.96
37.406,-14.02
37.421,-14.15
37.437,-13.16
37.453,-11.15
37.468,-8.39
37.484,-5.22
37.500,-1.99
37.515,1.07
37.531,3.79
37.546,6.03
37.562,7.64
37.578,8.54
37.593,8.69
37.609,8.16
37.625,7.06
37.640,5.61
37.656,3.99
37.671,2.34
37.687,0.8
37.703,-0.48
37.718,-1.41
37.734,-1.89
37.750,-1.91
37.765,-1.61
37.781,-1.19
37.796,-0.84
37.812,-0.65
37.828,-0.61
37.843,-0.61
37.859,-0.53
37.875,-0.42
37.890,-0.42
37.906,-0.72
37.921,-1.48
37.937,-2.64
37.953,-4.0
37.968,-5.35
37.984,-6.52
38.000,-7.49
38.015,-8.36
38.031,-9.28
38.046,-10.28
38.062,-11.38
38.078,-12.52
38.093,-13.66
38.109,-14.76
38.125,-15.75
38.140,-16.51
38.156,-16.82
38.171,-16.44
38.187,-15.16
38.203,-12.86
38.218,-9.63
38.234,-5.74
38.250,-1.62
38.265,2.29
38.281,5.62
38.296,8.21
38.312,10.07
38.328,11.38
38.343,12.3
38.359,12.92
38.375,13.22
38.390,13.19
38.406,12.84
38.421,12.34
38.437,11.83
38.453,11.47
38.468,11.34
38.484,11.32
38.500,11.21
38.515,10.71
38.531,9.47
38.546,7.17
38.562,3.6
38.578,-1.27
38.593,-7.25
38.609,-13.98
38.625,-21.12
38.640,-28.57
38.656,-36.58
38.671,-45.59
38.687,-55.99
38.703,-67.7
38.718,-80.07
38.734,-91.93
38.750,-101.95
38.765,-109.03
38.781,-112.56
38.796,-112.53
38.812,-109.34
38.828,-103.73
38.843,-96.48
38.859,-88.31
38.875,-79.83
38.890,-71.41
38.906,-63.2
38.921,-55.05
38.937,-46.65
38.953,-37.57
38.968,-27.45
38.984,-16.11
39.000,-3.57
39.015,9.81
39.031,23.53
39.046,36.97
39.062,49.55
39.078,60.83
39.093,70.51
39.109,78.43
39.125,84.63
39.140,89.29
39.156,92.66
39.171,95.0
39.187,96.48
39.203,97.08
39.218,96.68
39.234,95.18
39.250,92.68
39.265,89.61
39.281,86.71
39.296,84.77
39.312,84.34
39.328,85.55
39.343,87.89
39.359,90.38
39.375,91.84
39.390,91.18
39.406,87.67
39.421,81.29
39.437,72.61
39.453,62.61
39.468,52.47
39.484,43.08
39.500,34.86
39.515,27.61
39.531,20.59
39.546,12.74
39.562,3.0
39.578,-9.2
39.593,-23.58
39.609,-38.82
39.625,-52.72
39.640,-62.73
39.656,-66.79
39.671,-64.07
39.687,-55.22
39.703,-42.25
39.718,-27.75
39.734,-14.15
39.750,-3.09
39.765,4.75
39.781,9.46
39.796,11.54
39.812,11.59
39.828,10.29
39.843,8.32
39.859,6.41
39.875,5.14
39.890,4.84
39.906,5.32
39.921,6.05
39.937,6.37
39.953,5.75
39.968,4.02
39.984,1.45
40.000,-1.45
40.015,-4.16
40.031,-6.29
40.046,-7.77
40.062,-8.76
40.078,-9.51
40.093,-10.28
40.109,-11.25
40.125,-12.44
40.140,-13.9
40.156,-15.57
40.171,-17.37
40.187,-19.2
40.203,-20.86
40.218,-22.2
40.234,-23.17
40.250,-23.89
40.265,-24.6
40.281,-25.57
40.296,-26.85
40.312,-28.3
40.328,-29.57
40.343,-30.32
40.359,-30.36
40.375,-29.88
40.390,-29.27
40.406,-29.07
40.421,-29.64
40.437,-30.91
40.453,-32.33
40.468,-32.99
40.484,-31.92
40.500,-28.43
40.515,-22.47
40.531,-14.62
40.546,-6.03
40.562,1.88
40.578,7.71
40.593,10.31
40.609,8.96
40.625,3.75
40.640,-4.37
40.656,-13.56
40.671,-21.5
40.687,-26.07
40.703,-26.19
40.718,-22.24
40.734,-16.11
40.750,-10.33
40.765,-7.06
40.781,-7.34
40.796,-10.75
40.812,-15.8
40.828,-20.66
40.843,-23.99
40.859,-25.24
40.875,-24.76
40.890,-23.37
40.906,-21.86
40.921,-20.73
40.937,-20.13
40.953,-19.93
40.968,-20.09
40.984,-20.66
41.000,-21.78
41.015,-23.45
41.031,-25.29
41.046,-26.56
41.062,-26.44
41.078,-24.4
41.093,-20.51
41.109,-15.44
41.125,-10.08
41.140,-4.91
41.156,0.16
41.171,5.91
41.187,13.31
41.203,22.95
41.218,34.95
41.234,48.88
41.250,64.3
41.265,81.15
41.281,99.83
41.296,120.66
41.312,143.37
41.328,166.6
41.343,187.87
41.359,204.18
41.375,212.76
41.390,211.85
41.406,201.06
41.421,181.5
41.437,155.34
41.453,125.35
41.468,94.34
41.484,64.72
41.500,38.33
41.515,16.31
41.531,-0.76
41.546,-12.68
41.562,-19.59
41.578,-21.89
41.593,-20.31
41.609,-16.04
41.625,-10.52
41.640,-5.17
41.656,-1.1
41.671,1.08
41.687,1.37
41.703,0.1
41.718,-2.22
41.734,-5.11
41.750,-8.21
41.765,-11.25
41.781,-13.91
41.796,-15.87
41.812,-16.94
41.828,-17.01
41.843,-16.31
41.859,-15.28
41.875,-14.41
41.890,-14.07
41.906,-14.31
41.921,-14.87
41.937,-15.31
41.953,-15.27
41.968,-14.49
41.984,-13.05
42.000,-11.1
42.015,-8.91
42.031,-6.78
42.046,-5.02
42.062,-3.83
42.078,-3.39
42.093,-3.71
42.109,-4.65
42.125,-6.0
42.140,-7.45
42.156,-8.71
42.171,-9.64
42.187,-10.24
42.203,-10.56
42.218,-10.7
42.234,-10.77
42.250,-10.74
42.265,-10.65
42.281,-10.51
42.296,-10.3
42.312,-10.07
42.328,-9.84
42.343,-9.65
42.359,-9.5
42.375,-9.45
42.390,-9.55
42.406,-9.89
42.421,-10.54
42.437,-11.45
42.453,-12.54
42.468,-13.6
42.484,-14.46
42.500,-15.12
42.515,-15.78
42.531,-16.65
42.546,-18.0
42.562,-19.84
42.578,-21.95
42.593,-23.89
42.609,-25.2
42.625,-25.53
42.640,-24.79
42.656,-23.16
42.671,-20.9
42.687,-18.38
42.703,-15.85
42.718,-13.44
42.734,-11.17
42.750,-8.97
42.765,-6.74
42.781,-4.5
42.796,-2.38
42.812,-0.61
42.828,0.54
42.843,0.96
42.859,0.81
42.875,0.44
42.890,0.23
42.906,0.46
42.921,1.16
42.937,2.08
42.953,2.92
42.968,3.37
42.984,3.36
43.000,3.01
43.015,2.56
43.031,2.17
43.046,2.0
43.062,2.11
43.078,2.54
43.093,3.35
43.109,4.5
43.125,5.89
43.140,7.27
43.156,8.42
43.171,9.14
43.187,9.46
43.203,9.57
43.218,9.77
43.234,10.29
43.250,11.22
43.265,12.42
43.281,13.56
43.296,14.26
43.312,14.14
43.328,13.05
43.343,11.08
43.359,8.62
43.375,6.22
43.390,4.35
43.406,3.16
43.421,2.47
43.437,1.8
43.453,0.64
43.468,-1.32
43.484,-4.11
43.500,-7.61
43.515,-11.62
43.531,-16.2
43.546,-21.66
43.562,-28.36
43.578,-36.61
43.593,-46.48
43.609,-57.81
43.625,-70.08
43.640,-82.6
43.656,-94.46
43.671,-104.71
43.687,-112.41
43.703,-116.97
43.718,-118.26
43.734,-116.91
43.750,-114.14
43.765,-111.62
43.781,-110.95
43.796,-113.15
43.812,-118.25
43.828,-125.22
43.843,-132.33
43.859,-137.65
43.875,-139.6
43.890,-137.25
43.906,-130.58
43.921,-120.25
43.937,-107.36
43.953,-93.22
43.968,-79.0
43.984,-65.4
44.000,-52.4
44.015,-39.26
44.031,-24.79
44.046,-8.14
44.062,10.65
44.078,30.44
44.093,49.32
44.109,65.29
44.125,77.09
44.140,84.58
44.156,88.64
44.171,90.62
44.187,91.74
44.203,92.76
44.218,94.0
44.234,95.75
44.250,98.58
44.265,103.38
44.281,110.93
44.296,121.22
44.312,132.79
44.328,142.68
44.343,147.07
44.359,142.38
44.375,126.44
44.390,99.21
44.406,62.59
44.421,19.74
44.437,-25.67
44.453,-70.13
44.468,-110.45
44.484,-143.78
44.500,-167.78
44.515,-180.79
44.531,-182.04
44.546,-171.85
44.562,-151.67
44.578,-123.94
44.593,-91.93
44.609,-59.36
44.625,-29.75
44.640,-5.73
44.656,11.71
44.671,23.4
44.687,31.54
44.703,38.57
44.718,46.18
44.734,54.73
44.750,63.46
44.765,71.23
44.781,77.3
44.796,81.68
44.812,84.99
44.828,88.01
44.843,91.24
44.859,94.75
44.875,98.25
44.890,101.31
44.906,103.54
44.921,104.54
44.937,103.88
44.953,101.12
44.968,96.0
44.984,88.61
45.000,79.42
45.015,69.04
45.031,57.96
45.046,46.38
45.062,34.13
45.078,20.93
45.093,6.61
45.109,-8.71
45.125,-24.56
45.140,-40.36
45.156,-55.65
45.171,-70.17
45.187,-83.65
45.203,-95.87
45.218,-106.43
45.234,-114.92
45.250,-120.93
45.265,-124.32
45.281,-125.28
45.296,-124.33
45.312,-122.19
45.328,-119.57
45.343,-116.96
45.359,-114.43
45.375,-111.51
45.390,-107.33
45.406,-100.83
45.421,-91.26
45.437,-78.36
45.453,-62.66
45.468,-45.21
45.484,-27.21
45.500,-9.57
45.515,7.18
45.531,22.85
45.546,37.25
45.562,49.97
45.578,60.45
45.593,68.07
45.609,72.57
45.625,74.1
45.640,73.24
45.656,70.83
45.671,67.73
45.687,64.68
45.703,62.1
45.718,60.12
45.734,58.48
45.750,56.72
45.765,54.26
45.781,50.74
45.796,46.14
45.812,40.96
45.828,36.2
45.843,33.03
45.859,32.66
45.875,35.9
45.890,42.89
45.906,52.93
45.921,64.54
45.937,75.72
45.953,84.6
45.968,89.91
45.984,91.45
46.000,89.95
46.015,86.62
46.031,82.37
46.046,77.45
46.062,71.22
46.078,62.58
46.093,50.78
46.109,35.8
46.125,18.61
46.140,0.89
46.156,-15.54
46.171,-29.23
46.187,-39.19
46.203,-44.94
46.218,-46.34
46.234,-43.47
46.250,-36.74
46.265,-26.98
46.281,-15.43
46.296,-3.55
46.312,7.19
46.328,15.62
46.343,21.16
46.359,23.74
46.375,23.83
46.390,22.19
46.406,19.64
46.421,16.84
46.437,14.18
46.453,11.74
46.468,9.46
46.484,7.36
46.500,5.6
46.515,4.53
46.531,4.39
46.546,5.17
46.562,6.5
46.578,7.74
46.593,8.29
46.609,7.79
46.625,6.18
46.640,3.64
46.656,0.42
46.671,-3.24
46.687,-7.12
46.703,-10.91
46.718,-14.34
46.734,-17.21
46.750,-19.53
46.765,-21.57
46.781,-23.77
46.796,-26.47
46.812,-29.67
46.828,-32.96
46.843,-35.54
46.859,-36.53
46.875,-35.34
46.890,-31.74
46.906,-26.03
46.921,-18.89
46.937,-11.16
46.953,-3.63
46.968,3.1
46.984,8.72
47.000,13.17
47.015,16.56
47.031,19.08
47.046,20.98
47.062,22.43
47.078,23.57
47.093,24.46
47.109,25.08
47.125,25.35
47.140,25.27
47.156,24.77
47.171,23.84
47.187,22.47
47.203,20.68
47.218,18.58
47.234,16.31
47.250,14.02
47.265,11.79
47.281,9.7
47.296,7.71
47.312,5.86
47.328,4.22
47.343,2.86
47.359,1.86
47.375,1.11
47.390,0.37
47.406,-0.66
47.421,-2.17
47.437,-4.19
47.453,-6.58
47.468,-9.16
47.484,-11.88
47.500,-14.88
47.515,-18.4
47.531,-22.53
47.546,-26.96
47.562,-30.88
47.578,-33.25
47.593,-33.1
47.609,-30.05
47.625,-24.46
47.640,-17.24
47.656,-9.6
47.671,-2.47
47.687,3.7
47.703,8.88
47.718,13.29
47.734,17.07
47.750,20.17
47.765,22.38
47.781,23.55
47.796,23.75
47.812,23.27
47.828,22.5
47.843,21.7
47.859,20.95
47.875,20.17
47.890,19.29
47.906,18.38
47.921,17.61
47.937,17.23
47.953,17.36
47.968,17.89
47.984,18.41
48.000,18.46
48.015,17.67
48.031,15.95
48.046,13.42
48.062,10.32
48.078,6.87
48.093,3.22
48.109,-0.52
48.125,-4.29
48.140,-7.91
48.156,-11.18
48.171,-14.01
48.187,-16.38
48.203,-18.41
48.218,-20.25
48.234,-22.05
48.250,-23.92
48.265,-25.92
48.281,-28.03
48.296,-30.19
48.312,-32.16
48.328,-33.5
48.343,-33.68
48.359,-32.23
48.375,-28.9
48.390,-23.87
48.406,-17.62
48.421,-10.82
48.437,-4.13
48.453,1.96
48.468,7.2
48.484,11.45
48.500,14.69
48.515,16.94
48.531,18.34
48.546,19.11
48.562,19.46
48.578,19.54
48.593,19.4
48.609,19.0
48.625,18.29
48.640,17.3
48.656,16.19
48.671,15.14
48.687,14.24
48.703,13.53
48.718,12.94
48.734,12.4
48.750,11.89
48.765,11.41
48.781,10.96
48.796,10.47
48.812,9.8
48.828,8.78
48.843,7.32
48.859,5.41
48.875,3.13
48.890,0.58
48.906,-2.07
48.921,-4.73
48.937,-7.32
48.953,-9.75
48.968,-12.02
48.984,-14.13
49.000,-16.11
49.015,-18.0
49.031,-19.98
49.046,-22.26
49.062,-25.06
49.078,-28.5
49.093,-32.38
49.109,-36.15
49.125,-39.03
49.140,-40.15
49.156,-38.9
49.171,-35.09
49.187,-29.06
49.203,-21.53
49.218,-13.4
49.234,-5.5
49.250,1.56
49.265,7.48
49.281,12.14
49.296,15.62
49.312,18.01
49.328,19.45
49.343,20.03
49.359,19.92
49.375,19.33
49.390,18.49
49.406,17.58
49.421,16.67
49.437,15.71
49.453,14.59
49.468,13.32
49.484,12.04
49.500,11.01
49.515,10.49
49.531,10.59
49.546,11.14
49.562,11.75
49.578,11.98
49.593,11.54
49.609,10.41
49.625,8.79
49.640,7.01
49.656,5.22
49.671,3.44
49.687,1.55
49.703,-0.6
49.718,-3.08
49.734,-5.79
49.750,-8.57
49.765,-11.28
49.781,-13.8
49.796,-16.19
49.812,-18.59
49.828,-21.12
49.843,-23.91
49.859,-26.99
49.875,-30.36
49.890,-33.83
49.906,-37.12
49.921,-39.74
49.937,-41.12
49.953,-40.7
49.968,-38.15
49.984,-33.52
50.000,-27.24
50.015,-20.08
50.031,-12.84
50.046,-6.18
50.062,-0.42
50.078,4.39
50.093,8.35
50.109,11.65
50.125,14.41
50.140,16.73
50.156,18.66
50.171,20.2
50.187,21.29
50.203,21.91
50.218,22.07
50.234,21.84
50.250,21.37
50.265,20.76
50.281,20.07
50.296,19.32
50.312,18.46
50.328,17.46
50.343,16.4
50.359,15.38
50.375,14.52
50.390,13.9
50.406,13.47
50.421,13.06
50.437,12.45
50.453,11.46
50.468,9.98
50.484,7.97
50.500,5.53
50.515,2.71
50.531,-0.44
50.546,-3.9
50.562,-7.59
50.578,-11.33
50.593,-14.9
50.609,-18.11
50.625,-20.99
50.640,-23.74
50.656,-26.68
50.671,-30.08
50.687,-33.88
50.703,-37.71
50.718,-40.86
50.734,-42.55
50.750,-42.13
50.765,-39.36
50.781,-34.33
50.796,-27.58
50.812,-19.84
50.828,-11.92
50.843,-4.56
50.859,1.75
50.875,6.81
50.890,10.61
50.906,13.34
50.921,15.25
50.937,16.51
50.953,17.29
50.968,17.67
50.984,17.65
51.000,17.26
51.015,16.58
51.031,15.77
51.046,15.01
51.062,14.43
51.078,14.03
51.093,13.71
51.109,13.34
51.125,12.84
51.140,12.28
51.156,11.85
51.171,11.6
51.187,11.46
51.203,11.07
51.218,9.95
51.234,7.85
51.250,4.8
51.265,1.13
51.281,-2.66
51.296,-6.29
51.312,-9.74
51.328,-13.14
51.343,-16.62
51.359,-20.13
51.375,-23.44
51.390,-26.27
51.406,-28.56
51.421,-30.53
51.437,-32.66
51.453,-35.41
51.468,-38.88
51.484,-42.68
51.500,-45.99
51.515,-47.74
51.531,-47.02
51.546,-43.4
51.562,-36.97
51.578,-28.39
51.593,-18.57
51.609,-8.43
51.625,1.31
51.640,10.15
51.656,17.81
51.671,24.03
51.687,28.66
51.703,31.72
51.718,33.31
51.734,33.76
51.750,33.38
51.765,32.45
51.781,31.03
51.796,29.26
51.812,27.2
51.828,25.08
51.843,23.27
51.859,21.99
51.875,21.32
51.890,21.05
51.906,20.85
51.921,20.43
51.937,19.73
51.953,18.78
51.968,17.71
51.984,16.6
52.000,15.33
52.015,13.83
52.031,11.97
52.046,9.68
52.062,6.91
52.078,3.63
52.093,-0.18
52.109,-4.5
52.125,-9.14
52.140,-13.88
52.156,-18.39
52.171,-22.47
52.187,-26.14
52.203,-29.63
52.218,-33.32
52.234,-37.46
52.250,-42.18
52.265,-47.24
52.281,-52.12
52.296,-56.02
52.312,-58.09
52.328,-57.6
52.343,-54.21
52.359,-48.03
52.375,-39.63
52.390,-29.97
52.406,-20.17
52.421,-11.38
52.437,-4.53
52.453,-0.24
52.468,1.36
52.484,0.67
52.500,-1.51
52.515,-4.19
52.531,-6.63
52.546,-8.65
52.562,-10.72
52.578,-13.61
52.593,-17.93
52.609,-23.62
52.625,-29.77
52.640,-35.03
52.656,-37.98
52.671,-37.74
52.687,-34.24
52.703,-28.24
52.718,-20.98
52.734,-13.87
52.750,-8.16
52.765,-4.72
52.781,-3.84
52.796,-5.22
52.812,-8.14
52.828,-11.6
52.843,-14.67
52.859,-16.67
52.875,-17.38
52.890,-17.06
52.906,-16.62
52.921,-17.32
52.937,-20.36
52.953,-26.42
52.968,-35.3
52.984,-45.84
53.000,-56.4
53.015,-65.58
53.031,-72.73
53.046,-78.2
53.062,-82.9
53.078,-87.44
53.093,-91.82
53.109,-95.14
53.125,-96.08
53.140,-93.48
53.156,-86.78
53.171,-76.04
53.187,-61.91
53.203,-45.33
53.218,-27.36
53.234,-9.17
53.250,8.21
53.265,23.94
53.281,37.62
53.296,49.2
53.312,58.92
53.328,67.04
53.343,73.73
53.359,78.94
53.375,82.52
53.390,84.46
53.406,84.92
53.421,84.18
53.437,82.5
53.453,80.01
53.468,76.68
53.484,72.6
53.500,68.17
53.515,64.08
53.531,61.21
53.546,60.14
53.562,60.69
53.578,61.97
53.593,62.55
53.609,61.11
53.625,56.99
53.640,50.35
53.656,42.06
53.671,33.18
53.687,24.5
53.703,16.34
53.718,8.68
53.734,1.44
53.750,-5.29
53.765,-11.19
53.781,-15.99
53.796,-19.7
53.812,-22.65
53.828,-25.5
53.843,-28.71
53.859,-32.24
53.875,-35.38
53.890,-36.99
53.906,-35.97
53.921,-31.86
53.937,-25.18
53.953,-17.27
53.968,-9.88
53.984,-4.5
54.000,-1.83
54.015,-1.7
54.031,-3.27
54.046,-5.5
54.062,-7.63
54.078,-9.36
54.093,-10.73
54.109,-11.91
54.125,-12.86
54.140,-13.31
54.156,-12.83
54.171,-11.02
54.187,-7.87
54.203,-3.62
54.218,1.23
54.234,6.29
54.250,11.31
54.265,16.24
54.281,20.95
54.296,25.21
54.312,28.66
54.328,30.91
54.343,31.73
54.359,31.22
54.375,29.77
54.390,27.94
54.406,26.22
54.421,24.99
54.437,24.48
54.453,24.89
54.468,26.35
54.484,28.87
54.500,32.25
54.515,36.03
54.531,39.64
54.546,42.58
54.562,44.64
54.578,45.95
54.593,46.86
54.609,47.67
54.625,48.52
54.640,49.4
54.656,50.33
54.671,51.66
54.687,53.93
54.703,57.69
54.718,62.99
54.734,69.25
54.750,75.3
54.765,79.89
54.781,82.17
54.796,82.04
54.812,80.12
54.828,77.27
54.843,74.11
54.859,70.73
54.875,66.76
54.890,61.78
54.906,55.71
54.921,49.05
54.937,42.68
54.953,37.48
54.968,33.84
54.984,31.39
55.000,29.17
55.015,26.01
55.031,21.11
55.046,14.37
55.062,6.37
55.078,-2.03
55.093,-10.05
55.109,-17.42
55.125,-24.35
55.140,-31.24
55.156,-38.42
55.171,-45.89
55.187,-53.21
55.203,-59.65
55.218,-64.46
55.234,-66.94
55.250,-66.75
55.265,-63.96
55.281,-59.06
55.296,-52.9
55.312,-46.41
55.328,-40.31
55.343,-34.9
55.359,-30.08
55.375,-25.31
55.390,-19.98
55.406,-13.4
55.421,-5.03
55.437,5.31
55.453,17.13
55.468,28.91
55.484,38.16
55.500,42.06
55.515,38.69
55.531,28.14
55.546,13.02
55.562,-2.14
55.578,-12.66
55.593,-15.45
55.609,-10.16
55.625,0.87
55.640,13.88
55.656,25.33
55.671,33.0
55.687,36.34
55.703,36.0
55.718,33.06
55.734,28.58
55.750,23.41
55.765,18.16
55.781,13.42
55.796,9.62
55.812,7.0
55.828,5.54
55.843,5.0
55.859,4.88
55.875,4.67
55.890,3.93
55.906,2.33
55.921,-0.11
55.937,-3.04
55.953,-5.94
55.968,-8.24
55.984,-9.68
56.000,-10.42
56.015,-10.99
56.031,-12.08
56.046,-14.24
56.062,-17.66
56.078,-22.13
56.093,-27.27
56.109,-32.66
56.125,-38.01
56.140,-43.11
56.156,-47.75
56.171,-51.58
56.187,-54.06
56.203,-54.5
56.218,-52.37
56.234,-47.41
56.250,-39.77
56.265,-30.12
56.281,-19.37
56.296,-8.57
56.312,1.36
56.328,9.8
56.343,16.56
56.359,21.75
56.375,25.75
56.390,29.07
56.406,32.13
56.421,35.17
56.437,38.12
56.453,40.61
56.468,42.26
56.484,42.85
56.500,42.57
56.515,42.02
56.531,42.02
56.546,43.25
56.562,45.99
56.578,49.97
56.593,54.53
56.609,58.81
56.625,61.98
56.640,63.44
56.656,62.82
56.671,59.94
56.687,54.82
56.703,47.69
56.718,38.83
56.734,28.56
56.750,17.25
56.765,5.1
56.781,-7.62
56.796,-20.6
56.812,-33.3
56.828,-45.05
56.843,-55.06
56.859,-62.73
56.875,-67.78
56.890,-70.29
56.906,-70.64
56.921,-69.29
56.937,-66.49
56.953,-62.16
56.968,-56.02
56.984,-47.77
57.000,-37.48
57.015,-25.81
57.031,-13.93
57.046,-3.23
57.062,5.13
57.078,10.56
57.093,13.13
57.109,13.43
57.125,12.19
57.140,10.09
57.156,7.58
57.171,4.92
57.187,2.24
57.203,-0.24
57.218,-2.43
57.234,-4.33
57.250,-6.05
57.265,-7.76
57.281,-9.51
57.296,-11.23
57.312,-12.72
57.328,-13.79
57.343,-14.31
57.359,-14.31
57.375,-13.9
57.390,-13.25
57.406,-12.47
57.421,-11.67
57.437,-11.04
57.453,-10.8
57.468,-11.25
57.484,-12.56
57.500,-14.62
57.515,-17.04
57.531,-19.3
57.546,-21.0
57.562,-22.07
57.578,-22.78
57.593,-23.45
57.609,-24.24
57.625,-25.08
57.640,-25.72
57.656,-26.16
57.671,-26.84
57.687,-28.59
57.703,-32.19
57.718,-37.89
57.734,-45.04
57.750,-52.12
57.765,-57.22
57.781,-58.65
57.796,-55.62
57.812,-48.32
57.828,-37.77
57.843,-25.36
57.859,-12.36
57.875,0.32
57.890,12.12
57.906,22.61
57.921,31.39
57.937,38.0
57.953,42.08
57.968,43.55
57.984,42.65
58.000,39.9
58.015,35.91
58.031,31.2
58.046,26.18
58.062,21.27
58.078,17.15
58.093,14.71
58.109,14.74
58.125,17.56
58.140,22.74
58.156,29.15
58.171,35.29
58.187,39.94
58.203,42.45
58.218,42.83
58.234,41.49
58.250,38.82
58.265,35.03
58.281,30.19
58.296,24.44
58.312,18.11
58.328,11.7
58.343,5.6
58.359,-0.08
58.375,-5.49
58.390,-10.83
58.406,-16.12
58.421,-21.07
58.437,-25.26
58.453,-28.29
58.468,-30.12
58.484,-31.06
58.500,-31.66
58.515,-32.46
58.531,-33.79
58.546,-35.66
58.562,-37.81
58.578,-39.82
58.593,-41.18
58.609,-41.44
58.625,-40.24
58.640,-37.4
58.656,-32.97
58.671,-27.2
58.687,-20.57
58.703,-13.66
58.718,-7.07
58.734,-1.22
58.750,3.58
58.765,7.22
58.781,9.74
58.796,11.26
58.812,11.95
58.828,12.02
58.843,11.71
58.859,11.15
58.875,10.51
58.890,9.85
58.906,9.24
58.921,8.73
58.937,8.35
58.953,8.2
58.968,8.33
58.984,8.72
59.000,9.31
59.015,9.96
59.031,10.53
59.046,10.86
59.062,10.78
59.078,10.2
59.093,9.13
59.109,7.7
59.125,6.11
59.140,4.48
59.156,2.83
59.171,1.06
59.187,-0.92
59.203,-3.09
59.218,-5.33
59.234,-7.42
59.250,-9.23
59.265,-10.8
59.281,-12.33
59.296,-14.11
59.312,-16.34
59.328,-19.01
59.343,-21.89
59.359,-24.58
59.375,-26.57
59.390,-27.37
59.406,-26.64
59.421,-24.24
59.437,-20.37
59.453,-15.46
59.468,-10.07
59.484,-4.73
59.500,0.14
59.515,4.41
59.531,8.0
59.546,10.96
59.562,13.32
59.578,15.11
59.593,16.39
59.609,17.32
59.625,18.0
59.640,18.47
59.656,18.68
59.671,18.5
59.687,17.86
59.703,16.78
59.718,15.45
59.734,14.11
59.750,13.03
59.765,12.36
59.781,12.09
59.796,12.12
59.812,12.26
59.828,12.35
59.843,12.26
59.859,11.9
59.875,11.19
59.890,10.09
59.906,8.64
59.921,6.9
59.937,4.99
59.953,3.0
59.968,0.98
59.984,-1.06
