timestamp,value
00.000,-5.77
00.015,-7.07
00.031,-8.18
00.046,-9.15
00.062,-10.31
00.078,-11.96
00.093,-14.3
00.109,-17.17
00.125,-20.12
00.140,-22.42
00.156,-23.44
00.171,-22.74
00.187,-20.2
00.203,-16.08
00.218,-10.78
00.234,-5.0
00.250,0.64
00.265,5.44
00.281,9.1
00.296,11.5
00.312,12.82
00.328,13.38
00.343,13.55
00.359,13.58
00.375,13.51
00.390,13.24
00.406,12.63
00.421,11.79
00.437,10.93
00.453,10.45
00.468,10.57
00.484,11.5
00.500,13.07
00.515,14.91
00.531,16.52
00.546,17.44
00.562,17.41
00.578,16.34
00.593,14.43
00.609,11.77
00.625,8.59
00.640,5.18
00.656,1.7
00.671,-1.6
00.687,-4.47
00.703,-6.79
00.718,-8.48
00.734,-9.59
00.750,-10.26
00.765,-10.75
00.781,-11.1
00.796,-11.39
00.812,-11.53
00.828,-11.41
00.843,-11.08
00.859,-10.54
00.875,-9.97
00.890,-9.54
00.906,-9.64
00.921,-10.44
00.937,-12.12
00.953,-14.45
00.968,-17.04
00.984,-19.24
01.000,-20.47
01.015,-20.31
01.031,-18.64
01.046,-15.79
01.062,-12.1
01.078,-8.13
01.093,-4.14
01.109,-0.34
01.125,3.26
01.140,6.57
01.156,9.46
01.171,11.88
01.187,13.74
01.203,15.2
01.218,16.34
01.234,17.34
01.250,18.19
01.265,18.79
01.281,19.05
01.296,18.94
01.312,18.6
01.328,18.18
01.343,17.9
01.359,17.85
01.375,18.05
01.390,18.31
01.406,18.25
01.421,17.59
01.437,16.22
01.453,14.27
01.468,12.06
01.484,9.98
01.500,8.21
01.515,6.82
01.531,5.77
01.546,4.8
01.562,3.7
01.578,2.4
01.593,0.83
01.609,-1.01
01.625,-2.97
01.640,-5.0
01.656,-7.13
01.671,-9.24
01.687,-11.31
01.703,-13.2
01.718,-14.75
01.734,-15.8
01.750,-16.28
01.765,-16.24
01.781,-16.01
01.796,-16.02
01.812,-16.55
01.828,-17.72
01.843,-19.3
01.859,-20.85
01.875,-21.74
01.890,-21.35
01.906,-19.16
01.921,-14.99
01.937,-9.02
01.953,-1.68
01.968,6.18
01.984,13.5
02.000,19.2
02.015,22.55
02.031,23.4
02.046,22.55
02.062,21.39
02.078,21.64
02.093,24.54
02.109,30.32
02.125,38.1
02.140,46.1
02.156,52.48
02.171,55.9
02.187,56.14
02.203,54.02
02.218,50.83
02.234,47.78
02.250,45.44
02.265,43.79
02.281,42.19
02.296,40.02
02.312,37.02
02.328,33.48
02.343,29.97
02.359,26.95
02.375,24.6
02.390,22.67
02.406,20.81
02.421,18.66
02.437,16.14
02.453,13.37
02.468,10.64
02.484,7.95
02.500,5.01
02.515,1.35
02.531,-3.28
02.546,-8.6
02.562,-13.91
02.578,-18.14
02.593,-20.55
02.609,-20.88
02.625,-19.43
02.640,-17.01
02.656,-14.5
02.671,-12.51
02.687,-11.25
02.703,-10.6
02.718,-10.25
02.734,-9.98
02.750,-9.79
02.765,-9.7
02.781,-9.79
02.796,-10.06
02.812,-10.56
02.828,-11.41
02.843,-12.76
02.859,-14.7
02.875,-17.16
02.890,-19.9
02.906,-22.5
02.921,-24.67
02.937,-26.18
02.953,-27.09
02.968,-27.67
02.984,-28.25
03.000,-28.92
03.015,-29.71
03.031,-30.6
03.046,-31.29
03.062,-31.7
03.078,-31.62
03.093,-30.83
03.109,-29.27
03.125,-26.83
03.140,-23.53
03.156,-19.54
03.171,-15.26
03.187,-10.84
03.203,-6.63
03.218,-2.66
03.234,1.09
03.250,4.65
03.265,7.99
03.281,10.84
03.296,12.78
03.312,13.26
03.328,11.99
03.343,8.8
03.359,3.91
03.375,-2.32
03.390,-9.3
03.406,-16.46
03.421,-23.25
03.437,-29.26
03.453,-34.19
03.468,-37.8
03.484,-39.99
03.500,-40.7
03.515,-40.04
03.531,-38.06
03.546,-34.79
03.562,-30.11
03.578,-23.93
03.593,-16.29
03.609,-7.63
03.625,1.34
03.640,9.72
03.656,16.65
03.671,21.47
03.687,23.95
03.703,24.28
03.718,22.93
03.734,20.59
03.750,17.79
03.765,14.95
03.781,12.31
03.796,9.95
03.812,7.85
03.828,5.89
03.843,3.95
03.859,2.1
03.875,0.53
03.890,-0.4
03.906,-0.51
03.921,0.25
03.937,1.59
03.953,3.16
03.968,4.4
03.984,4.9
04.000,4.53
04.015,3.28
04.031,1.47
04.046,-0.66
04.062,-2.8
04.078,-4.68
04.093,-6.1
04.109,-7.16
04.125,-8.05
04.140,-9.11
04.156,-10.7
04.171,-12.89
04.187,-15.54
04.203,-18.26
04.218,-20.5
04.234,-21.73
04.250,-21.69
04.265,-20.12
04.281,-16.98
04.296,-12.4
04.312,-6.54
04.328,0.41
04.343,8.14
04.359,16.25
04.375,24.21
04.390,31.24
04.406,36.68
04.421,39.8
04.437,40.08
04.453,37.46
04.468,32.33
04.484,25.57
04.500,18.25
04.515,11.52
04.531,6.11
04.546,2.21
04.562,-0.42
04.578,-2.27
04.593,-3.67
04.609,-4.79
04.625,-5.58
04.640,-5.94
04.656,-5.96
04.671,-5.92
04.687,-6.26
04.703,-7.5
04.718,-9.79
04.734,-12.82
04.750,-16.11
04.765,-18.99
04.781,-20.89
04.796,-21.43
04.812,-20.57
04.828,-18.37
04.843,-15.06
04.859,-10.88
04.875,-5.99
04.890,-0.68
04.906,4.81
04.921,10.29
04.937,15.7
04.953,21.25
04.968,27.13
04.984,33.52
05.000,40.1
05.015,46.14
05.031,50.82
05.046,53.26
05.062,52.91
05.078,49.63
05.093,43.99
05.109,36.94
05.125,29.72
05.140,23.55
05.156,19.02
05.171,16.23
05.187,14.73
05.203,13.66
05.218,12.06
05.234,9.27
05.250,4.97
05.265,-0.79
05.281,-7.7
05.296,-15.19
05.312,-22.62
05.328,-29.29
05.343,-34.66
05.359,-38.38
05.375,-40.4
05.390,-40.93
05.406,-40.25
05.421,-38.68
05.437,-36.55
05.453,-33.92
05.468,-30.92
05.484,-27.76
05.500,-24.65
05.515,-22.07
05.531,-20.49
05.546,-20.2
05.562,-21.12
05.578,-23.09
05.593,-25.51
05.609,-27.75
05.625,-29.45
05.640,-30.26
05.656,-30.19
05.671,-29.36
05.687,-27.89
05.703,-25.83
05.718,-23.4
05.734,-20.88
05.750,-18.6
05.765,-16.85
05.781,-15.61
05.796,-14.85
05.812,-14.23
05.828,-13.53
05.843,-12.68
05.859,-11.7
05.875,-10.86
05.890,-10.56
05.906,-11.2
05.921,-12.88
05.937,-15.51
05.953,-18.52
05.968,-21.09
05.984,-22.35
06.000,-21.69
06.015,-19.06
06.031,-15.04
06.046,-10.69
06.062,-6.91
06.078,-4.41
06.093,-3.17
06.109,-2.85
06.125,-2.85
06.140,-2.83
06.156,-2.82
06.171,-3.09
06.187,-3.93
06.203,-5.41
06.218,-7.31
06.234,-9.16
06.250,-10.59
06.265,-11.33
06.281,-11.38
06.296,-10.97
06.312,-10.27
06.328,-9.24
06.343,-7.88
06.359,-6.09
06.375,-3.85
06.390,-1.28
06.406,1.47
06.421,4.17
06.437,6.52
06.453,8.41
06.468,9.88
06.484,11.02
06.500,12.08
06.515,13.25
06.531,14.53
06.546,15.83
06.562,16.99
06.578,17.63
06.593,17.66
06.609,17.15
06.625,16.07
06.640,14.56
06.656,12.65
06.671,10.38
06.687,7.89
06.703,5.66
06.718,4.27
06.734,4.39
06.750,6.63
06.765,11.17
06.781,17.92
06.796,26.44
06.812,36.04
06.828,45.86
06.843,54.99
06.859,62.59
06.875,67.87
06.890,70.31
06.906,69.67
06.921,66.25
06.937,60.69
06.953,53.86
06.968,46.46
06.984,38.84
07.000,31.06
07.015,22.94
07.031,14.32
07.046,5.17
07.062,-4.24
07.078,-13.57
07.093,-22.45
07.109,-30.42
07.125,-37.12
07.140,-42.2
07.156,-45.38
07.171,-46.42
07.187,-45.4
07.203,-42.47
07.218,-37.98
07.234,-32.55
07.250,-26.68
07.265,-20.88
07.281,-15.57
07.296,-11.07
07.312,-7.5
07.328,-5.06
07.343,-3.81
07.359,-3.68
07.375,-4.59
07.390,-6.17
07.406,-8.05
07.421,-9.93
07.437,-11.57
07.453,-12.74
07.468,-13.28
07.484,-13.16
07.500,-12.33
07.515,-10.93
07.531,-9.18
07.546,-7.38
07.562,-5.71
07.578,-4.27
07.593,-2.76
07.609,-0.75
07.625,2.22
07.640,6.45
07.656,11.94
07.671,18.33
07.687,24.86
07.703,30.78
07.718,35.33
07.734,38.13
07.750,39.15
07.765,38.58
07.781,36.63
07.796,33.69
07.812,30.06
07.828,25.88
07.843,21.21
07.859,16.04
07.875,10.41
07.890,4.6
07.906,-0.86
07.921,-5.49
07.937,-8.81
07.953,-10.62
07.968,-11.08
07.984,-10.65
08.000,-9.83
08.015,-9.11
08.031,-8.79
08.046,-9.04
08.062,-9.91
08.078,-11.42
08.093,-13.44
08.109,-15.82
08.125,-18.28
08.140,-20.63
08.156,-22.7
08.171,-24.32
08.187,-25.54
08.203,-26.31
08.218,-26.63
08.234,-26.51
08.250,-26.04
08.265,-25.31
08.281,-24.77
08.296,-24.89
08.312,-25.93
08.328,-27.84
08.343,-30.21
08.359,-32.3
08.375,-33.36
08.390,-32.94
08.406,-30.76
08.421,-27.03
08.437,-22.18
08.453,-16.63
08.468,-10.83
08.484,-5.08
08.500,0.44
08.515,5.64
08.531,10.36
08.546,14.41
08.562,17.57
08.578,19.51
08.593,20.2
08.609,19.54
08.625,17.73
08.640,15.14
08.656,12.19
08.671,9.33
08.687,6.96
08.703,5.32
08.718,4.47
08.734,4.54
08.750,5.42
08.765,6.97
08.781,9.03
08.796,11.32
08.812,13.44
08.828,15.11
08.843,16.12
08.859,16.25
08.875,15.6
08.890,14.25
08.906,12.12
08.921,9.44
08.937,6.39
08.953,3.41
08.968,1.11
08.984,-0.18
09.000,-0.47
09.015,0.02
09.031,0.89
09.046,1.6
09.062,1.96
09.078,1.64
09.093,0.6
09.109,-1.33
09.125,-4.28
09.140,-8.28
09.156,-12.89
09.171,-17.23
09.187,-20.25
09.203,-20.99
09.218,-19.21
09.234,-15.39
09.250,-10.55
09.265,-5.87
09.281,-2.22
09.296,0.24
09.312,1.99
09.328,3.58
09.343,5.46
09.359,7.42
09.375,8.71
09.390,8.73
09.406,7.1
09.421,4.16
09.437,0.7
09.453,-2.27
09.468,-4.18
09.484,-4.86
09.500,-4.61
09.515,-4.11
09.531,-3.79
09.546,-4.09
09.562,-5.0
09.578,-6.52
09.593,-8.45
09.609,-10.75
09.625,-13.08
09.640,-15.15
09.656,-16.77
09.671,-17.78
09.687,-18.49
09.703,-19.11
09.718,-19.92
09.734,-20.78
09.750,-21.3
09.765,-20.77
09.781,-18.44
09.796,-13.84
09.812,-6.62
09.828,2.85
09.843,14.06
09.859,26.16
09.875,38.06
09.890,48.73
09.906,57.2
09.921,62.98
09.937,65.93
09.953,66.77
09.968,66.17
09.984,64.96
10.000,63.53
10.015,61.76
10.031,59.23
10.046,55.23
10.062,49.31
10.078,41.2
10.093,31.34
10.109,20.24
10.125,8.83
10.140,-1.98
10.156,-11.54
10.171,-19.21
10.187,-24.85
10.203,-28.39
10.218,-30.07
10.234,-30.04
10.250,-28.49
10.265,-25.54
10.281,-21.34
10.296,-16.21
10.312,-10.33
10.328,-4.26
10.343,1.69
10.359,7.16
10.375,11.84
10.390,15.52
10.406,18.05
10.421,19.23
10.437,18.7
10.453,16.49
10.468,12.51
10.484,7.07
10.500,0.67
10.515,-6.11
10.531,-12.69
10.546,-18.67
10.562,-23.84
10.578,-28.17
10.593,-31.48
10.609,-33.69
10.625,-34.58
10.640,-34.03
10.656,-32.19
10.671,-29.22
10.687,-25.49
10.703,-21.22
10.718,-16.66
10.734,-11.87
10.750,-7.08
10.765,-2.47
10.781,1.65
10.796,4.77
10.812,6.71
10.828,7.3
10.843,6.69
10.859,5.22
10.875,3.25
10.890,1.02
10.906,-1.15
10.921,-3.01
10.937,-4.45
10.953,-5.29
10.968,-5.47
10.984,-5.04
11.000,-3.95
11.015,-2.36
11.031,-0.44
11.046,1.81
11.062,4.32
11.078,7.1
11.093,10.11
11.109,12.99
11.125,15.47
11.140,17.24
11.156,18.02
11.171,17.69
11.187,16.37
11.203,14.33
11.218,11.8
11.234,9.22
11.250,6.65
11.265,4.14
11.281,1.69
11.296,-0.78
11.312,-3.27
11.328,-5.67
11.343,-7.81
11.359,-9.54
11.375,-10.57
11.390,-10.74
11.406,-9.99
11.421,-8.36
11.437,-6.1
11.453,-3.64
11.468,-1.48
11.484,-0.23
11.500,-0.13
11.515,-1.13
11.531,-2.79
11.546,-4.43
11.562,-5.35
11.578,-5.22
11.593,-3.98
11.609,-2.01
11.625,0.1
11.640,1.94
11.656,3.32
11.671,4.22
11.687,4.74
11.703,5.24
11.718,5.71
11.734,6.21
11.750,6.7
11.765,6.97
11.781,6.96
11.796,6.63
11.812,5.92
11.828,4.72
11.843,3.25
11.859,1.56
11.875,-0.34
11.890,-2.37
11.906,-4.75
11.921,-7.55
11.937,-10.94
11.953,-14.93
11.968,-19.51
11.984,-24.6
12.000,-29.98
12.015,-35.47
12.031,-40.49
12.046,-44.58
12.062,-47.07
12.078,-47.51
12.093,-45.65
12.109,-41.58
12.125,-35.77
12.140,-29.01
12.156,-22.24
12.171,-16.15
12.187,-11.42
12.203,-8.21
12.218,-6.46
12.234,-5.93
12.250,-6.08
12.265,-6.45
12.281,-6.67
12.296,-6.51
12.312,-5.75
12.328,-4.44
12.343,-2.52
12.359,0.07
12.375,3.22
12.390,6.94
12.406,11.03
12.421,15.33
12.437,19.47
12.453,23.11
12.468,25.86
12.484,27.42
12.500,27.74
12.515,26.81
12.531,25.02
12.546,22.75
12.562,20.58
12.578,18.9
12.593,17.93
12.609,17.6
12.625,17.76
12.640,18.33
12.656,19.2
12.671,20.33
12.687,21.72
12.703,23.3
12.718,24.82
12.734,26.03
12.750,26.65
12.765,26.4
12.781,25.29
12.796,23.4
12.812,20.81
12.828,17.74
12.843,14.42
12.859,11.03
12.875,7.75
12.890,4.71
12.906,1.96
12.921,-0.44
12.937,-2.6
12.953,-4.7
12.968,-6.81
12.984,-8.89
13.000,-10.8
13.015,-12.33
13.031,-13.35
13.046,-13.97
13.062,-14.38
13.078,-14.95
13.093,-15.87
13.109,-17.13
13.125,-18.55
13.140,-19.76
13.156,-20.43
13.171,-20.24
13.187,-19.05
13.203,-16.7
13.218,-13.37
13.234,-9.38
13.250,-5.14
13.265,-1.18
13.281,2.11
13.296,4.65
13.312,6.55
13.328,8.05
13.343,9.44
13.359,10.88
13.375,12.36
13.390,13.78
13.406,14.85
13.421,15.36
13.437,15.22
13.453,14.5
13.468,13.44
13.484,12.36
13.500,11.63
13.515,11.4
13.531,11.86
13.546,12.67
13.562,13.58
13.578,14.08
13.593,13.96
13.609,13.16
13.625,11.91
13.640,10.47
13.656,8.96
13.671,7.38
13.687,5.54
13.703,3.5
13.718,1.37
13.734,-0.55
13.750,-2.01
13.765,-2.74
13.781,-2.89
13.796,-2.74
13.812,-2.6
13.828,-2.66
13.843,-2.98
13.859,-3.39
13.875,-3.87
13.890,-4.47
13.906,-5.32
13.921,-6.54
13.937,-7.97
13.953,-9.26
13.968,-9.83
13.984,-9.33
14.000,-7.56
14.015,-4.78
14.031,-1.39
14.046,2.13
14.062,5.46
14.078,8.44
14.093,11.06
14.109,13.36
14.125,15.37
14.140,17.05
14.156,18.39
14.171,19.33
14.187,19.85
14.203,19.96
14.218,19.7
14.234,19.12
14.250,18.17
14.265,16.99
14.281,15.62
14.296,14.12
14.312,12.64
14.328,11.31
14.343,10.22
14.359,9.36
14.375,8.75
14.390,8.34
14.406,8.12
14.421,7.97
14.437,7.71
14.453,7.21
14.468,6.4
14.484,5.17
14.500,3.42
14.515,1.22
14.531,-1.42
14.546,-4.16
14.562,-6.69
14.578,-8.78
14.593,-10.21
14.609,-11.0
14.625,-11.27
14.640,-11.35
14.656,-11.37
14.671,-11.51
14.687,-11.72
14.703,-11.96
14.718,-12.12
14.734,-12.06
14.750,-11.67
14.765,-10.84
14.781,-9.4
14.796,-7.37
14.812,-4.87
14.828,-2.13
14.843,0.44
14.859,2.5
14.875,3.91
14.890,4.62
14.906,4.76
14.921,4.62
14.937,4.29
14.953,3.81
14.968,3.26
14.984,2.67
15.000,1.98
15.015,1.21
15.031,0.04
15.046,-1.83
15.062,-4.49
15.078,-7.93
15.093,-11.86
15.109,-15.8
15.125,-19.06
15.140,-21.19
15.156,-21.72
15.171,-20.71
15.187,-18.38
15.203,-15.06
15.218,-11.18
15.234,-7.15
15.250,-3.38
15.265,-0.2
15.281,2.05
15.296,3.36
15.312,3.59
15.328,2.91
15.343,1.48
15.359,-0.59
15.375,-3.21
15.390,-6.33
15.406,-9.91
15.421,-13.83
15.437,-17.8
15.453,-21.52
15.468,-24.68
15.484,-27.01
15.500,-28.28
15.515,-28.29
15.531,-26.83
15.546,-24.0
15.562,-19.99
15.578,-15.21
15.593,-10.16
15.609,-5.47
15.625,-1.52
15.640,1.45
15.656,3.58
15.671,5.32
15.687,7.05
15.703,9.01
15.718,11.27
15.734,13.63
15.750,15.69
15.765,17.43
15.781,18.64
15.796,19.43
15.812,19.98
15.828,20.42
15.843,20.85
15.859,21.28
15.875,21.65
15.890,21.76
15.906,21.67
15.921,21.23
15.937,20.43
15.953,19.35
15.968,18.07
15.984,16.67
16.000,15.19
16.015,13.58
16.031,11.94
16.046,10.37
16.062,8.98
16.078,7.9
16.093,7.07
16.109,6.32
16.125,5.51
16.140,4.49
16.156,3.11
16.171,1.52
16.187,-0.11
16.203,-1.73
16.218,-3.11
16.234,-4.23
16.250,-5.27
16.265,-6.14
16.281,-6.96
16.296,-7.81
16.312,-8.73
16.328,-9.7
16.343,-10.79
16.359,-11.91
16.375,-12.85
16.390,-13.46
16.406,-13.39
16.421,-12.42
16.437,-10.53
16.453,-7.81
16.468,-4.55
16.484,-1.18
16.500,2.01
16.515,4.59
16.531,6.4
16.546,7.5
16.562,7.98
16.578,8.09
16.593,8.11
16.609,8.08
16.625,8.03
16.640,7.97
16.656,7.74
16.671,7.21
16.687,6.4
16.703,5.21
16.718,3.78
16.734,2.36
16.750,1.02
16.765,0.04
16.781,-0.34
16.796,-0.03
16.812,0.82
16.828,2.02
16.843,3.17
16.859,3.87
16.875,3.98
16.890,3.35
16.906,2.16
16.921,0.68
16.937,-0.87
16.953,-2.33
16.968,-3.58
16.984,-4.69
17.000,-5.61
17.015,-6.2
17.031,-6.45
17.046,-6.25
17.062,-5.53
17.078,-4.45
17.093,-3.15
17.109,-1.77
17.125,-0.58
17.140,0.17
17.156,0.31
17.171,-0.38
17.187,-2.06
17.203,-4.66
17.218,-7.97
17.234,-11.51
17.250,-14.58
17.265,-16.62
17.281,-17.27
17.296,-16.45
17.312,-14.47
17.328,-11.81
17.343,-8.86
17.359,-5.94
17.375,-3.22
17.390,-0.72
17.406,1.41
17.421,2.99
17.437,4.0
17.453,4.42
17.468,4.31
17.484,3.94
17.500,3.53
17.515,3.29
17.531,3.44
17.546,4.01
17.562,4.91
17.578,6.03
17.593,7.11
17.609,7.92
17.625,8.42
17.640,8.61
17.656,8.71
17.671,9.11
17.687,10.04
17.703,11.56
17.718,13.57
17.734,15.7
17.750,17.43
17.765,18.34
17.781,17.98
17.796,16.2
17.812,13.2
17.828,9.4
17.843,5.45
17.859,2.19
17.875,0.25
17.890,0.05
17.906,1.69
17.921,4.67
17.937,8.23
17.953,11.38
17.968,13.09
17.984,12.41
18.000,9.01
18.015,2.99
18.031,-4.85
18.046,-13.23
18.062,-20.96
18.078,-27.07
18.093,-31.33
18.109,-34.06
18.125,-35.9
18.140,-37.24
18.156,-38.28
18.171,-38.54
18.187,-37.43
18.203,-34.51
18.218,-29.74
18.234,-23.51
18.250,-16.55
18.265,-9.67
18.281,-3.26
18.296,2.32
18.312,7.1
18.328,11.07
18.343,14.21
18.359,16.46
18.375,17.76
18.390,18.09
18.406,17.5
18.421,16.19
18.437,14.34
18.453,12.29
18.468,10.42
18.484,8.85
18.500,7.8
18.515,7.23
18.531,7.01
18.546,7.08
18.562,7.29
18.578,7.61
18.593,7.99
18.609,8.43
18.625,8.62
18.640,8.36
18.656,7.39
18.671,5.64
18.687,3.33
18.703,0.8
18.718,-1.52
18.734,-3.39
18.750,-4.76
18.765,-6.02
18.781,-7.53
18.796,-9.58
18.812,-11.97
18.828,-14.14
18.843,-15.44
18.859,-15.35
18.875,-13.91
18.890,-11.45
18.906,-8.71
18.921,-6.29
18.937,-4.76
18.953,-4.2
18.968,-4.15
18.984,-4.32
19.000,-4.2
19.015,-3.59
19.031,-2.49
19.046,-1.08
19.062,0.56
19.078,2.22
19.093,3.65
19.109,4.75
19.125,5.36
19.140,5.43
19.156,5.01
19.171,4.25
19.187,3.4
19.203,2.77
19.218,2.57
19.234,2.82
19.250,3.49
19.265,4.4
19.281,5.48
19.296,6.53
19.312,7.41
19.328,8.15
19.343,8.79
19.359,9.56
19.375,10.4
19.390,11.14
19.406,11.31
19.421,10.61
19.437,8.7
19.453,5.61
19.468,1.73
19.484,-2.55
19.500,-6.63
19.515,-10.13
19.531,-12.83
19.546,-14.78
19.562,-16.07
19.578,-16.82
19.593,-17.04
19.609,-16.79
19.625,-16.22
19.640,-15.39
19.656,-14.5
19.671,-13.74
19.687,-13.16
19.703,-12.61
19.718,-11.77
19.734,-10.41
19.750,-8.43
19.765,-6.21
19.781,-4.16
19.796,-2.66
19.812,-1.92
19.828,-1.7
19.843,-1.65
19.859,-1.14
19.875,0.14
19.890,2.17
19.906,4.54
19.921,6.73
19.937,8.36
19.953,9.3
19.968,9.92
19.984,10.62
20.000,11.85
20.015,13.66
20.031,15.79
20.046,17.69
20.062,18.73
20.078,18.52
20.093,16.94
20.109,14.44
20.125,11.43
20.140,8.56
20.156,6.17
20.171,4.35
20.187,3.0
20.203,1.86
20.218,0.81
20.234,-0.24
20.250,-1.08
20.265,-1.72
20.281,-2.16
20.296,-2.53
20.312,-3.0
20.328,-3.64
20.343,-4.44
20.359,-5.21
20.375,-5.81
20.390,-5.92
20.406,-5.58
20.421,-5.02
20.437,-4.57
20.453,-4.59
20.468,-5.24
20.484,-6.35
20.500,-7.29
20.515,-7.46
20.531,-6.25
20.546,-3.43
20.562,0.75
20.578,5.78
20.593,10.96
20.609,15.76
20.625,19.76
20.640,22.95
20.656,25.25
20.671,26.51
20.687,26.49
20.703,25.05
20.718,22.23
20.734,18.31
20.750,13.99
20.765,9.89
20.781,6.63
20.796,4.63
20.812,4.02
20.828,4.63
20.843,6.28
20.859,8.67
20.875,11.29
20.890,13.83
20.906,15.9
20.921,17.2
20.937,17.6
20.953,17.09
20.968,15.64
20.984,13.24
21.000,10.12
21.015,6.3
21.031,2.07
21.046,-2.29
21.062,-6.6
21.078,-10.69
21.093,-14.4
21.109,-17.64
21.125,-20.31
21.140,-22.12
21.156,-22.85
21.171,-22.31
21.187,-20.52
21.203,-17.72
21.218,-14.45
21.234,-11.26
21.250,-8.69
21.265,-7.12
21.281,-6.83
21.296,-7.91
21.312,-10.15
21.328,-13.16
21.343,-16.24
21.359,-18.82
21.375,-20.47
21.390,-21.05
21.406,-20.71
21.421,-19.88
21.437,-19.13
21.453,-18.79
21.468,-18.92
21.484,-19.31
21.500,-19.59
21.515,-19.61
21.531,-19.45
21.546,-19.41
21.562,-19.81
21.578,-20.83
21.593,-22.11
21.609,-23.05
21.625,-22.82
21.640,-20.71
21.656,-16.4
21.671,-10.23
21.687,-2.98
21.703,4.44
21.718,11.18
21.734,16.8
21.750,21.08
21.765,23.97
21.781,25.57
21.796,26.08
21.812,25.59
21.828,24.33
21.843,22.64
21.859,20.83
21.875,19.11
21.890,17.54
21.906,15.92
21.921,13.94
21.937,11.51
21.953,8.52
21.968,5.19
21.984,1.78
22.000,-1.41
22.015,-4.22
22.031,-6.56
22.046,-8.4
22.062,-9.82
22.078,-10.77
22.093,-11.33
22.109,-11.45
22.125,-11.24
22.140,-10.68
22.156,-9.7
22.171,-8.21
22.187,-6.03
22.203,-3.16
22.218,0.31
22.234,4.09
22.250,7.95
22.265,11.46
22.281,14.15
22.296,15.84
22.312,16.47
22.328,16.38
22.343,16.06
22.359,16.05
22.375,16.57
22.390,17.74
22.406,19.35
22.421,20.94
22.437,22.18
22.453,22.84
22.468,22.95
22.484,22.8
22.500,22.7
22.515,22.87
22.531,23.21
22.546,23.57
22.562,23.53
22.578,22.94
22.593,21.8
22.609,20.38
22.625,19.01
22.640,17.82
22.656,16.76
22.671,15.45
22.687,13.68
22.703,11.07
22.718,7.65
22.734,3.39
22.750,-1.53
22.765,-6.92
22.781,-12.59
22.796,-18.37
22.812,-24.11
22.828,-29.47
22.843,-34.15
22.859,-37.78
22.875,-40.38
22.890,-42.09
22.906,-43.31
22.921,-44.32
22.937,-45.38
22.953,-46.35
22.968,-46.79
22.984,-46.15
23.000,-43.84
23.015,-39.79
23.031,-34.33
23.046,-28.29
23.062,-22.56
23.078,-17.88
23.093,-14.6
23.109,-12.73
23.125,-12.02
23.140,-12.01
23.156,-12.35
23.171,-12.91
23.187,-13.54
23.203,-14.15
23.218,-14.52
23.234,-14.31
23.250,-13.21
23.265,-11.18
23.281,-8.29
23.296,-4.76
23.312,-0.99
23.328,2.71
23.343,6.21
23.359,9.45
23.375,12.44
23.390,15.27
23.406,17.72
23.421,19.51
23.437,20.55
23.453,20.75
23.468,20.37
23.484,19.74
23.500,19.21
23.515,18.97
23.531,19.15
23.546,19.53
23.562,19.85
23.578,19.82
23.593,19.24
23.609,18.15
23.625,16.59
23.640,14.71
23.656,12.68
23.671,10.55
23.687,8.16
23.703,5.48
23.718,2.35
23.734,-1.29
23.750,-5.22
23.765,-9.2
23.781,-12.86
23.796,-15.74
23.812,-17.45
23.828,-17.95
23.843,-17.01
23.859,-14.63
23.875,-11.14
23.890,-6.89
23.906,-2.46
23.921,1.53
23.937,4.62
23.953,6.62
23.968,7.48
23.984,7.57
24.000,7.26
24.015,6.74
24.031,6.08
24.046,5.33
24.062,4.55
24.078,3.86
24.093,3.49
24.109,3.57
24.125,4.38
24.140,5.96
24.156,8.1
24.171,10.57
24.187,12.86
24.203,14.62
24.218,15.58
24.234,15.61
24.250,14.82
24.265,13.37
24.281,11.54
24.296,9.34
24.312,6.99
24.328,4.58
24.343,2.29
24.359,0.32
24.375,-1.22
24.390,-2.27
24.406,-3.06
24.421,-3.68
24.437,-4.29
24.453,-4.82
24.468,-5.18
24.484,-5.34
24.500,-5.34
24.515,-5.47
24.531,-6.03
24.546,-7.36
24.562,-9.51
24.578,-12.41
24.593,-15.62
24.609,-18.72
24.625,-21.27
24.640,-22.75
24.656,-22.82
24.671,-21.31
24.687,-18.37
24.703,-14.41
24.718,-9.95
24.734,-5.47
24.750,-1.22
24.765,2.6
24.781,5.97
24.796,8.91
24.812,11.31
24.828,12.94
24.843,13.47
24.859,12.9
24.875,11.27
24.890,8.91
24.906,6.16
24.921,3.33
24.937,0.57
24.953,-1.98
24.968,-4.11
24.984,-5.56
25.000,-5.88
25.015,-4.81
25.031,-2.38
25.046,0.99
25.062,4.53
25.078,7.43
25.093,9.13
25.109,9.53
25.125,8.94
25.140,7.96
25.156,7.06
25.171,6.51
25.187,6.35
25.203,6.25
25.218,6.07
25.234,5.61
25.250,4.85
25.265,3.85
25.281,2.62
25.296,1.08
25.312,-0.87
25.328,-3.21
25.343,-6.16
25.359,-9.77
25.375,-14.11
25.390,-19.26
25.406,-25.0
25.421,-30.83
25.437,-35.91
25.453,-39.28
25.468,-40.02
25.484,-37.83
25.500,-32.95
25.515,-26.12
25.531,-18.48
25.546,-10.91
25.562,-4.01
25.578,2.04
25.593,7.12
25.609,11.24
25.625,14.28
25.640,16.07
25.656,16.5
25.671,15.67
25.687,13.95
25.703,11.92
25.718,10.32
25.734,9.69
25.750,10.04
25.765,11.04
25.781,12.19
25.796,12.88
25.812,12.9
25.828,12.47
25.843,12.03
25.859,12.02
25.875,12.8
25.890,14.11
25.906,15.52
25.921,16.52
25.937,16.68
25.953,15.86
25.968,14.28
25.984,12.2
26.000,9.96
26.015,7.87
26.031,6.05
26.046,4.48
26.062,3.05
26.078,1.74
26.093,0.48
26.109,-0.68
26.125,-1.82
26.140,-2.99
26.156,-4.28
26.171,-5.66
26.187,-7.08
26.203,-8.46
26.218,-9.81
26.234,-11.05
26.250,-12.11
26.265,-13.01
26.281,-13.53
26.296,-13.39
26.312,-12.35
26.328,-10.37
26.343,-7.57
26.359,-4.47
26.375,-1.6
26.390,0.79
26.406,2.59
26.421,4.07
26.437,5.59
26.453,7.3
26.468,9.16
26.484,10.96
26.500,12.32
26.515,12.97
26.531,12.93
26.546,12.56
26.562,12.28
26.578,12.58
26.593,13.57
26.609,15.13
26.625,16.97
26.640,18.67
26.656,19.92
26.671,20.56
26.687,20.68
26.703,20.5
26.718,20.32
26.734,20.31
26.750,20.36
26.765,20.37
26.781,19.91
26.796,18.67
26.812,16.58
26.828,13.62
26.843,10.05
26.859,6.29
26.875,2.66
26.890,-0.79
26.906,-4.02
26.921,-7.16
26.937,-10.19
26.953,-13.02
26.968,-15.53
26.984,-17.76
27.000,-19.57
27.015,-20.98
27.031,-22.23
27.046,-23.48
27.062,-24.81
27.078,-26.02
27.093,-26.61
27.109,-26.05
27.125,-23.96
27.140,-20.27
27.156,-15.3
27.171,-9.77
27.187,-4.41
27.203,0.19
27.218,3.66
27.234,6.16
27.250,7.81
27.265,8.78
27.281,9.15
27.296,8.79
27.312,7.65
27.328,5.92
27.343,3.93
27.359,2.23
27.375,1.48
27.390,2.07
27.406,3.93
27.421,6.74
27.437,9.87
27.453,12.89
27.468,15.75
27.484,18.24
27.500,20.26
27.515,21.46
27.531,21.45
27.546,19.77
27.562,16.42
27.578,11.8
27.593,6.51
27.609,1.34
27.625,-3.31
27.640,-7.37
27.656,-10.99
27.671,-14.31
27.687,-17.32
27.703,-19.68
27.718,-21.07
27.734,-21.21
27.750,-20.15
27.765,-18.12
27.781,-15.69
27.796,-13.37
27.812,-11.71
27.828,-11.07
27.843,-11.46
27.859,-12.84
27.875,-14.68
27.890,-16.4
27.906,-17.32
27.921,-16.92
27.937,-14.97
27.953,-11.74
27.968,-7.71
27.984,-3.38
28.000,0.69
28.015,4.17
28.031,7.09
28.046,9.54
28.062,11.67
28.078,13.65
28.093,15.4
28.109,16.69
28.125,17.39
28.140,17.39
28.156,16.71
28.171,15.59
28.187,14.32
28.203,13.09
28.218,12.07
28.234,11.3
28.250,10.68
28.265,10.2
28.281,9.78
28.296,9.38
28.312,8.92
28.328,8.23
28.343,7.24
28.359,6.01
28.375,4.66
28.390,3.38
28.406,2.34
28.421,1.5
28.437,0.68
28.453,-0.29
28.468,-1.64
28.484,-3.31
28.500,-5.05
28.515,-6.7
28.531,-8.02
28.546,-8.92
28.562,-9.49
28.578,-9.87
28.593,-10.12
28.609,-10.53
28.625,-11.29
28.640,-12.46
28.656,-14.07
28.671,-15.85
28.687,-17.21
28.703,-17.7
28.718,-16.91
28.734,-14.75
28.750,-11.61
28.765,-8.03
28.781,-4.5
28.796,-1.46
28.812,0.96
28.828,2.84
28.843,4.24
28.859,5.32
28.875,6.17
28.890,6.83
28.906,7.29
28.921,7.69
28.937,8.12
28.953,8.72
28.968,9.47
28.984,10.27
29.000,10.97
29.015,11.42
29.031,11.54
29.046,11.26
29.062,10.65
29.078,9.75
29.093,8.77
29.109,7.83
29.125,7.04
29.140,6.4
29.156,5.88
29.171,5.35
29.187,4.68
29.203,3.74
29.218,2.47
29.234,0.97
29.250,-0.7
29.265,-2.43
29.281,-4.16
29.296,-5.86
29.312,-7.55
29.328,-9.17
29.343,-10.76
29.359,-12.32
29.375,-13.75
29.390,-15.08
29.406,-16.37
29.421,-17.72
29.437,-19.31
29.453,-21.13
29.468,-22.97
29.484,-24.38
29.500,-24.89
29.515,-24.1
29.531,-21.99
29.546,-18.79
29.562,-14.97
29.578,-11.04
29.593,-7.28
29.609,-3.86
29.625,-0.67
29.640,2.43
29.656,5.51
29.671,8.66
29.687,11.87
29.703,15.17
29.718,18.43
29.734,21.64
29.750,24.61
29.765,27.07
29.781,28.92
29.796,29.96
29.812,30.06
29.828,29.36
29.843,27.99
29.859,25.97
29.875,23.45
29.890,20.34
29.906,16.41
29.921,11.67
29.937,6.24
29.953,0.52
29.968,-4.75
29.984,-8.91
30.000,-11.37
30.015,-11.82
30.031,-10.46
30.046,-7.97
30.062,-5.22
30.078,-3.1
30.093,-2.09
30.109,-2.24
30.125,-3.5
30.140,-5.56
30.156,-8.27
30.171,-11.34
30.187,-14.56
30.203,-17.49
30.218,-19.66
30.234,-20.62
30.250,-20.1
30.265,-18.33
30.281,-15.67
30.296,-12.68
30.312,-9.76
30.328,-7.03
30.343,-4.51
30.359,-2.12
30.375,0.15
30.390,2.2
30.406,3.61
30.421,4.0
30.437,3.2
30.453,1.21
30.468,-1.45
30.484,-4.21
30.500,-6.65
30.515,-8.53
30.531,-9.81
30.546,-10.64
30.562,-11.17
30.578,-11.32
30.593,-11.1
30.609,-10.2
30.625,-8.59
30.640,-6.23
30.656,-3.36
30.671,-0.21
30.687,2.98
30.703,5.89
30.718,8.34
30.734,10.03
30.750,11.03
30.765,11.3
30.781,11.06
30.796,10.46
30.812,9.72
30.828,8.98
30.843,8.29
30.859,7.57
30.875,6.59
30.890,5.22
30.906,3.39
30.921,1.21
30.937,-0.98
30.953,-2.87
30.968,-4.38
30.984,-5.53
31.000,-6.56
31.015,-7.7
31.031,-9.07
31.046,-10.49
31.062,-11.76
31.078,-12.43
31.093,-12.29
31.109,-11.17
31.125,-9.12
31.140,-6.32
31.156,-3.06
31.171,0.26
31.187,3.32
31.203,5.73
31.218,7.44
31.234,8.33
31.250,8.62
31.265,8.65
31.281,8.75
31.296,9.15
31.312,9.88
31.328,10.72
31.343,11.37
31.359,11.68
31.375,11.49
31.390,10.92
31.406,10.23
31.421,9.7
31.437,9.47
31.453,9.63
31.468,9.91
31.484,10.19
31.500,10.41
31.515,10.62
31.531,11.06
31.546,11.74
31.562,12.53
31.578,13.22
31.593,13.54
31.609,13.25
31.625,12.36
31.640,11.01
31.656,9.29
31.671,7.28
31.687,4.86
31.703,1.76
31.718,-2.05
31.734,-6.52
31.750,-11.43
31.765,-16.47
31.781,-21.43
31.796,-26.16
31.812,-30.46
31.828,-34.19
31.843,-37.28
31.859,-39.32
31.875,-39.99
31.890,-39.03
31.906,-36.35
31.921,-32.16
31.937,-27.01
31.953,-21.47
31.968,-16.14
31.984,-11.65
32.000,-8.24
32.015,-5.94
32.031,-4.46
32.046,-3.28
32.062,-1.99
32.078,-0.31
32.093,1.81
32.109,4.21
32.125,6.55
32.140,8.53
32.156,9.9
32.171,10.83
32.187,11.49
32.203,12.16
32.218,12.97
32.234,13.84
32.250,14.54
32.265,14.91
32.281,14.95
32.296,14.77
32.312,14.68
32.328,14.97
32.343,15.63
32.359,16.55
32.375,17.4
32.390,17.86
32.406,17.63
32.421,16.61
32.437,14.91
32.453,12.68
32.468,10.12
32.484,7.36
32.500,4.48
32.515,1.54
32.531,-1.53
32.546,-4.69
32.562,-7.97
32.578,-11.27
32.593,-14.36
32.609,-17.01
32.625,-18.97
32.640,-19.91
32.656,-19.66
32.671,-18.16
32.687,-15.4
32.703,-11.6
32.718,-7.0
32.734,-1.96
32.750,3.11
32.765,7.62
32.781,11.22
32.796,13.68
32.812,15.02
32.828,15.59
32.843,15.71
32.859,15.7
32.875,15.6
32.890,15.29
32.906,14.53
32.921,13.08
32.937,10.94
32.953,8.32
32.968,5.55
32.984,2.92
33.000,0.58
33.015,-1.42
33.031,-3.12
33.046,-4.54
33.062,-5.54
33.078,-6.13
33.093,-6.21
33.109,-5.81
33.125,-5.02
33.140,-4.06
33.156,-3.11
33.171,-2.4
33.187,-2.11
33.203,-2.24
33.218,-2.94
33.234,-4.14
33.250,-5.74
33.265,-7.53
33.281,-9.3
33.296,-10.87
33.312,-12.07
33.328,-13.02
33.343,-13.66
33.359,-14.24
33.375,-14.79
33.390,-15.37
33.406,-15.9
33.421,-16.34
33.437,-16.53
33.453,-16.25
33.468,-15.32
33.484,-13.54
33.500,-10.93
33.515,-7.64
33.531,-3.87
33.546,-0.01
33.562,3.67
33.578,7.01
33.593,9.84
33.609,12.09
33.625,13.68
33.640,14.41
33.656,14.08
33.671,12.69
33.687,10.29
33.703,7.27
33.718,4.25
33.734,1.82
33.750,0.28
33.765,-0.32
33.781,-0.24
33.796,0.06
33.812,0.35
33.828,0.42
33.843,0.31
33.859,0.05
33.875,-0.27
33.890,-0.48
33.906,-0.47
33.921,-0.11
33.937,0.69
33.953,1.79
33.968,3.01
33.984,4.0
34.000,4.5
34.015,4.32
34.031,3.5
34.046,2.24
34.062,0.78
34.078,-0.55
34.093,-1.68
34.109,-2.62
34.125,-3.45
34.140,-4.3
34.156,-5.17
34.171,-5.96
34.187,-6.29
34.203,-5.99
34.218,-4.81
34.234,-2.63
34.250,0.41
34.265,4.13
34.281,8.14
34.296,12.02
34.312,15.16
34.328,17.39
34.343,18.49
34.359,18.62
34.375,18.09
34.390,17.22
34.406,16.23
34.421,15.13
34.437,13.94
34.453,12.51
34.468,10.99
34.484,9.53
34.500,8.37
34.515,7.67
34.531,7.45
34.546,7.46
34.562,7.29
34.578,6.7
34.593,5.5
34.609,3.87
34.625,2.17
34.640,0.69
34.656,-0.34
34.671,-1.02
34.687,-1.44
34.703,-1.87
34.718,-2.45
34.734,-3.16
34.750,-3.79
34.765,-4.17
34.781,-4.3
34.796,-4.29
34.812,-4.52
34.828,-5.2
34.843,-6.5
34.859,-8.33
34.875,-10.33
34.890,-12.06
34.906,-13.33
34.921,-13.99
34.937,-14.0
34.953,-13.48
34.968,-12.4
34.984,-10.62
35.000,-8.14
35.015,-5.02
35.031,-1.46
35.046,2.03
35.062,5.03
35.078,7.16
35.093,8.31
35.109,8.59
35.125,8.33
35.140,7.93
35.156,7.68
35.171,7.63
35.187,7.61
35.203,7.5
35.218,7.22
35.234,6.81
35.250,6.51
35.265,6.52
35.281,7.0
35.296,7.82
35.312,8.65
35.328,9.11
35.343,8.85
35.359,7.85
35.375,6.17
35.390,4.23
35.406,2.26
35.421,0.43
35.437,-1.19
35.453,-2.66
35.468,-4.12
35.484,-5.58
35.500,-7.0
35.515,-8.41
35.531,-9.61
35.546,-10.56
35.562,-11.25
35.578,-11.8
35.593,-12.17
35.609,-12.51
35.625,-12.91
35.640,-13.5
35.656,-14.32
35.671,-15.2
35.687,-15.91
35.703,-16.08
35.718,-15.43
35.734,-13.76
35.750,-11.12
35.765,-7.65
35.781,-3.65
35.796,0.5
35.812,4.48
35.828,8.03
35.843,10.88
35.859,12.94
35.875,14.25
35.890,14.92
35.906,15.19
35.921,15.17
35.937,14.89
35.953,14.29
35.968,13.43
35.984,12.4
36.000,11.3
36.015,10.26
36.031,9.26
36.046,8.39
36.062,7.6
36.078,6.93
36.093,6.46
36.109,6.3
36.125,6.53
36.140,7.06
36.156,7.68
36.171,8.04
36.187,7.92
36.203,7.15
36.218,5.75
36.234,3.97
36.250,2.01
36.265,0.15
36.281,-1.49
36.296,-2.89
36.312,-4.11
36.328,-5.19
36.343,-6.06
36.359,-6.71
36.375,-7.06
36.390,-7.17
36.406,-7.22
36.421,-7.42
36.437,-7.86
36.453,-8.57
36.468,-9.35
36.484,-9.82
36.500,-9.65
36.515,-8.6
36.531,-6.68
36.546,-4.03
36.562,-0.95
36.578,2.3
36.593,5.4
36.609,8.1
36.625,10.22
36.640,11.71
36.656,12.66
36.671,13.11
36.687,13.31
36.703,13.32
36.718,13.23
36.734,13.03
36.750,12.77
36.765,12.35
36.781,11.76
36.796,10.97
36.812,10.0
36.828,8.94
36.843,7.84
36.859,6.78
36.875,5.69
36.890,4.65
36.906,3.54
36.921,2.31
36.937,0.95
36.953,-0.44
36.968,-1.73
36.984,-2.82
37.000,-3.63
37.015,-4.24
37.031,-4.66
37.046,-5.02
37.062,-5.42
37.078,-5.93
37.093,-6.61
37.109,-7.47
37.125,-8.47
37.140,-9.53
37.156,-10.58
37.171,-11.47
37.187,-12.12
37.203,-12.51
37.218,-12.68
37.234,-12.81
37.250,-12.89
37.265,-12.91
37.281,-12.68
37.296,-11.98
37.312,-10.63
37.328,-8.67
37.343,-6.24
37.359,-3.66
37.375,-1.32
37.390,0.62
37.406,1.99
37.421,2.84
37.437,3.33
37.453,3.61
37.468,3.73
37.484,3.87
37.500,4.03
37.515,4.12
37.531,4.24
37.546,4.32
37.562,4.41
37.578,4.66
37.593,5.15
37.609,5.87
37.625,6.76
37.640,7.71
37.656,8.46
37.671,8.91
37.687,8.89
37.703,8.38
37.718,7.39
37.734,6.06
37.750,4.6
37.765,3.17
37.781,1.9
37.796,0.74
37.812,-0.39
37.828,-1.6
37.843,-2.9
37.859,-4.26
37.875,-5.56
37.890,-6.62
37.906,-7.3
37.921,-7.56
37.937,-7.61
37.953,-7.64
37.968,-7.9
37.984,-8.56
38.000,-9.61
38.015,-10.84
38.031,-11.84
38.046,-12.13
38.062,-11.28
38.078,-9.25
38.093,-6.24
38.109,-2.69
38.125,0.93
38.140,4.25
38.156,7.09
38.171,9.49
38.187,11.39
38.203,12.88
38.218,13.76
38.234,13.98
38.250,13.59
38.265,12.63
38.281,11.27
38.296,9.68
38.312,8.09
38.328,6.64
38.343,5.58
38.359,4.92
38.375,4.67
38.390,4.64
38.406,4.56
38.421,4.16
38.437,3.31
38.453,2.03
38.468,0.39
38.484,-1.33
38.500,-3.04
38.515,-4.6
38.531,-5.91
38.546,-7.19
38.562,-8.68
38.578,-10.68
38.593,-13.26
38.609,-16.26
38.625,-18.96
38.640,-20.53
38.656,-20.42
38.671,-18.38
38.687,-15.07
38.703,-11.39
38.718,-8.23
38.734,-6.12
38.750,-4.97
38.765,-4.31
38.781,-3.65
38.796,-3.02
38.812,-2.56
38.828,-2.68
38.843,-3.36
38.859,-4.2
38.875,-4.46
38.890,-3.52
38.906,-1.05
38.921,2.67
38.937,6.75
38.953,10.44
38.968,13.15
38.984,14.83
39.000,15.77
39.015,16.43
39.031,17.13
39.046,17.87
39.062,18.34
39.078,18.11
39.093,16.92
39.109,14.65
39.125,11.55
39.140,8.0
39.156,4.41
39.171,1.15
39.187,-1.46
39.203,-3.45
39.218,-4.87
39.234,-5.93
39.250,-6.89
39.265,-7.86
39.281,-8.72
39.296,-9.49
39.312,-10.02
39.328,-10.18
39.343,-10.02
39.359,-9.54
39.375,-8.78
39.390,-7.86
39.406,-6.84
39.421,-5.74
39.437,-4.77
39.453,-4.11
39.468,-3.79
39.484,-3.91
39.500,-4.5
39.515,-5.4
39.531,-6.53
39.546,-7.62
39.562,-8.51
39.578,-9.18
39.593,-9.7
39.609,-10.14
39.625,-10.56
39.640,-10.85
39.656,-10.66
39.671,-9.8
39.687,-8.01
39.703,-5.41
39.718,-2.29
39.734,0.9
39.750,3.77
39.765,6.09
39.781,7.91
39.796,9.24
39.812,9.94
39.828,9.99
39.843,9.26
39.859,7.85
39.875,6.13
39.890,4.59
39.906,3.72
39.921,3.9
39.937,5.09
39.953,6.82
39.968,8.68
39.984,10.21
40.000,11.03
40.015,11.13
40.031,10.5
40.046,9.17
40.062,7.3
40.078,5.05
40.093,2.6
40.109,0.27
40.125,-1.64
40.140,-2.94
40.156,-3.47
40.171,-3.24
40.187,-2.27
40.203,-0.72
40.218,1.3
40.234,3.52
40.250,5.6
40.265,7.14
40.281,7.84
40.296,7.59
40.312,6.5
40.328,4.89
40.343,3.14
40.359,1.53
40.375,0.16
40.390,-0.97
40.406,-2.0
40.421,-2.99
40.437,-3.95
40.453,-4.77
40.468,-5.25
40.484,-5.2
40.500,-4.6
40.515,-3.69
40.531,-2.8
40.546,-2.41
40.562,-2.87
40.578,-4.3
40.593,-6.42
40.609,-8.86
40.625,-11.06
40.640,-12.65
40.656,-13.52
40.671,-13.82
40.687,-13.8
40.703,-13.64
40.718,-13.47
40.734,-13.07
40.750,-12.21
40.765,-10.63
40.781,-8.31
40.796,-5.45
40.812,-2.59
40.828,-0.22
40.843,1.24
40.859,1.68
40.875,1.32
40.890,0.42
40.906,-0.64
40.921,-1.65
40.937,-2.53
40.953,-3.35
40.968,-4.18
40.984,-5.05
41.000,-5.82
41.015,-6.36
41.031,-6.56
41.046,-6.42
41.062,-6.0
41.078,-5.48
41.093,-4.91
41.109,-4.32
41.125,-3.73
41.140,-3.08
41.156,-2.38
41.171,-1.78
41.187,-1.45
41.203,-1.47
41.218,-1.75
41.234,-1.96
41.250,-1.76
41.265,-0.79
41.281,1.04
41.296,3.55
41.312,6.3
41.328,8.87
41.343,10.92
41.359,12.26
41.375,13.04
41.390,13.46
41.406,13.7
41.421,13.91
41.437,14.01
41.453,13.88
41.468,13.41
41.484,12.58
41.500,11.48
41.515,10.24
41.531,8.99
41.546,7.79
41.562,6.68
41.578,5.65
41.593,4.66
41.609,3.82
41.625,3.12
41.640,2.53
41.656,2.04
41.671,1.62
41.687,1.19
41.703,0.76
41.718,0.18
41.734,-0.69
41.750,-2.0
41.765,-3.82
41.781,-6.15
41.796,-8.72
41.812,-11.11
41.828,-12.88
41.843,-13.61
41.859,-13.17
41.875,-11.71
41.890,-9.53
41.906,-7.09
41.921,-4.83
41.937,-2.9
41.953,-1.46
41.968,-0.56
41.984,-0.21
42.000,-0.4
42.015,-1.12
42.031,-2.2
42.046,-3.41
42.062,-4.48
42.078,-5.05
42.093,-5.1
42.109,-4.77
42.125,-4.21
42.140,-3.61
42.156,-3.15
42.171,-2.81
42.187,-2.59
42.203,-2.27
42.218,-1.62
42.234,-0.45
42.250,1.16
42.265,2.92
42.281,4.52
42.296,5.54
42.312,5.87
42.328,5.52
42.343,4.7
42.359,3.72
42.375,2.74
42.390,1.91
42.406,1.29
42.421,0.84
42.437,0.53
42.453,0.44
42.468,0.6
42.484,0.99
42.500,1.76
42.515,2.85
42.531,4.19
42.546,5.62
42.562,6.88
42.578,7.69
42.593,7.98
42.609,7.63
42.625,6.52
42.640,4.69
42.656,2.06
42.671,-1.13
42.687,-4.66
42.703,-8.02
42.718,-10.82
42.734,-12.76
42.750,-13.83
42.765,-14.35
42.781,-14.57
42.796,-14.74
42.812,-14.66
42.828,-13.99
42.843,-12.4
42.859,-9.89
42.875,-6.99
42.890,-4.39
42.906,-2.79
42.921,-2.23
42.937,-2.54
42.953,-3.31
42.968,-4.17
42.984,-5.02
43.000,-5.85
43.015,-6.73
43.031,-7.4
43.046,-7.74
43.062,-7.46
43.078,-6.59
43.093,-5.34
43.109,-4.11
43.125,-3.24
43.140,-2.84
43.156,-2.77
43.171,-2.56
43.187,-1.93
43.203,-0.7
43.218,1.13
43.234,3.42
43.250,5.84
43.265,8.16
43.281,10.19
43.296,11.87
43.312,13.23
43.328,14.31
43.343,14.91
43.359,14.82
43.375,13.87
43.390,11.92
43.406,8.9
43.421,5.1
43.437,0.94
43.453,-3.14
43.468,-6.69
43.484,-9.45
43.500,-11.3
43.515,-12.31
43.531,-12.53
43.546,-12.17
43.562,-11.36
43.578,-10.36
43.593,-9.37
43.609,-8.68
43.625,-8.48
43.640,-8.77
43.656,-9.45
43.671,-10.27
43.687,-10.77
43.703,-10.69
43.718,-9.92
43.734,-8.37
43.750,-6.15
43.765,-3.44
43.781,-0.37
43.796,2.77
43.812,5.65
43.828,8.25
43.843,10.47
43.859,12.26
43.875,13.7
43.890,14.81
43.906,15.58
43.921,16.05
43.937,16.18
43.953,16.0
43.968,15.58
43.984,15.05
44.000,14.53
44.015,14.11
44.031,13.79
44.046,13.46
44.062,13.05
44.078,12.47
44.093,11.72
44.109,10.95
44.125,10.21
44.140,9.57
44.156,9.01
44.171,8.25
44.187,7.14
44.203,5.63
44.218,3.74
44.234,1.71
44.250,-0.13
44.265,-1.65
44.281,-2.73
44.296,-3.31
44.312,-3.65
44.328,-3.84
44.343,-3.98
44.359,-4.15
44.375,-4.32
44.390,-4.5
44.406,-4.8
44.421,-5.22
44.437,-5.64
44.453,-5.95
44.468,-5.89
44.484,-5.3
44.500,-4.23
44.515,-2.74
44.531,-1.19
44.546,0.09
44.562,0.84
44.578,1.15
44.593,1.2
44.609,1.3
44.625,1.61
44.640,2.05
44.656,2.49
44.671,2.66
44.687,2.48
44.703,2.02
44.718,1.68
44.734,1.9
44.750,2.92
44.765,4.8
44.781,7.27
44.796,9.96
44.812,12.45
44.828,14.52
44.843,16.13
44.859,17.34
44.875,18.33
44.890,19.12
44.906,19.71
44.921,20.16
44.937,20.37
44.953,20.28
44.968,19.76
44.984,18.77
45.000,17.18
45.015,15.04
45.031,12.43
45.046,9.58
45.062,6.85
45.078,4.46
45.093,2.56
45.109,0.96
45.125,-0.72
45.140,-3.03
45.156,-6.25
45.171,-10.49
45.187,-15.41
45.203,-20.22
45.218,-24.24
45.234,-26.59
45.250,-26.9
45.265,-25.41
45.281,-22.83
45.296,-19.97
45.312,-17.56
45.328,-15.94
45.343,-14.81
45.359,-13.84
45.375,-12.48
45.390,-10.5
45.406,-8.11
45.421,-5.68
45.437,-3.68
45.453,-2.38
45.468,-1.88
45.484,-1.81
45.500,-1.84
45.515,-1.49
45.531,-0.48
45.546,1.18
45.562,3.36
45.578,5.68
45.593,7.79
45.609,9.36
45.625,10.3
45.640,10.55
45.656,10.31
45.671,9.92
45.687,9.66
45.703,9.99
45.718,10.99
45.734,12.49
45.750,14.06
45.765,15.27
45.781,15.51
45.796,14.35
45.812,11.68
45.828,7.55
45.843,2.47
45.859,-2.91
45.875,-7.96
45.890,-12.32
45.906,-15.87
45.921,-18.79
45.937,-21.32
45.953,-23.53
45.968,-25.46
45.984,-26.84
46.000,-27.26
46.015,-26.38
46.031,-24.06
46.046,-20.36
46.062,-15.67
46.078,-10.41
46.093,-4.95
46.109,0.47
46.125,5.66
46.140,10.53
46.156,14.86
46.171,18.29
46.187,20.54
46.203,21.5
46.218,21.35
46.234,20.52
46.250,19.36
46.265,18.11
46.281,16.7
46.296,14.85
46.312,12.29
46.328,9.0
46.343,5.11
46.359,1.08
46.375,-2.6
46.390,-5.48
46.406,-7.36
46.421,-8.2
46.437,-8.24
46.453,-7.58
46.468,-6.54
46.484,-5.53
46.500,-4.85
46.515,-4.72
46.531,-5.07
46.546,-5.58
46.562,-5.8
46.578,-5.55
46.593,-4.69
46.609,-3.39
46.625,-2.1
46.640,-1.17
46.656,-0.8
46.671,-1.05
46.687,-1.9
46.703,-3.28
46.718,-4.97
46.734,-6.66
46.750,-7.98
46.765,-8.65
46.781,-8.59
46.796,-7.82
46.812,-6.47
46.828,-4.71
46.843,-2.79
46.859,-0.9
46.875,0.73
46.890,1.92
46.906,2.53
46.921,2.5
46.937,1.85
46.953,0.85
46.968,-0.21
46.984,-1.09
47.000,-1.58
47.015,-1.7
47.031,-1.32
47.046,-0.49
47.062,0.8
47.078,2.25
47.093,3.47
47.109,4.07
47.125,3.82
47.140,2.74
47.156,1.19
47.171,-0.27
47.187,-1.11
47.203,-1.05
47.218,-0.16
47.234,1.08
47.250,2.06
47.265,2.34
47.281,1.69
47.296,0.26
47.312,-1.51
47.328,-3.11
47.343,-4.08
47.359,-4.2
47.375,-3.62
47.390,-2.78
47.406,-2.06
47.421,-1.76
47.437,-1.96
47.453,-2.38
47.468,-2.74
47.484,-2.73
47.500,-2.1
47.515,-0.89
47.531,0.72
47.546,2.64
47.562,4.71
47.578,6.8
47.593,8.78
47.609,10.44
47.625,11.6
47.640,12.09
47.656,11.99
47.671,11.6
47.687,11.2
47.703,11.09
47.718,11.36
47.734,11.86
47.750,12.24
47.765,12.3
47.781,11.93
47.796,11.17
47.812,10.4
47.828,9.77
47.843,9.32
47.859,8.95
47.875,8.52
47.890,7.82
47.906,6.77
47.921,5.39
47.937,3.67
47.953,1.81
47.968,-0.08
47.984,-1.88
48.000,-3.47
48.015,-4.72
48.031,-5.62
48.046,-6.29
48.062,-6.84
48.078,-7.53
48.093,-8.45
48.109,-9.63
48.125,-10.83
48.140,-11.89
48.156,-12.61
48.171,-12.83
48.187,-12.65
48.203,-12.09
48.218,-11.12
48.234,-9.67
48.250,-7.77
48.265,-5.45
48.281,-2.82
48.296,-0.13
48.312,2.39
48.328,4.6
48.343,6.52
48.359,8.16
48.375,9.74
48.390,11.27
48.406,12.68
48.421,13.8
48.437,14.33
48.453,14.07
48.468,12.91
48.484,11.21
48.500,9.29
48.515,7.7
48.531,6.74
48.546,6.5
48.562,6.76
48.578,7.25
48.593,7.74
48.609,8.05
48.625,8.24
48.640,8.43
48.656,8.77
48.671,9.29
48.687,9.93
48.703,10.45
48.718,10.62
48.734,10.2
48.750,9.12
48.765,7.36
48.781,5.07
48.796,2.63
48.812,0.23
48.828,-1.99
48.843,-4.04
48.859,-5.94
48.875,-7.84
48.890,-9.65
48.906,-11.4
48.921,-12.98
48.937,-14.19
48.953,-15.07
48.968,-15.61
48.984,-15.92
49.000,-15.97
49.015,-15.65
49.031,-14.86
49.046,-13.5
49.062,-11.8
49.078,-10.03
49.093,-8.49
49.109,-7.3
49.125,-6.39
49.140,-5.45
49.156,-4.16
49.171,-2.44
49.187,-0.34
49.203,1.84
49.218,3.79
49.234,5.24
49.250,6.17
49.265,6.49
49.281,6.29
49.296,5.72
49.312,5.01
49.328,4.55
49.343,4.63
49.359,5.46
49.375,6.87
49.390,8.61
49.406,10.08
49.421,10.88
49.437,10.93
49.453,10.21
49.468,9.12
49.484,7.9
49.500,6.74
49.515,5.53
49.531,4.24
49.546,2.79
49.562,1.28
49.578,-0.11
49.593,-1.26
49.609,-2.06
49.625,-2.72
49.640,-3.37
49.656,-4.28
49.671,-5.55
49.687,-7.23
49.703,-9.16
49.718,-11.09
49.734,-12.8
49.750,-13.93
49.765,-14.44
49.781,-14.36
49.796,-13.97
49.812,-13.5
49.828,-13.08
49.843,-12.7
49.859,-12.06
49.875,-10.91
49.890,-8.95
49.906,-6.35
49.921,-3.49
49.937,-0.85
49.953,1.02
49.968,1.96
49.984,1.98
50.000,1.56
50.015,1.14
50.031,1.29
50.046,2.13
50.062,3.45
50.078,4.95
50.093,6.12
50.109,6.72
50.125,6.49
50.140,5.53
50.156,3.87
50.171,1.91
50.187,-0.14
50.203,-2.05
50.218,-3.56
50.234,-4.65
50.250,-5.24
50.265,-5.44
50.281,-5.32
50.296,-5.14
50.312,-5.16
50.328,-5.53
50.343,-6.32
50.359,-7.46
50.375,-8.89
50.390,-10.37
50.406,-11.76
50.421,-12.97
50.437,-13.92
50.453,-14.68
50.468,-15.22
50.484,-15.44
50.500,-15.09
50.515,-14.07
50.531,-12.23
50.546,-9.56
50.562,-6.29
50.578,-2.7
50.593,0.79
50.609,3.91
50.625,6.51
50.640,8.77
50.656,10.83
50.671,12.89
50.687,15.07
50.703,17.21
50.718,19.12
50.734,20.32
50.750,20.38
50.765,18.84
50.781,15.66
50.796,11.07
50.812,5.63
50.828,0.17
50.843,-4.58
50.859,-8.01
50.875,-10.06
50.890,-10.88
50.906,-10.95
50.921,-10.8
50.937,-10.88
50.953,-11.41
50.968,-12.33
50.984,-13.39
51.000,-14.21
51.015,-14.58
51.031,-14.53
51.046,-14.33
51.062,-14.33
51.078,-14.83
51.093,-15.68
51.109,-16.46
51.125,-16.62
51.140,-15.71
51.156,-13.56
51.171,-10.4
51.187,-6.73
51.203,-3.26
51.218,-0.54
51.234,1.04
51.250,1.48
51.265,0.94
51.281,-0.17
51.296,-1.39
51.312,-2.31
51.328,-2.58
51.343,-2.09
51.359,-0.57
51.375,1.99
51.390,5.46
51.406,9.37
51.421,13.16
51.437,16.12
51.453,17.74
51.468,17.82
51.484,16.49
51.500,14.39
51.515,12.09
51.531,10.15
51.546,8.68
51.562,7.63
51.578,6.8
51.593,5.97
51.609,5.3
51.625,4.88
51.640,5.1
51.656,6.01
51.671,7.48
51.687,9.19
51.703,10.72
51.718,11.67
51.734,11.73
51.750,10.99
51.765,9.43
51.781,7.34
51.796,4.93
51.812,2.41
51.828,0.14
51.843,-1.58
51.859,-2.68
51.875,-3.13
51.890,-2.96
51.906,-2.55
51.921,-2.12
51.937,-1.87
51.953,-1.99
51.968,-2.43
51.984,-3.07
52.000,-3.77
52.015,-4.55
52.031,-5.36
52.046,-6.41
52.062,-7.9
52.078,-9.75
52.093,-11.88
52.109,-13.68
52.125,-14.65
52.140,-14.21
52.156,-12.29
52.171,-9.03
52.187,-4.94
52.203,-0.57
52.218,3.79
52.234,7.79
52.250,11.56
52.265,14.96
52.281,17.94
52.296,20.33
52.312,21.89
52.328,22.3
52.343,21.42
52.359,19.21
52.375,15.76
52.390,11.54
52.406,7.04
52.421,2.81
52.437,-0.62
52.453,-2.87
52.468,-3.79
52.484,-3.42
52.500,-1.96
52.515,0.1
52.531,2.35
52.546,4.3
52.562,5.6
52.578,6.05
52.593,5.68
52.609,4.77
52.625,3.54
52.640,2.33
52.656,1.08
52.671,-0.31
52.687,-1.97
52.703,-3.86
52.718,-5.84
52.734,-7.5
52.750,-8.31
52.765,-8.06
52.781,-6.67
52.796,-4.43
52.812,-1.93
52.828,0.24
52.843,1.6
52.859,1.71
52.875,0.43
52.890,-2.02
52.906,-5.38
52.921,-9.06
52.937,-12.48
52.953,-15.27
52.968,-17.2
52.984,-18.06
53.000,-17.79
53.015,-16.27
53.031,-13.39
53.046,-9.24
53.062,-4.06
53.078,1.66
53.093,7.19
53.109,11.97
53.125,15.67
53.140,18.18
53.156,19.82
53.171,20.84
53.187,21.38
53.203,21.63
53.218,21.49
53.234,20.82
53.250,19.62
53.265,18.02
53.281,16.08
53.296,14.11
53.312,12.26
53.328,10.71
53.343,9.53
53.359,8.54
53.375,7.45
53.390,5.9
53.406,3.6
53.421,0.27
53.437,-3.91
53.453,-8.63
53.468,-13.42
53.484,-17.64
53.500,-20.98
53.515,-23.3
53.531,-24.63
53.546,-25.09
53.562,-24.93
53.578,-24.35
53.593,-23.54
53.609,-22.67
53.625,-21.68
53.640,-20.76
53.656,-19.92
53.671,-19.27
53.687,-18.96
53.703,-19.02
53.718,-19.35
53.734,-19.76
53.750,-19.86
53.765,-19.14
53.781,-17.51
53.796,-14.87
53.812,-11.55
53.828,-7.9
53.843,-4.27
53.859,-0.9
53.875,2.09
53.890,4.73
53.906,7.16
53.921,9.24
53.937,10.99
53.953,12.22
53.968,12.96
53.984,13.34
54.000,13.74
54.015,14.48
54.031,15.71
54.046,17.5
54.062,19.52
54.078,21.43
54.093,22.67
54.109,22.78
54.125,21.5
54.140,18.83
54.156,15.1
54.171,10.82
54.187,6.77
54.203,3.48
54.218,1.58
54.234,1.02
54.250,1.65
54.265,3.08
54.281,4.69
54.296,6.03
54.312,6.71
54.328,6.62
54.343,5.67
54.359,4.1
54.375,1.96
54.390,-0.6
54.406,-3.32
54.421,-5.99
54.437,-8.33
54.453,-10.21
54.468,-11.52
54.484,-12.56
54.500,-13.45
54.515,-14.26
54.531,-14.98
54.546,-15.21
54.562,-14.56
54.578,-12.85
54.593,-10.27
54.609,-7.27
54.625,-4.65
54.640,-2.99
54.656,-2.44
54.671,-2.78
54.687,-3.42
54.703,-3.77
54.718,-3.34
54.734,-2.19
54.750,-0.59
54.765,0.97
54.781,2.12
54.796,2.71
54.812,2.83
54.828,2.75
54.843,2.62
54.859,2.56
54.875,2.47
54.890,2.3
54.906,2.04
54.921,1.82
54.937,1.99
54.953,2.64
54.968,3.88
54.984,5.49
55.000,7.16
55.015,8.66
55.031,9.83
55.046,10.48
55.062,10.32
55.078,9.1
55.093,6.43
55.109,2.54
55.125,-2.09
55.140,-6.51
55.156,-9.89
55.171,-11.58
55.187,-11.75
55.203,-11.05
55.218,-10.21
55.234,-9.96
55.250,-10.4
55.265,-11.38
55.281,-12.41
55.296,-13.23
55.312,-13.64
55.328,-13.9
55.343,-14.26
55.359,-14.84
55.375,-15.57
55.390,-16.14
55.406,-16.2
55.421,-15.58
55.437,-14.25
55.453,-12.4
55.468,-10.36
55.484,-8.28
55.500,-6.12
55.515,-3.62
55.531,-0.52
55.546,3.28
55.562,7.65
55.578,12.33
55.593,16.83
55.609,20.81
55.625,24.05
55.640,26.44
55.656,27.93
55.671,28.6
55.687,28.24
55.703,26.75
55.718,24.15
55.734,20.57
55.750,16.31
55.765,11.81
55.781,7.5
55.796,3.55
55.812,0.2
55.828,-2.62
55.843,-5.01
55.859,-6.97
55.875,-8.59
55.890,-9.82
55.906,-10.71
55.921,-11.23
55.937,-11.39
55.953,-11.1
55.968,-10.23
55.984,-8.88
56.000,-7.16
56.015,-5.35
56.031,-3.71
56.046,-2.61
56.062,-2.25
56.078,-2.7
56.093,-3.81
56.109,-5.26
56.125,-6.67
56.140,-7.71
56.156,-8.13
56.171,-7.57
56.187,-6.1
56.203,-3.85
56.218,-1.16
56.234,1.69
56.250,4.37
56.265,6.68
56.281,8.58
56.296,9.9
56.312,10.58
56.328,10.6
56.343,9.82
56.359,8.27
56.375,6.21
56.390,4.01
56.406,2.12
56.421,0.8
56.437,0.25
56.453,0.38
56.468,1.27
56.484,2.77
56.500,4.81
56.515,7.22
56.531,9.71
56.546,11.9
56.562,13.48
56.578,14.17
56.593,13.94
56.609,12.89
56.625,11.24
56.640,9.21
56.656,7.02
56.671,4.87
56.687,2.92
56.703,1.35
56.718,0.17
56.734,-0.69
56.750,-1.37
56.765,-2.03
56.781,-2.8
56.796,-3.6
56.812,-4.5
56.828,-5.55
56.843,-6.72
56.859,-8.0
56.875,-9.37
56.890,-10.76
56.906,-11.87
56.921,-12.46
56.937,-12.19
56.953,-11.07
56.968,-9.27
56.984,-7.07
57.000,-4.79
57.015,-2.71
57.031,-0.99
57.046,0.32
57.062,1.28
57.078,1.98
57.093,2.62
57.109,3.35
57.125,4.29
57.140,5.36
57.156,6.48
57.171,7.47
57.187,8.3
57.203,8.98
57.218,9.66
57.234,10.5
57.250,11.57
57.265,12.93
57.281,14.22
57.296,15.25
57.312,15.87
57.328,16.12
57.343,16.0
57.359,15.68
57.375,15.23
57.390,14.46
57.406,13.3
57.421,11.52
57.437,9.2
57.453,6.65
57.468,4.2
57.484,2.18
57.500,0.64
57.515,-0.49
57.531,-1.55
57.546,-2.79
57.562,-4.43
57.578,-6.57
57.593,-9.05
57.609,-11.78
57.625,-14.5
57.640,-17.09
57.656,-19.38
57.671,-21.41
57.687,-22.89
57.703,-23.69
57.718,-23.7
57.734,-22.8
57.750,-21.2
57.765,-18.85
57.781,-15.85
57.796,-11.95
57.812,-7.2
57.828,-1.54
57.843,4.53
57.859,10.32
57.875,15.28
57.890,18.93
57.906,21.41
57.921,23.02
57.937,24.34
57.953,25.65
57.968,26.99
57.984,28.13
58.000,28.7
58.015,28.53
58.031,27.6
58.046,26.17
58.062,24.5
58.078,22.82
58.093,21.13
58.109,19.32
58.125,17.2
58.140,14.68
58.156,11.86
58.171,8.79
58.187,5.76
58.203,2.96
58.218,0.42
58.234,-1.99
58.250,-4.47
58.265,-7.15
58.281,-10.14
58.296,-13.36
58.312,-16.77
58.328,-20.08
58.343,-22.98
58.359,-25.1
58.375,-26.26
58.390,-26.5
58.406,-25.91
58.421,-24.84
58.437,-23.52
58.453,-22.16
58.468,-20.7
58.484,-19.11
58.500,-17.18
58.515,-14.97
58.531,-12.59
58.546,-10.17
58.562,-7.99
58.578,-6.08
58.593,-4.55
58.609,-3.2
58.625,-1.9
58.640,-0.24
58.656,1.97
58.671,4.79
58.687,8.04
58.703,11.34
58.718,14.46
58.734,16.84
58.750,18.29
58.765,18.79
58.781,18.46
58.796,17.65
58.812,16.7
58.828,15.91
58.843,15.22
58.859,14.64
58.875,13.88
58.890,12.55
58.906,10.49
58.921,7.61
58.937,4.1
58.953,0.19
58.968,-3.62
58.984,-7.1
59.000,-9.8
59.015,-11.61
59.031,-12.51
59.046,-12.62
59.062,-12.2
59.078,-11.48
59.093,-10.73
59.109,-10.08
59.125,-9.68
59.140,-9.57
59.156,-9.73
59.171,-10.12
59.187,-10.57
59.203,-10.9
59.218,-10.75
59.234,-9.92
59.250,-8.41
59.265,-6.39
59.281,-4.29
59.296,-2.5
59.312,-1.34
59.328,-0.81
59.343,-0.91
59.359,-1.49
59.375,-2.45
59.390,-3.74
59.406,-5.34
59.421,-7.09
59.437,-8.56
59.453,-9.46
59.468,-9.57
59.484,-9.04
59.500,-8.27
59.515,-7.96
59.531,-8.53
59.546,-10.05
59.562,-12.21
59.578,-14.34
59.593,-15.92
59.609,-16.65
59.625,-16.62
59.640,-16.07
59.656,-15.27
59.671,-14.28
59.687,-13.09
59.703,-11.53
59.718,-9.61
59.734,-7.63
59.750,-5.91
59.765,-4.81
59.781,-4.5
59.796,-5.0
59.812,-6.28
59.828,-8.31
59.843,-10.99
59.859,-14.09
59.875,-17.2
59.890,-19.59
59.906,-20.63
59.921,-19.95
59.937,-17.73
59.953,-14.49
59.968,-11.01
59.984,-7.91
