timestamp,value
00.000,-371.62
00.015,-347.21
00.031,-307.5
00.046,-265.57
00.062,-235.38
00.078,-225.79
00.093,-236.76
00.109,-259.47
00.125,-280.89
00.140,-289.61
00.156,-280.41
00.171,-254.95
00.187,-219.19
00.203,-178.88
00.218,-136.24
00.234,-89.46
00.250,-35.39
00.265,26.7
00.281,92.31
00.296,151.64
00.312,192.45
00.328,204.76
00.343,184.71
00.359,136.74
00.375,72.46
00.390,7.52
00.406,-42.91
00.421,-68.24
00.437,-64.8
00.453,-35.72
00.468,11.79
00.484,69.95
00.500,133.61
00.515,201.06
00.531,272.67
00.546,347.6
00.562,421.26
00.578,484.8
00.593,527.46
00.609,541.02
00.625,523.33
00.640,478.93
00.656,416.51
00.671,344.72
00.687,269.32
00.703,193.32
00.718,119.89
00.734,55.14
00.750,8.55
00.765,-10.7
00.781,0.84
00.796,37.14
00.812,83.04
00.828,119.58
00.843,131.14
00.859,111.0
00.875,62.31
00.890,-4.75
00.906,-78.41
00.921,-149.7
00.937,-213.95
00.953,-270.15
00.968,-318.8
00.984,-360.43
01.000,-395.23
01.015,-424.02
01.031,-448.7
01.046,-472.44
01.062,-497.69
01.078,-524.0
01.093,-546.84
01.109,-558.35
01.125,-550.3
01.140,-518.03
01.156,-463.08
01.171,-392.89
01.187,-318.06
01.203,-247.93
01.218,-187.21
01.234,-135.25
01.250,-88.11
01.265,-41.56
01.281,6.31
01.296,54.87
01.312,102.24
01.328,147.23
01.343,190.41
01.359,233.77
01.375,279.35
01.390,328.43
01.406,381.32
01.421,437.46
01.437,495.66
01.453,553.53
01.468,606.7
01.484,648.56
01.500,671.72
01.515,669.95
01.531,640.95
01.546,587.33
01.562,515.58
01.578,433.59
01.593,347.93
01.609,262.75
01.625,181.07
01.640,106.94
01.656,46.24
01.671,5.75
01.687,-10.46
01.703,-4.26
01.718,15.71
01.734,36.55
01.750,45.73
01.765,35.72
01.781,5.99
01.796,-38.26
01.812,-89.64
01.828,-142.25
01.843,-193.66
01.859,-244.16
01.875,-294.78
01.890,-345.58
01.906,-395.04
01.921,-441.06
01.937,-482.66
01.953,-520.89
01.968,-558.56
01.984,-598.37
02.000,-640.09
02.015,-678.79
02.031,-705.36
02.046,-709.35
02.062,-683.34
02.078,-626.56
02.093,-545.64
02.109,-452.24
02.125,-358.81
02.140,-274.2
02.156,-201.64
02.171,-139.5
02.187,-83.69
02.203,-30.54
02.218,21.59
02.234,72.44
02.250,121.06
02.265,166.78
02.281,209.95
02.296,251.54
02.312,292.63
02.328,334.22
02.343,376.91
02.359,421.39
02.375,468.84
02.390,520.53
02.406,576.44
02.421,633.84
02.437,686.25
02.453,724.46
02.468,739.44
02.484,725.7
02.500,683.71
02.515,619.84
02.531,543.76
02.546,464.73
02.562,389.04
02.578,319.13
02.593,254.84
02.609,195.44
02.625,140.7
02.640,90.79
02.656,45.5
02.671,3.06
02.687,-39.76
02.703,-86.47
02.718,-139.61
02.734,-199.53
02.750,-264.21
02.765,-329.91
02.781,-392.77
02.796,-449.46
02.812,-497.87
02.828,-537.03
02.843,-566.45
02.859,-586.07
02.875,-596.22
02.890,-598.3
02.906,-594.88
02.921,-589.12
02.937,-583.23
02.953,-577.08
02.968,-567.53
02.984,-549.65
03.000,-519.38
03.015,-475.85
03.031,-422.53
03.046,-366.19
03.062,-314.05
03.078,-271.14
03.093,-238.75
03.109,-214.65
03.125,-194.7
03.140,-174.83
03.156,-152.05
03.171,-124.75
03.187,-92.71
03.203,-56.44
03.218,-17.14
03.234,23.53
03.250,63.97
03.265,103.36
03.281,141.52
03.296,179.05
03.312,217.29
03.328,257.72
03.343,301.61
03.359,348.67
03.375,396.13
03.390,438.3
03.406,467.96
03.421,479.06
03.437,469.83
03.453,444.48
03.468,412.39
03.484,384.99
03.500,371.09
03.515,373.39
03.531,387.22
03.546,402.33
03.562,407.16
03.578,393.18
03.593,357.56
03.609,303.24
03.625,236.61
03.640,164.32
03.656,90.39
03.671,15.86
03.687,-59.57
03.703,-135.1
03.718,-207.45
03.734,-272.11
03.750,-325.94
03.765,-369.05
03.781,-404.67
03.796,-436.94
03.812,-467.37
03.828,-493.3
03.843,-508.75
03.859,-507.49
03.875,-486.19
03.890,-445.95
03.906,-391.19
03.921,-326.96
03.937,-256.74
03.953,-182.09
03.968,-103.93
03.984,-24.6
04.000,51.41
04.015,118.5
04.031,172.27
04.046,211.34
04.062,238.49
04.078,259.54
04.093,280.91
04.109,307.37
04.125,340.46
04.140,379.1
04.156,420.69
04.171,461.94
04.187,498.92
04.203,526.86
04.218,540.16
04.234,533.77
04.250,505.29
04.265,456.43
04.281,393.08
04.296,323.3
04.312,254.48
04.328,191.05
04.343,133.95
04.359,81.91
04.375,33.87
04.390,-9.19
04.406,-43.94
04.421,-66.48
04.437,-74.85
04.453,-71.12
04.468,-61.24
04.484,-53.1
04.500,-53.26
04.515,-64.46
04.531,-85.02
04.546,-110.56
04.562,-136.59
04.578,-160.56
04.593,-182.58
04.609,-204.64
04.625,-229.08
04.640,-256.93
04.656,-287.34
04.671,-318.09
04.687,-347.02
04.703,-373.13
04.718,-396.93
04.734,-419.53
04.750,-440.61
04.765,-456.82
04.781,-461.79
04.796,-448.03
04.812,-410.42
04.828,-349.07
04.843,-269.93
04.859,-182.64
04.875,-96.77
04.890,-18.86
04.906,48.74
04.921,106.56
04.937,155.82
04.953,196.88
04.968,229.43
04.984,253.74
05.000,271.91
05.015,288.26
05.031,308.49
05.046,337.98
05.062,379.56
05.078,431.57
05.093,487.39
05.109,536.87
05.125,569.32
05.140,577.4
05.156,559.67
05.171,520.9
05.187,469.84
05.203,415.45
05.218,363.44
05.234,315.27
05.250,269.12
05.265,222.22
05.281,173.12
05.296,122.89
05.312,74.9
05.328,33.42
05.343,1.78
05.359,-19.25
05.375,-32.36
05.390,-43.43
05.406,-59.49
05.421,-85.89
05.437,-123.86
05.453,-169.96
05.468,-217.69
05.484,-260.53
05.500,-294.78
05.515,-320.64
05.531,-341.53
05.546,-362.32
05.562,-387.66
05.578,-420.81
05.593,-462.78
05.609,-511.41
05.625,-560.77
05.640,-601.55
05.656,-623.5
05.671,-618.92
05.687,-585.86
05.703,-528.79
05.718,-456.92
05.734,-380.23
05.750,-306.08
05.765,-237.39
05.781,-173.44
05.796,-111.84
05.812,-49.88
05.828,14.04
05.843,79.62
05.859,143.93
05.875,201.22
05.890,244.1
05.906,266.66
05.921,268.07
05.937,254.28
05.953,237.12
05.968,230.17
05.984,243.91
06.000,282.08
06.015,340.94
06.031,411.22
06.046,481.34
06.062,540.24
06.078,578.98
06.093,591.79
06.109,576.38
06.125,534.27
06.140,470.74
06.156,393.45
06.171,310.72
06.187,229.48
06.203,154.21
06.218,86.95
06.234,28.44
06.250,-21.24
06.265,-62.1
06.281,-94.4
06.296,-119.43
06.312,-139.78
06.328,-158.78
06.343,-179.22
06.359,-202.59
06.375,-227.89
06.390,-252.43
06.406,-273.09
06.421,-287.76
06.437,-296.7
06.453,-302.45
06.468,-309.18
06.484,-321.17
06.500,-341.24
06.515,-369.19
06.531,-401.39
06.546,-431.38
06.562,-451.83
06.578,-457.32
06.593,-446.25
06.609,-420.85
06.625,-385.59
06.640,-344.45
06.656,-298.99
06.671,-248.52
06.687,-191.39
06.703,-127.02
06.718,-56.96
06.734,15.46
06.750,85.99
06.765,150.31
06.781,204.58
06.796,245.91
06.812,272.68
06.828,285.83
06.843,289.49
06.859,290.21
06.875,295.67
06.890,312.31
06.906,343.89
06.921,390.68
06.937,449.08
06.953,512.18
06.968,570.45
06.984,613.58
07.000,632.69
07.015,623.01
07.031,585.24
07.046,525.19
07.062,451.53
07.078,372.57
07.093,293.92
07.109,217.8
07.125,144.16
07.140,72.83
07.156,5.05
07.171,-56.44
07.187,-108.41
07.203,-148.79
07.218,-177.78
07.234,-197.55
07.250,-211.32
07.265,-222.13
07.281,-232.08
07.296,-242.35
07.312,-253.91
07.328,-267.77
07.343,-284.64
07.359,-304.26
07.375,-324.57
07.390,-342.51
07.406,-355.76
07.421,-364.1
07.437,-369.9
07.453,-376.59
07.468,-386.03
07.484,-396.99
07.500,-405.23
07.515,-405.64
07.531,-394.91
07.546,-372.76
07.562,-340.99
07.578,-301.51
07.593,-254.87
07.609,-200.54
07.625,-139.02
07.640,-73.51
07.656,-10.27
07.671,43.45
07.687,82.66
07.703,107.23
07.718,122.14
07.734,135.05
07.750,153.22
07.765,180.49
07.781,216.73
07.796,259.01
07.812,304.17
07.828,350.95
07.843,400.4
07.859,454.37
07.875,512.68
07.890,571.23
07.906,621.77
07.921,654.53
07.937,661.98
07.953,642.09
07.968,599.22
07.984,541.95
08.000,479.28
08.015,417.37
08.031,358.22
08.046,300.85
08.062,243.98
08.078,188.11
08.093,135.91
08.109,90.73
08.125,54.49
08.140,26.0
08.156,1.37
08.171,-24.49
08.187,-55.77
08.203,-94.08
08.218,-138.19
08.234,-184.85
08.250,-230.55
08.265,-273.19
08.281,-312.97
08.296,-352.13
08.312,-393.85
08.328,-440.95
08.343,-494.61
08.359,-553.29
08.375,-612.19
08.390,-663.69
08.406,-698.9
08.421,-710.18
08.437,-693.87
08.453,-651.77
08.468,-590.56
08.484,-519.25
08.500,-446.03
08.515,-375.58
08.531,-308.68
08.546,-243.24
08.562,-176.38
08.578,-106.24
08.593,-33.02
08.609,40.54
08.625,109.33
08.640,165.8
08.656,201.46
08.671,209.43
08.687,188.3
08.703,144.41
08.718,91.3
08.734,45.96
08.750,22.97
08.765,30.07
08.781,66.76
08.796,126.81
08.812,202.04
08.828,285.16
08.843,369.88
08.859,449.11
08.875,513.82
08.890,553.83
08.906,561.16
08.921,533.29
08.937,474.66
08.953,395.02
08.968,306.14
08.984,218.74
09.000,140.97
09.015,78.9
09.031,36.81
09.046,16.99
09.062,18.43
09.078,36.0
09.093,60.62
09.109,81.69
09.125,90.15
09.140,80.72
09.156,52.46
09.171,7.71
09.187,-49.22
09.203,-113.47
09.218,-180.02
09.234,-244.55
09.250,-304.35
09.265,-359.38
09.281,-412.28
09.296,-466.33
09.312,-522.68
09.328,-577.81
09.343,-623.63
09.359,-649.81
09.375,-648.49
09.390,-617.63
09.406,-561.84
09.421,-490.49
09.437,-413.57
09.453,-338.45
09.468,-268.35
09.484,-203.24
09.500,-141.58
09.515,-81.98
09.531,-23.89
09.546,32.57
09.562,86.6
09.578,137.2
09.593,183.28
09.609,224.16
09.625,260.24
09.640,293.19
09.656,325.43
09.671,359.48
09.687,397.61
09.703,441.45
09.718,492.18
09.734,549.66
09.750,611.44
09.765,671.71
09.781,721.58
09.796,751.14
09.812,752.8
09.828,724.52
09.843,670.53
09.859,600.18
09.875,524.32
09.890,451.78
09.906,387.51
09.921,332.81
09.937,286.59
09.953,247.09
09.968,212.72
09.984,181.66
10.000,151.7
10.015,120.34
10.031,85.42
10.046,46.33
10.062,4.47
10.078,-37.37
10.093,-76.65
10.109,-112.83
10.125,-148.56
10.140,-189.13
10.156,-240.11
10.171,-304.76
10.187,-382.13
10.203,-466.77
10.218,-550.58
10.234,-625.4
10.250,-684.9
10.265,-725.68
10.281,-747.29
10.296,-751.66
10.312,-742.19
10.328,-722.22
10.343,-693.69
10.359,-656.38
10.375,-608.16
10.390,-546.59
10.406,-471.25
10.421,-385.0
10.437,-293.51
10.453,-203.62
10.468,-121.27
10.484,-50.82
10.500,4.62
10.515,42.63
10.531,62.06
10.546,64.71
10.562,56.68
10.578,48.31
10.593,51.05
10.609,73.55
10.625,118.31
10.640,181.35
10.656,254.96
10.671,331.59
10.687,405.94
10.703,474.89
10.718,535.47
10.734,582.82
10.750,610.53
10.765,612.75
10.781,587.32
10.796,537.13
10.812,469.27
10.828,392.41
10.843,313.91
10.859,238.66
10.875,169.59
10.890,109.34
10.906,61.06
10.921,27.8
10.937,10.42
10.953,5.98
10.968,7.87
10.984,8.21
11.000,1.04
11.015,-15.55
11.031,-38.88
11.046,-63.69
11.062,-85.39
11.078,-102.81
11.093,-118.97
11.109,-139.52
11.125,-169.91
11.140,-211.94
11.156,-262.07
11.171,-311.8
11.187,-350.75
11.203,-371.2
11.218,-371.84
11.234,-359.32
11.250,-345.33
11.265,-341.11
11.281,-351.21
11.296,-370.28
11.312,-384.74
11.328,-378.62
11.343,-341.01
11.359,-271.32
11.375,-180.3
11.390,-86.03
11.406,-8.21
11.421,38.29
11.437,47.55
11.453,23.37
11.468,-22.82
11.484,-75.42
11.500,-119.13
11.515,-143.26
11.531,-143.18
11.546,-120.29
11.562,-79.99
11.578,-28.75
11.593,27.77
11.609,85.36
11.625,140.66
11.640,191.0
11.656,234.59
11.671,271.44
11.687,303.35
11.703,332.48
11.718,359.69
11.734,382.79
11.750,397.27
11.765,398.69
11.781,385.43
11.796,359.8
11.812,327.45
11.828,294.64
11.843,265.33
11.859,240.26
11.875,216.91
11.890,191.45
11.906,160.0
11.921,119.54
11.937,68.45
11.953,7.34
11.968,-60.33
11.984,-127.82
12.000,-185.91
12.015,-225.87
12.031,-243.02
12.046,-239.59
12.062,-225.35
12.078,-214.87
12.093,-222.39
12.109,-256.28
12.125,-315.58
12.140,-389.67
12.156,-461.73
12.171,-514.12
12.187,-533.3
12.203,-512.97
12.218,-454.35
12.234,-365.1
12.250,-257.19
12.265,-144.86
12.281,-42.49
12.296,37.48
12.312,87.22
12.328,105.79
12.343,99.5
12.359,80.43
12.375,62.32
12.390,56.56
12.406,69.26
12.421,100.56
12.437,146.11
12.453,199.72
12.468,255.56
12.484,309.71
12.500,360.69
12.515,409.12
12.531,456.95
12.546,505.71
12.562,554.72
12.578,599.67
12.593,633.12
12.609,646.74
12.625,634.61
12.640,595.84
12.656,535.35
12.671,462.2
12.687,386.46
12.703,316.24
12.718,255.87
12.734,206.0
12.750,164.98
12.765,130.63
12.781,101.06
12.796,74.44
12.812,48.09
12.828,17.91
12.843,-20.93
12.859,-71.88
12.875,-135.1
12.890,-206.41
12.906,-278.49
12.921,-344.23
12.937,-400.0
12.953,-447.9
12.968,-494.31
12.984,-545.83
13.000,-604.7
13.015,-667.16
13.031,-725.28
13.046,-771.06
13.062,-799.74
13.078,-810.13
13.093,-802.46
13.109,-775.66
13.125,-726.66
13.140,-652.5
13.156,-554.14
13.171,-438.67
13.187,-318.29
13.203,-205.92
13.218,-110.61
13.234,-34.96
13.250,24.08
13.265,71.82
13.281,112.44
13.296,147.53
13.312,176.6
13.328,199.08
13.343,215.96
13.359,230.33
13.375,246.27
13.390,267.61
13.406,296.74
13.421,334.07
13.437,378.19
13.453,425.95
13.468,472.48
13.484,511.18
13.500,534.63
13.515,535.92
13.531,510.89
13.546,460.13
13.562,389.64
13.578,310.09
13.593,234.44
13.609,174.51
13.625,137.83
13.640,126.41
13.656,136.4
13.671,159.45
13.687,184.97
13.703,201.98
13.718,201.58
13.734,178.22
13.750,130.82
13.765,62.85
13.781,-17.37
13.796,-97.97
13.812,-166.02
13.828,-211.72
13.843,-232.49
13.859,-235.06
13.875,-234.23
13.890,-247.47
13.906,-287.58
13.921,-356.24
13.937,-442.51
13.953,-526.68
13.968,-588.15
13.984,-613.12
14.000,-598.68
14.015,-551.54
14.031,-483.04
14.046,-403.21
14.062,-317.86
14.078,-229.17
14.093,-138.5
14.109,-49.34
14.125,31.21
14.140,96.39
14.156,141.72
14.171,167.69
14.187,180.59
14.203,189.77
14.218,204.06
14.234,228.61
14.250,264.26
14.265,308.14
14.281,356.03
14.296,403.66
14.312,447.4
14.328,484.32
14.343,512.06
14.359,528.91
14.375,534.06
14.390,527.68
14.406,510.37
14.421,482.83
14.437,445.64
14.453,400.11
14.468,349.37
14.484,298.41
14.500,252.66
14.515,215.56
14.531,186.59
14.546,160.95
14.562,131.71
14.578,93.28
14.593,44.34
14.609,-11.33
14.625,-66.78
14.640,-114.85
14.656,-151.53
14.671,-177.6
14.687,-197.95
14.703,-219.42
14.718,-247.54
14.734,-284.23
14.750,-327.31
14.765,-371.81
14.781,-412.27
14.796,-444.99
14.812,-469.34
14.828,-487.38
14.843,-502.16
14.859,-515.11
14.875,-524.56
14.890,-525.44
14.906,-511.43
14.921,-477.84
14.937,-424.51
14.953,-356.79
14.968,-283.77
14.984,-215.1
15.000,-157.17
15.015,-111.51
15.031,-75.36
15.046,-44.23
15.062,-14.91
15.078,13.01
15.093,37.78
15.109,57.8
15.125,73.36
15.140,87.52
15.156,105.03
15.171,130.4
15.187,166.56
15.203,213.93
15.218,270.46
15.234,332.44
15.250,395.33
15.265,454.39
15.281,505.19
15.296,544.31
15.312,569.54
15.328,579.71
15.343,574.15
15.359,552.39
15.375,514.01
15.390,459.02
15.406,388.69
15.421,306.45
15.437,218.21
15.453,131.5
15.468,53.93
15.484,-8.38
15.500,-51.91
15.515,-76.47
15.531,-85.49
15.546,-85.47
15.562,-84.87
15.578,-92.0
15.593,-112.82
15.609,-148.77
15.625,-196.44
15.640,-248.94
15.656,-298.57
15.671,-339.73
15.687,-370.66
15.703,-393.44
15.718,-412.03
15.734,-429.75
15.750,-447.04
15.765,-460.38
15.781,-463.88
15.796,-451.93
15.812,-421.79
15.828,-375.57
15.843,-319.99
15.859,-263.81
15.875,-214.44
15.890,-175.75
15.906,-147.01
15.921,-124.95
15.937,-106.1
15.953,-88.39
15.968,-71.99
15.984,-58.24
16.000,-47.76
16.015,-39.54
16.031,-30.88
16.046,-18.11
16.062,2.1
16.078,32.32
16.093,74.28
16.109,129.5
16.125,199.18
16.140,283.55
16.156,380.26
16.171,482.93
16.187,581.53
16.203,663.9
16.218,719.44
16.234,742.25
16.250,732.57
16.265,695.83
16.281,640.27
16.296,573.98
16.312,503.57
16.328,433.97
16.343,368.7
16.359,310.0
16.375,258.6
16.390,213.14
16.406,170.57
16.421,127.45
16.437,81.37
16.453,31.98
16.468,-19.36
16.484,-70.94
16.500,-121.11
16.515,-168.42
16.531,-211.3
16.546,-248.11
16.562,-278.23
16.578,-303.2
16.593,-327.25
16.609,-355.6
16.625,-392.21
16.640,-437.3
16.656,-486.97
16.671,-534.97
16.687,-575.73
16.703,-606.93
16.718,-629.73
16.734,-646.47
16.750,-657.2
16.765,-658.11
16.781,-642.2
16.796,-602.66
16.812,-537.01
16.828,-449.13
16.843,-348.69
16.859,-247.99
16.875,-157.7
16.890,-83.36
16.906,-24.8
16.921,22.46
16.937,64.07
16.953,104.08
16.968,143.83
16.984,182.69
17.000,219.85
17.015,255.88
17.031,293.18
17.046,335.16
17.062,384.27
17.078,439.74
17.093,496.1
17.109,543.78
17.125,571.67
17.140,570.47
17.156,535.67
17.171,468.74
17.187,376.48
17.203,269.37
17.218,159.4
17.234,58.42
17.250,-23.04
17.265,-77.26
17.281,-100.59
17.296,-94.49
17.312,-65.29
17.328,-23.1
17.343,19.95
17.359,52.15
17.375,64.62
17.390,53.67
17.406,21.67
17.421,-23.14
17.437,-68.44
17.453,-100.96
17.468,-110.02
17.484,-90.68
17.500,-45.02
17.515,19.09
17.531,90.95
17.546,159.43
17.562,215.6
17.578,254.2
17.593,274.2
17.609,278.42
17.625,271.8
17.640,259.17
17.656,243.82
17.671,226.96
17.687,207.23
17.703,182.33
17.718,150.38
17.734,111.14
17.750,66.53
17.765,19.8
17.781,-24.91
17.796,-65.63
17.812,-97.32
17.828,-114.05
17.843,-110.97
17.859,-86.59
17.875,-43.89
17.890,11.04
17.906,71.99
17.921,133.22
17.937,189.24
17.953,235.11
17.968,266.14
17.984,278.4
18.000,269.5
18.015,236.46
18.031,181.87
18.046,112.43
18.062,37.29
18.078,-33.78
18.093,-92.44
18.109,-133.59
18.125,-156.14
18.140,-162.15
18.156,-155.3
18.171,-138.54
18.187,-114.52
18.203,-85.53
18.218,-53.96
18.234,-23.17
18.250,2.12
18.265,15.46
18.281,10.61
18.296,-17.21
18.312,-68.89
18.328,-141.6
18.343,-228.16
18.359,-317.19
18.375,-395.58
18.390,-450.83
18.406,-475.91
18.421,-471.28
18.437,-445.46
18.453,-412.27
18.468,-386.39
18.484,-376.83
18.500,-382.19
18.515,-392.39
18.531,-392.03
18.546,-368.28
18.562,-315.2
18.578,-235.32
18.593,-137.49
18.609,-33.87
18.625,63.39
18.640,145.05
18.656,201.98
18.671,226.91
18.687,214.0
18.703,161.94
18.718,75.76
18.734,-33.19
18.750,-150.17
18.765,-261.0
18.781,-353.13
18.796,-421.21
18.812,-453.35
18.828,-442.65
18.843,-388.15
18.859,-296.64
18.875,-181.36
18.890,-57.37
18.906,56.37
18.921,160.36
18.937,257.36
18.953,347.46
18.968,424.86
18.984,481.96
19.000,509.66
19.015,502.08
19.031,457.49
19.046,373.84
19.062,259.29
19.078,128.43
19.093,1.14
19.109,-107.42
19.125,-193.96
19.140,-261.52
19.156,-315.65
19.171,-357.34
19.187,-387.13
19.203,-402.06
19.218,-399.92
19.234,-379.77
19.250,-343.85
19.265,-296.6
19.281,-242.51
19.296,-184.43
19.312,-123.52
19.328,-60.43
19.343,5.31
19.359,71.34
19.375,132.75
19.390,182.65
19.406,214.94
19.421,227.21
19.437,221.52
19.453,203.55
19.468,180.08
19.484,158.43
19.500,142.89
19.515,134.42
19.531,131.2
19.546,130.62
19.562,131.52
19.578,134.53
19.593,141.45
19.609,154.05
19.625,174.59
19.640,203.83
19.656,240.36
19.671,280.19
19.687,316.96
19.703,342.98
19.718,350.95
19.734,336.23
19.750,298.94
19.765,246.01
19.781,187.36
19.796,131.94
19.812,84.88
19.828,47.39
19.843,19.07
19.859,0.71
19.875,-4.36
19.890,8.45
19.906,44.19
19.921,103.21
19.937,179.47
19.953,261.83
19.968,337.4
19.984,394.95
20.000,427.13
20.015,431.35
20.031,397.22
20.046,323.69
20.062,220.54
20.078,106.04
20.093,-1.05
20.109,-89.74
20.125,-159.5
20.140,-216.44
20.156,-267.18
20.171,-315.39
20.187,-359.33
20.203,-395.92
20.218,-423.93
20.234,-445.21
20.250,-463.3
20.265,-480.66
20.281,-499.27
20.296,-516.16
20.312,-527.31
20.328,-528.6
20.343,-518.72
20.359,-499.53
20.375,-475.3
20.390,-450.63
20.406,-428.49
20.421,-409.61
20.437,-392.73
20.453,-376.36
20.468,-358.54
20.484,-338.42
20.500,-316.25
20.515,-292.98
20.531,-270.16
20.546,-248.33
20.562,-226.83
20.578,-203.94
20.593,-178.19
20.609,-148.2
20.625,-113.63
20.640,-75.14
20.656,-34.43
20.671,6.33
20.687,45.58
20.703,82.43
20.718,116.9
20.734,149.46
20.750,181.05
20.765,212.38
20.781,243.81
20.796,274.86
20.812,304.26
20.828,330.75
20.843,353.03
20.859,370.4
20.875,382.98
20.890,391.88
20.906,398.67
20.921,405.11
20.937,412.3
20.953,420.39
20.968,429.69
20.984,439.82
21.000,450.43
21.015,461.45
21.031,473.26
21.046,486.62
21.062,502.78
21.078,523.18
21.093,549.17
21.109,582.13
21.125,620.36
21.140,658.43
21.156,687.76
21.171,699.12
21.187,685.93
21.203,647.06
21.218,586.97
21.234,513.74
21.250,437.06
21.265,363.06
21.281,293.27
21.296,225.98
21.312,158.7
21.328,90.47
21.343,22.61
21.359,-42.15
21.375,-110.15
21.390,-182.8
21.406,-258.1
21.421,-330.45
21.437,-392.28
21.453,-437.08
21.468,-461.36
21.484,-465.52
21.500,-453.09
21.515,-429.55
21.531,-399.43
21.546,-367.41
21.562,-337.21
21.578,-310.89
21.593,-288.81
21.609,-269.92
21.625,-252.41
21.640,-234.56
21.656,-215.4
21.671,-193.67
21.687,-169.66
21.703,-145.01
21.718,-121.3
21.734,-99.46
21.750,-79.69
21.765,-61.69
21.781,-45.42
21.796,-31.47
21.812,-19.08
21.828,-9.55
21.843,-5.34
21.859,-7.03
21.875,-13.07
21.890,-19.83
21.906,-22.77
21.921,-18.58
21.937,-6.22
21.953,13.06
21.968,35.74
21.984,54.95
22.000,65.2
22.015,63.57
22.031,49.94
22.046,26.48
22.062,-4.86
22.078,-43.06
22.093,-88.01
22.109,-140.25
22.125,-203.02
22.140,-277.4
22.156,-361.06
22.171,-447.73
22.187,-527.78
22.203,-590.68
22.218,-627.08
22.234,-631.22
22.250,-581.84
22.265,-475.72
22.281,-325.97
22.296,-159.3
22.312,-7.55
22.328,104.41
22.343,166.08
22.359,182.27
22.375,167.73
22.390,139.72
22.406,108.68
22.421,79.2
22.437,52.66
22.453,30.08
22.468,14.55
22.484,10.02
22.500,19.07
22.515,40.18
22.531,67.0
22.546,89.57
22.562,101.22
22.578,102.88
22.593,101.49
22.609,105.32
22.625,118.72
22.640,140.27
22.656,164.17
22.671,183.93
22.687,197.55
22.703,202.01
22.718,198.29
22.734,188.49
22.750,173.68
22.765,153.59
22.781,127.35
22.796,94.61
22.812,55.85
22.828,11.96
22.843,-35.55
22.859,-83.23
22.875,-127.3
22.890,-164.49
22.906,-192.62
22.921,-210.93
22.937,-219.84
22.953,-220.64
22.968,-215.05
22.984,-205.48
23.000,-192.93
23.015,-177.72
23.031,-160.34
23.046,-141.5
23.062,-121.97
23.078,-102.15
23.093,-81.43
23.109,-57.59
23.125,-32.79
23.140,-6.94
23.156,21.08
23.171,51.37
23.187,82.37
23.203,111.68
23.218,136.94
23.234,157.06
23.250,172.47
23.265,184.63
23.281,196.24
23.296,211.4
23.312,232.19
23.328,257.67
23.343,284.88
23.359,310.23
23.375,331.02
23.390,345.92
23.406,354.73
23.421,358.07
23.437,358.91
23.453,359.24
23.468,359.18
23.484,357.65
23.500,352.5
23.515,340.94
23.531,319.53
23.546,285.64
23.562,223.84
23.578,133.91
23.593,32.24
23.609,-55.2
23.625,-106.98
23.640,-116.99
23.656,-91.81
23.671,-47.39
23.687,2.98
23.703,50.85
23.718,94.77
23.734,134.73
23.750,162.96
23.765,171.51
23.781,153.87
23.796,107.26
23.812,33.28
23.828,-62.22
23.843,-171.42
23.859,-284.4
23.875,-393.38
23.890,-492.85
23.906,-577.78
23.921,-642.11
23.937,-679.67
23.953,-685.83
23.968,-659.56
23.984,-604.85
24.000,-528.02
24.015,-437.55
24.031,-342.12
24.046,-248.6
24.062,-161.03
24.078,-81.86
24.093,-12.79
24.109,44.73
24.125,89.07
24.140,120.01
24.156,138.06
24.171,144.5
24.187,141.52
24.203,131.54
24.218,116.33
24.234,95.67
24.250,67.51
24.265,29.21
24.281,-16.97
24.296,-62.68
24.312,-95.57
24.328,-105.16
24.343,-87.72
24.359,-46.93
24.375,8.01
24.390,66.16
24.406,118.46
24.421,161.85
24.437,197.05
24.453,225.06
24.468,245.54
24.484,257.45
24.500,259.72
24.515,251.61
24.531,233.18
24.546,205.31
24.562,170.11
24.578,125.87
24.593,73.49
24.609,13.48
24.625,-52.69
24.640,-118.51
24.656,-174.48
24.671,-211.0
24.687,-221.01
24.703,-202.52
24.718,-160.18
24.734,-104.18
24.750,-49.12
24.765,-7.25
24.781,14.44
24.796,15.16
24.812,-1.15
24.828,-28.08
24.843,-60.17
24.859,-94.25
24.875,-128.58
24.890,-164.46
24.906,-198.73
24.921,-226.01
24.937,-241.34
24.953,-241.93
24.968,-227.34
24.984,-199.4
25.000,-160.74
25.015,-111.38
25.031,-57.16
25.046,-1.93
25.062,51.94
25.078,102.66
25.093,148.2
25.109,186.09
25.125,213.49
25.140,228.68
25.156,234.6
25.171,230.08
25.187,217.3
25.203,199.86
25.218,181.32
25.234,164.23
25.250,150.18
25.265,136.02
25.281,124.62
25.296,117.18
25.312,111.37
25.328,103.65
25.343,89.05
25.359,64.05
25.375,28.69
25.390,-12.36
25.406,-51.46
25.421,-80.2
25.437,-94.57
25.453,-95.5
25.468,-85.86
25.484,-69.74
25.500,-49.99
25.515,-28.0
25.531,-4.23
25.546,20.47
25.562,45.92
25.578,69.21
25.593,87.11
25.609,98.01
25.625,101.23
25.640,96.69
25.656,84.67
25.671,65.31
25.687,37.15
25.703,2.31
25.718,-37.65
25.734,-79.74
25.750,-118.46
25.765,-146.65
25.781,-157.66
25.796,-148.32
25.812,-120.99
25.828,-83.02
25.843,-44.19
25.859,-13.63
25.875,4.19
25.890,10.31
25.906,9.25
25.921,6.14
25.937,4.02
25.953,3.13
25.968,2.5
25.984,1.27
26.000,-0.66
26.015,-2.14
26.031,-1.82
26.046,0.77
26.062,5.04
26.078,9.6
26.093,12.81
26.109,13.76
26.125,12.61
26.140,10.24
26.156,8.04
26.171,7.15
26.187,7.82
26.203,9.35
26.218,10.25
26.234,8.66
26.250,3.25
26.265,-6.33
26.281,-19.33
26.296,-33.94
26.312,-47.72
26.328,-58.34
26.343,-64.16
26.359,-63.87
26.375,-57.44
26.390,-45.91
26.406,-31.61
26.421,-17.51
26.437,-6.23
26.453,0.93
26.468,4.35
26.484,5.72
26.500,7.06
26.515,9.41
26.531,12.87
26.546,16.48
26.562,19.03
26.578,19.77
26.593,18.48
26.609,15.53
26.625,11.96
26.640,9.21
26.656,8.52
26.671,10.69
26.687,14.94
26.703,18.92
26.718,19.78
26.734,15.53
26.750,6.65
26.765,-3.57
26.781,-10.55
26.796,-10.81
26.812,-3.57
26.828,8.75
26.843,21.45
26.859,29.67
26.875,29.67
26.890,20.24
26.906,3.21
26.921,-16.5
26.937,-32.46
26.953,-38.68
26.968,-32.03
26.984,-13.95
27.000,10.45
27.015,34.46
27.031,53.32
27.046,65.71
27.062,73.45
27.078,78.82
27.093,82.39
27.109,82.16
27.125,75.07
27.140,59.65
27.156,37.23
27.171,11.97
27.187,-11.49
27.203,-30.15
27.218,-43.69
27.234,-53.27
27.250,-60.38
27.265,-65.98
27.281,-70.42
27.296,-74.29
27.312,-78.63
27.328,-84.96
27.343,-92.83
27.359,-101.36
27.375,-108.28
27.390,-110.53
27.406,-105.74
27.421,-93.14
27.437,-73.89
27.453,-50.47
27.468,-25.85
27.484,-2.41
27.500,18.3
27.515,35.78
27.531,50.36
27.546,62.47
27.562,72.37
27.578,80.04
27.593,85.2
27.609,87.83
27.625,88.35
27.640,87.46
27.656,85.6
27.671,82.42
27.687,76.63
27.703,67.05
27.718,53.91
27.734,39.71
27.750,28.6
27.765,24.29
27.781,27.28
27.796,33.19
27.812,34.18
27.828,22.62
27.843,-4.1
27.859,-40.93
27.875,-76.77
27.890,-99.24
27.906,-100.52
27.921,-80.91
27.937,-47.77
27.953,-10.85
27.968,22.75
27.984,51.21
28.000,76.83
28.015,102.39
28.031,127.51
28.046,147.84
28.062,156.97
28.078,149.97
28.093,125.89
28.109,88.37
28.125,43.73
28.140,-1.41
28.156,-41.96
28.171,-75.02
28.187,-99.4
28.203,-114.8
28.218,-121.39
28.234,-120.4
28.250,-114.68
28.265,-109.32
28.281,-110.58
28.296,-123.85
28.312,-150.92
28.328,-188.07
28.343,-226.26
28.359,-253.57
28.375,-259.45
28.390,-238.31
28.406,-191.35
28.421,-125.74
28.437,-51.73
28.453,20.55
28.468,83.44
28.484,132.57
28.500,166.3
28.515,184.73
28.531,189.3
28.546,182.48
28.562,167.71
28.578,149.42
28.593,132.4
28.609,120.81
28.625,117.36
28.640,122.36
28.656,132.89
28.671,143.0
28.687,145.24
28.703,133.57
28.718,106.64
28.734,69.4
28.750,31.54
28.765,3.78
28.781,-6.9
28.796,-0.45
28.812,16.73
28.828,35.4
28.843,48.02
28.859,51.87
28.875,48.73
28.890,42.09
28.906,34.49
28.921,26.1
28.937,15.64
28.953,2.3
28.968,-13.19
28.984,-29.02
29.000,-43.44
29.015,-56.25
29.031,-69.04
29.046,-84.02
29.062,-102.75
29.078,-125.23
29.093,-149.56
29.109,-172.92
29.125,-192.68
29.140,-207.06
29.156,-215.98
29.171,-221.24
29.187,-225.63
29.203,-231.67
29.218,-240.12
29.234,-248.82
29.250,-253.44
29.265,-249.56
29.281,-234.41
29.296,-208.18
29.312,-173.19
29.328,-131.97
29.343,-86.17
29.359,-36.6
29.375,15.52
29.390,66.93
29.406,111.86
29.421,144.14
29.437,159.64
29.453,158.83
29.468,147.06
29.484,131.66
29.500,119.06
29.515,112.5
29.531,111.22
29.546,111.78
29.562,110.44
29.578,105.02
29.593,95.4
29.609,82.75
29.625,67.84
29.640,50.49
29.656,30.36
29.671,8.34
29.687,-12.26
29.703,-26.18
29.718,-28.64
29.734,-18.23
29.750,1.68
29.765,23.87
29.781,40.82
29.796,48.1
29.812,45.75
29.828,37.6
29.843,28.15
29.859,19.9
29.875,12.75
29.890,5.45
29.906,-2.63
29.921,-10.28
29.937,-15.38
29.953,-16.6
29.968,-14.14
29.984,-9.92
30.000,-6.68
30.015,-7.03
30.031,-12.79
30.046,-25.03
30.062,-43.48
30.078,-65.82
30.093,-87.29
30.109,-101.69
30.125,-103.74
30.140,-91.94
30.156,-69.87
30.171,-44.58
30.187,-23.28
30.203,-9.49
30.218,-1.73
30.234,4.87
30.250,14.91
30.265,29.55
30.281,45.97
30.296,59.36
30.312,66.28
30.328,66.71
30.343,64.04
30.359,63.01
30.375,66.97
30.390,76.58
30.406,89.78
30.421,103.2
30.437,113.48
30.453,118.39
30.468,117.04
30.484,109.44
30.500,96.21
30.515,78.11
30.531,56.61
30.546,34.2
30.562,14.54
30.578,1.51
30.593,-2.02
30.609,4.45
30.625,18.74
30.640,36.67
30.656,53.58
30.671,66.04
30.687,72.29
30.703,71.82
30.718,64.46
30.734,50.35
30.750,30.22
30.765,6.45
30.781,-16.88
30.796,-34.71
30.812,-42.59
30.828,-38.26
30.843,-22.77
30.859,0.46
30.875,27.74
30.890,56.79
30.906,87.23
30.921,119.82
30.937,154.58
30.953,190.15
30.968,223.82
30.984,251.51
31.000,269.45
31.015,275.48
31.031,269.93
31.046,255.64
31.062,236.73
31.078,216.78
31.093,198.2
31.109,181.42
31.125,163.52
31.140,138.65
31.156,99.65
31.171,40.29
31.187,-41.43
31.203,-142.42
31.218,-255.69
31.234,-371.94
31.250,-475.26
31.265,-547.21
31.281,-573.39
31.296,-550.66
31.312,-489.64
31.328,-406.65
31.343,-316.25
31.359,-227.89
31.375,-145.78
31.390,-70.57
31.406,-2.87
31.421,56.93
31.437,108.7
31.453,151.36
31.468,185.4
31.484,213.52
31.500,236.79
31.515,254.71
31.531,265.71
31.546,266.38
31.562,252.69
31.578,221.35
31.593,168.97
31.609,95.96
31.625,6.13
31.640,-94.31
31.656,-197.86
31.671,-297.57
31.687,-389.22
31.703,-472.68
31.718,-531.29
31.734,-554.08
31.750,-535.83
31.765,-480.44
31.781,-399.28
31.796,-306.32
31.812,-213.86
31.828,-130.27
31.843,-60.65
31.859,-6.53
31.875,30.76
31.890,53.38
31.906,65.11
31.921,70.85
31.937,75.57
31.953,82.82
31.968,94.17
31.984,109.32
32.000,124.71
32.015,133.6
32.031,130.07
32.046,109.18
32.062,67.92
32.078,6.64
32.093,-70.6
32.109,-155.21
32.125,-238.08
32.140,-310.29
32.156,-366.39
32.171,-404.56
32.187,-426.95
32.203,-437.36
32.218,-438.46
32.234,-430.83
32.250,-404.83
32.265,-358.32
32.281,-295.39
32.296,-225.53
32.312,-155.77
32.328,-87.52
32.343,-19.17
32.359,53.56
32.375,126.05
32.390,194.95
32.406,255.16
32.421,302.59
32.437,335.29
32.453,354.85
32.468,365.18
32.484,371.51
32.500,379.16
32.515,391.82
32.531,411.94
32.546,438.39
32.562,468.68
32.578,500.35
32.593,531.88
32.609,562.2
32.625,590.41
32.640,615.95
32.656,638.69
32.671,659.99
32.687,679.84
32.703,696.6
32.718,706.52
32.734,704.34
32.750,684.79
32.765,645.2
32.781,587.13
32.796,516.66
32.812,443.24
32.828,375.23
32.843,317.86
32.859,272.11
32.875,236.18
32.890,207.27
32.906,183.37
32.921,163.59
32.937,147.48
32.953,134.47
32.968,122.93
32.984,111.02
33.000,97.46
33.015,82.27
33.031,66.61
33.046,52.33
33.062,40.88
33.078,32.74
33.093,27.32
33.109,23.13
33.125,18.42
33.140,11.78
33.156,2.51
33.171,-9.25
33.187,-22.78
33.203,-37.21
33.218,-51.7
33.234,-65.69
33.250,-78.89
33.265,-90.93
33.281,-101.59
33.296,-110.62
33.312,-117.64
33.328,-122.44
33.343,-125.01
33.359,-125.69
33.375,-125.39
33.390,-125.79
33.406,-129.04
33.421,-137.62
33.437,-153.47
33.453,-177.26
33.468,-207.88
33.484,-242.33
33.500,-276.39
33.515,-305.57
33.531,-326.16
33.546,-335.41
33.562,-332.06
33.578,-315.99
33.593,-288.13
33.609,-250.29
33.625,-205.13
33.640,-156.19
33.656,-107.19
33.671,-61.23
33.687,-19.95
33.703,15.98
33.718,46.05
33.734,68.79
33.750,81.54
33.765,81.82
33.781,68.81
33.796,44.75
33.812,14.68
33.828,-15.21
33.843,-40.24
33.859,-58.86
33.875,-72.81
33.890,-85.46
33.906,-99.19
33.921,-114.04
33.937,-127.82
33.953,-137.82
33.968,-142.6
33.984,-143.06
34.000,-142.15
34.015,-143.63
34.031,-150.67
34.046,-164.33
34.062,-183.61
34.078,-205.74
34.093,-227.0
34.109,-243.69
34.125,-252.85
34.140,-253.19
34.156,-245.96
34.171,-235.31
34.187,-227.29
34.203,-227.94
34.218,-240.1
34.234,-260.96
34.250,-281.98
34.265,-291.53
34.281,-280.08
34.296,-244.99
34.312,-192.46
34.328,-135.05
34.343,-86.1
34.359,-53.62
34.375,-37.46
34.390,-30.92
34.406,-25.52
34.421,-16.35
34.437,-4.57
34.453,3.48
34.468,0.6
34.484,-16.72
34.500,-46.02
34.515,-80.38
34.531,-112.11
34.546,-136.7
34.562,-154.49
34.578,-169.54
34.593,-186.8
34.609,-209.58
34.625,-238.57
34.640,-272.05
34.656,-306.79
34.671,-338.73
34.687,-362.8
34.703,-373.13
34.718,-363.82
34.734,-330.7
34.750,-273.62
34.765,-197.47
34.781,-111.2
34.796,-25.42
34.812,50.58
34.828,111.01
34.843,154.58
34.859,183.95
34.875,204.44
34.890,221.57
34.906,238.57
34.921,254.76
34.937,266.16
34.953,267.45
34.968,254.54
34.984,226.53
35.000,185.93
35.015,137.96
35.031,89.55
35.046,48.31
35.062,21.32
35.078,13.29
35.093,24.33
35.109,48.7
35.125,75.5
35.140,92.51
35.156,91.6
35.171,72.89
35.187,44.59
35.203,18.67
35.218,4.4
35.234,3.47
35.250,9.65
35.265,12.32
35.281,2.11
35.296,-24.57
35.312,-64.36
35.328,-108.95
35.343,-148.47
35.359,-174.71
35.375,-182.56
35.390,-170.05
35.406,-138.58
35.421,-93.4
35.437,-43.87
35.453,-1.99
35.468,20.99
35.484,19.03
35.500,-5.37
35.515,-41.17
35.531,-72.25
35.546,-83.91
35.562,-68.93
35.578,-30.58
35.593,18.8
35.609,62.85
35.625,87.24
35.640,83.96
35.656,52.89
35.671,1.36
35.687,-58.36
35.703,-112.06
35.718,-146.36
35.734,-151.69
35.750,-124.11
35.765,-66.18
35.781,13.38
35.796,101.71
35.812,184.92
35.828,250.9
35.843,291.65
35.859,303.98
35.875,289.09
35.890,251.57
35.906,198.72
35.921,139.31
35.937,82.01
35.953,33.41
35.968,-3.96
35.984,-31.51
36.000,-53.21
36.015,-72.82
36.031,-91.53
36.046,-107.79
36.062,-119.33
36.078,-125.51
36.093,-128.38
36.109,-131.55
36.125,-136.47
36.140,-140.35
36.156,-136.49
36.171,-117.67
36.187,-79.76
36.203,-24.43
36.218,42.16
36.234,111.98
36.250,177.33
36.265,231.92
36.281,270.2
36.296,287.2
36.312,280.16
36.328,250.68
36.343,206.09
36.359,157.94
36.375,118.02
36.390,92.92
36.406,82.73
36.421,82.37
36.437,85.33
36.453,87.12
36.468,85.89
36.484,81.27
36.500,72.41
36.515,57.26
36.531,33.23
36.546,0.57
36.562,-36.16
36.578,-68.94
36.593,-89.57
36.609,-93.86
36.625,-83.42
36.640,-64.54
36.656,-44.74
36.671,-30.8
36.687,-24.92
36.703,-24.95
36.718,-26.52
36.734,-26.21
36.750,-23.48
36.765,-19.91
36.781,-17.62
36.796,-17.74
36.812,-23.57
36.828,-36.98
36.843,-57.92
36.859,-84.61
36.875,-114.98
36.890,-147.53
36.906,-180.36
36.921,-210.84
36.937,-235.87
36.953,-259.87
36.968,-286.41
36.984,-314.42
37.000,-337.79
37.015,-350.46
37.031,-351.32
37.046,-344.85
37.062,-338.24
37.078,-336.88
37.093,-352.57
37.109,-387.57
37.125,-431.08
37.140,-464.31
37.156,-473.33
37.171,-457.39
37.187,-427.09
37.203,-396.12
37.218,-373.46
37.234,-376.8
37.250,-415.34
37.265,-486.34
37.281,-577.88
37.296,-678.09
37.312,-780.29
37.328,-880.44
37.343,-972.69
37.359,-963.15
37.375,-799.61
37.390,-500.17
37.406,-146.1
37.421,179.68
37.437,435.1
37.453,616.07
37.468,737.29
37.484,815.26
37.500,875.51
37.515,916.28
37.531,930.1
37.546,915.28
37.562,879.94
37.578,835.18
37.593,788.62
37.609,737.15
37.625,672.76
37.640,597.28
37.656,509.95
37.671,418.04
37.687,333.59
37.703,267.81
37.718,224.44
37.734,198.08
37.750,179.32
37.765,161.7
37.781,144.4
37.796,121.17
37.812,88.08
37.828,45.22
37.843,-3.35
37.859,-52.4
37.875,-97.9
37.890,-138.31
37.906,-169.47
37.921,-187.48
37.937,-195.34
37.953,-197.67
37.968,-197.81
37.984,-196.49
38.000,-192.6
38.015,-185.02
38.031,-172.49
38.046,-154.06
38.062,-129.69
38.078,-102.68
38.093,-76.94
38.109,-55.23
38.125,-37.83
38.140,-22.0
38.156,-9.32
38.171,1.39
38.187,12.33
38.203,25.41
38.218,41.34
38.234,59.98
38.250,80.76
38.265,103.05
38.281,126.59
38.296,151.15
38.312,176.8
38.328,202.83
38.343,227.35
38.359,247.49
38.375,260.26
38.390,263.82
38.406,257.96
38.421,244.49
38.437,226.63
38.453,208.58
38.468,193.79
38.484,184.16
38.500,179.91
38.515,180.06
38.531,183.24
38.546,188.25
38.562,194.49
38.578,201.9
38.593,211.3
38.609,223.59
38.625,239.29
38.640,257.65
38.656,276.04
38.671,289.9
38.687,293.6
38.703,282.74
38.718,256.36
38.734,218.58
38.750,177.35
38.765,141.74
38.781,118.31
38.796,108.72
38.812,109.48
38.828,114.25
38.843,117.09
38.859,114.64
38.875,106.5
38.890,94.1
38.906,79.49
38.921,65.01
38.937,53.54
38.953,48.45
38.968,52.34
38.984,65.31
39.000,83.87
39.015,101.68
39.031,112.51
39.046,113.48
39.062,106.63
39.078,97.35
39.093,91.37
39.109,91.17
39.125,95.09
39.140,99.14
39.156,99.89
39.171,96.7
39.187,91.21
39.203,85.41
39.218,79.42
39.234,71.43
39.250,58.95
39.265,41.0
39.281,18.91
39.296,-4.17
39.312,-25.28
39.328,-43.57
39.343,-60.12
39.359,-76.87
39.375,-94.75
39.390,-112.46
39.406,-126.83
39.421,-134.45
39.437,-133.06
39.453,-122.54
39.468,-105.57
39.484,-86.49
39.500,-70.22
39.515,-60.17
39.531,-56.77
39.546,-56.17
39.562,-51.63
39.578,-37.51
39.593,-12.5
39.609,17.69
39.625,42.68
39.640,52.37
39.656,42.1
39.671,14.85
39.687,-19.63
39.703,-49.44
39.718,-66.43
39.734,-68.16
39.750,-57.73
39.765,-40.06
39.781,-18.62
39.796,5.73
39.812,32.98
39.828,63.6
39.843,97.82
39.859,135.42
39.875,176.06
39.890,219.77
39.906,267.38
39.921,319.93
39.937,377.06
39.953,432.64
39.968,478.57
39.984,506.99
40.000,511.36
40.015,487.04
40.031,431.4
40.046,344.87
40.062,231.95
40.078,100.31
40.093,-47.02
40.109,-203.58
40.125,-358.32
40.140,-496.76
40.156,-605.51
40.171,-676.26
40.187,-706.83
40.203,-699.61
40.218,-661.19
40.234,-611.82
40.250,-569.58
40.265,-544.91
40.281,-539.22
40.296,-550.24
40.312,-576.41
40.328,-617.15
40.343,-670.75
40.359,-733.4
40.375,-813.46
40.390,-913.87
40.406,-1027.71
40.421,-1139.89
40.437,-1235.97
40.453,-1309.66
40.468,-1363.27
40.484,-1403.56
40.500,-1348.3
40.515,-1157.61
40.531,-851.17
40.546,-500.08
40.562,-176.35
40.578,83.02
40.593,273.32
40.609,406.22
40.625,497.44
40.640,560.76
40.656,591.79
40.671,587.33
40.687,553.31
40.703,506.18
40.718,465.41
40.734,444.77
40.750,449.63
40.765,477.34
40.781,519.62
40.796,554.55
40.812,564.94
40.828,546.17
40.843,506.88
40.859,461.08
40.875,419.71
40.890,387.58
40.906,364.47
40.921,347.81
40.937,328.56
40.953,301.22
40.968,266.65
40.984,230.8
41.000,199.67
41.015,175.53
41.031,157.14
41.046,141.67
41.062,126.73
41.078,108.18
41.093,83.98
41.109,55.32
41.125,25.67
41.140,-1.41
41.156,-24.03
41.171,-41.66
41.187,-54.3
41.203,-62.86
41.218,-67.07
41.234,-66.56
41.250,-60.74
41.265,-49.37
41.281,-33.21
41.296,-14.43
41.312,4.03
41.328,19.23
41.343,29.01
41.359,32.78
41.375,30.83
41.390,24.38
41.406,15.02
41.421,4.49
41.437,-5.8
41.453,-14.68
41.468,-21.45
41.484,-25.92
41.500,-27.84
41.515,-27.69
41.531,-26.28
41.546,-24.56
41.562,-23.67
41.578,-24.72
41.593,-28.58
41.609,-35.69
41.625,-46.24
41.640,-59.47
41.656,-74.56
41.671,-90.57
41.687,-106.4
41.703,-120.9
41.718,-133.07
41.734,-142.08
41.750,-147.15
41.765,-147.89
41.781,-143.48
41.796,-133.71
41.812,-118.9
41.828,-99.82
41.843,-77.53
41.859,-53.26
41.875,-28.1
41.890,-2.56
41.906,18.71
41.921,33.19
41.937,39.31
41.953,36.67
41.968,25.85
41.984,8.3
42.000,-14.05
42.015,-39.04
42.031,-64.72
42.046,-89.45
42.062,-111.44
42.078,-129.47
42.093,-142.95
42.109,-151.64
42.125,-155.48
42.140,-154.56
42.156,-149.1
42.171,-139.39
42.187,-125.87
42.203,-108.63
42.218,-88.05
42.234,-64.97
42.250,-40.57
42.265,-16.28
42.281,6.29
42.296,25.66
42.312,40.59
42.328,50.2
42.343,54.49
42.359,53.87
42.375,49.24
42.390,41.77
42.406,32.71
42.421,23.24
42.437,14.28
42.453,6.4
42.468,-0.25
42.484,-5.62
42.500,-10.02
42.515,-13.95
42.531,-18.13
42.546,-23.21
42.562,-29.79
42.578,-38.34
42.593,-49.28
42.609,-62.92
42.625,-79.21
42.640,-97.83
42.656,-118.15
42.671,-139.27
42.687,-159.99
42.703,-178.8
42.718,-194.03
42.734,-204.15
42.750,-207.87
42.765,-204.38
42.781,-193.5
42.796,-175.73
42.812,-152.17
42.828,-124.45
42.843,-94.38
42.859,-63.88
42.875,-34.79
42.890,-8.57
42.906,13.74
42.921,31.63
42.937,45.13
42.953,54.76
42.968,61.42
42.984,66.18
43.000,70.08
43.015,73.91
43.031,78.11
43.046,82.71
43.062,87.49
43.078,92.24
43.093,97.01
43.109,102.24
43.125,108.74
43.140,117.51
43.156,129.32
43.171,144.54
43.187,162.83
43.203,183.29
43.218,204.73
43.234,226.08
43.250,246.71
43.265,266.42
43.281,285.32
43.296,303.39
43.312,320.34
43.328,335.35
43.343,347.5
43.359,356.11
43.375,361.17
43.390,363.55
43.406,364.79
43.421,366.44
43.437,369.62
43.453,374.75
43.468,381.35
43.484,387.94
43.500,392.08
43.515,390.7
43.531,380.6
43.546,359.02
43.562,324.3
43.578,275.95
43.593,214.61
43.609,141.91
43.625,60.15
43.640,-27.78
43.656,-118.66
43.671,-208.81
43.687,-293.98
43.703,-368.67
43.718,-426.46
43.734,-460.78
43.750,-466.68
43.765,-442.91
43.781,-393.07
43.796,-325.24
43.812,-249.71
43.828,-176.03
43.843,-110.24
43.859,-54.25
43.875,-6.97
43.890,33.89
43.906,70.17
43.921,102.95
43.937,132.94
43.953,161.3
43.968,190.05
43.984,221.9
44.000,259.66
44.015,305.17
44.031,358.15
44.046,415.04
44.062,469.35
44.078,512.8
44.093,537.78
44.109,539.67
44.125,517.92
44.140,475.59
44.156,417.7
44.171,349.94
44.187,278.19
44.203,209.12
44.218,150.42
44.234,109.98
44.250,93.5
44.265,101.32
44.281,126.94
44.296,157.95
44.312,179.95
44.328,181.19
44.343,156.09
44.359,106.01
44.375,37.2
44.390,-42.01
44.406,-124.31
44.421,-204.36
44.437,-278.54
44.453,-344.0
44.468,-398.52
44.484,-440.76
44.500,-470.92
44.515,-490.42
44.531,-500.73
44.546,-502.14
44.562,-493.09
44.578,-471.2
44.593,-434.86
44.609,-384.98
44.625,-325.03
44.640,-259.56
44.656,-192.1
44.671,-123.92
44.687,-54.63
44.703,15.52
44.718,83.27
44.734,141.75
44.750,182.1
44.765,196.78
44.781,182.79
44.796,143.21
44.812,86.7
44.828,25.25
44.843,-28.89
44.859,-65.82
44.875,-79.68
44.890,-68.99
44.906,-35.87
44.921,15.43
44.937,80.23
44.953,154.66
44.968,235.73
44.984,320.18
45.000,402.94
45.015,476.24
45.031,530.52
45.046,557.03
45.062,551.19
45.078,514.46
45.093,454.2
45.109,381.38
45.125,307.52
45.140,242.24
45.156,191.94
45.171,159.52
45.187,144.35
45.203,142.63
45.218,147.54
45.234,150.55
45.250,143.4
45.265,120.02
45.281,78.28
45.296,19.58
45.312,-52.45
45.328,-133.81
45.343,-220.98
45.359,-310.78
45.375,-399.88
45.390,-484.53
45.406,-561.5
45.421,-628.76
45.437,-685.69
45.453,-731.99
45.468,-766.2
45.484,-784.91
45.500,-783.5
45.515,-758.56
45.531,-709.87
45.546,-641.48
45.562,-560.24
45.578,-473.2
45.593,-384.86
45.609,-296.24
45.625,-206.26
45.640,-114.35
45.656,-23.36
45.671,60.18
45.687,127.71
45.703,172.58
45.718,193.38
45.734,195.65
45.750,190.49
45.765,190.53
45.781,205.49
45.796,239.04
45.812,289.15
45.828,350.4
45.843,416.89
45.859,483.56
45.875,545.65
45.890,596.88
45.906,629.79
45.921,637.54
45.937,616.79
45.953,569.76
45.968,503.85
45.984,428.66
46.000,352.4
46.015,279.31
46.031,209.19
46.046,140.61
46.062,73.72
46.078,12.36
46.093,-36.66
46.109,-66.46
46.125,-73.9
46.140,-61.82
46.156,-38.79
46.171,-17.45
46.187,-8.66
46.203,-18.16
46.218,-44.74
46.234,-81.35
46.250,-118.31
46.265,-147.19
46.281,-163.67
46.296,-167.4
46.312,-165.35
46.328,-165.51
46.343,-175.36
46.359,-199.68
46.375,-239.37
46.390,-291.76
46.406,-352.15
46.421,-415.13
46.437,-472.56
46.453,-522.26
46.468,-558.33
46.484,-574.02
46.500,-562.6
46.515,-519.44
46.531,-444.53
46.546,-343.63
46.562,-227.59
46.578,-105.37
46.593,4.81
46.609,92.4
46.625,151.4
46.640,181.38
46.656,187.13
46.671,177.37
46.687,162.94
46.703,154.04
46.718,163.98
46.734,189.88
46.750,231.13
46.765,284.93
46.781,348.07
46.796,418.21
46.812,493.59
46.828,571.69
46.843,610.07
46.859,646.4
46.875,665.34
46.890,659.74
46.906,626.72
46.921,568.91
46.937,493.49
46.953,409.17
46.968,323.17
46.984,239.28
47.000,164.03
47.015,90.27
47.031,17.94
47.046,-50.64
47.062,-111.1
47.078,-158.99
47.093,-192.23
47.109,-212.47
47.125,-224.61
47.140,-230.28
47.156,-239.52
47.171,-254.92
47.187,-275.34
47.203,-296.61
47.218,-312.91
47.234,-319.16
47.250,-313.52
47.265,-299.1
47.281,-281.0
47.296,-272.58
47.312,-282.55
47.328,-313.57
47.343,-360.23
47.359,-410.4
47.375,-449.74
47.390,-467.12
47.406,-458.34
47.421,-424.69
47.437,-374.21
47.453,-313.52
47.468,-247.09
47.484,-177.83
47.500,-108.72
47.515,-44.55
47.531,8.39
47.546,44.62
47.562,62.95
47.578,66.49
47.593,63.35
47.609,63.33
47.625,74.51
47.640,101.12
47.656,143.21
47.671,197.9
47.687,261.47
47.703,330.63
47.718,402.33
47.734,472.33
47.750,534.15
47.765,579.49
47.781,600.64
47.796,593.51
47.812,559.56
47.828,505.52
47.843,440.72
47.859,373.45
47.875,308.17
47.890,245.03
47.906,181.41
47.921,114.94
47.937,46.15
47.953,-20.32
47.968,-76.51
47.984,-113.97
48.000,-127.38
48.015,-117.47
48.031,-91.84
48.046,-63.18
48.062,-44.88
48.078,-46.03
48.093,-68.53
48.109,-107.39
48.125,-153.92
48.140,-199.77
48.156,-239.53
48.171,-271.2
48.187,-294.82
48.203,-311.32
48.218,-322.01
48.234,-328.88
48.250,-334.71
48.265,-342.21
48.281,-352.46
48.296,-363.87
48.312,-372.35
48.328,-373.22
48.343,-363.33
48.359,-342.4
48.375,-312.77
48.390,-277.69
48.406,-239.76
48.421,-200.4
48.437,-160.69
48.453,-122.62
48.468,-89.78
48.484,-66.55
48.500,-56.54
48.515,-60.72
48.531,-76.3
48.546,-96.9
48.562,-114.08
48.578,-119.58
48.593,-107.57
48.609,-76.1
48.625,-26.66
48.640,37.17
48.656,111.71
48.671,193.89
48.687,280.74
48.703,367.53
48.718,446.71
48.734,508.39
48.750,542.88
48.765,544.41
48.781,513.65
48.796,457.41
48.812,385.88
48.828,308.66
48.843,232.38
48.859,161.2
48.875,98.78
48.890,50.16
48.906,20.99
48.921,14.66
48.937,28.85
48.953,54.69
48.968,79.13
48.984,89.98
49.000,80.77
49.015,52.38
49.031,11.11
49.046,-35.5
49.062,-82.18
49.078,-127.06
49.093,-170.0
49.109,-210.59
49.125,-247.61
49.140,-280.27
49.156,-309.97
49.171,-340.42
49.187,-375.47
49.203,-415.88
49.218,-456.96
49.234,-489.31
49.250,-502.33
49.265,-488.67
49.281,-447.26
49.296,-383.31
49.312,-305.59
49.328,-222.74
49.343,-141.21
49.359,-65.08
49.375,2.34
49.390,57.19
49.406,94.58
49.421,109.93
49.437,101.23
49.453,71.13
49.468,27.85
49.484,-16.28
49.500,-47.79
49.515,-56.05
49.531,-36.39
49.546,9.22
49.562,74.27
49.578,150.98
49.593,232.78
49.609,314.86
49.625,392.77
49.640,460.75
49.656,511.44
49.671,537.72
49.687,535.41
49.703,505.52
49.718,454.24
49.734,390.59
49.750,322.7
49.765,255.42
49.781,189.91
49.796,125.75
49.812,63.96
49.828,8.73
49.843,-33.48
49.859,-57.13
49.875,-60.91
49.890,-49.71
49.906,-33.1
49.921,-21.59
49.937,-22.53
49.953,-37.72
49.968,-64.05
49.984,-96.27
50.000,-129.76
50.015,-162.18
50.031,-193.73
50.046,-226.2
50.062,-262.01
50.078,-302.77
50.093,-347.87
50.109,-393.45
50.125,-432.33
50.140,-455.95
50.156,-458.05
50.171,-437.85
50.187,-400.55
50.203,-354.75
50.218,-307.81
50.234,-261.87
50.250,-214.11
50.265,-159.74
50.281,-96.89
50.296,-29.26
50.312,34.62
50.328,85.33
50.343,116.45
50.359,126.21
50.375,117.4
50.390,95.2
50.406,65.94
50.421,36.4
50.437,13.67
50.453,4.56
50.468,14.63
50.484,46.84
50.500,100.83
50.515,172.78
50.531,255.41
50.546,338.86
50.562,411.85
50.578,463.68
50.593,486.79
50.609,478.81
50.625,442.91
50.640,386.23
50.656,317.04
50.671,242.04
50.687,165.83
50.703,92.48
50.718,27.36
50.734,-21.81
50.750,-47.24
50.765,-43.98
50.781,-13.68
50.796,35.07
50.812,88.69
50.828,132.88
50.843,156.61
50.859,154.14
50.875,125.52
50.890,74.97
50.906,9.38
50.921,-63.21
50.937,-134.5
50.953,-197.54
50.968,-248.5
50.984,-287.89
51.000,-320.09
51.015,-350.63
51.031,-382.78
51.046,-414.88
51.062,-440.51
51.078,-451.44
51.093,-441.69
51.109,-410.39
51.125,-361.93
51.140,-303.17
51.156,-239.7
51.171,-173.7
51.187,-104.59
51.203,-31.84
51.218,41.71
51.234,108.9
51.250,159.73
51.265,185.13
51.281,180.22
51.296,146.68
51.312,92.49
51.328,30.19
51.343,-26.0
51.359,-63.64
51.375,-74.39
51.390,-55.26
51.406,-8.26
51.421,61.14
51.437,145.74
51.453,237.57
51.468,328.06
51.484,408.21
51.500,468.97
51.515,502.76
51.531,505.53
51.546,478.11
51.562,426.17
51.578,358.02
51.593,281.91
51.609,204.22
51.625,129.46
51.640,61.6
51.656,5.23
51.671,-34.68
51.687,-54.81
51.703,-55.7
51.718,-42.95
51.734,-26.26
51.750,-15.98
51.765,-19.59
51.781,-39.23
51.796,-71.59
51.812,-109.92
51.828,-147.18
51.843,-178.61
51.859,-203.34
51.875,-224.33
51.890,-246.83
51.906,-275.94
51.921,-314.05
51.937,-358.92
51.953,-403.53
51.968,-438.14
51.984,-453.69
52.000,-445.45
52.015,-415.24
52.031,-370.51
52.046,-321.05
52.062,-274.62
52.078,-234.03
52.093,-197.1
52.109,-159.43
52.125,-118.03
52.140,-73.67
52.156,-30.6
52.171,5.89
52.187,32.31
52.203,48.53
52.218,57.41
52.234,62.76
52.250,67.76
52.265,74.23
52.281,83.28
52.296,96.59
52.312,117.27
52.328,149.81
52.343,198.53
52.359,265.43
52.375,347.85
52.390,437.7
52.406,522.6
52.421,589.03
52.437,626.34
52.453,629.98
52.468,602.28
52.484,550.53
52.500,483.65
52.515,409.13
52.531,332.24
52.546,257.05
52.562,188.25
52.578,131.8
52.593,93.41
52.609,75.77
52.625,76.24
52.640,86.93
52.656,97.18
52.671,97.33
52.687,81.94
52.703,50.73
52.718,7.53
52.734,-42.78
52.750,-96.36
52.765,-150.9
52.781,-204.49
52.796,-254.26
52.812,-296.62
52.828,-329.05
52.843,-352.53
52.859,-372.0
52.875,-394.31
52.890,-424.37
52.906,-461.76
52.921,-500.49
52.937,-531.76
52.953,-548.2
52.968,-546.79
52.984,-528.71
53.000,-496.69
53.015,-452.13
53.031,-394.45
53.046,-322.67
53.062,-238.99
53.078,-150.42
53.093,-67.92
53.109,-2.85
53.125,36.98
53.140,50.19
53.156,41.91
53.171,21.6
53.187,0.21
53.203,-12.98
53.218,-11.89
53.234,5.95
53.250,39.93
53.265,87.91
53.281,147.18
53.296,215.35
53.312,289.91
53.328,367.5
53.343,442.75
53.359,508.22
53.375,555.63
53.390,578.02
53.406,572.4
53.421,540.85
53.437,489.99
53.453,428.1
53.468,361.96
53.484,294.8
53.500,226.69
53.515,157.49
53.531,89.45
53.546,28.73
53.562,-16.77
53.578,-40.99
53.593,-43.43
53.609,-30.72
53.625,-14.04
53.640,-5.19
53.656,-11.89
53.671,-36.44
53.687,-75.8
53.703,-124.27
53.718,-175.89
53.734,-225.81
53.750,-271.63
53.765,-313.3
53.781,-353.28
53.796,-395.32
53.812,-442.38
53.828,-494.03
53.843,-544.87
53.859,-585.34
53.875,-605.05
53.890,-597.15
53.906,-560.97
53.921,-502.17
53.937,-429.26
53.953,-349.57
53.968,-266.66
53.984,-180.66
54.000,-91.49
54.015,-2.12
54.031,80.18
54.046,145.9
54.062,187.45
54.078,203.53
54.093,201.11
54.109,193.09
54.125,193.67
54.140,212.41
54.156,251.33
54.171,305.47
54.187,366.93
54.203,429.22
54.218,489.15
54.234,545.96
54.250,598.07
54.265,640.8
54.281,666.69
54.296,668.43
54.312,642.5
54.328,591.02
54.343,521.11
54.359,441.65
54.375,360.16
54.390,281.34
54.406,207.75
54.421,142.02
54.437,88.13
54.453,50.93
54.468,33.32
54.484,33.65
54.500,44.8
54.515,55.94
54.531,56.38
54.546,38.91
54.562,1.99
54.578,-50.57
54.593,-112.25
54.609,-176.91
54.625,-241.16
54.640,-305.18
54.656,-371.89
54.671,-444.69
54.687,-524.79
54.703,-608.84
54.718,-688.25
54.734,-750.92
54.750,-785.03
54.765,-783.43
54.781,-746.49
54.796,-682.08
54.812,-602.1
54.828,-518.28
54.843,-438.23
54.859,-364.36
54.875,-295.4
54.890,-228.83
54.906,-162.9
54.921,-97.16
54.937,-32.03
54.953,31.94
54.968,93.5
54.984,150.07
55.000,197.4
55.015,230.62
55.031,246.77
55.046,247.26
55.062,238.87
55.078,232.07
55.093,237.25
55.109,260.52
55.125,300.97
55.140,350.9
55.156,399.08
55.171,434.69
55.187,450.92
55.203,446.0
55.218,421.91
55.234,381.84
55.250,328.11
55.265,261.72
55.281,183.91
55.296,99.07
55.312,16.38
55.328,-50.9
55.343,-89.14
55.359,-89.34
55.375,-51.68
55.390,13.4
55.406,88.05
55.421,152.45
55.437,191.12
55.453,196.48
55.468,169.01
55.484,115.02
55.500,43.4
55.515,-36.47
55.531,-115.65
55.546,-186.25
55.562,-242.82
55.578,-284.15
55.593,-314.2
55.609,-340.49
55.625,-370.33
55.640,-406.46
55.656,-444.68
55.671,-475.31
55.687,-487.6
55.703,-474.83
55.718,-436.97
55.734,-379.9
55.750,-311.76
55.765,-239.24
55.781,-165.9
55.796,-93.01
55.812,-22.02
55.828,43.48
55.843,97.39
55.859,133.39
55.875,147.35
55.890,139.87
55.906,116.96
55.921,88.65
55.937,66.23
55.953,58.79
55.968,70.7
55.984,101.39
56.000,147.61
56.015,205.83
56.031,273.58
56.046,348.49
56.062,426.06
56.078,498.0
56.093,552.9
56.109,579.72
56.125,571.77
56.140,529.6
56.156,460.32
56.171,374.84
56.187,284.51
56.203,198.8
56.218,125.0
56.234,68.79
56.250,34.56
56.265,24.11
56.281,35.26
56.296,60.82
56.312,89.73
56.328,110.11
56.343,112.68
56.359,93.73
56.375,55.18
56.390,3.31
56.406,-54.45
56.421,-111.94
56.437,-165.45
56.453,-213.3
56.468,-254.62
56.484,-288.58
56.500,-314.52
56.515,-333.33
56.531,-348.4
56.546,-365.7
56.562,-391.45
56.578,-428.61
56.593,-474.08
56.609,-518.17
56.625,-547.74
56.640,-550.9
56.656,-521.94
56.671,-462.97
56.687,-382.54
56.703,-291.97
56.718,-201.33
56.734,-117.57
56.750,-44.51
56.765,15.52
56.781,60.48
56.796,88.72
56.812,100.8
56.828,100.73
56.843,95.92
56.859,95.97
56.875,109.37
56.890,141.02
56.906,191.33
56.921,256.91
56.937,332.15
56.953,410.65
56.968,485.45
56.984,549.13
57.000,594.36
57.015,615.16
57.031,608.73
57.046,576.8
57.062,525.36
57.078,462.47
57.093,395.31
57.109,328.19
57.125,262.08
57.140,196.19
57.156,129.93
57.171,65.13
57.187,6.56
57.203,-39.66
57.218,-68.71
57.234,-80.07
57.250,-78.96
57.265,-75.63
57.281,-81.53
57.296,-104.72
57.312,-145.71
57.328,-197.13
57.343,-246.88
57.359,-283.74
57.375,-302.29
57.390,-304.99
57.406,-300.77
57.421,-300.92
57.437,-314.83
57.453,-346.85
57.468,-395.05
57.484,-451.83
57.500,-505.76
57.515,-544.51
57.531,-558.16
57.546,-542.17
57.562,-498.43
57.578,-433.92
57.593,-357.93
57.609,-278.41
57.625,-199.94
57.640,-123.78
57.656,-50.04
57.671,20.36
57.687,84.79
57.703,139.37
57.718,180.23
57.734,204.73
57.750,212.34
57.765,204.9
57.781,186.86
57.796,164.83
57.812,146.7
57.828,140.2
57.843,151.66
57.859,184.23
57.875,236.66
57.890,302.94
57.906,373.02
57.921,434.79
57.937,477.11
57.953,492.24
57.968,477.59
57.984,435.56
58.000,372.3
58.015,295.77
58.031,214.67
58.046,137.94
58.062,74.5
58.078,32.59
58.093,17.8
58.109,30.85
58.125,65.97
58.140,111.99
58.156,154.99
58.171,182.73
58.187,187.86
58.203,169.17
58.218,130.8
58.234,79.7
58.250,23.35
58.265,-32.13
58.281,-82.86
58.296,-127.38
58.312,-166.63
58.328,-203.67
58.343,-242.93
58.359,-288.49
58.375,-342.24
58.390,-402.21
58.406,-461.84
58.421,-511.15
58.437,-539.53
58.453,-539.08
58.468,-507.18
58.484,-447.32
58.500,-367.41
58.515,-276.99
58.531,-184.29
58.546,-94.67
58.562,-11.15
58.578,63.83
58.593,127.05
58.609,174.34
58.625,201.69
58.640,207.18
58.656,191.83
58.671,159.24
58.687,114.48
58.703,62.86
58.718,9.84
58.734,-38.47
58.750,-74.77
58.765,-91.23
58.781,-81.43
58.796,-42.99
58.812,20.58
58.828,99.99
58.843,182.14
58.859,253.49
58.875,303.25
58.890,325.65
58.906,320.58
58.921,293.34
58.937,252.93
58.953,210.1
58.968,175.16
58.984,155.73
59.000,155.36
59.015,172.4
59.031,200.35
59.046,229.3
59.062,248.16
59.078,247.36
59.093,221.28
59.109,169.3
59.125,95.15
59.140,5.81
59.156,-89.76
59.171,-182.01
59.187,-262.14
59.203,-324.21
59.218,-367.51
59.234,-397.6
59.250,-424.76
59.265,-459.23
59.281,-505.58
59.296,-558.99
59.312,-606.37
59.328,-632.09
59.343,-625.52
59.359,-585.77
59.375,-521.61
59.390,-446.23
59.406,-370.62
59.421,-299.18
59.437,-229.82
59.453,-157.63
59.468,-79.33
59.484,3.99
59.500,87.16
59.515,162.97
59.531,224.81
59.546,268.96
59.562,295.42
59.578,307.91
59.593,312.7
59.609,317.16
59.625,327.75
59.640,348.41
59.656,379.68
59.671,418.37
59.687,458.55
59.703,493.07
59.718,515.51
59.734,521.41
59.750,508.8
59.765,477.92
59.781,430.29
59.796,368.11
59.812,294.07
59.828,211.98
59.843,127.58
59.859,49.05
59.875,-14.12
59.890,-53.56
59.906,-65.14
59.921,-51.16
59.937,-20.18
59.953,15.44
59.968,43.4
59.984,54.71
