timestamp,value
00.000,106.45
00.015,114.86
00.031,116.16
00.046,108.36
00.062,90.6
00.078,64.34
00.093,34.01
00.109,6.09
00.125,-12.46
00.140,-17.32
00.156,-7.29
00.171,15.51
00.187,47.11
00.203,82.73
00.218,117.21
00.234,145.54
00.250,162.66
00.265,164.63
00.281,148.15
00.296,113.76
00.312,66.57
00.328,15.37
00.343,-30.34
00.359,-64.01
00.375,-83.47
00.390,-91.07
00.406,-91.61
00.421,-92.66
00.437,-100.73
00.453,-118.95
00.468,-146.54
00.484,-180.07
00.500,-215.51
00.515,-249.42
00.531,-279.69
00.546,-304.85
00.562,-327.17
00.578,-349.87
00.593,-375.67
00.609,-405.9
00.625,-440.47
00.640,-478.9
00.656,-520.27
00.671,-563.77
00.687,-587.48
00.703,-572.92
00.718,-511.45
00.734,-409.95
00.750,-286.61
00.765,-159.7
00.781,-40.64
00.796,66.5
00.812,161.26
00.828,244.86
00.843,315.76
00.859,371.92
00.875,412.45
00.890,440.11
00.906,458.11
00.921,469.61
00.937,476.34
00.953,477.54
00.968,472.09
00.984,457.23
01.000,431.59
01.015,395.92
01.031,353.0
01.046,305.82
01.062,258.56
01.078,214.74
01.093,173.78
01.109,134.36
01.125,94.64
01.140,54.01
01.156,13.42
01.171,-25.25
01.187,-60.41
01.203,-90.59
01.218,-115.33
01.234,-139.3
01.250,-167.02
01.265,-200.85
01.281,-239.57
01.296,-279.44
01.312,-316.48
01.328,-348.59
01.343,-374.97
01.359,-396.43
01.375,-420.28
01.390,-453.14
01.406,-498.54
01.421,-555.09
01.437,-618.42
01.453,-682.88
01.468,-744.56
01.484,-800.26
01.500,-813.49
01.515,-760.7
01.531,-639.29
01.546,-471.66
01.562,-290.83
01.578,-122.62
01.593,21.86
01.609,141.29
01.625,239.82
01.640,321.24
01.656,382.6
01.671,421.66
01.687,439.17
01.703,440.37
01.718,432.45
01.734,421.88
01.750,412.8
01.765,407.64
01.781,406.38
01.796,402.93
01.812,391.5
01.828,368.58
01.843,334.33
01.859,291.65
01.875,244.19
01.890,193.13
01.906,142.7
01.921,97.25
01.937,56.15
01.953,18.04
01.968,-18.39
01.984,-52.4
02.000,-82.82
02.015,-109.11
02.031,-131.31
02.046,-148.01
02.062,-156.7
02.078,-155.9
02.093,-143.06
02.109,-117.43
02.125,-80.11
02.140,-36.03
02.156,6.84
02.171,40.38
02.187,61.4
02.203,70.49
02.218,70.75
02.234,66.43
02.250,60.34
02.265,53.66
02.281,46.24
02.296,38.37
02.312,30.37
02.328,24.46
02.343,21.88
02.359,22.27
02.375,24.16
02.390,25.2
02.406,23.41
02.421,17.93
02.437,10.24
02.453,1.73
02.468,-5.19
02.484,-9.07
02.500,-9.57
02.515,-7.07
02.531,-2.72
02.546,2.5
02.562,7.86
02.578,13.11
02.593,18.25
02.609,23.69
02.625,29.47
02.640,34.75
02.656,38.64
02.671,40.03
02.687,38.25
02.703,33.06
02.718,24.52
02.734,12.97
02.750,-0.9
02.765,-16.03
02.781,-31.8
02.796,-46.92
02.812,-61.25
02.828,-74.93
02.843,-87.92
02.859,-100.25
02.875,-111.89
02.890,-121.41
02.906,-126.9
02.921,-127.25
02.937,-120.63
02.953,-106.26
02.968,-84.62
02.984,-57.07
03.000,-25.93
03.015,6.4
03.031,37.87
03.046,67.06
03.062,93.32
03.078,116.48
03.093,136.73
03.109,154.35
03.125,170.1
03.140,183.76
03.156,193.62
03.171,195.97
03.187,186.16
03.203,160.84
03.218,120.28
03.234,69.25
03.250,15.08
03.265,-34.29
03.281,-73.43
03.296,-100.09
03.312,-114.98
03.328,-119.92
03.343,-116.13
03.359,-104.61
03.375,-86.85
03.390,-65.93
03.406,-46.21
03.421,-32.18
03.437,-26.51
03.453,-29.33
03.468,-38.7
03.484,-51.72
03.500,-65.99
03.515,-79.35
03.531,-89.52
03.546,-93.84
03.562,-89.88
03.578,-76.53
03.593,-55.31
03.609,-29.74
03.625,-4.01
03.640,18.04
03.656,34.63
03.671,45.95
03.687,53.15
03.703,56.98
03.718,57.6
03.734,54.68
03.750,48.3
03.765,40.03
03.781,31.98
03.796,26.49
03.812,25.04
03.828,27.47
03.843,32.52
03.859,38.5
03.875,42.84
03.890,44.69
03.906,44.9
03.921,45.07
03.937,47.19
03.953,52.95
03.968,63.17
03.984,77.89
04.000,95.63
04.015,113.13
04.031,126.08
04.046,130.09
04.062,121.92
04.078,101.46
04.093,71.79
04.109,37.76
04.125,4.6
04.140,-24.27
04.156,-47.84
04.171,-66.38
04.187,-80.21
04.203,-89.38
04.218,-93.13
04.234,-90.84
04.250,-83.3
04.265,-72.43
04.281,-60.97
04.296,-51.55
04.312,-45.53
04.328,-42.8
04.343,-42.23
04.359,-41.81
04.375,-39.45
04.390,-33.78
04.406,-24.34
04.421,-11.74
04.437,2.48
04.453,16.69
04.468,29.23
04.484,39.0
04.500,45.39
04.515,48.2
04.531,47.56
04.546,44.16
04.562,39.06
04.578,33.23
04.593,27.68
04.609,22.69
04.625,17.98
04.640,13.23
04.656,8.15
04.671,2.82
04.687,-1.94
04.703,-5.14
04.718,-6.07
04.734,-4.24
04.750,0.1
04.765,6.33
04.781,13.72
04.796,21.61
04.812,29.3
04.828,36.26
04.843,41.58
04.859,44.15
04.875,43.13
04.890,38.27
04.906,30.2
04.921,20.54
04.937,11.07
04.953,3.05
04.968,-3.11
04.984,-8.12
05.000,-13.07
05.015,-18.67
05.031,-24.8
05.046,-30.47
05.062,-34.03
05.078,-34.08
05.093,-29.92
05.109,-21.97
05.125,-11.64
05.140,-0.78
05.156,9.03
05.171,16.73
05.187,21.87
05.203,24.57
05.218,25.01
05.234,23.46
05.250,20.06
05.265,15.11
05.281,9.1
05.296,2.93
05.312,-2.51
05.328,-6.5
05.343,-8.99
05.359,-10.51
05.375,-12.03
05.390,-14.26
05.406,-17.23
05.421,-20.06
05.437,-21.31
05.453,-19.6
05.468,-14.28
05.484,-5.8
05.500,4.49
05.515,14.75
05.531,23.52
05.546,29.81
05.562,33.41
05.578,34.39
05.593,33.08
05.609,29.68
05.625,24.59
05.640,18.24
05.656,11.36
05.671,4.81
05.687,-0.79
05.703,-5.17
05.718,-8.72
05.734,-12.12
05.750,-16.03
05.765,-20.34
05.781,-24.3
05.796,-26.31
05.812,-24.93
05.828,-19.35
05.843,-10.02
05.859,1.4
05.875,12.47
05.890,21.02
05.906,25.87
05.921,27.03
05.937,25.52
05.953,22.61
05.968,19.18
05.984,15.45
06.000,11.38
06.015,6.87
06.031,2.22
06.046,-2.07
06.062,-5.6
06.078,-8.29
06.093,-10.45
06.109,-12.6
06.125,-14.77
06.140,-16.27
06.156,-15.92
06.171,-12.47
06.187,-5.46
06.203,4.47
06.218,15.71
06.234,26.15
06.250,33.7
06.265,37.11
06.281,36.27
06.296,32.09
06.312,26.03
06.328,19.29
06.343,12.53
06.359,5.86
06.375,-0.71
06.390,-7.28
06.406,-13.74
06.421,-19.97
06.437,-25.9
06.453,-31.72
06.468,-37.72
06.484,-43.86
06.500,-49.25
06.515,-51.9
06.531,-49.75
06.546,-41.64
06.562,-28.04
06.578,-11.04
06.593,6.37
06.609,21.2
06.625,31.76
06.640,38.17
06.656,42.55
06.671,47.27
06.687,53.87
06.703,63.27
06.718,75.83
06.734,91.64
06.750,110.24
06.765,129.79
06.781,146.81
06.796,157.1
06.812,155.24
06.828,135.65
06.843,95.58
06.859,35.8
06.875,-39.06
06.890,-121.94
06.906,-204.95
06.921,-281.04
06.937,-344.17
06.953,-384.02
06.968,-392.95
06.984,-367.16
07.000,-309.17
07.015,-227.55
07.031,-134.05
07.046,-39.18
07.062,45.0
07.078,118.28
07.093,183.31
07.109,241.08
07.125,291.16
07.140,331.99
07.156,362.0
07.171,379.99
07.187,385.8
07.203,380.7
07.218,367.78
07.234,349.25
07.250,325.91
07.265,297.54
07.281,263.06
07.296,221.67
07.312,173.92
07.328,121.97
07.343,69.58
07.359,21.54
07.375,-19.25
07.390,-52.45
07.406,-79.94
07.421,-105.11
07.437,-131.62
07.453,-161.63
07.468,-195.75
07.484,-233.15
07.500,-271.72
07.515,-308.93
07.531,-341.42
07.546,-364.99
07.562,-375.34
07.578,-370.55
07.593,-352.32
07.609,-326.45
07.625,-300.65
07.640,-281.01
07.656,-269.02
07.671,-260.43
07.687,-247.16
07.703,-220.72
07.718,-176.21
07.734,-114.44
07.750,-42.07
07.765,31.01
07.781,95.1
07.796,143.46
07.812,173.63
07.828,186.32
07.843,183.51
07.859,166.25
07.875,134.56
07.890,88.97
07.906,33.19
07.921,-23.82
07.937,-69.94
07.953,-93.88
07.968,-90.2
07.984,-61.29
08.000,-16.1
08.015,34.69
08.031,83.71
08.046,127.49
08.062,165.68
08.078,196.7
08.093,215.19
08.109,213.2
08.125,184.95
08.140,131.11
08.156,60.64
08.171,-11.63
08.187,-71.47
08.203,-109.64
08.218,-125.04
08.234,-123.21
08.250,-112.74
08.265,-101.27
08.281,-93.86
08.296,-92.82
08.312,-97.94
08.328,-108.7
08.343,-121.98
08.359,-132.98
08.375,-135.6
08.390,-124.68
08.406,-98.91
08.421,-62.51
08.437,-24.79
08.453,3.62
08.468,12.17
08.484,-4.41
08.500,-46.69
08.515,-111.71
08.531,-194.48
08.546,-290.52
08.562,-395.21
08.578,-502.88
08.593,-591.67
08.609,-639.02
08.625,-626.74
08.640,-551.43
08.656,-426.99
08.671,-277.49
08.687,-127.01
08.703,9.11
08.718,125.81
08.734,224.88
08.750,308.0
08.765,376.91
08.781,432.04
08.796,470.86
08.812,490.86
08.828,491.18
08.843,472.77
08.859,438.21
08.875,391.6
08.890,330.66
08.906,261.11
08.921,192.54
08.937,134.27
08.953,91.8
08.968,64.73
08.984,47.33
09.000,32.09
09.015,13.13
09.031,-12.12
09.046,-42.16
09.062,-74.43
09.078,-107.3
09.093,-140.51
09.109,-174.26
09.125,-209.77
09.140,-244.47
09.156,-274.01
09.171,-293.47
09.187,-298.63
09.203,-287.78
09.218,-261.71
09.234,-222.78
09.250,-173.86
09.265,-118.28
09.281,-59.13
09.296,-0.28
09.312,53.4
09.328,97.42
09.343,128.05
09.359,143.47
09.375,145.0
09.390,137.51
09.406,124.21
09.421,111.29
09.437,104.25
09.453,105.67
09.468,115.0
09.484,129.09
09.500,143.66
09.515,155.08
09.531,161.63
09.546,163.48
09.562,163.14
09.578,163.74
09.593,168.23
09.609,179.01
09.625,197.92
09.640,225.49
09.656,260.99
09.671,301.9
09.687,343.09
09.703,377.51
09.718,396.9
09.734,394.83
09.750,370.19
09.765,328.89
09.781,282.36
09.796,242.7
09.812,217.15
09.828,205.06
09.843,199.53
09.859,191.89
09.875,176.46
09.890,153.0
09.906,124.43
09.921,93.01
09.937,57.01
09.953,11.14
09.968,-49.9
09.984,-126.6
10.000,-212.35
10.015,-295.38
10.031,-363.24
10.046,-407.91
10.062,-427.88
10.078,-427.16
10.093,-412.03
10.109,-388.15
10.125,-359.2
10.140,-327.0
10.156,-292.61
10.171,-257.09
10.187,-220.76
10.203,-182.37
10.218,-139.78
10.234,-90.78
10.250,-34.82
10.265,25.56
10.281,85.66
10.296,139.67
10.312,181.98
10.328,208.62
10.343,217.95
10.359,210.27
10.375,187.03
10.390,149.58
10.406,99.31
10.421,39.11
10.437,-25.72
10.453,-87.45
10.468,-137.88
10.484,-170.87
10.500,-184.49
10.515,-181.49
10.531,-167.58
10.546,-148.21
10.562,-125.82
10.578,-98.84
10.593,-63.52
10.609,-19.54
10.625,26.98
10.640,64.39
10.656,80.79
10.671,69.2
10.687,30.79
10.703,-26.48
10.718,-91.81
10.734,-156.04
10.750,-214.35
10.765,-265.65
10.781,-312.15
10.796,-353.99
10.812,-388.52
10.828,-412.47
10.843,-422.94
10.859,-418.75
10.875,-400.33
10.890,-369.91
10.906,-330.38
10.921,-284.01
10.937,-231.86
10.953,-173.19
10.968,-108.19
10.984,-38.6
11.000,32.58
11.015,101.56
11.031,164.5
11.046,218.29
11.062,261.03
11.078,292.51
11.093,313.38
11.109,324.45
11.125,326.55
11.140,320.48
11.156,306.91
11.171,286.46
11.187,260.43
11.203,230.5
11.218,199.08
11.234,168.83
11.250,142.24
11.265,121.13
11.281,106.49
11.296,98.22
11.312,95.93
11.328,98.99
11.343,105.99
11.359,115.31
11.375,125.23
11.390,134.9
11.406,143.68
11.421,151.57
11.437,158.18
11.453,163.38
11.468,167.27
11.484,169.6
11.500,169.7
11.515,166.52
11.531,160.24
11.546,151.57
11.562,142.15
11.578,134.53
11.593,131.83
11.609,137.12
11.625,152.73
11.640,180.0
11.656,211.89
11.671,241.38
11.687,261.68
11.703,268.01
11.718,259.17
11.734,237.54
11.750,207.7
11.765,174.35
11.781,141.28
11.796,110.76
11.812,84.04
11.828,60.75
11.843,38.5
11.859,13.66
11.875,-17.23
11.890,-55.54
11.906,-99.5
11.921,-144.26
11.937,-183.56
11.953,-211.99
11.968,-227.13
11.984,-230.12
12.000,-224.48
12.015,-214.2
12.031,-202.18
12.046,-189.64
12.062,-176.57
12.078,-162.58
12.093,-147.18
12.109,-130.29
12.125,-112.31
12.140,-93.78
12.156,-75.35
12.171,-57.75
12.187,-42.0
12.203,-29.19
12.218,-20.17
12.234,-15.26
12.250,-14.33
12.265,-17.13
12.281,-23.52
12.296,-33.31
12.312,-45.88
12.328,-59.8
12.343,-72.84
12.359,-82.48
12.375,-87.06
12.390,-86.4
12.406,-82.01
12.421,-76.16
12.437,-70.65
12.453,-66.07
12.468,-61.81
12.484,-56.92
12.500,-50.88
12.515,-44.33
12.531,-38.42
12.546,-34.28
12.562,-32.36
12.578,-32.11
12.593,-32.45
12.609,-32.14
12.625,-30.5
12.640,-27.51
12.656,-23.93
12.671,-20.73
12.687,-18.83
12.703,-18.57
12.718,-19.62
12.734,-21.13
12.750,-22.16
12.765,-21.99
12.781,-20.43
12.796,-18.02
12.812,-15.69
12.828,-14.35
12.843,-14.88
12.859,-17.02
12.875,-19.77
12.890,-21.94
12.906,-22.47
12.921,-20.68
12.937,-16.74
12.953,-11.08
12.968,-4.09
12.984,3.44
13.000,11.57
13.015,21.12
13.031,33.04
13.046,47.74
13.062,65.1
13.078,83.16
13.093,99.5
13.109,111.55
13.125,116.91
13.140,113.98
13.156,101.97
13.171,81.08
13.187,52.68
13.203,21.7
13.218,-6.31
13.234,-25.5
13.250,-32.44
13.265,-27.72
13.281,-15.72
13.296,-2.72
13.312,5.8
13.328,7.91
13.343,5.07
13.359,0.26
13.375,-2.77
13.390,-2.01
13.406,2.38
13.421,8.69
13.437,14.84
13.453,18.9
13.468,20.15
13.484,18.41
13.500,12.58
13.515,2.36
13.531,-12.09
13.546,-29.86
13.562,-48.51
13.578,-65.19
13.593,-77.16
13.609,-82.87
13.625,-82.12
13.640,-76.98
13.656,-69.88
13.671,-63.45
13.687,-60.07
13.703,-60.27
13.718,-62.82
13.734,-65.87
13.750,-67.41
13.765,-64.72
13.781,-58.1
13.796,-47.39
13.812,-32.97
13.828,-16.05
13.843,1.84
13.859,19.53
13.875,35.92
13.890,49.75
13.906,60.27
13.921,66.26
13.937,67.48
13.953,64.09
13.968,56.2
13.984,44.64
14.000,30.61
14.015,15.66
14.031,1.04
14.046,-11.93
14.062,-22.51
14.078,-29.67
14.093,-32.41
14.109,-30.13
14.125,-21.92
14.140,-8.77
14.156,8.57
14.171,29.0
14.187,52.13
14.203,76.25
14.218,99.79
14.234,120.79
14.250,137.12
14.265,147.56
14.281,150.72
14.296,146.06
14.312,133.89
14.328,115.6
14.343,91.62
14.359,64.32
14.375,35.79
14.390,7.59
14.406,-18.21
14.421,-40.21
14.437,-57.39
14.453,-69.31
14.468,-75.84
14.484,-78.1
14.500,-77.57
14.515,-75.82
14.531,-74.27
14.546,-73.42
14.562,-73.11
14.578,-72.7
14.593,-71.76
14.609,-69.57
14.625,-66.45
14.640,-63.21
14.656,-61.05
14.671,-60.84
14.687,-62.59
14.703,-65.51
14.718,-68.22
14.734,-69.61
14.750,-68.98
14.765,-66.73
14.781,-63.81
14.796,-61.35
14.812,-60.35
14.828,-61.39
14.843,-64.93
14.859,-70.83
14.875,-77.81
14.890,-82.88
14.906,-81.96
14.921,-71.14
14.937,-48.92
14.953,-17.54
14.968,16.99
14.984,47.85
15.000,69.4
15.015,79.48
15.031,79.93
15.046,74.73
15.062,67.89
15.078,61.5
15.093,55.73
15.109,49.77
15.125,43.36
15.140,37.11
15.156,32.27
15.171,29.74
15.187,29.22
15.203,29.53
15.218,29.11
15.234,26.72
15.250,22.18
15.265,16.42
15.281,10.86
15.296,6.56
15.312,4.03
15.328,2.88
15.343,2.07
15.359,0.32
15.375,-3.38
15.390,-9.39
15.406,-17.54
15.421,-26.95
15.437,-36.94
15.453,-47.0
15.468,-56.98
15.484,-66.86
15.500,-76.51
15.515,-85.51
15.531,-93.11
15.546,-98.04
15.562,-99.16
15.578,-95.72
15.593,-87.56
15.609,-75.16
15.625,-59.55
15.640,-42.05
15.656,-24.07
15.671,-6.82
15.687,8.76
15.703,21.91
15.718,32.34
15.734,39.93
15.750,44.71
15.765,46.73
15.781,46.58
15.796,44.78
15.812,41.95
15.828,38.67
15.843,35.32
15.859,32.19
15.875,29.49
15.890,27.6
15.906,26.34
15.921,25.73
15.937,25.49
15.953,25.45
15.968,25.24
15.984,24.75
16.000,23.67
16.015,21.63
16.031,18.45
16.046,14.01
16.062,8.36
16.078,1.44
16.093,-6.42
16.109,-15.12
16.125,-24.16
16.140,-33.38
16.156,-42.5
16.171,-51.3
16.187,-59.48
16.203,-66.81
16.218,-73.24
16.234,-78.69
16.250,-83.4
16.265,-87.42
16.281,-91.01
16.296,-94.27
16.312,-97.34
16.328,-100.12
16.343,-102.5
16.359,-104.48
16.375,-106.26
16.390,-108.14
16.406,-110.34
16.421,-113.13
16.437,-116.63
16.453,-120.52
16.468,-124.14
16.484,-126.37
16.500,-125.94
16.515,-121.63
16.531,-114.72
16.546,-105.75
16.562,-95.08
16.578,-82.82
16.593,-68.73
16.609,-52.23
16.625,-32.65
16.640,-9.57
16.656,16.74
16.671,45.41
16.687,75.36
16.703,105.17
16.718,133.74
16.734,160.34
16.750,184.76
16.765,207.39
16.781,228.92
16.796,250.51
16.812,273.41
16.828,298.7
16.843,325.93
16.859,352.81
16.875,374.98
16.890,387.4
16.906,386.48
16.921,371.69
16.937,346.24
16.953,316.35
16.968,289.04
16.984,269.4
17.000,259.36
17.015,257.24
17.031,259.1
17.046,261.04
17.062,260.69
17.078,257.1
17.093,250.41
17.109,241.29
17.125,230.26
17.140,218.44
17.156,207.83
17.171,200.29
17.187,197.01
17.203,197.27
17.218,198.13
17.234,195.08
17.250,183.2
17.265,159.66
17.281,125.75
17.296,86.3
17.312,47.76
17.328,15.75
17.343,-8.05
17.359,-24.72
17.375,-35.97
17.390,-43.24
17.406,-46.96
17.421,-46.66
17.437,-42.54
17.453,-35.96
17.468,-28.9
17.484,-24.81
17.500,-26.39
17.515,-34.57
17.531,-48.87
17.546,-68.08
17.562,-90.34
17.578,-114.16
17.593,-138.84
17.609,-163.47
17.625,-188.9
17.640,-215.26
17.656,-240.26
17.671,-259.57
17.687,-268.21
17.703,-262.53
17.718,-242.15
17.734,-209.55
17.750,-169.06
17.765,-129.59
17.781,-100.05
17.796,-87.21
17.812,-94.31
17.828,-119.26
17.843,-156.33
17.859,-199.61
17.875,-243.75
17.890,-285.64
17.906,-329.22
17.921,-380.46
17.937,-444.34
17.953,-522.6
17.968,-612.1
17.984,-706.06
18.000,-797.71
18.015,-881.2
18.031,-928.65
18.046,-918.46
18.062,-840.55
18.078,-702.41
18.093,-526.7
18.109,-339.83
18.125,-162.01
18.140,-4.83
18.156,126.82
18.171,231.85
18.187,307.58
18.203,352.22
18.218,370.39
18.234,368.57
18.250,355.28
18.265,338.42
18.281,322.61
18.296,308.84
18.312,295.42
18.328,276.14
18.343,245.36
18.359,200.02
18.375,140.71
18.390,74.57
18.406,12.7
18.421,-33.26
18.437,-54.8
18.453,-48.84
18.468,-21.29
18.484,17.13
18.500,54.29
18.515,80.3
18.531,91.02
18.546,87.52
18.562,74.2
18.578,56.29
18.593,38.98
18.609,25.07
18.625,16.29
18.640,13.9
18.656,18.54
18.671,30.25
18.687,47.45
18.703,66.92
18.718,84.19
18.734,95.22
18.750,96.6
18.765,87.56
18.781,70.25
18.796,48.75
18.812,28.38
18.828,13.45
18.843,6.35
18.859,6.61
18.875,11.66
18.890,17.65
18.906,20.94
18.921,19.59
18.937,13.62
18.953,4.99
18.968,-3.78
18.984,-10.39
19.000,-13.57
19.015,-13.33
19.031,-10.58
19.046,-6.91
19.062,-3.63
19.078,-1.83
19.093,-1.97
19.109,-4.03
19.125,-7.57
19.140,-11.97
19.156,-16.72
19.171,-21.79
19.187,-28.14
19.203,-36.86
19.218,-49.17
19.234,-65.36
19.250,-84.58
19.265,-104.86
19.281,-123.62
19.296,-137.98
19.312,-144.97
19.328,-142.34
19.343,-128.25
19.359,-102.43
19.375,-66.72
19.390,-24.97
19.406,17.72
19.421,56.22
19.437,87.29
19.453,110.38
19.468,126.99
19.484,140.08
19.500,152.54
19.515,166.65
19.531,183.65
19.546,203.49
19.562,224.43
19.578,243.04
19.593,254.59
19.609,254.42
19.625,240.25
19.640,213.21
19.656,178.18
19.671,142.2
19.687,111.61
19.703,90.08
19.718,77.84
19.734,72.33
19.750,69.88
19.765,67.43
19.781,63.04
19.796,56.23
19.812,47.42
19.828,37.21
19.843,26.31
19.859,15.32
19.875,4.32
19.890,-7.32
19.906,-20.77
19.921,-37.88
19.937,-59.7
19.953,-85.85
19.968,-114.3
19.984,-141.76
20.000,-164.91
20.015,-181.51
20.031,-191.56
20.046,-197.01
20.062,-201.06
20.078,-206.25
20.093,-213.44
20.109,-221.49
20.125,-227.23
20.140,-227.15
20.156,-217.99
20.171,-197.58
20.187,-165.48
20.203,-123.01
20.218,-72.19
20.234,-16.96
20.250,36.87
20.265,82.91
20.281,114.97
20.296,130.85
20.312,133.19
20.328,128.27
20.343,123.65
20.359,126.91
20.375,141.11
20.390,164.7
20.406,193.95
20.421,224.1
20.437,254.0
20.453,285.23
20.468,319.54
20.484,357.36
20.500,399.52
20.515,444.67
20.531,490.13
20.546,533.15
20.562,568.69
20.578,593.93
20.593,606.68
20.609,604.6
20.625,587.11
20.640,558.94
20.656,525.0
20.671,488.81
20.687,451.91
20.703,410.22
20.718,361.75
20.734,306.65
20.750,246.93
20.765,166.71
20.781,63.25
20.796,-55.22
20.812,-171.73
20.828,-250.89
20.843,-288.71
20.859,-292.58
20.875,-272.15
20.890,-242.46
20.906,-212.55
20.921,-184.39
20.937,-157.57
20.953,-138.95
20.968,-130.76
20.984,-135.19
21.000,-150.74
21.015,-176.36
21.031,-212.65
21.046,-258.53
21.062,-307.86
21.078,-352.81
21.093,-384.78
21.109,-401.65
21.125,-407.07
21.140,-403.68
21.156,-392.99
21.171,-375.65
21.187,-350.62
21.203,-316.18
21.218,-272.83
21.234,-223.54
21.250,-172.62
21.265,-125.97
21.281,-86.71
21.296,-55.75
21.312,-32.89
21.328,-16.77
21.343,-5.5
21.359,1.77
21.375,5.15
21.390,4.7
21.406,0.45
21.421,-6.33
21.437,-13.84
21.453,-20.65
21.468,-25.81
21.484,-28.57
21.500,-28.98
21.515,-27.68
21.531,-25.54
21.546,-23.54
21.562,-22.05
21.578,-20.87
21.593,-19.47
21.609,-17.06
21.625,-13.07
21.640,-7.55
21.656,-1.43
21.671,3.92
21.687,7.24
21.703,7.81
21.718,5.55
21.734,1.13
21.750,-4.33
21.765,-9.7
21.781,-14.03
21.796,-16.59
21.812,-16.86
21.828,-14.56
21.843,-9.7
21.859,-3.01
21.875,4.21
21.890,10.29
21.906,14.05
21.921,15.34
21.937,15.49
21.953,16.96
21.968,21.97
21.984,31.56
22.000,44.82
22.015,59.06
22.031,70.88
22.046,77.55
22.062,78.09
22.078,73.57
22.093,66.8
22.109,60.02
22.125,54.07
22.140,47.8
22.156,38.9
22.171,25.17
22.187,5.71
22.203,-18.36
22.218,-44.72
22.234,-70.11
22.250,-92.06
22.265,-109.38
22.281,-122.24
22.296,-131.71
22.312,-139.5
22.328,-148.49
22.343,-162.19
22.359,-183.96
22.375,-214.26
22.390,-248.92
22.406,-278.57
22.421,-291.3
22.437,-277.26
22.453,-232.92
22.468,-163.27
22.484,-79.77
22.500,3.74
22.515,76.28
22.531,131.77
22.546,169.14
22.562,190.11
22.578,196.67
22.593,190.76
22.609,174.4
22.625,150.82
22.640,124.15
22.656,99.19
22.671,79.62
22.687,66.98
22.703,60.54
22.718,57.08
22.734,52.9
22.750,45.27
22.765,33.79
22.781,20.21
22.796,7.79
22.812,-0.6
22.828,-3.54
22.843,-1.56
22.859,3.35
22.875,8.54
22.890,12.04
22.906,12.96
22.921,11.33
22.937,8.18
22.953,4.64
22.968,1.7
22.984,-0.18
23.000,-0.83
23.015,-0.22
23.031,1.66
23.046,4.81
23.062,8.87
23.078,13.26
23.093,17.12
23.109,19.64
23.125,20.27
23.140,18.62
23.156,14.9
23.171,9.62
23.187,3.54
23.203,-2.52
23.218,-7.74
23.234,-11.67
23.250,-14.25
23.265,-15.72
23.281,-16.74
23.296,-17.63
23.312,-18.28
23.328,-18.05
23.343,-16.17
23.359,-11.9
23.375,-5.27
23.390,2.89
23.406,11.23
23.421,17.98
23.437,21.78
23.453,22.08
23.468,19.18
23.484,13.84
23.500,7.0
23.515,-0.6
23.531,-8.61
23.546,-16.64
23.562,-24.42
23.578,-31.45
23.593,-37.29
23.609,-41.74
23.625,-44.85
23.640,-47.1
23.656,-48.78
23.671,-49.81
23.687,-49.53
23.703,-47.16
23.718,-42.13
23.734,-34.57
23.750,-25.41
23.765,-15.82
23.781,-6.67
23.796,1.97
23.812,10.76
23.828,20.74
23.843,32.36
23.859,45.02
23.875,56.96
23.890,66.14
23.906,70.88
23.921,70.52
23.937,65.59
23.953,57.38
23.968,47.59
23.984,37.97
24.000,30.19
24.015,25.83
24.031,26.04
24.046,31.72
24.062,42.79
24.078,58.29
24.093,76.41
24.109,94.67
24.125,110.55
24.140,121.9
24.156,127.69
24.171,127.74
24.187,123.24
24.203,116.14
24.218,108.68
24.234,102.81
24.250,99.84
24.265,99.92
24.281,102.09
24.296,104.72
24.312,105.96
24.328,104.61
24.343,100.8
24.359,95.93
24.375,92.03
24.390,91.15
24.406,94.17
24.421,100.54
24.437,108.44
24.453,115.44
24.468,119.51
24.484,119.56
24.500,115.33
24.515,107.28
24.531,96.28
24.546,83.23
24.562,68.87
24.578,54.13
24.593,39.91
24.609,27.48
24.625,18.15
24.640,12.68
24.656,11.12
24.671,12.57
24.687,15.41
24.703,17.82
24.718,18.75
24.734,17.94
24.750,16.74
24.765,17.62
24.781,22.82
24.796,33.51
24.812,49.31
24.828,68.18
24.843,87.03
24.859,102.55
24.875,111.21
24.890,110.84
24.906,101.04
24.921,83.4
24.937,62.14
24.953,43.4
24.968,33.76
24.984,37.88
25.000,55.9
25.015,81.45
25.031,103.93
25.046,112.18
25.062,98.85
25.078,63.82
25.093,13.84
25.109,-40.43
25.125,-88.77
25.140,-124.82
25.156,-147.71
25.171,-159.96
25.187,-164.93
25.203,-165.07
25.218,-161.33
25.234,-154.69
25.250,-147.16
25.265,-141.24
25.281,-138.61
25.296,-139.79
25.312,-143.84
25.328,-149.58
25.343,-156.71
25.359,-165.78
25.375,-178.02
25.390,-193.75
25.406,-210.84
25.421,-225.68
25.437,-234.79
25.453,-236.27
25.468,-230.97
25.484,-222.36
25.500,-214.7
25.515,-212.41
25.531,-219.1
25.546,-237.06
25.562,-267.11
25.578,-307.9
25.593,-354.4
25.609,-397.38
25.625,-425.06
25.640,-427.12
25.656,-399.4
25.671,-345.92
25.687,-277.68
25.703,-207.81
25.718,-146.68
25.734,-98.72
25.750,-63.35
25.765,-37.58
25.781,-18.55
25.796,-4.52
25.812,5.82
25.828,14.29
25.843,23.45
25.859,35.74
25.875,52.16
25.890,71.07
25.906,89.6
25.921,105.12
25.937,116.07
25.953,122.57
25.968,126.14
25.984,129.45
26.000,135.49
26.015,146.8
26.031,163.82
26.046,185.23
26.062,208.72
26.078,231.8
26.093,252.2
26.109,268.4
26.125,280.2
26.140,288.56
26.156,295.58
26.171,302.95
26.187,311.59
26.203,321.34
26.218,330.61
26.234,335.86
26.250,332.81
26.265,317.89
26.281,288.97
26.296,247.56
26.312,196.8
26.328,141.47
26.343,87.69
26.359,41.05
26.375,3.26
26.390,-27.61
26.406,-55.96
26.421,-86.61
26.437,-119.94
26.453,-155.55
26.468,-191.05
26.484,-222.16
26.500,-245.32
26.515,-261.88
26.531,-276.3
26.546,-294.41
26.562,-320.58
26.578,-351.95
26.593,-386.55
26.609,-422.35
26.625,-456.67
26.640,-487.55
26.656,-517.26
26.671,-549.23
26.687,-586.33
26.703,-629.93
26.718,-674.57
26.734,-718.9
26.750,-763.37
26.765,-807.74
26.781,-821.92
26.796,-780.5
26.812,-669.58
26.828,-495.16
26.843,-314.98
26.859,-152.1
26.875,-13.36
26.890,101.55
26.906,203.55
26.921,296.26
26.937,377.71
26.953,445.2
26.968,498.12
26.984,538.76
27.000,571.37
27.015,592.45
27.031,595.85
27.046,578.61
27.062,542.88
27.078,496.52
27.093,444.24
27.109,388.99
27.125,332.79
27.140,281.6
27.156,239.08
27.171,209.28
27.187,196.38
27.203,202.56
27.218,226.24
27.234,262.16
27.250,303.88
27.265,343.94
27.281,376.9
27.296,395.93
27.312,394.84
27.328,371.11
27.343,326.19
27.359,264.88
27.375,193.69
27.390,119.91
27.406,49.61
27.421,-12.45
27.437,-64.61
27.453,-108.24
27.468,-145.66
27.484,-179.51
27.500,-211.79
27.515,-243.24
27.531,-271.67
27.546,-292.44
27.562,-299.72
27.578,-288.91
27.593,-259.0
27.609,-213.19
27.625,-158.67
27.640,-105.71
27.656,-65.68
27.671,-47.68
27.687,-56.4
27.703,-91.3
27.718,-146.93
27.734,-215.5
27.750,-288.38
27.765,-357.03
27.781,-413.33
27.796,-449.37
27.812,-458.24
27.828,-436.07
27.843,-384.59
27.859,-311.52
27.875,-229.42
27.890,-151.53
27.906,-87.59
27.921,-41.66
27.937,-11.41
27.953,9.44
27.968,27.81
27.984,47.86
28.000,70.72
28.015,94.53
28.031,116.72
28.046,134.81
28.062,146.76
28.078,152.97
28.093,156.25
28.109,160.14
28.125,167.35
28.140,179.11
28.156,195.0
28.171,214.08
28.187,233.21
28.203,244.98
28.218,241.24
28.234,215.74
28.250,165.86
28.265,95.62
28.281,16.37
28.296,-55.99
28.312,-104.47
28.328,-119.21
28.343,-104.61
28.359,-73.09
28.375,-37.58
28.390,-6.97
28.406,17.85
28.421,43.29
28.437,77.21
28.453,125.46
28.468,186.27
28.484,247.07
28.500,295.02
28.515,324.22
28.531,335.15
28.546,333.21
28.562,325.93
28.578,303.51
28.593,258.35
28.609,210.93
28.625,168.53
28.640,122.28
28.656,69.12
28.671,10.03
28.687,-50.87
28.703,-107.51
28.718,-154.17
28.734,-185.07
28.750,-197.94
28.765,-197.73
28.781,-188.71
28.796,-171.33
28.812,-145.36
28.828,-111.04
28.843,-70.81
28.859,-29.89
28.875,6.93
28.890,35.32
28.906,49.93
28.921,50.41
28.937,41.9
28.953,31.05
28.968,23.6
28.984,23.05
29.000,30.12
29.015,45.29
29.031,68.54
29.046,97.35
29.062,129.76
29.078,164.53
29.093,199.36
29.109,230.73
29.125,255.1
29.140,269.51
29.156,273.46
29.171,268.93
29.187,258.39
29.203,245.11
29.218,232.28
29.234,221.59
29.250,213.32
29.265,207.37
29.281,203.78
29.296,202.99
29.312,204.48
29.328,205.78
29.343,203.13
29.359,193.09
29.375,174.23
29.390,148.05
29.406,118.88
29.421,91.9
29.437,70.95
29.453,56.92
29.468,47.55
29.484,38.66
29.500,26.31
29.515,8.06
29.531,-17.22
29.546,-50.12
29.562,-90.46
29.578,-136.54
29.593,-184.02
29.609,-226.83
29.625,-259.35
29.640,-279.39
29.656,-289.87
29.671,-297.38
29.687,-308.82
29.703,-326.69
29.718,-346.99
29.734,-360.59
29.750,-358.35
29.765,-336.48
29.781,-299.69
29.796,-259.45
29.812,-228.85
29.828,-216.62
29.843,-222.9
29.859,-239.69
29.875,-254.57
29.890,-256.52
29.906,-240.07
29.921,-206.82
29.937,-162.83
29.953,-114.66
29.968,-66.15
29.984,-18.05
30.000,30.15
30.015,78.21
30.031,123.86
30.046,163.35
30.062,192.71
30.078,209.8
30.093,215.13
30.109,211.93
30.125,205.1
30.140,200.38
30.156,203.1
30.171,216.61
30.187,241.24
30.203,272.72
30.218,303.83
30.234,326.57
30.250,335.03
30.265,326.91
30.281,304.18
30.296,271.73
30.312,234.98
30.328,198.16
30.343,161.8
30.359,124.03
30.375,81.81
30.390,33.64
30.406,-20.68
30.421,-80.28
30.437,-143.95
30.453,-210.88
30.468,-279.72
30.484,-349.28
30.500,-412.67
30.515,-459.22
30.531,-476.95
30.546,-458.19
30.562,-403.1
30.578,-319.08
30.593,-223.59
30.609,-126.12
30.625,-33.87
30.640,46.1
30.656,107.23
30.671,145.46
30.687,159.38
30.703,152.54
30.718,133.71
30.734,113.15
30.750,99.69
30.765,96.61
30.781,101.4
30.796,107.5
30.812,107.5
30.828,96.02
30.843,72.07
30.859,39.8
30.875,4.58
30.890,-28.38
30.906,-56.36
30.921,-80.22
30.937,-103.86
30.953,-132.41
30.968,-170.52
30.984,-220.11
31.000,-277.6
31.015,-332.57
31.031,-372.41
31.046,-385.62
31.062,-366.62
31.078,-318.56
31.093,-251.65
31.109,-179.23
31.125,-116.51
31.140,-65.51
31.156,-23.35
31.171,14.62
31.187,53.07
31.203,95.32
31.218,142.72
31.234,193.37
31.250,241.95
31.265,280.48
31.281,300.88
31.296,296.02
31.312,262.96
31.328,204.39
31.343,127.53
31.359,41.44
31.375,-44.8
31.390,-123.96
31.406,-189.6
31.421,-234.71
31.437,-253.3
31.453,-241.28
31.468,-198.54
31.484,-131.01
31.500,-50.52
31.515,29.02
31.531,94.85
31.546,139.44
31.562,162.02
31.578,166.21
31.593,157.45
31.609,140.62
31.625,118.31
31.640,91.32
31.656,60.45
31.671,27.59
31.687,-3.67
31.703,-29.12
31.718,-45.81
31.734,-53.13
31.750,-52.82
31.765,-47.98
31.781,-41.72
31.796,-35.72
31.812,-30.02
31.828,-23.43
31.843,-14.59
31.859,-3.51
31.875,8.38
31.890,18.31
31.906,23.3
31.921,20.81
31.937,10.1
31.953,-7.43
31.968,-28.56
31.984,-48.96
32.000,-64.92
32.015,-74.25
32.031,-77.06
32.046,-75.09
32.062,-70.83
32.078,-66.0
32.093,-60.75
32.109,-53.74
32.125,-43.2
32.140,-28.23
32.156,-9.44
32.171,10.99
32.187,30.41
32.203,46.58
32.218,58.46
32.234,66.25
32.250,71.08
32.265,74.73
32.281,79.02
32.296,85.54
32.312,95.06
32.328,106.99
32.343,119.45
32.359,129.28
32.375,133.04
32.390,127.72
32.406,112.02
32.421,86.34
32.437,52.65
32.453,13.86
32.468,-26.9
32.484,-66.44
32.500,-101.75
32.515,-129.83
32.531,-148.24
32.546,-155.06
32.562,-149.92
32.578,-134.17
32.593,-110.8
32.609,-83.65
32.625,-56.18
32.640,-30.84
32.656,-8.48
32.671,10.85
32.687,27.34
32.703,40.83
32.718,50.76
32.734,56.74
32.750,59.03
32.765,58.9
32.781,58.12
32.796,58.34
32.812,60.29
32.828,63.2
32.843,65.19
32.859,64.07
32.875,58.29
32.890,47.58
32.906,33.08
32.921,16.71
32.937,0.58
32.953,-13.61
32.968,-24.67
32.984,-32.04
33.000,-35.45
33.015,-34.96
33.031,-31.06
33.046,-24.72
33.062,-17.25
33.078,-9.79
33.093,-2.85
33.109,3.87
33.125,11.5
33.140,20.9
33.156,31.94
33.171,42.85
33.187,50.35
33.203,50.79
33.218,41.55
33.234,22.61
33.250,-3.51
33.265,-31.97
33.281,-57.51
33.296,-75.68
33.312,-84.07
33.328,-82.4
33.343,-71.92
33.359,-54.89
33.375,-33.82
33.390,-11.21
33.406,10.67
33.421,29.85
33.437,44.81
33.453,54.62
33.468,59.17
33.484,59.19
33.500,56.02
33.515,51.02
33.531,45.29
33.546,39.26
33.562,32.49
33.578,24.46
33.593,14.71
33.609,3.32
33.625,-8.96
33.640,-20.82
33.656,-30.74
33.671,-37.28
33.687,-39.24
33.703,-36.09
33.718,-28.11
33.734,-16.26
33.750,-2.4
33.765,11.31
33.781,22.84
33.796,30.8
33.812,34.82
33.828,35.13
33.843,32.53
33.859,27.79
33.875,21.65
33.890,14.69
33.906,7.57
33.921,1.1
33.937,-3.87
33.953,-6.68
33.968,-7.09
33.984,-5.46
34.000,-2.55
34.015,0.94
34.031,4.45
34.046,7.8
34.062,10.9
34.078,13.56
34.093,15.37
34.109,15.87
34.125,14.58
34.140,11.44
34.156,6.97
34.171,2.08
34.187,-1.88
34.203,-3.81
34.218,-3.15
34.234,-0.1
34.250,4.5
34.265,9.33
34.281,13.38
34.296,16.08
34.312,17.6
34.328,18.87
34.343,20.79
34.359,23.88
34.375,27.95
34.390,32.25
34.406,35.48
34.421,36.51
34.437,34.57
34.453,29.3
34.468,21.13
34.484,11.33
34.500,1.87
34.515,-4.18
34.531,-3.33
34.546,7.22
34.562,28.18
34.578,57.36
34.593,89.59
34.609,118.36
34.625,137.75
34.640,144.26
34.656,137.64
34.671,120.03
34.687,94.77
34.703,65.11
34.718,33.76
34.734,2.94
34.750,-25.07
34.765,-48.28
34.781,-65.19
34.796,-75.4
34.812,-79.91
34.828,-80.6
34.843,-79.29
34.859,-76.99
34.875,-73.71
34.890,-68.43
34.906,-60.19
34.921,-48.57
34.937,-34.34
34.953,-19.39
34.968,-6.22
34.984,3.03
35.000,7.18
35.015,6.32
35.031,1.55
35.046,-5.43
35.062,-12.82
35.078,-19.33
35.093,-24.28
35.109,-27.72
35.125,-30.24
35.140,-32.68
35.156,-35.39
35.171,-38.03
35.187,-39.48
35.203,-38.15
35.218,-32.85
35.234,-23.24
35.250,-10.06
35.265,5.03
35.281,20.06
35.296,33.12
35.312,42.93
35.328,49.03
35.343,51.85
35.359,52.57
35.375,52.87
35.390,54.39
35.406,58.03
35.421,63.66
35.437,69.77
35.453,73.91
35.468,73.48
35.484,66.36
35.500,51.52
35.515,29.58
35.531,2.55
35.546,-26.52
35.562,-54.08
35.578,-76.75
35.593,-91.9
35.609,-98.04
35.625,-95.01
35.640,-83.97
35.656,-67.24
35.671,-47.6
35.687,-28.03
35.703,-10.96
35.718,1.98
35.734,10.2
35.750,14.09
35.765,14.51
35.781,12.66
35.796,9.54
35.812,5.93
35.828,2.17
35.843,-1.54
35.859,-5.09
35.875,-8.33
35.890,-10.86
35.906,-12.37
35.921,-12.57
35.937,-11.36
35.953,-8.95
35.968,-5.72
35.984,-2.07
36.000,1.66
36.015,5.24
36.031,8.65
36.046,11.9
36.062,14.93
36.078,17.67
36.093,20.05
36.109,22.04
36.125,23.71
36.140,25.23
36.156,26.43
36.171,27.03
36.187,26.59
36.203,24.63
36.218,20.81
36.234,15.05
36.250,7.83
36.265,0.1
36.281,-6.58
36.296,-10.81
36.312,-11.36
36.328,-7.75
36.343,-0.58
36.359,8.65
36.375,17.68
36.390,24.31
36.406,26.86
36.421,24.8
36.437,18.56
36.453,9.57
36.468,-0.1
36.484,-8.46
36.500,-13.78
36.515,-15.24
36.531,-12.96
36.546,-8.1
36.562,-2.39
36.578,2.14
36.593,4.14
36.609,3.46
36.625,1.11
36.640,-0.71
36.656,0.08
36.671,4.58
36.687,12.06
36.703,20.28
36.718,25.88
36.734,26.11
36.750,19.73
36.765,7.32
36.781,-8.64
36.796,-25.17
36.812,-39.61
36.828,-50.35
36.843,-56.72
36.859,-58.74
36.875,-56.62
36.890,-50.74
36.906,-42.0
36.921,-31.66
36.937,-21.38
36.953,-12.81
36.968,-6.77
36.984,-3.08
37.000,-0.51
37.015,2.46
37.031,7.03
37.046,13.42
37.062,20.93
37.078,28.03
37.093,32.94
37.109,34.54
37.125,32.42
37.140,27.25
37.156,20.38
37.171,13.38
37.187,7.55
37.203,3.86
37.218,2.5
37.234,2.93
37.250,4.3
37.265,5.4
37.281,5.21
37.296,3.13
37.312,-0.83
37.328,-5.95
37.343,-10.94
37.359,-14.25
37.375,-14.65
37.390,-11.12
37.406,-3.83
37.421,6.14
37.437,16.86
37.453,26.16
37.468,32.21
37.484,34.19
37.500,32.55
37.515,28.53
37.531,23.84
37.546,19.84
37.562,17.14
37.578,15.64
37.593,14.42
37.609,12.45
37.625,8.74
37.640,2.91
37.656,-4.63
37.671,-13.09
37.687,-21.45
37.703,-28.81
37.718,-34.31
37.734,-37.55
37.750,-38.21
37.765,-36.3
37.781,-32.27
37.796,-26.86
37.812,-21.13
37.828,-16.06
37.843,-12.3
37.859,-9.77
37.875,-8.07
37.890,-6.38
37.906,-4.24
37.921,-1.43
37.937,1.87
37.953,5.27
37.968,8.44
37.984,11.09
38.000,13.15
38.015,14.62
38.031,15.63
38.046,16.28
38.062,16.57
38.078,16.48
38.093,15.71
38.109,13.99
38.125,11.0
38.140,6.44
38.156,0.55
38.171,-6.1
38.187,-12.38
38.203,-17.45
38.218,-20.64
38.234,-21.84
38.250,-21.28
38.265,-19.38
38.281,-16.58
38.296,-13.24
38.312,-9.87
38.328,-6.74
38.343,-4.33
38.359,-2.79
38.375,-2.09
38.390,-1.48
38.406,-0.26
38.421,2.26
38.437,6.14
38.453,10.52
38.468,14.06
38.484,15.48
38.500,14.04
38.515,9.9
38.531,4.14
38.546,-2.1
38.562,-7.64
38.578,-12.01
38.593,-15.32
38.609,-17.91
38.625,-20.0
38.640,-21.46
38.656,-21.88
38.671,-21.0
38.687,-18.9
38.703,-16.12
38.718,-13.29
38.734,-10.99
38.750,-9.02
38.765,-6.84
38.781,-3.68
38.796,0.96
38.812,6.76
38.828,12.73
38.843,17.48
38.859,19.79
38.875,19.0
38.890,15.52
38.906,10.25
38.921,4.39
38.937,-0.99
38.953,-5.11
38.968,-7.77
38.984,-8.86
39.000,-8.58
39.015,-7.26
39.031,-5.25
39.046,-3.16
39.062,-1.57
39.078,-0.87
39.093,-0.91
39.109,-1.22
39.125,-0.91
39.140,0.49
39.156,2.79
39.171,5.15
39.187,6.32
39.203,5.07
39.218,1.13
39.234,-4.82
39.250,-11.25
39.265,-15.9
39.281,-16.9
39.296,-13.33
39.312,-5.55
39.328,4.41
39.343,13.55
39.359,18.71
39.375,17.93
39.390,11.11
39.406,0.59
39.421,-9.81
39.437,-16.24
39.453,-15.94
39.468,-9.04
39.484,2.13
39.500,13.9
39.515,22.74
39.531,26.26
39.546,23.94
39.562,16.6
39.578,6.02
39.593,-5.36
39.609,-15.48
39.625,-22.73
39.640,-26.38
39.656,-26.47
39.671,-23.79
39.687,-19.56
39.703,-15.07
39.718,-11.19
39.734,-7.79
39.750,-4.48
39.765,-0.33
39.781,5.19
39.796,11.91
39.812,18.79
39.828,24.01
39.843,25.63
39.859,22.42
39.875,15.16
39.890,6.23
39.906,-0.77
39.921,-2.8
39.937,1.49
39.953,11.25
39.968,23.92
39.984,36.2
40.000,45.09
40.015,48.39
40.031,44.61
40.046,33.17
40.062,14.26
40.078,-10.67
40.093,-38.77
40.109,-66.16
40.125,-89.36
40.140,-106.59
40.156,-118.27
40.171,-126.45
40.187,-133.36
40.203,-139.65
40.218,-143.42
40.234,-140.37
40.250,-125.89
40.265,-97.42
40.281,-57.02
40.296,-11.9
40.312,27.29
40.328,50.02
40.343,49.47
40.359,24.91
40.375,-18.28
40.390,-71.15
40.406,-123.62
40.421,-166.77
40.437,-193.54
40.453,-199.45
40.468,-182.69
40.484,-145.36
40.500,-93.71
40.515,-37.52
40.531,12.24
40.546,47.22
40.562,64.64
40.578,68.25
40.593,66.08
40.609,66.68
40.625,75.06
40.640,90.98
40.656,110.01
40.671,126.82
40.687,137.89
40.703,142.82
40.718,143.37
40.734,141.59
40.750,138.2
40.765,132.48
40.781,123.32
40.796,110.6
40.812,95.99
40.828,82.42
40.843,72.75
40.859,68.45
40.875,69.36
40.890,73.61
40.906,78.59
40.921,82.01
40.937,83.27
40.953,83.44
40.968,84.86
40.984,89.76
41.000,99.45
41.015,113.85
41.031,130.76
41.046,146.48
41.062,157.1
41.078,160.32
41.093,155.94
41.109,146.01
41.125,132.95
41.140,118.88
41.156,105.38
41.171,92.47
41.187,78.91
41.203,63.35
41.218,45.34
41.234,25.79
41.250,7.2
41.265,-7.4
41.281,-14.5
41.296,-9.91
41.312,8.97
41.328,40.87
41.343,79.3
41.359,113.21
41.375,130.26
41.390,120.62
41.406,80.68
41.421,9.83
41.437,-81.71
41.453,-175.91
41.468,-253.71
41.484,-303.46
41.500,-324.53
41.515,-323.49
41.531,-308.02
41.546,-282.74
41.562,-249.37
41.578,-208.0
41.593,-161.28
41.609,-114.7
41.625,-75.26
41.640,-48.58
41.656,-36.06
41.671,-34.77
41.687,-39.45
41.703,-44.92
41.718,-46.57
41.734,-42.05
41.750,-30.39
41.765,-11.72
41.781,12.58
41.796,39.33
41.812,63.15
41.828,77.48
41.843,77.18
41.859,61.62
41.875,35.15
41.890,5.17
41.906,-21.13
41.921,-39.63
41.937,-50.0
41.953,-54.73
41.968,-56.91
41.984,-58.45
42.000,-59.41
42.015,-58.27
42.031,-53.87
42.046,-45.95
42.062,-35.2
42.078,-22.86
42.093,-10.03
42.109,2.54
42.125,14.01
42.140,23.6
42.156,32.13
42.171,40.86
42.187,51.07
42.203,63.01
42.218,75.48
42.234,85.86
42.250,91.57
42.265,90.95
42.281,82.79
42.296,68.74
42.312,52.18
42.328,37.43
42.343,27.48
42.359,22.82
42.375,21.57
42.390,20.67
42.406,17.06
42.421,8.92
42.437,-3.74
42.453,-19.95
42.468,-37.28
42.484,-52.2
42.500,-60.96
42.515,-59.93
42.531,-47.59
42.546,-26.4
42.562,-2.42
42.578,16.48
42.593,23.55
42.609,17.43
42.625,2.65
42.640,-14.06
42.656,-26.66
42.671,-32.65
42.687,-33.49
42.703,-32.36
42.718,-31.4
42.734,-32.43
42.750,-34.38
42.765,-34.76
42.781,-32.17
42.796,-27.22
42.812,-21.93
42.828,-18.68
42.843,-19.22
42.859,-23.89
42.875,-33.21
42.890,-45.55
42.906,-57.51
42.921,-64.66
42.937,-62.83
42.953,-49.65
42.968,-25.79
42.984,5.53
43.000,38.96
43.015,68.6
43.031,90.93
43.046,104.43
43.062,107.94
43.078,100.43
43.093,81.53
43.109,51.04
43.125,15.18
43.140,-15.76
43.156,-36.04
43.171,-43.39
43.187,-38.75
43.203,-23.56
43.218,-2.03
43.234,20.5
43.250,39.15
43.265,50.59
43.281,52.44
43.296,42.86
43.312,22.38
43.328,-5.85
43.343,-37.56
43.359,-66.65
43.375,-86.17
43.390,-89.85
43.406,-73.96
43.421,-39.41
43.437,8.05
43.453,59.95
43.468,107.02
43.484,140.93
43.500,156.38
43.515,151.84
43.531,128.92
43.546,92.13
43.562,46.92
43.578,-1.21
43.593,-46.56
43.609,-83.2
43.625,-105.83
43.640,-109.67
43.656,-91.63
43.671,-51.95
43.687,4.92
43.703,69.96
43.718,131.14
43.734,176.58
43.750,197.86
43.765,192.09
43.781,163.02
43.796,119.52
43.812,72.29
43.828,31.27
43.843,3.37
43.859,-8.24
43.875,-3.83
43.890,13.07
43.906,35.86
43.921,55.7
43.937,63.75
43.953,52.82
43.968,19.96
43.984,-33.26
44.000,-101.89
44.015,-178.79
44.031,-256.4
44.046,-327.19
44.062,-383.97
44.078,-420.12
44.093,-431.36
44.109,-416.58
44.125,-379.16
44.140,-326.19
44.156,-266.42
44.171,-207.69
44.187,-155.18
44.203,-111.23
44.218,-76.25
44.234,-50.26
44.250,-32.99
44.265,-23.8
44.281,-20.76
44.296,-20.41
44.312,-18.6
44.328,-11.93
44.343,1.27
44.359,20.3
44.375,42.35
44.390,63.64
44.406,81.09
44.421,92.94
44.437,100.14
44.453,105.58
44.468,113.23
44.484,126.69
44.500,147.56
44.515,174.64
44.531,203.78
44.546,229.16
44.562,244.86
44.578,246.25
44.593,230.47
44.609,196.55
44.625,144.65
44.640,76.18
44.656,-6.21
44.671,-98.18
44.687,-193.01
44.703,-281.55
44.718,-353.26
44.734,-398.19
44.750,-409.79
44.765,-387.83
44.781,-338.79
44.796,-273.92
44.812,-205.45
44.828,-142.42
44.843,-88.11
44.859,-41.05
44.875,1.98
44.890,42.56
44.906,78.6
44.921,105.64
44.937,119.71
44.953,120.19
44.968,110.85
44.984,98.39
45.000,89.66
45.015,88.65
45.031,95.51
45.046,106.35
45.062,115.7
45.078,118.69
45.093,112.59
45.109,96.96
45.125,73.08
45.140,43.58
45.156,11.02
45.171,-22.1
45.187,-54.07
45.203,-83.34
45.218,-108.21
45.234,-126.18
45.250,-134.32
45.265,-130.51
45.281,-114.13
45.296,-86.62
45.312,-50.85
45.328,-10.62
45.343,30.84
45.359,71.36
45.375,109.55
45.390,144.16
45.406,173.46
45.421,195.39
45.437,208.3
45.453,212.27
45.468,209.32
45.484,203.0
45.500,197.6
45.515,195.73
45.531,198.44
45.546,205.03
45.562,213.62
45.578,221.72
45.593,227.17
45.609,228.51
45.625,224.38
45.640,214.88
45.656,200.68
45.671,183.38
45.687,164.94
45.703,146.49
45.718,127.2
45.734,104.04
45.750,73.1
45.765,31.25
45.781,-22.01
45.796,-83.8
45.812,-148.32
45.828,-208.58
45.843,-259.14
45.859,-297.34
45.875,-323.74
45.890,-341.1
45.906,-353.1
45.921,-362.99
45.937,-372.78
45.953,-382.91
45.968,-391.46
45.984,-394.49
46.000,-386.2
46.015,-361.3
46.031,-317.39
46.046,-256.43
46.062,-184.99
46.078,-112.05
46.093,-46.04
46.109,7.73
46.125,47.36
46.140,74.0
46.156,90.29
46.171,99.4
46.187,104.63
46.203,109.54
46.218,117.99
46.234,133.9
46.250,159.47
46.265,193.8
46.281,232.33
46.296,267.55
46.312,291.29
46.328,297.42
46.343,283.75
46.359,252.89
46.375,211.18
46.390,166.44
46.406,125.49
46.421,92.52
46.437,69.38
46.453,56.2
46.468,52.36
46.484,56.98
46.500,69.51
46.515,89.21
46.531,114.99
46.546,145.59
46.562,179.44
46.578,214.63
46.593,248.86
46.609,279.5
46.625,303.95
46.640,320.31
46.656,327.66
46.671,326.31
46.687,317.54
46.703,303.03
46.718,284.13
46.734,261.55
46.750,235.91
46.765,208.06
46.781,179.6
46.796,152.17
46.812,127.19
46.828,105.21
46.843,85.55
46.859,66.67
46.875,46.26
46.890,22.65
46.906,-4.56
46.921,-34.02
46.937,-62.87
46.953,-87.85
46.968,-106.71
46.984,-119.35
47.000,-127.34
47.015,-133.07
47.031,-138.41
47.046,-144.25
47.062,-150.92
47.078,-158.59
47.093,-167.24
47.109,-176.1
47.125,-182.59
47.140,-182.27
47.156,-170.2
47.171,-143.89
47.187,-106.04
47.203,-65.64
47.218,-34.73
47.234,-23.32
47.250,-34.65
47.265,-63.67
47.281,-98.63
47.296,-126.67
47.312,-139.18
47.328,-135.18
47.343,-121.48
47.359,-108.19
47.375,-103.51
47.390,-109.86
47.406,-125.56
47.421,-144.31
47.437,-157.65
47.453,-157.66
47.468,-139.92
47.484,-104.52
47.500,-55.44
47.515,2.33
47.531,64.37
47.546,123.19
47.562,172.09
47.578,206.4
47.593,223.76
47.609,223.43
47.625,205.89
47.640,173.41
47.656,130.58
47.671,82.98
47.687,29.8
47.703,-30.99
47.718,-98.92
47.734,-169.01
47.750,-233.99
47.765,-288.17
47.781,-328.35
47.796,-354.64
47.812,-370.04
47.828,-385.29
47.843,-410.18
47.859,-448.07
47.875,-495.72
47.890,-548.31
47.906,-604.9
47.921,-667.56
47.937,-737.49
47.953,-766.52
47.968,-717.66
47.984,-585.94
48.000,-403.32
48.015,-212.11
48.031,-40.32
48.046,100.46
48.062,208.87
48.078,289.11
48.093,345.8
48.109,381.95
48.125,397.15
48.140,393.49
48.156,377.39
48.171,356.7
48.187,336.6
48.203,319.41
48.218,306.02
48.234,294.49
48.250,278.1
48.265,249.47
48.281,206.76
48.296,155.61
48.312,106.1
48.328,68.12
48.343,47.63
48.359,45.01
48.375,55.46
48.390,68.14
48.406,73.06
48.421,66.46
48.437,51.55
48.453,33.98
48.468,16.93
48.484,-0.69
48.500,-22.85
48.515,-53.06
48.531,-93.07
48.546,-140.48
48.562,-189.36
48.578,-233.53
48.593,-270.01
48.609,-299.57
48.625,-324.38
48.640,-343.97
48.656,-353.58
48.671,-346.46
48.687,-317.31
48.703,-265.69
48.718,-197.27
48.734,-122.05
48.750,-50.41
48.765,10.51
48.781,58.23
48.796,93.78
48.812,119.06
48.828,135.42
48.843,143.87
48.859,145.95
48.875,145.38
48.890,146.96
48.906,155.26
48.921,172.86
48.937,199.87
48.953,234.46
48.968,274.12
48.984,316.62
49.000,359.69
49.015,400.85
49.031,436.75
49.046,463.39
49.062,477.34
49.078,476.71
49.093,461.76
49.109,434.46
49.125,397.37
49.140,352.73
49.156,302.15
49.171,246.66
49.187,187.59
49.203,127.04
49.218,67.56
49.234,11.71
49.250,-39.03
49.265,-84.64
49.281,-126.44
49.296,-166.06
49.312,-204.89
49.328,-243.56
49.343,-281.72
49.359,-318.75
49.375,-353.52
49.390,-384.46
49.406,-409.02
49.421,-423.96
49.437,-425.97
49.453,-413.1
49.468,-386.1
49.484,-348.4
49.500,-305.35
49.515,-262.16
49.531,-222.69
49.546,-188.57
49.562,-160.24
49.578,-137.85
49.593,-121.71
49.609,-111.85
49.625,-106.89
49.640,-103.52
49.656,-96.87
49.671,-82.59
49.687,-58.49
49.703,-25.48
49.718,12.96
49.734,52.51
49.750,90.09
49.765,125.34
49.781,160.34
49.796,198.48
49.812,242.08
49.828,290.57
49.843,339.98
49.859,383.43
49.875,413.07
49.890,422.03
49.906,406.4
49.921,365.9
49.937,303.89
49.953,226.53
49.968,141.74
49.984,58.06
50.000,-16.83
50.015,-77.3
50.031,-121.26
50.046,-150.55
50.062,-169.94
50.078,-185.12
50.093,-200.05
50.109,-214.88
50.125,-226.14
50.140,-228.33
50.156,-216.44
50.171,-187.96
50.187,-143.71
50.203,-87.15
50.218,-23.01
50.234,43.86
50.250,108.65
50.265,166.63
50.281,212.96
50.296,243.23
50.312,254.76
50.328,247.65
50.343,225.29
50.359,193.53
50.375,159.43
50.390,129.14
50.406,106.67
50.421,93.43
50.437,88.49
50.453,90.01
50.468,96.16
50.484,106.09
50.500,119.92
50.515,138.29
50.531,161.78
50.546,189.89
50.562,220.95
50.578,251.86
50.593,278.91
50.609,298.74
50.625,308.82
50.640,308.15
50.656,296.87
50.671,276.01
50.687,247.16
50.703,212.44
50.718,174.2
50.734,135.25
50.750,98.55
50.765,66.48
50.781,40.44
50.796,20.6
50.812,6.08
50.828,-4.47
50.843,-12.01
50.859,-17.13
50.875,-19.67
50.890,-18.97
50.906,-14.2
50.921,-4.57
50.937,10.06
50.953,28.94
50.968,49.95
50.984,70.07
51.000,85.8
51.015,93.87
51.031,92.3
51.046,80.69
51.062,60.4
51.078,33.93
51.093,4.1
51.109,-26.2
51.125,-54.73
51.140,-79.88
51.156,-101.02
51.171,-118.73
51.187,-134.35
51.203,-149.62
51.218,-165.67
51.234,-182.43
51.250,-197.88
51.265,-208.81
51.281,-211.98
51.296,-205.35
51.312,-189.33
51.328,-166.63
51.343,-141.23
51.359,-117.14
51.375,-96.87
51.390,-81.37
51.406,-70.48
51.421,-63.88
51.437,-61.56
51.453,-63.78
51.468,-70.95
51.484,-82.86
51.500,-98.66
51.515,-116.85
51.531,-135.95
51.546,-154.99
51.562,-173.94
51.578,-193.37
51.593,-214.33
51.609,-237.57
51.625,-263.49
51.640,-291.5
51.656,-319.21
51.671,-342.74
51.687,-356.88
51.703,-356.64
51.718,-338.59
51.734,-302.66
51.750,-252.43
51.765,-194.65
51.781,-138.26
51.796,-92.03
51.812,-63.14
51.828,-55.61
51.843,-69.32
51.859,-100.05
51.875,-140.24
51.890,-180.81
51.906,-213.54
51.921,-233.4
51.937,-239.99
51.953,-236.8
51.968,-229.35
51.984,-222.15
52.000,-216.95
52.015,-212.82
52.031,-207.7
52.046,-200.32
52.062,-191.56
52.078,-184.41
52.093,-182.41
52.109,-186.99
52.125,-195.95
52.140,-203.71
52.156,-203.54
52.171,-190.74
52.187,-164.99
52.203,-130.03
52.218,-91.98
52.234,-56.48
52.250,-26.5
52.265,-1.5
52.281,20.91
52.296,43.3
52.312,66.82
52.328,91.21
52.343,116.41
52.359,142.91
52.375,172.15
52.390,205.28
52.406,242.44
52.421,281.84
52.437,319.6
52.453,351.27
52.468,373.9
52.484,388.75
52.500,399.95
52.515,412.1
52.531,427.69
52.546,445.65
52.562,462.88
52.578,475.07
52.593,478.92
52.609,473.5
52.625,461.53
52.640,445.1
52.656,422.67
52.671,389.24
52.687,339.21
52.703,271.87
52.718,192.82
52.734,113.15
52.750,45.83
52.765,3.79
52.781,-6.58
52.796,12.3
52.812,50.99
52.828,98.34
52.843,145.84
52.859,187.93
52.875,220.41
52.890,224.36
52.906,187.75
52.921,115.28
52.937,25.98
52.953,-61.66
52.968,-137.91
52.984,-199.87
53.000,-247.92
53.015,-282.92
53.031,-303.09
53.046,-303.73
53.062,-281.86
53.078,-241.23
53.093,-193.61
53.109,-153.62
53.125,-131.41
53.140,-128.44
53.156,-139.25
53.171,-154.37
53.187,-165.58
53.203,-170.62
53.218,-172.03
53.234,-173.01
53.250,-172.1
53.265,-165.57
53.281,-145.82
53.296,-110.72
53.312,-65.25
53.328,-17.81
53.343,22.99
53.359,52.32
53.375,69.11
53.390,75.78
53.406,75.72
53.421,71.03
53.437,62.35
53.453,49.99
53.468,35.19
53.484,20.7
53.500,10.25
53.515,5.91
53.531,7.95
53.546,14.41
53.562,21.19
53.578,23.28
53.593,17.26
53.609,3.16
53.625,-15.27
53.640,-30.09
53.656,-33.91
53.671,-25.53
53.687,-6.95
53.703,18.32
53.718,46.19
53.734,74.22
53.750,102.57
53.765,131.09
53.781,158.73
53.796,181.79
53.812,194.59
53.828,192.84
53.843,175.34
53.859,143.42
53.875,99.81
53.890,47.45
53.906,-12.08
53.921,-72.98
53.937,-128.33
53.953,-173.39
53.968,-207.11
53.984,-231.44
54.000,-248.72
54.015,-259.96
54.031,-263.64
54.046,-256.76
54.062,-235.95
54.078,-201.56
54.093,-158.38
54.109,-114.53
54.125,-78.79
54.140,-56.96
54.156,-50.74
54.171,-56.42
54.187,-68.9
54.203,-81.2
54.218,-89.28
54.234,-92.08
54.250,-89.92
54.265,-83.3
54.281,-71.69
54.296,-55.01
54.312,-34.3
54.328,-12.32
54.343,9.27
54.359,29.36
54.375,47.66
54.390,64.72
54.406,81.75
54.421,101.25
54.437,124.64
54.453,151.92
54.468,178.61
54.484,202.38
54.500,222.12
54.515,238.08
54.531,251.35
54.546,263.91
54.562,279.42
54.578,299.07
54.593,320.31
54.609,336.8
54.625,341.14
54.640,326.56
54.656,289.59
54.671,231.56
54.687,151.63
54.703,62.34
54.718,-17.34
54.734,-71.79
54.750,-95.97
54.765,-94.1
54.781,-74.17
54.796,-43.08
54.812,-6.24
54.828,32.85
54.843,74.16
54.859,115.54
54.875,154.5
54.890,188.26
54.906,216.22
54.921,239.13
54.937,258.36
54.953,271.63
54.968,275.75
54.984,271.85
55.000,258.71
55.015,232.85
55.031,191.94
55.046,136.53
55.062,69.91
55.078,-0.4
55.093,-69.87
55.109,-135.26
55.125,-189.45
55.140,-231.29
55.156,-265.55
55.171,-296.19
55.187,-323.63
55.203,-345.14
55.218,-357.52
55.234,-364.79
55.250,-374.03
55.265,-385.85
55.281,-402.26
55.296,-426.28
55.312,-455.84
55.328,-484.55
55.343,-504.45
55.359,-484.26
55.375,-408.45
55.390,-319.44
55.406,-238.66
55.421,-161.79
55.437,-91.28
55.453,-29.52
55.468,22.1
55.484,64.63
55.500,101.72
55.515,134.5
55.531,164.05
55.546,196.3
55.562,229.28
55.578,252.67
55.593,256.32
55.609,234.25
55.625,187.73
55.640,124.4
55.656,52.49
55.671,-19.61
55.687,-80.23
55.703,-123.76
55.718,-150.86
55.734,-163.51
55.750,-164.33
55.765,-157.31
55.781,-147.06
55.796,-139.33
55.812,-137.27
55.828,-136.34
55.843,-130.73
55.859,-116.07
55.875,-90.55
55.890,-55.61
55.906,-16.29
55.921,20.89
55.937,50.05
55.953,68.57
55.968,78.96
55.984,84.5
56.000,86.88
56.015,86.43
56.031,82.66
56.046,75.24
56.062,63.88
56.078,47.89
56.093,25.74
56.109,-4.6
56.125,-44.97
56.140,-95.79
56.156,-154.01
56.171,-212.8
56.187,-263.66
56.203,-298.73
56.218,-312.4
56.234,-303.34
56.250,-274.22
56.265,-229.44
56.281,-173.64
56.296,-110.64
56.312,-43.46
56.328,24.22
56.343,87.87
56.359,143.67
56.375,188.33
56.390,219.5
56.406,237.56
56.421,244.64
56.437,243.72
56.453,237.63
56.468,227.78
56.484,215.3
56.500,202.73
56.515,192.54
56.531,186.66
56.546,186.6
56.562,192.73
56.578,203.85
56.593,218.17
56.609,233.64
56.625,249.6
56.640,267.59
56.656,287.41
56.671,305.24
56.687,313.59
56.703,303.38
56.718,267.49
56.734,204.84
56.750,121.21
56.765,20.28
56.781,-81.04
56.796,-160.41
56.812,-202.39
56.828,-207.05
56.843,-186.66
56.859,-156.11
56.875,-124.36
56.890,-94.25
56.906,-63.11
56.921,-28.73
56.937,6.28
56.953,36.31
56.968,55.4
56.984,60.71
57.000,53.08
57.015,33.54
57.031,6.53
57.046,-22.0
57.062,-45.12
57.078,-57.54
57.093,-56.41
57.109,-42.49
57.125,-19.6
57.140,3.14
57.156,15.41
57.171,11.55
57.187,-6.74
57.203,-32.3
57.218,-55.95
57.234,-75.17
57.250,-91.73
57.265,-108.59
57.281,-127.88
57.296,-148.1
57.312,-165.38
57.328,-173.71
57.343,-170.02
57.359,-154.34
57.375,-129.17
57.390,-97.74
57.406,-62.93
57.421,-27.32
57.437,8.21
57.453,42.41
57.468,70.1
57.484,83.54
57.500,79.67
57.515,63.3
57.531,44.47
57.546,33.88
57.562,32.75
57.578,40.17
57.593,54.81
57.609,75.68
57.625,98.95
57.640,120.95
57.656,137.17
57.671,142.49
57.687,131.95
57.703,101.2
57.718,45.28
57.734,-34.09
57.750,-128.45
57.765,-224.67
57.781,-308.52
57.796,-368.77
57.812,-400.2
57.828,-404.29
57.843,-395.38
57.859,-381.14
57.875,-367.01
57.890,-356.74
57.906,-352.02
57.921,-352.04
57.937,-354.49
57.953,-358.04
57.968,-360.76
57.984,-363.18
58.000,-364.04
58.015,-361.42
58.031,-352.35
58.046,-333.95
58.062,-303.87
58.078,-260.98
58.093,-206.23
58.109,-142.11
58.125,-72.14
58.140,1.95
58.156,78.49
58.171,155.67
58.187,231.18
58.203,302.18
58.218,365.71
58.234,417.59
58.250,453.34
58.265,469.31
58.281,465.69
58.296,446.14
58.312,417.21
58.328,386.88
58.343,362.48
58.359,350.14
58.375,351.89
58.390,365.52
58.406,385.72
58.421,407.06
58.437,426.25
58.453,442.64
58.468,457.69
58.484,473.2
58.500,492.64
58.515,517.64
58.531,547.46
58.546,578.83
58.562,606.83
58.578,625.03
58.593,626.01
58.609,603.6
58.625,555.13
58.640,487.15
58.656,411.63
58.671,340.35
58.687,280.66
58.703,233.16
58.718,192.71
58.734,151.52
58.750,103.62
58.765,32.44
58.781,-59.74
58.796,-153.32
58.812,-224.8
58.828,-260.55
58.843,-262.36
58.859,-240.74
58.875,-207.05
58.890,-168.65
58.906,-129.12
58.921,-87.4
58.937,-42.01
58.953,2.12
58.968,36.82
58.984,54.59
59.000,53.08
59.015,31.7
59.031,-7.76
59.046,-61.32
59.062,-121.45
59.078,-177.7
59.093,-227.4
59.109,-272.34
59.125,-316.35
59.140,-360.82
59.156,-404.63
59.171,-449.54
59.187,-496.28
59.203,-541.84
59.218,-577.08
59.234,-599.8
59.250,-612.44
59.265,-619.41
59.281,-622.71
59.296,-594.26
59.312,-517.24
59.328,-393.14
59.343,-270.63
59.359,-162.94
59.375,-73.34
59.390,6.33
59.406,75.01
59.421,131.39
59.437,175.09
59.453,202.85
59.468,213.34
59.484,208.45
59.500,197.43
59.515,183.57
59.531,167.0
59.546,145.14
59.562,117.26
59.578,84.52
59.593,45.83
59.609,1.58
59.625,-45.4
59.640,-86.75
59.656,-119.06
59.671,-142.01
59.687,-158.91
59.703,-173.38
59.718,-189.13
59.734,-210.72
59.750,-239.67
59.765,-272.52
59.781,-299.0
59.796,-310.28
59.812,-300.13
59.828,-268.26
59.843,-219.3
59.859,-162.48
59.875,-110.59
59.890,-75.25
59.906,-63.6
59.921,-75.42
59.937,-106.51
59.953,-149.16
59.968,-194.54
59.984,-234.02
