timestamp,value
00.000,-272.81
00.015,-277.6
00.031,-264.99
00.046,-237.8
00.062,-199.83
00.078,-155.08
00.093,-107.28
00.109,-59.01
00.125,-12.64
00.140,30.6
00.156,70.83
00.171,108.82
00.187,145.48
00.203,181.0
00.218,215.34
00.234,247.66
00.250,276.59
00.265,298.83
00.281,309.63
00.296,305.25
00.312,283.98
00.328,246.85
00.343,195.57
00.359,132.51
00.375,60.15
00.390,-14.89
00.406,-85.11
00.421,-145.39
00.437,-191.45
00.453,-217.99
00.468,-219.61
00.484,-193.7
00.500,-142.13
00.515,-70.86
00.531,13.31
00.546,100.36
00.562,174.98
00.578,223.04
00.593,236.49
00.609,218.27
00.625,174.13
00.640,113.43
00.656,36.59
00.671,-54.61
00.687,-163.09
00.703,-288.03
00.718,-428.26
00.734,-577.08
00.750,-723.28
00.765,-855.38
00.781,-964.49
00.796,-1045.82
00.812,-1096.12
00.828,-1073.76
00.843,-959.77
00.859,-766.0
00.875,-528.56
00.890,-287.67
00.906,-70.57
00.921,112.65
00.937,255.49
00.953,371.13
00.968,464.52
00.984,530.63
01.000,565.24
01.015,569.34
01.031,549.72
01.046,507.19
01.062,446.13
01.078,369.79
01.093,281.71
01.109,181.38
01.125,67.18
01.140,-55.95
01.156,-175.31
01.171,-272.94
01.187,-332.0
01.203,-338.87
01.218,-289.08
01.234,-187.48
01.250,-50.84
01.265,97.16
01.281,233.64
01.296,341.2
01.312,410.47
01.328,427.27
01.343,387.54
01.359,306.67
01.375,214.22
01.390,133.18
01.406,70.6
01.421,20.42
01.437,-27.99
01.453,-80.74
01.468,-139.67
01.484,-200.57
01.500,-255.91
01.515,-301.73
01.531,-342.84
01.546,-382.36
01.562,-420.3
01.578,-455.14
01.593,-479.68
01.609,-488.64
01.625,-478.02
01.640,-443.48
01.656,-385.51
01.671,-310.43
01.687,-225.04
01.703,-134.85
01.718,-45.77
01.734,38.89
01.750,115.75
01.765,182.6
01.781,241.44
01.796,294.47
01.812,340.95
01.828,381.22
01.843,415.3
01.859,440.56
01.875,459.55
01.890,476.64
01.906,467.64
01.921,420.42
01.937,339.86
01.953,244.21
01.968,156.35
01.984,110.92
02.000,100.62
02.015,114.17
02.031,144.07
02.046,188.69
02.062,237.79
02.078,286.64
02.093,330.79
02.109,369.1
02.125,398.26
02.140,411.19
02.156,406.68
02.171,386.82
02.187,356.39
02.203,326.56
02.218,307.62
02.234,276.13
02.250,222.23
02.265,150.66
02.281,73.34
02.296,4.21
02.312,-51.23
02.328,-94.42
02.343,-125.76
02.359,-145.44
02.375,-153.79
02.390,-147.47
02.406,-126.4
02.421,-98.28
02.437,-71.97
02.453,-56.43
02.468,-57.29
02.484,-67.17
02.500,-82.42
02.515,-96.83
02.531,-100.31
02.546,-86.55
02.562,-55.92
02.578,-13.26
02.593,33.52
02.609,67.75
02.625,83.21
02.640,77.05
02.656,51.46
02.671,14.23
02.687,-26.58
02.703,-65.17
02.718,-98.25
02.734,-124.87
02.750,-145.04
02.765,-156.88
02.781,-160.73
02.796,-157.02
02.812,-146.32
02.828,-131.33
02.843,-116.07
02.859,-104.14
02.875,-97.58
02.890,-95.94
02.906,-95.14
02.921,-92.27
02.937,-85.45
02.953,-74.34
02.968,-61.32
02.984,-49.75
03.000,-42.61
03.015,-41.09
03.031,-44.03
03.046,-48.13
03.062,-50.83
03.078,-51.23
03.093,-50.4
03.109,-51.85
03.125,-59.61
03.140,-75.83
03.156,-100.19
03.171,-128.97
03.187,-157.66
03.203,-180.74
03.218,-193.61
03.234,-193.36
03.250,-178.79
03.265,-150.48
03.281,-110.81
03.296,-65.25
03.312,-21.04
03.328,13.8
03.343,34.31
03.359,42.1
03.375,45.46
03.390,54.57
03.406,76.11
03.421,108.76
03.437,142.75
03.453,165.79
03.468,169.41
03.484,153.86
03.500,127.24
03.515,99.92
03.531,79.11
03.546,65.27
03.562,55.21
03.578,45.75
03.593,37.09
03.609,33.37
03.625,37.42
03.640,48.01
03.656,58.48
03.671,61.63
03.687,52.36
03.703,30.72
03.718,1.81
03.734,-26.66
03.750,-47.78
03.765,-58.55
03.781,-59.32
03.796,-53.49
03.812,-44.65
03.828,-35.58
03.843,-28.2
03.859,-24.05
03.875,-23.04
03.890,-24.8
03.906,-29.26
03.921,-36.03
03.937,-44.7
03.953,-54.54
03.968,-64.47
03.984,-73.39
04.000,-80.14
04.015,-84.47
04.031,-85.13
04.046,-81.81
04.062,-74.68
04.078,-64.35
04.093,-51.41
04.109,-36.75
04.125,-21.38
04.140,-6.15
04.156,7.39
04.171,18.36
04.187,25.95
04.203,29.85
04.218,29.97
04.234,26.71
04.250,20.69
04.265,12.76
04.281,4.13
04.296,-4.02
04.312,-10.64
04.328,-15.12
04.343,-16.65
04.359,-14.95
04.375,-9.87
04.390,-1.79
04.406,8.71
04.421,21.1
04.437,34.94
04.453,49.82
04.468,64.7
04.484,78.49
04.500,89.61
04.515,96.38
04.531,97.26
04.546,91.42
04.562,78.7
04.578,59.85
04.593,36.48
04.609,10.13
04.625,-17.72
04.640,-46.23
04.656,-75.22
04.671,-104.57
04.687,-133.58
04.703,-160.55
04.718,-182.95
04.734,-196.41
04.750,-197.17
04.765,-182.21
04.781,-149.14
04.796,-99.66
04.812,-38.98
04.828,25.64
04.843,87.28
04.859,141.12
04.875,185.22
04.890,218.88
04.906,243.39
04.921,260.23
04.937,270.43
04.953,274.89
04.968,273.4
04.984,264.33
05.000,244.22
05.015,209.74
05.031,159.57
05.046,97.51
05.062,31.43
05.078,-29.22
05.093,-76.19
05.109,-105.87
05.125,-119.02
05.140,-119.82
05.156,-113.2
05.171,-102.76
05.187,-89.82
05.203,-74.58
05.218,-57.48
05.234,-39.49
05.250,-23.06
05.265,-9.63
05.281,0.91
05.296,9.67
05.312,17.92
05.328,26.53
05.343,35.69
05.359,43.46
05.375,48.27
05.390,47.96
05.406,42.12
05.421,31.8
05.437,19.09
05.453,6.66
05.468,-3.11
05.484,-8.54
05.500,-9.93
05.515,-8.0
05.531,-4.45
05.546,-0.45
05.562,3.02
05.578,5.69
05.593,8.45
05.609,12.03
05.625,17.09
05.640,23.58
05.656,31.25
05.671,39.21
05.687,46.17
05.703,50.71
05.718,52.01
05.734,51.04
05.750,49.28
05.765,48.67
05.781,50.47
05.796,55.23
05.812,61.55
05.828,67.13
05.843,69.15
05.859,65.62
05.875,56.37
05.890,42.22
05.906,27.41
05.921,14.54
05.937,4.0
05.953,-6.08
05.968,-19.34
05.984,-39.5
06.000,-68.46
06.015,-105.88
06.031,-149.5
06.046,-195.0
06.062,-238.11
06.078,-274.11
06.093,-298.7
06.109,-308.59
06.125,-302.68
06.140,-283.3
06.156,-256.74
06.171,-231.19
06.187,-213.61
06.203,-206.14
06.218,-204.64
06.234,-200.14
06.250,-183.36
06.265,-150.48
06.281,-105.16
06.296,-56.08
06.312,-13.04
06.328,19.22
06.343,42.91
06.359,64.93
06.375,92.33
06.390,127.12
06.406,164.38
06.421,195.69
06.437,214.31
06.453,220.6
06.468,222.54
06.484,230.93
06.500,255.41
06.515,299.13
06.531,357.31
06.546,419.37
06.562,472.89
06.578,507.87
06.593,518.81
06.609,504.15
06.625,465.14
06.640,405.43
06.656,329.21
06.671,241.2
06.687,146.66
06.703,51.9
06.718,-35.87
06.734,-110.19
06.750,-167.81
06.765,-206.91
06.781,-227.3
06.796,-230.85
06.812,-222.54
06.828,-208.87
06.843,-195.34
06.859,-186.07
06.875,-182.74
06.890,-188.35
06.906,-202.84
06.921,-223.45
06.937,-248.06
06.953,-276.71
06.968,-310.78
06.984,-351.83
07.000,-400.38
07.015,-454.76
07.031,-515.31
07.046,-578.13
07.062,-634.29
07.078,-672.44
07.093,-683.01
07.109,-660.13
07.125,-603.28
07.140,-519.3
07.156,-392.57
07.171,-233.67
07.187,-73.46
07.203,54.15
07.218,132.32
07.234,164.68
07.250,162.22
07.265,140.72
07.281,110.96
07.296,82.08
07.312,58.52
07.328,46.64
07.343,57.95
07.359,98.73
07.375,168.35
07.390,259.49
07.406,361.02
07.421,456.0
07.437,525.63
07.453,553.3
07.468,535.83
07.484,483.22
07.500,410.52
07.515,331.11
07.531,253.25
07.546,180.31
07.562,111.94
07.578,48.8
07.593,-9.31
07.609,-61.16
07.625,-104.76
07.640,-139.11
07.656,-164.12
07.671,-181.49
07.687,-194.69
07.703,-211.03
07.718,-232.46
07.734,-258.12
07.750,-284.98
07.765,-310.23
07.781,-332.16
07.796,-347.71
07.812,-354.84
07.828,-352.59
07.843,-344.44
07.859,-329.77
07.875,-305.6
07.890,-267.14
07.906,-211.57
07.921,-137.99
07.937,-44.27
07.953,69.72
07.968,202.17
07.984,337.86
08.000,465.14
08.015,574.91
08.031,661.81
08.046,720.48
08.062,727.53
08.078,671.44
08.093,555.54
08.109,425.16
08.125,298.3
08.140,184.09
08.156,78.25
08.171,-16.5
08.187,-97.85
08.203,-163.55
08.218,-209.9
08.234,-235.14
08.250,-240.37
08.265,-233.98
08.281,-220.57
08.296,-202.57
08.312,-180.25
08.328,-155.08
08.343,-127.92
08.359,-97.29
08.375,-62.2
08.390,-22.87
08.406,15.14
08.421,49.24
08.437,79.03
08.453,106.38
08.468,133.08
08.484,160.98
08.500,192.28
08.515,226.7
08.531,261.0
08.546,287.33
08.562,300.33
08.578,298.58
08.593,285.32
08.609,265.98
08.625,246.23
08.640,230.32
08.656,219.66
08.671,213.32
08.687,208.13
08.703,202.33
08.718,195.81
08.734,189.48
08.750,183.68
08.765,178.06
08.781,171.77
08.796,164.55
08.812,157.72
08.828,152.86
08.843,150.91
08.859,151.56
08.875,152.85
08.890,151.46
08.906,144.4
08.921,129.78
08.937,107.98
08.953,81.34
08.968,51.86
08.984,18.79
09.000,-21.07
09.015,-71.69
09.031,-135.4
09.046,-211.2
09.062,-294.85
09.078,-379.69
09.093,-454.36
09.109,-505.34
09.125,-523.08
09.140,-507.03
09.156,-465.89
09.171,-411.52
09.187,-353.07
09.203,-295.4
09.218,-240.29
09.234,-188.65
09.250,-141.48
09.265,-100.9
09.281,-68.43
09.296,-44.36
09.312,-26.7
09.328,-12.03
09.343,2.87
09.359,20.04
09.375,39.31
09.390,59.42
09.406,78.31
09.421,94.81
09.437,108.31
09.453,120.01
09.468,132.32
09.484,147.64
09.500,166.78
09.515,190.31
09.531,215.67
09.546,239.36
09.562,259.6
09.578,274.12
09.593,281.98
09.609,283.63
09.625,279.89
09.640,272.16
09.656,261.46
09.671,247.69
09.687,231.0
09.703,213.23
09.718,195.03
09.734,176.87
09.750,159.11
09.765,141.35
09.781,122.89
09.796,102.61
09.812,78.54
09.828,49.14
09.843,14.8
09.859,-23.15
09.875,-63.53
09.890,-105.53
09.906,-149.13
09.921,-195.75
09.937,-236.44
09.953,-266.5
09.968,-283.35
09.984,-284.88
10.000,-270.73
10.015,-241.81
10.031,-201.16
10.046,-154.23
10.062,-106.16
10.078,-61.3
10.093,-24.81
10.109,-0.05
10.125,11.37
10.140,8.73
10.156,-7.21
10.171,-34.96
10.187,-74.01
10.203,-122.33
10.218,-177.14
10.234,-237.21
10.250,-300.71
10.265,-364.2
10.281,-421.62
10.296,-464.1
10.312,-481.21
10.328,-465.11
10.343,-414.26
10.359,-336.35
10.375,-247.29
10.390,-166.73
10.406,-110.46
10.421,-86.36
10.437,-93.75
10.453,-125.25
10.468,-170.96
10.484,-219.83
10.500,-262.06
10.515,-289.46
10.531,-296.85
10.546,-282.95
10.562,-251.75
10.578,-211.85
10.593,-172.91
10.609,-143.64
10.625,-128.08
10.640,-126.52
10.656,-135.85
10.671,-150.96
10.687,-166.35
10.703,-178.66
10.718,-186.59
10.734,-190.63
10.750,-192.27
10.765,-191.88
10.781,-188.42
10.796,-178.84
10.812,-161.09
10.828,-134.52
10.843,-101.38
10.859,-66.19
10.875,-33.83
10.890,-8.38
10.906,8.99
10.921,18.86
10.937,23.49
10.953,24.72
10.968,23.62
10.984,21.73
11.000,22.09
11.015,28.31
11.031,43.35
11.046,69.77
11.062,108.41
11.078,157.82
11.093,213.92
11.109,271.66
11.125,325.5
11.140,370.28
11.156,400.91
11.171,412.95
11.187,404.92
11.203,377.6
11.218,333.85
11.234,278.23
11.250,216.78
11.265,157.76
11.281,109.96
11.296,81.86
11.312,80.13
11.328,110.63
11.343,174.25
11.359,266.12
11.375,377.01
11.390,493.72
11.406,601.81
11.421,687.64
11.437,740.97
11.453,756.21
11.468,735.7
11.484,685.17
11.500,613.09
11.515,528.75
11.531,441.4
11.546,359.79
11.562,290.88
11.578,241.01
11.593,195.06
11.609,145.74
11.625,91.15
11.640,36.11
11.656,-12.09
11.671,-48.9
11.687,-74.65
11.703,-93.46
11.718,-109.84
11.734,-126.89
11.750,-142.61
11.765,-154.39
11.781,-160.15
11.796,-159.79
11.812,-154.48
11.828,-145.5
11.843,-133.89
11.859,-121.96
11.875,-113.23
11.890,-110.03
11.906,-115.05
11.921,-128.85
11.937,-149.6
11.953,-171.86
11.968,-188.1
11.984,-191.72
12.000,-180.62
12.015,-157.74
12.031,-128.25
12.046,-98.01
12.062,-69.6
12.078,-44.22
12.093,-22.09
12.109,-3.69
12.125,10.04
12.140,17.43
12.156,17.48
12.171,11.39
12.187,1.81
12.203,-7.91
12.218,-15.45
12.234,-19.87
12.250,-21.84
12.265,-22.92
12.281,-24.65
12.296,-28.03
12.312,-33.26
12.328,-39.83
12.343,-46.34
12.359,-51.38
12.375,-53.44
12.390,-51.17
12.406,-44.78
12.421,-34.38
12.437,-20.17
12.453,-2.58
12.468,17.39
12.484,38.76
12.500,59.94
12.515,78.83
12.531,96.65
12.546,111.51
12.562,121.75
12.578,126.55
12.593,126.38
12.609,121.92
12.625,114.72
12.640,106.65
12.656,99.89
12.671,96.52
12.687,97.39
12.703,102.51
12.718,110.55
12.734,119.29
12.750,125.96
12.765,128.79
12.781,127.39
12.796,122.87
12.812,116.8
12.828,110.02
12.843,102.79
12.859,94.91
12.875,85.64
12.890,74.4
12.906,61.39
12.921,47.29
12.937,32.59
12.953,17.11
12.968,-0.41
12.984,-21.6
13.000,-47.58
13.015,-78.84
13.031,-114.64
13.046,-153.15
13.062,-191.49
13.078,-226.51
13.093,-255.39
13.109,-276.03
13.125,-287.07
13.140,-287.69
13.156,-277.44
13.171,-256.1
13.187,-223.7
13.203,-180.85
13.218,-129.63
13.234,-73.7
13.250,-17.71
13.265,33.74
13.281,76.83
13.296,109.13
13.312,129.54
13.328,137.82
13.343,134.3
13.359,119.61
13.375,94.6
13.390,60.5
13.406,19.3
13.421,-26.05
13.437,-71.8
13.453,-113.79
13.468,-148.08
13.484,-172.0
13.500,-184.12
13.515,-184.45
13.531,-173.8
13.546,-153.78
13.562,-126.48
13.578,-94.37
13.593,-60.22
13.609,-27.0
13.625,2.64
13.640,26.6
13.656,43.52
13.671,53.07
13.687,55.53
13.703,52.03
13.718,44.38
13.734,34.54
13.750,23.88
13.765,13.43
13.781,3.84
13.796,-4.57
13.812,-11.31
13.828,-16.38
13.843,-19.97
13.859,-22.58
13.875,-24.96
13.890,-27.87
13.906,-31.13
13.921,-32.91
13.937,-30.28
13.953,-20.33
13.968,-2.04
13.984,22.46
14.000,48.27
14.015,69.32
14.031,81.06
14.046,82.26
14.062,75.13
14.078,63.72
14.093,51.87
14.109,41.41
14.125,32.32
14.140,23.65
14.156,14.82
14.171,6.43
14.187,-0.08
14.203,-3.62
14.218,-4.44
14.234,-3.68
14.250,-3.34
14.265,-5.14
14.281,-9.73
14.296,-16.61
14.312,-24.3
14.328,-31.27
14.343,-36.78
14.359,-41.27
14.375,-45.99
14.390,-52.36
14.406,-61.17
14.421,-72.03
14.437,-83.71
14.453,-94.64
14.468,-103.48
14.484,-110.1
14.500,-115.12
14.515,-119.85
14.531,-125.15
14.546,-131.3
14.562,-138.17
14.578,-145.58
14.593,-154.01
14.609,-164.29
14.625,-177.77
14.640,-195.49
14.656,-217.95
14.671,-244.25
14.687,-272.05
14.703,-298.25
14.718,-319.62
14.734,-333.61
14.750,-338.57
14.765,-333.72
14.781,-318.75
14.796,-293.69
14.812,-259.21
14.828,-216.86
14.843,-169.39
14.859,-120.46
14.875,-74.09
14.890,-33.54
14.906,-0.76
14.921,24.07
14.937,42.0
14.953,54.35
14.968,62.45
14.984,67.2
15.000,69.26
15.015,69.02
15.031,67.07
15.046,64.42
15.062,62.0
15.078,60.7
15.093,60.39
15.109,60.27
15.125,59.21
15.140,56.46
15.156,51.96
15.171,46.2
15.187,40.22
15.203,34.79
15.218,30.33
15.234,26.66
15.250,23.42
15.265,20.62
15.281,18.55
15.296,17.96
15.312,19.47
15.328,23.25
15.343,28.74
15.359,34.8
15.375,40.04
15.390,43.49
15.406,44.93
15.421,44.76
15.437,43.69
15.453,42.25
15.468,40.63
15.484,38.66
15.500,36.14
15.515,33.1
15.531,30.06
15.546,28.0
15.562,27.74
15.578,29.53
15.593,32.8
15.609,36.41
15.625,39.2
15.640,40.38
15.656,39.95
15.671,38.58
15.687,37.11
15.703,36.24
15.718,35.87
15.734,35.22
15.750,33.3
15.765,29.73
15.781,24.5
15.796,18.0
15.812,10.29
15.828,0.68
15.843,-11.76
15.859,-28.28
15.875,-49.68
15.890,-76.1
15.906,-106.2
15.921,-137.6
15.937,-167.17
15.953,-191.82
15.968,-208.94
15.984,-216.61
16.000,-213.81
16.015,-200.2
16.031,-176.19
16.046,-142.95
16.062,-102.48
16.078,-57.62
16.093,-11.74
16.109,31.59
16.125,69.38
16.140,99.63
16.156,121.63
16.171,136.04
16.187,144.07
16.203,147.32
16.218,147.18
16.234,144.67
16.250,140.05
16.265,133.57
16.281,125.58
16.296,116.78
16.312,108.23
16.328,100.56
16.343,93.76
16.359,87.44
16.375,81.24
16.390,74.79
16.406,68.29
16.421,62.24
16.437,57.25
16.453,53.53
16.468,51.02
16.484,48.86
16.500,46.25
16.515,42.61
16.531,37.81
16.546,32.48
16.562,27.35
16.578,22.9
16.593,19.03
16.609,15.16
16.625,10.53
16.640,4.9
16.656,-1.16
16.671,-6.44
16.687,-9.54
16.703,-9.49
16.718,-6.47
16.734,-1.52
16.750,3.86
16.765,8.34
16.781,11.4
16.796,13.34
16.812,14.78
16.828,16.37
16.843,18.06
16.859,19.48
16.875,20.15
16.890,19.83
16.906,18.91
16.921,18.04
16.937,17.92
16.953,18.54
16.968,19.54
16.984,20.04
17.000,19.29
17.015,17.17
17.031,14.14
17.046,11.29
17.062,9.57
17.078,9.4
17.093,10.44
17.109,11.8
17.125,12.59
17.140,12.41
17.156,11.59
17.171,11.02
17.187,11.42
17.203,13.08
17.218,15.49
17.234,17.77
17.250,18.95
17.265,18.52
17.281,16.67
17.296,13.93
17.312,11.07
17.328,8.67
17.343,6.8
17.359,5.36
17.375,4.15
17.390,2.95
17.406,1.63
17.421,0.3
17.437,-1.03
17.453,-2.09
17.468,-2.43
17.484,-1.87
17.500,-0.47
17.515,1.59
17.531,4.16
17.546,6.85
17.562,9.0
17.578,9.41
17.593,6.64
17.609,-0.57
17.625,-13.09
17.640,-31.07
17.656,-53.87
17.671,-79.82
17.687,-106.77
17.703,-132.5
17.718,-154.89
17.734,-171.95
17.750,-181.79
17.765,-182.65
17.781,-173.27
17.796,-153.48
17.812,-124.39
17.828,-88.48
17.843,-49.38
17.859,-10.8
17.875,23.97
17.890,52.88
17.906,75.07
17.921,90.77
17.937,100.52
17.953,104.86
17.968,104.57
17.984,100.54
18.000,94.14
18.015,86.71
18.031,79.67
18.046,73.99
18.062,70.19
18.078,68.14
18.093,67.0
18.109,65.8
18.125,63.82
18.140,61.14
18.156,58.12
18.171,55.38
18.187,53.29
18.203,51.88
18.218,50.68
18.234,49.1
18.250,46.64
18.265,43.37
18.281,39.99
18.296,37.22
18.312,35.6
18.328,35.15
18.343,35.27
18.359,35.04
18.375,33.69
18.390,31.03
18.406,27.32
18.421,23.31
18.437,19.61
18.453,16.46
18.468,13.81
18.484,11.41
18.500,9.02
18.515,6.7
18.531,4.84
18.546,3.75
18.562,3.55
18.578,3.94
18.593,4.25
18.609,3.78
18.625,2.11
18.640,-0.62
18.656,-3.71
18.671,-6.46
18.687,-8.41
18.703,-9.48
18.718,-10.07
18.734,-10.56
18.750,-11.05
18.765,-11.18
18.781,-10.44
18.796,-8.33
18.812,-4.95
18.828,-0.94
18.843,2.88
18.859,5.71
18.875,7.26
18.890,7.76
18.906,7.93
18.921,8.3
18.937,9.11
18.953,10.12
18.968,10.8
18.984,10.83
19.000,10.07
19.015,9.07
19.031,8.34
19.046,8.33
19.062,9.09
19.078,10.27
19.093,11.2
19.109,11.25
19.125,10.24
19.140,8.35
19.156,6.34
19.171,4.91
19.187,4.39
19.203,4.59
19.218,5.03
19.234,5.02
19.250,4.08
19.265,2.36
19.281,0.28
19.296,-1.68
19.312,-3.22
19.328,-4.48
19.343,-5.89
19.359,-7.72
19.375,-9.86
19.390,-11.85
19.406,-12.91
19.421,-12.47
19.437,-10.32
19.453,-6.94
19.468,-3.06
19.484,0.58
19.500,3.55
19.515,6.03
19.531,8.5
19.546,11.34
19.562,14.44
19.578,17.21
19.593,18.7
19.609,18.25
19.625,15.82
19.640,12.23
19.656,8.84
19.671,6.88
19.687,6.86
19.703,8.33
19.718,10.29
19.734,11.7
19.750,12.0
19.765,11.39
19.781,10.54
19.796,9.96
19.812,9.88
19.828,9.96
19.843,9.5
19.859,8.12
19.875,5.83
19.890,3.19
19.906,0.96
19.921,-0.31
19.937,-0.55
19.953,-0.28
19.968,-0.29
19.984,-1.46
20.000,-3.98
20.015,-7.46
20.031,-10.98
20.046,-13.76
20.062,-15.3
20.078,-15.64
20.093,-15.15
20.109,-14.27
20.125,-13.09
20.140,-11.34
20.156,-8.56
20.171,-4.51
20.187,0.63
20.203,6.11
20.218,11.08
20.234,14.83
20.250,17.02
20.265,17.99
20.281,18.22
20.296,18.17
20.312,17.86
20.328,17.27
20.343,15.94
20.359,13.72
20.375,10.89
20.390,8.13
20.406,6.22
20.421,5.64
20.437,6.32
20.453,7.56
20.468,8.81
20.484,9.45
20.500,9.38
20.515,8.88
20.531,8.39
20.546,8.21
20.562,8.31
20.578,8.31
20.593,7.74
20.609,6.38
20.625,4.34
20.640,2.1
20.656,0.19
20.671,-1.17
20.687,-2.02
20.703,-2.81
20.718,-3.99
20.734,-5.84
20.750,-8.08
20.765,-9.89
20.781,-10.47
20.796,-9.03
20.812,-5.79
20.828,-1.5
20.843,2.53
20.859,5.23
20.875,5.87
20.890,4.22
20.906,0.3
20.921,-6.12
20.937,-15.05
20.953,-26.91
20.968,-42.1
20.984,-60.68
21.000,-81.69
21.015,-103.14
21.031,-122.15
21.046,-135.7
21.062,-141.25
21.078,-137.13
21.093,-122.85
21.109,-99.19
21.125,-67.92
21.140,-31.59
21.156,6.87
21.171,44.79
21.187,79.77
21.203,109.64
21.218,132.83
21.234,148.77
21.250,157.81
21.265,161.3
21.281,160.61
21.296,157.27
21.312,153.3
21.328,150.75
21.343,151.08
21.359,155.08
21.375,163.02
21.390,174.55
21.406,188.56
21.421,202.85
21.437,214.55
21.453,221.38
21.468,222.16
21.484,216.74
21.500,206.57
21.515,194.45
21.531,183.78
21.546,177.13
21.562,175.05
21.578,175.25
21.593,172.84
21.609,161.27
21.625,134.28
21.640,88.74
21.656,26.34
21.671,-46.61
21.687,-122.05
21.703,-193.67
21.718,-258.48
21.734,-314.32
21.750,-355.49
21.765,-376.93
21.781,-377.13
21.796,-358.3
21.812,-323.88
21.828,-278.3
21.843,-227.94
21.859,-179.39
21.875,-137.63
21.890,-105.63
21.906,-83.66
21.921,-69.38
21.937,-59.69
21.953,-51.9
21.968,-44.29
21.984,-37.02
22.000,-29.46
22.015,-19.52
22.031,-5.53
22.046,13.63
22.062,38.4
22.078,68.17
22.093,101.27
22.109,136.71
22.125,170.13
22.140,197.78
22.156,216.8
22.171,225.48
22.187,223.16
22.203,210.05
22.218,187.11
22.234,152.92
22.250,112.21
22.265,68.19
22.281,23.92
22.296,-17.81
22.312,-54.6
22.328,-84.38
22.343,-105.89
22.359,-118.85
22.375,-123.63
22.390,-121.96
22.406,-117.06
22.421,-111.73
22.437,-107.68
22.453,-105.37
22.468,-103.93
22.484,-102.08
22.500,-99.17
22.515,-94.3
22.531,-87.71
22.546,-80.73
22.562,-74.84
22.578,-71.02
22.593,-69.36
22.609,-69.91
22.625,-72.17
22.640,-74.98
22.656,-75.35
22.671,-69.92
22.687,-56.63
22.703,-36.03
22.718,-11.63
22.734,10.21
22.750,23.79
22.765,25.01
22.781,13.04
22.796,-9.61
22.812,-38.59
22.828,-68.21
22.843,-94.15
22.859,-112.82
22.875,-122.72
22.890,-121.53
22.906,-108.04
22.921,-81.01
22.937,-42.06
22.953,2.95
22.968,45.72
22.984,77.05
23.000,88.89
23.015,77.85
23.031,46.91
23.046,3.09
23.062,-43.15
23.078,-81.11
23.093,-102.36
23.109,-102.18
23.125,-80.44
23.140,-41.11
23.156,4.92
23.171,51.18
23.187,91.93
23.203,123.96
23.218,146.01
23.234,157.68
23.250,159.62
23.265,154.24
23.281,143.14
23.296,126.66
23.312,105.63
23.328,81.03
23.343,53.58
23.359,25.91
23.375,1.44
23.390,-16.06
23.406,-24.13
23.421,-23.05
23.437,-14.62
23.453,-1.42
23.468,14.52
23.484,33.62
23.500,55.81
23.515,79.27
23.531,102.88
23.546,125.48
23.562,145.78
23.578,163.45
23.593,178.1
23.609,188.82
23.625,196.13
23.640,200.12
23.656,199.5
23.671,192.0
23.687,176.49
23.703,153.55
23.718,124.16
23.734,90.17
23.750,53.42
23.765,16.59
23.781,-17.48
23.796,-46.62
23.812,-69.73
23.828,-86.0
23.843,-95.17
23.859,-99.9
23.875,-103.16
23.890,-108.02
23.906,-116.15
23.921,-128.67
23.937,-145.84
23.953,-167.97
23.968,-196.55
23.984,-232.83
24.000,-278.85
24.015,-333.46
24.031,-389.43
24.046,-435.72
24.062,-464.06
24.078,-472.19
24.093,-464.67
24.109,-450.03
24.125,-412.0
24.140,-343.41
24.156,-247.21
24.171,-135.21
24.187,-22.88
24.203,74.87
24.218,148.08
24.234,192.1
24.250,209.51
24.265,208.69
24.281,195.98
24.296,176.43
24.312,153.25
24.328,127.95
24.343,100.63
24.359,73.08
24.375,47.19
24.390,24.54
24.406,6.49
24.421,-9.12
24.437,-24.43
24.453,-39.68
24.468,-54.11
24.484,-68.68
24.500,-79.46
24.515,-83.77
24.531,-80.12
24.546,-68.15
24.562,-50.56
24.578,-30.6
24.593,-10.88
24.609,6.91
24.625,21.99
24.640,34.92
24.656,45.76
24.671,54.54
24.687,61.14
24.703,63.83
24.718,61.8
24.734,55.62
24.750,46.77
24.765,37.35
24.781,30.12
24.796,26.71
24.812,28.14
24.828,34.78
24.843,43.56
24.859,52.53
24.875,60.22
24.890,65.69
24.906,68.43
24.921,68.61
24.937,65.59
24.953,58.39
24.968,45.65
24.984,25.42
25.000,-1.34
25.015,-32.45
25.031,-64.63
25.046,-93.71
25.062,-114.67
25.078,-122.83
25.093,-115.46
25.109,-90.82
25.125,-51.66
25.140,-2.43
25.156,47.52
25.171,86.19
25.187,103.29
25.203,95.06
25.218,65.39
25.234,25.0
25.250,-7.13
25.265,-23.97
25.281,-20.88
25.296,1.26
25.312,37.53
25.328,80.67
25.343,123.31
25.359,158.35
25.375,179.95
25.390,184.64
25.406,159.88
25.421,104.41
25.437,24.06
25.453,-69.68
25.468,-163.49
25.484,-245.25
25.500,-306.78
25.515,-344.49
25.531,-357.58
25.546,-347.22
25.562,-312.52
25.578,-255.3
25.593,-181.03
25.609,-100.55
25.625,-27.58
25.640,25.28
25.656,51.14
25.671,50.05
25.687,26.52
25.703,-10.89
25.718,-54.87
25.734,-100.1
25.750,-142.82
25.765,-179.77
25.781,-207.29
25.796,-221.25
25.812,-218.29
25.828,-197.49
25.843,-159.58
25.859,-108.61
25.875,-52.03
25.890,2.03
25.906,46.44
25.921,77.01
25.937,93.39
25.953,98.18
25.968,95.32
25.984,89.31
26.000,84.14
26.015,82.58
26.031,86.28
26.046,95.01
26.062,105.95
26.078,112.81
26.093,108.71
26.109,89.31
26.125,56.58
26.140,19.02
26.156,-10.81
26.171,-21.51
26.187,-8.14
26.203,25.2
26.218,67.17
26.234,104.66
26.250,127.36
26.265,131.08
26.281,116.91
26.296,89.19
26.312,52.7
26.328,11.62
26.343,-30.24
26.359,-68.17
26.375,-96.93
26.390,-111.63
26.406,-109.09
26.421,-89.79
26.437,-57.31
26.453,-17.97
26.468,21.34
26.484,55.17
26.500,80.79
26.515,97.97
26.531,108.34
26.546,114.03
26.562,116.6
26.578,116.78
26.593,114.53
26.609,109.87
26.625,103.36
26.640,96.18
26.656,90.14
26.671,86.81
26.687,86.86
26.703,89.75
26.718,93.87
26.734,97.67
26.750,100.31
26.765,102.48
26.781,106.12
26.796,113.28
26.812,124.58
26.828,137.9
26.843,148.79
26.859,151.98
26.875,142.99
26.890,119.66
26.906,82.95
26.921,36.4
26.937,-14.69
26.953,-64.24
26.968,-106.17
26.984,-135.37
27.000,-148.63
27.015,-145.7
27.031,-129.29
27.046,-103.73
27.062,-73.44
27.078,-41.41
27.093,-8.47
27.109,26.16
27.125,63.31
27.140,102.37
27.156,140.6
27.171,173.94
27.187,198.19
27.203,210.62
27.218,210.79
27.234,201.53
27.250,187.81
27.265,175.62
27.281,170.27
27.296,174.63
27.312,188.89
27.328,210.78
27.343,237.07
27.359,265.08
27.375,293.45
27.390,321.76
27.406,349.67
27.421,376.54
27.437,401.53
27.453,424.42
27.468,446.38
27.484,468.82
27.500,492.02
27.515,513.71
27.531,528.87
27.546,531.18
27.562,515.81
27.578,481.55
27.593,431.66
27.609,373.1
27.625,313.06
27.640,256.25
27.656,204.03
27.671,155.32
27.687,108.11
27.703,61.2
27.718,14.52
27.734,-30.82
27.750,-72.71
27.765,-109.67
27.781,-141.09
27.796,-167.09
27.812,-187.82
27.828,-203.5
27.843,-214.13
27.859,-219.97
27.875,-221.92
27.890,-220.51
27.906,-217.52
27.921,-215.46
27.937,-216.9
27.953,-223.82
27.968,-236.69
27.984,-254.71
28.000,-276.21
28.015,-306.18
28.031,-343.91
28.046,-383.99
28.062,-418.27
28.078,-439.68
28.093,-445.35
28.109,-436.2
28.125,-415.36
28.140,-386.76
28.156,-353.61
28.171,-316.77
28.187,-277.86
28.203,-239.06
28.218,-202.38
28.234,-169.43
28.250,-140.22
28.265,-114.19
28.281,-91.15
28.296,-70.8
28.312,-50.84
28.328,-29.85
28.343,-7.9
28.359,14.33
28.375,34.81
28.390,54.16
28.406,70.36
28.421,82.13
28.437,88.68
28.453,90.13
28.468,87.64
28.484,81.67
28.500,72.5
28.515,59.05
28.531,40.31
28.546,14.45
28.562,-19.01
28.578,-58.65
28.593,-101.08
28.609,-141.26
28.625,-174.42
28.640,-197.26
28.656,-208.24
28.671,-206.98
28.687,-195.17
28.703,-175.51
28.718,-150.63
28.734,-123.67
28.750,-97.91
28.765,-72.08
28.781,-46.46
28.796,-20.47
28.812,9.78
28.828,46.64
28.843,88.37
28.859,129.46
28.875,161.34
28.890,176.91
28.906,173.81
28.921,154.45
28.937,125.56
28.953,93.22
28.968,61.83
28.984,31.86
29.000,1.82
29.015,-29.11
29.031,-59.52
29.046,-85.85
29.062,-107.95
29.078,-124.44
29.093,-134.63
29.109,-137.62
29.125,-133.34
29.140,-123.54
29.156,-111.53
29.171,-101.8
29.187,-97.97
29.203,-102.4
29.218,-115.49
29.234,-135.06
29.250,-157.67
29.265,-180.35
29.281,-202.44
29.296,-226.19
29.312,-250.75
29.328,-275.59
29.343,-293.08
29.359,-297.16
29.375,-282.66
29.390,-248.12
29.406,-195.55
29.421,-129.55
29.437,-55.78
29.453,19.03
29.468,89.71
29.484,155.81
29.500,213.53
29.515,258.57
29.531,287.19
29.546,299.34
29.562,299.15
29.578,294.69
29.593,289.95
29.609,291.87
29.625,306.28
29.640,332.7
29.656,357.67
29.671,366.4
29.687,348.69
29.703,303.62
29.718,239.35
29.734,168.47
29.750,101.93
29.765,45.86
29.781,0.8
29.796,-35.15
29.812,-63.21
29.828,-82.81
29.843,-93.67
29.859,-97.82
29.875,-98.46
29.890,-99.61
29.906,-105.23
29.921,-118.26
29.937,-139.27
29.953,-166.64
29.968,-196.79
29.984,-225.6
30.000,-250.16
30.015,-268.49
30.031,-281.47
30.046,-288.74
30.062,-290.58
30.078,-287.19
30.093,-278.1
30.109,-263.06
30.125,-242.96
30.140,-220.06
30.156,-197.1
30.171,-176.97
30.187,-161.76
30.203,-152.83
30.218,-150.46
30.234,-153.69
30.250,-160.61
30.265,-169.59
30.281,-178.81
30.296,-187.11
30.312,-194.23
30.328,-199.68
30.343,-202.88
30.359,-203.47
30.375,-200.63
30.390,-192.66
30.406,-180.78
30.421,-165.3
30.437,-146.48
30.453,-124.84
30.468,-100.84
30.484,-75.22
30.500,-49.06
30.515,-23.55
30.531,0.23
30.546,21.23
30.562,38.95
30.578,52.97
30.593,63.15
30.609,69.73
30.625,73.01
30.640,73.39
30.656,71.52
30.671,68.09
30.687,63.59
30.703,58.91
30.718,55.02
30.734,52.39
30.750,51.01
30.765,50.62
30.781,50.87
30.796,51.78
30.812,53.36
30.828,55.55
30.843,58.51
30.859,62.58
30.875,67.88
30.890,74.28
30.906,81.44
30.921,89.05
30.937,97.01
30.953,105.7
30.968,115.67
30.984,127.57
31.000,142.55
31.015,160.81
31.031,181.65
31.046,203.74
31.062,225.49
31.078,246.03
31.093,265.51
31.109,284.54
31.125,303.91
31.140,326.16
31.156,352.46
31.171,382.44
31.187,414.13
31.203,445.38
31.218,474.83
31.234,502.52
31.250,529.63
31.265,557.65
31.281,591.42
31.296,633.91
31.312,684.85
31.328,740.0
31.343,792.78
31.359,835.65
31.375,861.85
31.390,867.11
31.406,849.88
31.421,815.66
31.437,769.9
31.453,716.09
31.468,654.58
31.484,584.07
31.500,503.95
31.515,415.91
31.531,324.07
31.546,207.36
31.562,61.41
31.578,-104.21
31.593,-268.01
31.609,-406.91
31.625,-506.38
31.640,-563.27
31.656,-582.94
31.671,-574.16
31.687,-546.5
31.703,-504.16
31.718,-452.06
31.734,-393.86
31.750,-336.49
31.765,-286.72
31.781,-248.52
31.796,-223.02
31.812,-208.95
31.828,-203.62
31.843,-200.53
31.859,-195.22
31.875,-186.0
31.890,-174.27
31.906,-162.75
31.921,-153.14
31.937,-145.86
31.953,-140.15
31.968,-134.89
31.984,-127.32
32.000,-116.32
32.015,-102.66
32.031,-88.62
32.046,-77.35
32.062,-71.63
32.078,-72.97
32.093,-81.89
32.109,-97.86
32.125,-118.58
32.140,-141.51
32.156,-164.66
32.171,-187.22
32.187,-209.37
32.203,-231.49
32.218,-254.54
32.234,-279.03
32.250,-304.84
32.265,-330.98
32.281,-356.09
32.296,-379.09
32.312,-400.01
32.328,-419.65
32.343,-438.68
32.359,-458.35
32.375,-479.76
32.390,-503.84
32.406,-530.81
32.421,-559.45
32.437,-586.77
32.453,-606.94
32.468,-612.32
32.484,-595.99
32.500,-554.19
32.515,-488.2
32.531,-403.92
32.546,-310.09
32.562,-215.91
32.578,-128.35
32.593,-51.3
32.609,13.84
32.625,66.77
32.640,107.24
32.656,135.33
32.671,151.26
32.687,156.03
32.703,151.26
32.718,139.14
32.734,121.3
32.750,98.75
32.765,71.79
32.781,40.8
32.796,6.81
32.812,-28.59
32.828,-63.12
32.843,-94.21
32.859,-119.6
32.875,-137.77
32.890,-148.7
32.906,-153.35
32.921,-153.01
32.937,-149.08
32.953,-142.58
32.968,-133.67
32.984,-122.76
33.000,-110.22
33.015,-96.5
33.031,-82.25
33.046,-68.01
33.062,-54.47
33.078,-41.83
33.093,-30.06
33.109,-19.0
33.125,-8.73
33.140,0.39
33.156,8.06
33.171,14.24
33.187,19.99
33.203,26.64
33.218,36.15
33.234,49.85
33.250,67.99
33.265,89.11
33.281,111.22
33.296,132.87
33.312,153.97
33.328,176.32
33.343,202.06
33.359,232.94
33.375,269.41
33.390,310.41
33.406,353.45
33.421,395.9
33.437,435.53
33.453,470.71
33.468,500.22
33.484,522.76
33.500,537.14
33.515,543.01
33.531,541.74
33.546,535.42
33.562,525.17
33.578,509.21
33.593,482.21
33.609,437.28
33.625,370.05
33.640,282.68
33.656,184.92
33.671,91.43
33.687,16.68
33.703,-31.11
33.718,-52.88
33.734,-57.81
33.750,-58.3
33.765,-64.48
33.781,-79.61
33.796,-99.79
33.812,-116.55
33.828,-121.21
33.843,-109.3
33.859,-82.46
33.875,-47.49
33.890,-13.45
33.906,11.18
33.921,20.77
33.937,12.63
33.953,-12.49
33.968,-51.33
33.984,-97.83
34.000,-142.93
34.015,-175.73
34.031,-186.35
34.046,-169.95
34.062,-129.75
34.078,-77.49
34.093,-29.12
34.109,0.74
34.125,4.53
34.140,-16.51
34.156,-54.22
34.171,-98.24
34.187,-139.74
34.203,-172.72
34.218,-193.69
34.234,-200.21
34.250,-190.97
34.265,-166.12
34.281,-127.88
34.296,-80.29
34.312,-28.14
34.328,24.64
34.343,76.2
34.359,125.81
34.375,173.37
34.390,217.66
34.406,255.74
34.421,283.24
34.437,295.16
34.453,287.28
34.468,257.03
34.484,204.79
34.500,133.98
34.515,51.49
34.531,-34.19
34.546,-114.53
34.562,-182.17
34.578,-231.75
34.593,-259.83
34.609,-265.52
34.625,-250.2
34.640,-218.23
34.656,-175.25
34.671,-126.8
34.687,-76.38
34.703,-24.28
34.718,31.36
34.734,92.5
34.750,157.77
34.765,221.54
34.781,274.87
34.796,308.8
34.812,317.59
34.828,300.76
34.843,263.32
34.859,213.27
34.875,158.97
34.890,106.59
34.906,59.63
34.921,18.84
34.937,-16.48
34.953,-47.16
34.968,-73.78
34.984,-96.03
35.000,-113.42
35.015,-125.75
35.031,-133.56
35.046,-137.73
35.062,-139.24
35.078,-138.71
35.093,-135.93
35.109,-130.35
35.125,-121.37
35.140,-109.17
35.156,-94.71
35.171,-79.49
35.187,-64.79
35.203,-51.29
35.218,-39.01
35.234,-27.32
35.250,-15.83
35.265,-4.8
35.281,5.0
35.296,12.6
35.312,17.45
35.328,19.91
35.343,20.79
35.359,20.93
35.375,21.14
35.390,21.5
35.406,21.75
35.421,21.59
35.437,20.94
35.453,20.12
35.468,19.62
35.484,20.03
35.500,21.66
35.515,25.02
35.531,30.51
35.546,38.59
35.562,49.39
35.578,62.65
35.593,77.7
35.609,93.67
35.625,109.66
35.640,124.86
35.656,139.02
35.671,152.39
35.687,165.59
35.703,178.82
35.718,191.16
35.734,200.06
35.750,201.42
35.765,190.2
35.781,161.98
35.796,114.73
35.812,50.27
35.828,-25.5
35.843,-103.83
35.859,-175.64
35.875,-234.08
35.890,-276.15
35.906,-302.58
35.921,-316.21
35.937,-320.08
35.953,-315.93
35.968,-304.2
35.984,-284.69
36.000,-257.87
36.015,-225.5
36.031,-190.27
36.046,-154.42
36.062,-118.96
36.078,-83.41
36.093,-46.41
36.109,-6.85
36.125,35.33
36.140,78.58
36.156,120.24
36.171,157.2
36.187,187.24
36.203,209.17
36.218,222.7
36.234,227.99
36.250,225.14
36.265,214.21
36.281,195.83
36.296,171.47
36.312,143.71
36.328,115.65
36.343,90.04
36.359,68.49
36.375,51.25
36.390,37.5
36.406,25.8
36.421,15.02
36.437,4.67
36.453,-5.09
36.468,-13.97
36.484,-21.92
36.500,-29.35
36.515,-36.98
36.531,-45.34
36.546,-54.29
36.562,-62.78
36.578,-69.46
36.593,-73.22
36.609,-73.93
36.625,-72.58
36.640,-70.47
36.656,-68.37
36.671,-66.1
36.687,-62.18
36.703,-54.67
36.718,-42.3
36.734,-24.99
36.750,-3.82
36.765,19.35
36.781,42.72
36.796,64.96
36.812,85.2
36.828,102.74
36.843,116.53
36.859,125.06
36.875,126.67
36.890,119.98
36.906,104.45
36.921,80.67
36.937,50.56
36.953,17.06
36.968,-16.56
36.984,-47.47
37.000,-73.7
37.015,-94.21
37.031,-108.77
37.046,-117.65
37.062,-121.27
37.078,-120.22
37.093,-115.25
37.109,-107.13
37.125,-96.66
37.140,-84.02
37.156,-68.53
37.171,-48.71
37.187,-23.27
37.203,8.1
37.218,44.17
37.234,82.31
37.250,119.46
37.265,152.97
37.281,181.38
37.296,203.84
37.312,219.38
37.328,225.64
37.343,218.81
37.359,194.83
37.375,151.05
37.390,87.56
37.406,7.52
37.421,-83.34
37.437,-177.88
37.453,-268.9
37.468,-349.85
37.484,-415.96
37.500,-464.5
37.515,-495.25
37.531,-510.1
37.546,-511.8
37.562,-502.5
37.578,-482.44
37.593,-450.38
37.609,-404.02
37.625,-341.9
37.640,-264.14
37.656,-173.24
37.671,-73.4
37.687,30.09
37.703,131.47
37.718,224.94
37.734,305.21
37.750,368.9
37.765,414.91
37.781,444.21
37.796,458.52
37.812,458.94
37.828,445.21
37.843,415.95
37.859,370.43
37.875,309.82
37.890,237.95
37.906,160.59
37.921,84.01
37.937,13.32
37.953,-47.99
37.968,-97.72
37.984,-134.81
38.000,-158.37
38.015,-168.17
38.031,-164.67
38.046,-149.55
38.062,-125.19
38.078,-94.12
38.093,-58.36
38.109,-19.34
38.125,20.97
38.140,59.98
38.156,93.98
38.171,118.84
38.187,130.72
38.203,127.58
38.218,109.7
38.234,79.57
38.250,41.62
38.265,1.25
38.281,-36.11
38.296,-65.35
38.312,-82.21
38.328,-84.4
38.343,-72.02
38.359,-47.55
38.375,-15.66
38.390,18.22
38.406,49.37
38.421,75.25
38.437,95.45
38.453,110.97
38.468,122.67
38.484,130.02
38.500,131.38
38.515,124.99
38.531,110.56
38.546,89.86
38.562,66.46
38.578,43.85
38.593,24.28
38.609,8.48
38.625,-4.35
38.640,-15.28
38.656,-24.96
38.671,-33.36
38.687,-40.13
38.703,-44.86
38.718,-47.57
38.734,-49.1
38.750,-50.32
38.765,-52.02
38.781,-54.38
38.796,-56.84
38.812,-58.08
38.828,-56.87
38.843,-52.65
38.859,-45.73
38.875,-37.57
38.890,-29.8
38.906,-23.69
38.921,-19.33
38.937,-15.84
38.953,-11.91
38.968,-6.79
38.984,-0.86
39.000,4.09
39.015,5.72
39.031,2.5
39.046,-5.31
39.062,-15.63
39.078,-25.61
39.093,-33.16
39.109,-37.81
39.125,-40.62
39.140,-43.59
39.156,-48.46
39.171,-56.16
39.187,-66.8
39.203,-80.38
39.218,-96.75
39.234,-115.55
39.250,-135.23
39.265,-152.47
39.281,-162.71
39.296,-160.95
39.312,-143.69
39.328,-109.7
39.343,-60.32
39.359,1.37
39.375,70.96
39.390,143.51
39.406,213.75
39.421,276.55
39.437,327.55
39.453,363.19
39.468,381.45
39.484,382.13
39.500,366.44
39.515,336.45
39.531,295.19
39.546,247.04
39.562,197.33
39.578,152.21
39.593,116.14
39.609,91.21
39.625,77.2
39.640,72.03
39.656,73.03
39.671,78.75
39.687,90.07
39.703,108.31
39.718,134.38
39.734,165.52
39.750,195.23
39.765,214.16
39.781,212.23
39.796,181.93
39.812,121.04
39.828,33.65
39.843,-71.48
39.859,-182.84
39.875,-289.98
39.890,-383.54
39.906,-452.56
39.921,-487.92
39.937,-486.27
39.953,-452.29
39.968,-396.07
39.984,-334.57
40.000,-274.85
40.015,-219.83
40.031,-171.7
40.046,-132.16
40.062,-103.43
40.078,-86.98
40.093,-82.41
40.109,-86.2
40.125,-93.56
40.140,-99.59
40.156,-102.77
40.171,-104.22
40.187,-104.48
40.203,-103.73
40.218,-103.37
40.234,-104.6
40.250,-108.66
40.265,-117.41
40.281,-132.11
40.296,-152.25
40.312,-173.82
40.328,-188.52
40.343,-189.13
40.359,-176.13
40.375,-155.88
40.390,-137.4
40.406,-127.86
40.421,-127.69
40.437,-129.37
40.453,-120.96
40.468,-90.12
40.484,-31.31
40.500,48.74
40.515,137.61
40.531,223.13
40.546,296.66
40.562,355.57
40.578,401.46
40.593,427.83
40.609,427.93
40.625,411.21
40.640,380.17
40.656,329.76
40.671,263.67
40.687,192.74
40.703,131.79
40.718,92.95
40.734,80.89
40.750,91.54
40.765,113.56
40.781,130.53
40.796,131.29
40.812,114.42
40.828,85.45
40.843,52.66
40.859,22.2
40.875,-3.93
40.890,-25.92
40.906,-43.52
40.921,-55.6
40.937,-56.52
40.953,-38.84
40.968,0.61
40.984,57.35
41.000,118.76
41.015,168.03
41.031,191.12
41.046,181.87
41.062,142.61
41.078,83.88
41.093,19.48
41.109,-39.11
41.125,-86.39
41.140,-122.84
41.156,-152.86
41.171,-180.22
41.187,-205.71
41.203,-227.09
41.218,-240.37
41.234,-242.84
41.250,-235.45
41.265,-222.78
41.281,-210.52
41.296,-201.53
41.312,-193.34
41.328,-180.37
41.343,-158.65
41.359,-128.92
41.375,-98.34
41.390,-77.11
41.406,-73.15
41.421,-86.92
41.437,-109.63
41.453,-127.56
41.468,-128.73
41.484,-108.9
41.500,-73.68
41.515,-35.39
41.531,-7.06
41.546,4.11
41.562,-0.51
41.578,-12.92
41.593,-23.97
41.609,-28.64
41.625,-28.33
41.640,-28.94
41.656,-36.78
41.671,-53.77
41.687,-75.53
41.703,-93.76
41.718,-101.13
41.734,-95.52
41.750,-81.12
41.765,-65.91
41.781,-57.35
41.796,-58.13
41.812,-64.81
41.828,-70.11
41.843,-67.29
41.859,-53.19
41.875,-29.9
41.890,-2.7
41.906,22.84
41.921,43.7
41.937,60.71
41.953,77.16
41.968,96.4
41.984,119.48
42.000,144.0
42.015,164.84
42.031,176.09
42.046,173.61
42.062,157.01
42.078,129.69
42.093,96.97
42.109,63.89
42.125,32.66
42.140,2.47
42.156,-29.45
42.171,-64.92
42.187,-101.59
42.203,-133.42
42.218,-152.84
42.234,-154.78
42.250,-139.71
42.265,-113.82
42.281,-86.0
42.296,-63.12
42.312,-46.43
42.328,-31.33
42.343,-11.5
42.359,16.71
42.375,50.73
42.390,82.18
42.406,100.88
42.421,100.38
42.437,81.51
42.453,51.27
42.468,18.95
42.484,-8.5
42.500,-29.38
42.515,-46.65
42.531,-64.67
42.546,-84.92
42.562,-104.12
42.578,-115.41
42.593,-113.27
42.609,-97.27
42.625,-73.84
42.640,-53.53
42.656,-46.5
42.671,-57.8
42.687,-83.98
42.703,-116.31
42.718,-145.64
42.734,-167.43
42.750,-183.11
42.765,-197.53
42.781,-213.88
42.796,-230.04
42.812,-238.06
42.828,-227.5
42.843,-191.57
42.859,-130.43
42.875,-51.67
42.890,32.86
42.906,111.23
42.921,175.56
42.937,223.27
42.953,255.96
42.968,277.26
42.984,291.16
43.000,300.69
43.015,307.48
43.031,310.84
43.046,307.54
43.062,293.05
43.078,263.96
43.093,220.24
43.109,166.95
43.125,113.05
43.140,69.3
43.156,43.94
43.171,40.29
43.187,57.02
43.203,89.79
43.218,133.29
43.234,182.43
43.250,231.98
43.265,275.81
43.281,307.37
43.296,320.77
43.312,313.49
43.328,287.76
43.343,249.72
43.359,207.26
43.375,167.16
43.390,132.99
43.406,104.4
43.421,78.97
43.437,54.48
43.453,30.24
43.468,7.14
43.484,-13.17
43.500,-29.82
43.515,-43.5
43.531,-56.07
43.546,-69.41
43.562,-84.05
43.578,-98.81
43.593,-111.5
43.609,-120.25
43.625,-124.77
43.640,-126.09
43.656,-126.09
43.671,-126.29
43.687,-126.42
43.703,-124.6
43.718,-118.7
43.734,-107.67
43.750,-92.75
43.765,-77.08
43.781,-64.13
43.796,-56.22
43.812,-53.28
43.828,-53.2
43.843,-53.97
43.859,-55.11
43.875,-58.48
43.890,-67.72
43.906,-86.08
43.921,-114.26
43.937,-148.11
43.953,-179.54
43.968,-198.74
43.984,-198.01
44.000,-175.08
44.015,-134.15
44.031,-84.78
44.046,-38.3
44.062,-3.06
44.078,17.86
44.093,26.51
44.109,27.85
44.125,25.87
44.140,21.75
44.156,14.22
44.171,1.65
44.187,-14.7
44.203,-29.44
44.218,-35.09
44.234,-25.56
44.250,0.57
44.265,38.67
44.281,80.7
44.296,119.36
44.312,151.8
44.328,180.52
44.343,210.32
44.359,244.49
44.375,281.27
44.390,314.14
44.406,333.94
44.421,332.92
44.437,308.41
44.453,262.87
44.468,202.13
44.484,132.16
44.500,56.92
44.515,-21.72
44.531,-102.04
44.546,-180.37
44.562,-249.12
44.578,-298.13
44.593,-318.81
44.609,-307.94
44.625,-270.54
44.640,-218.26
44.656,-164.66
44.671,-119.52
44.687,-85.31
44.703,-57.6
44.718,-29.65
44.734,2.39
44.750,36.82
44.765,67.33
44.781,86.96
44.796,92.27
44.812,86.09
44.828,75.85
44.843,69.44
44.859,71.38
44.875,80.48
44.890,91.31
44.906,97.43
44.921,94.43
44.937,82.11
44.953,63.95
44.968,44.75
44.984,28.16
45.000,14.73
45.015,2.24
45.031,-12.74
45.046,-32.67
45.062,-57.03
45.078,-82.07
45.093,-103.08
45.109,-116.92
45.125,-124.03
45.140,-128.3
45.156,-134.65
45.171,-146.15
45.187,-161.66
45.203,-176.18
45.218,-184.32
45.234,-183.77
45.250,-177.15
45.265,-171.13
45.281,-172.12
45.296,-182.28
45.312,-197.13
45.328,-206.83
45.343,-200.61
45.359,-171.98
45.375,-121.62
45.390,-57.05
45.406,10.57
45.421,70.95
45.437,118.42
45.453,152.98
45.468,178.52
45.484,199.38
45.500,217.37
45.515,230.98
45.531,237.08
45.546,233.06
45.562,218.87
45.578,197.65
45.593,173.24
45.609,148.47
45.625,123.77
45.640,97.37
45.656,67.74
45.671,35.78
45.687,5.25
45.703,-18.4
45.718,-30.84
45.734,-31.69
45.750,-24.56
45.765,-15.64
45.781,-10.95
45.796,-13.92
45.812,-24.29
45.828,-39.13
45.843,-54.54
45.859,-67.51
45.875,-77.28
45.890,-84.69
45.906,-91.28
45.921,-98.11
45.937,-104.99
45.953,-110.75
45.968,-113.98
45.984,-113.79
46.000,-110.3
46.015,-104.74
46.031,-98.51
46.046,-92.51
46.062,-86.56
46.078,-78.95
46.093,-67.86
46.109,-52.36
46.125,-32.8
46.140,-10.72
46.156,11.98
46.171,34.0
46.187,54.98
46.203,75.51
46.218,96.26
46.234,117.23
46.250,137.56
46.265,155.53
46.281,169.21
46.296,176.82
46.312,177.51
46.328,171.34
46.343,159.08
46.359,141.76
46.375,120.18
46.390,94.83
46.406,65.85
46.421,33.61
46.437,-1.26
46.453,-37.16
46.468,-71.82
46.484,-102.85
46.500,-128.52
46.515,-148.51
46.531,-163.56
46.546,-174.91
46.562,-182.99
46.578,-187.13
46.593,-185.72
46.609,-177.2
46.625,-161.36
46.640,-139.85
46.656,-115.62
46.671,-91.67
46.687,-69.84
46.703,-49.87
46.718,-30.25
46.734,-9.54
46.750,12.69
46.765,35.08
46.781,55.2
46.796,70.53
46.812,79.57
46.828,82.16
46.843,79.42
46.859,72.89
46.875,63.77
46.890,52.77
46.906,40.08
46.921,26.04
46.937,11.45
46.953,-2.35
46.968,-14.16
46.984,-23.24
47.000,-29.46
47.015,-33.18
47.031,-34.5
47.046,-32.94
47.062,-27.11
47.078,-15.33
47.093,3.39
47.109,28.48
47.125,57.51
47.140,86.9
47.156,112.93
47.171,132.99
47.187,145.99
47.203,152.74
47.218,154.97
47.234,154.37
47.250,152.12
47.265,148.36
47.281,142.6
47.296,134.04
47.312,122.22
47.328,107.03
47.343,89.13
47.359,69.68
47.375,49.75
47.390,30.38
47.406,12.31
47.421,-4.01
47.437,-18.3
47.453,-30.01
47.468,-38.76
47.484,-44.35
47.500,-46.93
47.515,-47.41
47.531,-46.84
47.546,-46.32
47.562,-46.46
47.578,-47.35
47.593,-48.21
47.609,-48.19
47.625,-46.7
47.640,-43.65
47.656,-39.59
47.671,-35.16
47.687,-31.19
47.703,-27.88
47.718,-25.25
47.734,-23.04
47.750,-20.98
47.765,-19.06
47.781,-17.49
47.796,-16.56
47.812,-16.37
47.828,-16.83
47.843,-17.64
47.859,-18.42
47.875,-19.06
47.890,-19.73
47.906,-20.82
47.921,-22.68
47.937,-25.5
47.953,-29.1
47.968,-33.11
47.984,-37.11
48.000,-40.6
48.015,-43.24
48.031,-44.78
48.046,-45.09
48.062,-43.96
48.078,-41.5
48.093,-37.94
48.109,-33.66
48.125,-29.08
48.140,-24.39
48.156,-19.53
48.171,-14.11
48.187,-8.02
48.203,-1.4
48.218,5.0
48.234,10.08
48.250,12.66
48.265,12.12
48.281,8.51
48.296,2.67
48.312,-4.13
48.328,-10.62
48.343,-15.65
48.359,-18.5
48.375,-18.65
48.390,-15.88
48.406,-10.28
48.421,-2.42
48.437,6.84
48.453,16.49
48.468,25.78
48.484,34.56
48.500,43.24
48.515,52.39
48.531,62.44
48.546,73.07
48.562,83.24
48.578,91.6
48.593,96.85
48.609,98.3
48.625,96.12
48.640,91.09
48.656,84.01
48.671,75.58
48.687,66.04
48.703,55.17
48.718,42.78
48.734,29.11
48.750,14.89
48.765,1.35
48.781,-10.24
48.796,-19.15
48.812,-25.14
48.828,-28.54
48.843,-29.99
48.859,-29.9
48.875,-28.35
48.890,-25.1
48.906,-19.93
48.921,-12.85
48.937,-4.34
48.953,4.97
48.968,14.32
48.984,23.1
49.000,31.13
49.015,38.5
49.031,45.49
49.046,52.46
49.062,59.55
49.078,66.65
49.093,73.53
49.109,79.78
49.125,84.7
49.140,87.53
49.156,87.16
49.171,82.3
49.187,71.91
49.203,55.61
49.218,33.6
49.234,6.95
49.250,-22.73
49.265,-53.64
49.281,-83.69
49.296,-110.96
49.312,-133.45
49.328,-149.32
49.343,-156.82
49.359,-154.61
49.375,-142.01
49.390,-119.13
49.406,-87.18
49.421,-48.43
49.437,-6.35
49.453,35.02
49.468,71.59
49.484,99.93
49.500,117.9
49.515,124.85
49.531,121.12
49.546,107.42
49.562,84.89
49.578,55.04
49.593,20.15
49.609,-16.67
49.625,-52.08
49.640,-83.37
49.656,-109.06
49.671,-129.21
49.687,-145.07
49.703,-157.37
49.718,-165.98
49.734,-169.88
49.750,-167.97
49.765,-160.58
49.781,-149.75
49.796,-138.18
49.812,-127.55
49.828,-117.45
49.843,-105.46
49.859,-89.04
49.875,-67.54
49.890,-42.96
49.906,-18.82
49.921,1.61
49.937,17.01
49.953,27.88
49.968,35.96
49.984,42.48
50.000,47.65
50.015,51.03
50.031,52.56
50.046,53.03
50.062,53.94
50.078,56.65
50.093,61.32
50.109,67.23
50.125,73.32
50.140,78.78
50.156,83.23
50.171,86.42
50.187,87.3
50.203,84.2
50.218,75.37
50.234,59.81
50.250,38.62
50.265,15.06
50.281,-6.62
50.296,-22.59
50.312,-30.75
50.328,-31.14
50.343,-25.27
50.359,-15.15
50.375,-2.73
50.390,10.09
50.406,21.43
50.421,29.11
50.437,31.49
50.453,27.7
50.468,18.26
50.484,4.75
50.500,-10.4
50.515,-24.69
50.531,-36.08
50.546,-43.31
50.562,-46.14
50.578,-44.91
50.593,-40.61
50.609,-34.48
50.625,-27.76
50.640,-21.42
50.656,-15.97
50.671,-11.36
50.687,-7.19
50.703,-2.92
50.718,2.0
50.734,7.64
50.750,13.65
50.765,19.39
50.781,24.19
50.796,27.39
50.812,28.67
50.828,27.95
50.843,25.48
50.859,21.82
50.875,17.64
50.890,13.54
50.906,9.97
50.921,7.11
50.937,4.69
50.953,2.36
50.968,-0.27
50.984,-3.36
51.000,-6.94
51.015,-10.97
51.031,-15.58
51.046,-20.95
51.062,-27.42
51.078,-35.25
51.093,-44.41
51.109,-54.43
51.125,-64.51
51.140,-73.84
51.156,-81.89
51.171,-88.53
51.187,-93.73
51.203,-97.45
51.218,-99.33
51.234,-98.65
51.250,-94.96
51.265,-88.14
51.281,-78.34
51.296,-66.08
51.312,-51.36
51.328,-33.33
51.343,-10.46
51.359,18.17
51.375,52.5
51.390,90.83
51.406,130.58
51.421,169.8
51.437,207.32
51.453,242.74
51.468,275.55
51.484,304.12
51.500,325.11
51.515,334.55
51.531,329.25
51.546,308.58
51.562,275.2
51.578,233.86
51.593,189.75
51.609,146.74
51.625,106.59
51.640,69.53
51.656,35.55
51.671,5.14
51.687,-20.49
51.703,-40.09
51.718,-53.52
51.734,-61.76
51.750,-66.94
51.765,-71.37
51.781,-76.47
51.796,-82.4
51.812,-88.44
51.828,-93.62
51.843,-96.96
51.859,-98.35
51.875,-98.24
51.890,-97.42
51.906,-96.93
51.921,-97.45
51.937,-99.01
51.953,-101.46
51.968,-104.63
51.984,-108.22
52.000,-111.53
52.015,-113.61
52.031,-113.17
52.046,-109.21
52.062,-101.53
52.078,-90.98
52.093,-79.36
52.109,-68.49
52.125,-59.65
52.140,-52.77
52.156,-46.88
52.171,-40.64
52.187,-32.95
52.203,-23.45
52.218,-12.52
52.234,-0.91
52.250,10.78
52.265,22.1
52.281,32.88
52.296,42.77
52.312,51.17
52.328,57.13
52.343,59.71
52.359,58.3
52.375,52.66
52.390,43.2
52.406,30.69
52.421,16.0
52.437,-0.18
52.453,-17.3
52.468,-34.95
52.484,-52.87
52.500,-70.43
52.515,-86.71
52.531,-100.58
52.546,-110.89
52.562,-116.71
52.578,-117.62
52.593,-113.76
52.609,-105.62
52.625,-93.98
52.640,-79.78
52.656,-63.75
52.671,-46.45
52.687,-28.45
52.703,-10.29
52.718,7.41
52.734,23.94
52.750,38.67
52.765,51.23
52.781,61.59
52.796,69.91
52.812,76.66
52.828,82.07
52.843,85.99
52.859,88.14
52.875,87.98
52.890,85.12
52.906,79.45
52.921,71.37
52.937,61.55
52.953,50.97
52.968,40.43
52.984,30.33
53.000,20.81
53.015,11.9
53.031,3.8
53.046,-3.24
53.062,-8.81
53.078,-12.58
53.093,-14.38
53.109,-14.38
53.125,-12.87
53.140,-10.33
53.156,-7.14
53.171,-3.55
53.187,0.18
53.203,3.75
53.218,6.93
53.234,9.81
53.250,12.69
53.265,15.9
53.281,19.67
53.296,23.87
53.312,28.15
53.328,32.22
53.343,35.68
53.359,38.24
53.375,39.89
53.390,40.87
53.406,41.42
53.421,41.86
53.437,42.37
53.453,42.87
53.468,43.34
53.484,43.29
53.500,42.16
53.515,39.22
53.531,34.15
53.546,26.82
53.562,17.28
53.578,5.73
53.593,-7.56
53.609,-21.97
53.625,-36.9
53.640,-51.8
53.656,-66.33
53.671,-80.16
53.687,-92.94
53.703,-104.44
53.718,-114.4
53.734,-122.46
53.750,-127.92
53.765,-130.18
53.781,-129.08
53.796,-125.16
53.812,-119.36
53.828,-112.4
53.843,-104.31
53.859,-93.92
53.875,-79.37
53.890,-58.66
53.906,-30.64
53.921,4.47
53.937,45.26
53.953,89.55
53.968,135.04
53.984,179.45
54.000,220.82
54.015,257.08
54.031,286.34
54.046,307.15
54.062,318.39
54.078,319.46
54.093,309.8
54.109,289.07
54.125,257.3
54.140,215.44
54.156,165.15
54.171,108.74
54.187,48.88
54.203,-11.72
54.218,-70.02
54.234,-123.06
54.250,-167.82
54.265,-202.27
54.281,-225.62
54.296,-239.31
54.312,-246.1
54.328,-248.83
54.343,-249.12
54.359,-246.59
54.375,-239.58
54.390,-226.2
54.406,-206.36
54.421,-181.67
54.437,-155.32
54.453,-130.17
54.468,-107.49
54.484,-86.74
54.500,-65.84
54.515,-42.92
54.531,-17.17
54.546,10.32
54.562,37.03
54.578,59.75
54.593,75.95
54.609,84.68
54.625,86.4
54.640,83.09
54.656,77.02
54.671,70.56
54.687,65.57
54.703,63.3
54.718,64.23
54.734,68.24
54.750,74.75
54.765,82.26
54.781,89.13
54.796,93.3
54.812,92.86
54.828,86.13
54.843,71.95
54.859,49.75
54.875,19.78
54.890,-16.26
54.906,-55.7
54.921,-94.34
54.937,-127.44
54.953,-150.59
54.968,-160.82
54.984,-157.33
55.000,-141.23
55.015,-115.32
55.031,-83.16
55.046,-48.94
55.062,-16.31
55.078,11.82
55.093,33.82
55.109,49.21
55.125,58.01
55.140,60.58
55.156,57.21
55.171,48.27
55.187,33.8
55.203,15.33
55.218,-4.03
55.234,-19.36
55.250,-25.41
55.265,-19.02
55.281,-0.68
55.296,25.43
55.312,53.58
55.328,78.26
55.343,97.28
55.359,111.91
55.375,126.24
55.390,144.75
55.406,169.55
55.421,198.88
55.437,227.71
55.453,250.07
55.468,261.09
55.484,259.01
55.500,245.42
55.515,224.64
55.531,201.67
55.546,180.38
55.562,162.51
55.578,148.29
55.593,138.09
55.609,133.01
55.625,134.43
55.640,142.52
55.656,155.45
55.671,169.66
55.687,180.74
55.703,184.89
55.718,179.81
55.734,164.78
55.750,139.23
55.765,102.28
55.781,52.69
55.796,-10.48
55.812,-86.25
55.828,-171.91
55.843,-263.02
55.859,-354.05
55.875,-435.35
55.890,-496.24
55.906,-528.35
55.921,-528.69
55.937,-500.09
55.953,-449.15
55.968,-384.04
55.984,-312.74
56.000,-242.5
56.015,-178.33
56.031,-123.0
56.046,-76.42
56.062,-36.43
56.078,-0.12
56.093,35.16
56.109,70.59
56.125,107.55
56.140,144.55
56.156,179.51
56.171,209.01
56.187,229.49
56.203,237.92
56.218,233.15
56.234,217.19
56.250,194.97
56.265,172.65
56.281,154.23
56.296,140.29
56.312,127.27
56.328,109.97
56.343,84.47
56.359,50.62
56.375,11.85
56.390,-26.73
56.406,-60.38
56.421,-87.96
56.437,-111.44
56.453,-134.06
56.468,-157.48
56.484,-180.47
56.500,-199.84
56.515,-212.66
56.531,-218.0
56.546,-217.18
56.562,-212.43
56.578,-205.26
56.593,-195.63
56.609,-182.64
56.625,-165.38
56.640,-144.06
56.656,-119.97
56.671,-94.71
56.687,-69.88
56.703,-47.1
56.718,-27.7
56.734,-13.1
56.750,-4.39
56.765,-1.62
56.781,-3.54
56.796,-7.76
56.812,-11.85
56.828,-14.18
56.843,-14.76
56.859,-14.43
56.875,-14.19
56.890,-14.12
56.906,-13.43
56.921,-11.1
56.937,-6.53
56.953,-0.13
56.968,6.98
56.984,13.62
57.000,19.14
57.015,23.3
57.031,26.36
57.046,28.59
57.062,29.77
57.078,29.46
57.093,27.18
57.109,22.63
57.125,16.1
57.140,8.66
57.156,1.4
57.171,-4.67
57.187,-8.9
57.203,-11.33
57.218,-12.2
57.234,-11.85
57.250,-10.41
57.265,-7.9
57.281,-4.08
57.296,1.25
57.312,7.89
57.328,15.54
57.343,23.56
57.359,31.23
57.375,37.73
57.390,42.44
57.406,44.9
57.421,45.02
57.437,43.11
57.453,39.59
57.468,34.83
57.484,28.99
57.500,22.13
57.515,14.45
57.531,6.5
57.546,-0.82
57.562,-6.53
57.578,-9.87
57.593,-10.78
57.609,-9.86
57.625,-8.19
57.640,-6.6
57.656,-5.45
57.671,-4.62
57.687,-3.87
57.703,-3.29
57.718,-3.21
57.734,-4.21
57.750,-6.47
57.765,-10.01
57.781,-14.41
57.796,-19.06
57.812,-23.54
57.828,-27.74
57.843,-31.72
57.859,-35.24
57.875,-38.04
57.890,-39.36
57.906,-38.7
57.921,-35.91
57.937,-31.33
57.953,-25.71
57.968,-19.78
57.984,-13.99
58.000,-8.36
58.015,-2.95
58.031,2.3
58.046,7.15
58.062,11.27
58.078,14.35
58.093,16.37
58.109,17.56
58.125,18.29
58.140,18.87
58.156,19.33
58.171,19.7
58.187,20.0
58.203,20.4
58.218,21.09
58.234,22.13
58.250,23.47
58.265,24.69
58.281,25.26
58.296,24.68
58.312,22.96
58.328,20.6
58.343,18.3
58.359,16.95
58.375,16.9
58.390,18.29
58.406,20.88
58.421,24.43
58.437,28.7
58.453,33.38
58.468,38.06
58.484,41.9
58.500,44.1
58.515,43.94
58.531,41.32
58.546,36.71
58.562,31.1
58.578,25.4
58.593,20.21
58.609,15.65
58.625,11.49
58.640,7.35
58.656,3.03
58.671,-1.42
58.687,-5.76
58.703,-9.45
58.718,-12.09
58.734,-13.28
58.750,-12.79
58.765,-10.58
58.781,-6.89
58.796,-2.21
58.812,2.83
58.828,7.57
58.843,11.58
58.859,14.71
58.875,17.01
58.890,18.85
58.906,20.59
58.921,22.7
58.937,25.39
58.953,28.74
58.968,32.71
58.984,37.03
59.000,41.25
59.015,44.81
59.031,47.14
59.046,47.92
59.062,47.23
59.078,45.32
59.093,42.53
59.109,39.06
59.125,34.93
59.140,29.61
59.156,22.47
59.171,12.58
59.187,-0.81
59.203,-17.79
59.218,-37.89
59.234,-59.79
59.250,-81.65
59.265,-101.29
59.281,-116.84
59.296,-127.01
59.312,-131.4
59.328,-130.43
59.343,-124.91
59.359,-115.83
59.375,-104.14
59.390,-90.69
59.406,-76.14
59.421,-60.95
59.437,-45.49
59.453,-30.24
59.468,-15.68
59.484,-2.32
59.500,9.27
59.515,18.8
59.531,26.02
59.546,30.81
59.562,33.37
59.578,33.95
59.593,33.06
59.609,31.07
59.625,28.48
59.640,25.53
59.656,22.56
59.671,19.77
59.687,17.18
59.703,14.94
59.718,12.98
59.734,11.33
59.750,9.86
59.765,8.36
59.781,6.59
59.796,4.52
59.812,2.35
59.828,0.48
59.843,-0.64
59.859,-0.71
59.875,0.09
59.890,1.33
59.906,2.19
59.921,2.05
59.937,0.64
59.953,-1.77
59.968,-4.49
59.984,-6.86
