timestamp,value
00.000,-3.89
00.015,1.81
00.031,8.32
00.046,15.32
00.062,22.34
00.078,28.9
00.093,34.28
00.109,38.08
00.125,39.96
00.140,39.62
00.156,37.13
00.171,32.55
00.187,26.04
00.203,18.14
00.218,9.81
00.234,2.28
00.250,-3.09
00.265,-5.37
00.281,-4.34
00.296,-0.32
00.312,5.71
00.328,11.88
00.343,16.22
00.359,16.75
00.375,12.35
00.390,3.57
00.406,-7.55
00.421,-18.05
00.437,-24.97
00.453,-26.54
00.468,-22.99
00.484,-16.08
00.500,-8.63
00.515,-3.35
00.531,-1.77
00.546,-3.93
00.562,-8.64
00.578,-14.08
00.593,-18.42
00.609,-20.52
00.625,-19.87
00.640,-16.86
00.656,-12.3
00.671,-7.13
00.687,-2.26
00.703,1.41
00.718,3.03
00.734,2.14
00.750,-1.36
00.765,-6.72
00.781,-12.66
00.796,-17.5
00.812,-19.84
00.828,-18.9
00.843,-14.93
00.859,-8.98
00.875,-2.49
00.890,3.17
00.906,6.98
00.921,8.54
00.937,7.91
00.953,5.55
00.968,1.97
00.984,-2.2
01.000,-6.46
01.015,-10.5
01.031,-14.15
01.046,-17.43
01.062,-20.25
01.078,-22.72
01.093,-24.69
01.109,-26.2
01.125,-27.31
01.140,-28.14
01.156,-28.53
01.171,-28.23
01.187,-26.58
01.203,-22.85
01.218,-16.84
01.234,-8.86
01.250,0.17
01.265,8.89
01.281,16.06
01.296,21.25
01.312,24.44
01.328,26.31
01.343,27.74
01.359,29.15
01.375,30.58
01.390,31.79
01.406,32.14
01.421,31.1
01.437,28.57
01.453,24.92
01.468,20.98
01.484,17.99
01.500,16.84
01.515,17.72
01.531,20.07
01.546,22.52
01.562,23.36
01.578,21.17
01.593,14.98
01.609,4.99
01.625,-7.47
01.640,-20.43
01.656,-31.4
01.671,-38.48
01.687,-40.81
01.703,-38.72
01.718,-33.57
01.734,-27.57
01.750,-22.39
01.765,-18.96
01.781,-17.14
01.796,-15.56
01.812,-12.68
01.828,-7.61
01.843,-0.39
01.859,7.58
01.875,14.02
01.890,16.94
01.906,15.21
01.921,8.88
01.937,-0.63
01.953,-11.32
01.968,-21.36
01.984,-29.18
02.000,-33.83
02.015,-35.14
02.031,-33.37
02.046,-29.28
02.062,-24.02
02.078,-18.74
02.093,-14.38
02.109,-11.88
02.125,-11.61
02.140,-13.31
02.156,-16.45
02.171,-20.07
02.187,-23.19
02.203,-25.03
02.218,-25.15
02.234,-23.74
02.250,-21.61
02.265,-20.03
02.281,-20.12
02.296,-22.61
02.312,-27.18
02.328,-32.75
02.343,-37.57
02.359,-39.62
02.375,-37.61
02.390,-31.07
02.406,-20.71
02.421,-7.98
02.437,5.22
02.453,17.32
02.468,27.18
02.484,34.17
02.500,38.33
02.515,39.84
02.531,38.87
02.546,35.49
02.562,29.87
02.578,22.04
02.593,12.64
02.609,2.59
02.625,-7.17
02.640,-15.25
02.656,-20.32
02.671,-21.34
02.687,-17.93
02.703,-10.48
02.718,-0.62
02.734,9.61
02.750,18.16
02.765,23.26
02.781,24.3
02.796,21.73
02.812,16.85
02.828,11.42
02.843,6.98
02.859,4.5
02.875,3.77
02.890,3.88
02.906,3.41
02.921,1.36
02.937,-2.32
02.953,-6.73
02.968,-10.07
02.984,-10.82
03.000,-7.82
03.015,-0.97
03.031,8.94
03.046,20.59
03.062,32.64
03.078,43.94
03.093,53.51
03.109,60.86
03.125,65.41
03.140,66.95
03.156,65.67
03.171,62.09
03.187,57.24
03.203,52.29
03.218,48.14
03.234,45.17
03.250,43.09
03.265,41.14
03.281,38.49
03.296,34.67
03.312,29.58
03.328,23.75
03.343,17.78
03.359,12.19
03.375,7.2
03.390,2.52
03.406,-2.34
03.421,-8.0
03.437,-14.84
03.453,-23.15
03.468,-32.68
03.484,-43.01
03.500,-53.15
03.515,-61.5
03.531,-66.27
03.546,-65.84
03.562,-59.15
03.578,-46.29
03.593,-28.71
03.609,-8.57
03.625,11.49
03.640,29.26
03.656,43.44
03.671,53.72
03.687,60.55
03.703,64.63
03.718,66.46
03.734,66.08
03.750,63.28
03.765,57.67
03.781,49.23
03.796,38.35
03.812,25.92
03.828,13.28
03.843,1.97
03.859,-6.55
03.875,-11.23
03.890,-11.7
03.906,-8.5
03.921,-3.12
03.937,2.4
03.953,6.08
03.968,6.41
03.984,2.93
04.000,-3.71
04.015,-12.12
04.031,-20.74
04.046,-28.62
04.062,-35.42
04.078,-41.55
04.093,-47.39
04.109,-52.83
04.125,-57.12
04.140,-58.77
04.156,-56.63
04.171,-49.86
04.187,-38.95
04.203,-25.21
04.218,-10.43
04.234,3.37
04.250,14.86
04.265,23.19
04.281,28.37
04.296,30.42
04.312,29.84
04.328,27.04
04.343,22.46
04.359,16.81
04.375,10.93
04.390,5.76
04.406,2.16
04.421,0.73
04.437,1.23
04.453,3.07
04.468,5.29
04.484,6.82
04.500,7.15
04.515,6.26
04.531,4.57
04.546,2.55
04.562,0.68
04.578,-0.9
04.593,-2.36
04.609,-3.94
04.625,-5.96
04.640,-8.39
04.656,-11.35
04.671,-14.65
04.687,-18.42
04.703,-22.67
04.718,-27.19
04.734,-31.51
04.750,-34.71
04.765,-35.63
04.781,-33.02
04.796,-26.5
04.812,-16.53
04.828,-4.39
04.843,8.17
04.859,19.58
04.875,28.65
04.890,34.95
04.906,38.61
04.921,39.94
04.937,39.34
04.953,37.02
04.968,33.38
04.984,28.85
05.000,24.1
05.015,19.28
05.031,14.68
05.046,10.54
05.062,6.87
05.078,4.01
05.093,2.5
05.109,2.79
05.125,5.02
05.140,9.0
05.156,13.49
05.171,17.13
05.187,18.78
05.203,17.67
05.218,13.87
05.234,8.24
05.250,1.7
05.265,-5.01
05.281,-11.41
05.296,-17.45
05.312,-22.88
05.328,-26.97
05.343,-28.83
05.359,-27.37
05.375,-22.11
05.390,-13.39
05.406,-2.32
05.421,9.37
05.437,19.88
05.453,27.71
05.468,32.08
05.484,32.61
05.500,29.99
05.515,24.93
05.531,18.22
05.546,10.69
05.562,3.19
05.578,-3.47
05.593,-8.43
05.609,-11.16
05.625,-11.64
05.640,-10.03
05.656,-7.11
05.671,-3.84
05.687,-0.98
05.703,0.95
05.718,1.69
05.734,1.4
05.750,0.31
05.765,-1.42
05.781,-3.23
05.796,-4.97
05.812,-6.49
05.828,-7.61
05.843,-8.28
05.859,-8.52
05.875,-8.69
05.890,-9.17
05.906,-10.65
05.921,-13.25
05.937,-16.74
05.953,-20.24
05.968,-22.49
05.984,-22.35
06.000,-19.06
06.015,-12.92
06.031,-4.75
06.046,3.93
06.062,11.78
06.078,17.73
06.093,21.51
06.109,23.4
06.125,23.81
06.140,23.47
06.156,22.61
06.171,21.33
06.187,19.65
06.203,17.72
06.218,15.84
06.234,14.19
06.250,13.14
06.265,12.41
06.281,11.89
06.296,11.0
06.312,9.24
06.328,6.21
06.343,1.85
06.359,-3.29
06.375,-8.58
06.390,-13.14
06.406,-16.66
06.421,-19.09
06.437,-20.81
06.453,-22.08
06.468,-23.32
06.484,-24.68
06.500,-26.2
06.515,-28.08
06.531,-30.34
06.546,-32.53
06.562,-33.69
06.578,-32.51
06.593,-28.02
06.609,-20.25
06.625,-10.54
06.640,-1.12
06.656,5.86
06.671,9.12
06.687,8.75
06.703,5.96
06.718,2.49
06.734,-0.46
06.750,-2.59
06.765,-4.38
06.781,-6.57
06.796,-9.47
06.812,-12.72
06.828,-15.27
06.843,-16.26
06.859,-15.32
06.875,-12.63
06.890,-9.17
06.906,-5.92
06.921,-3.85
06.937,-3.31
06.953,-4.02
06.968,-5.46
06.984,-7.13
07.000,-8.74
07.015,-10.25
07.031,-12.11
07.046,-14.53
07.062,-17.81
07.078,-21.93
07.093,-26.51
07.109,-31.25
07.125,-35.75
07.140,-39.65
07.156,-42.41
07.171,-43.48
07.187,-42.18
07.203,-38.01
07.218,-30.81
07.234,-20.91
07.250,-9.4
07.265,2.38
07.281,12.98
07.296,21.33
07.312,26.78
07.328,29.36
07.343,29.64
07.359,28.47
07.375,26.84
07.390,25.59
07.406,25.29
07.421,26.03
07.437,27.63
07.453,29.55
07.468,31.07
07.484,31.74
07.500,31.38
07.515,30.14
07.531,28.26
07.546,26.06
07.562,23.63
07.578,20.84
07.593,17.75
07.609,14.11
07.625,9.99
07.640,5.53
07.656,1.03
07.671,-3.39
07.687,-7.63
07.703,-11.69
07.718,-15.85
07.734,-20.17
07.750,-25.07
07.765,-30.91
07.781,-37.9
07.796,-45.84
07.812,-53.94
07.828,-60.63
07.843,-64.07
07.859,-62.81
07.875,-56.07
07.890,-44.58
07.906,-30.22
07.921,-15.4
07.937,-2.39
07.953,7.61
07.968,14.49
07.984,19.04
08.000,22.35
08.015,25.39
08.031,28.6
08.046,32.0
08.062,35.33
08.078,38.12
08.093,40.15
08.109,40.92
08.125,40.12
08.140,37.18
08.156,31.87
08.171,24.24
08.187,14.81
08.203,4.92
08.218,-4.04
08.234,-10.59
08.250,-14.06
08.265,-14.72
08.281,-13.68
08.296,-12.38
08.312,-12.18
08.328,-13.79
08.343,-16.88
08.359,-20.64
08.375,-23.6
08.390,-24.27
08.406,-21.81
08.421,-15.83
08.437,-6.77
08.453,3.98
08.468,14.94
08.484,24.72
08.500,32.04
08.515,36.51
08.531,38.21
08.546,37.42
08.562,34.6
08.578,30.48
08.593,25.67
08.609,20.8
08.625,16.52
08.640,13.09
08.656,10.76
08.671,9.49
08.687,8.77
08.703,8.12
08.718,7.07
08.734,5.4
08.750,3.24
08.765,0.94
08.781,-1.1
08.796,-2.54
08.812,-3.48
08.828,-4.19
08.843,-5.08
08.859,-6.61
08.875,-9.01
08.890,-12.26
08.906,-16.38
08.921,-21.09
08.937,-25.6
08.953,-29.05
08.968,-30.4
08.984,-28.3
09.000,-22.1
09.015,-11.96
09.031,1.24
09.046,15.79
09.062,29.54
09.078,40.52
09.093,47.36
09.109,49.15
09.125,45.91
09.140,38.23
09.156,27.46
09.171,15.67
09.187,5.35
09.203,-1.42
09.218,-3.72
09.234,-1.96
09.250,1.8
09.265,4.94
09.281,4.97
09.296,0.8
09.312,-6.98
09.328,-16.53
09.343,-25.45
09.359,-32.09
09.375,-35.52
09.390,-35.96
09.406,-34.19
09.421,-31.38
09.437,-28.67
09.453,-26.64
09.468,-26.08
09.484,-27.24
09.500,-30.11
09.515,-33.95
09.531,-37.58
09.546,-39.31
09.562,-37.41
09.578,-31.26
09.593,-20.84
09.609,-7.57
09.625,6.43
09.640,18.81
09.656,27.88
09.671,32.91
09.687,34.15
09.703,32.75
09.718,29.8
09.734,26.38
09.750,23.05
09.765,20.21
09.781,17.95
09.796,16.34
09.812,15.59
09.828,15.7
09.843,16.59
09.859,17.86
09.875,19.12
09.890,19.78
09.906,19.52
09.921,18.26
09.937,15.78
09.953,12.37
09.968,8.41
09.984,4.16
10.000,-0.04
10.015,-4.0
10.031,-7.67
10.046,-11.26
10.062,-14.79
10.078,-18.52
10.093,-22.43
10.109,-26.07
10.125,-28.75
10.140,-29.4
10.156,-27.03
10.171,-20.98
10.187,-11.45
10.203,0.71
10.218,13.88
10.234,26.11
10.250,35.62
10.265,41.29
10.281,42.81
10.296,40.67
10.312,36.09
10.328,30.45
10.343,25.04
10.359,20.67
10.375,17.8
10.390,16.13
10.406,14.97
10.421,13.5
10.437,10.74
10.453,6.01
10.468,-0.55
10.484,-8.23
10.500,-15.54
10.515,-20.78
10.531,-22.52
10.546,-20.58
10.562,-15.85
10.578,-10.1
10.593,-5.21
10.609,-2.14
10.625,-0.74
10.640,0.06
10.656,1.74
10.671,5.4
10.687,10.96
10.703,17.69
10.718,24.76
10.734,31.74
10.750,38.94
10.765,47.0
10.781,56.2
10.796,65.9
10.812,74.63
10.828,80.59
10.843,82.22
10.859,78.81
10.875,70.73
10.890,59.2
10.906,45.59
10.921,31.35
10.937,17.57
10.953,4.94
10.968,-5.88
10.984,-14.43
11.000,-20.3
11.015,-23.55
11.031,-24.39
11.046,-23.63
11.062,-22.33
11.078,-21.6
11.093,-22.25
11.109,-24.37
11.125,-27.65
11.140,-31.18
11.156,-34.26
11.171,-36.13
11.187,-36.58
11.203,-35.86
11.218,-34.49
11.234,-33.12
11.250,-32.22
11.265,-32.14
11.281,-32.81
11.296,-33.86
11.312,-34.63
11.328,-34.09
11.343,-31.54
11.359,-26.61
11.375,-19.63
11.390,-11.35
11.406,-2.82
11.421,4.86
11.437,11.18
11.453,15.87
11.468,19.14
11.484,21.34
11.500,22.88
11.515,23.91
11.531,24.71
11.546,25.6
11.562,26.88
11.578,29.05
11.593,32.31
11.609,36.85
11.625,42.41
11.640,48.57
11.656,54.24
11.671,58.3
11.687,59.76
11.703,58.14
11.718,53.85
11.734,47.88
11.750,41.54
11.765,35.88
11.781,31.69
11.796,28.88
11.812,26.93
11.828,25.12
11.843,22.95
11.859,20.4
11.875,17.69
11.890,15.27
11.906,13.51
11.921,12.88
11.937,13.57
11.953,15.76
11.968,19.09
11.984,22.58
12.000,24.61
12.015,23.15
12.031,16.71
12.046,5.26
12.062,-9.4
12.078,-24.13
12.093,-35.74
12.109,-42.57
12.125,-45.26
12.140,-46.27
12.156,-48.77
12.171,-54.88
12.187,-64.98
12.203,-77.71
12.218,-90.86
12.234,-102.31
12.250,-110.76
12.265,-115.91
12.281,-117.94
12.296,-117.19
12.312,-113.91
12.328,-108.4
12.343,-101.03
12.359,-92.64
12.375,-84.17
12.390,-76.52
12.406,-70.57
12.421,-66.76
12.437,-65.0
12.453,-64.6
12.468,-64.66
12.484,-63.97
12.500,-61.63
12.515,-56.96
12.531,-49.89
12.546,-40.91
12.562,-31.02
12.578,-21.25
12.593,-12.43
12.609,-5.13
12.625,0.56
12.640,4.63
12.656,7.21
12.671,8.34
12.687,8.13
12.703,6.68
12.718,4.39
12.734,1.9
12.750,-0.01
12.765,-0.67
12.781,0.21
12.796,2.44
12.812,5.34
12.828,8.19
12.843,10.27
12.859,11.21
12.875,10.93
12.890,9.81
12.906,8.43
12.921,7.23
12.937,6.54
12.953,6.43
12.968,6.78
12.984,7.38
13.000,7.86
13.015,7.82
13.031,7.01
13.046,5.38
13.062,3.23
13.078,1.02
13.093,-0.5
13.109,-0.49
13.125,1.45
13.140,5.42
13.156,10.85
13.171,16.74
13.187,22.01
13.203,25.84
13.218,27.93
13.234,28.31
13.250,27.55
13.265,26.1
13.281,24.41
13.296,22.81
13.312,21.31
13.328,19.96
13.343,18.8
13.359,17.9
13.375,17.39
13.390,17.28
13.406,17.49
13.421,17.66
13.437,17.43
13.453,16.31
13.468,13.91
13.484,9.91
13.500,4.27
13.515,-2.77
13.531,-10.46
13.546,-17.85
13.562,-23.63
13.578,-26.61
13.593,-26.31
13.609,-22.97
13.625,-17.82
13.640,-12.53
13.656,-8.51
13.671,-6.32
13.687,-5.57
13.703,-5.1
13.718,-3.37
13.734,0.43
13.750,6.14
13.765,13.14
13.781,20.25
13.796,26.64
13.812,31.95
13.828,36.16
13.843,39.28
13.859,41.2
13.875,41.57
13.890,40.01
13.906,36.74
13.921,32.3
13.937,27.7
13.953,24.12
13.968,22.2
13.984,22.24
14.000,23.85
14.015,26.25
14.031,28.65
14.046,30.44
14.062,31.32
14.078,31.39
14.093,30.96
14.109,30.11
14.125,28.86
14.140,26.95
14.156,24.16
14.171,20.49
14.187,16.08
14.203,11.1
14.218,5.84
14.234,0.62
14.250,-4.42
14.265,-9.22
14.281,-13.69
14.296,-17.72
14.312,-20.81
14.328,-22.28
14.343,-21.48
14.359,-18.0
14.375,-11.88
14.390,-3.74
14.406,5.33
14.421,14.04
14.437,21.07
14.453,25.73
14.468,27.81
14.484,27.56
14.500,25.58
14.515,22.67
14.531,19.42
14.546,16.28
14.562,13.47
14.578,11.21
14.593,9.56
14.609,8.59
14.625,8.15
14.640,8.09
14.656,8.08
14.671,7.85
14.687,7.26
14.703,6.02
14.718,4.21
14.734,1.79
14.750,-1.13
14.765,-4.5
14.781,-7.99
14.796,-11.4
14.812,-14.49
14.828,-17.07
14.843,-19.22
14.859,-21.11
14.875,-23.19
14.890,-25.85
14.906,-29.21
14.921,-32.76
14.937,-35.64
14.953,-36.56
14.968,-34.31
14.984,-28.1
15.000,-17.99
15.015,-4.85
15.031,9.66
15.046,23.4
15.062,33.93
15.078,39.27
15.093,38.16
15.109,30.85
15.125,18.87
15.140,4.9
15.156,-8.11
15.171,-18.01
15.187,-23.5
15.203,-25.0
15.218,-23.75
15.234,-21.35
15.250,-18.69
15.265,-16.33
15.281,-14.16
15.296,-11.77
15.312,-9.28
15.328,-6.74
15.343,-4.48
15.359,-2.87
15.375,-2.01
15.390,-1.69
15.406,-1.65
15.421,-1.47
15.437,-0.9
15.453,-0.03
15.468,0.86
15.484,1.43
15.500,1.26
15.515,-0.03
15.531,-2.55
15.546,-6.23
15.562,-10.73
15.578,-15.27
15.593,-18.81
15.609,-20.1
15.625,-18.1
15.640,-12.21
15.656,-2.72
15.671,8.97
15.687,21.04
15.703,31.5
15.718,38.85
15.734,42.2
15.750,41.64
15.765,37.97
15.781,32.22
15.796,25.72
15.812,19.3
15.828,13.64
15.843,9.17
15.859,6.02
15.875,3.96
15.890,2.48
15.906,0.99
15.921,-1.28
15.937,-4.65
15.953,-9.12
15.968,-14.38
15.984,-19.74
16.000,-24.23
16.015,-27.34
16.031,-28.92
16.046,-29.32
16.062,-29.22
16.078,-29.18
16.093,-29.38
16.109,-29.8
16.125,-30.35
16.140,-30.86
16.156,-31.2
16.171,-31.21
16.187,-30.52
16.203,-28.46
16.218,-24.2
16.234,-17.06
16.250,-7.23
16.265,4.33
16.281,16.03
16.296,26.04
16.312,33.05
16.328,36.34
16.343,36.17
16.359,33.37
16.375,29.19
16.390,24.64
16.406,20.5
16.421,17.28
16.437,15.03
16.453,13.8
16.468,13.35
16.484,13.52
16.500,14.21
16.515,15.25
16.531,16.32
16.546,17.01
16.562,16.6
16.578,14.25
16.593,9.67
16.609,2.91
16.625,-5.25
16.640,-13.63
16.656,-21.26
16.671,-27.85
16.687,-33.66
16.703,-39.74
16.718,-47.18
16.734,-56.37
16.750,-67.24
16.765,-78.82
16.781,-89.53
16.796,-97.66
16.812,-101.69
16.828,-100.77
16.843,-95.35
16.859,-87.59
16.875,-80.11
16.890,-75.53
16.906,-75.23
16.921,-78.7
16.937,-83.59
16.953,-86.34
16.968,-83.71
16.984,-73.83
17.000,-57.25
17.015,-36.98
17.031,-17.63
17.046,-3.98
17.062,0.54
17.078,-4.5
17.093,-15.53
17.109,-25.9
17.125,-28.11
17.140,-16.62
17.156,9.51
17.171,46.06
17.187,85.25
17.203,118.61
17.218,140.01
17.234,147.36
17.250,142.07
17.265,127.5
17.281,107.06
17.296,83.08
17.312,57.19
17.328,30.93
17.343,6.77
17.359,-12.54
17.375,-24.77
17.390,-29.16
17.406,-26.45
17.421,-18.62
17.437,-8.04
17.453,3.79
17.468,15.98
17.484,28.53
17.500,41.65
17.515,55.09
17.531,67.86
17.546,78.62
17.562,86.04
17.578,89.31
17.593,88.77
17.609,85.53
17.625,81.55
17.640,78.91
17.656,78.68
17.671,80.83
17.687,84.2
17.703,86.84
17.718,87.17
17.734,84.83
17.750,80.4
17.765,75.15
17.781,70.64
17.796,67.62
17.812,66.26
17.828,66.46
17.843,67.52
17.859,68.56
17.875,68.33
17.890,65.09
17.906,57.12
17.921,43.65
17.937,24.84
17.953,2.24
17.968,-21.46
17.984,-43.74
18.000,-62.68
18.015,-77.18
18.031,-87.12
18.046,-92.74
18.062,-94.23
18.078,-92.03
18.093,-86.82
18.109,-79.51
18.125,-71.49
18.140,-64.05
18.156,-58.03
18.171,-53.95
18.187,-51.51
18.203,-50.09
18.218,-49.12
18.234,-48.25
18.250,-47.14
18.265,-45.81
18.281,-44.15
18.296,-41.95
18.312,-39.14
18.328,-35.63
18.343,-31.67
18.359,-27.66
18.375,-24.14
18.390,-21.42
18.406,-19.62
18.421,-18.42
18.437,-17.35
18.453,-16.3
18.468,-15.11
18.484,-14.13
18.500,-13.8
18.515,-14.58
18.531,-16.82
18.546,-20.62
18.562,-25.84
18.578,-31.52
18.593,-36.67
18.609,-40.01
18.625,-40.61
18.640,-38.28
18.656,-33.33
18.671,-26.74
18.687,-19.48
18.703,-12.53
18.718,-6.49
18.734,-1.74
18.750,1.69
18.765,3.77
18.781,4.66
18.796,4.52
18.812,3.57
18.828,2.23
18.843,1.14
18.859,0.76
18.875,1.45
18.890,3.22
18.906,5.66
18.921,8.23
18.937,10.39
18.953,11.62
18.968,11.98
18.984,11.79
19.000,11.47
19.015,11.5
19.031,11.9
19.046,12.62
19.062,13.38
19.078,14.03
19.093,14.37
19.109,14.25
19.125,13.51
19.140,11.87
19.156,9.41
19.171,6.27
19.187,3.21
19.203,1.48
19.218,2.26
19.234,6.33
19.250,13.83
19.265,23.95
19.281,35.18
19.296,46.07
19.312,55.33
19.328,62.01
19.343,65.97
19.359,67.27
19.375,66.02
19.390,62.54
19.406,57.21
19.421,50.48
19.437,43.4
19.453,36.72
19.468,30.95
19.484,26.27
19.500,22.45
19.515,19.05
19.531,15.67
19.546,12.22
19.562,8.58
19.578,4.92
19.593,1.19
19.609,-2.62
19.625,-6.41
19.640,-10.1
19.656,-13.5
19.671,-16.71
19.687,-19.99
19.703,-23.72
19.718,-28.21
19.734,-33.74
19.750,-40.36
19.765,-47.62
19.781,-54.97
19.796,-61.51
19.812,-66.15
19.828,-67.9
19.843,-66.03
19.859,-60.17
19.875,-50.74
19.890,-38.64
19.906,-24.87
19.921,-10.68
19.937,3.12
19.953,15.91
19.968,27.42
19.984,37.5
20.000,46.22
20.015,53.52
20.031,59.32
20.046,63.79
20.062,66.89
20.078,68.91
20.093,70.07
20.109,70.42
20.125,69.91
20.140,68.55
20.156,66.41
20.171,63.71
20.187,60.91
20.203,58.35
20.218,56.09
20.234,54.24
20.250,52.64
20.265,50.97
20.281,48.77
20.296,45.4
20.312,40.25
20.328,33.08
20.343,23.75
20.359,12.41
20.375,-0.51
20.390,-14.57
20.406,-29.12
20.421,-43.45
20.437,-56.66
20.453,-67.79
20.468,-75.73
20.484,-80.18
20.500,-81.66
20.515,-81.66
20.531,-82.17
20.546,-85.21
20.562,-92.02
20.578,-102.62
20.593,-115.53
20.609,-128.32
20.625,-138.53
20.640,-144.3
20.656,-144.96
20.671,-140.46
20.687,-132.06
20.703,-121.91
20.718,-112.77
20.734,-106.84
20.750,-104.74
20.765,-105.45
20.781,-106.52
20.796,-105.2
20.812,-98.67
20.828,-85.9
20.843,-68.2
20.859,-48.56
20.875,-29.55
20.890,-12.14
20.906,4.27
20.921,21.38
20.937,40.6
20.953,63.53
20.968,89.95
20.984,117.28
21.000,141.53
21.015,159.33
21.031,169.44
21.046,172.68
21.062,171.73
21.078,170.11
21.093,173.49
21.109,185.36
21.125,205.37
21.140,229.16
21.156,250.08
21.171,261.64
21.187,258.85
21.203,239.64
21.218,194.09
21.234,124.27
21.250,45.06
21.265,-23.74
21.281,-69.98
21.296,-93.38
21.312,-100.46
21.328,-98.35
21.343,-91.56
21.359,-82.14
21.375,-68.93
21.390,-52.4
21.406,-35.62
21.421,-22.51
21.437,-15.17
21.453,-12.99
21.468,-13.2
21.484,-12.58
21.500,-9.06
21.515,-0.31
21.531,13.27
21.546,28.69
21.562,42.1
21.578,51.03
21.593,54.61
21.609,53.75
21.625,50.02
21.640,44.68
21.656,39.02
21.671,32.69
21.687,24.01
21.703,10.83
21.718,-7.2
21.734,-28.82
21.750,-51.55
21.765,-72.51
21.781,-89.36
21.796,-100.49
21.812,-106.04
21.828,-107.63
21.843,-107.58
21.859,-108.03
21.875,-109.75
21.890,-112.25
21.906,-114.18
21.921,-114.34
21.937,-111.96
21.953,-107.55
21.968,-102.38
21.984,-97.8
22.000,-95.21
22.015,-95.46
22.031,-98.96
22.046,-105.48
22.062,-113.58
22.078,-120.05
22.093,-120.44
22.109,-110.5
22.125,-88.3
22.140,-55.92
22.156,-19.38
22.171,13.61
22.187,36.79
22.203,47.74
22.218,48.3
22.234,42.85
22.250,35.51
22.265,28.42
22.281,21.45
22.296,13.51
22.312,4.12
22.328,-5.76
22.343,-14.25
22.359,-19.56
22.375,-20.63
22.390,-18.11
22.406,-12.95
22.421,-6.67
22.437,-0.55
22.453,5.07
22.468,11.06
22.484,18.43
22.500,27.62
22.515,38.59
22.531,50.14
22.546,60.65
22.562,68.23
22.578,71.35
22.593,69.45
22.609,63.67
22.625,56.14
22.640,49.12
22.656,44.13
22.671,41.22
22.687,39.96
22.703,39.58
22.718,39.99
22.734,42.39
22.750,48.05
22.765,56.24
22.781,63.75
22.796,66.51
22.812,60.91
22.828,49.92
22.843,40.12
22.859,38.27
22.875,46.33
22.890,61.17
22.906,76.08
22.921,85.65
22.937,88.4
22.953,86.95
22.968,85.92
22.984,88.0
23.000,89.52
23.015,85.82
23.031,72.56
23.046,49.1
23.062,20.69
23.078,-4.78
23.093,-22.15
23.109,-31.93
23.125,-39.9
23.140,-53.82
23.156,-78.42
23.171,-112.99
23.187,-151.47
23.203,-183.82
23.218,-201.31
23.234,-200.16
23.250,-182.27
23.265,-152.8
23.281,-118.39
23.296,-83.29
23.312,-50.35
23.328,-22.76
23.343,-3.2
23.359,6.36
23.375,6.62
23.390,1.82
23.406,-0.6
23.421,6.27
23.437,26.49
23.453,58.84
23.468,95.61
23.484,127.01
23.500,144.51
23.515,144.49
23.531,129.48
23.546,105.59
23.562,79.54
23.578,56.72
23.593,39.64
23.609,27.32
23.625,18.34
23.640,10.96
23.656,5.08
23.671,1.58
23.687,0.69
23.703,1.89
23.718,4.52
23.734,7.71
23.750,10.82
23.765,14.77
23.781,19.86
23.796,25.69
23.812,30.28
23.828,31.12
23.843,26.62
23.859,18.08
23.875,9.05
23.890,3.2
23.906,3.28
23.921,8.23
23.937,14.6
23.953,18.64
23.968,18.83
23.984,16.89
24.000,15.89
24.015,17.38
24.031,19.97
24.046,20.68
24.062,16.27
24.078,6.24
24.093,-6.72
24.109,-19.09
24.125,-27.4
24.140,-31.14
24.156,-31.45
24.171,-30.61
24.187,-30.98
24.203,-34.2
24.218,-39.17
24.234,-42.86
24.250,-41.85
24.265,-33.33
24.281,-18.2
24.296,0.96
24.312,19.77
24.328,33.33
24.343,37.1
24.359,30.4
24.375,16.07
24.390,-0.9
24.406,-14.18
24.421,-19.5
24.437,-13.52
24.453,5.03
24.468,33.49
24.484,66.5
24.500,96.69
24.515,116.78
24.531,121.42
24.546,109.75
24.562,85.19
24.578,54.58
24.593,24.39
24.609,-5.84
24.625,-41.68
24.640,-91.13
24.656,-158.36
24.671,-240.89
24.687,-330.26
24.703,-416.17
24.718,-490.11
24.734,-532.83
24.750,-531.76
24.765,-484.97
24.781,-404.46
24.796,-308.02
24.812,-210.26
24.828,-118.83
24.843,-37.37
24.859,31.94
24.875,86.68
24.890,120.47
24.906,131.31
24.921,119.76
24.937,91.73
24.953,56.58
24.968,23.87
24.984,1.15
25.000,-8.14
25.015,-4.97
25.031,3.53
25.046,10.93
25.062,11.89
25.078,4.78
25.093,-9.04
25.109,-25.94
25.125,-40.08
25.140,-45.63
25.156,-38.68
25.171,-20.79
25.187,5.33
25.203,35.92
25.218,68.21
25.234,100.17
25.250,130.6
25.265,160.75
25.281,191.41
25.296,221.74
25.312,246.99
25.328,264.51
25.343,274.08
25.359,278.66
25.375,281.79
25.390,275.11
25.406,253.02
25.421,214.44
25.437,176.41
25.453,143.01
25.468,115.32
25.484,89.91
25.500,68.41
25.515,53.4
25.531,47.02
25.546,51.4
25.562,66.04
25.578,87.54
25.593,108.06
25.609,121.28
25.625,122.68
25.640,111.55
25.656,89.82
25.671,61.92
25.687,34.36
25.703,12.12
25.718,-3.23
25.734,-15.01
25.750,-27.09
25.765,-42.36
25.781,-61.0
25.796,-80.83
25.812,-97.46
25.828,-105.84
25.843,-103.64
25.859,-92.62
25.875,-78.39
25.890,-66.3
25.906,-59.16
25.921,-55.84
25.937,-53.16
25.953,-47.59
25.968,-37.5
25.984,-25.14
26.000,-15.68
26.015,-15.04
26.031,-26.21
26.046,-48.27
26.062,-77.4
26.078,-109.59
26.093,-139.16
26.109,-159.58
26.125,-165.78
26.140,-156.83
26.156,-135.82
26.171,-107.45
26.187,-75.56
26.203,-42.58
26.218,-11.32
26.234,15.99
26.250,37.63
26.265,52.92
26.281,62.2
26.296,66.91
26.312,69.26
26.328,71.5
26.343,74.79
26.359,77.61
26.375,76.99
26.390,70.22
26.406,55.92
26.421,34.73
26.437,8.45
26.453,-20.65
26.468,-50.4
26.484,-79.21
26.500,-108.79
26.515,-141.01
26.531,-177.19
26.546,-217.31
26.562,-259.57
26.578,-300.05
26.593,-332.87
26.609,-351.41
26.625,-335.18
26.640,-275.38
26.656,-176.53
26.671,-56.42
26.687,61.31
26.703,157.42
26.718,223.13
26.734,260.3
26.750,276.78
26.765,281.64
26.781,279.3
26.796,271.79
26.812,260.6
26.828,248.25
26.843,237.49
26.859,228.87
26.875,219.68
26.890,204.98
26.906,180.23
26.921,143.12
26.937,97.09
26.953,49.97
26.968,10.66
26.984,-14.58
27.000,-24.8
27.015,-23.45
27.031,-16.03
27.046,-7.12
27.062,-0.05
27.078,3.97
27.093,5.12
27.109,3.68
27.125,0.26
27.140,-4.44
27.156,-9.23
27.171,-13.34
27.187,-15.93
27.203,-16.59
27.218,-15.42
27.234,-12.94
27.250,-9.78
27.265,-6.21
27.281,-2.09
27.296,3.09
27.312,8.68
27.328,14.27
27.343,19.79
27.359,25.54
27.375,31.63
27.390,37.74
27.406,43.64
27.421,49.27
27.437,54.71
27.453,58.39
27.468,59.05
27.484,56.74
27.500,52.45
27.515,47.08
27.531,40.53
27.546,31.85
27.562,22.5
27.578,12.74
27.593,0.16
27.609,-17.54
27.625,-41.03
27.640,-69.48
27.656,-101.67
27.671,-136.83
27.687,-174.55
27.703,-214.89
27.718,-242.29
27.734,-247.11
27.750,-230.46
27.765,-202.64
27.781,-174.57
27.796,-151.95
27.812,-135.48
27.828,-122.73
27.843,-111.17
27.859,-98.95
27.875,-87.72
27.890,-80.0
27.906,-77.17
27.921,-78.81
27.937,-83.29
27.953,-88.81
27.968,-93.21
27.984,-95.52
28.000,-95.29
28.015,-94.29
28.031,-94.87
28.046,-98.23
28.062,-104.07
28.078,-111.73
28.093,-123.63
28.109,-137.57
28.125,-151.43
28.140,-161.84
28.156,-165.01
28.171,-156.99
28.187,-135.08
28.203,-99.53
28.218,-54.95
28.234,-9.17
28.250,30.3
28.265,58.33
28.281,74.16
28.296,80.02
28.312,79.36
28.328,75.23
28.343,69.95
28.359,64.78
28.375,60.54
28.390,58.53
28.406,59.4
28.421,63.11
28.437,68.9
28.453,76.23
28.468,81.54
28.484,84.74
28.500,87.5
28.515,91.87
28.531,98.9
28.546,108.01
28.562,117.5
28.578,125.61
28.593,131.3
28.609,134.22
28.625,135.05
28.640,134.45
28.656,133.23
28.671,132.98
28.687,136.19
28.703,145.72
28.718,163.41
28.734,188.81
28.750,218.79
28.765,249.08
28.781,275.35
28.796,294.68
28.812,306.05
28.828,309.48
28.843,304.98
28.859,292.33
28.875,271.29
28.890,242.65
28.906,209.26
28.921,175.31
28.937,145.37
28.953,123.08
28.968,109.98
28.984,105.09
29.000,105.51
29.015,107.2
29.031,106.06
29.046,98.94
29.062,84.27
29.078,61.94
29.093,33.17
29.109,-0.01
29.125,-35.69
29.140,-71.93
29.156,-107.0
29.171,-138.89
29.187,-165.36
29.203,-184.32
29.218,-194.51
29.234,-196.28
29.250,-191.28
29.265,-182.06
29.281,-171.09
29.296,-160.46
29.312,-151.47
29.328,-144.93
29.343,-141.14
29.359,-140.09
29.375,-141.77
29.390,-146.24
29.406,-154.11
29.421,-166.33
29.437,-184.16
29.453,-208.57
29.468,-240.02
29.484,-278.37
29.500,-323.06
29.515,-373.05
29.531,-425.78
29.546,-476.69
29.562,-518.61
29.578,-543.32
29.593,-544.27
29.609,-519.44
29.625,-472.74
29.640,-412.84
29.656,-350.21
29.671,-293.24
29.687,-246.2
29.703,-208.82
29.718,-177.97
29.734,-149.88
29.750,-121.8
29.765,-92.58
29.781,-61.9
29.796,-29.9
29.812,3.54
29.828,38.33
29.843,73.92
29.859,109.05
29.875,141.9
29.890,170.74
29.906,194.72
29.921,214.65
29.937,233.2
29.953,254.12
29.968,280.6
29.984,313.33
30.000,349.41
30.015,382.56
30.031,405.19
30.046,411.05
30.062,397.72
30.078,367.4
30.093,326.04
30.109,281.05
30.125,238.89
30.140,203.72
30.156,177.24
30.171,159.5
30.187,149.57
30.203,146.14
30.218,147.44
30.234,151.16
30.250,154.8
30.265,156.2
30.281,153.87
30.296,147.0
30.312,135.18
30.328,118.01
30.343,95.26
30.359,67.17
30.375,34.76
30.390,-0.03
30.406,-34.76
30.421,-66.96
30.437,-94.34
30.453,-114.93
30.468,-126.86
30.484,-128.65
30.500,-119.51
30.515,-100.27
30.531,-73.89
30.546,-45.12
30.562,-19.37
30.578,-1.15
30.593,7.16
30.609,5.81
30.625,-2.85
30.640,-15.37
30.656,-27.9
30.671,-36.72
30.687,-38.38
30.703,-30.59
30.718,-12.8
30.734,12.8
30.750,41.43
30.765,67.5
30.781,86.83
30.796,98.75
30.812,106.56
30.828,115.97
30.843,131.62
30.859,154.34
30.875,179.98
30.890,200.69
30.906,208.12
30.921,196.55
30.937,164.91
30.953,116.99
30.968,59.91
30.984,1.75
31.000,-50.26
31.015,-91.12
31.031,-118.55
31.046,-132.81
31.062,-135.98
31.078,-131.14
31.093,-121.12
31.109,-107.64
31.125,-90.91
31.140,-69.7
31.156,-41.86
31.171,-5.21
31.187,41.88
31.203,99.52
31.218,165.47
31.234,235.04
31.250,301.07
31.265,355.37
31.281,390.84
31.296,403.49
31.312,393.55
31.328,365.69
31.343,327.37
31.359,286.36
31.375,249.1
31.390,219.41
31.406,198.34
31.421,184.95
31.437,177.08
31.453,172.09
31.468,167.39
31.484,161.03
31.500,151.68
31.515,139.03
31.531,123.44
31.546,105.38
31.562,85.14
31.578,62.18
31.593,35.3
31.609,3.16
31.625,-35.05
31.640,-79.02
31.656,-127.3
31.671,-177.64
31.687,-227.64
31.703,-275.37
31.718,-320.04
31.734,-362.24
31.750,-403.84
31.765,-447.71
31.781,-496.63
31.796,-551.62
31.812,-610.64
31.828,-667.57
31.843,-713.12
31.859,-737.83
31.875,-735.39
31.890,-705.07
31.906,-652.16
31.921,-586.14
31.937,-517.28
31.953,-453.97
31.968,-401.03
31.984,-359.73
32.000,-329.03
32.015,-306.55
32.031,-289.4
32.046,-274.26
32.062,-257.73
32.078,-236.88
32.093,-210.07
32.109,-177.37
32.125,-140.58
32.140,-102.51
32.156,-66.23
32.171,-34.11
32.187,-7.45
32.203,13.98
32.218,31.86
32.234,48.75
32.250,67.57
32.265,90.58
32.281,118.64
32.296,150.83
32.312,184.19
32.328,214.44
32.343,237.08
32.359,248.6
32.375,247.46
32.390,234.42
32.406,212.36
32.421,185.33
32.437,157.92
32.453,134.04
32.468,116.39
32.484,106.14
32.500,102.62
32.515,103.9
32.531,107.23
32.546,110.32
32.562,111.92
32.578,111.93
32.593,110.62
32.609,108.22
32.625,104.44
32.640,98.89
32.656,92.12
32.671,85.96
32.687,83.27
32.703,86.27
32.718,95.27
32.734,107.73
32.750,119.19
32.765,125.21
32.781,122.93
32.796,112.77
32.812,97.47
32.828,80.93
32.843,66.15
32.859,54.41
32.875,45.36
32.890,38.01
32.906,31.79
32.921,26.63
32.937,22.81
32.953,20.09
32.968,17.41
32.984,13.34
33.000,6.88
33.015,-1.14
33.031,-8.02
33.046,-9.76
33.062,-2.59
33.078,15.26
33.093,42.55
33.109,75.48
33.125,109.45
33.140,140.82
33.156,168.54
33.171,193.89
33.187,219.65
33.203,248.19
33.218,280.38
33.234,315.09
33.250,349.85
33.265,382.32
33.281,410.32
33.296,432.48
33.312,447.33
33.328,453.24
33.343,448.75
33.359,433.23
33.375,407.64
33.390,374.47
33.406,337.7
33.421,301.28
33.437,268.37
33.453,240.51
33.468,217.6
33.484,198.54
33.500,181.87
33.515,166.62
33.531,152.27
33.546,138.82
33.562,126.43
33.578,114.68
33.593,102.99
33.609,91.05
33.625,79.03
33.640,67.26
33.656,56.1
33.671,45.99
33.687,37.06
33.703,29.26
33.718,22.19
33.734,15.56
33.750,9.45
33.765,4.42
33.781,0.79
33.796,-1.1
33.812,-0.93
33.828,1.13
33.843,4.67
33.859,7.88
33.875,9.71
33.890,10.28
33.906,11.17
33.921,14.1
33.937,20.1
33.953,30.03
33.968,43.49
33.984,59.57
34.000,73.59
34.015,81.69
34.031,82.42
34.046,76.95
34.062,67.05
34.078,53.01
34.093,35.05
34.109,11.48
34.125,-19.0
34.140,-64.1
34.156,-127.99
34.171,-208.25
34.187,-295.92
34.203,-380.24
34.218,-453.8
34.234,-510.55
34.250,-550.92
34.265,-575.85
34.281,-598.7
34.296,-629.63
34.312,-669.82
34.328,-712.3
34.343,-747.53
34.359,-771.16
34.375,-780.12
34.390,-780.54
34.406,-778.77
34.421,-794.98
34.437,-842.54
34.453,-920.78
34.468,-1017.68
34.484,-1118.03
34.500,-1212.82
34.515,-1294.35
34.531,-1367.15
34.546,-1338.73
34.562,-1160.16
34.578,-851.0
34.593,-489.18
34.609,-154.51
34.625,113.9
34.640,281.11
34.656,383.25
34.671,446.18
34.687,484.01
34.703,488.0
34.718,448.19
34.734,378.51
34.750,296.16
34.765,221.03
34.781,167.99
34.796,152.56
34.812,177.63
34.828,240.15
34.843,320.42
34.859,397.68
34.875,459.1
34.890,500.11
34.906,526.62
34.921,536.42
34.937,530.77
34.953,509.92
34.968,478.27
34.984,433.55
35.000,374.49
35.015,305.59
35.031,234.82
35.046,171.32
35.062,120.73
35.078,86.72
35.093,66.24
35.109,54.75
35.125,44.79
35.140,29.5
35.156,10.57
35.171,-7.29
35.187,-18.53
35.203,-19.55
35.218,-7.71
35.234,15.68
35.250,48.01
35.265,84.99
35.281,121.11
35.296,152.62
35.312,177.61
35.328,196.07
35.343,208.3
35.359,215.35
35.375,217.33
35.390,214.4
35.406,206.54
35.421,194.33
35.437,179.47
35.453,163.48
35.468,147.68
35.484,132.88
35.500,119.45
35.515,107.19
35.531,96.23
35.546,85.99
35.562,75.92
35.578,66.03
35.593,56.47
35.609,47.12
35.625,37.82
35.640,30.8
35.656,23.98
35.671,16.36
35.687,7.51
35.703,-2.88
35.718,-14.85
35.734,-28.09
35.750,-42.2
35.765,-56.96
35.781,-72.02
35.796,-87.58
35.812,-103.38
35.828,-118.57
35.843,-132.7
35.859,-145.61
35.875,-157.09
35.890,-167.13
35.906,-175.83
35.921,-183.34
35.937,-190.38
35.953,-197.27
35.968,-203.64
35.984,-209.25
36.000,-213.93
36.015,-217.37
36.031,-219.16
36.046,-218.83
36.062,-215.42
36.078,-207.59
36.093,-198.26
36.109,-187.89
36.125,-176.81
36.140,-165.1
36.156,-152.87
36.171,-140.1
36.187,-126.86
36.203,-113.09
36.218,-99.11
36.234,-85.35
36.250,-71.32
36.265,-57.04
36.281,-42.42
36.296,-27.64
36.312,-12.91
36.328,1.24
36.343,14.45
36.359,26.13
36.375,35.79
36.390,43.74
36.406,50.17
36.421,55.34
36.437,59.45
36.453,62.62
36.468,64.83
36.484,65.78
36.500,65.23
36.515,62.91
36.531,59.37
36.546,55.35
36.562,51.54
36.578,48.73
36.593,47.15
36.609,46.85
36.625,47.38
36.640,48.35
36.656,49.43
36.671,50.96
36.687,53.76
36.703,58.59
36.718,66.24
36.734,76.86
36.750,90.15
36.765,105.17
36.781,121.09
36.796,137.08
36.812,153.16
36.828,169.7
36.843,187.4
36.859,207.07
36.875,229.62
36.890,255.77
36.906,285.47
36.921,317.37
36.937,348.02
36.953,372.6
36.968,386.23
36.984,385.46
37.000,369.92
37.015,342.48
37.031,308.0
37.046,271.74
37.062,237.57
37.078,207.12
37.093,180.4
37.109,156.82
37.125,135.65
37.140,116.82
37.156,100.29
37.171,85.45
37.187,71.3
37.203,56.84
37.218,41.47
37.234,25.71
37.250,11.1
37.265,-0.57
37.281,-7.86
37.296,-10.39
37.312,-9.03
37.328,-5.6
37.343,-1.86
37.359,0.62
37.375,1.09
37.390,-0.31
37.406,-3.12
37.421,-6.6
37.437,-10.19
37.453,-13.63
37.468,-16.95
37.484,-20.21
37.500,-23.81
37.515,-27.78
37.531,-31.93
37.546,-35.97
37.562,-39.39
37.578,-41.77
37.593,-43.16
37.609,-43.58
37.625,-43.46
37.640,-43.48
37.656,-43.88
37.671,-44.7
37.687,-45.76
37.703,-46.62
37.718,-46.82
37.734,-46.15
37.750,-44.53
37.765,-42.23
37.781,-39.84
37.796,-38.03
37.812,-37.12
37.828,-37.3
37.843,-38.07
37.859,-38.53
37.875,-37.63
37.890,-34.44
37.906,-28.49
37.921,-20.31
37.937,-11.17
37.953,-2.55
37.968,3.94
37.984,7.69
38.000,8.93
38.015,8.61
38.031,7.6
38.046,6.39
38.062,4.34
38.078,0.24
38.093,-7.42
38.109,-19.36
38.125,-34.79
38.140,-51.63
38.156,-66.58
38.171,-76.7
38.187,-79.89
38.203,-76.08
38.218,-66.95
38.234,-55.76
38.250,-45.9
38.265,-40.23
38.281,-39.85
38.296,-43.88
38.312,-49.62
38.328,-53.37
38.343,-51.98
38.359,-43.87
38.375,-29.85
38.390,-12.68
38.406,3.87
38.421,16.72
38.437,23.62
38.453,23.97
38.468,18.51
38.484,8.44
38.500,-4.56
38.515,-18.54
38.531,-31.63
38.546,-42.44
38.562,-49.88
38.578,-53.39
38.593,-52.95
38.609,-48.9
38.625,-42.23
38.640,-34.54
38.656,-27.77
38.671,-23.97
38.687,-24.51
38.703,-29.39
38.718,-37.05
38.734,-45.12
38.750,-51.03
38.765,-53.37
38.781,-52.2
38.796,-48.8
38.812,-45.11
38.828,-42.57
38.843,-41.42
38.859,-40.74
38.875,-38.98
38.890,-34.93
38.906,-28.51
38.921,-20.78
38.937,-13.42
38.953,-8.07
38.968,-5.55
38.984,-5.51
39.000,-6.72
39.015,-7.94
39.031,-8.26
39.046,-7.58
39.062,-6.42
39.078,-5.4
39.093,-4.66
39.109,-3.55
39.125,-1.06
39.140,3.85
39.156,11.44
39.171,20.97
39.187,31.08
39.203,40.32
39.218,47.71
39.234,52.96
39.250,56.49
39.265,59.08
39.281,61.34
39.296,63.61
39.312,65.87
39.328,67.72
39.343,68.89
39.359,69.15
39.375,68.63
39.390,67.42
39.406,65.64
39.421,63.11
39.437,59.63
39.453,55.05
39.468,49.55
39.484,43.47
39.500,37.39
39.515,31.98
39.531,27.41
39.546,23.5
39.562,19.68
39.578,15.64
39.593,10.89
39.609,5.59
39.625,0.04
39.640,-5.3
39.656,-9.96
39.671,-13.79
39.687,-16.97
39.703,-19.77
39.718,-21.93
39.734,-23.17
39.750,-22.97
39.765,-21.05
39.781,-17.29
39.796,-12.1
39.812,-6.0
39.828,0.31
39.843,6.07
39.859,11.04
39.875,14.9
39.890,17.53
39.906,18.78
39.921,18.56
39.937,16.94
39.953,14.28
39.968,11.04
39.984,7.8
40.000,4.99
40.015,2.76
40.031,1.29
40.046,0.67
40.062,0.61
40.078,0.95
40.093,1.53
40.109,2.0
40.125,2.17
40.140,1.93
40.156,1.24
40.171,0.37
40.187,-0.2
40.203,-0.57
40.218,-0.67
40.234,-0.76
40.250,-1.13
40.265,-2.19
40.281,-4.01
40.296,-6.52
40.312,-9.32
40.328,-11.51
40.343,-12.49
40.359,-11.43
40.375,-8.09
40.390,-2.56
40.406,4.27
40.421,11.34
40.437,17.27
40.453,21.17
40.468,22.68
40.484,21.77
40.500,19.02
40.515,14.8
40.531,9.44
40.546,3.29
40.562,-3.14
40.578,-9.37
40.593,-14.54
40.609,-17.99
40.625,-19.44
40.640,-18.96
40.656,-17.27
40.671,-15.34
40.687,-13.9
40.703,-13.52
40.718,-14.61
40.734,-17.13
40.750,-20.77
40.765,-25.24
40.781,-29.85
40.796,-34.03
40.812,-37.36
40.828,-39.28
40.843,-39.72
40.859,-38.65
40.875,-36.57
40.890,-33.98
40.906,-31.63
40.921,-29.97
40.937,-29.04
40.953,-28.6
40.968,-27.48
40.984,-24.87
41.000,-19.86
41.015,-12.43
41.031,-3.3
41.046,6.23
41.062,14.68
41.078,21.16
41.093,24.88
41.109,25.96
41.125,24.67
41.140,21.76
41.156,17.86
41.171,13.44
41.187,8.86
41.203,4.26
41.218,-0.11
41.234,-4.06
41.250,-7.24
41.265,-9.55
41.281,-10.66
41.296,-10.33
41.312,-8.83
41.328,-6.49
41.343,-4.03
41.359,-2.09
41.375,-1.39
41.390,-2.3
41.406,-5.21
41.421,-10.18
41.437,-16.69
41.453,-24.15
41.468,-31.66
41.484,-38.56
41.500,-44.17
41.515,-48.28
41.531,-50.6
41.546,-50.98
41.562,-49.62
41.578,-46.42
41.593,-41.48
41.609,-35.15
41.625,-28.07
41.640,-20.75
41.656,-13.74
41.671,-7.27
41.687,-1.2
41.703,4.37
41.718,9.4
41.734,13.6
41.750,16.83
41.765,18.86
41.781,19.87
41.796,20.1
41.812,20.08
41.828,20.21
41.843,20.55
41.859,21.18
41.875,21.75
41.890,21.98
41.906,21.6
41.921,20.72
41.937,19.46
41.953,18.23
41.968,17.38
41.984,16.95
42.000,17.05
42.015,17.52
42.031,18.17
42.046,18.94
42.062,19.8
42.078,20.46
42.093,20.84
42.109,20.83
42.125,20.01
42.140,18.38
42.156,15.91
42.171,12.76
42.187,9.37
42.203,6.47
42.218,4.91
42.234,5.41
42.250,8.33
42.265,13.24
42.281,19.39
42.296,25.62
42.312,30.86
42.328,34.38
42.343,35.69
42.359,34.94
42.375,32.61
42.390,29.42
42.406,25.91
42.421,22.76
42.437,20.58
42.453,19.75
42.468,20.38
42.484,22.08
42.500,24.28
42.515,26.32
42.531,27.77
42.546,28.22
42.562,27.24
42.578,24.49
42.593,19.51
42.609,12.38
42.625,3.4
42.640,-6.42
42.656,-15.77
42.671,-23.26
42.687,-28.03
42.703,-29.93
42.718,-29.46
42.734,-27.77
42.750,-25.88
42.765,-24.48
42.781,-23.58
42.796,-22.93
42.812,-21.69
42.828,-19.18
42.843,-15.26
42.859,-10.11
42.875,-4.35
42.890,1.35
42.906,6.24
42.921,10.01
42.937,12.2
42.953,12.68
42.968,11.43
42.984,8.47
43.000,4.2
43.015,-0.99
43.031,-6.42
43.046,-11.36
43.062,-15.19
43.078,-17.65
43.093,-18.77
43.109,-18.7
43.125,-17.85
43.140,-16.65
43.156,-15.26
43.171,-13.98
43.187,-13.05
43.203,-12.51
43.218,-12.2
43.234,-12.04
43.250,-11.98
43.265,-12.01
43.281,-12.2
43.296,-12.5
43.312,-13.02
43.328,-13.87
43.343,-15.1
43.359,-16.65
43.375,-18.33
43.390,-19.62
43.406,-20.1
43.421,-19.25
43.437,-16.74
43.453,-12.43
43.468,-6.69
43.484,-0.15
43.500,6.43
43.515,12.13
43.531,16.3
43.546,18.61
43.562,19.05
43.578,17.88
43.593,15.55
43.609,12.55
43.625,9.32
43.640,6.05
43.656,2.95
43.671,0.16
43.687,-2.08
43.703,-3.71
43.718,-4.66
43.734,-5.13
43.750,-5.6
43.765,-6.29
43.781,-7.71
43.796,-9.69
43.812,-11.96
43.828,-14.14
43.843,-15.92
43.859,-17.2
43.875,-18.16
43.890,-19.25
43.906,-20.44
43.921,-21.92
43.937,-23.65
43.953,-25.48
43.968,-27.33
43.984,-28.91
44.000,-29.63
44.015,-28.87
44.031,-26.41
44.046,-21.97
44.062,-15.93
44.078,-9.09
44.093,-2.47
44.109,2.93
44.125,6.5
44.140,8.22
44.156,8.43
44.171,7.54
44.187,5.86
44.203,3.56
44.218,0.76
44.234,-2.18
44.250,-4.96
44.265,-7.09
44.281,-8.26
44.296,-8.4
44.312,-7.65
44.328,-6.46
44.343,-5.37
44.359,-4.84
44.375,-4.82
44.390,-5.33
44.406,-5.99
44.421,-6.58
44.437,-6.88
44.453,-6.79
44.468,-6.35
44.484,-5.79
44.500,-5.4
44.515,-5.41
44.531,-6.1
44.546,-7.34
44.562,-9.03
44.578,-10.81
44.593,-12.13
44.609,-12.41
44.625,-11.19
44.640,-8.22
44.656,-3.77
44.671,1.61
44.687,7.19
44.703,12.16
44.718,15.95
44.734,18.31
44.750,19.22
44.765,18.88
44.781,17.7
44.796,15.83
44.812,13.32
44.828,10.51
44.843,7.58
44.859,4.96
44.875,3.16
44.890,2.44
44.906,2.82
44.921,3.96
44.937,5.29
44.953,6.02
44.968,5.84
44.984,4.5
45.000,2.39
45.015,-0.05
45.031,-2.44
45.046,-4.34
45.062,-5.64
45.078,-6.41
45.093,-7.29
45.109,-8.68
45.125,-11.28
45.140,-15.21
45.156,-20.3
45.171,-25.84
45.187,-30.92
45.203,-34.58
45.218,-35.84
45.234,-34.43
45.250,-30.24
45.265,-23.96
45.281,-16.54
45.296,-9.25
45.312,-3.05
45.328,1.48
45.343,4.14
45.359,5.25
45.375,5.04
45.390,4.04
45.406,2.56
45.421,1.04
45.437,-0.15
45.453,-0.7
45.468,-0.38
45.484,0.66
45.500,2.27
45.515,3.71
45.531,4.58
45.546,4.43
45.562,3.19
45.578,1.18
45.593,-1.15
45.609,-3.24
45.625,-4.92
45.640,-6.07
45.656,-7.0
45.671,-7.94
45.687,-9.33
45.703,-11.57
45.718,-14.91
45.734,-19.3
45.750,-24.32
45.765,-29.11
45.781,-32.57
45.796,-33.93
45.812,-32.68
45.828,-28.95
45.843,-23.42
45.859,-16.99
45.875,-10.52
45.890,-4.73
45.906,-0.02
45.921,3.46
45.937,5.61
45.953,6.43
45.968,6.12
45.984,4.97
46.000,3.75
46.015,3.06
46.031,3.41
46.046,4.87
46.062,7.15
46.078,9.52
46.093,11.47
46.109,12.7
46.125,13.09
46.140,12.75
46.156,11.83
46.171,10.36
46.187,8.45
46.203,6.62
46.218,5.27
46.234,4.9
46.250,5.56
46.265,6.88
46.281,7.96
46.296,7.88
46.312,6.03
46.328,2.37
46.343,-2.18
46.359,-6.5
46.375,-9.14
46.390,-9.26
46.406,-6.86
46.421,-2.63
46.437,2.41
46.453,7.18
46.468,11.03
46.484,13.85
46.500,15.58
46.515,16.6
46.531,17.22
46.546,17.61
46.562,17.8
46.578,17.82
46.593,17.71
46.609,17.73
46.625,18.1
46.640,18.76
46.656,19.72
46.671,20.59
46.687,21.03
46.703,20.76
46.718,19.63
46.734,17.69
46.750,15.17
46.765,12.3
46.781,9.26
46.796,6.45
46.812,4.18
46.828,2.5
46.843,1.49
46.859,0.9
46.875,0.42
46.890,0.02
46.906,-0.42
46.921,-0.77
46.937,-0.89
46.953,-0.57
46.968,-0.08
46.984,0.9
47.000,2.55
47.015,4.94
47.031,8.44
47.046,13.11
47.062,18.69
47.078,24.8
47.093,31.12
47.109,37.05
47.125,42.12
47.140,45.76
47.156,47.19
47.171,45.9
47.187,41.75
47.203,34.89
47.218,26.19
47.234,16.89
47.250,8.13
47.265,0.84
47.281,-4.54
47.296,-8.07
47.312,-9.92
47.328,-10.41
47.343,-10.09
47.359,-9.6
47.375,-9.51
47.390,-10.26
47.406,-12.03
47.421,-14.58
47.437,-17.54
47.453,-19.87
47.468,-21.17
47.484,-21.21
47.500,-20.23
47.515,-18.74
47.531,-17.4
47.546,-16.58
47.562,-16.31
47.578,-16.53
47.593,-16.58
47.609,-15.69
47.625,-13.33
47.640,-9.12
47.656,-3.18
47.671,3.68
47.687,10.61
47.703,16.45
47.718,20.45
47.734,22.33
47.750,22.21
47.765,20.55
47.781,17.92
47.796,14.93
47.812,11.81
47.828,8.88
47.843,5.97
47.859,2.61
47.875,-1.55
47.890,-6.72
47.906,-12.49
47.921,-18.15
47.937,-22.67
47.953,-25.36
47.968,-25.99
47.984,-24.91
48.000,-23.11
48.015,-21.56
48.031,-21.05
48.046,-21.99
48.062,-24.43
48.078,-27.8
48.093,-31.87
48.109,-36.32
48.125,-40.96
48.140,-45.69
48.156,-50.27
48.171,-54.3
48.187,-57.41
48.203,-59.59
48.218,-60.69
48.234,-60.84
48.250,-60.34
48.265,-59.43
48.281,-58.4
48.296,-57.12
48.312,-55.3
48.328,-52.56
48.343,-48.57
48.359,-43.08
48.375,-36.06
48.390,-27.73
48.406,-18.05
48.421,-7.3
48.437,4.43
48.453,16.91
48.468,29.78
48.484,42.26
48.500,53.63
48.515,63.09
48.531,70.03
48.546,74.23
48.562,75.56
48.578,74.3
48.593,71.13
48.609,66.86
48.625,62.05
48.640,57.19
48.656,52.29
48.671,47.44
48.687,42.79
48.703,38.35
48.718,34.11
48.734,29.94
48.750,25.6
48.765,20.77
48.781,15.42
48.796,9.66
48.812,4.11
48.828,-0.28
48.843,-2.76
48.859,-2.81
48.875,-0.29
48.890,4.03
48.906,9.05
48.921,13.63
48.937,16.81
48.953,17.98
48.968,17.39
48.984,15.42
49.000,12.58
49.015,9.38
49.031,6.02
49.046,2.46
49.062,-1.22
49.078,-4.9
49.093,-8.42
49.109,-11.39
49.125,-13.5
49.140,-14.59
49.156,-14.85
49.171,-14.68
49.187,-14.73
49.203,-15.39
49.218,-16.79
49.234,-18.72
49.250,-20.7
49.265,-22.35
49.281,-23.48
49.296,-24.16
49.312,-24.61
49.328,-25.01
49.343,-25.54
49.359,-26.22
49.375,-27.02
49.390,-27.74
49.406,-28.29
49.421,-28.49
49.437,-27.84
49.453,-26.07
49.468,-22.87
49.484,-18.11
49.500,-12.06
49.515,-5.28
49.531,1.66
49.546,8.03
49.562,13.33
49.578,17.43
49.593,20.34
49.609,22.32
49.625,23.58
49.640,24.52
49.656,25.29
49.671,26.15
49.687,27.15
49.703,28.24
49.718,29.48
49.734,30.8
49.750,31.9
49.765,32.22
49.781,30.99
49.796,27.52
49.812,21.7
49.828,14.22
49.843,6.23
49.859,-0.76
49.875,-5.76
49.890,-8.65
49.906,-9.86
49.921,-10.44
49.937,-11.08
49.953,-12.07
49.968,-13.27
49.984,-14.64
50.000,-16.16
50.015,-18.12
50.031,-20.51
50.046,-22.9
50.062,-24.67
50.078,-25.12
50.093,-24.24
50.109,-22.82
50.125,-22.1
50.140,-22.9
50.156,-25.46
50.171,-28.9
50.187,-32.01
50.203,-33.89
50.218,-34.41
50.234,-34.04
50.250,-33.68
50.265,-33.76
50.281,-34.12
50.296,-34.36
50.312,-34.0
50.328,-32.86
50.343,-31.25
50.359,-29.64
50.375,-28.36
50.390,-27.78
50.406,-27.79
50.421,-27.98
50.437,-27.77
50.453,-26.75
50.468,-24.84
50.484,-22.62
50.500,-20.67
50.515,-19.65
50.531,-19.62
50.546,-20.16
50.562,-20.71
50.578,-20.7
50.593,-19.87
50.609,-18.4
50.625,-16.71
50.640,-14.72
50.656,-12.42
50.671,-9.55
50.687,-5.89
50.703,-1.65
50.718,2.8
50.734,6.99
50.750,10.35
50.765,12.38
50.781,12.99
50.796,12.22
50.812,10.58
50.828,8.71
50.843,7.25
50.859,6.65
50.875,7.28
50.890,9.0
50.906,11.47
50.921,14.2
50.937,16.63
50.953,18.43
50.968,19.58
50.984,20.15
51.000,20.3
51.015,20.2
51.031,20.0
51.046,19.88
51.062,19.89
51.078,19.93
51.093,19.82
51.109,19.21
51.125,17.58
51.140,14.76
51.156,10.81
51.171,6.01
51.187,1.05
51.203,-3.34
51.218,-6.53
51.234,-7.92
51.250,-7.32
51.265,-4.93
51.281,-1.24
51.296,3.24
51.312,7.82
51.328,12.0
51.343,15.62
51.359,18.44
51.375,20.61
51.390,22.17
51.406,23.22
51.421,23.87
51.437,24.19
51.453,24.26
51.468,23.98
51.484,23.62
51.500,23.18
51.515,22.99
51.531,23.25
51.546,23.99
51.562,25.16
51.578,26.44
51.593,27.5
51.609,27.99
51.625,27.79
51.640,26.81
51.656,25.35
51.671,23.69
51.687,21.91
51.703,20.24
51.718,18.57
51.734,16.95
51.750,15.23
51.765,13.53
51.781,11.68
51.796,9.87
51.812,8.21
51.828,6.86
51.843,6.33
51.859,6.95
51.875,9.09
51.890,12.69
51.906,17.54
51.921,22.92
51.937,28.23
51.953,32.88
51.968,36.1
51.984,37.66
52.000,37.18
52.015,34.73
52.031,30.41
52.046,24.71
52.062,18.31
52.078,12.34
52.093,8.08
52.109,6.5
52.125,8.29
52.140,12.98
52.156,19.45
52.171,25.87
52.187,30.29
52.203,31.48
52.218,29.18
52.234,24.17
52.250,17.8
52.265,11.57
52.281,6.28
52.296,2.36
52.312,-0.42
52.328,-2.54
52.343,-4.42
52.359,-6.35
52.375,-8.38
52.390,-10.6
52.406,-12.9
52.421,-15.23
52.437,-17.16
52.453,-18.03
52.468,-17.23
52.484,-14.33
52.500,-9.55
52.515,-3.51
52.531,2.6
52.546,7.55
52.562,10.38
52.578,10.71
52.593,8.96
52.609,5.72
52.625,1.82
52.640,-2.26
52.656,-6.2
52.671,-9.8
52.687,-12.96
52.703,-15.37
52.718,-16.64
52.734,-16.56
52.750,-15.17
52.765,-12.82
52.781,-10.29
52.796,-8.36
52.812,-7.49
52.828,-7.86
52.843,-9.16
52.859,-10.84
52.875,-12.4
52.890,-13.54
52.906,-14.15
52.921,-14.35
52.937,-14.35
52.953,-14.3
52.968,-14.46
52.984,-14.75
53.000,-15.06
53.015,-15.1
53.031,-14.37
53.046,-12.41
53.062,-8.86
53.078,-3.74
53.093,2.71
53.109,9.74
53.125,16.36
53.140,21.6
53.156,24.61
53.171,24.99
53.187,22.85
53.203,18.77
53.218,13.63
53.234,8.33
53.250,3.49
53.265,-0.53
53.281,-3.57
53.296,-5.53
53.312,-6.44
53.328,-6.36
53.343,-5.51
53.359,-4.42
53.375,-3.42
53.390,-2.9
53.406,-3.15
53.421,-4.24
53.437,-5.93
53.453,-7.96
53.468,-10.18
53.484,-12.35
53.500,-14.64
53.515,-17.09
53.531,-19.79
53.546,-22.73
53.562,-25.88
53.578,-29.09
53.593,-32.12
53.609,-34.53
53.625,-35.84
53.640,-35.72
53.656,-33.65
53.671,-29.6
53.687,-23.76
53.703,-16.66
53.718,-9.02
53.734,-1.67
53.750,4.69
53.765,9.54
53.781,12.45
53.796,13.53
53.812,13.03
53.828,11.41
53.843,9.29
53.859,7.23
53.875,5.57
53.890,4.72
53.906,4.8
53.921,5.6
53.937,6.92
53.953,8.53
53.968,9.97
53.984,11.11
54.000,11.84
54.015,12.13
54.031,12.12
54.046,11.99
54.062,11.72
54.078,11.32
54.093,10.67
54.109,9.63
54.125,8.31
54.140,6.71
54.156,5.03
54.171,3.38
54.187,1.8
54.203,0.11
54.218,-1.66
54.234,-3.29
54.250,-4.19
54.265,-3.63
54.281,-1.09
54.296,3.43
54.312,9.34
54.328,15.74
54.343,21.39
54.359,25.37
54.375,27.21
54.390,26.85
54.406,24.59
54.421,20.91
54.437,16.22
54.453,10.9
54.468,5.31
54.484,-0.15
54.500,-5.03
54.515,-8.81
54.531,-11.35
54.546,-12.46
54.562,-12.41
54.578,-11.51
54.593,-10.21
54.609,-8.93
54.625,-7.89
54.640,-7.33
54.656,-7.22
54.671,-7.71
54.687,-8.67
54.703,-9.98
54.718,-11.3
54.734,-12.46
54.750,-13.35
54.765,-14.12
54.781,-15.1
54.796,-16.65
54.812,-19.06
54.828,-22.31
54.843,-25.94
54.859,-29.13
54.875,-30.98
54.890,-30.67
54.906,-27.92
54.921,-22.9
54.937,-16.32
54.953,-9.09
54.968,-2.16
54.984,3.74
55.000,8.09
55.015,10.91
55.031,12.21
55.046,12.25
55.062,11.15
55.078,9.23
55.093,6.73
55.109,4.06
55.125,1.65
55.140,-0.26
55.156,-1.49
55.171,-2.1
55.187,-2.16
55.203,-2.01
55.218,-1.72
55.234,-1.41
55.250,-1.21
55.265,-1.09
55.281,-0.89
55.296,-0.66
55.312,-0.3
55.328,0.2
55.343,0.57
55.359,0.58
55.375,-0.07
55.390,-1.66
55.406,-4.26
55.421,-7.69
55.437,-11.63
55.453,-15.71
55.468,-19.46
55.484,-22.37
55.500,-23.98
55.515,-23.91
55.531,-22.03
55.546,-18.29
55.562,-13.22
55.578,-7.46
55.593,-1.88
55.609,2.82
55.625,6.24
55.640,8.52
55.656,9.96
55.671,10.81
55.687,11.42
55.703,11.73
55.718,11.83
55.734,11.9
55.750,12.19
55.765,12.85
55.781,13.98
55.796,15.35
55.812,16.59
55.828,17.54
55.843,18.08
55.859,18.11
55.875,17.77
55.890,17.06
55.906,16.0
55.921,14.52
55.937,12.75
55.953,10.82
55.968,8.93
55.984,7.25
56.000,5.76
56.015,4.35
56.031,2.7
56.046,0.75
56.062,-1.65
56.078,-4.34
56.093,-7.01
56.109,-9.27
56.125,-10.63
56.140,-10.52
56.156,-8.42
56.171,-4.24
56.187,1.87
56.203,9.16
56.218,16.7
56.234,23.51
56.250,28.61
56.265,31.6
56.281,32.39
56.296,31.34
56.312,28.86
56.328,25.51
56.343,21.87
56.359,18.28
56.375,15.13
56.390,12.3
56.406,9.75
56.421,7.37
56.437,5.17
56.453,3.22
56.468,1.49
56.484,-0.03
56.500,-1.59
56.515,-3.1
56.531,-4.72
56.546,-6.37
56.562,-8.04
56.578,-9.79
56.593,-11.69
56.609,-13.82
56.625,-16.19
56.640,-18.81
56.656,-21.36
56.671,-23.65
56.687,-25.42
56.703,-26.53
56.718,-26.97
56.734,-26.59
56.750,-25.36
56.765,-23.12
56.781,-19.87
56.796,-15.56
56.812,-10.35
56.828,-4.54
56.843,1.44
56.859,6.91
56.875,11.47
56.890,14.77
56.906,16.74
56.921,17.5
56.937,17.23
56.953,16.03
56.968,14.27
56.984,12.34
57.000,10.46
57.015,8.82
57.031,7.41
57.046,5.95
57.062,4.19
57.078,2.02
57.093,-0.52
57.109,-2.95
57.125,-4.58
57.140,-4.85
57.156,-3.59
57.171,-1.12
57.187,1.82
57.203,4.26
57.218,5.34
57.234,4.47
57.250,1.48
57.265,-3.34
57.281,-9.13
57.296,-15.04
57.312,-20.37
57.328,-24.58
57.343,-27.71
57.359,-29.92
57.375,-31.45
57.390,-32.35
57.406,-32.4
57.421,-31.07
57.437,-27.83
57.453,-22.7
57.468,-16.05
57.484,-8.76
57.500,-1.81
57.515,3.8
57.531,7.31
57.546,8.4
57.562,7.06
57.578,3.63
57.593,-1.41
57.609,-7.39
57.625,-13.64
57.640,-19.42
57.656,-24.01
57.671,-26.89
57.687,-27.82
57.703,-26.85
57.718,-24.44
57.734,-21.35
57.750,-18.34
57.765,-16.22
57.781,-15.39
57.796,-15.72
57.812,-17.04
57.828,-18.67
57.843,-20.19
57.859,-21.16
57.875,-21.49
57.890,-21.45
57.906,-21.52
57.921,-22.35
57.937,-24.4
57.953,-27.91
57.968,-32.4
57.984,-37.13
58.000,-40.79
58.015,-41.96
58.031,-39.97
58.046,-34.85
58.062,-27.5
58.078,-19.44
58.093,-12.24
58.109,-6.86
58.125,-3.44
58.140,-1.5
58.156,-0.04
58.171,1.73
58.187,4.22
58.203,7.41
58.218,10.92
58.234,13.94
58.250,15.61
58.265,15.34
58.281,12.83
58.296,8.76
58.312,4.16
58.328,0.54
58.343,-0.95
58.359,0.18
58.375,3.47
58.390,7.83
58.406,11.99
58.421,14.94
58.437,16.53
58.453,16.97
58.468,16.93
58.484,16.87
58.500,16.76
58.515,16.11
58.531,14.22
58.546,10.54
58.562,5.24
58.578,-0.47
58.593,-5.0
58.609,-6.73
58.625,-4.55
58.640,1.26
58.656,9.48
58.671,18.35
58.687,26.18
58.703,31.83
58.718,35.24
58.734,36.64
58.750,36.49
58.765,34.99
58.781,32.03
58.796,27.57
58.812,21.81
58.828,15.44
58.843,9.3
58.859,4.44
58.875,1.35
58.890,0.28
58.906,0.92
58.921,2.45
58.937,4.21
58.953,5.53
58.968,6.13
58.984,6.13
59.000,5.99
59.015,6.2
59.031,7.22
59.046,9.19
59.062,11.78
59.078,14.75
59.093,17.74
59.109,20.34
59.125,22.35
59.140,23.5
59.156,23.13
59.171,20.65
59.187,15.75
59.203,8.75
59.218,1.17
59.234,-4.75
59.250,-6.79
59.265,-3.66
59.281,4.39
59.296,15.65
59.312,27.54
59.328,37.77
59.343,44.7
59.359,47.9
59.375,47.42
59.390,43.81
59.406,37.8
59.421,30.2
59.437,22.13
59.453,14.83
59.468,9.63
59.484,7.35
59.500,8.21
59.515,11.4
59.531,15.54
59.546,19.11
59.562,20.71
59.578,19.73
59.593,16.19
59.609,10.71
59.625,4.17
59.640,-2.43
59.656,-8.45
59.671,-13.55
59.687,-17.52
59.703,-20.6
59.718,-22.99
59.734,-25.04
59.750,-26.98
59.765,-29.06
59.781,-31.21
59.796,-33.4
59.812,-35.21
59.828,-35.91
59.843,-34.8
59.859,-31.13
59.875,-24.8
59.890,-16.23
59.906,-6.51
59.921,3.14
59.937,11.63
59.953,18.27
59.968,22.92
59.984,25.59
