timestamp,value
00.000,34.39
00.015,21.56
00.031,9.29
00.046,-1.84
00.062,-11.55
00.078,-19.68
00.093,-27.08
00.109,-34.42
00.125,-42.33
00.140,-50.39
00.156,-57.1
00.171,-60.14
00.187,-57.37
00.203,-47.69
00.218,-30.83
00.234,-8.07
00.250,17.66
00.265,41.1
00.281,55.98
00.296,57.21
00.312,43.79
00.328,20.48
00.343,-3.34
00.359,-17.77
00.375,-16.99
00.390,-2.16
00.406,19.37
00.421,38.07
00.437,46.99
00.453,44.86
00.468,35.55
00.484,24.97
00.500,17.7
00.515,14.78
00.531,14.83
00.546,16.26
00.562,18.85
00.578,24.13
00.593,33.77
00.609,48.72
00.625,67.87
00.640,88.96
00.656,108.37
00.671,123.29
00.687,132.5
00.703,136.5
00.718,136.85
00.734,134.95
00.750,131.63
00.765,124.7
00.781,114.16
00.796,99.52
00.812,80.72
00.828,58.31
00.843,33.84
00.859,9.07
00.875,-14.53
00.890,-36.24
00.906,-56.0
00.921,-74.1
00.937,-91.43
00.953,-108.46
00.968,-125.09
00.984,-140.38
01.000,-153.01
01.015,-161.62
01.031,-165.75
01.046,-164.35
01.062,-156.7
01.078,-143.04
01.093,-124.28
01.109,-101.87
01.125,-77.53
01.140,-53.11
01.156,-30.33
01.171,-10.38
01.187,6.23
01.203,19.59
01.218,29.86
01.234,37.31
01.250,41.84
01.265,43.5
01.281,42.43
01.296,39.05
01.312,34.33
01.328,29.82
01.343,27.01
01.359,26.96
01.375,29.99
01.390,35.46
01.406,42.32
01.421,49.3
01.437,55.51
01.453,60.97
01.468,66.45
01.484,73.03
01.500,81.81
01.515,93.46
01.531,107.96
01.546,124.44
01.562,140.43
01.578,151.91
01.593,154.54
01.609,144.95
01.625,122.27
01.640,89.09
01.656,50.71
01.671,11.98
01.687,-21.74
01.703,-47.45
01.718,-65.37
01.734,-77.89
01.750,-87.89
01.765,-97.06
01.781,-105.17
01.796,-110.65
01.812,-112.11
01.828,-109.02
01.843,-102.54
01.859,-94.67
01.875,-86.97
01.890,-79.85
01.906,-72.61
01.921,-64.27
01.937,-54.37
01.953,-43.48
01.968,-32.42
01.984,-22.31
02.000,-13.61
02.015,-6.19
02.031,0.22
02.046,5.67
02.062,10.02
02.078,13.27
02.093,15.9
02.109,19.1
02.125,23.47
02.140,28.6
02.156,32.86
02.171,34.08
02.187,30.71
02.203,22.88
02.218,12.34
02.234,1.59
02.250,-7.28
02.265,-13.57
02.281,-17.8
02.296,-20.94
02.312,-23.49
02.328,-25.12
02.343,-24.95
02.359,-22.42
02.375,-17.85
02.390,-12.36
02.406,-7.66
02.421,-5.11
02.437,-5.18
02.453,-7.16
02.468,-9.56
02.484,-10.54
02.500,-8.87
02.515,-4.63
02.531,1.06
02.546,6.46
02.562,10.24
02.578,11.94
02.593,12.14
02.609,11.81
02.625,11.67
02.640,11.87
02.656,11.98
02.671,11.62
02.687,10.63
02.703,9.36
02.718,8.29
02.734,7.78
02.750,7.69
02.765,7.39
02.781,6.02
02.796,2.88
02.812,-2.28
02.828,-9.11
02.843,-16.58
02.859,-23.3
02.875,-27.79
02.890,-29.0
02.906,-27.02
02.921,-23.04
02.937,-18.92
02.953,-16.33
02.968,-16.05
02.984,-17.56
03.000,-19.4
03.015,-19.93
03.031,-18.18
03.046,-14.55
03.062,-10.22
03.078,-6.62
03.093,-4.29
03.109,-2.62
03.125,-0.14
03.140,4.55
03.156,12.06
03.171,21.62
03.187,31.27
03.203,39.07
03.218,43.99
03.234,46.64
03.250,48.89
03.265,52.89
03.281,59.82
03.296,70.09
03.312,82.99
03.328,97.33
03.343,112.24
03.359,127.15
03.375,141.68
03.390,155.33
03.406,167.08
03.421,174.92
03.437,177.46
03.453,173.27
03.468,160.51
03.484,137.53
03.500,102.91
03.515,56.47
03.531,0.46
03.546,-60.34
03.562,-120.8
03.578,-171.49
03.593,-202.21
03.609,-205.99
03.625,-181.8
03.640,-135.28
03.656,-77.77
03.671,-17.38
03.687,41.63
03.703,96.53
03.718,148.11
03.734,198.46
03.750,247.21
03.765,292.54
03.781,330.36
03.796,354.83
03.812,356.32
03.828,336.61
03.843,294.68
03.859,234.92
03.875,164.35
03.890,90.47
03.906,19.34
03.921,-44.99
03.937,-100.01
03.953,-143.38
03.968,-172.91
03.984,-189.28
04.000,-194.17
04.015,-191.74
04.031,-187.5
04.046,-186.39
04.062,-190.55
04.078,-198.35
04.093,-204.66
04.109,-203.28
04.125,-192.14
04.140,-172.4
04.156,-148.64
04.171,-126.56
04.187,-110.21
04.203,-100.42
04.218,-95.0
04.234,-90.26
04.250,-82.49
04.265,-71.94
04.281,-60.15
04.296,-49.32
04.312,-41.01
04.328,-35.92
04.343,-34.31
04.359,-36.51
04.375,-43.36
04.390,-54.96
04.406,-73.38
04.421,-100.01
04.437,-135.08
04.453,-177.47
04.468,-225.38
04.484,-276.84
04.500,-329.72
04.515,-381.76
04.531,-420.73
04.546,-435.77
04.562,-418.7
04.578,-367.35
04.593,-286.61
04.609,-186.69
04.625,-79.74
04.640,23.35
04.656,111.43
04.671,183.51
04.687,239.52
04.703,280.27
04.718,308.01
04.734,327.1
04.750,343.57
04.765,363.02
04.781,387.14
04.796,414.32
04.812,436.95
04.828,443.04
04.843,422.33
04.859,372.09
04.875,299.14
04.890,217.04
04.906,139.78
04.921,75.89
04.937,24.97
04.953,-16.4
04.968,-52.59
04.984,-85.83
05.000,-115.7
05.015,-140.84
05.031,-158.38
05.046,-168.35
05.062,-173.03
05.078,-175.6
05.093,-177.9
05.109,-180.38
05.125,-181.62
05.140,-179.38
05.156,-172.02
05.171,-159.98
05.187,-146.45
05.203,-135.69
05.218,-130.92
05.234,-132.6
05.250,-138.43
05.265,-144.31
05.281,-145.91
05.296,-140.21
05.312,-126.39
05.328,-105.93
05.343,-80.99
05.359,-53.52
05.375,-24.8
05.390,3.88
05.406,30.4
05.421,52.14
05.437,66.86
05.453,73.73
05.468,73.66
05.484,69.03
05.500,62.3
05.515,54.9
05.531,46.67
05.546,36.38
05.562,23.17
05.578,7.89
05.593,-7.05
05.609,-18.59
05.625,-24.44
05.640,-24.11
05.656,-18.88
05.671,-10.97
05.687,-2.47
05.703,5.35
05.718,12.33
05.734,18.83
05.750,25.16
05.765,31.02
05.781,35.5
05.796,37.45
05.812,36.21
05.828,31.64
05.843,24.4
05.859,15.62
05.875,6.53
05.890,-1.53
05.906,-7.5
05.921,-10.8
05.937,-11.38
05.953,-9.81
05.968,-7.26
05.984,-5.15
06.000,-4.79
06.015,-7.05
06.031,-11.84
06.046,-18.21
06.062,-24.57
06.078,-28.74
06.093,-28.31
06.109,-21.21
06.125,-6.43
06.140,15.02
06.156,39.51
06.171,61.45
06.187,74.98
06.203,76.23
06.218,64.93
06.234,44.67
06.250,21.44
06.265,1.06
06.281,-12.93
06.296,-20.18
06.312,-22.65
06.328,-23.03
06.343,-23.05
06.359,-23.06
06.375,-22.34
06.390,-19.98
06.406,-15.7
06.421,-9.92
06.437,-3.5
06.453,2.78
06.468,8.52
06.484,13.86
06.500,19.22
06.515,24.86
06.531,30.61
06.546,35.78
06.562,39.54
06.578,41.39
06.593,41.48
06.609,40.77
06.625,40.79
06.640,43.07
06.656,48.35
06.671,56.28
06.687,65.34
06.703,73.58
06.718,79.27
06.734,81.54
06.750,80.21
06.765,75.37
06.781,66.79
06.796,53.9
06.812,36.35
06.828,14.72
06.843,-8.75
06.859,-30.57
06.875,-46.99
06.890,-55.38
06.906,-55.27
06.921,-48.44
06.937,-37.98
06.953,-26.82
06.968,-16.98
06.984,-9.13
07.000,-3.07
07.015,1.58
07.031,5.07
07.046,7.16
07.062,7.54
07.078,6.02
07.093,2.77
07.109,-1.88
07.125,-7.5
07.140,-13.72
07.156,-20.31
07.171,-26.77
07.187,-32.4
07.203,-36.21
07.218,-37.24
07.234,-35.13
07.250,-30.41
07.265,-24.44
07.281,-19.23
07.296,-16.62
07.312,-17.29
07.328,-20.39
07.343,-23.44
07.359,-23.03
07.375,-16.21
07.390,-1.54
07.406,20.2
07.421,45.78
07.437,70.2
07.453,88.01
07.468,94.71
07.484,88.25
07.500,69.82
07.515,43.45
07.531,14.97
07.546,-9.97
07.562,-27.73
07.578,-37.34
07.593,-40.02
07.609,-37.84
07.625,-32.08
07.640,-22.71
07.656,-9.43
07.671,7.2
07.687,24.64
07.703,38.54
07.718,45.11
07.734,42.81
07.750,33.33
07.765,21.04
07.781,10.91
07.796,6.04
07.812,6.77
07.828,10.8
07.843,14.66
07.859,15.89
07.875,13.89
07.890,9.62
07.906,5.13
07.921,2.88
07.937,5.2
07.953,14.0
07.968,29.59
07.984,50.18
08.000,71.66
08.015,88.5
08.031,95.61
08.046,90.64
08.062,74.93
08.078,52.89
08.093,30.16
08.109,11.09
08.125,-2.5
08.140,-10.89
08.156,-15.5
08.171,-17.44
08.187,-16.76
08.203,-13.32
08.218,-7.51
08.234,-0.71
08.250,4.83
08.265,6.78
08.281,4.07
08.296,-2.78
08.312,-11.69
08.328,-19.42
08.343,-23.39
08.359,-22.73
08.375,-18.47
08.390,-13.09
08.406,-9.53
08.421,-9.79
08.437,-14.36
08.453,-22.08
08.468,-30.69
08.484,-37.87
08.500,-42.1
08.515,-43.0
08.531,-41.29
08.546,-38.49
08.562,-36.17
08.578,-35.69
08.593,-37.61
08.609,-41.62
08.625,-46.45
08.640,-50.08
08.656,-50.25
08.671,-45.17
08.687,-34.35
08.703,-18.71
08.718,-0.54
08.734,17.28
08.750,32.14
08.765,42.27
08.781,47.1
08.796,47.14
08.812,43.59
08.828,37.95
08.843,31.86
08.859,26.88
08.875,24.22
08.890,24.71
08.906,28.38
08.921,34.52
08.937,41.93
08.953,49.25
08.968,55.21
08.984,58.82
09.000,59.52
09.015,56.97
09.031,51.27
09.046,42.85
09.062,32.48
09.078,21.33
09.093,10.58
09.109,1.16
09.125,-6.45
09.140,-12.16
09.156,-16.14
09.171,-18.48
09.187,-19.23
09.203,-18.44
09.218,-16.17
09.234,-12.78
09.250,-8.87
09.265,-5.08
09.281,-1.94
09.296,0.29
09.312,1.7
09.328,2.59
09.343,3.17
09.359,3.69
09.375,4.11
09.390,4.3
09.406,4.03
09.421,3.19
09.437,1.79
09.453,0.08
09.468,-1.51
09.484,-2.59
09.500,-2.86
09.515,-2.28
09.531,-0.99
09.546,0.81
09.562,2.92
09.578,5.26
09.593,7.81
09.609,10.44
09.625,12.91
09.640,14.86
09.656,15.97
09.671,15.96
09.687,14.94
09.703,13.15
09.718,11.01
09.734,9.01
09.750,7.45
09.765,6.4
09.781,5.68
09.796,4.97
09.812,3.93
09.828,2.54
09.843,1.01
09.859,-0.32
09.875,-1.17
09.890,-1.56
09.906,-1.83
09.921,-2.55
09.937,-4.17
09.953,-6.88
09.968,-10.44
09.984,-14.21
10.000,-17.42
10.015,-19.49
10.031,-20.06
10.046,-19.06
10.062,-16.61
10.078,-12.92
10.093,-8.25
10.109,-2.98
10.125,2.3
10.140,6.97
10.156,10.41
10.171,12.3
10.187,12.67
10.203,11.89
10.218,10.57
10.234,9.28
10.250,8.4
10.265,8.05
10.281,8.09
10.296,8.3
10.312,8.41
10.328,8.21
10.343,7.52
10.359,6.37
10.375,4.87
10.390,3.24
10.406,1.78
10.421,0.67
10.453,-0.25
10.468,-0.19
10.484,-0.11
10.500,-0.1
10.515,-0.33
10.531,-0.83
10.546,-1.62
10.562,-2.65
10.578,-3.76
10.593,-4.69
10.609,-5.12
10.625,-4.92
10.640,-4.08
10.656,-2.77
10.671,-1.18
10.687,0.54
10.703,2.27
10.718,3.95
10.734,5.5
10.750,6.76
10.765,7.52
10.781,7.7
10.796,7.29
10.812,6.46
10.828,5.47
10.843,4.52
10.859,3.83
10.875,3.54
10.890,3.75
10.906,4.42
10.921,5.3
10.937,6.08
10.953,6.49
10.968,6.53
10.984,6.43
11.000,6.63
11.015,7.42
11.031,8.88
11.046,10.75
11.062,12.5
11.078,13.72
11.093,14.22
11.109,14.14
11.125,13.89
11.140,13.93
11.156,14.63
11.171,16.23
11.187,18.73
11.203,21.9
11.218,25.37
11.234,28.52
11.250,30.8
11.265,31.92
11.281,31.96
11.296,31.31
11.312,30.55
11.328,30.14
11.343,30.1
11.359,30.29
11.375,30.3
11.390,29.73
11.406,28.35
11.421,26.02
11.437,22.7
11.453,18.37
11.468,13.05
11.484,6.92
11.500,0.36
11.515,-6.05
11.531,-11.72
11.546,-16.12
11.562,-19.02
11.578,-20.53
11.593,-20.85
11.609,-20.15
11.625,-18.16
11.640,-14.44
11.656,-8.49
11.671,-0.14
11.687,10.47
11.703,22.71
11.718,35.82
11.734,49.25
11.750,62.85
11.765,77.15
11.781,92.83
11.796,110.38
11.812,129.73
11.828,150.67
11.843,172.52
11.859,194.57
11.875,216.06
11.890,236.15
11.906,253.96
11.921,268.01
11.937,276.45
11.953,277.48
11.968,270.21
11.984,255.0
12.000,233.37
12.015,207.59
12.031,179.86
12.046,151.99
12.062,124.08
12.078,94.5
12.093,60.56
12.109,19.85
12.125,-28.67
12.140,-84.08
12.156,-143.55
12.171,-205.63
12.187,-265.52
12.203,-316.97
12.218,-354.23
12.234,-374.02
12.250,-376.22
12.265,-363.36
12.281,-339.42
12.296,-308.37
12.312,-273.88
12.328,-238.56
12.343,-204.63
12.359,-173.97
12.375,-147.94
12.390,-126.94
12.406,-110.53
12.421,-98.0
12.437,-88.18
12.453,-80.06
12.468,-72.68
12.484,-65.2
12.500,-57.35
12.515,-49.37
12.531,-41.66
12.546,-34.32
12.562,-27.41
12.578,-20.27
12.593,-11.59
12.609,-0.14
12.625,15.2
12.640,34.66
12.656,57.29
12.671,81.05
12.687,104.05
12.703,123.01
12.718,135.28
12.734,139.43
12.750,135.34
12.765,123.79
12.781,106.01
12.796,83.1
12.812,55.25
12.828,24.3
12.843,-8.6
12.859,-42.71
12.875,-77.38
12.890,-111.71
12.906,-143.25
12.921,-167.9
12.937,-180.13
12.953,-174.56
12.968,-149.47
12.984,-108.68
13.000,-61.09
13.015,-17.46
13.031,12.93
13.046,25.92
13.062,22.85
13.078,8.73
13.093,-10.04
13.109,-28.72
13.125,-44.94
13.140,-58.67
13.156,-69.78
13.171,-78.76
13.187,-86.97
13.203,-96.61
13.218,-109.47
13.234,-125.14
13.250,-140.24
13.265,-148.22
13.281,-144.41
13.296,-126.86
13.312,-97.85
13.328,-62.54
13.343,-26.86
13.359,4.82
13.375,30.51
13.390,50.12
13.406,64.14
13.421,72.58
13.437,75.54
13.453,73.6
13.468,68.38
13.484,62.15
13.500,57.15
13.515,54.95
13.531,55.63
13.546,58.2
13.562,60.78
13.578,61.5
13.593,58.88
13.609,52.88
13.625,44.35
13.640,34.87
13.656,26.21
13.671,20.02
13.687,17.18
13.703,17.94
13.718,22.1
13.734,28.69
13.750,36.95
13.765,46.37
13.781,56.76
13.796,68.13
13.812,80.32
13.828,92.16
13.843,101.81
13.859,106.99
13.875,105.39
13.890,95.46
13.906,76.94
13.921,50.6
13.937,17.64
13.953,-19.38
13.968,-57.17
13.984,-91.18
14.000,-115.83
14.015,-126.18
14.031,-120.16
14.046,-99.91
14.062,-71.84
14.078,-43.33
14.093,-21.22
14.109,-8.84
14.125,-5.1
14.140,-6.75
14.156,-10.19
14.171,-13.42
14.187,-16.37
14.203,-20.26
14.218,-25.43
14.234,-31.62
14.250,-37.98
14.265,-43.46
14.281,-48.33
14.296,-53.46
14.312,-59.91
14.328,-68.09
14.343,-77.04
14.359,-84.75
14.375,-89.06
14.390,-87.78
14.406,-79.47
14.421,-64.62
14.437,-44.86
14.453,-22.67
14.468,-0.72
14.484,18.81
14.500,34.29
14.515,44.54
14.531,48.72
14.546,46.62
14.562,38.04
14.578,23.25
14.593,3.11
14.609,-21.01
14.625,-46.6
14.640,-70.67
14.656,-90.23
14.671,-102.72
14.687,-106.32
14.703,-100.37
14.718,-85.27
14.734,-62.31
14.750,-34.12
14.765,-3.77
14.781,25.72
14.796,52.05
14.812,73.75
14.828,90.43
14.843,102.42
14.859,110.48
14.875,115.44
14.890,117.4
14.906,116.56
14.921,112.95
14.937,106.84
14.953,99.1
14.968,91.09
14.984,84.29
15.000,79.89
15.015,78.25
15.031,78.3
15.046,78.43
15.062,77.06
15.078,73.32
15.093,67.42
15.109,60.66
15.125,54.99
15.140,51.44
15.156,50.51
15.171,52.1
15.187,55.66
15.203,59.95
15.218,62.67
15.234,60.57
15.250,50.26
15.265,29.69
15.281,-0.11
15.296,-34.7
15.312,-67.54
15.328,-92.44
15.343,-106.29
15.359,-110.43
15.375,-109.34
15.390,-107.34
15.406,-105.87
15.421,-102.03
15.437,-90.38
15.453,-66.51
15.468,-30.51
15.484,12.69
15.500,55.19
15.515,89.6
15.531,112.23
15.546,122.72
15.562,122.85
15.578,113.98
15.593,96.6
15.609,70.51
15.625,37.14
15.640,0.93
15.656,-31.64
15.671,-53.73
15.687,-61.55
15.703,-55.0
15.718,-37.99
15.734,-15.93
15.750,5.59
15.765,21.68
15.781,29.17
15.796,26.04
15.812,12.31
15.828,-9.55
15.843,-33.92
15.859,-53.69
15.875,-62.09
15.890,-55.38
15.906,-35.1
15.921,-8.16
15.937,14.99
15.953,24.57
15.968,14.9
15.984,-12.59
16.000,-50.27
16.015,-87.31
16.031,-114.08
16.046,-125.2
16.062,-120.75
16.078,-105.15
16.093,-84.38
16.109,-62.76
16.125,-43.08
16.140,-26.4
16.156,-12.55
16.171,-1.05
16.187,8.87
16.203,18.76
16.218,30.33
16.234,43.92
16.250,59.13
16.265,73.39
16.281,83.82
16.296,88.76
16.312,88.55
16.328,84.86
16.343,79.23
16.359,71.33
16.375,59.0
16.390,40.02
16.406,13.72
16.421,-16.98
16.437,-46.45
16.453,-68.75
16.468,-79.96
16.484,-80.01
16.500,-71.95
16.515,-59.51
16.531,-46.03
16.546,-34.17
16.562,-25.39
16.578,-19.42
16.593,-15.77
16.609,-12.04
16.625,-4.56
16.640,9.78
16.656,33.24
16.671,67.56
16.687,110.35
16.703,156.63
16.718,201.56
16.734,240.23
16.750,268.45
16.765,282.13
16.781,277.13
16.796,250.6
16.812,202.65
16.828,137.62
16.843,63.9
16.859,-8.24
16.875,-71.03
16.890,-120.46
16.906,-156.9
16.921,-183.89
16.937,-205.18
16.953,-223.68
16.968,-239.87
16.984,-252.27
17.000,-258.05
17.015,-255.28
17.031,-242.86
17.046,-220.74
17.062,-189.52
17.078,-148.91
17.093,-98.97
17.109,-41.0
17.125,21.0
17.140,78.92
17.156,121.41
17.171,138.28
17.187,124.98
17.203,85.41
17.218,31.87
17.234,-20.35
17.250,-58.69
17.265,-77.24
17.281,-77.75
17.296,-67.16
17.312,-53.78
17.328,-44.39
17.343,-43.59
17.359,-52.84
17.375,-71.78
17.390,-97.89
17.406,-125.89
17.421,-148.46
17.437,-157.94
17.453,-148.79
17.468,-119.63
17.484,-74.55
17.500,-20.68
17.515,33.6
17.531,80.81
17.546,115.6
17.562,134.15
17.578,134.38
17.593,116.21
17.609,82.45
17.625,39.01
17.640,-6.1
17.656,-44.74
17.671,-70.86
17.687,-81.73
17.703,-79.02
17.718,-66.76
17.734,-49.63
17.750,-30.99
17.765,-11.21
17.781,12.08
17.796,42.49
17.812,82.39
17.828,130.78
17.843,181.54
17.859,224.78
17.875,249.93
17.890,249.89
17.906,224.01
17.921,178.22
17.937,122.45
17.953,66.4
17.968,16.54
17.984,-25.05
18.000,-59.01
18.015,-86.38
18.031,-106.65
18.046,-117.34
18.062,-115.73
18.078,-100.44
18.093,-72.59
18.109,-35.07
18.125,8.58
18.140,54.63
18.156,98.79
18.171,135.67
18.187,159.81
18.203,166.66
18.218,154.94
18.234,127.23
18.250,89.07
18.265,47.26
18.281,7.57
18.296,-26.66
18.312,-54.69
18.328,-76.9
18.343,-93.89
18.359,-105.41
18.375,-110.75
18.390,-109.35
18.406,-101.24
18.421,-86.9
18.437,-66.42
18.453,-39.11
18.468,-3.72
18.484,39.82
18.500,88.56
18.515,135.44
18.531,170.39
18.546,183.88
18.562,170.82
18.578,133.21
18.593,79.89
18.609,23.14
18.625,-25.97
18.640,-60.99
18.656,-81.15
18.671,-89.69
18.687,-91.03
18.703,-88.44
18.718,-83.53
18.734,-76.77
18.750,-68.49
18.765,-59.52
18.781,-50.78
18.796,-42.83
18.812,-35.49
18.828,-27.88
18.843,-19.1
18.859,-8.92
18.875,1.54
18.890,10.16
18.906,14.47
18.921,13.07
18.937,6.29
18.953,-3.74
18.968,-13.85
18.984,-21.12
19.000,-23.91
19.015,-22.1
19.031,-16.69
19.046,-9.18
19.062,-0.69
19.078,7.96
19.093,16.19
19.109,23.36
19.125,28.79
19.140,31.96
19.156,32.81
19.171,32.0
19.187,30.34
19.203,28.64
19.218,27.0
19.234,24.93
19.250,21.71
19.265,16.88
19.281,10.58
19.296,3.24
19.312,-4.56
19.328,-12.74
19.343,-21.6
19.359,-31.59
19.375,-42.6
19.390,-53.72
19.406,-63.43
19.421,-70.12
19.437,-72.9
19.453,-71.84
19.468,-68.0
19.484,-62.57
19.500,-56.57
19.515,-50.34
19.531,-43.61
19.546,-35.81
19.562,-26.4
19.578,-15.03
19.593,-1.7
19.609,13.07
19.625,28.45
19.640,43.4
19.656,57.05
19.671,68.82
19.687,78.49
19.703,85.88
19.718,90.42
19.734,91.11
19.750,86.5
19.765,75.41
19.781,57.49
19.796,33.68
19.812,6.04
19.828,-22.76
19.843,-50.0
19.859,-73.16
19.875,-90.01
19.890,-98.74
19.906,-98.11
19.921,-87.79
19.937,-68.69
19.953,-43.03
19.968,-13.91
19.984,15.41
20.000,42.13
20.015,64.18
20.031,80.04
20.046,88.49
20.062,88.54
20.078,79.87
20.093,63.33
20.109,41.37
20.125,17.66
20.140,-3.78
20.156,-19.88
20.171,-29.41
20.187,-33.18
20.203,-33.39
20.218,-32.49
20.234,-32.32
20.250,-33.65
20.265,-36.42
20.281,-40.22
20.296,-44.76
20.312,-50.07
20.328,-56.26
20.343,-63.25
20.359,-70.65
20.375,-77.59
20.390,-82.87
20.406,-85.38
20.421,-84.31
20.437,-79.19
20.453,-70.04
20.468,-57.27
20.484,-41.59
20.500,-23.85
20.515,-4.72
20.531,15.52
20.546,37.0
20.562,59.88
20.578,83.93
20.593,108.26
20.609,131.32
20.625,151.16
20.640,166.13
20.656,175.23
20.671,178.19
20.687,175.38
20.703,167.39
20.718,154.76
20.734,137.86
20.750,117.24
20.765,93.48
20.781,67.21
20.796,38.76
20.812,8.01
20.828,-25.42
20.843,-61.48
20.859,-99.04
20.875,-135.67
20.890,-167.79
20.906,-191.8
20.921,-205.35
20.937,-208.21
20.953,-202.22
20.968,-190.55
20.984,-176.5
21.000,-162.74
21.015,-151.09
21.031,-142.69
21.046,-138.24
21.062,-137.87
21.078,-140.94
21.093,-145.7
21.109,-149.4
21.125,-148.82
21.140,-141.23
21.156,-125.22
21.171,-101.02
21.187,-70.42
21.203,-36.02
21.218,-0.38
21.234,34.43
21.250,67.15
21.265,97.1
21.281,124.13
21.296,148.3
21.312,169.76
21.328,188.42
21.343,203.74
21.359,214.91
21.375,220.86
21.390,220.97
21.406,215.08
21.421,203.62
21.437,187.26
21.453,166.52
21.468,141.96
21.484,114.51
21.500,85.98
21.515,58.96
21.531,36.17
21.546,19.3
21.562,8.22
21.578,1.02
21.593,-5.04
21.609,-12.3
21.625,-21.85
21.640,-33.53
21.656,-46.24
21.671,-58.5
21.687,-68.67
21.703,-75.03
21.718,-76.23
21.734,-71.78
21.750,-62.47
21.765,-50.39
21.781,-38.15
21.796,-27.86
21.812,-20.24
21.828,-14.69
21.843,-10.05
21.859,-5.51
21.875,-1.13
21.890,2.4
21.906,4.52
21.921,5.29
21.937,5.37
21.953,5.51
21.968,5.87
21.984,5.76
22.000,4.0
22.015,-0.45
22.031,-7.69
22.046,-16.87
22.062,-26.41
22.078,-34.82
22.093,-41.23
22.109,-45.59
22.125,-48.34
22.140,-50.03
22.156,-50.9
22.171,-50.75
22.187,-49.34
22.203,-46.4
22.218,-42.0
22.234,-36.47
22.250,-30.28
22.265,-23.82
22.281,-17.19
22.296,-10.32
22.312,-2.93
22.328,5.09
22.343,13.83
22.359,23.12
22.375,32.72
22.390,42.31
22.406,51.59
22.421,60.34
22.437,68.26
22.453,74.95
22.468,79.65
22.484,81.61
22.500,80.22
22.515,75.41
22.531,67.69
22.546,58.13
22.562,47.96
22.578,38.19
22.593,29.32
22.609,21.23
22.625,13.55
22.640,5.97
22.656,-1.42
22.671,-8.0
22.687,-12.96
22.703,-15.63
22.718,-15.94
22.734,-14.47
22.750,-12.29
22.765,-10.57
22.781,-10.22
22.796,-11.61
22.812,-14.56
22.828,-18.64
22.843,-23.18
22.859,-27.48
22.875,-30.78
22.890,-32.24
22.906,-31.17
22.921,-27.24
22.937,-20.7
22.953,-12.46
22.968,-3.91
22.984,3.33
23.000,7.9
23.015,8.99
23.031,6.71
23.046,1.89
23.062,-4.09
23.078,-9.9
23.093,-14.55
23.109,-17.74
23.125,-19.66
23.140,-20.71
23.156,-21.21
23.171,-21.08
23.187,-20.14
23.203,-18.21
23.218,-15.47
23.234,-12.48
23.250,-10.05
23.265,-8.88
23.281,-9.34
23.296,-11.39
23.312,-14.54
23.328,-18.04
23.343,-21.05
23.359,-22.78
23.375,-22.71
23.390,-20.72
23.406,-17.03
23.421,-12.09
23.437,-6.49
23.453,-0.86
23.468,4.33
23.484,8.59
23.500,11.47
23.515,12.69
23.531,12.25
23.546,10.46
23.562,8.09
23.578,5.94
23.593,4.62
23.609,4.34
23.625,4.89
23.640,5.85
23.656,6.85
23.671,7.79
23.687,8.75
23.703,9.9
23.718,11.27
23.734,12.63
23.750,13.6
23.765,13.73
23.781,12.8
23.796,10.78
23.812,7.81
23.828,4.03
23.843,-0.51
23.859,-5.78
23.875,-11.49
23.890,-17.06
23.906,-21.59
23.921,-24.0
23.937,-23.49
23.953,-19.68
23.968,-12.89
23.984,-3.98
24.000,5.68
24.015,14.74
24.031,21.89
24.046,26.21
24.062,27.39
24.078,25.74
24.093,22.2
24.109,17.82
24.125,13.66
24.140,10.13
24.156,7.34
24.171,5.07
24.187,3.08
24.203,1.3
24.218,-0.34
24.234,-1.97
24.250,-3.91
24.265,-6.29
24.281,-9.07
24.296,-11.76
24.312,-13.83
24.328,-14.87
24.343,-14.93
24.359,-14.57
24.375,-14.48
24.390,-15.27
24.406,-17.05
24.421,-19.52
24.437,-22.09
24.453,-24.07
24.468,-24.77
24.484,-23.85
24.500,-21.33
24.515,-17.57
24.531,-13.28
24.546,-9.03
24.562,-5.16
24.578,-1.55
24.593,2.26
24.609,6.94
24.625,12.85
24.640,19.89
24.656,27.41
24.671,34.46
24.687,40.12
24.703,43.67
24.718,44.8
24.734,43.53
24.750,40.08
24.765,34.81
24.781,28.22
24.796,20.91
24.812,13.54
24.828,6.8
24.843,1.21
24.859,-3.01
24.875,-5.89
24.890,-7.74
24.906,-9.04
24.921,-10.22
24.937,-11.57
24.953,-13.28
24.968,-15.3
24.984,-17.39
25.000,-19.18
25.015,-20.16
25.031,-19.84
25.046,-17.99
25.062,-14.61
25.078,-9.94
25.093,-4.52
25.109,1.13
25.125,6.44
25.140,11.04
25.156,14.66
25.171,17.24
25.187,18.92
25.203,19.99
25.218,20.82
25.234,21.63
25.250,22.45
25.265,22.99
25.281,22.91
25.296,22.03
25.312,20.41
25.328,18.39
25.343,16.39
25.359,14.72
25.375,13.4
25.390,12.39
25.406,11.54
25.421,10.9
25.437,10.49
25.453,10.28
25.468,10.08
25.484,9.43
25.500,7.9
25.515,5.19
25.531,1.33
25.546,-3.25
25.562,-7.99
25.578,-12.29
25.593,-15.62
25.609,-17.66
25.625,-18.14
25.640,-16.94
25.656,-14.03
25.671,-9.65
25.687,-4.2
25.703,1.74
25.718,7.54
25.734,12.8
25.750,17.17
25.765,20.51
25.781,22.73
25.796,23.79
25.812,23.78
25.828,22.94
25.843,21.58
25.859,20.02
25.875,18.46
25.890,16.86
25.906,15.0
25.921,12.77
25.937,10.15
25.953,7.34
25.968,4.66
25.984,2.35
26.000,0.52
26.015,-0.83
26.031,-1.86
26.046,-2.63
26.062,-3.12
26.078,-3.32
26.093,-3.27
26.109,-3.2
26.125,-3.53
26.140,-4.75
26.156,-7.19
26.171,-10.88
26.187,-15.3
26.203,-19.52
26.218,-22.55
26.234,-23.58
26.250,-22.36
26.265,-19.24
26.281,-14.99
26.296,-10.44
26.312,-6.21
26.328,-2.48
26.343,0.93
26.359,4.19
26.375,7.48
26.390,10.64
26.406,13.32
26.421,15.07
26.437,15.69
26.453,15.22
26.468,14.03
26.484,12.63
26.500,11.41
26.515,10.57
26.531,9.91
26.546,9.06
26.562,7.57
26.578,5.3
26.593,2.31
26.609,-1.07
26.625,-4.4
26.640,-7.48
26.656,-10.16
26.671,-12.42
26.687,-14.13
26.703,-15.04
26.718,-14.76
26.734,-13.18
26.750,-10.6
26.765,-7.68
26.781,-5.52
26.796,-5.08
26.812,-6.83
26.828,-10.59
26.843,-15.44
26.859,-20.16
26.875,-23.56
26.890,-24.91
26.906,-23.91
26.921,-20.84
26.937,-16.03
26.953,-10.03
26.968,-3.48
26.984,3.03
27.000,8.72
27.015,12.98
27.031,15.3
27.046,15.7
27.062,14.49
27.078,12.46
27.093,10.54
27.109,9.38
27.125,9.56
27.140,10.97
27.156,13.13
27.171,15.17
27.187,16.36
27.203,15.98
27.218,13.48
27.234,8.47
27.250,0.6
27.265,-10.02
27.281,-22.99
27.296,-37.57
27.312,-52.88
27.328,-67.94
27.343,-81.77
27.359,-93.47
27.375,-102.26
27.390,-107.42
27.406,-108.22
27.421,-104.13
27.437,-94.73
27.453,-79.97
27.468,-60.16
27.484,-36.07
27.500,-9.07
27.515,19.06
27.531,46.22
27.546,70.47
27.562,90.18
27.578,104.4
27.593,112.74
27.609,114.95
27.625,111.17
27.640,101.71
27.656,87.35
27.671,69.36
27.687,49.46
27.703,29.65
27.718,11.58
27.734,-3.73
27.750,-16.46
27.765,-27.45
27.781,-37.69
27.796,-47.55
27.812,-56.6
27.828,-63.6
27.843,-66.9
27.859,-65.11
27.875,-57.69
27.890,-45.4
27.906,-30.19
27.921,-14.67
27.937,-1.23
27.953,8.64
27.968,14.77
27.984,17.94
28.000,19.29
28.015,19.58
28.031,19.14
28.046,17.95
28.062,16.19
28.078,14.34
28.093,13.01
28.109,12.58
28.125,12.78
28.140,13.08
28.156,12.89
28.171,12.35
28.187,12.19
28.203,13.65
28.218,17.35
28.234,23.06
28.250,29.46
28.265,34.69
28.281,37.28
28.296,36.61
28.312,33.17
28.328,28.07
28.343,22.66
28.359,17.89
28.375,14.24
28.390,11.96
28.406,11.08
28.421,11.69
28.437,13.84
28.453,17.34
28.468,21.68
28.484,26.16
28.500,30.13
28.515,33.08
28.531,35.06
28.546,36.49
28.562,37.83
28.578,39.34
28.593,40.69
28.609,41.03
28.625,39.25
28.640,34.52
28.656,26.62
28.671,16.23
28.687,4.62
28.703,-6.74
28.718,-16.63
28.734,-24.44
28.750,-30.12
28.765,-34.0
28.781,-36.51
28.796,-38.13
28.812,-39.19
28.828,-39.99
28.843,-40.72
28.859,-41.34
28.875,-41.69
28.890,-41.43
28.906,-40.11
28.921,-37.45
28.937,-33.45
28.953,-28.34
28.968,-22.64
28.984,-16.94
29.000,-11.62
29.015,-6.83
29.031,-2.67
29.046,0.95
29.062,3.89
29.078,5.95
29.093,6.95
29.109,6.82
29.125,5.83
29.140,4.42
29.156,3.06
29.171,2.14
29.187,1.96
29.203,2.7
29.218,4.46
29.234,7.29
29.250,11.0
29.265,15.25
29.281,19.65
29.296,23.88
29.312,27.86
29.328,31.69
29.343,35.41
29.359,38.67
29.375,40.75
29.390,40.59
29.406,37.33
29.421,30.69
29.437,21.06
29.453,9.47
29.468,-2.84
29.484,-14.77
29.500,-25.52
29.515,-34.71
29.531,-42.44
29.546,-49.13
29.562,-55.28
29.578,-61.21
29.593,-66.61
29.609,-70.7
29.625,-72.31
29.640,-70.49
29.656,-64.9
29.671,-56.09
29.687,-45.11
29.703,-33.02
29.718,-20.5
29.734,-7.74
29.750,4.91
29.765,16.74
29.781,26.39
29.796,32.24
29.812,33.17
29.828,29.04
29.843,20.83
29.859,10.26
29.875,-0.85
29.890,-11.28
29.906,-20.39
29.921,-28.16
29.937,-34.78
29.953,-40.26
29.968,-44.22
29.984,-45.77
30.000,-43.49
30.015,-35.65
30.031,-20.96
30.046,0.71
30.062,27.47
30.078,55.31
30.093,79.09
30.109,94.17
30.125,98.25
30.140,92.1
30.156,79.18
30.171,63.83
30.187,49.59
30.203,38.01
30.218,28.63
30.234,20.02
30.250,10.94
30.265,1.14
30.281,-8.83
30.296,-17.82
30.312,-24.68
30.328,-28.34
30.343,-27.8
30.359,-22.48
30.375,-12.61
30.390,0.15
30.406,12.87
30.421,21.95
30.437,24.5
30.453,19.32
30.468,7.39
30.484,-8.69
30.500,-25.68
30.515,-40.5
30.531,-51.03
30.546,-56.04
30.562,-55.2
30.578,-48.93
30.593,-38.53
30.609,-26.17
30.625,-14.37
30.640,-5.45
30.656,-0.7
30.671,-0.11
30.687,-2.7
30.703,-6.97
30.718,-11.6
30.734,-15.74
30.750,-18.96
30.765,-20.99
30.781,-21.76
30.796,-21.36
30.812,-20.09
30.828,-18.57
30.843,-17.37
30.859,-16.84
30.875,-17.04
30.890,-17.57
30.906,-17.84
30.921,-17.32
30.937,-15.73
30.953,-13.18
30.968,-10.14
30.984,-7.14
31.000,-4.77
31.015,-3.36
31.031,-2.85
31.046,-2.81
31.062,-2.64
31.078,-1.77
31.093,0.07
31.109,2.71
31.125,5.78
31.140,8.95
31.156,12.11
31.171,15.39
31.187,19.0
31.203,22.86
31.218,26.52
31.234,29.22
31.250,30.18
31.265,28.87
31.281,25.4
31.296,20.35
31.312,14.58
31.328,8.81
31.343,3.41
31.359,-1.46
31.375,-5.87
31.390,-9.76
31.406,-12.88
31.421,-14.97
31.437,-15.8
31.453,-15.33
31.468,-13.88
31.484,-11.81
31.500,-9.18
31.515,-5.86
31.531,-1.68
31.546,3.39
31.562,8.79
31.578,13.61
31.593,16.91
31.609,18.14
31.625,17.4
31.640,15.46
31.656,13.24
31.671,11.34
31.687,9.87
31.703,8.48
31.718,6.86
31.734,4.86
31.750,2.73
31.765,0.77
31.781,-0.87
31.796,-2.39
31.812,-4.23
31.828,-6.78
31.843,-10.16
31.859,-14.18
31.875,-18.42
31.890,-22.53
31.906,-26.38
31.921,-30.04
31.937,-33.62
31.953,-37.03
31.968,-39.75
31.984,-41.11
32.000,-40.29
32.015,-36.64
32.031,-30.04
32.046,-21.02
32.062,-10.81
32.078,-0.92
32.093,7.14
32.109,12.43
32.125,14.56
32.140,13.78
32.156,10.74
32.171,6.24
32.187,1.06
32.203,-4.15
32.218,-8.6
32.234,-11.63
32.250,-12.75
32.265,-11.93
32.281,-9.51
32.296,-5.83
32.312,-0.72
32.328,6.56
32.343,16.85
32.359,30.28
32.375,45.48
32.390,59.54
32.406,69.09
32.421,71.72
32.437,67.22
32.453,57.63
32.468,46.13
32.484,35.49
32.500,26.93
32.515,20.08
32.531,13.86
32.546,7.64
32.562,1.48
32.578,-3.79
32.593,-7.45
32.609,-9.1
32.625,-8.62
32.640,-5.63
32.656,0.58
32.671,10.67
32.687,24.45
32.703,40.11
32.718,54.56
32.734,64.41
32.750,67.46
32.765,63.52
32.781,54.3
32.796,42.32
32.812,29.73
32.828,17.71
32.843,6.52
32.859,-3.87
32.875,-13.21
32.890,-21.09
32.906,-27.17
32.921,-31.56
32.937,-34.51
32.953,-35.93
32.968,-35.03
32.984,-30.6
33.000,-22.03
33.015,-10.22
33.031,2.18
33.046,11.61
33.062,15.14
33.078,11.87
33.093,3.47
33.109,-6.65
33.125,-15.0
33.140,-19.5
33.156,-20.02
33.171,-17.92
33.187,-14.72
33.203,-11.39
33.218,-8.04
33.234,-4.44
33.250,-0.65
33.265,2.83
33.281,5.51
33.296,7.74
33.312,10.83
33.328,16.54
33.343,25.85
33.359,38.06
33.375,50.79
33.390,60.85
33.406,65.79
33.421,64.93
33.437,59.45
33.453,51.8
33.468,44.32
33.484,38.4
33.500,34.4
33.515,31.87
33.531,30.15
33.546,28.81
33.562,27.72
33.578,26.93
33.593,26.24
33.609,24.92
33.625,21.65
33.640,15.15
33.656,5.04
33.671,-7.09
33.687,-17.53
33.703,-21.83
33.718,-17.06
33.734,-4.04
33.750,12.18
33.765,24.21
33.781,25.86
33.796,15.2
33.812,-4.54
33.828,-26.57
33.843,-44.16
33.859,-53.63
33.875,-55.17
33.890,-51.75
33.906,-46.72
33.921,-41.99
33.937,-37.77
33.953,-33.67
33.968,-29.64
33.984,-26.64
34.000,-26.16
34.015,-29.14
34.031,-35.39
34.046,-43.49
34.062,-51.4
34.078,-57.13
34.093,-59.68
34.109,-59.11
34.125,-56.73
34.140,-54.35
34.156,-53.65
34.171,-55.56
34.187,-59.88
34.203,-65.42
34.218,-70.33
34.234,-72.73
34.250,-71.13
34.265,-64.65
34.281,-53.23
34.296,-37.38
34.312,-18.3
34.328,2.03
34.343,21.17
34.359,36.39
34.375,45.29
34.390,46.45
34.406,40.02
34.421,27.71
34.437,12.6
34.453,-1.84
34.468,-12.54
34.484,-17.51
34.500,-16.09
34.515,-8.93
34.531,2.3
34.546,15.45
34.562,28.14
34.578,38.28
34.593,44.26
34.609,45.26
34.625,41.34
34.640,33.47
34.656,23.55
34.671,13.93
34.687,6.84
34.703,3.83
34.718,5.29
34.734,10.52
34.750,17.96
34.765,25.74
34.781,32.13
34.796,35.98
34.812,37.06
34.828,35.78
34.843,32.94
34.859,29.39
34.875,25.8
34.890,22.45
34.906,19.31
34.921,16.16
34.937,12.82
34.953,9.32
34.968,5.91
34.984,2.67
35.000,-0.44
35.015,-3.43
35.031,-6.14
35.046,-8.15
35.062,-8.83
35.078,-7.47
35.093,-3.49
35.109,3.34
35.125,12.04
35.140,20.91
35.156,28.38
35.171,33.79
35.187,37.39
35.203,40.17
35.218,43.35
35.234,48.07
35.250,55.02
35.265,62.87
35.281,69.51
35.296,73.16
35.312,73.57
35.328,71.5
35.343,68.16
35.359,64.59
35.375,61.67
35.390,60.01
35.406,57.66
35.421,52.33
35.437,42.78
35.453,30.04
35.468,16.36
35.484,3.58
35.500,-7.62
35.515,-17.5
35.531,-26.69
35.546,-38.93
35.562,-58.08
35.578,-86.69
35.593,-124.61
35.609,-170.31
35.625,-222.36
35.640,-279.66
35.656,-340.43
35.671,-383.4
35.687,-388.16
35.703,-345.82
35.718,-266.33
35.734,-169.72
35.750,-73.6
35.765,12.02
35.781,83.48
35.796,140.97
35.812,186.92
35.828,221.56
35.843,244.74
35.859,257.02
35.875,259.7
35.890,254.52
35.906,243.23
35.921,227.96
35.937,211.61
35.953,197.84
35.968,188.09
35.984,182.85
36.000,181.91
36.015,187.07
36.031,198.81
36.046,215.58
36.062,234.24
36.078,250.55
36.093,260.1
36.109,258.43
36.125,244.19
36.140,220.93
36.156,196.59
36.171,179.4
36.187,173.19
36.203,174.6
36.218,173.88
36.234,158.81
36.250,120.84
36.265,60.04
36.281,-14.43
36.296,-88.43
36.312,-149.13
36.328,-189.19
36.343,-207.55
36.359,-207.1
36.375,-193.62
36.390,-171.2
36.406,-141.79
36.421,-106.6
36.437,-68.41
36.453,-31.93
36.468,-2.41
36.484,16.38
36.500,23.44
36.515,16.43
36.531,-3.37
36.546,-31.24
36.562,-61.21
36.578,-89.85
36.593,-116.99
36.609,-144.19
36.625,-172.9
36.640,-203.46
36.656,-241.38
36.671,-288.46
36.687,-340.88
36.703,-391.09
36.718,-433.05
36.734,-464.41
36.750,-485.1
36.765,-495.43
36.781,-495.85
36.796,-495.23
36.812,-499.1
36.828,-506.83
36.843,-513.46
36.859,-515.51
36.875,-514.17
36.890,-513.43
36.906,-517.32
36.921,-474.85
36.937,-365.22
36.953,-205.98
36.968,-39.97
36.984,99.55
37.000,202.36
37.015,272.64
37.031,319.62
37.046,352.12
37.062,376.26
37.078,387.3
37.093,382.39
37.109,363.88
37.125,339.9
37.140,318.56
37.156,303.42
37.171,290.76
37.187,282.18
37.203,278.38
37.218,273.49
37.234,264.35
37.250,252.42
37.265,243.22
37.281,241.9
37.296,249.36
37.312,264.21
37.328,284.19
37.343,306.09
37.359,322.76
37.375,329.29
37.390,324.45
37.406,309.4
37.421,290.8
37.437,270.33
37.453,248.66
37.468,225.04
37.484,198.41
37.500,166.72
37.515,129.69
37.531,89.49
37.546,49.7
37.562,13.55
37.578,-17.81
37.593,-43.43
37.609,-65.58
37.625,-87.47
37.640,-112.17
37.656,-141.41
37.671,-175.71
37.687,-214.8
37.703,-257.61
37.718,-302.76
37.734,-347.13
37.750,-390.91
37.765,-433.56
37.781,-472.71
37.796,-503.88
37.812,-522.77
37.828,-526.94
37.843,-515.29
37.859,-488.39
37.875,-447.93
37.890,-401.97
37.906,-358.56
37.921,-323.19
37.937,-298.02
37.953,-283.75
37.968,-281.19
37.984,-291.56
38.000,-316.16
38.015,-323.4
38.031,-294.86
38.046,-228.66
38.062,-137.62
38.078,-36.96
38.093,62.81
38.109,154.49
38.125,231.87
38.140,289.8
38.156,327.0
38.171,342.03
38.187,337.79
38.203,320.76
38.218,298.46
38.234,276.39
38.250,256.7
38.265,240.06
38.281,226.75
38.296,217.71
38.312,210.26
38.328,201.73
38.343,190.75
38.359,177.62
38.375,163.16
38.390,148.36
38.406,134.3
38.421,122.28
38.437,113.75
38.453,107.07
38.468,100.36
38.484,92.48
38.500,83.32
38.515,73.27
38.531,62.88
38.546,52.82
38.562,43.9
38.578,37.02
38.593,31.44
38.609,26.29
38.625,20.94
38.640,15.11
38.656,8.8
38.671,2.16
38.687,-4.59
38.703,-11.17
38.718,-17.36
38.734,-23.6
38.750,-30.34
38.765,-37.84
38.781,-46.15
38.796,-55.09
38.812,-64.17
38.828,-72.68
38.843,-79.68
38.859,-84.38
38.875,-86.03
38.890,-84.93
38.906,-80.51
38.921,-72.8
38.937,-62.27
38.953,-49.61
38.968,-35.71
38.984,-21.47
39.000,-7.86
39.015,4.33
39.031,14.49
39.046,22.42
39.062,27.98
39.078,31.31
39.093,32.69
39.109,32.55
39.125,31.41
39.140,29.72
39.156,27.81
39.171,25.82
39.187,23.91
39.203,22.01
39.218,20.1
39.234,18.0
39.250,15.54
39.265,12.55
39.281,8.92
39.296,4.6
39.312,-0.46
39.328,-6.24
39.343,-12.72
39.359,-19.61
39.375,-26.76
39.390,-33.95
39.406,-41.07
39.421,-47.97
39.437,-54.57
39.453,-60.89
39.468,-66.97
39.484,-72.99
39.500,-78.86
39.515,-84.6
39.531,-90.29
39.546,-95.98
39.562,-101.75
39.578,-107.61
39.593,-113.64
39.609,-119.87
39.625,-126.34
39.640,-132.73
39.656,-138.71
39.671,-144.02
39.687,-148.4
39.703,-151.56
39.718,-153.11
39.734,-152.55
39.750,-149.1
39.765,-144.27
39.781,-138.59
39.796,-132.33
39.812,-125.68
39.828,-118.76
39.843,-111.69
39.859,-104.62
39.875,-97.69
39.890,-91.07
39.906,-84.92
39.921,-79.06
39.937,-73.27
39.953,-67.48
39.968,-61.6
39.984,-55.64
40.000,-49.67
40.015,-43.89
40.031,-38.46
40.046,-33.49
40.062,-28.82
40.078,-24.18
40.093,-19.31
40.109,-14.09
40.125,-8.53
40.140,-2.8
40.156,2.81
40.171,8.01
40.187,12.68
40.203,17.07
40.218,21.6
40.234,26.73
40.250,32.79
40.265,39.8
40.281,47.52
40.296,55.41
40.312,63.09
40.328,70.38
40.343,77.61
40.359,85.43
40.375,94.56
40.390,105.49
40.406,118.24
40.421,132.32
40.437,146.98
40.453,161.52
40.468,175.51
40.484,189.01
40.500,202.51
40.515,216.72
40.531,232.51
40.546,250.67
40.562,271.66
40.578,295.06
40.593,319.23
40.609,341.22
40.625,357.28
40.640,364.06
40.656,359.82
40.671,345.19
40.687,322.92
40.703,296.83
40.718,270.36
40.734,245.57
40.750,223.01
40.765,202.21
40.781,182.67
40.796,164.27
40.812,147.3
40.828,132.1
40.843,118.55
40.859,106.1
40.875,94.02
40.890,81.91
40.906,69.79
40.921,58.3
40.937,48.24
40.953,40.25
40.968,34.49
40.984,30.63
41.000,27.9
41.015,25.44
41.031,22.71
41.046,19.52
41.062,16.17
41.078,13.19
41.093,11.09
41.109,10.1
41.125,10.08
41.140,10.53
41.156,10.7
41.171,9.99
41.187,8.12
41.203,5.33
41.218,2.22
41.234,-0.44
41.250,-2.04
41.265,-2.31
41.281,-1.37
41.296,0.48
41.312,2.87
41.328,5.47
41.343,8.23
41.359,11.18
41.375,14.47
41.390,18.48
41.406,23.9
41.421,31.57
41.437,42.34
41.453,56.68
41.468,74.21
41.484,93.87
41.500,114.05
41.515,133.08
41.531,149.79
41.546,163.67
41.562,174.78
41.578,183.51
41.593,190.37
41.609,195.66
41.625,199.95
41.640,203.75
41.656,207.22
41.671,209.64
41.687,209.37
41.703,204.06
41.718,191.47
41.734,170.71
41.750,142.53
41.765,109.6
41.781,75.45
41.796,43.33
41.812,15.45
41.828,-7.3
41.843,-25.07
41.859,-38.72
41.875,-49.46
41.890,-58.83
41.906,-68.23
41.921,-78.91
41.937,-92.11
41.953,-108.48
41.968,-128.18
41.984,-150.78
42.000,-175.48
42.015,-201.24
42.031,-227.15
42.046,-252.32
42.062,-276.06
42.078,-298.57
42.093,-320.26
42.109,-341.42
42.125,-361.87
42.140,-380.86
42.156,-397.33
42.171,-410.44
42.187,-419.79
42.203,-420.92
42.218,-410.33
42.234,-386.37
42.250,-350.54
42.265,-307.08
42.281,-261.09
42.296,-216.44
42.312,-175.05
42.328,-137.36
42.343,-102.97
42.359,-72.13
42.375,-45.21
42.390,-22.48
42.406,-3.91
42.421,11.06
42.437,23.37
42.453,33.89
42.468,43.24
42.484,51.81
42.500,59.2
42.515,64.86
42.531,68.47
42.546,69.98
42.562,69.88
42.578,68.81
42.593,67.48
42.609,66.54
42.625,66.34
42.640,66.81
42.656,67.63
42.671,68.95
42.687,70.98
42.703,74.47
42.718,79.86
42.734,87.34
42.750,96.77
42.765,107.56
42.781,118.6
42.796,128.29
42.812,136.03
42.828,140.14
42.843,139.75
42.859,134.5
42.875,124.28
42.890,109.66
42.906,91.59
42.921,71.38
42.937,50.42
42.953,30.32
42.968,12.17
42.984,-2.82
43.000,-13.73
43.015,-20.52
43.031,-23.34
43.046,-22.78
43.062,-19.19
43.078,-13.39
43.093,-5.89
43.109,2.63
43.125,12.1
43.140,22.83
43.156,34.69
43.171,47.51
43.187,60.91
43.203,75.09
43.218,89.96
43.234,105.57
43.250,121.46
43.265,137.3
43.281,152.87
43.296,167.44
43.312,180.31
43.328,190.78
43.343,198.48
43.359,202.92
43.375,203.7
43.390,200.04
43.406,190.84
43.421,178.23
43.437,162.8
43.453,144.67
43.468,123.84
43.484,100.56
43.500,75.38
43.515,48.77
43.531,21.25
43.546,-6.46
43.562,-33.55
43.578,-59.65
43.593,-85.03
43.609,-109.87
43.625,-133.88
43.640,-156.33
43.656,-176.65
43.671,-194.47
43.687,-209.77
43.703,-222.54
43.718,-233.34
43.734,-244.54
43.750,-257.88
43.765,-273.61
43.781,-290.74
43.796,-307.87
43.812,-323.89
43.828,-337.96
43.843,-348.8
43.859,-355.14
43.875,-359.4
43.890,-363.5
43.906,-367.58
43.921,-370.3
43.937,-370.09
43.953,-366.28
43.968,-359.01
43.984,-348.51
44.000,-334.66
44.015,-322.35
44.031,-315.65
44.046,-316.16
44.062,-323.32
44.078,-335.95
44.093,-353.73
44.109,-377.44
44.125,-408.83
44.140,-417.02
44.156,-385.21
44.171,-313.35
44.187,-216.13
44.203,-110.07
44.218,-4.94
44.234,95.22
44.250,187.18
44.265,266.07
44.281,326.93
44.296,362.66
44.312,371.94
44.328,360.17
44.343,336.9
44.359,310.86
44.375,286.99
44.390,266.72
44.406,249.64
44.421,235.7
44.437,221.82
44.453,206.03
44.468,187.93
44.484,168.42
44.500,148.21
44.515,127.25
44.531,105.83
44.546,84.44
44.562,64.28
44.578,44.63
44.593,25.16
44.609,6.38
44.625,-10.25
44.640,-23.51
44.656,-34.09
44.671,-40.9
44.687,-43.27
44.703,-40.6
44.718,-33.91
44.734,-24.56
44.750,-13.95
44.765,-3.08
44.781,6.89
44.796,14.79
44.812,20.0
44.828,21.95
44.843,20.69
44.859,16.22
44.875,8.72
44.890,-1.29
44.906,-12.63
44.921,-24.38
44.937,-35.72
44.953,-45.75
44.968,-54.04
44.984,-60.13
45.000,-63.66
45.015,-64.81
45.031,-64.04
45.046,-61.6
45.062,-57.88
45.078,-53.4
45.093,-48.52
45.109,-43.73
45.125,-39.41
45.140,-35.58
45.156,-31.74
45.171,-30.27
45.187,-32.23
45.203,-38.06
45.218,-47.74
45.234,-60.73
45.250,-76.23
45.265,-93.25
45.281,-110.79
45.296,-127.87
45.312,-143.49
45.328,-156.41
45.343,-165.69
45.359,-170.8
45.375,-171.44
45.390,-167.76
45.406,-160.2
45.421,-149.4
45.437,-136.27
45.453,-121.87
45.468,-106.95
45.484,-92.38
45.500,-78.98
45.515,-67.4
45.531,-58.01
45.546,-51.18
45.562,-46.96
45.578,-45.24
45.593,-45.81
45.609,-48.12
45.625,-51.64
45.640,-56.01
45.656,-61.03
45.671,-66.38
45.687,-72.02
45.703,-77.85
45.718,-83.79
45.734,-89.8
45.750,-95.7
45.765,-101.13
45.781,-105.7
45.796,-108.94
45.812,-110.4
45.828,-109.84
45.843,-107.09
45.859,-102.13
45.875,-95.08
45.890,-86.23
45.906,-76.11
45.921,-65.35
45.937,-54.51
45.953,-44.17
45.968,-34.8
45.984,-26.76
46.000,-20.27
46.015,-15.38
46.031,-12.0
46.046,-10.0
46.062,-9.17
46.078,-9.17
46.093,-9.65
46.109,-10.18
46.125,-10.34
46.140,-9.6
46.156,-7.38
46.171,-3.12
46.187,3.67
46.203,13.35
46.218,26.0
46.234,41.5
46.250,59.56
46.265,79.48
46.281,100.22
46.296,120.66
46.312,139.66
46.328,156.14
46.343,169.13
46.359,177.93
46.375,182.14
46.390,181.93
46.406,177.68
46.421,170.04
46.437,159.99
46.453,148.68
46.468,137.34
46.484,126.94
46.500,118.25
46.515,111.73
46.531,107.54
46.546,105.43
46.562,104.72
46.578,104.52
46.593,103.93
46.609,102.01
46.625,98.03
46.640,91.56
46.656,82.44
46.671,70.89
46.687,57.38
46.703,42.55
46.718,27.28
46.734,12.38
46.750,-1.35
46.765,-13.3
46.781,-23.16
46.796,-30.79
46.812,-36.22
46.828,-39.68
46.843,-41.44
46.859,-41.7
46.875,-40.73
46.890,-38.56
46.906,-35.2
46.921,-30.71
46.937,-25.31
46.953,-19.42
46.968,-13.47
46.984,-7.94
47.000,-3.1
47.015,1.04
47.031,4.77
47.046,8.65
47.062,13.26
47.078,19.09
47.093,26.42
47.109,35.47
47.125,46.22
47.140,58.66
47.156,72.78
47.171,88.64
47.187,106.35
47.203,125.67
47.218,145.94
47.234,166.11
47.250,185.09
47.265,202.02
47.281,216.41
47.296,228.33
47.312,238.35
47.328,247.24
47.343,255.9
47.359,265.17
47.375,275.82
47.390,288.26
47.406,302.3
47.421,316.77
47.437,329.7
47.453,338.9
47.468,342.49
47.484,339.55
47.500,330.21
47.515,315.51
47.531,296.79
47.546,275.32
47.562,252.05
47.578,227.49
47.593,201.86
47.609,175.31
47.625,148.38
47.640,121.97
47.656,97.09
47.671,74.2
47.687,53.0
47.703,32.45
47.718,11.72
47.734,-9.56
47.750,-30.75
47.765,-49.99
47.781,-65.06
47.796,-74.04
47.812,-75.89
47.828,-70.71
47.843,-59.39
47.859,-42.99
47.875,-22.71
47.890,-0.17
47.906,22.7
47.921,43.13
47.937,57.69
47.953,63.23
47.968,57.85
47.984,41.99
48.000,19.8
48.015,-1.89
48.031,-15.9
48.046,-16.9
48.062,-3.6
48.078,21.05
48.093,51.46
48.109,81.63
48.125,106.98
48.140,127.01
48.156,142.91
48.171,156.14
48.187,167.56
48.203,177.44
48.218,186.45
48.234,196.21
48.250,208.55
48.265,224.73
48.281,248.19
48.296,280.1
48.312,319.34
48.328,362.88
48.343,406.81
48.359,448.12
48.375,485.97
48.390,521.52
48.406,556.77
48.421,599.03
48.437,652.45
48.453,716.14
48.468,783.86
48.484,846.0
48.500,893.89
48.515,923.63
48.531,937.13
48.546,940.24
48.562,947.43
48.578,969.88
48.593,1012.26
48.609,1071.13
48.625,1136.36
48.640,1194.93
48.656,1235.58
48.671,1251.8
48.687,1193.39
48.703,1031.92
48.718,761.97
48.734,407.17
48.750,13.39
48.765,-369.45
48.781,-704.39
48.796,-974.1
48.812,-1177.08
48.828,-1320.85
48.843,-1408.37
48.859,-1444.23
48.875,-1435.43
48.890,-1392.22
48.906,-1327.65
48.921,-1254.87
48.937,-1184.12
48.953,-1121.24
48.968,-1068.36
48.984,-1019.38
49.000,-968.36
49.015,-912.26
49.031,-851.85
49.046,-790.95
49.062,-733.83
49.078,-682.96
49.093,-638.27
49.109,-598.73
49.125,-559.7
49.140,-518.37
49.156,-474.45
49.171,-430.05
49.187,-388.73
49.203,-354.07
49.218,-328.18
49.234,-310.54
49.250,-298.16
49.265,-283.86
49.281,-260.07
49.296,-221.55
49.312,-168.46
49.328,-107.35
49.343,-49.73
49.359,-7.92
49.375,10.35
49.390,3.91
49.406,-20.34
49.421,-50.94
49.437,-75.71
49.453,-86.26
49.468,-79.52
49.484,-57.75
49.500,-27.21
49.515,5.73
49.531,35.31
49.546,57.93
49.562,72.36
49.578,80.0
49.593,83.03
49.609,83.49
49.625,83.29
49.640,81.95
49.656,79.32
49.671,75.49
49.687,71.32
49.703,67.89
49.718,65.54
49.734,63.39
49.750,59.49
49.765,51.76
49.781,38.62
49.796,21.04
49.812,1.16
49.828,-17.55
49.843,-31.91
49.859,-40.73
49.875,-44.26
49.890,-44.14
49.906,-42.2
49.921,-40.52
49.937,-39.14
49.953,-37.6
49.968,-34.68
49.984,-29.11
50.000,-21.46
50.015,-13.36
50.031,-6.84
50.046,-3.3
50.062,-3.16
50.078,-4.51
50.093,-5.14
50.109,-3.71
50.125,-0.17
50.140,3.8
50.156,6.25
50.171,6.6
50.187,5.95
50.203,6.61
50.218,11.23
50.234,21.17
50.250,36.16
50.265,54.93
50.281,75.33
50.296,95.28
50.312,112.85
50.328,125.79
50.343,131.89
50.359,129.72
50.375,119.12
50.390,102.27
50.406,83.31
50.421,66.73
50.437,55.87
50.453,52.09
50.468,54.48
50.484,60.83
50.500,68.72
50.515,75.77
50.531,80.66
50.546,82.54
50.562,83.35
50.578,83.35
50.593,82.13
50.609,78.49
50.625,70.91
50.640,58.43
50.656,40.42
50.671,17.95
50.687,-6.02
50.703,-27.37
50.718,-42.44
50.734,-49.26
50.750,-48.84
50.765,-44.94
50.781,-42.06
50.796,-43.99
50.812,-51.53
50.828,-62.65
50.843,-73.89
50.859,-82.92
50.875,-90.12
50.890,-98.17
50.906,-110.62
50.921,-128.75
50.937,-150.98
50.953,-172.81
50.968,-189.69
50.984,-198.91
51.000,-199.67
51.015,-192.29
51.031,-176.82
51.046,-153.1
51.062,-121.69
51.078,-85.58
51.093,-49.02
51.109,-16.04
51.125,11.88
51.140,37.21
51.156,64.34
51.171,95.43
51.187,127.25
51.203,151.1
51.218,156.31
51.234,136.31
51.250,92.38
51.265,33.32
51.281,-27.61
51.296,-78.67
51.312,-113.29
51.328,-131.28
51.343,-136.9
51.359,-135.76
51.375,-132.09
51.390,-127.26
51.406,-121.54
51.421,-114.45
51.437,-106.81
51.453,-100.25
51.468,-96.42
51.484,-95.99
51.500,-97.94
51.515,-99.78
51.531,-98.39
51.546,-91.97
51.562,-80.2
51.578,-64.98
51.593,-49.49
51.609,-36.98
51.625,-29.58
51.640,-27.51
51.656,-28.37
51.671,-27.91
51.687,-22.11
51.703,-9.04
51.718,9.61
51.734,28.8
51.750,42.67
51.765,47.11
51.781,41.88
51.796,29.93
51.812,15.76
51.828,3.17
51.843,-6.43
51.859,-13.75
51.875,-21.22
51.890,-31.41
51.906,-47.26
51.921,-71.07
51.937,-104.2
51.953,-146.71
51.968,-196.69
51.984,-250.94
52.000,-305.57
52.015,-356.98
52.031,-401.89
52.046,-437.48
52.062,-461.71
52.078,-473.59
52.093,-473.59
52.109,-463.37
52.125,-444.79
52.140,-418.48
52.156,-383.71
52.171,-338.64
52.187,-281.63
52.203,-213.42
52.218,-137.64
52.234,-60.52
52.250,10.78
52.265,69.73
52.281,112.47
52.296,137.36
52.312,143.7
52.328,132.37
52.343,105.59
52.359,66.74
52.375,20.44
52.390,-26.89
52.406,-68.77
52.421,-99.38
52.437,-114.1
52.453,-112.12
52.468,-95.48
52.484,-67.62
52.500,-32.52
52.515,5.96
52.531,44.37
52.546,79.71
52.562,110.1
52.578,134.68
52.593,153.02
52.609,164.92
52.625,170.33
52.640,170.84
52.656,169.78
52.671,171.01
52.687,177.74
52.703,191.79
52.718,212.97
52.734,239.47
52.750,268.85
52.765,298.01
52.781,324.59
52.796,348.41
52.812,370.37
52.828,391.87
52.843,415.07
52.859,442.3
52.875,474.87
52.890,513.14
52.906,554.96
52.921,594.45
52.937,624.33
52.953,637.54
52.968,628.88
52.984,597.53
53.000,547.39
53.015,485.4
53.031,419.23
53.046,354.2
53.062,292.02
53.078,232.11
53.093,174.15
53.109,119.58
53.125,71.31
53.140,31.86
53.156,2.0
53.171,-19.72
53.187,-36.43
53.203,-51.35
53.218,-66.65
53.234,-82.62
53.250,-97.76
53.265,-110.13
53.281,-118.45
53.296,-122.51
53.312,-123.07
53.328,-121.24
53.343,-117.63
53.359,-111.95
53.375,-103.42
53.390,-91.61
53.406,-77.03
53.421,-61.28
53.437,-46.84
53.453,-36.19
53.468,-31.19
53.484,-32.6
53.500,-39.76
53.515,-51.0
53.531,-64.19
53.546,-77.39
53.562,-88.95
53.578,-98.08
53.593,-104.77
53.609,-109.58
53.625,-113.4
53.640,-116.68
53.656,-119.02
53.671,-119.3
53.687,-116.18
53.703,-108.55
53.718,-96.43
53.734,-81.04
53.750,-64.25
53.765,-48.0
53.781,-33.42
53.796,-20.5
53.812,-8.34
53.828,4.47
53.843,19.52
53.859,37.95
53.875,60.05
53.890,84.94
53.906,110.2
53.921,132.27
53.937,147.33
53.953,152.43
53.968,146.57
53.984,131.22
54.000,109.69
54.015,85.58
54.031,61.37
54.046,37.51
54.062,13.06
54.078,-13.48
54.093,-43.16
54.109,-75.74
54.125,-109.91
54.140,-143.74
54.156,-175.58
54.171,-204.49
54.187,-230.5
54.203,-253.38
54.218,-272.29
54.234,-285.76
54.250,-291.85
54.265,-289.05
54.281,-276.97
54.296,-256.53
54.312,-229.62
54.328,-198.79
54.343,-166.3
54.359,-134.07
54.375,-103.68
54.390,-76.35
54.406,-53.13
54.421,-34.83
54.437,-21.77
54.453,-13.63
54.468,-9.63
54.484,-8.68
54.500,-9.48
54.515,-10.77
54.531,-11.65
54.546,-11.89
54.562,-11.91
54.578,-12.49
54.593,-14.44
54.609,-17.99
54.625,-22.76
54.640,-27.71
54.656,-31.55
54.671,-32.97
54.687,-31.61
54.703,-27.86
54.718,-22.66
54.734,-17.11
54.750,-11.83
54.765,-6.69
54.781,-0.89
54.796,6.54
54.812,16.41
54.828,28.71
54.843,42.73
54.859,57.15
54.875,70.33
54.890,80.78
54.906,87.48
54.921,90.07
54.937,88.98
54.953,85.14
54.968,79.75
54.984,73.99
55.000,68.86
55.015,64.85
55.031,62.0
55.046,59.81
55.062,57.5
55.078,54.36
55.093,49.89
55.109,43.95
55.125,36.82
55.140,29.21
55.156,21.75
55.171,15.18
55.187,9.89
55.203,5.93
55.218,3.09
55.234,0.9
55.250,-1.21
55.265,-3.86
55.281,-7.32
55.296,-11.69
55.312,-16.73
55.328,-22.05
55.343,-27.19
55.359,-31.85
55.375,-35.82
55.390,-38.98
55.406,-41.24
55.421,-42.64
55.437,-43.22
55.453,-43.12
55.468,-42.56
55.484,-41.68
55.500,-40.5
55.515,-38.9
55.531,-36.65
55.546,-33.46
55.562,-29.27
55.578,-24.14
55.593,-18.14
55.609,-11.41
55.625,-4.14
55.640,3.45
55.656,11.09
55.671,18.37
55.687,24.82
55.703,30.07
55.718,33.8
55.734,35.9
55.750,36.56
55.765,36.05
55.781,34.71
55.796,32.96
55.812,31.09
55.828,29.25
55.843,27.58
55.859,26.06
55.875,24.64
55.890,23.24
55.906,21.81
55.921,20.33
55.937,18.81
55.953,17.28
55.968,15.77
55.984,14.22
56.000,12.46
56.015,10.37
56.031,7.81
56.046,4.74
56.062,1.22
56.078,-2.46
56.093,-5.85
56.109,-8.41
56.125,-9.44
56.140,-8.63
56.156,-5.88
56.171,-1.46
56.187,4.09
56.203,10.09
56.218,15.96
56.234,21.18
56.250,25.22
56.265,27.89
56.281,28.92
56.296,28.25
56.312,26.08
56.328,22.66
56.343,18.4
56.359,13.79
56.375,9.31
56.390,5.38
56.406,2.38
56.421,0.45
56.437,-0.49
56.453,-0.65
56.468,-0.28
56.484,0.4
56.500,1.23
56.515,2.06
56.531,2.8
56.546,3.47
56.562,3.92
56.578,3.92
56.593,3.53
56.609,2.87
56.625,2.23
56.640,1.69
56.656,1.0
56.671,-0.48
56.687,-3.35
56.703,-8.26
56.718,-15.74
56.734,-25.7
56.750,-37.67
56.765,-50.44
56.781,-62.52
56.796,-72.28
56.812,-78.21
56.828,-79.22
56.843,-74.77
56.859,-64.96
56.875,-50.37
56.890,-32.05
56.906,-11.46
56.921,9.8
56.937,30.0
56.953,47.51
56.968,61.03
56.984,69.82
57.000,73.76
57.015,73.38
57.031,69.55
57.046,63.45
57.062,56.54
57.078,49.96
57.093,44.4
57.109,40.13
57.125,37.02
57.140,34.73
57.156,32.87
57.171,30.85
57.187,28.05
57.203,24.38
57.218,19.84
57.234,14.7
57.250,9.38
57.265,4.26
57.281,-0.49
57.296,-4.73
57.312,-8.49
57.328,-11.84
57.343,-14.56
57.359,-16.66
57.375,-18.06
57.390,-18.87
57.406,-19.19
57.421,-19.24
57.437,-19.01
57.453,-18.34
57.468,-17.04
57.484,-14.92
57.500,-12.1
57.515,-8.85
57.531,-5.47
57.546,-2.15
57.562,1.01
57.578,4.11
57.593,7.2
57.609,10.26
57.625,13.14
57.640,15.55
57.656,17.29
57.671,18.27
57.687,18.33
57.703,17.35
57.718,15.21
57.734,11.84
57.750,7.4
57.765,2.41
57.781,-2.43
57.796,-6.37
57.812,-8.78
57.828,-9.52
57.843,-8.88
57.859,-7.42
57.875,-5.62
57.890,-3.8
57.906,-1.88
57.921,0.41
57.937,3.34
57.953,7.01
57.968,11.21
57.984,15.49
58.000,19.22
58.015,21.95
58.031,23.36
58.046,23.57
58.062,22.95
58.078,21.99
58.093,21.2
58.109,20.84
58.125,21.01
58.140,21.46
58.156,21.91
58.171,21.98
58.187,21.35
58.203,19.81
58.218,17.24
58.234,13.76
58.250,9.63
58.265,5.3
58.281,1.22
58.296,-2.28
58.312,-5.24
58.328,-7.96
58.343,-11.04
58.359,-14.9
58.375,-19.47
58.390,-24.1
58.406,-27.63
58.421,-28.91
58.437,-27.11
58.453,-22.19
58.468,-14.71
58.484,-5.77
58.500,3.39
58.515,11.8
58.531,18.66
58.546,23.58
58.562,26.38
58.578,27.13
58.593,26.27
58.609,24.44
58.625,22.43
58.640,20.72
58.656,19.55
58.671,18.65
58.687,17.58
58.703,15.84
58.718,13.06
58.734,9.15
58.750,4.18
58.765,-1.43
58.781,-7.22
58.796,-12.66
58.812,-17.18
58.828,-20.31
58.843,-21.76
58.859,-21.71
58.875,-20.51
58.890,-18.9
58.906,-17.51
58.921,-16.77
58.937,-16.76
58.953,-17.19
58.968,-17.66
58.984,-17.58
59.000,-16.67
59.015,-14.63
59.031,-11.55
59.046,-7.53
59.062,-2.93
59.078,1.97
59.093,6.84
59.109,11.31
59.125,15.18
59.140,18.26
59.156,20.61
59.171,22.25
59.187,23.4
59.203,24.16
59.218,24.62
59.234,24.8
59.250,24.64
59.265,24.07
59.281,23.04
59.296,21.58
59.312,19.78
59.328,17.7
59.343,15.48
59.359,13.19
59.375,10.93
59.390,8.81
59.406,6.83
59.421,4.91
59.437,2.92
59.453,0.8
59.468,-1.63
59.484,-4.23
59.500,-6.97
59.515,-9.67
59.531,-12.0
59.546,-13.49
59.562,-13.75
59.578,-12.41
59.593,-9.3
59.609,-4.75
59.625,0.65
59.640,5.94
59.656,10.26
59.671,13.05
59.687,14.23
59.703,14.0
59.718,12.76
59.734,10.95
59.750,8.95
59.765,7.16
59.781,5.74
59.796,4.81
59.812,4.34
59.828,4.18
59.843,4.29
59.859,4.5
59.875,4.57
59.890,4.29
59.906,3.53
59.921,2.05
59.937,-0.65
59.953,-5.14
59.968,-12.15
59.984,-22.18
