timestamp,value
00.000,36.68
00.015,34.82
00.031,33.59
00.046,33.27
00.062,33.95
00.078,35.37
00.093,37.14
00.109,38.95
00.125,40.48
00.140,41.62
00.156,42.3
00.171,42.61
00.187,42.6
00.203,42.45
00.218,42.15
00.234,41.62
00.250,40.69
00.265,39.28
00.281,37.35
00.296,34.97
00.312,32.45
00.328,29.97
00.343,27.77
00.359,25.92
00.375,24.17
00.390,22.14
00.406,19.37
00.421,15.29
00.437,9.37
00.453,1.42
00.468,-8.36
00.484,-19.31
00.500,-30.32
00.515,-40.09
00.531,-47.47
00.546,-51.78
00.562,-52.89
00.578,-51.3
00.593,-47.82
00.609,-43.3
00.625,-38.48
00.640,-33.83
00.656,-29.63
00.671,-25.98
00.687,-22.91
00.703,-20.44
00.718,-18.59
00.734,-17.19
00.750,-16.14
00.765,-15.17
00.781,-13.88
00.796,-11.89
00.812,-8.93
00.828,-4.95
00.843,-0.19
00.859,4.86
00.875,9.79
00.890,14.36
00.906,18.56
00.921,22.55
00.937,26.44
00.953,29.94
00.968,32.38
00.984,32.98
01.000,31.21
01.015,26.95
01.031,20.7
01.046,13.23
01.062,5.35
01.078,-2.27
01.093,-9.28
01.109,-15.53
01.125,-20.96
01.140,-25.61
01.156,-29.43
01.171,-32.42
01.187,-34.38
01.203,-34.92
01.218,-33.36
01.234,-28.93
01.250,-20.99
01.265,-9.14
01.281,6.34
01.296,24.52
01.312,43.84
01.328,62.36
01.343,78.24
01.359,90.05
01.375,96.9
01.390,98.47
01.406,95.06
01.421,87.27
01.437,75.85
01.453,61.76
01.468,45.98
01.484,29.37
01.500,12.91
01.515,-2.65
01.531,-16.74
01.546,-28.94
01.562,-39.23
01.578,-47.95
01.593,-55.53
01.609,-62.63
01.625,-69.64
01.640,-76.98
01.656,-84.93
01.671,-93.72
01.687,-103.29
01.703,-113.36
01.718,-123.3
01.734,-132.0
01.750,-138.56
01.765,-142.03
01.781,-141.76
01.796,-137.56
01.812,-129.61
01.828,-118.51
01.843,-105.07
01.859,-90.53
01.875,-75.96
01.890,-62.6
01.906,-51.59
01.921,-43.43
01.937,-38.17
01.953,-35.19
01.968,-33.34
01.984,-31.14
02.000,-27.27
02.015,-20.81
02.031,-11.55
02.046,-0.15
02.062,12.44
02.078,25.09
02.093,36.95
02.109,47.57
02.125,56.63
02.140,64.05
02.156,69.79
02.171,73.77
02.187,76.02
02.203,76.78
02.218,76.3
02.234,75.01
02.250,73.37
02.265,71.57
02.281,69.7
02.296,67.73
02.312,65.64
02.328,63.29
02.343,60.65
02.359,57.51
02.375,53.69
02.390,49.25
02.406,44.16
02.421,38.61
02.437,32.79
02.453,26.9
02.468,20.82
02.484,14.53
02.500,7.87
02.515,0.69
02.531,-6.77
02.546,-14.29
02.562,-21.53
02.578,-28.19
02.593,-34.11
02.609,-39.28
02.625,-43.66
02.640,-47.33
02.656,-50.61
02.671,-53.69
02.687,-56.87
02.703,-60.26
02.718,-63.51
02.734,-66.1
02.750,-67.17
02.765,-65.69
02.781,-61.03
02.796,-53.11
02.812,-42.34
02.828,-29.67
02.843,-16.27
02.859,-3.03
02.875,9.18
02.890,20.03
02.906,29.42
02.921,37.34
02.937,43.84
02.953,49.16
02.968,53.46
02.984,56.94
03.000,59.97
03.015,62.58
03.031,64.89
03.046,66.93
03.062,68.63
03.078,69.89
03.093,70.78
03.109,71.22
03.125,71.12
03.140,70.52
03.156,69.31
03.171,67.48
03.187,65.03
03.203,61.83
03.218,57.71
03.234,52.51
03.250,46.09
03.265,38.58
03.281,30.58
03.296,22.77
03.312,15.97
03.328,10.92
03.343,7.82
03.359,6.63
03.375,6.96
03.390,8.12
03.406,9.37
03.421,10.05
03.437,9.66
03.453,8.07
03.468,5.72
03.484,3.36
03.500,2.08
03.515,3.01
03.531,6.88
03.546,14.04
03.562,24.2
03.578,36.49
03.593,49.76
03.609,62.76
03.625,74.24
03.640,83.09
03.656,88.64
03.671,90.48
03.687,88.82
03.703,84.27
03.718,77.65
03.734,69.83
03.750,61.43
03.765,52.6
03.781,42.78
03.796,31.06
03.812,16.36
03.828,-1.78
03.843,-23.09
03.859,-46.37
03.875,-69.79
03.890,-91.22
03.906,-108.83
03.921,-121.46
03.937,-128.62
03.953,-130.67
03.968,-128.41
03.984,-122.85
04.000,-115.12
04.015,-106.08
04.031,-96.49
04.046,-86.94
04.062,-77.93
04.078,-69.67
04.093,-62.41
04.109,-56.46
04.125,-51.98
04.140,-49.43
04.156,-49.1
04.171,-51.26
04.187,-55.86
04.203,-62.31
04.218,-69.25
04.234,-74.95
04.250,-77.77
04.265,-76.39
04.281,-70.42
04.296,-60.37
04.312,-47.35
04.328,-32.78
04.343,-18.1
04.359,-4.25
04.375,7.93
04.390,18.01
04.406,25.69
04.421,30.84
04.437,33.39
04.453,33.6
04.468,31.75
04.484,28.21
04.500,23.5
04.515,17.88
04.531,11.78
04.546,5.53
04.562,-0.56
04.578,-6.27
04.593,-11.19
04.609,-14.99
04.625,-17.43
04.640,-18.34
04.656,-17.75
04.671,-15.82
04.687,-12.83
04.703,-9.33
04.718,-5.74
04.734,-2.46
04.750,0.32
04.765,2.5
04.781,4.02
04.796,4.85
04.812,5.01
04.828,4.48
04.843,3.13
04.859,0.9
04.875,-2.36
04.890,-6.74
04.906,-12.29
04.921,-18.85
04.937,-26.19
04.953,-33.78
04.968,-40.94
04.984,-46.79
05.000,-50.19
05.015,-50.2
05.031,-46.09
05.046,-37.86
05.062,-26.23
05.078,-12.63
05.093,1.28
05.109,14.0
05.125,24.57
05.140,32.57
05.156,38.17
05.171,41.77
05.187,43.92
05.203,44.94
05.218,44.96
05.234,44.07
05.250,42.31
05.265,39.83
05.281,36.83
05.296,33.59
05.312,30.49
05.328,27.94
05.343,26.3
05.359,25.78
05.375,26.38
05.390,27.9
05.406,29.96
05.421,32.24
05.437,34.4
05.453,36.3
05.468,37.82
05.484,38.97
05.500,39.75
05.515,40.28
05.531,40.76
05.546,41.38
05.562,42.24
05.578,43.04
05.593,43.3
05.609,42.36
05.625,39.53
05.640,34.25
05.656,26.38
05.671,15.89
05.687,3.14
05.703,-11.27
05.718,-26.67
05.734,-42.07
05.750,-56.26
05.765,-67.91
05.781,-75.58
05.796,-78.18
05.812,-75.16
05.828,-66.88
05.843,-54.47
05.859,-39.48
05.875,-23.68
05.890,-8.52
05.906,4.9
05.921,16.09
05.937,24.8
05.953,31.08
05.968,35.05
05.984,36.89
06.000,36.97
06.015,35.77
06.031,33.93
06.046,32.04
06.062,30.62
06.078,30.05
06.093,30.48
06.109,31.78
06.125,33.75
06.140,36.01
06.156,38.24
06.171,40.18
06.187,41.67
06.203,42.52
06.218,42.6
06.234,41.88
06.250,40.24
06.265,37.63
06.281,34.02
06.296,29.48
06.312,24.22
06.328,18.63
06.343,13.06
06.359,7.89
06.375,3.5
06.390,-0.11
06.406,-3.13
06.421,-5.92
06.437,-8.99
06.453,-12.79
06.468,-17.4
06.484,-22.79
06.500,-28.56
06.515,-33.67
06.531,-36.97
06.546,-37.13
06.562,-33.34
06.578,-25.56
06.593,-14.56
06.609,-1.76
06.625,11.16
06.640,22.63
06.656,31.69
06.671,37.71
06.687,40.74
06.703,41.14
06.718,39.33
06.734,35.99
06.750,31.91
06.765,27.88
06.781,24.7
06.796,23.05
06.812,23.18
06.828,25.17
06.843,28.87
06.859,33.77
06.875,39.48
06.890,45.48
06.906,51.12
06.921,55.69
06.937,58.42
06.953,58.4
06.968,54.99
06.984,47.86
07.000,36.96
07.015,22.83
07.031,6.2
07.046,-11.94
07.062,-30.44
07.078,-48.0
07.093,-63.5
07.109,-75.94
07.125,-84.7
07.140,-89.74
07.156,-91.4
07.171,-90.62
07.187,-88.63
07.203,-86.47
07.218,-84.8
07.234,-83.77
07.250,-82.88
07.265,-81.36
07.281,-78.27
07.296,-72.7
07.312,-64.16
07.328,-52.75
07.343,-39.09
07.359,-24.38
07.375,-10.14
07.390,2.54
07.406,12.88
07.421,20.79
07.437,26.63
07.453,31.04
07.468,34.47
07.484,37.24
07.500,39.45
07.515,41.0
07.531,41.97
07.546,42.49
07.562,42.75
07.578,42.89
07.593,43.07
07.609,43.27
07.625,43.43
07.640,43.42
07.656,43.07
07.671,42.43
07.687,41.44
07.703,40.15
07.718,38.54
07.734,36.61
07.750,34.4
07.765,31.87
07.781,29.13
07.796,26.1
07.812,22.9
07.828,19.42
07.843,15.67
07.859,11.67
07.875,7.37
07.890,2.92
07.906,-1.65
07.921,-6.2
07.937,-10.8
07.953,-15.54
07.968,-20.82
07.984,-27.06
08.000,-34.49
08.015,-43.03
08.031,-52.09
08.046,-60.62
08.062,-67.09
08.078,-70.16
08.093,-68.86
08.109,-63.17
08.125,-53.71
08.140,-41.85
08.156,-29.03
08.171,-16.63
08.187,-5.71
08.203,3.21
08.218,9.78
08.234,14.12
08.250,16.35
08.265,16.84
08.281,16.09
08.296,14.57
08.312,12.85
08.328,11.37
08.343,10.57
08.359,10.54
08.375,11.3
08.390,12.68
08.406,14.44
08.421,16.44
08.437,18.43
08.453,20.37
08.468,22.05
08.484,23.46
08.500,24.38
08.515,24.67
08.531,24.32
08.546,23.39
08.562,21.98
08.578,20.22
08.593,18.32
08.609,16.35
08.625,14.66
08.640,13.67
08.656,13.89
08.671,15.88
08.687,19.8
08.703,25.43
08.718,31.9
08.734,38.33
08.750,43.91
08.765,48.28
08.781,51.55
08.796,54.16
08.812,56.68
08.828,59.46
08.843,62.8
08.859,66.85
08.875,71.61
08.890,76.85
08.906,82.18
08.921,87.11
08.937,91.18
08.953,94.43
08.968,97.19
08.984,100.09
09.000,103.67
09.015,107.79
09.031,111.51
09.046,113.19
09.062,111.29
09.078,104.89
09.093,94.23
09.109,80.65
09.125,65.83
09.140,51.37
09.156,37.97
09.171,25.59
09.187,13.56
09.203,1.35
09.218,-11.1
09.234,-23.31
09.250,-34.46
09.265,-43.89
09.281,-51.21
09.296,-56.73
09.312,-60.92
09.328,-64.48
09.343,-67.74
09.359,-70.79
09.375,-73.39
09.390,-75.38
09.406,-76.98
09.421,-78.48
09.437,-80.45
09.453,-83.14
09.468,-86.54
09.484,-90.09
09.500,-93.22
09.515,-95.32
09.531,-96.01
09.546,-95.51
09.562,-94.23
09.578,-92.56
09.593,-90.66
09.609,-88.31
09.625,-84.82
09.640,-79.49
09.656,-71.85
09.671,-61.82
09.687,-49.85
09.703,-36.72
09.718,-23.49
09.734,-10.96
09.750,0.21
09.765,9.43
09.781,16.23
09.796,20.06
09.812,20.49
09.828,17.3
09.843,10.74
09.859,1.51
09.875,-9.22
09.890,-20.07
09.906,-29.96
09.921,-38.22
09.937,-44.54
09.953,-49.1
09.968,-52.04
09.984,-53.45
10.000,-53.49
10.015,-52.31
10.031,-50.17
10.046,-47.65
10.062,-45.32
10.078,-43.68
10.093,-43.14
10.109,-43.93
10.125,-46.14
10.140,-49.73
10.156,-54.58
10.171,-60.41
10.187,-66.82
10.203,-73.24
10.218,-79.08
10.234,-83.77
10.250,-86.84
10.265,-88.26
10.281,-88.23
10.296,-87.05
10.312,-84.95
10.328,-81.78
10.343,-77.13
10.359,-70.26
10.375,-60.6
10.390,-47.76
10.406,-32.11
10.421,-14.6
10.437,3.48
10.453,20.67
10.468,35.69
10.484,47.52
10.500,55.53
10.515,59.48
10.531,59.59
10.546,56.3
10.562,50.3
10.578,42.33
10.593,33.18
10.609,23.66
10.625,14.5
10.640,6.5
10.656,0.22
10.671,-3.97
10.687,-6.1
10.703,-6.56
10.718,-6.08
10.734,-5.57
10.750,-5.71
10.765,-7.0
10.781,-9.46
10.796,-12.99
10.812,-17.24
10.828,-21.87
10.843,-26.55
10.859,-31.0
10.875,-35.16
10.890,-38.87
10.906,-42.05
10.921,-44.4
10.937,-45.81
10.953,-45.99
10.968,-44.88
10.984,-42.65
11.000,-39.71
11.015,-36.63
11.031,-33.99
11.046,-32.38
11.062,-31.79
11.078,-32.13
11.093,-32.67
11.109,-32.48
11.125,-30.43
11.140,-25.6
11.156,-17.55
11.171,-6.48
11.187,6.69
11.203,20.77
11.218,34.42
11.234,46.62
11.250,56.64
11.265,64.1
11.281,68.87
11.296,70.9
11.312,70.3
11.328,67.2
11.343,61.89
11.359,54.97
11.375,47.34
11.390,40.03
11.406,34.09
11.421,30.39
11.437,29.23
11.453,30.44
11.468,33.32
11.484,36.87
11.500,40.19
11.515,42.6
11.531,43.77
11.546,43.52
11.562,42.06
11.578,39.57
11.593,36.44
11.609,33.04
11.625,29.79
11.640,27.2
11.656,25.65
11.671,25.48
11.687,26.55
11.703,28.75
11.718,31.71
11.734,35.03
11.750,38.16
11.765,40.26
11.781,40.17
11.796,36.63
11.812,28.74
11.828,16.05
11.843,-0.84
11.859,-20.42
11.875,-40.46
11.890,-58.5
11.906,-72.3
11.921,-80.25
11.937,-81.65
11.953,-76.58
11.968,-66.26
11.984,-52.15
12.000,-36.16
12.015,-20.0
12.031,-5.08
12.046,7.6
12.062,17.44
12.078,24.28
12.093,28.2
12.109,29.31
12.125,28.11
12.140,25.14
12.156,20.9
12.171,16.06
12.187,11.17
12.203,6.57
12.218,2.65
12.234,-0.47
12.250,-3.07
12.265,-5.29
12.281,-7.57
12.296,-10.45
12.312,-14.0
12.328,-18.25
12.343,-22.87
12.359,-27.19
12.375,-30.31
12.390,-31.51
12.406,-30.03
12.421,-25.77
12.437,-19.29
12.453,-11.33
12.468,-3.2
12.484,4.1
12.500,9.98
12.515,14.21
12.531,16.7
12.546,17.66
12.562,17.03
12.578,14.79
12.593,11.26
12.609,6.58
12.625,1.07
12.640,-4.8
12.656,-10.43
12.671,-15.42
12.687,-18.97
12.703,-20.51
12.718,-19.66
12.734,-16.21
12.750,-10.75
12.765,-4.2
12.781,2.39
12.796,8.26
12.812,12.96
12.828,16.57
12.843,19.24
12.859,21.28
12.875,23.02
12.890,24.57
12.906,26.1
12.921,27.74
12.937,29.31
12.953,30.72
12.968,31.69
12.984,31.78
13.000,30.78
13.015,29.02
13.031,27.26
13.046,26.82
13.062,29.24
13.078,35.48
13.093,45.91
13.109,59.72
13.125,75.04
13.140,89.39
13.156,100.5
13.171,106.81
13.187,107.84
13.203,104.4
13.218,97.73
13.234,89.37
13.250,80.43
13.265,71.54
13.281,62.78
13.296,53.83
13.312,44.29
13.328,33.84
13.343,22.24
13.359,9.24
13.375,-5.19
13.390,-20.99
13.406,-37.67
13.421,-54.25
13.437,-69.48
13.453,-82.03
13.468,-90.72
13.484,-95.0
13.500,-95.03
13.515,-91.67
13.531,-85.93
13.546,-78.79
13.562,-70.72
13.578,-61.87
13.593,-52.15
13.609,-41.64
13.625,-30.77
13.640,-20.18
13.656,-10.62
13.671,-2.53
13.687,3.79
13.703,8.63
13.718,12.26
13.734,15.2
13.750,17.72
13.765,19.93
13.781,21.9
13.796,23.41
13.812,24.33
13.828,24.4
13.843,23.47
13.859,21.33
13.875,18.18
13.890,14.11
13.906,9.38
13.921,4.35
13.937,-0.77
13.953,-5.71
13.968,-10.11
13.984,-13.72
14.000,-16.32
14.015,-17.8
14.031,-18.46
14.046,-18.86
14.062,-19.57
14.078,-21.17
14.093,-23.94
14.109,-27.8
14.125,-32.5
14.140,-37.54
14.156,-42.42
14.171,-46.39
14.187,-48.78
14.203,-48.77
14.218,-45.91
14.234,-40.0
14.250,-31.61
14.265,-21.73
14.281,-11.52
14.296,-2.3
14.312,5.03
14.328,10.15
14.343,13.31
14.359,14.81
14.375,15.37
14.390,15.41
14.406,15.22
14.421,15.16
14.437,15.32
14.453,15.77
14.468,16.59
14.484,17.82
14.500,19.21
14.515,20.7
14.531,22.03
14.546,22.89
14.562,23.18
14.578,22.72
14.593,21.64
14.609,19.99
14.625,18.05
14.640,16.09
14.656,14.5
14.671,13.54
14.687,13.5
14.703,14.67
14.718,16.98
14.734,20.52
14.750,24.96
14.765,30.0
14.781,35.17
14.796,40.02
14.812,43.83
14.828,46.14
14.843,46.72
14.859,45.55
14.875,43.19
14.890,40.37
14.906,37.93
14.921,36.74
14.937,37.61
14.953,40.86
14.968,46.72
14.984,54.92
15.000,64.67
15.015,74.83
15.031,84.36
15.046,92.26
15.062,98.14
15.078,101.93
15.093,103.93
15.109,104.38
15.125,103.39
15.140,100.81
15.156,96.41
15.171,89.97
15.187,81.43
15.203,70.91
15.218,58.49
15.234,44.39
15.250,28.8
15.265,12.07
15.281,-5.07
15.296,-21.55
15.312,-36.32
15.328,-48.47
15.343,-57.63
15.359,-63.96
15.375,-68.0
15.390,-70.11
15.406,-70.53
15.421,-69.16
15.437,-65.71
15.453,-60.02
15.468,-52.3
15.484,-42.97
15.500,-32.63
15.515,-22.0
15.531,-11.56
15.546,-1.47
15.562,8.39
15.578,18.37
15.593,29.21
15.609,41.48
15.625,55.62
15.640,71.36
15.656,87.56
15.671,102.27
15.687,113.21
15.703,118.48
15.718,117.13
15.734,109.6
15.750,97.59
15.765,83.57
15.781,70.17
15.796,59.69
15.812,53.35
15.828,51.59
15.843,53.88
15.859,59.06
15.875,65.46
15.890,71.37
15.906,74.99
15.921,74.52
15.937,68.37
15.953,55.42
15.968,35.43
15.984,9.38
16.000,-20.45
16.015,-50.94
16.031,-78.85
16.046,-101.45
16.062,-117.17
16.078,-125.94
16.093,-128.9
16.109,-127.86
16.125,-124.89
16.140,-121.45
16.156,-118.18
16.171,-115.22
16.187,-112.14
16.203,-108.44
16.218,-103.92
16.234,-98.73
16.250,-93.35
16.265,-88.57
16.281,-85.04
16.296,-83.04
16.312,-82.78
16.328,-84.22
16.343,-86.97
16.359,-90.56
16.375,-94.55
16.390,-98.42
16.406,-101.81
16.421,-104.25
16.437,-104.89
16.453,-102.69
16.468,-96.84
16.484,-86.98
16.500,-73.7
16.515,-58.55
16.531,-43.66
16.546,-31.25
16.562,-22.99
16.578,-19.62
16.593,-20.91
16.609,-25.61
16.625,-31.71
16.640,-36.86
16.656,-38.54
16.671,-34.9
16.687,-25.51
16.703,-11.87
16.718,2.75
16.734,14.19
16.750,19.07
16.765,16.06
16.781,6.43
16.796,-6.1
16.812,-17.22
16.828,-23.79
16.843,-25.26
16.859,-23.56
16.875,-21.68
16.890,-21.7
16.906,-23.75
16.921,-26.51
16.937,-28.78
16.953,-30.53
16.968,-33.11
16.984,-38.08
17.000,-45.67
17.015,-54.22
17.031,-61.14
17.046,-64.58
17.062,-64.57
17.078,-63.31
17.093,-63.32
17.109,-65.79
17.125,-69.93
17.140,-73.69
17.156,-75.37
17.171,-74.64
17.187,-72.49
17.203,-69.92
17.218,-67.14
17.234,-63.46
17.250,-58.01
17.265,-50.82
17.281,-43.21
17.296,-37.17
17.312,-34.53
17.328,-35.97
17.343,-40.41
17.359,-45.51
17.375,-48.46
17.390,-46.98
17.406,-40.29
17.421,-29.27
17.437,-16.03
17.453,-3.15
17.468,7.33
17.484,14.55
17.500,19.08
17.515,22.42
17.531,26.04
17.546,30.54
17.562,35.56
17.578,40.22
17.593,43.75
17.609,46.15
17.625,47.95
17.640,49.92
17.656,52.48
17.671,55.65
17.687,59.08
17.703,62.21
17.718,64.76
17.734,66.75
17.750,68.52
17.765,70.55
17.781,73.23
17.796,76.45
17.812,79.94
17.828,83.18
17.843,85.62
17.859,87.02
17.875,87.21
17.890,86.17
17.906,84.01
17.921,80.72
17.937,76.31
17.953,70.84
17.968,64.54
17.984,57.64
18.000,50.64
18.015,44.14
18.031,38.71
18.046,34.74
18.062,32.11
18.078,30.22
18.093,28.16
18.109,24.96
18.125,20.01
18.140,13.25
18.156,5.25
18.171,-2.97
18.187,-10.43
18.203,-16.46
18.218,-20.93
18.234,-24.18
18.250,-26.77
18.265,-29.0
18.281,-30.66
18.296,-31.25
18.312,-30.05
18.328,-26.33
18.343,-20.1
18.359,-11.85
18.375,-2.67
18.390,6.14
18.406,13.41
18.421,18.3
18.437,20.33
18.453,19.25
18.468,15.34
18.484,8.9
18.500,0.37
18.515,-9.79
18.531,-21.22
18.546,-33.45
18.562,-46.0
18.578,-58.09
18.593,-68.9
18.609,-77.5
18.625,-83.01
18.640,-84.91
18.656,-83.0
18.671,-77.48
18.687,-68.78
18.703,-57.55
18.718,-44.39
18.734,-29.79
18.750,-14.24
18.765,1.8
18.781,17.82
18.796,33.37
18.812,47.96
18.828,61.15
18.843,72.73
18.859,82.63
18.875,90.93
18.890,97.91
18.906,103.72
18.921,108.29
18.937,111.5
18.953,112.95
18.968,112.3
18.984,109.42
19.000,104.47
19.015,97.98
19.031,90.7
19.046,83.48
19.062,76.83
19.078,71.24
19.093,66.94
19.109,64.1
19.125,62.73
19.140,62.63
19.156,63.36
19.171,64.25
19.187,64.6
19.203,63.85
19.218,61.75
19.234,58.46
19.250,54.34
19.265,50.06
19.281,45.99
19.296,42.28
19.312,38.78
19.328,34.88
19.343,29.61
19.359,21.86
19.375,10.53
19.390,-5.23
19.406,-25.6
19.421,-49.97
19.437,-76.98
19.453,-104.65
19.468,-130.81
19.484,-153.56
19.500,-171.44
19.515,-183.61
19.531,-189.77
19.546,-190.02
19.562,-184.59
19.578,-174.01
19.593,-158.89
19.609,-140.14
19.625,-118.95
19.640,-96.65
19.656,-74.52
19.671,-53.63
19.687,-34.77
19.703,-18.28
19.718,-4.35
19.734,7.2
19.750,16.59
19.765,24.25
19.781,30.53
19.796,35.84
19.812,40.51
19.828,44.82
19.843,48.96
19.859,52.83
19.875,56.36
19.890,59.34
19.906,61.67
19.921,63.15
19.937,63.65
19.953,63.1
19.968,61.61
19.984,59.37
20.000,56.68
20.015,53.71
20.031,50.56
20.046,47.08
20.062,43.07
20.078,38.34
20.093,32.81
20.109,26.71
20.125,20.34
20.140,14.16
20.156,8.49
20.171,3.63
20.187,-0.39
20.203,-3.58
20.218,-6.02
20.234,-7.8
20.250,-9.23
20.265,-10.52
20.281,-12.03
20.296,-13.97
20.312,-16.14
20.328,-18.17
20.343,-19.37
20.359,-19.04
20.375,-16.63
20.390,-12.14
20.406,-5.8
20.421,1.8
20.437,9.8
20.453,17.51
20.468,24.44
20.484,30.22
20.500,34.87
20.515,38.36
20.531,40.59
20.546,41.49
20.562,41.0
20.578,39.2
20.593,36.37
20.609,33.07
20.625,29.86
20.640,27.34
20.656,25.84
20.671,25.45
20.687,26.14
20.703,27.58
20.718,29.37
20.734,31.14
20.750,32.41
20.765,32.89
20.781,32.55
20.796,31.27
20.812,29.24
20.828,26.65
20.843,23.63
20.859,20.26
20.875,16.54
20.890,12.36
20.906,7.53
20.921,2.13
20.937,-3.87
20.953,-10.32
20.968,-17.05
20.984,-23.98
21.000,-31.15
21.015,-38.75
21.031,-47.11
21.046,-56.64
21.062,-67.41
21.078,-79.37
21.093,-92.03
21.109,-104.48
21.125,-115.5
21.140,-123.68
21.156,-127.76
21.171,-126.86
21.187,-120.94
21.203,-110.66
21.218,-97.28
21.234,-82.15
21.250,-66.42
21.265,-50.98
21.281,-36.29
21.296,-22.78
21.312,-10.73
21.328,-0.49
21.343,7.68
21.359,13.76
21.375,18.31
21.390,22.39
21.406,27.46
21.421,34.94
21.437,45.73
21.453,60.02
21.468,76.95
21.484,94.9
21.500,111.93
21.515,126.1
21.531,135.73
21.546,139.7
21.562,137.49
21.578,129.06
21.593,114.87
21.609,95.78
21.625,72.86
21.640,47.5
21.656,21.12
21.671,-4.96
21.687,-29.74
21.703,-52.58
21.718,-73.33
21.734,-92.18
21.750,-109.24
21.765,-124.63
21.781,-138.17
21.796,-149.85
21.812,-159.84
21.828,-168.53
21.843,-176.57
21.859,-184.66
21.875,-193.1
21.890,-201.64
21.906,-209.51
21.921,-215.44
21.937,-218.17
21.953,-216.56
21.968,-209.75
21.984,-197.36
22.000,-179.68
22.015,-157.4
22.031,-131.94
22.046,-105.2
22.062,-79.03
22.078,-55.17
22.093,-34.73
22.109,-17.93
22.125,-4.56
22.140,5.89
22.156,14.33
22.171,21.74
22.187,29.26
22.203,37.93
22.218,48.43
22.234,60.69
22.250,74.08
22.265,87.36
22.281,99.29
22.296,109.02
22.312,115.86
22.328,119.46
22.343,119.63
22.359,116.33
22.375,109.79
22.390,100.96
22.406,91.12
22.421,81.95
22.437,74.96
22.453,71.0
22.468,70.14
22.484,71.94
22.500,75.64
22.515,80.47
22.531,86.08
22.546,92.15
22.562,98.59
22.578,105.18
22.593,111.3
22.609,115.98
22.625,118.1
22.640,116.72
22.656,111.11
22.671,101.33
22.687,87.87
22.703,71.75
22.718,54.14
22.734,36.26
22.750,19.1
22.765,3.58
22.781,-9.52
22.796,-19.42
22.812,-25.45
22.828,-27.34
22.843,-25.16
22.859,-19.7
22.875,-12.12
22.890,-3.76
22.906,4.24
22.921,11.1
22.937,16.56
22.953,20.76
22.968,23.89
22.984,26.2
23.000,27.78
23.015,28.53
23.031,28.39
23.046,27.35
23.062,25.57
23.078,23.29
23.093,20.66
23.109,17.75
23.125,14.37
23.140,10.57
23.156,6.38
23.171,2.05
23.187,-2.05
23.203,-5.51
23.218,-7.94
23.234,-9.19
23.250,-9.25
23.265,-8.51
23.281,-7.48
23.296,-6.74
23.312,-6.74
23.328,-7.76
23.343,-9.7
23.359,-12.42
23.375,-15.62
23.390,-18.92
23.406,-22.03
23.421,-24.42
23.437,-25.48
23.453,-24.53
23.468,-21.25
23.484,-15.62
23.500,-8.23
23.515,0.06
23.531,8.38
23.546,15.96
23.562,22.41
23.578,27.72
23.593,32.11
23.609,35.88
23.625,39.24
23.640,42.25
23.656,45.02
23.671,47.57
23.687,50.14
23.703,52.91
23.718,56.23
23.734,60.25
23.750,65.02
23.765,70.27
23.781,75.31
23.796,79.44
23.812,81.92
23.828,82.33
23.843,80.56
23.859,76.87
23.875,71.47
23.890,64.81
23.906,57.2
23.921,48.83
23.937,39.93
23.953,30.77
23.968,21.44
23.984,12.08
24.000,2.52
24.015,-7.81
24.031,-19.46
24.046,-33.08
24.062,-49.15
24.078,-67.75
24.093,-88.48
24.109,-110.37
24.125,-131.94
24.140,-151.38
24.156,-166.89
24.171,-176.96
24.187,-180.63
24.203,-177.85
24.218,-169.39
24.234,-156.98
24.250,-142.71
24.265,-128.61
24.281,-116.34
24.296,-106.76
24.312,-99.91
24.328,-94.9
24.343,-90.47
24.359,-85.13
24.375,-77.82
24.390,-68.14
24.406,-56.37
24.421,-43.38
24.437,-30.43
24.453,-18.53
24.468,-8.49
24.484,-0.68
24.500,5.14
24.515,9.43
24.531,13.07
24.546,17.07
24.562,22.42
24.578,29.76
24.593,39.29
24.609,50.54
24.625,62.12
24.640,72.35
24.656,79.31
24.671,81.53
24.687,78.35
24.703,70.02
24.718,57.7
24.734,43.0
24.750,27.69
24.765,13.24
24.781,0.72
24.796,-9.35
24.812,-16.79
24.828,-21.55
24.843,-23.87
24.859,-24.14
24.875,-22.85
24.890,-20.61
24.906,-18.11
24.921,-15.61
24.937,-13.21
24.953,-10.71
24.968,-7.84
24.984,-4.65
25.000,-1.36
25.015,1.61
25.031,3.98
25.046,5.68
25.062,7.05
25.078,8.35
25.093,9.98
25.109,12.19
25.125,14.92
25.140,18.07
25.156,21.37
25.171,24.44
25.187,26.88
25.203,28.52
25.218,29.47
25.234,30.03
25.250,30.73
25.265,31.9
25.281,33.65
25.296,35.75
25.312,37.5
25.328,38.36
25.343,37.95
25.359,36.22
25.375,33.14
25.390,29.1
25.406,24.35
25.421,19.19
25.437,13.89
25.453,8.7
25.468,3.86
25.484,-0.44
25.500,-4.08
25.515,-7.31
25.531,-10.31
25.546,-13.25
25.562,-16.13
25.578,-18.87
25.593,-21.32
25.609,-23.43
25.625,-25.2
25.640,-26.82
25.656,-28.46
25.671,-30.23
25.687,-31.88
25.703,-32.86
25.718,-32.4
25.734,-29.71
25.750,-24.42
25.765,-16.7
25.781,-7.38
25.796,2.59
25.812,11.91
25.828,19.63
25.843,25.04
25.859,27.87
25.875,28.23
25.890,26.5
25.906,23.22
25.921,19.07
25.937,14.87
25.953,11.18
25.968,8.42
25.984,6.54
26.000,5.36
26.015,4.58
26.031,3.94
26.046,3.4
26.062,3.17
26.078,3.39
26.093,4.23
26.109,5.65
26.125,7.31
26.140,8.79
26.156,9.73
26.171,9.76
26.187,8.74
26.203,6.85
26.218,4.24
26.234,1.23
26.250,-1.8
26.265,-4.59
26.281,-7.13
26.296,-9.27
26.312,-11.16
26.328,-12.91
26.343,-14.42
26.359,-15.77
26.375,-17.13
26.390,-18.56
26.406,-20.3
26.421,-22.56
26.437,-25.24
26.453,-28.22
26.468,-31.12
26.484,-33.35
26.500,-34.37
26.515,-33.68
26.531,-30.95
26.546,-26.28
26.562,-20.06
26.578,-12.9
26.593,-5.67
26.609,0.97
26.625,6.54
26.640,10.74
26.656,13.77
26.671,15.82
26.687,17.24
26.703,18.27
26.718,19.06
26.734,19.58
26.750,19.87
26.765,20.03
26.781,20.03
26.796,20.05
26.812,20.17
26.828,20.31
26.843,20.37
26.859,20.18
26.875,19.66
26.890,18.76
26.906,17.53
26.921,16.02
26.937,14.33
26.953,12.44
26.968,10.39
26.984,8.18
27.000,5.8
27.015,3.29
27.031,0.59
27.046,-2.28
27.062,-5.31
27.078,-8.33
27.093,-11.19
27.109,-13.69
27.125,-15.8
27.140,-17.75
27.156,-19.85
27.171,-22.48
27.187,-25.83
27.203,-29.84
27.218,-34.08
27.234,-38.01
27.250,-40.89
27.265,-42.04
27.281,-41.05
27.296,-37.79
27.312,-32.38
27.328,-25.22
27.343,-17.01
27.359,-8.46
27.375,-0.31
27.390,6.9
27.406,12.77
27.421,17.08
27.437,20.01
27.453,21.75
27.468,22.64
27.484,22.95
27.500,22.83
27.515,22.36
27.531,21.54
27.546,20.58
27.562,19.57
27.578,18.7
27.593,18.2
27.609,18.21
27.625,18.69
27.640,19.59
27.656,20.64
27.671,21.55
27.687,22.11
27.703,22.25
27.718,21.86
27.734,20.9
27.750,19.39
27.765,17.35
27.781,14.93
27.796,12.34
27.812,9.7
27.828,7.2
27.843,4.92
27.859,2.93
27.875,1.17
27.890,-0.49
27.906,-2.1
27.921,-3.76
27.937,-5.58
27.953,-7.76
27.968,-10.54
27.984,-14.23
28.000,-18.9
28.015,-24.42
28.031,-30.26
28.046,-35.64
28.062,-39.49
28.078,-40.95
28.093,-39.5
28.109,-35.1
28.125,-28.3
28.140,-20.03
28.156,-11.34
28.171,-3.15
28.187,3.8
28.203,9.4
28.218,13.83
28.234,17.34
28.250,20.22
28.265,22.55
28.281,24.21
28.296,25.16
28.312,25.42
28.328,25.04
28.343,24.31
28.359,23.45
28.375,22.65
28.390,22.1
28.406,21.88
28.421,22.04
28.437,22.56
28.453,23.33
28.468,24.06
28.484,24.53
28.500,24.51
28.515,23.9
28.531,22.78
28.546,21.35
28.562,19.69
28.578,17.93
28.593,16.08
28.609,14.04
28.625,11.77
28.640,9.18
28.656,6.36
28.671,3.33
28.687,0.21
28.703,-3.1
28.718,-6.39
28.734,-9.67
28.750,-12.76
28.765,-15.67
28.781,-18.57
28.796,-21.82
28.812,-25.62
28.828,-30.1
28.843,-35.01
28.859,-39.66
28.875,-43.24
28.890,-44.8
28.906,-43.79
28.921,-39.92
28.937,-33.56
28.953,-25.36
28.968,-16.29
28.984,-7.28
29.000,0.9
29.015,7.67
29.031,12.86
29.046,16.41
29.062,18.43
29.078,19.26
29.093,19.21
29.109,18.67
29.125,17.97
29.140,17.28
29.156,16.7
29.171,16.32
29.187,16.18
29.203,16.28
29.218,16.73
29.234,17.47
29.250,18.48
29.265,19.47
29.281,20.22
29.296,20.39
29.312,19.77
29.328,18.26
29.343,15.91
29.359,12.91
29.375,9.39
29.390,5.61
29.406,1.54
29.421,-2.63
29.437,-6.87
29.453,-10.97
29.468,-14.78
29.484,-18.19
29.500,-21.19
29.515,-23.92
29.531,-26.39
29.546,-28.61
29.562,-30.51
29.578,-32.16
29.593,-33.64
29.609,-35.02
29.625,-36.17
29.640,-36.84
29.656,-36.62
29.671,-34.98
29.687,-31.43
29.703,-25.63
29.718,-17.66
29.734,-7.91
29.750,2.84
29.765,13.61
29.781,23.43
29.796,31.5
29.812,37.36
29.828,40.76
29.843,41.8
29.859,40.74
29.875,37.95
29.890,33.9
29.906,28.96
29.921,23.65
29.937,18.36
29.953,13.51
29.968,9.31
29.984,5.95
30.000,3.53
30.015,1.99
30.031,1.27
30.046,1.19
30.062,1.67
30.078,2.61
30.093,3.94
30.109,5.42
30.125,6.82
30.140,7.94
30.156,8.64
30.171,8.88
30.187,8.68
30.203,8.05
30.218,7.01
30.234,5.65
30.250,4.03
30.265,2.21
30.281,0.33
30.296,-1.64
30.312,-3.75
30.328,-6.05
30.343,-8.72
30.359,-11.82
30.375,-15.28
30.390,-18.89
30.406,-22.29
30.421,-25.0
30.437,-26.65
30.453,-26.71
30.468,-24.88
30.484,-21.08
30.500,-15.53
30.515,-8.73
30.531,-1.62
30.546,4.92
30.562,10.12
30.578,13.42
30.593,14.83
30.609,14.69
30.625,13.36
30.640,11.3
30.656,8.89
30.671,6.39
30.687,4.08
30.703,2.24
30.718,0.92
30.734,0.31
30.750,0.45
30.765,1.22
30.781,2.62
30.796,4.49
30.812,6.63
30.828,8.91
30.843,11.2
30.859,13.25
30.875,14.82
30.890,15.65
30.906,15.49
30.921,14.32
30.937,12.17
30.953,9.34
30.968,6.11
30.984,2.8
31.000,-0.39
31.015,-3.4
31.031,-6.34
31.046,-9.35
31.062,-12.38
31.078,-15.35
31.093,-18.08
31.109,-20.46
31.125,-22.5
31.140,-24.33
31.156,-26.28
31.171,-28.75
31.187,-32.11
31.203,-36.51
31.218,-41.8
31.234,-47.49
31.250,-52.84
31.265,-56.85
31.281,-58.52
31.296,-57.16
31.312,-52.52
31.328,-45.01
31.343,-35.47
31.359,-24.9
31.375,-14.35
31.390,-4.65
31.406,3.66
31.421,10.5
31.437,15.83
31.453,19.91
31.468,22.89
31.484,24.91
31.500,26.21
31.515,27.11
31.531,27.92
31.546,28.89
31.562,30.25
31.578,31.92
31.593,33.86
31.609,35.91
31.625,37.87
31.640,39.62
31.656,41.12
31.671,42.22
31.687,42.93
31.703,43.09
31.718,42.48
31.734,41.05
31.750,38.81
31.765,35.83
31.781,32.37
31.796,28.66
31.812,24.82
31.828,20.9
31.843,16.79
31.859,12.31
31.875,7.39
31.890,2.09
31.906,-3.5
31.921,-9.12
31.937,-14.59
31.953,-19.91
31.968,-25.3
31.984,-31.05
32.000,-37.41
32.015,-44.29
32.031,-51.11
32.046,-57.04
32.062,-61.05
32.078,-62.26
32.093,-60.16
32.109,-54.77
32.125,-46.56
32.140,-36.4
32.156,-25.26
32.171,-14.1
32.187,-3.66
32.203,5.61
32.218,13.45
32.234,19.84
32.250,24.85
32.265,28.49
32.281,30.71
32.296,31.53
32.312,31.07
32.328,29.67
32.343,27.81
32.359,25.98
32.375,24.55
32.390,23.77
32.406,23.61
32.421,23.78
32.437,24.09
32.453,24.3
32.468,24.25
32.484,23.93
32.500,23.19
32.515,21.95
32.531,20.19
32.546,17.94
32.562,15.34
32.578,12.58
32.593,9.79
32.609,7.04
32.625,4.32
32.640,1.59
32.656,-1.23
32.671,-4.11
32.687,-6.96
32.703,-9.7
32.718,-12.35
32.734,-15.13
32.750,-18.3
32.765,-22.06
32.781,-26.49
32.796,-31.37
32.812,-36.25
32.828,-40.48
32.843,-43.28
32.859,-43.94
32.875,-42.09
32.890,-37.66
32.906,-30.83
32.921,-22.33
32.937,-13.01
32.953,-3.88
32.968,4.23
32.984,10.83
33.000,15.73
33.015,19.07
33.031,21.12
33.046,22.21
33.062,22.51
33.078,22.23
33.093,21.46
33.109,20.33
33.125,19.03
33.140,17.75
33.156,16.71
33.171,15.98
33.187,15.74
33.203,15.94
33.218,16.66
33.234,17.76
33.250,19.06
33.265,20.4
33.281,21.51
33.296,22.14
33.312,22.02
33.328,20.94
33.343,18.86
33.359,15.99
33.375,12.61
33.390,8.99
33.406,5.43
33.421,2.01
33.437,-1.07
33.453,-3.94
33.468,-6.87
33.484,-10.02
33.500,-13.49
33.515,-17.24
33.531,-21.09
33.546,-24.82
33.562,-28.43
33.578,-31.99
33.593,-35.68
33.609,-39.65
33.625,-43.74
33.640,-47.48
33.656,-49.94
33.671,-50.24
33.687,-47.73
33.703,-42.26
33.718,-34.25
33.734,-24.57
33.750,-14.31
33.765,-4.48
33.781,4.12
33.796,11.2
33.812,16.78
33.828,21.08
33.843,24.33
33.859,26.75
33.875,28.41
33.890,29.31
33.906,29.52
33.921,29.07
33.937,28.14
33.953,27.06
33.968,26.05
33.984,25.19
34.000,24.58
34.015,24.12
34.031,23.78
34.046,23.65
34.062,23.78
34.078,24.1
34.093,24.48
34.109,24.7
34.125,24.37
34.140,23.21
34.156,21.14
34.171,18.4
34.187,15.27
34.203,12.04
34.218,8.95
34.234,6.05
34.250,3.28
34.265,0.61
34.281,-1.96
34.296,-4.5
34.312,-6.97
34.328,-9.46
34.343,-11.99
34.359,-14.58
34.375,-17.26
34.390,-20.0
34.406,-22.94
34.421,-26.18
34.437,-29.88
34.453,-33.92
34.468,-38.1
34.484,-41.94
34.500,-44.63
34.515,-45.51
34.531,-44.08
34.546,-40.11
34.562,-33.83
34.578,-25.88
34.593,-17.13
34.609,-8.41
34.625,-0.39
34.640,6.55
34.656,12.28
34.671,16.86
34.687,20.48
34.703,23.24
34.718,25.1
34.734,26.18
34.750,26.4
34.765,25.89
34.781,24.8
34.796,23.35
34.812,21.8
34.828,20.39
34.843,19.26
34.859,18.52
34.875,18.29
34.890,18.54
34.906,19.14
34.921,19.86
34.937,20.26
34.953,20.08
34.968,19.11
34.984,17.2
35.000,14.61
35.015,11.59
35.031,8.33
35.046,4.95
35.062,1.58
35.078,-1.79
35.093,-5.06
35.109,-8.13
35.125,-10.92
35.140,-13.37
35.156,-15.46
35.171,-17.35
35.187,-19.26
35.203,-21.38
35.218,-24.02
35.234,-27.18
35.250,-30.88
35.265,-34.79
35.281,-38.4
35.296,-41.01
35.312,-41.83
35.328,-40.24
35.343,-35.88
35.359,-28.89
35.375,-19.85
35.390,-9.65
35.406,0.65
35.421,10.03
35.437,17.83
35.453,23.73
35.468,27.74
35.484,30.05
35.500,30.95
35.515,30.67
35.531,29.49
35.546,27.58
35.562,25.05
35.578,22.08
35.593,18.92
35.609,15.89
35.625,13.36
35.640,11.51
35.656,10.49
35.671,10.31
35.687,10.81
35.703,11.73
35.718,12.92
35.734,14.13
35.750,15.2
35.765,16.07
35.781,16.52
35.796,16.37
35.812,15.53
35.828,14.05
35.843,11.97
35.859,9.44
35.875,6.46
35.890,2.95
35.906,-1.03
35.921,-5.4
35.937,-9.96
35.953,-14.46
35.968,-18.76
35.984,-22.72
36.000,-26.35
36.015,-29.89
36.031,-33.6
36.046,-37.64
36.062,-41.95
36.078,-46.27
36.093,-49.96
36.109,-52.39
36.125,-52.76
36.140,-50.53
36.156,-45.53
36.171,-38.11
36.187,-28.96
36.203,-19.08
36.218,-9.47
36.234,-0.93
36.250,5.97
36.265,11.23
36.281,15.07
36.296,18.05
36.312,20.55
36.328,22.84
36.343,25.02
36.359,26.93
36.375,28.38
36.390,29.19
36.406,29.38
36.421,29.12
36.437,28.67
36.453,28.36
36.468,28.33
36.484,28.72
36.500,29.42
36.515,30.24
36.531,30.88
36.546,30.98
36.562,30.26
36.578,28.43
36.593,25.58
36.609,21.99
36.625,18.09
36.640,14.28
36.656,10.91
36.671,7.97
36.687,5.29
36.703,2.69
36.718,-0.08
36.734,-3.0
36.750,-6.06
36.765,-9.11
36.781,-12.13
36.796,-15.05
36.812,-17.88
36.828,-20.81
36.843,-23.85
36.859,-27.13
36.875,-30.72
36.890,-34.75
36.906,-39.22
36.921,-43.88
36.937,-48.18
36.953,-51.26
36.968,-52.25
36.984,-50.46
37.000,-45.75
37.015,-38.46
37.031,-29.43
37.046,-19.82
37.062,-10.59
37.078,-2.46
37.093,4.23
37.109,9.51
37.125,13.65
37.140,16.82
37.156,19.22
37.171,20.9
37.187,21.81
37.203,22.07
37.218,21.76
37.234,21.16
37.250,20.57
37.265,20.21
37.281,20.14
37.296,20.33
37.312,20.73
37.328,21.26
37.343,21.91
37.359,22.63
37.375,23.32
37.390,23.89
37.406,24.04
37.421,23.55
37.437,22.29
37.453,20.16
37.468,17.32
37.484,14.0
37.500,10.49
37.515,6.92
37.531,3.48
37.546,0.06
37.562,-3.38
37.578,-6.9
37.593,-10.44
37.609,-13.85
37.625,-16.92
37.640,-19.56
37.656,-21.93
37.671,-24.18
37.687,-26.75
37.703,-29.78
37.718,-33.44
37.734,-37.5
37.750,-41.55
37.765,-44.93
37.781,-46.96
37.796,-46.97
37.812,-44.48
37.828,-39.39
37.843,-32.02
37.859,-22.96
37.875,-13.06
37.890,-3.2
37.906,5.86
37.921,13.51
37.937,19.54
37.953,23.96
37.968,27.04
37.984,28.88
38.000,29.74
38.015,29.79
38.031,29.13
38.046,27.97
38.062,26.4
38.078,24.67
38.093,22.96
38.109,21.47
38.125,20.31
38.140,19.51
38.156,19.06
38.171,18.96
38.187,19.12
38.203,19.46
38.218,19.73
38.234,19.76
38.250,19.29
38.265,18.17
38.281,16.35
38.296,13.87
38.312,10.9
38.328,7.65
38.343,4.2
38.359,0.49
38.375,-3.42
38.390,-7.43
38.406,-11.39
38.421,-15.1
38.437,-18.45
38.453,-21.44
38.468,-24.03
38.484,-26.46
38.500,-29.03
38.515,-31.99
38.531,-35.55
38.546,-39.55
38.562,-43.51
38.578,-46.63
38.593,-47.84
38.609,-46.2
38.625,-41.21
38.640,-32.84
38.656,-21.51
38.671,-8.13
38.687,6.23
38.703,20.52
38.718,33.61
38.734,44.63
38.750,52.99
38.765,58.27
38.781,60.44
38.796,59.63
38.812,56.09
38.828,50.09
38.843,42.13
38.859,32.7
38.875,22.51
38.890,12.32
38.906,2.86
38.921,-5.34
38.937,-12.02
38.953,-17.18
38.968,-20.88
38.984,-23.29
39.000,-24.54
39.015,-24.76
39.031,-24.07
39.046,-22.65
39.062,-20.72
39.078,-18.34
39.093,-15.61
39.109,-12.23
39.125,-7.95
39.140,-2.56
39.156,3.99
39.171,11.5
39.187,19.46
39.203,27.08
39.218,33.53
39.234,38.03
39.250,40.22
39.265,40.04
39.281,37.72
39.296,33.44
39.312,27.41
39.328,19.71
39.343,10.39
39.359,-0.56
39.375,-13.14
39.390,-27.09
39.406,-41.93
39.421,-56.72
39.437,-70.21
39.453,-80.99
39.468,-87.61
39.484,-89.07
39.500,-85.2
39.515,-76.7
39.531,-64.71
39.546,-50.66
39.562,-35.77
39.578,-21.01
39.593,-7.02
39.609,5.91
39.625,17.55
39.640,27.7
39.656,35.98
39.671,42.08
39.687,45.94
39.703,47.71
39.718,47.82
39.734,46.61
39.750,44.38
39.765,41.14
39.781,36.98
39.796,31.92
39.812,26.13
39.828,20.0
39.843,14.02
39.859,8.82
39.875,4.63
39.890,1.49
39.906,-0.8
39.921,-2.56
39.937,-3.81
39.953,-4.56
39.968,-4.67
39.984,-3.94
40.000,-2.22
40.015,0.33
40.031,3.54
40.046,6.95
40.062,10.16
40.078,12.96
40.093,15.06
40.109,16.18
40.125,16.13
40.140,14.7
40.156,11.6
40.171,6.65
40.187,-0.36
40.203,-9.62
40.218,-21.03
40.234,-34.12
40.250,-48.02
40.265,-61.45
40.281,-72.88
40.296,-80.8
40.312,-84.08
40.328,-82.22
40.343,-75.55
40.359,-64.92
40.375,-51.58
40.390,-36.79
40.406,-21.64
40.421,-7.06
40.437,6.44
40.453,18.6
40.468,29.4
40.484,38.73
40.500,46.6
40.515,52.85
40.531,57.35
40.546,60.08
40.562,60.91
40.578,60.0
40.593,57.62
40.609,54.11
40.625,49.78
40.640,45.01
40.656,40.04
40.671,35.08
40.687,30.26
40.703,25.68
40.718,21.32
40.734,17.13
40.750,13.05
40.765,8.98
40.781,4.93
40.796,0.95
40.812,-2.74
40.828,-5.92
40.843,-8.31
40.859,-9.64
40.875,-9.85
40.890,-9.02
40.906,-7.46
40.921,-5.5
40.937,-3.53
40.953,-1.92
40.968,-0.89
40.984,-0.62
41.000,-1.4
41.015,-3.37
41.031,-6.75
41.046,-11.71
41.062,-18.13
41.078,-25.71
41.093,-33.79
41.109,-41.37
41.125,-47.34
41.140,-50.77
41.156,-51.16
41.171,-48.45
41.187,-43.3
41.203,-36.56
41.218,-29.29
41.234,-22.28
41.250,-15.95
41.265,-10.41
41.281,-5.39
41.296,-0.66
41.312,4.15
41.328,9.3
41.343,15.04
41.359,21.42
41.375,28.3
41.390,35.45
41.406,42.41
41.421,48.59
41.437,53.5
41.453,56.51
41.468,57.25
41.484,55.66
41.500,51.73
41.515,45.67
41.531,37.94
41.546,29.17
41.562,20.06
41.578,11.52
41.593,4.15
41.609,-1.77
41.625,-6.38
41.640,-10.15
41.656,-13.75
41.671,-17.58
41.687,-21.94
41.703,-26.72
41.718,-31.64
41.734,-36.51
41.750,-41.29
41.765,-46.32
41.781,-51.95
41.796,-58.49
41.812,-65.82
41.828,-73.29
41.843,-79.59
41.859,-82.9
41.875,-81.42
41.890,-73.78
41.906,-59.45
41.921,-39.22
41.937,-14.67
41.953,11.89
41.968,37.69
41.984,60.44
42.000,78.48
42.015,91.06
42.031,98.11
42.046,100.24
42.062,98.05
42.078,92.05
42.093,82.76
42.109,70.5
42.125,55.76
42.140,39.25
42.156,21.86
42.171,4.71
42.187,-11.15
42.203,-24.81
42.218,-35.65
42.234,-43.23
42.250,-47.35
42.265,-47.84
42.281,-44.67
42.296,-38.08
42.312,-28.66
42.328,-17.37
42.343,-5.4
42.359,5.95
42.375,15.67
42.390,23.03
42.406,27.7
42.421,29.58
42.437,28.6
42.453,24.84
42.468,18.27
42.484,9.11
42.500,-2.52
42.515,-16.14
42.531,-31.19
42.546,-46.85
42.562,-62.15
42.578,-76.14
42.593,-87.75
42.609,-96.0
42.625,-99.96
42.640,-99.01
42.656,-92.9
42.671,-81.77
42.687,-66.22
42.703,-47.22
42.718,-26.22
42.734,-4.72
42.750,15.76
42.765,33.88
42.781,48.83
42.796,60.09
42.812,67.56
42.828,71.36
42.843,71.79
42.859,68.98
42.875,63.13
42.890,54.6
42.906,43.79
42.921,31.61
42.937,19.24
42.953,8.04
42.968,-0.99
42.984,-7.05
43.000,-10.06
43.015,-10.22
43.031,-8.04
43.046,-4.03
43.062,1.33
43.078,7.48
43.093,14.06
43.109,20.46
43.125,26.11
43.140,30.51
43.156,33.38
43.171,34.58
43.187,34.24
43.203,32.68
43.218,30.04
43.234,26.54
43.250,22.28
43.265,17.08
43.281,10.87
43.296,3.73
43.312,-4.32
43.328,-13.08
43.343,-22.23
43.359,-31.41
43.375,-40.05
43.390,-47.29
43.406,-52.37
43.421,-54.55
43.437,-53.4
43.453,-48.83
43.468,-41.31
43.484,-31.59
43.500,-20.72
43.515,-9.74
43.531,0.53
43.546,9.59
43.562,17.27
43.578,23.56
43.593,28.64
43.609,32.57
43.625,35.32
43.640,36.85
43.656,37.12
43.671,36.14
43.687,34.2
43.703,31.68
43.718,28.98
43.734,26.49
43.750,24.61
43.765,23.49
43.781,23.14
43.796,23.43
43.812,24.1
43.828,24.82
43.843,25.34
43.859,25.42
43.875,24.98
43.890,24.17
43.906,23.18
43.921,22.18
43.937,21.28
43.953,20.43
43.968,19.4
43.984,17.92
44.000,15.78
44.015,12.81
44.031,9.04
44.046,4.54
44.062,-0.66
44.078,-6.51
44.093,-12.97
44.109,-19.83
44.125,-26.84
44.140,-33.64
44.156,-39.73
44.171,-44.56
44.187,-47.42
44.203,-47.88
44.218,-45.49
44.234,-40.28
44.250,-32.55
44.265,-23.01
44.281,-12.7
44.296,-2.7
44.312,6.04
44.328,12.97
44.343,17.76
44.359,20.58
44.375,21.55
44.390,20.88
44.406,18.72
44.421,15.12
44.437,10.2
44.453,4.24
44.468,-2.11
44.484,-8.14
44.500,-12.98
44.515,-16.13
44.531,-17.38
44.546,-16.81
44.562,-14.87
44.578,-12.1
44.593,-9.0
44.609,-5.96
44.625,-3.14
44.640,-0.6
44.656,1.57
44.671,3.27
44.687,4.37
44.703,4.67
44.718,4.15
44.734,2.78
44.750,0.64
44.765,-2.09
44.781,-5.27
44.796,-8.76
44.812,-12.48
44.828,-16.12
44.843,-19.5
44.859,-22.31
44.875,-24.61
44.890,-26.55
44.906,-28.49
44.921,-30.74
44.937,-33.2
44.953,-35.5
44.968,-36.8
44.984,-36.41
45.000,-33.67
45.015,-28.55
45.031,-21.44
45.046,-13.15
45.062,-4.54
45.078,3.74
45.093,11.36
45.109,18.31
45.125,24.48
45.140,29.9
45.156,34.43
45.171,38.01
45.187,40.53
45.203,41.99
45.218,42.52
45.234,42.28
45.250,41.49
45.265,40.3
45.281,38.78
45.296,36.93
45.312,34.76
45.328,32.25
45.343,29.31
45.359,26.11
45.375,22.66
45.390,19.09
45.406,15.5
45.421,11.95
45.437,8.42
45.453,4.87
45.468,1.4
45.484,-2.02
45.500,-5.2
45.515,-8.08
45.531,-10.61
45.546,-12.99
45.562,-15.42
45.578,-18.13
45.593,-21.43
45.609,-25.44
45.625,-30.22
45.640,-35.75
45.656,-41.83
45.671,-47.99
45.687,-53.57
45.703,-57.68
45.718,-59.3
45.734,-57.77
45.750,-52.76
45.765,-44.46
45.781,-33.67
45.796,-21.59
45.812,-9.5
45.828,1.37
45.843,10.35
45.859,17.34
45.875,22.59
45.890,26.44
45.906,29.29
45.921,31.26
45.937,32.28
45.953,32.36
45.968,31.56
45.984,30.15
46.000,28.42
46.015,26.7
46.031,25.23
46.046,24.15
46.062,23.42
46.078,23.04
46.093,22.94
46.109,22.97
46.125,23.1
46.140,23.13
46.156,22.73
46.171,21.67
46.187,19.88
46.203,17.26
46.218,13.98
46.234,10.2
46.250,5.98
46.265,1.56
46.281,-2.9
46.296,-7.28
46.312,-11.33
46.328,-15.0
46.343,-18.31
46.359,-21.5
46.375,-24.6
46.390,-27.82
46.406,-31.19
46.421,-34.69
46.437,-38.27
46.453,-41.8
46.468,-45.08
46.484,-47.79
46.500,-49.45
46.515,-49.41
46.531,-47.22
46.546,-42.56
46.562,-35.6
46.578,-26.89
46.593,-17.24
46.609,-7.43
46.625,1.9
46.640,10.54
46.656,18.66
46.671,26.26
46.687,33.44
46.703,39.94
46.718,45.2
46.734,48.81
46.750,50.48
46.765,50.22
46.781,48.38
46.796,45.59
46.812,42.37
46.828,39.14
46.843,36.15
46.859,33.33
46.875,30.59
46.890,27.87
46.906,25.19
46.921,22.59
46.937,20.11
46.953,17.7
46.968,15.25
46.984,12.67
47.000,9.91
47.015,7.03
47.031,4.05
47.046,1.05
47.062,-1.96
47.078,-4.99
47.093,-8.12
47.109,-11.3
47.125,-14.44
47.140,-17.5
47.156,-20.39
47.171,-23.21
47.187,-26.13
47.203,-29.26
47.218,-32.71
47.234,-36.53
47.250,-40.54
47.265,-44.21
47.281,-46.93
47.296,-47.89
47.312,-46.41
47.328,-42.19
47.343,-35.36
47.359,-26.59
47.375,-16.78
47.390,-7.12
47.406,1.6
47.421,8.87
47.437,14.56
47.453,18.74
47.468,21.73
47.484,23.72
47.500,24.76
47.515,25.05
47.531,24.5
47.546,23.33
47.562,21.8
47.578,20.37
47.593,19.29
47.609,18.82
47.625,18.93
47.640,19.47
47.656,20.16
47.671,20.66
47.687,20.81
47.703,20.45
47.718,19.6
47.734,18.18
47.750,16.14
47.765,13.36
47.781,9.97
47.796,6.2
47.812,2.34
47.828,-1.3
47.843,-4.5
47.859,-7.17
47.875,-9.25
47.890,-10.78
47.906,-12.05
47.921,-13.31
47.937,-14.76
47.953,-16.69
47.968,-19.32
47.984,-22.68
48.000,-26.76
48.015,-31.19
48.031,-35.45
48.046,-38.96
48.062,-40.94
48.078,-40.62
48.093,-37.65
48.109,-31.98
48.125,-24.15
48.140,-15.04
48.156,-5.63
48.171,3.16
48.187,10.61
48.203,16.4
48.218,20.61
48.234,23.36
48.250,25.05
48.265,25.83
48.281,25.85
48.296,25.18
48.312,23.94
48.328,22.26
48.343,20.44
48.359,18.7
48.375,17.16
48.390,15.97
48.406,15.04
48.421,14.32
48.437,13.76
48.453,13.36
48.468,12.91
48.484,12.37
48.500,11.57
48.515,10.35
48.531,8.68
48.546,6.35
48.562,3.22
48.578,-0.67
48.593,-5.14
48.609,-10.04
48.625,-15.02
48.640,-19.83
48.656,-24.3
48.671,-28.31
48.687,-31.85
48.703,-35.21
48.718,-38.63
48.734,-42.35
48.750,-46.63
48.765,-51.44
48.781,-56.68
48.796,-61.89
48.812,-66.33
48.828,-68.98
48.843,-68.8
48.859,-64.92
48.875,-56.84
48.890,-44.6
48.906,-28.71
48.921,-10.28
48.937,9.22
48.953,28.5
48.968,46.39
48.984,62.03
49.000,74.88
49.015,84.67
49.031,91.43
49.046,95.43
49.062,96.86
49.078,95.81
49.093,92.43
49.109,86.85
49.125,79.38
49.140,70.47
49.156,60.7
49.171,50.64
49.187,41.0
49.203,32.43
49.218,25.27
49.234,19.73
49.250,15.83
49.265,13.47
49.281,12.41
49.296,12.33
49.312,12.77
49.328,13.3
49.343,13.71
49.359,13.96
49.375,14.23
49.390,14.86
49.406,16.19
49.421,18.51
49.437,21.73
49.453,25.5
49.468,29.3
49.484,32.62
49.500,35.01
49.515,36.29
49.531,36.26
49.546,34.72
49.562,31.55
49.578,26.48
49.593,19.4
49.609,10.46
49.625,0.22
49.640,-10.31
49.656,-19.9
49.671,-27.49
49.687,-32.48
49.703,-34.79
49.718,-34.89
49.734,-33.54
49.750,-31.64
49.765,-29.98
49.781,-29.06
49.796,-29.01
49.812,-29.58
49.828,-30.43
49.843,-31.12
49.859,-31.38
49.875,-31.05
49.890,-30.09
49.906,-28.59
49.921,-26.62
49.937,-24.34
49.953,-21.97
49.968,-19.79
49.984,-18.01
50.000,-16.69
50.015,-15.76
50.031,-14.91
50.046,-13.93
50.062,-12.63
50.078,-10.85
50.093,-8.42
50.109,-5.36
50.125,-1.65
50.140,2.42
50.156,6.25
50.171,9.04
50.187,9.91
50.203,8.21
50.218,3.78
50.234,-2.78
50.250,-10.51
50.265,-18.16
50.281,-24.8
50.296,-29.92
50.312,-33.54
50.328,-36.1
50.343,-38.25
50.359,-40.71
50.375,-44.18
50.390,-49.16
50.406,-55.73
50.421,-63.59
50.437,-71.78
50.453,-79.01
50.468,-84.01
50.484,-85.98
50.500,-84.6
50.515,-80.15
50.531,-73.16
50.546,-64.21
50.562,-53.95
50.578,-43.11
50.593,-32.3
50.609,-22.08
50.625,-12.93
50.640,-4.82
50.656,2.47
50.671,9.25
50.687,15.72
50.703,21.68
50.718,26.68
50.734,30.19
50.750,31.92
50.765,31.84
50.781,30.46
50.796,28.67
50.812,27.79
50.828,29.18
50.843,33.49
50.859,40.58
50.875,49.26
50.890,57.78
50.906,64.44
50.921,68.6
50.937,71.14
50.953,74.97
50.968,84.05
50.984,101.41
51.000,127.92
51.015,161.23
51.031,196.14
51.046,225.45
51.062,241.53
51.078,238.06
51.093,211.66
51.109,162.93
51.125,95.93
51.140,17.7
51.156,-63.52
51.171,-139.82
51.187,-204.94
51.203,-255.24
51.218,-289.75
51.234,-309.04
51.250,-313.88
51.265,-304.39
51.281,-279.77
51.296,-239.5
51.312,-184.45
51.328,-117.36
51.343,-43.89
51.359,28.29
51.375,91.04
51.390,137.49
51.406,163.48
51.421,168.8
51.437,156.59
51.453,132.27
51.468,102.77
51.484,74.25
51.500,52.02
51.515,39.9
51.531,39.3
51.546,48.63
51.562,64.09
51.578,80.42
51.593,92.71
51.609,97.94
51.625,93.68
51.640,80.39
51.656,61.04
51.671,39.07
51.687,16.32
51.703,-6.66
51.718,-31.48
51.734,-59.91
51.750,-93.3
51.765,-135.2
51.781,-186.68
51.796,-244.81
51.812,-303.71
51.828,-356.88
51.843,-398.31
51.859,-425.63
51.875,-438.87
51.890,-440.25
51.906,-436.87
51.921,-434.09
51.937,-432.64
51.953,-429.36
51.968,-420.1
51.984,-401.24
52.000,-373.04
52.015,-338.19
52.031,-280.01
52.046,-199.11
52.062,-111.69
52.078,-38.96
52.093,7.15
52.109,22.36
52.125,18.55
52.140,4.72
52.156,-13.82
52.171,-34.13
52.187,-55.37
52.203,-76.02
52.218,-92.37
52.234,-99.91
52.250,-96.23
52.265,-81.15
52.281,-58.14
52.296,-31.12
52.312,-3.26
52.328,20.64
52.343,38.12
52.359,49.99
52.375,58.94
52.390,67.25
52.406,76.38
52.421,85.58
52.437,94.32
52.453,102.37
52.468,108.07
52.484,110.01
52.500,107.59
52.515,100.82
52.531,90.12
52.546,76.71
52.562,62.2
52.578,49.52
52.593,41.9
52.609,40.98
52.625,47.26
52.640,60.43
52.656,79.73
52.671,103.82
52.687,130.92
52.703,158.52
52.718,184.11
52.734,205.59
52.750,221.6
52.765,232.31
52.781,239.54
52.796,246.24
52.812,255.11
52.828,267.63
52.843,283.52
52.859,301.16
52.875,318.27
52.890,332.67
52.906,342.57
52.921,346.55
52.937,343.85
52.953,334.2
52.968,317.95
52.984,296.43
53.000,271.63
53.015,245.83
53.031,221.24
53.046,199.07
53.062,179.3
53.078,161.3
53.093,144.22
53.109,127.89
53.125,112.82
53.140,99.71
53.156,88.55
53.171,78.27
53.187,66.95
53.203,52.53
53.218,33.92
53.234,11.26
53.250,-14.01
53.265,-40.09
53.281,-65.59
53.296,-89.94
53.312,-113.04
53.328,-134.95
53.343,-155.66
53.359,-174.86
53.375,-192.36
53.390,-208.17
53.406,-222.58
53.421,-236.17
53.437,-249.59
53.453,-263.17
53.468,-276.65
53.484,-289.18
53.500,-299.12
53.515,-304.2
53.531,-301.57
53.546,-288.48
53.562,-262.83
53.578,-224.26
53.593,-174.31
53.609,-116.27
53.625,-54.24
53.640,8.14
53.656,68.49
53.671,125.35
53.687,177.1
53.703,221.48
53.718,255.06
53.734,275.12
53.750,281.37
53.765,276.92
53.781,267.72
53.796,260.62
53.812,260.67
53.828,269.46
53.843,284.87
53.859,301.81
53.875,314.47
53.890,318.26
53.906,310.65
53.921,291.71
53.937,263.74
53.953,230.4
53.968,195.84
53.984,163.91
54.000,137.24
54.015,117.25
54.031,104.84
54.046,100.32
54.062,103.43
54.078,112.97
54.093,126.84
54.109,142.02
54.125,155.26
54.140,163.58
54.156,165.19
54.171,160.61
54.187,151.53
54.203,140.13
54.218,127.74
54.234,114.97
54.250,101.63
54.265,86.76
54.281,68.72
54.296,45.47
54.312,17.03
54.328,-15.38
54.343,-49.96
54.359,-84.88
54.375,-118.18
54.390,-148.16
54.406,-174.43
54.421,-198.44
54.437,-224.04
54.453,-253.25
54.468,-286.48
54.484,-322.31
54.500,-356.72
54.515,-382.76
54.531,-392.15
54.546,-378.48
54.562,-339.96
54.578,-281.77
54.593,-210.8
54.609,-135.1
54.625,-62.68
54.640,-8.04
54.656,15.83
54.671,4.66
54.687,-33.96
54.703,-76.17
54.718,-114.55
54.734,-147.62
54.750,-174.99
54.765,-198.52
54.781,-217.04
54.796,-227.84
54.812,-228.41
54.828,-217.89
54.843,-197.74
54.859,-172.18
54.875,-143.26
54.890,-111.56
54.906,-77.85
54.921,-43.58
54.937,-10.87
54.953,17.56
54.968,38.86
54.984,50.51
55.000,50.73
55.015,41.61
55.031,27.41
55.046,12.54
55.062,0.33
55.078,-7.22
55.093,-9.46
55.109,-6.7
55.125,-0.35
55.140,7.1
55.156,14.19
55.171,20.1
55.187,24.29
55.203,26.71
55.218,27.91
55.234,28.85
55.250,30.61
55.265,33.73
55.281,37.76
55.296,42.35
55.312,47.15
55.328,51.69
55.343,55.63
55.359,58.95
55.375,61.88
55.390,64.78
55.406,67.85
55.421,70.71
55.437,72.8
55.453,73.28
55.468,71.39
55.484,66.52
55.500,58.7
55.515,48.46
55.531,36.77
55.546,24.75
55.562,13.25
55.578,2.73
55.593,-6.8
55.609,-15.5
55.625,-23.57
55.640,-31.09
55.656,-38.2
55.671,-44.9
55.687,-51.18
55.703,-56.75
55.718,-61.04
55.734,-63.27
55.750,-62.72
55.765,-59.11
55.781,-52.69
55.796,-44.3
55.812,-34.99
55.828,-25.66
55.843,-16.88
55.859,-8.73
55.875,-1.03
55.890,6.32
55.906,13.26
55.921,19.53
55.937,24.75
55.953,28.7
55.968,31.46
55.984,33.21
56.000,34.42
56.015,35.55
56.031,36.92
56.046,38.69
56.062,40.71
56.078,42.57
56.093,43.65
56.109,43.19
56.125,40.56
56.140,35.46
56.156,28.03
56.171,19.02
56.187,9.41
56.203,0.17
56.218,-8.14
56.234,-15.64
56.250,-22.96
56.265,-30.91
56.281,-39.98
56.296,-50.07
56.312,-60.49
56.328,-70.32
56.343,-79.2
56.359,-87.39
56.375,-95.8
56.390,-105.16
56.406,-115.46
56.421,-125.41
56.437,-132.79
56.453,-134.94
56.468,-129.08
56.484,-112.95
56.500,-85.36
56.515,-46.7
56.531,0.57
56.546,51.85
56.562,101.36
56.578,143.2
56.593,173.03
56.609,189.01
56.625,191.92
56.640,184.3
56.656,169.16
56.671,149.29
56.687,126.74
56.703,103.31
56.718,80.6
56.734,60.22
56.750,43.32
56.765,30.39
56.781,21.17
56.796,14.8
56.812,10.42
56.828,7.56
56.843,6.18
56.859,6.54
56.875,8.68
56.890,11.89
56.906,14.68
56.921,15.13
56.937,11.9
56.953,4.7
56.968,-5.24
56.984,-15.86
57.000,-25.0
57.015,-31.23
57.031,-34.24
57.046,-34.94
57.062,-34.63
57.078,-34.5
57.093,-35.25
57.109,-37.15
57.125,-40.0
57.140,-43.47
57.156,-47.25
57.171,-50.83
57.187,-53.61
57.203,-54.78
57.218,-53.6
57.234,-49.55
57.250,-42.71
57.265,-33.77
57.281,-23.94
57.296,-14.57
57.312,-6.8
57.328,-1.15
57.343,2.42
57.359,4.35
57.375,5.06
57.390,4.8
57.406,3.77
57.421,2.06
57.437,-0.14
57.453,-2.67
57.468,-5.33
57.484,-8.06
57.500,-10.61
57.515,-12.72
57.531,-13.92
57.546,-13.69
57.562,-11.78
57.578,-8.31
57.593,-3.91
57.609,0.44
57.625,3.64
57.640,4.93
57.656,3.97
57.671,0.81
57.687,-4.13
57.703,-10.43
57.718,-17.61
57.734,-25.13
57.750,-32.35
57.765,-38.64
57.781,-43.35
57.796,-45.96
57.812,-46.29
57.828,-44.38
57.843,-40.46
57.859,-34.62
57.875,-26.66
57.890,-16.13
57.906,-2.45
57.921,14.85
57.937,35.92
57.953,60.24
57.968,86.57
57.984,112.72
58.000,136.09
58.015,154.21
58.031,165.14
58.046,167.98
58.062,162.85
58.078,150.91
58.093,134.02
58.109,114.45
58.125,94.36
58.140,75.54
58.156,59.07
58.171,44.98
58.187,32.44
58.203,20.09
58.218,6.71
58.234,-8.1
58.250,-23.81
58.265,-39.15
58.281,-52.57
58.296,-63.04
58.312,-70.08
58.328,-73.88
58.343,-74.92
58.359,-73.86
58.375,-71.32
58.390,-67.93
58.406,-64.21
58.421,-60.52
58.437,-56.89
58.453,-52.54
58.468,-46.03
58.484,-35.48
58.500,-19.3
58.515,2.88
58.531,29.49
58.546,57.15
58.562,81.52
58.578,98.57
58.593,106.14
58.609,104.35
58.625,95.27
58.640,81.95
58.656,67.15
58.671,52.68
58.687,39.45
58.703,27.89
58.718,18.33
58.734,11.38
58.750,7.35
58.765,6.27
58.781,7.8
58.796,11.17
58.812,15.34
58.828,19.3
58.843,22.35
58.859,24.26
58.875,25.53
58.890,26.76
58.906,28.43
58.921,30.72
58.937,33.38
58.953,36.14
58.968,38.76
58.984,41.31
59.000,44.18
59.015,48.16
59.031,53.84
59.046,61.36
59.062,70.19
59.078,79.26
59.093,87.25
59.109,92.91
59.125,95.19
59.140,93.41
59.156,87.71
59.171,78.94
59.187,68.8
59.203,59.51
59.218,53.39
59.234,52.34
59.250,57.26
59.265,67.37
59.281,80.36
59.296,93.19
59.312,102.98
59.328,107.97
59.343,107.89
59.359,103.36
59.375,95.32
59.390,84.36
59.406,70.44
59.421,53.21
59.437,32.52
59.453,8.87
59.468,-16.66
59.484,-42.52
59.500,-67.51
59.515,-90.77
59.531,-111.86
59.546,-130.65
59.562,-147.53
59.578,-163.72
59.593,-180.93
59.609,-200.61
59.625,-222.68
59.640,-245.07
59.656,-263.81
59.671,-274.52
59.687,-273.98
59.703,-261.74
59.718,-240.2
59.734,-213.98
59.750,-187.91
59.765,-166.14
59.781,-151.77
59.796,-146.78
59.812,-152.02
59.828,-166.44
59.843,-186.5
59.859,-206.0
59.875,-217.81
59.890,-216.06
59.906,-198.53
59.921,-167.72
59.937,-130.04
59.953,-93.7
59.968,-65.97
59.984,-51.35
