timestamp,value
00.000,-101.85
00.015,-133.49
00.031,-173.27
00.046,-219.95
00.062,-271.11
00.078,-323.46
00.093,-373.82
00.109,-419.28
00.125,-457.39
00.140,-485.98
00.156,-502.8
00.171,-505.6
00.187,-492.37
00.203,-462.29
00.218,-416.2
00.234,-356.99
00.250,-289.19
00.265,-217.8
00.281,-147.16
00.296,-80.18
00.312,-18.17
00.328,38.72
00.343,90.54
00.359,137.17
00.375,178.18
00.390,213.26
00.406,242.61
00.421,266.94
00.437,287.24
00.453,304.15
00.468,317.81
00.484,327.83
00.500,333.4
00.515,333.69
00.531,328.49
00.546,317.94
00.562,302.81
00.578,284.19
00.593,262.99
00.609,239.8
00.625,214.81
00.640,187.81
00.656,158.74
00.671,128.27
00.687,97.85
00.703,69.6
00.718,45.67
00.734,27.45
00.750,14.92
00.765,6.8
00.781,1.17
00.796,-3.72
00.812,-8.53
00.828,-12.73
00.843,-15.12
00.859,-14.68
00.875,-11.36
00.890,-6.06
00.906,-0.07
00.921,5.92
00.937,12.09
00.953,19.41
00.968,28.69
00.984,39.89
01.000,51.74
01.015,62.15
01.031,69.36
01.046,72.57
01.062,72.54
01.078,70.86
01.093,69.14
01.109,68.11
01.125,67.46
01.140,66.47
01.156,64.63
01.171,62.51
01.187,61.64
01.203,63.95
01.218,70.57
01.234,81.25
01.250,94.17
01.265,106.51
01.281,115.82
01.296,120.88
01.312,122.03
01.328,120.43
01.343,117.1
01.359,111.98
01.375,103.94
01.390,91.58
01.406,74.05
01.421,51.95
01.437,26.89
01.453,0.97
01.468,-24.33
01.484,-48.16
01.500,-70.35
01.515,-90.67
01.531,-108.39
01.546,-122.7
01.562,-132.66
01.578,-138.05
01.593,-139.36
01.609,-137.63
01.625,-133.96
01.640,-129.01
01.656,-123.2
01.671,-116.55
01.687,-109.36
01.703,-102.04
01.718,-95.3
01.734,-89.85
01.750,-85.98
01.765,-83.7
01.781,-82.4
01.796,-81.32
01.812,-79.63
01.828,-76.78
01.843,-72.53
01.859,-67.06
01.875,-60.93
01.890,-54.65
01.906,-48.75
01.921,-43.56
01.937,-39.21
01.953,-35.63
01.968,-32.94
01.984,-31.27
02.000,-31.07
02.015,-32.86
02.031,-36.88
02.046,-42.96
02.062,-50.37
02.078,-57.95
02.093,-64.36
02.109,-68.57
02.125,-70.09
02.140,-69.0
02.156,-65.62
02.171,-60.25
02.187,-53.01
02.203,-43.88
02.218,-32.95
02.234,-20.8
02.250,-8.46
02.265,2.77
02.281,11.78
02.296,18.1
02.312,22.0
02.328,24.28
02.343,25.8
02.359,27.22
02.375,28.6
02.390,29.57
02.406,29.73
02.421,28.99
02.437,27.78
02.453,26.89
02.468,27.06
02.484,28.54
02.500,30.8
02.515,32.91
02.531,33.84
02.546,33.09
02.562,30.95
02.578,28.35
02.593,26.19
02.609,24.92
02.625,24.45
02.640,24.19
02.656,23.96
02.671,24.2
02.687,25.76
02.703,29.43
02.718,35.3
02.734,42.38
02.750,48.84
02.765,52.72
02.781,52.76
02.796,48.99
02.812,42.7
02.828,35.67
02.843,29.5
02.859,25.06
02.875,22.4
02.890,21.23
02.906,21.42
02.921,23.31
02.937,27.94
02.953,36.16
02.968,47.98
02.984,62.34
03.000,77.25
03.015,90.59
03.031,100.94
03.046,107.94
03.062,112.3
03.078,115.57
03.093,119.15
03.109,123.49
03.125,128.27
03.140,132.6
03.156,135.71
03.171,137.62
03.187,139.08
03.203,141.04
03.218,144.26
03.234,148.36
03.250,151.08
03.265,149.44
03.281,140.85
03.296,124.27
03.312,100.73
03.328,72.6
03.343,42.23
03.359,11.05
03.375,-21.12
03.390,-56.68
03.406,-98.62
03.421,-149.51
03.437,-210.55
03.453,-281.14
03.468,-359.24
03.484,-441.9
03.500,-525.46
03.515,-598.01
03.531,-646.39
03.546,-658.6
03.562,-628.38
03.578,-558.75
03.593,-460.97
03.609,-350.4
03.625,-241.3
03.640,-143.31
03.656,-60.82
03.671,5.23
03.687,56.41
03.703,95.49
03.718,125.69
03.734,150.88
03.750,174.94
03.765,200.66
03.781,229.38
03.796,260.3
03.812,290.46
03.828,315.99
03.843,334.29
03.859,342.88
03.875,341.02
03.890,329.77
03.906,311.12
03.921,287.47
03.937,260.79
03.953,232.13
03.968,202.27
03.984,172.0
04.000,142.26
04.015,114.38
04.031,89.65
04.046,68.49
04.062,50.64
04.078,34.82
04.093,19.21
04.109,2.26
04.125,-16.78
04.140,-37.83
04.156,-60.48
04.171,-81.97
04.187,-101.33
04.203,-118.59
04.218,-134.69
04.234,-151.12
04.250,-169.51
04.265,-191.64
04.281,-218.19
04.296,-248.01
04.312,-277.23
04.328,-300.0
04.343,-309.73
04.359,-302.09
04.375,-276.93
04.390,-239.01
04.406,-196.57
04.421,-157.78
04.437,-127.38
04.453,-105.11
04.468,-87.24
04.484,-68.92
04.500,-47.53
04.515,-23.73
04.531,-0.94
04.546,17.02
04.562,28.34
04.578,33.89
04.593,36.39
04.609,38.54
04.625,41.71
04.640,45.65
04.656,49.39
04.671,52.51
04.687,55.27
04.703,58.47
04.718,62.01
04.734,63.93
04.750,60.58
04.765,48.19
04.781,24.74
04.796,-8.85
04.812,-48.8
04.828,-90.61
04.843,-130.69
04.859,-167.29
04.875,-200.22
04.890,-229.43
04.906,-253.67
04.921,-270.48
04.937,-277.09
04.953,-271.88
04.968,-255.71
04.984,-231.59
05.000,-203.55
05.015,-175.0
05.031,-147.93
05.046,-122.93
05.062,-99.95
05.078,-78.92
05.093,-60.12
05.109,-44.09
05.125,-30.79
05.140,-19.35
05.156,-8.07
05.171,5.41
05.187,23.27
05.203,46.78
05.218,75.97
05.234,109.74
05.250,145.79
05.265,181.37
05.281,213.95
05.296,241.64
05.312,263.96
05.328,281.5
05.343,294.98
05.359,304.57
05.375,309.71
05.390,309.45
05.406,303.17
05.421,291.2
05.437,274.86
05.453,256.12
05.468,236.74
05.484,217.64
05.500,198.87
05.515,179.97
05.531,160.65
05.546,141.26
05.562,122.63
05.578,105.59
05.593,90.84
05.609,78.44
05.625,67.92
05.640,58.52
05.656,49.53
05.671,40.35
05.687,30.91
05.703,21.51
05.718,12.47
05.734,4.15
05.750,-3.4
05.765,-10.34
05.781,-16.97
05.796,-23.48
05.812,-29.95
05.828,-36.07
05.843,-41.19
05.859,-44.66
05.875,-45.92
05.890,-44.8
05.906,-41.43
05.921,-36.21
05.937,-29.55
05.953,-21.83
05.968,-13.48
05.984,-4.9
06.000,3.36
06.015,10.74
06.031,16.69
06.046,20.9
06.062,23.41
06.078,24.67
06.093,25.31
06.109,25.72
06.125,26.16
06.140,26.44
06.156,26.36
06.171,25.85
06.187,25.01
06.203,24.13
06.218,23.4
06.234,23.02
06.250,22.67
06.265,22.1
06.281,20.94
06.296,19.15
06.312,16.95
06.328,14.58
06.343,12.24
06.359,9.76
06.375,6.91
06.390,3.44
06.406,-0.52
06.421,-4.78
06.437,-8.81
06.453,-12.11
06.468,-14.57
06.484,-16.28
06.500,-17.81
06.515,-19.79
06.531,-22.75
06.546,-26.74
06.562,-31.53
06.578,-36.38
06.593,-40.33
06.609,-42.65
06.625,-42.85
06.640,-40.89
06.656,-36.96
06.671,-31.52
06.687,-24.85
06.703,-17.25
06.718,-9.11
06.734,-0.8
06.750,7.2
06.765,14.44
06.781,20.49
06.796,25.28
06.812,28.78
06.828,31.19
06.843,32.82
06.859,33.82
06.875,34.33
06.890,34.37
06.906,34.19
06.921,33.89
06.937,33.73
06.953,33.83
06.968,34.06
06.984,34.26
07.000,34.08
07.015,33.18
07.031,31.33
07.046,28.64
07.062,25.37
07.078,21.91
07.093,18.53
07.109,15.23
07.125,11.96
07.140,8.41
07.156,4.49
07.171,0.24
07.187,-4.09
07.203,-8.01
07.218,-11.13
07.234,-13.46
07.250,-15.35
07.265,-17.21
07.281,-19.67
07.296,-22.95
07.312,-27.01
07.328,-31.57
07.343,-36.12
07.359,-40.09
07.375,-43.06
07.390,-44.66
07.406,-44.43
07.421,-42.19
07.437,-37.77
07.453,-31.26
07.468,-23.12
07.484,-14.1
07.500,-5.02
07.515,3.36
07.531,10.49
07.546,16.29
07.562,20.9
07.578,24.68
07.593,28.09
07.609,31.18
07.625,33.72
07.640,35.32
07.656,35.66
07.671,34.72
07.687,32.89
07.703,30.7
07.718,28.76
07.734,27.42
07.750,26.61
07.765,25.98
07.781,25.22
07.796,24.14
07.812,22.74
07.828,21.24
07.843,19.71
07.859,18.19
07.875,16.47
07.890,14.26
07.906,11.3
07.921,7.55
07.937,3.2
07.953,-1.46
07.968,-6.06
07.984,-10.41
08.000,-14.42
08.015,-18.18
08.031,-21.85
08.046,-25.44
08.062,-28.88
08.078,-32.02
08.093,-34.75
08.109,-37.0
08.125,-39.0
08.140,-41.02
08.156,-43.26
08.171,-45.75
08.187,-47.92
08.203,-48.83
08.218,-47.54
08.234,-43.5
08.250,-36.83
08.265,-28.33
08.281,-19.15
08.296,-10.22
08.312,-2.18
08.328,4.89
08.343,11.21
08.359,17.07
08.375,22.46
08.390,27.14
08.406,30.77
08.421,33.12
08.437,34.44
08.453,35.0
08.468,35.15
08.484,34.95
08.500,34.42
08.515,33.3
08.531,31.5
08.546,29.14
08.562,26.52
08.578,24.24
08.593,22.68
08.609,21.86
08.625,21.33
08.640,20.62
08.656,19.22
08.671,17.05
08.687,14.46
08.703,11.95
08.718,10.07
08.734,9.09
08.750,8.81
08.765,8.72
08.781,8.29
08.796,7.23
08.812,5.54
08.828,3.64
08.843,1.87
08.859,0.6
08.875,0.02
08.890,-0.05
08.906,0.08
08.921,-0.05
08.937,-0.74
08.953,-2.2
08.968,-4.23
08.984,-6.64
09.000,-8.86
09.015,-10.09
09.031,-9.46
09.046,-6.01
09.062,0.95
09.078,11.89
09.093,26.68
09.109,44.76
09.125,64.7
09.140,85.07
09.156,104.11
09.171,120.32
09.187,132.33
09.203,139.05
09.218,139.58
09.234,133.2
09.250,119.45
09.265,97.87
09.281,68.19
09.296,30.46
09.312,-14.64
09.328,-65.33
09.343,-118.42
09.359,-169.7
09.375,-214.35
09.390,-248.17
09.406,-268.49
09.421,-274.73
09.437,-268.12
09.453,-251.22
09.468,-227.19
09.484,-199.25
09.500,-170.5
09.515,-143.39
09.531,-119.6
09.546,-99.83
09.562,-83.74
09.578,-70.21
09.593,-58.04
09.609,-46.39
09.625,-35.17
09.640,-24.78
09.656,-15.76
09.671,-8.26
09.687,-1.93
09.703,4.05
09.718,10.65
09.734,18.44
09.750,27.23
09.765,36.08
09.781,43.54
09.796,48.29
09.812,49.73
09.828,48.1
09.843,44.45
09.859,40.03
09.875,35.8
09.890,32.09
09.906,28.84
09.921,25.84
09.937,23.09
09.953,20.94
09.968,19.7
09.984,19.45
10.000,19.96
10.015,20.67
10.031,21.24
10.046,21.72
10.062,22.41
10.078,23.74
10.093,26.06
10.109,29.31
10.125,33.2
10.140,37.28
10.156,41.14
10.171,44.36
10.187,46.72
10.203,48.15
10.218,48.76
10.234,48.92
10.250,48.84
10.265,48.71
10.281,48.27
10.296,47.03
10.312,44.44
10.328,40.21
10.343,34.45
10.359,27.58
10.375,20.29
10.390,12.95
10.406,5.89
10.421,-0.83
10.437,-7.15
10.453,-12.87
10.468,-17.69
10.484,-21.44
10.500,-24.14
10.515,-26.03
10.531,-27.62
10.546,-29.23
10.562,-31.11
10.578,-33.36
10.593,-35.96
10.609,-38.88
10.625,-42.08
10.640,-45.47
10.656,-48.6
10.671,-50.85
10.687,-51.42
10.703,-49.61
10.718,-45.19
10.734,-38.44
10.750,-30.22
10.765,-21.64
10.781,-13.8
10.796,-7.29
10.812,-2.12
10.828,2.19
10.843,6.18
10.859,10.04
10.875,13.65
10.890,16.45
10.906,18.0
10.921,18.25
10.937,17.64
10.953,16.9
10.968,16.76
10.984,17.57
11.000,19.13
11.015,20.92
11.031,22.29
11.046,22.78
11.062,22.33
11.078,21.04
11.093,18.93
11.109,15.79
11.125,11.26
11.140,5.13
11.156,-2.38
11.171,-10.45
11.187,-17.85
11.203,-23.3
11.218,-25.89
11.234,-25.55
11.250,-23.01
11.265,-19.53
11.281,-16.45
11.296,-14.64
11.312,-14.23
11.328,-14.71
11.343,-15.2
11.359,-15.01
11.375,-14.05
11.390,-12.96
11.406,-13.12
11.421,-16.11
11.437,-22.82
11.453,-33.1
11.468,-45.65
11.484,-58.32
11.500,-68.93
11.515,-75.81
11.531,-78.03
11.546,-75.5
11.562,-68.51
11.578,-57.44
11.593,-42.64
11.609,-24.67
11.625,-4.4
11.640,16.95
11.656,37.86
11.671,56.86
11.687,72.47
11.703,83.4
11.718,88.5
11.734,87.04
11.750,79.02
11.765,65.44
11.781,48.26
11.796,30.21
11.812,14.27
11.828,2.96
11.843,-2.0
11.859,-0.26
11.875,7.18
11.890,18.19
11.906,30.0
11.921,39.86
11.937,45.77
11.953,47.01
11.968,44.0
11.984,37.81
12.000,29.56
12.015,20.04
12.031,9.81
12.046,-0.38
12.062,-9.5
12.078,-16.35
12.093,-20.06
12.109,-20.49
12.125,-18.5
12.140,-15.37
12.156,-12.24
12.171,-9.53
12.187,-6.9
12.203,-3.57
12.218,1.09
12.234,7.07
12.250,13.88
12.265,20.55
12.281,25.96
12.296,29.2
12.312,29.7
12.328,27.29
12.343,22.29
12.359,15.31
12.375,7.04
12.390,-1.94
12.406,-11.24
12.421,-20.61
12.437,-29.6
12.453,-37.54
12.468,-43.47
12.484,-46.37
12.500,-45.56
12.515,-40.83
12.531,-32.46
12.546,-21.04
12.562,-7.25
12.578,8.27
12.593,24.61
12.609,40.48
12.625,54.31
12.640,64.59
12.656,70.31
12.671,71.37
12.687,68.41
12.703,62.51
12.718,54.82
12.734,46.19
12.750,37.31
12.765,28.84
12.781,21.48
12.796,15.72
12.812,11.66
12.828,8.75
12.843,6.02
12.859,2.5
12.875,-2.5
12.890,-9.0
12.906,-16.53
12.921,-24.45
12.937,-32.2
12.953,-39.4
12.968,-45.77
12.984,-51.05
13.000,-54.99
13.015,-57.4
13.031,-58.34
13.046,-58.23
13.062,-57.83
13.078,-58.01
13.093,-59.42
13.109,-62.33
13.125,-66.49
13.140,-71.34
13.156,-76.13
13.171,-80.14
13.187,-83.0
13.203,-84.5
13.218,-84.75
13.234,-83.91
13.250,-82.15
13.265,-79.62
13.281,-76.2
13.296,-71.56
13.312,-64.84
13.328,-54.89
13.343,-40.52
13.359,-21.1
13.375,2.89
13.390,29.92
13.406,57.71
13.421,83.97
13.437,107.06
13.453,126.15
13.468,141.04
13.484,151.55
13.500,157.12
13.515,156.66
13.531,149.16
13.546,134.3
13.562,112.82
13.578,86.43
13.593,57.22
13.609,27.11
13.625,-2.45
13.640,-30.35
13.656,-55.66
13.671,-76.99
13.687,-92.75
13.703,-101.5
13.718,-102.59
13.734,-96.6
13.750,-85.31
13.765,-71.01
13.781,-55.85
13.796,-41.4
13.812,-28.54
13.828,-17.82
13.843,-9.64
13.859,-4.3
13.875,-2.01
13.890,-2.48
13.906,-4.91
13.921,-7.99
13.937,-10.24
13.953,-10.46
13.968,-8.02
13.984,-3.04
14.000,3.99
14.015,12.22
14.031,20.8
14.046,29.05
14.062,36.43
14.078,42.59
14.093,47.07
14.109,49.27
14.125,48.62
14.140,44.8
14.156,37.92
14.171,28.44
14.187,17.28
14.203,5.29
14.218,-6.66
14.234,-18.0
14.250,-28.41
14.265,-37.71
14.281,-45.66
14.296,-51.74
14.312,-55.37
14.328,-55.76
14.343,-52.28
14.359,-44.44
14.375,-32.27
14.390,-16.32
14.406,2.16
14.421,21.32
14.437,38.81
14.453,52.21
14.468,59.41
14.484,59.02
14.500,51.03
14.515,36.74
14.531,18.67
14.546,-0.12
14.562,-16.82
14.578,-29.25
14.593,-36.13
14.609,-37.03
14.625,-32.29
14.640,-22.68
14.656,-9.26
14.671,6.48
14.687,22.85
14.703,37.57
14.718,48.45
14.734,53.64
14.750,52.14
14.765,44.02
14.781,30.33
14.796,13.01
14.812,-5.83
14.828,-23.93
14.843,-39.37
14.859,-50.22
14.875,-54.94
14.890,-52.53
14.906,-43.21
14.921,-28.66
14.937,-11.77
14.953,4.21
14.968,16.7
14.984,24.33
15.000,27.17
15.015,26.07
15.031,22.16
15.046,16.29
15.062,8.86
15.078,0.31
15.093,-8.72
15.109,-16.9
15.125,-22.68
15.140,-24.59
15.156,-21.81
15.171,-14.41
15.187,-3.17
15.203,10.34
15.218,24.54
15.234,37.81
15.250,48.71
15.265,56.02
15.281,58.7
15.296,56.08
15.312,48.02
15.328,35.4
15.343,19.56
15.359,2.32
15.375,-14.56
15.390,-29.61
15.406,-41.71
15.421,-50.0
15.437,-53.91
15.453,-53.22
15.468,-48.02
15.484,-39.04
15.500,-27.52
15.515,-15.18
15.531,-3.63
15.546,5.8
15.562,12.46
15.578,16.41
15.593,18.23
15.609,18.9
15.625,19.3
15.640,20.18
15.656,21.8
15.671,24.26
15.687,27.73
15.703,32.38
15.718,38.63
15.734,46.99
15.750,57.83
15.765,71.1
15.781,86.18
15.796,101.74
15.812,116.01
15.828,127.02
15.843,132.93
15.859,132.43
15.875,125.21
15.890,111.86
15.906,93.78
15.921,72.93
15.937,51.29
15.953,30.64
15.968,12.31
15.984,-2.97
16.000,-14.97
16.015,-23.84
16.031,-29.85
16.046,-33.32
16.062,-34.58
16.078,-34.1
16.093,-32.59
16.109,-30.82
16.125,-29.61
16.140,-29.37
16.156,-30.23
16.171,-32.0
16.187,-34.47
16.203,-37.48
16.218,-41.09
16.234,-45.47
16.250,-50.49
16.265,-55.75
16.281,-60.53
16.296,-64.28
16.312,-66.72
16.328,-67.87
16.343,-67.85
16.359,-66.72
16.375,-64.28
16.390,-60.1
16.406,-53.78
16.421,-45.07
16.437,-34.29
16.453,-22.22
16.468,-9.98
16.484,1.36
16.500,10.91
16.515,18.2
16.531,23.26
16.546,26.37
16.562,28.06
16.578,28.87
16.593,29.17
16.609,29.12
16.625,28.78
16.640,28.1
16.656,26.96
16.671,25.46
16.687,23.71
16.703,21.94
16.718,20.45
16.734,19.43
16.750,18.87
16.765,18.61
16.781,18.39
16.796,17.8
16.812,16.71
16.828,15.16
16.843,13.43
16.859,11.81
16.875,10.37
16.890,8.91
16.906,6.91
16.921,3.88
16.937,-0.72
16.953,-6.95
16.968,-14.64
16.984,-23.29
17.000,-32.37
17.015,-41.45
17.031,-50.2
17.046,-58.37
17.062,-65.64
17.078,-71.65
17.093,-76.01
17.109,-78.48
17.125,-78.8
17.140,-76.86
17.156,-72.66
17.171,-66.09
17.187,-56.95
17.203,-45.04
17.218,-30.41
17.234,-13.68
17.250,3.67
17.265,19.62
17.281,32.31
17.296,40.22
17.312,43.17
17.328,41.97
17.343,38.14
17.359,33.17
17.375,27.89
17.390,22.26
17.406,15.81
17.421,8.4
17.437,0.58
17.453,-6.21
17.468,-10.21
17.484,-10.15
17.500,-5.69
17.515,2.33
17.531,12.37
17.546,22.93
17.562,33.13
17.578,42.82
17.593,52.07
17.609,60.5
17.625,66.98
17.640,69.97
17.656,68.11
17.671,61.06
17.687,49.74
17.703,35.99
17.718,21.85
17.734,8.83
17.750,-2.62
17.765,-12.81
17.781,-22.18
17.796,-30.79
17.812,-38.07
17.828,-43.1
17.843,-45.32
17.859,-44.83
17.875,-42.65
17.890,-40.02
17.906,-37.89
17.921,-36.44
17.937,-34.91
17.953,-32.06
17.968,-26.78
17.984,-18.76
18.000,-8.56
18.015,2.48
18.031,12.97
18.046,21.88
18.062,28.77
18.078,33.75
18.093,37.33
18.109,39.97
18.125,42.0
18.140,43.5
18.156,44.22
18.171,44.07
18.187,43.08
18.203,41.44
18.218,39.4
18.234,37.16
18.250,34.78
18.265,32.23
18.281,29.5
18.296,26.48
18.312,23.27
18.328,20.1
18.343,17.15
18.359,14.71
18.375,12.74
18.390,11.09
18.406,9.47
18.421,7.65
18.437,5.42
18.453,2.89
18.468,0.3
18.484,-2.07
18.500,-4.1
18.515,-5.95
18.531,-8.07
18.546,-10.84
18.562,-14.4
18.578,-18.64
18.593,-23.06
18.609,-27.18
18.625,-30.73
18.640,-33.62
18.656,-36.01
18.671,-38.22
18.687,-40.37
18.703,-42.49
18.718,-44.42
18.734,-45.98
18.750,-47.01
18.765,-47.49
18.781,-47.25
18.796,-46.0
18.812,-43.44
18.828,-39.3
18.843,-33.61
18.859,-26.79
18.875,-19.52
18.890,-12.62
18.906,-6.72
18.921,-2.1
18.937,1.31
18.953,3.87
18.968,5.97
18.984,8.06
19.000,10.23
19.015,12.58
19.031,14.94
19.046,17.09
19.062,18.88
19.078,20.18
19.093,20.96
19.109,21.26
19.125,21.2
19.140,20.81
19.156,20.19
19.171,19.32
19.187,18.2
19.203,16.83
19.218,15.26
19.234,13.54
19.250,11.61
19.265,9.37
19.281,6.74
19.296,3.91
19.312,1.21
19.328,-0.91
19.343,-2.12
19.359,-2.42
19.375,-2.0
19.390,-1.45
19.406,-1.28
19.421,-1.78
19.437,-2.87
19.453,-4.12
19.468,-5.18
19.484,-5.76
19.500,-6.02
19.515,-6.35
19.531,-7.31
19.546,-9.25
19.562,-12.22
19.578,-15.78
19.593,-19.2
19.609,-21.8
19.625,-22.97
19.640,-22.5
19.656,-20.31
19.671,-16.55
19.687,-11.49
19.703,-5.68
19.718,0.22
19.734,5.44
19.750,9.34
19.765,11.6
19.781,12.19
19.796,11.52
19.812,10.01
19.828,7.94
19.843,5.24
19.859,1.66
19.875,-3.08
19.890,-8.89
19.906,-15.3
19.921,-21.38
19.937,-26.06
19.953,-28.4
19.968,-27.86
19.984,-24.68
20.000,-19.74
20.015,-14.41
20.031,-10.04
20.046,-7.51
20.062,-6.98
20.078,-7.88
20.093,-9.28
20.109,-10.27
20.125,-10.24
20.140,-8.91
20.156,-6.19
20.171,-1.96
20.187,3.82
20.203,10.66
20.218,17.54
20.234,22.92
20.250,25.38
20.265,24.29
20.281,20.11
20.296,14.23
20.312,8.28
20.328,3.47
20.343,-0.18
20.359,-3.31
20.375,-6.91
20.390,-11.55
20.406,-17.06
20.421,-22.71
20.437,-27.56
20.453,-30.9
20.468,-32.4
20.484,-32.18
20.500,-30.29
20.515,-26.76
20.531,-21.44
20.546,-14.17
20.562,-5.07
20.578,5.41
20.593,16.32
20.609,26.33
20.625,33.96
20.640,38.09
20.656,38.13
20.671,34.11
20.687,26.78
20.703,17.04
20.718,5.72
20.734,-6.62
20.750,-19.52
20.765,-32.48
20.781,-44.47
20.796,-54.1
20.812,-60.08
20.828,-61.49
20.843,-58.44
20.859,-51.91
20.875,-43.21
20.890,-33.48
20.906,-23.22
20.921,-12.26
20.937,-0.43
20.953,12.11
20.968,24.56
20.984,35.45
21.000,43.28
21.015,46.95
21.031,46.25
21.046,41.82
21.062,34.93
21.078,26.78
21.093,18.41
21.109,10.54
21.125,3.85
21.140,-0.78
21.156,-2.34
21.171,-0.09
21.187,5.84
21.203,14.2
21.218,22.64
21.234,28.7
21.250,30.76
21.265,28.75
21.281,24.07
21.296,18.98
21.312,15.46
21.328,14.45
21.343,15.79
21.359,18.45
21.375,21.36
21.390,23.75
21.406,25.28
21.421,25.95
21.437,25.75
21.453,24.51
21.468,22.09
21.484,18.53
21.500,14.14
21.515,9.41
21.531,4.88
21.546,0.9
21.562,-2.29
21.578,-4.63
21.593,-6.02
21.609,-6.32
21.625,-5.29
21.640,-2.74
21.656,1.16
21.671,5.88
21.687,10.5
21.703,14.08
21.718,15.95
21.734,15.95
21.750,14.48
21.765,12.19
21.781,9.69
21.796,7.47
21.812,5.78
21.828,4.68
21.843,4.08
21.859,3.8
21.875,3.55
21.890,3.07
21.906,2.07
21.921,0.41
21.937,-1.97
21.953,-5.0
21.968,-8.7
21.984,-13.17
22.000,-18.36
22.015,-24.28
22.031,-30.53
22.046,-36.42
22.062,-41.01
22.078,-43.3
22.093,-42.41
22.109,-38.05
22.125,-30.63
22.140,-21.12
22.156,-11.17
22.171,-2.36
22.187,4.11
22.203,7.68
22.218,8.75
22.234,8.28
22.250,7.44
22.265,7.18
22.281,7.92
22.296,9.41
22.312,11.02
22.328,12.22
22.343,12.58
22.359,12.2
22.375,11.33
22.390,10.11
22.406,8.58
22.421,6.71
22.437,4.47
22.453,1.93
22.468,-0.82
22.484,-4.09
22.500,-8.54
22.515,-15.03
22.531,-24.14
22.546,-35.42
22.562,-47.33
22.578,-57.64
22.593,-64.22
22.609,-65.89
22.625,-63.19
22.640,-57.77
22.656,-51.8
22.671,-46.93
22.687,-43.71
22.703,-41.91
22.718,-40.87
22.734,-40.15
22.750,-39.72
22.765,-39.92
22.781,-40.91
22.796,-42.42
22.812,-43.8
22.828,-44.21
22.843,-43.28
22.859,-41.18
22.875,-38.49
22.890,-35.76
22.906,-33.06
22.921,-29.61
22.937,-24.07
22.953,-15.12
22.968,-2.06
22.984,14.84
23.000,34.1
23.015,53.38
23.031,70.1
23.046,82.08
23.062,88.05
23.078,87.96
23.093,82.73
23.109,73.93
23.125,63.3
23.140,52.12
23.156,40.98
23.171,29.84
23.187,18.63
23.203,7.63
23.218,-2.34
23.234,-10.25
23.250,-15.36
23.265,-17.55
23.281,-17.33
23.296,-15.23
23.312,-11.55
23.328,-6.07
23.343,1.42
23.359,10.62
23.375,20.35
23.390,28.83
23.406,34.51
23.421,36.71
23.437,35.91
23.453,33.16
23.468,29.59
23.484,25.55
23.500,20.81
23.515,14.8
23.531,7.25
23.546,-1.37
23.562,-10.06
23.578,-17.66
23.593,-23.47
23.609,-27.53
23.625,-30.44
23.640,-32.85
23.656,-35.14
23.671,-37.08
23.687,-37.84
23.703,-36.5
23.718,-32.3
23.734,-24.85
23.750,-14.31
23.765,-1.18
23.781,13.72
23.796,29.28
23.812,44.23
23.828,57.35
23.843,67.46
23.859,73.81
23.875,76.27
23.890,75.13
23.906,71.14
23.921,65.22
23.937,58.29
23.953,50.9
23.968,43.56
23.984,36.41
24.000,29.52
24.015,22.99
24.031,16.93
24.046,11.5
24.062,6.95
24.078,3.67
24.093,1.93
24.109,1.89
24.125,3.3
24.140,5.58
24.156,7.96
24.171,9.67
24.187,10.33
24.203,10.08
24.218,9.55
24.234,9.53
24.250,10.77
24.265,13.34
24.281,16.68
24.296,19.81
24.312,21.57
24.328,21.3
24.343,18.92
24.359,14.9
24.375,9.94
24.390,4.81
24.406,-0.29
24.421,-5.46
24.437,-10.94
24.453,-16.9
24.468,-23.01
24.484,-28.51
24.500,-32.48
24.515,-34.49
24.531,-34.5
24.546,-33.21
24.562,-31.56
24.578,-30.21
24.593,-29.49
24.609,-29.06
24.625,-28.43
24.640,-27.2
24.656,-25.52
24.671,-23.84
24.687,-22.69
24.703,-22.45
24.718,-23.0
24.734,-24.21
24.750,-25.55
24.765,-26.53
24.781,-26.72
24.796,-25.78
24.812,-23.6
24.828,-20.22
24.843,-15.85
24.859,-10.69
24.875,-5.28
24.890,-0.13
24.906,4.07
24.921,6.61
24.937,7.03
24.953,5.23
24.968,1.56
24.984,-3.41
25.000,-8.94
25.015,-14.6
25.031,-19.97
25.046,-24.53
25.062,-27.49
25.078,-27.78
25.093,-24.58
25.109,-17.71
25.125,-8.05
25.140,2.7
25.156,12.55
25.171,19.87
25.187,23.95
25.203,24.97
25.218,23.79
25.234,21.28
25.250,18.0
25.265,14.09
25.281,9.47
25.296,4.26
25.312,-1.09
25.328,-5.69
25.343,-8.5
25.359,-8.7
25.375,-6.03
25.390,-0.93
25.406,5.69
25.421,12.9
25.437,20.01
25.453,26.98
25.468,34.13
25.484,41.81
25.500,50.02
25.515,58.17
25.531,65.18
25.546,69.94
25.562,71.72
25.578,70.41
25.593,66.58
25.609,61.15
25.625,55.05
25.640,48.83
25.656,42.77
25.671,36.79
25.687,30.89
25.703,25.15
25.718,19.72
25.734,14.75
25.750,10.19
25.765,5.9
25.781,1.62
25.796,-2.77
25.812,-7.12
25.828,-11.04
25.843,-14.04
25.859,-15.85
25.875,-16.41
25.890,-16.13
25.906,-15.54
25.921,-15.15
25.937,-15.29
25.953,-16.0
25.968,-17.23
25.984,-18.84
26.000,-20.79
26.015,-23.08
26.031,-25.71
26.046,-28.72
26.062,-31.94
26.078,-35.19
26.093,-38.25
26.109,-41.02
26.125,-43.27
26.140,-44.88
26.156,-45.58
26.171,-45.08
26.187,-43.25
26.203,-39.94
26.218,-35.25
26.234,-29.48
26.250,-23.22
26.265,-16.99
26.281,-11.26
26.296,-6.24
26.312,-1.91
26.328,1.84
26.343,5.23
26.359,8.34
26.375,11.11
26.390,13.3
26.406,14.77
26.421,15.46
26.437,15.54
26.453,15.4
26.468,15.38
26.484,15.72
26.500,16.42
26.515,17.19
26.531,17.72
26.546,17.75
26.562,17.19
26.578,16.18
26.593,15.03
26.609,13.83
26.625,12.65
26.640,11.26
26.656,9.43
26.671,7.14
26.687,4.5
26.703,1.83
26.718,-0.59
26.734,-2.66
26.750,-4.55
26.765,-6.48
26.781,-8.78
26.796,-11.48
26.812,-14.35
26.828,-17.11
26.843,-19.46
26.859,-21.29
26.875,-22.86
26.890,-24.5
26.906,-26.44
26.921,-28.8
26.937,-31.22
26.953,-33.04
26.968,-33.52
26.984,-32.14
27.000,-28.67
27.015,-23.46
27.031,-17.2
27.046,-10.6
27.062,-4.43
27.078,0.96
27.093,5.43
27.109,9.06
27.125,12.01
27.140,14.43
27.156,16.33
27.171,17.79
27.187,18.97
27.203,19.92
27.218,20.79
27.234,21.44
27.250,21.56
27.265,20.96
27.281,19.57
27.296,17.58
27.312,15.5
27.328,13.84
27.343,12.81
27.359,12.45
27.375,12.32
27.390,11.89
27.406,10.79
27.421,8.89
27.437,6.43
27.453,3.87
27.468,1.65
27.484,-0.08
27.500,-1.36
27.515,-2.42
27.531,-3.54
27.546,-4.74
27.562,-6.05
27.578,-7.33
27.593,-8.59
27.609,-9.96
27.625,-11.75
27.640,-14.11
27.656,-17.04
27.671,-20.43
27.687,-23.97
27.703,-27.39
27.718,-30.52
27.734,-33.28
27.750,-35.56
27.765,-37.16
27.781,-37.64
27.796,-36.46
27.812,-33.27
27.828,-27.95
27.843,-20.95
27.859,-12.99
27.875,-5.13
27.890,1.69
27.906,7.01
27.921,10.76
27.937,13.3
27.953,15.17
27.968,16.77
27.984,18.22
28.000,19.42
28.015,20.11
28.031,20.12
28.046,19.46
28.062,18.34
28.078,17.02
28.093,15.69
28.109,14.44
28.125,13.39
28.140,12.54
28.156,11.96
28.171,11.69
28.187,11.75
28.203,12.09
28.218,12.59
28.234,12.99
28.250,13.03
28.265,12.54
28.281,11.37
28.296,9.55
28.312,7.2
28.328,4.59
28.343,1.8
28.359,-1.1
28.375,-4.1
28.390,-7.29
28.406,-10.59
28.421,-13.85
28.437,-16.95
28.453,-19.66
28.468,-21.99
28.484,-24.08
28.500,-26.13
28.515,-28.43
28.531,-31.17
28.546,-34.43
28.562,-38.1
28.578,-41.85
28.593,-45.11
28.609,-47.38
28.625,-48.13
28.640,-46.99
28.656,-43.91
28.671,-39.16
28.687,-33.07
28.703,-26.17
28.718,-18.79
28.734,-11.17
28.750,-3.69
28.765,3.32
28.781,9.58
28.796,14.87
28.812,19.05
28.828,22.32
28.843,24.83
28.859,26.67
28.875,27.86
28.890,28.23
28.906,27.63
28.921,26.17
28.937,24.14
28.953,21.98
28.968,20.12
28.984,18.71
29.000,17.6
29.015,16.49
29.031,15.04
29.046,13.18
29.062,11.1
29.078,8.97
29.093,7.07
29.109,5.31
29.125,3.33
29.140,0.85
29.156,-2.2
29.171,-5.62
29.187,-8.88
29.203,-11.49
29.218,-13.31
29.234,-14.37
29.250,-15.1
29.265,-16.01
29.281,-17.37
29.296,-19.06
29.312,-20.95
29.328,-22.69
29.343,-24.04
29.359,-25.03
29.375,-25.79
29.390,-26.66
29.406,-28.05
29.421,-30.33
29.437,-33.54
29.453,-37.6
29.468,-42.03
29.484,-46.12
29.500,-48.93
29.515,-49.53
29.531,-47.24
29.546,-41.66
29.562,-32.88
29.578,-21.45
29.593,-8.42
29.609,4.88
29.625,16.96
29.640,26.84
29.656,34.22
29.671,39.42
29.687,43.32
29.703,46.65
29.718,49.76
29.734,52.48
29.750,54.41
29.765,55.14
29.781,54.61
29.796,53.16
29.812,51.17
29.828,48.9
29.843,46.33
29.859,43.35
29.875,39.9
29.890,36.14
29.906,32.31
29.921,28.61
29.937,25.05
29.953,21.46
29.968,17.61
29.984,13.22
30.000,8.24
30.015,2.73
30.031,-3.08
30.046,-8.89
30.062,-14.45
30.078,-19.76
30.093,-25.0
30.109,-30.42
30.125,-36.3
30.140,-42.71
30.156,-49.42
30.171,-56.19
30.187,-62.59
30.203,-68.39
30.218,-73.63
30.234,-78.5
30.250,-83.05
30.265,-87.05
30.281,-89.69
30.296,-89.69
30.312,-85.59
30.328,-76.11
30.343,-60.6
30.359,-39.43
30.375,-14.17
30.390,12.61
30.406,37.7
30.421,58.23
30.437,72.22
30.453,79.22
30.468,80.18
30.484,77.05
30.500,71.9
30.515,66.3
30.531,60.94
30.546,55.78
30.562,50.59
30.578,45.34
30.593,40.32
30.609,35.87
30.625,32.32
30.640,29.71
30.656,28.0
30.671,27.13
30.687,27.15
30.703,28.36
30.718,30.98
30.734,34.83
30.750,39.39
30.765,43.76
30.781,46.92
30.796,48.12
30.812,46.97
30.828,43.64
30.843,38.67
30.859,32.87
30.875,26.89
30.890,21.2
30.906,15.91
30.921,10.84
30.937,5.83
30.953,0.69
30.968,-4.55
30.984,-9.78
31.000,-14.74
31.015,-19.32
31.031,-23.4
31.046,-26.96
31.062,-30.14
31.078,-33.04
31.093,-35.77
31.109,-38.55
31.125,-41.55
31.140,-44.63
31.156,-47.46
31.171,-49.3
31.187,-49.4
31.203,-47.23
31.218,-42.61
31.234,-35.91
31.250,-27.92
31.265,-19.54
31.281,-11.52
31.296,-4.3
31.312,2.09
31.328,7.75
31.343,12.7
31.359,16.96
31.375,20.29
31.390,22.52
31.406,23.72
31.421,24.12
31.437,24.11
31.453,24.06
31.468,24.12
31.484,24.17
31.500,24.05
31.515,23.46
31.531,22.39
31.546,21.23
31.562,20.27
31.578,19.79
31.593,19.75
31.609,19.92
31.625,19.8
31.640,19.09
31.656,17.56
31.671,15.27
31.687,12.59
31.703,9.78
31.718,7.03
31.734,4.37
31.750,1.74
31.765,-0.92
31.781,-3.57
31.796,-6.17
31.812,-8.64
31.828,-10.97
31.843,-13.29
31.859,-15.8
31.875,-18.64
31.890,-21.86
31.906,-25.32
31.921,-28.65
31.937,-31.58
31.953,-34.03
31.968,-36.15
31.984,-38.33
32.000,-40.76
32.015,-43.43
32.031,-45.96
32.046,-47.66
32.062,-47.74
32.078,-45.58
32.093,-41.04
32.109,-34.4
32.125,-26.4
32.140,-17.79
32.156,-9.27
32.171,-1.38
32.187,5.62
32.203,11.66
32.218,16.68
32.234,20.73
32.250,23.85
32.265,26.09
32.281,27.68
32.296,28.79
32.312,29.63
32.328,30.29
32.343,30.74
32.359,30.85
32.375,30.43
32.390,29.37
32.406,27.67
32.421,25.43
32.437,22.94
32.453,20.45
32.468,18.18
32.484,16.14
32.500,14.36
32.515,12.78
32.531,11.33
32.546,10.09
32.562,8.95
32.578,7.97
32.593,7.08
32.609,6.2
32.625,5.25
32.640,4.15
32.656,2.88
32.671,1.33
32.687,-0.61
32.703,-3.1
32.718,-6.19
32.734,-9.82
32.750,-13.82
32.765,-17.85
32.781,-21.56
32.796,-24.66
32.812,-27.01
32.828,-28.71
32.843,-30.14
32.859,-31.67
32.875,-33.51
32.890,-35.6
32.906,-37.46
32.921,-38.34
32.937,-37.55
32.953,-34.68
32.968,-29.64
32.984,-22.95
33.000,-15.27
33.015,-7.29
33.031,0.37
33.046,7.29
33.062,13.23
33.078,18.05
33.093,21.69
33.109,24.13
33.125,25.48
33.140,25.79
33.156,25.38
33.171,24.56
33.187,23.66
33.203,22.83
33.218,22.0
33.234,21.12
33.250,19.99
33.265,18.71
33.281,17.4
33.296,16.34
33.312,15.64
33.328,15.48
33.343,15.64
33.359,15.78
33.375,15.63
33.390,14.97
33.406,13.71
33.421,12.0
33.437,10.03
33.453,7.96
33.468,5.91
33.484,3.81
33.500,1.53
33.515,-1.0
33.531,-3.65
33.546,-6.32
33.562,-8.85
33.578,-11.14
33.593,-13.29
33.609,-15.49
33.625,-17.93
33.640,-20.74
33.656,-23.87
33.671,-27.18
33.687,-30.54
33.703,-33.89
33.718,-37.2
33.734,-40.41
33.750,-43.31
33.765,-45.28
33.781,-45.52
33.796,-43.24
33.812,-38.11
33.828,-30.44
33.843,-21.02
33.859,-11.02
33.875,-1.56
33.890,6.69
33.906,13.47
33.921,18.91
33.937,23.24
33.953,26.56
33.968,28.83
33.984,29.95
34.000,29.91
34.015,28.8
34.031,27.12
34.046,25.21
34.062,23.38
34.078,21.84
34.093,20.54
34.109,19.38
34.125,18.4
34.140,17.72
34.156,17.49
34.171,17.93
34.187,18.99
34.203,20.27
34.218,21.29
34.234,21.54
34.250,20.62
34.265,18.6
34.281,15.75
34.296,12.48
34.312,9.27
34.328,6.23
34.343,3.29
34.359,0.26
34.375,-3.0
34.390,-6.49
34.406,-10.04
34.421,-13.4
34.437,-16.49
34.453,-19.19
34.468,-21.6
34.484,-23.82
34.500,-25.97
34.515,-28.19
34.531,-30.57
34.546,-33.12
34.562,-35.83
34.578,-38.61
34.593,-41.06
34.609,-42.73
34.625,-43.07
34.640,-41.45
34.656,-37.56
34.671,-31.47
34.687,-23.49
34.703,-14.4
34.718,-5.08
34.734,3.69
34.750,11.37
34.765,17.66
34.781,22.64
34.796,26.48
34.812,29.4
34.828,31.55
34.843,32.99
34.859,33.65
34.875,33.56
34.890,32.87
34.906,31.77
34.921,30.56
34.937,29.4
34.953,28.33
34.968,27.28
34.984,26.16
35.000,24.89
35.015,23.56
35.031,22.3
35.046,21.16
35.062,20.13
35.078,18.99
35.093,17.41
35.109,15.26
35.125,12.55
35.140,9.49
35.156,6.56
35.171,3.97
35.187,1.85
35.203,-0.03
35.218,-2.03
35.234,-4.65
35.250,-7.97
35.265,-11.95
35.281,-16.3
35.296,-20.48
35.312,-24.27
35.328,-27.51
35.343,-30.32
35.359,-32.93
35.375,-35.66
35.390,-38.57
35.406,-41.52
35.421,-44.3
35.437,-46.49
35.453,-47.82
35.468,-47.95
35.484,-46.61
35.500,-43.51
35.515,-38.6
35.531,-31.97
35.546,-24.02
35.562,-15.5
35.578,-7.13
35.593,0.3
35.609,6.42
35.625,11.13
35.640,14.63
35.656,17.28
35.671,19.37
35.687,21.14
35.703,22.55
35.718,23.52
35.734,23.94
35.750,23.88
35.765,23.53
35.781,23.1
35.796,22.78
35.812,22.59
35.828,22.46
35.843,22.23
35.859,21.83
35.875,21.15
35.890,20.21
35.906,19.08
35.921,17.73
35.937,16.15
35.953,14.25
35.968,11.99
35.984,9.38
36.000,6.58
36.015,3.68
36.031,0.8
36.046,-2.0
36.062,-4.65
36.078,-7.13
36.093,-9.41
36.109,-11.45
36.125,-13.25
36.140,-14.74
36.156,-16.01
36.171,-17.16
36.187,-18.41
36.203,-20.03
36.218,-22.26
36.234,-25.18
36.250,-28.64
36.265,-32.18
36.281,-35.07
36.296,-36.5
36.312,-35.7
36.328,-32.31
36.343,-26.48
36.359,-18.69
36.375,-9.73
36.390,-0.52
36.406,8.16
36.421,15.72
36.437,21.79
36.453,26.3
36.468,29.19
36.484,30.49
36.500,30.42
36.515,29.38
36.531,27.8
36.546,26.17
36.562,24.74
36.578,23.54
36.593,22.46
36.609,21.39
36.625,20.31
36.640,19.39
36.656,18.71
36.671,18.31
36.687,18.18
36.703,18.01
36.718,17.49
36.734,16.46
36.750,14.99
36.765,13.25
36.781,11.57
36.796,10.06
36.812,8.76
36.828,7.63
36.843,6.41
36.859,4.88
36.875,2.87
36.890,0.39
36.906,-2.51
36.921,-5.67
36.937,-9.04
36.953,-12.53
36.968,-16.09
36.984,-19.81
37.000,-23.71
37.015,-27.66
37.031,-31.51
37.046,-35.02
37.062,-37.81
37.078,-39.51
37.093,-39.78
37.109,-38.18
37.125,-34.55
37.140,-28.9
37.156,-21.44
37.171,-12.83
37.187,-3.85
37.203,4.68
37.218,12.14
37.234,18.1
37.250,22.59
37.265,25.79
37.281,28.02
37.296,29.56
37.312,30.49
37.328,30.77
37.343,30.29
37.359,29.18
37.375,27.63
37.390,26.14
37.406,25.1
37.421,24.64
37.437,24.64
37.453,24.76
37.468,24.69
37.484,24.23
37.500,23.43
37.515,22.41
37.531,21.29
37.546,20.04
37.562,18.4
37.578,16.15
37.593,13.04
37.609,9.28
37.625,5.18
37.640,1.23
37.656,-2.26
37.671,-5.25
37.687,-7.92
37.703,-10.65
37.718,-13.62
37.734,-16.91
37.750,-20.29
37.765,-23.46
37.781,-26.25
37.796,-28.64
37.812,-30.89
37.828,-33.36
37.843,-36.32
37.859,-39.74
37.875,-43.28
37.890,-46.22
37.906,-47.69
37.921,-46.95
37.937,-43.58
37.953,-37.68
37.968,-29.84
37.984,-20.95
38.000,-11.84
38.015,-3.2
38.031,4.57
38.046,11.29
38.062,16.82
38.078,21.13
38.093,24.19
38.109,26.06
38.125,26.94
38.140,27.29
38.156,27.51
38.171,27.87
38.187,28.39
38.203,28.73
38.218,28.59
38.234,27.74
38.250,26.29
38.265,24.54
38.281,22.95
38.296,21.8
38.312,21.22
38.328,21.04
38.343,20.86
38.359,20.43
38.375,19.52
38.390,18.12
38.406,16.3
38.421,14.15
38.437,11.72
38.453,9.02
38.468,6.08
38.484,2.85
38.500,-0.58
38.515,-4.19
38.531,-7.96
38.546,-11.73
38.562,-15.33
38.578,-18.64
38.593,-21.55
38.609,-24.02
38.625,-26.22
38.640,-28.21
38.656,-30.1
38.671,-32.11
38.687,-34.35
38.703,-36.92
38.718,-39.91
38.734,-43.02
38.750,-45.57
38.765,-46.74
38.781,-45.59
38.796,-41.57
38.812,-34.82
38.828,-25.98
38.843,-16.23
38.859,-6.7
38.875,1.85
38.890,9.14
38.906,15.27
38.921,20.57
38.937,25.28
38.953,29.34
38.968,32.61
38.984,34.9
39.000,36.16
39.015,36.58
39.031,36.33
39.046,35.5
39.062,34.26
39.078,32.62
39.093,30.64
39.109,28.46
39.125,26.25
39.140,24.21
39.156,22.61
39.171,21.55
39.187,20.81
39.203,20.16
39.218,19.12
39.234,17.37
39.250,14.85
39.265,11.82
39.281,8.61
39.296,5.61
39.312,2.86
39.328,0.14
39.343,-2.8
39.359,-6.12
39.375,-9.75
39.390,-13.31
39.406,-16.38
39.421,-18.7
39.437,-20.26
39.453,-21.35
39.468,-22.47
39.484,-24.03
39.500,-26.19
39.515,-28.78
39.531,-31.34
39.546,-33.31
39.562,-34.16
39.578,-33.55
39.593,-31.27
39.609,-27.39
39.625,-22.03
39.640,-15.54
39.656,-8.4
39.671,-1.17
39.687,5.62
39.703,11.5
39.718,16.21
39.734,19.67
39.750,21.9
39.765,23.23
39.781,23.9
39.796,24.18
39.812,24.22
39.828,24.08
39.843,23.71
39.859,23.14
39.875,22.44
39.890,21.67
39.906,20.99
39.921,20.4
39.937,19.8
39.953,19.03
39.968,17.94
39.984,16.42
40.000,14.64
40.015,12.75
40.031,10.9
40.046,9.19
40.062,7.52
40.078,5.76
40.093,3.85
40.109,1.71
40.125,-0.68
40.140,-3.15
40.156,-5.65
40.171,-8.17
40.187,-10.69
40.203,-13.32
40.218,-16.04
40.234,-18.79
40.250,-21.48
40.265,-23.98
40.281,-26.17
40.296,-28.07
40.312,-29.92
40.328,-31.92
40.343,-34.26
40.359,-36.63
40.375,-38.5
40.390,-39.05
40.406,-37.63
40.421,-33.98
40.437,-28.33
40.453,-21.42
40.468,-14.08
40.484,-7.2
40.500,-1.11
40.515,4.04
40.531,8.36
40.546,11.98
40.562,14.85
40.578,16.79
40.593,17.75
40.609,17.81
40.625,17.23
40.640,16.6
40.656,16.35
40.671,16.74
40.687,17.87
40.703,19.46
40.718,21.18
40.734,22.84
40.750,24.34
40.765,25.72
40.781,27.09
40.796,28.32
40.812,29.01
40.828,28.75
40.843,26.92
40.859,23.5
40.875,18.71
40.890,13.19
40.906,7.7
40.921,2.71
40.937,-1.64
40.953,-5.75
40.968,-9.93
40.984,-14.64
41.000,-19.8
41.015,-24.97
41.031,-29.59
41.046,-33.03
41.062,-34.91
41.078,-35.22
41.093,-34.19
41.109,-32.14
41.125,-29.6
41.140,-27.07
41.156,-25.06
41.171,-24.07
41.187,-24.18
41.203,-25.18
41.218,-26.34
41.234,-26.63
41.250,-25.05
41.265,-21.04
41.281,-14.66
41.296,-6.61
41.312,1.88
41.328,9.85
41.343,16.38
41.359,21.19
41.375,24.42
41.390,26.34
41.406,27.26
41.421,27.38
41.437,26.84
41.453,25.65
41.468,24.21
41.484,22.8
41.500,21.71
41.515,21.15
41.531,21.06
41.546,21.17
41.562,21.15
41.578,20.85
41.593,20.19
41.609,19.41
41.625,18.91
41.640,18.93
41.656,19.49
41.671,20.08
41.687,19.82
41.703,17.61
41.718,12.62
41.734,4.54
41.750,-6.19
41.765,-18.54
41.781,-31.36
41.796,-43.51
41.812,-54.55
41.828,-64.36
41.843,-72.96
41.859,-80.03
41.875,-84.72
41.890,-85.73
41.906,-81.93
41.921,-72.86
41.937,-58.83
41.953,-41.22
41.968,-21.84
41.984,-2.5
42.000,15.1
42.015,29.55
42.031,39.73
42.046,44.64
42.062,44.01
42.078,38.51
42.093,29.79
42.109,20.15
42.125,11.95
42.140,6.76
42.156,4.98
42.171,6.0
42.187,8.5
42.203,11.26
42.218,13.56
42.234,15.35
42.250,16.98
42.265,18.97
42.281,21.42
42.296,24.15
42.312,26.88
42.328,29.26
42.343,31.11
42.359,32.46
42.375,33.37
42.390,33.82
42.406,33.67
42.421,32.47
42.437,29.89
42.453,25.78
42.468,20.13
42.484,13.1
42.500,4.94
42.515,-4.05
42.531,-13.22
42.546,-21.8
42.562,-28.91
42.578,-33.72
42.593,-35.69
42.609,-34.85
42.625,-31.71
42.640,-27.2
42.656,-22.43
42.671,-18.31
42.687,-15.41
42.703,-13.91
42.718,-13.66
42.734,-14.21
42.750,-14.96
42.765,-15.13
42.781,-14.04
42.796,-11.34
42.812,-7.15
42.828,-2.12
42.843,2.8
42.859,6.62
42.875,8.68
42.890,8.89
42.906,7.78
42.921,6.15
42.937,4.72
42.953,3.84
42.968,3.44
42.984,3.34
43.000,3.3
43.015,3.34
43.031,3.52
43.046,3.95
43.062,4.48
43.078,4.71
43.093,4.1
43.109,2.2
43.125,-0.98
43.140,-5.02
43.156,-9.25
43.171,-13.21
43.187,-16.83
43.203,-20.48
43.218,-24.7
43.234,-29.92
43.250,-36.08
43.265,-42.6
43.281,-48.5
43.296,-52.87
43.312,-55.03
43.328,-54.85
43.343,-52.5
43.359,-48.24
43.375,-42.23
43.390,-34.66
43.406,-25.79
43.421,-16.04
43.437,-5.95
43.453,4.4
43.468,15.27
43.484,27.13
43.500,40.02
43.515,53.16
43.531,64.68
43.546,72.13
43.562,73.47
43.578,67.84
43.593,56.19
43.609,40.8
43.625,24.44
43.640,9.53
43.656,-2.45
43.671,-10.92
43.687,-16.09
43.703,-18.33
43.718,-18.09
43.734,-15.73
43.750,-11.65
43.765,-6.39
43.781,-0.41
43.796,5.71
43.812,11.67
43.828,17.31
43.843,22.75
43.859,28.24
43.875,34.06
43.890,40.28
43.906,46.54
43.921,52.38
43.937,57.03
43.953,60.01
43.968,61.05
43.984,60.26
44.000,58.0
44.015,54.64
44.031,50.4
44.046,45.29
44.062,39.34
44.078,32.64
44.093,25.59
44.109,18.78
44.125,12.84
44.140,8.3
44.156,5.43
44.171,4.15
44.187,3.92
44.203,3.83
44.218,2.65
44.234,-0.69
44.250,-6.7
44.265,-15.22
44.281,-25.19
44.296,-35.24
44.312,-43.98
44.328,-50.55
44.343,-54.65
44.359,-56.6
44.375,-56.93
44.390,-55.85
44.406,-53.51
44.421,-49.79
44.437,-44.75
44.453,-38.6
44.468,-32.07
44.484,-25.94
44.500,-20.83
44.515,-17.01
44.531,-14.11
44.546,-11.47
44.562,-8.3
44.578,-4.13
44.593,1.14
44.609,7.05
44.625,13.01
44.640,18.34
44.656,22.54
44.671,25.36
44.687,26.68
44.703,26.58
44.718,25.27
44.734,23.22
44.750,21.09
44.765,19.57
44.781,19.29
44.796,20.35
44.812,22.44
44.828,24.67
44.843,26.24
44.859,26.44
44.875,25.02
44.890,22.13
44.906,18.14
44.921,13.38
44.937,7.97
44.953,2.02
44.968,-4.67
44.984,-12.1
45.000,-20.03
45.015,-27.93
45.031,-35.11
45.046,-40.74
45.062,-44.17
45.078,-45.05
45.093,-43.16
45.109,-38.78
45.125,-32.47
45.140,-25.26
45.156,-18.47
45.171,-13.65
45.187,-11.99
45.203,-13.98
45.218,-19.31
45.234,-26.7
45.250,-34.52
45.265,-41.04
45.281,-44.77
45.296,-44.75
45.312,-40.63
45.328,-32.71
45.343,-21.82
45.359,-9.16
45.375,4.4
45.390,18.46
45.406,33.36
45.421,50.05
45.437,69.28
45.453,91.15
45.468,114.75
45.484,138.12
45.500,159.04
45.515,175.91
45.531,188.21
45.546,196.73
45.562,203.1
45.578,208.89
45.593,214.93
45.609,220.9
45.625,225.41
45.640,226.58
45.656,222.93
45.671,213.76
45.687,199.32
45.703,180.76
45.718,159.87
45.734,138.84
45.750,119.81
45.765,104.07
45.781,91.46
45.796,79.97
45.812,66.06
45.828,46.03
45.843,17.97
45.859,-17.04
45.875,-54.38
45.890,-87.4
45.906,-110.16
45.921,-119.48
45.937,-116.14
45.953,-104.07
45.968,-88.18
45.984,-72.1
46.000,-57.27
46.015,-43.55
46.031,-30.94
46.046,-21.5
46.062,-19.28
46.078,-28.83
46.093,-52.79
46.109,-90.11
46.125,-135.89
46.140,-183.01
46.156,-224.93
46.171,-257.64
46.187,-280.84
46.203,-297.08
46.218,-310.04
46.234,-322.61
46.250,-335.6
46.265,-347.36
46.281,-354.29
46.296,-352.4
46.312,-338.92
46.328,-313.88
46.343,-280.14
46.359,-242.42
46.375,-205.04
46.390,-170.08
46.406,-137.14
46.421,-104.41
46.437,-70.66
46.453,-36.52
46.468,-4.77
46.484,21.05
46.500,38.2
46.515,45.67
46.531,44.66
46.546,37.93
46.562,29.44
46.578,23.58
46.593,24.77
46.609,36.32
46.625,58.91
46.640,89.93
46.656,123.66
46.671,153.29
46.687,173.21
46.703,180.93
46.718,177.26
46.734,165.16
46.750,148.07
46.765,128.06
46.781,105.3
46.796,78.51
46.812,46.4
46.828,9.37
46.843,-29.25
46.859,-63.32
46.875,-85.5
46.890,-89.42
46.906,-71.98
46.921,-34.67
46.937,16.19
46.953,71.06
46.968,119.71
46.984,153.7
47.000,168.44
47.015,163.42
47.031,141.28
47.046,106.44
47.062,63.78
47.078,17.75
47.093,-27.66
47.109,-68.19
47.125,-98.8
47.140,-114.11
47.156,-109.47
47.171,-82.75
47.187,-35.64
47.203,25.78
47.218,91.74
47.234,151.01
47.250,193.87
47.265,214.98
47.281,214.35
47.296,196.52
47.312,167.76
47.328,132.84
47.343,93.35
47.359,48.64
47.375,-1.35
47.390,-53.01
47.406,-97.68
47.421,-123.77
47.437,-121.23
47.453,-86.35
47.468,-24.52
47.484,50.61
47.500,121.7
47.515,173.3
47.531,196.53
47.546,190.98
47.562,163.24
47.578,122.84
47.593,78.13
47.609,33.36
47.625,-11.09
47.640,-56.69
47.656,-104.28
47.671,-152.45
47.687,-196.99
47.703,-231.99
47.718,-251.6
47.734,-251.33
47.750,-229.77
47.765,-188.6
47.781,-132.75
47.796,-70.02
47.812,-9.86
47.828,38.69
47.843,69.22
47.859,79.89
47.875,73.86
47.890,57.2
47.906,36.55
47.921,16.33
47.937,-2.8
47.953,-23.2
47.968,-47.79
47.984,-77.24
48.000,-108.02
48.015,-133.03
48.031,-144.52
48.046,-136.57
48.062,-107.44
48.078,-60.39
48.093,-2.65
48.109,56.11
48.125,105.89
48.140,138.72
48.156,150.48
48.171,140.94
48.187,114.34
48.203,77.46
48.218,36.71
48.234,-3.77
48.250,-43.25
48.265,-82.89
48.281,-122.82
48.296,-160.0
48.312,-189.27
48.328,-204.57
48.343,-202.68
48.359,-186.03
48.375,-162.52
48.390,-142.74
48.406,-135.42
48.421,-143.76
48.437,-164.54
48.453,-192.08
48.468,-220.46
48.484,-245.78
48.500,-265.79
48.515,-278.07
48.531,-278.63
48.546,-261.87
48.562,-223.43
48.578,-156.47
48.593,-66.35
48.609,30.49
48.625,112.0
48.640,160.26
48.656,168.76
48.671,143.04
48.687,96.01
48.703,40.61
48.718,-13.6
48.734,-62.19
48.750,-103.19
48.765,-135.46
48.781,-157.95
48.796,-170.01
48.812,-171.97
48.828,-163.17
48.843,-145.08
48.859,-119.7
48.875,-89.9
48.890,-57.89
48.906,-24.99
48.921,8.31
48.937,41.97
48.953,75.87
48.968,109.72
48.984,142.72
49.000,174.61
49.015,205.07
49.031,234.57
49.046,264.32
49.062,295.34
49.078,327.62
49.093,359.08
49.109,385.6
49.125,401.72
49.140,403.14
49.156,388.04
49.171,358.17
49.187,318.35
49.203,274.64
49.218,232.33
49.234,194.63
49.250,162.66
49.265,136.07
49.281,114.38
49.296,97.39
49.312,85.02
49.328,76.84
49.343,71.56
49.359,67.1
49.375,61.03
49.390,51.36
49.406,37.04
49.421,18.48
49.437,-2.42
49.453,-22.98
49.468,-40.44
49.484,-52.84
49.500,-59.55
49.515,-61.26
49.531,-59.52
49.546,-55.93
49.562,-51.58
49.578,-46.68
49.593,-41.04
49.609,-34.56
49.625,-27.52
49.640,-20.66
49.656,-14.77
49.671,-10.3
49.687,-7.06
49.703,-4.53
49.718,-2.09
49.734,0.48
49.750,2.89
49.765,4.69
49.781,5.35
49.796,4.79
49.812,3.4
49.828,1.76
49.843,0.52
49.859,0.05
49.875,0.26
49.890,0.93
49.906,1.76
49.921,2.36
49.937,2.46
49.953,1.87
49.968,0.35
49.984,-2.04
50.000,-5.05
50.015,-8.28
50.031,-11.24
50.046,-13.5
50.062,-14.96
50.078,-15.91
50.093,-16.65
50.109,-17.75
50.125,-19.51
50.140,-21.86
50.156,-24.53
50.171,-27.3
50.187,-30.01
50.203,-32.61
50.218,-35.29
50.234,-37.94
50.250,-40.33
50.265,-41.94
50.281,-42.2
50.296,-40.81
50.312,-38.05
50.328,-34.75
50.343,-31.76
50.359,-29.8
50.375,-28.98
50.390,-29.11
50.406,-29.62
50.421,-30.02
50.437,-30.23
50.453,-30.43
50.468,-31.13
50.484,-32.57
50.500,-34.6
50.515,-36.49
50.531,-37.29
50.546,-35.81
50.562,-31.0
50.578,-22.26
50.593,-9.44
50.609,7.07
50.625,26.22
50.640,46.57
50.656,66.59
50.671,84.7
50.687,99.66
50.703,110.66
50.718,117.27
50.734,119.42
50.750,117.39
50.765,111.6
50.781,102.61
50.796,91.2
50.812,78.15
50.828,64.08
50.843,49.62
50.859,35.17
50.875,21.25
50.890,8.21
50.906,-3.67
50.921,-14.13
50.937,-23.05
50.953,-30.56
50.968,-37.08
50.984,-42.93
51.000,-48.38
51.015,-53.2
51.031,-56.83
51.046,-58.62
51.062,-58.09
51.078,-55.07
51.093,-49.98
51.109,-43.5
51.125,-36.25
51.140,-28.83
51.156,-21.47
51.171,-14.39
51.187,-7.68
51.203,-1.57
51.218,3.69
51.234,7.77
51.250,10.5
51.265,11.85
51.281,11.99
51.296,11.26
51.312,10.0
51.328,8.43
51.343,6.64
51.359,4.62
51.375,2.32
51.390,-0.09
51.406,-2.36
51.421,-4.2
51.437,-5.33
51.453,-5.6
51.468,-5.3
51.484,-4.7
51.500,-4.13
51.515,-3.85
51.531,-3.78
51.546,-3.73
51.562,-3.62
51.578,-3.5
51.593,-3.55
51.609,-4.19
51.625,-5.6
51.640,-7.96
51.656,-11.08
51.671,-14.63
51.687,-18.22
51.703,-21.54
51.718,-24.43
51.734,-26.97
51.750,-29.31
51.765,-31.48
51.781,-33.59
51.796,-35.55
51.812,-37.45
51.828,-39.41
51.843,-41.6
51.859,-44.01
51.875,-46.37
51.890,-48.12
51.906,-48.56
51.921,-47.04
51.937,-43.42
51.953,-37.97
51.968,-31.45
51.984,-24.67
52.000,-18.22
52.015,-12.35
52.031,-6.99
52.046,-1.94
52.062,2.94
52.078,7.43
52.093,11.31
52.109,14.17
52.125,15.92
52.140,16.71
52.156,16.8
52.171,16.42
52.187,15.79
52.203,14.9
52.218,13.7
52.234,12.31
52.250,10.94
52.265,9.95
52.281,9.7
52.296,10.32
52.312,11.61
52.328,13.13
52.343,14.27
52.359,14.59
52.375,13.98
52.390,12.6
52.406,10.74
52.421,8.78
52.437,6.88
52.453,4.9
52.468,2.66
52.484,-0.1
52.500,-3.44
52.515,-7.12
52.531,-10.89
52.546,-14.45
52.562,-17.55
52.578,-20.19
52.593,-22.51
52.609,-24.68
52.625,-26.92
52.640,-29.39
52.656,-32.06
52.671,-34.95
52.687,-37.82
52.703,-40.25
52.718,-41.84
52.734,-42.05
52.750,-40.48
52.765,-37.07
52.781,-31.87
52.796,-25.27
52.812,-17.91
52.828,-10.43
52.843,-3.5
52.859,2.29
52.875,6.71
52.890,9.8
52.906,11.82
52.921,13.25
52.937,14.58
52.953,16.07
52.968,17.66
52.984,19.22
53.000,20.49
53.015,21.38
53.031,22.01
53.046,22.6
53.062,23.3
53.078,24.26
53.093,25.36
53.109,26.33
53.125,26.94
53.140,27.04
53.156,26.66
53.171,25.83
53.187,24.66
53.203,23.2
53.218,21.41
53.234,19.29
53.250,16.89
53.265,14.18
53.281,11.24
53.296,8.12
53.312,4.84
53.328,1.44
53.343,-2.03
53.359,-5.54
53.375,-9.05
53.390,-12.53
53.406,-16.12
53.421,-19.99
53.437,-24.39
53.453,-29.52
53.468,-35.39
53.484,-41.82
53.500,-48.37
53.515,-54.4
53.531,-59.25
53.546,-62.36
53.562,-63.44
53.578,-62.58
53.593,-60.29
53.609,-57.32
53.625,-54.35
53.640,-51.65
53.656,-48.76
53.671,-44.74
53.687,-38.48
53.703,-29.2
53.718,-16.95
53.734,-2.58
53.750,12.68
53.765,27.71
53.781,41.96
53.796,55.43
53.812,68.34
53.828,80.72
53.843,92.05
53.859,101.46
53.875,108.03
53.890,111.23
53.906,111.07
53.921,108.13
53.937,103.23
53.953,97.09
53.968,90.17
53.984,82.66
54.000,74.42
54.015,65.39
54.031,55.61
54.046,45.25
54.062,34.55
54.078,23.69
54.093,12.77
54.109,1.66
54.125,-9.57
54.140,-20.68
54.156,-31.12
54.171,-40.13
54.187,-47.0
54.203,-51.44
54.218,-53.68
54.234,-54.33
54.250,-54.31
54.265,-54.38
54.281,-55.0
54.296,-56.2
54.312,-57.78
54.328,-59.24
54.343,-60.05
54.359,-59.76
54.375,-57.85
54.390,-54.04
54.406,-48.17
54.421,-40.33
54.437,-30.88
54.453,-20.46
54.468,-9.87
54.484,0.27
54.500,9.36
54.515,17.16
54.531,23.6
54.546,28.67
54.562,32.46
54.578,35.01
54.593,36.29
54.609,36.31
54.625,35.17
54.640,33.08
54.656,30.39
54.671,27.48
54.687,24.75
54.703,22.51
54.718,20.86
54.734,19.76
54.750,19.08
54.765,18.72
54.781,18.59
54.796,18.68
54.812,18.81
54.828,18.75
54.843,18.27
54.859,17.1
54.875,15.2
54.890,12.73
54.906,9.91
54.921,6.95
54.937,3.88
54.953,0.64
54.968,-3.0
54.984,-7.02
55.000,-11.34
55.015,-15.66
55.031,-19.48
55.046,-22.53
55.062,-24.68
55.078,-26.06
55.093,-27.04
55.109,-28.1
55.125,-29.48
55.140,-30.96
55.156,-31.79
55.171,-30.88
55.187,-27.28
55.203,-20.66
55.218,-11.51
55.234,-1.16
55.250,8.5
55.265,15.65
55.281,19.16
55.296,18.74
55.312,14.85
55.328,8.43
55.343,0.53
55.359,-7.84
55.375,-15.83
55.390,-22.96
55.406,-28.98
55.421,-33.94
55.437,-38.04
55.453,-41.41
55.468,-44.05
55.484,-45.89
55.500,-46.77
55.515,-46.74
55.531,-46.05
55.546,-45.0
55.562,-43.96
55.578,-43.02
55.593,-42.01
55.609,-40.48
55.625,-37.99
55.640,-34.14
55.656,-28.8
55.671,-22.1
55.687,-14.44
55.703,-6.42
55.718,1.33
55.734,8.42
55.750,14.66
55.765,19.83
55.781,23.65
55.796,25.81
55.812,25.89
55.828,23.62
55.843,18.82
55.859,11.38
55.875,1.43
55.890,-10.94
55.906,-25.39
55.921,-41.33
55.937,-57.78
55.953,-73.28
55.968,-86.07
55.984,-94.31
56.000,-96.42
56.015,-91.31
56.031,-78.64
56.046,-58.74
56.062,-32.59
56.078,-1.91
56.093,30.94
56.109,62.98
56.125,91.15
56.140,112.8
56.156,126.29
56.171,131.37
56.187,129.07
56.203,121.32
56.218,110.36
56.234,98.3
56.250,86.67
56.265,76.42
56.281,67.83
56.296,60.61
56.312,54.12
56.328,47.41
56.343,39.76
56.359,30.86
56.375,20.94
56.390,10.79
56.406,1.5
56.421,-6.17
56.437,-11.97
56.453,-16.27
56.468,-20.1
56.484,-24.56
56.500,-30.36
56.515,-37.64
56.531,-45.97
56.546,-54.47
56.562,-62.43
56.578,-69.37
56.593,-75.01
56.609,-79.22
56.625,-81.57
56.640,-81.31
56.656,-77.53
56.671,-69.59
56.687,-57.22
56.703,-40.75
56.718,-21.0
56.734,1.18
56.750,24.71
56.765,48.49
56.781,71.21
56.796,91.27
56.812,107.11
56.828,117.56
56.843,122.09
56.859,121.02
56.875,115.41
56.890,106.54
56.906,95.74
56.921,84.17
56.937,72.73
56.953,62.26
56.968,53.37
56.984,46.28
57.000,40.85
57.015,36.49
57.031,32.23
57.046,27.01
57.062,19.94
57.078,10.51
57.093,-1.18
57.109,-14.54
57.125,-28.58
57.140,-42.04
57.156,-53.7
57.171,-62.67
57.187,-68.48
57.203,-71.0
57.218,-70.32
57.234,-66.46
57.250,-59.42
57.265,-49.31
57.281,-36.56
57.296,-22.11
57.312,-7.34
57.328,6.35
57.343,17.73
57.359,26.02
57.375,30.9
57.390,32.22
57.406,29.78
57.421,23.31
57.437,12.53
57.453,-2.62
57.468,-21.68
57.484,-43.69
57.500,-67.4
57.515,-91.3
57.531,-113.83
57.546,-133.45
57.562,-148.63
57.578,-157.96
57.593,-160.3
57.609,-155.04
57.625,-142.08
57.640,-121.87
57.656,-95.22
57.671,-63.31
57.687,-27.54
57.703,10.35
57.718,48.41
57.734,84.51
57.750,116.54
57.765,142.7
57.781,161.73
57.796,173.09
57.812,176.94
57.828,174.14
57.843,165.92
57.859,153.65
57.875,138.75
57.890,122.54
57.906,106.19
57.921,90.74
57.937,76.71
57.953,64.32
57.968,53.16
57.984,42.66
58.000,32.08
58.015,21.06
58.031,9.57
58.046,-1.96
58.062,-12.96
58.078,-22.92
58.093,-31.46
58.109,-38.62
58.125,-44.57
58.140,-49.58
58.156,-53.81
58.171,-57.24
58.187,-59.62
58.203,-60.86
58.218,-60.83
58.234,-59.73
58.250,-57.97
58.265,-56.09
58.281,-54.5
58.296,-53.42
58.312,-52.78
58.328,-52.3
58.343,-51.88
58.359,-51.39
58.375,-50.8
58.390,-49.93
58.406,-48.35
58.421,-45.39
58.437,-40.49
58.453,-33.47
58.468,-24.79
58.484,-15.59
58.500,-7.03
58.515,-0.11
58.531,4.88
58.546,8.28
58.562,10.74
58.578,12.82
58.593,14.81
58.609,16.69
58.625,18.08
58.640,18.82
58.656,18.83
58.671,18.36
58.687,17.83
58.703,17.55
58.718,17.68
58.734,18.02
58.750,18.29
58.765,18.24
58.781,17.91
58.796,17.46
58.812,17.15
58.828,17.12
58.843,17.2
58.859,17.02
58.875,16.12
58.890,14.15
58.906,11.16
58.921,7.49
58.937,3.66
58.953,0.05
58.968,-3.16
58.984,-6.14
59.000,-9.12
59.015,-12.31
59.031,-15.7
59.046,-19.0
59.062,-21.87
59.078,-24.14
59.093,-25.91
59.109,-27.4
59.125,-28.95
59.140,-30.53
59.156,-31.81
59.171,-32.2
59.187,-30.95
59.203,-27.63
59.218,-22.18
59.234,-15.06
59.250,-6.98
59.265,1.14
59.281,8.74
59.296,15.43
59.312,21.15
59.328,26.05
59.343,30.21
59.359,33.7
59.375,36.54
59.390,38.71
59.406,40.22
59.421,41.16
59.437,41.64
59.453,41.76
59.468,41.59
59.484,41.01
59.500,40.0
59.515,38.67
59.531,37.21
59.546,36.06
59.562,35.57
59.578,35.86
59.593,36.77
59.609,37.83
59.625,38.34
59.640,37.82
59.656,36.2
59.671,33.63
59.687,30.54
59.703,27.24
59.718,23.78
59.734,20.02
59.750,15.8
59.765,11.05
59.781,6.02
59.796,1.16
59.812,-3.07
59.828,-6.36
59.843,-8.75
59.859,-10.56
59.875,-12.12
59.890,-13.8
59.906,-15.76
59.921,-18.03
59.937,-20.45
59.953,-22.75
59.968,-24.42
59.984,-25.12
