timestamp,value
00.000,114.66
00.015,105.13
00.031,93.85
00.046,82.2
00.062,71.43
00.078,62.17
00.093,54.68
00.109,48.64
00.125,43.27
00.140,37.99
00.156,31.93
00.171,25.02
00.187,17.48
00.203,9.52
00.218,0.98
00.234,-8.53
00.250,-19.11
00.265,-31.14
00.281,-43.78
00.296,-56.45
00.312,-68.62
00.328,-80.15
00.343,-91.68
00.359,-103.81
00.375,-116.16
00.390,-126.93
00.406,-133.7
00.421,-134.4
00.437,-129.01
00.453,-119.42
00.468,-108.31
00.484,-97.67
00.500,-87.32
00.515,-75.46
00.531,-59.8
00.546,-39.49
00.562,-15.36
00.578,10.24
00.593,34.82
00.609,57.2
00.625,76.71
00.640,93.49
00.656,106.89
00.671,115.43
00.687,117.6
00.703,113.03
00.718,102.51
00.734,87.76
00.750,71.78
00.765,56.85
00.781,45.12
00.796,37.93
00.812,35.03
00.828,35.27
00.843,37.06
00.859,38.64
00.875,38.65
00.890,36.44
00.906,31.89
00.921,25.24
00.937,17.07
00.953,7.72
00.968,-2.41
00.984,-13.01
01.000,-23.7
01.015,-34.29
01.031,-44.61
01.046,-54.85
01.062,-65.42
01.078,-76.65
01.093,-88.85
01.109,-101.54
01.125,-113.65
01.140,-123.28
01.156,-128.27
01.171,-126.44
01.187,-116.45
01.203,-98.32
01.218,-73.37
01.234,-44.23
01.250,-13.74
01.265,15.49
01.281,41.57
01.296,63.62
01.312,81.33
01.328,94.8
01.343,104.09
01.359,109.56
01.375,111.77
01.390,111.48
01.406,109.6
01.421,106.55
01.437,102.41
01.453,96.68
01.468,88.94
01.484,78.88
01.500,67.08
01.515,54.71
01.531,43.35
01.546,34.47
01.562,28.77
01.578,26.09
01.593,25.35
01.609,25.07
01.625,23.43
01.640,19.15
01.656,11.17
01.671,-0.8
01.687,-16.28
01.703,-34.23
01.718,-53.08
01.734,-71.37
01.750,-88.04
01.765,-102.91
01.781,-116.15
01.796,-128.33
01.812,-139.56
01.828,-148.85
01.843,-154.52
01.859,-154.41
01.875,-146.83
01.890,-131.17
01.906,-108.25
01.921,-79.73
01.937,-47.64
01.953,-14.0
01.968,19.75
01.984,52.4
02.000,82.91
02.015,109.9
02.031,131.94
02.046,147.15
02.062,154.58
02.078,154.08
02.093,146.29
02.109,133.08
02.125,116.92
02.140,100.55
02.156,86.01
02.171,74.81
02.187,66.5
02.203,59.75
02.218,53.26
02.234,45.65
02.250,35.9
02.265,23.81
02.281,10.06
02.296,-3.72
02.312,-15.78
02.328,-24.49
02.343,-29.41
02.359,-32.25
02.375,-35.4
02.390,-42.16
02.406,-54.65
02.421,-72.35
02.437,-91.62
02.453,-107.6
02.468,-116.94
02.484,-118.87
02.500,-116.36
02.515,-113.24
02.531,-111.1
02.546,-109.58
02.562,-106.49
02.578,-99.22
02.593,-86.67
02.609,-69.5
02.625,-48.44
02.640,-23.85
02.656,3.99
02.671,35.34
02.687,68.56
02.703,99.66
02.718,124.56
02.734,141.29
02.750,150.08
02.765,152.74
02.781,150.45
02.796,143.26
02.812,130.43
02.828,112.23
02.843,91.5
02.859,71.93
02.875,57.28
02.890,49.01
02.906,45.99
02.921,44.97
02.937,42.85
02.953,38.27
02.968,31.18
02.984,23.09
03.000,15.37
03.015,8.03
03.031,0.29
03.046,-8.79
03.062,-19.87
03.078,-32.91
03.093,-46.93
03.109,-60.85
03.125,-73.74
03.140,-84.86
03.156,-94.55
03.171,-103.65
03.187,-113.03
03.203,-123.48
03.218,-135.23
03.234,-147.72
03.250,-159.35
03.265,-168.0
03.281,-171.21
03.296,-167.13
03.312,-154.85
03.328,-134.61
03.343,-107.84
03.359,-76.51
03.375,-42.42
03.390,-6.99
03.406,28.47
03.421,62.33
03.437,92.24
03.453,115.45
03.468,129.52
03.484,133.15
03.500,127.15
03.515,114.7
03.531,100.6
03.546,89.89
03.562,86.17
03.578,90.39
03.593,100.6
03.609,112.88
03.625,122.5
03.640,125.73
03.656,120.87
03.671,108.4
03.687,90.64
03.703,70.55
03.718,50.85
03.734,33.32
03.750,18.78
03.765,7.23
03.781,-1.93
03.796,-9.61
03.812,-17.12
03.828,-25.77
03.843,-36.69
03.859,-50.43
03.875,-66.42
03.890,-83.31
03.906,-99.18
03.921,-112.63
03.937,-123.06
03.953,-131.07
03.968,-137.38
03.984,-142.52
04.000,-146.01
04.015,-146.35
04.031,-141.65
04.046,-130.03
04.062,-110.42
04.078,-82.5
04.093,-47.2
04.109,-6.2
04.125,37.68
04.140,80.94
04.156,119.68
04.171,149.98
04.187,168.95
04.203,175.34
04.218,170.1
04.234,156.15
04.250,137.85
04.265,119.66
04.281,104.91
04.296,95.09
04.312,89.31
04.328,85.29
04.343,80.37
04.359,72.76
04.375,62.44
04.390,50.88
04.406,40.17
04.421,31.66
04.437,25.34
04.453,19.42
04.468,11.46
04.484,-0.37
04.500,-16.41
04.515,-35.11
04.531,-53.61
04.546,-68.77
04.562,-78.37
04.578,-81.6
04.593,-79.39
04.609,-74.13
04.625,-69.12
04.640,-67.49
04.656,-71.73
04.671,-82.62
04.687,-98.98
04.703,-117.67
04.718,-134.16
04.734,-143.47
04.750,-141.77
04.765,-127.21
04.781,-100.24
04.796,-63.71
04.812,-21.64
04.828,21.68
04.843,62.5
04.859,97.98
04.875,126.62
04.890,146.84
04.906,157.41
04.921,157.98
04.937,148.95
04.953,132.67
04.968,112.96
04.984,93.8
05.000,77.59
05.015,66.11
05.031,59.04
05.046,54.58
05.062,51.64
05.078,49.1
05.093,46.6
05.109,44.35
05.125,42.24
05.140,39.33
05.156,34.93
05.171,28.81
05.187,20.69
05.203,11.24
05.218,0.92
05.234,-9.74
05.250,-20.28
05.265,-30.7
05.281,-40.77
05.296,-50.4
05.312,-59.79
05.328,-69.65
05.343,-80.6
05.359,-93.8
05.375,-109.18
05.390,-125.24
05.406,-139.76
05.421,-149.31
05.437,-151.09
05.453,-143.81
05.468,-127.49
05.484,-102.48
05.500,-71.44
05.515,-37.11
05.531,-1.01
05.546,34.2
05.562,67.12
05.578,96.33
05.593,119.94
05.609,135.69
05.625,143.32
05.640,143.08
05.656,135.98
05.671,124.94
05.687,112.14
05.703,100.07
05.718,90.39
05.734,84.58
05.750,82.55
05.765,83.74
05.781,85.72
05.796,85.34
05.812,79.57
05.828,66.5
05.843,47.31
05.859,24.9
05.875,3.16
05.890,-15.13
05.906,-29.26
05.921,-40.71
05.937,-51.18
05.953,-61.07
05.968,-69.13
05.984,-73.01
06.000,-71.13
06.015,-64.94
06.031,-58.21
06.046,-55.54
06.062,-60.98
06.078,-75.27
06.093,-95.85
06.109,-118.75
06.125,-139.5
06.140,-153.46
06.156,-158.19
06.171,-152.85
06.187,-137.13
06.203,-112.94
06.218,-83.17
06.234,-50.56
06.250,-18.76
06.265,8.88
06.281,31.52
06.296,49.56
06.312,63.98
06.328,75.79
06.343,84.71
06.359,89.15
06.375,88.0
06.390,81.34
06.406,71.18
06.421,62.06
06.437,58.74
06.453,64.01
06.468,77.19
06.484,93.15
06.500,105.5
06.515,108.66
06.531,99.76
06.546,79.53
06.562,51.57
06.578,20.96
06.593,-7.55
06.609,-29.93
06.625,-45.38
06.640,-53.58
06.656,-55.37
06.671,-53.64
06.687,-51.69
06.703,-53.39
06.718,-60.78
06.734,-72.69
06.750,-84.07
06.765,-90.5
06.781,-88.09
06.796,-74.8
06.812,-53.44
06.828,-29.85
06.843,-10.57
06.859,-0.22
06.875,0.4
06.890,-4.91
06.906,-11.31
06.921,-13.82
06.937,-8.4
06.953,5.26
06.968,24.28
06.984,42.53
07.000,54.16
07.015,55.44
07.031,45.69
07.046,25.55
07.062,-2.81
07.078,-35.65
07.093,-58.17
07.109,-54.55
07.125,-17.34
07.140,48.29
07.156,129.37
07.171,214.21
07.187,295.34
07.203,365.51
07.218,426.45
07.234,478.45
07.250,519.94
07.265,548.9
07.281,564.13
07.296,566.9
07.312,557.84
07.328,538.13
07.343,508.8
07.359,470.73
07.375,423.85
07.390,367.82
07.406,303.4
07.421,233.0
07.437,161.63
07.453,94.52
07.468,36.23
07.484,-9.27
07.500,-40.18
07.515,-56.75
07.531,-61.41
07.546,-57.67
07.562,-48.93
07.578,-36.72
07.593,-22.5
07.609,-7.78
07.625,5.76
07.640,15.91
07.656,20.61
07.671,17.98
07.687,6.76
07.703,-13.04
07.718,-39.96
07.734,-71.87
07.750,-105.94
07.765,-139.32
07.781,-169.79
07.796,-195.9
07.812,-217.02
07.828,-233.34
07.843,-244.72
07.859,-251.01
07.875,-252.18
07.890,-248.19
07.906,-239.7
07.921,-228.14
07.937,-215.02
07.953,-201.57
07.968,-189.42
07.984,-178.92
08.000,-170.09
08.015,-162.16
08.031,-153.99
08.046,-145.16
08.062,-136.57
08.078,-130.37
08.093,-129.15
08.109,-135.22
08.125,-149.34
08.140,-171.33
08.156,-199.69
08.171,-232.21
08.187,-267.01
08.203,-302.89
08.218,-339.26
08.234,-376.29
08.250,-414.91
08.265,-456.42
08.281,-502.54
08.296,-554.11
08.312,-609.65
08.328,-664.74
08.343,-712.15
08.359,-744.08
08.375,-754.97
08.390,-743.96
08.406,-715.35
08.421,-676.54
08.437,-635.01
08.453,-595.35
08.468,-558.77
08.484,-523.46
08.500,-486.73
08.515,-446.75
08.531,-402.97
08.546,-355.73
08.562,-305.32
08.578,-251.97
08.593,-195.89
08.609,-138.68
08.625,-83.22
08.640,-33.13
08.656,8.22
08.671,38.8
08.687,58.43
08.703,68.7
08.718,72.16
08.734,71.89
08.750,70.27
08.765,68.39
08.781,67.22
08.796,67.52
08.812,70.36
08.828,77.17
08.843,89.69
08.859,108.23
08.875,133.03
08.890,163.83
08.906,199.28
08.921,238.52
08.937,281.33
08.953,327.62
08.968,377.29
08.984,430.61
09.000,487.2
09.015,547.11
09.031,609.33
09.046,670.28
09.062,722.91
09.078,757.71
09.093,764.71
09.109,737.61
09.125,675.58
09.140,584.41
09.156,474.92
09.171,359.67
09.187,249.28
09.203,151.6
09.218,70.75
09.234,7.98
09.250,-36.58
09.265,-64.78
09.281,-80.29
09.296,-89.01
09.312,-98.29
09.328,-115.18
09.343,-142.39
09.359,-177.92
09.375,-215.32
09.390,-244.96
09.406,-259.26
09.421,-255.61
09.437,-237.72
09.453,-213.96
09.468,-194.3
09.484,-185.13
09.500,-187.73
09.515,-198.27
09.531,-209.55
09.546,-215.09
09.562,-210.46
09.578,-194.37
09.593,-168.33
09.609,-135.1
09.625,-97.1
09.640,-56.12
09.656,-13.32
09.671,32.0
09.687,79.93
09.703,132.2
09.718,191.23
09.734,257.43
09.750,328.31
09.765,397.64
09.781,456.82
09.796,496.76
09.812,512.51
09.828,502.81
09.843,473.44
09.859,434.25
09.875,393.48
09.890,356.02
09.906,321.19
09.921,285.81
09.937,245.82
09.953,199.26
09.968,145.9
09.984,89.79
10.000,38.19
10.015,-1.3
10.031,-22.01
10.046,-21.41
10.062,-0.15
10.078,37.12
10.093,83.48
10.109,122.21
10.125,137.72
10.140,123.71
10.156,85.89
10.171,37.18
10.187,-13.1
10.203,-61.07
10.218,-105.49
10.234,-145.75
10.250,-180.66
10.265,-207.91
10.281,-225.41
10.296,-234.58
10.312,-237.81
10.328,-240.43
10.343,-244.97
10.359,-249.94
10.375,-252.32
10.390,-248.23
10.406,-233.92
10.421,-206.87
10.437,-168.06
10.453,-120.22
10.468,-67.53
10.484,-15.38
10.500,32.41
10.515,73.97
10.531,108.7
10.546,136.62
10.562,158.1
10.578,173.1
10.593,181.11
10.609,182.1
10.625,177.45
10.640,169.47
10.656,160.7
10.671,153.3
10.687,149.19
10.703,149.42
10.718,153.31
10.734,157.02
10.750,154.72
10.765,141.2
10.781,114.11
10.796,75.77
10.812,32.77
10.828,-6.01
10.843,-33.05
10.859,-44.93
10.875,-43.06
10.890,-32.84
10.906,-19.32
10.921,-5.59
10.937,7.49
10.953,19.83
10.968,31.4
10.984,40.38
11.000,44.49
11.015,42.65
11.031,34.48
11.046,21.15
11.062,4.3
11.078,-14.12
11.093,-33.2
11.109,-52.49
11.125,-71.62
11.140,-89.21
11.156,-104.56
11.171,-116.68
11.187,-124.96
11.203,-129.78
11.218,-131.94
11.234,-133.21
11.250,-135.42
11.265,-139.13
11.281,-144.07
11.296,-149.84
11.312,-155.2
11.328,-158.9
11.343,-162.17
11.359,-164.03
11.375,-164.05
11.390,-163.07
11.406,-162.09
11.421,-161.45
11.437,-160.45
11.453,-156.47
11.468,-145.14
11.484,-122.53
11.500,-87.2
11.515,-41.5
11.531,8.29
11.546,54.15
11.562,89.4
11.578,110.93
11.593,119.85
11.609,120.29
11.625,116.8
11.640,112.96
11.656,109.54
11.671,105.94
11.687,101.65
11.703,97.19
11.718,93.66
11.734,91.8
11.750,91.15
11.765,90.25
11.781,88.4
11.796,84.62
11.812,78.83
11.828,72.15
11.843,66.17
11.859,62.44
11.875,61.78
11.890,64.11
11.906,65.51
11.921,63.96
11.937,58.1
11.953,47.62
11.968,33.45
11.984,16.95
12.000,-0.46
12.015,-18.24
12.031,-36.3
12.046,-54.35
12.062,-71.67
12.078,-87.8
12.093,-102.47
12.109,-115.16
12.125,-125.55
12.140,-133.12
12.156,-137.92
12.171,-141.07
12.187,-142.81
12.203,-143.14
12.218,-141.85
12.234,-138.72
12.250,-133.02
12.265,-123.97
12.281,-110.86
12.296,-93.39
12.312,-71.53
12.328,-45.43
12.343,-16.41
12.359,13.58
12.375,42.74
12.390,69.49
12.406,92.85
12.421,112.42
12.437,127.65
12.453,138.07
12.468,143.54
12.484,143.9
12.500,140.09
12.515,133.71
12.531,126.14
12.546,118.54
12.562,111.93
12.578,106.6
12.593,102.22
12.609,98.39
12.625,93.95
12.640,88.6
12.656,82.76
12.671,77.26
12.687,72.96
12.703,70.93
12.718,71.25
12.734,72.97
12.750,74.92
12.765,75.92
12.781,75.63
12.796,74.75
12.812,74.7
12.828,76.25
12.843,80.42
12.859,87.93
12.875,98.54
12.890,112.6
12.906,127.02
12.921,137.84
12.937,140.34
12.953,130.39
12.968,106.25
12.984,69.98
13.000,27.17
13.015,-14.96
13.031,-50.19
13.046,-75.58
13.062,-91.26
13.078,-99.57
13.093,-103.21
13.109,-103.79
13.125,-101.16
13.140,-94.79
13.156,-84.67
13.171,-71.75
13.187,-58.41
13.203,-46.48
13.218,-36.57
13.234,-28.12
13.250,-20.24
13.265,-11.56
13.281,-1.65
13.296,8.97
13.312,19.82
13.328,30.25
13.343,40.11
13.359,50.18
13.375,61.49
13.390,74.75
13.406,90.41
13.421,107.94
13.437,126.26
13.453,143.39
13.468,157.64
13.484,167.89
13.500,173.93
13.515,176.23
13.531,175.47
13.546,172.34
13.562,166.55
13.578,161.25
13.593,157.91
13.609,157.41
13.625,160.44
13.640,167.32
13.656,177.82
13.671,191.13
13.687,205.75
13.703,219.68
13.718,230.34
13.734,234.66
13.750,230.05
13.765,214.94
13.781,189.0
13.796,153.03
13.812,109.05
13.828,59.88
13.843,8.89
13.859,-40.32
13.875,-84.79
13.890,-122.03
13.906,-150.04
13.921,-167.7
13.937,-174.66
13.953,-171.55
13.968,-159.74
13.984,-141.56
14.000,-119.85
14.015,-97.87
14.031,-78.43
14.046,-63.49
14.062,-53.77
14.078,-49.05
14.093,-48.51
14.109,-51.28
14.125,-57.1
14.140,-66.44
14.156,-80.49
14.171,-100.01
14.187,-124.89
14.203,-153.6
14.218,-183.49
14.234,-211.5
14.250,-235.17
14.265,-253.31
14.281,-265.99
14.296,-274.77
14.312,-282.03
14.328,-290.38
14.343,-302.27
14.359,-318.88
14.375,-339.11
14.390,-359.22
14.406,-373.17
14.421,-374.56
14.437,-358.83
14.453,-325.55
14.468,-278.68
14.484,-225.42
14.500,-173.55
14.515,-128.9
14.531,-93.92
14.546,-67.88
14.562,-48.55
14.578,-33.65
14.593,-21.95
14.609,-13.22
14.625,-7.51
14.640,-4.32
14.656,-2.67
14.671,-1.12
14.687,1.48
14.703,5.41
14.718,9.84
14.734,13.39
14.750,14.82
14.765,13.66
14.781,10.6
14.796,6.96
14.812,3.8
14.828,1.37
14.843,-1.72
14.859,-7.6
14.875,-18.37
14.890,-35.06
14.906,-57.09
14.921,-82.27
14.937,-107.16
14.953,-128.52
14.968,-143.52
14.984,-151.26
15.000,-152.17
15.015,-147.83
15.031,-140.39
15.046,-131.36
15.062,-121.23
15.078,-108.77
15.093,-91.44
15.109,-66.48
15.125,-32.59
15.140,8.87
15.156,53.67
15.171,95.79
15.187,129.59
15.203,151.72
15.218,161.91
15.234,162.41
15.250,156.38
15.265,146.41
15.281,133.89
15.296,119.37
15.312,103.33
15.328,86.87
15.343,71.27
15.359,57.5
15.375,45.58
15.390,34.78
15.406,23.87
15.421,11.49
15.437,-3.08
15.453,-20.38
15.468,-40.23
15.484,-62.47
15.500,-86.72
15.515,-112.49
15.531,-138.88
15.546,-164.2
15.562,-185.92
15.578,-200.91
15.593,-205.95
15.609,-198.81
15.625,-179.11
15.640,-148.92
15.656,-112.04
15.671,-73.06
15.687,-35.68
15.703,-1.47
15.718,30.25
15.734,61.87
15.750,95.92
15.765,133.75
15.781,174.82
15.796,216.96
15.812,257.04
15.828,291.74
15.843,318.08
15.859,333.68
15.875,337.2
15.890,328.35
15.906,308.27
15.921,279.31
15.937,244.83
15.953,208.51
15.968,173.69
15.984,142.27
16.000,114.3
16.015,88.42
16.031,62.59
16.046,35.28
16.062,6.24
16.078,-23.0
16.093,-49.81
16.109,-71.26
16.125,-85.21
16.140,-91.14
16.156,-90.23
16.171,-84.64
16.187,-76.62
16.203,-67.91
16.218,-59.2
16.234,-50.71
16.250,-42.65
16.265,-35.66
16.281,-30.92
16.296,-29.95
16.312,-33.94
16.328,-43.3
16.343,-57.82
16.359,-76.19
16.375,-96.53
16.390,-116.24
16.406,-132.19
16.421,-141.2
16.437,-140.65
16.453,-129.11
16.468,-106.78
16.484,-75.8
16.500,-39.8
16.515,-3.16
16.531,30.07
16.546,57.11
16.562,76.77
16.578,89.38
16.593,96.32
16.609,99.41
16.625,100.1
16.640,99.63
16.656,98.68
16.671,97.57
16.687,96.41
16.703,95.03
16.718,92.89
16.734,89.22
16.750,83.27
16.765,74.47
16.781,62.85
16.796,48.73
16.812,32.81
16.828,15.87
16.843,-1.1
16.859,-17.62
16.875,-33.2
16.890,-47.36
16.906,-59.69
16.921,-69.95
16.937,-78.49
16.953,-86.06
16.968,-94.16
16.984,-103.78
17.000,-115.93
17.015,-130.94
17.031,-148.33
17.046,-167.04
17.062,-185.13
17.078,-199.98
17.093,-208.26
17.109,-206.25
17.125,-190.99
17.140,-161.24
17.156,-118.34
17.171,-66.09
17.187,-10.12
17.203,43.63
17.218,90.25
17.234,126.63
17.250,151.57
17.265,165.2
17.281,168.43
17.296,162.91
17.312,151.12
17.328,135.78
17.343,120.3
17.359,106.85
17.375,96.67
17.390,89.48
17.406,84.09
17.421,79.0
17.437,73.33
17.453,67.39
17.468,61.38
17.484,56.18
17.500,51.54
17.515,46.89
17.531,41.49
17.546,34.39
17.562,25.0
17.578,13.49
17.593,0.62
17.609,-11.95
17.625,-22.23
17.640,-29.7
17.656,-35.39
17.671,-41.85
17.687,-51.91
17.703,-67.26
17.718,-86.96
17.734,-107.76
17.750,-124.94
17.765,-133.59
17.781,-131.02
17.796,-116.85
17.812,-92.91
17.828,-62.07
17.843,-27.14
17.859,8.44
17.875,40.93
17.890,66.8
17.906,83.45
17.921,89.61
17.937,86.55
17.953,77.33
17.968,65.3
17.984,53.91
18.000,45.09
18.015,39.22
18.031,35.95
18.046,34.6
18.062,34.43
18.078,35.27
18.093,37.21
18.109,40.27
18.125,45.09
18.140,51.89
18.156,60.08
18.171,68.27
18.187,74.63
18.203,77.19
18.218,75.21
18.234,69.15
18.250,59.87
18.265,48.69
18.281,36.38
18.296,23.25
18.312,9.01
18.328,-6.67
18.343,-24.12
18.359,-43.27
18.375,-63.89
18.390,-85.28
18.406,-106.06
18.421,-124.65
18.437,-138.98
18.453,-146.92
18.468,-146.55
18.484,-136.9
18.500,-118.14
18.515,-91.85
18.531,-60.36
18.546,-26.15
18.562,8.54
18.578,41.92
18.593,72.39
18.609,98.41
18.625,118.59
18.640,131.87
18.656,137.85
18.671,137.21
18.687,131.64
18.703,123.24
18.718,114.21
18.734,106.21
18.750,100.05
18.765,95.94
18.781,93.53
18.796,92.31
18.812,91.73
18.828,91.31
18.843,90.56
18.859,89.0
18.875,86.0
18.890,80.85
18.906,72.93
18.921,61.72
18.937,47.16
18.953,29.87
18.968,11.11
18.984,-7.21
19.000,-23.13
19.015,-35.38
19.031,-43.99
19.046,-50.44
19.062,-57.25
19.078,-66.68
19.093,-79.59
19.109,-94.9
19.125,-109.67
19.140,-119.99
19.156,-122.39
19.171,-114.83
19.187,-97.05
19.203,-70.82
19.218,-39.32
19.234,-5.81
19.250,26.67
19.265,55.88
19.281,80.15
19.296,98.28
19.312,109.63
19.328,114.34
19.343,113.49
19.359,108.33
19.375,100.65
19.390,91.81
19.406,82.44
19.421,72.28
19.437,60.7
19.453,48.2
19.468,36.56
19.484,28.76
19.500,26.94
19.515,31.32
19.531,38.87
19.546,45.9
19.562,49.46
19.578,48.88
19.593,45.42
19.609,40.38
19.625,34.87
19.640,28.45
19.656,20.71
19.671,10.55
19.687,-1.38
19.703,-13.11
19.718,-22.01
19.734,-26.47
19.750,-26.94
19.765,-25.35
19.781,-25.02
19.796,-28.47
19.812,-38.65
19.828,-55.8
19.843,-76.92
19.859,-96.79
19.875,-109.72
19.890,-113.36
19.906,-109.73
19.921,-103.88
19.937,-99.69
19.953,-98.83
19.968,-99.18
19.984,-96.32
20.000,-87.02
20.015,-70.01
20.031,-46.54
20.046,-18.79
20.062,12.18
20.078,46.99
20.093,85.18
20.109,122.78
20.125,153.0
20.140,168.11
20.156,164.63
20.171,144.8
20.187,115.33
20.203,83.96
20.218,56.24
20.234,35.05
20.250,20.28
20.265,11.62
20.281,6.95
20.296,4.65
20.312,2.29
20.328,-2.88
20.343,-12.29
20.359,-26.31
20.375,-42.51
20.390,-57.16
20.406,-66.28
20.421,-69.83
20.437,-69.52
20.453,-69.17
20.468,-73.22
20.484,-83.77
20.500,-100.56
20.515,-121.61
20.531,-143.09
20.546,-161.35
20.562,-174.7
20.578,-182.2
20.593,-183.82
20.609,-180.39
20.625,-173.09
20.640,-162.53
20.656,-148.48
20.671,-129.07
20.687,-102.5
20.703,-68.23
20.718,-28.6
20.734,11.51
20.750,45.15
20.765,67.58
20.781,77.95
20.796,79.22
20.812,76.88
20.828,75.21
20.843,75.87
20.859,78.07
20.875,80.74
20.890,83.06
20.906,85.7
20.921,89.28
20.937,93.1
20.953,95.28
20.968,93.29
20.984,85.2
21.000,71.23
21.015,53.37
21.031,34.39
21.046,16.81
21.062,1.56
21.078,-12.34
21.093,-26.59
21.109,-42.29
21.125,-58.95
21.140,-74.69
21.156,-87.26
21.171,-95.18
21.187,-98.55
21.203,-98.94
21.218,-98.7
21.234,-99.53
21.250,-101.94
21.265,-104.66
21.281,-105.41
21.296,-101.74
21.312,-91.53
21.328,-73.04
21.343,-45.67
21.359,-10.31
21.375,30.86
21.390,74.42
21.406,116.29
21.421,152.41
21.437,179.47
21.453,195.2
21.468,199.23
21.484,192.54
21.500,177.35
21.515,156.75
21.531,134.07
21.546,112.74
21.562,95.24
21.578,82.35
21.593,73.01
21.609,64.86
21.625,55.18
21.640,42.56
21.656,27.76
21.671,13.55
21.687,3.68
21.703,1.18
21.718,6.95
21.734,19.2
21.750,34.05
21.765,47.04
21.781,54.61
21.796,54.96
21.812,47.74
21.828,33.35
21.843,12.28
21.859,-15.09
21.875,-48.05
21.890,-85.2
21.906,-123.77
21.921,-160.19
21.937,-190.82
21.953,-213.06
21.968,-225.79
21.984,-229.05
22.000,-223.44
22.015,-209.38
22.031,-187.42
22.046,-158.06
22.062,-122.09
22.078,-80.84
22.093,-36.26
22.109,9.15
22.125,52.76
22.140,91.93
22.156,124.14
22.171,146.9
22.187,158.18
22.203,157.28
22.218,145.55
22.234,126.54
22.250,104.91
22.265,85.15
22.281,69.82
22.296,59.02
22.312,51.06
22.328,44.01
22.343,36.97
22.359,30.43
22.375,25.81
22.390,23.79
22.406,24.02
22.421,24.95
22.437,24.89
22.453,22.78
22.468,18.42
22.484,11.85
22.500,3.26
22.515,-7.28
22.531,-19.86
22.546,-34.36
22.562,-50.37
22.578,-67.03
22.593,-82.83
22.609,-96.14
22.625,-106.08
22.640,-112.64
22.656,-116.91
22.671,-120.46
22.687,-124.69
22.703,-130.23
22.718,-136.72
22.734,-142.57
22.750,-145.69
22.765,-144.05
22.781,-135.96
22.796,-120.73
22.812,-98.7
22.828,-71.22
22.843,-40.28
22.859,-8.3
22.875,22.53
22.890,50.38
22.906,73.92
22.921,92.24
22.937,104.85
22.953,111.54
22.968,112.57
22.984,108.57
23.000,100.75
23.015,90.64
23.031,79.95
23.046,70.32
23.062,62.86
23.078,57.93
23.093,54.96
23.109,52.77
23.125,49.98
23.140,45.53
23.156,38.97
23.171,30.57
23.187,21.03
23.203,11.17
23.218,1.51
23.234,-7.97
23.250,-17.62
23.265,-27.92
23.281,-39.0
23.296,-50.7
23.312,-62.42
23.328,-73.53
23.343,-83.6
23.359,-92.5
23.375,-100.66
23.390,-108.79
23.406,-117.69
23.421,-127.69
23.437,-138.62
23.453,-149.13
23.468,-157.05
23.484,-159.72
23.500,-154.69
23.515,-140.67
23.531,-118.12
23.546,-89.14
23.562,-56.72
23.578,-24.24
23.593,5.62
23.609,31.12
23.625,51.62
23.640,67.47
23.656,79.67
23.671,89.46
23.687,98.08
23.703,106.19
23.718,113.66
23.734,119.65
23.750,122.98
23.765,122.77
23.781,119.3
23.796,113.7
23.812,107.61
23.828,102.4
23.843,98.45
23.859,95.19
23.875,91.68
23.890,87.11
23.906,81.08
23.921,73.78
23.937,65.29
23.953,55.42
23.968,43.52
23.984,28.87
24.000,11.37
24.015,-8.06
24.031,-27.73
24.046,-46.06
24.062,-62.07
24.078,-75.91
24.093,-88.53
24.109,-100.98
24.125,-113.91
24.140,-127.03
24.156,-139.18
24.171,-148.59
24.187,-153.39
24.203,-151.76
24.218,-142.39
24.234,-124.68
24.250,-99.17
24.265,-67.66
24.281,-32.83
24.296,2.33
24.312,35.51
24.328,65.27
24.343,91.11
24.359,112.71
24.375,129.69
24.390,141.22
24.406,146.73
24.421,146.2
24.437,140.47
24.453,131.12
24.468,119.72
24.484,107.38
24.500,94.51
24.515,81.46
24.531,68.73
24.546,57.36
24.562,48.46
24.578,42.51
24.593,39.18
24.609,37.34
24.625,35.8
24.640,33.82
24.656,31.33
24.671,28.62
24.687,26.02
24.703,23.49
24.718,20.64
24.734,17.13
24.750,12.73
24.765,7.22
24.781,0.27
24.796,-9.12
24.812,-22.12
24.828,-39.58
24.843,-61.23
24.859,-85.53
24.875,-109.74
24.890,-130.92
24.906,-146.81
24.921,-156.11
24.937,-158.62
24.953,-154.34
24.968,-143.07
24.984,-124.2
25.000,-97.64
25.015,-64.2
25.031,-26.37
25.046,12.29
25.062,48.1
25.078,78.44
25.093,102.44
25.109,120.69
25.125,134.24
25.140,143.76
25.156,149.06
25.171,149.49
25.187,145.15
25.203,137.4
25.218,128.95
25.234,122.65
25.250,120.23
25.265,121.16
25.281,123.0
25.296,122.64
25.312,117.8
25.328,108.83
25.343,98.45
25.359,90.64
25.375,88.25
25.390,91.43
25.406,97.16
25.421,100.39
25.437,96.11
25.453,81.29
25.468,56.09
25.484,23.33
25.500,-12.56
25.515,-47.29
25.531,-77.88
25.546,-102.88
25.562,-122.11
25.578,-136.08
25.593,-145.72
25.609,-151.98
25.625,-155.85
25.640,-158.07
25.656,-158.52
25.671,-156.46
25.687,-150.6
25.703,-139.75
25.718,-123.5
25.734,-102.56
25.750,-78.68
25.765,-54.16
25.781,-31.2
25.796,-11.05
25.812,5.76
25.828,19.29
25.843,29.61
25.859,36.6
25.875,40.31
25.890,41.18
25.906,40.21
25.921,38.93
25.937,38.96
25.953,41.42
25.968,46.8
25.984,54.72
26.000,64.11
26.015,73.7
26.031,82.32
26.046,89.25
26.062,94.18
26.078,97.08
26.093,97.83
26.109,96.11
26.125,91.35
26.140,82.84
26.156,70.17
26.171,53.48
26.187,33.6
26.203,11.77
26.218,-10.71
26.234,-32.78
26.250,-53.82
26.265,-73.51
26.281,-91.98
26.296,-109.76
26.312,-127.64
26.328,-146.33
26.343,-165.78
26.359,-184.92
26.375,-201.51
26.390,-212.66
26.406,-215.84
26.421,-209.8
26.437,-194.95
26.453,-173.1
26.468,-146.78
26.484,-118.32
26.500,-89.35
26.515,-60.74
26.531,-32.9
26.546,-6.08
26.562,19.36
26.578,42.88
26.593,63.78
26.609,81.5
26.625,95.58
26.640,105.88
26.656,112.53
26.671,116.04
26.687,117.43
26.703,117.88
26.718,118.62
26.734,120.65
26.750,124.46
26.765,130.17
26.781,137.68
26.796,146.77
26.812,156.95
26.828,167.44
26.843,176.86
26.859,183.04
26.875,183.53
26.890,176.11
26.906,159.5
26.921,134.02
26.937,101.3
26.953,63.79
26.968,24.12
26.984,-15.57
27.000,-53.9
27.015,-90.0
27.031,-123.4
27.046,-153.83
27.062,-180.88
27.078,-203.88
27.093,-221.82
27.109,-233.11
27.125,-235.99
27.140,-228.97
27.156,-211.37
27.171,-183.97
27.187,-148.92
27.203,-109.44
27.218,-69.07
27.234,-30.91
27.250,2.83
27.265,30.86
27.281,52.59
27.296,67.92
27.312,76.94
27.328,80.02
27.343,78.05
27.359,72.3
27.375,64.54
27.390,56.66
27.406,50.21
27.421,46.03
27.437,44.19
27.453,43.97
27.468,44.26
27.484,44.09
27.500,42.75
27.515,39.96
27.531,35.73
27.546,30.08
27.562,23.0
27.578,14.4
27.593,4.21
27.609,-7.33
27.625,-19.66
27.640,-31.92
27.656,-43.32
27.671,-53.28
27.687,-61.78
27.703,-69.28
27.718,-76.38
27.734,-83.63
27.750,-91.29
27.765,-99.32
27.781,-107.58
27.796,-115.81
27.812,-123.52
27.828,-129.77
27.843,-133.08
27.859,-131.64
27.875,-123.83
27.890,-108.84
27.906,-87.01
27.921,-59.8
27.937,-29.25
27.953,2.5
27.968,33.71
27.984,62.97
28.000,89.15
28.015,111.08
28.031,127.73
28.046,138.29
28.062,142.59
28.078,141.27
28.093,135.62
28.109,127.43
28.125,118.39
28.140,109.91
28.156,102.8
28.171,97.32
28.187,93.37
28.203,90.52
28.218,88.19
28.234,85.69
28.250,82.51
28.265,78.15
28.281,72.4
28.296,65.19
28.312,56.58
28.328,46.71
28.343,35.68
28.359,23.55
28.375,10.42
28.390,-3.47
28.406,-17.66
28.421,-31.58
28.437,-44.65
28.453,-56.64
28.468,-67.59
28.484,-77.87
28.500,-88.01
28.515,-98.51
28.531,-109.52
28.546,-120.94
28.562,-132.16
28.578,-141.96
28.593,-148.75
28.609,-150.55
28.625,-145.7
28.640,-133.31
28.656,-113.7
28.671,-88.33
28.687,-59.45
28.703,-29.36
28.718,0.19
28.734,27.88
28.750,53.0
28.765,74.79
28.781,92.38
28.796,104.83
28.812,111.49
28.828,112.42
28.843,108.51
28.859,101.34
28.875,92.59
28.890,83.71
28.906,75.58
28.921,68.61
28.937,62.92
28.953,58.58
28.968,55.59
28.984,53.74
29.000,52.43
29.015,50.61
29.031,47.1
29.046,41.1
29.062,32.46
29.078,21.71
29.093,9.79
29.109,-2.32
29.125,-14.1
29.140,-25.35
29.156,-36.1
29.171,-46.49
29.187,-56.42
29.203,-65.75
29.218,-74.51
29.234,-83.12
29.250,-92.26
29.265,-102.77
29.281,-115.03
29.296,-128.47
29.312,-141.43
29.328,-151.28
29.343,-154.88
29.359,-149.65
29.375,-134.31
29.390,-109.36
29.406,-77.14
29.421,-41.05
29.437,-4.74
29.453,28.83
29.468,57.88
29.484,81.65
29.500,100.06
29.515,113.28
29.531,121.48
29.546,124.75
29.562,123.55
29.578,118.71
29.593,111.43
29.609,103.14
29.625,95.12
29.640,88.05
29.656,82.07
29.671,76.79
29.687,71.53
29.703,65.97
29.718,60.09
29.734,54.11
29.750,48.27
29.765,42.59
29.781,36.61
29.796,29.72
29.812,21.32
29.828,11.0
29.843,-1.03
29.859,-14.19
29.875,-27.72
29.890,-40.81
29.906,-52.72
29.921,-63.06
29.937,-71.72
29.953,-79.12
29.968,-86.14
29.984,-93.92
30.000,-103.43
30.015,-114.89
30.031,-127.28
30.046,-138.23
30.062,-144.74
30.078,-143.93
30.093,-134.17
30.109,-115.57
30.125,-89.64
30.140,-58.83
30.156,-25.71
30.171,7.57
30.187,39.48
30.203,68.91
30.218,94.91
30.234,116.56
30.250,132.93
30.265,143.19
30.281,146.85
30.296,143.8
30.312,134.6
30.328,120.68
30.343,104.29
30.359,88.17
30.375,74.73
30.390,65.41
30.406,60.31
30.421,58.29
30.437,57.5
30.453,56.32
30.468,53.96
30.484,50.52
30.500,46.51
30.515,42.11
30.531,36.59
30.546,28.6
30.562,16.85
30.578,0.98
30.593,-17.81
30.609,-36.94
30.625,-53.25
30.640,-64.44
30.656,-70.15
30.671,-72.43
30.687,-74.3
30.703,-78.49
30.718,-86.58
30.734,-98.42
30.750,-112.32
30.765,-125.8
30.781,-136.33
30.796,-141.63
30.812,-140.53
30.828,-132.41
30.843,-117.51
30.859,-96.98
30.875,-72.73
30.890,-46.66
30.906,-19.72
30.921,8.41
30.937,38.57
30.953,70.73
30.968,103.13
30.984,132.01
31.000,153.05
31.015,163.25
31.031,162.39
31.046,153.07
31.062,139.44
31.078,125.31
31.093,112.53
31.109,100.89
31.125,88.86
31.140,75.15
31.156,59.7
31.171,43.66
31.187,29.06
31.203,18.3
31.218,13.02
31.234,13.32
31.250,17.4
31.265,22.07
31.281,23.89
31.296,20.94
31.312,13.04
31.328,1.58
31.343,-11.57
31.359,-25.09
31.375,-38.49
31.390,-52.44
31.406,-67.17
31.421,-81.94
31.437,-94.97
31.453,-104.65
31.468,-110.11
31.484,-112.04
31.500,-112.31
31.515,-111.92
31.531,-111.09
31.546,-108.29
31.562,-101.4
31.578,-89.06
31.593,-71.74
31.609,-51.43
31.625,-30.66
31.640,-11.16
31.656,7.05
31.671,24.77
31.687,42.88
31.703,61.09
31.718,77.69
31.734,90.34
31.750,97.2
31.765,97.52
31.781,91.86
31.796,81.87
31.812,69.5
31.828,57.03
31.843,46.86
31.859,40.85
31.875,40.64
31.890,46.45
31.906,56.51
31.921,67.32
31.937,74.47
31.953,73.63
31.968,62.66
31.984,42.28
32.000,15.08
32.015,-14.51
32.031,-42.43
32.046,-65.8
32.062,-83.27
32.078,-94.68
32.093,-100.73
32.109,-102.37
32.125,-100.77
32.140,-97.88
32.156,-95.89
32.171,-97.09
32.187,-102.73
32.203,-112.36
32.218,-123.68
32.234,-133.33
32.250,-137.75
32.265,-134.0
32.281,-120.86
32.296,-98.84
32.312,-70.18
32.328,-38.22
32.343,-6.35
32.359,22.95
32.375,48.23
32.390,69.13
32.406,85.71
32.421,98.06
32.437,106.19
32.453,110.02
32.468,109.76
32.484,105.98
32.500,99.77
32.515,92.27
32.531,84.57
32.546,77.1
32.562,69.94
32.578,63.03
32.593,56.7
32.609,51.53
32.625,48.09
32.640,46.39
32.656,45.61
32.671,44.11
32.687,40.16
32.703,32.62
32.718,21.45
32.734,7.98
32.750,-5.9
32.765,-18.45
32.781,-28.8
32.796,-37.0
32.812,-44.01
32.828,-50.95
32.843,-58.93
32.859,-68.73
32.875,-80.4
32.890,-93.44
32.906,-106.52
32.921,-117.56
32.937,-124.17
32.953,-124.33
32.968,-116.81
32.984,-101.87
33.000,-81.32
33.015,-57.41
33.031,-32.39
33.046,-7.83
33.062,15.25
33.078,36.19
33.093,54.28
33.109,68.86
33.125,79.56
33.140,86.05
33.156,88.97
33.171,89.38
33.187,88.83
33.203,88.41
33.218,88.48
33.234,88.65
33.250,88.17
33.265,86.21
33.281,81.59
33.296,74.2
33.312,63.77
33.328,50.89
33.343,36.69
33.359,22.77
33.375,10.97
33.390,2.59
33.406,-1.63
33.421,-2.95
33.437,-2.68
33.453,-3.22
33.468,-6.42
33.484,-12.87
33.500,-22.25
33.515,-33.24
33.531,-44.81
33.546,-55.9
33.562,-66.37
33.578,-76.28
33.593,-86.15
33.609,-96.33
33.625,-106.43
33.640,-115.45
33.656,-121.73
33.671,-123.98
33.687,-121.11
33.703,-112.83
33.718,-99.36
33.734,-81.58
33.750,-60.48
33.765,-36.9
33.781,-12.46
33.796,11.67
33.812,33.97
33.828,53.34
33.843,68.93
33.859,80.7
33.875,89.17
33.890,94.88
33.906,98.99
33.921,101.6
33.937,103.04
33.953,103.4
33.968,102.98
33.984,101.9
34.000,100.08
34.015,97.5
34.031,94.03
34.046,89.75
34.062,84.83
34.078,79.63
34.093,74.29
34.109,68.83
34.125,62.93
34.140,55.95
34.156,47.47
34.171,37.45
34.187,26.35
34.203,14.89
34.218,3.92
34.234,-6.11
34.250,-15.21
34.265,-23.68
34.281,-32.1
34.296,-40.83
34.312,-50.12
34.328,-60.08
34.343,-70.66
34.359,-81.39
34.375,-91.5
34.390,-99.54
34.406,-103.74
34.421,-102.36
34.437,-94.21
34.453,-79.28
34.468,-58.75
34.484,-34.8
34.500,-9.85
34.515,13.88
34.531,34.81
34.546,52.07
34.562,65.17
34.578,73.87
34.593,78.05
34.609,77.95
34.625,74.23
34.640,68.12
34.656,61.09
34.671,54.46
34.687,49.07
34.703,44.94
34.718,41.37
34.734,37.46
34.750,32.41
34.765,25.95
34.781,18.46
34.796,10.72
34.812,3.52
34.828,-2.68
34.843,-7.93
34.859,-12.83
34.875,-18.38
34.890,-25.69
34.906,-35.49
34.921,-47.96
34.937,-62.6
34.953,-78.22
34.968,-93.37
34.984,-106.58
35.000,-116.72
35.015,-123.14
35.031,-125.97
35.046,-125.93
35.062,-124.06
35.078,-121.64
35.093,-119.61
35.109,-118.14
35.125,-116.48
35.140,-113.02
35.156,-105.83
35.171,-93.22
35.187,-74.52
35.203,-50.22
35.218,-21.9
35.234,8.34
35.250,38.37
35.265,66.38
35.281,91.01
35.296,111.19
35.312,126.12
35.328,135.03
35.343,137.54
35.359,133.71
35.375,124.39
35.390,111.04
35.406,95.42
35.421,79.14
35.437,63.31
35.453,48.54
35.468,34.88
35.484,22.3
35.500,10.75
35.515,0.42
35.531,-8.21
35.546,-14.64
35.562,-18.49
35.578,-19.71
35.593,-18.65
35.609,-16.15
35.625,-13.32
35.640,-11.41
35.656,-11.49
35.671,-14.11
35.687,-19.02
35.703,-25.33
35.718,-31.94
35.734,-38.02
35.750,-43.42
35.765,-48.77
35.781,-55.26
35.796,-63.92
35.812,-74.93
35.828,-87.32
35.843,-99.04
35.859,-107.55
35.875,-110.71
35.890,-107.4
35.906,-97.58
35.921,-82.3
35.937,-62.92
35.953,-40.79
35.968,-17.01
35.984,7.54
36.000,32.05
36.015,55.5
36.031,76.66
36.046,94.34
36.062,107.48
36.078,115.48
36.093,118.27
36.109,116.29
36.125,110.41
36.140,101.73
36.156,91.43
36.171,80.46
36.187,69.7
36.203,59.8
36.218,51.23
36.234,44.2
36.250,38.59
36.265,33.94
36.281,29.63
36.296,24.93
36.312,19.37
36.328,12.61
36.343,4.77
36.359,-3.76
36.375,-12.48
36.390,-20.8
36.406,-28.24
36.421,-34.51
36.437,-39.77
36.453,-44.59
36.468,-50.1
36.484,-57.4
36.500,-67.13
36.515,-79.11
36.531,-92.04
36.546,-103.9
36.562,-112.61
36.578,-116.73
36.593,-115.86
36.609,-110.61
36.625,-102.05
36.640,-91.03
36.656,-78.01
36.671,-62.97
36.687,-45.89
36.703,-27.14
36.718,-7.52
36.734,11.95
36.750,30.36
36.765,47.05
36.781,61.6
36.796,73.57
36.812,82.58
36.828,88.19
36.843,90.23
36.859,89.11
36.875,85.77
36.890,81.52
36.906,77.48
36.921,74.38
36.937,72.31
36.953,71.01
36.968,69.73
36.984,67.65
37.000,64.03
37.015,58.52
37.031,51.27
37.046,43.09
37.062,35.08
37.078,28.23
37.093,23.01
37.109,18.98
37.125,15.14
37.140,10.46
37.156,4.32
37.171,-3.31
37.187,-11.86
37.203,-20.64
37.218,-29.12
37.234,-37.18
37.250,-44.97
37.265,-52.75
37.281,-60.8
37.296,-69.4
37.312,-78.67
37.328,-88.57
37.343,-98.58
37.359,-107.53
37.375,-113.67
37.390,-115.02
37.406,-109.83
37.421,-97.31
37.437,-77.89
37.453,-53.03
37.468,-25.05
37.484,3.61
37.500,30.72
37.515,54.52
37.531,73.83
37.546,88.01
37.562,97.01
37.578,101.25
37.593,101.71
37.609,99.63
37.625,96.17
37.640,92.32
37.656,88.63
37.671,85.56
37.687,83.23
37.703,81.54
37.718,80.18
37.734,78.56
37.750,75.91
37.765,71.61
37.781,65.38
37.796,57.37
37.812,48.28
37.828,38.87
37.843,29.73
37.859,21.09
37.875,12.86
37.890,4.75
37.906,-3.42
37.921,-11.72
37.937,-20.19
37.953,-28.81
37.968,-37.6
37.984,-46.62
38.000,-55.9
38.015,-65.38
38.031,-75.0
38.046,-84.69
38.062,-94.43
38.078,-104.2
38.093,-113.73
38.109,-122.18
38.125,-128.08
38.140,-129.59
38.156,-125.09
38.171,-113.88
38.187,-96.39
38.203,-74.25
38.218,-49.72
38.234,-24.96
38.250,-1.64
38.265,19.19
38.281,37.0
38.296,51.15
38.312,60.95
38.328,65.86
38.343,65.82
38.359,61.67
38.375,55.07
38.390,48.02
38.406,42.19
38.421,38.49
38.437,36.9
38.453,36.67
38.468,36.88
38.484,36.76
38.500,35.99
38.515,34.53
38.531,32.31
38.546,29.06
38.562,24.31
38.578,17.57
38.593,8.71
38.609,-1.68
38.625,-12.53
38.640,-22.46
38.656,-30.33
38.671,-35.86
38.687,-39.64
38.703,-42.86
38.718,-46.88
38.734,-52.62
38.750,-60.37
38.765,-69.93
38.781,-80.8
38.796,-92.4
38.812,-104.05
38.828,-114.55
38.843,-122.04
38.859,-124.2
38.875,-118.84
38.890,-104.91
38.906,-83.5
38.921,-57.58
38.937,-31.27
38.953,-8.22
38.968,9.8
38.984,23.22
39.000,33.98
39.015,44.23
39.031,55.04
39.046,65.89
39.062,75.42
39.078,82.21
39.093,85.68
39.109,86.53
39.125,86.04
39.140,85.29
39.156,84.72
39.171,83.86
39.187,81.86
39.203,78.13
39.218,72.68
39.234,65.92
39.250,58.53
39.265,50.99
39.281,43.8
39.296,37.47
39.312,32.5
39.328,29.06
39.343,26.8
39.359,24.5
39.375,20.32
39.390,12.62
39.406,0.37
39.421,-16.28
39.437,-36.19
39.453,-57.84
39.468,-80.14
39.484,-102.14
39.500,-122.87
39.515,-140.57
39.531,-152.8
39.546,-157.4
39.562,-153.53
39.578,-142.23
39.593,-126.13
39.609,-108.22
39.625,-90.44
39.640,-73.24
39.656,-55.86
39.671,-37.53
39.687,-18.55
39.703,-0.55
39.718,14.48
39.734,25.27
39.750,32.07
39.765,36.44
39.781,40.27
39.796,44.81
39.812,50.2
39.828,55.69
39.843,60.38
39.859,63.93
39.875,66.66
39.890,69.43
39.906,72.89
39.921,76.86
39.937,80.07
39.953,80.68
39.968,76.92
39.984,67.99
40.000,54.55
40.015,38.46
40.031,22.19
40.046,7.72
40.062,-3.95
40.078,-13.08
40.093,-20.57
40.109,-27.5
40.125,-34.38
40.140,-41.25
40.156,-47.82
40.171,-53.7
40.187,-58.76
40.203,-63.11
40.218,-67.07
40.234,-71.03
40.250,-75.41
40.265,-80.52
40.281,-86.35
40.296,-92.37
40.312,-97.44
40.328,-100.0
40.343,-98.54
40.359,-91.98
40.375,-80.06
40.390,-63.2
40.406,-42.48
40.421,-19.55
40.437,3.68
40.453,25.28
40.468,43.71
40.484,58.34
40.500,69.43
40.515,77.79
40.531,84.2
40.546,88.69
40.562,90.22
40.578,87.3
40.593,78.98
40.609,65.84
40.625,50.54
40.640,36.96
40.656,28.97
40.671,29.28
40.687,38.31
40.703,54.04
40.718,72.54
40.734,88.82
40.750,98.21
40.765,97.71
40.781,86.68
40.796,66.88
40.812,41.9
40.828,15.76
40.843,-8.19
40.859,-28.03
40.875,-43.62
40.890,-56.27
40.906,-67.78
40.921,-80.03
40.937,-94.15
40.953,-110.06
40.968,-126.45
40.984,-140.86
41.000,-150.4
41.015,-152.74
41.031,-147.13
41.046,-134.27
41.062,-116.14
41.078,-94.89
41.093,-71.74
41.109,-46.66
41.125,-18.6
41.140,13.39
41.156,48.94
41.171,85.87
41.187,120.37
41.203,148.22
41.218,166.23
41.234,173.14
41.250,169.79
41.265,158.62
41.281,142.81
41.296,125.45
41.312,109.21
41.328,96.01
41.343,87.01
41.359,82.6
41.375,82.17
41.390,83.99
41.406,85.64
41.421,84.62
41.437,79.15
41.453,68.71
41.468,54.01
41.484,36.76
41.500,19.1
41.515,3.11
41.531,-9.82
41.546,-19.14
41.562,-25.19
41.578,-28.86
41.593,-31.38
41.609,-33.98
41.625,-37.57
41.640,-42.63
41.656,-49.33
41.671,-57.68
41.687,-67.66
41.703,-79.35
41.718,-92.38
41.734,-105.83
41.750,-117.98
41.765,-126.59
41.781,-129.37
41.796,-124.7
41.812,-111.9
41.828,-91.45
41.843,-64.82
41.859,-34.23
41.875,-2.16
41.890,28.86
41.906,56.72
41.921,79.81
41.937,97.17
41.953,108.53
41.968,114.05
41.984,114.48
42.000,110.89
42.015,104.79
42.031,97.79
42.046,91.39
42.062,86.36
42.078,82.7
42.093,79.7
42.109,76.31
42.125,71.86
42.140,66.14
42.156,59.5
42.171,52.39
42.187,45.1
42.203,37.56
42.218,29.47
42.234,20.55
42.250,10.65
42.265,-0.04
42.281,-11.14
42.296,-22.24
42.312,-32.85
42.328,-42.67
42.343,-51.41
42.359,-59.01
42.375,-65.73
42.390,-72.28
42.406,-79.68
42.421,-88.8
42.437,-100.08
42.453,-112.77
42.468,-125.16
42.484,-134.65
42.500,-138.35
42.515,-134.09
42.531,-121.01
42.546,-99.82
42.562,-72.46
42.578,-41.56
42.593,-9.69
42.609,20.95
42.625,48.71
42.640,72.69
42.656,92.51
42.671,108.13
42.687,119.64
42.703,127.04
42.718,130.24
42.734,129.22
42.750,124.14
42.765,115.65
42.781,105.13
42.796,94.24
42.812,84.49
42.828,76.79
42.843,71.11
42.859,66.81
42.875,63.13
42.890,59.42
42.906,55.31
42.921,50.53
42.937,44.68
42.953,37.04
42.968,27.02
42.984,14.3
43.000,-0.69
43.015,-16.66
43.031,-31.89
43.046,-44.78
43.062,-54.4
43.078,-60.95
43.093,-65.66
43.109,-70.26
43.125,-76.38
43.140,-85.11
43.156,-96.38
43.171,-109.0
43.187,-120.91
43.203,-129.56
43.218,-132.72
43.234,-128.83
43.250,-117.53
43.265,-99.54
43.281,-76.52
43.296,-50.3
43.312,-22.71
43.328,4.79
43.343,31.11
43.359,55.42
43.375,76.9
43.390,94.77
43.406,108.36
43.421,117.04
43.437,120.59
43.453,119.1
43.468,113.2
43.484,103.96
43.500,93.01
43.515,81.87
43.531,71.98
43.546,64.2
43.562,58.67
43.578,55.03
43.593,52.57
43.609,50.44
43.625,47.93
43.640,44.46
43.656,39.48
43.671,32.61
43.687,23.77
43.703,13.02
43.718,0.89
43.734,-11.76
43.750,-24.08
43.765,-35.15
43.781,-44.57
43.796,-52.25
43.812,-58.64
43.828,-64.35
43.843,-70.28
43.859,-77.1
43.875,-85.23
43.890,-94.86
43.906,-105.54
43.921,-116.37
43.937,-125.86
43.953,-132.24
43.968,-133.69
43.984,-128.89
44.000,-117.15
44.015,-98.74
44.031,-75.0
44.046,-47.87
44.062,-19.6
44.078,7.74
44.093,32.51
44.109,53.66
44.125,70.6
44.140,83.08
44.156,91.19
44.171,95.1
44.187,95.44
44.203,93.13
44.218,89.33
44.234,85.27
44.250,82.02
44.265,80.18
44.281,79.73
44.296,80.31
44.312,81.06
44.328,81.19
44.343,80.03
44.359,77.09
44.375,72.31
44.390,65.96
44.406,58.71
44.421,51.34
44.437,44.73
44.453,39.41
44.468,35.46
44.484,32.54
44.500,29.83
44.515,26.45
44.531,21.6
44.546,14.82
44.562,5.93
44.578,-5.07
44.593,-18.05
44.609,-32.8
44.625,-48.84
44.640,-65.59
44.656,-82.26
44.671,-98.11
44.687,-112.57
44.703,-124.98
44.718,-134.53
44.734,-140.11
44.750,-140.27
44.765,-133.59
44.781,-119.39
44.796,-98.13
44.812,-71.5
44.828,-42.21
44.843,-13.17
44.859,13.15
44.875,35.1
44.890,51.83
44.906,63.3
44.921,69.9
44.937,72.43
44.953,71.96
44.968,69.67
44.984,66.67
45.000,63.71
45.015,61.18
45.031,58.95
45.046,56.78
45.062,54.49
45.078,51.98
45.093,49.31
45.109,46.4
45.125,43.1
45.140,39.24
45.156,34.8
45.171,29.94
45.187,24.82
45.203,19.44
45.218,13.3
45.234,5.65
45.250,-4.24
45.265,-16.59
45.281,-30.88
45.296,-45.88
45.312,-60.04
45.328,-71.93
45.343,-80.75
45.359,-86.51
45.375,-89.97
45.390,-92.3
45.406,-94.82
45.421,-98.54
45.437,-104.12
45.453,-111.53
45.468,-119.81
45.484,-127.26
45.500,-131.58
45.515,-130.34
45.531,-121.81
45.546,-105.44
45.562,-82.0
45.578,-53.51
45.593,-22.76
45.609,7.49
45.625,34.82
45.640,57.5
45.656,74.62
45.671,85.97
45.687,91.73
45.703,92.51
45.718,89.07
45.734,82.28
45.750,73.2
45.765,63.2
45.781,53.8
45.796,46.72
45.812,43.34
45.828,44.17
45.843,48.51
45.859,54.67
45.875,60.19
45.890,62.83
45.906,61.18
45.921,54.98
45.937,44.95
45.953,32.27
45.968,18.22
45.984,3.86
46.000,-9.9
46.015,-22.14
46.031,-32.0
46.046,-38.97
46.062,-43.33
46.078,-46.11
46.093,-49.03
46.109,-53.55
46.125,-60.54
46.140,-70.01
46.156,-81.25
46.171,-93.49
46.187,-106.02
46.203,-118.43
46.218,-130.35
46.234,-140.98
46.250,-148.8
46.265,-151.78
46.281,-147.81
46.296,-135.14
46.312,-113.2
46.328,-82.59
46.343,-45.39
46.359,-4.79
46.375,35.29
46.390,70.85
46.406,98.68
46.421,116.83
46.437,125.05
46.453,124.51
46.468,117.52
46.484,106.77
46.500,94.88
46.515,83.73
46.531,74.44
46.546,67.48
46.562,62.83
46.578,60.16
46.593,58.75
46.609,57.8
46.625,56.47
46.640,54.12
46.656,50.64
46.671,46.24
46.687,41.32
46.703,36.19
46.718,30.86
46.734,24.74
46.750,17.15
46.765,7.53
46.781,-4.21
46.796,-17.33
46.812,-30.69
46.828,-43.03
46.843,-53.75
46.859,-62.74
46.875,-70.64
46.890,-78.36
46.906,-86.69
46.921,-95.97
46.937,-105.84
46.953,-115.43
46.968,-123.33
46.984,-128.07
47.000,-128.12
47.015,-122.28
47.031,-110.06
47.046,-91.82
47.062,-68.84
47.078,-43.0
47.093,-16.36
47.109,9.26
47.125,32.46
47.140,52.52
47.156,69.09
47.171,82.04
47.187,91.44
47.203,97.34
47.218,99.99
47.234,99.76
47.250,97.34
47.265,93.4
47.281,88.65
47.296,83.6
47.312,78.46
47.328,73.31
47.343,68.03
47.359,62.61
47.375,57.06
47.390,51.63
47.406,46.48
47.421,41.67
47.437,37.14
47.453,32.67
47.468,27.92
47.484,22.64
47.500,16.72
47.515,10.15
47.531,3.28
47.546,-3.59
47.562,-10.27
47.578,-16.91
47.593,-23.86
47.609,-31.54
47.625,-40.36
47.640,-50.45
47.656,-61.85
47.671,-74.41
47.687,-87.77
47.703,-101.05
47.718,-112.85
47.734,-121.12
47.750,-123.53
47.765,-118.27
47.781,-104.67
47.796,-83.71
47.812,-57.63
47.828,-29.41
47.843,-1.79
47.859,23.37
47.875,45.13
47.890,63.08
47.906,77.08
47.921,86.99
47.937,92.59
47.953,94.15
47.968,92.48
47.984,88.78
48.000,84.52
48.015,80.82
48.031,78.24
48.046,76.81
48.062,76.21
48.078,75.93
48.093,75.56
48.109,74.91
48.125,73.78
48.140,72.1
48.156,69.69
48.171,66.35
48.187,61.77
48.203,55.85
48.218,48.48
48.234,39.74
48.250,29.88
48.265,19.18
48.281,8.08
48.296,-3.01
48.312,-13.68
48.328,-23.65
48.343,-32.77
48.359,-41.28
48.375,-49.62
48.390,-58.39
48.406,-68.15
48.421,-78.97
48.437,-90.35
48.453,-101.12
48.468,-109.6
48.484,-113.93
48.500,-112.54
48.515,-104.55
48.531,-90.17
48.546,-70.56
48.562,-47.56
48.578,-23.23
48.593,0.42
48.609,21.87
48.625,40.11
48.640,54.57
48.656,65.09
48.671,71.65
48.687,74.36
48.703,73.56
48.718,69.92
48.734,64.18
48.750,57.43
48.765,50.64
48.781,44.52
48.796,39.52
48.812,35.6
48.828,32.4
48.843,29.51
48.859,26.66
48.875,23.71
48.890,20.7
48.906,17.71
48.921,14.74
48.937,11.7
48.953,8.34
48.968,4.46
48.984,-0.14
49.000,-5.65
49.015,-12.07
49.031,-19.52
49.046,-28.25
49.062,-38.49
49.078,-50.37
49.093,-63.8
49.109,-78.33
49.125,-93.3
49.140,-107.87
49.156,-121.05
49.171,-131.82
49.187,-139.15
49.203,-141.98
49.218,-139.2
49.234,-130.17
49.250,-114.78
49.265,-93.87
49.281,-69.17
49.296,-42.89
49.312,-17.27
49.328,5.89
49.343,25.37
49.359,40.78
49.375,52.05
49.390,59.45
49.406,63.28
49.421,64.0
49.437,62.37
49.453,59.36
49.468,56.09
49.484,53.56
49.500,52.33
49.515,52.3
49.531,52.98
49.546,53.64
49.562,53.67
49.578,52.79
49.593,51.13
49.609,48.83
49.625,45.89
49.640,42.06
49.656,36.73
49.671,29.41
49.687,20.03
49.703,9.03
49.718,-2.66
49.734,-13.97
49.750,-23.92
49.765,-32.11
49.781,-38.57
49.796,-43.86
49.812,-48.73
49.828,-53.81
49.843,-59.7
49.859,-66.62
49.875,-74.44
49.890,-82.44
49.906,-89.4
49.921,-93.71
49.937,-93.67
49.953,-88.11
49.968,-76.67
49.984,-59.98
50.000,-39.46
50.015,-16.93
50.031,5.86
50.046,27.49
50.062,46.86
50.078,63.28
50.093,76.34
50.109,85.77
50.125,91.39
50.140,93.34
50.156,91.99
50.171,87.97
50.187,82.22
50.203,75.72
50.218,69.31
50.234,63.4
50.250,58.15
50.265,53.44
50.281,49.05
50.296,44.91
50.312,40.89
50.328,36.98
50.343,32.95
50.359,28.61
50.375,23.55
50.390,17.38
50.406,10.0
50.421,1.39
50.437,-8.05
50.453,-17.8
50.468,-27.24
50.484,-36.05
50.500,-44.11
50.515,-51.64
50.531,-59.08
50.546,-66.88
50.562,-75.4
50.578,-84.67
50.593,-94.18
50.609,-102.8
50.625,-108.96
50.640,-110.89
50.656,-107.18
50.671,-97.15
50.687,-81.04
50.703,-60.03
50.718,-35.96
50.734,-10.87
50.750,13.32
50.765,35.08
50.781,53.32
50.796,67.47
50.812,77.32
50.828,82.95
50.843,84.72
50.859,83.22
50.875,79.36
50.890,74.14
50.906,68.5
50.921,63.26
50.937,58.89
50.953,55.41
50.968,52.62
50.984,50.09
51.000,47.49
51.015,44.49
51.031,41.05
51.046,37.04
51.062,32.52
51.078,27.42
51.093,21.59
51.109,14.84
51.125,7.11
51.140,-1.36
51.156,-10.13
51.171,-18.56
51.187,-26.2
51.203,-32.79
51.218,-38.57
51.234,-43.97
51.250,-49.7
51.265,-56.27
51.281,-64.11
51.296,-73.23
51.312,-83.04
51.328,-92.45
51.343,-99.77
51.359,-103.22
51.375,-101.25
51.390,-93.11
51.406,-78.82
51.421,-59.48
51.437,-36.76
51.453,-12.52
51.468,11.43
51.484,33.57
51.500,52.79
51.515,68.25
51.531,79.36
51.546,85.95
51.562,88.13
51.578,86.49
51.593,82.0
51.609,75.88
51.625,69.34
51.640,63.33
51.656,58.44
51.671,54.72
51.687,51.95
51.703,49.72
51.718,47.63
51.734,45.44
51.750,42.91
51.765,39.91
51.781,36.27
51.796,31.76
51.812,26.14
51.828,19.18
51.843,10.73
51.859,0.84
51.875,-9.97
51.890,-21.11
51.906,-31.77
51.921,-41.42
51.937,-49.88
51.953,-57.44
51.968,-64.53
51.984,-71.72
52.000,-79.51
52.015,-88.03
52.031,-97.08
52.046,-105.9
52.062,-113.23
52.078,-117.25
52.093,-116.27
52.109,-108.94
52.125,-94.85
52.140,-74.79
52.156,-50.53
52.171,-24.28
52.187,1.78
52.203,25.96
52.218,47.16
52.234,64.71
52.250,78.14
52.265,87.18
52.281,91.75
52.296,92.16
52.312,89.22
52.328,84.11
52.343,78.04
52.359,71.94
52.375,66.38
52.390,61.42
52.406,56.95
52.421,52.77
52.437,48.79
52.453,44.95
52.468,41.1
52.484,37.1
52.500,32.68
52.515,27.56
52.531,21.57
52.546,14.56
52.562,6.43
52.578,-2.78
52.593,-12.81
52.609,-23.25
52.625,-33.5
52.640,-43.06
52.656,-51.75
52.671,-59.63
52.687,-67.11
52.703,-74.63
52.718,-82.64
52.734,-91.33
52.750,-100.52
52.765,-109.7
52.781,-117.82
52.796,-123.43
52.812,-124.87
52.828,-120.66
52.843,-109.92
52.859,-92.77
52.875,-70.38
52.890,-44.5
52.906,-17.27
52.921,9.4
52.937,34.06
52.953,55.75
52.968,73.79
52.984,87.8
53.000,97.52
53.015,102.94
53.031,104.4
53.046,102.57
53.062,98.45
53.078,93.07
53.093,87.39
53.109,82.05
53.125,77.3
53.140,73.06
53.156,69.12
53.171,65.13
53.187,60.9
53.203,56.34
53.218,51.42
53.234,46.04
53.250,40.16
53.265,33.65
53.281,26.31
53.296,18.08
53.312,8.88
53.328,-1.19
53.343,-11.82
53.359,-22.53
53.375,-32.84
53.390,-42.32
53.406,-50.82
53.421,-58.59
53.437,-66.16
53.453,-74.2
53.468,-83.14
53.484,-93.03
53.500,-103.35
53.515,-113.01
53.531,-120.53
53.546,-124.19
53.562,-122.46
53.578,-114.29
53.593,-99.6
53.609,-79.06
53.625,-54.25
53.640,-27.28
53.656,-0.25
53.671,25.08
53.687,47.47
53.703,66.18
53.718,80.92
53.734,91.44
53.750,97.72
53.765,99.93
53.781,98.48
53.796,94.17
53.812,88.12
53.828,81.46
53.843,75.06
53.859,69.45
53.875,64.72
53.890,60.67
53.906,57.07
53.921,53.66
53.937,50.24
53.953,46.59
53.968,42.54
53.984,37.95
54.000,32.72
54.015,26.93
54.031,20.56
54.046,13.6
54.062,5.91
54.078,-2.45
54.093,-11.45
54.109,-20.8
54.125,-30.06
54.140,-38.91
54.156,-47.22
54.171,-55.06
54.187,-62.67
54.203,-70.46
54.218,-78.71
54.234,-87.71
54.250,-97.51
54.265,-107.79
54.281,-117.61
54.296,-125.46
54.312,-129.37
54.328,-127.47
54.343,-118.53
54.359,-102.5
54.375,-80.49
54.390,-54.58
54.406,-27.09
54.421,-0.21
54.437,24.51
54.453,46.12
54.468,64.09
54.484,78.11
54.500,87.84
54.515,93.12
54.531,94.03
54.546,91.22
54.562,85.77
54.578,79.12
54.593,72.58
54.609,66.99
54.625,62.67
54.640,59.34
54.656,56.4
54.671,53.33
54.687,49.78
54.703,45.7
54.718,41.16
54.734,36.21
54.750,30.84
54.765,24.94
54.781,18.29
54.796,10.77
54.812,2.4
54.828,-6.84
54.843,-16.72
54.859,-27.09
54.875,-37.78
54.890,-48.51
54.906,-58.98
54.921,-68.99
54.937,-78.39
54.953,-87.22
54.968,-95.71
54.984,-104.2
55.000,-113.07
55.015,-122.56
55.031,-132.3
55.046,-141.28
55.062,-147.75
55.078,-149.46
55.093,-144.46
55.109,-131.75
55.125,-111.73
55.140,-85.94
55.156,-56.9
55.171,-26.9
55.187,2.12
55.203,28.89
55.218,52.68
55.234,72.8
55.250,88.54
55.265,99.36
55.281,105.05
55.296,105.95
55.312,103.1
55.328,97.95
55.343,91.99
55.359,86.46
55.375,82.03
55.390,78.82
55.406,76.64
55.421,75.11
55.437,73.62
55.453,71.59
55.468,68.51
55.484,63.97
55.500,57.95
55.515,50.68
55.531,42.6
55.546,34.09
55.562,25.37
55.578,16.22
55.593,6.31
55.609,-4.58
55.625,-16.36
55.640,-28.54
55.656,-40.43
55.671,-51.39
55.687,-61.11
55.703,-69.64
55.718,-77.52
55.734,-85.33
55.750,-93.65
55.765,-102.81
55.781,-112.54
55.796,-122.08
55.812,-130.04
55.828,-134.51
55.843,-133.38
55.859,-125.01
55.875,-108.59
55.890,-84.73
55.906,-55.19
55.921,-22.59
55.937,10.24
55.953,40.93
55.968,67.89
55.984,90.32
56.000,107.95
56.015,120.8
56.031,128.89
56.046,132.49
56.062,132.1
56.078,128.49
56.093,122.67
56.109,115.72
56.125,108.58
56.140,101.96
56.156,96.18
56.171,91.25
56.187,86.98
56.203,83.16
56.218,79.49
56.234,75.65
56.250,71.33
56.265,66.21
56.281,60.11
56.296,52.99
56.312,44.85
56.328,35.8
56.343,25.97
56.359,15.45
56.375,4.3
56.390,-7.39
56.406,-19.44
56.421,-31.48
56.437,-43.05
56.453,-53.8
56.468,-63.53
56.484,-72.44
56.500,-81.03
56.515,-89.93
56.531,-99.89
56.546,-111.25
56.562,-123.62
56.578,-135.71
56.593,-145.38
56.609,-149.98
56.625,-147.16
56.640,-135.49
56.656,-114.84
56.671,-86.68
56.687,-53.47
56.703,-18.23
56.718,16.28
56.734,47.8
56.750,74.91
56.765,96.81
56.781,113.19
56.796,124.18
56.812,130.03
56.828,131.35
56.843,128.84
56.859,123.45
56.875,116.25
56.890,108.39
56.906,100.83
56.921,94.33
56.937,89.28
56.953,85.62
56.968,83.02
56.984,80.92
57.000,78.85
57.015,76.35
57.031,73.16
57.046,69.16
57.062,64.42
57.078,58.91
57.093,52.55
57.109,45.17
57.125,36.64
57.140,26.92
57.156,16.2
57.171,4.8
57.187,-6.92
57.203,-18.67
57.218,-30.25
57.234,-41.59
57.250,-52.65
57.265,-63.54
57.281,-74.47
57.296,-85.71
57.312,-97.55
57.328,-110.03
57.343,-122.59
57.359,-133.94
57.375,-142.06
57.390,-144.56
57.406,-139.51
57.421,-125.88
57.437,-104.1
57.453,-75.96
57.468,-44.16
57.484,-11.68
57.500,18.95
57.515,45.96
57.531,68.47
57.546,85.99
57.562,98.4
57.578,105.67
57.593,107.89
57.609,105.57
57.625,99.61
57.640,91.32
57.656,82.18
57.671,73.49
57.687,66.17
57.703,60.47
57.718,56.17
57.734,52.64
57.750,49.27
57.765,45.56
57.781,41.22
57.796,36.19
57.812,30.47
57.828,24.09
57.843,17.06
57.859,9.28
57.875,0.65
57.890,-8.87
57.906,-19.2
57.921,-30.15
57.937,-41.32
57.953,-52.18
57.968,-62.41
57.984,-71.73
58.000,-80.22
58.015,-88.12
58.031,-95.84
58.046,-103.9
58.062,-112.82
58.078,-122.87
58.093,-133.72
58.109,-144.21
58.125,-152.55
58.140,-156.34
58.156,-153.35
58.171,-142.15
58.187,-122.56
58.203,-95.74
58.218,-64.02
58.234,-30.12
58.250,3.25
58.265,33.92
58.281,60.35
58.296,81.66
58.312,97.5
58.328,107.86
58.343,112.97
58.359,113.35
58.375,109.89
58.390,103.58
58.406,95.69
58.421,87.4
58.437,79.6
58.453,72.78
58.468,67.07
58.484,62.24
58.500,57.81
58.515,53.35
58.531,48.48
58.546,43.06
58.562,37.14
58.578,30.82
58.593,23.99
58.609,16.47
58.625,8.08
58.640,-1.37
58.656,-11.72
58.671,-22.6
58.687,-33.47
58.703,-43.81
58.718,-53.29
58.734,-61.93
58.750,-70.06
58.765,-78.13
58.781,-86.65
58.796,-95.99
58.812,-106.32
58.828,-117.46
58.843,-128.79
58.859,-139.22
58.875,-146.95
58.890,-149.93
58.906,-146.11
58.921,-134.15
58.937,-113.81
58.953,-86.32
58.968,-54.03
58.984,-19.94
59.000,13.07
59.015,42.86
59.031,68.09
59.046,88.28
59.062,103.29
59.078,113.29
59.093,118.46
59.109,119.15
59.125,116.02
59.140,110.03
59.156,102.41
59.171,94.36
59.187,86.82
59.203,80.26
59.218,74.73
59.234,70.0
59.250,65.71
59.265,61.55
59.281,57.3
59.296,52.79
59.312,47.88
59.328,42.41
59.343,36.26
59.359,29.2
59.375,21.07
59.390,11.8
59.406,1.48
59.421,-9.65
59.437,-21.11
59.453,-32.45
59.468,-43.21
59.484,-53.12
59.500,-62.23
59.515,-70.78
59.531,-79.09
59.546,-87.46
59.562,-96.21
59.578,-105.47
59.593,-115.16
59.609,-124.55
59.625,-132.12
59.640,-135.8
59.656,-133.4
59.671,-123.15
59.687,-104.52
59.703,-78.48
59.718,-47.3
59.734,-14.0
59.750,18.53
59.765,48.08
59.781,73.36
59.796,93.69
59.812,108.96
59.828,119.16
59.843,124.48
59.859,125.33
59.875,122.48
59.890,116.98
59.906,110.14
59.921,103.16
59.937,96.9
59.953,91.74
59.968,87.55
59.984,83.89
