timestamp,value
00.000,-54.5
00.015,-58.63
00.031,-63.27
00.046,-68.63
00.062,-74.66
00.078,-80.75
00.093,-85.79
00.109,-88.42
00.125,-87.36
00.140,-81.85
00.156,-71.85
00.171,-58.28
00.187,-42.58
00.203,-26.47
00.218,-11.39
00.234,1.88
00.250,13.14
00.265,22.55
00.281,30.53
00.296,37.43
00.312,43.32
00.328,48.09
00.343,51.48
00.359,53.3
00.375,53.5
00.390,52.29
00.406,49.83
00.421,46.45
00.437,42.53
00.453,38.52
00.468,34.92
00.484,32.19
00.500,30.55
00.515,29.84
00.531,29.58
00.546,28.96
00.562,27.24
00.578,24.13
00.593,19.84
00.609,14.96
00.625,10.2
00.640,5.85
00.656,1.85
00.671,-2.19
00.687,-6.68
00.703,-11.85
00.718,-17.69
00.734,-23.98
00.750,-30.3
00.765,-36.32
00.781,-41.86
00.796,-46.8
00.812,-51.19
00.828,-55.12
00.843,-58.84
00.859,-62.59
00.875,-66.77
00.890,-71.53
00.906,-76.74
00.921,-81.92
00.937,-86.1
00.953,-88.03
00.968,-86.54
00.984,-80.91
01.000,-71.17
01.015,-58.21
01.031,-43.49
01.046,-28.57
01.062,-14.8
01.078,-2.86
01.093,7.08
01.109,15.2
01.125,21.77
01.140,26.96
01.156,30.78
01.171,33.22
01.187,34.49
01.203,34.87
01.218,34.71
01.234,34.27
01.250,33.65
01.265,32.87
01.281,31.95
01.296,31.02
01.312,30.25
01.328,30.01
01.343,30.58
01.359,32.06
01.375,34.28
01.390,36.79
01.406,38.85
01.421,39.7
01.437,38.81
01.453,35.94
01.468,31.33
01.484,25.6
01.500,19.37
01.515,13.18
01.531,7.31
01.546,1.68
01.562,-3.99
01.578,-9.95
01.593,-16.26
01.609,-22.69
01.625,-28.82
01.640,-34.37
01.656,-39.22
01.671,-43.55
01.687,-47.78
01.703,-52.3
01.718,-57.41
01.734,-63.04
01.750,-68.77
01.765,-73.85
01.781,-77.37
01.796,-78.23
01.812,-75.67
01.828,-69.32
01.843,-59.36
01.859,-46.5
01.875,-31.83
01.890,-16.63
01.906,-1.96
01.921,11.16
01.937,22.26
01.953,31.12
01.968,37.87
01.984,42.77
02.000,46.14
02.015,48.17
02.031,48.97
02.046,48.72
02.062,47.45
02.078,45.34
02.093,42.57
02.109,39.49
02.125,36.53
02.140,34.08
02.156,32.34
02.171,31.32
02.187,30.93
02.203,30.89
02.218,30.89
02.234,30.55
02.250,29.48
02.265,27.45
02.281,24.27
02.296,19.97
02.312,14.77
02.328,9.03
02.343,3.15
02.359,-2.72
02.375,-8.38
02.390,-13.95
02.406,-19.43
02.421,-24.87
02.437,-30.13
02.453,-35.07
02.468,-39.45
02.484,-43.2
02.500,-46.5
02.515,-49.69
02.531,-53.43
02.546,-58.03
02.562,-63.48
02.578,-69.0
02.593,-73.38
02.609,-75.16
02.625,-73.12
02.640,-66.69
02.656,-56.06
02.671,-42.37
02.687,-27.07
02.703,-11.73
02.718,2.47
02.734,14.87
02.750,25.18
02.765,33.44
02.781,39.81
02.796,44.45
02.812,47.45
02.828,48.91
02.843,48.99
02.859,47.88
02.875,45.87
02.890,43.29
02.906,40.43
02.921,37.6
02.937,35.0
02.953,32.84
02.968,31.18
02.984,30.13
03.000,29.68
03.015,29.75
03.031,30.03
03.046,30.17
03.062,29.62
03.078,27.91
03.093,24.84
03.109,20.37
03.125,14.9
03.140,8.89
03.156,2.9
03.171,-2.89
03.187,-8.46
03.203,-14.09
03.218,-20.21
03.234,-26.92
03.250,-34.06
03.265,-41.15
03.281,-47.64
03.296,-53.1
03.312,-57.5
03.328,-61.19
03.343,-64.77
03.359,-68.8
03.375,-73.55
03.390,-78.8
03.406,-83.79
03.421,-87.24
03.437,-87.82
03.453,-84.39
03.468,-76.37
03.484,-64.05
03.500,-48.57
03.515,-31.51
03.531,-14.62
03.546,0.75
03.562,13.92
03.578,24.8
03.593,33.66
03.609,40.97
03.625,47.01
03.640,51.86
03.656,55.51
03.671,57.84
03.687,58.78
03.703,58.42
03.718,56.89
03.734,54.34
03.750,50.95
03.765,46.9
03.781,42.47
03.796,38.06
03.812,34.14
03.828,31.16
03.843,29.37
03.859,28.75
03.875,28.89
03.890,29.14
03.906,28.73
03.921,27.14
03.937,24.24
03.953,20.14
03.968,15.24
03.984,9.99
04.000,4.68
04.015,-0.66
04.031,-6.1
04.046,-11.8
04.062,-17.85
04.078,-23.99
04.093,-30.05
04.109,-35.78
04.125,-41.11
04.140,-46.2
04.156,-51.49
04.171,-57.38
04.187,-64.24
04.203,-72.25
04.218,-81.04
04.234,-89.79
04.250,-97.18
04.265,-101.65
04.281,-101.77
04.296,-96.69
04.312,-86.37
04.328,-71.72
04.343,-54.41
04.359,-36.38
04.375,-19.42
04.390,-4.83
04.406,6.82
04.421,15.63
04.437,22.15
04.453,27.27
04.468,31.77
04.484,36.13
04.500,40.58
04.515,45.04
04.531,49.31
04.546,53.18
04.562,56.33
04.578,58.55
04.593,59.69
04.609,59.58
04.625,58.2
04.640,55.67
04.656,52.3
04.671,48.55
04.687,44.93
04.703,41.78
04.718,39.1
04.734,36.75
04.750,34.36
04.765,31.56
04.781,28.21
04.796,24.32
04.812,20.05
04.828,15.57
04.843,10.92
04.859,5.96
04.875,0.51
04.890,-5.49
04.906,-12.05
04.921,-18.83
04.937,-25.4
04.953,-31.41
04.968,-36.53
04.984,-40.67
05.000,-44.15
05.015,-47.52
05.031,-51.39
05.046,-56.33
05.062,-62.46
05.078,-69.35
05.093,-76.0
05.109,-80.85
05.125,-82.26
05.140,-79.05
05.156,-70.75
05.171,-57.88
05.187,-41.65
05.203,-23.77
05.218,-5.93
05.234,10.53
05.250,24.81
05.265,36.6
05.281,45.82
05.296,52.59
05.312,57.06
05.328,59.47
05.343,60.12
05.359,59.39
05.375,57.7
05.390,55.51
05.406,53.18
05.421,50.96
05.437,49.13
05.453,47.78
05.468,46.97
05.484,46.57
05.500,46.38
05.515,45.98
05.531,45.0
05.546,43.17
05.562,40.26
05.578,36.47
05.593,31.98
05.609,27.15
05.625,22.3
05.640,17.57
05.656,12.97
05.671,8.34
05.687,3.56
05.703,-1.54
05.718,-6.95
05.734,-12.65
05.750,-18.47
05.765,-24.23
05.781,-29.88
05.796,-35.38
05.812,-40.85
05.828,-46.48
05.843,-52.55
05.859,-59.18
05.875,-66.2
05.890,-73.11
05.906,-78.83
05.921,-82.04
05.937,-81.43
05.953,-76.05
05.968,-65.63
05.984,-50.93
06.000,-33.35
06.015,-14.76
06.031,3.09
06.046,18.77
06.062,31.58
06.078,41.35
06.093,48.3
06.109,52.93
06.125,55.72
06.140,57.11
06.156,57.32
06.171,56.59
06.187,55.12
06.203,53.2
06.218,51.19
06.234,49.32
06.250,47.63
06.265,46.08
06.281,44.58
06.296,43.05
06.312,41.51
06.328,40.06
06.343,38.75
06.359,37.45
06.375,35.93
06.390,33.81
06.406,30.84
06.421,27.05
06.437,22.6
06.453,17.81
06.468,12.94
06.484,8.04
06.500,2.81
06.515,-3.08
06.531,-9.84
06.546,-17.49
06.562,-25.55
06.578,-33.37
06.593,-40.42
06.609,-46.36
06.625,-51.29
06.640,-55.52
06.656,-59.68
06.671,-64.27
06.687,-69.62
06.703,-75.58
06.718,-81.53
06.734,-86.37
06.750,-88.73
06.765,-87.36
06.781,-81.4
06.796,-70.68
06.812,-55.85
06.828,-38.34
06.843,-19.78
06.859,-1.9
06.875,14.06
06.890,27.41
06.906,38.1
06.921,46.3
06.937,52.44
06.953,56.87
06.968,59.71
06.984,61.13
07.000,61.19
07.015,60.01
07.031,57.85
07.046,55.04
07.062,51.91
07.078,48.92
07.093,46.36
07.109,44.37
07.125,43.0
07.140,42.13
07.156,41.52
07.171,40.98
07.187,40.22
07.203,39.02
07.218,37.05
07.234,34.19
07.250,30.3
07.265,25.54
07.281,20.26
07.296,14.82
07.312,9.65
07.328,4.78
07.343,0.11
07.359,-4.79
07.375,-10.18
07.390,-16.31
07.406,-23.01
07.421,-29.89
07.437,-36.52
07.453,-42.49
07.468,-47.68
07.484,-52.28
07.500,-56.81
07.515,-61.81
07.531,-67.86
07.546,-75.17
07.562,-83.5
07.578,-92.12
07.593,-99.72
07.609,-104.7
07.625,-105.49
07.640,-100.97
07.656,-90.79
07.671,-75.73
07.687,-57.44
07.703,-37.86
07.718,-18.94
07.734,-1.91
07.750,12.68
07.765,24.81
07.781,34.82
07.796,43.11
07.812,49.84
07.828,54.98
07.843,58.52
07.859,60.39
07.875,60.72
07.890,59.82
07.906,57.98
07.921,55.56
07.937,52.95
07.953,50.3
07.968,47.82
07.984,45.65
08.000,43.86
08.015,42.6
08.031,41.95
08.046,41.76
08.062,41.77
08.078,41.52
08.093,40.45
08.109,38.16
08.125,34.63
08.140,30.0
08.156,24.87
08.171,19.76
08.187,14.95
08.203,10.53
08.218,6.22
08.234,1.68
08.250,-3.47
08.265,-9.32
08.281,-15.91
08.296,-22.87
08.312,-29.77
08.328,-36.28
08.343,-41.95
08.359,-46.72
08.375,-50.68
08.390,-54.2
08.406,-57.86
08.421,-62.37
08.437,-68.16
08.453,-75.42
08.468,-83.64
08.484,-91.59
08.500,-97.63
08.515,-99.87
08.531,-96.89
08.546,-88.17
08.562,-74.24
08.578,-56.45
08.593,-36.77
08.609,-17.07
08.625,1.19
08.640,17.05
08.656,30.21
08.671,40.67
08.687,48.5
08.703,53.93
08.718,57.23
08.734,58.68
08.750,58.65
08.765,57.53
08.781,55.67
08.796,53.46
08.812,51.23
08.828,49.22
08.843,47.7
08.859,46.71
08.875,46.2
08.890,46.07
08.906,46.2
08.921,46.42
08.937,46.64
08.953,46.63
08.968,46.13
08.984,44.96
09.000,42.98
09.015,40.2
09.031,36.79
09.046,32.91
09.062,28.6
09.078,23.97
09.093,18.99
09.109,13.72
09.125,8.26
09.140,2.68
09.156,-2.9
09.171,-8.38
09.187,-13.71
09.203,-18.85
09.218,-23.64
09.234,-27.95
09.250,-31.71
09.265,-35.1
09.281,-38.44
09.296,-42.1
09.312,-46.37
09.328,-51.52
09.343,-57.51
09.359,-64.02
09.375,-70.44
09.390,-75.67
09.406,-78.48
09.421,-77.64
09.437,-72.25
09.453,-62.0
09.468,-47.5
09.484,-30.11
09.500,-11.59
09.515,6.23
09.531,22.0
09.546,34.97
09.562,45.02
09.578,52.38
09.593,57.4
09.609,60.31
09.625,61.27
09.640,60.44
09.656,58.1
09.671,54.75
09.687,50.99
09.703,47.42
09.718,44.4
09.734,42.01
09.750,40.08
09.765,38.38
09.781,36.86
09.796,35.55
09.812,34.6
09.828,34.13
09.843,33.99
09.859,33.77
09.875,32.81
09.890,30.61
09.906,26.9
09.921,21.93
09.937,16.18
09.953,10.26
09.968,4.67
09.984,-0.24
10.000,-4.5
10.015,-8.41
10.031,-12.43
10.046,-16.93
10.062,-22.21
10.078,-28.13
10.093,-34.37
10.109,-40.45
10.125,-45.87
10.140,-50.52
10.156,-54.54
10.171,-58.42
10.187,-62.71
10.203,-67.87
10.218,-73.96
10.234,-80.59
10.250,-86.8
10.265,-91.32
10.281,-92.73
10.296,-89.78
10.312,-81.8
10.328,-68.99
10.343,-52.29
10.359,-33.29
10.375,-13.91
10.390,4.25
10.406,20.04
10.421,32.94
10.437,43.07
10.453,50.81
10.468,56.51
10.484,60.35
10.500,62.39
10.515,62.67
10.531,61.35
10.546,58.94
10.562,55.95
10.578,53.0
10.593,50.46
10.609,48.5
10.625,47.14
10.640,46.29
10.656,45.91
10.671,45.88
10.687,46.15
10.703,46.52
10.718,46.75
10.734,46.5
10.750,45.47
10.765,43.38
10.781,40.11
10.796,35.68
10.812,30.36
10.828,24.45
10.843,18.36
10.859,12.41
10.875,6.71
10.890,1.28
10.906,-4.12
10.921,-9.73
10.937,-15.74
10.953,-22.22
10.968,-29.04
10.984,-36.03
11.000,-42.91
11.015,-49.49
11.031,-55.67
11.046,-61.53
11.062,-67.25
11.078,-73.09
11.093,-79.42
11.109,-86.41
11.125,-93.92
11.140,-101.26
11.156,-107.1
11.171,-109.76
11.187,-107.71
11.203,-100.08
11.218,-86.81
11.234,-69.08
11.250,-48.61
11.265,-27.42
11.281,-7.33
11.296,10.45
11.312,25.45
11.328,37.73
11.343,47.63
11.359,55.63
11.375,61.86
11.390,66.46
11.406,69.43
11.421,70.78
11.437,70.61
11.453,69.16
11.468,66.81
11.484,63.98
11.500,61.06
11.515,58.29
11.531,55.98
11.546,54.24
11.562,53.11
11.578,52.51
11.593,52.19
11.609,51.76
11.625,50.85
11.640,49.01
11.656,45.93
11.671,41.58
11.687,36.26
11.703,30.23
11.718,24.06
11.734,18.15
11.750,12.77
11.765,8.06
11.781,4.02
11.796,0.35
11.812,-3.32
11.828,-7.29
11.843,-11.96
11.859,-17.4
11.875,-23.55
11.890,-30.17
11.906,-36.89
11.921,-43.4
11.937,-49.51
11.953,-55.28
11.968,-60.98
11.984,-67.1
12.000,-74.02
12.015,-81.94
12.031,-90.55
12.046,-98.9
12.062,-105.53
12.078,-108.69
12.093,-106.82
12.109,-99.05
12.125,-85.5
12.140,-67.29
12.156,-46.28
12.171,-24.71
12.187,-4.5
12.203,13.02
12.218,27.24
12.234,38.29
12.250,46.66
12.265,52.84
12.281,57.19
12.296,60.05
12.312,61.47
12.328,61.65
12.343,60.79
12.359,59.14
12.375,57.03
12.390,54.75
12.406,52.53
12.421,50.54
12.437,48.98
12.453,47.92
12.468,47.44
12.484,47.37
12.500,47.4
12.515,47.2
12.531,46.36
12.546,44.62
12.562,41.85
12.578,38.08
12.593,33.43
12.609,28.16
12.625,22.5
12.640,16.64
12.656,10.78
12.671,5.13
12.687,-0.37
12.703,-5.75
12.718,-11.11
12.734,-16.67
12.750,-22.52
12.765,-28.52
12.781,-34.46
12.796,-40.04
12.812,-44.89
12.828,-48.91
12.843,-52.29
12.859,-55.31
12.875,-58.51
12.890,-62.4
12.906,-67.35
12.921,-73.46
12.937,-80.34
12.953,-86.98
12.968,-91.92
12.984,-93.56
13.000,-90.5
13.015,-82.18
13.031,-68.85
13.046,-51.73
13.062,-32.63
13.078,-13.53
13.093,3.93
13.109,18.61
13.125,30.06
13.140,38.47
13.156,44.24
13.171,48.06
13.187,50.42
13.203,51.63
13.218,51.81
13.234,51.06
13.250,49.56
13.265,47.59
13.281,45.61
13.296,43.96
13.312,42.88
13.328,42.45
13.343,42.51
13.359,42.71
13.375,42.82
13.390,42.61
13.406,41.93
13.421,40.68
13.437,38.79
13.453,36.07
13.468,32.51
13.484,28.24
13.500,23.49
13.515,18.67
13.531,14.24
13.546,10.32
13.562,6.77
13.578,3.17
13.593,-1.01
13.609,-6.02
13.625,-11.81
13.640,-17.93
13.656,-23.81
13.671,-28.85
13.687,-32.9
13.703,-36.07
13.718,-38.71
13.734,-41.51
13.750,-45.09
13.765,-50.05
13.781,-56.6
13.796,-64.39
13.812,-72.23
13.828,-78.41
13.843,-80.97
13.859,-78.36
13.875,-70.05
13.890,-56.5
13.906,-39.17
13.921,-20.12
13.937,-1.28
13.953,15.86
13.968,30.41
13.984,42.12
14.000,51.07
14.015,57.4
14.031,61.42
14.046,63.43
14.062,63.7
14.078,62.56
14.093,60.31
14.109,57.34
14.125,54.07
14.140,50.84
14.156,47.96
14.171,45.54
14.187,43.59
14.203,42.0
14.218,40.72
14.234,39.66
14.250,38.73
14.265,37.73
14.281,36.4
14.296,34.34
14.312,31.23
14.328,26.93
14.343,21.49
14.359,15.33
14.375,8.84
14.390,2.61
14.406,-3.03
14.421,-7.89
14.437,-12.11
14.453,-16.11
14.468,-20.4
14.484,-25.45
14.500,-31.33
14.515,-37.87
14.531,-44.59
14.546,-51.01
14.562,-56.89
14.578,-62.38
14.593,-67.96
14.609,-74.31
14.625,-81.99
14.640,-91.2
14.656,-101.35
14.671,-111.07
14.687,-118.46
14.703,-121.34
14.718,-118.09
14.734,-108.14
14.750,-92.06
14.765,-71.66
14.781,-49.36
14.796,-27.49
14.812,-7.73
14.828,8.99
14.843,22.46
14.859,33.0
14.875,40.84
14.890,46.42
14.906,49.96
14.921,51.69
14.937,51.71
14.953,50.25
14.968,47.68
14.984,44.58
15.000,41.96
15.015,40.77
15.031,41.78
15.046,44.99
15.062,49.77
15.078,54.92
15.093,59.17
15.109,61.69
15.125,62.11
15.140,60.62
15.156,57.38
15.171,52.44
15.187,45.52
15.203,36.47
15.218,25.54
15.234,13.34
15.250,0.91
15.265,-10.74
15.281,-20.87
15.296,-29.47
15.312,-37.11
15.328,-44.67
15.343,-53.1
15.359,-62.74
15.375,-73.64
15.390,-85.2
15.406,-96.68
15.421,-107.26
15.437,-116.38
15.453,-123.87
15.468,-129.86
15.484,-134.97
15.500,-139.82
15.515,-145.12
15.531,-151.06
15.546,-157.08
15.562,-161.72
15.578,-162.75
15.593,-157.77
15.609,-145.02
15.625,-124.22
15.640,-96.78
15.656,-65.51
15.671,-33.79
15.687,-4.58
15.703,20.12
15.718,39.77
15.734,54.96
15.750,66.92
15.765,76.76
15.781,85.23
15.796,92.64
15.812,98.79
15.828,103.54
15.843,106.67
15.859,108.19
15.875,108.16
15.890,106.75
15.906,104.06
15.921,100.34
15.937,96.05
15.953,91.7
15.968,87.97
15.984,85.3
16.000,83.89
16.015,83.55
16.031,83.78
16.046,83.97
16.062,83.53
16.078,82.12
16.093,79.58
16.109,75.9
16.125,71.21
16.140,65.51
16.156,58.79
16.171,51.02
16.187,42.38
16.203,33.34
16.218,24.47
16.234,16.27
16.250,9.09
16.265,2.94
16.281,-2.4
16.296,-7.09
16.312,-11.4
16.328,-15.44
16.343,-19.32
16.359,-23.31
16.375,-27.81
16.390,-33.23
16.406,-39.9
16.421,-47.91
16.437,-56.82
16.453,-65.8
16.468,-73.55
16.484,-78.52
16.500,-79.11
16.515,-74.04
16.531,-62.62
16.546,-45.05
16.562,-22.61
16.578,2.76
16.593,28.61
16.609,52.57
16.625,72.91
16.640,88.67
16.656,99.8
16.671,106.88
16.687,110.85
16.703,112.53
16.718,112.53
16.734,111.16
16.750,108.66
16.765,105.3
16.781,101.49
16.796,97.73
16.812,94.31
16.828,91.27
16.843,88.42
16.859,85.39
16.875,81.96
16.890,78.09
16.906,73.95
16.921,69.68
16.937,65.31
16.953,60.57
16.968,55.0
16.984,48.32
17.000,40.5
17.015,31.88
17.031,23.1
17.046,15.0
17.062,8.03
17.078,2.53
17.093,-1.74
17.109,-5.33
17.125,-8.94
17.140,-13.22
17.156,-18.54
17.171,-24.95
17.187,-32.05
17.203,-39.42
17.218,-46.42
17.234,-52.8
17.250,-58.52
17.265,-63.94
17.281,-69.63
17.296,-76.14
17.312,-83.81
17.328,-92.62
17.343,-102.09
17.359,-111.23
17.375,-118.71
17.390,-122.94
17.406,-122.45
17.421,-116.25
17.437,-104.1
17.453,-86.69
17.468,-65.66
17.484,-43.12
17.500,-21.04
17.515,-1.04
17.531,16.01
17.546,29.99
17.562,40.95
17.578,49.13
17.593,54.69
17.609,57.74
17.625,58.39
17.640,57.1
17.656,54.44
17.671,51.04
17.687,47.7
17.703,44.73
17.718,42.38
17.734,40.53
17.750,39.1
17.765,37.99
17.781,37.12
17.796,36.45
17.812,35.77
17.828,34.89
17.843,33.34
17.859,30.83
17.875,27.02
17.890,21.89
17.906,15.79
17.921,9.3
17.937,3.0
17.953,-2.65
17.968,-7.59
17.984,-12.33
18.000,-17.45
18.015,-23.56
18.031,-30.93
18.046,-39.23
18.062,-47.69
18.078,-55.43
18.093,-61.77
18.109,-66.41
18.125,-69.8
18.140,-72.78
18.156,-76.33
18.171,-81.27
18.187,-87.75
18.203,-95.32
18.218,-102.81
18.234,-108.55
18.250,-110.71
18.265,-107.63
18.281,-98.36
18.296,-82.82
18.312,-62.1
18.328,-38.08
18.343,-13.24
18.359,10.2
18.375,30.65
18.390,47.38
18.406,60.44
18.421,70.3
18.437,77.51
18.453,82.5
18.468,85.49
18.484,86.52
18.500,85.72
18.515,83.35
18.531,79.92
18.546,76.0
18.562,72.14
18.578,68.65
18.593,65.65
18.609,63.15
18.625,61.18
18.640,59.75
18.656,58.81
18.671,58.14
18.687,57.37
18.703,55.93
18.718,53.18
18.734,48.73
18.750,42.59
18.765,35.24
18.781,27.32
18.796,19.68
18.812,12.79
18.828,6.85
18.843,1.61
18.859,-3.5
18.875,-9.14
18.890,-15.87
18.906,-23.83
18.921,-32.78
18.937,-42.17
18.953,-51.34
18.968,-59.76
18.984,-67.01
19.000,-73.11
19.015,-78.34
19.031,-83.34
19.046,-88.95
19.062,-95.94
19.078,-104.73
19.093,-114.97
19.109,-125.4
19.125,-133.73
19.140,-137.4
19.156,-134.21
19.171,-123.2
19.187,-104.9
19.203,-81.24
19.218,-54.85
19.234,-28.49
19.250,-4.28
19.265,16.71
19.281,34.06
19.296,48.15
19.312,59.45
19.328,68.55
19.343,75.75
19.359,81.05
19.375,84.39
19.390,85.67
19.406,85.04
19.421,82.84
19.437,79.64
19.453,76.18
19.468,73.03
19.484,70.67
19.500,69.1
19.515,68.22
19.531,67.73
19.546,67.3
19.562,66.56
19.578,65.15
19.593,62.88
19.609,59.38
19.625,54.68
19.640,48.82
19.656,42.04
19.671,34.81
19.687,27.59
19.703,20.67
19.718,14.22
19.734,8.28
19.750,2.56
19.765,-3.01
19.781,-8.63
19.796,-14.51
19.812,-20.82
19.828,-27.74
19.843,-35.32
19.859,-43.48
19.875,-51.92
19.890,-60.28
19.906,-68.13
19.921,-75.25
19.937,-81.89
19.953,-88.56
19.968,-96.04
19.984,-104.78
20.000,-114.75
20.015,-125.02
20.031,-134.03
20.046,-139.57
20.062,-139.56
20.078,-132.72
20.093,-118.7
20.109,-98.52
20.125,-74.18
20.140,-48.13
20.156,-22.79
20.171,0.03
20.187,19.4
20.203,35.23
20.218,47.86
20.234,57.98
20.250,66.14
20.265,72.58
20.281,77.45
20.296,80.6
20.312,81.99
20.328,81.64
20.343,79.84
20.359,76.94
20.375,73.53
20.390,70.11
20.406,67.15
20.421,65.09
20.437,64.06
20.453,64.05
20.468,64.78
20.484,65.83
20.500,66.53
20.515,66.37
20.531,64.82
20.546,61.55
20.562,56.59
20.578,50.09
20.593,42.39
20.609,34.13
20.625,25.9
20.640,18.3
20.656,11.77
20.671,6.42
20.687,2.0
20.703,-1.91
20.718,-5.94
20.734,-10.71
20.750,-16.41
20.765,-23.06
20.781,-30.24
20.796,-37.49
20.812,-44.23
20.828,-50.22
20.843,-55.39
20.859,-60.07
20.875,-64.93
20.890,-70.65
20.906,-77.71
20.921,-86.0
20.937,-94.79
20.953,-102.55
20.968,-107.29
20.984,-107.0
21.000,-100.31
21.015,-86.94
21.031,-67.88
21.046,-45.22
21.062,-21.51
21.078,0.87
21.093,20.15
21.109,35.6
21.125,47.17
21.140,55.39
21.156,60.83
21.171,64.16
21.187,65.81
21.203,66.19
21.218,65.65
21.234,64.41
21.250,62.87
21.265,61.22
21.281,59.76
21.296,58.52
21.312,57.51
21.328,56.7
21.343,56.01
21.359,55.51
21.375,55.15
21.390,54.85
21.406,54.29
21.421,53.16
21.437,51.03
21.453,47.66
21.468,43.12
21.484,37.68
21.500,31.76
21.515,25.72
21.531,19.75
21.546,13.82
21.562,7.74
21.578,1.19
21.593,-6.13
21.609,-14.24
21.625,-22.92
21.640,-31.66
21.656,-39.74
21.671,-46.57
21.687,-51.77
21.703,-55.45
21.718,-58.2
21.734,-61.04
21.750,-64.97
21.765,-70.72
21.781,-78.41
21.796,-87.27
21.812,-95.9
21.828,-102.26
21.843,-104.23
21.859,-100.12
21.875,-89.26
21.890,-72.19
21.906,-50.77
21.921,-27.45
21.937,-4.79
21.953,15.24
21.968,31.62
21.984,44.22
22.000,53.43
22.015,59.86
22.031,64.04
22.046,66.3
22.062,67.01
22.078,66.47
22.093,64.93
22.109,62.69
22.125,60.0
22.140,57.06
22.156,54.09
22.171,51.31
22.187,48.86
22.203,46.93
22.218,45.57
22.234,44.69
22.250,44.07
22.265,43.35
22.281,42.06
22.296,39.91
22.312,36.74
22.328,32.33
22.343,26.83
22.359,20.43
22.375,13.56
22.390,6.77
22.406,0.51
22.421,-5.03
22.437,-9.94
22.453,-14.68
22.468,-19.82
22.484,-25.7
22.500,-32.46
22.515,-39.82
22.531,-47.24
22.546,-54.35
22.562,-61.04
22.578,-67.46
22.593,-74.18
22.609,-81.78
22.625,-90.6
22.640,-100.66
22.656,-111.43
22.671,-121.63
22.687,-129.48
22.703,-132.87
22.718,-129.92
22.734,-119.67
22.750,-102.36
22.765,-79.47
22.781,-53.57
22.796,-27.44
22.812,-3.39
22.828,17.13
22.843,33.79
22.859,46.99
22.875,57.38
22.890,65.62
22.906,72.1
22.921,76.94
22.937,80.17
22.953,81.83
22.968,81.91
22.984,80.7
23.000,78.51
23.015,75.63
23.031,72.35
23.046,68.9
23.062,65.44
23.078,62.18
23.093,59.32
23.109,56.84
23.125,54.66
23.140,52.57
23.156,50.17
23.171,47.05
23.187,42.95
23.203,37.79
23.218,31.77
23.234,25.28
23.250,18.7
23.265,12.3
23.281,6.19
23.296,0.3
23.312,-5.6
23.328,-11.86
23.343,-18.73
23.359,-26.32
23.375,-34.51
23.390,-43.12
23.406,-51.75
23.421,-60.09
23.437,-67.77
23.453,-74.67
23.468,-81.01
23.484,-87.33
23.500,-94.28
23.515,-102.43
23.531,-112.06
23.546,-122.7
23.562,-133.05
23.578,-141.1
23.593,-144.43
23.609,-141.06
23.625,-130.05
23.640,-111.85
23.656,-88.27
23.671,-61.97
23.687,-35.74
23.703,-11.69
23.718,9.01
23.734,26.14
23.750,40.05
23.765,51.25
23.781,60.17
23.796,66.96
23.812,71.77
23.828,74.72
23.843,76.04
23.859,76.0
23.875,74.91
23.890,72.99
23.906,70.49
23.921,67.65
23.937,64.82
23.953,62.23
23.968,60.1
23.984,58.52
24.000,57.39
24.015,56.52
24.031,55.61
24.046,54.31
24.062,52.31
24.078,49.33
24.093,45.27
24.109,40.13
24.125,34.09
24.140,27.33
24.156,20.17
24.171,12.79
24.187,5.35
24.203,-2.04
24.218,-9.4
24.234,-16.72
24.250,-24.05
24.265,-31.37
24.281,-38.49
24.296,-45.15
24.312,-51.17
24.328,-56.51
24.343,-61.33
24.359,-66.07
24.375,-71.26
24.390,-77.53
24.406,-85.26
24.421,-94.54
24.437,-104.67
24.453,-114.25
24.468,-121.4
24.484,-123.93
24.500,-120.06
24.515,-108.87
24.531,-90.83
24.546,-67.58
24.562,-41.69
24.578,-15.84
24.593,7.81
24.609,27.96
24.625,44.34
24.640,57.21
24.656,67.19
24.671,74.68
24.687,79.75
24.703,82.41
24.718,82.75
24.734,81.13
24.750,78.19
24.765,74.67
24.781,71.18
24.796,68.16
24.812,65.8
24.828,64.13
24.843,63.19
24.859,62.92
24.875,63.23
24.890,63.92
24.906,64.59
24.921,64.62
24.937,63.28
24.953,60.07
24.968,54.81
24.984,47.65
25.000,39.15
25.015,30.1
25.031,21.27
25.046,13.12
25.062,5.8
25.078,-1.09
25.093,-8.1
25.109,-15.67
25.125,-23.92
25.140,-32.57
25.156,-40.99
25.171,-48.39
25.187,-54.48
25.203,-59.31
25.218,-63.46
25.234,-67.8
25.250,-73.23
25.265,-80.28
25.281,-88.95
25.296,-98.44
25.312,-107.25
25.328,-113.37
25.343,-114.67
25.359,-109.55
25.375,-97.48
25.390,-79.16
25.406,-56.55
25.421,-32.21
25.437,-8.66
25.453,12.11
25.468,29.11
25.484,42.24
25.500,52.07
25.515,59.4
25.531,65.08
25.546,69.59
25.562,73.28
25.578,76.35
25.593,78.87
25.609,80.78
25.625,81.96
25.640,82.2
25.656,81.23
25.671,79.15
25.687,76.16
25.703,72.76
25.718,69.46
25.734,66.61
25.750,64.17
25.765,61.8
25.781,58.94
25.796,55.01
25.812,49.72
25.828,43.07
25.843,35.41
25.859,27.33
25.875,19.4
25.890,12.05
25.906,5.47
25.921,-0.62
25.937,-6.72
25.953,-13.38
25.968,-20.95
25.984,-29.42
26.000,-38.35
26.015,-47.18
26.031,-55.33
26.046,-62.53
26.062,-68.91
26.078,-75.0
26.093,-81.55
26.109,-89.25
26.125,-98.47
26.140,-108.76
26.156,-119.03
26.171,-127.42
26.187,-131.85
26.203,-130.52
26.218,-122.43
26.234,-107.63
26.250,-87.35
26.265,-63.63
26.281,-38.67
26.296,-14.54
26.312,7.32
26.328,26.17
26.343,41.87
26.359,54.6
26.375,64.73
26.390,72.63
26.406,78.55
26.421,82.72
26.437,85.33
26.453,86.54
26.468,86.52
26.484,85.54
26.500,83.93
26.515,82.1
26.531,80.34
26.546,78.77
26.562,77.4
26.578,76.07
26.593,74.59
26.609,72.93
26.625,70.93
26.640,68.39
26.656,65.05
26.671,60.61
26.687,54.95
26.703,48.23
26.718,40.88
26.734,33.38
26.750,26.25
26.765,19.67
26.781,13.57
26.796,7.62
26.812,1.52
26.828,-5.0
26.843,-12.05
26.859,-19.64
26.875,-27.75
26.890,-36.27
26.906,-45.08
26.921,-53.88
26.937,-62.38
26.953,-70.27
26.968,-77.53
26.984,-84.47
27.000,-91.74
27.015,-100.05
27.031,-109.72
27.046,-120.29
27.062,-130.31
27.078,-137.51
27.093,-139.49
27.109,-134.44
27.125,-121.74
27.140,-102.4
27.156,-78.62
27.171,-53.18
27.187,-28.51
27.203,-6.35
27.218,12.73
27.234,28.88
27.250,42.6
27.265,54.39
27.281,64.44
27.296,72.68
27.312,78.93
27.328,83.18
27.343,85.4
27.359,85.8
27.375,84.69
27.390,82.41
27.406,79.36
27.421,75.98
27.437,72.61
27.453,69.58
27.468,67.17
27.484,65.4
27.500,64.24
27.515,63.4
27.531,62.38
27.546,60.67
27.562,57.85
27.578,53.65
27.593,48.2
27.609,41.78
27.625,34.8
27.640,27.6
27.656,20.47
27.671,13.39
27.687,6.37
27.703,-0.63
27.718,-7.63
27.734,-14.61
27.750,-21.59
27.765,-28.53
27.781,-35.36
27.796,-41.92
27.812,-48.12
27.828,-53.73
27.843,-58.72
27.859,-63.2
27.875,-67.51
27.890,-72.22
27.906,-77.94
27.921,-85.08
27.937,-93.5
27.953,-102.51
27.968,-110.62
27.984,-115.84
28.000,-116.21
28.015,-110.35
28.031,-97.92
28.046,-79.97
28.062,-58.52
28.078,-35.97
28.093,-14.47
28.109,4.65
28.125,20.93
28.140,34.55
28.156,45.96
28.171,55.54
28.187,63.38
28.203,69.35
28.218,73.31
28.234,75.16
28.250,75.06
28.265,73.46
28.281,70.89
28.296,67.96
28.312,65.18
28.328,62.97
28.343,61.6
28.359,61.2
28.375,61.68
28.390,62.85
28.406,64.35
28.421,65.6
28.437,65.97
28.453,64.84
28.468,61.75
28.484,56.61
28.500,49.79
28.515,41.89
28.531,33.83
28.546,26.28
28.562,19.67
28.578,13.94
28.593,8.79
28.609,3.62
28.625,-2.05
28.640,-8.47
28.656,-15.54
28.671,-22.86
28.687,-29.93
28.703,-36.36
28.718,-42.0
28.734,-47.01
28.750,-52.0
28.765,-57.67
28.781,-64.66
28.796,-73.09
28.812,-82.44
28.828,-91.51
28.843,-98.47
28.859,-101.34
28.875,-98.42
28.890,-89.0
28.906,-73.61
28.921,-53.77
28.937,-31.83
28.953,-10.03
28.968,9.77
28.984,26.54
29.000,40.04
29.015,50.55
29.031,58.57
29.046,64.36
29.062,68.19
29.078,69.96
29.093,69.76
29.109,67.87
29.125,64.87
29.140,61.4
29.156,58.11
29.171,55.32
29.187,53.02
29.203,51.2
29.218,49.6
29.234,48.16
29.250,46.9
29.265,45.84
29.281,44.84
29.296,43.69
29.312,41.96
29.328,39.14
29.343,34.99
29.359,29.48
29.375,23.03
29.390,16.36
29.406,10.13
29.421,4.78
29.437,0.11
29.453,-4.48
29.468,-9.75
29.484,-16.2
29.500,-23.91
29.515,-32.41
29.531,-40.87
29.546,-48.66
29.562,-55.25
29.578,-60.58
29.593,-65.13
29.609,-69.51
29.625,-74.39
29.640,-80.46
29.656,-87.98
29.671,-96.7
29.687,-105.69
29.703,-113.16
29.718,-116.85
29.734,-114.68
29.750,-105.37
29.765,-88.96
29.781,-67.15
29.796,-42.6
29.812,-18.23
29.828,3.52
29.843,21.47
29.859,35.6
29.875,46.67
29.890,55.52
29.906,62.75
29.921,68.47
29.937,72.51
29.953,74.82
29.968,75.44
29.984,74.68
30.000,72.85
30.015,70.29
30.031,67.19
30.046,63.69
30.062,59.98
30.078,56.4
30.093,53.25
30.109,50.66
30.125,48.64
30.140,46.93
30.156,45.13
30.171,42.83
30.187,39.66
30.203,35.39
30.218,29.97
30.234,23.65
30.250,16.77
30.265,9.72
30.281,2.88
30.296,-3.6
30.312,-9.74
30.328,-15.8
30.343,-22.04
30.359,-28.79
30.375,-36.14
30.390,-44.05
30.406,-52.32
30.421,-60.61
30.437,-68.64
30.453,-76.14
30.468,-82.98
30.484,-89.19
30.500,-95.17
30.515,-101.53
30.531,-108.8
30.546,-117.25
30.562,-126.3
30.578,-134.7
30.593,-140.5
30.609,-141.63
30.625,-136.41
30.640,-124.22
30.656,-105.61
30.671,-82.34
30.687,-56.86
30.703,-31.56
30.718,-8.37
30.734,11.65
30.750,28.27
30.765,41.9
30.781,53.06
30.796,62.26
30.812,69.76
30.828,75.59
30.843,79.8
30.859,82.45
30.875,83.69
30.890,83.71
30.906,82.74
30.921,80.91
30.937,78.37
30.953,75.37
30.968,72.17
30.984,69.16
31.000,66.74
31.015,64.98
31.031,63.76
31.046,62.59
31.062,60.85
31.078,58.08
31.093,54.03
31.109,48.67
31.125,42.25
31.140,35.14
31.156,27.81
31.171,20.71
31.187,14.18
31.203,8.21
31.218,2.63
31.234,-2.99
31.250,-9.14
31.265,-16.0
31.281,-23.6
31.296,-31.52
31.312,-39.29
31.328,-46.38
31.343,-52.59
31.359,-58.03
31.375,-63.06
31.390,-68.28
31.406,-74.17
31.421,-81.14
31.437,-89.01
31.453,-97.11
31.468,-104.03
31.484,-108.02
31.500,-107.2
31.515,-100.23
31.531,-86.81
31.546,-67.73
31.562,-45.03
31.578,-21.08
31.593,1.82
31.609,22.06
31.625,38.94
31.640,52.36
31.656,62.62
31.671,70.08
31.687,75.12
31.703,77.9
31.718,78.7
31.734,77.83
31.750,75.57
31.765,72.41
31.781,68.66
31.796,64.83
31.812,61.23
31.828,58.29
31.843,56.19
31.859,55.05
31.875,54.77
31.890,54.96
31.906,55.29
31.921,55.05
31.937,53.71
31.953,50.64
31.968,45.69
31.984,38.93
32.000,30.9
32.015,22.46
32.031,14.32
32.046,7.13
32.062,1.01
32.078,-4.27
32.093,-9.3
32.109,-14.61
32.125,-20.61
32.140,-27.39
32.156,-34.66
32.171,-42.04
32.187,-49.02
32.203,-55.33
32.218,-60.95
32.234,-66.15
32.250,-71.47
32.265,-77.42
32.281,-84.35
32.296,-92.04
32.312,-99.77
32.328,-105.96
32.343,-108.85
32.359,-106.61
32.375,-98.14
32.390,-83.49
32.406,-63.9
32.421,-41.53
32.437,-18.75
32.453,2.3
32.468,20.52
32.484,35.58
32.500,47.76
32.515,57.53
32.531,65.22
32.546,70.9
32.562,74.59
32.578,76.37
32.593,76.31
32.609,74.73
32.625,72.09
32.640,68.81
32.656,65.25
32.671,61.69
32.687,58.3
32.703,55.18
32.718,52.4
32.734,50.04
32.750,48.08
32.765,46.45
32.781,44.92
32.796,43.03
32.812,40.29
32.828,36.4
32.843,31.21
32.859,24.97
32.875,18.13
32.890,11.23
32.906,4.62
32.921,-1.61
32.937,-7.57
32.953,-13.63
32.968,-20.2
32.984,-27.57
33.000,-35.74
33.015,-44.4
33.031,-53.0
33.046,-61.01
33.062,-68.08
33.078,-74.16
33.093,-79.5
33.109,-84.73
33.125,-90.55
33.140,-97.58
33.156,-106.07
33.171,-115.59
33.187,-125.0
33.203,-132.37
33.218,-135.39
33.234,-132.07
33.250,-121.39
33.265,-103.81
33.281,-81.06
33.296,-55.76
33.312,-30.49
33.328,-7.28
33.343,12.96
33.359,30.16
33.375,44.71
33.390,57.17
33.406,67.85
33.421,76.87
33.437,84.15
33.453,89.6
33.468,93.11
33.484,94.7
33.500,94.41
33.515,92.35
33.531,88.81
33.546,84.23
33.562,79.24
33.578,74.44
33.593,70.37
33.609,67.23
33.625,65.05
33.640,63.58
33.656,62.32
33.671,60.81
33.687,58.53
33.703,55.1
33.718,50.39
33.734,44.51
33.750,37.74
33.765,30.46
33.781,23.08
33.796,15.76
33.812,8.55
33.828,1.22
33.843,-6.48
33.859,-14.79
33.875,-23.78
33.890,-33.33
33.906,-43.15
33.921,-52.74
33.937,-61.56
33.953,-69.18
33.968,-75.61
33.984,-81.16
34.000,-86.47
34.015,-92.35
34.031,-99.56
34.046,-108.55
34.062,-119.19
34.078,-130.67
34.093,-141.3
34.109,-148.92
34.125,-151.24
34.140,-146.43
34.156,-133.74
34.171,-113.89
34.187,-88.85
34.203,-61.27
34.218,-33.8
34.234,-8.42
34.250,13.89
34.265,32.92
34.281,49.01
34.296,62.69
34.312,74.33
34.328,84.0
34.343,91.69
34.359,97.36
34.375,100.87
34.390,102.42
34.406,102.08
34.421,100.16
34.437,97.16
34.453,93.72
34.468,90.44
34.484,87.84
34.500,86.16
34.515,85.32
34.531,85.04
34.546,84.73
34.562,83.86
34.578,81.97
34.593,78.89
34.609,74.67
34.625,69.58
34.640,63.83
34.656,57.63
34.671,51.1
34.687,44.2
34.703,37.0
34.718,29.62
34.734,22.29
34.750,15.15
34.765,8.26
34.781,1.41
34.796,-5.65
34.812,-12.97
34.828,-20.54
34.843,-28.12
34.859,-35.24
34.875,-41.72
34.890,-47.49
34.906,-52.8
34.921,-58.2
34.937,-64.18
34.953,-71.06
34.968,-78.92
34.984,-87.49
35.000,-96.01
35.015,-103.37
35.031,-107.96
35.046,-108.01
35.062,-102.04
35.078,-89.33
35.093,-70.2
35.109,-46.32
35.125,-20.06
35.140,5.99
35.156,29.64
35.171,49.81
35.187,66.25
35.203,79.38
35.218,89.73
35.234,97.72
35.250,103.34
35.265,106.59
35.281,107.59
35.296,106.73
35.312,104.89
35.328,102.9
35.343,101.36
35.359,100.39
35.375,99.63
35.390,98.3
35.406,95.84
35.421,92.04
35.437,86.94
35.453,80.94
35.468,74.42
35.484,67.45
35.500,60.02
35.515,51.92
35.531,43.12
35.546,33.9
35.562,24.79
35.578,16.3
35.593,8.86
35.609,2.44
35.625,-3.37
35.640,-9.14
35.656,-15.42
35.671,-22.44
35.687,-30.15
35.703,-38.3
35.718,-46.65
35.734,-55.0
35.750,-63.31
35.765,-71.53
35.781,-79.61
35.796,-87.47
35.812,-95.01
35.828,-102.23
35.843,-109.05
35.859,-115.2
35.875,-119.93
35.890,-122.16
35.906,-120.55
35.921,-114.01
35.937,-102.25
35.953,-85.81
35.968,-66.12
35.984,-44.96
36.000,-24.22
36.015,-5.3
36.031,10.9
36.046,23.98
36.062,33.96
36.078,40.95
36.093,45.22
36.109,46.91
36.125,46.36
36.140,43.94
36.156,40.07
36.171,35.25
36.187,29.86
36.203,24.17
36.218,18.4
36.234,12.78
36.250,7.42
36.265,2.49
36.281,-1.87
36.296,-5.64
36.312,-9.13
36.328,-12.9
36.343,-17.61
36.359,-23.58
36.375,-30.71
36.390,-38.6
36.406,-46.71
36.421,-54.27
36.437,-60.81
36.453,-66.62
36.468,-72.75
36.484,-80.57
36.500,-91.11
36.515,-104.66
36.531,-120.68
36.546,-138.16
36.562,-155.24
36.578,-170.06
36.593,-181.51
36.609,-189.66
36.625,-195.43
36.640,-199.8
36.656,-203.5
36.671,-206.39
36.687,-207.31
36.703,-203.05
36.718,-189.32
36.734,-162.31
36.750,-120.57
36.765,-66.07
36.781,-3.83
36.796,59.13
36.812,116.56
36.828,159.39
36.843,179.83
36.859,174.94
36.875,147.64
36.890,104.41
36.906,52.14
36.921,-3.28
36.937,-57.05
36.953,-106.85
36.968,-151.37
36.984,-188.92
37.000,-218.1
37.015,-238.49
37.031,-250.96
37.046,-257.3
37.062,-259.16
37.078,-257.61
37.093,-251.47
37.109,-240.5
37.125,-224.62
37.140,-204.18
37.156,-180.25
37.171,-154.56
37.187,-129.27
37.203,-106.26
37.218,-86.99
37.234,-72.43
37.250,-63.1
37.265,-58.91
37.281,-59.42
37.296,-63.79
37.312,-71.26
37.328,-80.86
37.343,-91.47
37.359,-102.12
37.375,-112.26
37.390,-121.71
37.406,-130.4
37.421,-138.33
37.437,-144.9
37.453,-149.49
37.468,-151.31
37.484,-149.67
37.500,-144.42
37.515,-135.96
37.531,-124.72
37.546,-110.94
37.562,-94.12
37.578,-72.9
37.593,-45.24
37.609,-9.08
37.625,37.07
37.640,93.55
37.656,159.37
37.671,232.47
37.687,309.12
37.703,383.64
37.718,448.47
37.734,495.47
37.750,518.34
37.765,515.11
37.781,489.03
37.796,447.53
37.812,399.22
37.828,350.62
37.843,304.43
37.859,260.11
37.875,215.8
37.890,170.68
37.906,126.13
37.921,84.86
37.937,49.73
37.953,22.47
37.968,3.23
37.984,-8.78
38.000,-14.58
38.015,-15.08
38.031,-10.91
38.046,-2.49
38.062,9.79
38.078,25.24
38.093,43.11
38.109,62.63
38.125,83.23
38.140,104.84
38.156,127.58
38.171,151.53
38.187,175.97
38.203,199.12
38.218,218.04
38.234,229.56
38.250,231.45
38.265,223.36
38.281,207.1
38.296,185.73
38.312,162.31
38.328,138.68
38.343,115.15
38.359,91.28
38.375,67.1
38.390,43.88
38.406,24.02
38.421,9.89
38.437,2.41
38.453,0.19
38.468,-0.09
38.484,-2.34
38.500,-9.22
38.515,-20.76
38.531,-33.97
38.546,-44.32
38.562,-47.51
38.578,-41.57
38.593,-27.77
38.609,-9.93
38.625,7.19
38.640,20.21
38.656,28.19
38.671,32.89
38.687,37.21
38.703,43.59
38.718,52.9
38.734,63.9
38.750,74.26
38.765,81.51
38.781,84.16
38.796,82.12
38.812,76.57
38.828,69.51
38.843,62.97
38.859,58.62
38.875,57.06
38.890,57.91
38.906,59.9
38.921,61.31
38.937,60.69
38.953,57.2
38.968,50.95
38.984,42.84
39.000,34.13
39.015,25.99
39.031,19.23
39.046,14.17
39.062,10.67
39.078,8.33
39.093,6.6
39.109,4.95
39.125,2.96
39.140,0.36
39.156,-3.1
39.171,-7.45
39.187,-12.52
39.203,-17.98
39.218,-23.31
39.234,-28.14
39.250,-32.39
39.265,-36.46
39.281,-41.02
39.296,-46.72
39.312,-53.6
39.328,-60.9
39.343,-67.13
39.359,-70.26
39.375,-68.66
39.390,-61.58
39.406,-49.47
39.421,-33.94
39.437,-17.23
39.453,-1.41
39.468,12.03
39.484,22.49
39.500,30.26
39.515,36.0
39.531,40.31
39.546,43.46
39.562,45.23
39.578,45.13
39.593,42.88
39.609,38.49
39.625,32.39
39.640,25.39
39.656,18.48
39.671,12.47
39.687,7.81
39.703,4.35
39.718,1.29
39.734,-2.46
39.750,-8.01
39.765,-15.92
39.781,-25.89
39.796,-36.71
39.812,-46.33
39.828,-52.7
39.843,-54.64
39.859,-52.35
39.875,-47.57
39.890,-43.0
39.906,-41.31
39.921,-43.94
39.937,-50.53
39.953,-58.87
39.968,-65.74
39.984,-68.19
40.000,-64.69
40.015,-55.51
40.031,-42.65
40.046,-28.99
40.062,-17.46
40.078,-10.26
40.093,-8.39
40.109,-11.54
40.125,-18.25
40.140,-26.34
40.156,-33.32
40.171,-37.08
40.187,-36.29
40.203,-30.75
40.218,-21.49
40.234,-10.25
40.250,1.14
40.265,11.37
40.281,19.98
40.296,27.2
40.312,33.62
40.328,39.77
40.343,45.73
40.359,51.06
40.375,55.04
40.390,56.99
40.406,56.57
40.421,53.85
40.437,49.41
40.453,44.04
40.468,38.61
40.484,33.98
40.500,30.68
40.515,28.98
40.531,28.81
40.546,29.78
40.562,31.17
40.578,32.17
40.593,32.1
40.609,30.53
40.625,27.5
40.640,23.33
40.656,18.54
40.671,13.64
40.687,9.04
40.703,4.94
40.718,1.36
40.734,-1.9
40.750,-5.16
40.765,-8.77
40.781,-12.96
40.796,-17.79
40.812,-23.0
40.828,-28.17
40.843,-32.8
40.859,-36.65
40.875,-39.76
40.890,-42.42
40.906,-45.13
40.921,-48.39
40.937,-52.49
40.953,-57.32
40.968,-62.47
40.984,-67.11
41.000,-70.38
41.015,-71.54
41.031,-70.0
41.046,-65.57
41.062,-58.29
41.078,-48.69
41.093,-37.4
41.109,-25.22
41.125,-13.01
41.140,-1.5
41.156,8.72
41.171,17.09
41.187,23.41
41.203,27.78
41.218,30.41
41.234,31.63
41.250,31.79
41.265,31.04
41.281,29.47
41.296,27.19
41.312,24.33
41.328,21.15
41.343,18.02
41.359,15.22
41.375,12.9
41.390,11.19
41.406,9.97
41.421,9.19
41.437,8.8
41.453,8.65
41.468,8.63
41.484,8.54
41.500,8.14
41.515,7.22
41.531,5.7
41.546,3.42
41.562,0.46
41.578,-3.07
41.593,-7.02
41.609,-11.09
41.625,-15.04
41.640,-18.73
41.656,-22.0
41.671,-24.89
41.687,-27.64
41.703,-30.39
41.718,-33.23
41.734,-36.34
41.750,-39.6
41.765,-42.92
41.781,-46.04
41.796,-48.32
41.812,-48.91
41.828,-46.93
41.843,-41.69
41.859,-33.0
41.875,-21.45
41.890,-8.14
41.906,5.57
41.921,18.36
41.937,29.44
41.953,38.38
41.968,45.12
41.984,49.87
42.000,52.77
42.015,53.97
42.031,53.66
42.046,52.06
42.062,49.42
42.078,46.16
42.093,42.64
42.109,39.17
42.125,35.95
42.140,33.0
42.156,30.2
42.171,27.53
42.187,24.88
42.203,22.21
42.218,19.57
42.234,16.97
42.250,14.36
42.265,11.62
42.281,8.65
42.296,5.27
42.312,1.52
42.328,-2.49
42.343,-6.63
42.359,-10.76
42.375,-14.83
42.390,-18.92
42.406,-23.14
42.421,-27.57
42.437,-32.11
42.453,-36.45
42.468,-40.2
42.484,-43.15
42.500,-45.43
42.515,-47.38
42.531,-49.53
42.546,-52.2
42.562,-55.4
42.578,-58.64
42.593,-61.03
42.609,-61.56
42.625,-59.42
42.640,-54.39
42.656,-46.68
42.671,-36.99
42.687,-26.13
42.703,-14.98
42.718,-4.25
42.734,5.55
42.750,14.11
42.765,21.24
42.781,26.94
42.796,31.37
42.812,34.68
42.828,37.12
42.843,38.81
42.859,39.74
42.875,39.75
42.890,38.72
42.906,36.69
42.921,33.92
42.937,30.9
42.953,28.07
42.968,25.82
42.984,24.3
43.000,23.35
43.015,22.64
43.031,21.71
43.046,20.27
43.062,18.15
43.078,15.44
43.093,12.27
43.109,8.83
43.125,5.36
43.140,1.87
43.156,-1.64
43.171,-5.28
43.187,-9.14
43.203,-13.14
43.218,-17.13
43.234,-20.87
43.250,-24.16
43.265,-26.79
43.281,-28.82
43.296,-30.46
43.312,-32.15
43.328,-34.45
43.343,-37.87
43.359,-42.65
43.375,-48.57
43.390,-54.96
43.406,-60.65
43.421,-64.28
43.437,-64.64
43.453,-60.94
43.468,-53.16
43.484,-41.91
43.500,-28.35
43.515,-13.77
43.531,0.5
43.546,13.63
43.562,25.14
43.578,34.98
43.593,43.22
43.609,49.93
43.625,54.99
43.640,58.1
43.656,59.0
43.671,57.58
43.687,54.11
43.703,49.17
43.718,43.5
43.734,37.82
43.750,32.6
43.765,28.11
43.781,24.38
43.796,21.37
43.812,18.98
43.828,17.06
43.843,15.53
43.859,14.11
43.875,12.54
43.890,10.54
43.906,7.96
43.921,4.82
43.937,1.3
43.953,-2.29
43.968,-5.76
43.984,-8.97
44.000,-12.05
44.015,-15.16
44.031,-18.5
44.046,-22.13
44.062,-25.93
44.078,-29.69
44.093,-33.22
44.109,-36.51
44.125,-39.64
44.140,-42.97
44.156,-46.76
44.171,-51.21
44.187,-56.16
44.203,-60.98
44.218,-64.65
44.234,-66.07
44.250,-64.28
44.265,-58.8
44.281,-49.8
44.296,-37.98
44.312,-24.38
44.328,-10.14
44.343,3.8
44.359,16.72
44.375,28.09
44.390,37.55
44.406,44.95
44.421,50.27
44.437,53.71
44.453,55.61
44.468,56.29
44.484,56.04
44.500,55.09
44.515,53.59
44.531,51.74
44.546,49.8
44.562,48.05
44.578,46.79
44.593,46.25
44.609,46.45
44.625,47.29
44.640,48.51
44.656,49.79
44.671,50.81
44.687,51.28
44.703,50.99
44.718,49.88
44.734,48.07
44.750,45.82
44.765,43.49
44.781,41.27
44.796,39.22
44.812,37.19
44.828,34.88
44.843,32.03
44.859,28.61
44.875,24.75
44.890,20.74
44.906,16.94
44.921,13.52
44.937,10.52
44.953,7.88
44.968,5.46
44.984,3.05
45.000,0.56
45.015,-2.1
45.031,-4.84
45.046,-7.46
45.062,-9.72
45.078,-11.33
45.093,-12.07
45.109,-11.74
45.125,-10.33
45.140,-7.95
45.156,-5.0
45.171,-2.24
45.187,-0.61
45.203,-1.12
45.218,-4.64
45.234,-11.66
45.250,-22.09
45.265,-35.22
45.281,-49.77
45.296,-64.13
45.312,-76.39
45.328,-84.7
45.343,-87.49
45.359,-83.7
45.375,-72.99
45.390,-55.93
45.406,-33.96
45.421,-9.2
45.437,15.74
45.453,38.44
45.468,57.05
45.484,70.35
45.500,77.71
45.515,78.84
45.531,73.62
45.546,62.02
45.562,44.55
45.578,22.45
45.593,-2.13
45.609,-26.39
45.625,-47.69
45.640,-64.43
45.656,-76.48
45.671,-85.03
45.687,-92.04
45.703,-99.14
45.718,-107.06
45.734,-115.48
45.750,-123.46
45.765,-130.05
45.781,-134.64
45.796,-137.07
45.812,-137.22
45.828,-134.78
45.843,-129.14
45.859,-119.64
45.875,-106.1
45.890,-89.16
45.906,-70.33
45.921,-51.3
45.937,-33.57
45.953,-18.0
45.968,-4.7
45.984,6.79
46.000,17.01
46.015,26.22
46.031,34.43
46.046,41.25
46.062,46.39
46.078,49.81
46.093,51.71
46.109,52.44
46.125,52.5
46.140,52.29
46.156,52.03
46.171,51.9
46.187,51.98
46.203,52.27
46.218,52.75
46.234,53.25
46.250,53.45
46.265,53.06
46.281,51.77
46.296,49.51
46.312,46.34
46.328,42.57
46.343,38.47
46.359,34.23
46.375,29.95
46.390,25.58
46.406,21.19
46.421,16.75
46.437,12.42
46.453,8.23
46.468,4.18
46.484,0.08
46.500,-4.32
46.515,-9.21
46.531,-14.74
46.546,-20.86
46.562,-27.54
46.578,-34.6
46.593,-41.71
46.609,-48.22
46.625,-53.26
46.640,-55.82
46.656,-55.04
46.671,-50.64
46.687,-42.95
46.703,-32.85
46.718,-21.5
46.734,-9.95
46.750,0.96
46.765,10.77
46.781,19.17
46.796,26.12
46.812,31.51
46.828,35.36
46.843,37.8
46.859,39.09
46.875,39.49
46.890,39.22
46.906,38.5
46.921,37.46
46.937,36.31
46.953,35.1
46.968,33.91
46.984,32.79
47.000,31.73
47.015,30.79
47.031,29.86
47.046,28.86
47.062,27.66
47.078,26.1
47.093,24.02
47.109,21.41
47.125,18.33
47.140,14.84
47.156,11.13
47.171,7.27
47.187,3.36
47.203,-0.47
47.218,-4.2
47.234,-7.84
47.250,-11.37
47.265,-14.87
47.281,-18.43
47.296,-22.0
47.312,-25.45
47.328,-28.64
47.343,-31.46
47.359,-33.94
47.375,-36.33
47.390,-38.94
47.406,-42.29
47.421,-46.71
47.437,-52.12
47.453,-57.9
47.468,-62.86
47.484,-65.57
47.500,-64.83
47.515,-60.02
47.531,-51.28
47.546,-39.61
47.562,-26.35
47.578,-12.76
47.593,0.08
47.609,11.54
47.625,21.29
47.640,29.13
47.656,35.0
47.671,39.06
47.687,41.47
47.703,42.53
47.718,42.62
47.734,41.89
47.750,40.51
47.765,38.54
47.781,36.08
47.796,33.29
47.812,30.42
47.828,27.64
47.843,25.13
47.859,23.05
47.875,21.28
47.890,19.75
47.906,18.23
47.921,16.46
47.937,14.26
47.953,11.47
47.968,8.17
47.984,4.47
48.000,0.63
48.015,-3.33
48.031,-7.38
48.046,-11.53
48.062,-15.95
48.078,-20.65
48.093,-25.62
48.109,-30.72
48.125,-35.76
48.140,-40.57
48.156,-45.18
48.171,-49.56
48.187,-53.69
48.203,-57.71
48.218,-61.72
48.234,-65.82
48.250,-69.99
48.265,-73.82
48.281,-76.66
48.296,-77.68
48.312,-76.01
48.328,-70.88
48.343,-62.09
48.359,-49.95
48.375,-35.39
48.390,-19.79
48.406,-4.46
48.421,9.49
48.437,21.38
48.453,31.04
48.468,38.65
48.484,44.44
48.500,48.6
48.515,51.22
48.531,52.22
48.546,51.69
48.562,49.85
48.578,47.06
48.593,43.7
48.609,40.13
48.625,36.67
48.640,33.56
48.656,30.98
48.671,28.96
48.687,27.51
48.703,26.5
48.718,25.68
48.734,24.8
48.750,23.47
48.765,21.38
48.781,18.43
48.796,14.7
48.812,10.37
48.828,5.92
48.843,1.8
48.859,-1.66
48.875,-4.33
48.890,-6.5
48.906,-8.64
48.921,-11.14
48.937,-14.24
48.953,-17.88
48.968,-21.73
48.984,-25.45
49.000,-28.9
49.015,-32.13
49.031,-35.43
49.046,-39.13
49.062,-43.29
49.078,-47.78
49.093,-51.96
49.109,-54.91
49.125,-55.48
49.140,-52.76
49.156,-46.27
49.171,-36.19
49.187,-23.23
49.203,-8.45
49.218,6.99
49.234,22.12
49.250,36.17
49.265,48.56
49.281,58.88
49.296,66.91
49.312,72.54
49.328,75.97
49.343,77.68
49.359,78.06
49.375,77.47
49.390,76.01
49.406,73.66
49.421,70.27
49.437,65.9
49.453,60.79
49.468,55.44
49.484,50.51
49.500,46.49
49.515,43.7
49.531,42.03
49.546,41.2
49.562,40.76
49.578,40.19
49.593,39.0
49.609,36.7
49.625,32.96
49.640,27.5
49.656,20.38
49.671,11.84
49.687,2.41
49.703,-7.38
49.718,-17.05
49.734,-26.41
49.750,-35.46
49.765,-44.26
49.781,-52.87
49.796,-61.07
49.812,-68.54
49.828,-74.9
49.843,-79.91
49.859,-83.58
49.875,-86.15
49.890,-88.22
49.906,-90.42
49.921,-93.32
49.937,-97.19
49.953,-101.9
49.968,-106.81
49.984,-110.83
50.000,-112.66
50.015,-110.99
50.031,-105.09
50.046,-94.94
50.062,-81.25
50.078,-65.17
50.093,-48.06
50.109,-31.11
50.125,-15.08
50.140,-0.39
50.156,12.9
50.171,24.84
50.187,35.57
50.203,45.08
50.218,53.43
50.234,60.55
50.250,66.28
50.265,70.48
50.281,73.0
50.296,73.82
50.312,73.02
50.328,70.95
50.343,68.06
50.359,64.84
50.375,61.82
50.390,59.3
50.406,57.37
50.421,55.74
50.437,54.0
50.453,51.53
50.468,47.89
50.484,42.76
50.500,36.07
50.515,27.99
50.531,18.9
50.546,9.26
50.562,-0.58
50.578,-10.2
50.593,-19.31
50.609,-27.48
50.625,-34.31
50.640,-39.4
50.656,-42.48
50.671,-43.35
50.687,-41.9
50.703,-38.34
50.718,-33.02
50.734,-26.6
50.750,-19.88
50.765,-13.82
50.781,-9.47
50.796,-7.79
50.812,-9.59
50.828,-15.06
50.843,-23.66
50.859,-34.05
50.875,-44.27
50.890,-52.16
50.906,-55.83
50.921,-54.07
50.937,-46.4
50.953,-33.04
50.968,-14.63
50.984,7.9
51.000,33.48
51.015,60.78
51.031,88.22
51.046,114.04
51.062,136.24
51.078,152.81
51.093,162.05
51.109,162.78
51.125,154.74
51.140,138.63
51.156,115.93
51.171,88.69
51.187,59.31
51.203,30.35
51.218,4.33
51.234,-16.39
51.250,-30.09
51.265,-36.21
51.281,-35.74
51.296,-31.14
51.312,-25.75
51.328,-22.8
51.343,-24.25
51.359,-30.2
51.375,-38.83
51.390,-47.13
51.406,-51.92
51.421,-51.03
51.437,-44.05
51.453,-32.53
51.468,-19.39
51.484,-8.04
51.500,-1.14
51.515,0.2
51.531,-3.33
51.546,-9.77
51.562,-16.62
51.578,-21.97
51.593,-25.12
51.609,-26.59
51.625,-27.67
51.640,-29.78
51.656,-33.93
51.671,-40.49
51.687,-49.21
51.703,-59.18
51.718,-69.16
51.734,-77.83
51.750,-84.02
51.765,-87.07
51.781,-86.93
51.796,-83.83
51.812,-77.96
51.828,-69.11
51.843,-56.68
51.859,-40.21
51.875,-20.07
51.890,2.19
51.906,23.97
51.921,42.24
51.937,54.59
51.953,59.96
51.968,58.86
51.984,53.18
52.000,45.39
52.015,37.76
52.031,31.89
52.046,28.49
52.062,27.55
52.078,28.77
52.093,31.54
52.109,35.1
52.125,38.46
52.140,40.56
52.156,40.46
52.171,38.01
52.187,34.1
52.203,30.58
52.218,29.94
52.234,34.17
52.250,43.99
52.265,58.39
52.281,74.91
52.296,90.18
52.312,101.24
52.328,106.14
52.343,104.32
52.359,96.53
52.375,84.07
52.390,68.34
52.406,50.37
52.421,30.79
52.437,9.96
52.453,-11.51
52.468,-32.81
52.484,-52.94
52.500,-70.86
52.515,-86.03
52.531,-98.48
52.546,-108.73
52.562,-117.4
52.578,-124.68
52.593,-130.08
52.609,-132.61
52.625,-131.07
52.640,-124.48
52.656,-112.55
52.671,-95.75
52.687,-75.17
52.703,-52.42
52.718,-29.43
52.734,-8.13
52.750,9.75
52.765,23.09
52.781,31.8
52.796,36.66
52.812,39.14
52.828,40.7
52.843,42.28
52.859,44.0
52.875,45.13
52.890,44.74
52.906,42.16
52.921,37.44
52.937,31.26
52.953,24.6
52.968,18.17
52.984,12.09
53.000,5.88
53.015,-1.17
53.031,-9.32
53.046,-17.93
53.062,-25.32
53.078,-29.21
53.093,-27.56
53.109,-19.63
53.125,-6.39
53.140,9.65
53.156,25.15
53.171,37.01
53.187,43.22
53.203,43.33
53.218,38.18
53.234,29.46
53.250,19.01
53.265,8.41
53.281,-1.17
53.296,-9.28
53.312,-16.15
53.328,-22.73
53.343,-30.25
53.359,-39.77
53.375,-51.65
53.390,-65.41
53.406,-79.87
53.421,-93.58
53.437,-105.4
53.453,-114.76
53.468,-121.43
53.484,-125.04
53.500,-124.94
53.515,-120.25
53.531,-110.33
53.546,-95.13
53.562,-75.47
53.578,-52.85
53.593,-29.22
53.609,-6.58
53.625,13.27
53.640,28.95
53.656,39.49
53.671,44.49
53.687,44.15
53.703,39.42
53.718,32.02
53.734,24.0
53.750,17.45
53.765,13.84
53.781,13.83
53.796,17.18
53.812,23.11
53.828,30.52
53.843,38.38
53.859,45.81
53.875,52.0
53.890,56.2
53.906,57.81
53.921,56.5
53.937,52.49
53.953,46.46
53.968,39.15
53.984,31.19
54.000,23.0
54.015,14.74
54.031,6.58
54.046,-1.05
54.062,-7.74
54.078,-13.02
54.093,-16.63
54.109,-18.73
54.125,-19.83
54.140,-20.45
54.156,-21.13
54.171,-22.2
54.187,-23.57
54.203,-25.15
54.218,-26.71
54.234,-28.05
54.250,-29.25
54.265,-30.51
54.281,-32.06
54.296,-34.16
54.312,-36.73
54.328,-39.19
54.343,-40.64
54.359,-39.97
54.375,-36.21
54.390,-29.01
54.406,-18.67
54.421,-6.01
54.437,7.71
54.453,21.25
54.468,33.65
54.484,44.28
54.500,52.88
54.515,59.37
54.531,63.66
54.546,65.8
54.562,65.97
54.578,64.48
54.593,61.92
54.609,58.86
54.625,55.74
54.640,52.82
54.656,50.1
54.671,47.29
54.687,44.2
54.703,40.77
54.718,37.1
54.734,33.52
54.750,30.27
54.765,27.43
54.781,24.92
54.796,22.52
54.812,19.97
54.828,17.16
54.843,14.19
54.859,11.24
54.875,8.48
54.890,5.83
54.906,3.05
54.921,-0.13
54.937,-3.98
54.953,-8.56
54.968,-13.82
54.984,-19.51
55.000,-25.31
55.015,-30.85
55.031,-36.02
55.046,-40.74
55.062,-45.11
55.078,-49.41
55.093,-53.77
55.109,-58.32
55.125,-62.9
55.140,-67.02
55.156,-69.8
55.171,-70.31
55.187,-67.62
55.203,-61.18
55.218,-51.14
55.234,-38.07
55.250,-23.1
55.265,-7.59
55.281,7.23
55.296,20.36
55.312,31.18
55.328,39.46
55.343,45.22
55.359,48.63
55.375,50.15
55.390,50.24
55.406,49.34
55.421,47.9
55.437,46.2
55.453,44.44
55.468,42.77
55.484,41.31
55.500,40.08
55.515,39.29
55.531,38.91
55.546,38.82
55.562,38.8
55.578,38.58
55.593,37.93
55.609,36.75
55.625,35.12
55.640,33.08
55.656,30.79
55.671,28.27
55.687,25.56
55.703,22.75
55.718,19.87
55.734,16.92
55.750,13.91
55.765,10.78
55.781,7.4
55.796,3.77
55.812,-0.07
55.828,-3.79
55.843,-6.85
55.859,-8.86
55.875,-9.69
55.890,-9.58
55.906,-9.07
55.921,-8.78
55.937,-9.04
55.953,-9.77
55.968,-10.22
55.984,-9.12
56.000,-5.18
56.015,2.71
56.031,14.89
56.046,30.97
56.062,49.79
56.078,69.76
56.093,89.29
56.109,107.29
56.125,123.43
56.140,137.95
56.156,151.43
56.171,164.03
56.187,175.53
56.203,185.03
56.218,191.53
56.234,194.13
56.250,192.85
56.265,188.69
56.281,182.95
56.296,176.55
56.312,169.22
56.328,159.73
56.343,146.44
56.359,128.28
56.375,105.29
56.390,78.83
56.406,51.21
56.421,24.95
56.437,2.42
56.453,-14.45
56.468,-24.52
56.484,-28.25
56.500,-28.83
56.515,-32.32
56.531,-46.16
56.546,-76.58
56.562,-126.09
56.578,-192.1
56.593,-267.76
56.609,-342.62
56.625,-404.21
56.640,-441.67
56.656,-449.32
56.671,-428.15
56.687,-384.36
56.703,-326.38
56.718,-262.0
56.734,-197.49
56.750,-137.54
56.765,-85.67
56.781,-44.32
56.796,-14.62
56.812,3.92
56.828,13.65
56.843,17.74
56.859,19.32
56.875,20.69
56.890,23.01
56.906,26.23
56.921,29.51
56.937,31.72
56.953,32.06
56.968,30.62
56.984,28.17
57.000,25.6
57.015,23.72
57.031,22.92
57.046,23.11
57.062,24.04
57.078,25.21
57.093,26.06
57.109,26.34
57.125,26.36
57.140,26.61
57.156,28.23
57.171,32.57
57.187,40.6
57.203,52.98
57.218,69.41
57.234,88.52
57.250,107.96
57.265,125.9
57.281,139.26
57.296,145.99
57.312,145.16
57.328,136.92
57.343,121.88
57.359,100.82
57.375,74.4
57.390,42.57
57.406,7.31
57.421,-29.72
57.437,-66.72
57.453,-102.18
57.468,-134.7
57.484,-162.4
57.500,-182.35
57.515,-190.61
57.531,-183.53
57.546,-160.08
57.562,-123.53
57.578,-80.74
57.593,-40.28
57.609,-9.24
57.625,9.16
57.640,16.08
57.656,15.61
57.671,12.43
57.687,9.34
57.703,6.71
57.718,3.84
57.734,0.33
57.750,-3.21
57.765,-5.42
57.781,-5.34
57.796,-2.99
57.812,0.42
57.828,3.23
57.843,3.91
57.859,2.0
57.875,-1.7
57.890,-5.73
57.906,-8.58
57.921,-9.65
57.937,-9.12
57.953,-8.04
57.968,-7.72
57.984,-9.27
58.000,-13.2
58.015,-19.35
58.031,-27.08
58.046,-35.63
58.062,-44.67
58.078,-54.11
58.093,-64.08
58.109,-74.63
58.125,-85.32
58.140,-95.21
58.156,-103.14
58.171,-107.53
58.187,-107.14
58.203,-101.41
58.218,-90.62
58.234,-75.6
58.250,-57.78
58.265,-38.7
58.281,-19.85
58.296,-2.42
58.312,12.75
58.328,25.18
58.343,34.68
58.359,41.29
58.375,45.35
58.390,47.22
58.406,47.45
58.421,46.69
58.437,45.49
58.453,44.38
58.468,43.65
58.484,43.43
58.500,43.69
58.515,44.25
58.531,44.73
58.546,44.77
58.562,44.16
58.578,42.86
58.593,41.12
58.609,39.27
58.625,37.72
58.640,36.67
58.656,36.11
58.671,35.93
58.687,35.94
58.703,36.11
58.718,36.4
58.734,37.07
58.750,38.5
58.765,40.97
58.781,44.51
58.796,48.84
58.812,53.54
58.828,58.11
58.843,62.37
58.859,66.21
58.875,69.91
58.890,74.18
58.906,79.85
58.921,88.06
58.937,99.81
58.953,115.58
58.968,134.65
58.984,154.95
59.000,173.25
59.015,186.12
59.031,191.37
59.046,188.47
59.062,178.98
59.078,165.66
59.093,151.59
59.109,138.89
59.125,128.5
59.140,120.27
59.156,112.92
59.171,105.56
59.187,97.13
59.203,86.54
59.218,72.71
59.234,55.17
59.250,34.48
59.265,12.36
59.281,-8.59
59.296,-25.3
59.312,-35.02
59.328,-36.75
59.343,-30.92
59.359,-18.99
59.375,-2.7
59.390,16.51
59.406,37.33
59.421,58.14
59.437,76.85
59.453,91.57
59.468,100.9
59.484,104.86
59.500,104.95
59.515,103.55
59.531,102.84
59.546,103.95
59.562,106.84
59.578,110.38
59.593,113.21
59.609,114.17
59.625,112.77
59.640,108.8
59.656,102.49
59.671,94.23
59.687,84.2
59.703,72.13
59.718,57.27
59.734,38.64
59.750,15.28
59.765,-13.17
59.781,-47.04
59.796,-86.33
59.812,-130.02
59.828,-175.76
59.843,-219.78
59.859,-257.81
59.875,-286.52
59.890,-305.22
59.906,-316.35
59.921,-324.84
59.937,-335.39
59.953,-349.61
59.968,-364.5
59.984,-373.33
