timestamp,value
00.000,-9.74
00.015,-5.73
00.031,-2.67
00.046,-0.64
00.062,0.56
00.078,1.23
00.093,1.84
00.109,2.65
00.125,3.61
00.140,4.5
00.156,4.96
00.171,4.66
00.187,3.61
00.203,2.05
00.218,0.39
00.234,-0.92
00.250,-1.68
00.265,-1.97
00.281,-2.13
00.296,-2.54
00.312,-3.43
00.328,-4.72
00.343,-6.15
00.359,-7.36
00.375,-8.17
00.390,-8.63
00.406,-8.81
00.421,-8.87
00.437,-8.94
00.453,-9.03
00.468,-9.14
00.484,-9.39
00.500,-9.91
00.515,-10.88
00.531,-12.4
00.546,-14.4
00.562,-16.54
00.578,-18.57
00.593,-20.3
00.609,-21.81
00.625,-23.35
00.640,-25.29
00.656,-27.76
00.671,-30.62
00.687,-33.39
00.703,-35.28
00.718,-35.49
00.734,-33.48
00.750,-29.23
00.765,-23.03
00.781,-15.68
00.796,-7.92
00.812,-0.42
00.828,6.38
00.843,12.25
00.859,17.08
00.875,20.81
00.890,23.32
00.906,24.63
00.921,24.81
00.937,24.14
00.953,23.04
00.968,21.92
00.984,21.07
01.000,20.62
01.015,20.54
01.031,20.72
01.046,21.05
01.062,21.47
01.078,21.98
01.093,22.68
01.109,23.55
01.125,24.46
01.140,25.13
01.156,25.31
01.171,24.74
01.187,23.29
01.203,21.09
01.218,18.43
01.234,15.71
01.250,13.16
01.265,10.92
01.281,8.81
01.296,6.62
01.312,4.1
01.328,1.2
01.343,-1.99
01.359,-5.29
01.375,-8.55
01.390,-11.8
01.406,-15.02
01.421,-18.29
01.437,-21.57
01.453,-24.77
01.468,-27.81
01.484,-30.65
01.500,-33.36
01.515,-36.07
01.531,-38.83
01.546,-41.43
01.562,-43.39
01.578,-43.97
01.593,-42.48
01.609,-38.42
01.625,-31.75
01.640,-23.07
01.656,-13.28
01.671,-3.35
01.687,5.86
01.703,13.84
01.718,20.55
01.734,26.06
01.750,30.51
01.765,33.92
01.781,36.21
01.796,37.25
01.812,37.18
01.828,36.22
01.843,34.73
01.859,33.06
01.875,31.51
01.890,30.23
01.906,29.29
01.921,28.69
01.937,28.4
01.953,28.43
01.968,28.69
01.984,29.02
02.000,29.23
02.015,29.07
02.031,28.36
02.046,27.05
02.062,25.32
02.078,23.5
02.093,21.96
02.109,21.01
02.125,20.66
02.140,20.69
02.156,20.56
02.171,19.94
02.187,18.67
02.203,16.95
02.218,15.14
02.234,13.49
02.250,12.07
02.265,10.68
02.281,9.15
02.296,7.35
02.312,5.51
02.328,4.02
02.343,3.47
02.359,4.22
02.375,6.4
02.390,9.95
02.406,14.78
02.421,20.98
02.437,28.77
02.453,38.53
02.468,50.37
02.484,64.15
02.500,79.24
02.515,94.62
02.531,109.09
02.546,121.37
02.562,130.35
02.578,135.14
02.593,135.13
02.609,130.11
02.625,120.44
02.640,107.12
02.656,91.64
02.671,75.81
02.687,61.2
02.703,48.9
02.718,39.27
02.734,32.02
02.750,26.52
02.765,22.23
02.781,18.98
02.796,16.88
02.812,16.24
02.828,17.2
02.843,19.56
02.859,22.75
02.875,26.02
02.890,28.65
02.906,30.0
02.921,29.64
02.937,27.14
02.953,22.13
02.968,14.37
02.984,3.9
03.000,-8.69
03.015,-22.33
03.031,-35.72
03.046,-47.62
03.062,-57.16
03.078,-63.98
03.093,-68.21
03.109,-70.45
03.125,-71.43
03.140,-71.94
03.156,-72.53
03.171,-73.57
03.187,-74.88
03.203,-75.91
03.218,-75.78
03.234,-73.64
03.250,-68.99
03.265,-61.8
03.281,-52.6
03.296,-42.26
03.312,-32.08
03.328,-23.1
03.343,-16.09
03.359,-11.44
03.375,-9.22
03.390,-9.08
03.406,-10.44
03.421,-12.59
03.437,-14.54
03.453,-15.97
03.468,-16.7
03.484,-17.02
03.500,-17.51
03.515,-18.94
03.531,-21.59
03.546,-25.11
03.562,-28.49
03.578,-30.3
03.593,-30.11
03.609,-28.19
03.625,-25.78
03.640,-24.87
03.656,-27.36
03.671,-34.28
03.687,-45.19
03.703,-58.18
03.718,-70.46
03.734,-80.84
03.750,-89.34
03.765,-97.5
03.781,-107.79
03.796,-122.56
03.812,-143.17
03.828,-169.64
03.843,-201.1
03.859,-235.92
03.875,-273.63
03.890,-312.89
03.906,-351.19
03.921,-385.55
03.937,-413.77
03.953,-436.28
03.968,-456.75
03.984,-481.34
04.000,-504.96
04.015,-521.15
04.031,-519.86
04.046,-490.71
04.062,-428.18
04.078,-335.24
04.093,-222.8
04.109,-104.95
04.125,6.15
04.140,103.59
04.156,184.01
04.171,247.27
04.187,294.05
04.203,324.63
04.218,339.56
04.234,340.5
04.250,330.92
04.265,315.53
04.281,299.37
04.296,285.04
04.312,273.39
04.328,263.63
04.343,253.67
04.359,241.6
04.375,226.63
04.390,209.46
04.406,191.97
04.421,176.47
04.437,164.01
04.453,154.49
04.468,146.93
04.484,139.51
04.500,131.07
04.515,121.04
04.531,109.97
04.546,99.12
04.562,89.98
04.578,83.71
04.593,80.67
04.609,81.0
04.625,84.1
04.640,89.56
04.656,97.04
04.671,106.23
04.687,116.64
04.703,127.21
04.718,137.34
04.734,144.67
04.750,146.92
04.765,142.35
04.781,129.76
04.796,109.4
04.812,82.55
04.828,51.18
04.843,17.68
04.859,-15.43
04.875,-46.23
04.890,-73.17
04.906,-95.37
04.921,-112.59
04.937,-124.78
04.953,-132.15
04.968,-135.26
04.984,-135.21
05.000,-133.28
05.015,-131.05
05.031,-129.83
05.046,-130.3
05.062,-132.57
05.078,-135.98
05.093,-139.5
05.109,-142.29
05.125,-144.45
05.140,-147.1
05.156,-152.21
05.171,-162.42
05.187,-179.33
05.203,-203.46
05.218,-233.63
05.234,-267.48
05.250,-302.32
05.265,-335.52
05.281,-365.67
05.296,-392.34
05.312,-416.48
05.328,-439.45
05.343,-462.81
05.359,-487.8
05.375,-514.32
05.390,-540.1
05.406,-560.4
05.421,-569.34
05.437,-557.46
05.453,-520.61
05.468,-460.17
05.484,-382.55
05.500,-297.14
05.515,-212.82
05.531,-135.53
05.546,-67.23
05.562,-7.03
05.578,46.84
05.593,94.92
05.609,136.92
05.625,172.58
05.640,202.43
05.656,228.35
05.671,252.16
05.687,275.19
05.703,297.49
05.718,318.18
05.734,335.63
05.750,348.89
05.765,358.42
05.781,366.02
05.796,375.31
05.812,389.28
05.828,409.3
05.843,434.5
05.859,462.5
05.875,489.78
05.890,513.09
05.906,530.5
05.921,541.09
05.937,547.26
05.953,551.11
05.968,553.21
05.984,552.42
06.000,546.79
06.015,534.41
06.031,514.48
06.046,487.88
06.062,456.21
06.078,425.43
06.093,400.51
06.109,383.0
06.125,371.3
06.140,362.01
06.156,351.39
06.171,336.7
06.187,317.04
06.203,292.57
06.218,269.42
06.234,253.19
06.250,246.07
06.265,247.57
06.281,255.99
06.296,269.63
06.312,288.05
06.328,312.7
06.343,312.5
06.359,268.68
06.375,178.17
06.390,55.33
06.406,-75.15
06.421,-191.67
06.437,-283.77
06.453,-350.52
06.468,-395.02
06.484,-422.0
06.500,-430.64
06.515,-413.44
06.531,-375.96
06.546,-326.97
06.562,-274.8
06.578,-226.9
06.593,-187.77
06.609,-158.13
06.625,-136.56
06.640,-116.2
06.656,-90.98
06.671,-58.74
06.687,-28.79
06.703,-7.0
06.718,2.43
06.734,-1.86
06.750,-18.17
06.765,-43.3
06.781,-70.66
06.796,-94.06
06.812,-110.62
06.828,-119.16
06.843,-120.21
06.859,-117.6
06.875,-117.54
06.890,-126.17
06.906,-152.09
06.921,-195.26
06.937,-245.53
06.953,-287.36
06.968,-306.36
06.984,-296.14
07.000,-260.74
07.015,-210.82
07.031,-158.12
07.046,-108.59
07.062,-64.13
07.078,-25.42
07.093,5.92
07.109,28.09
07.125,40.73
07.140,46.16
07.156,44.2
07.171,40.87
07.187,42.72
07.203,52.72
07.218,68.18
07.234,82.88
07.250,90.97
07.265,89.58
07.281,79.38
07.296,63.36
07.312,44.95
07.328,25.77
07.343,6.55
07.359,-12.5
07.375,-30.74
07.390,-46.94
07.406,-60.17
07.421,-70.75
07.437,-79.51
07.453,-88.1
07.468,-99.79
07.484,-118.05
07.500,-144.6
07.515,-177.62
07.531,-208.28
07.546,-228.08
07.562,-230.31
07.578,-212.97
07.593,-179.55
07.609,-137.69
07.625,-95.58
07.640,-58.75
07.656,-28.8
07.671,-4.51
07.687,15.1
07.703,30.41
07.718,40.78
07.734,45.73
07.750,45.66
07.765,42.31
07.781,38.2
07.796,36.1
07.812,37.88
07.828,43.15
07.843,50.59
07.859,58.23
07.875,64.69
07.890,69.32
07.906,72.64
07.921,75.68
07.937,79.27
07.953,83.63
07.968,87.93
07.984,91.27
08.000,92.5
08.015,91.31
08.031,87.88
08.046,83.16
08.062,78.21
08.078,73.92
08.093,70.55
08.109,67.65
08.125,64.43
08.140,59.87
08.156,53.21
08.171,44.06
08.187,32.46
08.203,18.7
08.218,3.17
08.234,-13.3
08.250,-29.59
08.265,-44.19
08.281,-55.54
08.296,-62.39
08.312,-64.27
08.328,-61.83
08.343,-56.31
08.359,-49.58
08.375,-43.0
08.390,-37.45
08.406,-33.04
08.421,-29.28
08.437,-25.43
08.453,-21.26
08.468,-17.28
08.484,-14.76
08.500,-15.94
08.515,-22.11
08.531,-33.6
08.546,-49.98
08.562,-70.71
08.578,-95.93
08.593,-122.6
08.609,-149.7
08.625,-177.34
08.640,-207.91
08.656,-243.44
08.671,-284.94
08.687,-332.58
08.703,-384.72
08.718,-436.98
08.734,-482.0
08.750,-510.01
08.765,-512.72
08.781,-489.34
08.796,-443.55
08.812,-381.95
08.828,-313.37
08.843,-245.67
08.859,-183.64
08.875,-128.65
08.890,-77.78
08.906,-28.16
08.921,16.75
08.937,54.79
08.953,87.06
08.968,115.73
08.984,143.7
09.000,173.65
09.015,206.98
09.031,246.39
09.046,292.11
09.062,336.11
09.078,372.8
09.093,401.41
09.109,422.35
09.125,436.83
09.140,445.97
09.156,428.84
09.171,373.54
09.187,313.69
09.203,263.48
09.218,215.69
09.234,169.79
09.250,126.83
09.265,88.68
09.281,56.92
09.296,32.26
09.312,17.71
09.328,14.13
09.343,14.5
09.359,14.1
09.375,13.15
09.390,12.69
09.406,14.74
09.421,21.48
09.437,34.97
09.453,58.7
09.468,93.15
09.484,130.56
09.500,163.27
09.515,187.0
09.531,199.56
09.546,202.25
09.562,199.68
09.578,198.68
09.593,207.51
09.609,230.62
09.625,264.59
09.640,303.15
09.656,339.82
09.671,367.61
09.687,380.01
09.703,371.98
09.718,340.88
09.734,288.09
09.750,217.19
09.765,132.39
09.781,40.16
09.796,-51.67
09.812,-136.68
09.828,-211.53
09.843,-276.15
09.859,-331.92
09.875,-376.18
09.890,-403.12
09.906,-407.57
09.921,-388.53
09.937,-350.06
09.953,-299.48
09.968,-244.05
09.984,-189.43
10.000,-138.14
10.015,-90.37
10.031,-46.88
10.046,-8.61
10.062,23.57
10.078,49.51
10.093,70.46
10.109,86.69
10.125,98.06
10.140,104.77
10.156,107.29
10.171,103.64
10.187,92.06
10.203,72.1
10.218,44.48
10.234,10.09
10.250,-30.99
10.265,-79.75
10.281,-138.35
10.296,-210.1
10.312,-296.1
10.328,-392.94
10.343,-491.16
10.359,-576.13
10.375,-632.76
10.390,-650.33
10.406,-625.62
10.421,-563.45
10.437,-456.71
10.453,-316.92
10.468,-166.71
10.484,-29.4
10.500,81.96
10.515,165.38
10.531,224.45
10.546,263.58
10.562,286.39
10.578,296.67
10.593,295.81
10.609,286.67
10.625,271.83
10.640,252.18
10.656,225.91
10.671,190.63
10.687,146.22
10.703,96.83
10.718,49.87
10.734,10.15
10.750,-19.14
10.765,-38.44
10.781,-49.85
10.796,-55.02
10.812,-53.02
10.828,-40.58
10.843,-13.91
10.859,27.65
10.875,78.02
10.890,129.3
10.906,172.67
10.921,202.89
10.937,219.6
10.953,225.93
10.968,225.78
10.984,221.47
11.000,212.16
11.015,190.76
11.031,157.42
11.046,113.66
11.062,64.0
11.078,14.9
11.093,-26.76
11.109,-58.75
11.125,-80.02
11.140,-91.35
11.156,-95.03
11.171,-93.13
11.187,-89.09
11.203,-86.55
11.218,-88.3
11.234,-94.81
11.250,-105.09
11.265,-115.18
11.281,-120.79
11.296,-119.5
11.312,-111.35
11.328,-98.95
11.343,-85.52
11.359,-72.92
11.375,-60.99
11.390,-49.04
11.406,-36.34
11.421,-23.98
11.437,-13.71
11.453,-6.86
11.468,-3.11
11.484,-0.32
11.500,4.22
11.515,12.72
11.531,25.17
11.546,40.16
11.562,53.95
11.578,62.71
11.593,63.74
11.609,55.85
11.625,39.6
11.640,17.39
11.656,-6.58
11.671,-27.17
11.687,-39.04
11.703,-38.59
11.718,-26.24
11.734,-6.25
11.750,14.77
11.765,30.58
11.781,37.77
11.796,37.0
11.812,31.22
11.828,24.24
11.843,18.4
11.859,13.91
11.875,9.79
11.890,5.26
11.906,0.65
11.921,-3.11
11.937,-4.63
11.953,-3.78
11.968,-1.31
11.984,1.63
12.000,3.58
12.015,3.81
12.031,2.43
12.046,0.44
12.062,-1.25
12.078,-2.2
12.093,-3.11
12.109,-4.86
12.125,-7.93
12.140,-12.36
12.156,-17.74
12.171,-23.46
12.187,-28.59
12.203,-32.31
12.218,-33.75
12.234,-32.8
12.250,-29.17
12.265,-22.45
12.281,-12.14
12.296,2.1
12.312,19.4
12.328,37.94
12.343,55.28
12.359,69.73
12.375,79.61
12.390,84.51
12.406,84.96
12.421,81.96
12.437,77.06
12.453,72.0
12.468,68.26
12.484,66.94
12.500,68.18
12.515,69.57
12.531,67.27
12.546,57.22
12.562,37.3
12.578,9.34
12.593,-21.33
12.609,-47.99
12.625,-65.42
12.640,-71.8
12.656,-69.31
12.671,-62.47
12.687,-55.84
12.703,-52.23
12.718,-51.33
12.734,-51.49
12.750,-51.05
12.765,-50.02
12.781,-49.08
12.796,-48.95
12.812,-49.55
12.828,-49.74
12.843,-48.53
12.859,-44.49
12.875,-37.08
12.890,-26.27
12.906,-12.9
12.921,2.01
12.937,17.35
12.953,32.36
12.968,46.81
12.984,60.58
13.000,73.84
13.015,86.29
13.031,96.99
13.046,104.44
13.062,106.73
13.078,101.81
13.093,87.8
13.109,64.11
13.125,32.84
13.140,-2.05
13.156,-36.16
13.171,-65.58
13.187,-87.64
13.203,-101.63
13.218,-108.62
13.234,-111.01
13.250,-111.14
13.265,-111.61
13.281,-114.31
13.296,-119.78
13.312,-126.4
13.328,-130.02
13.343,-125.12
13.359,-106.89
13.375,-74.19
13.390,-30.33
13.406,17.28
13.421,59.52
13.437,89.58
13.453,105.37
13.468,109.69
13.484,108.2
13.500,106.12
13.515,106.32
13.531,108.48
13.546,110.02
13.562,107.11
13.578,96.17
13.593,74.8
13.609,42.55
13.625,1.83
13.640,-42.39
13.656,-83.52
13.671,-117.28
13.687,-140.69
13.703,-154.06
13.718,-160.16
13.734,-162.17
13.750,-161.01
13.765,-154.53
13.781,-138.43
13.796,-109.01
13.812,-66.4
13.828,-15.18
13.843,36.62
13.859,80.78
13.875,111.67
13.890,127.52
13.906,129.41
13.921,119.25
13.937,98.78
13.953,69.44
13.968,33.74
13.984,-4.07
14.000,-38.33
14.015,-63.79
14.031,-77.83
14.046,-81.52
14.062,-78.92
14.078,-74.76
14.093,-72.36
14.109,-73.04
14.125,-76.72
14.140,-83.03
14.156,-91.73
14.171,-102.34
14.187,-114.37
14.203,-126.72
14.218,-137.95
14.234,-147.15
14.250,-154.28
14.265,-160.41
14.281,-167.48
14.296,-177.67
14.312,-191.27
14.328,-209.0
14.343,-231.55
14.359,-259.23
14.375,-291.3
14.390,-324.85
14.406,-354.46
14.421,-372.86
14.437,-373.45
14.453,-352.88
14.468,-313.0
14.484,-260.27
14.500,-203.22
14.515,-149.08
14.531,-101.93
14.546,-62.22
14.562,-28.16
14.578,2.18
14.593,29.6
14.609,53.76
14.625,74.06
14.640,90.41
14.656,103.59
14.671,114.32
14.687,122.88
14.703,128.75
14.718,130.71
14.734,127.52
14.750,118.38
14.765,103.64
14.781,84.76
14.796,64.04
14.812,43.67
14.828,25.45
14.843,10.53
14.859,-0.9
14.875,-9.19
14.890,-14.97
14.906,-18.84
14.921,-21.07
14.937,-21.59
14.953,-20.22
14.968,-16.7
14.984,-10.93
15.000,-3.25
15.015,5.48
15.031,14.02
15.046,20.93
15.062,25.08
15.078,26.24
15.093,25.05
15.109,22.85
15.125,21.36
15.140,21.81
15.156,24.61
15.171,29.5
15.187,35.74
15.203,42.44
15.218,49.08
15.234,55.36
15.250,61.04
15.265,66.16
15.281,70.96
15.296,76.11
15.312,82.65
15.328,91.79
15.343,104.15
15.359,119.72
15.375,137.92
15.390,157.88
15.406,179.3
15.421,202.59
15.437,229.02
15.453,259.75
15.468,294.59
15.484,330.68
15.500,362.4
15.515,382.53
15.531,384.73
15.546,366.62
15.562,330.85
15.578,284.52
15.593,236.5
15.609,193.8
15.625,159.37
15.640,132.24
15.656,109.38
15.671,88.4
15.687,69.51
15.703,54.89
15.718,46.9
15.734,45.99
15.750,49.98
15.765,55.15
15.781,58.44
15.796,58.93
15.812,58.18
15.828,59.24
15.843,64.29
15.859,73.31
15.875,83.7
15.890,91.35
15.906,92.58
15.921,85.9
15.937,72.2
15.953,54.28
15.968,35.57
15.984,18.74
16.000,5.47
16.015,-3.32
16.031,-7.48
16.046,-7.04
16.062,-2.35
16.078,5.58
16.093,15.24
16.109,25.02
16.125,33.75
16.140,41.17
16.156,48.1
16.171,55.79
16.187,64.98
16.203,75.14
16.218,84.51
16.234,90.66
16.250,91.63
16.265,86.87
16.281,77.62
16.296,66.39
16.312,56.07
16.328,48.74
16.343,44.92
16.359,43.72
16.375,43.71
16.390,43.89
16.406,44.01
16.421,44.5
16.437,45.55
16.453,46.58
16.468,45.87
16.484,41.14
16.500,30.86
16.515,15.56
16.531,-1.93
16.546,-17.38
16.562,-26.96
16.578,-29.1
16.593,-24.46
16.609,-16.42
16.625,-9.43
16.640,-7.07
16.656,-10.19
16.671,-16.9
16.687,-23.58
16.703,-27.02
16.718,-25.94
16.734,-19.52
16.750,-9.05
16.765,3.05
16.781,14.5
16.796,24.5
16.812,33.87
16.828,44.4
16.843,57.12
16.859,71.69
16.875,89.79
16.890,112.21
16.906,138.85
16.921,168.65
16.937,199.9
16.953,230.32
16.968,257.76
16.984,280.38
17.000,297.84
17.015,315.81
17.031,339.79
17.046,371.77
17.062,407.68
17.078,438.09
17.093,451.99
17.109,441.39
17.125,404.73
17.140,323.8
17.156,198.45
17.171,43.91
17.187,-114.4
17.203,-252.76
17.218,-359.0
17.234,-432.8
17.250,-480.08
17.265,-507.71
17.281,-521.53
17.296,-522.64
17.312,-513.08
17.328,-495.62
17.343,-472.86
17.359,-445.37
17.375,-411.09
17.390,-367.46
17.406,-314.68
17.421,-257.3
17.437,-200.19
17.453,-149.45
17.468,-108.88
17.484,-78.65
17.500,-56.12
17.515,-38.17
17.531,-24.52
17.546,-18.8
17.562,-26.46
17.578,-48.85
17.593,-82.7
17.609,-120.29
17.625,-152.43
17.640,-172.18
17.656,-176.78
17.671,-167.89
17.687,-149.9
17.703,-127.34
17.718,-102.1
17.734,-74.91
17.750,-46.12
17.765,-16.66
17.781,11.57
17.796,37.01
17.812,58.99
17.828,78.02
17.843,94.46
17.859,109.07
17.875,119.64
17.890,122.75
17.906,115.41
17.921,96.02
17.937,65.87
17.953,29.15
17.968,-7.98
17.984,-40.06
18.000,-63.92
18.015,-79.48
18.031,-89.22
18.046,-95.98
18.062,-101.9
18.078,-107.61
18.093,-112.57
18.109,-115.99
18.125,-117.72
18.140,-118.26
18.156,-117.95
18.171,-116.73
18.187,-113.69
18.203,-108.01
18.218,-99.3
18.234,-88.06
18.250,-75.94
18.265,-64.94
18.281,-57.35
18.296,-54.67
18.312,-58.21
18.328,-67.2
18.343,-79.73
18.359,-93.37
18.375,-105.96
18.390,-116.77
18.406,-126.28
18.421,-136.07
18.437,-147.43
18.453,-161.92
18.468,-179.29
18.484,-198.11
18.500,-215.68
18.515,-228.86
18.531,-235.01
18.546,-232.48
18.562,-220.26
18.578,-195.81
18.593,-160.79
18.609,-119.68
18.625,-78.74
18.640,-43.12
18.656,-15.17
18.671,6.43
18.687,25.31
18.703,45.41
18.718,68.65
18.734,93.06
18.750,114.25
18.765,128.25
18.781,135.64
18.796,140.23
18.812,146.52
18.828,156.74
18.843,169.85
18.859,182.23
18.875,189.15
18.890,187.28
18.906,176.06
18.921,161.09
18.937,149.19
18.953,145.58
18.968,152.07
18.984,168.03
19.000,192.0
19.015,222.34
19.031,257.03
19.046,292.03
19.062,325.4
19.078,353.29
19.093,371.45
19.109,377.5
19.125,374.73
19.140,371.46
19.156,377.01
19.171,396.85
19.187,402.0
19.203,369.8
19.218,292.94
19.234,185.31
19.250,69.98
19.265,-34.07
19.281,-118.12
19.296,-182.69
19.312,-233.85
19.328,-278.06
19.343,-314.14
19.359,-337.98
19.375,-345.07
19.390,-335.71
19.406,-313.78
19.421,-284.89
19.437,-254.41
19.453,-227.49
19.468,-207.11
19.484,-189.46
19.500,-168.49
19.515,-138.35
19.531,-96.83
19.546,-44.71
19.562,11.83
19.578,67.78
19.593,117.9
19.609,158.39
19.625,190.34
19.640,217.32
19.656,243.59
19.671,270.64
19.687,297.87
19.703,323.94
19.718,348.1
19.734,366.65
19.750,373.28
19.765,362.31
19.781,330.05
19.796,277.2
19.812,207.77
19.828,129.51
19.843,48.53
19.859,-19.43
19.875,-59.95
19.890,-68.38
19.906,-51.05
19.921,-23.34
19.937,7.26
19.953,37.44
19.968,65.35
19.984,88.53
20.000,106.07
20.015,114.67
20.031,111.85
20.046,97.77
20.062,75.73
20.078,51.73
20.093,30.7
20.109,15.85
20.125,8.61
20.140,9.5
20.156,16.92
20.171,29.02
20.187,44.56
20.203,63.07
20.218,85.21
20.234,110.59
20.250,137.21
20.265,162.27
20.281,182.88
20.296,195.51
20.312,197.55
20.328,188.35
20.343,168.93
20.359,141.93
20.375,110.31
20.390,76.71
20.406,43.53
20.421,12.89
20.437,-13.62
20.453,-34.86
20.468,-50.01
20.484,-58.65
20.500,-60.4
20.515,-56.03
20.531,-47.25
20.546,-36.02
20.562,-24.32
20.578,-13.95
20.593,-5.87
20.609,-0.08
20.625,3.96
20.640,7.57
20.656,12.09
20.671,18.35
20.687,27.1
20.703,38.55
20.718,52.15
20.734,66.77
20.750,80.78
20.765,92.04
20.781,98.69
20.796,99.33
20.812,93.02
20.828,79.83
20.843,60.52
20.859,36.42
20.875,9.4
20.890,-18.57
20.906,-45.66
20.921,-70.28
20.937,-91.29
20.953,-108.07
20.968,-120.04
20.984,-127.12
21.000,-129.46
21.015,-127.31
21.031,-121.4
21.046,-112.71
21.062,-102.22
21.078,-90.96
21.093,-79.98
21.109,-69.75
21.125,-60.59
21.140,-52.54
21.156,-45.58
21.171,-40.34
21.187,-37.89
21.203,-39.62
21.218,-47.07
21.234,-61.39
21.250,-82.82
21.265,-110.83
21.281,-144.21
21.296,-181.52
21.312,-221.93
21.328,-265.12
21.343,-311.31
21.359,-360.88
21.375,-413.73
21.390,-468.59
21.406,-523.57
21.421,-576.47
21.437,-625.08
21.453,-668.31
21.468,-705.95
21.484,-738.6
21.500,-767.54
21.515,-794.51
21.531,-821.12
21.546,-848.53
21.562,-876.38
21.578,-901.46
21.593,-917.73
21.609,-917.37
21.625,-893.54
21.640,-843.36
21.656,-769.36
21.671,-678.94
21.687,-581.93
21.703,-487.15
21.718,-400.18
21.734,-322.9
21.750,-254.69
21.765,-194.12
21.781,-140.26
21.796,-92.66
21.812,-50.64
21.828,-13.06
21.843,21.56
21.859,54.43
21.875,85.97
21.890,115.73
21.906,142.64
21.921,165.29
21.937,182.66
21.953,194.52
21.968,201.42
21.984,203.66
22.000,201.6
22.015,195.92
22.031,187.95
22.046,179.76
22.062,173.28
22.078,170.03
22.093,171.02
22.109,176.52
22.125,184.41
22.140,191.87
22.156,196.94
22.171,200.07
22.187,203.71
22.203,211.12
22.218,224.51
22.234,244.85
22.250,271.91
22.265,301.62
22.281,329.16
22.296,351.03
22.312,367.06
22.328,379.41
22.343,390.74
22.359,402.25
22.375,414.04
22.390,425.71
22.406,431.69
22.421,424.78
22.437,397.77
22.453,345.77
22.468,267.74
22.484,166.31
22.500,47.91
22.515,-77.13
22.531,-175.92
22.546,-217.49
22.562,-186.28
22.578,-94.2
22.593,28.04
22.609,151.01
22.625,257.55
22.640,342.35
22.656,403.64
22.671,449.17
22.687,479.46
22.703,492.57
22.718,487.3
22.734,466.56
22.750,436.5
22.765,403.12
22.781,369.81
22.796,337.99
22.812,307.97
22.828,275.2
22.843,234.99
22.859,184.39
22.875,124.2
22.890,58.23
22.906,-9.63
22.921,-76.46
22.937,-140.12
22.953,-198.85
22.968,-253.72
22.984,-306.01
23.000,-356.68
23.015,-405.48
23.031,-451.05
23.046,-492.67
23.062,-531.09
23.078,-568.15
23.093,-606.1
23.109,-647.45
23.125,-691.85
23.140,-734.54
23.156,-766.26
23.171,-776.49
23.187,-757.57
23.203,-707.67
23.218,-631.59
23.234,-538.47
23.250,-438.9
23.265,-341.23
23.281,-250.25
23.296,-167.45
23.312,-93.23
23.328,-28.44
23.343,25.37
23.359,66.65
23.375,94.93
23.390,111.38
23.406,118.17
23.421,117.46
23.437,110.97
23.453,99.56
23.468,83.68
23.484,64.33
23.500,43.38
23.515,23.58
23.531,8.16
23.546,-0.05
23.562,0.43
23.578,9.58
23.593,25.72
23.609,46.33
23.625,68.74
23.640,90.63
23.656,110.64
23.671,128.64
23.687,144.94
23.703,159.42
23.718,171.5
23.734,180.17
23.750,184.66
23.765,184.61
23.781,180.21
23.796,172.11
23.812,161.52
23.828,149.5
23.843,136.3
23.859,121.52
23.875,104.21
23.890,83.65
23.906,59.77
23.921,33.26
23.937,5.49
23.953,-20.61
23.968,-42.41
23.984,-58.68
24.000,-69.49
24.015,-75.71
24.031,-78.25
24.046,-77.91
24.062,-74.65
24.078,-68.12
24.093,-54.47
24.109,-31.19
24.125,0.95
24.140,37.96
24.156,74.89
24.171,108.21
24.187,135.65
24.203,158.51
24.218,179.32
24.234,208.33
24.250,252.63
24.265,312.44
24.281,380.67
24.296,447.45
24.312,505.2
24.328,548.25
24.343,578.24
24.359,598.79
24.375,626.61
24.390,673.63
24.406,741.46
24.421,820.5
24.437,897.23
24.453,962.25
24.468,1009.62
24.484,1045.44
24.500,1077.85
24.515,1131.27
24.531,1222.05
24.546,1351.4
24.562,1504.04
24.578,1658.02
24.593,1795.56
24.609,1902.33
24.625,1979.79
24.640,1921.66
24.656,1672.64
24.671,1250.99
24.687,746.33
24.703,258.65
24.718,-152.7
24.734,-443.25
24.750,-656.66
24.765,-828.86
24.781,-980.96
24.796,-1104.1
24.812,-1186.99
24.828,-1225.57
24.843,-1221.54
24.859,-1179.17
24.875,-1104.98
24.890,-1014.01
24.906,-915.0
24.921,-816.57
24.937,-711.46
24.953,-597.07
24.968,-470.33
24.984,-340.24
25.000,-222.23
25.015,-128.62
25.031,-68.39
25.046,-37.23
25.062,-28.9
25.078,-28.64
25.093,-25.77
25.109,-16.81
25.125,-7.14
25.140,-5.81
25.156,-19.23
25.171,-51.15
25.187,-96.38
25.203,-147.93
25.218,-195.26
25.234,-230.93
25.250,-252.2
25.265,-261.97
25.281,-265.62
25.296,-267.64
25.312,-271.3
25.328,-275.16
25.343,-276.59
25.359,-271.51
25.375,-257.24
25.390,-233.22
25.406,-201.72
25.421,-166.24
25.437,-130.15
25.453,-96.36
25.468,-65.9
25.484,-39.32
25.500,-16.91
25.515,0.73
25.531,13.01
25.546,19.14
25.562,18.62
25.578,11.64
25.593,-0.72
25.609,-16.52
25.625,-33.62
25.640,-50.02
25.656,-64.53
25.671,-76.85
25.687,-87.42
25.703,-97.0
25.718,-106.09
25.734,-114.99
25.750,-123.65
25.765,-132.08
25.781,-140.59
25.796,-150.08
25.812,-162.03
25.828,-178.12
25.843,-199.76
25.859,-227.06
25.875,-259.15
25.890,-294.47
25.906,-331.17
25.921,-367.99
25.937,-404.24
25.953,-439.99
25.968,-475.51
25.984,-511.47
26.000,-548.52
26.015,-587.26
26.031,-627.53
26.046,-666.79
26.062,-699.55
26.078,-717.47
26.093,-712.02
26.109,-677.47
26.125,-613.95
26.140,-527.42
26.156,-428.38
26.171,-328.79
26.187,-237.99
26.203,-161.21
26.218,-99.15
26.234,-49.79
26.250,-10.41
26.265,21.08
26.281,46.61
26.296,67.51
26.312,83.87
26.328,95.73
26.343,102.77
26.359,105.32
26.375,104.58
26.390,102.34
26.406,100.33
26.421,100.58
26.437,103.88
26.453,108.36
26.468,111.83
26.484,112.17
26.500,109.53
26.515,105.63
26.531,103.24
26.546,104.6
26.562,111.91
26.578,125.24
26.593,141.51
26.609,156.81
26.625,165.68
26.640,163.71
26.656,146.88
26.671,112.27
26.687,59.15
26.703,-7.98
26.718,-65.32
26.734,-88.37
26.750,-61.09
26.765,11.72
26.781,110.29
26.796,211.95
26.812,301.99
26.828,370.32
26.843,425.55
26.859,472.66
26.875,509.88
26.890,532.63
26.906,534.48
26.921,514.3
26.937,473.26
26.953,416.12
26.968,346.57
26.984,271.9
27.000,197.26
27.015,125.61
27.031,58.42
27.046,-13.82
27.062,-95.2
27.078,-184.47
27.093,-277.2
27.109,-370.17
27.125,-451.3
27.140,-516.7
27.156,-566.64
27.171,-585.37
27.187,-565.13
27.203,-505.86
27.218,-417.62
27.234,-315.55
27.250,-213.82
27.265,-120.97
27.281,-43.18
27.296,16.5
27.312,56.88
27.328,75.74
27.343,75.46
27.359,62.8
27.375,48.51
27.390,43.63
27.406,55.69
27.421,83.77
27.437,122.51
27.453,161.82
27.468,189.39
27.484,198.36
27.500,187.92
27.515,162.58
27.531,128.88
27.546,92.46
27.562,55.43
27.578,18.8
27.593,-17.43
27.609,-53.83
27.625,-89.59
27.640,-123.26
27.656,-153.27
27.671,-178.46
27.687,-197.96
27.703,-215.36
27.718,-231.3
27.734,-245.49
27.750,-257.3
27.765,-265.78
27.781,-270.08
27.796,-269.78
27.812,-265.04
27.828,-256.63
27.843,-245.63
27.859,-232.36
27.875,-217.16
27.890,-200.21
27.906,-181.75
27.921,-162.25
27.937,-142.45
27.953,-123.22
27.968,-105.65
27.984,-90.42
28.000,-77.36
28.015,-65.99
28.031,-55.35
28.046,-44.34
28.062,-32.35
28.078,-19.17
28.093,-5.11
28.109,9.17
28.125,22.95
28.140,35.64
28.156,46.53
28.171,55.28
28.187,61.8
28.203,66.11
28.218,68.54
28.234,69.52
28.250,69.65
28.265,69.62
28.281,70.23
28.296,72.01
28.312,75.42
28.328,80.79
28.343,88.15
28.359,97.17
28.375,107.31
28.390,117.56
28.406,126.84
28.421,134.3
28.437,139.42
28.453,142.02
28.468,142.49
28.484,141.7
28.500,140.65
28.515,140.11
28.531,140.4
28.546,141.59
28.562,143.62
28.578,146.63
28.593,151.02
28.609,157.4
28.625,166.7
28.640,179.57
28.656,196.07
28.671,215.33
28.687,236.03
28.703,256.75
28.718,276.49
28.734,294.9
28.750,312.42
28.765,330.21
28.781,349.31
28.796,370.37
28.812,393.18
28.828,416.73
28.843,440.37
28.859,464.33
28.875,489.84
28.890,518.83
28.906,553.32
28.921,594.92
28.937,644.75
28.953,703.36
28.968,768.92
28.984,836.73
29.000,898.68
29.015,944.51
29.031,964.51
29.046,952.34
29.062,907.49
29.078,835.93
29.093,748.16
29.109,655.39
29.125,566.2
29.140,484.8
29.156,411.92
29.171,346.92
29.187,288.9
29.203,237.17
29.218,190.96
29.234,148.79
29.250,108.28
29.265,67.03
29.281,23.49
29.296,-22.22
29.312,-67.72
29.328,-109.81
29.343,-145.63
29.359,-173.23
29.375,-192.02
29.390,-202.88
29.406,-207.26
29.421,-206.87
29.437,-203.67
29.453,-198.67
29.468,-192.64
29.484,-186.33
29.500,-180.79
29.515,-177.61
29.531,-178.03
29.546,-182.4
29.562,-189.98
29.578,-199.15
29.593,-207.91
29.609,-213.99
29.625,-215.32
29.640,-210.35
29.656,-199.09
29.671,-182.6
29.687,-162.55
29.703,-140.78
29.718,-118.77
29.734,-97.82
29.750,-78.96
29.765,-62.77
29.781,-49.39
29.796,-38.93
29.812,-31.12
29.828,-25.42
29.843,-21.34
29.859,-18.38
29.875,-16.04
29.890,-14.17
29.906,-12.63
29.921,-11.31
29.937,-10.36
29.953,-9.92
29.968,-10.0
29.984,-10.79
30.000,-12.3
30.015,-14.5
30.031,-17.33
30.046,-20.65
30.062,-24.39
30.078,-28.37
30.093,-32.47
30.109,-36.48
30.125,-40.33
30.140,-43.93
30.156,-47.15
30.171,-50.04
30.187,-52.51
30.203,-54.63
30.218,-56.52
30.234,-58.32
30.250,-60.13
30.265,-62.13
30.281,-64.46
30.296,-67.15
30.312,-70.25
30.328,-73.72
30.343,-77.37
30.359,-80.9
30.375,-83.82
30.390,-85.55
30.406,-85.55
30.421,-83.42
30.437,-78.98
30.453,-72.33
30.468,-63.88
30.484,-54.4
30.500,-44.91
30.515,-36.74
30.531,-31.21
30.546,-29.5
30.562,-32.45
30.578,-40.34
30.593,-52.99
30.609,-69.65
30.625,-89.15
30.640,-110.0
30.656,-130.61
30.671,-149.44
30.687,-165.16
30.703,-176.74
30.718,-183.31
30.734,-185.64
30.750,-184.37
30.765,-179.53
30.781,-170.66
30.796,-157.58
30.812,-140.64
30.828,-120.72
30.843,-99.05
30.859,-76.79
30.875,-56.37
30.890,-39.59
30.906,-27.19
30.921,-18.75
30.937,-13.69
30.953,-11.62
30.968,-12.28
30.984,-15.35
31.000,-20.19
31.015,-28.86
31.031,-42.3
31.046,-59.26
31.062,-76.97
31.078,-92.88
31.093,-105.9
31.109,-116.13
31.125,-124.27
31.140,-131.04
31.156,-144.64
31.171,-170.15
31.187,-206.29
31.203,-246.87
31.218,-285.81
31.234,-320.25
31.250,-350.07
31.265,-376.26
31.281,-399.63
31.296,-436.26
31.312,-495.71
31.328,-574.81
31.343,-660.34
31.359,-739.48
31.375,-806.28
31.390,-860.41
31.406,-903.66
31.421,-937.76
31.437,-988.49
31.453,-1071.15
31.468,-1180.58
31.484,-1295.46
31.500,-1395.12
31.515,-1469.88
31.531,-1519.3
31.546,-1546.62
31.562,-1555.55
31.578,-1581.62
31.593,-1647.24
31.609,-1748.68
31.625,-1861.25
31.640,-1961.09
31.656,-2038.2
31.671,-2094.87
31.687,-2138.67
31.703,-1974.98
31.718,-1522.78
31.734,-850.99
31.750,-130.88
31.765,496.1
31.781,978.72
31.796,1327.81
31.812,1573.15
31.828,1741.79
31.843,1852.75
31.859,1888.15
31.875,1841.23
31.890,1731.26
31.906,1597.15
31.921,1473.87
31.937,1378.72
31.953,1312.18
31.968,1270.36
31.984,1248.47
32.000,1218.11
32.015,1161.16
32.031,1079.42
32.046,990.45
32.062,911.54
32.078,851.24
32.093,811.07
32.109,790.49
32.125,788.05
32.140,785.14
32.156,766.28
32.171,725.95
32.187,668.76
32.203,597.41
32.218,514.76
32.234,424.25
32.250,332.01
32.265,245.95
32.281,166.68
32.296,96.64
32.312,42.08
32.328,11.22
32.343,7.85
32.359,28.42
32.375,62.23
32.390,96.05
32.406,118.38
32.421,120.33
32.437,100.2
32.453,62.57
32.468,14.66
32.484,-38.01
32.500,-93.17
32.515,-150.81
32.531,-210.36
32.546,-268.8
32.562,-320.21
32.578,-357.07
32.593,-372.88
32.609,-364.71
32.625,-334.77
32.640,-289.72
32.656,-238.83
32.671,-191.08
32.687,-152.56
32.703,-125.41
32.718,-108.1
32.734,-97.39
32.750,-89.92
32.765,-83.35
32.781,-76.3
32.796,-67.93
32.812,-57.57
32.828,-44.54
32.843,-28.28
32.859,-8.35
32.875,15.11
32.890,41.43
32.906,69.12
32.921,95.86
32.937,118.81
32.953,135.41
32.968,144.07
32.984,145.11
33.000,140.9
33.015,134.99
33.031,131.4
33.046,133.68
33.062,144.38
33.078,164.71
33.093,193.88
33.109,228.11
33.125,260.15
33.140,280.32
33.156,279.59
33.171,254.05
33.187,208.26
33.203,155.06
33.218,111.16
33.234,89.96
33.250,95.33
33.265,120.06
33.281,149.53
33.296,168.99
33.312,170.43
33.328,154.72
33.343,129.22
33.359,102.48
33.375,79.91
33.390,62.23
33.406,47.7
33.421,34.79
33.437,23.77
33.453,16.38
33.468,13.84
33.484,15.13
33.500,17.2
33.515,16.67
33.531,11.83
33.546,3.74
33.562,-4.36
33.578,-8.7
33.593,-6.71
33.609,2.21
33.625,16.66
33.640,33.94
33.656,50.89
33.671,65.04
33.687,75.27
33.703,82.26
33.718,87.85
33.734,94.18
33.750,101.66
33.765,108.49
33.781,110.88
33.796,104.42
33.812,86.38
33.828,56.92
33.843,19.3
33.859,-21.73
33.875,-61.24
33.890,-95.75
33.906,-123.39
33.921,-143.26
33.937,-155.29
33.953,-160.08
33.968,-158.81
33.984,-152.96
34.000,-143.85
34.015,-131.9
34.031,-116.3
34.046,-95.96
34.062,-70.33
34.078,-40.58
34.093,-9.77
34.109,17.78
34.125,37.99
34.140,48.53
34.156,49.72
34.171,44.74
34.187,38.59
34.203,36.42
34.218,41.26
34.234,52.98
34.250,68.12
34.265,81.33
34.281,87.31
34.296,82.66
34.312,67.01
34.328,42.49
34.343,12.85
34.359,-18.01
34.375,-47.1
34.390,-72.65
34.406,-94.44
34.421,-113.64
34.437,-133.11
34.453,-156.8
34.468,-189.03
34.484,-232.37
34.500,-285.54
34.515,-342.17
34.531,-391.71
34.546,-422.68
34.562,-426.66
34.578,-401.39
34.593,-351.28
34.609,-285.51
34.625,-214.29
34.640,-145.77
34.656,-84.5
34.671,-31.93
34.687,12.2
34.703,48.64
34.718,78.49
34.734,103.46
34.750,126.12
34.765,149.79
34.781,177.4
34.796,210.09
34.812,246.31
34.828,281.85
34.843,310.89
34.859,328.37
34.875,332.05
34.890,323.46
34.906,307.66
34.921,291.11
34.937,278.81
34.953,272.73
34.968,271.43
34.984,271.35
35.000,268.84
35.015,261.85
35.031,250.5
35.046,236.16
35.062,220.09
35.078,202.21
35.093,181.3
35.109,155.69
35.125,124.71
35.140,89.28
35.156,51.79
35.171,15.07
35.187,-18.53
35.203,-48.12
35.218,-74.08
35.234,-97.3
35.250,-118.59
35.265,-138.2
35.281,-155.86
35.296,-170.82
35.312,-182.14
35.328,-188.42
35.343,-188.21
35.359,-180.24
35.375,-164.24
35.390,-141.44
35.406,-114.4
35.421,-86.03
35.437,-58.36
35.453,-31.99
35.468,-5.83
35.484,21.54
35.500,50.74
35.515,80.49
35.531,108.02
35.546,130.2
35.562,144.79
35.578,151.68
35.593,152.56
35.609,149.74
35.625,144.88
35.640,138.07
35.656,128.26
35.671,114.36
35.687,96.81
35.703,77.77
35.718,60.47
35.734,47.48
35.750,39.15
35.765,33.05
35.781,25.27
35.796,12.69
35.812,-5.29
35.828,-26.01
35.843,-44.94
35.859,-57.73
35.875,-62.41
35.890,-60.07
35.906,-54.19
35.921,-49.01
35.937,-47.59
35.953,-51.14
35.968,-58.96
35.984,-69.45
36.000,-81.04
36.015,-92.59
36.031,-103.4
36.046,-112.64
36.062,-119.15
36.078,-121.57
36.093,-119.11
36.109,-112.2
36.125,-102.56
36.140,-92.59
36.156,-83.75
36.171,-75.59
36.187,-65.61
36.203,-50.6
36.218,-28.75
36.234,-1.27
36.250,27.29
36.265,50.66
36.281,63.33
36.296,62.77
36.312,50.39
36.328,30.69
36.343,9.43
36.359,-8.41
36.375,-20.14
36.390,-25.9
36.406,-28.07
36.421,-30.03
36.437,-34.64
36.453,-43.19
36.468,-55.03
36.484,-68.09
36.500,-80.04
36.515,-89.41
36.531,-96.01
36.546,-100.78
36.562,-105.0
36.578,-109.54
36.593,-114.52
36.609,-119.7
36.625,-124.98
36.640,-130.51
36.656,-136.53
36.671,-142.35
36.687,-145.84
36.703,-143.37
36.718,-131.25
36.734,-107.17
36.750,-71.84
36.765,-29.47
36.781,13.57
36.796,50.4
36.812,75.83
36.828,87.19
36.843,84.2
36.859,68.37
36.875,42.53
36.890,10.53
36.906,-23.36
36.921,-55.14
36.937,-82.55
36.953,-105.45
36.968,-125.65
36.984,-145.32
37.000,-165.14
37.015,-183.42
37.031,-196.87
37.046,-202.98
37.062,-201.68
37.078,-196.03
37.093,-190.24
37.109,-187.27
37.125,-187.2
37.140,-187.61
37.156,-185.72
37.171,-180.6
37.187,-174.15
37.203,-169.73
37.218,-169.83
37.234,-173.91
37.250,-177.94
37.265,-176.51
37.281,-165.06
37.296,-142.71
37.312,-112.43
37.328,-79.47
37.343,-49.18
37.359,-24.89
37.375,-7.57
37.390,3.57
37.406,9.47
37.421,10.61
37.437,6.58
37.453,-3.18
37.468,-18.54
37.484,-38.47
37.500,-60.94
37.515,-83.63
37.531,-104.41
37.546,-122.09
37.562,-136.21
37.578,-146.99
37.593,-154.8
37.609,-159.75
37.625,-161.65
37.640,-159.94
37.656,-154.13
37.671,-144.05
37.687,-130.01
37.703,-112.75
37.718,-93.33
37.734,-72.83
37.750,-52.02
37.765,-31.68
37.781,-12.3
37.796,5.45
37.812,20.69
37.828,32.36
37.843,39.44
37.859,41.21
37.875,37.34
37.890,28.23
37.906,14.71
37.921,-1.76
37.937,-19.63
37.953,-37.35
37.968,-53.43
37.984,-66.75
38.000,-76.53
38.015,-82.46
38.031,-84.52
38.046,-83.12
38.062,-78.89
38.078,-72.72
38.093,-65.68
38.109,-58.69
38.125,-52.51
38.140,-47.57
38.156,-44.08
38.171,-41.93
38.187,-40.83
38.203,-40.28
38.218,-39.75
38.234,-38.75
38.250,-36.91
38.265,-34.02
38.281,-29.99
38.296,-24.71
38.312,-18.09
38.328,-10.04
38.343,-0.53
38.359,10.36
38.375,22.43
38.390,35.31
38.406,48.4
38.421,61.13
38.437,72.98
38.453,83.54
38.468,92.76
38.484,100.73
38.500,107.7
38.515,113.81
38.531,119.05
38.546,123.26
38.562,126.24
38.578,128.11
38.593,129.17
38.609,130.06
38.625,131.54
38.640,134.32
38.656,138.79
38.671,144.88
38.687,152.17
38.703,160.08
38.718,168.2
38.734,176.41
38.750,184.95
38.765,194.25
38.781,204.87
38.796,217.49
38.812,232.68
38.828,250.66
38.843,270.81
38.859,291.35
38.875,309.5
38.890,322.14
38.906,327.01
38.921,323.39
38.937,312.69
38.953,297.55
38.968,281.02
38.984,265.34
39.000,251.41
39.015,239.0
39.031,227.37
39.046,216.04
39.062,204.91
39.078,194.32
39.093,184.3
39.109,174.61
39.125,164.6
39.140,153.52
39.156,141.19
39.171,127.83
39.187,114.22
39.203,101.19
39.218,89.42
39.234,79.02
39.250,69.77
39.265,61.17
39.281,52.59
39.296,43.75
39.312,34.34
39.328,24.38
39.343,13.89
39.359,3.04
39.375,-7.92
39.390,-18.49
39.406,-27.98
39.421,-35.52
39.437,-40.22
39.453,-41.66
39.468,-39.98
39.484,-35.91
39.500,-30.46
39.515,-24.78
39.531,-19.6
39.546,-15.35
39.562,-12.21
39.578,-9.91
39.593,-8.32
39.609,-7.16
39.625,-6.14
39.640,-5.07
39.656,-3.92
39.671,-2.76
39.687,-1.74
39.703,-1.1
39.718,-0.88
39.734,-1.06
39.750,-1.52
39.765,-2.02
39.781,-2.33
39.796,-2.18
39.812,-1.28
39.828,0.51
39.843,3.04
39.859,5.87
39.875,8.31
39.890,9.72
39.906,9.65
39.921,7.94
39.937,4.64
39.953,-0.02
39.968,-5.88
39.984,-12.96
40.000,-21.05
40.015,-30.2
40.031,-40.26
40.046,-51.0
40.062,-62.2
40.078,-73.37
40.093,-83.59
40.109,-91.41
40.125,-95.03
40.140,-92.4
40.156,-82.42
40.171,-65.57
40.187,-43.89
40.203,-20.59
40.218,1.22
40.234,19.74
40.250,34.89
40.265,47.7
40.281,59.51
40.296,70.74
40.312,81.26
40.328,90.86
40.343,100.1
40.359,110.49
40.375,123.82
40.390,141.0
40.406,161.16
40.421,181.82
40.437,199.47
40.453,211.18
40.468,215.45
40.484,212.3
40.500,203.12
40.515,189.82
40.531,174.07
40.546,156.91
40.562,138.89
40.578,120.11
40.593,100.93
40.609,82.45
40.625,66.05
40.640,53.05
40.656,43.89
40.671,37.39
40.687,31.19
40.703,22.64
40.718,9.89
40.734,-7.55
40.750,-28.65
40.765,-51.65
40.781,-74.59
40.796,-95.93
40.812,-114.55
40.828,-129.39
40.843,-139.78
40.859,-145.47
40.875,-147.07
40.890,-145.76
40.906,-142.99
40.921,-139.66
40.937,-136.0
40.953,-131.82
40.968,-126.71
40.984,-120.58
41.000,-113.62
41.015,-106.11
41.031,-98.07
41.046,-89.31
41.062,-79.46
41.078,-68.37
41.093,-56.53
41.109,-44.97
41.125,-34.94
41.140,-27.48
41.156,-22.91
41.171,-20.83
41.187,-20.23
41.203,-19.91
41.218,-18.83
41.234,-16.46
41.250,-12.7
41.265,-7.82
41.281,-2.17
41.296,4.03
41.312,10.52
41.328,17.1
41.343,23.44
41.359,29.14
41.375,33.62
41.390,36.46
41.406,37.34
41.421,36.36
41.437,34.05
41.453,31.04
41.468,27.87
41.484,24.67
41.500,21.19
41.515,16.9
41.531,11.49
41.546,5.04
41.562,-2.0
41.578,-8.87
41.593,-14.95
41.609,-19.96
41.625,-24.04
41.640,-27.69
41.656,-31.48
41.671,-35.74
41.687,-40.6
41.703,-45.96
41.718,-51.7
41.734,-57.7
41.750,-63.65
41.765,-68.91
41.781,-72.54
41.796,-73.56
41.812,-71.21
41.828,-65.5
41.843,-57.14
41.859,-47.39
41.875,-37.67
41.890,-28.97
41.906,-21.74
41.921,-15.86
41.937,-10.61
41.953,-4.92
41.968,2.29
41.984,11.85
42.000,24.01
42.015,38.18
42.031,53.18
42.046,67.52
42.062,79.72
42.078,88.34
42.093,92.24
42.109,90.48
42.125,82.93
42.140,70.58
42.156,55.52
42.171,40.57
42.187,28.2
42.203,19.76
42.218,14.92
42.234,12.18
42.250,9.88
42.265,7.12
42.281,4.26
42.296,2.32
42.312,2.49
42.328,5.09
42.343,9.55
42.359,14.68
42.375,19.15
42.390,22.05
42.406,23.1
42.421,22.49
42.437,20.51
42.453,17.59
42.468,13.85
42.484,9.2
42.500,3.59
42.515,-3.02
42.531,-10.43
42.546,-18.29
42.562,-25.89
42.578,-32.57
42.593,-37.59
42.609,-40.47
42.625,-40.96
42.640,-38.98
42.656,-34.71
42.671,-28.4
42.687,-20.61
42.703,-11.91
42.718,-3.12
42.734,4.96
42.750,11.59
42.765,16.23
42.781,18.86
42.796,19.62
42.812,19.02
42.828,17.61
42.843,15.92
42.859,14.24
42.875,12.68
42.890,11.17
42.906,9.56
42.921,8.0
42.937,6.7
42.953,5.92
42.968,5.91
42.984,6.57
43.000,7.49
43.015,8.05
43.031,7.75
43.046,6.31
43.062,3.86
43.078,0.73
43.093,-2.62
43.109,-5.8
43.125,-8.58
43.140,-10.78
43.156,-12.33
43.171,-13.24
43.187,-13.53
43.203,-13.44
43.218,-13.38
43.234,-13.8
43.250,-15.11
43.265,-17.53
43.281,-20.99
43.296,-25.19
43.312,-29.73
43.328,-34.19
43.343,-38.28
43.359,-41.75
43.375,-44.32
43.390,-45.56
43.406,-45.04
43.421,-42.38
43.437,-37.45
43.453,-30.58
43.468,-22.39
43.484,-13.83
43.500,-5.86
43.515,0.74
43.531,5.5
43.546,8.32
43.562,9.49
43.578,9.54
43.593,8.98
43.609,8.19
43.625,7.31
43.640,6.3
43.656,5.09
43.671,3.67
43.687,2.13
43.703,0.69
43.718,-0.36
43.734,-0.99
43.750,-1.29
43.765,-1.5
43.781,-1.8
43.796,-2.33
43.812,-3.1
43.828,-4.17
43.843,-5.6
43.859,-7.46
43.875,-9.8
43.890,-12.59
43.906,-15.58
43.921,-18.39
43.937,-20.65
43.953,-22.22
43.968,-23.22
43.984,-23.92
44.000,-24.52
44.015,-25.12
44.031,-25.65
44.046,-25.97
44.062,-26.09
44.078,-26.15
44.093,-26.43
44.109,-27.31
44.125,-29.01
44.140,-31.43
44.156,-34.14
44.171,-36.38
44.187,-37.26
44.203,-36.08
44.218,-32.59
44.234,-26.95
44.250,-19.78
44.265,-11.99
44.281,-4.29
44.296,2.78
44.312,9.08
44.328,14.66
44.343,19.67
44.359,24.04
44.375,27.62
44.390,30.23
44.406,31.65
44.421,31.94
44.437,31.27
44.453,29.98
44.468,28.39
44.484,26.72
44.500,25.07
44.515,23.39
44.531,21.69
44.546,20.07
44.562,18.7
44.578,17.72
44.593,17.18
44.609,16.91
44.625,16.48
44.640,15.58
44.656,14.06
44.671,12.12
44.687,10.11
44.703,8.58
44.718,7.71
44.734,7.31
44.750,6.97
44.765,6.07
44.781,4.27
44.796,1.47
44.812,-2.07
44.828,-6.12
44.843,-10.4
44.859,-14.88
44.875,-19.71
44.890,-25.06
44.906,-30.99
44.921,-37.26
44.937,-43.44
44.953,-48.79
44.968,-52.52
44.984,-53.93
45.000,-52.55
45.015,-48.2
45.031,-41.22
45.046,-32.2
45.062,-21.95
45.078,-11.21
45.093,-0.62
45.109,9.54
45.125,19.15
45.140,28.21
45.156,36.83
45.171,45.1
45.187,52.87
45.203,59.79
45.218,65.26
45.234,68.52
45.250,68.93
45.265,66.18
45.281,60.49
45.296,52.61
45.312,43.63
45.328,34.67
45.343,26.59
45.359,19.73
45.375,14.06
45.390,9.3
45.406,5.16
45.421,1.63
45.437,-1.13
45.453,-2.91
45.468,-3.67
45.484,-3.64
45.500,-3.4
45.515,-3.65
45.531,-5.04
45.546,-7.86
45.562,-12.02
45.578,-17.03
45.593,-22.28
45.609,-27.19
45.625,-31.33
45.640,-34.53
45.656,-36.87
45.671,-38.54
45.687,-39.77
45.703,-40.81
45.718,-41.97
45.734,-43.61
45.750,-45.98
45.765,-49.07
45.781,-52.59
45.796,-55.89
45.812,-58.16
45.828,-58.88
45.843,-57.89
45.859,-55.64
45.875,-52.99
45.890,-50.48
45.906,-47.94
45.921,-44.37
45.937,-38.31
45.953,-28.49
45.968,-14.87
45.984,1.3
46.000,17.74
46.015,31.94
46.031,42.11
46.046,47.72
46.062,49.43
46.078,48.44
46.093,45.97
46.109,42.74
46.125,39.02
46.140,35.02
46.156,31.15
46.171,28.16
46.187,26.84
46.203,27.64
46.218,30.28
46.234,33.81
46.250,36.88
46.265,38.32
46.281,37.61
46.296,34.98
46.312,31.25
46.328,27.23
46.343,23.4
46.359,19.77
46.375,15.91
46.390,11.4
46.406,6.15
46.421,0.46
46.437,-5.02
46.453,-9.68
46.468,-13.26
46.484,-15.96
46.500,-18.3
46.515,-20.89
46.531,-24.02
46.546,-27.77
46.562,-31.78
46.578,-35.68
46.593,-39.02
46.609,-41.44
46.625,-42.63
46.640,-42.26
46.656,-40.1
46.671,-35.97
46.687,-30.01
46.703,-22.6
46.718,-14.36
46.734,-6.06
46.750,1.62
46.765,8.24
46.781,13.59
46.796,17.79
46.812,21.11
46.828,23.76
46.843,25.77
46.859,27.07
46.875,27.48
46.890,26.91
46.906,25.6
46.921,23.91
46.937,22.32
46.953,21.22
46.968,20.74
46.984,20.72
47.000,20.9
47.015,20.94
47.031,20.64
47.046,19.93
47.062,18.83
47.078,17.37
47.093,15.58
47.109,13.45
47.125,11.01
47.140,8.35
47.156,5.55
47.171,2.82
47.187,0.33
47.203,-1.89
47.218,-3.99
47.234,-6.14
47.250,-8.63
47.265,-11.61
47.281,-15.09
47.296,-18.88
47.312,-22.69
47.328,-26.25
47.343,-29.42
47.359,-32.25
47.375,-34.89
47.390,-37.46
47.406,-39.87
47.421,-41.72
47.437,-42.45
47.453,-41.42
47.468,-38.25
47.484,-32.99
47.500,-26.06
47.515,-18.17
47.531,-10.05
47.546,-2.23
47.562,5.03
47.578,11.66
47.593,17.65
47.609,22.93
47.625,27.4
47.640,30.92
47.656,33.41
47.671,34.9
47.687,35.59
47.703,35.59
47.718,35.03
47.734,33.99
47.750,32.53
47.765,30.78
47.781,28.88
47.796,26.94
47.812,25.11
47.828,23.39
47.843,21.69
47.859,19.93
47.875,17.99
47.890,15.8
47.906,13.41
47.921,10.91
47.937,8.43
47.953,6.15
47.968,4.18
47.984,2.45
48.000,0.84
48.015,-0.79
48.031,-2.66
48.046,-4.82
48.062,-7.19
48.078,-9.63
48.093,-12.01
48.109,-14.22
48.125,-16.34
48.140,-18.49
48.156,-20.77
48.171,-23.29
48.187,-26.08
48.203,-29.19
48.218,-32.73
48.234,-36.67
48.250,-40.78
48.265,-44.44
48.281,-46.79
48.296,-46.98
48.312,-44.46
48.328,-39.21
48.343,-31.79
48.359,-23.23
48.375,-14.57
48.390,-6.62
48.406,0.22
48.421,5.94
48.437,10.89
48.453,15.34
48.468,19.42
48.484,23.06
48.500,25.96
48.515,27.85
48.531,28.55
48.546,28.04
48.562,26.52
48.578,24.4
48.593,22.07
48.609,19.8
48.625,17.77
48.640,15.99
48.656,14.45
48.671,13.23
48.687,12.3
48.703,11.63
48.718,11.07
48.734,10.42
48.750,9.29
48.765,7.47
48.781,4.96
48.796,2.08
48.812,-0.65
48.828,-2.77
48.843,-4.08
48.859,-4.76
48.875,-5.25
48.890,-6.02
48.906,-7.27
48.921,-9.07
48.937,-11.15
48.953,-13.15
48.968,-14.89
48.984,-16.39
49.000,-17.79
49.015,-19.26
49.031,-20.92
49.046,-22.75
49.062,-24.83
49.078,-27.24
49.093,-30.0
49.109,-33.02
49.125,-35.92
49.140,-38.18
49.156,-39.08
49.171,-38.01
49.187,-34.57
49.203,-28.83
49.218,-21.38
49.234,-13.02
49.250,-4.7
49.265,2.76
49.281,8.91
49.296,13.68
49.312,17.16
49.328,19.65
49.343,21.39
49.359,22.44
49.375,22.87
49.390,22.72
49.406,22.05
49.421,21.03
49.437,19.93
49.453,18.88
49.468,18.07
49.484,17.5
49.500,17.07
49.515,16.7
49.531,16.3
49.546,15.82
49.562,15.28
49.578,14.77
49.593,14.15
49.609,13.39
49.625,12.31
49.640,10.77
49.656,8.8
49.671,6.5
49.687,4.05
49.703,1.65
49.718,-0.5
49.734,-2.41
49.750,-4.05
49.765,-5.53
49.781,-7.04
49.796,-8.66
49.812,-10.47
49.828,-12.4
49.843,-14.23
49.859,-15.82
49.875,-17.16
49.890,-18.27
49.906,-19.36
49.921,-20.69
49.937,-22.39
49.953,-24.58
49.968,-27.14
49.984,-29.88
50.000,-32.34
50.015,-34.07
50.031,-34.44
50.046,-33.08
50.062,-29.84
50.078,-24.78
50.093,-18.45
50.109,-11.47
50.125,-4.51
50.140,1.92
50.156,7.51
50.171,12.29
50.187,16.4
50.203,19.96
50.218,23.12
50.234,25.72
50.250,27.45
50.265,28.02
50.281,27.26
50.296,25.1
50.312,21.67
50.328,17.08
50.343,11.42
50.359,4.7
50.375,-2.99
50.390,-11.32
50.406,-19.73
50.421,-27.35
50.437,-33.35
50.453,-37.27
50.468,-39.03
50.484,-38.93
50.500,-37.46
50.515,-35.0
50.531,-31.74
50.546,-27.8
50.562,-23.34
50.578,-18.75
50.593,-14.72
50.609,-12.07
50.625,-11.36
50.640,-12.72
50.656,-15.59
50.671,-18.91
50.687,-21.46
50.703,-22.3
50.718,-21.08
50.734,-18.1
50.750,-14.14
50.765,-10.13
50.781,-6.82
50.796,-4.63
50.812,-3.56
50.828,-3.36
50.843,-3.65
50.859,-3.99
50.875,-4.0
50.890,-3.23
50.906,-1.38
50.921,1.76
50.937,6.2
50.953,11.7
50.968,17.72
50.984,23.55
51.000,28.5
51.015,32.13
51.031,34.35
51.046,35.47
51.062,35.93
51.078,36.15
51.093,36.4
51.109,36.59
51.125,36.48
51.140,35.84
51.156,34.62
51.171,32.9
51.187,30.95
51.203,29.02
51.218,27.25
51.234,25.6
51.250,23.96
51.265,22.22
51.281,20.43
51.296,18.72
51.312,17.17
51.328,15.8
51.343,14.41
51.359,12.84
51.375,10.86
51.390,8.41
51.406,5.58
51.421,2.59
51.437,-0.31
51.453,-3.02
51.468,-5.5
51.484,-7.91
51.500,-10.46
51.515,-13.22
51.531,-16.17
51.546,-19.08
51.562,-21.7
51.578,-23.75
51.593,-25.22
51.609,-26.28
51.625,-27.27
51.640,-28.7
51.656,-30.87
51.671,-33.86
51.687,-37.4
51.703,-41.05
51.718,-44.08
51.734,-45.88
51.750,-45.87
51.765,-43.78
51.781,-39.62
51.796,-33.6
51.812,-26.2
51.828,-17.98
51.843,-9.65
51.859,-1.79
51.875,5.01
51.890,10.56
51.906,14.82
51.921,17.92
51.937,20.21
51.953,21.88
51.968,23.03
51.984,23.6
52.000,23.49
52.015,22.51
52.031,20.65
52.046,18.08
52.062,15.07
52.078,12.11
52.093,9.7
52.109,8.13
52.125,7.56
52.140,7.86
52.156,8.76
52.171,9.94
52.187,11.18
52.203,12.26
52.218,12.96
52.234,13.1
52.250,12.48
52.265,11.05
52.281,8.91
52.296,6.48
52.312,4.19
52.328,2.52
52.343,1.53
52.359,1.05
52.375,0.56
52.390,-0.43
52.406,-2.14
52.421,-4.56
52.437,-7.29
52.453,-9.96
52.468,-12.19
52.484,-14.02
52.500,-15.68
52.515,-17.62
52.531,-20.21
52.546,-23.68
52.562,-27.92
52.578,-32.47
52.593,-36.67
52.609,-39.8
52.625,-41.16
52.640,-40.27
52.656,-37.01
52.671,-31.52
52.687,-24.19
52.703,-15.64
52.718,-6.59
52.734,2.11
52.750,9.79
52.765,16.01
52.781,20.57
52.796,23.63
52.812,25.39
52.828,26.18
52.843,26.21
52.859,25.7
52.875,24.73
52.890,23.39
52.906,21.81
52.921,20.04
52.937,18.14
52.953,15.99
52.968,13.57
52.984,10.86
53.000,8.0
53.015,5.25
53.031,2.89
53.046,1.23
53.062,0.34
53.078,0.18
53.093,0.58
53.109,1.25
53.125,1.91
53.140,2.48
53.156,2.84
53.171,2.94
53.187,2.82
53.203,2.36
53.218,1.53
53.234,0.33
53.250,-1.21
53.265,-3.08
53.281,-5.12
53.296,-7.15
53.312,-9.06
53.328,-10.77
53.343,-12.37
53.359,-14.06
53.375,-16.06
53.390,-18.41
53.406,-20.94
53.421,-23.18
53.437,-24.52
53.453,-24.44
53.468,-22.66
53.484,-19.23
53.500,-14.56
53.515,-9.16
53.531,-3.54
53.546,1.95
53.562,7.17
53.578,11.98
53.593,16.26
53.609,19.85
53.625,22.43
53.640,23.88
53.656,24.24
53.671,23.67
53.687,22.61
53.703,21.46
53.718,20.53
53.734,20.0
53.750,19.94
53.765,20.21
53.781,20.65
53.796,21.09
53.812,21.34
53.828,21.26
53.843,20.75
53.859,19.83
53.875,18.44
53.890,16.55
53.906,14.16
53.921,11.38
53.937,8.37
53.953,5.36
53.968,2.53
53.984,0.04
54.000,-2.09
54.015,-3.95
54.031,-5.66
54.046,-7.44
54.062,-9.33
54.078,-11.29
54.093,-13.25
54.109,-15.13
54.125,-17.0
54.140,-19.05
54.156,-21.55
54.171,-24.7
54.187,-28.55
54.203,-32.98
54.218,-37.69
54.234,-42.27
54.250,-46.19
54.265,-48.9
54.281,-49.84
54.296,-48.52
54.312,-44.73
54.328,-38.58
54.343,-30.66
54.359,-21.85
54.375,-13.08
54.390,-5.01
54.406,1.95
54.421,7.84
54.437,12.91
54.453,17.44
54.468,21.51
54.484,24.99
54.500,27.61
54.515,29.02
54.531,29.17
54.546,28.23
54.562,26.59
54.578,24.73
54.593,23.1
54.609,21.85
54.625,20.96
54.640,20.2
54.656,19.26
54.671,17.98
54.687,16.41
54.703,14.74
54.718,13.28
54.734,12.25
54.750,11.59
54.765,11.12
54.781,10.54
54.796,9.55
54.812,8.11
54.828,6.31
54.843,4.34
54.859,2.42
54.875,0.64
54.890,-1.1
54.906,-2.95
54.921,-5.09
54.937,-7.64
54.953,-10.62
54.968,-13.92
54.984,-17.28
55.000,-20.33
55.015,-22.76
55.031,-24.39
55.046,-25.36
55.062,-26.06
55.078,-27.1
55.093,-28.9
55.109,-31.53
55.125,-34.49
55.140,-36.72
55.156,-36.92
55.171,-34.08
55.187,-27.86
55.203,-18.72
55.218,-8.0
55.234,2.6
55.250,11.41
55.265,17.35
55.281,20.37
55.296,21.45
55.312,22.17
55.328,24.08
55.343,27.79
55.359,32.48
55.375,35.91
55.390,35.16
55.406,27.71
55.421,12.6
55.437,-8.71
55.453,-32.81
55.468,-55.04
55.484,-71.12
55.500,-78.38
55.515,-76.28
55.531,-65.98
55.546,-49.55
55.562,-29.11
55.578,-6.26
55.593,17.54
55.609,40.59
55.625,60.7
55.640,75.57
55.656,83.72
55.671,85.35
55.687,82.56
55.703,78.77
55.718,77.68
55.734,81.85
55.750,91.93
55.765,106.68
55.781,123.42
55.796,138.74
55.812,148.79
55.828,149.73
55.843,138.21
55.859,112.8
55.875,75.16
55.890,30.75
55.906,-12.09
55.921,-44.72
55.937,-61.06
55.953,-59.86
55.968,-44.77
55.984,-22.73
56.000,-0.75
56.015,16.06
56.031,25.66
56.046,28.46
56.062,25.74
56.078,18.86
56.093,8.94
56.109,-2.63
56.125,-14.11
56.140,-23.12
56.156,-27.66
56.171,-26.88
56.187,-21.43
56.203,-13.65
56.218,-6.53
56.234,-2.67
56.250,-3.32
56.265,-8.34
56.281,-16.44
56.296,-26.18
56.312,-36.81
56.328,-48.58
56.343,-62.83
56.359,-81.19
56.375,-104.65
56.390,-132.53
56.406,-162.26
56.421,-189.5
56.437,-209.51
56.453,-218.45
56.468,-214.68
56.484,-199.4
56.500,-176.07
56.515,-149.25
56.531,-122.95
56.546,-99.52
56.562,-79.1
56.578,-60.2
56.593,-40.97
56.609,-20.22
56.625,1.74
56.640,23.37
56.656,42.67
56.671,57.97
56.687,68.37
56.703,73.75
56.718,74.43
56.734,70.62
56.750,62.52
56.765,50.39
56.781,34.99
56.796,17.79
56.812,0.77
56.828,-13.99
56.843,-24.89
56.859,-31.09
56.875,-32.65
56.890,-30.07
56.906,-24.34
56.921,-16.4
56.937,-7.11
56.953,2.85
56.968,12.89
56.984,22.45
57.000,31.03
57.015,38.02
57.031,43.12
57.046,46.15
57.062,47.22
57.078,46.69
57.093,45.14
57.109,43.1
57.125,40.98
57.140,38.92
57.156,36.78
57.171,34.48
57.187,31.98
57.203,29.41
57.218,27.08
57.234,25.24
57.250,24.09
57.265,23.58
57.281,23.47
57.296,23.39
57.312,23.09
57.328,22.41
57.343,21.23
57.359,19.54
57.375,17.13
57.390,13.97
57.406,10.04
57.421,5.57
57.437,0.89
57.453,-3.6
57.468,-7.64
57.484,-11.13
57.500,-14.07
57.515,-16.64
57.531,-18.97
57.546,-21.12
57.562,-23.1
57.578,-24.94
57.593,-26.7
57.609,-28.57
57.625,-30.74
57.640,-33.41
57.656,-36.68
57.671,-40.47
57.687,-44.35
57.703,-47.59
57.718,-49.28
57.734,-48.62
57.750,-45.21
57.765,-39.08
57.781,-30.76
57.796,-21.09
57.812,-10.91
57.828,-0.96
57.843,8.24
57.859,16.48
57.875,23.66
57.890,29.74
57.906,34.65
57.921,38.39
57.937,41.02
57.953,42.74
57.968,43.67
57.984,43.94
58.000,43.59
58.015,42.65
58.031,41.17
58.046,39.29
58.062,37.23
58.078,35.26
58.093,33.54
58.109,32.06
58.125,30.6
58.140,28.94
58.156,26.98
58.171,24.82
58.187,22.63
58.203,20.54
58.218,18.55
58.234,16.53
58.250,14.29
58.265,11.68
58.281,8.78
58.296,5.76
58.312,2.96
58.328,0.54
58.343,-1.41
58.359,-3.15
58.375,-4.93
58.390,-6.94
58.406,-9.32
58.421,-11.97
58.437,-14.72
58.453,-17.27
58.468,-19.53
58.484,-21.38
58.500,-23.03
58.515,-24.77
58.531,-26.84
58.546,-29.43
58.562,-32.46
58.578,-35.62
58.593,-38.34
58.609,-39.92
58.625,-39.7
58.640,-37.32
58.656,-32.78
58.671,-26.43
58.687,-18.84
58.703,-10.66
58.718,-2.45
58.734,5.28
58.750,12.15
58.765,17.86
58.781,22.25
58.796,25.3
58.812,27.21
58.828,28.21
58.843,28.59
58.859,28.52
58.875,28.08
58.890,27.31
58.906,26.21
58.921,24.86
58.937,23.28
58.953,21.72
58.968,20.24
58.984,18.99
59.000,18.05
59.015,17.39
59.031,16.97
59.046,16.64
59.062,16.25
59.078,15.63
59.093,14.72
59.109,13.45
59.125,11.81
59.140,9.87
59.156,7.74
59.171,5.59
59.187,3.47
59.203,1.43
59.218,-0.58
59.234,-2.63
59.250,-4.79
59.265,-7.22
59.281,-9.86
59.296,-12.6
59.312,-15.22
59.328,-17.54
59.343,-19.5
59.359,-21.33
59.375,-23.4
59.390,-26.05
59.406,-29.47
59.421,-33.32
59.437,-36.98
59.453,-39.5
59.468,-40.07
59.484,-38.16
59.500,-33.76
59.515,-27.29
59.531,-19.39
59.546,-10.82
59.562,-2.16
59.578,6.03
59.593,13.43
59.609,19.72
59.625,24.63
59.640,28.09
59.656,30.19
59.671,31.17
59.687,31.36
59.703,31.13
59.718,30.68
59.734,30.12
59.750,29.48
59.765,28.64
59.781,27.49
59.796,26.0
59.812,24.31
59.828,22.59
59.843,21.04
59.859,19.82
59.875,18.84
59.890,17.97
59.906,16.91
59.921,15.48
59.937,13.56
59.953,11.28
59.968,8.8
59.984,6.25
