timestamp,value
00.000,-26.22
00.015,-28.43
00.031,-33.2
00.046,-40.73
00.062,-49.76
00.078,-57.81
00.093,-61.85
00.109,-59.41
00.125,-49.49
00.140,-32.89
00.156,-12.48
00.171,7.93
00.187,24.74
00.203,35.72
00.218,40.69
00.234,41.23
00.250,39.82
00.265,38.96
00.281,40.34
00.296,44.45
00.312,50.35
00.328,56.17
00.343,59.66
00.359,59.33
00.375,54.92
00.390,47.6
00.406,39.7
00.421,33.68
00.437,31.57
00.453,33.95
00.468,40.16
00.484,48.34
00.500,56.07
00.515,60.93
00.531,60.79
00.546,54.23
00.562,41.04
00.578,22.55
00.593,1.7
00.609,-17.67
00.625,-32.13
00.640,-39.66
00.656,-40.6
00.671,-37.16
00.687,-32.59
00.703,-29.61
00.718,-29.8
00.734,-33.13
00.750,-38.49
00.765,-44.47
00.781,-49.9
00.796,-54.0
00.812,-56.4
00.828,-57.1
00.843,-56.14
00.859,-53.83
00.875,-50.65
00.890,-47.36
00.906,-44.69
00.921,-43.23
00.937,-43.09
00.953,-43.62
00.968,-43.8
00.984,-42.35
01.000,-38.2
01.015,-30.7
01.031,-19.93
01.046,-6.57
01.062,8.37
01.078,23.51
01.093,37.57
01.109,49.31
01.125,57.7
01.140,62.12
01.156,62.16
01.171,57.71
01.187,48.89
01.203,36.17
01.218,20.39
01.234,2.57
01.250,-16.01
01.265,-34.15
01.281,-50.79
01.296,-65.17
01.312,-76.64
01.328,-84.78
01.343,-89.13
01.359,-89.25
01.375,-84.92
01.390,-76.01
01.406,-62.54
01.421,-44.72
01.437,-23.04
01.453,1.76
01.468,28.62
01.484,56.03
01.500,82.12
01.515,104.77
01.531,122.09
01.546,132.5
01.562,135.4
01.578,131.09
01.593,120.63
01.609,105.71
01.625,87.96
01.640,68.85
01.656,49.35
01.671,30.24
01.687,11.84
01.703,-5.61
01.718,-21.79
01.734,-36.39
01.750,-49.02
01.765,-59.3
01.781,-66.84
01.796,-71.55
01.812,-73.52
01.828,-73.23
01.843,-71.33
01.859,-68.39
01.875,-64.95
01.890,-61.44
01.906,-58.09
01.921,-55.07
01.937,-52.29
01.953,-49.49
01.968,-46.28
01.984,-42.23
02.000,-36.85
02.015,-30.06
02.031,-22.13
02.046,-13.7
02.062,-5.74
02.078,0.98
02.093,6.1
02.109,9.94
02.125,13.28
02.140,17.37
02.156,23.19
02.171,31.25
02.187,41.06
02.203,51.24
02.218,59.67
02.234,64.01
02.250,62.21
02.265,53.0
02.281,36.52
02.296,14.55
02.312,-9.48
02.328,-31.45
02.343,-47.57
02.359,-55.72
02.375,-56.07
02.390,-50.9
02.406,-43.94
02.421,-39.0
02.437,-38.78
02.453,-43.79
02.468,-52.41
02.484,-61.5
02.500,-67.83
02.515,-69.24
02.531,-65.38
02.546,-57.88
02.562,-49.36
02.578,-42.62
02.593,-38.94
02.609,-37.49
02.625,-35.91
02.640,-31.22
02.656,-21.44
02.671,-6.31
02.687,12.36
02.703,31.55
02.718,47.72
02.734,58.04
02.750,61.16
02.765,57.32
02.781,48.22
02.796,36.17
02.812,23.69
02.828,12.77
02.843,4.72
02.859,-0.35
02.875,-3.31
02.890,-5.49
02.906,-8.1
02.921,-11.52
02.937,-15.21
02.953,-17.93
02.968,-18.56
02.984,-16.46
03.000,-11.89
03.015,-6.06
03.031,-0.12
03.046,5.2
03.062,10.32
03.078,16.59
03.093,25.24
03.109,36.44
03.125,48.45
03.140,58.4
03.156,63.28
03.171,61.71
03.187,54.65
03.203,45.25
03.218,37.43
03.234,33.94
03.250,35.37
03.265,39.81
03.281,44.26
03.296,45.91
03.312,43.2
03.328,36.11
03.343,25.79
03.359,13.64
03.375,0.78
03.390,-12.07
03.406,-24.4
03.421,-35.56
03.437,-44.6
03.453,-50.43
03.468,-52.16
03.484,-49.55
03.500,-43.1
03.515,-34.33
03.531,-25.16
03.546,-17.47
03.562,-12.41
03.578,-10.01
03.593,-9.3
03.609,-8.34
03.625,-5.26
03.640,1.37
03.656,11.75
03.671,24.91
03.687,38.74
03.703,50.5
03.718,57.56
03.734,57.54
03.750,49.31
03.765,33.01
03.781,10.28
03.796,-15.73
03.812,-40.75
03.828,-60.28
03.843,-70.58
03.859,-69.57
03.875,-57.71
03.890,-37.56
03.906,-13.38
03.921,9.83
03.937,27.7
03.953,37.47
03.968,38.77
03.984,33.35
04.000,24.58
04.015,15.84
04.031,9.78
04.046,7.3
04.062,7.79
04.078,9.95
04.093,12.34
04.109,14.02
04.125,14.31
04.140,12.58
04.156,7.77
04.171,-0.9
04.187,-13.18
04.203,-27.41
04.218,-40.32
04.234,-48.46
04.250,-49.36
04.265,-42.85
04.281,-31.25
04.296,-18.74
04.312,-9.78
04.328,-7.34
04.343,-12.0
04.359,-21.82
04.375,-33.7
04.390,-44.43
04.406,-51.93
04.421,-55.45
04.437,-55.26
04.453,-52.04
04.468,-46.32
04.484,-38.49
04.500,-28.96
04.515,-18.67
04.531,-8.63
04.546,0.11
04.562,7.27
04.578,13.54
04.593,20.19
04.609,28.43
04.625,38.57
04.640,49.8
04.656,60.25
04.671,67.97
04.687,71.44
04.703,70.28
04.718,65.26
04.734,57.85
04.750,49.66
04.765,41.91
04.781,35.19
04.796,29.56
04.812,24.84
04.828,20.8
04.843,17.41
04.859,14.75
04.875,12.85
04.890,11.71
04.906,10.97
04.921,10.34
04.937,9.57
04.953,8.5
04.968,7.13
04.984,5.58
05.000,3.91
05.015,2.05
05.031,0.02
05.046,-2.1
05.062,-3.91
05.078,-4.73
05.093,-3.92
05.109,-0.99
05.125,4.11
05.140,10.79
05.156,17.82
05.171,23.87
05.187,27.68
05.203,28.51
05.218,26.27
05.234,21.2
05.250,13.86
05.265,4.79
05.281,-5.42
05.296,-16.25
05.312,-26.91
05.328,-36.55
05.343,-44.22
05.359,-49.2
05.375,-51.3
05.390,-50.49
05.406,-47.31
05.421,-42.39
05.437,-36.33
05.453,-29.58
05.468,-22.53
05.484,-15.5
05.500,-8.85
05.515,-3.11
05.531,1.26
05.546,3.78
05.562,4.14
05.578,2.28
05.593,-1.54
05.609,-6.88
05.625,-13.17
05.640,-19.89
05.656,-26.79
05.671,-33.61
05.687,-40.11
05.703,-45.64
05.718,-49.31
05.734,-50.14
05.750,-47.4
05.765,-41.05
05.781,-31.56
05.796,-20.1
05.812,-7.85
05.828,4.09
05.843,15.05
05.859,24.68
05.875,32.73
05.890,38.94
05.906,43.03
05.921,44.86
05.937,44.49
05.953,42.47
05.968,39.59
05.984,36.79
06.000,34.75
06.015,33.61
06.031,33.07
06.046,32.64
06.062,31.99
06.078,31.02
06.093,30.03
06.109,29.2
06.125,28.52
06.140,27.66
06.156,25.97
06.171,23.07
06.187,18.89
06.203,13.99
06.218,9.09
06.234,5.04
06.250,2.27
06.265,0.69
06.281,-0.35
06.296,-1.78
06.312,-4.38
06.328,-8.42
06.343,-13.67
06.359,-19.4
06.375,-24.51
06.390,-27.88
06.406,-28.42
06.421,-25.53
06.437,-19.19
06.453,-10.1
06.468,0.38
06.484,10.42
06.500,18.4
06.515,23.39
06.531,25.38
06.546,25.49
06.562,25.47
06.578,26.92
06.593,30.86
06.609,37.12
06.625,44.49
06.640,51.29
06.656,55.79
06.671,56.78
06.687,53.94
06.703,47.72
06.718,39.0
06.734,28.89
06.750,18.25
06.765,7.77
06.781,-2.14
06.796,-11.35
06.812,-19.8
06.828,-27.38
06.843,-33.87
06.859,-39.14
06.875,-43.12
06.890,-46.04
06.906,-48.27
06.921,-50.3
06.937,-52.58
06.953,-55.51
06.968,-59.26
06.984,-63.75
07.000,-68.45
07.015,-72.27
07.031,-73.56
07.046,-70.58
07.062,-62.13
07.078,-48.14
07.093,-30.03
07.109,-10.4
07.125,7.58
07.140,21.29
07.156,29.37
07.171,32.19
07.187,31.44
07.203,29.53
07.218,28.47
07.234,29.44
07.250,32.31
07.265,36.12
07.281,39.62
07.296,41.73
07.312,41.94
07.328,40.21
07.343,36.89
07.359,32.74
07.375,28.73
07.390,26.17
07.406,26.51
07.421,30.78
07.437,38.92
07.453,49.74
07.468,60.76
07.484,68.9
07.500,71.44
07.515,66.38
07.531,53.21
07.546,32.96
07.562,7.89
07.578,-18.99
07.593,-44.37
07.609,-65.49
07.625,-80.68
07.640,-89.43
07.656,-92.71
07.671,-92.19
07.687,-89.66
07.703,-86.42
07.718,-82.95
07.734,-78.86
07.750,-73.54
07.765,-66.6
07.781,-58.01
07.796,-48.35
07.812,-38.27
07.828,-28.08
07.843,-17.6
07.859,-6.15
07.875,6.74
07.890,20.66
07.906,34.22
07.921,45.44
07.937,52.38
07.953,54.09
07.968,50.95
07.984,44.25
08.000,35.82
08.015,27.24
08.031,19.46
08.046,12.83
08.062,7.45
08.078,3.34
08.093,0.78
08.109,0.11
08.125,1.56
08.140,5.41
08.156,11.63
08.171,19.79
08.187,29.12
08.203,38.28
08.218,45.69
08.234,49.88
08.250,49.72
08.265,44.63
08.281,34.82
08.296,20.85
08.312,3.64
08.328,-15.76
08.343,-36.21
08.359,-56.23
08.375,-73.84
08.390,-86.76
08.406,-92.87
08.421,-90.64
08.437,-79.81
08.453,-61.54
08.468,-38.17
08.484,-12.71
08.500,11.87
08.515,33.31
08.531,50.21
08.546,62.24
08.562,69.62
08.578,73.01
08.593,73.06
08.609,70.44
08.625,65.56
08.640,58.95
08.656,51.33
08.671,43.43
08.687,36.24
08.703,30.48
08.718,26.38
08.734,23.57
08.750,21.47
08.765,19.07
08.781,15.77
08.796,11.24
08.812,5.55
08.828,-0.63
08.843,-6.32
08.859,-10.49
08.875,-12.35
08.890,-11.47
08.906,-8.28
08.921,-3.67
08.937,1.09
08.953,4.74
08.968,6.44
08.984,5.74
09.000,2.57
09.015,-3.01
09.031,-10.76
09.046,-20.42
09.062,-31.57
09.078,-43.32
09.093,-54.51
09.109,-63.5
09.125,-68.76
09.140,-69.34
09.156,-65.17
09.171,-57.18
09.187,-47.18
09.203,-37.3
09.218,-29.2
09.234,-23.91
09.250,-21.18
09.265,-19.86
09.281,-18.25
09.296,-14.64
09.312,-7.9
09.328,2.09
09.343,14.36
09.359,27.16
09.375,38.12
09.390,45.36
09.406,47.74
09.421,45.46
09.437,39.94
09.453,33.32
09.468,27.81
09.484,24.87
09.500,25.03
09.515,27.52
09.531,30.87
09.546,33.11
09.562,32.31
09.578,27.08
09.593,16.94
09.609,2.64
09.625,-13.95
09.640,-30.13
09.656,-43.26
09.671,-51.52
09.687,-54.27
09.703,-52.16
09.718,-46.52
09.734,-38.79
09.750,-30.26
09.765,-21.87
09.781,-14.22
09.796,-7.55
09.812,-1.69
09.828,4.18
09.843,11.36
09.859,21.13
09.875,33.89
09.890,48.63
09.906,63.06
09.921,74.15
09.937,78.99
09.953,75.78
09.968,64.48
09.984,46.93
10.000,26.56
10.015,7.3
10.031,-7.5
10.046,-15.83
10.062,-17.51
10.078,-14.12
10.093,-8.44
10.109,-3.3
10.125,-0.89
10.140,-2.15
10.156,-6.76
10.171,-13.49
10.187,-20.85
10.203,-27.77
10.218,-33.84
10.234,-39.43
10.250,-45.12
10.265,-51.25
10.281,-57.28
10.296,-61.84
10.312,-63.13
10.328,-59.94
10.343,-52.39
10.359,-41.96
10.375,-30.83
10.390,-21.28
10.406,-15.08
10.421,-13.0
10.437,-14.71
10.453,-18.75
10.468,-23.12
10.484,-25.87
10.500,-25.68
10.515,-22.11
10.531,-15.77
10.546,-8.3
10.562,-1.88
10.578,1.6
10.593,1.28
10.609,-2.17
10.625,-6.78
10.640,-9.88
10.656,-9.06
10.671,-3.07
10.687,7.66
10.703,20.83
10.718,33.38
10.734,42.75
10.750,47.93
10.765,49.79
10.781,50.36
10.796,51.46
10.812,53.82
10.828,56.69
10.843,58.07
10.859,55.48
10.875,47.1
10.890,32.31
10.906,12.01
10.921,-11.59
10.937,-35.73
10.953,-57.26
10.968,-73.37
10.984,-81.84
11.000,-81.63
11.015,-73.28
11.031,-58.81
11.046,-41.43
11.062,-24.74
11.078,-11.88
11.093,-4.4
11.109,-1.91
11.125,-2.2
11.140,-2.29
11.156,0.18
11.171,5.95
11.187,14.07
11.203,22.34
11.218,28.12
11.234,29.69
11.250,26.44
11.265,19.2
11.281,9.92
11.296,0.89
11.312,-5.83
11.328,-9.07
11.343,-8.74
11.359,-5.93
11.375,-2.06
11.390,1.41
11.406,3.44
11.421,3.52
11.437,1.16
11.453,-3.84
11.468,-11.64
11.484,-21.94
11.500,-33.91
11.515,-45.83
11.531,-55.53
11.546,-60.82
11.562,-60.29
11.578,-53.98
11.593,-43.19
11.609,-30.23
11.625,-17.76
11.640,-8.13
11.656,-2.56
11.671,-0.94
11.687,-1.59
11.703,-1.84
11.718,1.01
11.734,8.71
11.750,21.31
11.765,36.82
11.781,51.78
11.796,62.84
11.812,68.24
11.828,68.51
11.843,66.23
11.859,64.33
11.875,64.67
11.890,66.98
11.906,69.16
11.921,68.35
11.937,62.2
11.953,50.11
11.968,33.44
11.984,14.97
12.000,-2.24
12.015,-15.62
12.031,-23.98
12.046,-27.36
12.062,-26.74
12.078,-23.5
12.093,-19.21
12.109,-15.34
12.125,-13.33
12.140,-14.74
12.156,-20.84
12.171,-32.51
12.187,-49.58
12.203,-70.48
12.218,-92.31
12.234,-111.41
12.250,-123.95
12.265,-126.82
12.281,-118.68
12.296,-100.18
12.312,-74.17
12.328,-44.99
12.343,-17.24
12.359,5.46
12.375,21.23
12.390,30.25
12.406,34.47
12.421,36.22
12.437,37.57
12.453,39.47
12.468,42.02
12.484,44.65
12.500,46.7
12.515,47.75
12.531,47.6
12.546,46.31
12.562,43.79
12.578,40.09
12.593,35.01
12.609,28.61
12.625,21.2
12.640,13.22
12.656,5.2
12.671,-2.39
12.687,-9.28
12.703,-15.36
12.718,-20.45
12.734,-24.59
12.750,-27.78
12.765,-29.98
12.781,-31.43
12.796,-32.22
12.812,-32.35
12.828,-31.71
12.843,-29.88
12.859,-26.28
12.875,-20.46
12.890,-12.44
12.906,-2.36
12.921,8.76
12.937,20.0
12.953,30.26
12.968,38.88
12.984,45.57
13.000,50.31
13.015,53.3
13.031,54.57
13.046,54.18
13.062,52.06
13.078,48.47
13.093,43.87
13.109,39.08
13.125,34.85
13.140,31.63
13.156,29.36
13.171,27.6
13.187,25.74
13.203,23.35
13.218,20.44
13.234,17.23
13.250,14.22
13.265,11.8
13.281,10.1
13.296,8.93
13.312,8.04
13.328,7.05
13.343,5.79
13.359,4.32
13.375,2.63
13.390,0.75
13.406,-1.2
13.421,-3.17
13.437,-4.72
13.453,-5.09
13.468,-3.37
13.484,1.41
13.500,9.91
13.515,22.32
13.531,38.03
13.546,55.99
13.562,74.62
13.578,92.55
13.593,108.65
13.609,122.19
13.625,132.88
13.640,140.49
13.656,144.94
13.671,146.0
13.687,143.47
13.703,137.22
13.718,127.44
13.734,114.52
13.750,98.9
13.765,81.01
13.781,61.16
13.796,39.81
13.812,17.71
13.828,-4.14
13.843,-24.86
13.859,-43.81
13.875,-61.14
13.890,-77.44
13.906,-93.33
13.921,-109.16
13.937,-124.53
13.953,-138.25
13.968,-148.78
13.984,-154.94
14.000,-156.14
14.015,-152.66
14.031,-145.59
14.046,-136.39
14.062,-126.7
14.078,-117.76
14.093,-109.79
14.109,-101.92
14.125,-92.54
14.140,-79.89
14.156,-62.87
14.171,-41.63
14.187,-17.62
14.203,6.82
14.218,29.17
14.234,47.25
14.250,59.49
14.265,64.96
14.281,63.32
14.296,54.78
14.312,40.13
14.328,20.86
14.343,-1.16
14.359,-23.77
14.375,-45.03
14.390,-63.47
14.406,-78.21
14.421,-88.9
14.437,-95.74
14.453,-99.27
14.468,-99.92
14.484,-98.34
14.500,-94.96
14.515,-90.17
14.531,-84.25
14.546,-77.5
14.562,-70.15
14.578,-62.53
14.593,-55.09
14.609,-47.96
14.625,-41.45
14.640,-35.69
14.656,-30.9
14.671,-27.14
14.687,-24.54
14.703,-23.06
14.718,-22.44
14.734,-22.31
14.750,-21.92
14.765,-20.56
14.781,-17.53
14.796,-12.29
14.812,-4.63
14.828,5.26
14.843,16.87
14.859,29.47
14.875,42.23
14.890,54.51
14.906,65.86
14.921,76.11
14.937,85.17
14.953,92.81
14.968,98.75
14.984,102.58
15.000,104.05
15.015,103.09
15.031,100.01
15.046,95.25
15.062,89.37
15.078,82.84
15.093,75.69
15.109,67.83
15.125,59.01
15.140,49.23
15.156,38.74
15.171,28.34
15.187,18.94
15.203,11.4
15.218,6.29
15.234,3.66
15.250,3.08
15.265,3.82
15.281,5.07
15.296,6.08
15.312,6.57
15.328,6.33
15.343,5.53
15.359,4.44
15.375,3.55
15.390,3.31
15.406,3.9
15.421,5.29
15.437,7.05
15.453,8.83
15.468,10.29
15.484,11.54
15.500,13.03
15.515,15.28
15.531,18.65
15.546,22.95
15.562,27.6
15.578,31.92
15.593,35.73
15.609,39.23
15.625,43.06
15.640,47.9
15.656,53.83
15.671,60.21
15.687,65.56
15.703,68.13
15.718,66.52
15.734,60.32
15.750,50.2
15.765,37.64
15.781,24.49
15.796,12.27
15.812,2.02
15.828,-5.81
15.843,-11.23
15.859,-14.69
15.875,-16.82
15.890,-18.37
15.906,-20.2
15.921,-23.14
15.937,-27.83
15.953,-34.46
15.968,-42.77
15.984,-51.88
16.000,-60.66
16.015,-67.84
16.031,-72.39
16.046,-73.57
16.062,-71.21
16.078,-65.62
16.093,-57.37
16.109,-47.17
16.125,-35.67
16.140,-23.57
16.156,-11.5
16.171,-0.07
16.187,10.18
16.203,18.8
16.218,25.54
16.234,30.31
16.250,33.37
16.265,34.99
16.281,35.43
16.296,34.9
16.312,33.47
16.328,31.31
16.343,28.66
16.359,25.82
16.375,22.97
16.390,20.23
16.406,17.41
16.421,14.19
16.437,10.36
16.453,5.92
16.468,1.07
16.484,-3.7
16.500,-8.02
16.515,-11.65
16.531,-14.63
16.546,-17.17
16.562,-19.52
16.578,-21.83
16.593,-24.07
16.609,-26.19
16.625,-28.1
16.640,-29.92
16.656,-31.66
16.671,-33.11
16.687,-33.7
16.703,-32.57
16.718,-28.68
16.734,-21.58
16.750,-11.48
16.765,0.7
16.781,13.56
16.796,25.69
16.812,36.16
16.828,44.6
16.843,51.11
16.859,56.03
16.875,59.46
16.890,61.27
16.906,61.18
16.921,59.02
16.937,54.94
16.953,49.46
16.968,43.36
16.984,37.37
17.000,31.95
17.015,27.22
17.031,23.16
17.046,19.66
17.062,16.73
17.078,14.38
17.093,12.6
17.109,11.14
17.125,9.65
17.140,7.71
17.156,4.92
17.171,1.16
17.187,-3.45
17.203,-8.6
17.218,-14.03
17.234,-19.44
17.250,-24.74
17.265,-29.96
17.281,-35.13
17.296,-40.36
17.312,-45.76
17.328,-51.07
17.343,-55.83
17.359,-59.4
17.375,-61.11
17.390,-60.5
17.406,-57.6
17.421,-52.76
17.437,-46.46
17.453,-39.34
17.468,-31.74
17.484,-23.98
17.500,-16.43
17.515,-9.48
17.531,-3.67
17.546,0.57
17.562,3.12
17.578,4.31
17.593,4.68
17.609,4.76
17.625,4.91
17.640,5.09
17.656,5.12
17.671,4.82
17.687,4.08
17.703,3.04
17.718,2.0
17.734,1.2
17.750,0.69
17.765,0.27
17.781,-0.57
17.796,-2.17
17.812,-4.76
17.828,-8.26
17.843,-12.24
17.859,-16.23
17.875,-19.82
17.890,-22.88
17.906,-25.47
17.921,-28.0
17.937,-30.66
17.953,-33.55
17.968,-36.48
17.984,-38.99
18.000,-40.65
18.015,-41.0
18.031,-39.83
18.046,-36.93
18.062,-32.35
18.078,-26.15
18.093,-18.53
18.109,-9.97
18.125,-1.08
18.140,7.34
18.156,14.62
18.171,20.28
18.187,24.24
18.203,26.61
18.218,27.64
18.234,27.55
18.250,26.43
18.265,24.41
18.281,21.6
18.296,18.3
18.312,14.96
18.328,12.08
18.343,10.0
18.359,8.83
18.375,8.49
18.390,8.56
18.406,8.65
18.421,8.38
18.437,7.61
18.453,6.29
18.468,4.61
18.484,2.74
18.500,0.79
18.515,-1.18
18.531,-3.26
18.546,-5.53
18.562,-8.03
18.578,-10.64
18.593,-13.35
18.609,-16.01
18.625,-18.66
18.640,-21.3
18.656,-23.91
18.671,-26.15
18.687,-27.45
18.703,-27.14
18.718,-24.67
18.734,-19.81
18.750,-12.86
18.765,-4.52
18.781,4.37
18.796,12.89
18.812,20.43
18.828,26.76
18.843,31.76
18.859,35.48
18.875,37.95
18.890,39.11
18.906,38.93
18.921,37.45
18.937,34.96
18.953,31.83
18.968,28.62
18.984,25.58
19.000,22.83
19.015,20.3
19.031,17.78
19.046,15.2
19.062,12.51
19.078,9.86
19.093,7.29
19.109,4.86
19.125,2.36
19.140,-0.4
19.156,-3.72
19.171,-7.7
19.187,-12.08
19.203,-16.58
19.218,-20.83
19.234,-24.65
19.250,-28.0
19.265,-31.27
19.281,-34.74
19.296,-38.79
19.312,-43.53
19.328,-48.63
19.343,-53.56
19.359,-57.58
19.375,-60.04
19.390,-60.37
19.406,-58.38
19.421,-54.08
19.437,-47.69
19.453,-39.62
19.468,-30.31
19.484,-20.2
19.500,-9.8
19.515,0.33
19.531,9.65
19.546,17.73
19.562,24.26
19.578,29.18
19.593,32.58
19.609,34.66
19.625,35.72
19.640,35.96
19.656,35.52
19.671,34.38
19.687,32.63
19.703,30.36
19.718,27.7
19.734,24.79
19.750,21.83
19.765,18.89
19.781,16.03
19.796,13.27
19.812,10.51
19.828,7.69
19.843,4.56
19.859,1.03
19.875,-3.08
19.890,-7.69
19.906,-12.65
19.921,-17.66
19.937,-22.44
19.953,-26.74
19.968,-30.39
19.984,-33.57
20.000,-36.49
20.015,-39.48
20.031,-42.88
20.046,-46.76
20.062,-50.88
20.078,-54.66
20.093,-57.3
20.109,-57.86
20.125,-55.69
20.140,-50.57
20.156,-42.8
20.171,-33.08
20.187,-22.18
20.203,-10.81
20.218,0.41
20.234,10.94
20.250,20.37
20.265,28.16
20.281,33.87
20.296,37.24
20.312,38.28
20.328,37.4
20.343,35.3
20.359,32.71
20.375,30.12
20.390,27.87
20.406,25.87
20.421,23.94
20.437,21.95
20.453,19.89
20.468,17.91
20.484,16.15
20.500,14.58
20.515,13.05
20.531,11.21
20.546,8.79
20.562,5.71
20.578,2.21
20.593,-1.41
20.609,-4.87
20.625,-7.97
20.640,-10.88
20.656,-13.75
20.671,-16.83
20.687,-20.28
20.703,-24.11
20.718,-28.11
20.734,-32.1
20.750,-35.85
20.765,-38.97
20.781,-41.04
20.796,-41.43
20.812,-39.52
20.828,-34.94
20.843,-27.67
20.859,-18.12
20.875,-7.08
20.890,4.45
20.906,15.52
20.921,25.38
20.937,33.38
20.953,39.31
20.968,43.08
20.984,44.79
21.000,44.66
21.015,43.03
21.031,40.19
21.046,36.5
21.062,32.44
21.078,28.37
21.093,24.86
21.109,22.22
21.125,20.6
21.140,19.87
21.156,19.69
21.171,19.6
21.187,19.2
21.203,18.16
21.218,16.18
21.234,13.4
21.250,9.84
21.265,5.62
21.281,0.95
21.296,-4.06
21.312,-9.16
21.328,-14.15
21.343,-18.78
21.359,-23.22
21.375,-27.5
21.390,-31.87
21.406,-36.55
21.421,-41.23
21.437,-45.23
21.453,-47.32
21.468,-46.39
21.484,-41.76
21.500,-33.69
21.515,-23.09
21.531,-11.37
21.546,0.08
21.562,10.51
21.578,19.63
21.593,27.77
21.609,35.35
21.625,42.33
21.640,48.23
21.656,52.29
21.671,53.48
21.687,50.97
21.703,44.59
21.718,34.7
21.734,22.37
21.750,9.39
21.765,-2.28
21.781,-10.8
21.796,-14.95
21.812,-14.54
21.828,-10.36
21.843,-3.84
21.859,3.24
21.875,9.25
21.890,13.06
21.906,14.01
21.921,12.03
21.937,7.37
21.953,0.74
21.968,-6.83
21.984,-14.18
22.000,-20.43
22.015,-25.09
22.031,-28.28
22.046,-30.66
22.062,-33.0
22.078,-35.96
22.093,-39.86
22.109,-44.32
22.125,-48.57
22.140,-51.73
22.156,-52.74
22.171,-50.75
22.187,-45.36
22.203,-36.77
22.218,-25.58
22.234,-12.8
22.250,0.47
22.265,13.22
22.281,24.53
22.296,33.8
22.312,40.79
22.328,45.59
22.343,48.36
22.359,49.46
22.375,49.09
22.390,47.33
22.406,44.24
22.421,40.0
22.437,34.93
22.453,29.55
22.468,24.52
22.484,20.21
22.500,16.79
22.515,14.2
22.531,12.18
22.546,10.5
22.562,9.01
22.578,7.51
22.593,5.79
22.609,3.63
22.625,0.89
22.640,-2.6
22.656,-6.8
22.671,-11.55
22.687,-16.46
22.703,-21.04
22.718,-24.89
22.734,-27.85
22.750,-30.12
22.765,-32.12
22.781,-34.38
22.796,-37.21
22.812,-40.48
22.828,-43.48
22.843,-45.2
22.859,-44.52
22.875,-40.59
22.890,-33.35
22.906,-23.46
22.921,-11.89
22.937,0.18
22.953,11.78
22.968,22.34
22.984,31.56
23.000,39.15
23.015,45.06
23.031,49.13
23.046,51.14
23.062,51.18
23.078,49.46
23.093,46.48
23.109,42.76
23.125,38.91
23.140,35.17
23.156,31.79
23.171,28.8
23.187,26.19
23.203,24.04
23.218,22.28
23.234,20.79
23.250,19.2
23.265,17.15
23.281,14.19
23.296,10.23
23.312,5.58
23.328,0.64
23.343,-3.97
23.359,-7.88
23.375,-11.03
23.390,-13.56
23.406,-15.84
23.421,-18.27
23.437,-21.1
23.453,-24.31
23.468,-27.69
23.484,-30.76
23.500,-32.89
23.515,-33.44
23.531,-31.71
23.546,-27.29
23.562,-20.09
23.578,-10.63
23.593,0.27
23.609,11.43
23.625,21.87
23.640,30.72
23.656,37.46
23.671,41.95
23.687,44.16
23.703,44.25
23.718,42.4
23.734,39.13
23.750,34.84
23.765,30.15
23.781,25.47
23.796,21.04
23.812,17.11
23.828,13.69
23.843,10.86
23.859,8.5
23.875,6.62
23.890,5.0
23.906,3.38
23.921,1.42
23.937,-1.07
23.953,-4.13
23.968,-7.64
23.984,-11.24
24.000,-14.63
24.015,-17.7
24.031,-20.46
24.046,-23.15
24.062,-25.98
24.078,-29.18
24.093,-32.75
24.109,-36.59
24.125,-40.31
24.140,-43.37
24.156,-45.19
24.171,-45.11
24.187,-42.65
24.203,-37.36
24.218,-29.32
24.234,-18.85
24.250,-6.85
24.265,5.63
24.281,17.5
24.296,27.72
24.312,35.68
24.328,41.11
24.343,44.09
24.359,44.89
24.375,43.96
24.390,41.59
24.406,38.18
24.421,34.09
24.437,29.72
24.453,25.63
24.468,22.09
24.484,19.3
24.500,17.18
24.515,15.53
24.531,14.04
24.546,12.39
24.562,10.37
24.578,7.91
24.593,5.11
24.609,2.03
24.625,-1.35
24.640,-5.15
24.656,-9.48
24.671,-14.32
24.687,-19.59
24.703,-25.01
24.718,-30.19
24.734,-34.78
24.750,-38.58
24.765,-41.74
24.781,-44.53
24.796,-47.38
24.812,-50.42
24.828,-53.21
24.843,-54.98
24.859,-54.82
24.875,-51.94
24.890,-45.99
24.906,-37.37
24.921,-26.76
24.937,-15.13
24.953,-3.42
24.968,7.83
24.984,18.29
25.000,27.68
25.015,35.66
25.031,41.9
25.046,45.92
25.062,47.55
25.078,46.91
25.093,44.47
25.109,41.02
25.125,37.38
25.140,34.13
25.156,31.43
25.171,29.14
25.187,26.9
25.203,24.52
25.218,22.07
25.234,19.78
25.250,17.98
25.265,16.7
25.281,15.84
25.296,15.0
25.312,13.78
25.328,11.94
25.343,9.61
25.359,7.22
25.375,5.15
25.390,3.75
25.406,3.05
25.421,3.06
25.437,3.9
25.453,5.56
25.468,8.03
25.484,10.96
25.500,13.67
25.515,15.25
25.531,14.99
25.546,12.81
25.562,9.38
25.578,6.13
25.593,4.39
25.609,5.1
25.625,8.31
25.640,13.17
25.656,18.42
25.671,22.85
25.687,25.51
25.703,26.0
25.718,24.19
25.734,19.98
25.750,13.5
25.765,5.13
25.781,-4.37
25.796,-13.74
25.812,-21.54
25.828,-26.66
25.843,-28.51
25.859,-27.27
25.875,-23.72
25.890,-18.96
25.906,-14.02
25.921,-9.72
25.937,-6.32
25.953,-3.97
25.968,-2.67
25.984,-2.35
26.000,-3.25
26.015,-5.59
26.031,-9.67
26.046,-15.49
26.062,-23.04
26.078,-31.61
26.093,-40.11
26.109,-47.12
26.125,-50.97
26.140,-50.55
26.156,-45.64
26.171,-37.22
26.187,-27.18
26.203,-17.93
26.218,-11.22
26.234,-7.76
26.250,-7.06
26.265,-7.6
26.281,-7.76
26.296,-6.19
26.312,-2.27
26.328,4.01
26.343,12.08
26.359,21.26
26.375,30.71
26.390,39.48
26.406,46.66
26.421,51.17
26.437,52.27
26.453,49.66
26.468,43.74
26.484,35.45
26.500,26.35
26.515,17.77
26.531,10.62
26.546,5.32
26.562,1.49
26.578,-1.49
26.593,-4.33
26.609,-7.4
26.625,-10.88
26.640,-14.68
26.656,-18.7
26.671,-23.05
26.687,-27.89
26.703,-33.35
26.718,-39.4
26.734,-45.78
26.750,-51.99
26.765,-57.58
26.781,-62.27
26.796,-66.08
26.812,-69.29
26.828,-72.18
26.843,-74.94
26.859,-77.55
26.875,-79.96
26.890,-81.85
26.906,-82.68
26.921,-81.7
26.937,-77.92
26.953,-70.66
26.968,-59.5
26.984,-45.0
27.000,-28.23
27.015,-10.96
27.031,5.14
27.046,18.95
27.062,29.9
27.078,38.21
27.093,44.18
27.109,48.38
27.125,50.94
27.140,51.91
27.156,51.27
27.171,49.27
27.187,46.46
27.203,43.47
27.218,40.93
27.234,39.05
27.250,37.72
27.265,36.46
27.281,34.85
27.296,32.67
27.312,30.11
27.328,27.52
27.343,25.22
27.359,23.39
27.375,21.77
27.390,19.9
27.406,17.19
27.421,13.33
27.437,8.41
27.453,2.81
27.468,-2.84
27.484,-7.95
27.500,-12.15
27.515,-15.55
27.531,-18.5
27.546,-21.49
27.562,-24.99
27.578,-29.16
27.593,-33.84
27.609,-38.46
27.625,-42.16
27.640,-43.97
27.656,-43.13
27.671,-39.18
27.687,-32.14
27.703,-22.3
27.718,-10.56
27.734,2.06
27.750,14.22
27.765,24.68
27.781,32.32
27.796,36.52
27.812,37.17
27.828,34.83
27.843,30.61
27.859,25.71
27.875,21.4
27.890,18.46
27.906,17.23
27.921,17.56
27.937,19.16
27.953,21.35
27.968,23.66
27.984,25.7
28.000,27.21
28.015,27.99
28.031,27.94
28.046,26.99
28.062,25.19
28.078,22.77
28.093,19.88
28.109,16.65
28.125,13.11
28.140,9.24
28.156,5.08
28.171,0.7
28.187,-3.83
28.203,-8.17
28.218,-12.16
28.234,-15.53
28.250,-18.13
28.265,-20.05
28.281,-21.58
28.296,-22.98
28.312,-24.3
28.328,-25.34
28.343,-25.27
28.359,-23.13
28.375,-17.92
28.390,-9.11
28.406,3.14
28.421,17.77
28.437,33.28
28.453,48.1
28.468,60.86
28.484,70.71
28.500,77.25
28.515,80.43
28.531,80.35
28.546,77.29
28.562,71.66
28.578,64.03
28.593,55.37
28.609,46.64
28.625,38.76
28.640,32.21
28.656,27.08
28.671,23.03
28.687,19.56
28.703,16.47
28.718,13.73
28.734,11.56
28.750,10.1
28.765,9.36
28.781,8.91
28.796,8.16
28.812,6.73
28.828,4.45
28.843,1.57
28.859,-1.33
28.875,-3.82
28.890,-5.92
28.906,-7.86
28.921,-10.04
28.937,-12.93
28.953,-16.69
28.968,-21.23
28.984,-26.31
29.000,-31.44
29.015,-36.03
29.031,-39.53
29.046,-41.3
29.062,-40.65
29.078,-37.19
29.093,-30.85
29.109,-22.19
29.125,-12.36
29.140,-2.92
29.156,4.5
29.171,8.47
29.187,8.12
29.203,3.23
29.218,-5.7
29.234,-17.58
29.250,-30.84
29.265,-43.85
29.281,-55.08
29.296,-63.54
29.312,-68.74
29.328,-70.67
29.343,-69.72
29.359,-66.18
29.375,-60.14
29.390,-51.43
29.406,-39.93
29.421,-25.77
29.437,-9.69
29.453,6.89
29.468,22.09
29.484,33.79
29.500,40.17
29.515,40.33
29.531,34.38
29.546,23.47
29.562,9.49
29.578,-5.42
29.593,-19.5
29.609,-31.61
29.625,-41.49
29.640,-49.55
29.656,-56.43
29.671,-62.52
29.687,-67.66
29.703,-71.03
29.718,-71.23
29.734,-67.28
29.750,-58.54
29.765,-45.37
29.781,-28.83
29.796,-10.26
29.812,9.03
29.828,28.23
29.843,46.8
29.859,64.44
29.875,80.23
29.890,92.97
29.906,100.97
29.921,102.62
29.937,97.02
29.953,84.38
29.968,66.36
29.984,45.39
30.000,24.34
30.015,5.57
30.031,-9.43
30.046,-20.2
30.062,-26.92
30.078,-30.05
30.093,-30.18
30.109,-27.88
30.125,-24.19
30.140,-20.55
30.156,-18.71
30.171,-19.91
30.187,-24.5
30.203,-31.5
30.218,-38.57
30.234,-43.11
30.250,-42.98
30.265,-37.44
30.281,-27.25
30.296,-14.48
30.312,-1.63
30.328,8.74
30.343,14.54
30.359,14.73
30.375,9.36
30.390,-0.27
30.406,-11.8
30.421,-22.47
30.437,-29.73
30.453,-32.21
30.468,-29.91
30.484,-24.33
30.500,-17.67
30.515,-11.78
30.531,-7.32
30.546,-3.64
30.562,0.81
30.578,7.65
30.593,17.4
30.609,29.26
30.625,41.19
30.640,50.55
30.656,54.96
30.671,53.14
30.687,45.35
30.703,33.38
30.718,20.2
30.734,9.28
30.750,3.57
30.765,4.62
30.781,12.06
30.796,23.54
30.812,35.8
30.828,45.91
30.843,52.26
30.859,54.92
30.875,55.19
30.890,54.48
30.906,53.73
30.921,52.7
30.937,50.34
30.953,45.2
30.968,36.08
30.984,22.31
31.000,3.66
31.015,-19.55
31.031,-46.7
31.046,-76.51
31.062,-107.12
31.078,-135.76
31.093,-159.14
31.109,-174.13
31.125,-178.42
31.140,-171.35
31.156,-154.02
31.171,-129.23
31.187,-100.5
31.203,-71.18
31.218,-43.48
31.234,-17.92
31.250,6.16
31.265,30.08
31.281,54.51
31.296,79.01
31.312,101.51
31.328,119.01
31.343,128.1
31.359,126.13
31.375,112.03
31.390,86.86
31.406,54.07
31.421,18.73
31.437,-13.48
31.453,-38.02
31.468,-52.47
31.484,-57.0
31.500,-53.96
31.515,-46.68
31.531,-38.17
31.546,-30.3
31.562,-23.59
31.578,-17.06
31.593,-9.25
31.609,1.15
31.625,14.77
31.640,31.07
31.656,48.3
31.671,63.71
31.687,74.42
31.703,78.27
31.718,74.93
31.734,66.05
31.750,54.48
31.765,43.26
31.781,34.24
31.796,27.48
31.812,21.42
31.828,13.94
31.843,3.57
31.859,-9.63
31.875,-24.08
31.890,-37.39
31.906,-47.14
31.921,-51.65
31.937,-50.14
31.953,-42.63
31.968,-30.04
31.984,-13.99
32.000,3.21
32.015,18.82
32.031,30.13
32.046,35.1
32.062,32.68
32.078,23.09
32.093,7.85
32.109,-10.73
32.125,-29.97
32.140,-47.2
32.156,-60.06
32.171,-66.81
32.187,-66.37
32.203,-58.77
32.218,-45.25
32.234,-28.09
32.250,-10.3
32.265,5.03
32.281,15.52
32.296,19.92
32.312,18.28
32.328,11.73
32.343,1.98
32.359,-9.15
32.375,-19.98
32.390,-29.3
32.406,-36.5
32.421,-41.36
32.437,-44.2
32.453,-45.42
32.468,-45.53
32.484,-44.94
32.500,-43.75
32.515,-41.59
32.531,-37.72
32.546,-31.39
32.562,-22.06
32.578,-9.92
32.593,4.38
32.609,19.65
32.625,34.53
32.640,47.91
32.656,59.05
32.671,67.52
32.687,73.23
32.703,76.34
32.718,77.03
32.734,75.68
32.750,72.86
32.765,69.08
32.781,64.92
32.796,60.83
32.812,57.08
32.828,53.83
32.843,51.12
32.859,48.95
32.875,47.26
32.890,45.89
32.906,44.53
32.921,42.98
32.937,40.84
32.953,37.94
32.968,34.21
32.984,29.6
33.000,24.14
33.015,17.99
33.031,11.24
33.046,3.97
33.062,-3.6
33.078,-11.47
33.093,-19.8
33.109,-28.87
33.125,-39.06
33.140,-50.48
33.156,-62.73
33.171,-75.01
33.187,-86.0
33.203,-94.07
33.218,-97.6
33.234,-95.43
33.250,-87.19
33.265,-73.45
33.281,-55.72
33.296,-36.08
33.312,-16.82
33.328,0.07
33.343,13.21
33.359,21.91
33.375,26.31
33.390,26.81
33.406,24.13
33.421,19.3
33.437,13.5
33.453,8.0
33.468,3.91
33.484,2.21
33.500,3.11
33.515,6.73
33.531,12.66
33.546,20.29
33.562,29.01
33.578,38.15
33.593,47.13
33.609,55.19
33.625,61.57
33.640,65.13
33.656,64.8
33.671,59.55
33.687,48.68
33.703,32.19
33.718,10.94
33.734,-13.16
33.750,-37.51
33.765,-59.17
33.781,-75.68
33.796,-85.53
33.812,-88.63
33.828,-86.28
33.843,-80.67
33.859,-74.32
33.875,-68.93
33.890,-65.2
33.906,-62.6
33.921,-59.81
33.937,-55.31
33.953,-47.76
33.968,-36.72
33.984,-22.42
34.000,-6.09
34.015,10.81
34.031,26.79
34.046,40.55
34.062,51.16
34.078,57.96
34.093,60.76
34.109,59.67
34.125,55.26
34.140,48.42
34.156,40.35
34.171,32.34
34.187,25.3
34.203,19.77
34.218,15.81
34.234,13.08
34.250,11.16
34.265,9.53
34.281,7.91
34.296,6.16
34.312,4.25
34.328,2.09
34.343,-0.39
34.359,-3.2
34.375,-6.29
34.390,-9.47
34.406,-12.54
34.421,-15.3
34.437,-17.76
34.453,-20.08
34.468,-22.46
34.484,-25.16
34.500,-28.26
34.515,-31.82
34.531,-35.74
34.546,-39.7
34.562,-42.98
34.578,-44.53
34.593,-43.27
34.609,-38.18
34.625,-29.14
34.640,-16.73
34.656,-2.41
34.671,12.01
34.687,24.87
34.703,35.11
34.718,42.41
34.734,46.9
34.750,48.87
34.765,48.48
34.781,45.74
34.796,40.71
34.812,33.83
34.828,25.89
34.843,17.98
34.859,11.28
34.875,6.67
34.890,4.45
34.906,4.35
34.921,5.66
34.937,7.49
34.953,9.07
34.968,10.08
34.984,10.32
35.000,9.89
35.015,8.79
35.031,6.94
35.046,4.19
35.062,0.5
35.078,-3.83
35.093,-8.38
35.109,-12.51
35.125,-15.88
35.140,-18.45
35.156,-20.67
35.171,-23.03
35.187,-25.78
35.203,-28.7
35.218,-30.87
35.234,-31.03
35.250,-28.13
35.265,-21.7
35.281,-12.06
35.296,-0.29
35.312,12.41
35.328,24.96
35.343,36.72
35.359,47.45
35.375,57.05
35.390,65.27
35.406,71.72
35.421,75.94
35.437,77.64
35.453,76.93
35.468,74.38
35.484,70.69
35.500,66.82
35.515,63.46
35.531,61.05
35.546,59.73
35.562,59.36
35.578,59.68
35.593,60.41
35.609,61.32
35.625,61.97
35.640,62.03
35.656,61.06
35.671,58.66
35.687,54.75
35.703,49.31
35.718,42.44
35.734,34.33
35.750,24.94
35.765,13.94
35.781,1.03
35.796,-13.86
35.812,-30.31
35.828,-47.07
35.843,-62.54
35.859,-75.0
35.875,-82.96
35.890,-85.71
35.906,-83.3
35.921,-76.38
35.937,-65.96
35.953,-53.21
35.968,-39.13
35.984,-24.87
36.000,-11.54
36.015,-0.25
36.031,8.0
36.046,12.53
36.062,13.15
36.078,10.08
36.093,3.93
36.109,-4.42
36.125,-14.19
36.140,-24.46
36.156,-34.32
36.171,-42.7
36.187,-48.36
36.203,-50.2
36.218,-47.71
36.234,-41.07
36.250,-31.09
36.265,-19.43
36.281,-8.16
36.296,0.46
36.312,4.36
36.328,2.46
36.343,-4.8
36.359,-15.5
36.375,-26.46
36.390,-34.24
36.406,-36.29
36.421,-31.78
36.437,-21.87
36.453,-9.34
36.468,2.39
36.484,9.99
36.500,10.99
36.515,4.38
36.531,-8.97
36.546,-26.08
36.562,-42.32
36.578,-52.54
36.593,-52.72
36.609,-41.23
36.625,-19.49
36.640,8.59
36.656,37.92
36.671,63.75
36.687,82.98
36.703,94.44
36.718,98.51
36.734,96.37
36.750,89.46
36.765,79.13
36.781,66.57
36.796,53.03
36.812,39.77
36.828,27.89
36.843,18.2
36.859,10.88
36.875,5.56
36.890,1.41
36.906,-2.46
36.921,-6.65
36.937,-11.28
36.953,-16.07
36.968,-20.54
36.984,-24.42
37.000,-27.82
37.015,-31.12
37.031,-34.93
37.046,-39.45
37.062,-44.46
37.078,-49.15
37.093,-52.55
37.109,-54.0
37.125,-53.51
37.140,-51.93
37.156,-50.57
37.171,-50.86
37.187,-53.58
37.203,-58.88
37.218,-66.24
37.234,-74.59
37.250,-82.84
37.265,-89.69
37.281,-93.95
37.296,-94.32
37.312,-89.82
37.328,-79.81
37.343,-64.33
37.359,-44.14
37.375,-20.44
37.390,5.24
37.406,31.33
37.421,55.94
37.437,77.3
37.453,93.39
37.468,102.6
37.484,103.78
37.500,96.88
37.515,83.39
37.531,66.02
37.546,48.5
37.562,34.39
37.578,26.42
37.593,25.47
37.609,30.63
37.625,39.3
37.640,48.02
37.656,53.71
37.671,54.27
37.687,49.39
37.703,40.37
37.718,29.55
37.734,19.34
37.750,11.35
37.765,5.87
37.781,1.87
37.796,-2.17
37.812,-7.89
37.828,-16.09
37.843,-26.68
37.859,-38.99
37.875,-51.91
37.890,-64.27
37.906,-74.83
37.921,-82.72
37.937,-87.07
37.953,-87.69
37.968,-84.85
37.984,-79.2
38.000,-71.74
38.015,-63.23
38.031,-54.01
38.046,-43.49
38.062,-30.74
38.078,-14.45
38.093,5.96
38.109,29.96
38.125,55.72
38.140,80.53
38.156,101.68
38.171,117.13
38.187,125.97
38.203,128.42
38.218,125.37
38.234,118.17
38.250,108.32
38.265,97.03
38.281,85.26
38.296,73.77
38.312,62.71
38.328,51.65
38.343,40.04
38.359,27.21
38.375,13.18
38.390,-1.19
38.406,-14.27
38.421,-24.31
38.437,-29.74
38.453,-29.93
38.468,-25.47
38.484,-17.89
38.500,-9.41
38.515,-2.29
38.531,1.51
38.546,0.96
38.562,-4.02
38.578,-12.5
38.593,-22.83
38.609,-33.05
38.625,-41.52
38.640,-47.43
38.656,-50.93
38.671,-53.04
38.687,-55.21
38.703,-58.51
38.718,-63.63
38.734,-70.63
38.750,-78.71
38.765,-86.58
38.781,-92.66
38.796,-95.11
38.812,-92.33
38.828,-83.55
38.843,-68.88
38.859,-49.59
38.875,-27.95
38.890,-6.32
38.906,13.67
38.921,31.58
38.937,48.25
38.953,65.07
38.968,82.87
38.984,101.07
39.000,117.85
39.015,130.4
39.031,136.22
39.046,133.8
39.062,123.08
39.078,105.21
39.093,82.14
39.109,56.01
39.125,29.02
39.140,3.55
39.156,-18.18
39.171,-34.09
39.187,-42.88
39.203,-44.34
39.218,-39.55
39.234,-30.82
39.250,-21.12
39.265,-13.42
39.281,-9.86
39.296,-11.36
39.312,-17.39
39.328,-26.34
39.343,-36.22
39.359,-45.3
39.375,-52.75
39.390,-58.68
39.406,-63.94
39.421,-69.27
39.437,-75.05
39.453,-80.69
39.468,-84.64
39.484,-85.17
39.500,-80.48
39.515,-69.81
39.531,-53.53
39.546,-33.39
39.562,-11.99
39.578,7.68
39.593,23.43
39.609,34.44
39.625,41.03
39.640,44.74
39.656,47.02
39.671,48.81
39.687,50.11
39.703,50.24
39.718,48.1
39.734,42.87
39.750,34.52
39.765,23.8
39.781,12.53
39.796,2.97
39.812,-2.54
39.828,-2.34
39.843,4.06
39.859,15.5
39.875,29.48
39.890,42.69
39.906,51.91
39.921,55.06
39.937,51.31
39.953,41.57
39.968,28.06
39.984,13.53
40.000,0.56
40.015,-9.22
40.031,-15.62
40.046,-19.61
40.062,-22.78
40.078,-26.96
40.093,-33.33
40.109,-41.95
40.125,-52.13
40.140,-62.23
40.156,-70.59
40.171,-76.18
40.187,-78.67
40.203,-78.3
40.218,-75.61
40.234,-71.07
40.250,-64.83
40.265,-57.09
40.281,-47.78
40.296,-36.88
40.312,-24.34
40.328,-10.17
40.343,5.42
40.359,21.47
40.375,36.37
40.390,47.89
40.406,54.07
40.421,54.24
40.437,49.46
40.453,42.23
40.468,35.52
40.484,31.84
40.500,32.11
40.515,35.93
40.531,41.79
40.546,48.07
40.562,53.66
40.578,58.33
40.593,62.43
40.609,66.63
40.625,71.32
40.640,76.3
40.656,80.93
40.671,83.87
40.687,83.48
40.703,78.08
40.718,66.4
40.734,48.16
40.750,24.46
40.765,-2.07
40.781,-28.02
40.796,-49.65
40.812,-64.24
40.828,-70.61
40.843,-69.54
40.859,-63.5
40.875,-55.73
40.890,-49.41
40.906,-46.57
40.921,-47.83
40.937,-52.28
40.953,-57.84
40.968,-62.16
40.984,-63.17
41.000,-59.64
41.015,-51.61
41.031,-40.03
41.046,-26.34
41.062,-12.11
41.078,1.33
41.093,13.07
41.109,22.3
41.125,28.3
41.140,30.6
41.156,29.05
41.171,24.08
41.187,16.9
41.203,9.16
41.218,2.41
41.234,-2.18
41.250,-4.64
41.265,-5.72
41.281,-6.56
41.296,-7.97
41.312,-10.21
41.328,-12.81
41.343,-14.86
41.359,-15.47
41.375,-13.91
41.390,-10.24
41.406,-4.96
41.421,0.74
41.437,5.37
41.453,7.32
41.468,5.43
41.484,-0.66
41.500,-9.99
41.515,-20.4
41.531,-29.26
41.546,-34.09
41.562,-33.56
41.578,-28.17
41.593,-19.96
41.609,-11.62
41.625,-5.42
41.640,-2.04
41.656,-0.17
41.671,2.64
41.687,9.03
41.703,20.51
41.718,36.3
41.734,53.61
41.750,68.38
41.765,76.61
41.781,75.79
41.796,65.63
41.812,48.06
41.828,26.49
41.843,4.91
41.859,-13.58
41.875,-26.87
41.890,-34.51
41.906,-37.32
41.921,-36.73
41.937,-34.28
41.953,-31.21
41.968,-28.34
41.984,-25.75
42.000,-23.25
42.015,-20.06
42.031,-15.29
42.046,-8.26
42.062,1.11
42.078,12.19
42.093,23.36
42.109,32.14
42.125,36.09
42.140,33.47
42.156,24.34
42.171,10.7
42.187,-4.12
42.203,-16.52
42.218,-24.11
42.234,-26.58
42.250,-25.85
42.265,-24.9
42.281,-26.23
42.296,-30.42
42.312,-35.94
42.328,-39.97
42.343,-39.65
42.359,-33.76
42.375,-23.1
42.390,-10.23
42.406,1.53
42.421,9.6
42.437,13.25
42.453,13.65
42.468,12.98
42.484,13.4
42.500,15.61
42.515,18.69
42.531,20.66
42.546,19.71
42.562,15.22
42.578,8.41
42.593,1.92
42.609,-1.67
42.625,-0.95
42.640,3.51
42.656,9.54
42.671,14.35
42.687,15.75
42.703,12.96
42.718,6.66
42.734,-1.05
42.750,-7.76
42.765,-11.42
42.781,-11.05
42.796,-6.88
42.812,-0.25
42.828,6.87
42.843,12.48
42.859,15.07
42.875,14.16
42.890,10.37
42.906,5.0
42.921,-0.47
42.937,-5.26
42.953,-9.5
42.968,-14.45
42.984,-21.98
43.000,-33.88
43.015,-50.98
43.031,-72.14
43.046,-94.36
43.062,-113.28
43.078,-124.72
43.093,-125.89
43.109,-116.54
43.125,-98.83
43.140,-76.45
43.156,-53.32
43.171,-32.02
43.187,-13.19
43.203,4.14
43.218,21.46
43.234,39.49
43.250,57.54
43.265,73.98
43.281,86.95
43.296,95.41
43.312,99.81
43.328,101.77
43.343,103.4
43.359,106.2
43.375,110.28
43.390,114.34
43.406,116.21
43.421,113.97
43.437,106.34
43.453,93.41
43.468,76.38
43.484,57.18
43.500,38.07
43.515,20.95
43.531,7.31
43.546,-2.22
43.562,-7.48
43.578,-9.15
43.593,-8.09
43.609,-5.86
43.625,-4.28
43.640,-5.16
43.656,-10.06
43.671,-19.83
43.687,-34.41
43.703,-52.86
43.718,-73.67
43.734,-94.7
43.750,-113.84
43.765,-129.01
43.781,-138.29
43.796,-140.23
43.812,-134.22
43.828,-120.75
43.843,-101.54
43.859,-79.21
43.875,-56.31
43.890,-34.8
43.906,-15.34
43.921,2.74
43.937,20.8
43.953,39.83
43.968,59.59
43.984,78.36
44.000,93.14
44.015,100.76
44.031,98.93
44.046,87.12
44.062,67.09
44.078,42.12
44.093,16.43
44.109,-6.15
44.125,-22.8
44.140,-32.35
44.156,-35.1
44.171,-32.61
44.187,-26.91
44.203,-19.74
44.218,-12.54
44.234,-5.91
44.250,0.1
44.265,5.73
44.281,10.96
44.296,15.57
44.312,19.13
44.328,21.42
44.343,22.69
44.359,23.69
44.375,25.33
44.390,27.91
44.406,30.73
44.421,32.0
44.437,29.63
44.453,22.3
44.468,10.26
44.484,-4.7
44.500,-19.88
44.515,-32.53
44.531,-40.99
44.546,-44.54
44.562,-43.18
44.578,-37.0
44.593,-25.87
44.609,-9.77
44.625,10.59
44.640,33.16
44.656,54.96
44.671,72.44
44.687,82.75
44.703,84.74
44.718,79.1
44.734,68.07
44.750,54.59
44.765,41.43
44.781,30.47
44.796,22.53
44.812,17.46
44.828,14.71
44.843,13.35
44.859,12.49
44.875,11.26
44.890,9.01
44.906,5.27
44.921,0.01
44.937,-6.56
44.953,-14.03
44.968,-21.83
44.984,-29.62
45.000,-37.33
45.015,-45.02
45.031,-52.68
45.046,-60.2
45.062,-67.16
45.078,-73.09
45.093,-77.7
45.109,-81.11
45.125,-83.6
45.140,-85.45
45.156,-86.39
45.171,-85.45
45.187,-81.09
45.203,-71.93
45.218,-57.53
45.234,-38.81
45.250,-18.19
45.265,1.25
45.281,16.57
45.296,26.02
45.312,29.55
45.328,28.83
45.343,26.57
45.359,25.42
45.375,26.86
45.390,30.95
45.406,36.25
45.421,40.57
45.437,41.85
45.453,38.97
45.468,32.04
45.484,22.65
45.500,13.33
45.515,6.71
45.531,4.86
45.546,8.48
45.562,16.57
45.578,26.64
45.593,35.74
45.609,41.37
45.625,42.49
45.640,39.68
45.656,34.81
45.671,29.78
45.687,25.99
45.703,23.59
45.718,21.51
45.734,18.16
45.750,12.2
45.765,3.51
45.781,-6.57
45.796,-15.39
45.812,-20.23
45.828,-19.21
45.843,-12.36
45.859,-1.54
45.875,9.95
45.890,18.49
45.906,21.2
45.921,16.61
45.937,4.89
45.953,-12.28
45.968,-31.91
45.984,-50.52
46.000,-64.52
46.015,-71.07
46.031,-68.87
46.046,-58.38
46.062,-41.51
46.078,-21.2
46.093,-0.72
46.109,17.02
46.125,29.71
46.140,35.9
46.156,35.51
46.171,29.39
46.187,19.28
46.203,7.4
46.218,-3.72
46.234,-11.79
46.250,-14.8
46.265,-11.35
46.281,-1.3
46.296,14.16
46.312,32.3
46.328,49.43
46.343,61.82
46.359,67.36
46.375,66.07
46.390,60.2
46.406,53.07
46.421,47.49
46.437,44.61
46.453,43.46
46.468,41.74
46.484,36.63
46.500,26.02
46.515,9.15
46.531,-13.02
46.546,-38.14
46.562,-63.09
46.578,-84.54
46.593,-100.18
46.609,-109.26
46.625,-112.91
46.640,-113.62
46.656,-113.67
46.671,-113.83
46.687,-112.57
46.703,-106.99
46.718,-94.02
46.734,-72.33
46.750,-43.38
46.765,-10.75
46.781,21.03
46.796,48.41
46.812,69.97
46.828,86.44
46.843,99.66
46.859,111.45
46.875,122.45
46.890,131.84
46.906,138.16
46.921,140.02
46.937,136.8
46.953,128.58
46.968,115.65
46.984,98.22
47.000,76.6
47.015,51.6
47.031,25.21
47.046,0.72
47.062,-18.29
47.078,-29.06
47.093,-30.68
47.109,-24.57
47.125,-14.07
47.140,-3.27
47.156,4.12
47.171,5.65
47.187,0.9
47.203,-9.05
47.218,-22.15
47.234,-35.86
47.250,-48.18
47.265,-57.99
47.281,-65.18
47.296,-70.27
47.312,-74.09
47.328,-77.31
47.343,-80.59
47.359,-84.29
47.375,-88.3
47.390,-92.08
47.406,-94.46
47.421,-93.97
47.437,-89.08
47.453,-78.8
47.468,-63.11
47.484,-43.29
47.500,-21.42
47.515,0.23
47.531,19.74
47.546,36.14
47.562,49.31
47.578,59.5
47.593,66.99
47.609,71.94
47.625,74.15
47.640,73.6
47.656,70.6
47.671,65.82
47.687,60.32
47.703,55.23
47.718,51.16
47.734,48.33
47.750,46.57
47.765,45.4
47.781,44.37
47.796,43.28
47.812,42.01
47.828,40.67
47.843,39.3
47.859,37.64
47.875,35.39
47.890,32.14
47.906,27.65
47.921,21.92
47.937,15.24
47.953,8.04
47.968,0.8
47.984,-6.16
48.000,-12.74
48.015,-19.0
48.031,-25.02
48.046,-30.93
48.062,-36.69
48.078,-42.19
48.093,-47.21
48.109,-51.48
48.125,-54.63
48.140,-56.07
48.156,-55.05
48.171,-50.8
48.187,-42.78
48.203,-30.96
48.218,-16.14
48.234,0.44
48.250,17.24
48.265,32.86
48.281,46.2
48.296,56.77
48.312,64.39
48.328,69.08
48.343,71.01
48.359,70.08
48.375,66.3
48.390,59.97
48.406,51.6
48.421,42.14
48.437,32.71
48.453,24.29
48.468,17.53
48.484,12.51
48.500,8.83
48.515,5.98
48.531,3.73
48.546,1.96
48.562,0.85
48.578,0.24
48.593,-0.28
48.609,-1.46
48.625,-4.06
48.640,-8.6
48.656,-15.05
48.671,-22.78
48.687,-30.94
48.703,-38.48
48.718,-44.75
48.734,-49.56
48.750,-53.18
48.765,-56.11
48.781,-58.95
48.796,-61.9
48.812,-64.83
48.828,-67.19
48.843,-67.95
48.859,-65.89
48.875,-60.04
48.890,-49.75
48.906,-35.13
48.921,-17.06
48.937,3.02
48.953,23.3
48.968,42.1
48.984,58.25
49.000,70.98
49.015,79.64
49.031,83.91
49.046,83.34
49.062,77.86
49.078,67.8
49.093,54.03
49.109,37.82
49.125,20.68
49.140,3.91
49.156,-11.77
49.171,-26.08
49.187,-38.97
49.203,-50.51
49.218,-60.61
49.234,-69.12
49.250,-75.97
49.265,-81.25
49.281,-85.24
49.296,-88.24
49.312,-90.66
49.328,-92.69
49.343,-94.41
49.359,-95.78
49.375,-96.59
49.390,-96.38
49.406,-94.37
49.421,-89.5
49.437,-80.73
49.453,-67.67
49.468,-50.97
49.484,-32.31
49.500,-14.14
49.515,1.13
49.531,12.01
49.546,18.43
49.562,21.87
49.578,24.71
49.593,29.22
49.609,36.67
49.625,46.99
49.640,58.96
49.656,70.78
49.671,80.8
49.687,87.77
49.703,90.9
49.718,89.77
49.734,84.04
49.750,73.5
49.765,58.37
49.781,39.59
49.796,19.06
49.812,-0.72
49.828,-17.26
49.843,-28.76
49.859,-34.49
49.875,-34.88
49.890,-31.12
49.906,-24.72
49.921,-16.92
49.937,-8.44
49.953,0.35
49.968,9.1
49.984,17.37
50.000,24.54
50.015,29.82
50.031,32.56
50.046,31.98
50.062,27.56
50.078,19.04
50.093,6.62
50.109,-8.91
50.125,-26.29
50.140,-43.87
50.156,-60.37
50.171,-74.76
50.187,-86.67
50.203,-96.33
50.218,-104.42
50.234,-111.59
50.250,-118.3
50.265,-124.43
50.281,-129.02
50.296,-130.67
50.312,-127.37
50.328,-117.27
50.343,-98.98
50.359,-72.44
50.375,-38.97
50.390,-1.21
50.406,37.25
50.421,72.64
50.437,101.54
50.453,121.39
50.468,130.75
50.484,129.67
50.500,119.83
50.515,104.15
50.531,86.34
50.546,70.09
50.562,58.04
50.578,51.31
50.593,48.98
50.609,48.59
50.625,47.19
50.640,42.61
50.656,34.21
50.671,23.2
50.687,12.08
50.703,3.59
50.718,-0.41
50.734,0.51
50.750,5.19
50.765,11.36
50.781,16.78
50.796,19.7
50.812,19.34
50.828,15.65
50.843,9.23
50.859,0.86
50.875,-8.5
50.890,-17.85
50.906,-26.42
50.921,-33.84
50.937,-39.95
50.953,-44.89
50.968,-49.02
50.984,-52.71
51.000,-55.8
51.015,-57.6
51.031,-56.88
51.046,-52.19
51.062,-42.73
51.078,-28.52
51.093,-10.64
51.109,8.88
51.125,27.6
51.140,43.5
51.156,55.2
51.171,62.14
51.187,64.63
51.203,63.36
51.218,59.35
51.234,53.61
51.250,47.07
51.265,40.53
51.281,34.64
51.296,29.83
51.312,26.3
51.328,23.9
51.343,22.29
51.359,21.07
51.375,19.66
51.390,17.77
51.406,15.49
51.421,12.96
51.437,10.4
51.453,7.92
51.468,5.3
51.484,2.12
51.500,-1.99
51.515,-7.1
51.531,-12.81
51.546,-18.28
51.562,-22.88
51.578,-26.27
51.593,-28.72
51.609,-30.98
51.625,-33.96
51.640,-38.35
51.656,-44.31
51.671,-51.15
51.687,-57.35
51.703,-61.19
51.718,-60.87
51.734,-55.19
51.750,-43.89
51.765,-27.8
51.781,-8.45
51.796,12.14
51.812,32.22
51.828,50.42
51.843,65.83
51.859,78.09
51.875,86.86
51.890,91.97
51.906,93.43
51.921,91.6
51.937,87.3
51.953,81.83
51.968,76.42
51.984,72.04
52.000,69.12
52.015,67.41
52.031,66.35
52.046,65.56
52.062,65.06
52.078,65.02
52.093,65.81
52.109,67.33
52.125,69.13
52.140,70.35
52.156,70.26
52.171,68.34
52.187,64.81
52.203,60.49
52.218,56.14
52.234,52.42
52.250,49.29
52.265,46.14
52.281,41.91
52.296,35.58
52.312,26.23
52.328,13.19
52.343,-3.86
52.359,-24.83
52.375,-48.81
52.390,-73.98
52.406,-97.95
52.421,-118.57
52.437,-134.4
52.453,-145.22
52.468,-151.83
52.484,-155.29
52.500,-156.55
52.515,-155.96
52.531,-153.33
52.546,-148.17
52.562,-140.03
52.578,-128.89
52.593,-115.43
52.609,-101.04
52.625,-86.91
52.640,-73.9
52.656,-61.44
52.671,-47.86
52.687,-30.98
52.703,-9.14
52.718,17.62
52.734,47.39
52.750,76.83
52.765,102.32
52.781,120.93
52.796,131.36
52.812,133.67
52.828,128.79
52.843,118.02
52.859,102.38
52.875,82.92
52.890,60.92
52.906,38.14
52.921,16.57
52.937,-1.8
52.953,-15.62
52.968,-24.78
52.984,-30.11
53.000,-33.07
53.015,-35.04
53.031,-36.99
53.046,-39.17
53.062,-41.6
53.078,-44.05
53.093,-46.29
53.109,-48.07
53.125,-48.77
53.140,-47.68
53.156,-43.74
53.171,-36.25
53.187,-24.88
53.203,-10.2
53.218,6.41
53.234,23.06
53.250,37.81
53.265,49.11
53.281,55.8
53.296,57.44
53.312,54.01
53.328,46.06
53.343,34.62
53.359,20.88
53.375,5.83
53.390,-9.67
53.406,-25.01
53.421,-39.62
53.437,-52.45
53.453,-62.19
53.468,-67.42
53.484,-67.18
53.500,-61.57
53.515,-51.67
53.531,-39.33
53.546,-26.27
53.562,-13.81
53.578,-2.41
53.593,7.74
53.609,16.56
53.625,23.79
53.640,28.88
53.656,31.46
53.671,31.53
53.687,29.62
53.703,26.62
53.718,23.49
53.734,20.76
53.750,18.58
53.765,16.74
53.781,14.92
53.796,13.13
53.812,11.93
53.828,12.11
53.843,14.5
53.859,19.52
53.875,27.04
53.890,36.42
53.906,46.83
53.921,57.31
53.937,67.27
53.953,76.39
53.968,84.36
53.984,90.93
54.000,95.4
54.015,97.02
54.031,95.12
54.046,89.44
54.062,80.21
54.078,68.31
54.093,54.91
54.109,41.35
54.125,29.02
54.140,18.99
54.156,11.8
54.171,7.47
54.187,5.4
54.203,4.66
54.218,4.41
54.234,3.97
54.250,2.79
54.265,0.53
54.281,-3.18
54.296,-8.67
54.312,-15.95
54.328,-24.65
54.343,-34.07
54.359,-43.41
54.375,-52.02
54.390,-59.75
54.406,-66.73
54.421,-73.32
54.437,-79.83
54.453,-86.29
54.468,-92.62
54.484,-98.68
54.500,-104.49
54.515,-110.15
54.531,-115.54
54.546,-120.08
54.562,-122.67
54.578,-121.98
54.593,-116.86
54.609,-106.95
54.625,-92.82
54.640,-75.77
54.656,-57.51
54.671,-39.49
54.687,-22.79
54.703,-8.09
54.718,4.15
54.734,13.52
54.750,19.7
54.765,22.5
54.781,22.01
54.796,18.62
54.812,13.13
54.828,6.36
54.843,-0.85
54.859,-7.89
54.875,-14.51
54.890,-20.75
54.906,-26.82
54.921,-32.73
54.937,-38.38
54.953,-43.31
54.968,-46.89
54.984,-48.69
55.000,-48.53
55.015,-46.65
55.031,-43.64
55.046,-40.12
55.062,-36.36
55.078,-32.29
55.093,-27.68
55.109,-22.36
55.125,-16.61
55.140,-11.0
55.156,-6.29
55.171,-3.24
55.187,-2.38
55.203,-3.95
55.218,-7.98
55.234,-14.35
55.250,-22.63
55.265,-32.01
55.281,-41.17
55.296,-48.27
55.312,-51.37
55.328,-48.98
55.343,-40.49
55.359,-26.43
55.375,-8.35
55.390,11.63
55.406,31.33
55.421,49.08
55.437,63.93
55.453,75.45
55.468,83.71
55.484,88.79
55.500,90.68
55.515,89.54
55.531,85.78
55.546,80.22
55.562,73.85
55.578,67.75
55.593,62.52
55.609,58.3
55.625,54.76
55.640,51.29
55.656,47.59
55.671,43.54
55.687,39.55
55.703,35.97
55.718,32.89
55.734,29.96
55.750,26.53
55.765,22.02
55.781,16.11
55.796,9.17
55.812,1.85
55.828,-5.02
55.843,-10.83
55.859,-15.49
55.875,-19.34
55.890,-22.98
55.906,-27.0
55.921,-31.78
55.937,-37.19
55.953,-42.91
55.968,-48.27
55.984,-52.29
56.000,-54.01
56.015,-52.54
56.031,-47.3
56.046,-38.08
56.062,-25.33
56.078,-9.88
56.093,6.94
56.109,23.67
56.125,38.97
56.140,51.78
56.156,61.5
56.171,67.69
56.187,70.46
56.203,69.97
56.218,66.66
56.234,61.22
56.250,54.65
56.265,48.05
56.281,42.43
56.296,38.54
56.312,36.53
56.328,36.1
56.343,36.6
56.359,37.15
56.375,37.02
56.390,35.73
56.406,33.06
56.421,28.8
56.437,23.12
56.453,16.23
56.468,8.5
56.484,0.45
56.500,-7.39
56.515,-14.49
56.531,-20.48
56.546,-25.12
56.562,-28.53
56.578,-30.97
56.593,-32.97
56.609,-35.2
56.625,-38.32
56.640,-42.5
56.656,-47.38
56.671,-52.09
56.687,-55.24
56.703,-55.34
56.718,-51.21
56.734,-42.47
56.750,-29.5
56.765,-13.54
56.781,3.78
56.796,20.85
56.812,36.3
56.828,49.22
56.843,59.25
56.859,66.21
56.875,69.89
56.890,70.26
56.906,67.48
56.921,62.13
56.937,55.19
56.953,47.92
56.968,41.47
56.984,36.53
57.000,33.19
57.015,30.81
57.031,28.64
57.046,26.05
57.062,22.8
57.078,19.02
57.093,15.05
57.109,11.2
57.125,7.43
57.140,3.53
57.156,-1.0
57.171,-6.52
57.187,-13.14
57.203,-20.66
57.218,-28.58
57.234,-36.39
57.250,-43.69
57.265,-50.26
57.281,-56.2
57.296,-61.69
57.312,-66.95
57.328,-72.11
57.343,-77.18
57.359,-81.96
57.375,-86.04
57.390,-88.8
57.406,-89.31
57.421,-86.54
57.437,-79.67
57.453,-68.41
57.468,-53.23
57.484,-35.34
57.500,-16.29
57.515,2.25
57.531,19.09
57.546,33.52
57.562,45.29
57.578,54.36
57.593,60.72
57.609,64.22
57.625,64.75
57.640,62.58
57.656,58.28
57.671,52.73
57.687,46.95
57.703,41.64
57.718,37.18
57.734,33.41
57.750,29.97
57.765,26.42
57.781,22.5
57.796,18.35
57.812,14.23
57.828,10.55
57.843,7.43
57.859,4.73
57.875,2.0
57.890,-1.36
57.906,-5.72
57.921,-11.14
57.937,-17.14
57.953,-23.13
57.968,-28.47
57.984,-32.98
58.000,-36.85
58.015,-40.57
58.031,-44.65
58.046,-49.4
58.062,-54.82
58.078,-60.61
58.093,-66.22
58.109,-70.91
58.125,-73.9
58.140,-74.36
58.156,-71.49
58.171,-64.8
58.187,-54.1
58.203,-39.87
58.218,-23.1
58.234,-5.28
58.250,12.02
58.265,27.55
58.281,40.34
58.296,50.02
58.312,56.53
58.328,60.11
58.343,61.02
58.359,59.65
58.375,56.35
58.390,51.62
58.406,46.08
58.421,40.41
58.437,35.27
58.453,30.98
58.468,27.63
58.484,25.02
58.500,22.85
58.515,20.82
58.531,18.73
58.546,16.33
58.562,13.58
58.578,10.36
58.593,6.56
58.609,2.21
58.625,-2.54
58.640,-7.49
58.656,-12.26
58.671,-16.62
58.687,-20.5
58.703,-23.88
58.718,-26.94
58.734,-29.96
58.750,-33.26
58.765,-37.05
58.781,-41.43
58.796,-45.86
58.812,-49.36
58.828,-50.6
58.843,-48.31
58.859,-41.75
58.875,-31.03
58.890,-16.97
58.906,-1.15
58.921,14.76
58.937,29.45
58.953,42.01
58.968,52.03
58.984,59.2
59.000,63.33
59.015,64.23
59.031,62.12
59.046,57.45
59.062,51.08
59.078,44.14
59.093,37.48
59.109,31.68
59.125,26.86
59.140,22.67
59.156,18.72
59.171,14.86
59.187,11.05
59.203,7.48
59.218,4.4
59.234,1.69
59.250,-1.0
59.265,-4.06
59.281,-7.95
59.296,-12.68
59.312,-17.87
59.328,-22.99
59.343,-27.49
59.359,-31.17
59.375,-34.32
59.390,-37.51
59.406,-41.29
59.421,-46.19
59.437,-52.09
59.453,-58.52
59.468,-64.58
59.484,-69.01
59.500,-70.4
59.515,-67.63
59.531,-60.06
59.546,-47.71
59.562,-31.55
59.578,-12.91
59.593,6.55
59.609,25.28
59.625,42.13
59.640,56.29
59.656,67.28
59.671,74.93
59.687,79.27
59.703,80.7
59.718,79.91
59.734,77.91
59.750,75.77
59.765,74.43
59.781,74.52
59.796,76.12
59.812,78.96
59.828,82.49
59.843,86.2
59.859,89.61
59.875,92.59
59.890,95.21
59.906,97.62
59.921,99.93
59.937,102.0
59.953,103.69
59.968,104.96
59.984,105.96
