timestamp,value
00.000,-137.27
00.015,-134.74
00.031,-127.19
00.046,-118.33
00.062,-110.9
00.078,-106.23
00.093,-104.64
00.109,-105.87
00.125,-109.36
00.140,-114.5
00.156,-120.2
00.171,-124.98
00.187,-128.12
00.203,-129.68
00.218,-130.74
00.234,-133.48
00.250,-140.55
00.265,-153.85
00.281,-173.61
00.296,-196.98
00.312,-218.18
00.328,-230.96
00.343,-230.4
00.359,-214.28
00.375,-184.27
00.390,-144.51
00.406,-99.54
00.421,-53.1
00.437,-7.04
00.453,37.88
00.468,80.42
00.484,118.7
00.500,151.96
00.515,181.83
00.531,213.77
00.546,255.28
00.562,312.01
00.578,383.58
00.593,461.43
00.609,530.34
00.625,573.88
00.640,580.92
00.656,549.02
00.671,485.12
00.687,401.1
00.703,308.55
00.718,215.86
00.734,128.16
00.750,49.66
00.765,-14.16
00.781,-57.21
00.796,-76.0
00.812,-72.13
00.828,-53.53
00.843,-32.72
00.859,-21.43
00.875,-26.81
00.890,-49.41
00.906,-84.49
00.921,-125.05
00.937,-165.32
00.953,-201.6
00.968,-231.54
00.984,-254.0
01.000,-267.21
01.015,-269.89
01.031,-262.04
01.046,-246.03
01.062,-226.37
01.078,-208.42
01.093,-195.89
01.109,-189.46
01.125,-187.11
01.140,-184.17
01.156,-176.06
01.171,-160.05
01.187,-136.43
01.203,-109.09
01.218,-84.42
01.234,-69.29
01.250,-69.01
01.265,-85.54
01.281,-115.47
01.296,-150.8
01.312,-181.12
01.328,-196.93
01.343,-193.05
01.359,-170.62
01.375,-135.73
01.390,-96.28
01.406,-59.44
01.421,-28.66
01.437,-3.26
01.453,20.16
01.468,45.86
01.484,77.46
01.500,116.88
01.515,164.87
01.531,221.53
01.546,286.06
01.562,355.75
01.578,424.48
01.593,483.02
01.609,521.42
01.625,531.92
01.640,511.99
01.656,465.35
01.671,399.94
01.687,324.51
01.703,245.61
01.718,166.84
01.734,90.23
01.750,19.96
01.765,-36.93
01.781,-71.93
01.796,-79.23
01.812,-60.0
01.828,-24.09
01.843,12.92
01.859,35.23
01.875,32.04
01.890,2.09
01.906,-46.99
01.921,-102.18
01.937,-149.92
01.953,-179.71
01.968,-186.99
01.984,-172.58
02.000,-141.85
02.015,-103.52
02.031,-67.6
02.046,-43.51
02.062,-37.24
02.078,-49.75
02.093,-76.59
02.109,-109.91
02.125,-140.71
02.140,-161.8
02.156,-169.17
02.171,-161.93
02.187,-142.47
02.203,-116.23
02.218,-91.16
02.234,-76.56
02.250,-80.65
02.265,-106.61
02.281,-149.5
02.296,-197.38
02.312,-234.68
02.328,-248.38
02.343,-234.08
02.359,-196.73
02.375,-147.88
02.390,-100.19
02.406,-62.35
02.421,-36.24
02.437,-17.9
02.453,-0.44
02.468,23.04
02.484,57.11
02.500,103.89
02.515,163.24
02.531,232.96
02.546,308.28
02.562,381.43
02.578,442.33
02.593,481.23
02.609,491.34
02.625,471.7
02.640,427.44
02.656,367.55
02.671,301.75
02.687,237.1
02.703,176.72
02.718,120.59
02.734,68.3
02.750,20.82
02.765,-19.18
02.781,-48.23
02.796,-64.98
02.812,-72.38
02.828,-77.18
02.843,-87.99
02.859,-111.84
02.875,-150.11
02.890,-197.06
02.906,-241.41
02.921,-270.67
02.937,-276.31
02.953,-257.6
02.968,-221.58
02.984,-180.18
03.000,-145.6
03.015,-126.07
03.031,-124.24
03.046,-136.85
03.062,-156.36
03.078,-173.57
03.093,-180.14
03.109,-171.46
03.125,-148.24
03.140,-116.58
03.156,-86.29
03.171,-68.13
03.187,-70.07
03.203,-94.63
03.218,-137.23
03.234,-187.32
03.250,-232.04
03.265,-260.6
03.281,-267.22
03.296,-251.99
03.312,-219.87
03.328,-177.63
03.343,-131.91
03.359,-87.32
03.375,-45.89
03.390,-7.81
03.406,27.91
03.421,63.19
03.437,100.81
03.453,144.1
03.468,196.24
03.484,258.87
03.500,329.97
03.515,403.17
03.531,467.94
03.546,512.23
03.562,526.13
03.578,505.03
03.593,451.32
03.609,373.18
03.625,281.45
03.640,186.4
03.656,95.88
03.671,15.63
03.687,-49.24
03.703,-94.04
03.718,-115.02
03.734,-111.03
03.750,-85.01
03.765,-44.85
03.781,-1.79
03.796,31.98
03.812,45.89
03.828,34.59
03.843,-0.96
03.859,-53.24
03.875,-109.97
03.890,-157.57
03.906,-185.88
03.921,-191.37
03.937,-178.05
03.953,-155.32
03.968,-134.18
03.984,-123.03
04.000,-124.98
04.015,-137.53
04.031,-154.56
04.046,-168.94
04.062,-174.43
04.078,-167.09
04.093,-145.51
04.109,-111.07
04.125,-68.45
04.140,-25.31
04.156,8.92
04.171,25.13
04.187,17.59
04.203,-12.5
04.218,-56.83
04.234,-102.37
04.250,-135.34
04.265,-146.79
04.281,-135.17
04.296,-105.64
04.312,-67.22
04.328,-29.31
04.343,2.52
04.359,27.48
04.375,48.56
04.390,70.81
04.406,98.75
04.421,135.39
04.437,181.66
04.453,236.54
04.468,296.37
04.484,354.86
04.500,403.56
04.515,433.95
04.531,440.13
04.546,420.35
04.562,377.77
04.578,318.37
04.593,248.43
04.609,173.06
04.625,96.46
04.640,22.97
04.656,-41.66
04.671,-90.13
04.687,-117.04
04.703,-120.65
04.718,-104.76
04.734,-78.61
04.750,-53.81
04.765,-40.98
04.781,-46.88
04.796,-72.94
04.812,-114.13
04.828,-161.41
04.843,-203.3
04.859,-229.35
04.875,-233.88
04.890,-217.41
04.906,-186.11
04.921,-149.23
04.937,-114.93
04.953,-86.81
04.968,-63.96
04.984,-42.86
05.000,-20.63
05.015,2.36
05.031,22.74
05.046,36.31
05.062,40.34
05.078,34.71
05.093,20.72
05.109,-0.91
05.125,-30.8
05.140,-69.15
05.156,-113.33
05.171,-156.02
05.187,-187.16
05.203,-197.79
05.218,-183.62
05.234,-147.23
05.250,-97.4
05.265,-45.62
05.281,-1.73
05.296,28.7
05.312,45.52
05.328,52.18
05.343,53.49
05.359,54.36
05.375,59.14
05.390,71.07
05.406,92.63
05.421,124.12
05.437,162.39
05.453,200.94
05.468,231.06
05.484,244.47
05.500,236.82
05.515,209.8
05.531,169.9
05.546,125.67
05.562,83.75
05.578,46.07
05.593,10.74
05.609,-24.91
05.625,-61.08
05.640,-93.81
05.656,-116.28
05.671,-122.56
05.687,-110.75
05.703,-84.52
05.718,-51.82
05.734,-21.8
05.750,-1.78
05.765,3.56
05.781,-6.96
05.796,-31.56
05.812,-65.53
05.828,-101.19
05.843,-129.41
05.859,-142.64
05.875,-137.61
05.890,-116.97
05.906,-88.19
05.921,-59.71
05.937,-37.48
05.953,-23.45
05.968,-16.85
05.984,-16.24
06.000,-21.5
06.015,-33.04
06.031,-49.75
06.046,-68.49
06.062,-84.7
06.078,-95.05
06.093,-99.28
06.109,-100.19
06.125,-100.86
06.140,-102.3
06.156,-102.1
06.171,-95.44
06.187,-78.41
06.203,-50.14
06.218,-13.37
06.234,26.4
06.250,63.21
06.265,92.19
06.281,111.06
06.296,120.23
06.312,123.0
06.328,124.22
06.343,129.53
06.359,143.97
06.375,170.67
06.390,209.66
06.406,256.62
06.421,303.09
06.437,338.34
06.453,352.87
06.468,341.49
06.484,305.76
06.500,253.37
06.515,194.81
06.531,139.3
06.546,91.47
06.562,50.47
06.578,11.96
06.593,-28.59
06.609,-72.94
06.625,-118.38
06.640,-157.8
06.656,-182.51
06.671,-185.35
06.687,-164.1
06.703,-123.52
06.718,-74.9
06.734,-32.6
06.750,-9.08
06.765,-11.23
06.781,-37.58
06.796,-79.44
06.812,-123.94
06.828,-158.25
06.843,-173.52
06.859,-167.31
06.875,-143.8
06.890,-111.46
06.906,-80.16
06.921,-58.02
06.937,-49.8
06.953,-56.49
06.968,-76.03
06.984,-103.99
07.000,-133.74
07.015,-156.98
07.031,-165.16
07.046,-152.6
07.062,-119.99
07.078,-75.43
07.093,-32.52
07.109,-4.3
07.125,2.49
07.140,-8.71
07.156,-26.12
07.171,-35.57
07.187,-27.3
07.203,-0.24
07.218,39.02
07.234,79.91
07.250,113.53
07.265,135.43
07.281,145.96
07.296,148.54
07.312,147.59
07.328,146.94
07.343,149.53
07.359,157.85
07.375,172.67
07.390,192.32
07.406,212.18
07.421,225.46
07.437,225.44
07.453,208.58
07.468,176.26
07.484,134.32
07.500,90.84
07.515,52.48
07.531,22.11
07.546,-1.68
07.562,-23.22
07.578,-46.49
07.593,-72.71
07.609,-98.88
07.625,-119.01
07.640,-126.5
07.656,-117.07
07.671,-90.83
07.687,-52.4
07.703,-10.28
07.718,26.33
07.734,49.95
07.750,57.04
07.765,48.52
07.781,28.94
07.796,4.68
07.812,-17.83
07.828,-33.47
07.843,-40.05
07.859,-38.48
07.875,-31.92
07.890,-24.47
07.906,-19.33
07.921,-17.93
07.937,-20.54
07.953,-27.4
07.968,-39.32
07.984,-57.29
08.000,-80.59
08.015,-105.42
08.031,-125.48
08.046,-134.36
08.062,-129.37
08.078,-113.75
08.093,-96.14
08.109,-85.21
08.125,-84.97
08.140,-91.67
08.156,-95.48
08.171,-86.41
08.187,-60.26
08.203,-21.11
08.218,21.73
08.234,57.88
08.250,82.09
08.265,96.02
08.281,105.82
08.296,118.52
08.312,138.57
08.328,166.95
08.343,202.66
08.359,244.2
08.375,289.74
08.390,336.05
08.406,377.35
08.421,405.51
08.437,412.84
08.453,394.83
08.468,352.12
08.484,290.43
08.500,218.07
08.515,142.9
08.531,70.19
08.546,2.32
08.562,-59.69
08.578,-113.57
08.593,-155.91
08.609,-182.99
08.625,-192.91
08.640,-187.56
08.656,-172.46
08.671,-154.61
08.687,-140.06
08.703,-132.15
08.718,-129.44
08.734,-127.88
08.750,-122.98
08.765,-111.76
08.781,-94.33
08.796,-73.38
08.812,-52.69
08.828,-35.69
08.843,-24.4
08.859,-19.07
08.875,-18.67
08.890,-21.59
08.906,-26.44
08.921,-33.22
08.937,-42.93
08.953,-56.63
08.968,-74.28
08.984,-93.57
09.000,-110.58
09.015,-122.07
09.031,-127.83
09.046,-131.1
09.062,-136.86
09.078,-147.84
09.093,-161.56
09.109,-170.49
09.125,-165.48
09.140,-140.5
09.156,-96.16
09.171,-39.88
09.187,17.34
09.203,65.36
09.218,98.68
09.234,117.6
09.250,127.03
09.265,133.44
09.281,142.66
09.296,158.34
09.312,181.38
09.328,209.55
09.343,237.49
09.359,257.95
09.375,263.81
09.390,251.1
09.406,220.57
09.421,177.79
09.437,130.83
09.453,87.07
09.468,50.81
09.484,22.12
09.500,-1.7
09.515,-24.47
09.531,-48.98
09.546,-76.28
09.562,-105.38
09.578,-133.55
09.593,-156.71
09.609,-170.04
09.625,-169.95
09.640,-155.77
09.656,-131.34
09.671,-103.85
09.687,-81.47
09.703,-69.74
09.718,-69.39
09.734,-76.65
09.750,-85.13
09.765,-89.2
09.781,-86.08
09.796,-76.59
09.812,-63.95
09.828,-51.53
09.843,-41.55
09.859,-34.3
09.875,-28.84
09.890,-23.97
09.906,-19.21
09.921,-14.59
09.937,-10.47
09.953,-7.38
09.968,-5.32
09.984,-5.04
10.000,-8.23
10.015,-17.78
10.031,-36.31
10.046,-64.1
10.062,-97.16
10.078,-127.35
10.093,-145.13
10.109,-142.55
10.125,-117.43
10.140,-74.1
10.156,-22.23
10.171,27.1
10.187,65.63
10.203,90.27
10.218,102.76
10.234,107.63
10.250,110.28
10.265,114.93
10.281,124.3
10.296,138.59
10.312,154.98
10.328,168.36
10.343,172.7
10.359,163.23
10.375,138.88
10.390,102.88
10.406,60.53
10.421,17.33
10.437,-23.53
10.453,-61.68
10.468,-97.51
10.484,-130.03
10.500,-155.9
10.515,-170.34
10.531,-169.48
10.546,-153.51
10.562,-126.47
10.578,-94.91
10.593,-65.47
10.609,-42.75
10.625,-28.54
10.640,-22.14
10.656,-21.52
10.671,-24.01
10.687,-26.87
10.703,-26.91
10.718,-21.02
10.734,-7.09
10.750,14.67
10.765,40.7
10.781,65.09
10.796,81.46
10.812,85.28
10.828,75.59
10.843,55.34
10.859,29.76
10.875,4.37
10.890,-16.31
10.906,-30.09
10.921,-36.36
10.937,-36.02
10.953,-31.38
10.968,-26.54
10.984,-26.76
11.000,-37.07
11.015,-59.42
11.031,-90.07
11.046,-120.42
11.062,-139.16
11.078,-137.64
11.093,-113.42
11.109,-71.42
11.125,-21.69
11.140,24.74
11.156,60.52
11.171,84.2
11.187,99.04
11.203,111.37
11.218,126.87
11.234,149.25
11.250,180.19
11.265,218.94
11.281,262.19
11.296,304.11
11.312,337.06
11.328,353.23
11.343,347.66
11.359,319.77
11.375,273.61
11.390,216.61
11.406,156.67
11.421,99.77
11.437,48.96
11.453,4.62
11.468,-34.53
11.484,-69.35
11.500,-100.23
11.515,-126.82
11.531,-148.14
11.546,-163.73
11.562,-173.69
11.578,-178.93
11.593,-180.96
11.609,-180.92
11.625,-178.35
11.640,-172.01
11.656,-160.42
11.671,-142.91
11.687,-120.97
11.703,-97.18
11.718,-74.51
11.734,-55.56
11.750,-41.97
11.765,-34.23
11.781,-32.08
11.796,-34.79
11.812,-41.19
11.828,-50.45
11.843,-61.36
11.859,-72.61
11.875,-82.35
11.890,-88.12
11.906,-88.0
11.921,-81.92
11.937,-73.13
11.953,-67.74
11.968,-72.83
11.984,-91.31
12.000,-119.76
12.015,-148.77
12.031,-166.2
12.046,-163.65
12.062,-139.97
12.078,-102.02
12.093,-60.52
12.109,-25.68
12.125,-1.82
12.140,13.34
12.156,26.25
12.171,44.59
12.187,73.02
12.203,113.13
12.218,163.69
12.234,221.95
12.250,283.64
12.265,342.91
12.281,392.37
12.296,424.25
12.312,432.76
12.328,415.2
12.343,373.54
12.359,313.2
12.375,241.39
12.390,165.36
12.406,90.88
12.421,22.14
12.437,-38.13
12.453,-87.54
12.468,-125.36
12.484,-152.02
12.500,-169.71
12.515,-182.82
12.531,-196.22
12.546,-214.11
12.562,-237.85
12.578,-264.5
12.593,-286.18
12.609,-292.81
12.625,-275.85
12.640,-232.68
12.656,-169.8
12.671,-101.03
12.687,-43.33
12.703,-10.57
12.718,-8.39
12.734,-32.78
12.750,-72.61
12.765,-113.94
12.781,-145.03
12.796,-159.22
12.812,-155.18
12.828,-135.87
12.843,-106.62
12.859,-73.18
12.875,-40.67
12.890,-12.71
12.906,8.66
12.921,22.95
12.937,31.1
12.953,35.07
12.968,37.36
12.984,40.64
13.000,47.76
13.015,60.95
13.031,81.12
13.046,107.29
13.062,136.56
13.078,165.7
13.093,192.3
13.109,215.54
13.125,235.62
13.140,252.1
13.156,262.68
13.171,263.26
13.187,249.51
13.203,218.88
13.218,172.92
13.234,117.0
13.250,58.61
13.265,5.3
13.281,-38.28
13.296,-71.51
13.312,-97.31
13.328,-119.78
13.343,-142.26
13.359,-165.0
13.375,-185.3
13.390,-198.84
13.406,-201.46
13.421,-191.09
13.437,-167.97
13.453,-134.01
13.468,-91.62
13.484,-44.39
13.500,2.8
13.515,43.84
13.531,73.03
13.546,87.88
13.562,90.41
13.578,86.5
13.593,82.76
13.609,82.64
13.625,84.25
13.640,81.25
13.656,66.64
13.671,37.22
13.687,-4.35
13.703,-50.78
13.718,-93.57
13.734,-126.33
13.750,-146.8
13.765,-155.91
13.781,-155.96
13.796,-149.25
13.812,-137.7
13.828,-123.03
13.843,-108.09
13.859,-96.96
13.875,-93.72
13.890,-100.19
13.906,-114.35
13.921,-130.12
13.937,-139.0
13.953,-133.51
13.968,-109.89
13.984,-69.5
14.000,-17.59
14.015,38.54
14.031,92.29
14.046,138.99
14.062,175.87
14.078,202.04
14.093,219.04
14.109,231.49
14.125,246.26
14.140,270.05
14.156,305.68
14.171,349.25
14.187,390.19
14.203,414.97
14.218,412.84
14.234,380.7
14.250,323.95
14.265,253.51
14.281,180.43
14.296,111.5
14.312,47.87
14.328,-12.7
14.343,-71.9
14.359,-128.14
14.375,-176.78
14.390,-212.08
14.406,-230.49
14.421,-232.45
14.437,-222.28
14.453,-206.21
14.468,-189.93
14.484,-176.93
14.500,-167.75
14.515,-161.7
14.531,-157.8
14.546,-155.79
14.562,-155.95
14.578,-158.74
14.593,-164.52
14.609,-173.03
14.625,-183.25
14.640,-192.79
14.656,-197.8
14.671,-193.34
14.687,-175.47
14.703,-144.25
14.718,-106.0
14.734,-71.99
14.750,-54.71
14.765,-61.56
14.781,-90.69
14.796,-130.4
14.812,-163.72
14.828,-175.84
14.843,-160.04
14.859,-120.27
14.875,-67.61
14.890,-14.69
14.906,29.85
14.921,63.16
14.937,87.44
14.953,107.25
14.968,127.12
14.984,149.99
15.000,176.14
15.015,203.5
15.031,228.32
15.046,246.04
15.062,252.17
15.078,244.11
15.093,222.44
15.109,192.28
15.125,163.11
15.140,146.59
15.156,153.23
15.171,188.08
15.187,248.13
15.203,321.57
15.218,390.92
15.234,438.32
15.250,451.05
15.265,424.84
15.281,363.32
15.296,275.51
15.312,172.08
15.328,63.44
15.343,-40.52
15.359,-130.07
15.375,-195.99
15.390,-232.24
15.406,-238.42
15.421,-221.04
15.437,-191.95
15.453,-165.0
15.468,-151.31
15.484,-156.01
15.500,-177.82
15.515,-210.75
15.531,-246.73
15.546,-277.79
15.562,-297.59
15.578,-301.85
15.593,-289.54
15.609,-263.09
15.625,-228.0
15.640,-191.25
15.656,-158.78
15.671,-134.07
15.687,-117.06
15.703,-105.39
15.718,-96.22
15.734,-87.89
15.750,-79.97
15.765,-72.6
15.781,-65.73
15.796,-58.66
15.812,-50.9
15.828,-42.88
15.843,-35.91
15.859,-31.61
15.875,-30.23
15.890,-29.61
15.906,-26.06
15.921,-16.04
15.937,1.91
15.953,26.25
15.968,53.82
15.984,81.92
16.000,109.78
16.015,138.47
16.031,169.53
16.046,202.58
16.062,234.23
16.078,259.23
16.093,272.22
16.109,270.25
16.125,253.96
16.140,226.79
16.156,193.13
16.171,156.11
16.187,116.64
16.203,73.59
16.218,25.73
16.234,-26.68
16.250,-80.91
16.265,-131.85
16.281,-173.78
16.296,-201.94
16.312,-214.07
16.328,-210.93
16.343,-196.12
16.359,-174.97
16.375,-152.91
16.390,-133.87
16.406,-119.08
16.421,-106.73
16.437,-92.88
16.453,-73.7
16.468,-48.16
16.484,-19.71
16.500,4.34
16.515,15.12
16.531,6.35
16.546,-22.37
16.562,-64.71
16.578,-108.96
16.593,-142.17
16.609,-155.07
16.625,-145.39
16.640,-117.84
16.656,-81.88
16.671,-47.7
16.687,-22.58
16.703,-9.31
16.718,-6.79
16.734,-11.78
16.750,-20.86
16.765,-30.98
16.781,-39.07
16.796,-41.96
16.812,-37.04
16.828,-23.7
16.843,-4.63
16.859,14.48
16.875,27.28
16.890,29.81
16.906,22.9
16.921,12.46
16.937,6.74
16.953,12.54
16.968,32.49
16.984,64.3
17.000,102.44
17.015,141.12
17.031,176.35
17.046,206.75
17.062,232.13
17.078,251.71
17.093,263.13
17.109,263.22
17.125,249.99
17.140,224.63
17.156,191.91
17.171,158.3
17.187,129.18
17.203,106.19
17.218,86.49
17.234,65.03
17.250,37.44
17.265,2.39
17.281,-37.59
17.296,-77.42
17.312,-111.9
17.328,-137.41
17.343,-152.5
17.359,-157.82
17.375,-154.82
17.390,-145.07
17.406,-129.97
17.421,-110.76
17.437,-88.72
17.453,-65.78
17.468,-45.35
17.484,-31.89
17.500,-29.83
17.515,-41.46
17.531,-65.28
17.546,-95.24
17.562,-122.69
17.578,-139.26
17.593,-139.83
17.609,-124.21
17.625,-96.92
17.640,-64.81
17.656,-34.56
17.671,-11.12
17.687,3.3
17.703,8.54
17.718,5.57
17.734,-4.13
17.750,-18.18
17.765,-33.21
17.781,-44.68
17.796,-47.88
17.812,-40.18
17.828,-22.77
17.843,-0.91
17.859,17.43
17.875,25.09
17.890,19.17
17.906,2.9
17.921,-15.32
17.937,-25.25
17.953,-18.85
17.968,6.43
17.984,47.31
18.000,96.47
18.015,145.35
18.031,187.17
18.046,218.28
18.062,237.88
18.078,246.92
18.093,246.82
18.109,239.02
18.125,224.77
18.140,205.53
18.156,182.62
18.171,156.88
18.187,128.29
18.203,95.96
18.218,58.63
18.234,15.46
18.250,-33.03
18.265,-84.73
18.281,-135.72
18.296,-180.96
18.312,-214.84
18.328,-232.7
18.343,-232.02
18.359,-213.44
18.375,-180.9
18.390,-140.52
18.406,-98.91
18.421,-61.08
18.437,-29.89
18.453,-6.12
18.468,9.87
18.484,17.39
18.500,15.7
18.515,5.0
18.531,-12.28
18.546,-31.44
18.562,-46.48
18.578,-52.58
18.593,-47.89
18.609,-34.73
18.625,-18.53
18.640,-5.29
18.656,0.86
18.671,-0.61
18.687,-7.1
18.703,-14.45
18.718,-19.11
18.734,-19.33
18.750,-15.18
18.765,-7.67
18.781,2.87
18.796,16.24
18.812,31.92
18.828,47.57
18.843,58.71
18.859,60.07
18.875,48.69
18.890,26.62
18.906,1.05
18.921,-17.36
18.937,-19.0
18.953,1.02
18.968,40.48
18.984,91.48
19.000,143.9
19.015,189.68
19.031,225.57
19.046,252.33
19.062,272.58
19.078,287.33
19.093,295.23
19.109,292.6
19.125,275.92
19.140,243.67
19.156,197.25
19.171,140.57
19.187,78.01
19.203,13.61
19.218,-49.4
19.234,-107.08
19.250,-153.9
19.265,-183.05
19.281,-188.88
19.296,-170.85
19.312,-135.54
19.328,-96.1
19.343,-67.08
19.359,-58.39
19.375,-70.92
19.390,-96.31
19.406,-121.5
19.421,-135.1
19.437,-132.41
19.453,-115.62
19.468,-90.93
19.484,-63.55
19.500,-34.73
19.515,-2.96
19.531,33.23
19.546,72.21
19.562,109.04
19.578,136.87
19.593,150.98
19.609,150.88
19.625,141.24
19.640,130.3
19.656,125.35
19.671,130.4
19.687,145.05
19.703,166.0
19.718,188.6
19.734,208.64
19.750,222.41
19.765,227.07
19.781,221.59
19.796,205.27
19.812,178.36
19.828,141.98
19.843,98.61
19.859,51.04
19.875,1.58
19.890,-48.52
19.906,-98.37
19.921,-145.95
19.937,-190.09
19.953,-230.19
19.968,-266.31
19.984,-298.18
20.000,-323.01
20.015,-335.27
20.031,-331.25
20.046,-316.64
20.062,-294.84
20.078,-268.23
20.093,-237.65
20.109,-206.65
20.125,-179.96
20.140,-161.59
20.156,-153.49
20.171,-154.02
20.187,-156.9
20.203,-151.69
20.218,-129.6
20.234,-86.79
20.250,-26.69
20.265,42.22
20.281,109.64
20.296,166.43
20.312,207.5
20.328,232.68
20.343,246.55
20.359,254.21
20.375,260.01
20.390,265.9
20.406,273.49
20.421,284.07
20.437,296.35
20.453,306.49
20.468,309.23
20.484,300.36
20.500,277.48
20.515,242.29
20.531,198.86
20.546,154.61
20.562,117.54
20.578,90.86
20.593,73.34
20.609,61.76
20.625,53.72
20.640,48.09
20.656,45.16
20.671,41.88
20.687,34.78
20.703,20.15
20.718,-8.48
20.734,-56.02
20.750,-122.87
20.765,-203.06
20.781,-287.33
20.796,-364.84
20.812,-431.24
20.828,-484.52
20.843,-503.7
20.859,-472.41
20.875,-389.07
20.890,-271.97
20.906,-146.1
20.921,-41.38
20.937,44.3
20.953,115.46
20.968,175.04
20.984,223.06
21.000,256.28
21.015,271.1
21.031,267.3
21.046,249.96
21.062,225.84
21.078,202.81
21.093,182.96
21.109,166.36
21.125,151.81
21.140,135.54
21.156,114.63
21.171,88.23
21.187,58.71
21.203,29.89
21.218,6.34
21.234,-11.44
21.250,-24.68
21.265,-35.7
21.281,-49.16
21.296,-68.98
21.312,-98.8
21.328,-140.67
21.343,-195.37
21.359,-260.41
21.375,-330.95
21.390,-398.79
21.406,-454.06
21.421,-490.38
21.437,-505.87
21.453,-504.3
21.468,-490.51
21.484,-467.94
21.500,-436.28
21.515,-393.98
21.531,-341.4
21.546,-282.37
21.562,-224.46
21.578,-175.11
21.593,-138.93
21.609,-114.11
21.625,-93.42
21.640,-67.42
21.656,-30.7
21.671,16.06
21.687,67.64
21.703,117.84
21.718,162.51
21.734,197.31
21.750,218.0
21.765,220.0
21.781,200.4
21.796,158.94
21.812,99.13
21.828,28.39
21.843,-43.5
21.859,-96.24
21.875,-112.98
21.890,-89.73
21.906,-39.2
21.921,20.08
21.937,75.02
21.953,121.38
21.968,160.11
21.984,193.15
22.000,221.21
22.015,241.77
22.031,252.54
22.046,252.85
22.062,245.64
22.078,235.05
22.093,223.88
22.109,212.81
22.125,200.16
22.140,182.91
22.156,156.65
22.171,117.16
22.187,61.19
22.203,-6.4
22.218,-77.3
22.234,-143.08
22.250,-196.19
22.265,-229.91
22.281,-239.22
22.296,-223.72
22.312,-188.05
22.328,-141.8
22.343,-95.82
22.359,-59.52
22.375,-38.19
22.390,-31.47
22.406,-34.28
22.421,-40.27
22.437,-45.97
22.453,-50.79
22.468,-55.58
22.484,-59.66
22.500,-61.73
22.515,-59.6
22.531,-52.08
22.546,-38.92
22.562,-21.17
22.578,-0.56
22.593,20.23
22.609,39.1
22.625,55.85
22.640,70.74
22.656,84.88
22.671,99.99
22.687,118.61
22.703,139.85
22.718,163.5
22.734,189.1
22.750,216.13
22.765,244.04
22.781,271.88
22.796,298.06
22.812,310.69
22.828,301.4
22.843,268.66
22.859,218.64
22.875,160.63
22.890,102.59
22.906,48.86
22.921,0.31
22.937,-42.09
22.953,-77.95
22.968,-106.53
22.984,-127.39
23.000,-141.2
23.015,-150.23
23.031,-156.7
23.046,-162.5
23.062,-169.51
23.078,-178.24
23.093,-188.22
23.109,-197.74
23.125,-204.49
23.140,-207.41
23.156,-207.02
23.171,-205.42
23.187,-203.31
23.203,-201.39
23.218,-199.8
23.234,-198.3
23.250,-195.9
23.265,-191.09
23.281,-183.26
23.296,-172.83
23.312,-161.04
23.328,-149.22
23.343,-138.7
23.359,-130.14
23.375,-123.66
23.390,-118.29
23.406,-112.0
23.421,-103.39
23.437,-92.19
23.453,-79.11
23.468,-65.49
23.484,-52.55
23.500,-40.26
23.515,-27.12
23.531,-14.26
23.546,-0.39
23.562,15.87
23.578,35.17
23.593,57.48
23.609,81.99
23.625,107.61
23.640,133.77
23.656,160.93
23.671,190.27
23.687,224.19
23.703,264.89
23.718,313.83
23.734,371.46
23.750,436.11
23.765,503.22
23.781,564.88
23.796,611.21
23.812,633.02
23.828,625.49
23.843,589.71
23.859,532.49
23.875,463.78
23.890,392.95
23.906,326.15
23.921,265.7
23.937,211.4
23.953,162.82
23.968,120.97
23.984,87.43
24.000,63.15
24.015,47.03
24.031,35.4
24.046,23.6
24.062,7.66
24.078,-14.44
24.093,-42.37
24.109,-73.57
24.125,-104.5
24.140,-131.67
24.156,-152.05
24.171,-163.84
24.187,-166.21
24.203,-159.6
24.218,-145.64
24.234,-126.44
24.250,-103.87
24.265,-78.54
24.281,-50.08
24.296,-18.02
24.312,17.02
24.328,52.54
24.343,84.29
24.359,107.05
24.375,116.63
24.390,110.78
24.406,90.49
24.421,59.25
24.437,22.01
24.453,-16.49
24.468,-53.01
24.484,-86.11
24.500,-115.35
24.515,-139.61
24.531,-156.69
24.546,-162.24
24.562,-151.18
24.578,-119.33
24.593,-66.39
24.609,2.5
24.625,76.93
24.640,143.68
24.656,191.0
24.671,211.41
24.687,204.16
24.703,174.37
24.718,130.54
24.734,81.02
24.750,31.46
24.765,-15.52
24.781,-59.22
24.796,-99.24
24.812,-135.96
24.828,-169.17
24.843,-198.63
24.859,-224.17
24.875,-245.59
24.890,-262.57
24.906,-273.98
24.921,-278.05
24.937,-272.91
24.953,-260.2
24.968,-242.69
24.984,-223.42
25.000,-204.01
25.015,-184.39
25.031,-164.25
25.046,-143.69
25.062,-124.25
25.078,-107.92
25.093,-100.16
25.109,-104.08
25.125,-118.91
25.140,-139.79
25.156,-161.02
25.171,-179.83
25.187,-197.56
25.203,-218.33
25.218,-245.49
25.234,-284.01
25.250,-334.39
25.265,-392.6
25.281,-452.27
25.296,-508.2
25.312,-559.31
25.328,-607.43
25.343,-654.23
25.359,-667.07
25.375,-620.18
25.390,-504.65
25.406,-336.6
25.421,-148.38
25.437,29.72
25.453,179.98
25.468,297.56
25.484,385.59
25.500,450.72
25.515,494.89
25.531,518.64
25.546,523.18
25.562,513.35
25.578,494.33
25.593,471.01
25.609,447.41
25.625,426.42
25.640,409.93
25.656,395.21
25.671,378.7
25.687,357.85
25.703,332.44
25.718,303.91
25.734,274.39
25.750,245.24
25.765,218.61
25.781,196.15
25.796,176.46
25.812,157.5
25.828,137.29
25.843,114.83
25.859,90.11
25.875,64.23
25.890,38.07
25.906,12.61
25.921,-11.52
25.937,-34.71
25.953,-56.38
25.968,-74.27
25.984,-84.63
26.000,-84.02
26.015,-70.76
26.031,-46.43
26.046,-15.21
26.062,17.81
26.078,48.37
26.093,74.62
26.109,97.18
26.125,117.65
26.140,136.25
26.156,150.97
26.171,157.83
26.187,152.88
26.203,134.31
26.218,103.62
26.234,65.22
26.250,24.69
26.265,-12.92
26.281,-44.71
26.296,-70.0
26.312,-89.76
26.328,-105.53
26.343,-118.26
26.359,-128.4
26.375,-135.98
26.390,-141.25
26.406,-144.76
26.421,-147.47
26.437,-150.25
26.453,-154.1
26.468,-160.25
26.484,-169.63
26.500,-183.05
26.515,-200.69
26.531,-221.92
26.546,-245.36
26.562,-269.56
26.578,-293.37
26.593,-316.06
26.609,-336.46
26.625,-352.93
26.640,-363.62
26.656,-368.11
26.671,-368.68
26.687,-369.75
26.703,-375.64
26.718,-387.27
26.734,-399.94
26.750,-403.83
26.765,-388.43
26.781,-348.13
26.796,-285.39
26.812,-209.02
26.828,-130.14
26.843,-56.94
26.859,7.45
26.875,64.49
26.890,118.19
26.906,171.81
26.921,225.77
26.937,278.05
26.953,326.98
26.968,372.39
26.984,414.2
27.000,452.17
27.015,478.07
27.031,481.72
27.046,458.01
27.062,410.83
27.078,349.41
27.093,283.19
27.109,220.72
27.125,166.38
27.140,121.33
27.156,84.4
27.171,54.01
27.187,28.33
27.203,5.77
27.218,-16.7
27.234,-39.02
27.250,-58.57
27.265,-72.13
27.281,-76.39
27.296,-69.69
27.312,-51.82
27.328,-25.47
27.343,3.82
27.359,29.66
27.375,44.04
27.390,44.1
27.406,32.99
27.421,19.35
27.437,11.9
27.453,15.42
27.468,29.68
27.484,49.8
27.500,68.86
27.515,82.71
27.531,92.77
27.546,101.76
27.562,111.91
27.578,122.99
27.593,133.5
27.609,139.75
27.625,138.83
27.640,129.52
27.656,111.97
27.671,87.86
27.687,59.19
27.703,28.9
27.718,0.71
27.734,-21.1
27.750,-31.43
27.765,-29.39
27.781,-18.71
27.796,-5.89
27.812,3.04
27.828,4.73
27.843,0.02
27.859,-8.35
27.875,-17.52
27.890,-25.23
27.906,-31.52
27.921,-37.36
27.937,-42.97
27.953,-47.39
27.968,-49.4
27.984,-47.53
28.000,-41.92
28.015,-34.97
28.031,-28.86
28.046,-25.56
28.062,-25.6
28.078,-27.98
28.093,-30.83
28.109,-32.29
28.125,-31.33
28.140,-28.2
28.156,-24.09
28.171,-20.37
28.187,-18.34
28.203,-18.49
28.218,-20.28
28.234,-22.66
28.250,-24.54
28.265,-25.25
28.281,-24.85
28.296,-23.87
28.312,-22.97
28.328,-22.96
28.343,-24.22
28.359,-26.53
28.375,-29.52
28.390,-32.71
28.406,-35.86
28.421,-39.16
28.437,-42.83
28.453,-47.01
28.468,-51.95
28.484,-57.56
28.500,-63.27
28.515,-68.47
28.531,-72.53
28.546,-74.81
28.562,-74.93
28.578,-73.17
28.593,-69.0
28.609,-62.56
28.625,-54.19
28.640,-44.39
28.656,-33.7
28.671,-22.8
28.687,-12.34
28.703,-2.85
28.718,5.25
28.734,11.93
28.750,17.12
28.765,21.04
28.781,23.86
28.796,25.95
28.812,27.59
28.828,29.12
28.843,30.59
28.859,32.0
28.875,33.26
28.890,34.1
28.906,34.4
28.921,33.86
28.937,32.39
28.953,29.85
28.968,26.4
28.984,21.95
29.000,16.76
29.015,11.08
29.031,5.23
29.046,-0.44
29.062,-5.69
29.078,-10.47
29.093,-14.89
29.109,-19.07
29.125,-23.15
29.140,-27.34
29.156,-31.83
29.171,-36.78
29.187,-42.4
29.203,-48.73
29.218,-55.65
29.234,-62.86
29.250,-70.13
29.265,-77.35
29.281,-84.1
29.296,-89.94
29.312,-94.22
29.328,-96.42
29.343,-96.19
29.359,-93.51
29.375,-88.65
29.390,-82.06
29.406,-74.44
29.421,-66.58
29.437,-59.29
29.453,-53.01
29.468,-48.46
29.484,-46.5
29.500,-47.77
29.515,-52.62
29.531,-61.33
29.546,-73.82
29.562,-89.63
29.578,-110.99
29.593,-138.01
29.609,-169.75
29.625,-204.61
29.640,-240.63
29.656,-275.15
29.671,-305.62
29.687,-329.74
29.703,-345.87
29.718,-352.94
29.734,-350.33
29.750,-338.21
29.765,-317.96
29.781,-291.93
29.796,-262.93
29.812,-233.95
29.828,-207.99
29.843,-187.6
29.859,-174.23
29.875,-167.79
29.890,-166.98
29.906,-169.6
29.921,-172.53
29.937,-172.43
29.953,-165.8
29.968,-149.63
29.984,-121.62
30.000,-80.05
30.015,-23.65
30.031,47.73
30.046,132.79
30.062,228.3
30.078,329.15
30.093,428.75
30.109,519.26
30.125,593.07
30.140,644.13
30.156,669.66
30.171,670.48
30.187,650.54
30.203,615.49
30.218,571.12
30.234,521.95
30.250,470.77
30.265,419.3
30.281,368.69
30.296,320.15
30.312,275.53
30.328,237.11
30.343,207.17
30.359,187.47
30.375,178.63
30.390,179.56
30.406,187.15
30.421,196.33
30.437,200.31
30.453,192.29
30.468,167.68
30.484,126.23
30.500,73.23
30.515,18.54
30.531,-26.73
30.546,-54.15
30.562,-61.11
30.578,-51.65
30.593,-33.49
30.609,-14.18
30.625,1.81
30.640,13.94
30.656,23.99
30.671,33.43
30.687,41.83
30.703,47.12
30.718,46.71
30.734,39.65
30.750,27.1
30.765,11.65
30.781,-3.55
30.796,-15.88
30.812,-23.83
30.828,-27.04
30.843,-25.82
30.859,-20.99
30.875,-13.39
30.890,-4.2
30.906,5.03
30.921,12.82
30.937,18.08
30.953,20.42
30.968,20.48
30.984,19.61
31.000,19.43
31.015,21.69
31.031,27.65
31.046,38.0
31.062,52.7
31.078,70.87
31.093,90.62
31.109,109.6
31.125,125.43
31.140,136.27
31.156,141.75
31.171,142.87
31.187,141.71
31.203,140.78
31.218,141.96
31.234,145.85
31.250,152.16
31.265,160.21
31.281,169.55
31.296,180.44
31.312,193.36
31.328,208.08
31.343,222.81
31.359,233.32
31.375,233.68
31.390,217.93
31.406,181.88
31.421,124.94
31.437,50.9
31.453,-33.0
31.468,-117.11
31.484,-191.2
31.500,-246.67
31.515,-278.28
31.531,-285.5
31.546,-272.85
31.562,-248.67
31.578,-221.84
31.593,-199.25
31.609,-183.52
31.625,-173.11
31.640,-164.77
31.656,-156.7
31.671,-150.2
31.687,-150.03
31.703,-162.06
31.718,-190.3
31.734,-234.65
31.750,-290.12
31.765,-347.4
31.781,-395.02
31.796,-422.69
31.812,-424.12
31.828,-399.3
31.843,-354.2
31.859,-298.65
31.875,-242.77
31.890,-193.67
31.906,-153.46
31.921,-119.78
31.937,-88.26
31.953,-55.4
31.968,-20.35
31.984,15.38
32.000,49.92
32.015,82.9
32.031,116.17
32.046,153.04
32.062,196.76
32.078,247.51
32.093,300.64
32.109,346.94
32.125,375.5
32.140,378.06
32.156,351.96
32.171,301.22
32.187,235.1
32.203,165.99
32.218,104.92
32.234,58.29
32.250,26.51
32.265,5.39
32.281,-10.47
32.296,-25.97
32.312,-44.69
32.328,-66.35
32.343,-86.43
32.359,-98.57
32.375,-97.0
32.390,-79.23
32.406,-46.84
32.421,-4.36
32.437,40.26
32.453,74.28
32.468,85.9
32.484,68.77
32.500,22.83
32.515,-44.63
32.531,-120.29
32.546,-188.32
32.562,-232.93
32.578,-243.75
32.593,-221.6
32.609,-173.07
32.625,-104.82
32.640,-22.54
32.656,70.13
32.671,171.3
32.687,265.83
32.703,335.92
32.718,387.69
32.734,422.98
32.750,432.56
32.765,415.34
32.781,376.62
32.796,325.25
32.812,270.43
32.828,218.42
32.843,172.39
32.859,132.27
32.875,93.23
32.890,52.1
32.906,10.94
32.921,-26.27
32.937,-56.18
32.953,-78.27
32.968,-94.96
32.984,-108.96
33.000,-122.17
33.015,-136.99
33.031,-153.3
33.046,-167.43
33.062,-176.23
33.078,-178.2
33.093,-174.39
33.109,-167.72
33.125,-160.99
33.140,-156.27
33.156,-155.85
33.171,-160.24
33.187,-167.26
33.203,-174.39
33.218,-179.6
33.234,-181.78
33.250,-181.08
33.265,-178.1
33.281,-173.78
33.296,-170.06
33.312,-168.93
33.328,-171.07
33.343,-175.99
33.359,-181.97
33.375,-186.08
33.390,-185.65
33.406,-179.37
33.421,-168.52
33.437,-156.6
33.453,-148.21
33.468,-146.48
33.484,-151.44
33.500,-159.5
33.515,-164.37
33.531,-159.32
33.546,-138.85
33.562,-100.53
33.578,-45.26
33.593,22.82
33.609,96.83
33.625,167.88
33.640,226.56
33.656,265.38
33.671,281.04
33.687,276.41
33.703,260.3
33.718,244.12
33.734,237.77
33.750,245.69
33.765,265.22
33.781,287.92
33.796,303.37
33.812,302.74
33.828,281.69
33.843,241.2
33.859,186.17
33.875,123.92
33.890,61.88
33.906,6.1
33.921,-39.7
33.937,-73.64
33.953,-95.43
33.968,-106.07
33.984,-107.31
34.000,-102.11
34.015,-94.01
34.031,-86.77
34.046,-83.29
34.062,-84.55
34.078,-89.59
34.093,-96.15
34.109,-101.43
34.125,-102.97
34.140,-99.39
34.156,-90.65
34.171,-77.97
34.187,-63.49
34.203,-48.86
34.218,-35.09
34.234,-22.67
34.250,-11.74
34.265,-2.2
34.281,6.44
34.296,15.4
34.312,26.54
34.328,41.43
34.343,61.3
34.359,84.99
34.375,108.62
34.390,126.69
34.406,134.5
34.421,130.79
34.437,118.89
34.453,106.02
34.468,99.95
34.484,107.48
34.500,131.09
34.515,168.14
34.531,211.73
34.546,252.58
34.562,281.25
34.578,290.47
34.593,276.78
34.609,235.01
34.625,167.28
34.640,82.57
34.656,-5.75
34.671,-84.38
34.687,-144.66
34.703,-184.36
34.718,-205.89
34.734,-213.37
34.750,-210.84
34.765,-200.95
34.781,-186.33
34.796,-170.33
34.812,-155.9
34.828,-144.93
34.843,-137.67
34.859,-132.89
34.875,-128.62
34.890,-123.38
34.906,-115.99
34.921,-106.39
34.937,-95.93
34.953,-86.33
34.968,-79.01
34.984,-74.42
35.000,-71.86
35.015,-69.92
35.031,-67.25
35.046,-62.7
35.062,-56.1
35.078,-48.34
35.093,-40.88
35.109,-35.22
35.125,-32.16
35.140,-31.42
35.156,-31.82
35.171,-31.83
35.187,-30.09
35.203,-26.1
35.218,-20.49
35.234,-14.73
35.250,-10.5
35.265,-8.95
35.281,-10.09
35.296,-12.74
35.312,-15.03
35.328,-15.28
35.343,-12.83
35.359,-8.28
35.375,-3.01
35.390,1.2
35.406,3.25
35.421,2.79
35.437,0.25
35.453,-3.65
35.468,-8.06
35.484,-11.36
35.500,-10.94
35.515,-3.79
35.531,11.58
35.546,33.45
35.562,56.36
35.578,73.12
35.593,78.22
35.609,70.88
35.625,55.22
35.640,38.26
35.656,26.31
35.671,21.91
35.687,23.22
35.703,25.94
35.718,26.36
35.734,23.3
35.750,18.15
35.765,13.29
35.781,10.2
35.796,8.43
35.812,6.04
35.828,1.03
35.843,-7.58
35.859,-19.26
35.875,-32.04
35.890,-43.25
35.906,-50.56
35.921,-52.65
35.937,-50.01
35.953,-44.56
35.968,-39.12
35.984,-36.21
36.000,-37.18
36.015,-41.86
36.031,-48.01
36.046,-52.41
36.062,-51.94
36.078,-45.34
36.093,-33.9
36.109,-21.09
36.125,-10.68
36.140,-5.25
36.156,-5.37
36.171,-9.36
36.187,-14.87
36.203,-19.94
36.218,-23.19
36.234,-23.36
36.250,-18.53
36.265,-6.55
36.281,12.57
36.296,34.97
36.312,53.86
36.328,62.09
36.343,56.5
36.359,40.83
36.375,24.27
36.390,17.69
36.406,27.77
36.421,53.51
36.437,87.0
36.453,119.2
36.468,144.36
36.484,162.56
36.500,178.8
36.515,197.79
36.531,218.23
36.546,236.06
36.562,245.36
36.578,236.92
36.593,206.82
36.609,158.4
36.625,100.65
36.640,44.62
36.656,-1.91
36.671,-35.98
36.687,-59.51
36.703,-77.63
36.718,-95.52
36.734,-115.4
36.750,-137.07
36.765,-160.06
36.781,-178.73
36.796,-192.08
36.812,-200.96
36.828,-205.87
36.843,-206.57
36.859,-202.23
36.875,-191.93
36.890,-175.95
36.906,-156.24
36.921,-135.74
36.937,-118.01
36.953,-104.68
36.968,-94.93
36.984,-86.68
37.000,-77.16
37.015,-63.72
37.031,-44.75
37.046,-20.7
37.062,5.8
37.078,29.28
37.093,44.06
37.109,46.76
37.125,37.0
37.140,18.19
37.156,-3.88
37.171,-23.23
37.187,-36.08
37.203,-41.38
37.218,-40.79
37.234,-37.25
37.250,-33.45
37.265,-33.24
37.281,-40.22
37.296,-56.53
37.312,-81.1
37.328,-108.91
37.343,-131.75
37.359,-140.96
37.375,-130.84
37.390,-100.35
37.406,-54.39
37.421,0.4
37.437,58.37
37.453,117.19
37.468,178.08
37.484,244.0
37.500,316.97
37.515,391.31
37.531,465.31
37.546,529.66
37.562,574.26
37.578,590.6
37.593,574.42
37.609,526.78
37.625,453.82
37.640,364.51
37.656,267.78
37.671,171.53
37.687,80.12
37.703,-3.51
37.718,-77.03
37.734,-138.57
37.750,-187.44
37.765,-224.96
37.781,-254.72
37.796,-281.59
37.812,-308.72
37.828,-337.02
37.843,-363.6
37.859,-383.06
37.875,-390.08
37.890,-382.38
37.906,-362.5
37.921,-336.99
37.937,-314.18
37.953,-300.72
37.968,-300.11
37.984,-311.18
38.000,-329.36
38.015,-348.35
38.031,-362.26
38.046,-367.32
38.062,-362.08
38.078,-347.2
38.093,-324.01
38.109,-294.1
38.125,-258.39
38.140,-217.6
38.156,-172.84
38.171,-126.53
38.187,-82.29
38.203,-44.13
38.218,-15.27
38.234,3.19
38.250,12.31
38.265,14.7
38.281,13.35
38.296,10.92
38.312,9.46
38.328,10.77
38.343,16.42
38.359,27.61
38.375,44.69
38.390,67.21
38.406,94.12
38.421,124.32
38.437,157.21
38.453,193.34
38.468,234.22
38.484,281.41
38.500,334.78
38.515,391.03
38.531,443.15
38.546,481.13
38.562,495.11
38.578,478.69
38.593,432.1
38.609,362.68
38.625,282.12
38.640,201.91
38.656,129.09
38.671,64.93
38.687,6.52
38.703,-49.49
38.718,-103.99
38.734,-154.45
38.750,-196.29
38.765,-225.4
38.781,-239.81
38.796,-240.2
38.812,-228.75
38.828,-207.9
38.843,-179.8
38.859,-146.91
38.875,-112.57
38.890,-81.38
38.906,-58.26
38.921,-46.53
38.937,-46.57
38.953,-55.31
38.968,-66.84
38.984,-74.39
39.000,-73.1
39.015,-61.97
39.031,-44.4
39.046,-26.91
39.062,-16.08
39.078,-15.84
39.093,-25.96
39.109,-42.29
39.125,-58.73
39.140,-69.87
39.156,-72.86
39.171,-67.8
39.187,-57.19
39.203,-44.58
39.218,-33.46
39.234,-26.86
39.250,-26.76
39.265,-33.55
39.281,-45.51
39.296,-58.5
39.312,-67.05
39.328,-65.95
39.343,-52.12
39.359,-25.86
39.375,9.65
39.390,50.01
39.406,91.59
39.421,132.84
39.437,174.76
39.453,219.77
39.468,270.36
39.484,327.64
39.500,389.88
39.515,452.0
39.531,506.12
39.546,542.83
39.562,553.74
39.578,534.28
39.593,485.15
39.609,412.19
39.625,324.41
39.640,230.59
39.656,137.04
39.671,46.81
39.687,-39.19
39.703,-120.34
39.718,-194.24
39.734,-256.58
39.750,-302.48
39.765,-328.36
39.781,-334.05
39.796,-322.76
39.812,-300.05
39.828,-271.68
39.843,-241.57
39.859,-210.83
39.875,-178.87
39.890,-145.13
39.906,-110.65
39.921,-78.61
39.937,-52.64
39.953,-35.21
39.968,-27.03
39.984,-27.6
40.000,-36.92
40.015,-55.97
40.031,-85.59
40.046,-124.01
40.062,-165.66
40.078,-201.44
40.093,-222.25
40.109,-222.63
40.125,-202.64
40.140,-167.52
40.156,-124.99
40.171,-82.88
40.187,-46.87
40.203,-20.65
40.218,-5.61
40.234,-0.89
40.250,-2.98
40.265,-6.14
40.281,-3.74
40.296,9.42
40.312,34.62
40.328,69.44
40.343,109.13
40.359,149.23
40.375,187.42
40.390,224.24
40.406,262.0
40.421,302.92
40.437,347.56
40.453,393.37
40.468,434.95
40.484,465.27
40.500,477.47
40.515,467.16
40.531,433.61
40.546,380.04
40.562,312.51
40.578,238.35
40.593,164.28
40.609,95.24
40.625,33.41
40.640,-21.76
40.656,-72.48
40.671,-121.18
40.687,-168.49
40.703,-212.16
40.718,-246.98
40.734,-266.77
40.750,-266.78
40.765,-246.57
40.781,-211.11
40.796,-169.5
40.812,-133.05
40.828,-111.92
40.843,-112.06
40.859,-132.63
40.875,-165.52
40.890,-197.06
40.906,-212.62
40.921,-203.12
40.937,-168.99
40.953,-120.9
40.968,-75.4
40.984,-47.69
41.000,-44.89
41.015,-63.5
41.031,-92.12
41.046,-117.34
41.062,-129.44
41.078,-124.91
41.093,-106.07
41.109,-78.17
41.125,-47.21
41.140,-18.6
41.156,3.25
41.171,15.52
41.187,17.99
41.203,13.66
41.218,8.1
41.234,7.16
41.250,14.93
41.265,32.63
41.281,59.36
41.296,93.91
41.312,135.8
41.328,185.34
41.343,242.17
41.359,304.17
41.375,366.39
41.390,421.92
41.406,463.53
41.421,485.39
41.437,484.66
41.453,461.82
41.468,420.36
41.484,365.25
41.500,301.27
41.515,232.17
41.531,160.7
41.546,89.2
41.562,19.92
41.578,-44.75
41.593,-102.66
41.609,-152.09
41.625,-191.6
41.640,-219.67
41.656,-234.6
41.671,-235.09
41.687,-221.34
41.703,-196.04
41.718,-163.97
41.734,-130.84
41.750,-101.54
41.765,-79.39
41.781,-66.62
41.796,-64.81
41.812,-75.34
41.828,-98.34
41.843,-131.3
41.859,-168.11
41.875,-200.27
41.890,-219.73
41.906,-221.98
41.921,-208.3
41.937,-185.05
41.953,-161.02
41.968,-143.34
41.984,-134.75
42.000,-133.23
42.015,-133.62
42.031,-130.54
42.046,-120.95
42.062,-105.53
42.078,-88.48
42.093,-75.54
42.109,-71.11
42.125,-75.56
42.140,-84.55
42.156,-90.56
42.171,-85.92
42.187,-66.17
42.203,-31.81
42.218,12.29
42.234,59.3
42.250,103.68
42.265,143.61
42.281,180.74
42.296,218.25
42.312,258.53
42.328,301.38
42.343,344.06
42.359,382.44
42.375,412.26
42.390,430.22
42.406,434.66
42.421,425.35
42.437,402.86
42.453,368.01
42.468,321.44
42.484,264.06
42.500,197.78
42.515,125.94
42.531,53.12
42.546,-16.29
42.562,-79.45
42.578,-135.7
42.593,-185.7
42.609,-230.03
42.625,-267.71
42.640,-295.83
42.656,-310.94
42.671,-310.67
42.687,-295.11
42.703,-266.85
42.718,-230.37
42.734,-190.62
42.750,-152.3
42.765,-119.61
42.781,-96.18
42.796,-84.79
42.812,-86.65
42.828,-100.22
42.843,-120.57
42.859,-140.13
42.875,-150.55
42.890,-145.69
42.906,-123.58
42.921,-87.39
42.937,-44.88
42.953,-6.16
42.968,19.64
42.984,26.67
43.000,13.94
43.015,-14.37
43.031,-50.35
43.046,-84.02
43.062,-105.42
43.078,-106.69
43.093,-84.21
43.109,-39.47
43.125,20.45
43.140,83.69
43.156,136.05
43.171,164.34
43.187,160.18
43.203,122.85
43.218,60.19
43.234,-13.42
43.250,-80.46
43.265,-125.52
43.281,-139.68
43.296,-121.91
43.312,-77.85
43.328,-16.43
43.343,53.58
43.359,125.38
43.375,193.86
43.390,254.39
43.406,301.66
43.421,330.15
43.437,335.68
43.453,317.07
43.468,277.53
43.484,223.72
43.500,163.14
43.515,101.64
43.531,41.79
43.546,-16.97
43.562,-76.41
43.578,-136.47
43.593,-194.12
43.609,-243.63
43.625,-278.37
43.640,-293.56
43.656,-288.13
43.671,-264.81
43.687,-228.58
43.703,-184.66
43.718,-137.5
43.734,-91.47
43.750,-51.68
43.765,-23.95
43.781,-13.27
43.796,-21.04
43.812,-43.13
43.828,-70.1
43.843,-90.37
43.859,-94.89
43.875,-81.37
43.890,-55.11
43.906,-26.48
43.921,-6.36
43.937,-1.77
43.953,-14.07
43.968,-39.87
43.984,-73.56
44.000,-109.76
44.015,-144.31
44.031,-173.23
44.046,-191.99
44.062,-195.78
44.078,-181.62
44.093,-150.69
44.109,-109.7
44.125,-68.83
44.140,-37.67
44.156,-20.7
44.171,-15.27
44.187,-13.21
44.203,-4.98
44.218,15.61
44.234,49.36
44.250,92.4
44.265,139.27
44.281,185.95
44.296,231.86
44.312,279.55
44.328,332.82
44.343,393.95
44.359,461.19
44.375,528.11
44.390,584.33
44.406,618.49
44.421,621.65
44.437,590.65
44.453,529.33
44.468,447.07
44.484,355.39
44.500,264.22
44.515,179.69
44.531,104.11
44.546,37.61
44.562,-20.2
44.578,-69.67
44.593,-111.5
44.609,-147.48
44.625,-180.64
44.640,-213.26
44.656,-244.75
44.671,-270.59
44.687,-283.72
44.703,-278.07
44.718,-252.75
44.734,-213.83
44.750,-172.48
44.765,-140.41
44.781,-124.7
44.796,-125.02
44.812,-134.75
44.828,-144.92
44.843,-149.2
44.859,-146.78
44.875,-141.88
44.890,-140.89
44.906,-148.65
44.921,-166.2
44.937,-190.57
44.953,-216.77
44.968,-239.49
44.984,-254.69
45.000,-260.1
45.015,-254.56
45.031,-238.17
45.046,-212.37
45.062,-180.66
45.078,-148.61
45.093,-122.93
45.109,-108.57
45.125,-106.41
45.140,-112.36
45.156,-118.05
45.171,-114.46
45.187,-95.05
45.203,-58.14
45.218,-6.85
45.234,52.59
45.250,113.76
45.265,172.74
45.281,228.88
45.296,284.79
45.312,343.92
45.328,408.16
45.343,475.52
45.359,539.13
45.375,588.47
45.390,612.23
45.406,602.66
45.421,558.49
45.437,486.04
45.453,396.64
45.468,302.72
45.484,213.9
45.500,134.77
45.515,65.56
45.531,4.25
45.546,-51.01
45.562,-101.19
45.578,-146.46
45.593,-187.07
45.609,-222.88
45.625,-252.02
45.640,-271.0
45.656,-275.8
45.671,-264.9
45.687,-241.72
45.703,-214.76
45.718,-194.14
45.734,-186.64
45.750,-192.34
45.765,-204.15
45.781,-212.24
45.796,-209.52
45.812,-195.81
45.828,-178.16
45.843,-167.03
45.859,-171.14
45.875,-193.21
45.890,-229.43
45.906,-271.43
45.921,-309.86
45.937,-336.92
45.953,-347.62
45.968,-339.99
45.984,-314.76
46.000,-275.65
46.015,-229.39
46.031,-185.03
46.046,-151.22
46.062,-133.21
46.078,-130.32
46.093,-135.76
46.109,-139.67
46.125,-133.15
46.140,-111.77
46.156,-76.04
46.171,-30.43
46.187,19.78
46.203,70.67
46.218,120.33
46.234,168.89
46.250,217.32
46.265,267.15
46.281,319.68
46.296,375.43
46.312,432.58
46.328,485.74
46.343,526.41
46.359,544.92
46.375,534.16
46.390,492.39
46.406,424.47
46.421,340.24
46.437,250.97
46.453,165.93
46.468,90.01
46.484,23.54
46.500,-36.14
46.515,-92.09
46.531,-145.77
46.546,-195.74
46.562,-237.75
46.578,-266.21
46.593,-276.26
46.609,-265.8
46.625,-236.98
46.640,-196.19
46.656,-151.77
46.671,-111.65
46.687,-81.08
46.703,-61.56
46.718,-51.69
46.734,-48.53
46.750,-49.12
46.765,-51.46
46.781,-54.79
46.796,-59.66
46.812,-67.32
46.828,-79.35
46.843,-96.5
46.859,-118.03
46.875,-141.42
46.890,-162.99
46.906,-179.18
46.921,-187.37
46.937,-186.67
46.953,-177.49
46.968,-161.16
46.984,-139.44
47.000,-114.38
47.015,-87.89
47.031,-61.6
47.046,-36.7
47.062,-13.29
47.078,9.74
47.093,34.28
47.109,62.42
47.125,95.89
47.140,135.6
47.156,182.01
47.171,235.67
47.187,297.01
47.203,365.85
47.218,440.28
47.234,516.12
47.250,586.53
47.265,643.15
47.281,678.12
47.296,686.27
47.312,666.68
47.328,622.19
47.343,558.04
47.359,479.78
47.375,392.32
47.390,300.2
47.406,208.38
47.421,122.36
47.437,47.39
47.453,-12.97
47.468,-58.43
47.484,-92.14
47.500,-119.6
47.515,-146.52
47.531,-176.83
47.546,-211.87
47.562,-250.63
47.578,-290.36
47.593,-327.01
47.609,-356.26
47.625,-374.74
47.640,-382.04
47.656,-382.02
47.671,-381.87
47.687,-389.09
47.703,-407.03
47.718,-432.14
47.734,-453.99
47.750,-459.69
47.765,-440.09
47.781,-394.73
47.796,-332.71
47.812,-268.8
47.828,-217.21
47.843,-186.17
47.859,-175.86
47.875,-180.43
47.890,-191.99
47.906,-203.84
47.921,-212.1
47.937,-215.16
47.953,-212.3
47.968,-202.94
47.984,-186.96
48.000,-165.31
48.015,-140.37
48.031,-115.22
48.046,-91.98
48.062,-70.99
48.078,-50.28
48.093,-26.77
48.109,2.22
48.125,37.61
48.140,78.66
48.156,123.36
48.171,169.81
48.187,217.42
48.203,267.16
48.218,321.48
48.234,383.03
48.250,452.62
48.265,527.09
48.281,598.54
48.296,655.17
48.312,684.84
48.328,679.16
48.343,636.68
48.359,563.68
48.375,471.51
48.390,372.4
48.406,275.63
48.421,185.82
48.437,103.06
48.453,25.13
48.468,-50.3
48.484,-124.33
48.500,-195.52
48.515,-259.86
48.531,-310.89
48.546,-340.61
48.562,-342.2
48.578,-313.34
48.593,-258.77
48.609,-190.18
48.625,-123.57
48.640,-73.82
48.656,-50.04
48.671,-53.43
48.687,-78.03
48.703,-114.5
48.718,-154.25
48.734,-191.91
48.750,-225.5
48.765,-255.31
48.781,-281.85
48.796,-305.04
48.812,-324.15
48.828,-338.11
48.843,-346.19
48.859,-347.52
48.875,-340.43
48.890,-322.52
48.906,-291.99
48.921,-249.24
48.937,-198.69
48.953,-148.42
48.968,-107.26
48.984,-81.38
49.000,-71.17
49.015,-70.82
49.031,-71.13
49.046,-63.61
49.062,-43.67
49.078,-11.77
49.093,28.22
49.109,72.03
49.125,116.89
49.140,161.9
49.156,207.33
49.171,253.46
49.187,300.38
49.203,349.04
49.218,401.38
49.234,459.12
49.250,521.95
49.265,585.32
49.281,639.92
49.296,673.79
49.312,676.23
49.328,642.37
49.343,575.22
49.359,484.9
49.375,384.88
49.390,287.52
49.406,200.91
49.421,127.75
49.437,66.93
49.453,15.35
49.468,-30.26
49.484,-72.56
49.500,-113.51
49.515,-154.03
49.531,-193.66
49.546,-229.79
49.562,-258.29
49.578,-275.16
49.593,-278.89
49.609,-272.31
49.625,-262.45
49.640,-258.02
49.656,-265.72
49.671,-287.27
49.687,-318.39
49.703,-350.57
49.718,-374.6
49.734,-384.54
49.750,-379.69
49.765,-364.22
49.781,-344.21
49.796,-324.64
49.812,-307.44
49.828,-291.25
49.843,-273.39
49.859,-251.74
49.875,-225.94
49.890,-196.88
49.906,-165.72
49.921,-133.13
49.937,-99.42
49.953,-65.46
49.968,-32.93
49.984,-3.98
50.000,19.94
50.015,39.36
50.031,56.79
50.046,75.6
50.062,98.52
50.078,126.61
50.093,159.24
50.109,195.44
50.125,234.72
50.140,277.55
50.156,325.14
50.171,378.11
50.187,435.59
50.203,494.3
50.218,548.53
50.234,590.84
50.250,613.96
50.265,612.62
50.281,585.3
50.296,534.56
50.312,466.14
50.328,386.96
50.343,303.71
50.359,221.64
50.375,144.36
50.390,74.41
50.406,13.22
50.421,-39.09
50.437,-84.16
50.453,-125.09
50.468,-165.54
50.484,-207.72
50.500,-250.89
50.515,-291.08
50.531,-321.81
50.546,-336.5
50.562,-331.14
50.578,-306.23
50.593,-267.27
50.609,-223.51
50.625,-185.24
50.640,-160.61
50.656,-153.35
50.671,-161.61
50.687,-178.76
50.703,-195.78
50.718,-204.36
50.734,-199.82
50.750,-182.58
50.765,-157.39
50.781,-131.0
50.796,-109.65
50.812,-96.96
50.828,-94.21
50.843,-100.78
50.859,-115.27
50.875,-135.51
50.890,-158.32
50.906,-179.2
50.921,-193.01
50.937,-196.39
50.953,-189.03
50.968,-174.56
50.984,-158.47
51.000,-145.08
51.015,-134.9
51.031,-124.52
51.046,-108.55
51.062,-82.74
51.078,-46.54
51.093,-2.91
51.109,43.43
51.125,88.66
51.140,131.81
51.156,175.01
51.171,222.04
51.187,276.28
51.203,338.39
51.218,405.13
51.234,469.46
51.250,521.71
51.265,551.92
51.281,552.9
51.296,522.63
51.312,465.25
51.328,389.43
51.343,305.16
51.359,220.55
51.375,139.98
51.390,64.26
51.406,-7.68
51.421,-76.43
51.437,-141.05
51.453,-198.82
51.468,-246.14
51.484,-280.08
51.500,-299.14
51.515,-303.09
51.531,-292.75
51.546,-269.87
51.562,-237.16
51.578,-198.9
51.593,-160.93
51.609,-129.5
51.625,-109.24
51.640,-101.3
51.656,-102.3
51.671,-105.39
51.687,-103.37
51.703,-92.22
51.718,-73.35
51.734,-52.69
51.750,-37.59
51.765,-33.28
51.781,-40.75
51.796,-57.55
51.812,-79.66
51.828,-103.53
51.843,-126.8
51.859,-147.39
51.875,-162.44
51.890,-168.77
51.906,-164.71
51.921,-151.93
51.937,-135.6
51.953,-122.55
51.968,-117.07
51.984,-118.33
52.000,-120.33
52.015,-114.75
52.031,-95.36
52.046,-60.96
52.062,-15.7
52.078,33.87
52.093,81.96
52.109,126.2
52.125,168.06
52.140,211.42
52.156,260.46
52.171,317.46
52.187,381.55
52.203,448.16
52.218,509.09
52.234,554.03
52.250,573.38
52.265,561.17
52.281,517.53
52.296,448.92
52.312,365.52
52.328,277.81
52.343,193.36
52.359,115.48
52.375,44.08
52.390,-22.33
52.406,-84.74
52.421,-142.71
52.437,-193.89
52.453,-235.45
52.468,-264.61
52.484,-279.44
52.500,-279.23
52.515,-264.81
52.531,-238.71
52.546,-205.14
52.562,-169.83
52.578,-138.61
52.593,-116.21
52.609,-104.85
52.625,-103.36
52.640,-107.65
52.656,-111.59
52.671,-109.57
52.687,-98.54
52.703,-79.31
52.718,-55.84
52.734,-33.49
52.750,-16.98
52.765,-9.09
52.781,-10.8
52.796,-21.25
52.812,-38.63
52.828,-60.55
52.843,-83.91
52.859,-105.07
52.875,-120.75
52.890,-129.12
52.906,-131.49
52.921,-132.39
52.937,-137.24
52.953,-149.3
52.968,-167.4
52.984,-185.42
53.000,-194.44
53.015,-186.85
53.031,-159.31
53.046,-114.07
53.062,-58.16
53.078,0.28
53.093,55.53
53.109,106.09
53.125,154.54
53.140,205.34
53.156,262.06
53.171,325.62
53.187,393.49
53.203,459.55
53.218,515.33
53.234,551.65
53.250,561.12
53.265,540.45
53.281,491.56
53.296,421.12
53.312,338.53
53.328,252.87
53.343,170.56
53.359,94.6
53.375,25.09
53.390,-38.63
53.406,-96.48
53.421,-147.21
53.437,-188.64
53.453,-217.89
53.468,-232.69
53.484,-232.42
53.500,-219.1
53.515,-198.37
53.531,-178.1
53.546,-165.33
53.562,-163.72
53.578,-171.7
53.593,-183.2
53.609,-190.61
53.625,-188.27
53.640,-174.66
53.656,-152.63
53.671,-127.64
53.687,-105.0
53.703,-88.21
53.718,-78.46
53.734,-75.43
53.750,-78.56
53.765,-87.48
53.781,-101.88
53.796,-120.69
53.812,-141.25
53.828,-159.77
53.843,-172.55
53.859,-177.73
53.875,-176.38
53.890,-171.81
53.906,-167.46
53.921,-164.36
53.937,-160.21
53.953,-149.97
53.968,-128.4
53.984,-93.05
54.000,-45.31
54.015,10.22
54.031,68.07
54.046,124.27
54.062,177.8
54.078,230.48
54.093,285.52
54.109,345.84
54.125,411.97
54.140,480.84
54.156,545.59
54.171,596.56
54.187,623.85
54.203,620.58
54.218,585.48
54.234,523.63
54.250,444.68
54.265,359.34
54.281,276.3
54.296,200.32
54.312,132.68
54.328,72.81
54.343,20.04
54.359,-25.7
54.375,-64.55
54.390,-97.53
54.406,-127.19
54.421,-156.59
54.437,-188.11
54.453,-222.78
54.468,-260.3
54.484,-300.0
54.500,-341.43
54.515,-384.2
54.531,-426.32
54.546,-463.17
54.562,-487.44
54.578,-491.31
54.593,-469.92
54.609,-424.03
54.625,-360.22
54.640,-288.61
54.656,-219.72
54.671,-161.79
54.687,-120.2
54.703,-98.06
54.718,-96.83
54.734,-115.83
54.750,-150.92
54.765,-193.77
54.781,-232.82
54.796,-256.09
54.812,-254.88
54.828,-226.48
54.843,-174.85
54.859,-108.47
54.875,-37.38
54.890,30.23
54.906,89.32
54.921,138.19
54.937,177.77
54.953,210.48
54.968,239.48
54.984,267.99
55.000,299.1
55.015,335.25
55.031,377.31
55.046,423.15
55.062,467.13
55.078,500.91
55.093,515.99
55.109,506.64
55.125,472.28
55.140,417.89
55.156,351.89
55.171,282.94
55.187,216.94
55.203,155.69
55.218,97.7
55.234,40.7
55.250,-15.72
55.265,-68.94
55.281,-113.76
55.296,-144.99
55.312,-160.01
55.328,-160.14
55.343,-150.42
55.359,-137.35
55.375,-126.42
55.390,-119.73
55.406,-116.6
55.421,-114.94
55.437,-114.05
55.453,-115.81
55.468,-124.16
55.484,-143.24
55.500,-175.25
55.515,-219.31
55.531,-271.32
55.546,-325.1
55.562,-373.35
55.578,-408.93
55.593,-425.76
55.609,-419.81
55.625,-390.22
55.640,-339.93
55.656,-275.49
55.671,-205.94
55.687,-141.23
55.703,-89.59
55.718,-55.47
55.734,-38.32
55.750,-33.18
55.765,-33.28
55.781,-33.35
55.796,-31.98
55.812,-31.38
55.828,-34.96
55.843,-43.62
55.859,-53.9
55.875,-58.88
55.890,-51.44
55.906,-28.38
55.921,7.99
55.937,50.9
55.953,92.89
55.968,129.48
55.984,161.08
56.000,192.1
56.015,228.01
56.031,272.55
56.046,325.83
56.062,384.23
56.078,440.88
56.093,487.32
56.109,515.24
56.125,518.71
56.140,495.8
56.156,449.25
56.171,385.79
56.187,313.77
56.203,240.51
56.218,170.28
56.234,104.09
56.250,40.6
56.265,-21.66
56.281,-82.42
56.296,-139.23
56.312,-187.74
56.328,-223.0
56.343,-241.23
56.359,-241.2
56.375,-225.2
56.390,-199.1
56.406,-171.18
56.421,-149.42
56.437,-139.23
56.453,-141.46
56.468,-152.62
56.484,-166.65
56.500,-177.48
56.515,-181.57
56.531,-179.17
56.546,-174.05
56.562,-171.43
56.578,-176.04
56.593,-189.81
56.609,-211.15
56.625,-235.58
56.640,-256.99
56.656,-269.32
56.671,-267.81
56.687,-249.8
56.703,-215.23
56.718,-167.29
56.734,-112.15
56.750,-57.92
56.765,-12.66
56.781,18.44
56.796,35.0
56.812,41.46
56.828,45.27
56.843,53.58
56.859,70.93
56.875,98.38
56.890,134.62
56.906,177.58
56.921,225.77
56.937,279.04
56.953,337.93
56.968,403.03
56.984,473.06
57.000,543.77
57.015,608.03
57.031,657.0
57.046,682.46
57.062,679.4
57.078,647.62
57.093,591.67
57.109,519.17
57.125,438.35
57.140,355.97
57.156,276.69
57.171,203.49
57.187,138.41
57.203,82.96
57.218,37.57
57.234,1.14
57.250,-29.15
57.265,-57.13
57.281,-86.44
57.296,-119.07
57.312,-154.76
57.328,-190.91
57.343,-223.9
57.359,-250.97
57.375,-271.69
57.390,-288.24
57.406,-304.16
57.421,-322.24
57.437,-342.11
57.453,-360.14
57.468,-370.36
57.484,-367.27
57.500,-349.12
57.515,-319.51
57.531,-286.52
57.546,-259.43
57.562,-244.76
57.578,-243.65
57.593,-252.21
57.609,-263.73
57.625,-271.69
57.640,-271.89
57.656,-262.89
57.671,-245.62
57.687,-222.65
57.703,-197.74
57.718,-175.54
57.734,-160.64
57.750,-155.8
57.765,-159.9
57.781,-167.56
57.796,-170.78
57.812,-161.99
57.828,-137.4
57.843,-98.06
57.859,-48.67
57.875,4.97
57.890,58.68
57.906,111.05
57.921,163.0
57.937,216.58
57.953,274.1
57.968,336.88
57.984,404.58
58.000,474.27
58.015,539.65
58.031,591.68
58.046,620.57
58.062,618.88
58.078,584.71
58.093,522.74
58.109,442.67
58.125,355.69
58.140,271.24
58.156,194.83
58.171,128.37
58.187,71.57
58.203,23.36
58.218,-17.48
58.234,-52.76
58.250,-85.09
58.265,-117.15
58.281,-150.28
58.296,-183.47
58.312,-213.58
58.328,-237.33
58.343,-253.38
58.359,-263.15
58.375,-270.01
58.390,-276.78
58.406,-283.58
58.421,-287.49
58.437,-284.57
58.453,-272.62
58.468,-253.19
58.484,-231.47
58.500,-213.72
58.515,-204.38
58.531,-204.04
58.546,-209.32
58.562,-215.13
58.578,-217.3
58.593,-213.22
58.609,-202.01
58.625,-183.9
58.640,-159.87
58.656,-132.4
58.671,-105.93
58.687,-86.1
58.703,-77.27
58.718,-80.37
58.734,-91.34
58.750,-102.57
58.765,-105.17
58.781,-92.53
58.796,-63.28
58.812,-20.88
58.828,28.45
58.843,78.99
58.859,127.67
58.875,175.72
58.890,225.88
58.906,281.07
58.921,342.07
58.937,405.91
58.953,465.79
58.968,512.52
58.984,537.13
59.000,532.85
59.015,500.51
59.031,445.54
59.046,377.16
59.062,305.49
59.078,238.19
59.093,178.58
59.109,126.48
59.125,79.83
59.140,34.78
59.156,-6.81
59.171,-44.45
59.187,-78.43
59.203,-110.13
59.218,-141.73
59.234,-175.08
59.250,-211.23
59.265,-250.53
59.281,-295.65
59.296,-342.04
59.312,-389.06
59.328,-435.68
59.343,-479.46
59.359,-516.01
59.375,-538.67
59.390,-540.59
59.406,-517.99
59.421,-475.77
59.437,-414.08
59.453,-340.95
59.468,-264.72
59.484,-190.72
59.500,-120.66
59.515,-52.81
59.531,16.31
59.546,113.51
59.562,200.59
59.578,279.25
59.593,344.53
59.609,391.43
59.625,417.64
59.640,423.62
59.656,413.44
59.671,393.53
59.687,365.94
59.703,327.8
59.718,286.42
59.734,245.39
59.750,207.95
59.765,177.18
59.781,152.66
59.796,132.88
59.812,115.39
59.828,90.68
59.843,48.69
59.859,-6.19
59.875,-66.98
59.890,-125.48
59.906,-174.27
59.921,-213.18
59.937,-244.39
59.953,-270.86
59.968,-303.84
59.984,-352.83
