timestamp,value
00.000,154.69
00.015,147.94
00.031,135.65
00.046,119.95
00.062,102.66
00.078,85.13
00.093,68.27
00.109,52.6
00.125,38.45
00.140,25.7
00.156,14.22
00.171,3.77
00.187,-5.8
00.203,-14.48
00.218,-22.18
00.234,-28.68
00.250,-33.68
00.265,-36.8
00.281,-37.75
00.296,-36.26
00.312,-32.23
00.328,-25.6
00.343,-16.52
00.359,-5.37
00.375,7.34
00.390,20.89
00.406,34.45
00.421,47.12
00.437,58.13
00.453,66.76
00.468,72.62
00.484,75.62
00.500,75.96
00.515,74.15
00.531,70.86
00.546,66.82
00.562,62.66
00.578,58.96
00.593,56.08
00.609,54.34
00.625,53.81
00.640,54.46
00.656,56.23
00.671,58.94
00.687,62.29
00.703,65.74
00.718,68.68
00.734,70.45
00.750,70.69
00.765,69.24
00.781,66.34
00.796,62.54
00.812,58.56
00.828,55.16
00.843,52.93
00.859,52.14
00.875,52.86
00.890,55.07
00.906,58.85
00.921,64.36
00.937,71.87
00.953,81.62
00.968,93.71
00.984,107.98
01.000,124.02
01.015,141.09
01.031,158.5
01.046,175.55
01.062,191.64
01.078,206.14
01.093,218.77
01.109,230.03
01.125,241.26
01.140,254.03
01.156,268.86
01.171,284.23
01.187,296.1
01.203,298.84
01.218,287.28
01.234,259.14
01.250,216.48
01.265,165.4
01.281,113.96
01.296,69.82
01.312,38.72
01.328,23.81
01.343,25.99
01.359,44.15
01.375,75.26
01.390,114.21
01.406,154.2
01.421,188.13
01.437,210.47
01.453,219.08
01.468,215.83
01.484,205.63
01.500,194.48
01.515,186.88
01.531,184.32
01.546,185.24
01.562,186.39
01.578,184.42
01.593,177.28
01.609,164.85
01.625,148.28
01.640,129.12
01.656,108.25
01.671,85.86
01.687,62.07
01.703,37.59
01.718,13.74
01.734,-7.92
01.750,-26.64
01.765,-42.88
01.781,-57.96
01.796,-73.32
01.812,-89.27
01.828,-104.77
01.843,-117.84
01.859,-127.04
01.875,-132.21
01.890,-134.9
01.906,-138.23
01.921,-145.69
01.937,-159.41
01.953,-178.83
01.968,-199.99
01.984,-215.85
02.000,-218.17
02.015,-200.09
02.031,-158.73
02.046,-96.71
02.062,-21.73
02.078,55.54
02.093,124.38
02.109,176.62
02.125,208.33
02.140,219.71
02.156,214.27
02.171,196.98
02.187,173.23
02.203,147.97
02.218,125.16
02.234,107.27
02.250,95.35
02.265,88.91
02.281,86.21
02.296,84.7
02.312,81.69
02.328,75.13
02.343,64.53
02.359,50.9
02.375,36.11
02.390,22.3
02.406,10.99
02.421,2.47
02.437,-4.22
02.453,-10.61
02.468,-18.1
02.484,-27.22
02.500,-37.52
02.515,-47.85
02.531,-56.79
02.546,-63.35
02.562,-67.27
02.578,-68.85
02.593,-68.38
02.609,-66.06
02.625,-61.93
02.640,-56.23
02.656,-49.37
02.671,-41.97
02.687,-34.55
02.703,-27.36
02.718,-20.35
02.734,-13.25
02.750,-5.86
02.765,1.7
02.781,8.95
02.796,15.32
02.812,20.3
02.828,23.57
02.843,25.07
02.859,24.74
02.875,22.62
02.890,18.92
02.906,14.09
02.921,8.94
02.937,4.36
02.953,1.02
02.968,-0.84
02.984,-1.32
03.000,-0.69
03.015,0.79
03.031,3.02
03.046,6.03
03.062,9.78
03.078,14.02
03.093,18.21
03.109,21.76
03.125,24.31
03.140,25.75
03.156,26.24
03.171,25.96
03.187,24.92
03.203,23.03
03.218,20.42
03.234,17.53
03.250,15.32
03.265,14.97
03.281,17.28
03.296,22.22
03.312,28.73
03.328,35.08
03.343,39.77
03.359,42.11
03.375,42.44
03.390,41.91
03.406,41.65
03.421,42.3
03.437,43.73
03.453,45.34
03.468,46.44
03.484,46.77
03.500,46.65
03.515,46.61
03.531,47.15
03.546,48.3
03.562,49.59
03.578,50.27
03.593,49.62
03.609,47.13
03.625,42.62
03.640,36.18
03.656,27.91
03.671,17.9
03.687,6.38
03.703,-6.3
03.718,-19.49
03.734,-32.26
03.750,-43.7
03.765,-53.06
03.781,-59.75
03.796,-63.47
03.812,-64.21
03.828,-62.18
03.843,-57.97
03.859,-52.46
03.875,-46.85
03.890,-42.32
03.906,-39.83
03.921,-39.78
03.937,-41.97
03.953,-45.78
03.968,-50.41
03.984,-55.35
04.000,-60.21
04.015,-64.82
04.031,-68.93
04.046,-72.04
04.062,-73.59
04.078,-73.1
04.093,-70.34
04.109,-65.54
04.125,-59.42
04.140,-52.83
04.156,-46.64
04.171,-41.69
04.187,-38.64
04.203,-37.8
04.218,-39.22
04.234,-42.35
04.250,-46.26
04.265,-49.92
04.281,-52.51
04.296,-53.66
04.312,-53.58
04.328,-52.86
04.343,-52.17
04.359,-51.91
04.375,-52.11
04.390,-52.52
04.406,-52.75
04.421,-52.54
04.437,-51.65
04.453,-49.97
04.468,-47.35
04.484,-43.68
04.500,-38.88
04.515,-33.03
04.531,-26.45
04.546,-19.66
04.562,-13.37
04.578,-8.27
04.593,-4.99
04.609,-3.69
04.625,-4.35
04.640,-6.68
04.656,-10.13
04.671,-14.07
04.687,-17.96
04.703,-21.64
04.718,-25.0
04.734,-27.94
04.750,-30.25
04.765,-31.76
04.781,-32.44
04.796,-32.5
04.812,-32.28
04.828,-31.73
04.843,-30.4
04.859,-27.27
04.875,-21.39
04.890,-12.6
04.906,-1.85
04.921,9.16
04.937,18.68
04.953,25.72
04.968,30.54
04.984,34.15
05.000,37.54
05.015,41.09
05.031,44.43
05.046,46.94
05.062,48.36
05.078,48.92
05.093,49.07
05.109,49.02
05.125,48.38
05.140,46.17
05.156,41.15
05.171,32.58
05.187,20.75
05.203,6.91
05.218,-7.19
05.234,-19.8
05.250,-29.87
05.265,-37.41
05.281,-43.07
05.296,-47.71
05.312,-51.85
05.328,-55.31
05.343,-57.51
05.359,-57.77
05.375,-55.71
05.390,-51.5
05.406,-45.94
05.421,-40.09
05.437,-34.83
05.453,-30.7
05.468,-27.79
05.484,-25.72
05.500,-23.99
05.515,-22.15
05.531,-19.76
05.546,-16.65
05.562,-12.82
05.578,-8.47
05.593,-4.05
05.609,-0.16
05.625,2.5
05.640,3.42
05.656,2.21
05.671,-0.97
05.687,-5.62
05.703,-10.93
05.718,-16.15
05.734,-20.81
05.750,-24.81
05.765,-28.43
05.781,-31.99
05.796,-35.78
05.812,-39.63
05.828,-43.13
05.843,-45.79
05.859,-47.36
05.875,-48.06
05.890,-48.33
05.906,-48.58
05.921,-48.91
05.937,-48.9
05.953,-47.93
05.968,-45.74
05.984,-42.66
06.000,-39.44
06.015,-36.9
06.031,-35.31
06.046,-34.17
06.062,-32.51
06.078,-29.37
06.093,-24.44
06.109,-18.15
06.125,-11.63
06.140,-5.99
06.156,-1.95
06.171,0.47
06.187,1.92
06.203,3.21
06.218,4.97
06.234,7.24
06.250,9.57
06.265,11.24
06.281,11.8
06.296,11.19
06.312,9.8
06.328,8.26
06.343,7.1
06.359,6.57
06.375,6.57
06.390,6.85
06.406,7.19
06.421,7.47
06.437,7.82
06.453,8.51
06.468,9.79
06.484,11.78
06.500,14.32
06.515,16.96
06.531,19.08
06.546,20.15
06.562,19.94
06.578,18.68
06.593,17.03
06.609,15.74
06.625,15.37
06.640,15.97
06.656,17.11
06.671,17.97
06.687,17.87
06.703,16.46
06.718,14.05
06.734,11.42
06.750,9.3
06.765,8.02
06.781,7.81
06.796,9.11
06.812,12.53
06.828,18.6
06.843,27.0
06.859,36.16
06.875,43.85
06.890,48.28
06.906,49.29
06.921,49.5
06.937,53.29
06.953,64.56
06.968,84.11
06.984,108.45
07.000,130.87
07.015,144.15
07.031,143.38
07.046,127.4
07.062,98.43
07.078,59.96
07.093,15.13
07.109,-33.8
07.125,-84.47
07.140,-132.9
07.156,-173.1
07.171,-198.66
07.187,-205.43
07.203,-193.93
07.218,-169.45
07.234,-139.57
07.250,-110.32
07.265,-83.8
07.281,-58.16
07.296,-29.7
07.312,3.71
07.328,40.77
07.343,76.75
07.359,105.82
07.375,123.86
07.390,131.06
07.406,131.16
07.421,129.75
07.437,132.1
07.453,141.74
07.468,160.41
07.484,188.45
07.500,225.45
07.515,269.95
07.531,319.24
07.546,368.14
07.562,409.65
07.578,436.3
07.593,442.59
07.609,427.52
07.625,395.26
07.640,354.12
07.656,313.19
07.671,279.04
07.687,253.14
07.703,232.28
07.718,210.94
07.734,184.28
07.750,150.55
07.765,111.36
07.781,70.11
07.796,29.95
07.812,-7.56
07.828,-42.46
07.843,-75.58
07.859,-107.24
07.875,-137.42
07.890,-165.8
07.906,-192.55
07.921,-218.29
07.937,-243.45
07.953,-267.45
07.968,-288.2
07.984,-302.68
08.000,-307.95
08.015,-302.93
08.031,-288.68
08.046,-268.44
08.062,-246.35
08.078,-226.25
08.093,-210.78
08.109,-201.26
08.125,-198.06
08.140,-200.52
08.156,-207.12
08.171,-215.29
08.187,-221.87
08.203,-223.78
08.218,-218.81
08.234,-206.23
08.250,-186.58
08.265,-161.64
08.281,-133.68
08.296,-105.59
08.312,-80.48
08.328,-61.53
08.343,-51.32
08.359,-50.84
08.375,-59.32
08.390,-74.04
08.406,-91.28
08.421,-107.36
08.437,-119.74
08.453,-127.31
08.468,-130.62
08.484,-131.16
08.500,-130.49
08.515,-129.65
08.531,-128.51
08.546,-125.95
08.562,-120.25
08.578,-109.95
08.593,-94.58
08.609,-75.15
08.625,-53.93
08.640,-33.93
08.656,-18.03
08.671,-8.33
08.687,-6.02
08.703,-11.29
08.718,-23.46
08.734,-40.87
08.750,-60.96
08.765,-80.27
08.781,-95.02
08.796,-102.37
08.812,-100.93
08.828,-91.61
08.843,-77.39
08.859,-62.64
08.875,-51.7
08.890,-47.87
08.906,-52.35
08.921,-64.22
08.937,-81.42
08.953,-101.23
08.968,-121.18
08.984,-139.0
09.000,-152.28
09.015,-158.08
09.031,-153.46
09.046,-136.48
09.062,-107.69
09.078,-70.66
09.093,-31.23
09.109,4.22
09.125,31.27
09.140,48.7
09.156,58.65
09.171,65.0
09.187,71.47
09.203,80.08
09.218,90.86
09.234,102.88
09.250,114.88
09.265,126.07
09.281,136.15
09.296,144.9
09.312,151.61
09.328,155.22
09.343,154.81
09.359,149.83
09.375,140.82
09.390,129.05
09.406,116.12
09.421,103.56
09.437,92.22
09.453,82.32
09.468,73.71
09.484,66.17
09.500,59.49
09.515,53.52
09.531,48.09
09.546,43.05
09.562,38.2
09.578,33.41
09.593,28.77
09.609,24.51
09.625,20.86
09.640,18.02
09.656,15.93
09.671,14.42
09.687,13.3
09.703,12.41
09.718,11.59
09.734,10.84
09.750,10.24
09.765,9.87
09.781,9.79
09.796,10.01
09.812,10.41
09.828,10.72
09.843,10.67
09.859,10.14
09.875,9.13
09.890,7.84
09.906,6.4
09.921,5.03
09.937,3.76
09.953,2.54
09.968,1.21
09.984,-0.47
10.000,-2.71
10.015,-5.76
10.031,-9.71
10.046,-14.41
10.062,-19.22
10.078,-23.32
10.093,-26.0
10.109,-26.81
10.125,-26.02
10.140,-24.24
10.156,-22.27
10.171,-20.78
10.187,-20.14
10.203,-20.33
10.218,-21.15
10.234,-22.33
10.250,-23.47
10.265,-24.34
10.281,-24.64
10.296,-24.22
10.312,-23.05
10.328,-21.32
10.343,-19.24
10.359,-16.97
10.375,-14.51
10.390,-11.69
10.406,-8.43
10.421,-4.68
10.437,-0.59
10.453,3.68
10.468,7.83
10.484,11.71
10.500,15.24
10.515,18.41
10.531,21.34
10.546,24.13
10.562,26.97
10.578,30.07
10.593,33.6
10.609,37.57
10.625,41.96
10.640,46.54
10.656,51.12
10.671,55.47
10.687,59.2
10.703,61.95
10.718,63.51
10.734,64.06
10.750,64.27
10.765,65.13
10.781,67.36
10.796,71.11
10.812,75.99
10.828,81.14
10.843,85.81
10.859,89.82
10.875,93.75
10.890,98.54
10.906,105.2
10.921,114.14
10.937,125.0
10.953,136.95
10.968,148.96
10.984,160.33
11.000,170.83
11.015,180.83
11.031,190.9
11.046,201.58
11.062,213.11
11.078,225.32
11.093,237.8
11.109,249.94
11.125,260.91
11.140,269.33
11.156,273.44
11.171,271.38
11.187,261.83
11.203,244.58
11.218,220.62
11.234,191.68
11.250,159.4
11.265,124.7
11.281,87.66
11.296,48.1
11.312,6.45
11.328,-36.07
11.343,-77.65
11.359,-116.93
11.375,-153.64
11.390,-188.93
11.406,-224.54
11.421,-261.85
11.437,-301.05
11.453,-341.21
11.468,-380.75
11.484,-418.25
11.500,-453.38
11.515,-486.8
11.531,-520.01
11.546,-554.8
11.562,-592.84
11.578,-635.0
11.593,-680.81
11.609,-727.31
11.625,-768.64
11.640,-796.71
11.656,-803.17
11.671,-782.11
11.687,-732.28
11.703,-657.7
11.718,-566.28
11.734,-467.2
11.750,-368.17
11.765,-274.15
11.781,-187.58
11.796,-109.88
11.812,-42.32
11.828,13.36
11.843,55.76
11.859,84.71
11.875,101.5
11.890,108.6
11.906,108.67
11.921,103.8
11.937,95.06
11.953,82.87
11.968,67.38
11.984,49.26
12.000,29.86
12.015,10.92
12.031,-5.81
12.046,-19.06
12.062,-28.38
12.078,-34.12
12.093,-37.03
12.109,-38.01
12.125,-37.62
12.140,-36.0
12.156,-32.91
12.171,-28.1
12.187,-21.46
12.203,-13.03
12.218,-3.02
12.234,8.41
12.250,21.27
12.265,35.67
12.281,51.83
12.296,69.85
12.312,89.66
12.328,110.87
12.343,132.81
12.359,154.92
12.375,176.91
12.390,199.09
12.406,222.45
12.421,248.22
12.437,276.66
12.453,306.4
12.468,334.05
12.484,355.21
12.500,366.19
12.515,365.53
12.531,354.48
12.546,336.33
12.562,314.95
12.578,293.25
12.593,272.85
12.609,254.36
12.625,237.73
12.640,222.45
12.656,207.51
12.671,191.08
12.687,171.08
12.703,146.36
12.718,117.74
12.734,88.38
12.750,62.63
12.765,44.06
12.781,33.67
12.796,29.65
12.812,28.61
12.828,27.42
12.843,24.49
12.859,20.18
12.875,15.9
12.890,12.73
12.906,10.71
12.921,8.98
12.937,6.41
12.953,2.7
12.968,-1.4
12.984,-4.63
13.000,-5.97
13.015,-5.29
13.031,-3.61
13.046,-2.36
13.062,-2.69
13.078,-4.87
13.093,-8.28
13.109,-11.75
13.125,-14.29
13.140,-15.59
13.156,-16.0
13.171,-16.38
13.187,-17.4
13.203,-19.32
13.218,-21.74
13.234,-23.87
13.250,-24.9
13.265,-24.36
13.281,-22.12
13.296,-18.48
13.312,-13.96
13.328,-8.9
13.343,-3.64
13.359,1.59
13.375,6.62
13.390,11.21
13.406,15.06
13.421,17.97
13.437,19.77
13.453,20.48
13.468,20.44
13.484,20.22
13.500,20.33
13.515,21.07
13.531,22.36
13.546,23.7
13.562,24.38
13.578,23.7
13.593,21.32
13.609,17.42
13.625,12.54
13.640,7.37
13.656,2.54
13.671,-1.64
13.687,-5.35
13.703,-9.54
13.718,-15.69
13.734,-25.47
13.750,-39.67
13.765,-57.86
13.781,-78.05
13.796,-97.32
13.812,-112.84
13.828,-122.78
13.843,-126.42
13.859,-124.11
13.875,-116.45
13.890,-103.83
13.906,-86.52
13.921,-64.86
13.937,-39.51
13.953,-10.99
13.968,20.61
13.984,55.75
14.000,94.66
14.015,136.51
14.031,179.03
14.046,218.8
14.062,252.4
14.078,277.34
14.093,292.68
14.109,298.73
14.125,296.27
14.140,285.88
14.156,267.86
14.171,242.83
14.187,212.11
14.203,177.97
14.218,143.04
14.234,109.21
14.250,76.8
14.265,44.7
14.281,11.26
14.296,-24.18
14.312,-60.02
14.328,-92.69
14.343,-117.73
14.359,-131.81
14.375,-134.53
14.390,-128.83
14.406,-119.71
14.421,-111.85
14.437,-107.8
14.453,-107.35
14.468,-108.58
14.484,-109.1
14.500,-107.43
14.515,-103.41
14.531,-97.66
14.546,-91.04
14.562,-83.93
14.578,-76.42
14.593,-68.38
14.609,-59.68
14.625,-50.13
14.640,-39.46
14.656,-27.3
14.671,-13.14
14.687,3.08
14.703,20.77
14.718,38.35
14.734,53.87
14.750,65.2
14.765,70.69
14.781,69.53
14.796,61.81
14.812,48.8
14.828,32.95
14.843,17.45
14.859,5.38
14.875,-1.07
14.890,-1.5
14.906,2.8
14.921,9.23
14.937,15.16
14.953,18.94
14.968,20.44
14.984,20.82
15.000,21.4
15.015,22.88
15.031,24.99
15.046,26.97
15.062,28.22
15.078,29.03
15.093,30.57
15.109,34.05
15.125,40.17
15.140,48.57
15.156,58.01
15.171,67.17
15.187,75.28
15.203,82.15
15.218,87.49
15.234,89.99
15.250,86.81
15.265,74.59
15.281,50.5
15.296,13.86
15.312,-33.44
15.328,-87.41
15.343,-143.15
15.359,-196.13
15.375,-243.01
15.390,-281.52
15.406,-309.46
15.421,-324.28
15.437,-322.86
15.453,-302.71
15.468,-263.28
15.484,-207.18
15.500,-140.22
15.515,-70.33
15.531,-5.81
15.546,47.0
15.562,85.02
15.578,108.85
15.593,122.2
15.609,130.26
15.625,137.98
15.640,148.7
15.656,163.35
15.671,180.0
15.687,194.79
15.703,203.21
15.718,201.83
15.734,189.42
15.750,166.95
15.765,137.45
15.781,105.08
15.796,73.87
15.812,46.7
15.828,24.42
15.843,5.68
15.859,-12.13
15.875,-31.66
15.890,-54.46
15.906,-80.07
15.921,-106.71
15.937,-132.41
15.953,-156.4
15.968,-178.97
15.984,-200.57
16.000,-219.74
16.015,-231.84
16.031,-229.96
16.046,-207.51
16.062,-161.51
16.078,-94.79
16.093,-16.01
16.109,62.74
16.125,129.1
16.140,173.84
16.156,193.01
16.171,188.39
16.187,166.19
16.203,134.72
16.218,101.99
16.234,73.84
16.250,53.56
16.265,42.22
16.281,39.65
16.296,44.89
16.312,56.43
16.328,71.78
16.343,87.34
16.359,99.16
16.375,103.98
16.390,100.54
16.406,89.92
16.421,75.17
16.437,59.92
16.453,47.14
16.468,38.59
16.484,34.42
16.500,33.67
16.515,34.96
16.531,37.2
16.546,39.96
16.562,43.46
16.578,48.24
16.593,54.31
16.609,61.14
16.625,67.46
16.640,71.87
16.656,73.43
16.671,72.03
16.687,68.23
16.703,62.89
16.718,56.77
16.734,50.31
16.750,44.32
16.765,40.1
16.781,39.44
16.796,43.87
16.812,53.63
16.828,67.1
16.843,81.1
16.859,92.39
16.875,98.9
16.890,100.88
16.906,100.02
16.921,98.1
16.937,95.48
16.953,90.69
16.968,81.36
16.984,66.05
17.000,45.53
17.015,22.72
17.031,1.65
17.046,-14.57
17.062,-24.88
17.078,-30.14
17.093,-32.33
17.109,-33.03
17.125,-32.75
17.140,-30.96
17.156,-27.15
17.171,-21.44
17.187,-15.11
17.203,-10.11
17.218,-7.99
17.234,-9.41
17.250,-13.56
17.265,-18.76
17.281,-23.2
17.296,-25.86
17.312,-26.74
17.328,-26.64
17.343,-26.57
17.359,-27.01
17.375,-27.94
17.390,-28.66
17.406,-28.38
17.421,-26.69
17.437,-23.85
17.453,-20.61
17.468,-17.78
17.484,-15.9
17.500,-14.88
17.515,-14.29
17.531,-13.59
17.546,-12.57
17.562,-11.41
17.578,-10.64
17.593,-10.86
17.609,-12.27
17.625,-14.69
17.640,-17.44
17.656,-19.75
17.671,-21.15
17.687,-21.47
17.703,-20.92
17.718,-19.85
17.734,-18.68
17.750,-17.68
17.765,-17.13
17.781,-17.26
17.796,-18.33
17.812,-20.61
17.828,-24.08
17.843,-28.47
17.859,-33.11
17.875,-37.27
17.890,-40.32
17.906,-41.88
17.921,-41.84
17.937,-40.41
17.953,-38.05
17.968,-35.19
17.984,-32.33
18.000,-29.72
18.015,-27.4
18.031,-25.28
18.046,-23.17
18.062,-20.9
18.078,-18.32
18.093,-15.54
18.109,-12.64
18.125,-9.92
18.140,-7.7
18.156,-6.14
18.171,-5.33
18.187,-5.1
18.203,-5.16
18.218,-5.2
18.234,-5.15
18.250,-4.96
18.265,-4.87
18.281,-5.07
18.296,-5.73
18.312,-6.95
18.328,-8.66
18.343,-10.76
18.359,-13.18
18.375,-15.81
18.390,-18.5
18.406,-21.18
18.421,-23.8
18.437,-26.35
18.453,-28.96
18.468,-31.62
18.484,-34.14
18.500,-36.12
18.515,-36.96
18.531,-36.26
18.546,-33.96
18.562,-30.52
18.578,-26.58
18.593,-22.9
18.609,-19.85
18.625,-17.4
18.640,-15.28
18.656,-13.15
18.671,-10.91
18.687,-8.79
18.703,-7.02
18.718,-5.66
18.734,-4.71
18.750,-4.1
18.765,-3.79
18.781,-3.89
18.796,-4.43
18.812,-5.35
18.828,-6.3
18.843,-6.89
18.859,-6.73
18.875,-5.85
18.890,-4.61
18.906,-3.59
18.921,-3.28
18.937,-3.77
18.953,-4.84
18.968,-5.96
18.984,-6.83
19.000,-7.43
19.015,-8.06
19.031,-9.03
19.046,-10.46
19.062,-12.17
19.078,-13.61
19.093,-14.29
19.109,-13.9
19.125,-12.54
19.140,-10.52
19.156,-8.14
19.171,-5.53
19.187,-2.63
19.203,0.63
19.218,4.31
19.234,8.24
19.250,12.06
19.265,15.3
19.281,17.53
19.296,18.5
19.312,18.19
19.328,16.97
19.343,15.26
19.359,13.59
19.375,12.21
19.390,11.24
19.406,10.48
19.421,9.76
19.437,9.0
19.453,8.18
19.468,7.37
19.484,6.39
19.500,4.95
19.515,2.72
19.531,-0.39
19.546,-4.12
19.562,-8.0
19.578,-11.43
19.593,-14.06
19.609,-15.83
19.625,-17.14
19.640,-18.45
19.656,-20.11
19.671,-22.09
19.687,-24.03
19.703,-25.37
19.718,-25.52
19.734,-24.18
19.750,-21.21
19.765,-16.83
19.781,-11.41
19.796,-5.4
19.812,0.81
19.828,6.81
19.843,12.21
19.859,16.76
19.875,20.09
19.890,22.09
19.906,22.72
19.921,22.19
19.937,20.82
19.953,19.07
19.968,17.44
19.984,16.19
20.000,15.39
20.015,14.87
20.031,14.36
20.046,13.67
20.062,12.85
20.078,12.06
20.093,11.5
20.109,11.34
20.125,11.38
20.140,11.28
20.156,10.66
20.171,9.32
20.187,7.32
20.203,5.0
20.218,2.66
20.234,0.49
20.250,-1.58
20.265,-3.85
20.281,-6.49
20.296,-9.44
20.312,-12.29
20.328,-14.31
20.343,-14.85
20.359,-13.56
20.375,-10.67
20.390,-6.9
20.406,-3.37
20.421,-0.83
20.437,0.34
20.453,0.35
20.468,-0.08
20.484,-0.33
20.500,-0.13
20.515,0.26
20.531,0.29
20.546,-0.66
20.562,-2.73
20.578,-5.69
20.593,-9.03
20.609,-12.25
20.625,-14.99
20.640,-17.33
20.656,-19.44
20.671,-21.52
20.687,-23.54
20.703,-25.22
20.718,-26.25
20.734,-26.44
20.750,-25.85
20.765,-24.9
20.781,-24.23
20.796,-24.24
20.812,-25.15
20.828,-26.74
20.843,-28.49
20.859,-29.97
20.875,-30.87
20.890,-30.98
20.906,-30.32
20.921,-28.93
20.937,-26.76
20.953,-23.8
20.968,-20.2
20.984,-16.1
21.000,-11.8
21.015,-7.64
21.031,-3.73
21.046,-0.2
21.062,2.77
21.078,5.02
21.093,6.36
21.109,6.61
21.125,5.84
21.140,4.34
21.156,2.51
21.171,0.89
21.187,-0.23
21.203,-0.68
21.218,-0.54
21.234,-0.18
21.250,-0.15
21.265,-0.93
21.281,-2.99
21.296,-6.36
21.312,-10.68
21.328,-15.3
21.343,-19.31
21.359,-22.02
21.375,-23.26
21.390,-23.32
21.406,-22.84
21.421,-22.58
21.437,-23.05
21.453,-24.24
21.468,-25.79
21.484,-26.96
21.500,-26.99
21.515,-25.5
21.531,-22.44
21.546,-18.07
21.562,-12.89
21.578,-7.29
21.593,-1.51
21.609,4.29
21.625,9.87
21.640,14.78
21.656,18.32
21.671,19.95
21.687,19.49
21.703,17.25
21.718,13.93
21.734,10.27
21.750,6.68
21.765,3.25
21.781,-0.16
21.796,-3.74
21.812,-7.49
21.828,-11.31
21.843,-14.95
21.859,-18.13
21.875,-20.61
21.890,-22.19
21.906,-22.82
21.921,-22.55
21.937,-21.52
21.953,-20.05
21.968,-18.42
21.984,-16.85
22.000,-15.48
22.015,-14.53
22.031,-14.25
22.046,-14.82
22.062,-16.02
22.078,-17.19
22.093,-17.35
22.109,-15.65
22.125,-11.84
22.140,-6.41
22.156,-0.36
22.171,5.2
22.187,9.54
22.203,12.52
22.218,14.18
22.234,14.71
22.250,14.13
22.265,12.44
22.281,9.8
22.296,6.64
22.312,3.58
22.328,1.13
22.343,-0.51
22.359,-1.75
22.375,-3.3
22.390,-5.81
22.406,-9.71
22.421,-14.91
22.437,-20.86
22.453,-26.69
22.468,-31.53
22.484,-34.7
22.500,-36.12
22.515,-36.27
22.531,-36.02
22.546,-36.4
22.562,-37.99
22.578,-40.93
22.593,-44.78
22.609,-48.89
22.625,-52.49
22.640,-54.98
22.656,-55.83
22.671,-54.69
22.687,-51.33
22.703,-45.65
22.718,-37.8
22.734,-28.26
22.750,-17.85
22.765,-7.48
22.781,2.01
22.796,10.03
22.812,16.33
22.828,20.88
22.843,23.9
22.859,25.51
22.875,25.64
22.890,23.95
22.906,20.05
22.921,13.91
22.937,5.99
22.953,-2.61
22.968,-10.65
22.984,-16.98
23.000,-21.2
23.015,-23.54
23.031,-24.78
23.046,-25.78
23.062,-27.03
23.078,-28.59
23.093,-30.26
23.109,-32.1
23.125,-34.51
23.140,-38.2
23.156,-43.58
23.171,-50.62
23.187,-58.57
23.203,-66.7
23.218,-74.66
23.234,-82.62
23.250,-91.0
23.265,-99.64
23.281,-107.27
23.296,-111.9
23.312,-111.76
23.328,-106.27
23.343,-96.62
23.359,-85.2
23.375,-74.56
23.390,-66.34
23.406,-60.91
23.421,-57.94
23.437,-57.19
23.453,-58.88
23.468,-63.43
23.484,-70.85
23.500,-80.14
23.515,-89.56
23.531,-97.35
23.546,-102.49
23.562,-105.22
23.578,-106.91
23.593,-109.19
23.609,-113.15
23.625,-118.8
23.640,-124.69
23.656,-128.23
23.671,-126.24
23.687,-115.56
23.703,-94.1
23.718,-61.61
23.734,-19.76
23.750,27.86
23.765,76.76
23.781,122.84
23.796,163.08
23.812,196.1
23.828,222.39
23.843,243.51
23.859,261.01
23.875,275.21
23.890,284.78
23.906,287.32
23.921,280.47
23.937,263.16
23.953,236.48
23.968,203.86
23.984,170.27
24.000,140.97
24.015,120.18
24.031,110.42
24.046,112.4
24.062,125.33
24.078,147.21
24.093,175.11
24.109,205.79
24.125,235.64
24.140,261.23
24.156,279.51
24.171,288.11
24.187,285.48
24.203,271.05
24.218,245.27
24.234,209.75
24.250,166.74
24.265,118.62
24.281,68.04
24.296,17.73
24.312,-29.56
24.328,-71.21
24.343,-104.93
24.359,-129.15
24.375,-143.29
24.390,-148.02
24.406,-144.81
24.421,-135.37
24.437,-121.18
24.453,-103.41
24.468,-83.19
24.484,-61.62
24.500,-39.85
24.515,-18.93
24.531,0.2
24.546,17.01
24.562,31.11
24.578,42.33
24.593,50.38
24.609,55.13
24.625,56.76
24.640,55.81
24.656,53.05
24.671,49.18
24.687,44.79
24.703,40.18
24.718,35.57
24.734,30.9
24.750,26.02
24.765,20.6
24.781,14.34
24.796,6.82
24.812,-2.17
24.828,-12.42
24.843,-23.5
24.859,-34.89
24.875,-46.37
24.890,-58.04
24.906,-70.22
24.921,-82.96
24.937,-96.06
24.953,-108.78
24.968,-119.82
24.984,-127.53
25.000,-130.17
25.015,-126.51
25.031,-116.13
25.046,-99.67
25.062,-78.41
25.078,-53.92
25.093,-27.51
25.109,-0.25
25.125,26.6
25.140,51.42
25.156,72.14
25.171,86.63
25.187,93.42
25.203,92.27
25.218,84.17
25.234,70.68
25.250,53.3
25.265,33.0
25.281,10.8
25.296,-11.88
25.312,-32.99
25.328,-50.22
25.343,-61.89
25.359,-67.42
25.375,-67.58
25.390,-63.91
25.406,-58.29
25.421,-52.07
25.437,-45.91
25.453,-39.95
25.468,-34.02
25.484,-27.97
25.500,-21.67
25.515,-15.18
25.531,-8.5
25.546,-1.97
25.562,4.07
25.578,9.21
25.593,13.22
25.609,16.36
25.625,19.07
25.640,21.86
25.656,25.08
25.671,28.86
25.687,32.9
25.703,36.79
25.718,40.1
25.734,42.46
25.750,43.69
25.765,43.6
25.781,42.09
25.796,39.11
25.812,34.8
25.828,29.37
25.843,23.31
25.859,17.23
25.875,11.69
25.890,7.07
25.906,3.39
25.921,0.35
25.937,-2.51
25.953,-5.49
25.968,-8.6
25.984,-11.32
26.000,-12.79
26.015,-12.33
26.031,-9.36
26.046,-3.9
26.062,3.53
26.078,12.26
26.093,21.53
26.109,30.73
26.125,39.62
26.140,48.04
26.156,55.61
26.171,61.92
26.187,66.41
26.203,68.48
26.218,67.91
26.234,64.84
26.250,59.75
26.265,53.37
26.281,46.54
26.296,39.88
26.312,33.81
26.328,28.4
26.343,23.05
26.359,16.71
26.375,8.04
26.390,-4.18
26.406,-20.51
26.421,-40.59
26.437,-63.32
26.453,-87.06
26.468,-110.15
26.484,-131.07
26.500,-148.28
26.515,-160.36
26.531,-165.96
26.546,-164.27
26.562,-155.46
26.578,-140.73
26.593,-122.22
26.609,-102.21
26.625,-82.54
26.640,-63.97
26.656,-46.5
26.671,-29.67
26.687,-13.18
26.703,2.73
26.718,17.42
26.734,30.03
26.750,40.11
26.765,47.62
26.781,53.03
26.796,56.89
26.812,59.56
26.828,61.18
26.843,61.55
26.859,60.6
26.875,58.41
26.890,55.42
26.906,52.2
26.921,49.22
26.937,46.63
26.953,44.44
26.968,42.55
26.984,40.81
27.000,39.13
27.015,37.34
27.031,35.32
27.046,32.83
27.062,29.66
27.078,25.71
27.093,21.1
27.109,16.25
27.125,11.74
27.140,8.14
27.156,5.79
27.171,4.87
27.187,5.27
27.203,6.76
27.218,9.09
27.234,11.9
27.250,14.71
27.265,16.91
27.281,17.94
27.296,17.41
27.312,15.33
27.328,12.18
27.343,8.61
27.359,5.21
27.375,2.2
27.390,-0.52
27.406,-3.33
27.421,-6.44
27.437,-9.92
27.453,-13.51
27.468,-16.87
27.484,-19.71
27.500,-22.0
27.515,-23.89
27.531,-25.62
27.546,-27.55
27.562,-29.85
27.578,-32.58
27.593,-35.66
27.609,-38.82
27.625,-41.67
27.640,-43.74
27.656,-44.6
27.671,-43.89
27.687,-41.5
27.703,-37.53
27.718,-32.25
27.734,-26.06
27.750,-19.41
27.765,-12.8
27.781,-6.61
27.796,-1.11
27.812,3.6
27.828,7.6
27.843,11.17
27.859,14.56
27.875,17.88
27.890,21.14
27.906,23.98
27.921,26.01
27.937,26.86
27.953,26.38
27.968,24.59
27.984,21.77
28.000,18.18
28.015,14.09
28.031,9.78
28.046,5.4
28.062,1.06
28.078,-3.1
28.093,-6.93
28.109,-10.33
28.125,-13.2
28.140,-15.43
28.156,-16.87
28.171,-17.34
28.187,-16.62
28.203,-14.74
28.218,-11.71
28.234,-7.82
28.250,-3.5
28.265,0.72
28.281,4.3
28.296,6.85
28.312,8.2
28.328,8.41
28.343,7.58
28.359,5.9
28.375,3.43
28.390,0.29
28.406,-3.18
28.421,-6.65
28.437,-9.78
28.453,-12.31
28.468,-14.23
28.484,-15.78
28.500,-17.23
28.515,-18.7
28.531,-20.21
28.546,-21.57
28.562,-22.72
28.578,-23.82
28.593,-25.05
28.609,-26.41
28.625,-27.85
28.640,-29.02
28.656,-29.47
28.671,-28.9
28.687,-27.07
28.703,-23.95
28.718,-19.59
28.734,-14.02
28.750,-7.2
28.765,0.74
28.781,9.39
28.796,18.0
28.812,25.67
28.828,31.61
28.843,35.3
28.859,36.68
28.875,36.06
28.890,33.94
28.906,30.75
28.921,26.9
28.937,22.65
28.953,18.2
28.968,13.79
28.984,9.55
29.000,5.39
29.015,1.28
29.031,-2.91
29.046,-7.28
29.062,-11.75
29.078,-16.21
29.093,-20.6
29.109,-24.81
29.125,-28.78
29.140,-32.55
29.156,-35.94
29.171,-38.56
29.187,-39.96
29.203,-39.69
29.218,-37.39
29.234,-33.16
29.250,-27.32
29.265,-20.41
29.281,-13.08
29.296,-5.92
29.312,0.59
29.328,6.15
29.343,10.51
29.359,13.68
29.375,15.58
29.390,16.32
29.406,15.99
29.421,14.66
29.437,12.42
29.453,9.46
29.468,5.95
29.484,2.22
29.500,-1.43
29.515,-4.8
29.531,-7.75
29.546,-10.13
29.562,-11.97
29.578,-13.32
29.593,-14.34
29.609,-15.38
29.625,-16.76
29.640,-18.81
29.656,-21.61
29.671,-24.91
29.687,-27.99
29.703,-30.1
29.718,-30.39
29.734,-28.2
29.750,-23.42
29.765,-16.29
29.781,-7.5
29.796,2.05
29.812,11.33
29.828,19.59
29.843,26.2
29.859,30.94
29.875,33.82
29.890,34.97
29.906,34.61
29.921,32.97
29.937,30.16
29.953,26.36
29.968,21.85
29.984,16.96
30.000,12.12
30.015,7.59
30.031,3.49
30.046,-0.17
30.062,-3.42
30.078,-6.28
30.093,-8.75
30.109,-10.85
30.125,-12.72
30.140,-14.6
30.156,-16.67
30.171,-19.01
30.187,-21.22
30.203,-22.8
30.218,-23.3
30.234,-22.46
30.250,-20.33
30.265,-17.29
30.281,-13.8
30.296,-10.11
30.312,-6.51
30.328,-2.97
30.343,0.43
30.359,3.65
30.375,6.4
30.390,8.41
30.406,9.37
30.421,9.1
30.437,7.67
30.453,5.26
30.468,2.24
30.484,-1.02
30.500,-4.09
30.515,-6.82
30.531,-9.09
30.546,-10.95
30.562,-12.5
30.578,-13.83
30.593,-15.05
30.609,-16.18
30.625,-17.3
30.640,-18.48
30.656,-19.8
30.671,-21.39
30.687,-23.29
30.703,-25.42
30.718,-27.49
30.734,-29.12
30.750,-29.75
30.765,-29.02
30.781,-26.88
30.796,-23.55
30.812,-19.56
30.828,-15.49
30.843,-11.84
30.859,-8.82
30.875,-6.48
30.890,-4.67
30.906,-3.26
30.921,-2.16
30.937,-1.3
30.953,-0.71
30.968,-0.39
30.984,-0.35
31.000,-0.56
31.015,-0.99
31.031,-1.68
31.046,-2.58
31.062,-3.57
31.078,-4.47
31.093,-5.19
31.109,-5.78
31.125,-6.38
31.140,-7.32
31.156,-8.84
31.171,-11.12
31.187,-14.01
31.203,-17.0
31.218,-19.42
31.234,-20.69
31.250,-20.44
31.265,-18.67
31.281,-15.74
31.296,-12.04
31.312,-7.95
31.328,-3.59
31.343,1.09
31.359,6.21
31.375,11.6
31.390,16.83
31.406,21.19
31.421,24.12
31.437,25.34
31.453,25.13
31.468,24.04
31.484,22.69
31.500,21.51
31.515,20.81
31.531,20.63
31.546,20.86
31.562,21.25
31.578,21.18
31.593,19.75
31.609,15.97
31.625,9.26
31.640,-0.31
31.656,-11.58
31.671,-22.82
31.687,-32.33
31.703,-38.89
31.718,-42.16
31.734,-42.36
31.750,-39.96
31.765,-35.32
31.781,-28.79
31.796,-20.66
31.812,-11.43
31.828,-1.9
31.843,7.05
31.859,14.74
31.875,20.83
31.890,25.32
31.906,28.4
31.921,30.15
31.937,30.61
31.953,29.77
31.968,27.67
31.984,24.48
32.000,20.51
32.015,16.26
32.031,12.19
32.046,8.73
32.062,6.12
32.078,4.57
32.093,4.09
32.109,4.55
32.125,5.72
32.140,7.13
32.156,8.31
32.171,8.86
32.187,8.55
32.203,7.45
32.218,5.84
32.234,4.17
32.250,2.81
32.265,2.17
32.281,2.44
32.296,3.72
32.312,5.98
32.328,9.04
32.343,12.69
32.359,16.59
32.375,20.43
32.390,23.8
32.406,26.4
32.421,27.92
32.437,28.17
32.453,27.15
32.468,25.03
32.484,22.17
32.500,18.94
32.515,15.68
32.531,12.57
32.546,9.76
32.562,7.28
32.578,5.16
32.593,3.43
32.609,2.12
32.625,1.24
32.640,0.65
32.656,0.24
32.671,-0.26
32.687,-1.0
32.703,-2.13
32.718,-3.74
32.734,-5.82
32.750,-8.28
32.765,-11.0
32.781,-13.74
32.796,-16.25
32.812,-18.24
32.828,-19.48
32.843,-19.75
32.859,-18.88
32.875,-16.8
32.890,-13.43
32.906,-8.94
32.921,-3.62
32.937,2.06
32.953,7.51
32.968,12.2
32.984,15.75
33.000,17.95
33.015,18.85
33.031,18.69
33.046,17.74
33.062,16.28
33.078,14.54
33.093,12.66
33.109,10.77
33.125,8.93
33.140,7.01
33.156,4.88
33.171,2.42
33.187,-0.47
33.203,-3.68
33.218,-6.93
33.234,-9.96
33.250,-12.52
33.265,-14.56
33.281,-16.24
33.296,-17.71
33.312,-18.99
33.328,-19.91
33.343,-20.05
33.359,-18.9
33.375,-16.22
33.390,-11.96
33.406,-6.31
33.421,0.2
33.437,7.03
33.453,13.6
33.468,19.29
33.484,23.6
33.500,26.1
33.515,26.48
33.531,24.71
33.546,21.22
33.562,16.53
33.578,11.38
33.593,6.31
33.609,1.63
33.625,-2.51
33.640,-6.16
33.656,-9.4
33.671,-12.26
33.687,-14.58
33.703,-16.21
33.718,-16.97
33.734,-16.86
33.750,-16.06
33.765,-14.89
33.781,-13.82
33.796,-13.22
33.812,-13.28
33.828,-13.85
33.843,-14.62
33.859,-14.98
33.875,-14.44
33.890,-12.68
33.906,-9.55
33.921,-5.14
33.937,0.24
33.953,6.11
33.968,12.04
33.984,17.47
34.000,22.01
34.015,25.38
34.031,27.26
34.046,27.63
34.062,26.54
34.078,24.2
34.093,20.87
34.109,16.98
34.125,12.97
34.140,9.22
34.156,6.11
34.171,3.63
34.187,1.62
34.203,-0.12
34.218,-1.78
34.234,-3.52
34.250,-5.28
34.265,-7.04
34.281,-8.83
34.296,-10.68
34.312,-12.78
34.328,-15.22
34.343,-18.04
34.359,-20.97
34.375,-23.71
34.390,-25.76
34.406,-26.83
34.421,-26.65
34.437,-25.12
34.453,-22.35
34.468,-18.45
34.484,-13.7
34.500,-8.44
34.515,-2.98
34.531,2.32
34.546,7.06
34.562,11.02
34.578,14.07
34.593,16.19
34.609,17.52
34.625,18.16
34.640,18.21
34.656,17.76
34.671,16.89
34.687,15.6
34.703,13.97
34.718,12.06
34.734,9.85
34.750,7.4
34.765,4.65
34.781,1.57
34.796,-1.83
34.812,-5.41
34.828,-8.92
34.843,-12.03
34.859,-14.45
34.875,-16.15
34.890,-17.22
34.906,-17.92
34.921,-18.47
34.937,-18.91
34.953,-19.06
34.968,-18.66
34.984,-17.35
35.000,-14.93
35.015,-11.29
35.031,-6.57
35.046,-1.1
35.062,4.57
35.078,9.73
35.093,13.64
35.109,15.97
35.125,16.92
35.140,17.31
35.156,18.33
35.171,20.9
35.187,25.3
35.203,30.98
35.218,36.65
35.234,40.74
35.250,42.07
35.265,40.12
35.281,35.22
35.296,28.42
35.312,21.13
35.328,14.7
35.343,10.27
35.359,8.58
35.375,9.8
35.390,13.68
35.406,19.59
35.421,26.66
35.437,34.24
35.453,42.11
35.468,50.61
35.484,60.29
35.500,71.58
35.515,84.21
35.531,97.08
35.546,108.49
35.562,116.72
35.578,120.62
35.593,119.97
35.609,115.32
35.625,107.65
35.640,97.95
35.656,87.04
35.671,75.53
35.687,63.96
35.703,52.69
35.718,41.95
35.734,31.57
35.750,21.25
35.765,10.62
35.781,-0.49
35.796,-11.92
35.812,-23.17
35.828,-33.49
35.843,-42.02
35.859,-48.03
35.875,-51.22
35.890,-51.89
35.906,-50.92
35.921,-49.67
35.937,-49.55
35.953,-51.67
35.968,-56.44
35.984,-63.65
36.000,-72.67
36.015,-82.79
36.031,-93.36
36.046,-103.62
36.062,-112.69
36.078,-119.5
36.093,-123.13
36.109,-123.12
36.125,-119.91
36.140,-114.71
36.156,-109.14
36.171,-104.49
36.187,-100.96
36.203,-97.85
36.218,-93.67
36.234,-87.04
36.250,-77.25
36.265,-64.58
36.281,-50.2
36.296,-35.62
36.312,-22.27
36.328,-11.2
36.343,-2.96
36.359,2.53
36.375,5.91
36.390,8.13
36.406,10.23
36.421,12.88
36.437,16.04
36.453,19.07
36.468,21.08
36.484,21.62
36.500,20.91
36.515,19.7
36.531,18.54
36.546,17.34
36.562,15.28
36.578,11.49
36.593,5.74
36.609,-1.1
36.625,-7.36
36.640,-11.53
36.656,-12.99
36.671,-12.53
36.687,-11.56
36.703,-11.42
36.718,-12.64
36.734,-14.99
36.750,-18.04
36.765,-21.61
36.781,-26.06
36.796,-31.8
36.812,-38.91
36.828,-46.62
36.843,-53.74
36.859,-59.21
36.875,-62.59
36.890,-64.24
36.906,-64.74
36.921,-64.47
36.937,-63.28
36.953,-60.88
36.968,-57.31
36.984,-53.27
37.000,-49.79
37.015,-47.33
37.031,-45.38
37.046,-42.22
37.062,-35.77
37.078,-24.44
37.093,-8.03
37.109,12.1
37.125,33.45
37.140,53.15
37.156,68.71
37.171,78.36
37.187,81.45
37.203,78.57
37.218,71.53
37.234,63.01
37.250,55.63
37.265,51.18
37.281,49.91
37.296,50.64
37.312,51.42
37.328,50.45
37.343,46.78
37.359,40.54
37.375,32.49
37.390,23.65
37.406,15.15
37.421,7.94
37.437,2.71
37.453,-0.16
37.468,-0.63
37.484,0.96
37.500,4.13
37.515,8.21
37.531,12.56
37.546,16.52
37.562,19.33
37.578,20.41
37.593,19.43
37.609,16.51
37.625,12.09
37.640,6.99
37.656,2.07
37.671,-1.84
37.687,-4.07
37.703,-4.27
37.718,-2.44
37.734,1.22
37.750,6.24
37.765,11.99
37.781,17.91
37.796,23.43
37.812,28.18
37.828,32.03
37.843,34.82
37.859,36.62
37.875,37.8
37.890,38.86
37.906,40.43
37.921,42.9
37.937,46.06
37.953,49.13
37.968,51.03
37.984,50.78
38.000,47.86
38.015,42.32
38.031,34.6
38.046,25.38
38.062,15.31
38.078,4.93
38.093,-5.33
38.109,-15.0
38.125,-23.6
38.140,-30.59
38.156,-35.46
38.171,-37.92
38.187,-37.81
38.203,-35.14
38.218,-30.15
38.234,-23.27
38.250,-15.22
38.265,-6.84
38.281,1.07
38.296,7.89
38.312,13.19
38.328,16.78
38.343,18.68
38.359,19.12
38.375,18.52
38.390,17.48
38.406,16.71
38.421,16.74
38.437,17.81
38.453,19.7
38.468,21.96
38.484,24.3
38.500,26.84
38.515,29.87
38.531,33.47
38.546,37.22
38.562,40.29
38.578,42.03
38.593,42.42
38.609,42.35
38.625,43.15
38.640,45.54
38.656,48.7
38.671,50.33
38.687,47.6
38.703,38.61
38.718,23.31
38.734,3.74
38.750,-16.85
38.765,-35.25
38.781,-49.14
38.796,-57.5
38.812,-60.21
38.828,-57.78
38.843,-51.13
38.859,-41.4
38.875,-30.02
38.890,-18.26
38.906,-7.35
38.921,1.83
38.937,8.65
38.953,12.82
38.968,14.13
38.984,12.76
39.000,9.29
39.015,4.65
39.031,-0.11
39.046,-4.31
39.062,-7.75
39.078,-10.69
39.093,-13.56
39.109,-16.8
39.125,-20.52
39.140,-24.62
39.156,-28.9
39.171,-33.14
39.187,-37.07
39.203,-40.21
39.218,-42.01
39.234,-41.75
39.250,-39.03
39.265,-33.84
39.281,-26.57
39.296,-17.95
39.312,-8.72
39.328,0.58
39.343,9.9
39.359,19.59
39.375,30.15
39.390,41.86
39.406,54.3
39.421,66.46
39.437,76.92
39.453,84.52
39.468,88.6
39.484,89.35
39.500,87.56
39.515,84.07
39.531,79.53
39.546,74.09
39.562,67.59
39.578,59.41
39.593,48.92
39.609,35.31
39.625,18.15
39.640,-2.32
39.656,-24.68
39.671,-46.35
39.687,-64.08
39.703,-74.95
39.718,-77.85
39.734,-73.71
39.750,-65.39
39.765,-56.08
39.781,-48.17
39.796,-42.41
39.812,-37.99
39.828,-33.64
39.843,-28.57
39.859,-23.11
39.875,-18.38
39.890,-15.63
39.906,-15.4
39.921,-17.45
39.937,-21.02
39.953,-25.45
39.968,-30.66
39.984,-37.07
40.000,-45.23
40.015,-55.05
40.031,-65.77
40.046,-75.96
40.062,-84.02
40.078,-88.82
40.093,-89.86
40.109,-87.68
40.125,-83.42
40.140,-78.53
40.156,-74.1
40.171,-70.63
40.187,-67.8
40.203,-64.8
40.218,-60.75
40.234,-54.96
40.250,-47.45
40.265,-38.62
40.281,-29.3
40.296,-20.57
40.312,-13.67
40.328,-9.8
40.343,-9.81
40.359,-13.63
40.375,-19.99
40.390,-26.77
40.406,-31.42
40.421,-32.18
40.437,-28.65
40.453,-21.75
40.468,-12.94
40.484,-3.47
40.500,6.15
40.515,16.07
40.531,26.28
40.546,36.27
40.562,44.77
40.578,50.46
40.593,52.58
40.609,51.35
40.625,47.92
40.640,43.56
40.656,39.44
40.671,35.99
40.687,33.17
40.703,30.58
40.718,27.77
40.734,24.53
40.750,20.97
40.765,17.41
40.781,14.12
40.796,11.32
40.812,8.99
40.828,7.13
40.843,5.47
40.859,3.71
40.875,1.46
40.890,-1.86
40.906,-6.71
40.921,-13.38
40.937,-21.47
40.953,-30.09
40.968,-37.7
40.984,-43.07
41.000,-45.8
41.015,-46.58
41.031,-46.83
41.046,-47.48
41.062,-48.36
41.078,-47.87
41.093,-43.93
41.109,-35.12
41.125,-21.55
41.140,-4.87
41.156,12.53
41.171,28.61
41.187,42.22
41.203,52.97
41.218,60.63
41.234,64.75
41.250,64.91
41.265,61.29
41.281,55.08
41.296,48.44
41.312,43.27
41.328,40.59
41.343,39.99
41.359,40.16
41.375,39.97
41.390,39.06
41.406,38.0
41.421,37.66
41.437,38.72
41.453,40.89
41.468,43.34
41.484,44.96
41.500,44.85
41.515,42.85
41.531,39.24
41.546,34.69
41.562,29.83
41.578,25.15
41.593,20.69
41.609,16.39
41.625,12.19
41.640,8.1
41.656,4.38
41.671,1.38
41.687,-0.61
41.703,-1.5
41.718,-1.51
41.734,-1.22
41.750,-1.13
41.765,-1.55
41.781,-2.75
41.796,-4.53
41.812,-6.77
41.828,-9.39
41.843,-12.4
41.859,-15.89
41.875,-19.87
41.890,-24.04
41.906,-27.77
41.921,-30.49
41.937,-31.56
41.953,-30.79
41.968,-28.33
41.984,-24.45
42.000,-19.61
42.015,-14.12
42.031,-8.26
42.046,-2.11
42.062,4.26
42.078,10.98
42.093,18.01
42.109,25.22
42.125,32.43
42.140,39.12
42.156,44.76
42.171,48.88
42.187,51.23
42.203,51.85
42.218,51.12
42.234,49.36
42.250,46.79
42.265,43.68
42.281,40.13
42.296,36.4
42.312,32.92
42.328,30.2
42.343,28.72
42.359,28.88
42.375,30.75
42.390,34.22
42.406,39.23
42.421,45.61
42.437,53.43
42.453,62.83
42.468,74.01
42.484,87.14
42.500,102.02
42.515,117.98
42.531,133.82
42.546,147.94
42.562,158.47
42.578,163.99
42.593,163.6
42.609,157.14
42.625,145.03
42.640,127.98
42.656,106.64
42.671,81.69
42.687,53.87
42.703,23.86
42.718,-7.21
42.734,-38.1
42.750,-67.4
42.765,-93.92
42.781,-116.72
42.796,-135.37
42.812,-149.51
42.828,-158.89
42.843,-162.97
42.859,-161.05
42.875,-152.8
42.890,-138.56
42.906,-119.65
42.921,-98.07
42.937,-75.87
42.953,-54.48
42.968,-34.65
42.984,-16.88
43.000,-1.85
43.015,9.29
43.031,15.64
43.046,17.29
43.062,15.57
43.078,12.56
43.093,9.99
43.109,8.44
43.125,7.2
43.140,5.01
43.156,1.04
43.171,-4.48
43.187,-10.17
43.203,-14.64
43.218,-17.41
43.234,-19.31
43.250,-22.0
43.265,-27.01
43.281,-34.8
43.296,-44.66
43.312,-54.87
43.328,-63.59
43.343,-69.45
43.359,-71.85
43.375,-71.12
43.390,-68.04
43.406,-63.55
43.421,-58.73
43.437,-54.59
43.453,-51.99
43.468,-51.31
43.484,-52.17
43.500,-53.35
43.515,-53.3
43.531,-50.8
43.546,-45.69
43.562,-39.07
43.578,-32.56
43.593,-27.43
43.609,-23.65
43.625,-19.74
43.640,-13.73
43.656,-4.32
43.671,8.05
43.687,21.33
43.703,32.82
43.718,40.52
43.734,43.98
43.750,44.18
43.765,42.86
43.781,41.44
43.796,40.62
43.812,40.39
43.828,40.45
43.843,40.64
43.859,41.15
43.875,42.06
43.890,43.25
43.906,44.52
43.921,45.56
43.937,46.42
43.953,47.41
43.968,48.85
43.984,51.07
44.000,54.28
44.015,58.7
44.031,64.64
44.046,72.48
44.062,82.27
44.078,93.64
44.093,105.67
44.109,117.32
44.125,127.97
44.140,137.54
44.156,146.45
44.171,155.11
44.187,163.69
44.203,171.99
44.218,179.91
44.234,187.75
44.250,196.2
44.265,205.89
44.281,216.68
44.296,227.45
44.312,236.56
44.328,242.93
44.343,246.81
44.359,249.87
44.375,254.29
44.390,261.49
44.406,271.52
44.421,283.1
44.437,294.3
44.453,303.09
44.468,307.53
44.484,305.56
44.500,295.14
44.515,274.62
44.531,243.45
44.546,202.88
44.562,155.81
44.578,105.93
44.593,56.7
44.609,10.26
44.625,-32.53
44.640,-71.85
44.656,-107.93
44.671,-140.8
44.687,-169.98
44.703,-194.78
44.718,-214.56
44.734,-228.81
44.750,-237.15
44.765,-239.43
44.781,-235.91
44.796,-226.92
44.812,-213.21
44.828,-195.63
44.843,-175.16
44.859,-152.85
44.875,-129.76
44.890,-107.18
44.906,-86.67
44.921,-70.03
44.937,-58.86
44.953,-54.38
44.968,-57.04
44.984,-66.34
45.000,-81.04
45.015,-99.38
45.031,-119.85
45.046,-141.69
45.062,-164.85
45.078,-189.75
45.093,-216.66
45.109,-245.39
45.125,-274.55
45.140,-302.24
45.156,-326.16
45.171,-344.49
45.187,-356.47
45.203,-362.2
45.218,-362.71
45.234,-359.68
45.250,-355.78
45.265,-353.96
45.281,-356.84
45.296,-364.92
45.312,-375.85
45.328,-384.79
45.343,-386.27
45.359,-376.82
45.375,-357.15
45.390,-332.37
45.406,-309.97
45.421,-296.81
45.437,-296.22
45.453,-307.02
45.468,-324.95
45.484,-344.79
45.500,-362.37
45.515,-375.25
45.531,-382.21
45.546,-382.33
45.562,-374.82
45.578,-359.34
45.593,-336.4
45.609,-308.0
45.625,-277.19
45.640,-247.23
45.656,-220.6
45.671,-198.17
45.687,-179.17
45.703,-161.78
45.718,-144.17
45.734,-125.0
45.750,-104.13
45.765,-82.3
45.781,-60.73
45.796,-40.36
45.812,-21.38
45.828,-3.31
45.843,14.62
45.859,32.85
45.875,51.35
45.890,69.53
45.906,86.71
45.921,102.56
45.937,117.44
45.953,132.46
45.968,149.02
45.984,168.0
46.000,189.39
46.015,212.32
46.031,235.27
46.046,256.74
46.062,275.83
46.078,292.57
46.093,307.94
46.109,323.66
46.125,341.62
46.140,363.66
46.156,390.71
46.171,421.79
46.187,453.55
46.203,480.51
46.218,496.55
46.234,497.26
46.250,481.58
46.265,452.25
46.281,414.57
46.296,374.39
46.312,336.09
46.328,301.65
46.343,271.26
46.359,244.32
46.375,220.55
46.390,200.41
46.406,184.52
46.421,173.21
46.437,166.17
46.453,162.92
46.468,162.85
46.484,165.52
46.500,170.25
46.515,176.09
46.531,181.94
46.546,186.13
46.562,186.96
46.578,183.19
46.593,174.87
46.609,163.36
46.625,151.04
46.640,140.82
46.656,135.18
46.671,135.99
46.687,143.46
46.703,156.26
46.718,171.79
46.734,187.06
46.750,199.27
46.765,206.19
46.781,206.66
46.796,200.29
46.812,187.94
46.828,170.18
46.843,146.62
46.859,115.6
46.875,74.7
46.890,21.77
46.906,-43.89
46.921,-120.49
46.937,-206.31
46.953,-293.29
46.968,-369.61
46.984,-423.48
47.000,-447.86
47.015,-443.03
47.031,-415.21
47.046,-373.13
47.062,-324.47
47.078,-274.79
47.093,-227.01
47.109,-183.34
47.125,-146.17
47.140,-117.41
47.156,-97.96
47.171,-86.8
47.187,-81.57
47.203,-78.92
47.218,-75.91
47.234,-70.38
47.250,-62.05
47.265,-52.71
47.281,-44.87
47.296,-40.61
47.312,-40.11
47.328,-42.42
47.343,-45.29
47.359,-46.24
47.375,-43.42
47.390,-36.58
47.406,-26.95
47.421,-16.45
47.437,-6.88
47.453,1.93
47.468,10.38
47.484,19.56
47.500,30.11
47.515,41.45
47.531,52.01
47.546,57.77
47.562,54.57
47.578,39.54
47.593,11.89
47.609,-27.21
47.625,-74.1
47.640,-122.8
47.656,-165.34
47.671,-193.07
47.687,-197.71
47.703,-176.54
47.718,-133.19
47.734,-76.69
47.750,-18.61
47.765,31.49
47.781,68.89
47.796,93.75
47.812,109.76
47.828,120.71
47.843,127.95
47.859,131.04
47.875,129.19
47.890,122.52
47.906,113.22
47.921,104.99
47.937,100.27
47.953,100.61
47.968,106.1
47.984,115.34
48.000,126.85
48.015,139.29
48.031,150.57
48.046,157.66
48.062,157.07
48.078,147.82
48.093,129.34
48.109,104.44
48.125,77.66
48.140,53.47
48.156,34.02
48.171,18.91
48.187,6.07
48.203,-6.48
48.218,-19.46
48.234,-32.19
48.250,-43.25
48.265,-51.85
48.281,-58.17
48.296,-63.12
48.312,-67.23
48.328,-70.01
48.343,-70.32
48.359,-67.18
48.375,-60.12
48.390,-49.83
48.406,-37.9
48.421,-26.37
48.437,-17.1
48.453,-10.92
48.468,-7.26
48.484,-4.81
48.500,-2.3
48.515,1.28
48.531,6.41
48.546,13.01
48.562,20.51
48.578,28.33
48.593,36.23
48.609,44.45
48.625,53.5
48.640,63.52
48.656,74.51
48.671,86.23
48.687,98.12
48.703,109.55
48.718,120.03
48.734,129.34
48.750,137.6
48.765,145.3
48.781,152.25
48.796,158.54
48.812,164.03
48.828,168.47
48.843,171.43
48.859,172.21
48.875,169.79
48.890,162.54
48.906,153.18
48.921,142.44
48.937,130.74
48.953,118.32
48.968,105.33
48.984,91.99
49.000,78.44
49.015,64.91
49.031,51.68
49.046,39.1
49.062,26.92
49.078,15.17
49.093,4.03
49.109,-6.35
49.125,-15.74
49.140,-24.02
49.156,-31.46
49.171,-38.38
49.187,-44.73
49.203,-50.65
49.218,-55.97
49.234,-60.32
49.250,-63.35
49.265,-64.76
49.281,-64.34
49.296,-62.47
49.312,-59.86
49.328,-57.14
49.343,-55.12
49.359,-54.36
49.375,-54.89
49.390,-56.4
49.406,-58.2
49.421,-59.33
49.437,-59.94
49.453,-60.42
49.468,-60.92
49.484,-61.16
49.500,-60.57
49.515,-58.57
49.531,-55.17
49.546,-51.37
49.562,-48.84
49.578,-51.74
49.593,-63.6
49.609,-85.42
49.625,-115.24
49.640,-149.23
49.656,-183.44
49.671,-215.02
49.687,-242.5
49.703,-265.46
49.718,-288.52
49.734,-316.13
49.750,-349.72
49.765,-387.55
49.781,-426.84
49.796,-466.01
49.812,-504.5
49.828,-540.91
49.843,-571.15
49.859,-596.02
49.875,-615.03
49.890,-624.75
49.906,-620.46
49.921,-599.73
49.937,-564.38
49.953,-518.39
49.968,-464.83
49.984,-403.89
50.000,-345.15
50.015,-299.53
50.031,-274.61
50.046,-272.78
50.062,-292.93
50.078,-332.57
50.093,-387.2
50.109,-450.11
50.125,-460.47
50.140,-382.42
50.156,-222.88
50.171,-26.25
50.187,161.32
50.203,317.36
50.218,440.68
50.234,539.31
50.250,621.53
50.265,694.42
50.281,755.67
50.296,797.75
50.312,816.79
50.328,816.19
50.343,802.64
50.359,781.42
50.375,755.43
50.390,709.18
50.406,641.98
50.421,554.67
50.437,452.35
50.453,344.32
50.468,242.09
50.484,155.52
50.500,89.45
50.515,44.1
50.531,16.89
50.546,6.34
50.562,4.85
50.578,4.14
50.593,-0.32
50.609,-8.37
50.625,-17.4
50.640,-25.21
50.656,-30.86
50.671,-33.82
50.687,-32.36
50.703,-28.42
50.718,-25.35
50.734,-25.2
50.750,-27.93
50.765,-32.1
50.781,-36.3
50.796,-39.53
50.812,-41.29
50.828,-40.37
50.843,-37.51
50.859,-34.81
50.875,-34.12
50.890,-36.19
50.906,-40.44
50.921,-45.58
50.937,-50.27
50.953,-53.46
50.968,-54.3
50.984,-53.07
51.000,-51.83
51.015,-53.22
51.031,-59.68
51.046,-71.95
51.062,-89.16
51.078,-109.62
51.093,-131.4
51.109,-154.29
51.125,-175.11
51.140,-191.68
51.156,-201.89
51.171,-204.03
51.187,-196.16
51.203,-177.28
51.218,-147.52
51.234,-107.91
51.250,-59.19
51.265,-1.12
51.281,64.5
51.296,131.46
51.312,188.79
51.328,222.99
51.343,223.24
51.359,186.1
51.375,117.35
51.390,31.87
51.406,-50.73
51.421,-112.44
51.437,-142.19
51.453,-136.84
51.468,-100.18
51.484,-39.57
51.500,35.44
51.515,113.22
51.531,182.66
51.546,235.79
51.562,268.61
51.578,279.86
51.593,270.55
51.609,243.83
51.625,203.7
51.640,153.36
51.656,93.39
51.671,24.55
51.687,-50.61
51.703,-128.24
51.718,-205.65
51.734,-279.58
51.750,-344.65
51.765,-393.41
51.781,-408.48
51.796,-381.97
51.812,-313.78
51.828,-216.33
51.843,-94.46
51.859,44.66
51.875,191.32
51.890,335.99
51.906,471.54
51.921,594.73
51.937,691.83
51.953,739.57
51.968,726.42
51.984,656.34
52.000,544.81
52.015,413.11
52.031,280.62
52.046,160.6
52.062,59.06
52.078,-24.45
52.093,-91.15
52.109,-140.23
52.125,-170.38
52.140,-183.28
52.156,-183.07
52.171,-175.03
52.187,-164.25
52.203,-154.87
52.218,-150.18
52.234,-150.65
52.250,-153.41
52.265,-154.34
52.281,-151.36
52.296,-144.77
52.312,-136.32
52.328,-128.11
52.343,-122.0
52.359,-119.71
52.375,-121.36
52.390,-125.24
52.406,-129.45
52.421,-133.01
52.437,-136.37
52.453,-140.64
52.468,-146.85
52.484,-155.46
52.500,-166.22
52.515,-177.82
52.531,-187.8
52.546,-195.1
52.562,-197.28
52.578,-193.12
52.593,-182.39
52.609,-165.68
52.625,-144.01
52.640,-118.84
52.656,-91.7
52.671,-64.0
52.687,-37.19
52.703,-12.49
52.718,8.74
52.734,25.6
52.750,37.57
52.765,44.61
52.781,47.09
52.796,45.59
52.812,40.85
52.828,33.62
52.843,24.69
52.859,14.46
52.875,3.46
52.890,-7.81
52.906,-19.15
52.921,-30.5
52.937,-41.79
52.953,-53.06
52.968,-64.22
52.984,-75.26
53.000,-86.21
53.015,-96.79
53.031,-106.76
53.046,-115.86
53.062,-123.89
53.078,-130.52
53.093,-135.32
53.109,-137.82
53.125,-137.19
53.140,-134.98
53.156,-131.73
53.171,-127.76
53.187,-123.34
53.203,-118.55
53.218,-113.48
53.234,-108.09
53.250,-102.44
53.265,-96.53
53.281,-90.4
53.296,-83.84
53.312,-76.75
53.328,-69.17
53.343,-61.17
53.359,-52.9
53.375,-44.65
53.390,-36.73
53.406,-29.55
53.421,-23.55
53.437,-18.93
53.453,-15.93
53.468,-14.79
53.484,-15.6
53.500,-18.47
53.515,-23.43
53.531,-30.41
53.546,-39.3
53.562,-50.03
53.578,-62.36
53.593,-76.05
53.609,-90.93
53.625,-106.7
53.640,-122.94
53.656,-139.17
53.671,-154.58
53.687,-168.21
53.703,-178.86
53.718,-185.2
53.734,-185.88
53.750,-179.89
53.765,-166.57
53.781,-145.84
53.796,-118.28
53.812,-85.17
53.828,-48.46
53.843,-10.48
53.859,26.24
53.875,59.21
53.890,86.2
53.906,105.58
53.921,116.52
53.937,118.94
53.953,113.55
53.968,101.69
53.984,85.23
54.000,66.35
54.015,47.23
54.031,29.93
54.046,16.17
54.062,7.21
54.078,3.74
54.093,5.91
54.109,13.22
54.125,24.76
54.140,39.27
54.156,55.39
54.171,71.75
54.187,87.16
54.203,100.71
54.218,111.84
54.234,120.35
54.250,126.47
54.265,130.81
54.281,134.16
54.296,137.49
54.312,141.83
54.328,147.92
54.343,156.06
54.359,165.92
54.375,176.49
54.390,186.21
54.406,193.24
54.421,195.86
54.437,192.89
54.453,183.86
54.468,169.08
54.484,149.55
54.500,126.67
54.515,102.01
54.531,76.95
54.546,52.72
54.562,30.39
54.578,10.98
54.593,-4.5
54.609,-15.21
54.625,-20.56
54.640,-20.46
54.656,-15.42
54.671,-6.37
54.687,5.51
54.703,19.24
54.718,34.19
54.734,50.25
54.750,67.68
54.765,87.08
54.781,109.38
54.796,135.31
54.812,165.22
54.828,198.36
54.843,232.7
54.859,264.84
54.875,290.71
54.890,306.77
54.906,311.18
54.921,304.48
54.937,289.3
54.953,269.48
54.968,248.67
54.984,229.3
55.000,212.4
55.015,197.84
55.031,185.08
55.046,173.75
55.062,163.64
55.078,154.61
55.093,146.31
55.109,138.21
55.125,129.8
55.140,121.02
55.156,112.38
55.171,105.03
55.187,100.22
55.203,98.71
55.218,100.49
55.234,104.59
55.250,109.38
55.265,112.94
55.281,113.48
55.296,109.75
55.312,101.34
55.328,88.66
55.343,72.75
55.359,55.03
55.375,36.95
55.390,19.59
55.406,3.75
55.421,-10.06
55.437,-21.42
55.453,-30.05
55.468,-35.98
55.484,-39.8
55.500,-42.53
55.515,-45.34
55.531,-49.08
55.546,-53.95
55.562,-59.55
55.578,-65.23
55.593,-70.47
55.609,-75.1
55.625,-79.47
55.640,-83.9
55.656,-88.46
55.671,-92.66
55.687,-95.49
55.703,-95.8
55.718,-92.78
55.734,-86.16
55.750,-76.29
55.765,-63.95
55.781,-49.98
55.796,-35.37
55.812,-20.99
55.828,-7.66
55.843,3.82
55.859,12.59
55.875,18.02
55.890,19.73
55.906,17.76
55.921,12.74
55.937,5.6
55.953,-2.58
55.968,-10.91
55.984,-18.75
56.000,-25.94
56.015,-32.41
56.031,-38.16
56.046,-43.07
56.062,-46.83
56.078,-49.03
56.093,-49.19
56.109,-47.02
56.125,-42.58
56.140,-36.54
56.156,-30.19
56.171,-25.19
56.187,-23.16
56.203,-25.31
56.218,-31.88
56.234,-41.82
56.250,-53.34
56.265,-64.11
56.281,-72.0
56.296,-75.51
56.312,-74.11
56.328,-68.46
56.343,-60.08
56.359,-50.4
56.375,-38.75
56.390,-22.16
56.406,4.25
56.421,45.46
56.437,104.24
56.453,179.68
56.468,266.96
56.484,358.87
56.500,446.97
56.515,523.88
56.531,582.5
56.546,616.57
56.562,621.34
56.578,595.37
56.593,541.93
56.609,468.73
56.625,386.14
56.640,304.22
56.656,232.33
56.671,176.18
56.687,138.82
56.703,121.02
56.718,121.9
56.734,139.14
56.750,168.91
56.765,206.64
56.781,247.8
56.796,291.61
56.812,337.73
56.828,385.56
56.843,433.27
56.859,477.38
56.875,514.13
56.890,540.53
56.906,555.0
56.921,557.15
56.937,550.94
56.953,539.77
56.968,525.87
56.984,509.94
57.000,491.11
57.015,467.76
57.031,438.13
57.046,401.41
57.062,333.29
57.078,221.41
57.093,65.3
57.109,-121.32
57.125,-314.94
57.140,-491.47
57.156,-634.73
57.171,-739.35
57.187,-808.35
57.203,-848.75
57.218,-864.31
57.234,-858.65
57.250,-835.54
57.265,-799.69
57.281,-756.76
57.296,-712.13
57.312,-669.89
57.328,-632.63
57.343,-601.49
57.359,-573.43
57.375,-545.3
57.390,-514.72
57.406,-481.0
57.421,-445.09
57.437,-408.41
57.453,-372.02
57.468,-336.41
57.484,-301.83
57.500,-266.27
57.515,-227.83
57.531,-185.32
57.546,-138.97
57.562,-90.14
57.578,-42.31
57.593,-0.11
57.609,31.17
57.625,46.89
57.640,43.96
57.656,20.42
57.671,-24.07
57.687,-87.7
57.703,-166.13
57.718,-250.46
57.734,-328.47
57.750,-387.24
57.765,-416.69
57.781,-412.41
57.796,-377.12
57.812,-319.22
57.828,-245.62
57.843,-168.57
57.859,-95.88
57.875,-30.19
57.890,28.48
57.906,79.94
57.921,122.4
57.937,153.3
57.953,171.18
57.968,177.3
57.984,174.73
58.000,168.26
58.015,161.78
58.031,157.03
58.046,154.06
58.062,152.06
58.078,150.45
58.093,148.78
58.109,145.31
58.125,136.87
58.140,120.44
58.156,94.14
58.171,58.81
58.187,18.76
58.203,-19.35
58.218,-49.16
58.234,-67.11
58.250,-73.35
58.265,-71.25
58.281,-64.32
58.296,-54.81
58.312,-43.46
58.328,-30.08
58.343,-14.53
58.359,2.34
58.375,18.91
58.390,33.77
58.406,46.06
58.421,55.99
58.437,64.56
58.453,71.57
58.468,76.21
58.484,77.12
58.500,72.99
58.515,63.05
58.531,47.77
58.546,28.87
58.562,8.9
58.578,-9.25
58.593,-23.69
58.609,-33.36
58.625,-38.44
58.640,-40.0
58.656,-39.33
58.671,-37.6
58.687,-35.46
58.703,-33.13
58.718,-30.28
58.734,-27.01
58.750,-23.22
58.765,-19.09
58.781,-14.91
58.796,-11.02
58.812,-7.48
58.828,-4.22
58.843,-1.08
58.859,2.66
58.875,6.8
58.890,11.71
58.906,17.74
58.921,25.29
58.937,34.88
58.953,46.87
58.968,61.45
58.984,78.28
59.000,97.26
59.015,117.01
59.031,136.41
59.046,154.51
59.062,170.42
59.078,183.42
59.093,192.51
59.109,196.69
59.125,195.24
59.140,188.13
59.156,174.94
59.171,156.49
59.187,134.49
59.203,111.02
59.218,87.98
59.234,65.93
59.250,43.81
59.265,18.6
59.281,-5.36
59.296,-26.46
59.312,-42.99
59.328,-53.16
59.343,-55.81
59.359,-50.91
59.375,-39.86
59.390,-25.45
59.406,-11.18
59.421,-0.07
59.437,4.24
59.453,-0.32
59.468,-13.97
59.484,-34.8
59.500,-58.55
59.515,-79.04
59.531,-89.52
59.546,-85.43
59.562,-66.18
59.578,-37.06
59.593,-6.73
59.609,15.69
59.625,23.9
59.640,16.48
59.656,-3.51
59.671,-30.47
59.687,-59.86
59.703,-90.16
59.718,-123.7
59.734,-164.31
59.750,-214.68
59.765,-274.69
59.781,-340.89
59.796,-407.58
59.812,-468.51
59.828,-518.62
59.843,-554.1
59.859,-572.27
59.875,-570.24
59.890,-544.91
59.906,-494.59
59.921,-420.93
59.937,-330.29
59.953,-233.03
59.968,-141.58
59.984,-66.69
