timestamp,value
00.000,19.74
00.015,28.11
00.031,34.59
00.046,39.06
00.062,41.6
00.078,42.06
00.093,40.2
00.109,36.04
00.125,29.97
00.140,23.12
00.156,16.98
00.171,12.73
00.187,10.92
00.203,11.11
00.218,12.22
00.234,12.97
00.250,12.41
00.265,10.33
00.281,7.09
00.296,3.41
00.328,-2.67
00.343,-4.59
00.359,-6.08
00.375,-7.59
00.390,-9.54
00.406,-12.05
00.421,-14.84
00.437,-17.43
00.453,-19.19
00.468,-19.3
00.484,-17.33
00.500,-13.2
00.515,-7.39
00.531,-0.88
00.546,5.18
00.562,10.01
00.578,13.57
00.593,16.36
00.609,19.39
00.625,23.49
00.640,28.99
00.656,35.67
00.671,42.8
00.687,49.54
00.703,54.86
00.718,57.95
00.734,57.93
00.750,54.28
00.765,46.87
00.781,36.37
00.796,24.14
00.812,11.56
00.828,-0.26
00.843,-11.0
00.859,-20.73
00.875,-29.77
00.890,-38.02
00.906,-45.08
00.921,-50.49
00.937,-54.04
00.953,-55.89
00.968,-56.33
00.984,-55.48
01.000,-52.91
01.015,-48.14
01.031,-40.89
01.046,-31.77
01.062,-22.32
01.078,-14.49
01.093,-9.79
01.109,-8.6
01.125,-10.02
01.140,-12.25
01.156,-13.68
01.171,-13.66
01.187,-12.92
01.203,-13.05
01.218,-15.57
01.234,-21.11
01.250,-28.8
01.265,-36.92
01.281,-43.61
01.296,-47.53
01.312,-48.26
01.328,-46.1
01.343,-41.53
01.359,-34.81
01.375,-25.9
01.390,-14.95
01.406,-2.64
01.421,9.61
01.437,19.74
01.453,26.13
01.468,27.97
01.484,25.8
01.500,21.16
01.515,16.0
01.531,11.8
01.546,9.08
01.562,7.57
01.578,6.38
01.593,4.9
01.609,3.08
01.625,1.56
01.640,1.12
01.656,2.15
01.671,4.38
01.687,6.88
01.703,8.69
01.718,9.51
01.734,9.87
01.750,10.72
01.765,12.85
01.781,16.18
01.796,19.81
01.812,22.64
01.828,24.04
01.843,24.08
01.859,23.21
01.875,21.81
01.890,19.62
01.906,16.13
01.921,11.31
01.937,5.84
01.953,1.24
01.968,-0.84
01.984,0.59
02.000,5.48
02.015,12.82
02.031,21.19
02.046,29.03
02.062,35.15
02.078,38.63
02.093,38.84
02.109,35.6
02.125,29.29
02.140,20.92
02.156,11.67
02.171,2.81
02.187,-4.59
02.203,-9.87
02.218,-12.8
02.234,-13.65
02.250,-13.27
02.265,-12.8
02.281,-13.25
02.296,-15.19
02.312,-18.45
02.328,-22.18
02.343,-25.31
02.359,-26.95
02.375,-26.79
02.390,-25.22
02.406,-23.26
02.421,-21.86
02.437,-21.76
02.453,-23.14
02.468,-25.52
02.484,-28.3
02.500,-30.77
02.515,-32.48
02.531,-32.94
02.546,-31.88
02.562,-29.13
02.578,-24.77
02.593,-19.34
02.609,-13.62
02.625,-8.55
02.640,-4.58
02.656,-1.49
02.671,1.63
02.687,6.08
02.703,12.77
02.718,22.0
02.734,33.29
02.750,45.77
02.765,58.58
02.781,71.36
02.796,84.1
02.812,96.72
02.828,108.76
02.843,118.91
02.859,125.5
02.875,127.16
02.890,123.58
02.906,115.68
02.921,105.29
02.937,94.45
02.953,84.53
02.968,76.28
02.984,69.63
03.000,64.13
03.015,59.22
03.031,54.35
03.046,49.01
03.062,42.84
03.078,35.45
03.093,26.39
03.109,15.39
03.125,2.56
03.140,-11.57
03.156,-26.0
03.171,-39.73
03.187,-52.18
03.203,-63.45
03.218,-74.28
03.234,-85.5
03.250,-97.41
03.265,-109.43
03.281,-120.17
03.296,-128.06
03.312,-131.91
03.328,-131.29
03.343,-126.47
03.359,-118.11
03.375,-107.27
03.390,-94.92
03.406,-82.02
03.421,-69.28
03.437,-57.16
03.453,-45.97
03.468,-35.95
03.484,-27.26
03.500,-20.07
03.515,-14.5
03.531,-10.42
03.546,-7.68
03.562,-5.76
03.578,-4.05
03.593,-2.03
03.609,0.42
03.625,3.17
03.640,5.83
03.656,8.07
03.671,9.98
03.687,11.88
03.703,14.05
03.718,16.7
03.734,19.69
03.750,22.69
03.765,25.49
03.781,28.12
03.796,30.69
03.812,33.38
03.828,36.11
03.843,38.31
03.859,39.33
03.875,38.4
03.890,35.15
03.906,29.49
03.921,21.78
03.937,12.54
03.953,2.58
03.968,-7.28
03.984,-16.26
04.000,-23.74
04.015,-29.54
04.031,-33.69
04.046,-36.5
04.062,-38.27
04.078,-39.26
04.093,-39.5
04.109,-38.89
04.125,-37.42
04.140,-35.2
04.156,-32.59
04.171,-29.97
04.187,-27.65
04.203,-25.57
04.218,-23.49
04.234,-20.95
04.250,-17.66
04.265,-13.53
04.281,-8.79
04.296,-3.91
04.312,0.64
04.328,4.47
04.343,7.54
04.359,10.03
04.375,12.37
04.390,14.9
04.406,17.74
04.421,20.62
04.437,23.04
04.453,24.69
04.468,25.56
04.484,26.26
04.500,27.58
04.515,30.18
04.531,34.29
04.546,39.7
04.562,46.01
04.578,52.86
04.593,60.09
04.609,67.55
04.625,74.94
04.640,81.58
04.656,86.24
04.671,87.88
04.687,85.7
04.703,79.64
04.718,70.32
04.734,59.03
04.750,47.25
04.765,36.49
04.781,27.92
04.796,21.98
04.812,18.53
04.828,16.83
04.843,15.96
04.859,15.09
04.875,13.85
04.890,12.28
04.906,10.87
04.921,10.22
04.937,11.05
04.953,13.98
04.968,19.35
04.984,26.95
05.000,35.68
05.015,43.65
05.031,48.42
05.046,48.06
05.062,42.0
05.078,31.36
05.093,18.57
05.109,6.27
05.125,-3.93
05.140,-11.92
05.156,-18.95
05.171,-26.76
05.187,-36.52
05.203,-48.25
05.218,-60.98
05.234,-73.4
05.250,-84.56
05.265,-94.41
05.281,-103.38
05.296,-111.77
05.312,-119.17
05.328,-124.16
05.343,-124.95
05.359,-120.26
05.375,-110.14
05.390,-95.96
05.406,-79.94
05.421,-64.35
05.437,-50.61
05.453,-39.34
05.468,-30.5
05.484,-23.71
05.500,-18.81
05.515,-15.68
05.531,-14.19
05.546,-13.99
05.562,-14.43
05.578,-14.86
05.593,-14.82
05.609,-14.25
05.625,-13.48
05.640,-13.12
05.656,-13.67
05.671,-15.36
05.687,-18.09
05.703,-21.51
05.718,-25.18
05.734,-28.75
05.750,-31.9
05.765,-34.42
05.781,-36.08
05.796,-36.62
05.812,-35.78
05.828,-33.5
05.843,-29.83
05.859,-24.87
05.875,-19.01
05.890,-12.67
05.906,-6.56
05.921,-1.51
05.937,2.03
05.953,4.18
05.968,5.47
05.984,6.87
06.000,9.14
06.015,12.43
06.031,16.29
06.046,19.91
06.062,22.51
06.078,23.81
06.093,24.05
06.109,23.62
06.125,23.0
06.140,22.42
06.156,22.01
06.171,22.05
06.187,22.86
06.203,24.76
06.218,27.89
06.234,32.0
06.250,36.46
06.265,40.52
06.281,43.54
06.296,44.96
06.312,44.69
06.328,42.75
06.343,39.45
06.359,35.47
06.375,31.51
06.390,28.19
06.406,25.7
06.421,23.77
06.437,21.82
06.453,19.68
06.468,17.52
06.484,15.99
06.500,15.73
06.515,16.84
06.531,18.62
06.546,19.8
06.562,19.02
06.578,15.3
06.593,8.57
06.609,-0.66
06.625,-11.5
06.640,-22.89
06.656,-33.91
06.671,-43.53
06.687,-50.8
06.703,-55.18
06.718,-56.57
06.734,-55.43
06.750,-52.6
06.765,-49.02
06.781,-45.5
06.796,-42.52
06.812,-40.24
06.828,-38.55
06.843,-37.5
06.859,-37.01
06.875,-37.03
06.890,-37.27
06.906,-37.27
06.921,-36.45
06.937,-34.36
06.953,-30.71
06.968,-25.49
06.984,-19.02
07.000,-11.89
07.015,-4.97
07.031,0.89
07.046,5.03
07.062,7.32
07.078,8.04
07.093,7.64
07.109,6.38
07.125,4.01
07.140,0.07
07.156,-6.0
07.171,-14.01
07.187,-22.94
07.203,-31.18
07.218,-36.95
07.234,-39.3
07.250,-37.93
07.265,-33.44
07.281,-26.63
07.296,-18.2
07.312,-8.58
07.328,1.97
07.343,12.96
07.359,23.68
07.375,32.95
07.390,39.63
07.406,42.97
07.421,43.04
07.437,40.76
07.453,37.5
07.468,34.63
07.484,32.89
07.500,32.46
07.515,33.01
07.531,34.15
07.546,35.6
07.562,37.23
07.578,39.08
07.593,41.0
07.609,42.71
07.625,43.7
07.640,43.6
07.656,42.0
07.671,38.64
07.687,33.59
07.703,27.17
07.718,20.12
07.734,13.22
07.750,7.17
07.765,2.19
07.781,-1.81
07.796,-5.13
07.812,-8.08
07.828,-10.66
07.843,-12.76
07.859,-14.17
07.875,-14.87
07.890,-15.01
07.906,-14.93
07.921,-14.94
07.937,-15.18
07.953,-15.62
07.968,-16.1
07.984,-16.6
08.000,-17.11
08.015,-17.66
08.031,-18.28
08.046,-18.78
08.062,-18.94
08.078,-18.53
08.093,-17.34
08.109,-15.34
08.125,-12.74
08.140,-9.95
08.156,-7.32
08.171,-5.16
08.187,-3.51
08.203,-2.21
08.218,-0.93
08.234,0.58
08.250,2.49
08.265,4.66
08.281,6.68
08.296,8.19
08.312,8.99
08.328,9.16
08.343,8.99
08.359,8.75
08.375,8.59
08.390,8.43
08.406,8.12
08.421,7.44
08.437,6.39
08.453,5.09
08.468,3.7
08.484,2.24
08.500,0.65
08.515,-1.26
08.531,-3.67
08.546,-6.53
08.562,-9.73
08.578,-12.98
08.593,-15.91
08.609,-18.17
08.625,-19.39
08.640,-19.43
08.656,-18.33
08.671,-16.39
08.687,-13.95
08.703,-11.5
08.718,-9.33
08.734,-7.55
08.750,-6.04
08.765,-4.51
08.781,-2.69
08.796,-0.36
08.812,2.66
08.828,6.41
08.843,10.78
08.859,15.6
08.875,20.43
08.890,24.86
08.906,28.64
08.921,31.6
08.937,33.84
08.953,35.79
08.968,37.87
08.984,40.31
09.000,43.14
09.015,46.01
09.031,48.47
09.046,50.35
09.062,51.81
09.078,53.36
09.093,55.6
09.109,58.79
09.125,62.64
09.140,66.59
09.156,69.96
09.171,72.49
09.187,74.41
09.203,76.19
09.218,78.27
09.234,80.5
09.250,82.28
09.265,82.73
09.281,81.48
09.296,78.54
09.312,74.29
09.328,68.69
09.343,60.73
09.359,48.84
09.375,31.3
09.390,7.32
09.406,-22.17
09.421,-54.69
09.437,-87.45
09.453,-118.26
09.468,-146.3
09.484,-172.1
09.500,-196.55
09.515,-219.77
09.531,-240.09
09.546,-254.75
09.562,-260.51
09.578,-255.2
09.593,-238.32
09.609,-211.23
09.625,-177.08
09.640,-139.91
09.656,-103.95
09.671,-72.96
09.687,-49.99
09.703,-36.76
09.718,-34.02
09.734,-40.2
09.750,-50.98
09.765,-60.44
09.781,-62.29
09.796,-52.36
09.812,-30.75
09.828,-1.69
09.843,28.91
09.859,55.74
09.875,76.95
09.890,94.63
09.906,112.53
09.921,134.09
09.937,160.63
09.953,189.96
09.968,218.04
09.984,240.5
10.000,253.24
10.015,253.31
10.031,240.62
10.046,218.0
10.062,191.83
10.078,170.58
10.093,160.75
10.109,163.94
10.125,175.82
10.140,187.49
10.156,189.48
10.171,175.53
10.187,143.35
10.203,95.4
10.218,35.47
10.234,-33.7
10.250,-109.37
10.265,-186.1
10.281,-253.78
10.296,-299.68
10.312,-314.07
10.328,-296.44
10.343,-253.78
10.359,-196.88
10.375,-136.1
10.390,-77.56
10.406,-23.83
10.421,23.8
10.437,64.8
10.453,99.18
10.468,125.24
10.484,141.48
10.500,147.25
10.515,142.66
10.531,128.84
10.546,107.62
10.562,79.62
10.578,43.37
10.593,-0.23
10.609,-49.39
10.625,-101.22
10.640,-153.15
10.656,-203.02
10.671,-248.22
10.687,-284.96
10.703,-308.15
10.718,-312.33
10.734,-294.82
10.750,-258.16
10.765,-209.76
10.781,-160.41
10.796,-120.4
10.812,-95.87
10.828,-87.28
10.843,-90.9
10.859,-100.75
10.875,-112.05
10.890,-123.34
10.906,-134.18
10.921,-144.29
10.937,-152.56
10.953,-157.24
10.968,-156.82
10.984,-151.24
11.000,-142.21
11.015,-132.35
11.031,-124.62
11.046,-120.49
11.062,-120.06
11.078,-121.9
11.093,-124.15
11.109,-125.09
11.125,-123.74
11.140,-120.32
11.156,-115.59
11.171,-110.31
11.187,-104.16
11.203,-96.0
11.218,-83.32
11.234,-66.35
11.250,-45.2
11.265,-20.56
11.281,5.82
11.296,31.84
11.312,55.79
11.328,77.1
11.343,96.02
11.359,113.69
11.375,131.26
11.390,149.61
11.406,168.9
11.421,188.56
11.437,207.63
11.453,225.33
11.468,241.46
11.484,256.28
11.500,270.46
11.515,284.73
11.531,299.88
11.546,316.62
11.562,334.87
11.578,353.6
11.593,370.62
11.609,382.48
11.625,385.46
11.640,377.04
11.656,356.89
11.671,327.35
11.687,292.8
11.703,257.56
11.718,224.72
11.734,195.44
11.750,169.21
11.765,144.99
11.781,122.3
11.796,101.33
11.812,82.63
11.828,66.54
11.843,52.58
11.859,39.8
11.875,27.34
11.890,14.7
11.906,1.96
11.921,-10.21
11.937,-21.02
11.953,-29.82
11.968,-36.29
11.984,-40.6
12.000,-43.25
12.015,-44.72
12.031,-45.39
12.046,-45.29
12.062,-44.22
12.078,-41.93
12.093,-38.38
12.109,-33.69
12.125,-28.51
12.140,-23.41
12.156,-18.87
12.171,-14.95
12.187,-11.31
12.203,-7.38
12.218,-2.71
12.234,2.55
12.250,7.81
12.265,12.13
12.281,14.84
12.296,15.88
12.312,15.96
12.328,16.22
12.343,17.61
12.359,20.35
12.375,23.66
12.390,26.27
12.406,27.05
12.421,25.91
12.437,23.87
12.453,22.78
12.468,24.45
12.484,29.59
12.500,37.62
12.515,46.84
12.531,55.21
12.546,61.26
12.562,64.66
12.578,65.99
12.593,66.21
12.609,66.14
12.625,65.84
12.640,65.12
12.656,63.49
12.671,60.14
12.687,53.52
12.703,41.28
12.718,20.6
12.734,-10.38
12.750,-51.1
12.765,-97.7
12.781,-143.44
12.796,-180.66
12.812,-203.26
12.828,-208.81
12.843,-198.49
12.859,-176.44
12.875,-147.8
12.890,-117.16
12.906,-87.93
12.921,-62.16
12.937,-40.97
12.953,-24.81
12.968,-13.54
12.984,-6.53
13.000,-3.19
13.015,-3.26
13.031,-7.22
13.046,-16.18
13.062,-31.34
13.078,-53.69
13.093,-83.4
13.109,-119.59
13.125,-158.7
13.140,-194.9
13.156,-221.34
13.171,-232.78
13.187,-227.8
13.203,-208.87
13.218,-181.37
13.234,-150.08
13.250,-118.36
13.265,-87.89
13.281,-59.49
13.296,-33.51
13.312,-10.37
13.328,9.32
13.343,25.68
13.359,38.36
13.375,48.13
13.390,56.42
13.406,64.84
13.421,74.25
13.437,84.71
13.453,95.14
13.468,103.93
13.484,110.21
13.500,112.99
13.515,112.31
13.531,109.14
13.546,104.61
13.562,99.58
13.578,93.99
13.593,86.82
13.609,76.29
13.625,61.08
13.640,39.1
13.656,9.06
13.671,-28.86
13.687,-71.97
13.703,-114.97
13.718,-150.51
13.734,-170.78
13.750,-173.28
13.765,-156.17
13.781,-122.61
13.796,-79.76
13.812,-36.64
13.828,-0.76
13.843,23.96
13.859,36.82
13.875,38.88
13.890,31.98
13.906,18.47
13.921,0.23
13.937,-20.88
13.953,-43.0
13.968,-64.29
13.984,-82.96
14.000,-97.01
14.015,-104.02
14.031,-99.49
14.046,-81.0
14.062,-49.27
14.078,-8.56
14.093,36.05
14.109,79.96
14.125,120.58
14.140,155.82
14.156,182.49
14.171,195.58
14.187,189.64
14.203,161.25
14.218,111.08
14.234,46.04
14.250,-23.39
14.265,-86.01
14.281,-133.93
14.296,-163.92
14.312,-176.5
14.328,-173.93
14.343,-159.45
14.359,-138.06
14.375,-116.47
14.390,-102.21
14.406,-100.8
14.421,-113.29
14.437,-134.84
14.453,-155.66
14.468,-164.92
14.484,-152.68
14.500,-118.2
14.515,-71.56
14.531,-29.37
14.546,-5.48
14.562,-4.2
14.578,-21.18
14.593,-48.16
14.609,-78.57
14.625,-109.13
14.640,-140.29
14.656,-173.96
14.671,-209.57
14.687,-243.02
14.703,-267.78
14.718,-278.67
14.734,-274.02
14.750,-256.93
14.765,-233.19
14.781,-208.91
14.796,-187.64
14.812,-168.76
14.828,-148.72
14.843,-122.87
14.859,-87.74
14.875,-42.59
14.890,10.47
14.906,68.09
14.921,125.82
14.937,179.38
14.953,224.5
14.968,257.24
14.984,274.75
15.000,276.53
15.015,265.85
15.031,249.14
15.046,234.4
15.062,227.33
15.078,229.35
15.093,237.36
15.109,246.28
15.125,252.29
15.140,254.74
15.156,255.82
15.171,257.97
15.187,261.22
15.203,261.88
15.218,254.37
15.234,233.93
15.250,199.56
15.265,154.9
15.281,107.47
15.296,66.63
15.312,40.71
15.328,34.32
15.343,46.47
15.359,71.33
15.375,100.22
15.390,124.8
15.406,140.12
15.421,145.28
15.437,142.71
15.453,135.95
15.468,127.6
15.484,118.37
15.500,107.88
15.515,95.84
15.531,83.13
15.546,71.83
15.562,63.83
15.578,59.73
15.593,58.13
15.609,56.43
15.625,52.2
15.640,44.35
15.656,33.08
15.671,19.3
15.687,4.02
15.703,-11.93
15.718,-27.61
15.734,-41.88
15.750,-53.33
15.765,-60.86
15.781,-63.83
15.796,-62.62
15.812,-58.62
15.828,-53.84
15.843,-50.74
15.859,-51.55
15.875,-58.18
15.890,-71.45
15.906,-90.67
15.921,-112.98
15.937,-133.99
15.953,-148.93
15.968,-154.55
15.984,-150.69
16.000,-140.13
16.015,-127.79
16.031,-118.61
16.046,-115.73
16.062,-119.24
16.078,-126.79
16.093,-134.51
16.109,-138.68
16.125,-137.03
16.140,-129.07
16.156,-116.03
16.171,-99.97
16.187,-82.79
16.203,-65.07
16.218,-46.14
16.234,-24.54
16.250,0.68
16.265,28.77
16.281,57.03
16.296,81.98
16.312,100.79
16.328,112.49
16.343,117.92
16.359,118.56
16.375,115.39
16.390,108.38
16.406,97.19
16.421,82.2
16.437,65.0
16.453,48.07
16.468,33.82
16.484,23.32
16.500,16.24
16.515,11.17
16.531,6.18
16.546,-0.5
16.562,-9.84
16.578,-21.93
16.593,-35.71
16.609,-48.99
16.625,-59.03
16.640,-63.4
16.656,-61.16
16.671,-53.12
16.687,-41.59
16.703,-28.9
16.718,-16.53
16.734,-4.91
16.750,5.87
16.765,15.34
16.781,22.54
16.796,26.33
16.812,26.3
16.828,22.98
16.843,17.92
16.859,12.86
16.875,9.34
16.890,8.26
16.906,9.82
16.921,13.92
16.937,19.84
16.953,26.39
16.968,32.13
16.984,35.63
17.000,36.03
17.015,33.24
17.031,27.72
17.046,19.72
17.062,9.23
17.078,-4.08
17.093,-20.15
17.109,-37.91
17.125,-55.38
17.140,-70.16
17.156,-80.45
17.171,-85.32
17.187,-84.83
17.203,-79.42
17.218,-69.65
17.234,-55.89
17.250,-38.73
17.265,-19.21
17.281,1.26
17.296,21.14
17.312,39.22
17.328,54.73
17.343,67.22
17.359,76.24
17.375,81.29
17.390,82.2
17.406,79.24
17.421,73.44
17.437,66.02
17.453,57.91
17.468,49.4
17.484,40.23
17.500,29.95
17.515,18.38
17.531,5.8
17.546,-7.32
17.562,-20.22
17.578,-32.16
17.593,-42.41
17.609,-50.36
17.625,-55.73
17.640,-58.54
17.656,-59.24
17.671,-58.35
17.687,-56.38
17.703,-53.5
17.718,-49.72
17.734,-44.97
17.750,-39.41
17.765,-33.25
17.781,-26.76
17.796,-20.12
17.812,-13.32
17.828,-6.48
17.843,0.22
17.859,6.43
17.875,11.8
17.890,16.05
17.906,19.2
17.921,21.29
17.937,22.31
17.953,22.06
17.968,20.21
17.984,16.57
18.000,11.41
18.015,5.45
18.031,-0.39
18.046,-5.37
18.062,-9.2
18.078,-12.03
18.093,-14.25
18.109,-16.05
18.125,-17.38
18.140,-17.93
18.156,-17.46
18.171,-16.0
18.187,-13.94
18.203,-11.9
18.218,-10.43
18.234,-9.75
18.250,-9.63
18.265,-9.59
18.281,-9.15
18.296,-7.98
18.312,-6.05
18.328,-3.56
18.343,-0.91
18.359,1.52
18.375,3.39
18.390,4.46
18.406,4.79
18.421,4.49
18.437,3.71
18.453,2.47
18.468,0.78
18.484,-1.55
18.500,-4.45
18.515,-7.57
18.531,-10.28
18.546,-11.8
18.562,-11.67
18.578,-9.93
18.593,-7.27
18.609,-4.59
18.625,-2.76
18.640,-1.97
18.656,-1.85
18.671,-1.65
18.687,-0.52
18.703,1.85
18.718,5.02
18.734,8.1
18.750,10.12
18.765,10.59
18.781,9.64
18.796,7.86
18.812,5.92
18.828,4.25
18.843,2.87
18.859,1.65
18.875,0.52
18.890,-0.38
18.906,-0.81
18.921,-0.65
18.937,-0.16
18.953,0.05
18.968,-0.52
18.984,-2.12
19.000,-4.37
19.015,-6.59
19.031,-7.95
19.046,-8.1
19.062,-7.08
19.078,-5.38
19.093,-3.7
19.109,-2.63
19.125,-2.43
19.140,-2.93
19.156,-3.61
19.171,-3.86
19.187,-3.29
19.203,-1.82
19.218,0.15
19.234,2.11
19.250,3.58
19.265,4.43
19.281,4.82
19.296,5.14
19.312,5.69
19.328,6.35
19.343,6.78
19.359,6.43
19.375,4.85
19.390,2.02
19.406,-1.75
19.421,-5.8
19.437,-9.25
19.453,-11.28
19.468,-11.34
19.484,-9.34
19.500,-5.59
19.515,-0.82
19.531,4.19
19.546,8.54
19.562,11.51
19.578,12.66
19.593,11.91
19.609,9.43
19.625,5.77
19.640,1.53
19.656,-2.71
19.671,-6.42
19.687,-9.22
19.703,-10.88
19.718,-11.1
19.734,-9.58
19.750,-6.1
19.765,-0.7
19.781,6.07
19.796,13.15
19.812,19.34
19.828,23.43
19.843,24.59
19.859,22.46
19.875,17.16
19.890,9.36
19.906,0.1
19.921,-9.41
19.937,-18.11
19.953,-25.26
19.968,-30.75
19.984,-34.88
20.000,-38.09
20.015,-40.67
20.031,-42.54
20.046,-43.38
20.062,-42.84
20.078,-40.91
20.093,-38.06
20.109,-35.16
20.125,-33.3
20.140,-33.42
20.156,-35.99
20.171,-40.63
20.187,-46.21
20.203,-51.2
20.218,-54.1
20.234,-54.14
20.250,-51.14
20.265,-45.62
20.281,-38.24
20.296,-29.58
20.312,-19.98
20.328,-9.84
20.343,0.17
20.359,9.26
20.375,16.56
20.390,21.69
20.406,24.8
20.421,26.27
20.437,26.51
20.453,25.68
20.468,23.44
20.484,19.41
20.500,13.71
20.515,6.98
20.531,0.48
20.546,-4.64
20.562,-7.79
20.578,-9.11
20.593,-9.26
20.609,-8.97
20.625,-8.62
20.640,-8.03
20.656,-6.86
20.671,-4.7
20.687,-1.51
20.703,2.42
20.718,6.8
20.734,11.42
20.750,16.46
20.765,22.28
20.781,29.21
20.796,37.22
20.812,45.94
20.828,54.44
20.843,61.48
20.859,65.98
20.875,67.45
20.890,66.07
20.906,62.83
20.921,59.06
20.937,55.88
20.953,54.07
20.968,53.78
20.984,54.72
21.000,56.45
21.015,58.96
21.031,62.69
21.046,68.32
21.062,76.25
21.078,86.31
21.093,97.75
21.109,109.4
21.125,120.06
21.140,128.55
21.156,133.75
21.171,134.43
21.187,129.31
21.203,117.36
21.218,98.56
21.234,74.58
21.250,48.44
21.265,23.95
21.281,4.36
21.296,-8.69
21.312,-15.26
21.328,-16.58
21.343,-14.25
21.359,-9.63
21.375,-3.28
21.390,4.36
21.406,12.67
21.421,20.66
21.437,26.87
21.453,29.61
21.468,27.43
21.484,19.33
21.500,4.7
21.515,-16.38
21.531,-43.38
21.546,-75.37
21.562,-110.92
21.578,-148.06
21.593,-183.94
21.609,-215.34
21.625,-239.51
21.640,-255.53
21.656,-265.14
21.671,-272.41
21.687,-281.66
21.703,-294.65
21.718,-308.86
21.734,-317.31
21.750,-311.59
21.765,-285.61
21.781,-238.72
21.796,-175.67
21.812,-104.41
21.828,-32.29
21.843,36.74
21.859,101.9
21.875,164.13
21.890,223.28
21.906,276.54
21.921,318.83
21.937,345.14
21.953,352.71
21.968,342.61
21.984,318.89
22.000,286.55
22.015,249.91
22.031,211.91
22.046,174.14
22.062,137.82
22.078,104.54
22.093,76.32
22.109,55.63
22.125,43.94
22.140,41.07
22.156,45.01
22.171,52.94
22.187,62.21
22.203,71.41
22.218,80.41
22.234,89.67
22.250,99.79
22.265,110.14
22.281,118.78
22.296,123.33
22.312,122.49
22.328,117.04
22.343,109.64
22.359,103.68
22.375,101.39
22.390,103.17
22.406,106.6
22.421,107.24
22.437,100.32
22.453,82.21
22.468,51.31
22.484,8.2
22.500,-44.62
22.515,-105.66
22.531,-168.86
22.546,-225.4
22.562,-266.62
22.578,-287.2
22.593,-287.3
22.609,-271.33
22.625,-245.33
22.640,-214.67
22.656,-183.39
22.671,-153.66
22.687,-127.1
22.703,-105.15
22.718,-88.38
22.734,-76.49
22.750,-68.37
22.765,-62.41
22.781,-56.91
22.796,-51.17
22.812,-44.47
22.828,-36.91
22.843,-29.78
22.859,-24.02
22.875,-19.63
22.890,-16.24
22.906,-12.64
22.921,-7.0
22.937,1.28
22.953,12.24
22.968,24.86
22.984,37.19
23.000,47.22
23.015,54.18
23.031,58.01
23.046,58.57
23.062,56.2
23.078,51.06
23.093,43.25
23.109,31.95
23.125,16.0
23.140,-4.81
23.156,-29.34
23.171,-55.48
23.187,-80.78
23.203,-102.34
23.218,-118.04
23.234,-126.76
23.250,-128.8
23.265,-126.71
23.281,-122.92
23.296,-120.51
23.312,-122.26
23.328,-129.66
23.343,-141.18
23.359,-152.58
23.375,-156.59
23.390,-146.45
23.406,-120.0
23.421,-78.87
23.437,-29.55
23.453,19.32
23.468,60.17
23.484,89.78
23.500,108.44
23.515,120.14
23.531,129.23
23.546,135.33
23.562,137.05
23.578,131.7
23.593,117.64
23.609,95.52
23.625,68.68
23.640,41.82
23.656,19.73
23.671,6.35
23.687,3.75
23.703,13.72
23.718,36.54
23.734,70.62
23.750,111.16
23.765,149.23
23.781,174.09
23.796,177.66
23.812,158.47
23.828,121.19
23.843,76.18
23.859,33.86
23.875,1.34
23.890,-18.84
23.906,-28.18
23.921,-29.45
23.937,-24.61
23.953,-13.62
23.968,2.3
23.984,21.93
24.000,41.86
24.015,58.72
24.031,69.97
24.046,75.75
24.062,77.83
24.078,78.22
24.093,78.52
24.109,77.62
24.125,73.19
24.140,61.94
24.156,41.16
24.171,10.46
24.187,-27.6
24.203,-67.5
24.218,-103.05
24.234,-129.77
24.250,-146.89
24.265,-155.87
24.281,-159.72
24.296,-162.6
24.312,-168.74
24.328,-181.09
24.343,-199.78
24.359,-222.81
24.375,-240.97
24.390,-246.6
24.406,-233.44
24.421,-199.45
24.437,-141.84
24.453,-68.56
24.468,4.16
24.484,60.31
24.500,90.97
24.515,96.8
24.531,83.9
24.546,60.02
24.562,31.67
24.578,1.91
24.593,-27.2
24.609,-51.97
24.625,-67.65
24.640,-70.53
24.656,-60.39
24.671,-41.66
24.687,-18.29
24.703,2.34
24.718,15.3
24.734,20.29
24.750,21.46
24.765,23.21
24.781,28.0
24.796,36.14
24.812,47.05
24.828,61.55
24.843,81.28
24.859,107.79
24.875,140.13
24.890,174.66
24.906,204.83
24.921,223.49
24.937,225.5
24.953,208.62
24.968,172.16
24.984,116.14
25.000,42.43
25.015,-45.78
25.031,-135.17
25.046,-206.85
25.062,-245.08
25.078,-244.94
25.093,-212.97
25.109,-162.01
25.125,-105.21
25.140,-52.13
25.156,-8.41
25.171,24.97
25.187,45.54
25.203,49.99
25.218,37.22
25.234,10.35
25.250,-23.72
25.265,-56.86
25.281,-81.8
25.296,-95.05
25.312,-97.55
25.328,-94.94
25.343,-94.3
25.359,-99.78
25.375,-110.73
25.390,-122.13
25.406,-127.38
25.421,-120.12
25.437,-96.76
25.453,-58.66
25.468,-12.48
25.484,33.14
25.500,72.29
25.515,102.83
25.531,125.33
25.546,140.99
25.562,151.73
25.578,158.61
25.593,162.03
25.609,161.89
25.625,158.35
25.640,152.98
25.656,147.58
25.671,148.28
25.687,154.31
25.703,164.39
25.718,176.7
25.734,189.06
25.750,199.52
25.765,206.55
25.781,210.68
25.796,213.16
25.812,215.64
25.828,219.55
25.843,227.24
25.859,241.17
25.875,263.77
25.890,297.12
25.906,334.9
25.921,371.35
25.937,398.68
25.953,408.45
25.968,394.29
25.984,355.92
26.000,298.91
26.015,233.02
26.031,168.78
26.046,113.74
26.062,71.75
26.078,42.39
26.093,22.91
26.109,10.29
26.125,3.12
26.140,0.9
26.156,2.72
26.171,6.81
26.187,11.17
26.203,14.54
26.218,16.35
26.234,17.12
26.250,18.01
26.265,19.67
26.281,21.28
26.296,20.44
26.312,14.29
26.328,1.8
26.343,-15.16
26.359,-33.31
26.375,-49.61
26.390,-62.18
26.406,-70.88
26.421,-76.48
26.437,-79.14
26.453,-77.66
26.468,-70.27
26.484,-56.05
26.500,-36.46
26.515,-15.65
26.531,1.57
26.546,11.38
26.562,12.4
26.578,5.55
26.593,-6.95
26.609,-23.01
26.625,-41.61
26.640,-62.51
26.656,-85.35
26.671,-108.92
26.687,-130.48
26.703,-146.44
26.718,-153.71
26.734,-151.07
26.750,-139.43
26.765,-121.76
26.781,-101.91
26.796,-83.31
26.812,-68.68
26.828,-59.44
26.843,-55.63
26.859,-55.99
26.875,-58.49
26.890,-60.36
26.906,-59.16
26.921,-53.34
26.937,-43.21
26.953,-31.08
26.968,-20.28
26.984,-14.19
27.000,-15.06
27.015,-23.67
27.031,-39.2
27.046,-60.11
27.062,-84.2
27.078,-109.3
27.093,-133.88
27.109,-156.38
27.125,-174.84
27.140,-186.46
27.156,-187.71
27.171,-175.54
27.187,-149.34
27.203,-111.86
27.218,-69.04
27.234,-28.31
27.250,4.23
27.265,26.18
27.281,39.14
27.296,47.37
27.312,55.19
27.328,64.58
27.343,74.61
27.359,82.3
27.375,84.54
27.390,79.84
27.406,68.32
27.421,51.18
27.437,30.02
27.453,5.45
27.468,-22.38
27.484,-53.14
27.500,-85.35
27.515,-115.88
27.531,-140.12
27.546,-154.04
27.562,-155.84
27.578,-146.03
27.593,-126.82
27.609,-100.74
27.625,-69.31
27.640,-33.31
27.656,6.14
27.671,46.8
27.687,84.73
27.703,115.24
27.718,134.79
27.734,142.93
27.750,142.45
27.765,138.29
27.781,135.34
27.796,135.99
27.812,139.42
27.828,142.47
27.843,141.48
27.859,134.32
27.875,121.37
27.890,105.24
27.906,89.16
27.921,75.26
27.937,63.84
27.953,53.13
27.968,41.24
27.984,27.42
28.000,12.71
28.015,-0.8
28.031,-11.26
28.046,-18.3
28.062,-23.69
28.078,-30.92
28.093,-43.7
28.109,-64.53
28.125,-93.72
28.140,-128.97
28.156,-166.46
28.171,-201.96
28.187,-231.95
28.203,-254.26
28.218,-268.4
28.234,-275.15
28.250,-276.6
28.265,-276.11
28.281,-277.48
28.296,-283.48
28.312,-294.81
28.328,-308.82
28.343,-320.14
28.359,-322.74
28.375,-312.83
28.390,-290.95
28.406,-262.07
28.421,-233.27
28.437,-209.73
28.453,-192.95
28.468,-180.11
28.484,-166.11
28.500,-146.44
28.515,-119.48
28.531,-87.21
28.546,-53.92
28.562,-24.33
28.578,-1.58
28.593,12.99
28.609,19.73
28.625,19.84
28.640,14.58
28.656,4.98
28.671,-8.21
28.687,-24.36
28.703,-42.58
28.718,-61.63
28.734,-79.9
28.750,-95.9
28.765,-108.77
28.781,-118.7
28.796,-126.24
28.812,-131.83
28.828,-135.31
28.843,-135.85
28.859,-132.91
28.875,-127.27
28.890,-121.57
28.906,-119.48
28.921,-123.97
28.937,-135.07
28.953,-149.14
28.968,-160.25
28.984,-162.95
29.000,-154.86
29.015,-137.51
29.031,-114.92
29.046,-91.29
29.062,-68.76
29.078,-46.94
29.093,-24.12
29.109,0.67
29.125,26.51
29.140,50.58
29.156,70.05
29.171,83.98
29.187,94.09
29.203,103.69
29.218,115.32
29.234,128.91
29.250,141.52
29.265,149.07
29.281,148.57
29.296,140.16
29.312,126.94
29.328,113.18
29.343,102.14
29.359,94.71
29.375,89.8
29.390,85.63
29.406,81.03
29.421,75.83
29.437,70.46
29.453,65.33
29.468,60.35
29.484,55.36
29.500,50.08
29.515,44.32
29.531,37.84
29.546,30.23
29.562,21.18
29.578,11.04
29.593,0.94
29.609,-7.57
29.625,-13.01
29.640,-14.74
29.656,-13.41
29.671,-10.76
29.687,-8.83
29.703,-8.99
29.718,-11.33
29.734,-14.54
29.750,-17.03
29.765,-17.6
29.781,-16.08
29.796,-13.46
29.812,-11.26
29.828,-10.94
29.843,-13.41
29.859,-18.66
29.875,-26.02
29.890,-34.5
29.906,-43.19
29.921,-51.38
29.937,-58.4
29.953,-63.23
29.968,-64.92
29.984,-62.48
30.000,-55.25
30.015,-43.34
30.031,-27.34
30.046,-8.51
30.062,11.39
30.078,30.14
30.093,45.92
30.109,57.57
30.125,65.1
30.140,69.7
30.156,72.79
30.171,75.35
30.187,77.5
30.203,79.02
30.218,79.49
30.234,79.07
30.250,78.07
30.265,76.14
30.281,72.02
30.296,63.77
30.312,50.13
30.328,31.63
30.343,10.57
30.359,-10.2
30.375,-28.88
30.390,-45.77
30.406,-62.52
30.421,-80.59
30.437,-99.78
30.453,-117.67
30.468,-130.4
30.484,-134.64
30.500,-128.79
30.515,-113.26
30.531,-89.95
30.546,-61.23
30.562,-29.14
30.578,4.43
30.593,37.38
30.609,67.7
30.625,93.33
30.640,113.09
30.656,127.05
30.671,136.26
30.687,142.14
30.703,146.17
30.718,149.12
30.734,151.09
30.750,151.96
30.765,151.14
30.781,148.26
30.796,143.47
30.812,137.21
30.828,130.28
30.843,123.34
30.859,116.43
30.875,109.17
30.890,101.2
30.906,92.13
30.921,82.25
30.937,72.32
30.953,63.01
30.968,54.87
30.984,48.11
31.000,42.25
31.015,36.55
31.031,30.2
31.046,22.06
31.062,10.87
31.078,-4.3
31.093,-23.82
31.109,-46.44
31.125,-69.44
31.140,-89.31
31.156,-103.17
31.171,-110.34
31.187,-112.75
31.203,-114.16
31.218,-118.44
31.234,-127.79
31.250,-141.11
31.265,-154.71
31.281,-163.23
31.296,-161.69
31.312,-147.55
31.328,-121.55
31.343,-87.36
31.359,-50.36
31.375,-16.27
31.390,10.94
31.406,29.27
31.421,39.03
31.437,41.94
31.453,40.01
31.468,35.08
31.484,28.77
31.500,23.08
31.515,20.16
31.531,21.97
31.546,29.37
31.562,41.77
31.578,57.27
31.593,73.21
31.609,87.66
31.625,99.58
31.640,108.86
31.656,116.03
31.671,121.24
31.687,124.34
31.703,125.1
31.718,123.48
31.734,119.94
31.750,115.46
31.765,111.08
31.781,107.3
31.796,104.19
31.812,101.21
31.828,97.3
31.843,91.16
31.859,81.61
31.875,68.05
31.890,51.03
31.906,32.01
31.921,12.72
31.937,-5.49
31.953,-22.19
31.968,-37.87
31.984,-53.41
32.000,-69.43
32.015,-86.13
32.031,-102.68
32.046,-117.33
32.062,-127.27
32.078,-128.9
32.093,-118.76
32.109,-95.01
32.125,-59.1
32.140,-16.45
32.156,24.71
32.171,55.93
32.187,71.69
32.203,71.42
32.218,59.07
32.234,41.09
32.250,23.41
32.265,9.78
32.281,1.39
32.296,-2.06
32.312,-1.3
32.328,2.95
32.343,9.81
32.359,17.91
32.375,25.51
32.390,31.23
32.406,34.73
32.421,36.87
32.437,39.13
32.453,42.85
32.468,48.23
32.484,54.03
32.500,57.94
32.515,56.95
32.531,48.35
32.546,30.91
32.562,5.75
32.578,-23.35
32.593,-50.82
32.609,-70.93
32.625,-80.01
32.640,-77.8
32.656,-67.77
32.671,-55.44
32.687,-46.41
32.703,-43.99
32.718,-48.3
32.734,-56.75
32.750,-65.54
32.765,-71.58
32.781,-73.58
32.796,-72.2
32.812,-68.95
32.828,-65.05
32.843,-60.81
32.859,-55.77
32.875,-49.39
32.890,-41.62
32.906,-32.81
32.921,-23.25
32.937,-12.57
32.953,0.04
32.968,15.38
32.984,33.54
33.000,53.35
33.015,72.85
33.031,89.66
33.046,101.76
33.062,107.8
33.078,107.26
33.093,100.21
33.109,87.15
33.125,69.08
33.140,47.45
33.156,24.11
33.171,1.17
33.187,-18.94
33.203,-33.69
33.218,-40.8
33.234,-38.99
33.250,-28.47
33.265,-11.38
33.281,8.47
33.296,26.57
33.312,38.9
33.328,43.2
33.343,39.22
33.359,28.58
33.375,13.9
33.390,-2.09
33.406,-17.18
33.421,-30.23
33.437,-40.9
33.453,-49.47
33.468,-56.62
33.484,-63.22
33.500,-70.39
33.515,-79.13
33.531,-90.03
33.546,-102.71
33.562,-115.51
33.578,-125.22
33.593,-127.6
33.609,-118.85
33.625,-97.12
33.640,-63.94
33.656,-24.14
33.671,15.23
33.687,47.38
33.703,67.92
33.718,76.14
33.734,74.52
33.750,67.04
33.765,56.97
33.781,45.54
33.796,32.22
33.812,16.05
33.828,-2.83
33.843,-22.58
33.859,-40.44
33.875,-53.81
33.890,-61.6
33.906,-63.96
33.921,-61.76
33.937,-55.61
33.953,-45.26
33.968,-30.07
33.984,-10.01
34.000,13.69
34.015,38.7
34.031,61.99
34.046,80.98
34.062,93.86
34.078,100.35
34.093,101.52
34.109,99.28
34.125,94.9
34.140,88.86
34.156,81.3
34.171,72.31
34.187,62.49
34.203,52.75
34.218,44.53
34.234,39.17
34.250,37.2
34.265,36.74
34.281,35.17
34.296,30.91
34.312,24.37
34.328,17.43
34.343,12.06
34.359,9.37
34.375,9.88
34.390,13.09
34.406,15.91
34.421,15.56
34.437,11.15
34.453,3.81
34.468,-4.48
34.484,-12.32
34.500,-19.59
34.515,-26.11
34.531,-32.12
34.546,-40.78
34.562,-55.23
34.578,-76.56
34.593,-103.87
34.609,-135.5
34.625,-170.63
34.640,-209.83
34.656,-253.02
34.671,-279.43
34.687,-271.49
34.703,-224.42
34.718,-149.89
34.734,-66.34
34.750,12.91
34.765,82.12
34.781,139.96
34.796,187.8
34.812,227.68
34.828,258.34
34.843,277.9
34.859,287.34
34.875,288.39
34.890,283.65
34.906,275.25
34.921,264.15
34.937,250.39
34.953,233.07
34.968,208.64
34.984,172.76
35.000,127.39
35.015,77.71
35.031,29.88
35.046,-11.16
35.062,-42.85
35.078,-64.65
35.093,-77.78
35.109,-85.79
35.125,-91.86
35.140,-97.79
35.156,-103.67
35.171,-108.18
35.187,-109.95
35.203,-108.4
35.218,-103.97
35.234,-97.94
35.250,-92.71
35.265,-89.9
35.281,-90.36
35.296,-94.41
35.312,-101.28
35.328,-108.87
35.343,-113.53
35.359,-110.67
35.375,-96.43
35.390,-69.94
35.406,-34.35
35.421,3.93
35.437,37.42
35.453,60.6
35.468,71.86
35.484,73.39
35.500,69.39
35.515,63.66
35.531,58.13
35.546,52.93
35.562,47.45
35.578,41.56
35.593,36.13
35.609,32.4
35.625,31.04
35.640,31.52
35.656,32.43
35.671,32.14
35.687,29.62
35.703,24.93
35.718,19.15
35.734,13.79
35.750,10.02
35.765,8.18
35.781,7.63
35.796,7.13
35.812,5.57
35.828,2.4
35.843,-2.24
35.859,-7.47
35.875,-12.18
35.890,-15.66
35.906,-18.05
35.921,-20.36
35.937,-23.81
35.953,-29.15
35.968,-36.27
35.984,-44.32
36.000,-51.88
36.015,-57.64
36.031,-60.71
36.046,-61.0
36.062,-59.05
36.078,-55.81
36.093,-51.45
36.109,-45.54
36.125,-37.12
36.140,-25.04
36.156,-8.76
36.171,11.04
36.187,32.49
36.203,53.17
36.218,70.63
36.234,83.14
36.250,90.39
36.265,93.51
36.281,94.18
36.296,94.58
36.312,96.4
36.328,100.65
36.343,106.86
36.359,112.55
36.375,113.24
36.390,104.15
36.406,82.56
36.421,49.73
36.437,11.66
36.453,-23.12
36.468,-45.95
36.484,-51.98
36.500,-41.71
36.515,-21.01
36.531,1.8
36.546,18.95
36.562,25.64
36.578,20.81
36.593,5.91
36.609,-15.69
36.625,-39.81
36.640,-61.96
36.656,-78.32
36.671,-86.62
36.687,-87.16
36.703,-82.42
36.718,-75.84
36.734,-70.65
36.750,-68.45
36.765,-68.48
36.781,-68.35
36.796,-65.99
36.812,-60.15
36.828,-50.73
36.843,-38.32
36.859,-23.41
36.875,-6.49
36.890,11.56
36.906,29.42
36.921,45.04
36.937,56.73
36.953,63.65
36.968,66.27
36.984,65.83
37.000,64.12
37.015,62.5
37.031,61.68
37.046,61.78
37.062,62.08
37.078,61.79
37.093,60.9
37.109,59.79
37.125,58.74
37.140,58.11
37.156,58.09
37.171,58.71
37.187,60.24
37.203,63.11
37.218,67.51
37.234,73.0
37.250,79.51
37.265,86.27
37.281,92.01
37.296,95.52
37.312,94.89
37.328,89.19
37.343,78.16
37.359,63.31
37.375,45.33
37.390,25.12
37.406,3.11
37.421,-20.37
37.437,-44.9
37.453,-69.83
37.468,-93.45
37.484,-115.26
37.500,-134.72
37.515,-150.97
37.531,-162.0
37.546,-164.67
37.562,-155.72
37.578,-134.18
37.593,-102.57
37.609,-66.26
37.625,-32.88
37.640,-8.37
37.656,4.63
37.671,7.15
37.687,2.41
37.703,-5.79
37.718,-14.58
37.734,-23.23
37.750,-30.78
37.765,-36.82
37.781,-40.12
37.796,-39.9
37.812,-36.32
37.828,-30.31
37.843,-24.04
37.859,-18.74
37.875,-15.18
37.890,-12.03
37.906,-8.27
37.921,-1.41
37.937,10.26
37.953,26.98
37.968,47.05
37.984,66.64
38.000,80.42
38.015,82.57
38.031,71.66
38.046,49.64
38.062,23.91
38.078,3.53
38.093,-4.61
38.109,1.77
38.125,19.21
38.140,40.7
38.156,58.83
38.171,69.29
38.187,71.18
38.203,66.87
38.218,59.15
38.234,48.99
38.250,36.65
38.265,21.39
38.281,3.0
38.296,-17.88
38.312,-39.41
38.328,-59.31
38.343,-74.87
38.359,-83.98
38.375,-86.52
38.390,-82.74
38.406,-75.11
38.421,-66.22
38.437,-58.63
38.453,-53.98
38.468,-53.98
38.484,-59.36
38.500,-68.2
38.515,-77.38
38.531,-80.23
38.546,-70.24
38.562,-43.21
38.578,-0.19
38.593,52.71
38.609,104.6
38.625,143.58
38.640,161.34
38.656,155.74
38.671,131.96
38.687,99.63
38.703,69.55
38.718,49.96
38.734,44.82
38.750,53.06
38.765,69.44
38.781,87.44
38.796,101.46
38.812,108.31
38.828,106.92
38.843,97.5
38.859,80.39
38.875,57.39
38.890,31.39
38.906,4.79
38.921,-18.72
38.937,-34.83
38.953,-39.95
38.968,-33.43
38.984,-19.21
39.000,-4.75
39.015,1.57
39.031,-6.55
39.046,-33.85
39.062,-80.34
39.078,-141.53
39.093,-209.74
39.109,-276.02
39.125,-333.02
39.140,-375.91
39.156,-402.55
39.171,-401.18
39.187,-366.69
39.203,-301.82
39.218,-216.71
39.234,-124.02
39.250,-32.98
39.265,50.82
39.281,123.82
39.296,183.18
39.312,228.1
39.328,256.18
39.343,265.45
39.359,255.73
39.375,229.5
39.390,192.46
39.406,151.01
39.421,111.61
39.437,77.82
39.453,54.41
39.468,39.96
39.484,28.87
39.500,13.9
39.515,-9.89
39.531,-41.36
39.546,-75.46
39.562,-105.93
39.578,-128.0
39.593,-139.85
39.609,-147.22
39.625,-152.13
39.640,-153.85
39.656,-149.72
39.671,-136.63
39.687,-113.52
39.703,-82.35
39.718,-46.95
39.734,-12.17
39.750,16.79
39.765,36.84
39.781,46.98
39.796,44.9
39.812,29.32
39.828,0.4
39.843,-39.75
39.859,-87.61
39.875,-138.77
39.890,-189.26
39.906,-236.44
39.921,-277.55
39.937,-309.73
39.953,-329.91
39.968,-336.68
39.984,-327.92
40.000,-304.12
40.015,-267.92
40.031,-222.82
40.046,-172.14
40.062,-118.99
40.078,-66.57
40.093,-17.06
40.109,27.42
40.125,64.8
40.140,92.73
40.156,109.62
40.171,114.79
40.187,108.94
40.203,93.95
40.218,72.39
40.234,47.4
40.250,21.95
40.265,-1.71
40.281,-22.68
40.296,-40.87
40.312,-56.75
40.328,-70.71
40.343,-82.77
40.359,-92.62
40.375,-99.55
40.390,-102.87
40.406,-102.33
40.421,-98.65
40.437,-93.15
40.453,-87.31
40.468,-81.99
40.484,-77.01
40.500,-71.17
40.515,-62.57
40.531,-49.23
40.546,-30.05
40.562,-5.27
40.578,23.65
40.593,54.82
40.609,86.53
40.625,118.1
40.640,149.93
40.656,183.02
40.671,218.66
40.687,257.7
40.703,300.33
40.718,345.61
40.734,391.17
40.750,432.67
40.765,464.32
40.781,480.14
40.796,476.57
40.812,454.68
40.828,420.8
40.843,384.85
40.859,356.37
40.875,340.53
40.890,335.87
40.906,335.31
40.921,329.52
40.937,311.27
40.953,278.48
40.968,234.21
40.984,184.66
41.000,135.9
41.015,91.89
41.031,54.1
41.046,22.59
41.062,-3.03
41.078,-22.97
41.093,-37.37
41.109,-47.24
41.125,-54.4
41.140,-60.6
41.156,-66.02
41.171,-68.0
41.187,-62.16
41.203,-45.0
41.218,-16.88
41.234,16.72
41.250,46.4
41.265,62.7
41.281,59.87
41.296,37.86
41.312,1.77
41.328,-40.7
41.343,-81.68
41.359,-114.79
41.375,-135.15
41.390,-139.57
41.406,-126.64
41.421,-97.65
41.437,-57.35
41.453,-13.09
41.468,26.96
41.484,56.43
41.500,72.17
41.515,74.53
41.531,66.34
41.546,51.56
41.562,34.16
41.578,17.07
41.593,2.1
41.609,-10.16
41.625,-19.94
41.640,-27.69
41.656,-33.84
41.671,-38.55
41.687,-41.76
41.703,-43.49
41.718,-44.07
41.734,-43.83
41.750,-43.23
41.765,-42.63
41.781,-42.18
41.796,-41.91
41.812,-41.91
41.828,-42.2
41.843,-42.76
41.859,-43.44
41.875,-43.72
41.890,-42.87
41.906,-40.17
41.921,-35.06
41.937,-27.49
41.953,-18.08
41.968,-7.9
41.984,1.62
42.000,9.4
42.015,14.75
42.031,17.79
42.046,19.05
42.062,19.23
42.078,18.84
42.093,18.0
42.109,16.58
42.125,14.33
42.140,11.25
42.156,7.78
42.171,4.73
42.187,3.01
42.203,3.1
42.218,4.8
42.234,7.11
42.250,8.71
42.265,8.38
42.281,5.86
42.296,1.87
42.312,-2.09
42.328,-4.43
42.343,-4.41
42.359,-2.32
42.375,0.52
42.390,2.47
42.406,2.12
42.421,-0.88
42.437,-5.76
42.453,-10.87
42.468,-14.1
42.484,-13.96
42.500,-9.9
42.515,-2.52
42.531,6.89
42.546,16.82
42.562,26.26
42.578,34.7
42.593,42.17
42.609,48.91
42.625,55.08
42.640,60.75
42.656,65.8
42.671,69.85
42.687,71.72
42.703,69.26
42.718,59.97
42.734,41.97
42.750,15.37
42.765,-17.17
42.781,-50.63
42.796,-79.57
42.812,-99.95
42.828,-110.46
42.843,-112.84
42.859,-110.37
42.875,-106.42
42.890,-103.03
42.906,-101.12
42.921,-100.51
42.937,-100.77
42.953,-101.67
42.968,-102.51
42.984,-102.32
43.000,-99.86
43.015,-94.18
43.031,-85.1
43.046,-73.83
43.062,-62.48
43.078,-53.13
43.093,-47.25
43.109,-45.15
43.125,-46.28
43.140,-49.56
43.156,-53.78
43.171,-57.33
43.187,-58.16
43.203,-54.43
43.218,-44.89
43.234,-30.41
43.250,-14.23
43.265,-1.16
43.281,4.65
43.296,1.67
43.312,-7.99
43.328,-19.39
43.343,-27.09
43.359,-27.22
43.375,-19.72
43.390,-8.11
43.406,1.99
43.421,5.76
43.437,1.05
43.453,-11.26
43.468,-28.3
43.484,-46.62
43.500,-62.28
43.515,-72.83
43.531,-77.58
43.546,-77.37
43.562,-74.14
43.578,-69.94
43.593,-66.43
43.609,-65.05
43.625,-66.96
43.640,-70.63
43.656,-73.42
43.671,-72.06
43.687,-63.24
43.703,-44.37
43.718,-13.68
43.734,29.18
43.750,82.13
43.765,140.12
43.781,199.1
43.796,255.36
43.812,306.21
43.828,349.77
43.843,384.19
43.859,407.48
43.875,417.45
43.890,412.85
43.906,380.91
43.921,317.86
43.937,230.61
43.953,135.53
43.968,51.34
43.984,-10.36
44.000,-48.18
44.015,-67.74
44.031,-76.21
44.046,-79.69
44.062,-79.01
44.078,-73.33
44.093,-62.73
44.109,-48.29
44.125,-32.19
44.140,-16.67
44.156,-3.4
44.171,8.98
44.187,18.39
44.203,24.12
44.218,24.71
44.234,17.91
44.250,1.49
44.265,-25.32
44.281,-60.08
44.296,-98.32
44.312,-130.63
44.328,-150.09
44.343,-154.27
44.359,-146.89
44.375,-135.5
44.390,-127.53
44.406,-126.96
44.421,-133.22
44.437,-142.42
44.453,-151.09
44.468,-158.57
44.484,-165.78
44.500,-174.49
44.515,-185.38
44.531,-197.05
44.546,-206.53
44.562,-211.05
44.578,-208.46
44.593,-200.57
44.609,-189.82
44.625,-178.76
44.640,-168.8
44.656,-159.68
44.671,-149.7
44.687,-136.39
44.703,-118.12
44.718,-94.63
44.734,-67.56
44.750,-39.73
44.765,-13.6
44.781,8.13
44.796,22.5
44.812,26.16
44.828,17.17
44.843,-2.74
44.859,-27.19
44.875,-46.4
44.890,-50.83
44.906,-34.55
44.921,1.64
44.937,50.96
44.953,104.07
44.968,153.13
44.984,194.46
45.000,228.49
45.015,257.99
45.031,280.03
45.046,293.41
45.062,297.26
45.078,292.21
45.093,280.28
45.109,264.03
45.125,245.25
45.140,224.44
45.156,200.92
45.171,173.6
45.187,142.82
45.203,109.28
45.218,74.54
45.234,40.99
45.250,11.39
45.265,-11.62
45.281,-26.41
45.296,-33.32
45.312,-35.34
45.328,-37.38
45.343,-45.46
45.359,-64.09
45.375,-93.37
45.390,-127.96
45.406,-158.67
45.421,-175.65
45.437,-172.48
45.453,-148.9
45.468,-110.7
45.484,-68.43
45.500,-34.11
45.515,-18.23
45.531,-26.68
45.546,-58.81
45.562,-107.36
45.578,-160.19
45.593,-203.95
45.609,-227.86
45.625,-226.77
45.640,-201.89
45.656,-159.89
45.671,-110.81
45.687,-65.47
45.703,-32.96
45.718,-18.53
45.734,-21.71
45.750,-35.74
45.765,-48.84
45.781,-47.76
45.796,-22.5
45.812,30.01
45.828,104.25
45.843,188.16
45.859,267.06
45.875,327.5
45.890,360.34
45.906,361.84
45.921,333.76
45.937,282.63
45.953,217.88
45.968,149.6
45.984,86.09
46.000,32.34
46.015,-10.35
46.031,-43.62
46.046,-70.28
46.062,-92.2
46.078,-109.5
46.093,-121.18
46.109,-126.77
46.125,-127.46
46.140,-125.84
46.156,-124.01
46.171,-121.75
46.187,-115.64
46.203,-100.04
46.218,-69.91
46.234,-23.54
46.250,34.68
46.265,95.69
46.281,148.97
46.296,187.48
46.312,209.88
46.328,219.75
46.343,222.57
46.359,221.92
46.375,218.55
46.390,210.91
46.406,198.29
46.421,182.53
46.437,168.62
46.453,161.96
46.468,164.27
46.484,171.99
46.500,176.91
46.515,170.5
46.531,147.93
46.546,109.86
46.562,61.63
46.578,10.46
46.593,-38.19
46.609,-82.36
46.625,-123.21
46.640,-164.07
46.656,-207.77
46.671,-254.6
46.687,-301.49
46.703,-342.03
46.718,-369.56
46.734,-379.68
46.750,-372.44
46.765,-351.18
46.781,-320.9
46.796,-285.63
46.812,-246.98
46.828,-205.53
46.843,-161.85
46.859,-119.48
46.875,-84.52
46.890,-62.95
46.906,-56.87
46.921,-61.88
46.937,-68.79
46.953,-66.92
46.968,-51.91
46.984,-25.43
47.000,6.84
47.015,39.25
47.031,68.48
47.046,95.32
47.062,123.96
47.078,159.43
47.093,203.44
47.109,248.38
47.125,282.42
47.140,293.17
47.156,273.6
47.171,225.78
47.187,159.42
47.203,86.83
47.218,18.14
47.234,-41.65
47.250,-92.65
47.265,-136.5
47.281,-173.78
47.296,-203.63
47.312,-224.37
47.328,-235.15
47.343,-238.68
47.359,-236.9
47.375,-232.43
47.390,-226.92
47.406,-220.6
47.421,-212.18
47.437,-199.92
47.453,-182.43
47.468,-159.84
47.484,-133.96
47.500,-106.85
47.515,-80.42
47.531,-55.53
47.546,-31.47
47.562,-6.66
47.578,18.98
47.593,45.19
47.609,70.98
47.625,94.79
47.640,115.58
47.656,132.69
47.671,146.25
47.687,157.37
47.703,167.67
47.718,178.95
47.734,193.06
47.750,210.5
47.765,229.45
47.781,245.82
47.796,254.01
47.812,249.25
47.828,229.97
47.843,198.63
47.859,161.14
47.875,124.58
47.890,94.41
47.906,72.71
47.921,58.56
47.937,49.32
47.953,42.35
47.968,36.14
47.984,29.65
48.000,21.57
48.015,10.21
48.031,-5.63
48.046,-25.81
48.062,-48.08
48.078,-68.72
48.093,-83.91
48.109,-91.2
48.125,-90.62
48.140,-84.79
48.156,-77.83
48.171,-73.71
48.187,-74.68
48.203,-80.34
48.218,-87.44
48.234,-90.74
48.250,-84.59
48.265,-65.12
48.281,-31.98
48.296,10.95
48.312,56.54
48.328,96.67
48.343,125.01
48.359,139.41
48.375,141.86
48.390,137.13
48.406,130.24
48.421,124.29
48.437,120.02
48.453,116.64
48.468,112.75
48.484,107.46
48.500,100.37
48.515,90.48
48.531,76.38
48.546,56.43
48.562,29.61
48.578,-3.46
48.593,-40.06
48.609,-76.09
48.625,-106.63
48.640,-126.94
48.656,-133.78
48.671,-125.86
48.687,-103.86
48.703,-70.55
48.718,-30.38
48.734,11.28
48.750,49.08
48.765,79.06
48.781,99.54
48.796,111.37
48.812,116.97
48.828,119.04
48.843,118.95
48.859,116.45
48.875,109.99
48.890,97.36
48.906,76.99
48.921,48.98
48.937,15.64
48.953,-18.65
48.968,-48.58
48.984,-70.2
49.000,-82.46
49.015,-87.85
49.031,-91.46
49.046,-98.18
49.062,-110.22
49.078,-125.63
49.093,-139.05
49.109,-144.18
49.125,-136.62
49.140,-115.08
49.156,-81.33
49.171,-39.19
49.187,6.5
49.203,50.19
49.218,86.12
49.234,109.53
49.250,117.91
49.265,111.76
49.281,94.3
49.296,70.24
49.312,44.07
49.328,19.02
49.343,-3.09
49.359,-21.38
49.375,-35.34
49.390,-44.73
49.406,-50.06
49.421,-53.05
49.437,-56.09
49.453,-61.35
49.468,-69.59
49.484,-79.56
49.500,-88.38
49.515,-92.93
49.531,-91.4
49.546,-84.04
49.562,-73.11
49.578,-61.83
49.593,-52.94
49.609,-47.81
49.625,-46.12
49.640,-46.3
49.656,-46.39
49.671,-44.85
49.687,-41.09
49.703,-35.47
49.718,-29.02
49.734,-22.9
49.750,-18.1
49.765,-15.03
49.781,-13.47
49.796,-12.64
49.812,-11.63
49.828,-9.75
49.843,-7.16
49.859,-4.77
49.875,-3.92
49.890,-5.66
49.906,-9.98
49.921,-15.57
49.937,-20.33
49.953,-22.25
49.968,-20.13
49.984,-14.06
50.000,-5.07
50.015,5.26
50.031,15.31
50.046,23.71
50.062,29.38
50.078,31.29
50.093,28.76
50.109,21.62
50.125,10.62
50.140,-2.48
50.156,-15.35
50.171,-25.83
50.187,-32.51
50.203,-34.98
50.218,-33.73
50.234,-29.57
50.250,-23.4
50.265,-15.91
50.281,-7.66
50.296,0.86
50.312,9.15
50.328,16.75
50.343,23.37
50.359,28.88
50.375,33.2
50.390,36.3
50.406,38.11
50.421,38.6
50.437,38.01
50.453,36.61
50.468,34.61
50.484,32.08
50.500,28.77
50.515,24.41
50.531,18.78
50.546,11.94
50.562,4.23
50.578,-3.7
50.593,-11.22
50.609,-17.55
50.625,-22.12
50.640,-24.46
50.656,-24.24
50.671,-21.38
50.687,-15.9
50.703,-8.12
50.718,1.46
50.734,11.82
50.750,21.72
50.765,29.7
50.781,34.37
50.796,34.85
50.812,31.05
50.828,23.88
50.843,15.02
50.859,6.93
50.875,1.62
50.890,0.46
50.906,3.46
50.921,9.48
50.937,16.72
50.953,23.44
50.968,28.57
50.984,31.72
51.000,33.2
51.015,33.27
51.031,32.04
51.046,29.43
51.062,25.38
51.078,20.04
51.093,13.52
51.109,5.95
51.125,-2.77
51.140,-12.51
51.156,-22.74
51.171,-32.25
51.187,-39.55
51.203,-43.58
51.218,-44.12
51.234,-42.25
51.250,-39.55
51.265,-37.34
51.281,-35.99
51.296,-35.05
51.312,-33.89
51.328,-32.34
51.343,-31.02
51.359,-30.62
51.375,-31.63
51.390,-33.55
51.406,-35.49
51.421,-36.55
51.437,-36.52
51.453,-36.08
51.468,-36.2
51.484,-37.68
51.500,-40.43
51.515,-43.68
51.531,-46.12
51.546,-46.73
51.562,-44.97
51.578,-40.85
51.593,-34.81
51.609,-27.34
51.625,-19.09
51.640,-10.74
51.656,-3.26
51.671,2.34
51.687,5.23
51.703,5.23
51.718,3.04
51.734,0.1
51.750,-1.85
51.765,-1.85
51.781,0.13
51.796,3.28
51.812,6.55
51.828,9.24
51.843,11.2
51.859,12.75
51.875,14.15
51.890,15.62
51.906,16.9
51.921,17.6
51.937,17.43
51.953,16.3
51.968,14.28
51.984,11.7
52.000,8.83
52.015,5.65
52.031,2.14
52.046,-1.92
52.062,-6.53
52.078,-11.44
52.093,-16.18
52.109,-20.41
52.125,-24.08
52.140,-27.26
52.156,-30.3
52.171,-33.5
52.187,-37.09
52.203,-41.33
52.218,-46.48
52.234,-52.84
52.250,-60.42
52.265,-68.74
52.281,-76.57
52.296,-82.21
52.312,-84.04
52.328,-81.03
52.343,-73.25
52.359,-61.66
52.375,-47.82
52.390,-33.24
52.406,-18.99
52.421,-5.5
52.437,7.38
52.453,20.13
52.468,33.04
52.484,45.95
52.500,57.83
52.515,67.26
52.531,72.89
52.546,74.31
52.562,72.31
52.578,68.43
52.593,64.49
52.609,61.5
52.625,59.31
52.640,56.77
52.656,52.46
52.671,45.31
52.687,35.43
52.703,23.79
52.718,11.81
52.734,1.07
52.750,-7.1
52.765,-11.94
52.781,-13.52
52.796,-12.76
52.812,-11.48
52.828,-11.6
52.843,-14.54
52.859,-20.28
52.875,-26.72
52.890,-30.03
52.906,-26.0
52.921,-11.73
52.937,12.7
52.953,43.88
52.968,75.9
52.984,102.02
53.000,116.43
53.015,115.72
53.031,99.79
53.046,72.15
53.062,39.61
53.078,10.41
53.093,-8.29
53.109,-13.09
53.125,-5.6
53.140,8.12
53.156,20.47
53.171,25.43
53.187,21.14
53.203,10.06
53.218,-3.14
53.234,-14.15
53.250,-20.68
53.265,-22.3
53.281,-19.52
53.296,-12.56
53.312,-1.38
53.328,13.9
53.343,32.02
53.359,50.44
53.375,65.82
53.390,75.32
53.406,77.76
53.421,74.36
53.437,68.22
53.453,62.82
53.468,60.55
53.484,61.47
53.500,63.42
53.515,63.27
53.531,58.65
53.546,48.94
53.562,35.67
53.578,21.7
53.593,10.07
53.609,2.87
53.625,0.6
53.640,2.13
53.656,5.56
53.671,8.76
53.687,10.09
53.703,8.73
53.718,4.46
53.734,-2.6
53.750,-12.26
53.765,-24.5
53.781,-39.33
53.796,-56.38
53.812,-74.79
53.828,-92.92
53.843,-108.35
53.859,-118.7
53.875,-122.32
53.890,-118.81
53.906,-109.31
53.921,-96.08
53.937,-81.39
53.953,-66.69
53.968,-52.09
53.984,-36.41
54.000,-18.4
54.015,2.24
54.031,24.31
54.046,45.8
54.062,64.62
54.078,79.79
54.093,91.41
54.109,100.28
54.125,107.11
54.140,111.96
54.156,114.55
54.171,114.49
54.187,111.72
54.203,106.23
54.218,97.92
54.234,86.57
54.250,72.27
54.265,55.99
54.281,39.71
54.296,26.34
54.312,18.54
54.328,17.72
54.343,23.22
54.359,32.32
54.375,40.93
54.390,45.22
54.406,42.84
54.421,33.6
54.437,19.62
54.453,4.2
54.468,-9.02
54.484,-17.54
54.500,-20.23
54.515,-16.95
54.531,-8.06
54.546,6.19
54.562,25.12
54.578,47.01
54.593,68.51
54.609,85.72
54.625,94.76
54.640,93.24
54.656,81.0
54.671,59.66
54.687,31.9
54.703,0.22
54.718,-33.6
54.734,-69.76
54.750,-105.74
54.765,-136.67
54.781,-156.6
54.796,-161.28
54.812,-150.46
54.828,-127.65
54.843,-98.18
54.859,-66.97
54.875,-37.63
54.890,-11.41
54.906,11.3
54.921,30.66
54.937,47.17
54.953,61.41
54.968,74.1
54.984,85.91
55.000,97.38
55.015,108.39
55.031,119.48
55.046,131.03
55.062,143.31
55.078,157.53
55.093,172.57
55.109,185.88
55.125,194.65
55.140,196.22
55.156,187.92
55.171,169.09
55.187,140.72
55.203,105.4
55.218,65.91
55.234,24.73
55.250,-17.49
55.265,-60.33
55.281,-103.25
55.296,-146.58
55.312,-189.91
55.328,-233.15
55.343,-275.99
55.359,-318.33
55.375,-358.16
55.390,-394.0
55.406,-423.51
55.421,-437.7
55.437,-434.59
55.453,-417.98
55.468,-396.48
55.484,-379.4
55.500,-373.28
55.515,-368.57
55.531,-354.1
55.546,-318.31
55.562,-255.72
55.578,-172.01
55.593,-79.46
55.609,8.73
55.625,84.2
55.640,143.16
55.656,189.49
55.671,224.07
55.687,245.75
55.703,253.2
55.718,246.05
55.734,227.81
55.750,205.11
55.765,184.65
55.781,170.7
55.796,164.57
55.812,160.79
55.828,151.24
55.843,130.18
55.859,96.28
55.875,55.5
55.890,13.85
55.906,-23.2
55.921,-51.95
55.937,-71.24
55.953,-83.11
55.968,-87.8
55.984,-83.84
56.000,-69.78
56.015,-44.15
56.031,-8.15
56.046,33.47
56.062,72.73
56.078,100.07
56.093,106.68
56.109,89.07
56.125,50.75
56.140,0.56
56.156,-50.35
56.171,-93.01
56.187,-123.21
56.203,-141.66
56.218,-151.7
56.234,-157.47
56.250,-162.24
56.265,-168.27
56.281,-177.58
56.296,-191.48
56.312,-209.9
56.328,-229.58
56.343,-244.03
56.359,-245.06
56.375,-226.33
56.390,-186.46
56.406,-130.8
56.421,-69.57
56.437,-13.46
56.453,30.0
56.468,58.92
56.484,76.1
56.500,85.82
56.515,91.37
56.531,93.9
56.546,92.61
56.562,86.26
56.578,74.6
56.593,58.46
56.609,39.95
56.625,21.66
56.640,5.85
56.656,-6.03
56.671,-12.76
56.687,-13.57
56.703,-8.16
56.718,3.68
56.734,21.92
56.750,46.16
56.765,74.58
56.781,104.0
56.796,130.48
56.812,151.39
56.828,166.59
56.843,178.18
56.859,188.51
56.875,197.07
56.890,199.6
56.906,189.39
56.921,160.8
56.937,113.42
56.953,54.0
56.968,-5.21
56.984,-50.57
57.000,-72.18
57.015,-67.51
57.031,-41.1
57.046,-1.42
57.062,42.77
57.078,85.27
57.093,122.69
57.109,153.16
57.125,174.39
57.140,183.01
57.156,175.55
57.171,150.96
57.187,112.58
57.203,68.47
57.218,28.93
57.234,2.38
57.250,-7.46
57.265,-2.67
57.281,11.04
57.296,27.52
57.312,43.26
57.328,57.67
57.343,71.49
57.359,84.52
57.375,94.21
57.390,96.54
57.406,88.37
57.421,69.61
57.437,43.73
57.453,16.7
57.468,-5.76
57.484,-20.28
57.500,-26.71
57.515,-27.06
57.531,-24.2
57.546,-20.33
57.562,-16.75
57.578,-14.21
57.593,-13.04
57.609,-13.51
57.625,-15.56
57.640,-18.9
57.656,-22.95
57.671,-26.87
57.687,-29.85
57.703,-31.16
57.718,-30.32
57.734,-27.44
57.750,-23.31
57.765,-19.27
57.781,-16.64
57.796,-16.16
57.812,-17.56
57.828,-19.75
57.843,-21.46
57.859,-21.87
57.875,-21.08
57.890,-19.77
57.906,-18.69
57.921,-18.0
57.937,-17.31
57.953,-15.96
57.968,-13.69
57.984,-10.78
58.000,-8.14
58.015,-6.74
58.031,-7.01
58.046,-8.63
58.062,-10.59
58.078,-11.72
58.093,-11.16
58.109,-8.73
58.125,-4.89
58.140,-0.43
58.156,3.83
58.171,7.28
58.187,9.77
58.203,11.48
58.218,12.68
58.234,13.49
58.250,13.89
58.265,13.82
58.281,13.41
58.296,13.03
58.312,13.03
58.328,13.62
58.343,14.57
58.359,15.51
58.375,15.79
58.390,14.95
58.406,12.82
58.421,9.68
58.437,6.01
58.453,2.25
58.468,-1.24
58.484,-4.29
58.500,-6.68
58.515,-8.27
58.531,-8.93
58.546,-8.73
58.562,-7.71
58.578,-6.14
58.593,-4.41
58.609,-3.02
58.625,-2.49
58.640,-3.22
58.656,-5.26
58.671,-8.31
58.687,-11.72
58.703,-14.68
58.718,-16.47
58.734,-17.02
58.750,-16.85
58.765,-17.15
58.781,-18.96
58.796,-22.48
58.812,-26.92
58.828,-30.67
58.843,-32.18
58.859,-30.73
58.875,-26.91
58.890,-22.07
58.906,-17.86
58.921,-15.05
58.937,-13.27
58.953,-11.45
58.968,-8.5
58.984,-4.04
59.000,1.24
59.015,5.96
59.031,8.83
59.046,8.93
59.062,6.48
59.078,2.31
59.093,-2.13
59.109,-5.66
59.125,-7.46
59.140,-7.26
59.156,-5.2
59.171,-1.69
59.187,2.43
59.203,6.19
59.218,8.32
59.234,8.07
59.250,5.69
59.265,2.79
59.281,1.98
59.296,5.94
59.312,15.94
59.328,30.76
59.343,46.92
59.359,59.73
59.375,65.26
59.390,62.04
59.406,51.32
59.421,36.26
59.437,20.27
59.453,5.71
59.468,-6.73
59.484,-17.4
59.500,-26.88
59.515,-35.22
59.531,-41.55
59.546,-44.59
59.562,-43.07
59.578,-36.41
59.593,-24.83
59.609,-9.7
59.625,6.48
59.640,20.44
59.656,29.06
59.671,30.55
59.687,25.22
59.703,15.53
59.718,4.96
59.734,-3.16
59.750,-6.74
59.765,-5.18
59.781,0.81
59.796,10.07
59.812,20.89
59.828,31.38
59.843,39.19
59.859,42.21
59.875,39.09
59.890,29.88
59.906,16.34
59.921,0.98
59.937,-13.0
59.953,-23.02
59.968,-27.41
59.984,-25.87
