timestamp,value
00.000,-61.58
00.015,-63.48
00.031,-63.79
00.046,-63.09
00.062,-63.04
00.078,-66.04
00.093,-73.46
00.109,-85.72
00.125,-101.97
00.140,-120.3
00.156,-138.15
00.171,-153.38
00.187,-163.82
00.203,-167.8
00.218,-164.03
00.234,-151.51
00.250,-129.61
00.265,-98.32
00.281,-58.67
00.296,-12.82
00.312,35.7
00.328,82.45
00.343,122.88
00.359,153.39
00.375,171.92
00.390,178.4
00.406,174.68
00.421,163.99
00.437,150.16
00.453,136.95
00.468,126.91
00.484,121.1
00.500,119.14
00.515,119.59
00.531,120.07
00.546,117.94
00.562,109.54
00.578,93.24
00.593,68.48
00.609,35.46
00.625,-4.62
00.640,-49.66
00.656,-96.53
00.671,-141.74
00.687,-182.21
00.703,-215.36
00.718,-238.3
00.734,-249.09
00.750,-247.08
00.765,-232.67
00.781,-207.37
00.796,-173.25
00.812,-132.94
00.828,-88.95
00.843,-45.08
00.859,-3.81
00.875,33.11
00.890,64.59
00.906,90.21
00.921,109.77
00.937,123.48
00.953,131.83
00.968,137.07
00.984,139.15
01.000,138.72
01.015,136.34
01.031,132.38
01.046,127.22
01.062,120.96
01.078,113.64
01.093,105.2
01.109,95.89
01.125,85.98
01.140,76.37
01.156,67.9
01.171,61.08
01.187,56.12
01.203,52.46
01.218,49.39
01.234,46.17
01.250,42.14
01.265,37.09
01.281,31.58
01.296,26.47
01.312,22.47
01.328,19.83
01.343,18.19
01.359,17.05
01.375,15.62
01.390,13.1
01.406,8.93
01.421,3.42
01.437,-1.87
01.453,-4.25
01.468,0.08
01.484,14.49
01.500,40.75
01.515,77.27
01.531,118.8
01.546,157.46
01.562,186.06
01.578,200.75
01.593,201.62
01.609,191.93
01.625,176.12
01.640,158.62
01.656,142.66
01.671,130.24
01.687,121.67
01.703,114.38
01.718,104.53
01.734,86.62
01.750,54.65
01.765,4.91
01.781,-60.99
01.796,-135.37
01.812,-206.5
01.828,-263.65
01.843,-299.17
01.859,-311.09
01.875,-302.54
01.890,-279.39
01.906,-248.6
01.921,-217.35
01.937,-192.8
01.953,-175.06
01.968,-166.22
01.984,-165.48
02.000,-168.02
02.015,-164.77
02.031,-145.95
02.046,-106.29
02.062,-48.44
02.078,18.26
02.093,81.89
02.109,129.59
02.125,159.14
02.140,173.15
02.156,176.81
02.171,175.19
02.187,172.43
02.203,170.38
02.218,170.47
02.234,173.86
02.250,179.79
02.265,186.78
02.281,189.07
02.296,179.25
02.312,151.71
02.328,105.58
02.343,43.83
02.359,-26.13
02.375,-95.45
02.390,-157.18
02.406,-207.43
02.421,-246.77
02.437,-277.84
02.453,-302.75
02.468,-321.87
02.484,-336.73
02.500,-347.78
02.515,-355.3
02.531,-359.79
02.546,-361.67
02.562,-362.95
02.578,-366.48
02.593,-374.22
02.609,-373.36
02.625,-354.55
02.640,-311.95
02.656,-246.5
02.671,-164.76
02.687,-74.49
02.703,16.5
02.718,101.59
02.734,173.11
02.750,231.09
02.765,273.7
02.781,300.29
02.796,311.6
02.812,310.48
02.828,301.54
02.843,288.77
02.859,271.14
02.875,246.05
02.890,209.61
02.906,155.29
02.921,79.47
02.937,-16.49
02.953,-125.12
02.968,-230.21
02.984,-310.98
03.000,-350.48
03.015,-343.92
03.031,-300.44
03.046,-238.41
03.062,-174.51
03.078,-118.17
03.093,-70.32
03.109,-25.96
03.125,20.56
03.140,71.97
03.156,126.18
03.171,177.01
03.187,216.6
03.203,239.58
03.218,245.73
03.234,239.77
03.250,229.18
03.265,219.32
03.281,211.72
03.296,204.34
03.312,194.07
03.328,179.23
03.343,161.5
03.359,144.52
03.375,131.85
03.390,125.62
03.406,124.99
03.421,127.0
03.437,128.41
03.453,127.59
03.468,125.22
03.484,123.25
03.500,122.62
03.515,121.56
03.531,117.01
03.546,106.31
03.562,89.25
03.578,69.13
03.593,51.57
03.609,39.84
03.625,35.36
03.640,36.29
03.656,38.78
03.671,38.78
03.687,33.5
03.703,21.92
03.718,4.69
03.734,-18.4
03.750,-46.26
03.765,-77.73
03.781,-110.8
03.796,-141.78
03.812,-166.34
03.828,-181.18
03.843,-186.04
03.859,-181.05
03.875,-169.45
03.890,-155.32
03.906,-140.94
03.921,-130.21
03.937,-124.78
03.953,-124.53
03.968,-127.62
03.984,-130.65
04.000,-128.3
04.015,-116.59
04.031,-93.92
04.046,-62.49
04.062,-28.15
04.078,2.18
04.093,23.23
04.109,33.29
04.125,34.38
04.140,30.69
04.156,25.52
04.171,20.19
04.187,13.99
04.203,5.46
04.218,-5.81
04.234,-18.68
04.250,-31.08
04.265,-41.09
04.281,-47.74
04.296,-51.42
04.312,-53.31
04.328,-53.8
04.343,-52.85
04.359,-49.33
04.375,-41.99
04.390,-30.15
04.406,-14.27
04.421,4.26
04.437,23.05
04.453,39.28
04.468,50.8
04.484,56.25
04.500,55.98
04.515,51.29
04.531,43.99
04.546,35.5
04.562,27.23
04.578,19.52
04.593,12.18
04.609,4.57
04.625,-3.97
04.640,-13.33
04.656,-22.6
04.671,-30.01
04.687,-34.06
04.703,-33.0
04.718,-25.98
04.734,-12.8
04.750,6.03
04.765,29.35
04.781,56.08
04.796,85.13
04.812,115.37
04.828,145.46
04.843,173.42
04.859,196.63
04.875,211.79
04.890,215.6
04.906,205.67
04.921,181.32
04.937,144.16
04.953,97.99
04.968,48.04
04.984,-0.11
05.000,-41.1
05.015,-70.49
05.031,-85.14
05.046,-84.37
05.062,-69.75
05.078,-47.39
05.093,-25.56
05.109,-11.44
05.125,-8.12
05.140,-12.77
05.156,-18.58
05.171,-18.4
05.187,-8.57
05.203,10.2
05.218,33.38
05.234,55.61
05.250,72.79
05.265,82.32
05.281,83.2
05.296,75.19
05.312,58.83
05.328,34.87
05.343,4.76
05.359,-29.24
05.375,-64.61
05.390,-99.0
05.406,-130.97
05.421,-158.71
05.437,-180.14
05.453,-192.17
05.468,-191.68
05.484,-176.63
05.500,-146.66
05.515,-103.9
05.531,-48.77
05.546,14.71
05.562,81.48
05.578,145.28
05.593,198.61
05.609,232.46
05.625,238.79
05.640,214.71
05.656,166.34
05.671,109.13
05.687,61.89
05.703,40.01
05.718,48.49
05.734,81.43
05.750,126.54
05.765,173.02
05.781,215.93
05.796,255.05
05.812,290.32
05.828,316.38
05.843,324.11
05.859,306.89
05.875,267.21
05.890,218.36
05.906,178.92
05.921,163.43
05.937,173.67
05.953,197.55
05.968,214.76
05.984,206.61
06.000,166.84
06.015,104.68
06.031,39.23
06.046,-9.53
06.062,-28.9
06.078,-17.15
06.093,18.24
06.109,65.64
06.125,111.48
06.140,145.76
06.156,164.16
06.171,166.33
06.187,152.53
06.203,121.89
06.218,72.56
06.234,2.66
06.250,-87.45
06.265,-197.84
06.281,-323.98
06.296,-456.23
06.312,-581.63
06.328,-688.65
06.343,-769.72
06.359,-821.36
06.375,-842.66
06.390,-834.47
06.406,-806.07
06.421,-769.26
06.437,-735.28
06.453,-711.7
06.468,-700.81
06.484,-698.73
06.500,-696.02
06.515,-680.68
06.531,-608.64
06.546,-459.38
06.562,-244.18
06.578,-3.88
06.593,211.57
06.609,367.46
06.625,454.83
06.640,485.8
06.656,482.25
06.671,466.78
06.687,448.58
06.703,422.96
06.718,388.22
06.734,346.79
06.750,304.88
06.765,271.38
06.781,253.71
06.796,252.43
06.812,260.86
06.828,263.5
06.843,247.12
06.859,207.77
06.875,158.6
06.890,115.38
06.906,91.71
06.921,94.87
06.937,123.08
06.953,168.49
06.968,219.65
06.984,268.11
07.000,311.83
07.015,352.87
07.031,392.08
07.046,427.67
07.062,457.26
07.078,475.72
07.093,476.45
07.109,453.77
07.125,405.67
07.140,335.5
07.156,249.89
07.171,154.44
07.187,53.9
07.203,-43.47
07.218,-131.34
07.234,-206.85
07.250,-269.02
07.265,-318.54
07.281,-357.28
07.296,-388.32
07.312,-418.1
07.328,-450.44
07.343,-478.42
07.359,-495.12
07.375,-498.5
07.390,-489.75
07.406,-473.67
07.421,-457.02
07.437,-446.9
07.453,-453.87
07.468,-486.22
07.484,-539.76
07.500,-609.96
07.515,-694.71
07.531,-787.91
07.546,-879.84
07.562,-959.16
07.578,-986.86
07.593,-937.82
07.609,-859.18
07.625,-782.99
07.640,-711.07
07.656,-650.73
07.671,-605.75
07.687,-575.11
07.703,-553.44
07.718,-532.67
07.734,-508.69
07.750,-479.39
07.765,-436.32
07.781,-377.01
07.796,-307.14
07.812,-232.79
07.828,-157.84
07.843,-83.53
07.859,-10.06
07.875,58.85
07.890,118.73
07.906,172.34
07.921,221.51
07.937,265.03
07.953,302.96
07.968,335.9
07.984,364.09
08.000,387.16
08.015,402.13
08.031,406.36
08.046,403.25
08.062,396.95
08.078,390.16
08.093,386.2
08.109,387.57
08.125,395.44
08.140,409.19
08.156,425.73
08.171,441.19
08.187,454.15
08.203,463.32
08.218,466.75
08.234,463.29
08.250,452.05
08.265,432.59
08.281,404.58
08.296,367.88
08.312,323.0
08.328,272.09
08.343,218.1
08.359,163.87
08.375,112.42
08.390,66.31
08.406,27.47
08.421,-3.17
08.437,-25.61
08.453,-40.49
08.468,-48.94
08.484,-52.43
08.500,-52.42
08.515,-50.18
08.531,-46.78
08.546,-42.89
08.562,-39.01
08.578,-35.47
08.593,-32.27
08.609,-29.31
08.625,-26.45
08.640,-23.72
08.656,-21.11
08.671,-18.63
08.687,-16.14
08.703,-13.3
08.718,-9.88
08.734,-5.54
08.750,-0.23
08.765,5.84
08.781,12.26
08.796,18.65
08.812,24.76
08.828,30.69
08.843,36.93
08.859,44.13
08.875,52.86
08.890,63.21
08.906,74.78
08.921,86.81
08.937,98.46
08.953,109.24
08.968,119.27
08.984,129.37
09.000,140.64
09.015,154.16
09.031,170.41
09.046,189.08
09.062,209.35
09.078,229.96
09.093,249.86
09.109,268.46
09.125,285.87
09.140,302.88
09.156,320.92
09.171,341.96
09.187,367.7
09.203,398.45
09.218,431.68
09.234,461.6
09.250,480.1
09.265,479.27
09.281,454.4
09.296,406.22
09.312,340.85
09.328,267.77
09.343,196.48
09.359,133.71
09.375,82.33
09.390,41.98
09.406,10.58
09.421,-14.53
09.437,-36.12
09.453,-57.26
09.468,-80.9
09.484,-108.89
09.500,-140.81
09.515,-173.62
09.531,-202.48
09.546,-222.66
09.562,-231.22
09.578,-228.4
09.593,-217.3
09.609,-202.55
09.625,-188.43
09.640,-177.27
09.656,-168.86
09.671,-160.74
09.687,-149.37
09.703,-131.2
09.718,-103.58
09.734,-65.36
09.750,-17.16
09.765,38.42
09.781,96.92
09.796,152.37
09.812,197.98
09.828,227.34
09.843,235.83
09.859,222.22
09.875,189.23
09.890,143.51
09.906,94.09
09.921,50.09
09.937,18.74
09.953,3.88
09.968,5.47
09.984,20.2
10.000,43.03
10.015,68.53
10.031,92.38
10.046,111.79
10.062,125.44
10.078,133.08
10.093,135.17
10.109,132.79
10.125,127.64
10.140,121.79
10.156,116.66
10.171,112.41
10.187,107.58
10.203,99.54
10.218,85.94
10.234,66.27
10.250,42.92
10.265,20.67
10.281,5.26
10.296,0.88
10.312,8.25
10.328,23.9
10.343,40.76
10.359,50.64
10.375,46.73
10.390,25.82
10.406,-10.48
10.421,-56.31
10.437,-103.49
10.453,-143.97
10.468,-172.18
10.484,-186.39
10.500,-188.19
10.515,-181.37
10.531,-170.12
10.546,-157.98
10.562,-147.11
10.578,-138.64
10.593,-132.63
10.609,-128.11
10.625,-123.31
10.640,-115.62
10.656,-102.69
10.671,-83.2
10.687,-57.89
10.703,-29.41
10.718,-1.82
10.734,20.65
10.750,34.9
10.765,39.66
10.781,35.97
10.796,26.89
10.812,16.71
10.828,9.81
10.843,9.14
10.859,15.27
10.875,26.27
10.890,38.56
10.906,48.32
10.921,53.15
10.937,52.73
10.953,48.41
10.968,42.45
10.984,36.93
11.000,33.28
11.015,32.35
11.031,34.61
11.046,39.99
11.062,47.78
11.078,56.47
11.093,63.98
11.109,68.51
11.125,69.27
11.140,66.95
11.156,63.19
11.171,59.81
11.187,57.48
11.203,55.33
11.218,51.26
11.234,43.15
11.250,30.03
11.265,12.75
11.281,-6.4
11.296,-24.76
11.312,-40.34
11.328,-52.23
11.343,-60.3
11.359,-64.54
11.375,-64.75
11.390,-61.01
11.406,-54.04
11.421,-45.55
11.437,-37.58
11.453,-31.56
11.468,-27.41
11.484,-23.58
11.500,-17.87
11.515,-8.51
11.531,4.76
11.546,20.59
11.562,36.47
11.578,49.88
11.593,59.82
11.609,67.37
11.625,75.6
11.640,88.07
11.656,107.23
11.671,133.26
11.687,163.75
11.703,195.1
11.718,224.19
11.734,249.54
11.750,271.08
11.765,289.11
11.781,303.89
11.796,315.49
11.812,324.53
11.828,332.37
11.843,340.01
11.859,346.71
11.875,348.84
11.890,340.88
11.906,317.96
11.921,278.8
11.937,226.6
11.953,167.46
11.968,107.35
11.984,49.25
12.000,-7.39
12.015,-65.03
12.031,-125.27
12.046,-187.16
12.062,-246.87
12.078,-300.5
12.093,-346.17
12.109,-384.96
12.125,-419.71
12.140,-453.6
12.156,-488.93
12.171,-526.84
12.187,-567.99
12.203,-610.19
12.218,-650.41
12.234,-684.97
12.250,-710.2
12.265,-722.75
12.281,-720.48
12.296,-703.49
12.312,-674.76
12.328,-638.97
12.343,-596.21
12.359,-544.67
12.375,-482.0
12.390,-407.8
12.406,-324.88
12.421,-238.29
12.437,-153.36
12.453,-74.22
12.468,-1.08
12.484,76.31
12.500,169.07
12.515,283.09
12.531,414.56
12.546,551.29
12.562,678.39
12.578,784.52
12.593,864.32
12.609,919.45
12.625,965.33
12.640,1017.25
12.656,1084.06
12.671,1164.89
12.687,1252.04
12.703,1337.41
12.718,1417.01
12.734,1491.38
12.750,1502.07
12.765,1408.18
12.781,1197.36
12.796,898.2
12.812,564.84
12.828,247.86
12.843,-23.24
12.859,-239.5
12.875,-404.16
12.890,-525.31
12.906,-602.69
12.921,-636.53
12.937,-630.98
12.953,-598.44
12.968,-556.62
12.984,-523.27
13.000,-510.71
13.015,-523.27
13.031,-557.34
13.046,-596.37
13.062,-622.99
13.078,-625.2
13.093,-602.62
13.109,-563.87
13.125,-520.69
13.140,-482.15
13.156,-452.2
13.171,-430.53
13.187,-410.42
13.203,-386.02
13.218,-355.23
13.234,-320.74
13.250,-287.29
13.265,-258.75
13.281,-236.26
13.296,-218.73
13.312,-204.31
13.328,-189.7
13.343,-172.79
13.359,-153.33
13.375,-133.15
13.390,-114.51
13.406,-98.95
13.421,-86.4
13.437,-75.71
13.453,-65.56
13.468,-54.66
13.484,-42.45
13.500,-29.12
13.515,-15.71
13.531,-3.17
13.546,7.81
13.562,17.3
13.578,25.54
13.593,32.73
13.609,38.57
13.625,42.36
13.640,43.81
13.656,42.65
13.671,39.17
13.687,34.01
13.703,28.12
13.718,22.32
13.734,17.08
13.750,12.35
13.765,7.79
13.781,3.04
13.796,-1.91
13.812,-6.63
13.828,-10.58
13.843,-13.37
13.859,-14.64
13.875,-14.3
13.890,-12.7
13.906,-10.11
13.921,-7.06
13.937,-3.98
13.953,-1.19
13.968,1.04
13.984,2.57
14.000,3.86
14.015,5.81
14.031,9.14
14.046,14.15
14.062,20.23
14.078,25.96
14.093,29.76
14.109,30.89
14.125,29.67
14.140,27.97
14.156,28.35
14.171,32.53
14.187,41.26
14.203,53.84
14.218,68.36
14.234,82.4
14.250,93.76
14.265,101.05
14.281,104.19
14.296,104.18
14.312,102.16
14.328,99.64
14.343,97.85
14.359,97.57
14.375,98.8
14.390,100.78
14.406,101.76
14.421,99.16
14.437,95.22
14.453,89.29
14.468,80.63
14.484,69.39
14.500,57.83
14.515,49.78
14.531,49.46
14.546,58.89
14.562,76.27
14.578,96.96
14.593,114.26
14.609,122.78
14.625,120.92
14.640,111.29
14.656,98.46
14.671,86.67
14.687,76.75
14.703,67.08
14.718,55.99
14.734,42.46
14.750,25.9
14.765,7.21
14.781,-11.68
14.796,-29.17
14.812,-43.8
14.828,-57.41
14.843,-72.45
14.859,-89.42
14.875,-108.18
14.890,-131.38
14.906,-160.38
14.921,-193.73
14.937,-227.28
14.953,-253.75
14.968,-270.76
14.984,-278.03
15.000,-273.99
15.015,-257.68
15.031,-234.89
15.046,-211.0
15.062,-188.13
15.078,-164.92
15.093,-135.72
15.109,-103.76
15.125,-77.0
15.140,-61.04
15.156,-60.11
15.171,-83.11
15.187,-134.03
15.203,-208.61
15.218,-295.63
15.234,-377.47
15.250,-449.21
15.265,-515.32
15.281,-579.26
15.296,-587.51
15.312,-510.32
15.328,-360.8
15.343,-185.71
15.359,-66.32
15.375,-0.47
15.390,22.11
15.406,0.55
15.421,-48.9
15.437,-116.84
15.453,-200.08
15.468,-293.36
15.484,-387.6
15.500,-471.75
15.515,-531.33
15.531,-527.0
15.546,-446.8
15.562,-304.58
15.578,-135.19
15.593,23.23
15.609,148.97
15.625,238.13
15.640,297.4
15.656,340.49
15.671,372.96
15.687,390.31
15.703,391.8
15.718,379.73
15.734,358.02
15.750,333.92
15.765,316.45
15.781,313.39
15.796,331.46
15.812,368.09
15.828,408.74
15.843,443.53
15.859,464.83
15.875,470.5
15.890,463.94
15.906,451.29
15.921,436.23
15.937,415.87
15.953,395.76
15.968,367.06
15.984,324.56
16.000,267.91
16.015,202.07
16.031,135.38
16.046,76.4
16.062,28.28
16.078,-7.82
16.093,-32.43
16.109,-49.84
16.125,-62.23
16.140,-71.07
16.156,-77.08
16.171,-82.05
16.187,-83.12
16.203,-85.05
16.218,-92.45
16.234,-106.68
16.250,-127.76
16.265,-152.8
16.281,-179.07
16.296,-205.28
16.312,-231.89
16.328,-244.9
16.343,-239.27
16.359,-219.25
16.375,-194.74
16.390,-174.22
16.406,-159.45
16.421,-148.03
16.437,-137.15
16.453,-125.26
16.468,-112.1
16.484,-101.68
16.500,-97.12
16.515,-99.16
16.531,-106.81
16.546,-116.59
16.562,-123.74
16.578,-122.77
16.593,-108.81
16.609,-79.84
16.625,-40.76
16.640,0.25
16.656,34.66
16.671,56.1
16.687,63.24
16.703,58.68
16.718,47.41
16.734,34.19
16.750,21.92
16.765,9.98
16.781,-3.34
16.796,-17.01
16.812,-28.31
16.828,-33.43
16.843,-29.63
16.859,-16.41
16.875,4.15
16.890,28.76
16.906,53.3
16.921,75.01
16.937,93.18
16.953,108.16
16.968,121.41
16.984,134.23
17.000,146.98
17.015,158.45
17.031,167.0
17.046,171.4
17.062,171.83
17.078,169.82
17.093,167.09
17.109,166.12
17.125,169.47
17.140,179.12
17.156,194.87
17.171,214.53
17.187,234.66
17.203,251.71
17.218,263.51
17.234,262.51
17.250,245.97
17.265,215.06
17.281,173.86
17.296,126.44
17.312,76.75
17.328,28.41
17.343,-15.05
17.359,-46.13
17.375,-55.48
17.390,-45.09
17.406,-19.29
17.421,21.87
17.437,74.21
17.453,130.77
17.468,184.37
17.484,227.77
17.500,255.83
17.515,265.62
17.531,257.14
17.546,228.73
17.562,183.59
17.578,129.55
17.593,75.55
17.609,21.85
17.625,-35.99
17.640,-101.05
17.656,-174.79
17.671,-246.77
17.687,-309.99
17.703,-360.22
17.718,-397.32
17.734,-423.27
17.750,-440.1
17.765,-452.17
17.781,-461.39
17.796,-467.56
17.812,-469.18
17.828,-466.64
17.843,-462.32
17.859,-460.94
17.875,-467.65
17.890,-457.82
17.906,-419.31
17.921,-355.63
17.937,-281.77
17.953,-211.46
17.968,-148.92
17.984,-89.31
18.000,-26.46
18.015,41.8
18.031,112.43
18.046,174.91
18.062,219.37
18.078,243.15
18.093,250.66
18.109,249.78
18.125,247.53
18.140,244.98
18.156,237.69
18.171,219.05
18.187,181.75
18.203,125.31
18.218,58.4
18.234,-7.78
18.250,-60.71
18.265,-93.8
18.281,-107.51
18.296,-106.77
18.312,-98.15
18.328,-87.86
18.343,-79.35
18.359,-72.4
18.375,-65.56
18.390,-57.77
18.406,-50.47
18.421,-46.9
18.437,-49.59
18.453,-60.79
18.468,-81.09
18.484,-110.09
18.500,-145.6
18.515,-185.04
18.531,-225.34
18.546,-265.15
18.562,-305.18
18.578,-340.74
18.593,-370.02
18.609,-384.19
18.625,-379.49
18.640,-357.69
18.656,-325.25
18.671,-287.78
18.687,-247.22
18.703,-204.66
18.718,-153.76
18.734,-91.75
18.750,-19.67
18.765,57.15
18.781,133.93
18.796,201.33
18.812,254.5
18.828,292.95
18.843,318.87
18.859,335.64
18.875,344.36
18.890,345.21
18.906,337.18
18.921,319.87
18.937,294.14
18.953,262.42
18.968,227.18
18.984,189.84
19.000,151.28
19.015,111.0
19.031,69.11
19.046,26.18
19.062,-16.33
19.078,-56.17
19.093,-90.34
19.109,-116.47
19.125,-133.57
19.140,-141.88
19.156,-143.01
19.171,-138.82
19.187,-130.93
19.203,-120.36
19.218,-107.74
19.234,-93.07
19.250,-76.25
19.265,-57.63
19.281,-37.82
19.296,-17.79
19.312,1.46
19.328,19.12
19.343,34.58
19.359,47.32
19.375,56.99
19.390,63.1
19.406,65.21
19.421,62.9
19.437,55.93
19.453,44.4
19.468,28.92
19.484,10.51
19.500,-9.58
19.515,-29.92
19.531,-49.15
19.546,-66.07
19.562,-79.71
19.578,-89.45
19.593,-95.07
19.609,-96.71
19.625,-94.93
19.640,-90.5
19.656,-84.19
19.671,-76.55
19.687,-67.86
19.703,-58.09
19.718,-47.17
19.734,-35.17
19.750,-22.24
19.765,-8.87
19.781,4.29
19.796,16.72
19.812,28.36
19.828,39.64
19.843,51.59
19.859,65.34
19.875,81.85
19.890,101.44
19.906,123.78
19.921,148.17
19.937,173.94
19.953,200.84
19.968,229.15
19.984,259.44
20.000,292.08
20.015,326.48
20.031,360.78
20.046,392.06
20.062,417.18
20.078,433.57
20.093,440.02
20.109,436.94
20.125,426.27
20.140,411.38
20.156,396.51
20.171,386.18
20.187,384.1
20.203,391.83
20.218,407.48
20.234,425.35
20.250,437.33
20.265,435.64
20.281,415.73
20.296,378.08
20.312,327.89
20.328,272.5
20.343,218.66
20.359,170.56
20.375,129.55
20.390,95.5
20.406,68.29
20.421,48.58
20.437,37.48
20.453,35.54
20.468,41.83
20.484,54.0
20.500,69.3
20.515,85.41
20.531,101.08
20.546,116.05
20.562,130.33
20.578,143.78
20.593,155.64
20.609,164.49
20.625,168.53
20.640,166.46
20.656,157.98
20.671,144.01
20.687,126.54
20.703,107.96
20.718,90.26
20.734,74.59
20.750,61.08
20.765,48.97
20.781,37.22
20.796,24.87
20.812,11.48
20.828,-2.7
20.843,-17.07
20.859,-30.92
20.875,-44.05
20.890,-56.83
20.906,-70.07
20.921,-84.83
20.937,-101.97
20.953,-121.74
20.968,-143.6
20.984,-166.66
21.000,-189.7
21.015,-211.85
21.031,-232.79
21.046,-252.6
21.062,-271.9
21.078,-291.71
21.093,-313.36
21.109,-337.89
21.125,-366.04
21.140,-396.94
21.156,-427.84
21.171,-454.37
21.187,-471.53
21.203,-475.26
21.218,-463.96
21.234,-439.28
21.250,-405.1
21.265,-366.7
21.281,-328.57
21.296,-293.51
21.312,-262.48
21.328,-235.05
21.343,-210.39
21.359,-187.89
21.375,-167.32
21.390,-148.53
21.406,-131.34
21.421,-115.19
21.437,-99.7
21.453,-84.9
21.468,-71.16
21.484,-59.11
21.500,-49.14
21.515,-40.83
21.531,-33.06
21.546,-24.6
21.562,-14.81
21.578,-4.04
21.593,6.25
21.609,14.79
21.625,21.08
21.640,25.75
21.656,30.28
21.671,36.01
21.687,43.23
21.703,50.87
21.718,56.97
21.734,59.33
21.750,56.72
21.765,49.16
21.781,38.05
21.796,25.48
21.812,13.61
21.828,3.87
21.843,-2.91
21.859,-6.72
21.875,-8.08
21.890,-8.1
21.906,-8.66
21.921,-12.08
21.937,-20.55
21.953,-34.98
21.968,-54.31
21.984,-75.01
22.000,-92.25
22.015,-101.73
22.031,-101.3
22.046,-91.92
22.062,-77.07
22.078,-61.04
22.093,-46.94
22.109,-35.98
22.125,-27.58
22.140,-20.46
22.156,-13.83
22.171,-7.72
22.187,-2.61
22.203,1.33
22.218,4.46
22.234,7.67
22.250,11.51
22.265,15.64
22.281,19.02
22.296,20.49
22.312,19.61
22.328,17.09
22.343,14.69
22.359,14.1
22.375,16.17
22.390,20.55
22.406,25.87
22.421,30.75
22.437,34.28
22.453,36.58
22.468,38.26
22.484,39.8
22.500,40.96
22.515,40.57
22.531,36.9
22.546,28.37
22.562,14.68
22.578,-2.83
22.593,-20.63
22.609,-33.36
22.625,-35.3
22.640,-21.86
22.656,9.26
22.671,56.89
22.687,116.17
22.703,179.49
22.718,237.72
22.734,282.1
22.750,306.04
22.765,306.72
22.781,285.76
22.796,248.91
22.812,204.49
22.828,160.83
22.843,124.27
22.859,98.35
22.875,84.74
22.890,84.76
22.906,100.42
22.921,133.09
22.937,180.97
22.953,236.91
22.968,288.59
22.984,322.02
23.000,326.72
23.015,300.06
23.031,248.12
23.046,182.67
23.062,115.72
23.078,54.62
23.093,0.55
23.109,-49.9
23.125,-101.28
23.140,-156.71
23.156,-216.35
23.171,-277.54
23.187,-335.29
23.203,-382.64
23.218,-411.77
23.234,-415.54
23.250,-390.33
23.265,-338.16
23.281,-267.04
23.296,-189.03
23.312,-116.54
23.328,-58.65
23.343,-19.34
23.359,1.86
23.375,8.35
23.390,4.46
23.406,-5.05
23.421,-15.11
23.437,-20.51
23.453,-16.54
23.468,-0.62
23.484,26.56
23.500,60.6
23.515,95.01
23.531,123.22
23.546,141.08
23.562,148.03
23.578,146.57
23.593,140.94
23.609,135.12
23.625,131.22
23.640,128.83
23.656,125.43
23.671,117.4
23.687,101.57
23.703,76.67
23.718,43.56
23.734,4.63
23.750,-37.44
23.765,-81.22
23.781,-126.78
23.796,-174.41
23.812,-222.99
23.828,-268.74
23.843,-305.68
23.859,-327.78
23.875,-331.63
23.890,-318.08
23.906,-292.0
23.921,-260.1
23.937,-228.43
23.953,-200.88
23.968,-178.99
23.984,-162.62
24.000,-150.92
24.015,-142.39
24.031,-134.42
24.046,-123.47
24.062,-105.86
24.078,-79.33
24.093,-44.83
24.109,-6.72
24.125,28.24
24.140,52.91
24.156,62.11
24.171,54.15
24.187,30.89
24.203,-3.37
24.218,-43.82
24.234,-87.23
24.250,-132.46
24.265,-179.89
24.281,-229.82
24.296,-280.83
24.312,-328.95
24.328,-368.36
24.343,-393.3
24.359,-400.5
24.375,-390.72
24.390,-368.51
24.406,-340.71
24.421,-313.72
24.437,-291.18
24.453,-273.43
24.468,-258.82
24.484,-245.73
24.500,-234.18
24.515,-226.07
24.531,-223.17
24.546,-225.16
24.562,-228.67
24.578,-228.17
24.593,-218.73
24.609,-198.57
24.625,-169.98
24.640,-138.08
24.656,-108.18
24.671,-83.48
24.687,-64.02
24.703,-47.73
24.718,-32.04
24.734,-15.56
24.750,1.46
24.765,17.77
24.781,32.08
24.796,43.93
24.812,53.66
24.828,62.16
24.843,70.33
24.859,78.58
24.875,86.66
24.890,94.03
24.906,100.33
24.921,105.62
24.937,110.53
24.953,115.99
24.968,122.69
24.984,130.74
25.000,139.66
25.015,148.58
25.031,156.9
25.046,164.55
25.062,172.07
25.078,180.26
25.093,189.57
25.109,199.49
25.125,208.59
25.140,214.86
25.156,216.67
25.171,213.51
25.187,206.32
25.203,197.23
25.218,188.61
25.234,182.05
25.250,177.63
25.265,174.11
25.281,169.74
25.296,163.57
25.312,156.31
25.328,150.19
25.343,148.2
25.359,152.93
25.375,165.88
25.390,187.45
25.406,217.44
25.421,254.85
25.437,297.03
25.453,338.74
25.468,372.56
25.484,391.07
25.500,390.69
25.515,374.3
25.531,350.64
25.546,330.44
25.562,320.74
25.578,321.24
25.593,325.05
25.609,323.16
25.625,309.65
25.640,284.84
25.656,253.99
25.671,223.31
25.687,196.05
25.703,171.18
25.718,145.12
25.734,114.86
25.750,80.3
25.765,44.03
25.781,9.73
25.796,-19.78
25.812,-43.7
25.828,-62.76
25.843,-78.08
25.859,-90.13
25.875,-98.14
25.890,-100.43
25.906,-95.35
25.921,-82.54
25.937,-63.72
25.953,-42.82
25.968,-24.74
25.984,-13.64
26.000,-11.28
26.015,-16.25
26.031,-24.68
26.046,-31.88
26.062,-34.4
26.078,-31.42
26.093,-24.98
26.109,-18.74
26.125,-16.44
26.140,-20.53
26.156,-31.79
26.171,-50.13
26.187,-75.63
26.203,-109.2
26.218,-152.01
26.234,-204.41
26.250,-264.11
26.265,-325.64
26.281,-381.53
26.296,-423.91
26.312,-447.15
26.328,-449.09
26.343,-431.18
26.359,-397.4
26.375,-353.05
26.390,-303.42
26.406,-252.99
26.421,-205.16
26.437,-161.94
26.453,-124.03
26.468,-90.85
26.484,-61.05
26.500,-32.42
26.515,-2.78
26.531,29.67
26.546,65.6
26.562,104.08
26.578,142.53
26.593,177.2
26.609,204.57
26.625,222.42
26.640,230.9
26.656,232.05
26.671,228.53
26.687,222.55
26.703,215.0
26.718,206.13
26.734,196.28
26.750,186.61
26.765,178.61
26.781,173.11
26.796,169.53
26.812,165.81
26.828,159.4
26.843,148.26
26.859,131.61
26.875,109.39
26.890,81.58
26.906,47.9
26.921,8.18
26.937,-36.27
26.953,-81.95
26.968,-123.04
26.984,-153.07
27.000,-166.78
27.015,-162.24
27.031,-141.58
27.046,-110.25
27.062,-75.35
27.078,-43.2
27.093,-17.73
27.109,0.23
27.125,12.33
27.140,21.44
27.156,30.02
27.171,38.98
27.187,47.62
27.203,54.29
27.218,57.77
27.234,58.26
27.250,57.86
27.265,59.56
27.281,65.86
27.296,77.25
27.312,91.91
27.328,106.45
27.343,117.68
27.359,124.16
27.375,126.69
27.390,127.63
27.406,129.18
27.421,132.0
27.437,134.89
27.453,135.98
27.468,134.22
27.484,130.17
27.500,125.69
27.515,122.72
27.531,121.9
27.546,122.01
27.562,120.79
27.578,115.89
27.593,105.75
27.609,89.75
27.625,67.63
27.640,39.18
27.656,4.41
27.671,-35.84
27.687,-79.33
27.703,-122.02
27.718,-158.75
27.734,-184.21
27.750,-194.08
27.765,-186.08
27.781,-160.17
27.796,-118.6
27.812,-65.12
27.828,-4.57
27.843,58.2
27.859,118.82
27.875,173.68
27.890,220.42
27.906,258.3
27.921,288.44
27.937,312.96
27.953,334.25
27.968,353.6
27.984,370.71
28.000,383.85
28.015,391.09
28.031,392.08
28.046,388.78
28.062,385.37
28.078,386.43
28.093,394.88
28.109,410.63
28.125,430.77
28.140,451.12
28.156,467.87
28.171,479.05
28.187,484.16
28.203,483.3
28.218,476.56
28.234,463.74
28.250,444.75
28.265,420.51
28.281,393.15
28.296,365.17
28.312,338.85
28.328,315.02
28.343,292.93
28.359,270.97
28.375,247.64
28.390,221.96
28.406,193.79
28.421,163.87
28.437,132.98
28.453,101.96
28.468,71.23
28.484,40.69
28.500,10.03
28.515,-21.21
28.531,-53.3
28.546,-86.08
28.562,-119.05
28.578,-151.57
28.593,-182.85
28.609,-212.28
28.625,-239.41
28.640,-263.75
28.656,-285.12
28.671,-303.27
28.687,-317.83
28.703,-328.55
28.718,-335.28
28.734,-337.97
28.750,-337.0
28.765,-333.16
28.781,-327.2
28.796,-320.14
28.812,-313.01
28.828,-306.61
28.843,-301.73
28.859,-298.89
28.875,-298.47
28.890,-300.88
28.906,-306.38
28.921,-314.99
28.937,-326.4
28.953,-339.83
28.968,-353.97
28.984,-367.25
29.000,-378.1
29.015,-385.35
29.031,-388.7
29.046,-388.59
29.062,-385.89
29.078,-381.59
29.093,-376.26
29.109,-369.83
29.125,-361.64
29.140,-350.82
29.156,-336.98
29.171,-320.56
29.187,-302.87
29.203,-285.81
29.218,-271.12
29.234,-259.87
29.250,-252.34
29.265,-248.14
29.281,-246.69
29.296,-247.95
29.312,-252.69
29.328,-262.2
29.343,-278.17
29.359,-302.13
29.375,-335.46
29.390,-379.03
29.406,-432.27
29.421,-491.9
29.437,-551.4
29.453,-601.47
29.468,-632.42
29.484,-637.27
29.500,-614.26
29.515,-567.45
29.531,-504.93
29.546,-435.67
29.562,-366.55
29.578,-300.94
29.593,-239.45
29.609,-181.77
29.625,-127.91
29.640,-78.73
29.656,-35.24
29.671,2.29
29.687,34.55
29.703,62.54
29.718,87.04
29.734,108.08
29.750,125.02
29.765,137.17
29.781,144.68
29.796,148.51
29.812,150.55
29.828,152.92
29.843,156.98
29.859,163.33
29.875,171.77
29.890,181.55
29.906,191.82
29.921,202.56
29.937,213.64
29.953,225.04
29.968,235.81
29.984,243.66
30.000,246.1
30.015,241.08
30.031,227.5
30.046,205.67
30.062,177.46
30.078,146.05
30.093,116.25
30.109,93.27
30.125,80.76
30.140,79.93
30.156,87.93
30.171,97.62
30.187,99.97
30.203,88.29
30.218,61.69
30.234,26.66
30.250,-5.42
30.265,-24.17
30.281,-22.47
30.296,0.34
30.312,37.8
30.328,78.44
30.343,109.74
30.359,121.58
30.375,108.65
30.390,70.78
30.406,9.48
30.421,-69.12
30.437,-154.82
30.453,-234.41
30.468,-294.53
30.484,-325.65
30.500,-325.26
30.515,-298.93
30.531,-244.48
30.546,-170.5
30.562,-90.52
30.578,-16.68
30.593,45.86
30.609,98.92
30.625,146.26
30.640,188.99
30.656,226.17
30.671,256.33
30.687,277.11
30.703,289.05
30.718,294.45
30.734,295.24
30.750,292.15
30.765,285.15
30.781,274.27
30.796,261.79
30.812,251.32
30.828,244.22
30.843,240.92
30.859,242.08
30.875,244.37
30.890,243.55
30.906,235.44
30.921,216.97
30.937,187.22
30.953,147.92
30.968,102.47
30.984,56.36
31.000,18.58
31.015,-4.42
31.031,-11.14
31.046,-5.66
31.062,4.34
31.078,11.43
31.093,11.48
31.109,4.35
31.125,-6.3
31.140,-16.24
31.156,-23.41
31.171,-28.05
31.187,-31.78
31.203,-36.06
31.218,-40.84
31.234,-44.79
31.250,-46.78
31.265,-45.94
31.281,-42.92
31.296,-39.61
31.312,-37.91
31.328,-38.72
31.343,-41.76
31.359,-45.78
31.375,-49.18
31.390,-50.91
31.406,-50.7
31.421,-49.46
31.437,-48.71
31.453,-49.86
31.468,-53.46
31.484,-59.23
31.500,-66.14
31.515,-72.83
31.531,-78.37
31.546,-82.02
31.562,-83.66
31.578,-83.51
31.593,-82.29
31.609,-79.55
31.625,-74.86
31.640,-67.78
31.656,-58.15
31.671,-46.29
31.687,-32.82
31.703,-18.99
31.718,-6.2
31.734,4.42
31.750,12.22
31.765,16.84
31.781,18.45
31.796,17.08
31.812,12.85
31.828,6.45
31.843,-1.69
31.859,-11.07
31.875,-21.13
31.890,-31.26
31.906,-40.63
31.921,-48.4
31.937,-53.69
31.953,-55.51
31.968,-52.98
31.984,-45.58
32.000,-33.12
32.015,-15.67
32.031,5.32
32.046,28.46
32.062,52.21
32.078,74.9
32.093,95.01
32.109,111.49
32.125,123.64
32.140,131.24
32.156,134.51
32.171,133.85
32.187,130.09
32.203,124.09
32.218,116.59
32.234,108.17
32.250,99.46
32.265,90.8
32.281,82.8
32.296,75.97
32.312,70.07
32.328,64.91
32.343,60.09
32.359,55.18
32.375,49.98
32.390,44.59
32.406,39.46
32.421,35.22
32.437,32.28
32.453,30.61
32.468,29.85
32.484,29.29
32.500,28.13
32.515,25.98
32.531,22.98
32.546,19.93
32.562,17.85
32.578,17.54
32.593,19.08
32.609,21.92
32.625,24.93
32.640,27.01
32.656,27.93
32.671,27.38
32.687,25.99
32.703,24.71
32.718,24.52
32.734,26.26
32.750,30.63
32.765,37.71
32.781,46.21
32.796,53.1
32.812,54.01
32.828,45.07
32.843,25.0
32.859,-3.61
32.875,-34.89
32.890,-61.76
32.906,-78.85
32.921,-84.68
32.937,-81.3
32.953,-72.7
32.968,-62.49
32.984,-52.57
33.000,-43.0
33.015,-33.37
33.031,-23.42
33.046,-13.3
33.062,-3.29
33.078,6.33
33.093,15.49
33.109,23.97
33.125,30.75
33.140,34.56
33.156,33.78
33.171,27.89
33.187,17.4
33.203,3.73
33.218,-11.16
33.234,-25.51
33.250,-37.93
33.265,-47.61
33.281,-54.08
33.296,-57.2
33.312,-56.99
33.328,-53.82
33.343,-48.55
33.359,-42.44
33.375,-36.55
33.390,-31.89
33.406,-28.38
33.421,-25.71
33.437,-23.07
33.453,-19.55
33.468,-14.96
33.484,-9.57
33.500,-4.09
33.515,0.44
33.531,2.92
33.546,2.93
33.562,0.6
33.578,-3.35
33.593,-8.02
33.609,-12.2
33.625,-14.73
33.640,-14.66
33.656,-11.78
33.671,-6.62
33.687,-0.24
33.703,5.68
33.718,9.78
33.734,11.36
33.750,10.84
33.765,9.81
33.781,9.71
33.796,11.31
33.812,13.96
33.828,16.3
33.843,16.77
33.859,14.7
33.875,11.04
33.890,7.5
33.906,5.93
33.921,6.49
33.937,7.78
33.953,8.0
33.968,6.06
33.984,2.45
34.000,-0.6
34.015,-0.35
34.031,5.14
34.046,16.24
34.062,33.6
34.078,54.95
34.093,76.93
34.109,96.3
34.125,110.93
34.140,120.01
34.156,123.52
34.171,122.17
34.187,117.25
34.203,110.47
34.218,103.88
34.234,100.03
34.250,100.91
34.265,107.01
34.281,116.61
34.296,126.0
34.312,131.03
34.328,129.02
34.343,119.4
34.359,103.51
34.375,83.87
34.390,63.12
34.406,43.38
34.421,25.98
34.437,11.79
34.453,1.37
34.468,-4.87
34.484,-7.48
34.500,-7.6
34.515,-7.16
34.531,-7.68
34.546,-10.18
34.562,-14.71
34.578,-20.38
34.593,-25.9
34.609,-29.79
34.625,-31.34
34.640,-30.11
34.656,-26.62
34.671,-21.58
34.687,-16.09
34.703,-11.34
34.718,-8.36
34.734,-7.75
34.750,-9.54
34.765,-13.36
34.781,-18.33
34.796,-23.73
34.812,-29.24
34.828,-34.71
34.843,-40.37
34.859,-46.48
34.875,-53.14
34.890,-60.29
34.906,-67.85
34.921,-75.85
34.937,-84.38
34.953,-93.58
34.968,-103.1
34.984,-112.61
35.000,-121.23
35.015,-128.7
35.031,-135.01
35.046,-140.37
35.062,-145.11
35.078,-149.75
35.093,-154.56
35.109,-159.53
35.125,-164.6
35.140,-169.0
35.156,-171.84
35.171,-172.03
35.187,-168.39
35.203,-160.25
35.218,-147.95
35.234,-132.64
35.250,-116.14
35.265,-100.51
35.281,-87.07
35.296,-76.39
35.312,-68.36
35.328,-61.94
35.343,-55.85
35.359,-49.05
35.375,-41.03
35.390,-32.05
35.406,-23.33
35.421,-16.2
35.437,-11.51
35.453,-9.43
35.468,-8.81
35.484,-8.31
35.500,-6.68
35.515,-3.38
35.531,1.33
35.546,6.42
35.562,11.21
35.578,15.45
35.593,19.19
35.609,22.85
35.625,26.44
35.640,29.67
35.656,32.15
35.671,33.79
35.687,34.53
35.703,34.7
35.718,34.85
35.734,35.24
35.750,36.18
35.765,37.58
35.781,39.3
35.796,41.11
35.812,42.98
35.828,44.48
35.843,45.24
35.859,45.06
35.875,43.77
35.890,41.9
35.906,40.07
35.921,38.8
35.937,38.3
35.953,38.4
35.968,38.42
35.984,37.76
36.000,36.0
36.015,32.88
36.031,28.74
36.046,24.01
36.062,18.87
36.078,13.55
36.093,8.35
36.109,3.69
36.125,0.21
36.140,-1.22
36.156,-0.49
36.171,2.21
36.187,6.05
36.203,10.01
36.218,13.3
36.234,15.76
36.250,17.63
36.265,19.57
36.281,22.13
36.296,25.04
36.312,28.0
36.328,30.08
36.343,30.42
36.359,28.44
36.375,24.03
36.390,17.52
36.406,10.06
36.421,2.99
36.437,-2.93
36.453,-7.17
36.468,-10.24
36.484,-12.89
36.500,-15.76
36.515,-19.04
36.531,-22.83
36.546,-26.71
36.562,-30.28
36.578,-33.6
36.593,-36.42
36.609,-38.65
36.625,-39.77
36.640,-39.23
36.656,-36.32
36.671,-30.89
36.687,-23.54
36.703,-15.23
36.718,-7.4
36.734,-1.13
36.750,2.73
36.765,4.33
36.781,4.35
36.796,3.71
36.812,3.11
36.828,2.72
36.843,2.3
36.859,1.56
36.875,0.7
36.890,-0.22
36.906,-0.82
36.921,-0.89
36.937,-0.38
36.953,0.74
36.968,2.52
36.984,4.8
37.000,7.22
37.015,9.48
37.031,10.78
37.046,10.44
37.062,8.28
37.078,4.33
37.093,-0.57
37.109,-5.59
37.125,-9.99
37.140,-13.55
37.156,-16.16
37.171,-17.86
37.187,-18.76
37.203,-18.87
37.218,-18.41
37.234,-17.5
37.250,-16.68
37.265,-16.41
37.281,-17.28
37.296,-19.37
37.312,-22.41
37.328,-25.59
37.343,-28.06
37.359,-29.09
37.375,-28.24
37.390,-25.56
37.406,-21.54
37.421,-17.2
37.437,-13.4
37.453,-10.95
37.468,-9.85
37.484,-9.54
37.500,-9.16
37.515,-8.07
37.531,-5.92
37.546,-3.05
37.562,-0.05
37.578,2.54
37.593,4.11
37.609,4.64
37.625,4.39
37.640,3.82
37.656,3.41
37.671,3.65
37.687,4.72
37.703,6.63
37.718,9.17
37.734,11.97
37.750,14.96
37.765,18.25
37.781,21.92
37.796,25.8
37.812,29.36
37.828,31.98
37.843,33.21
37.859,33.02
37.875,31.45
37.890,28.78
37.906,24.98
37.921,19.85
37.937,13.37
37.953,5.71
37.968,-2.35
37.984,-9.87
38.000,-15.84
38.015,-19.92
38.031,-22.19
38.046,-23.25
38.062,-23.81
38.078,-23.97
38.093,-23.55
38.109,-22.01
38.125,-19.15
38.140,-15.15
38.156,-10.83
38.171,-7.04
38.187,-4.5
38.203,-3.37
38.218,-2.94
38.234,-2.32
38.250,-0.53
38.265,3.03
38.281,8.34
38.296,14.65
38.312,20.71
38.328,25.44
38.343,28.0
38.359,28.75
38.375,28.56
38.390,28.9
38.406,30.88
38.421,34.52
38.437,38.82
38.453,42.02
38.468,42.68
38.484,40.29
38.500,35.7
38.515,30.24
38.531,25.46
38.546,22.26
38.562,20.64
38.578,19.86
38.593,18.85
38.609,16.82
38.625,13.01
38.640,7.38
38.656,0.01
38.671,-8.6
38.687,-17.47
38.703,-25.44
38.718,-31.27
38.734,-34.26
38.750,-34.36
38.765,-32.58
38.781,-30.2
38.796,-28.5
38.812,-28.13
38.828,-28.72
38.843,-29.38
38.859,-28.8
38.875,-26.3
38.890,-21.88
38.906,-16.18
38.921,-9.96
38.937,-3.82
38.953,2.27
38.968,8.52
38.984,14.93
39.000,21.35
39.015,26.78
39.031,30.18
39.046,30.67
39.062,28.28
39.078,23.96
39.093,19.27
39.109,16.07
39.125,15.43
39.140,17.75
39.156,22.23
39.171,27.47
39.187,31.77
39.203,33.51
39.218,32.14
39.234,27.77
39.250,21.59
39.265,15.03
39.281,9.61
39.296,5.88
39.312,3.55
39.328,1.63
39.343,-1.18
39.359,-5.37
39.375,-10.61
39.390,-15.54
39.406,-18.83
39.421,-19.37
39.437,-17.48
39.453,-14.47
39.468,-12.0
39.484,-11.59
39.500,-13.44
39.515,-16.79
39.531,-19.98
39.546,-21.6
39.562,-20.65
39.578,-17.37
39.593,-12.88
39.609,-8.47
39.625,-5.29
39.640,-3.63
39.656,-3.24
39.671,-3.44
39.687,-3.66
39.703,-3.88
39.718,-4.43
39.734,-6.06
39.750,-9.13
39.765,-13.85
39.781,-19.45
39.796,-24.88
39.812,-29.03
39.828,-31.27
39.843,-31.5
39.859,-29.87
39.875,-27.11
39.890,-23.88
39.906,-21.62
39.921,-21.69
39.937,-25.37
39.953,-32.95
39.968,-43.13
39.984,-53.13
40.000,-59.07
40.015,-58.02
40.031,-48.95
40.046,-33.9
40.062,-16.73
40.078,-1.92
40.093,7.07
40.109,9.03
40.125,4.75
40.140,-3.42
40.156,-13.22
40.171,-22.9
40.187,-31.7
40.203,-39.41
40.218,-45.8
40.234,-50.61
40.250,-53.09
40.265,-52.88
40.281,-50.14
40.296,-46.2
40.312,-43.63
40.328,-45.36
40.343,-53.34
40.359,-67.52
40.375,-86.08
40.390,-105.95
40.406,-124.86
40.421,-142.09
40.437,-158.68
40.453,-176.95
40.468,-198.43
40.484,-222.62
40.500,-246.98
40.515,-268.16
40.531,-283.53
40.546,-292.08
40.562,-293.62
40.578,-287.49
40.593,-273.15
40.609,-250.7
40.625,-221.17
40.640,-186.77
40.656,-150.89
40.671,-117.31
40.687,-89.6
40.703,-70.05
40.718,-58.92
40.734,-55.41
40.750,-57.98
40.765,-64.64
40.781,-72.8
40.796,-79.49
40.812,-82.56
40.828,-80.85
40.843,-74.16
40.859,-62.93
40.875,-47.73
40.890,-28.95
40.906,-6.44
40.921,20.12
40.937,51.45
40.953,87.78
40.968,128.14
40.984,170.39
41.000,211.57
41.015,249.48
41.031,282.96
41.046,311.97
41.062,337.02
41.078,359.69
41.093,382.68
41.109,408.4
41.125,437.8
41.140,469.08
41.156,497.48
41.171,516.0
41.187,517.7
41.203,497.74
41.218,456.05
41.234,397.87
41.250,331.95
41.265,267.39
41.281,210.99
41.296,166.2
41.312,133.01
41.328,109.29
41.343,92.05
41.359,78.54
41.375,66.57
41.390,54.53
41.406,41.4
41.421,27.14
41.437,12.62
41.453,-0.66
41.468,-10.93
41.484,-16.76
41.500,-17.74
41.515,-14.37
41.531,-7.77
41.546,0.27
41.562,7.89
41.578,13.45
41.593,15.85
41.609,15.01
41.625,11.82
41.640,7.81
41.656,4.57
41.671,3.02
41.687,2.97
41.703,3.61
41.718,3.81
41.734,2.63
41.750,-0.33
41.765,-4.89
41.781,-10.28
41.796,-15.67
41.812,-20.5
41.828,-24.65
41.843,-28.32
41.859,-31.77
41.875,-35.06
41.890,-37.87
41.906,-39.81
41.921,-40.42
41.937,-39.59
41.953,-37.47
41.968,-34.25
41.984,-30.16
42.000,-25.34
42.015,-19.93
42.031,-14.13
42.046,-8.26
42.062,-2.65
42.078,2.42
42.093,6.7
42.109,10.15
42.125,12.71
42.140,14.35
42.156,15.09
42.171,14.98
42.187,14.13
42.203,12.84
42.218,11.5
42.234,10.23
42.250,9.17
42.265,8.1
42.281,6.79
42.296,5.11
42.312,2.99
42.328,0.6
42.343,-1.92
42.359,-4.18
42.375,-5.94
42.390,-6.94
42.406,-7.05
42.421,-6.34
42.437,-5.01
42.453,-3.38
42.468,-1.64
42.484,0.03
42.500,1.68
42.515,3.36
42.531,5.12
42.546,6.77
42.562,8.04
42.578,8.67
42.593,8.53
42.609,7.72
42.625,6.47
42.640,5.11
42.656,3.88
42.671,3.03
42.687,2.6
42.703,2.34
42.718,2.02
42.734,1.39
42.750,0.37
42.765,-0.92
42.781,-2.12
42.796,-2.99
42.812,-3.38
42.828,-3.25
42.843,-2.92
42.859,-2.6
42.875,-2.54
42.890,-2.83
42.906,-3.49
42.921,-4.41
42.937,-5.57
42.953,-7.0
42.968,-8.61
42.984,-10.41
43.000,-12.26
43.015,-14.16
43.031,-16.14
43.046,-18.2
43.062,-20.4
43.078,-22.72
43.093,-25.02
43.109,-27.06
43.125,-28.55
43.140,-29.22
43.156,-29.04
43.171,-28.07
43.187,-26.3
43.203,-23.67
43.218,-20.08
43.234,-15.43
43.250,-9.83
43.265,-3.78
43.281,2.12
43.296,7.15
43.312,10.83
43.328,13.18
43.343,14.49
43.359,15.32
43.375,16.15
43.390,17.3
43.406,18.79
43.421,20.48
43.437,22.18
43.453,23.7
43.468,24.89
43.484,25.68
43.500,25.98
43.515,25.88
43.531,25.48
43.546,24.95
43.562,24.6
43.578,24.63
43.593,25.09
43.609,25.76
43.625,26.32
43.640,26.35
43.656,25.44
43.671,23.24
43.687,19.36
43.703,13.48
43.718,5.41
43.734,-4.88
43.750,-17.14
43.765,-31.05
43.781,-46.34
43.796,-63.11
43.812,-81.73
43.828,-102.57
43.843,-125.29
43.859,-148.62
43.875,-170.42
43.890,-188.62
43.906,-201.68
43.921,-208.89
43.937,-209.81
43.953,-203.89
43.968,-190.38
43.984,-168.64
44.000,-139.38
44.015,-104.85
44.031,-68.75
44.046,-35.14
44.062,-7.03
44.078,14.53
44.093,30.19
44.109,41.55
44.125,50.31
44.140,57.58
44.156,64.16
44.171,70.52
44.187,76.88
44.203,83.08
44.218,88.51
44.234,92.17
44.250,93.16
44.265,91.09
44.281,86.5
44.296,80.92
44.312,76.29
44.328,74.2
44.343,75.8
44.359,81.65
44.375,91.86
44.390,106.14
44.406,123.59
44.421,142.89
44.437,162.95
44.453,183.09
44.468,202.73
44.484,220.95
44.500,235.33
44.515,241.83
44.531,235.68
44.546,213.52
44.562,175.51
44.578,126.56
44.593,75.12
44.609,30.24
44.625,-1.11
44.640,-16.15
44.656,-16.18
44.671,-5.0
44.687,12.8
44.703,32.85
44.718,51.32
44.734,65.15
44.750,72.6
44.765,74.06
44.781,72.28
44.796,71.36
44.812,74.83
44.828,83.43
44.843,94.33
44.859,102.42
44.875,102.79
44.890,93.21
44.906,75.22
44.921,52.82
44.937,30.78
44.953,12.65
44.968,0.52
44.984,-4.71
45.000,-2.45
45.015,7.3
45.031,23.04
45.046,41.4
45.062,57.35
45.078,66.33
45.093,66.07
45.109,57.63
45.125,44.38
45.140,29.9
45.156,15.89
45.171,1.38
45.187,-16.12
45.203,-38.58
45.218,-65.66
45.234,-94.66
45.250,-121.7
45.265,-143.68
45.281,-159.45
45.296,-169.76
45.312,-176.19
45.328,-180.04
45.343,-181.8
45.359,-181.25
45.375,-178.07
45.390,-172.32
45.406,-164.49
45.421,-155.25
45.437,-145.13
45.453,-134.39
45.468,-123.04
45.484,-111.07
45.500,-98.36
45.515,-84.82
45.531,-70.49
45.546,-55.67
45.562,-41.05
45.578,-27.46
45.593,-15.81
45.609,-6.54
45.625,0.4
45.640,5.64
45.656,10.23
45.671,15.06
45.687,20.68
45.703,26.97
45.718,32.96
45.734,36.76
45.750,35.93
45.765,28.15
45.781,12.67
45.796,-8.91
45.812,-32.36
45.828,-51.85
45.843,-61.55
45.859,-57.53
45.875,-38.92
45.890,-7.86
45.906,30.68
45.921,70.14
45.937,103.3
45.953,123.81
45.968,127.9
45.984,115.71
46.000,91.43
46.015,62.22
46.031,35.96
46.046,18.68
46.062,13.1
46.078,18.59
46.093,32.19
46.109,49.87
46.125,67.48
46.140,81.07
46.156,87.34
46.171,83.92
46.187,69.97
46.203,46.86
46.218,17.85
46.234,-12.78
46.250,-40.98
46.265,-64.12
46.281,-80.93
46.296,-90.82
46.312,-93.46
46.328,-88.9
46.343,-78.08
46.359,-63.21
46.375,-47.81
46.390,-35.33
46.406,-27.83
46.421,-25.04
46.437,-24.48
46.453,-23.01
46.468,-18.54
46.484,-11.32
46.500,-3.62
46.515,1.4
46.531,1.66
46.546,-2.94
46.562,-10.89
46.578,-20.02
46.593,-28.67
46.609,-36.37
46.625,-43.78
46.640,-51.86
46.656,-61.33
46.671,-72.05
46.687,-83.08
46.703,-92.95
46.718,-100.21
46.734,-103.71
46.750,-103.02
46.765,-98.55
46.781,-91.32
46.796,-82.77
46.812,-74.0
46.828,-65.55
46.843,-57.21
46.859,-48.4
46.875,-38.59
46.890,-27.83
46.906,-16.84
46.921,-6.72
46.937,1.27
46.953,6.51
46.968,9.23
46.984,10.51
47.000,12.0
47.015,15.15
47.031,20.67
47.046,28.4
47.062,37.45
47.078,46.6
47.093,54.79
47.109,61.19
47.125,64.81
47.140,64.58
47.156,59.0
47.171,46.24
47.187,24.44
47.203,-7.68
47.218,-50.53
47.234,-102.9
47.250,-161.76
47.265,-222.25
47.281,-277.37
47.296,-318.65
47.312,-337.45
47.328,-327.71
47.343,-288.71
47.359,-226.83
47.375,-154.52
47.390,-86.7
47.406,-35.47
47.421,-5.29
47.437,8.07
47.453,15.15
47.468,27.3
47.484,51.11
47.500,85.18
47.515,121.06
47.531,147.34
47.546,154.95
47.562,140.82
47.578,108.35
47.593,65.36
47.609,20.77
47.625,-18.51
47.640,-49.19
47.656,-71.94
47.671,-90.74
47.687,-111.44
47.703,-139.35
47.718,-177.29
47.734,-223.37
47.750,-270.28
47.765,-306.65
47.781,-320.43
47.796,-303.09
47.812,-253.14
47.828,-177.23
47.843,-87.91
47.859,0.18
47.875,74.89
47.890,129.44
47.906,162.68
47.921,177.57
47.937,178.75
47.953,170.72
47.968,156.86
47.984,139.92
48.000,122.5
48.015,107.14
48.031,95.56
48.046,87.84
48.062,82.08
48.078,75.0
48.093,63.8
48.109,47.97
48.125,29.68
48.140,13.28
48.156,3.37
48.171,2.67
48.187,10.91
48.203,25.14
48.218,40.94
48.234,54.43
48.250,63.43
48.265,67.79
48.281,68.88
48.296,68.56
48.312,68.27
48.328,68.48
48.343,68.9
48.359,68.86
48.375,67.81
48.390,65.51
48.406,61.99
48.421,57.38
48.437,51.84
48.453,45.52
48.468,38.69
48.484,31.67
48.500,24.92
48.515,18.72
48.531,13.08
48.546,7.69
48.562,2.28
48.578,-3.25
48.593,-8.71
48.609,-13.58
48.625,-17.42
48.640,-19.97
48.656,-21.38
48.671,-22.16
48.687,-23.12
48.703,-24.89
48.718,-27.8
48.734,-31.61
48.750,-35.57
48.765,-38.78
48.781,-40.36
48.796,-39.82
48.812,-37.09
48.828,-32.59
48.843,-26.92
48.859,-20.58
48.875,-13.95
48.890,-7.26
48.906,-0.71
48.921,5.28
48.937,10.19
48.953,13.55
48.968,15.08
48.984,14.89
49.000,13.51
49.015,11.7
49.031,10.15
49.046,9.28
49.062,9.13
49.078,9.48
49.093,10.03
49.109,10.48
49.125,10.67
49.140,10.49
49.156,9.77
49.171,8.44
49.187,6.52
49.203,4.33
49.218,2.11
49.234,0.14
49.250,-1.57
49.265,-3.16
49.281,-4.84
49.296,-6.84
49.312,-9.07
49.328,-11.34
49.343,-13.39
49.359,-14.94
49.375,-15.75
49.390,-15.5
49.406,-13.69
49.421,-9.89
49.437,-3.94
49.453,3.89
49.468,12.8
49.484,21.68
49.500,29.44
49.515,35.34
49.531,39.2
49.546,41.28
49.562,42.08
49.578,42.05
49.593,41.51
49.609,40.54
49.625,39.35
49.640,38.04
49.656,36.76
49.671,35.48
49.687,33.95
49.703,31.9
49.718,29.05
49.734,25.5
49.750,21.51
49.765,17.66
49.781,14.39
49.796,11.87
49.812,9.84
49.828,7.8
49.843,5.18
49.859,1.56
49.875,-3.14
49.890,-8.86
49.906,-15.14
49.921,-21.54
49.937,-27.54
49.953,-32.74
49.968,-36.89
49.984,-39.93
50.000,-41.94
50.015,-43.02
50.031,-43.22
50.046,-42.39
50.062,-40.28
50.078,-36.64
50.093,-31.44
50.109,-24.94
50.125,-17.58
50.140,-10.01
50.156,-2.71
50.171,3.95
50.187,9.78
50.203,14.75
50.218,18.81
50.234,21.83
50.250,23.63
50.265,24.14
50.281,23.3
50.296,21.25
50.312,18.39
50.328,15.15
50.343,11.96
50.359,9.12
50.375,6.78
50.390,4.8
50.406,3.06
50.421,1.36
50.437,-0.4
50.453,-2.3
50.468,-4.37
50.484,-6.79
50.500,-9.63
50.515,-12.95
50.531,-16.76
50.546,-20.91
50.562,-25.15
50.578,-29.17
50.593,-32.78
50.609,-35.8
50.625,-38.28
50.640,-40.16
50.656,-41.29
50.671,-41.26
50.687,-39.6
50.703,-35.91
50.718,-30.07
50.734,-22.47
50.750,-13.92
50.765,-5.54
50.781,1.49
50.796,6.21
50.812,8.02
50.828,6.73
50.843,2.54
50.859,-4.08
50.875,-12.45
50.890,-21.98
50.906,-32.31
50.921,-43.33
50.937,-55.2
50.953,-68.1
50.968,-81.96
50.984,-96.22
51.000,-109.88
51.015,-121.6
51.031,-130.21
51.046,-135.24
51.062,-137.19
51.078,-137.55
51.093,-138.64
51.109,-142.96
51.125,-152.2
51.140,-166.54
51.156,-183.81
51.171,-199.77
51.187,-209.16
51.203,-207.83
51.218,-194.07
51.234,-169.34
51.250,-137.59
51.265,-103.14
51.281,-68.91
51.296,-35.41
51.312,-1.13
51.328,35.64
51.343,75.02
51.359,114.56
51.375,149.77
51.390,175.02
51.406,185.15
51.421,176.62
51.437,148.39
51.453,102.75
51.468,45.26
51.484,-15.64
51.500,-70.09
51.515,-108.81
51.531,-125.21
51.546,-116.88
51.562,-85.79
51.578,-37.06
51.593,22.97
51.609,88.42
51.625,155.07
51.640,220.39
51.656,282.74
51.671,340.25
51.687,390.41
51.703,429.57
51.718,453.67
51.734,459.66
51.750,446.69
51.765,416.69
51.781,374.22
51.796,324.91
51.812,273.67
51.828,223.71
51.843,176.43
51.859,132.12
51.875,91.2
51.890,54.82
51.906,24.32
51.921,0.64
51.937,-16.39
51.953,-27.94
51.968,-35.52
51.984,-40.27
52.000,-42.5
52.015,-42.07
52.031,-38.67
52.046,-32.57
52.062,-24.82
52.078,-17.04
52.093,-10.94
52.109,-7.54
52.125,-7.11
52.140,-9.0
52.156,-11.96
52.171,-14.74
52.187,-16.25
52.203,-15.96
52.218,-13.8
52.234,-10.31
52.250,-6.14
52.265,-2.26
52.281,0.55
52.296,1.9
52.312,2.01
52.328,1.56
52.343,1.33
52.359,1.93
52.375,3.28
52.390,4.68
52.406,5.23
52.421,4.4
52.437,2.28
52.453,-0.39
52.468,-2.77
52.484,-4.54
52.500,-5.83
52.515,-7.25
52.531,-9.31
52.546,-12.18
52.562,-15.58
52.578,-18.93
52.593,-21.73
52.609,-23.48
52.625,-23.87
52.640,-22.66
52.656,-19.83
52.671,-15.58
52.687,-10.34
52.703,-4.73
52.718,0.85
52.734,6.11
52.750,11.18
52.765,16.28
52.781,21.62
52.796,27.11
52.812,32.43
52.828,37.05
52.843,40.35
52.859,41.88
52.875,41.56
52.890,39.88
52.906,37.77
52.921,36.29
52.937,35.95
52.953,36.6
52.968,37.36
52.984,37.25
53.000,35.84
53.015,33.31
53.031,30.35
53.046,27.47
53.062,24.52
53.078,20.84
53.093,15.76
53.109,9.14
53.125,1.34
53.140,-6.98
53.156,-15.57
53.171,-24.69
53.187,-34.55
53.203,-45.0
53.218,-55.12
53.234,-63.73
53.250,-70.16
53.265,-74.69
53.281,-78.19
53.296,-81.31
53.312,-83.82
53.328,-84.36
53.343,-81.41
53.359,-74.35
53.375,-63.9
53.390,-52.05
53.406,-41.03
53.421,-32.04
53.437,-24.84
53.453,-18.09
53.468,-10.32
53.484,-1.03
53.500,9.12
53.515,18.65
53.531,26.12
53.546,30.68
53.562,32.39
53.578,31.96
53.593,30.45
53.609,28.98
53.625,28.29
53.640,28.74
53.656,30.21
53.671,32.05
53.687,33.55
53.703,34.35
53.718,34.79
53.734,35.92
53.750,39.04
53.765,44.69
53.781,51.96
53.796,58.52
53.812,61.27
53.828,57.55
53.843,45.99
53.859,27.07
53.875,3.09
53.890,-22.39
53.906,-45.62
53.921,-63.48
53.937,-74.4
53.953,-78.71
53.968,-78.5
53.984,-77.03
54.000,-77.26
54.015,-80.62
54.031,-86.28
54.046,-91.91
54.062,-94.85
54.078,-93.58
54.093,-88.23
54.109,-80.29
54.125,-71.95
54.140,-64.47
54.156,-57.74
54.171,-50.67
54.187,-42.13
54.203,-31.72
54.218,-20.0
54.234,-8.05
54.250,2.87
54.265,10.94
54.281,15.45
54.296,17.47
54.312,19.26
54.328,23.28
54.343,31.03
54.359,42.51
54.375,56.0
54.390,68.62
54.406,75.57
54.421,74.06
54.437,65.39
54.453,54.02
54.468,44.75
54.484,40.46
54.500,41.58
54.515,46.6
54.531,53.47
54.546,57.88
54.562,57.91
54.578,55.22
54.593,53.05
54.609,52.64
54.625,52.13
54.640,47.75
54.656,35.55
54.671,12.24
54.687,-27.78
54.703,-86.05
54.718,-157.46
54.734,-231.16
54.750,-296.13
54.765,-344.32
54.781,-372.63
54.796,-383.14
54.812,-359.45
54.828,-298.97
54.843,-215.78
54.859,-131.24
54.875,-57.16
54.890,5.01
54.906,57.79
54.921,102.55
54.937,138.02
54.953,165.15
54.968,180.46
54.984,182.84
55.000,175.36
55.015,164.17
55.031,151.54
55.046,137.15
55.062,120.63
55.078,104.51
55.093,92.32
55.109,83.09
55.125,74.4
55.140,63.37
55.156,48.15
55.171,24.32
55.187,-10.2
55.203,-52.0
55.218,-83.59
55.234,-86.58
55.250,-56.68
55.265,-5.29
55.281,41.0
55.296,78.07
55.312,106.66
55.328,128.04
55.343,145.55
55.359,159.43
55.375,168.06
55.390,168.63
55.406,160.21
55.421,144.99
55.437,128.32
55.453,112.05
55.468,96.32
55.484,80.78
55.500,64.89
55.515,47.47
55.531,27.39
55.546,4.78
55.562,-18.31
55.578,-37.65
55.593,-52.03
55.609,-61.88
55.625,-68.72
55.640,-74.65
55.656,-81.55
55.671,-88.82
55.687,-91.98
55.703,-82.62
55.718,-51.5
55.734,4.12
55.750,78.44
55.765,157.74
55.781,224.54
55.796,263.17
55.812,265.42
55.828,232.86
55.843,175.49
55.859,107.87
55.875,43.25
55.890,-8.89
55.906,-44.05
55.921,-62.2
55.937,-66.79
55.953,-63.36
55.968,-58.17
55.984,-56.74
56.000,-62.53
56.015,-76.91
56.031,-98.82
56.046,-125.68
56.062,-154.62
56.078,-183.06
56.093,-209.5
56.109,-233.92
56.125,-257.39
56.140,-281.52
56.156,-307.97
56.171,-337.32
56.187,-369.68
56.203,-403.98
56.218,-438.13
56.234,-469.18
56.250,-494.37
56.265,-512.23
56.281,-522.62
56.296,-525.63
56.312,-520.25
56.328,-503.18
56.343,-469.36
56.359,-414.26
56.375,-336.6
56.390,-240.62
56.406,-135.85
56.421,-34.43
56.437,52.64
56.453,118.48
56.468,161.33
56.484,183.41
56.500,188.7
56.515,181.13
56.531,164.28
56.546,141.97
56.562,119.67
56.578,104.22
56.593,102.39
56.609,118.26
56.625,150.9
56.640,193.9
56.656,237.34
56.671,272.07
56.687,293.04
56.703,300.51
56.718,297.73
56.734,287.78
56.750,271.49
56.765,248.16
56.781,217.95
56.796,184.62
56.812,154.48
56.828,133.4
56.843,123.02
56.859,119.15
56.875,114.53
56.890,103.64
56.906,86.93
56.921,70.9
56.937,64.76
56.953,74.32
56.968,98.28
56.984,128.76
57.000,155.33
57.015,170.19
57.031,170.73
57.046,158.76
57.062,137.79
57.078,110.37
57.093,77.44
57.109,39.69
57.125,0.22
57.140,-34.7
57.156,-57.2
57.171,-61.96
57.187,-49.84
57.203,-28.7
57.218,-10.62
57.234,-6.8
57.250,-23.08
57.265,-58.11
57.281,-104.81
57.296,-152.89
57.312,-191.92
57.328,-213.35
57.343,-211.8
57.359,-185.91
57.375,-138.37
57.390,-75.17
57.406,-3.82
57.421,67.84
57.437,133.04
57.453,186.27
57.468,222.39
57.484,236.79
57.500,226.38
57.515,192.06
57.531,140.07
57.546,81.54
57.562,29.33
57.578,-6.41
57.593,-21.57
57.609,-18.8
57.625,-5.39
57.640,9.74
57.656,19.46
57.671,19.48
57.687,8.11
57.703,-14.78
57.718,-48.35
57.734,-91.1
57.750,-140.71
57.765,-193.18
57.781,-243.67
57.796,-287.46
57.812,-321.87
57.828,-346.65
57.843,-362.95
57.859,-371.41
57.875,-370.57
57.890,-356.95
57.906,-326.49
57.921,-277.41
57.937,-212.23
57.953,-137.99
57.968,-64.32
57.984,-0.21
58.000,48.66
58.015,80.93
58.031,98.44
58.046,104.3
58.062,101.44
58.078,92.26
58.093,79.26
58.109,65.53
58.125,55.01
58.140,51.59
58.156,58.34
58.171,76.85
58.187,106.46
58.203,143.7
58.218,182.74
58.234,216.5
58.250,238.03
58.265,243.28
58.281,232.45
58.296,209.95
58.312,182.41
58.328,155.64
58.343,132.89
58.359,114.62
58.375,100.0
58.390,88.28
58.406,79.9
58.421,76.23
58.437,78.26
58.453,85.32
58.468,94.8
58.484,103.52
58.500,109.46
58.515,112.82
58.531,114.48
58.546,115.34
58.562,116.07
58.578,116.76
58.593,117.14
58.609,116.98
58.625,116.12
58.640,114.98
58.656,114.48
58.671,113.8
58.687,111.1
58.703,105.73
58.718,98.65
58.734,92.03
58.750,87.35
58.765,83.95
58.781,80.23
58.796,74.7
58.812,65.26
58.828,49.87
58.843,28.46
58.859,1.67
58.875,-29.92
58.890,-66.69
58.906,-109.84
58.921,-158.6
58.937,-198.76
58.953,-213.87
58.968,-199.99
58.984,-164.57
59.000,-118.54
59.015,-71.73
59.031,-24.39
59.046,22.39
59.062,66.9
59.078,107.6
59.093,142.0
59.109,162.05
59.125,164.0
59.140,140.31
59.156,93.96
59.171,36.78
59.187,-18.64
59.203,-64.5
59.218,-98.25
59.234,-121.81
59.250,-138.88
59.265,-151.13
59.281,-158.29
59.296,-158.71
59.312,-151.95
59.328,-140.3
59.343,-126.95
59.359,-114.42
59.375,-104.8
59.390,-99.43
59.406,-97.57
59.421,-96.83
59.437,-94.21
59.453,-88.37
59.468,-80.57
59.484,-73.14
59.500,-67.9
59.515,-65.85
59.531,-66.94
59.546,-69.53
59.562,-71.68
59.578,-71.39
59.593,-68.15
59.609,-63.25
59.625,-58.58
59.640,-55.69
59.656,-55.67
59.671,-59.17
59.687,-65.86
59.703,-73.94
59.718,-79.91
59.734,-79.16
59.750,-67.99
59.765,-45.23
59.781,-13.47
59.796,21.4
59.812,52.12
59.828,73.1
59.843,82.56
59.859,82.59
59.875,77.48
59.890,71.14
59.906,65.45
59.921,60.33
59.937,54.91
59.953,48.82
59.968,42.83
59.984,38.32
