timestamp,value
00.000,28.89
00.015,33.04
00.031,37.12
00.046,41.53
00.062,46.33
00.078,51.14
00.093,55.03
00.109,56.9
00.125,55.71
00.140,51.31
00.156,44.28
00.171,35.79
00.187,27.27
00.203,19.79
00.218,13.89
00.234,9.67
00.250,6.86
00.265,5.15
00.281,4.36
00.296,4.12
00.312,3.89
00.328,3.1
00.343,1.15
00.359,-2.27
00.375,-6.9
00.390,-12.13
00.406,-17.13
00.421,-21.11
00.437,-23.62
00.453,-24.85
00.468,-25.26
00.484,-25.6
00.500,-26.47
00.515,-27.9
00.531,-29.27
00.546,-29.69
00.562,-28.32
00.578,-24.61
00.593,-18.77
00.609,-11.41
00.625,-3.57
00.640,3.64
00.656,9.38
00.671,13.29
00.687,15.56
00.703,16.79
00.718,17.66
00.734,18.82
00.750,20.53
00.765,22.6
00.781,24.69
00.796,26.41
00.812,27.53
00.828,27.84
00.843,27.37
00.859,26.06
00.875,24.06
00.890,21.69
00.906,19.54
00.921,18.03
00.937,17.34
00.953,17.11
00.968,16.52
00.984,14.76
01.000,11.4
01.015,6.67
01.031,1.55
01.046,-2.57
01.062,-4.66
01.078,-4.17
01.093,-1.42
01.109,2.64
01.125,6.8
01.140,9.97
01.156,11.49
01.171,11.22
01.187,9.37
01.203,6.48
01.218,3.14
01.234,-0.05
01.250,-2.54
01.265,-4.07
01.281,-4.59
01.296,-4.45
01.312,-3.98
01.328,-3.34
01.343,-2.41
01.359,-0.84
01.375,1.73
01.390,5.43
01.406,9.93
01.421,14.65
01.437,18.73
01.453,21.53
01.468,22.82
01.484,22.73
01.500,21.61
01.515,19.84
01.531,17.66
01.546,15.3
01.562,13.04
01.578,11.13
01.593,9.94
01.609,9.84
01.625,11.12
01.640,13.72
01.656,17.32
01.671,21.32
01.687,24.97
01.703,27.76
01.718,29.35
01.734,29.74
01.750,29.23
01.765,28.27
01.781,27.19
01.796,26.16
01.812,25.02
01.828,23.39
01.843,21.13
01.859,18.15
01.875,14.7
01.890,11.22
01.906,8.15
01.921,5.75
01.937,4.13
01.953,3.12
01.968,2.39
01.984,1.67
02.000,0.8
02.015,-0.28
02.031,-1.59
02.046,-3.04
02.062,-4.55
02.078,-5.92
02.093,-7.0
02.109,-7.65
02.125,-7.79
02.140,-7.47
02.156,-6.78
02.171,-5.84
02.187,-4.73
02.203,-3.35
02.218,-1.63
02.234,0.48
02.250,2.88
02.265,5.34
02.281,7.55
02.296,9.26
02.312,10.49
02.328,11.38
02.343,12.35
02.359,13.7
02.375,15.46
02.390,17.31
02.406,18.83
02.421,19.55
02.437,19.27
02.453,18.05
02.468,16.18
02.484,13.8
02.500,11.23
02.515,8.61
02.531,6.05
02.546,3.77
02.562,1.89
02.578,0.51
02.593,-0.47
02.609,-1.24
02.625,-2.11
02.640,-3.1
02.656,-3.95
02.671,-4.33
02.687,-3.93
02.703,-2.84
02.718,-1.49
02.734,-0.51
02.750,-0.22
02.765,-0.53
02.781,-0.88
02.796,-0.76
02.812,-0.21
02.828,0.02
02.843,-1.37
02.859,-5.21
02.875,-11.36
02.890,-18.44
02.906,-24.45
02.921,-27.61
02.937,-27.32
02.953,-24.44
02.968,-20.61
02.984,-17.7
03.000,-16.61
03.015,-17.08
03.031,-18.02
03.046,-18.2
03.062,-16.83
03.078,-13.86
03.093,-9.91
03.109,-5.51
03.125,-1.12
03.140,3.05
03.156,7.1
03.171,10.93
03.187,14.34
03.203,16.88
03.218,18.23
03.234,18.13
03.250,16.88
03.265,14.96
03.281,13.05
03.296,11.78
03.312,11.6
03.328,12.71
03.343,14.94
03.359,17.8
03.375,20.59
03.390,22.67
03.406,23.48
03.421,22.74
03.437,20.46
03.453,16.83
03.468,12.22
03.484,7.05
03.500,1.55
03.515,-4.02
03.531,-9.52
03.546,-14.77
03.562,-19.72
03.578,-24.09
03.593,-27.86
03.609,-30.96
03.625,-33.22
03.640,-34.62
03.656,-34.94
03.671,-33.95
03.687,-31.42
03.703,-27.41
03.718,-22.04
03.734,-15.76
03.750,-9.26
03.765,-3.11
03.781,2.15
03.796,6.29
03.812,9.37
03.828,11.74
03.843,13.92
03.859,16.36
03.875,19.44
03.890,22.97
03.906,26.51
03.921,29.18
03.937,30.23
03.953,29.35
03.968,26.94
03.984,23.98
04.000,21.53
04.015,20.33
04.031,20.33
04.046,20.95
04.062,21.18
04.078,20.36
04.093,18.27
04.109,15.21
04.125,11.82
04.140,8.75
04.156,6.49
04.171,5.35
04.187,5.61
04.203,7.24
04.218,10.11
04.234,13.77
04.250,17.39
04.265,19.99
04.281,20.69
04.296,18.97
04.312,14.94
04.328,9.38
04.343,3.47
04.359,-1.54
04.375,-4.56
04.390,-5.18
04.406,-3.63
04.421,-0.74
04.437,2.35
04.453,4.65
04.468,5.7
04.484,5.61
04.500,4.83
04.515,3.93
04.531,3.1
04.546,2.21
04.562,0.76
04.578,-1.57
04.593,-4.99
04.609,-9.22
04.625,-13.87
04.640,-18.44
04.656,-22.36
04.671,-25.07
04.687,-25.85
04.703,-24.3
04.718,-20.33
04.734,-14.36
04.750,-7.29
04.765,-0.2
04.781,6.0
04.796,10.8
04.812,14.22
04.828,16.61
04.843,18.49
04.859,20.17
04.875,21.81
04.890,23.28
04.906,24.23
04.921,24.44
04.937,23.73
04.953,22.18
04.968,20.09
04.984,17.88
05.000,15.98
05.015,14.61
05.031,13.76
05.046,13.13
05.062,12.28
05.078,10.66
05.093,8.04
05.109,4.51
05.125,0.62
05.140,-2.82
05.156,-5.29
05.171,-6.52
05.187,-6.94
05.203,-7.13
05.218,-7.8
05.234,-9.15
05.250,-11.0
05.265,-12.96
05.281,-14.55
05.296,-15.74
05.312,-16.7
05.328,-17.86
05.343,-19.42
05.359,-21.37
05.375,-23.3
05.390,-24.68
05.406,-25.27
05.421,-25.04
05.437,-24.29
05.453,-23.34
05.468,-22.35
05.484,-21.27
05.500,-19.89
05.515,-17.92
05.531,-15.1
05.546,-11.34
05.562,-6.43
05.578,-0.43
05.593,6.61
05.609,14.32
05.625,22.07
05.640,29.22
05.656,35.07
05.671,39.37
05.687,42.04
05.703,43.44
05.718,43.8
05.734,43.41
05.750,42.46
05.765,40.87
05.781,38.69
05.796,35.92
05.812,32.73
05.828,29.22
05.843,25.59
05.859,21.85
05.875,18.06
05.890,14.34
05.906,10.83
05.921,7.72
05.937,5.03
05.953,2.72
05.968,0.59
05.984,-1.37
06.000,-3.13
06.015,-4.6
06.031,-5.7
06.046,-6.57
06.062,-7.5
06.078,-8.9
06.093,-11.05
06.109,-13.94
06.125,-17.3
06.140,-20.75
06.156,-23.99
06.171,-26.84
06.187,-29.22
06.203,-31.05
06.218,-32.33
06.234,-33.1
06.250,-33.51
06.265,-33.79
06.281,-34.16
06.296,-34.74
06.312,-35.42
06.328,-36.11
06.343,-36.54
06.359,-36.53
06.375,-35.89
06.390,-34.51
06.406,-32.34
06.421,-29.36
06.437,-25.62
06.453,-21.24
06.468,-16.48
06.484,-11.61
06.500,-6.97
06.515,-2.69
06.531,1.01
06.546,4.16
06.562,6.89
06.578,9.4
06.593,11.81
06.609,13.96
06.625,15.45
06.640,15.69
06.656,14.48
06.671,11.88
06.687,8.36
06.703,4.67
06.718,1.42
06.734,-0.87
06.750,-2.16
06.765,-2.57
06.781,-2.43
06.796,-1.97
06.812,-1.37
06.828,-0.71
06.843,-0.07
06.859,0.5
06.875,0.98
06.890,1.25
06.906,1.3
06.921,1.16
06.937,0.82
06.953,0.5
06.968,0.4
06.984,0.66
07.000,1.14
07.015,1.6
07.031,1.6
07.046,0.85
07.062,-0.63
07.078,-2.62
07.093,-4.69
07.109,-6.61
07.125,-8.27
07.140,-10.01
07.156,-12.14
07.171,-14.67
07.187,-17.22
07.203,-19.13
07.218,-19.73
07.234,-18.42
07.250,-15.16
07.265,-10.17
07.281,-3.87
07.296,3.25
07.312,10.63
07.328,17.72
07.343,23.84
07.359,28.41
07.375,31.14
07.390,31.98
07.406,31.12
07.421,29.1
07.437,26.46
07.453,23.76
07.468,21.47
07.484,19.86
07.500,19.04
07.515,18.81
07.531,18.81
07.546,18.49
07.562,17.33
07.578,15.04
07.593,11.75
07.609,7.95
07.625,4.44
07.640,2.03
07.656,1.1
07.671,1.48
07.687,2.73
07.703,3.97
07.718,4.37
07.734,3.51
07.750,1.46
07.765,-1.28
07.781,-4.03
07.796,-6.17
07.812,-7.31
07.828,-7.28
07.843,-6.15
07.859,-4.07
07.875,-1.38
07.890,1.61
07.906,4.53
07.921,7.06
07.937,8.94
07.953,10.12
07.968,10.5
07.984,9.84
08.000,7.75
08.015,3.59
08.031,-2.95
08.046,-11.57
08.062,-21.13
08.078,-29.79
08.093,-35.42
08.109,-36.62
08.125,-33.04
08.140,-25.43
08.156,-15.71
08.171,-6.09
08.187,1.44
08.203,5.52
08.218,5.86
08.234,3.13
08.250,-1.52
08.265,-6.67
08.281,-11.01
08.296,-13.76
08.312,-14.68
08.328,-14.04
08.343,-12.49
08.359,-10.5
08.375,-8.27
08.390,-5.9
08.406,-3.31
08.421,-0.42
08.437,2.69
08.453,5.92
08.468,9.16
08.484,12.18
08.500,14.89
08.515,17.11
08.531,18.48
08.546,18.6
08.562,17.12
08.578,13.9
08.593,9.43
08.609,4.51
08.640,-3.44
08.656,-5.76
08.671,-7.51
08.687,-9.27
08.703,-11.61
08.718,-14.55
08.734,-17.52
08.750,-19.73
08.765,-20.52
08.781,-19.75
08.796,-17.71
08.812,-15.1
08.828,-12.53
08.843,-10.61
08.859,-9.73
08.875,-9.94
08.890,-11.09
08.906,-12.66
08.921,-14.04
08.937,-14.49
08.953,-13.53
08.968,-10.81
08.984,-6.5
09.000,-1.09
09.015,4.85
09.031,10.71
09.046,16.13
09.062,20.87
09.078,24.8
09.093,27.77
09.109,29.65
09.125,30.28
09.140,29.6
09.156,27.86
09.171,25.35
09.187,22.52
09.203,19.64
09.218,16.8
09.234,13.84
09.250,10.66
09.265,7.21
09.281,3.55
09.296,-0.08
09.312,-3.64
09.328,-6.92
09.343,-9.94
09.359,-12.53
09.375,-14.52
09.390,-15.78
09.406,-16.21
09.421,-15.91
09.437,-15.04
09.453,-13.99
09.468,-13.08
09.484,-12.72
09.500,-13.07
09.515,-14.13
09.531,-15.65
09.546,-17.25
09.562,-18.69
09.578,-19.83
09.593,-20.84
09.609,-21.8
09.625,-22.85
09.640,-23.93
09.656,-24.79
09.671,-25.21
09.687,-24.97
09.703,-24.03
09.718,-22.42
09.734,-20.5
09.750,-18.44
09.765,-16.43
09.781,-14.6
09.796,-12.82
09.812,-11.0
09.828,-8.76
09.843,-5.92
09.859,-2.3
09.875,1.94
09.890,6.53
09.906,10.93
09.921,14.58
09.937,17.16
09.953,18.68
09.968,19.59
09.984,20.43
10.000,21.63
10.015,23.22
10.031,24.82
10.046,25.86
10.062,26.0
10.078,25.21
10.093,23.85
10.109,22.47
10.125,21.49
10.140,21.05
10.156,21.0
10.171,21.08
10.187,21.04
10.203,20.8
10.218,20.39
10.234,19.66
10.250,18.44
10.265,16.53
10.281,13.89
10.296,10.82
10.312,7.69
10.328,4.97
10.343,2.9
10.359,1.49
10.375,0.45
10.390,-0.54
10.406,-1.82
10.421,-3.51
10.437,-5.49
10.453,-7.65
10.468,-9.77
10.484,-11.56
10.500,-12.98
10.515,-14.05
10.531,-14.81
10.546,-15.5
10.562,-16.21
10.578,-16.92
10.593,-17.6
10.609,-18.2
10.625,-18.62
10.640,-18.74
10.656,-18.27
10.671,-16.85
10.687,-14.34
10.703,-10.86
10.718,-6.86
10.734,-3.13
10.750,-0.29
10.765,1.37
10.781,1.89
10.796,1.77
10.812,1.49
10.828,1.37
10.843,1.32
10.859,1.18
10.875,0.75
10.890,0.16
10.906,-0.19
10.921,-0.08
10.937,0.78
10.953,2.33
10.968,4.34
10.984,6.5
11.000,8.47
11.015,9.93
11.031,10.58
11.046,10.33
11.062,9.13
11.078,7.28
11.093,5.16
11.109,3.24
11.125,1.82
11.140,0.88
11.156,0.21
11.171,-0.55
11.187,-1.5
11.203,-2.64
11.218,-3.76
11.234,-4.67
11.250,-5.29
11.265,-5.57
11.281,-5.63
11.296,-5.5
11.312,-5.36
11.328,-5.22
11.343,-5.2
11.359,-5.33
11.375,-5.73
11.390,-6.46
11.406,-7.57
11.421,-9.14
11.437,-11.09
11.453,-13.29
11.468,-15.35
11.484,-16.84
11.500,-17.33
11.515,-16.44
11.531,-14.14
11.546,-10.69
11.562,-6.64
11.578,-2.56
11.593,1.05
11.609,3.99
11.625,6.36
11.640,8.23
11.656,9.79
11.671,11.03
11.687,11.82
11.703,12.02
11.718,11.66
11.734,10.94
11.750,10.15
11.765,9.64
11.781,9.47
11.796,9.5
11.812,9.61
11.828,9.6
11.843,9.44
11.859,9.26
11.875,9.02
11.890,8.74
11.906,8.34
11.921,7.66
11.937,6.44
11.953,4.63
11.968,2.26
11.984,-0.54
12.000,-3.41
12.015,-6.16
12.031,-8.52
12.046,-10.33
12.062,-11.49
12.078,-12.13
12.093,-12.25
12.109,-12.0
12.125,-11.43
12.140,-10.59
12.156,-9.63
12.171,-8.67
12.187,-7.79
12.203,-7.11
12.218,-6.67
12.234,-6.35
12.250,-6.21
12.265,-6.25
12.281,-6.56
12.296,-7.36
12.312,-8.69
12.328,-10.29
12.343,-11.67
12.359,-12.05
12.375,-10.77
12.390,-7.46
12.406,-2.3
12.421,4.35
12.437,11.71
12.453,19.07
12.468,25.83
12.484,31.33
12.500,35.29
12.515,37.47
12.531,37.87
12.546,36.77
12.562,34.86
12.578,32.84
12.593,31.34
12.609,30.65
12.625,30.57
12.640,30.59
12.656,30.23
12.671,29.11
12.687,27.2
12.703,24.7
12.718,21.75
12.734,18.42
12.750,14.6
12.765,10.21
12.781,5.34
12.796,0.42
12.812,-4.07
12.828,-7.68
12.843,-10.26
12.859,-11.88
12.875,-12.85
12.890,-13.39
12.906,-13.74
12.921,-13.95
12.937,-13.87
12.953,-13.52
12.968,-12.93
12.984,-12.43
13.000,-12.42
13.015,-13.22
13.031,-14.71
13.046,-16.52
13.062,-18.11
13.078,-18.9
13.093,-18.63
13.109,-17.46
13.125,-15.84
13.140,-14.44
13.156,-13.76
13.171,-13.87
13.187,-14.43
13.203,-14.84
13.218,-14.22
13.234,-11.79
13.250,-7.09
13.265,0.02
13.281,9.04
13.296,18.9
13.312,28.26
13.328,35.64
13.343,39.82
13.359,40.32
13.375,37.29
13.390,31.73
13.406,25.1
13.421,18.86
13.437,14.11
13.453,11.44
13.468,10.78
13.484,11.67
13.500,13.5
13.515,15.36
13.531,16.57
13.546,16.68
13.562,15.47
13.578,13.05
13.593,9.93
13.609,6.62
13.625,3.81
13.640,1.98
13.656,1.15
13.671,1.0
13.687,1.1
13.703,0.88
13.718,0.01
13.734,-1.57
13.750,-3.81
13.765,-6.48
13.781,-9.24
13.796,-11.78
13.812,-13.78
13.828,-15.19
13.843,-16.21
13.859,-17.14
13.875,-18.31
13.890,-19.99
13.906,-22.19
13.921,-24.57
13.937,-26.77
13.953,-28.3
13.968,-29.06
13.984,-29.13
14.000,-28.83
14.015,-28.42
14.031,-28.18
14.046,-28.01
14.062,-27.71
14.078,-27.02
14.093,-25.62
14.109,-23.56
14.125,-20.91
14.140,-17.81
14.156,-14.24
14.171,-10.15
14.187,-5.39
14.203,-0.12
14.218,5.25
14.234,10.13
14.250,13.93
14.265,16.29
14.281,17.23
14.296,17.04
14.312,16.24
14.328,15.25
14.343,14.33
14.359,13.56
14.375,12.98
14.390,12.68
14.406,12.71
14.421,13.13
14.437,13.86
14.453,14.69
14.468,15.4
14.484,15.78
14.500,15.63
14.515,15.02
14.531,14.2
14.546,13.34
14.562,12.53
14.578,11.72
14.593,10.68
14.609,9.08
14.625,6.71
14.640,3.6
14.656,-0.06
14.671,-3.96
14.687,-7.83
14.703,-11.54
14.718,-14.9
14.734,-17.79
14.750,-20.06
14.765,-21.61
14.781,-22.34
14.796,-22.42
14.812,-22.1
14.828,-21.67
14.843,-21.36
14.859,-21.13
14.875,-21.02
14.890,-20.98
14.906,-21.09
14.921,-21.33
14.937,-21.68
14.953,-22.01
14.968,-22.09
14.984,-21.65
15.000,-20.38
15.015,-18.22
15.031,-15.22
15.046,-11.58
15.062,-7.63
15.078,-3.73
15.093,-0.17
15.109,2.88
15.125,5.27
15.140,7.04
15.156,8.22
15.171,8.9
15.187,9.04
15.203,8.52
15.218,7.25
15.234,5.28
15.250,2.88
15.265,0.34
15.281,-2.03
15.296,-4.02
15.312,-5.57
15.328,-6.72
15.343,-7.55
15.359,-8.0
15.375,-7.98
15.390,-7.33
15.406,-6.18
15.421,-4.68
15.437,-3.24
15.453,-2.04
15.468,-1.18
15.484,-0.61
15.500,-0.21
15.515,0.08
15.531,0.43
15.546,0.87
15.562,1.52
15.578,2.31
15.593,3.21
15.609,4.01
15.625,4.47
15.640,4.34
15.656,3.52
15.671,2.18
15.687,0.73
15.703,-0.27
15.718,-0.5
15.734,0.04
15.750,0.96
15.765,1.72
15.781,1.79
15.796,1.09
15.812,-0.05
15.828,-0.91
15.843,-0.78
15.859,0.74
15.875,3.57
15.890,7.18
15.906,10.97
15.921,14.52
15.937,17.57
15.953,20.08
15.968,22.05
15.984,23.35
16.000,23.93
16.015,23.7
16.031,22.62
16.046,20.86
16.062,18.8
16.078,16.69
16.093,14.71
16.109,12.89
16.125,11.13
16.140,9.37
16.156,7.74
16.171,6.51
16.187,5.96
16.203,6.4
16.218,7.71
16.234,9.52
16.250,11.2
16.265,12.23
16.281,12.36
16.296,11.73
16.312,10.8
16.328,9.87
16.343,9.09
16.359,8.16
16.375,6.71
16.390,4.43
16.406,1.32
16.421,-2.3
16.437,-5.88
16.453,-8.84
16.468,-10.75
16.484,-11.49
16.500,-11.42
16.515,-11.02
16.531,-10.89
16.546,-11.38
16.562,-12.58
16.578,-14.29
16.593,-16.21
16.609,-18.18
16.625,-20.1
16.640,-22.05
16.656,-24.06
16.671,-25.98
16.687,-27.55
16.703,-28.46
16.718,-28.52
16.734,-27.7
16.750,-26.15
16.765,-24.04
16.781,-21.46
16.796,-18.42
16.812,-14.8
16.828,-10.63
16.843,-5.95
16.859,-0.99
16.875,3.86
16.890,8.1
16.906,11.47
16.921,13.87
16.937,15.4
16.953,16.32
16.968,16.9
16.984,17.27
17.000,17.47
17.015,17.52
17.031,17.42
17.046,17.36
17.062,17.48
17.078,17.83
17.093,18.27
17.109,18.67
17.125,18.85
17.140,18.74
17.156,18.36
17.171,17.72
17.187,16.83
17.203,15.64
17.218,14.22
17.234,12.79
17.250,11.55
17.265,10.64
17.281,10.05
17.296,9.44
17.312,8.4
17.328,6.64
17.343,4.09
17.359,0.92
17.375,-2.53
17.390,-6.03
17.406,-9.35
17.421,-12.32
17.437,-14.74
17.453,-16.58
17.468,-17.7
17.484,-18.27
17.500,-18.5
17.515,-18.68
17.531,-19.17
17.546,-20.09
17.562,-21.43
17.578,-22.92
17.593,-24.34
17.609,-25.32
17.625,-25.51
17.640,-24.67
17.656,-22.65
17.671,-19.5
17.687,-15.32
17.703,-10.28
17.718,-4.73
17.734,0.96
17.750,6.43
17.765,11.21
17.781,14.98
17.796,17.62
17.812,19.17
17.828,19.87
17.843,20.1
17.859,20.1
17.875,20.04
17.890,19.89
17.906,19.5
17.921,18.64
17.937,17.31
17.953,15.56
17.968,13.8
17.984,12.4
18.000,11.67
18.015,11.82
18.031,12.69
18.046,13.92
18.062,14.92
18.078,15.16
18.093,14.27
18.109,12.23
18.125,9.3
18.140,5.9
18.156,2.49
18.171,-0.76
18.187,-3.8
18.203,-6.75
18.218,-9.71
18.234,-12.65
18.250,-15.53
18.265,-18.13
18.281,-20.48
18.296,-22.58
18.312,-24.63
18.328,-26.77
18.343,-29.13
18.359,-31.65
18.375,-33.98
18.390,-35.82
18.406,-36.84
18.421,-37.13
18.437,-36.9
18.453,-36.62
18.468,-36.55
18.484,-36.72
18.500,-36.91
18.515,-36.65
18.531,-35.49
18.546,-33.12
18.562,-29.6
18.578,-25.12
18.593,-20.05
18.609,-14.59
18.625,-8.9
18.640,-3.26
18.656,2.06
18.671,6.64
18.687,10.22
18.703,12.68
18.718,14.08
18.734,14.68
18.750,14.75
18.765,14.64
18.781,14.57
18.796,14.68
18.812,14.88
18.828,15.06
18.843,15.03
18.859,14.48
18.875,13.33
18.890,11.66
18.906,9.99
18.921,8.77
18.937,8.5
18.953,9.23
18.968,10.7
18.984,12.56
19.000,14.27
19.015,15.42
19.031,15.77
19.046,15.35
19.062,14.25
19.078,12.78
19.093,11.1
19.109,9.43
19.125,8.04
19.140,7.07
19.156,6.56
19.171,6.36
19.187,6.21
19.203,5.69
19.218,4.57
19.234,2.82
19.250,0.79
19.265,-0.97
19.281,-1.95
19.296,-1.91
19.312,-1.09
19.328,-0.08
19.343,0.45
19.359,0.03
19.375,-1.42
19.390,-3.5
19.406,-5.45
19.421,-6.38
19.437,-5.53
19.453,-2.44
19.468,2.86
19.484,9.91
19.500,18.02
19.515,26.3
19.531,34.04
19.546,40.86
19.562,46.63
19.578,51.51
19.593,55.7
19.609,59.36
19.625,62.63
19.640,65.63
19.656,68.27
19.671,70.45
19.687,72.0
19.703,72.78
19.718,72.78
19.734,72.32
19.750,72.08
19.765,72.83
19.781,75.13
19.796,78.87
19.812,83.11
19.828,86.16
19.843,86.0
19.859,80.9
19.875,69.62
19.890,51.91
19.906,28.25
19.921,0.06
19.937,-30.69
19.953,-61.43
19.968,-89.11
19.984,-110.75
20.000,-123.73
20.015,-126.83
20.031,-120.2
20.046,-105.58
20.062,-85.39
20.078,-62.35
20.093,-38.73
20.109,-16.08
20.125,4.4
20.140,21.86
20.156,35.48
20.171,44.6
20.187,48.82
20.203,48.43
20.218,44.38
20.234,38.1
20.250,31.12
20.265,24.68
20.281,19.66
20.296,16.67
20.312,16.39
20.328,19.54
20.343,26.67
20.359,37.81
20.375,51.9
20.390,66.8
20.406,79.9
20.421,88.99
20.437,92.85
20.453,91.83
20.468,87.22
20.484,80.48
20.500,72.66
20.515,63.97
20.531,54.15
20.546,42.78
20.562,29.98
20.578,16.2
20.593,2.17
20.609,-11.25
20.625,-23.52
20.640,-34.26
20.656,-43.33
20.671,-50.51
20.687,-55.68
20.703,-58.74
20.718,-59.78
20.734,-59.07
20.750,-57.03
20.765,-54.2
20.781,-51.17
20.796,-48.65
20.812,-47.14
20.828,-47.0
20.843,-48.19
20.859,-50.44
20.875,-53.24
20.890,-56.28
20.906,-59.22
20.921,-61.73
20.937,-63.62
20.953,-64.51
20.968,-64.08
20.984,-62.07
21.000,-58.71
21.015,-54.52
21.031,-50.39
21.046,-47.15
21.062,-45.35
21.078,-45.22
21.093,-46.46
21.109,-48.64
21.125,-51.2
21.140,-53.76
21.156,-56.14
21.171,-58.35
21.187,-60.29
21.203,-61.79
21.218,-62.49
21.234,-62.0
21.250,-60.0
21.265,-56.54
21.281,-51.99
21.296,-46.85
21.312,-41.72
21.328,-36.84
21.343,-32.32
21.359,-27.99
21.375,-23.77
21.390,-19.65
21.406,-15.8
21.421,-12.46
21.437,-9.68
21.453,-7.44
21.468,-5.51
21.484,-3.68
21.500,-1.87
21.515,-0.02
21.531,1.73
21.546,3.31
21.562,4.83
21.578,6.28
21.593,7.72
21.609,9.11
21.625,10.36
21.640,11.26
21.656,11.78
21.671,11.89
21.687,11.72
21.703,11.45
21.718,11.05
21.734,10.52
21.750,9.72
21.765,8.72
21.781,7.54
21.796,6.43
21.812,5.42
21.828,4.61
21.843,3.88
21.859,2.98
21.875,1.69
21.890,-0.18
21.906,-2.56
21.921,-5.34
21.937,-8.25
21.953,-11.15
21.968,-13.92
21.984,-16.5
22.000,-18.97
22.015,-21.44
22.031,-23.97
22.046,-26.77
22.062,-29.86
22.078,-33.16
22.093,-36.44
22.109,-39.27
22.125,-41.03
22.140,-41.21
22.156,-39.52
22.171,-35.93
22.187,-30.89
22.203,-25.03
22.218,-19.06
22.234,-13.5
22.250,-8.6
22.265,-4.38
22.281,-0.76
22.296,2.28
22.312,4.62
22.328,6.18
22.343,6.92
22.359,6.94
22.375,6.51
22.390,5.95
22.406,5.56
22.421,5.54
22.437,5.93
22.453,6.63
22.468,7.5
22.484,8.36
22.500,9.1
22.515,9.75
22.531,10.41
22.546,11.24
22.562,12.22
22.578,13.24
22.593,14.0
22.609,14.24
22.625,13.8
22.640,12.8
22.656,11.44
22.671,9.93
22.687,8.43
22.703,6.88
22.718,5.13
22.734,2.95
22.750,0.36
22.765,-2.55
22.781,-5.42
22.796,-7.87
22.812,-9.81
22.828,-11.25
22.843,-12.36
22.859,-13.39
22.875,-14.53
22.890,-15.9
22.906,-17.69
22.921,-20.09
22.937,-23.28
22.953,-27.32
22.968,-31.84
22.984,-36.16
23.000,-39.4
23.015,-40.69
23.031,-39.6
23.046,-36.2
23.062,-30.99
23.078,-24.68
23.093,-17.97
23.109,-11.31
23.125,-4.98
23.140,0.82
23.156,6.05
23.171,10.67
23.187,14.63
23.203,17.94
23.218,20.58
23.234,22.47
23.250,23.68
23.265,24.25
23.281,24.32
23.296,24.15
23.312,24.02
23.328,24.03
23.343,24.17
23.359,24.37
23.375,24.55
23.390,24.75
23.406,24.96
23.421,25.11
23.437,25.01
23.453,24.51
23.468,23.61
23.484,22.4
23.500,20.93
23.515,19.25
23.531,17.38
23.546,15.21
23.562,12.69
23.578,9.92
23.593,7.09
23.609,4.45
23.625,2.24
23.640,0.42
23.656,-1.3
23.671,-3.26
23.687,-5.79
23.703,-8.91
23.718,-12.39
23.734,-15.87
23.750,-19.03
23.765,-21.65
23.781,-23.88
23.796,-26.11
23.812,-28.78
23.828,-32.09
23.843,-35.81
23.859,-39.25
23.875,-41.48
23.890,-41.57
23.906,-38.82
23.921,-33.08
23.937,-24.69
23.953,-14.52
23.968,-3.53
23.984,7.32
24.000,17.41
24.015,26.35
24.031,33.87
24.046,39.83
24.062,44.06
24.078,46.53
24.093,47.36
24.109,46.91
24.125,45.61
24.140,43.91
24.156,42.11
24.171,40.23
24.187,38.29
24.203,36.26
24.218,34.29
24.234,32.62
24.250,31.5
24.265,30.99
24.281,30.89
24.296,30.95
24.312,30.82
24.328,30.2
24.343,28.99
24.359,27.17
24.375,24.8
24.390,22.0
24.406,18.89
24.421,15.56
24.437,12.21
24.453,8.99
24.468,6.07
24.484,3.56
24.500,1.5
24.515,-0.16
24.531,-1.57
24.546,-2.91
24.562,-4.45
24.578,-6.32
24.593,-8.75
24.609,-11.72
24.625,-15.24
24.640,-19.17
24.656,-23.26
24.671,-27.35
24.687,-31.23
24.703,-34.96
24.718,-38.58
24.734,-42.11
24.750,-45.23
24.765,-47.34
24.781,-47.71
24.796,-45.56
24.812,-40.56
24.828,-32.83
24.843,-23.12
24.859,-12.39
24.875,-1.68
24.890,8.24
24.906,16.85
24.921,23.82
24.937,29.13
24.953,32.78
24.968,34.99
24.984,35.92
25.000,35.91
25.015,35.28
25.031,34.27
25.046,33.14
25.062,31.94
25.078,30.8
25.093,29.69
25.109,28.77
25.125,28.13
25.140,27.98
25.156,28.38
25.171,29.27
25.187,30.46
25.203,31.55
25.218,32.19
25.234,31.9
25.250,30.6
25.265,28.3
25.281,25.23
25.296,21.76
25.312,18.2
25.328,14.84
25.343,11.79
25.359,9.15
25.375,6.78
25.390,4.63
25.406,2.55
25.421,0.28
25.437,-2.37
25.453,-5.51
25.468,-9.04
25.484,-12.72
25.500,-16.15
25.515,-19.08
25.531,-21.37
25.546,-23.17
25.562,-24.85
25.578,-26.73
25.593,-29.12
25.609,-31.9
25.625,-34.6
25.640,-36.39
25.656,-36.48
25.671,-34.11
25.687,-29.0
25.703,-21.41
25.718,-11.95
25.734,-1.63
25.750,8.72
25.765,18.26
25.781,26.49
25.796,32.95
25.812,37.51
25.828,40.29
25.843,41.52
25.859,41.71
25.875,41.21
25.890,40.29
25.906,38.95
25.921,37.17
25.937,34.7
25.953,31.57
25.968,28.01
25.984,24.4
26.000,21.26
26.015,18.71
26.031,16.87
26.046,15.58
26.062,14.66
26.078,13.89
26.093,13.06
26.109,12.03
26.125,10.64
26.140,8.94
26.156,6.94
26.171,4.77
26.187,2.69
26.203,0.87
26.218,-0.58
26.234,-1.81
26.250,-3.06
26.265,-4.7
26.281,-7.07
26.296,-10.31
26.312,-14.29
26.328,-18.58
26.343,-22.62
26.359,-26.0
26.375,-28.49
26.390,-30.24
26.406,-31.65
26.421,-33.17
26.437,-35.13
26.453,-37.69
26.468,-40.54
26.484,-43.07
26.500,-44.36
26.515,-43.42
26.531,-39.49
26.546,-32.26
26.562,-22.14
26.578,-10.13
26.593,2.39
26.609,14.06
26.625,23.82
26.640,31.12
26.656,35.94
26.671,38.62
26.687,39.68
26.703,39.62
26.718,38.85
26.734,37.54
26.750,35.83
26.765,33.8
26.781,31.63
26.796,29.46
26.812,27.42
26.828,25.59
26.843,24.01
26.859,22.69
26.875,21.67
26.890,20.91
26.906,20.44
26.921,20.2
26.937,20.05
26.953,19.81
26.968,19.13
26.984,17.91
27.000,16.05
27.015,13.67
27.031,10.86
27.046,7.81
27.062,4.67
27.078,1.48
27.093,-1.62
27.109,-4.64
27.125,-7.44
27.140,-10.03
27.156,-12.52
27.171,-15.11
27.187,-17.99
27.203,-21.21
27.218,-24.68
27.234,-28.12
27.250,-31.31
27.265,-34.14
27.281,-36.71
27.296,-39.31
27.312,-42.3
27.328,-45.76
27.343,-49.45
27.359,-52.79
27.375,-54.78
27.390,-54.6
27.406,-51.59
27.421,-45.61
27.437,-37.03
27.453,-26.55
27.468,-15.16
27.484,-3.8
27.500,6.66
27.515,15.73
27.531,23.07
27.546,28.73
27.562,32.93
27.578,35.87
27.593,37.93
27.609,39.26
27.625,39.99
27.640,40.07
27.656,39.5
27.671,38.25
27.687,36.42
27.703,34.16
27.718,31.59
27.734,28.92
27.750,26.36
27.765,24.0
27.781,21.93
27.796,20.12
27.812,18.44
27.828,16.79
27.843,15.05
27.859,13.13
27.875,11.12
27.890,8.95
27.906,6.62
27.921,4.04
27.937,1.17
27.953,-1.93
27.968,-5.1
27.984,-8.15
28.000,-10.84
28.015,-13.11
28.031,-15.17
28.046,-17.25
28.062,-19.61
28.078,-22.36
28.093,-25.38
28.109,-28.36
28.125,-31.03
28.140,-33.19
28.156,-34.81
28.171,-36.06
28.187,-37.05
28.203,-37.94
28.218,-38.92
28.234,-40.14
28.250,-41.68
28.265,-43.65
28.281,-45.84
28.296,-47.81
28.312,-48.91
28.328,-48.37
28.343,-45.55
28.359,-40.3
28.375,-32.85
28.390,-23.93
28.406,-14.54
28.421,-5.55
28.437,2.41
28.453,9.12
28.468,14.73
28.484,19.35
28.500,23.21
28.515,26.31
28.531,28.54
28.546,29.89
28.562,30.43
28.578,30.3
28.593,29.69
28.609,28.81
28.625,27.66
28.640,26.38
28.656,25.1
28.671,23.95
28.687,23.06
28.703,22.63
28.718,22.56
28.734,22.72
28.750,22.8
28.765,22.39
28.781,21.32
28.796,19.56
28.812,17.29
28.828,14.75
28.843,12.27
28.859,9.93
28.875,7.9
28.890,6.1
28.906,4.42
28.921,2.91
28.937,1.52
28.953,0.12
28.968,-1.39
28.984,-3.26
29.000,-5.82
29.015,-9.09
29.031,-12.95
29.046,-16.95
29.062,-20.45
29.078,-23.04
29.093,-24.69
29.109,-25.56
29.125,-26.04
29.140,-26.56
29.156,-27.25
29.171,-28.12
29.187,-29.0
29.203,-29.52
29.218,-29.25
29.234,-27.66
29.250,-24.28
29.265,-18.94
29.281,-11.99
29.296,-4.06
29.312,3.93
29.328,11.11
29.343,17.1
29.359,21.74
29.375,25.17
29.390,27.65
29.406,29.09
29.421,29.37
29.437,28.57
29.453,26.85
29.468,24.51
29.484,22.07
29.500,19.82
29.515,18.07
29.531,17.01
29.546,16.7
29.562,17.11
29.578,18.25
29.593,19.94
29.609,21.86
29.625,23.65
29.640,24.83
29.656,25.17
29.671,24.58
29.687,23.1
29.703,20.82
29.718,17.89
29.734,14.49
29.750,10.83
29.765,7.26
29.781,3.98
29.796,1.1
29.812,-1.36
29.828,-3.61
29.843,-5.86
29.859,-8.18
29.875,-10.52
29.890,-12.73
29.906,-14.58
29.921,-15.96
29.937,-17.06
29.953,-18.04
29.968,-19.22
29.984,-20.75
30.000,-22.77
30.015,-25.23
30.031,-27.94
30.046,-30.58
30.062,-32.56
30.078,-33.24
30.093,-31.9
30.109,-28.16
30.125,-21.92
30.140,-13.75
30.156,-4.54
30.171,4.66
30.187,13.02
30.203,19.88
30.218,25.0
30.234,28.42
30.250,30.33
30.265,31.01
30.281,30.85
30.296,30.08
30.312,28.98
30.328,27.72
30.343,26.32
30.359,24.66
30.375,22.79
30.390,20.78
30.406,18.78
30.421,16.98
30.437,15.46
30.453,14.34
30.468,13.56
30.484,13.12
30.500,12.85
30.515,12.5
30.531,11.84
30.546,10.65
30.562,8.87
30.578,6.54
30.593,3.97
30.609,1.37
30.625,-1.08
30.640,-3.32
30.656,-5.43
30.671,-7.6
30.687,-9.93
30.703,-12.47
30.718,-15.13
30.734,-17.75
30.750,-20.13
30.765,-22.19
30.781,-23.9
30.796,-25.49
30.812,-27.14
30.828,-28.97
30.843,-31.03
30.859,-33.23
30.875,-35.42
30.890,-37.39
30.906,-38.9
30.921,-39.47
30.937,-38.71
30.953,-36.18
30.968,-31.61
30.984,-25.16
31.000,-17.49
31.015,-9.58
31.031,-2.39
31.046,3.46
31.062,7.95
31.078,11.34
31.093,14.13
31.109,16.72
31.125,19.16
31.140,21.22
31.156,22.61
31.171,23.18
31.187,22.88
31.203,21.87
31.218,20.38
31.234,18.58
31.250,16.66
31.265,14.94
31.281,13.67
31.296,13.06
31.312,13.21
31.328,13.94
31.343,14.88
31.359,15.49
31.375,15.35
31.390,14.23
31.406,12.22
31.421,9.69
31.437,7.12
31.453,4.84
31.468,2.91
31.484,1.32
31.500,-0.23
31.515,-1.95
31.531,-3.9
31.546,-6.07
31.562,-8.31
31.578,-10.45
31.593,-12.39
31.609,-14.09
31.625,-15.5
31.640,-16.66
31.656,-17.62
31.671,-18.31
31.687,-18.86
31.703,-19.35
31.718,-19.84
31.734,-20.46
31.750,-21.39
31.765,-22.69
31.781,-24.47
31.796,-26.75
31.812,-29.19
31.828,-31.49
31.843,-33.06
31.859,-33.39
31.875,-32.04
31.890,-28.81
31.906,-23.76
31.921,-17.23
31.937,-9.77
31.953,-1.94
31.968,5.52
31.984,12.16
32.000,17.6
32.015,21.6
32.031,24.19
32.046,25.48
32.062,25.67
32.078,24.98
32.093,23.66
32.109,21.9
32.125,19.92
32.140,17.95
32.156,16.07
32.171,14.51
32.187,13.21
32.203,12.1
32.218,11.06
32.234,10.01
32.250,9.01
32.265,8.3
32.281,8.15
32.296,8.57
32.312,9.49
32.328,10.53
32.343,11.23
32.359,11.3
32.375,10.75
32.390,9.78
32.406,8.86
32.421,8.29
32.437,7.99
32.453,7.75
32.468,7.14
32.484,5.71
32.500,3.42
32.515,0.51
32.531,-2.62
32.546,-5.45
32.562,-7.64
32.578,-9.24
32.593,-10.41
32.609,-11.37
32.625,-12.41
32.640,-13.53
32.656,-14.75
32.671,-15.93
32.687,-16.94
32.703,-17.76
32.718,-18.52
32.734,-19.42
32.750,-20.62
32.765,-22.2
32.781,-23.97
32.796,-25.67
32.812,-26.9
32.828,-27.23
32.843,-26.42
32.859,-24.36
32.875,-21.13
32.890,-17.0
32.906,-12.35
32.921,-7.58
32.937,-3.03
32.953,0.95
32.968,4.33
32.984,6.95
33.000,8.69
33.015,9.59
33.031,9.72
33.046,9.32
33.062,8.78
33.078,8.56
33.093,8.82
33.109,9.56
33.125,10.45
33.140,11.07
33.156,11.06
33.171,10.41
33.187,9.35
33.203,8.31
33.218,7.72
33.234,7.64
33.250,8.04
33.265,8.62
33.281,9.09
33.296,9.16
33.312,8.79
33.328,7.99
33.343,6.86
33.359,5.58
33.375,4.19
33.390,2.85
33.406,1.6
33.421,0.4
33.437,-0.87
33.453,-2.3
33.468,-3.93
33.484,-5.63
33.500,-7.3
33.515,-8.84
33.531,-10.12
33.546,-11.14
33.562,-12.03
33.578,-12.89
33.593,-13.87
33.609,-14.96
33.625,-16.18
33.640,-17.41
33.656,-18.79
33.671,-20.35
33.687,-22.25
33.703,-24.53
33.718,-26.99
33.734,-29.3
33.750,-30.89
33.765,-31.34
33.781,-30.28
33.796,-27.8
33.812,-24.1
33.828,-19.69
33.843,-14.93
33.859,-10.14
33.875,-5.55
33.890,-1.19
33.906,2.88
33.921,6.5
33.937,9.5
33.953,11.71
33.968,13.01
33.984,13.57
34.000,13.57
34.015,13.35
34.031,13.06
34.046,12.86
34.062,12.68
34.078,12.46
34.093,12.13
34.109,11.76
34.125,11.35
34.140,10.87
34.156,10.18
34.171,9.2
34.187,7.94
34.203,6.5
34.218,5.17
34.234,4.23
34.250,3.85
34.265,4.0
34.281,4.44
34.296,4.78
34.312,4.8
34.328,4.39
34.343,3.62
34.359,2.65
34.375,1.66
34.390,0.67
34.406,-0.26
34.421,-1.32
34.437,-2.51
34.453,-3.82
34.468,-5.21
34.484,-6.47
34.500,-7.53
34.515,-8.34
34.531,-9.08
34.546,-9.72
34.562,-10.42
34.578,-11.07
34.593,-11.65
34.609,-12.15
34.625,-12.55
34.640,-12.96
34.656,-13.4
34.671,-13.81
34.687,-13.89
34.703,-13.44
34.718,-12.24
34.734,-10.34
34.750,-8.0
34.765,-5.55
34.781,-3.26
34.796,-1.23
34.812,0.65
34.828,2.54
34.843,4.55
34.859,6.63
34.875,8.56
34.890,9.89
34.906,10.41
34.921,9.99
34.937,8.76
34.953,7.05
34.968,5.18
34.984,3.43
35.000,2.0
35.015,0.97
35.031,0.21
35.046,-0.27
35.062,-0.63
35.078,-0.88
35.093,-1.02
35.109,-0.96
35.125,-0.64
35.140,-0.01
35.156,0.88
35.171,1.78
35.187,2.64
35.203,3.24
35.218,3.59
35.234,3.7
35.250,3.6
35.265,3.13
35.281,2.34
35.296,1.14
35.312,-0.3
35.328,-1.77
35.343,-3.14
35.359,-4.41
35.375,-5.5
35.390,-6.43
35.406,-7.23
35.421,-7.75
35.437,-8.02
35.453,-8.04
35.468,-7.9
35.484,-7.8
35.500,-7.94
35.515,-8.21
35.531,-8.64
35.546,-9.15
35.562,-9.66
35.578,-10.14
35.593,-10.46
35.609,-10.47
35.625,-10.01
35.640,-8.95
35.656,-7.23
35.671,-5.09
35.687,-2.82
35.703,-0.81
35.718,0.72
35.734,1.62
35.750,2.01
35.765,1.9
35.781,1.5
35.796,0.97
35.812,0.43
35.828,-0.03
35.843,-0.4
35.859,-0.72
35.875,-1.03
35.890,-1.22
35.906,-1.34
35.921,-1.16
35.937,-0.57
35.953,0.46
35.968,1.88
35.984,3.48
36.000,4.95
36.015,6.1
36.031,6.86
36.046,7.15
36.062,7.08
36.078,6.64
36.093,5.79
36.109,4.5
36.125,2.74
36.140,0.62
36.156,-1.55
36.171,-3.39
36.187,-4.66
36.203,-5.29
36.218,-5.49
36.234,-5.65
36.250,-6.1
36.265,-6.98
36.281,-8.31
36.296,-9.93
36.312,-11.68
36.328,-13.41
36.343,-15.1
36.359,-16.74
36.375,-18.43
36.390,-20.19
36.406,-21.97
36.421,-23.74
36.437,-25.29
36.453,-26.37
36.468,-26.63
36.484,-25.79
36.500,-23.73
36.515,-20.57
36.531,-16.56
36.546,-11.98
36.562,-7.21
36.578,-2.47
36.593,2.01
36.609,5.99
36.625,9.36
36.640,11.99
36.656,13.87
36.671,15.09
36.687,15.77
36.703,15.98
36.718,15.83
36.734,15.4
36.750,14.71
36.765,13.85
36.781,12.88
36.796,11.94
36.812,11.19
36.828,10.8
36.843,10.78
36.859,11.04
36.875,11.41
36.890,11.62
36.906,11.57
36.921,11.22
36.937,10.65
36.953,9.98
36.968,9.25
36.984,8.41
37.000,7.28
37.015,5.88
37.031,4.01
37.046,1.77
37.062,-0.66
37.078,-3.07
37.093,-5.21
37.109,-6.99
37.125,-8.53
37.140,-9.93
37.156,-11.29
37.171,-12.68
37.187,-14.13
37.203,-15.65
37.218,-17.14
37.234,-18.53
37.250,-19.73
37.265,-20.47
37.281,-20.44
37.296,-19.31
37.312,-16.92
37.328,-13.37
37.343,-8.95
37.359,-4.13
37.375,0.62
37.390,4.83
37.406,8.24
37.421,10.88
37.437,12.95
37.453,14.69
37.468,16.3
37.484,17.85
37.500,19.17
37.515,20.07
37.531,20.47
37.546,20.25
37.562,19.56
37.578,18.61
37.593,17.44
37.609,16.22
37.625,15.04
37.640,14.05
37.656,13.34
37.671,13.12
37.687,13.34
37.703,13.69
37.718,13.9
37.734,13.61
37.750,12.69
37.765,11.2
37.781,9.32
37.796,7.13
37.812,4.74
37.828,2.13
37.843,-0.67
37.859,-3.53
37.875,-6.28
37.890,-8.65
37.906,-10.46
37.921,-11.73
37.937,-12.61
37.953,-13.39
37.968,-14.43
37.984,-16.07
38.000,-18.28
38.015,-20.89
38.031,-23.22
38.046,-24.55
38.062,-24.36
38.078,-22.33
38.093,-18.66
38.109,-13.66
38.125,-7.91
38.140,-1.72
38.156,4.45
38.171,10.28
38.187,15.34
38.203,19.15
38.218,21.55
38.234,22.53
38.250,22.41
38.265,21.6
38.281,20.61
38.296,19.66
38.312,18.8
38.328,17.92
38.343,16.83
38.359,15.5
38.375,13.96
38.390,12.43
38.406,11.11
38.421,10.18
38.437,9.66
38.453,9.48
38.468,9.53
38.484,9.66
38.500,9.62
38.515,9.11
38.531,7.88
38.546,5.92
38.562,3.38
38.578,0.61
38.593,-2.04
38.609,-4.37
38.625,-6.4
38.640,-8.28
38.656,-10.23
38.671,-12.26
38.687,-14.26
38.703,-16.0
38.718,-17.3
38.734,-18.11
38.750,-18.58
38.765,-18.9
38.781,-19.19
38.796,-19.52
38.812,-19.94
38.828,-20.41
38.843,-20.8
38.859,-20.92
38.875,-20.38
38.890,-18.82
38.906,-15.92
38.921,-11.65
38.937,-6.24
38.953,-0.24
38.968,5.67
38.984,11.06
39.000,15.55
39.015,19.05
39.031,21.58
39.046,23.2
39.062,23.98
39.078,24.02
39.093,23.46
39.109,22.4
39.125,21.04
39.140,19.54
39.156,18.06
39.171,16.82
39.187,15.9
39.203,15.37
39.218,15.21
39.234,15.31
39.250,15.6
39.265,15.88
39.281,16.06
39.296,16.05
39.312,15.82
39.328,15.31
39.343,14.48
39.359,13.25
39.375,11.54
39.390,9.37
39.406,6.88
39.421,4.27
39.437,1.72
39.453,-0.62
39.468,-2.76
39.484,-4.66
39.500,-6.4
39.515,-7.96
39.531,-9.37
39.546,-10.66
39.562,-11.91
39.578,-13.31
39.593,-14.96
39.609,-16.97
39.625,-19.19
39.640,-21.37
39.656,-23.15
39.671,-24.11
39.687,-23.87
39.703,-22.13
39.718,-18.9
39.734,-14.43
39.750,-9.23
39.765,-3.89
39.781,1.11
39.796,5.43
39.812,8.95
39.828,11.69
39.843,13.66
39.859,15.03
39.875,15.9
39.890,16.47
39.906,16.81
39.921,17.05
39.937,17.2
39.953,17.19
39.968,16.98
39.984,16.57
40.000,16.02
40.015,15.41
40.031,14.87
40.046,14.38
40.062,14.02
40.078,13.77
40.093,13.74
40.109,13.96
40.125,14.41
40.140,14.85
40.156,15.06
40.171,14.83
40.187,14.01
40.203,12.63
40.218,10.61
40.234,8.02
40.250,4.86
40.265,1.17
40.281,-2.98
40.296,-7.26
40.312,-11.32
40.328,-14.77
40.343,-17.36
40.359,-19.03
40.375,-19.87
40.390,-20.15
40.406,-20.16
40.421,-20.27
40.437,-20.76
40.453,-21.8
40.468,-23.29
40.484,-25.01
40.500,-26.5
40.515,-27.21
40.531,-26.6
40.546,-24.36
40.562,-20.3
40.578,-14.69
40.593,-8.08
40.609,-1.2
40.625,5.25
40.640,10.69
40.656,14.87
40.671,17.89
40.687,19.83
40.703,21.03
40.718,21.62
40.734,21.67
40.750,21.27
40.765,20.57
40.781,19.63
40.796,18.6
40.812,17.46
40.828,16.03
40.843,14.36
40.859,12.42
40.875,10.47
40.890,8.87
40.906,7.93
40.921,7.78
40.937,8.31
40.953,9.23
40.968,10.1
40.984,10.78
41.000,11.11
41.015,11.13
41.031,10.94
41.046,10.36
41.062,9.2
41.078,7.27
41.093,4.53
41.109,1.12
41.125,-2.37
41.140,-5.53
41.156,-8.0
41.171,-9.63
41.187,-10.77
41.203,-11.71
41.218,-12.75
41.234,-13.96
41.250,-15.33
41.265,-16.56
41.281,-17.53
41.296,-18.23
41.312,-18.74
41.328,-19.5
41.343,-20.81
41.359,-22.85
41.375,-25.47
41.390,-28.23
41.406,-30.38
41.421,-31.3
41.437,-30.66
41.453,-28.27
41.468,-24.36
41.484,-19.18
41.500,-13.19
41.515,-6.8
41.531,-0.46
41.546,5.44
41.562,10.45
41.578,14.3
41.593,17.01
41.609,18.66
41.625,19.67
41.640,20.12
41.656,20.06
41.671,19.49
41.687,18.51
41.703,17.28
41.718,16.06
41.734,15.17
41.750,14.63
41.765,14.42
41.781,14.38
41.796,14.45
41.812,14.68
41.828,15.17
41.843,16.17
41.859,17.61
41.875,19.48
41.890,21.47
41.906,23.35
41.921,24.85
41.937,25.89
41.953,26.31
41.968,26.08
41.984,25.52
42.000,24.9
42.015,24.62
42.031,24.81
42.046,25.66
42.062,27.03
42.078,28.86
42.093,30.94
42.109,32.89
42.125,34.57
42.140,35.76
42.156,36.44
42.171,36.44
42.187,35.76
42.203,34.26
42.218,31.71
42.234,27.9
42.250,22.52
42.265,15.51
42.281,6.97
42.296,-2.46
42.312,-11.9
42.328,-20.3
42.343,-26.49
42.359,-29.69
42.375,-29.29
42.390,-25.41
42.406,-18.5
42.421,-9.53
42.437,0.47
42.453,10.6
42.468,20.01
42.484,28.38
42.500,35.57
42.515,41.89
42.531,47.39
42.546,52.45
42.562,57.28
42.578,62.1
42.593,67.04
42.609,71.85
42.625,75.77
42.640,77.58
42.656,76.19
42.671,70.82
42.687,61.64
42.703,49.72
42.718,36.51
42.734,23.64
42.750,12.23
42.765,2.77
42.781,-5.06
42.796,-11.67
42.812,-17.58
42.828,-22.81
42.843,-27.04
42.859,-29.97
42.875,-31.27
42.890,-31.02
42.906,-29.47
42.921,-27.11
42.937,-24.19
42.953,-20.86
42.968,-17.13
42.984,-13.14
43.000,-9.43
43.015,-6.64
43.031,-5.43
43.046,-6.12
43.062,-8.4
43.078,-11.55
43.093,-14.78
43.109,-17.47
43.125,-19.45
43.140,-20.98
43.156,-22.34
43.171,-23.66
43.187,-24.91
43.203,-25.64
43.218,-25.4
43.234,-23.96
43.250,-21.45
43.265,-18.29
43.281,-15.31
43.296,-13.2
43.312,-12.41
43.328,-12.97
43.343,-14.37
43.359,-15.88
43.375,-16.88
43.390,-17.06
43.406,-16.32
43.421,-14.83
43.437,-12.78
43.453,-10.33
43.468,-7.68
43.484,-5.15
43.500,-2.92
43.515,-1.21
43.531,-0.14
43.546,0.32
43.562,0.3
43.578,-0.16
43.593,-0.91
43.609,-1.75
43.625,-2.36
43.640,-2.43
43.656,-1.78
43.671,-0.52
43.687,0.76
43.703,1.26
43.718,0.17
43.734,-2.89
43.750,-7.75
43.765,-13.74
43.781,-20.1
43.796,-26.24
43.812,-31.89
43.828,-37.02
43.843,-41.61
43.859,-45.44
43.875,-48.01
43.890,-48.86
43.906,-47.84
43.921,-45.29
43.937,-42.02
43.953,-39.01
43.968,-36.99
43.984,-36.31
44.000,-37.01
44.015,-38.7
44.031,-40.9
44.046,-43.31
44.062,-45.49
44.078,-47.15
44.093,-47.9
44.109,-47.35
44.125,-45.18
44.140,-41.4
44.156,-36.34
44.171,-30.5
44.187,-24.72
44.203,-19.58
44.218,-15.39
44.234,-12.04
44.250,-9.06
44.265,-5.84
44.281,-1.94
44.296,2.64
44.312,7.55
44.328,12.15
44.343,15.9
44.359,18.47
44.375,19.91
44.390,20.56
44.406,20.89
44.421,21.29
44.437,21.97
44.453,22.91
44.468,23.8
44.484,24.5
44.500,24.71
44.515,24.35
44.531,23.41
44.546,22.01
44.562,20.17
44.578,17.96
44.593,15.31
44.609,12.16
44.625,8.64
44.640,5.04
44.656,1.78
44.671,-0.74
44.687,-2.21
44.703,-2.71
44.718,-2.68
44.734,-2.75
44.750,-3.49
44.765,-5.33
44.781,-8.25
44.796,-11.99
44.812,-16.12
44.828,-20.21
44.843,-23.76
44.859,-26.51
44.875,-28.28
44.890,-29.08
44.906,-29.2
44.921,-29.06
44.937,-29.06
44.953,-29.38
44.968,-29.89
44.984,-30.07
45.000,-29.34
45.015,-27.17
45.031,-23.36
45.046,-18.0
45.062,-11.53
45.078,-4.76
45.093,1.51
45.109,6.44
45.125,9.71
45.140,11.5
45.156,12.69
45.171,14.26
45.187,16.69
45.203,19.77
45.218,22.27
45.234,22.79
45.250,20.5
45.265,15.87
45.281,10.4
45.296,6.29
45.312,5.19
45.328,7.41
45.343,12.12
45.359,17.58
45.375,21.98
45.390,24.29
45.406,24.48
45.421,23.16
45.437,21.49
45.453,20.5
45.468,20.73
45.484,22.32
45.500,24.8
45.515,27.28
45.531,28.78
45.546,28.5
45.562,25.96
45.578,21.2
45.593,14.77
45.609,7.46
45.625,0.28
45.640,-6.09
45.656,-11.55
45.671,-16.6
45.687,-22.14
45.703,-29.1
45.718,-37.78
45.734,-47.5
45.750,-56.73
45.765,-63.46
45.781,-66.22
45.796,-64.69
45.812,-59.47
45.828,-51.68
45.843,-42.31
45.859,-31.53
45.875,-19.02
45.890,-4.43
45.906,12.21
45.921,29.92
45.937,47.08
45.953,61.82
45.968,72.42
45.984,77.7
46.000,77.45
46.015,72.28
46.031,63.32
46.046,52.42
46.062,41.35
46.078,31.59
46.093,24.15
46.109,19.31
46.125,16.78
46.140,16.05
46.156,16.45
46.171,17.05
46.187,17.23
46.203,16.49
46.218,14.61
46.234,11.51
46.250,7.11
46.265,1.11
46.281,-6.59
46.296,-15.91
46.312,-26.17
46.328,-36.08
46.343,-44.17
46.359,-49.05
46.375,-49.69
46.390,-45.52
46.406,-36.64
46.421,-23.71
46.437,-8.25
46.453,7.56
46.468,21.37
46.484,30.75
46.500,33.97
46.515,30.58
46.531,21.16
46.546,7.19
46.562,-9.47
46.578,-27.03
46.593,-44.19
46.609,-59.84
46.625,-73.26
46.640,-84.07
46.656,-91.9
46.671,-96.7
46.687,-98.33
46.703,-96.75
46.718,-92.01
46.734,-84.43
46.750,-74.41
46.765,-62.64
46.781,-49.9
46.796,-37.07
46.812,-25.11
46.828,-14.76
46.843,-6.43
46.859,-0.16
46.875,4.29
46.890,7.47
46.906,9.77
46.921,11.59
46.937,13.16
46.953,14.57
46.968,15.9
46.984,17.26
47.000,18.78
47.015,20.52
47.031,22.44
47.046,24.29
47.062,25.72
47.078,26.53
47.093,26.64
47.109,26.1
47.125,25.08
47.140,23.66
47.156,21.81
47.171,19.21
47.187,15.5
47.203,10.44
47.218,4.22
47.234,-2.53
47.250,-8.83
47.265,-13.93
47.281,-17.58
47.296,-20.1
47.312,-22.06
47.328,-23.96
47.343,-25.92
47.359,-27.67
47.375,-28.74
47.390,-28.68
47.406,-27.39
47.421,-25.19
47.437,-22.7
47.453,-20.58
47.468,-19.36
47.484,-19.45
47.500,-20.98
47.515,-23.71
47.531,-26.95
47.546,-29.74
47.562,-30.94
47.578,-29.59
47.593,-25.17
47.609,-17.74
47.625,-8.06
47.640,2.62
47.656,12.84
47.671,21.16
47.687,26.56
47.703,28.62
47.718,27.42
47.734,23.34
47.750,16.75
47.765,7.94
47.781,-2.78
47.796,-14.9
47.812,-27.66
47.828,-39.9
47.843,-50.29
47.859,-57.61
47.875,-60.74
47.890,-59.08
47.906,-52.51
47.921,-41.82
47.937,-28.38
47.953,-13.57
47.968,2.03
47.984,19.04
48.000,38.93
48.015,63.06
48.031,91.32
48.046,121.42
48.062,148.98
48.078,169.1
48.093,177.76
48.109,173.14
48.125,155.92
48.140,128.59
48.156,94.6
48.171,57.52
48.187,20.57
48.203,-13.69
48.218,-43.37
48.234,-67.19
48.250,-84.71
48.265,-96.31
48.281,-103.14
48.296,-106.83
48.312,-109.24
48.328,-111.59
48.343,-114.14
48.359,-116.2
48.375,-116.4
48.390,-113.63
48.406,-107.44
48.421,-98.48
48.437,-87.98
48.453,-76.93
48.468,-65.48
48.484,-52.68
48.500,-37.21
48.515,-18.18
48.531,4.0
48.546,27.66
48.562,50.33
48.578,69.65
48.593,84.04
48.609,92.99
48.625,96.71
48.640,95.92
48.656,91.43
48.671,84.09
48.687,74.97
48.703,65.33
48.718,56.31
48.734,48.78
48.750,43.21
48.765,39.49
48.781,37.17
48.796,35.81
48.812,34.86
48.828,33.86
48.843,32.35
48.859,29.83
48.875,25.76
48.890,19.87
48.906,12.27
48.921,3.62
48.937,-4.98
48.953,-12.55
48.968,-18.27
48.984,-21.98
49.000,-24.06
49.015,-25.19
49.031,-26.0
49.046,-26.96
49.062,-28.1
49.078,-29.18
49.093,-30.13
49.109,-30.86
49.125,-31.69
49.140,-32.99
49.156,-35.18
49.171,-38.52
49.187,-43.06
49.203,-48.27
49.218,-53.07
49.234,-56.1
49.250,-55.79
49.265,-51.02
49.281,-41.65
49.296,-28.38
49.312,-12.93
49.328,2.7
49.343,16.7
49.359,27.91
49.375,35.96
49.390,41.29
49.406,44.9
49.421,47.89
49.437,51.3
49.453,55.56
49.468,60.42
49.484,65.02
49.500,68.18
49.515,69.02
49.531,67.38
49.546,63.86
49.562,59.57
49.578,55.64
49.593,52.75
49.609,51.07
49.625,50.03
49.640,48.69
49.656,46.03
49.671,41.23
49.687,34.16
49.703,25.42
49.718,16.42
49.734,8.75
49.750,3.66
49.765,1.23
49.781,0.22
49.796,-1.18
49.812,-4.71
49.828,-11.08
49.843,-19.64
49.859,-28.89
49.875,-36.95
49.890,-42.42
49.906,-44.58
49.921,-43.33
49.937,-39.01
49.953,-32.41
49.968,-24.63
49.984,-17.09
50.000,-11.57
50.015,-9.66
50.031,-12.41
50.046,-19.98
50.062,-31.3
50.078,-44.48
50.093,-57.28
50.109,-67.37
50.125,-72.96
50.140,-73.23
50.156,-68.21
50.171,-58.83
50.187,-46.54
50.203,-32.84
50.218,-19.01
50.234,-6.07
50.250,5.59
50.265,15.91
50.281,24.93
50.296,32.84
50.312,39.73
50.328,45.54
50.343,50.23
50.359,53.6
50.375,55.41
50.390,55.79
50.406,54.88
50.421,53.07
50.437,50.81
50.453,48.49
50.468,46.34
50.484,44.53
50.500,43.07
50.515,41.81
50.531,40.71
50.546,39.61
50.562,38.36
50.578,36.84
50.593,34.89
50.609,32.31
50.625,29.1
50.640,25.41
50.656,21.46
50.671,17.56
50.687,13.88
50.703,10.57
50.718,7.59
50.734,4.71
50.750,1.66
50.765,-1.86
50.781,-5.91
50.796,-10.46
50.812,-15.18
50.828,-19.81
50.843,-23.93
50.859,-27.3
50.875,-30.06
50.890,-32.54
50.906,-35.39
50.921,-38.98
50.937,-43.43
50.953,-48.09
50.968,-52.04
50.984,-53.92
51.000,-52.6
51.015,-47.55
51.031,-38.86
51.046,-27.39
51.062,-14.25
51.078,-0.87
51.093,11.78
51.109,22.87
51.125,31.97
51.140,38.97
51.156,43.86
51.171,46.78
51.187,47.73
51.203,47.0
51.218,44.8
51.234,41.61
51.250,37.96
51.265,34.43
51.281,31.62
51.296,29.76
51.312,29.02
51.328,29.2
51.343,30.03
51.359,31.29
51.375,32.84
51.390,34.52
51.406,36.27
51.421,37.96
51.437,39.22
51.453,39.82
51.468,39.44
51.484,37.95
51.500,35.38
51.515,32.12
51.531,28.58
51.546,25.25
51.562,22.63
51.578,20.71
51.593,19.37
51.609,18.17
51.625,16.52
51.640,14.05
51.656,10.71
51.671,6.72
51.687,2.38
51.703,-1.79
51.718,-5.68
51.734,-9.13
51.750,-12.32
51.765,-15.55
51.781,-19.14
51.796,-23.23
51.812,-27.79
51.828,-32.41
51.843,-36.3
51.859,-38.5
51.875,-38.05
51.890,-34.55
51.906,-28.17
51.921,-19.76
51.937,-10.46
51.953,-1.41
51.968,6.59
51.984,13.33
52.000,18.87
52.015,23.58
52.031,27.67
52.046,31.13
52.062,34.01
52.078,36.22
52.093,37.71
52.109,38.51
52.125,38.68
52.140,38.23
52.156,37.24
52.171,35.83
52.187,34.18
52.203,32.68
52.218,31.51
52.234,30.81
52.250,30.5
52.265,30.34
52.281,29.85
52.296,28.44
52.312,25.51
52.328,20.24
52.343,11.8
52.359,-0.57
52.375,-17.28
52.390,-37.78
52.406,-60.29
52.421,-82.06
52.437,-99.7
52.453,-110.34
52.468,-112.5
52.484,-106.94
52.500,-96.24
52.515,-83.99
52.531,-73.35
52.546,-65.9
52.562,-61.42
52.578,-58.3
52.593,-54.98
52.609,-50.78
52.625,-46.01
52.640,-41.51
52.656,-37.68
52.671,-34.11
52.687,-29.68
52.703,-23.04
52.718,-13.38
52.734,-0.84
52.750,13.58
52.765,28.48
52.781,42.35
52.796,54.09
52.812,62.91
52.828,68.37
52.843,70.46
52.859,69.37
52.875,65.2
52.890,57.92
52.906,47.62
52.921,34.68
52.937,20.22
52.953,5.78
52.968,-6.81
52.984,-16.43
53.000,-22.77
53.015,-26.64
53.031,-29.38
53.046,-31.9
53.062,-34.47
53.078,-36.37
53.093,-36.73
53.109,-35.16
53.125,-32.37
53.140,-29.76
53.156,-28.66
53.171,-29.5
53.187,-31.47
53.203,-33.07
53.218,-32.92
53.234,-30.69
53.250,-27.26
53.265,-24.29
53.281,-23.14
53.296,-24.0
53.312,-25.66
53.328,-26.27
53.343,-24.42
53.359,-19.77
53.375,-13.35
53.390,-6.78
53.406,-1.5
53.421,1.93
53.437,4.01
53.453,5.59
53.468,7.31
53.484,8.95
53.500,9.92
53.515,9.45
53.531,7.34
53.546,3.89
53.562,-0.08
53.578,-3.74
53.593,-6.75
53.609,-9.34
53.625,-12.22
53.640,-16.13
53.656,-21.38
53.671,-27.37
53.687,-32.88
53.703,-36.26
53.718,-36.21
53.734,-32.24
53.750,-24.72
53.765,-14.75
53.781,-3.63
53.796,7.35
53.812,17.34
53.828,25.82
53.843,32.61
53.859,37.77
53.875,41.51
53.890,44.03
53.906,45.39
53.921,45.51
53.937,44.27
53.953,41.76
53.968,38.43
53.984,34.93
54.000,32.09
54.015,30.42
54.031,30.2
54.046,31.16
54.062,32.85
54.078,34.8
54.093,36.64
54.109,38.03
54.125,38.59
54.140,37.92
54.156,35.62
54.171,31.57
54.187,26.01
54.203,19.53
54.218,12.99
54.234,7.18
54.250,2.64
54.265,-0.44
54.281,-2.26
54.296,-3.29
54.312,-3.96
54.328,-4.57
54.343,-5.23
54.359,-5.96
54.375,-6.94
54.390,-8.44
54.406,-10.72
54.421,-13.91
54.437,-17.94
54.453,-22.53
54.468,-27.28
54.484,-31.89
54.500,-36.08
54.515,-39.87
54.531,-43.12
54.546,-45.47
54.562,-46.17
54.578,-44.48
54.593,-39.84
54.609,-32.3
54.625,-22.62
54.640,-11.95
54.656,-1.63
54.671,7.32
54.687,14.45
54.703,19.86
54.718,23.89
54.734,26.87
54.750,28.92
54.765,30.05
54.781,30.39
54.796,30.39
54.812,30.69
54.828,31.92
54.843,34.12
54.859,36.58
54.875,38.11
54.890,37.46
54.906,34.01
54.921,28.12
54.937,20.94
54.953,13.61
54.968,6.87
54.984,0.43
55.000,-6.35
55.015,-13.9
55.031,-21.81
55.046,-28.85
55.062,-33.4
55.078,-34.17
55.093,-30.97
55.109,-24.63
55.125,-16.88
55.140,-9.67
55.156,-4.41
55.171,-1.79
55.187,-1.94
55.203,-4.47
55.218,-8.92
55.234,-14.96
55.250,-22.18
55.265,-30.15
55.281,-38.3
55.296,-45.98
55.312,-52.67
55.328,-58.13
55.343,-62.28
55.359,-65.13
55.375,-66.64
55.390,-66.48
55.406,-64.24
55.421,-59.45
55.437,-51.85
55.453,-41.72
55.468,-29.67
55.484,-16.79
55.500,-4.26
55.515,6.82
55.531,15.68
55.546,22.03
55.562,25.97
55.578,28.07
55.593,28.97
55.609,29.33
55.625,29.7
55.640,30.31
55.656,31.17
55.671,32.07
55.687,32.7
55.703,32.83
55.718,32.34
55.734,31.2
55.750,29.62
55.765,27.82
55.781,25.97
55.796,24.16
55.812,22.51
55.828,21.03
55.843,19.62
55.859,18.06
55.875,16.07
55.890,13.47
55.906,10.32
55.921,6.89
55.937,3.59
55.953,0.72
55.968,-1.58
55.984,-3.51
56.000,-5.37
56.015,-7.41
56.031,-9.72
56.046,-12.26
56.062,-14.97
56.078,-17.71
56.093,-20.44
56.109,-23.12
56.125,-25.75
56.140,-28.3
56.156,-30.8
56.171,-33.38
56.187,-36.19
56.203,-39.27
56.218,-42.34
56.234,-44.83
56.250,-45.99
56.265,-44.9
56.281,-41.0
56.296,-34.2
56.312,-24.89
56.328,-13.84
56.343,-1.99
56.359,9.84
56.375,20.97
56.390,30.88
56.406,39.26
56.421,45.9
56.437,50.78
56.453,54.13
56.468,56.4
56.484,58.12
56.500,59.75
56.515,61.48
56.531,63.26
56.546,64.82
56.562,65.77
56.578,65.81
56.593,64.82
56.609,62.82
56.625,60.09
56.640,56.89
56.656,53.53
56.671,50.28
56.687,47.19
56.703,44.09
56.718,40.57
56.734,35.99
56.750,29.75
56.765,21.7
56.781,12.34
56.796,2.67
56.812,-6.12
56.828,-13.06
56.843,-17.96
56.859,-21.22
56.875,-23.62
56.890,-25.74
56.906,-27.66
56.921,-28.98
56.937,-29.19
56.953,-27.99
56.968,-25.47
56.984,-22.08
57.000,-18.55
57.015,-15.62
57.031,-14.06
57.046,-14.51
57.062,-17.51
57.078,-23.15
57.093,-30.84
57.109,-39.48
57.125,-47.42
57.140,-53.12
57.156,-55.48
57.171,-54.16
57.187,-49.72
57.203,-43.31
57.218,-36.15
57.234,-28.99
57.250,-21.92
57.265,-14.33
57.281,-5.59
57.296,4.39
57.312,14.75
57.328,24.01
57.343,30.48
57.359,33.1
57.375,31.74
57.390,27.13
57.406,20.49
57.421,12.9
57.437,5.28
57.453,-1.8
57.468,-7.87
57.484,-12.45
57.500,-15.17
57.515,-15.85
57.531,-14.75
57.546,-12.46
57.562,-9.83
57.578,-7.81
57.593,-7.12
57.609,-8.14
57.625,-10.62
57.640,-13.89
57.656,-17.05
57.671,-19.29
57.687,-20.23
57.703,-19.96
57.718,-18.89
57.734,-17.59
57.750,-16.59
57.765,-16.13
57.781,-16.27
57.796,-17.04
57.812,-18.35
57.828,-20.01
57.843,-21.93
57.859,-23.89
57.875,-25.82
57.890,-27.65
57.906,-29.39
57.921,-31.11
57.937,-32.86
57.953,-34.62
57.968,-36.04
57.984,-36.71
58.000,-35.96
58.015,-33.22
58.031,-28.18
58.046,-20.97
58.062,-12.16
58.078,-2.59
58.093,6.83
58.109,15.46
58.125,22.84
58.140,28.89
58.156,33.61
58.171,37.09
58.187,39.43
58.203,40.7
58.218,41.04
58.234,40.49
58.250,39.29
58.265,37.72
58.281,36.28
58.296,35.23
58.312,34.67
58.328,34.5
58.343,34.31
58.359,33.89
58.375,32.93
58.390,31.38
58.406,29.33
58.421,27.05
58.437,24.87
58.453,23.13
58.468,21.9
58.484,20.9
58.500,19.84
58.515,18.31
58.531,16.11
58.546,13.28
58.562,10.03
58.578,6.46
58.593,2.75
58.609,-1.16
58.625,-5.28
58.640,-9.52
58.656,-13.62
58.671,-17.25
58.687,-20.2
58.703,-22.44
58.718,-24.26
58.734,-25.95
58.750,-27.94
58.765,-30.48
58.781,-33.61
58.796,-37.22
58.812,-40.92
58.828,-44.13
58.843,-46.34
58.859,-46.98
58.875,-45.46
58.890,-41.43
58.906,-34.68
58.921,-25.45
58.937,-14.57
58.953,-3.04
58.968,7.98
58.984,17.44
59.000,24.83
59.015,30.23
59.031,34.08
59.046,37.07
59.062,39.75
59.078,42.08
59.093,44.01
59.109,45.34
59.125,46.07
59.140,46.55
59.156,47.25
59.171,48.41
59.187,50.05
59.203,51.95
59.218,53.52
59.234,54.66
59.250,55.44
59.265,56.08
59.281,56.98
59.296,58.23
59.312,59.8
59.328,61.5
59.343,63.29
59.359,64.85
59.375,66.02
59.390,66.4
59.406,65.5
59.421,63.13
59.437,59.42
59.453,55.11
59.468,51.14
59.484,48.38
59.500,47.08
59.515,46.88
59.531,46.77
59.546,45.51
59.562,42.03
59.578,35.53
59.593,25.77
59.609,12.96
59.625,-2.42
59.640,-19.69
59.656,-38.0
59.671,-56.39
59.687,-73.65
59.703,-88.49
59.718,-99.94
59.734,-107.36
59.750,-110.24
59.765,-108.34
59.781,-101.39
59.796,-89.36
59.812,-72.62
59.828,-52.41
59.843,-30.89
59.859,-10.9
59.875,4.74
59.890,14.2
59.906,16.95
59.921,13.93
59.937,6.87
59.953,-2.18
59.968,-11.54
59.984,-20.0
