timestamp,value
00.000,42.27
00.015,42.26
00.031,42.22
00.046,42.14
00.062,41.89
00.078,41.39
00.093,40.61
00.109,39.17
00.125,36.85
00.140,33.63
00.156,29.61
00.171,24.97
00.187,20.16
00.203,15.67
00.218,11.58
00.234,8.19
00.250,5.11
00.265,1.9
00.281,-1.91
00.296,-6.47
00.312,-11.81
00.328,-17.61
00.343,-23.21
00.359,-28.68
00.375,-33.88
00.390,-39.28
00.406,-45.24
00.421,-51.95
00.437,-59.44
00.453,-67.09
00.468,-74.0
00.484,-78.71
00.500,-79.99
00.515,-76.51
00.531,-67.84
00.546,-54.64
00.562,-38.24
00.578,-20.99
00.593,-5.09
00.609,8.13
00.625,18.4
00.640,26.21
00.656,32.77
00.671,38.82
00.687,44.2
00.703,48.78
00.718,51.92
00.734,53.47
00.750,53.97
00.765,54.2
00.781,54.81
00.796,56.06
00.812,57.75
00.828,59.02
00.843,59.76
00.859,59.76
00.875,59.22
00.890,58.62
00.906,57.92
00.921,56.91
00.937,55.2
00.953,52.48
00.968,48.4
00.984,43.33
01.000,37.63
01.015,31.73
01.031,26.15
01.046,20.95
01.062,15.97
01.078,11.08
01.093,6.25
01.109,1.33
01.125,-3.67
01.140,-8.85
01.156,-14.4
01.171,-20.1
01.187,-25.92
01.203,-31.75
01.218,-37.5
01.234,-43.09
01.250,-48.76
01.265,-54.67
01.281,-60.89
01.296,-67.21
01.312,-72.8
01.328,-76.72
01.343,-77.8
01.359,-75.08
01.375,-68.09
01.390,-56.96
01.406,-42.2
01.421,-24.73
01.437,-5.87
01.453,12.99
01.468,30.13
01.484,43.98
01.500,53.49
01.515,58.35
01.531,59.21
01.546,57.54
01.562,54.94
01.578,52.51
01.593,50.72
01.609,49.49
01.625,48.68
01.640,48.34
01.656,48.59
01.671,49.45
01.687,50.95
01.703,52.72
01.718,54.34
01.734,55.46
01.750,55.81
01.765,55.33
01.781,53.9
01.796,51.47
01.812,47.97
01.828,43.55
01.843,38.31
01.859,32.59
01.875,26.79
01.890,21.22
01.906,15.98
01.921,10.97
01.937,5.76
01.953,0.09
01.968,-6.05
01.984,-12.37
02.000,-18.55
02.015,-24.16
02.031,-29.05
02.046,-33.39
02.062,-37.44
02.078,-41.71
02.093,-46.37
02.109,-51.7
02.125,-57.41
02.140,-62.95
02.156,-67.25
02.171,-69.49
02.187,-68.68
02.203,-64.48
02.218,-56.87
02.234,-46.16
02.250,-33.14
02.265,-18.68
02.281,-3.93
02.296,10.23
02.312,22.82
02.328,33.25
02.343,41.01
02.359,46.21
02.375,49.17
02.390,50.31
02.406,50.26
02.421,49.72
02.437,49.15
02.453,49.2
02.468,50.29
02.484,52.82
02.500,56.57
02.515,60.87
02.531,64.36
02.546,65.5
02.562,63.51
02.578,58.35
02.593,51.17
02.609,43.34
02.625,36.27
02.640,30.39
02.656,25.75
02.671,21.69
02.687,17.73
02.703,13.64
02.718,9.54
02.734,5.66
02.750,1.92
02.765,-1.92
02.781,-6.36
02.796,-11.61
02.812,-17.6
02.828,-23.84
02.843,-29.87
02.859,-35.49
02.875,-40.5
02.890,-45.24
02.906,-50.2
02.921,-55.66
02.937,-61.69
02.953,-67.79
02.968,-72.93
02.984,-75.65
03.000,-74.78
03.015,-69.4
03.031,-59.4
03.046,-45.67
03.062,-29.66
03.078,-13.07
03.093,2.67
03.109,16.59
03.125,28.43
03.140,38.16
03.156,45.84
03.171,51.42
03.187,54.76
03.203,55.86
03.218,54.87
03.234,52.39
03.250,49.26
03.265,46.37
03.281,44.38
03.296,43.59
03.312,43.79
03.328,44.52
03.343,45.35
03.359,45.92
03.375,46.0
03.390,45.67
03.406,44.82
03.421,43.28
03.437,40.82
03.453,37.08
03.468,32.1
03.484,26.03
03.500,19.37
03.515,12.67
03.531,6.53
03.546,1.26
03.562,-3.04
03.578,-6.54
03.593,-9.65
03.609,-12.62
03.625,-15.89
03.640,-19.63
03.656,-23.8
03.671,-28.13
03.687,-32.57
03.703,-36.88
03.718,-41.15
03.734,-45.76
03.750,-51.1
03.765,-57.56
03.781,-65.15
03.796,-73.37
03.812,-80.88
03.828,-86.11
03.843,-87.34
03.859,-83.28
03.875,-73.56
03.890,-58.49
03.906,-39.38
03.921,-17.84
03.937,4.0
03.953,23.85
03.968,39.99
03.984,51.23
04.000,57.49
04.015,59.77
04.031,59.7
04.046,58.63
04.062,57.52
04.078,56.69
04.093,55.75
04.109,54.63
04.125,53.31
04.140,52.04
04.156,51.04
04.171,50.48
04.187,50.1
04.203,49.49
04.218,48.51
04.234,47.08
04.250,45.35
04.265,43.38
04.281,41.26
04.296,38.77
04.312,35.74
04.328,31.92
04.343,27.1
04.359,21.5
04.375,15.43
04.390,9.62
04.406,4.27
04.421,-0.44
04.437,-4.7
04.453,-9.02
04.468,-13.61
04.484,-18.57
04.500,-23.66
04.515,-28.53
04.531,-32.67
04.546,-36.06
04.562,-38.7
04.578,-41.01
04.593,-43.61
04.609,-46.91
04.625,-51.27
04.640,-56.64
04.656,-62.37
04.671,-67.51
04.687,-70.88
04.703,-71.15
04.718,-67.55
04.734,-59.85
04.750,-48.34
04.765,-34.05
04.781,-18.45
04.796,-2.99
04.812,11.1
04.828,23.03
04.843,32.33
04.859,39.06
04.875,43.4
04.890,45.72
04.906,46.41
04.921,45.72
04.937,44.03
04.953,41.71
04.968,39.27
04.984,37.02
05.000,35.36
05.015,34.38
05.031,34.27
05.046,34.86
05.062,35.83
05.078,36.86
05.093,37.61
05.109,37.87
05.125,37.62
05.140,36.71
05.156,34.93
05.171,32.24
05.187,28.49
05.203,23.69
05.218,18.22
05.234,12.44
05.250,6.95
05.265,2.22
05.281,-1.47
05.296,-4.27
05.312,-6.54
05.328,-8.58
05.343,-10.84
05.359,-13.45
05.375,-16.56
05.390,-20.16
05.406,-24.14
05.421,-28.35
05.437,-32.8
05.453,-37.67
05.468,-42.92
05.484,-48.81
05.500,-55.06
05.515,-61.37
05.531,-67.0
05.546,-70.85
05.562,-71.86
05.578,-69.21
05.593,-62.52
05.609,-51.91
05.625,-38.17
05.640,-22.11
05.656,-5.06
05.671,11.67
05.687,26.96
05.703,39.67
05.718,49.07
05.734,54.76
05.750,56.94
05.765,55.99
05.781,52.84
05.796,48.3
05.812,43.16
05.828,38.14
05.843,33.58
05.859,29.91
05.875,27.33
05.890,26.0
05.906,25.72
05.921,26.22
05.937,27.05
05.953,27.78
05.968,28.06
05.984,27.54
06.000,26.18
06.015,23.86
06.031,20.76
06.046,17.13
06.062,13.21
06.078,9.44
06.093,6.02
06.109,2.99
06.125,0.14
06.140,-2.74
06.156,-6.08
06.171,-10.05
06.187,-14.58
06.203,-19.46
06.218,-24.24
06.234,-28.55
06.250,-32.18
06.265,-35.32
06.281,-38.22
06.296,-41.48
06.312,-45.45
06.328,-50.17
06.343,-55.42
06.359,-60.41
06.375,-64.13
06.390,-65.36
06.406,-63.07
06.421,-56.79
06.437,-46.83
06.453,-33.98
06.468,-19.78
06.484,-5.84
06.500,6.65
06.515,16.76
06.531,24.18
06.546,29.35
06.562,32.51
06.578,34.01
06.593,34.45
06.609,34.1
06.625,33.33
06.640,32.65
06.656,32.23
06.671,32.18
06.687,32.55
06.703,33.04
06.718,33.27
06.734,33.2
06.750,32.78
06.765,32.14
06.781,31.56
06.796,31.12
06.812,30.75
06.828,30.34
06.843,29.49
06.859,27.78
06.875,25.21
06.890,21.81
06.906,17.75
06.921,13.37
06.937,8.81
06.953,4.17
06.968,-0.46
06.984,-5.24
07.000,-10.14
07.015,-14.95
07.031,-19.67
07.046,-24.12
07.062,-28.26
07.078,-32.16
07.093,-35.72
07.109,-38.95
07.125,-41.97
07.140,-45.02
07.156,-48.34
07.171,-52.25
07.187,-56.71
07.203,-61.35
07.218,-65.59
07.234,-68.47
07.250,-68.98
07.265,-66.33
07.281,-60.3
07.296,-51.07
07.312,-39.53
07.328,-26.58
07.343,-13.23
07.359,-0.58
07.375,10.55
07.390,19.8
07.406,26.99
07.421,32.14
07.437,35.64
07.453,37.59
07.468,38.48
07.484,38.77
07.500,38.76
07.515,38.65
07.531,38.63
07.546,38.71
07.562,38.69
07.578,38.27
07.593,36.93
07.609,34.52
07.625,31.53
07.640,28.62
07.656,26.67
07.671,26.07
07.687,26.64
07.703,27.59
07.718,28.06
07.734,27.24
07.750,24.88
07.765,21.51
07.781,17.62
07.796,13.93
07.812,10.62
07.828,7.61
07.843,4.7
07.859,1.74
07.875,-1.36
07.890,-4.64
07.906,-7.9
07.921,-11.28
07.937,-14.63
07.953,-18.08
07.968,-21.79
07.984,-25.81
08.000,-30.16
08.015,-34.76
08.031,-39.67
08.046,-44.88
08.062,-50.51
08.078,-56.11
08.093,-60.97
08.109,-64.08
08.125,-64.29
08.140,-60.89
08.156,-53.65
08.171,-43.07
08.187,-29.99
08.203,-15.88
08.218,-1.78
08.234,11.27
08.250,22.67
08.265,32.07
08.281,39.15
08.296,43.85
08.312,46.33
08.328,46.99
08.343,46.14
08.359,44.31
08.375,41.94
08.390,39.54
08.406,37.55
08.421,36.14
08.437,35.27
08.453,34.77
08.468,34.4
08.484,33.78
08.500,32.73
08.515,31.42
08.531,29.94
08.546,28.58
08.562,27.4
08.578,26.3
08.593,24.96
08.609,23.2
08.625,20.9
08.640,18.09
08.656,15.1
08.671,12.02
08.687,9.19
08.703,6.58
08.718,4.23
08.734,1.84
08.750,-0.69
08.765,-3.35
08.781,-6.08
08.796,-8.79
08.812,-11.56
08.828,-14.2
08.843,-16.84
08.859,-19.36
08.875,-22.01
08.890,-24.85
08.906,-27.9
08.921,-31.18
08.937,-34.58
08.953,-37.86
08.968,-40.31
08.984,-41.23
09.000,-39.91
09.015,-35.78
09.031,-29.03
09.046,-20.12
09.062,-9.9
09.078,0.7
09.093,10.96
09.109,20.42
09.125,28.69
09.140,35.39
09.156,40.2
09.171,42.82
09.187,43.11
09.203,41.29
09.218,37.8
09.234,33.32
09.250,28.59
09.265,24.19
09.281,20.69
09.296,18.41
09.312,17.35
09.328,17.26
09.343,17.92
09.359,19.1
09.375,20.6
09.390,22.37
09.406,24.18
09.421,25.79
09.437,26.77
09.453,26.61
09.468,24.97
09.484,21.96
09.500,17.84
09.515,13.25
09.531,8.66
09.546,4.29
09.562,0.1
09.578,-4.13
09.593,-8.73
09.609,-13.75
09.625,-18.87
09.640,-23.73
09.656,-27.88
09.671,-31.05
09.687,-33.21
09.703,-34.54
09.718,-35.3
09.734,-35.78
09.750,-36.37
09.765,-37.41
09.781,-39.24
09.796,-41.83
09.812,-44.68
09.828,-47.1
09.843,-48.01
09.859,-46.5
09.875,-41.9
09.890,-34.3
09.906,-24.33
09.921,-13.04
09.937,-1.56
09.953,9.18
09.968,18.44
09.984,25.95
10.000,31.69
10.015,35.92
10.031,38.97
10.046,41.08
10.062,42.31
10.078,42.71
10.093,42.33
10.109,41.15
10.125,39.49
10.140,37.73
10.156,36.19
10.171,35.06
10.187,34.31
10.203,33.86
10.218,33.53
10.234,33.23
10.250,32.98
10.265,32.78
10.281,32.52
10.296,31.87
10.312,30.53
10.328,28.14
10.343,24.77
10.359,20.6
10.375,16.15
10.390,11.87
10.406,8.0
10.421,4.53
10.437,1.4
10.453,-1.51
10.468,-4.32
10.484,-7.04
10.500,-9.73
10.515,-12.56
10.531,-15.54
10.546,-18.67
10.562,-21.98
10.578,-25.29
10.593,-28.52
10.609,-31.65
10.625,-34.78
10.640,-37.9
10.656,-41.35
10.671,-45.17
10.687,-49.58
10.703,-54.55
10.718,-59.53
10.734,-63.72
10.750,-65.97
10.765,-65.11
10.781,-60.3
10.796,-51.66
10.812,-39.99
10.828,-26.77
10.843,-13.87
10.859,-2.54
10.875,6.45
10.890,13.1
10.906,17.95
10.921,21.61
10.937,24.43
10.953,26.57
10.968,28.01
10.984,28.63
11.000,28.56
11.015,28.03
11.031,27.32
11.046,26.72
11.062,26.34
11.078,26.1
11.093,26.11
11.109,26.3
11.125,26.68
11.140,27.23
11.156,27.67
11.171,27.79
11.187,27.34
11.203,26.12
11.218,24.17
11.234,21.86
11.250,19.41
11.265,17.09
11.281,15.06
11.296,12.98
11.312,10.6
11.328,7.75
11.343,4.36
11.359,0.76
11.375,-2.49
11.390,-5.08
11.406,-7.04
11.421,-8.45
11.437,-10.01
11.453,-12.11
11.468,-14.88
11.484,-18.16
11.500,-21.55
11.515,-24.57
11.531,-27.05
11.546,-29.12
11.562,-30.97
11.578,-32.91
11.593,-35.05
11.609,-37.34
11.625,-39.49
11.640,-41.18
11.656,-42.04
11.671,-41.76
11.687,-39.68
11.703,-35.45
11.718,-28.77
11.734,-19.67
11.750,-8.74
11.765,2.85
11.781,14.08
11.796,23.81
11.812,31.38
11.828,36.67
11.843,40.01
11.859,41.72
11.875,42.15
11.890,41.67
11.906,40.22
11.921,37.98
11.937,35.06
11.953,31.96
11.968,29.02
11.984,26.76
12.000,25.36
12.015,24.83
12.031,24.78
12.046,24.9
12.062,24.79
12.078,24.38
12.093,23.63
12.109,22.64
12.125,21.47
12.140,19.99
12.156,18.15
12.171,15.67
12.187,12.71
12.203,9.45
12.218,6.44
12.234,3.92
12.250,2.07
12.265,0.64
12.281,-0.84
12.296,-2.85
12.312,-5.68
12.328,-9.33
12.343,-13.62
12.359,-18.0
12.375,-22.32
12.390,-26.28
12.406,-29.59
12.421,-32.17
12.437,-34.14
12.453,-35.52
12.468,-36.69
12.484,-38.15
12.500,-40.16
12.515,-42.8
12.531,-45.7
12.546,-48.01
12.562,-48.68
12.578,-46.75
12.593,-41.64
12.609,-33.52
12.625,-23.16
12.640,-11.94
12.656,-1.48
12.671,7.0
12.687,12.81
12.703,15.87
12.718,16.75
12.734,16.09
12.750,14.49
12.765,12.39
12.781,10.16
12.796,7.92
12.812,5.91
12.828,4.47
12.843,3.79
12.859,4.21
12.875,5.7
12.890,8.07
12.906,11.02
12.921,14.06
12.937,16.68
12.953,18.52
12.968,19.41
12.984,19.24
13.000,18.25
13.015,16.53
13.031,14.18
13.046,11.25
13.062,7.84
13.078,4.11
13.093,0.35
13.109,-3.17
13.125,-6.23
13.140,-8.72
13.156,-10.83
13.171,-12.86
13.187,-15.04
13.203,-17.6
13.218,-20.52
13.234,-23.65
13.250,-26.79
13.265,-29.85
13.281,-32.72
13.296,-35.37
13.312,-37.89
13.328,-40.25
13.343,-42.59
13.359,-44.83
13.375,-47.1
13.390,-49.32
13.406,-51.23
13.421,-52.3
13.437,-51.77
13.453,-48.98
13.468,-43.57
13.484,-36.02
13.500,-27.0
13.515,-17.67
13.531,-8.95
13.546,-1.36
13.562,4.98
13.578,10.18
13.593,14.51
13.609,18.2
13.625,21.14
13.640,23.47
13.656,25.06
13.671,25.95
13.687,26.25
13.703,26.03
13.718,25.36
13.734,24.36
13.750,23.19
13.765,21.7
13.781,20.06
13.796,18.2
13.812,16.12
13.828,13.89
13.843,11.59
13.859,9.36
13.875,7.14
13.890,5.02
13.906,2.88
13.921,0.7
13.937,-1.59
13.953,-3.96
13.968,-6.16
13.984,-8.07
14.000,-9.4
14.015,-10.19
14.031,-10.41
14.046,-10.51
14.062,-10.8
14.078,-11.7
14.093,-13.44
14.109,-15.81
14.125,-18.68
14.140,-21.47
14.156,-24.3
14.171,-26.97
14.187,-29.78
14.203,-32.74
14.218,-35.89
14.234,-39.28
14.250,-42.66
14.265,-46.07
14.281,-48.97
14.296,-51.02
14.312,-51.3
14.328,-49.27
14.343,-44.49
14.359,-36.97
14.375,-27.48
14.390,-16.89
14.406,-6.29
14.421,3.51
14.437,11.79
14.453,18.42
14.468,23.52
14.484,27.47
14.500,30.74
14.515,33.34
14.531,35.56
14.546,37.3
14.562,38.56
14.578,39.28
14.593,39.55
14.609,39.52
14.625,39.29
14.640,39.29
14.656,39.36
14.671,39.54
14.687,39.5
14.703,39.07
14.718,38.06
14.734,36.77
14.750,35.34
14.765,34.0
14.781,32.9
14.796,31.71
14.812,30.18
14.828,28.07
14.843,25.33
14.859,22.07
14.875,18.72
14.890,15.44
14.906,12.43
14.921,9.75
14.937,7.26
14.953,4.78
14.968,2.11
14.984,-0.73
15.000,-3.54
15.015,-6.08
15.031,-8.17
15.046,-9.84
15.062,-11.33
15.078,-12.97
15.093,-15.12
15.109,-17.97
15.125,-21.57
15.140,-25.8
15.156,-30.32
15.171,-34.57
15.187,-37.94
15.203,-39.46
15.218,-38.47
15.234,-34.36
15.250,-27.28
15.265,-17.81
15.281,-7.16
15.296,3.32
15.312,12.41
15.328,19.23
15.343,23.67
15.359,25.79
15.375,26.18
15.390,25.16
15.406,23.13
15.421,20.14
15.437,16.37
15.453,12.13
15.468,7.81
15.484,4.08
15.500,1.32
15.515,-0.2
15.531,-0.66
15.546,-0.31
15.562,0.14
15.578,0.34
15.593,0.12
15.609,-0.43
15.625,-1.01
15.640,-1.55
15.656,-2.16
15.671,-3.17
15.687,-4.79
15.703,-7.25
15.718,-10.27
15.734,-13.31
15.750,-15.94
15.765,-17.75
15.781,-18.78
15.796,-19.43
15.812,-20.17
15.828,-21.43
15.843,-23.39
15.859,-25.92
15.875,-28.41
15.890,-30.39
15.906,-31.34
15.921,-31.24
15.937,-30.43
15.953,-29.43
15.968,-28.76
15.984,-28.7
16.000,-29.26
16.015,-29.98
16.031,-30.34
16.046,-29.58
16.062,-27.01
16.078,-21.95
16.093,-14.12
16.109,-3.6
16.125,8.9
16.140,22.24
16.156,35.33
16.171,47.05
16.187,56.95
16.203,65.06
16.218,71.91
16.234,78.08
16.250,84.09
16.265,90.1
16.281,96.11
16.296,102.13
16.312,108.31
16.328,115.01
16.343,122.6
16.359,131.35
16.375,141.14
16.390,151.71
16.406,162.37
16.421,172.32
16.437,180.82
16.453,187.26
16.468,191.34
16.484,193.01
16.500,192.53
16.515,190.35
16.531,187.13
16.546,183.38
16.562,179.4
16.578,175.29
16.593,171.08
16.609,166.73
16.625,162.2
16.640,157.1
16.656,150.87
16.671,142.8
16.687,132.11
16.703,118.24
16.718,100.95
16.734,80.22
16.750,56.2
16.765,29.34
16.781,0.32
16.796,-29.94
16.812,-60.3
16.828,-89.54
16.843,-116.63
16.859,-140.97
16.875,-162.35
16.890,-181.13
16.906,-197.93
16.921,-213.31
16.937,-227.73
16.953,-241.05
16.968,-252.16
16.984,-259.4
17.000,-261.09
17.015,-256.02
17.031,-244.06
17.046,-226.34
17.062,-204.79
17.078,-181.93
17.093,-160.24
17.109,-141.72
17.125,-127.92
17.140,-119.96
17.156,-118.34
17.171,-122.63
17.187,-131.31
17.203,-141.77
17.218,-150.46
17.234,-153.68
17.250,-148.94
17.265,-135.53
17.281,-114.9
17.296,-90.03
17.312,-64.27
17.328,-39.95
17.343,-17.78
17.359,2.72
17.375,22.99
17.390,43.89
17.406,65.16
17.421,85.34
17.437,101.99
17.453,112.02
17.468,112.26
17.484,100.36
17.500,75.41
17.515,39.62
17.531,-1.28
17.546,-39.18
17.562,-66.18
17.578,-77.92
17.593,-75.52
17.609,-64.96
17.625,-53.84
17.640,-47.81
17.656,-48.5
17.671,-53.35
17.687,-58.2
17.703,-59.58
17.718,-56.46
17.734,-49.75
17.750,-41.18
17.765,-32.2
17.781,-23.86
17.796,-17.55
17.812,-15.24
17.828,-19.06
17.843,-29.58
17.859,-45.44
17.875,-62.89
17.890,-77.09
17.906,-83.83
17.921,-80.89
17.937,-68.76
17.953,-50.26
17.968,-29.41
17.984,-9.84
18.000,5.86
18.015,16.72
18.031,22.99
18.046,25.69
18.062,26.14
18.078,25.57
18.093,25.08
18.109,25.19
18.125,26.03
18.140,27.34
18.156,28.56
18.171,29.2
18.187,28.78
18.203,27.13
18.218,24.37
18.234,20.85
18.250,17.09
18.265,13.5
18.281,10.09
18.296,6.66
18.312,3.11
18.328,-0.6
18.343,-4.1
18.359,-6.96
18.375,-8.82
18.390,-9.61
18.406,-9.64
18.421,-9.67
18.437,-10.41
18.453,-12.38
18.468,-15.74
18.484,-20.13
18.500,-25.21
18.515,-30.45
18.531,-35.31
18.546,-39.2
18.562,-41.79
18.578,-43.06
18.593,-43.32
18.609,-43.18
18.625,-43.25
18.640,-43.94
18.656,-45.19
18.671,-46.45
18.687,-46.8
18.703,-45.32
18.718,-41.42
18.734,-35.13
18.750,-27.04
18.765,-17.99
18.781,-9.15
18.796,-1.41
18.812,4.67
18.828,8.88
18.843,11.46
18.859,12.88
18.875,13.43
18.890,13.21
18.906,12.41
18.921,11.2
18.937,9.7
18.953,8.43
18.968,7.8
18.984,8.27
19.000,9.99
19.015,12.69
19.031,15.8
19.046,18.69
19.062,20.91
19.078,22.02
19.093,22.09
19.109,21.12
19.125,19.34
19.140,17.07
19.156,14.45
19.171,11.73
19.187,9.27
19.203,7.23
19.218,5.69
19.234,4.71
19.250,4.1
19.265,3.56
19.281,2.98
19.296,2.14
19.312,0.91
19.328,-0.63
19.343,-2.53
19.359,-4.69
19.375,-6.98
19.390,-9.26
19.406,-11.85
19.421,-14.69
19.437,-18.02
19.453,-21.82
19.468,-25.99
19.484,-30.31
19.500,-34.54
19.515,-38.42
19.531,-41.38
19.546,-43.16
19.562,-43.01
19.578,-40.72
19.593,-35.98
19.609,-28.95
19.625,-20.31
19.640,-10.88
19.656,-1.5
19.671,7.08
19.687,14.42
19.703,20.65
19.718,25.71
19.734,29.88
19.750,33.44
19.765,36.12
19.781,37.7
19.796,38.14
19.812,37.46
19.828,36.08
19.843,34.7
19.859,33.87
19.875,33.7
19.890,34.37
19.906,35.45
19.921,36.62
19.937,37.75
19.953,38.85
19.968,40.04
19.984,41.22
20.000,42.34
20.015,42.77
20.031,42.51
20.046,41.2
20.062,38.89
20.078,35.78
20.093,32.05
20.109,28.05
20.125,23.86
20.140,19.8
20.156,15.77
20.171,12.02
20.187,8.41
20.203,5.07
20.218,2.0
20.234,-0.75
20.250,-2.85
20.265,-4.29
20.281,-5.05
20.296,-5.53
20.312,-5.98
20.328,-6.88
20.343,-8.51
20.359,-11.06
20.375,-14.61
20.390,-19.02
20.406,-24.06
20.421,-29.1
20.437,-33.37
20.453,-35.87
20.468,-35.68
20.484,-32.45
20.500,-26.25
20.515,-17.98
20.531,-8.56
20.546,0.84
20.562,9.3
20.578,16.28
20.593,21.63
20.609,25.74
20.625,28.86
20.640,31.6
20.656,34.08
20.671,36.32
20.687,38.3
20.703,39.99
20.718,41.58
20.734,43.17
20.750,44.99
20.765,47.08
20.781,49.41
20.796,51.63
20.812,53.36
20.828,54.35
20.843,54.63
20.859,54.28
20.875,53.57
20.890,52.7
20.906,51.65
20.921,50.36
20.937,48.88
20.953,47.25
20.968,45.73
20.984,44.47
21.000,43.52
21.015,42.57
21.031,41.27
21.046,39.34
21.062,36.63
21.078,33.51
21.093,30.62
21.109,28.56
21.125,27.56
21.140,27.77
21.156,28.99
21.171,30.92
21.187,33.27
21.203,35.8
21.218,38.22
21.234,40.37
21.250,41.74
21.265,41.8
21.281,40.37
21.296,38.13
21.312,36.42
21.328,36.89
21.343,40.62
21.359,47.27
21.375,55.22
21.390,62.02
21.406,65.62
21.421,65.06
21.437,61.03
21.453,54.94
21.468,48.26
21.484,41.74
21.500,36.22
21.515,32.57
21.531,31.75
21.546,33.98
21.562,37.73
21.578,39.2
21.593,33.84
21.609,18.43
21.625,-7.24
21.640,-38.89
21.656,-69.23
21.671,-90.59
21.687,-97.79
21.703,-89.58
21.718,-68.79
21.734,-40.56
21.750,-10.52
21.765,16.43
21.781,36.54
21.796,47.33
21.812,47.44
21.828,36.73
21.843,16.56
21.859,-10.36
21.875,-40.02
21.890,-68.07
21.906,-90.66
21.921,-105.56
21.937,-112.62
21.953,-113.41
21.968,-110.22
21.984,-105.44
22.000,-100.54
22.015,-96.13
22.031,-92.12
22.046,-88.44
22.062,-85.16
22.078,-82.69
22.093,-81.73
22.109,-82.4
22.125,-84.32
22.140,-86.39
22.156,-87.16
22.171,-85.39
22.187,-80.54
22.203,-73.1
22.218,-64.21
22.234,-55.42
22.250,-48.17
22.265,-42.97
22.281,-39.73
22.296,-37.56
22.312,-35.6
22.328,-32.93
22.343,-29.04
22.359,-23.66
22.375,-16.66
22.390,-8.52
22.406,0.25
22.421,8.62
22.437,15.77
22.453,20.98
22.468,23.92
22.484,24.81
22.500,24.17
22.515,22.75
22.531,21.28
22.546,20.33
22.562,19.84
22.578,19.58
22.593,19.03
22.609,17.44
22.625,14.33
22.640,9.74
22.656,4.21
22.671,-1.3
22.687,-5.61
22.703,-8.06
22.718,-8.36
22.734,-6.57
22.750,-3.39
22.765,0.46
22.781,4.24
22.796,7.58
22.812,10.06
22.828,11.75
22.843,12.56
22.859,12.45
22.875,11.62
22.890,10.09
22.906,7.98
22.921,5.27
22.937,2.06
22.953,-1.66
22.968,-5.53
22.984,-9.29
23.000,-12.61
23.015,-15.07
23.031,-16.35
23.046,-16.16
23.062,-14.31
23.078,-10.95
23.093,-6.5
23.109,-1.52
23.125,3.25
23.140,7.07
23.156,9.73
23.171,11.33
23.187,12.45
23.203,13.69
23.218,15.42
23.234,17.63
23.250,20.01
23.265,22.21
23.281,23.84
23.296,24.98
23.312,25.84
23.328,26.84
23.343,28.33
23.359,30.34
23.375,32.67
23.390,34.85
23.406,36.67
23.421,37.83
23.437,38.62
23.453,39.21
23.468,39.94
23.484,41.17
23.500,42.98
23.515,45.39
23.531,48.34
23.546,51.68
23.562,54.88
23.578,57.63
23.593,59.32
23.609,59.39
23.625,57.72
23.640,54.56
23.656,50.39
23.671,45.84
23.687,41.51
23.703,37.58
23.718,34.13
23.734,31.14
23.750,28.35
23.765,25.67
23.781,23.05
23.796,20.26
23.812,17.19
23.828,13.57
23.843,9.11
23.859,3.8
23.875,-1.8
23.890,-7.03
23.906,-10.71
23.921,-11.95
23.937,-10.27
23.953,-5.54
23.968,1.59
23.984,10.12
24.000,18.9
24.015,27.06
24.031,33.88
24.046,39.13
24.062,42.53
24.078,43.93
24.093,43.42
24.109,41.07
24.125,37.06
24.140,31.71
24.156,25.58
24.171,19.29
24.187,13.69
24.203,9.49
24.218,6.96
24.234,6.29
24.250,7.11
24.265,8.98
24.281,11.16
24.296,12.88
24.312,13.59
24.328,12.93
24.343,11.01
24.359,7.89
24.375,3.92
24.390,-0.75
24.406,-5.64
24.421,-10.42
24.437,-14.88
24.453,-18.65
24.468,-21.58
24.484,-23.75
24.500,-25.55
24.515,-27.53
24.531,-30.21
24.546,-33.71
24.562,-37.87
24.578,-42.25
24.593,-46.27
24.609,-49.48
24.625,-51.58
24.640,-52.63
24.656,-52.87
24.671,-52.74
24.687,-52.55
24.703,-52.53
24.718,-52.64
24.734,-52.29
24.750,-50.89
24.765,-47.72
24.781,-42.5
24.796,-35.66
24.812,-28.29
24.828,-21.77
24.843,-17.26
24.859,-15.22
24.875,-15.33
24.890,-16.93
24.906,-19.18
24.921,-21.47
24.937,-23.48
24.953,-25.07
24.968,-25.98
24.984,-26.14
25.000,-25.45
25.015,-24.14
25.031,-22.56
25.046,-20.98
25.062,-19.62
25.078,-18.26
25.093,-16.75
25.109,-14.89
25.125,-12.58
25.140,-10.11
25.156,-7.91
25.171,-6.45
25.187,-5.85
25.203,-6.02
25.218,-6.57
25.234,-7.06
25.250,-7.24
25.265,-7.03
25.281,-6.67
25.296,-6.31
25.312,-6.16
25.328,-5.95
25.343,-5.61
25.359,-5.23
25.375,-5.08
25.390,-5.64
25.406,-7.2
25.421,-9.8
25.437,-13.07
25.453,-16.56
25.468,-19.83
25.484,-22.99
25.500,-26.37
25.515,-30.53
25.531,-35.83
25.546,-42.01
25.562,-48.45
25.578,-54.04
25.593,-57.7
25.609,-58.55
25.625,-56.5
25.640,-51.79
25.656,-45.19
25.671,-37.65
25.687,-29.94
25.703,-22.66
25.718,-16.23
25.734,-10.89
25.750,-6.68
25.765,-3.63
25.781,-1.69
25.796,-0.42
25.812,0.32
25.828,0.89
25.843,1.63
25.859,2.52
25.875,3.56
25.890,4.7
25.906,5.94
25.921,7.17
25.937,8.51
25.953,9.71
25.968,10.88
25.984,12.24
26.000,14.08
26.015,16.57
26.031,19.77
26.046,23.34
26.062,26.89
26.078,30.12
26.093,32.65
26.109,34.53
26.125,35.6
26.140,35.76
26.156,34.74
26.171,32.48
26.187,28.86
26.203,24.14
26.218,18.78
26.234,13.04
26.250,7.25
26.265,1.61
26.281,-3.73
26.296,-8.39
26.312,-12.15
26.328,-15.18
26.343,-17.74
26.359,-20.23
26.375,-23.24
26.390,-26.98
26.406,-31.3
26.421,-35.98
26.437,-40.35
26.453,-43.73
26.468,-45.77
26.484,-46.15
26.500,-44.43
26.515,-40.58
26.531,-34.64
26.546,-27.12
26.562,-18.82
26.578,-10.77
26.593,-3.74
26.609,1.83
26.625,5.71
26.640,8.18
26.656,9.35
26.671,9.72
26.687,9.8
26.703,10.08
26.718,11.08
26.734,13.12
26.750,16.25
26.765,20.1
26.781,24.04
26.796,27.24
26.812,29.35
26.828,30.24
26.843,30.02
26.859,29.04
26.875,27.59
26.890,25.75
26.906,23.54
26.921,20.99
26.937,17.83
26.953,14.42
26.968,11.15
26.984,8.37
27.000,6.4
27.015,5.33
27.031,4.91
27.046,4.61
27.062,4.18
27.078,3.25
27.093,1.96
27.109,0.68
27.125,-0.33
27.140,-0.76
27.156,-0.73
27.171,-0.52
27.187,-0.35
27.203,-0.13
27.218,0.12
27.234,0.65
27.250,1.47
27.265,2.31
27.281,2.84
27.296,2.52
27.312,0.88
27.328,-2.28
27.343,-6.72
27.359,-11.98
27.375,-16.95
27.390,-20.48
27.406,-21.58
27.421,-19.75
27.437,-15.42
27.453,-9.62
27.468,-3.59
27.484,1.64
27.500,5.54
27.515,8.24
27.531,10.26
27.546,12.01
27.562,13.98
27.578,16.1
27.593,18.06
27.609,19.5
27.625,20.14
27.640,20.11
27.656,19.78
27.671,19.85
27.687,20.7
27.703,22.85
27.718,26.08
27.734,29.72
27.750,32.93
27.765,34.89
27.781,35.24
27.796,34.07
27.812,31.9
27.828,29.18
27.843,26.34
27.859,23.31
27.875,19.96
27.890,16.27
27.906,12.47
27.921,8.88
27.937,5.72
27.953,2.94
27.968,0.19
27.984,-2.96
28.000,-6.83
28.015,-11.4
28.031,-16.31
28.046,-21.01
28.062,-25.05
28.078,-28.18
28.093,-30.48
28.109,-32.23
28.125,-33.94
28.140,-35.94
28.156,-38.65
28.171,-42.18
28.187,-46.52
28.203,-51.35
28.218,-55.9
28.234,-59.0
28.250,-59.5
28.265,-56.71
28.281,-50.46
28.296,-41.56
28.312,-31.27
28.328,-21.01
28.343,-11.79
28.359,-4.05
28.375,2.37
28.390,7.87
28.406,12.72
28.421,16.95
28.437,20.34
28.453,22.53
28.468,23.42
28.484,23.22
28.500,22.43
28.515,21.67
28.531,21.45
28.546,21.89
28.562,22.76
28.578,23.7
28.593,24.34
28.609,24.72
28.625,24.93
28.640,25.29
28.656,25.76
28.671,26.24
28.687,26.47
28.703,26.28
28.718,25.54
28.734,24.34
28.750,22.94
28.765,21.28
28.781,19.44
28.796,17.26
28.812,14.65
28.828,11.51
28.843,7.99
28.859,4.02
28.875,-0.3
28.890,-4.79
28.906,-9.33
28.921,-13.56
28.937,-17.28
28.953,-20.41
28.968,-22.96
28.984,-25.06
29.000,-26.93
29.015,-28.74
29.031,-30.45
29.046,-31.84
29.062,-32.21
29.078,-30.8
29.093,-26.83
29.109,-19.63
29.125,-9.05
29.140,4.46
29.156,19.76
29.171,35.64
29.187,50.86
29.203,65.06
29.218,78.29
29.234,90.78
29.250,103.12
29.265,115.31
29.281,126.96
29.296,137.35
29.312,145.99
29.328,152.57
29.343,157.44
29.359,161.16
29.375,164.32
29.390,167.44
29.406,170.56
29.421,173.4
29.437,175.01
29.453,173.93
29.468,168.58
29.484,157.67
29.500,140.54
29.515,117.6
29.531,90.07
29.546,59.33
29.562,26.59
29.578,-7.69
29.593,-43.61
29.609,-80.79
29.625,-117.66
29.640,-151.29
29.656,-178.0
29.671,-194.45
29.687,-199.26
29.703,-193.53
29.718,-180.61
29.734,-165.06
29.750,-150.54
29.765,-138.47
29.781,-127.64
29.796,-114.92
29.812,-96.84
29.828,-71.19
29.843,-38.25
29.859,-0.89
29.875,36.04
29.890,66.68
29.906,85.28
29.921,87.28
29.937,70.65
29.953,36.7
29.968,-8.77
29.984,-56.7
30.000,-97.32
30.015,-123.12
30.031,-131.92
30.046,-127.36
30.062,-116.85
30.078,-107.5
30.093,-103.4
30.109,-103.85
30.125,-104.71
30.140,-101.07
30.156,-89.62
30.171,-69.95
30.187,-44.11
30.203,-15.16
30.218,14.18
30.234,41.64
30.250,65.37
30.265,83.45
30.281,93.94
30.296,95.53
30.312,88.0
30.328,72.94
30.343,53.4
30.359,33.53
30.375,17.07
30.390,6.47
30.406,2.26
30.421,3.03
30.437,6.39
30.453,9.73
30.468,11.41
30.484,11.09
30.500,9.58
30.515,8.11
30.531,7.74
30.546,8.47
30.562,9.31
30.578,8.63
30.593,5.05
30.609,-1.81
30.625,-11.26
30.640,-21.73
30.656,-31.81
30.671,-40.48
30.687,-47.68
30.703,-53.84
30.718,-59.58
30.734,-65.41
30.750,-71.41
30.765,-77.33
30.781,-82.55
30.796,-86.21
30.812,-87.04
30.828,-83.76
30.843,-75.6
30.859,-62.91
30.875,-47.11
30.890,-30.59
30.906,-15.63
30.921,-3.38
30.937,6.24
30.953,14.36
30.968,22.2
30.984,30.44
31.000,38.44
31.015,44.99
31.031,49.17
31.046,51.16
31.062,52.86
31.078,56.77
31.093,64.81
31.109,77.11
31.125,91.73
31.140,105.43
31.156,114.84
31.171,117.49
31.187,111.99
31.203,98.24
31.218,77.43
31.234,52.12
31.250,26.49
31.265,5.54
31.281,-6.61
31.296,-8.66
31.312,-3.26
31.328,3.36
31.343,3.93
31.359,-6.49
31.375,-28.36
31.390,-57.05
31.406,-84.87
31.421,-104.16
31.437,-110.23
31.453,-102.35
31.468,-83.69
31.484,-59.39
31.500,-34.82
31.515,-14.51
31.531,-1.55
31.546,2.07
31.562,-4.5
31.578,-20.7
31.593,-44.51
31.609,-72.39
31.625,-99.89
31.640,-122.19
31.656,-135.75
31.671,-138.87
31.687,-132.38
31.703,-119.38
31.718,-103.61
31.734,-88.66
31.750,-76.59
31.765,-67.73
31.781,-60.75
31.796,-53.94
31.812,-45.92
31.828,-36.25
31.843,-25.72
31.859,-15.57
31.875,-6.96
31.890,-0.56
31.906,3.76
31.921,6.85
31.937,9.44
31.953,12.04
31.968,14.88
31.984,17.73
32.000,20.16
32.015,21.97
32.031,23.16
32.046,24.04
32.062,24.73
32.078,25.37
32.093,25.69
32.109,25.53
32.125,24.57
32.140,22.86
32.156,20.58
32.171,17.87
32.187,15.18
32.203,12.57
32.218,9.96
32.234,7.01
32.250,3.62
32.265,-0.46
32.281,-4.97
32.296,-9.46
32.312,-13.64
32.328,-17.21
32.343,-20.1
32.359,-22.56
32.375,-24.95
32.390,-27.5
32.406,-30.52
32.421,-34.08
32.437,-37.95
32.453,-41.71
32.468,-44.51
32.484,-45.04
32.500,-42.46
32.515,-36.4
32.531,-27.5
32.546,-17.19
32.562,-6.97
32.578,2.21
32.593,10.15
32.609,17.4
32.625,24.74
32.640,32.39
32.656,40.2
32.671,47.38
32.687,53.19
32.703,57.45
32.718,60.52
32.734,62.79
32.750,64.77
32.765,66.56
32.781,68.01
32.796,69.19
32.812,70.14
32.828,71.0
32.843,72.0
32.859,73.59
32.875,75.61
32.890,77.91
32.906,80.1
32.921,81.84
32.937,82.94
32.953,83.53
32.968,83.79
32.984,84.2
33.000,85.07
33.015,86.31
33.031,87.69
33.046,88.7
33.062,88.92
33.078,88.13
33.093,86.68
33.109,85.05
33.125,83.8
33.140,83.32
33.156,83.55
33.171,84.26
33.187,84.96
33.203,85.08
33.218,84.37
33.234,82.57
33.250,79.73
33.265,75.67
33.281,70.46
33.296,63.89
33.312,55.98
33.328,46.78
33.343,35.93
33.359,23.25
33.375,8.28
33.390,-8.93
33.406,-27.83
33.421,-46.55
33.437,-62.82
33.453,-74.19
33.468,-79.27
33.484,-78.29
33.500,-72.64
33.515,-64.58
33.531,-56.33
33.546,-49.39
33.562,-44.15
33.578,-40.71
33.593,-38.53
33.609,-37.04
33.625,-35.97
33.640,-34.81
33.656,-33.16
33.671,-30.74
33.687,-27.26
33.703,-22.61
33.718,-16.87
33.734,-10.84
33.750,-5.22
33.765,-1.39
33.781,0.08
33.796,-0.71
33.812,-2.84
33.828,-4.87
33.843,-5.58
33.859,-4.33
33.875,-1.88
33.890,0.48
33.906,1.12
33.921,-0.72
33.937,-4.69
33.953,-9.17
33.968,-12.22
33.984,-12.45
34.000,-9.86
34.015,-5.99
34.031,-3.22
34.046,-3.63
34.062,-7.7
34.078,-14.09
34.093,-20.2
34.109,-23.39
34.125,-22.17
34.140,-16.66
34.156,-8.31
34.171,0.86
34.187,8.78
34.203,13.36
34.218,13.11
34.234,6.93
34.250,-4.96
34.265,-20.3
34.281,-34.64
34.296,-43.13
34.312,-42.56
34.328,-33.37
34.343,-20.65
34.359,-11.68
34.375,-12.77
34.390,-25.87
34.406,-46.98
34.421,-67.26
34.437,-77.18
34.453,-70.19
34.468,-45.31
34.484,-7.21
34.500,36.2
34.515,76.91
34.531,109.08
34.546,129.49
34.562,137.29
34.578,132.53
34.593,116.22
34.609,90.24
34.625,57.78
34.640,23.27
34.656,-8.25
34.671,-32.68
34.687,-47.75
34.703,-53.82
34.718,-53.82
34.734,-51.36
34.750,-49.73
34.765,-51.07
34.781,-55.55
34.796,-61.85
34.812,-68.37
34.828,-73.52
34.843,-76.64
34.859,-78.12
34.875,-78.85
34.890,-79.76
34.906,-81.57
34.921,-84.43
34.937,-87.77
34.953,-91.01
34.968,-93.68
34.984,-95.68
35.000,-97.28
35.015,-99.0
35.031,-100.93
35.046,-103.02
35.062,-104.71
35.078,-104.99
35.093,-102.99
35.109,-98.06
35.125,-89.9
35.140,-78.83
35.156,-65.55
35.171,-50.89
35.187,-35.78
35.203,-20.89
35.218,-6.62
35.234,6.56
35.250,18.37
35.265,28.66
35.281,37.27
35.296,44.02
35.312,48.88
35.328,52.08
35.343,53.99
35.359,55.38
35.375,56.86
35.390,59.02
35.406,62.02
35.421,65.62
35.437,69.07
35.453,71.63
35.468,72.75
35.484,72.09
35.500,69.86
35.515,66.16
35.531,61.35
35.546,55.71
35.562,49.49
35.578,42.79
35.593,35.88
35.609,28.98
35.625,22.32
35.640,16.22
35.656,10.89
35.671,6.4
35.687,2.6
35.703,-0.82
35.718,-4.4
35.734,-8.46
35.750,-13.14
35.765,-18.41
35.781,-23.88
35.796,-29.12
35.812,-33.75
35.828,-37.5
35.843,-40.43
35.859,-42.75
35.875,-44.9
35.890,-47.23
35.906,-49.97
35.921,-53.15
35.937,-56.41
35.953,-59.18
35.968,-60.55
35.984,-59.67
36.000,-55.71
36.015,-48.54
36.031,-38.57
36.046,-26.59
36.062,-13.69
36.078,-0.91
36.093,11.19
36.109,22.28
36.125,32.28
36.140,41.08
36.156,48.41
36.171,53.86
36.187,57.15
36.203,58.42
36.218,58.12
36.234,57.05
36.250,56.05
36.265,55.8
36.281,56.36
36.296,57.38
36.312,58.18
36.328,58.07
36.343,56.7
36.359,54.41
36.375,51.87
36.390,49.96
36.406,49.4
36.421,50.09
36.437,51.07
36.453,50.84
36.468,48.08
36.484,42.26
36.500,34.25
36.515,25.89
36.531,19.24
36.546,15.65
36.562,15.02
36.578,15.67
36.593,15.14
36.609,11.31
36.625,3.48
36.640,-7.15
36.656,-18.06
36.671,-26.21
36.687,-29.04
36.703,-25.09
36.718,-14.14
36.734,2.22
36.750,20.75
36.765,36.8
36.781,45.36
36.796,42.94
36.812,29.44
36.828,9.3
36.843,-10.14
36.859,-20.93
36.875,-18.89
36.890,-5.66
36.906,11.85
36.921,25.01
36.937,27.66
36.953,18.87
36.968,3.26
36.984,-11.96
37.000,-20.46
37.015,-19.48
37.031,-10.01
37.046,4.43
37.062,19.96
37.078,33.87
37.093,44.61
37.109,51.22
37.125,52.88
37.140,49.06
37.156,39.91
37.171,26.86
37.187,12.35
37.203,-0.93
37.218,-10.61
37.234,-15.53
37.250,-15.71
37.265,-12.27
37.281,-6.77
37.296,-0.74
37.312,4.42
37.328,7.84
37.343,8.97
37.359,7.76
37.375,4.64
37.390,0.37
37.406,-4.42
37.421,-9.31
37.437,-14.27
37.453,-19.74
37.468,-26.32
37.484,-34.29
37.500,-43.4
37.515,-52.99
37.531,-61.94
37.546,-69.4
37.562,-74.99
37.578,-78.98
37.593,-82.14
37.609,-85.37
37.625,-89.07
37.640,-92.93
37.656,-96.22
37.671,-97.61
37.687,-96.07
37.703,-91.01
37.718,-82.42
37.734,-70.98
37.750,-57.76
37.765,-43.96
37.781,-30.45
37.796,-17.85
37.812,-6.21
37.828,4.66
37.843,14.96
37.859,24.81
37.875,33.98
37.890,42.08
37.906,48.55
37.921,53.07
37.937,55.56
37.953,56.26
37.968,55.62
37.984,54.1
38.000,52.22
38.015,50.35
38.031,48.76
38.046,47.43
38.062,46.18
38.078,44.7
38.093,42.76
38.109,40.11
38.125,36.77
38.140,33.08
38.156,29.44
38.171,26.32
38.187,24.05
38.203,22.62
38.218,21.87
38.234,21.51
38.250,21.27
38.265,20.91
38.281,20.55
38.296,20.31
38.312,20.25
38.328,20.4
38.343,20.39
38.359,19.85
38.375,18.49
38.390,16.21
38.406,13.07
38.421,9.64
38.437,6.39
38.453,3.69
38.468,1.63
38.484,-0.01
38.500,-1.62
38.515,-3.42
38.531,-5.52
38.546,-7.81
38.562,-9.6
38.578,-10.19
38.593,-8.65
38.609,-4.21
38.625,3.47
38.640,14.33
38.656,27.92
38.671,43.28
38.687,59.28
38.703,74.95
38.718,89.25
38.734,101.52
38.750,111.54
38.765,119.45
38.781,125.61
38.796,130.42
38.812,133.98
38.828,136.16
38.843,136.76
38.859,135.18
38.875,131.34
38.890,125.39
38.906,117.67
38.921,108.92
38.937,99.76
38.953,90.68
38.968,81.9
38.984,73.63
39.000,65.58
39.015,57.61
39.031,49.66
39.046,41.54
39.062,33.46
39.078,25.59
39.093,18.17
39.109,11.49
39.125,5.91
39.140,1.52
39.156,-1.67
39.171,-3.99
39.187,-6.04
39.203,-8.36
39.218,-11.24
39.234,-14.78
39.250,-18.91
39.265,-23.31
39.281,-27.77
39.296,-31.97
39.312,-35.92
39.328,-39.8
39.343,-43.63
39.359,-47.55
39.375,-51.63
39.390,-55.89
39.406,-60.25
39.421,-64.51
39.437,-68.22
39.453,-70.81
39.468,-71.91
39.484,-71.1
39.500,-68.07
39.515,-62.82
39.531,-55.56
39.546,-46.77
39.562,-37.15
39.578,-27.4
39.593,-18.03
39.609,-9.47
39.625,-1.96
39.640,4.36
39.656,9.61
39.671,13.65
39.687,16.45
39.703,17.67
39.718,17.1
39.734,14.79
39.750,11.02
39.765,6.48
39.781,1.81
39.796,-2.11
39.812,-4.7
39.828,-5.56
39.843,-4.69
39.859,-2.25
39.875,1.33
39.890,5.24
39.906,8.62
39.921,10.41
39.937,9.98
39.953,7.11
39.968,2.33
39.984,-3.58
40.000,-9.8
40.015,-15.57
40.031,-20.66
40.046,-24.82
40.062,-28.12
40.078,-30.52
40.093,-32.02
40.109,-32.58
40.125,-32.23
40.140,-31.5
40.156,-30.72
40.171,-30.39
40.187,-30.68
40.203,-31.61
40.218,-33.03
40.234,-34.69
40.250,-36.34
40.265,-37.41
40.281,-37.45
40.296,-35.69
40.312,-31.36
40.328,-23.88
40.343,-13.11
40.359,0.29
40.375,15.35
40.390,30.57
40.406,44.89
40.421,57.53
40.437,68.15
40.453,76.74
40.468,83.46
40.484,88.61
40.500,92.47
40.515,95.62
40.531,98.57
40.546,101.93
40.562,105.85
40.578,109.98
40.593,113.56
40.609,115.51
40.625,115.31
40.640,112.77
40.656,108.23
40.671,102.41
40.687,95.68
40.703,87.85
40.718,77.95
40.734,64.46
40.750,45.64
40.765,20.74
40.781,-9.89
40.796,-44.74
40.812,-81.11
40.828,-116.1
40.843,-146.9
40.859,-171.43
40.875,-188.22
40.890,-196.95
40.906,-198.15
40.921,-192.92
40.937,-183.01
40.953,-170.03
40.968,-155.57
40.984,-140.49
41.000,-125.31
41.015,-110.19
41.031,-95.55
41.046,-82.28
41.062,-71.38
41.078,-63.82
41.093,-59.65
41.109,-58.22
41.125,-57.8
41.140,-56.2
41.156,-51.52
41.171,-42.9
41.187,-30.78
41.203,-16.92
41.218,-3.44
41.234,8.16
41.250,17.26
41.265,24.0
41.281,29.03
41.296,32.4
41.312,33.42
41.328,31.09
41.343,24.49
41.359,13.56
41.375,-0.44
41.390,-15.36
41.406,-29.2
41.421,-40.46
41.437,-48.88
41.453,-54.81
41.468,-59.03
41.484,-61.82
41.500,-63.1
41.515,-62.47
41.531,-59.77
41.546,-55.58
41.562,-50.87
41.578,-46.89
41.593,-44.46
41.609,-43.58
41.625,-43.54
41.640,-43.4
41.656,-42.12
41.671,-39.2
41.687,-34.54
41.703,-28.46
41.718,-21.75
41.734,-15.45
41.750,-10.48
41.765,-7.78
41.781,-7.99
41.796,-11.38
41.812,-18.06
41.828,-27.74
41.843,-39.83
41.859,-53.58
41.875,-68.0
41.890,-81.75
41.906,-93.42
41.921,-101.73
41.937,-105.55
41.953,-104.12
41.968,-97.32
41.984,-85.47
42.000,-68.91
42.015,-47.91
42.031,-22.58
42.046,6.91
42.062,39.89
42.078,75.48
42.093,112.31
42.109,148.7
42.125,182.56
42.140,210.98
42.156,230.75
42.171,238.52
42.187,231.77
42.203,210.01
42.218,175.42
42.234,132.41
42.250,85.86
42.265,39.07
42.281,-7.58
42.296,-55.56
42.312,-106.22
42.328,-158.32
42.343,-206.7
42.359,-243.01
42.375,-258.0
42.390,-244.77
42.406,-201.36
42.421,-132.04
42.437,-46.48
42.453,42.7
42.468,123.11
42.484,185.02
42.500,223.16
42.515,236.82
42.531,228.67
42.546,203.53
42.562,166.73
42.578,123.6
42.593,78.9
42.609,36.84
42.625,0.76
42.640,-27.63
42.656,-48.26
42.671,-62.32
42.687,-71.55
42.703,-77.26
42.718,-80.16
42.734,-80.66
42.750,-78.95
42.765,-75.51
42.781,-71.19
42.796,-67.27
42.812,-65.04
42.828,-65.55
42.843,-69.03
42.859,-74.77
42.875,-81.41
42.890,-86.83
42.906,-89.13
42.921,-86.97
42.937,-79.89
42.953,-68.58
42.968,-54.6
42.984,-39.94
43.000,-26.37
43.015,-15.19
43.031,-6.84
43.046,-1.07
43.062,2.51
43.078,4.61
43.093,5.66
43.109,5.89
43.125,5.18
43.140,3.61
43.156,1.13
43.171,-1.9
43.187,-4.8
43.203,-7.11
43.218,-8.1
43.234,-7.55
43.250,-5.52
43.265,-2.46
43.281,1.02
43.296,4.16
43.312,6.49
43.328,7.66
43.343,7.5
43.359,6.29
43.375,4.36
43.390,2.01
43.406,-0.42
43.421,-2.97
43.437,-5.72
43.453,-8.72
43.468,-11.86
43.484,-15.26
43.500,-18.63
43.515,-21.99
43.531,-25.42
43.546,-28.74
43.562,-32.07
43.578,-35.36
43.593,-38.81
43.609,-42.62
43.625,-47.28
43.640,-52.72
43.656,-58.59
43.671,-64.29
43.687,-68.65
43.703,-70.76
43.718,-69.77
43.734,-65.41
43.750,-57.85
43.765,-47.83
43.781,-36.33
43.796,-24.47
43.812,-13.0
43.828,-2.43
43.843,7.14
43.859,15.85
43.875,23.9
43.890,31.25
43.906,37.84
43.921,43.5
43.937,47.93
43.953,51.13
43.968,53.12
43.984,54.1
44.000,54.35
44.015,54.21
44.031,53.81
44.046,53.02
44.062,51.69
44.078,49.62
44.093,47.0
44.109,44.18
44.125,41.54
44.140,39.51
44.156,38.24
44.171,37.6
44.187,37.34
44.203,37.09
44.218,36.49
44.234,35.34
44.250,33.46
44.265,30.88
44.281,27.49
44.296,23.26
44.312,18.15
44.328,12.31
44.343,6.09
44.359,-0.28
44.375,-6.56
44.390,-12.96
44.406,-19.48
44.421,-26.16
44.437,-33.21
44.453,-40.45
44.468,-47.7
44.484,-54.6
44.500,-60.81
44.515,-66.01
44.531,-70.15
44.546,-72.93
44.562,-73.99
44.578,-73.13
44.593,-69.92
44.609,-64.03
44.625,-55.49
44.640,-44.67
44.656,-32.43
44.671,-20.18
44.687,-9.02
44.703,0.46
44.718,8.32
44.734,15.22
44.750,21.95
44.765,29.1
44.781,36.35
44.796,43.15
44.812,48.21
44.828,50.6
44.843,50.53
44.859,49.18
44.875,48.65
44.890,50.95
44.906,57.37
44.921,67.79
44.937,81.21
44.953,95.77
44.968,109.44
44.984,120.26
45.000,125.82
45.015,123.78
45.031,112.56
45.046,92.55
45.062,66.89
45.078,40.88
45.093,19.96
45.109,7.32
45.125,2.71
45.140,3.2
45.156,5.73
45.171,8.96
45.187,14.63
45.203,25.85
45.218,44.65
45.234,70.1
45.250,97.71
45.265,121.51
45.281,135.99
45.296,138.39
45.312,128.48
45.328,107.69
45.343,78.37
45.359,43.04
45.375,4.37
45.390,-34.92
45.406,-71.51
45.421,-102.53
45.437,-125.84
45.453,-140.41
45.468,-146.97
45.484,-147.12
45.500,-142.91
45.515,-136.3
45.531,-128.44
45.546,-119.48
45.562,-108.79
45.578,-95.62
45.593,-79.3
45.609,-60.11
45.625,-39.12
45.640,-18.18
45.656,0.61
45.671,15.14
45.687,24.34
45.703,28.1
45.718,27.38
45.734,24.18
45.750,20.46
45.765,17.87
45.781,17.11
45.796,18.27
45.812,20.88
45.828,24.37
45.843,28.14
45.859,31.53
45.875,34.24
45.890,35.69
45.906,35.6
45.921,33.72
45.937,30.08
45.953,25.26
45.968,19.76
45.984,14.35
46.000,9.56
46.015,5.8
46.031,3.18
46.046,1.67
46.062,1.05
46.078,0.61
46.093,-0.02
46.109,-1.65
46.125,-4.86
46.140,-9.97
46.156,-16.88
46.171,-25.11
46.187,-33.38
46.203,-40.03
46.218,-43.94
46.234,-44.32
46.250,-41.48
46.265,-36.69
46.281,-31.84
46.296,-28.79
46.312,-28.61
46.328,-31.38
46.343,-35.95
46.359,-41.09
46.375,-45.37
46.390,-47.73
46.406,-47.41
46.421,-43.96
46.437,-37.51
46.453,-28.3
46.468,-17.43
46.484,-6.01
46.500,4.41
46.515,12.69
46.531,18.16
46.546,20.79
46.562,21.32
46.578,20.5
46.593,19.33
46.609,18.45
46.625,18.25
46.640,18.75
46.656,19.91
46.671,21.32
46.687,22.52
46.703,23.33
46.718,23.62
46.734,23.37
46.750,22.79
46.765,22.1
46.781,21.5
46.796,21.03
46.812,20.76
46.828,20.39
46.843,19.98
46.859,19.36
46.875,18.62
46.890,17.7
46.906,16.51
46.921,14.98
46.937,12.78
46.953,9.81
46.968,5.95
46.984,1.46
47.000,-3.58
47.015,-8.82
47.031,-14.05
47.046,-19.04
47.062,-23.48
47.078,-27.22
47.093,-30.24
47.109,-32.62
47.125,-34.65
47.140,-36.91
47.156,-39.66
47.171,-43.06
47.187,-46.97
47.203,-50.81
47.218,-53.82
47.234,-55.1
47.250,-53.8
47.265,-49.37
47.281,-41.78
47.296,-31.6
47.312,-19.83
47.328,-7.81
47.343,3.63
47.359,13.68
47.375,22.2
47.390,29.38
47.406,35.42
47.421,40.44
47.437,44.4
47.453,47.22
47.468,48.8
47.484,49.54
47.500,49.87
47.515,50.14
47.531,50.57
47.546,51.18
47.562,51.87
47.578,52.78
47.593,54.18
47.609,56.27
47.625,59.23
47.640,62.99
47.656,67.02
47.671,70.76
47.687,73.62
47.703,75.16
47.718,75.34
47.734,74.56
47.750,73.14
47.765,71.65
47.781,70.52
47.796,69.86
47.812,69.69
47.828,69.73
47.843,69.57
47.859,68.99
47.875,67.97
47.890,66.66
47.906,65.36
47.921,64.35
47.937,63.51
47.953,62.53
47.968,60.86
47.984,57.77
48.000,53.18
48.015,47.03
48.031,39.54
48.046,31.28
48.062,22.72
48.078,14.23
48.093,6.33
48.109,-0.56
48.125,-6.59
48.140,-12.25
48.156,-18.95
48.171,-28.4
48.187,-41.62
48.203,-58.46
48.218,-77.46
48.234,-96.09
48.250,-111.95
48.265,-123.98
48.281,-132.19
48.296,-137.66
48.312,-141.15
48.328,-142.21
48.343,-139.12
48.359,-129.73
48.375,-112.47
48.390,-87.49
48.406,-57.01
48.421,-24.32
48.437,6.77
48.453,33.21
48.468,53.32
48.484,66.61
48.500,73.57
48.515,75.18
48.531,72.13
48.546,65.12
48.562,55.15
48.578,43.37
48.593,31.17
48.609,19.75
48.625,10.09
48.640,2.58
48.656,-2.78
48.671,-6.31
48.687,-8.52
48.703,-9.88
48.718,-10.92
48.734,-12.08
48.750,-13.65
48.765,-15.79
48.781,-18.67
48.796,-22.35
48.812,-27.0
48.828,-32.69
48.843,-39.02
48.859,-45.49
48.875,-51.33
48.890,-56.07
48.906,-59.66
48.921,-62.71
48.937,-66.19
48.953,-71.03
48.968,-77.74
48.984,-85.63
49.000,-93.43
49.015,-99.23
49.031,-101.52
49.046,-99.47
49.062,-93.08
49.078,-83.16
49.093,-70.79
49.109,-57.3
49.125,-43.63
49.140,-30.43
49.156,-18.14
49.171,-7.07
49.187,2.52
49.203,10.44
49.218,16.54
49.234,21.01
49.250,24.23
49.265,26.91
49.281,29.56
49.296,32.56
49.312,35.9
49.328,39.22
49.343,42.14
49.359,44.54
49.375,46.28
49.390,47.42
49.406,48.03
49.421,48.05
49.437,47.37
49.453,46.06
49.468,43.9
49.484,40.88
49.500,37.13
49.515,32.72
49.531,27.78
49.546,22.65
49.562,17.53
49.578,12.78
49.593,8.72
49.609,5.49
49.625,2.86
49.640,0.67
49.656,-1.49
49.671,-4.18
49.687,-7.46
49.703,-11.51
49.718,-16.17
49.734,-21.24
49.750,-26.52
49.765,-32.13
49.781,-38.12
49.796,-44.73
49.812,-52.07
49.828,-59.89
49.843,-67.72
49.859,-74.47
49.875,-79.03
49.890,-80.38
49.906,-77.82
49.921,-71.32
49.937,-61.55
49.953,-49.43
49.968,-35.98
49.984,-22.23
50.000,-8.75
50.015,4.25
50.031,16.63
50.046,28.69
50.062,40.5
50.078,51.61
50.093,61.33
50.109,68.66
50.125,72.59
50.140,72.64
50.156,69.4
50.171,64.06
50.187,58.39
50.203,53.75
50.218,50.75
50.234,49.12
50.250,48.22
50.265,47.26
50.281,46.05
50.296,44.8
50.312,43.88
50.328,43.64
50.343,43.85
50.359,44.03
50.375,43.68
50.390,42.38
50.406,39.94
50.421,36.61
50.437,32.86
50.453,28.9
50.468,24.88
50.484,20.71
50.500,16.22
50.515,11.51
50.531,6.47
50.546,1.15
50.562,-4.27
50.578,-9.62
50.593,-14.76
50.609,-19.63
50.625,-24.34
50.640,-29.01
50.656,-33.84
50.671,-39.08
50.687,-44.95
50.703,-51.57
50.718,-58.86
50.734,-66.81
50.750,-75.09
50.765,-83.26
50.781,-90.31
50.796,-94.96
50.812,-95.9
50.828,-92.09
50.843,-83.27
50.859,-70.04
50.875,-53.83
50.890,-36.23
50.906,-18.96
50.921,-3.14
50.937,10.71
50.953,22.65
50.968,32.8
50.984,41.23
51.000,47.82
51.015,52.32
51.031,54.64
51.046,54.87
51.062,53.38
51.078,50.76
51.093,47.78
51.109,45.06
51.125,42.89
51.140,41.43
51.156,40.61
51.171,40.26
51.187,40.21
51.203,40.2
51.218,40.1
51.234,39.84
51.250,39.37
51.265,38.41
51.281,36.88
51.296,34.56
51.312,31.63
51.328,28.31
51.343,24.95
51.359,21.87
51.375,18.93
51.390,16.07
51.406,12.87
51.421,9.25
51.437,5.14
51.453,0.77
51.468,-3.58
51.484,-7.74
51.500,-11.52
51.515,-15.09
51.531,-18.44
51.546,-21.65
51.562,-24.72
51.578,-27.56
51.593,-29.96
51.609,-31.68
51.625,-32.64
51.640,-32.8
51.656,-32.55
51.671,-32.56
51.687,-33.68
51.703,-36.4
51.718,-40.72
51.734,-45.83
51.750,-50.07
51.765,-51.83
51.781,-49.61
51.796,-42.72
51.812,-31.32
51.828,-16.35
51.843,0.76
51.859,18.29
51.875,34.37
51.890,47.51
51.906,56.68
51.921,61.72
51.937,63.44
51.953,63.0
51.968,61.7
51.984,60.26
52.000,58.98
52.015,57.66
52.031,56.18
52.046,54.55
52.062,53.05
52.078,52.02
52.093,51.56
52.109,51.58
52.125,51.61
52.140,51.12
52.156,49.91
52.171,47.95
52.187,45.21
52.203,41.95
52.218,38.46
52.234,34.72
52.250,30.58
52.265,25.83
52.281,20.16
52.296,13.77
52.312,7.15
52.328,0.77
52.343,-4.9
52.359,-9.43
52.375,-12.92
52.390,-15.72
52.406,-18.29
52.421,-21.18
52.437,-24.5
52.453,-28.2
52.468,-32.04
52.484,-35.74
52.500,-39.05
52.515,-42.05
52.531,-44.98
52.546,-48.21
52.562,-52.24
52.578,-57.15
52.593,-62.96
52.609,-69.33
52.625,-75.65
52.640,-80.98
52.656,-84.21
52.671,-84.13
52.687,-79.84
52.703,-71.32
52.718,-59.13
52.734,-44.55
52.750,-29.25
52.765,-14.6
52.781,-1.77
52.796,8.64
52.812,16.75
52.828,22.87
52.843,27.32
52.859,30.51
52.875,32.74
52.890,34.17
52.906,35.13
52.921,35.93
52.937,36.66
52.953,37.51
52.968,38.59
52.984,39.82
53.000,41.05
53.015,42.01
53.031,42.53
53.046,42.5
53.062,41.92
53.078,40.8
53.093,39.0
53.109,36.67
53.125,33.79
53.140,30.54
53.156,27.16
53.171,23.84
53.187,20.79
53.203,18.06
53.218,15.66
53.234,13.37
53.250,11.11
53.265,8.68
53.281,5.97
53.296,2.75
53.312,-1.14
53.328,-5.9
53.343,-11.6
53.359,-18.27
53.375,-25.49
53.390,-32.84
53.406,-39.87
53.421,-46.13
53.437,-51.44
53.453,-55.9
53.468,-60.0
53.484,-64.39
53.500,-69.55
53.515,-75.59
53.531,-82.12
53.546,-88.31
53.562,-93.0
53.578,-94.8
53.593,-92.69
53.609,-86.05
53.625,-75.12
53.640,-60.82
53.656,-44.48
53.671,-27.51
53.687,-11.11
53.703,3.92
53.718,17.3
53.734,28.73
53.750,38.2
53.765,45.67
53.781,51.19
53.796,55.03
53.812,57.62
53.828,59.47
53.843,61.11
53.859,62.87
53.875,64.93
53.890,67.46
53.906,70.38
53.921,73.19
53.937,74.98
53.953,74.78
53.968,72.01
53.984,67.04
54.000,60.85
54.015,54.74
54.031,49.68
54.046,45.94
54.062,43.03
54.078,40.14
54.093,36.7
54.109,32.7
54.125,28.62
54.140,24.9
54.156,21.55
54.171,18.29
54.187,14.65
54.203,10.3
54.218,5.31
54.234,0.01
54.250,-5.16
54.265,-9.96
54.281,-14.56
54.296,-19.42
54.312,-24.84
54.328,-30.89
54.343,-37.29
54.359,-43.37
54.375,-48.66
54.390,-52.92
54.406,-56.24
54.421,-58.91
54.437,-61.37
54.453,-64.02
54.468,-67.15
54.484,-70.83
54.500,-74.54
54.515,-77.56
54.531,-78.77
54.546,-77.01
54.562,-71.46
54.578,-61.95
54.593,-49.06
54.609,-34.04
54.625,-18.53
54.640,-3.69
54.656,9.32
54.671,20.19
54.687,29.02
54.703,36.12
54.718,41.74
54.734,45.96
54.750,48.72
54.765,49.96
54.781,49.94
54.796,48.84
54.812,47.21
54.828,45.6
54.843,44.27
54.859,43.47
54.875,43.19
54.890,43.28
54.906,43.52
54.921,43.84
54.937,44.03
54.953,44.14
54.968,44.24
54.984,44.08
55.000,43.53
55.015,42.25
55.031,40.08
55.046,36.98
55.062,33.22
55.078,29.01
55.093,24.68
55.109,20.47
55.125,16.22
55.140,12.06
55.156,7.87
55.171,3.67
55.187,-0.38
55.203,-4.07
55.218,-7.29
55.234,-10.21
55.250,-13.09
55.265,-16.3
55.281,-19.99
55.296,-24.12
55.312,-28.57
55.328,-32.97
55.343,-37.1
55.359,-40.84
55.375,-44.2
55.390,-47.43
55.406,-50.78
55.421,-54.52
55.437,-58.93
55.453,-64.12
55.468,-69.73
55.484,-75.02
55.500,-78.78
55.515,-79.55
55.531,-76.4
55.546,-68.97
55.562,-57.69
55.578,-43.8
55.593,-28.98
55.609,-14.65
55.625,-1.87
55.640,8.82
55.656,17.37
55.671,23.75
55.687,27.98
55.703,30.19
55.718,30.72
55.734,30.1
55.750,28.91
55.765,27.67
55.781,26.65
55.796,26.02
55.812,25.7
55.828,25.61
55.843,25.64
55.859,25.85
55.875,26.33
55.890,27.02
55.906,27.97
55.921,29.02
55.937,30.05
55.953,30.89
55.968,31.27
55.984,30.84
56.000,29.11
56.015,26.09
56.031,21.87
56.046,16.98
56.062,11.94
56.078,7.34
56.093,3.44
56.109,0.4
56.125,-1.79
56.140,-3.38
56.156,-4.52
56.171,-5.47
56.187,-6.57
56.203,-8.09
56.218,-10.32
56.234,-13.3
56.250,-16.73
56.265,-20.29
56.281,-23.65
56.296,-26.75
56.312,-29.66
56.328,-32.62
56.343,-35.88
56.359,-39.73
56.375,-44.16
56.390,-48.88
56.406,-53.13
56.421,-55.8
56.437,-55.75
56.453,-52.08
56.468,-44.3
56.484,-32.65
56.500,-18.3
56.515,-2.75
56.531,12.13
56.546,24.89
56.562,34.66
56.578,41.27
56.593,44.97
56.609,46.4
56.625,46.32
56.640,45.27
56.656,43.71
56.671,42.08
56.687,40.66
56.703,39.93
56.718,40.19
56.734,41.42
56.750,43.54
56.765,46.06
56.781,48.5
56.796,50.39
56.812,51.63
56.828,52.18
56.843,52.24
56.859,51.81
56.875,50.65
56.890,48.41
56.906,44.64
56.921,39.18
56.937,32.24
56.953,24.4
56.968,16.36
56.984,8.79
57.000,2.06
57.015,-3.78
57.031,-8.97
57.046,-13.97
57.062,-19.1
57.078,-24.53
57.093,-30.29
57.109,-36.22
57.125,-42.2
57.140,-47.91
57.156,-53.1
57.171,-57.52
57.187,-61.22
57.203,-64.3
57.218,-67.22
57.234,-70.79
57.250,-75.53
57.265,-81.72
57.281,-88.83
57.296,-95.66
57.312,-100.35
57.328,-101.11
57.343,-96.8
57.359,-87.27
57.375,-73.61
57.390,-57.6
57.406,-41.19
57.421,-25.81
57.437,-12.22
57.453,-0.28
57.468,10.33
57.484,20.01
57.500,28.82
57.515,36.6
57.531,43.01
57.546,47.69
57.562,50.47
57.578,51.1
57.593,49.85
57.609,47.11
57.625,43.58
57.640,40.12
57.656,37.41
57.671,36.05
57.687,36.12
57.703,37.48
57.718,39.34
57.734,41.09
57.750,42.12
57.765,42.06
57.781,40.92
57.796,38.57
57.812,34.95
57.828,29.97
57.843,23.8
57.859,16.22
57.875,7.45
57.890,-2.36
57.906,-12.83
57.921,-23.35
57.937,-33.38
57.953,-42.2
57.968,-49.43
57.984,-54.57
58.000,-57.7
58.015,-58.73
58.031,-58.15
58.046,-56.45
58.062,-54.06
58.078,-51.8
58.093,-50.19
58.109,-49.82
58.125,-50.98
58.140,-53.84
58.156,-58.23
58.171,-63.93
58.187,-70.58
58.203,-77.02
58.218,-82.15
58.234,-84.6
58.250,-83.15
58.265,-77.36
58.281,-67.43
58.296,-54.17
58.312,-38.89
58.328,-23.3
58.343,-8.34
58.359,5.24
58.375,17.3
58.390,28.13
58.406,38.11
58.421,47.42
58.437,56.05
58.453,63.84
58.468,70.22
58.484,75.13
58.500,78.38
58.515,80.17
58.531,80.79
58.546,80.49
58.562,79.5
58.578,77.98
58.593,76.25
58.609,74.45
58.625,73.06
58.640,72.23
58.656,71.9
58.671,71.84
58.687,71.4
58.703,70.02
58.718,67.43
58.734,63.45
58.750,58.24
58.765,52.17
58.781,45.41
58.796,38.24
58.812,31.04
58.828,23.96
58.843,17.3
58.859,11.22
58.875,5.66
58.890,0.46
58.906,-4.54
58.921,-9.74
58.937,-15.2
58.953,-20.67
58.968,-25.98
58.984,-30.85
59.000,-35.02
59.015,-38.47
59.031,-41.38
59.046,-44.18
59.062,-47.56
59.078,-51.88
59.093,-56.86
59.109,-61.79
59.125,-65.37
59.140,-65.95
59.156,-62.18
59.171,-53.41
59.187,-39.98
59.203,-23.29
59.218,-5.32
59.234,12.06
59.250,27.29
59.265,39.53
59.281,48.55
59.296,54.46
59.312,57.79
59.328,59.01
59.343,58.74
59.359,57.49
59.375,55.74
59.390,53.79
59.406,52.14
59.421,50.97
59.437,50.29
59.453,50.09
59.468,50.18
59.484,50.43
59.500,50.6
59.515,50.6
59.531,50.2
59.546,49.4
59.562,48.08
59.578,46.18
59.593,43.73
59.609,40.66
59.625,36.95
59.640,32.46
59.656,27.18
59.671,20.97
59.687,14.19
59.703,7.22
59.718,0.4
59.734,-5.82
59.750,-11.31
59.765,-16.05
59.781,-20.34
59.796,-24.35
59.812,-28.5
59.828,-32.92
59.843,-37.41
59.859,-41.97
59.875,-46.33
59.890,-50.54
59.906,-54.72
59.921,-59.22
59.937,-64.45
59.953,-70.57
59.968,-77.52
59.984,-84.63
