timestamp,value
00.000,-240.66
00.015,-195.46
00.031,-142.06
00.046,-83.51
00.062,-21.65
00.078,41.76
00.093,104.1
00.109,161.18
00.125,207.96
00.140,239.82
00.156,253.98
00.171,249.47
00.187,226.99
00.203,188.68
00.218,137.89
00.234,79.54
00.250,19.98
00.265,-33.59
00.281,-74.47
00.296,-97.54
00.312,-100.4
00.328,-83.43
00.343,-48.6
00.359,0.9
00.375,61.7
00.390,129.67
00.406,199.56
00.421,264.84
00.437,318.01
00.453,352.45
00.468,364.18
00.484,353.08
00.500,321.92
00.515,275.31
00.531,217.26
00.546,150.18
00.562,75.04
00.578,-7.5
00.593,-95.75
00.609,-185.67
00.625,-271.11
00.640,-345.56
00.656,-403.51
00.671,-441.8
00.687,-459.82
00.703,-458.75
00.718,-440.82
00.734,-409.02
00.750,-366.11
00.765,-314.85
00.781,-258.48
00.796,-200.04
00.812,-141.53
00.828,-82.44
00.843,-19.67
00.859,50.51
00.875,125.63
00.890,197.04
00.906,252.86
00.921,283.83
00.937,287.67
00.953,268.78
00.968,235.42
00.984,196.04
01.000,156.63
01.015,118.6
01.031,81.77
01.046,45.6
01.062,9.7
01.078,-25.97
01.093,-61.49
01.109,-96.99
01.125,-133.73
01.140,-171.14
01.156,-208.3
01.171,-241.95
01.187,-267.83
01.203,-282.08
01.218,-282.02
01.234,-266.98
01.250,-238.01
01.265,-197.3
01.281,-143.62
01.296,-82.28
01.312,-19.0
01.328,41.86
01.343,97.71
01.359,146.9
01.375,186.86
01.390,213.54
01.406,222.18
01.421,209.54
01.437,175.56
01.453,126.28
01.468,72.18
01.484,24.17
01.500,-9.78
01.515,-27.53
01.531,-32.15
01.546,-29.11
01.562,-23.37
01.578,-18.17
01.593,-13.85
01.609,-9.45
01.625,-4.84
01.640,-0.83
01.656,1.26
01.671,0.7
01.687,-1.93
01.703,-5.0
01.718,-7.0
01.734,-6.79
01.750,-4.2
01.765,0.09
01.781,5.21
01.796,10.39
01.812,15.68
01.828,21.88
01.843,30.38
01.859,42.12
01.875,57.42
01.890,75.0
01.906,92.61
01.921,108.51
01.937,120.24
01.953,126.22
01.968,125.74
01.984,118.8
02.000,105.97
02.015,88.75
02.031,68.57
02.046,46.55
02.062,24.43
02.078,3.74
02.093,-13.79
02.109,-26.78
02.125,-34.5
02.140,-36.86
02.156,-34.51
02.171,-29.09
02.187,-22.77
02.203,-17.38
02.218,-14.48
02.234,-14.6
02.250,-17.72
02.265,-23.51
02.281,-30.73
02.296,-37.32
02.312,-41.28
02.328,-40.45
02.343,-33.64
02.359,-20.63
02.375,-1.44
02.390,23.21
02.406,50.87
02.421,78.7
02.437,104.07
02.453,124.58
02.468,138.74
02.484,145.84
02.500,145.48
02.515,138.49
02.531,126.48
02.546,110.52
02.562,92.01
02.578,72.65
02.593,54.11
02.609,37.56
02.625,23.12
02.640,10.06
02.656,-3.22
02.671,-12.89
02.687,-18.43
02.703,-20.51
02.718,-20.44
02.734,-19.76
02.750,-19.73
02.765,-20.95
02.781,-23.44
02.796,-26.14
02.812,-27.49
02.828,-25.94
02.843,-19.34
02.859,-5.58
02.875,16.73
02.890,47.91
02.906,87.69
02.921,134.39
02.937,185.59
02.953,237.98
02.968,287.53
02.984,330.49
03.000,363.83
03.015,385.7
03.031,395.23
03.046,393.16
03.062,381.37
03.078,362.63
03.093,340.16
03.109,317.0
03.125,295.76
03.140,278.27
03.156,265.45
03.171,257.0
03.187,251.74
03.203,247.65
03.218,242.62
03.234,234.3
03.250,220.44
03.265,199.22
03.281,169.58
03.296,130.95
03.312,82.88
03.328,25.98
03.343,-38.69
03.359,-109.27
03.375,-183.43
03.390,-258.83
03.406,-333.01
03.421,-403.58
03.437,-468.55
03.453,-526.53
03.468,-576.58
03.484,-618.3
03.500,-651.89
03.515,-677.7
03.531,-695.6
03.546,-704.93
03.562,-703.99
03.578,-690.78
03.593,-663.66
03.609,-622.66
03.625,-569.68
03.640,-508.17
03.656,-442.24
03.671,-375.11
03.687,-309.57
03.703,-247.78
03.718,-191.7
03.734,-143.27
03.750,-103.88
03.765,-73.75
03.781,-52.25
03.796,-38.0
03.812,-29.59
03.828,-25.78
03.843,-25.31
03.859,-26.46
03.875,-27.35
03.890,-26.25
03.906,-21.98
03.921,-14.59
03.937,-5.02
03.953,5.56
03.968,16.54
03.984,27.91
04.000,40.03
04.015,53.09
04.031,67.18
04.046,82.33
04.062,99.14
04.078,118.78
04.093,143.1
04.109,173.5
04.125,209.43
04.140,247.64
04.156,282.27
04.171,307.14
04.187,317.61
04.203,312.35
04.218,293.33
04.234,264.24
04.250,228.77
04.265,189.36
04.281,147.74
04.296,105.47
04.312,65.07
04.328,29.56
04.343,0.68
04.359,-22.58
04.375,-44.16
04.390,-68.49
04.406,-97.77
04.421,-130.0
04.437,-159.86
04.453,-181.74
04.468,-192.94
04.484,-195.04
04.500,-192.83
04.515,-190.97
04.531,-190.77
04.546,-190.01
04.562,-185.28
04.578,-174.74
04.593,-159.4
04.609,-142.51
04.625,-126.56
04.640,-111.33
04.656,-93.89
04.671,-70.07
04.687,-37.01
04.703,4.91
04.718,51.54
04.734,95.86
04.750,129.24
04.765,144.03
04.781,136.87
04.796,109.73
04.812,69.17
04.828,24.14
04.843,-17.13
04.859,-49.62
04.875,-72.52
04.890,-88.11
04.906,-99.8
04.921,-109.02
04.937,-114.06
04.953,-111.0
04.968,-95.98
04.984,-67.55
05.000,-27.32
05.015,21.36
05.031,74.92
05.046,130.91
05.062,188.26
05.078,245.41
05.093,299.83
05.109,347.54
05.125,383.7
05.140,404.88
05.156,410.75
05.171,403.83
05.187,388.33
05.203,369.12
05.218,349.75
05.234,333.33
05.250,322.44
05.265,317.68
05.281,318.23
05.296,322.15
05.312,326.42
05.328,327.7
05.343,323.45
05.359,311.58
05.375,290.27
05.390,257.22
05.406,207.02
05.421,134.61
05.437,38.87
05.453,-76.1
05.468,-201.09
05.484,-323.99
05.500,-433.49
05.515,-520.72
05.531,-581.81
05.546,-621.28
05.562,-645.19
05.578,-656.94
05.593,-657.51
05.609,-647.56
05.625,-630.31
05.640,-611.25
05.656,-595.57
05.671,-588.57
05.687,-598.39
05.703,-627.31
05.718,-668.61
05.734,-709.0
05.750,-733.9
05.765,-734.18
05.781,-706.72
05.796,-652.32
05.812,-578.71
05.828,-502.74
05.843,-438.57
05.859,-392.11
05.875,-361.61
05.890,-341.76
05.906,-331.2
05.921,-331.14
05.937,-342.86
05.953,-311.01
05.968,-207.42
05.984,-44.32
06.000,133.67
06.015,284.33
06.031,391.27
06.046,454.47
06.062,482.06
06.078,484.58
06.093,454.29
06.109,389.12
06.125,291.46
06.140,170.65
06.156,43.04
06.171,-72.11
06.187,-165.34
06.203,-234.21
06.218,-243.13
06.234,-185.58
06.250,-78.07
06.265,53.75
06.281,186.16
06.296,295.82
06.312,392.36
06.328,482.77
06.343,569.44
06.359,652.77
06.375,728.47
06.390,785.94
06.406,822.47
06.421,843.09
06.437,839.44
06.453,809.39
06.468,750.75
06.484,667.3
06.500,568.2
06.515,459.72
06.531,348.61
06.546,242.37
06.562,147.39
06.578,68.11
06.593,9.84
06.609,-28.44
06.625,-49.78
06.640,-57.81
06.656,-59.33
06.671,-59.85
06.687,-62.65
06.703,-69.58
06.718,-81.07
06.734,-93.18
06.750,-104.06
06.765,-112.74
06.781,-119.12
06.796,-125.48
06.812,-134.19
06.828,-146.8
06.843,-163.93
06.859,-185.31
06.875,-208.34
06.890,-231.08
06.906,-251.54
06.921,-269.96
06.937,-285.38
06.953,-297.47
06.968,-305.85
06.984,-310.17
07.000,-309.22
07.015,-301.14
07.031,-284.82
07.046,-259.62
07.062,-225.72
07.078,-184.05
07.093,-136.73
07.109,-86.81
07.125,-38.1
07.140,6.34
07.156,43.6
07.171,71.32
07.187,87.63
07.203,91.98
07.218,85.26
07.234,69.49
07.250,47.46
07.265,22.17
07.281,-1.99
07.296,-22.07
07.312,-35.83
07.328,-42.24
07.343,-40.54
07.359,-30.07
07.375,-9.9
07.390,21.12
07.406,56.15
07.421,91.08
07.437,121.4
07.453,142.74
07.468,151.95
07.484,147.61
07.500,130.64
07.515,104.61
07.531,74.42
07.546,45.53
07.562,24.03
07.578,13.97
07.593,17.65
07.609,35.03
07.625,64.09
07.640,101.35
07.656,143.01
07.671,186.02
07.687,228.56
07.703,270.73
07.718,312.05
07.734,351.1
07.750,384.47
07.765,407.99
07.781,418.28
07.796,413.52
07.812,393.91
07.828,361.36
07.843,319.5
07.859,271.98
07.875,222.18
07.890,171.86
07.906,120.8
07.921,67.56
07.937,10.76
07.953,-49.0
07.968,-107.49
07.984,-156.85
08.000,-188.48
08.015,-195.92
08.031,-178.14
08.046,-139.94
08.062,-89.66
08.078,-36.08
08.093,15.04
08.109,62.24
08.125,107.15
08.140,152.37
08.156,199.55
08.171,248.29
08.187,296.19
08.203,339.85
08.218,375.27
08.234,399.21
08.250,408.97
08.265,402.35
08.281,377.98
08.296,334.73
08.312,272.07
08.328,191.25
08.343,96.61
08.359,-4.58
08.375,-102.44
08.390,-186.74
08.406,-249.09
08.421,-284.33
08.437,-292.37
08.453,-277.42
08.468,-245.85
08.484,-204.56
08.500,-160.01
08.515,-117.54
08.531,-81.11
08.546,-52.57
08.562,-31.29
08.578,-16.34
08.593,-6.43
08.609,0.66
08.625,7.67
08.640,17.18
08.656,30.12
08.671,44.27
08.687,54.32
08.703,52.98
08.718,30.68
08.734,-20.64
08.750,-104.21
08.765,-217.52
08.781,-352.54
08.796,-498.44
08.812,-644.2
08.828,-780.84
08.843,-885.66
08.859,-936.11
08.875,-918.65
08.890,-837.0
08.906,-710.69
08.921,-563.59
08.937,-414.28
08.953,-272.83
08.968,-143.23
08.984,-27.24
09.000,71.7
09.015,148.73
09.031,202.52
09.046,232.39
09.062,239.18
09.078,226.07
09.093,199.23
09.109,166.55
09.125,136.64
09.140,114.98
09.156,103.21
09.171,99.31
09.187,99.55
09.203,101.94
09.218,103.25
09.234,104.58
09.250,109.18
09.265,120.82
09.281,140.96
09.296,167.76
09.312,197.27
09.328,225.07
09.343,248.65
09.359,268.16
09.375,285.71
09.390,303.49
09.406,322.68
09.421,342.63
09.437,360.25
09.453,371.3
09.468,372.19
09.484,361.11
09.500,338.26
09.515,305.53
09.531,265.2
09.546,219.17
09.562,168.89
09.578,115.48
09.593,60.79
09.609,7.61
09.625,-40.72
09.640,-81.15
09.656,-111.89
09.671,-133.04
09.687,-146.74
09.703,-156.23
09.718,-164.42
09.734,-172.76
09.750,-180.97
09.765,-187.64
09.781,-190.85
09.796,-189.3
09.812,-182.69
09.828,-172.36
09.843,-160.43
09.859,-148.69
09.875,-138.25
09.890,-129.5
09.906,-122.91
09.921,-119.12
09.937,-119.08
09.953,-122.91
09.968,-128.91
09.984,-133.09
10.000,-130.77
10.015,-119.05
10.031,-98.76
10.046,-75.25
10.062,-56.05
10.078,-47.38
10.093,-50.73
10.109,-61.96
10.125,-73.45
10.140,-78.1
10.156,-72.78
10.171,-59.44
10.187,-43.75
10.203,-32.07
10.218,-27.83
10.234,-29.52
10.250,-31.59
10.265,-26.74
10.281,-8.86
10.296,24.84
10.312,73.33
10.328,131.96
10.343,194.06
10.359,252.94
10.375,303.31
10.390,341.5
10.406,365.59
10.421,375.24
10.437,371.47
10.453,356.47
10.468,332.87
10.484,304.31
10.500,274.95
10.515,248.84
10.531,228.72
10.546,214.8
10.562,204.92
10.578,195.4
10.593,182.64
10.609,162.87
10.625,134.02
10.640,95.87
10.656,49.7
10.671,-2.54
10.687,-58.19
10.703,-113.56
10.718,-163.17
10.734,-200.24
10.750,-221.06
10.765,-224.94
10.781,-214.42
10.796,-193.98
10.812,-168.68
10.828,-143.24
10.843,-121.76
10.859,-107.42
10.875,-103.06
10.890,-115.09
10.906,-150.17
10.921,-211.99
10.937,-298.55
10.953,-402.69
10.968,-514.85
10.984,-625.98
11.000,-729.33
11.015,-797.89
11.031,-808.25
11.046,-749.88
11.062,-633.15
11.078,-483.38
11.093,-327.03
11.109,-182.25
11.125,-57.44
11.140,45.48
11.156,127.93
11.171,189.48
11.187,229.43
11.203,248.2
11.218,249.59
11.234,239.94
11.250,225.7
11.265,212.59
11.281,204.48
11.296,203.14
11.312,206.87
11.328,212.56
11.343,217.04
11.359,219.45
11.375,220.77
11.390,221.82
11.406,223.56
11.421,228.48
11.437,235.88
11.453,243.0
11.468,246.29
11.484,242.29
11.500,228.87
11.515,205.57
11.531,172.53
11.546,130.17
11.562,79.5
11.578,21.88
11.593,-40.2
11.609,-102.25
11.625,-157.52
11.640,-198.12
11.656,-217.9
11.671,-215.01
11.687,-193.15
11.703,-160.44
11.718,-126.67
11.734,-99.36
11.750,-82.61
11.765,-77.0
11.781,-80.48
11.796,-90.63
11.812,-105.41
11.828,-123.31
11.843,-142.63
11.859,-161.35
11.875,-176.31
11.890,-185.0
11.906,-186.58
11.921,-181.67
11.937,-171.88
11.953,-159.19
11.968,-144.94
11.984,-129.48
12.000,-112.92
12.015,-94.89
12.031,-74.96
12.046,-53.37
12.062,-30.72
12.078,-7.63
12.093,15.52
12.109,39.12
12.125,64.26
12.140,91.97
12.156,122.91
12.171,157.17
12.187,194.38
12.203,233.67
12.218,273.77
12.234,313.22
12.250,351.03
12.265,386.46
12.281,419.36
12.296,449.85
12.312,477.82
12.328,502.01
12.343,519.24
12.359,524.74
12.375,513.38
12.390,481.43
12.406,427.89
12.421,355.11
12.437,267.84
12.453,172.44
12.468,75.09
12.484,-18.32
12.500,-102.49
12.515,-172.73
12.531,-225.53
12.546,-259.27
12.562,-274.56
12.578,-274.05
12.593,-261.14
12.609,-239.53
12.625,-212.15
12.640,-182.06
12.656,-152.58
12.671,-127.55
12.687,-110.76
12.703,-105.59
12.718,-113.55
12.734,-133.0
12.750,-159.84
12.765,-188.55
12.781,-213.84
12.796,-231.22
12.812,-237.53
12.828,-230.91
12.843,-211.17
12.859,-178.98
12.875,-134.91
12.890,-81.13
12.906,-21.46
12.921,39.6
12.937,98.6
12.953,154.67
12.968,209.05
12.984,262.83
13.000,305.04
13.015,322.48
13.031,305.76
13.046,255.68
13.062,183.18
13.078,102.92
13.093,27.11
13.109,-34.28
13.125,-83.6
13.140,-124.74
13.156,-159.17
13.171,-186.45
13.187,-205.48
13.203,-215.48
13.218,-214.25
13.234,-202.74
13.250,-183.56
13.265,-160.9
13.281,-137.91
13.296,-115.98
13.312,-95.11
13.328,-75.53
13.343,-58.3
13.359,-44.99
13.375,-37.37
13.390,-35.68
13.406,-38.67
13.421,-43.24
13.437,-46.39
13.453,-47.33
13.468,-48.84
13.484,-55.99
13.500,-72.69
13.515,-99.34
13.531,-131.26
13.546,-161.28
13.562,-183.09
13.578,-193.74
13.593,-194.54
13.609,-188.9
13.625,-179.61
13.640,-167.45
13.656,-153.14
13.671,-138.76
13.687,-129.21
13.703,-130.39
13.718,-145.03
13.734,-169.89
13.750,-195.77
13.765,-211.67
13.781,-209.61
13.796,-188.5
13.812,-152.84
13.828,-109.47
13.843,-63.95
13.859,-18.59
13.875,26.46
13.890,70.58
13.906,111.11
13.921,144.04
13.937,165.72
13.953,175.47
13.968,175.62
13.984,169.98
14.000,162.27
14.015,154.87
14.031,148.4
14.046,143.01
14.062,139.24
14.078,137.59
14.093,138.79
14.109,143.45
14.125,151.79
14.140,163.82
14.156,178.76
14.171,194.62
14.187,208.28
14.203,216.35
14.218,216.3
14.234,207.84
14.250,193.65
14.265,178.79
14.281,168.59
14.296,166.48
14.312,172.76
14.328,184.5
14.343,197.21
14.359,206.97
14.375,211.81
14.390,211.47
14.406,206.33
14.421,196.5
14.437,181.6
14.453,162.21
14.468,140.51
14.484,120.55
14.500,107.13
14.515,103.7
14.531,110.05
14.546,122.07
14.562,133.33
14.578,137.88
14.593,132.76
14.609,118.5
14.625,98.53
14.640,77.36
14.656,58.55
14.671,43.88
14.687,32.84
14.703,22.89
14.718,10.54
14.734,-7.18
14.750,-31.44
14.765,-60.44
14.781,-89.73
14.796,-114.12
14.812,-129.71
14.828,-135.67
14.843,-134.68
14.859,-131.04
14.875,-128.03
14.890,-126.56
14.906,-124.82
14.921,-120.11
14.937,-111.05
14.953,-98.47
14.968,-84.92
14.984,-73.18
15.000,-64.26
15.015,-57.14
15.031,-49.97
15.046,-41.35
15.062,-31.75
15.078,-23.35
15.093,-18.6
15.109,-18.14
15.125,-20.01
15.140,-20.17
15.156,-14.93
15.171,-3.28
15.187,12.38
15.203,27.62
15.218,38.07
15.234,41.62
15.250,39.01
15.265,32.75
15.281,25.6
15.296,19.21
15.312,13.69
15.328,8.06
15.343,0.95
15.359,-8.62
15.375,-20.22
15.390,-32.67
15.406,-44.23
15.421,-53.53
15.437,-60.17
15.453,-64.54
15.468,-67.55
15.484,-69.74
15.500,-70.82
15.515,-69.61
15.531,-65.28
15.546,-57.98
15.562,-48.89
15.578,-39.25
15.593,-29.48
15.609,-18.86
15.625,-6.36
15.640,8.01
15.656,22.52
15.671,34.35
15.687,40.74
15.703,40.57
15.718,34.76
15.734,25.66
15.750,15.87
15.765,7.35
15.781,0.89
15.796,-3.53
15.812,-6.33
15.828,-8.03
15.843,-9.24
15.859,-10.9
15.875,-13.88
15.890,-18.47
15.906,-23.89
15.921,-28.49
15.937,-30.51
15.953,-29.32
15.968,-26.43
15.984,-24.82
16.000,-27.42
16.015,-34.99
16.031,-45.26
16.046,-53.62
16.062,-55.95
16.078,-51.2
16.093,-42.97
16.109,-37.97
16.125,-42.15
16.140,-57.24
16.156,-79.15
16.171,-99.93
16.187,-111.66
16.203,-110.5
16.218,-97.83
16.234,-78.84
16.250,-59.04
16.265,-41.37
16.281,-25.89
16.296,-10.9
16.312,4.8
16.328,21.01
16.343,36.25
16.359,49.46
16.375,61.41
16.390,74.65
16.406,92.11
16.421,114.64
16.437,140.28
16.453,164.94
16.468,184.71
16.484,197.63
16.500,204.4
16.515,207.59
16.531,209.51
16.546,210.89
16.562,210.35
16.578,205.49
16.593,194.48
16.609,176.99
16.625,154.72
16.640,130.31
16.656,106.24
16.671,84.0
16.687,63.65
16.703,43.68
16.718,21.54
16.734,-5.22
16.750,-38.06
16.765,-76.1
16.781,-116.59
16.796,-155.72
16.812,-189.78
16.828,-216.37
16.843,-234.92
16.859,-246.64
16.875,-253.05
16.890,-255.04
16.906,-251.88
16.921,-241.6
16.937,-222.42
16.953,-194.74
16.968,-161.89
16.984,-130.15
17.000,-106.54
17.015,-95.84
17.031,-98.73
17.046,-111.17
17.062,-126.14
17.078,-137.38
17.093,-142.09
17.109,-141.64
17.125,-139.42
17.140,-137.73
17.156,-136.26
17.171,-132.53
17.187,-123.7
17.203,-108.98
17.218,-90.61
17.234,-72.45
17.250,-57.32
17.265,-44.79
17.281,-31.6
17.296,-14.38
17.312,7.68
17.328,31.59
17.343,52.24
17.359,65.08
17.375,69.42
17.390,68.84
17.406,68.87
17.421,73.97
17.437,85.15
17.453,99.16
17.468,110.52
17.484,114.33
17.500,109.26
17.515,98.79
17.531,89.06
17.546,85.71
17.562,90.96
17.578,102.23
17.593,113.85
17.609,119.91
17.625,117.92
17.640,110.17
17.656,101.83
17.671,97.47
17.687,98.07
17.703,100.03
17.718,97.43
17.734,85.52
17.750,63.99
17.765,37.65
17.781,13.41
17.796,-3.77
17.812,-13.67
17.828,-20.76
17.843,-31.26
17.859,-49.3
17.875,-73.72
17.890,-98.3
17.906,-115.08
17.921,-118.73
17.937,-109.37
17.953,-92.44
17.968,-75.5
17.984,-64.69
18.000,-61.36
18.015,-61.58
18.031,-59.47
18.046,-50.94
18.062,-36.12
18.078,-19.38
18.093,-6.4
18.109,-0.59
18.125,-0.41
18.140,0.21
18.156,8.41
18.171,27.96
18.187,56.98
18.203,87.94
18.218,111.49
18.234,120.89
18.250,115.56
18.265,101.78
18.281,88.76
18.296,83.9
18.312,88.69
18.328,98.17
18.343,103.7
18.359,97.7
18.375,78.67
18.390,52.48
18.406,29.26
18.421,17.68
18.437,20.28
18.453,31.92
18.468,43.28
18.484,45.84
18.500,36.67
18.515,20.0
18.531,3.33
18.546,-7.71
18.562,-13.47
18.578,-19.79
18.593,-34.52
18.609,-62.4
18.625,-101.23
18.640,-142.15
18.656,-174.2
18.671,-189.93
18.687,-188.04
18.703,-173.94
18.718,-155.91
18.734,-141.07
18.750,-132.2
18.765,-126.9
18.781,-120.55
18.796,-109.79
18.812,-94.37
18.828,-76.77
18.843,-59.85
18.859,-44.62
18.875,-28.87
18.890,-7.73
18.906,23.73
18.921,67.83
18.937,122.68
18.953,182.66
18.968,240.69
18.984,290.24
19.000,327.36
19.015,351.64
19.031,365.11
19.046,370.74
19.062,370.9
19.078,365.12
19.093,351.39
19.109,327.81
19.125,294.83
19.140,256.71
19.156,220.22
19.171,191.19
19.187,172.27
19.203,161.47
19.218,151.32
19.234,134.09
19.250,106.06
19.265,70.86
19.281,37.13
19.296,13.31
19.312,2.64
19.328,2.03
19.343,4.57
19.359,0.48
19.375,-16.5
19.390,-46.39
19.406,-83.69
19.421,-121.4
19.437,-154.96
19.453,-184.35
19.468,-211.89
19.484,-240.16
19.500,-274.33
19.515,-317.94
19.531,-372.17
19.546,-435.62
19.562,-505.4
19.578,-579.69
19.593,-658.77
19.609,-743.13
19.625,-806.43
19.640,-821.58
19.656,-771.13
19.671,-659.08
19.687,-507.44
19.703,-342.22
19.718,-183.63
19.734,-44.53
19.750,68.96
19.765,157.42
19.781,221.78
19.796,265.68
19.812,293.39
19.828,308.52
19.843,315.14
19.859,316.15
19.875,312.06
19.890,303.1
19.906,290.53
19.921,273.85
19.937,253.63
19.953,231.35
19.968,206.36
19.984,182.3
20.000,163.17
20.015,151.01
20.031,145.54
20.046,143.96
20.062,139.09
20.078,123.05
20.093,90.21
20.109,40.1
20.125,-20.78
20.140,-81.63
20.156,-132.49
20.171,-167.73
20.187,-187.46
20.203,-198.18
20.218,-206.98
20.234,-218.05
20.250,-230.76
20.265,-240.6
20.281,-242.93
20.296,-236.72
20.312,-224.34
20.328,-209.9
20.343,-197.33
20.359,-187.3
20.375,-178.01
20.390,-166.13
20.406,-149.52
20.421,-128.44
20.437,-105.41
20.453,-83.24
20.468,-63.55
20.484,-46.49
20.500,-29.81
20.515,-9.77
20.531,17.97
20.546,56.63
20.562,107.01
20.578,166.01
20.593,227.44
20.609,283.61
20.625,327.77
20.640,357.49
20.656,374.77
20.671,383.98
20.687,388.71
20.703,388.54
20.718,379.29
20.734,355.83
20.750,316.32
20.765,264.57
20.781,209.23
20.796,159.11
20.812,119.42
20.828,89.78
20.843,66.16
20.859,44.64
20.875,24.27
20.890,8.52
20.906,2.1
20.921,7.61
20.937,22.72
20.953,40.34
20.968,51.35
20.984,48.12
21.000,27.54
21.015,-7.62
21.031,-49.6
21.046,-89.62
21.062,-120.37
21.078,-139.37
21.093,-148.29
21.109,-151.28
21.125,-151.99
21.140,-150.6
21.156,-144.18
21.171,-129.07
21.187,-104.33
21.203,-73.56
21.218,-44.05
21.234,-23.07
21.250,-14.06
21.265,-14.13
21.281,-15.35
21.296,-9.44
21.312,7.74
21.328,33.09
21.343,57.82
21.359,71.68
21.375,68.41
21.390,49.83
21.406,24.91
21.421,5.11
21.437,-1.43
21.453,5.97
21.468,20.79
21.484,33.13
21.500,35.02
21.515,24.64
21.531,6.69
21.546,-11.17
21.562,-22.37
21.578,-25.58
21.593,-24.71
21.609,-25.91
21.625,-33.53
21.640,-46.41
21.656,-58.36
21.671,-61.85
21.687,-52.78
21.703,-33.42
21.718,-12.16
21.734,0.98
21.750,-0.34
21.765,-14.98
21.781,-35.07
21.796,-50.95
21.812,-56.25
21.828,-51.21
21.843,-41.01
21.859,-32.35
21.875,-29.38
21.890,-31.26
21.906,-33.61
21.921,-32.08
21.937,-25.07
21.953,-14.78
21.968,-5.78
21.984,-2.04
22.000,-4.81
22.015,-11.32
22.031,-16.42
22.046,-15.8
22.062,-8.15
22.078,3.68
22.093,14.14
22.109,17.98
22.125,13.05
22.140,2.24
22.156,-7.32
22.171,-8.2
22.187,3.84
22.203,27.46
22.218,56.03
22.234,80.52
22.250,93.32
22.265,92.17
22.281,80.8
22.296,66.39
22.312,55.69
22.328,51.17
22.343,50.49
22.359,48.68
22.375,41.6
22.390,29.53
22.406,17.29
22.421,10.95
22.437,14.16
22.453,24.92
22.468,36.3
22.484,39.75
22.500,29.39
22.515,5.6
22.531,-24.92
22.546,-52.98
22.562,-71.0
22.578,-76.41
22.593,-72.18
22.609,-64.18
22.625,-58.03
22.640,-55.65
22.656,-54.26
22.671,-49.13
22.687,-37.07
22.703,-19.22
22.718,-1.24
22.734,9.31
22.750,7.01
22.765,-7.72
22.781,-28.7
22.796,-46.78
22.812,-54.15
22.828,-48.07
22.843,-31.33
22.859,-10.12
22.875,9.26
22.890,23.71
22.906,34.41
22.921,44.29
22.937,55.71
22.953,68.2
22.968,78.25
22.984,81.66
23.000,75.96
23.015,63.21
23.031,50.0
23.046,44.42
23.062,51.7
23.078,70.87
23.093,94.51
23.109,111.97
23.125,114.47
23.140,99.73
23.156,73.29
23.171,44.96
23.187,23.82
23.203,13.53
23.218,11.49
23.234,11.34
23.250,6.95
23.265,-3.64
23.281,-17.65
23.296,-30.49
23.312,-39.09
23.328,-44.36
23.343,-50.68
23.359,-62.72
23.375,-82.12
23.390,-105.62
23.406,-125.84
23.421,-135.21
23.437,-130.06
23.453,-112.32
23.468,-88.81
23.484,-67.33
23.500,-53.32
23.515,-46.84
23.531,-43.02
23.546,-35.65
23.562,-21.02
23.578,-0.66
23.593,19.26
23.609,31.48
23.625,31.43
23.640,20.22
23.656,4.57
23.671,-6.96
23.687,-8.15
23.703,1.93
23.718,18.84
23.734,35.96
23.750,48.08
23.765,54.07
23.781,57.16
23.796,62.46
23.812,73.97
23.828,92.69
23.843,116.14
23.859,139.46
23.875,157.21
23.890,165.29
23.906,162.04
23.921,148.12
23.937,126.06
23.953,99.03
23.968,69.81
23.984,40.52
24.000,12.62
24.015,-12.52
24.031,-32.71
24.046,-45.95
24.062,-51.47
24.078,-50.83
24.093,-48.53
24.109,-50.11
24.125,-59.89
24.140,-78.16
24.156,-100.23
24.171,-118.82
24.187,-127.56
24.203,-124.17
24.218,-111.71
24.234,-96.85
24.250,-86.39
24.265,-83.21
24.281,-85.14
24.296,-86.79
24.312,-83.37
24.328,-73.8
24.343,-61.44
24.359,-51.75
24.375,-48.47
24.390,-50.31
24.406,-50.95
24.421,-43.07
24.437,-22.7
24.453,8.01
24.468,41.41
24.484,68.26
24.500,82.36
24.515,84.02
24.531,79.78
24.546,78.4
24.562,85.79
24.578,102.27
24.593,122.67
24.609,139.86
24.625,148.17
24.640,146.16
24.656,136.8
24.671,124.74
24.687,113.24
24.703,102.53
24.718,90.11
24.734,73.29
24.750,51.35
24.765,27.24
24.781,6.47
24.796,-5.73
24.812,-7.45
24.828,-1.61
24.843,5.29
24.859,6.39
24.875,-2.45
24.890,-19.94
24.906,-39.59
24.921,-53.2
24.937,-54.7
24.953,-43.09
24.968,-22.84
24.984,-1.82
25.000,11.89
25.015,13.01
25.031,1.06
25.046,-20.27
25.062,-45.3
25.078,-68.63
25.093,-87.54
25.109,-101.97
25.125,-113.7
25.140,-123.81
25.156,-131.2
25.171,-132.98
25.187,-126.01
25.203,-109.33
25.218,-85.74
25.234,-61.0
25.250,-41.26
25.265,-29.74
25.281,-24.82
25.296,-21.69
25.312,-15.16
25.328,-2.63
25.343,14.51
25.359,31.51
25.375,42.42
25.390,44.12
25.406,38.57
25.421,31.94
25.437,31.08
25.453,40.19
25.468,58.47
25.484,80.75
25.500,98.87
25.515,106.1
25.531,101.92
25.546,93.37
25.562,91.79
25.578,107.28
25.593,143.08
25.609,195.26
25.625,255.94
25.640,315.83
25.656,368.59
25.671,413.13
25.687,452.65
25.703,490.29
25.718,524.48
25.734,547.16
25.750,547.29
25.765,516.71
25.781,451.13
25.796,350.33
25.812,217.06
25.828,56.28
25.843,-125.97
25.859,-323.3
25.875,-528.64
25.890,-732.15
25.906,-903.12
25.921,-1001.53
25.937,-999.59
25.953,-901.94
25.968,-742.8
25.984,-563.19
26.000,-392.18
26.015,-243.19
26.031,-118.44
26.046,-14.29
26.062,70.71
26.078,135.57
26.093,179.21
26.109,204.11
26.125,216.54
26.140,224.44
26.156,236.24
26.171,253.81
26.187,275.93
26.203,297.43
26.218,311.91
26.234,315.33
26.250,308.37
26.265,296.77
26.281,287.92
26.296,287.01
26.312,294.81
26.328,309.39
26.343,325.33
26.359,335.29
26.375,332.35
26.390,312.01
26.406,272.94
26.421,217.46
26.437,150.18
26.453,76.54
26.468,3.32
26.484,-64.96
26.500,-127.84
26.515,-189.58
26.531,-254.36
26.546,-321.89
26.562,-386.29
26.578,-437.95
26.593,-466.91
26.609,-465.68
26.625,-432.35
26.640,-370.6
26.656,-290.4
26.671,-201.3
26.687,-110.57
26.703,-23.54
26.718,53.03
26.734,110.11
26.750,137.26
26.765,125.11
26.781,68.57
26.796,-34.22
26.812,-176.16
26.828,-340.47
26.843,-503.58
26.859,-643.58
26.875,-746.72
26.890,-809.68
26.906,-837.47
26.921,-839.76
26.937,-830.77
26.953,-819.16
26.968,-805.94
26.984,-785.49
27.000,-752.88
27.015,-707.34
27.031,-651.6
27.046,-588.83
27.062,-488.11
27.078,-340.14
27.093,-158.69
27.109,25.91
27.125,188.55
27.140,317.4
27.156,411.9
27.171,476.99
27.187,519.56
27.203,546.31
27.218,557.61
27.234,556.71
27.250,556.96
27.265,567.31
27.281,591.0
27.296,626.0
27.312,666.67
27.328,705.82
27.343,736.99
27.359,750.28
27.375,740.98
27.390,684.6
27.406,586.4
27.421,461.97
27.437,328.09
27.453,198.78
27.468,83.67
27.484,-8.03
27.500,-82.77
27.515,-144.4
27.531,-192.5
27.546,-221.14
27.562,-229.17
27.578,-220.66
27.593,-203.37
27.609,-186.31
27.625,-176.1
27.640,-182.22
27.656,-210.15
27.671,-258.11
27.687,-316.5
27.703,-375.72
27.718,-427.73
27.734,-466.73
27.750,-488.55
27.765,-481.94
27.781,-443.4
27.796,-379.87
27.812,-303.42
27.828,-225.66
27.843,-154.73
27.859,-93.94
27.875,-43.85
27.890,-3.68
27.906,28.05
27.921,57.97
27.937,84.51
27.953,109.16
27.968,133.94
27.984,158.91
28.000,182.62
28.015,203.12
28.031,217.94
28.046,226.65
28.062,228.8
28.078,208.35
28.093,163.57
28.109,98.89
28.125,21.28
28.140,-61.12
28.156,-140.24
28.171,-208.22
28.187,-258.59
28.203,-289.25
28.218,-300.57
28.234,-290.23
28.250,-258.54
28.265,-208.26
28.281,-144.44
28.296,-73.39
28.312,0.43
28.328,72.53
28.343,134.42
28.359,180.35
28.375,212.67
28.390,234.97
28.406,251.5
28.421,264.96
28.437,277.31
28.453,292.72
28.468,312.64
28.484,326.2
28.500,324.12
28.515,305.18
28.531,268.9
28.546,217.35
28.562,154.31
28.578,86.11
28.593,27.03
28.609,-10.54
28.625,-32.33
28.640,-41.58
28.656,-33.71
28.671,-6.67
28.687,39.47
28.703,103.13
28.718,181.94
28.734,282.29
28.750,407.02
28.765,536.63
28.781,657.43
28.796,767.98
28.812,866.79
28.828,952.55
28.843,1023.82
28.859,1016.53
28.875,895.57
28.890,760.08
28.906,651.47
28.921,546.8
28.937,439.38
28.953,323.67
28.968,196.35
28.984,57.58
29.000,-87.99
29.015,-222.09
29.031,-327.68
29.046,-410.71
29.062,-475.33
29.078,-518.76
29.093,-543.52
29.109,-554.52
29.125,-556.41
29.140,-551.39
29.156,-531.24
29.171,-488.58
29.187,-433.09
29.203,-371.42
29.218,-303.29
29.234,-231.73
29.250,-161.45
29.265,-96.48
29.281,-38.44
29.296,18.03
29.312,76.47
29.328,127.77
29.343,163.39
29.359,179.41
29.375,170.91
29.390,134.54
29.406,70.76
29.421,-15.36
29.437,-114.16
29.453,-217.77
29.468,-325.9
29.484,-437.97
29.500,-537.81
29.515,-602.14
29.531,-613.57
29.546,-572.73
29.562,-496.1
29.578,-403.08
29.593,-309.01
29.609,-224.35
29.625,-153.33
29.640,-95.49
29.656,-50.27
29.671,-17.94
29.687,1.52
29.703,10.13
29.718,11.68
29.734,10.12
29.750,8.1
29.765,7.62
29.781,9.68
29.796,13.5
29.812,17.04
29.828,18.67
29.843,18.41
29.859,18.36
29.875,21.32
29.890,28.94
29.906,42.5
29.921,62.54
29.937,88.03
29.953,116.56
29.968,146.42
29.984,174.55
30.000,198.37
30.015,215.3
30.031,222.86
30.046,219.23
30.062,204.02
30.078,177.98
30.093,140.59
30.109,96.91
30.125,51.11
30.140,6.79
30.156,-33.46
30.171,-68.02
30.187,-96.26
30.203,-118.31
30.218,-135.22
30.234,-147.93
30.250,-156.68
30.265,-160.54
30.281,-156.69
30.296,-142.02
30.312,-115.4
30.328,-79.39
30.343,-40.1
30.359,-5.27
30.375,19.58
30.390,32.65
30.406,35.61
30.421,32.64
30.437,27.85
30.453,23.49
30.468,19.67
30.484,15.65
30.500,11.16
30.515,7.02
30.531,4.8
30.546,5.25
30.562,8.03
30.578,11.7
30.593,14.58
30.609,15.3
30.625,13.62
30.640,10.53
30.656,7.5
30.671,6.02
30.687,6.6
30.703,8.88
30.718,11.81
30.734,14.1
30.750,14.96
30.765,14.23
30.781,12.6
30.796,11.15
30.812,10.78
30.828,11.89
30.843,14.14
30.859,16.78
30.875,18.94
30.890,20.08
30.906,20.07
30.921,19.52
30.937,19.24
30.953,19.89
30.968,21.75
30.984,24.44
31.000,27.23
31.015,29.41
31.031,30.47
31.046,30.4
31.062,29.97
31.078,30.07
31.093,31.46
31.109,34.62
31.125,38.92
31.140,43.27
31.156,46.58
31.171,48.05
31.187,47.38
31.203,44.96
31.218,41.15
31.234,35.74
31.250,28.19
31.265,16.91
31.281,0.02
31.296,-23.6
31.312,-53.73
31.328,-88.62
31.343,-124.49
31.359,-156.85
31.375,-181.23
31.390,-193.92
31.406,-192.43
31.421,-175.91
31.437,-145.87
31.453,-105.76
31.468,-63.54
31.484,-27.47
31.500,-3.69
31.515,6.02
31.531,4.77
31.546,-1.21
31.562,-5.53
31.578,-4.65
31.593,1.06
31.609,8.88
31.625,15.94
31.640,20.82
31.656,23.89
31.671,26.41
31.687,29.15
31.703,31.84
31.718,33.42
31.734,32.52
31.750,28.92
31.765,23.88
31.781,19.19
31.796,16.41
31.812,16.03
31.828,17.4
31.843,19.2
31.859,19.93
31.875,18.72
31.890,15.68
31.906,11.76
31.921,8.27
31.937,6.2
31.953,5.75
31.968,6.42
31.984,7.52
32.000,8.11
32.015,7.69
32.031,6.49
32.046,5.21
32.062,4.96
32.078,6.8
32.093,11.24
32.109,18.1
32.125,27.17
32.140,37.86
32.156,49.47
32.171,61.32
32.187,72.47
32.203,82.09
32.218,89.51
32.234,93.68
32.250,93.91
32.265,89.72
32.281,81.23
32.296,69.06
32.312,54.33
32.328,38.13
32.343,22.04
32.359,7.42
32.375,-4.77
32.390,-13.88
32.406,-19.63
32.421,-22.16
32.437,-22.08
32.453,-20.07
32.468,-17.27
32.484,-14.39
32.500,-12.03
32.515,-10.64
32.531,-10.3
32.546,-11.12
32.562,-13.24
32.578,-16.85
32.593,-21.77
32.609,-27.96
32.625,-35.29
32.640,-43.08
32.656,-50.52
32.671,-56.26
32.687,-59.25
32.703,-58.67
32.718,-54.65
32.734,-47.68
32.750,-38.45
32.765,-28.08
32.781,-17.08
32.796,-5.45
32.812,7.2
32.828,21.12
32.843,36.21
32.859,51.04
32.875,63.69
32.890,72.09
32.906,74.88
32.921,72.25
32.937,65.45
32.953,56.48
32.968,47.76
32.984,41.17
33.000,37.48
33.015,36.8
33.031,39.47
33.046,45.76
33.062,56.3
33.078,71.39
33.093,90.24
33.109,112.32
33.125,136.82
33.140,162.98
33.156,189.95
33.171,217.03
33.187,242.12
33.203,262.08
33.218,272.3
33.234,267.2
33.250,244.29
33.265,204.96
33.281,152.96
33.296,94.29
33.312,35.62
33.328,-17.58
33.343,-61.57
33.359,-94.37
33.375,-114.58
33.390,-120.52
33.406,-111.28
33.421,-92.12
33.437,-71.95
33.453,-60.27
33.468,-63.64
33.484,-84.14
33.500,-118.12
33.515,-157.65
33.531,-191.94
33.546,-211.54
33.562,-217.43
33.578,-215.83
33.593,-213.32
33.609,-213.06
33.625,-215.19
33.640,-217.95
33.656,-220.46
33.671,-222.74
33.687,-226.68
33.703,-242.88
33.718,-280.57
33.734,-342.35
33.750,-423.43
33.765,-515.8
33.781,-612.65
33.796,-709.11
33.812,-800.62
33.828,-837.55
33.843,-786.52
33.859,-647.97
33.875,-456.66
33.890,-255.69
33.906,-72.96
33.921,80.81
33.937,205.04
33.953,303.44
33.968,380.57
33.984,431.93
34.000,453.41
34.015,449.51
34.031,428.32
34.046,398.91
34.062,368.53
34.078,340.93
34.093,318.59
34.109,303.49
34.125,291.17
34.140,278.17
34.156,266.25
34.171,260.65
34.187,266.96
34.203,286.05
34.218,314.75
34.234,347.37
34.250,377.02
34.265,393.7
34.281,381.5
34.296,334.79
34.312,260.79
34.328,175.26
34.343,92.7
34.359,21.78
34.375,-34.03
34.390,-74.67
34.406,-102.85
34.421,-121.51
34.437,-131.54
34.453,-134.0
34.468,-130.35
34.484,-123.21
34.500,-115.51
34.515,-109.16
34.531,-104.85
34.546,-102.97
34.562,-102.57
34.578,-101.47
34.593,-98.14
34.609,-92.48
34.625,-86.1
34.640,-81.09
34.656,-78.8
34.671,-79.37
34.687,-81.75
34.703,-84.38
34.718,-85.18
34.734,-83.05
34.750,-78.33
34.765,-72.5
34.781,-67.36
34.796,-64.36
34.812,-64.35
34.828,-67.58
34.843,-73.35
34.859,-79.39
34.875,-82.1
34.890,-77.47
34.906,-62.6
34.921,-37.12
34.937,-4.2
34.953,30.31
34.968,59.78
34.984,79.4
35.000,87.91
35.015,87.46
35.031,81.98
35.046,75.04
35.062,68.61
35.078,62.75
35.093,56.65
35.109,49.76
35.125,42.45
35.140,35.85
35.156,31.17
35.171,28.71
35.187,27.96
35.203,27.83
35.218,26.93
35.234,23.9
35.250,18.01
35.265,9.26
35.281,-1.91
35.296,-13.98
35.312,-25.29
35.328,-34.84
35.343,-41.98
35.359,-46.63
35.375,-49.3
35.390,-50.84
35.406,-52.26
35.421,-53.54
35.437,-54.56
35.453,-54.24
35.468,-51.15
35.484,-43.53
35.500,-30.61
35.515,-13.26
35.531,5.49
35.546,20.09
35.562,25.58
35.578,19.18
35.593,2.12
35.609,-20.4
35.625,-40.1
35.640,-49.45
35.656,-42.88
35.671,-18.7
35.687,19.25
35.703,62.69
35.718,100.37
35.734,121.27
35.750,117.89
35.765,89.71
35.781,42.71
35.796,-11.49
35.812,-58.47
35.828,-87.46
35.843,-93.82
35.859,-80.24
35.875,-53.22
35.890,-19.73
35.906,14.81
35.921,46.56
35.937,71.51
35.953,85.77
35.968,87.13
35.984,75.95
36.000,55.85
36.015,32.46
36.031,12.29
36.046,-0.15
36.062,-3.63
36.078,0.29
36.093,8.07
36.109,15.5
36.125,19.8
36.140,19.74
36.156,15.62
36.171,9.06
36.187,2.57
36.203,-1.92
36.218,-3.72
36.234,-3.25
36.250,-2.77
36.265,-4.56
36.281,-10.88
36.296,-22.77
36.312,-39.77
36.328,-58.99
36.343,-76.44
36.359,-87.86
36.375,-89.92
36.390,-82.07
36.406,-67.83
36.421,-53.61
36.437,-45.33
36.453,-47.15
36.468,-58.04
36.484,-72.47
36.500,-80.67
36.515,-71.14
36.531,-35.15
36.546,29.65
36.562,118.24
36.578,221.92
36.593,325.59
36.609,414.4
36.625,477.17
36.640,497.1
36.656,470.08
36.671,405.37
36.687,319.85
36.703,228.83
36.718,141.94
36.734,62.86
36.750,-6.79
36.765,-64.77
36.781,-109.98
36.796,-141.04
36.812,-159.33
36.828,-169.42
36.843,-177.67
36.859,-187.95
36.875,-201.69
36.890,-217.91
36.906,-233.66
36.921,-246.64
36.937,-254.08
36.953,-254.42
36.968,-247.72
36.984,-238.47
37.000,-227.04
37.015,-213.91
37.031,-199.29
37.046,-183.73
37.062,-168.29
37.078,-153.95
37.093,-142.04
37.109,-133.96
37.125,-130.59
37.140,-130.22
37.156,-130.82
37.171,-130.54
37.187,-128.03
37.203,-122.36
37.218,-113.55
37.234,-101.65
37.250,-87.17
37.265,-71.24
37.281,-53.74
37.296,-35.18
37.312,-16.89
37.328,-2.83
37.343,4.23
37.359,2.6
37.375,-6.65
37.390,-20.39
37.406,-33.48
37.421,-38.94
37.437,-31.77
37.453,-10.74
37.468,22.29
37.484,63.93
37.500,110.1
37.515,157.87
37.531,205.33
37.546,251.36
37.562,298.42
37.578,349.03
37.593,404.2
37.609,461.86
37.625,517.44
37.640,564.22
37.656,595.8
37.671,607.03
37.687,579.13
37.703,505.41
37.718,393.42
37.734,263.29
37.750,138.8
37.765,35.59
37.781,-43.25
37.796,-101.85
37.812,-146.52
37.828,-181.77
37.843,-206.7
37.859,-220.14
37.875,-223.66
37.890,-222.74
37.906,-223.41
37.921,-230.24
37.937,-243.43
37.953,-260.84
37.968,-279.08
37.984,-291.62
38.000,-291.63
38.015,-274.82
38.031,-240.58
38.046,-192.26
38.062,-137.74
38.078,-86.68
38.093,-48.25
38.109,-30.42
38.125,-35.28
38.140,-59.49
38.156,-95.72
38.171,-135.37
38.187,-171.04
38.203,-198.29
38.218,-217.07
38.234,-224.36
38.250,-218.52
38.265,-199.25
38.281,-168.97
38.296,-132.34
38.312,-96.04
38.328,-61.54
38.343,-35.28
38.359,-21.79
38.375,-22.06
38.390,-35.33
38.406,-58.02
38.421,-85.27
38.437,-111.72
38.453,-133.9
38.468,-148.43
38.484,-152.32
38.500,-141.03
38.515,-108.42
38.531,-56.91
38.546,11.93
38.562,95.61
38.578,188.24
38.593,280.17
38.609,361.0
38.625,420.25
38.640,452.19
38.656,455.74
38.671,433.5
38.687,391.95
38.703,342.5
38.718,295.53
38.734,258.39
38.750,236.17
38.765,230.11
38.781,239.83
38.796,263.63
38.812,297.41
38.828,336.26
38.843,379.35
38.859,424.78
38.875,468.74
38.890,505.94
38.906,530.85
38.921,540.33
38.937,535.98
38.953,522.7
38.968,480.5
38.984,404.08
39.000,300.68
39.015,185.77
39.031,74.04
39.046,-26.99
39.062,-115.9
39.078,-192.59
39.093,-257.48
39.109,-310.65
39.125,-349.72
39.140,-375.14
39.156,-389.98
39.171,-397.7
39.187,-401.73
39.203,-404.2
39.218,-405.26
39.234,-405.09
39.250,-403.3
39.265,-396.42
39.281,-383.59
39.296,-366.29
39.312,-347.64
39.328,-330.27
39.343,-315.88
39.359,-305.38
39.375,-298.99
39.390,-296.4
39.406,-294.69
39.421,-291.55
39.437,-285.07
39.453,-274.47
39.468,-260.02
39.484,-241.99
39.500,-221.35
39.515,-200.24
39.531,-180.52
39.546,-162.95
39.562,-149.17
39.578,-140.32
39.593,-136.63
39.609,-137.37
39.625,-140.33
39.640,-142.24
39.656,-142.78
39.671,-140.62
39.687,-134.08
39.703,-122.63
39.718,-106.97
39.734,-88.45
39.750,-69.04
39.765,-49.95
39.781,-31.14
39.796,-12.32
39.812,8.03
39.828,30.89
39.843,56.69
39.859,84.83
39.875,113.74
39.890,140.6
39.906,162.6
39.921,177.05
39.937,182.44
39.953,179.73
39.968,170.45
39.984,157.02
40.000,141.96
40.015,127.55
40.031,115.28
40.046,107.01
40.062,104.34
40.078,108.41
40.093,120.01
40.109,138.78
40.125,162.99
40.140,190.36
40.156,219.04
40.171,247.43
40.187,274.75
40.203,301.01
40.218,326.06
40.234,349.59
40.250,370.05
40.265,385.27
40.281,394.05
40.296,396.63
40.312,393.45
40.328,384.79
40.343,370.92
40.359,352.76
40.375,333.53
40.390,316.81
40.406,305.82
40.421,301.74
40.437,302.63
40.453,302.53
40.468,292.99
40.484,266.78
40.500,220.79
40.515,159.44
40.531,93.15
40.546,36.39
40.562,2.95
40.578,1.79
40.593,30.84
40.609,76.87
40.625,119.68
40.640,139.32
40.656,124.06
40.671,73.01
40.687,-5.34
40.703,-105.25
40.718,-213.22
40.734,-312.17
40.750,-386.3
40.765,-426.21
40.781,-431.07
40.796,-407.81
40.812,-368.31
40.828,-326.19
40.843,-291.98
40.859,-270.42
40.875,-259.53
40.890,-253.6
40.906,-246.54
40.921,-233.74
40.937,-214.17
40.953,-189.75
40.968,-164.18
40.984,-139.68
41.000,-117.48
41.015,-97.4
41.031,-79.71
41.046,-64.4
41.062,-49.24
41.078,-33.34
41.093,-17.32
41.109,-4.58
41.125,-0.28
41.140,-9.68
41.156,-34.72
41.171,-72.19
41.187,-114.87
41.203,-150.85
41.218,-170.78
41.234,-171.08
41.250,-155.1
41.265,-129.58
41.281,-100.73
41.296,-71.88
41.312,-42.78
41.328,-12.38
41.343,20.06
41.359,52.93
41.375,84.6
41.390,113.1
41.406,134.83
41.421,144.53
41.437,137.3
41.453,112.37
41.468,74.65
41.484,35.92
41.500,9.91
41.515,8.25
41.531,35.3
41.546,84.75
41.562,142.47
41.578,193.49
41.593,228.05
41.609,243.01
41.625,240.6
41.640,223.6
41.656,192.33
41.671,144.28
41.687,76.27
41.703,-13.29
41.718,-116.08
41.734,-211.69
41.750,-275.92
41.765,-292.08
41.781,-259.23
41.796,-191.46
41.812,-109.15
41.828,-28.97
41.843,40.88
41.859,100.91
41.875,154.97
41.890,205.46
41.906,252.51
41.921,292.33
41.937,320.05
41.953,333.04
41.968,331.74
41.984,319.72
42.000,302.27
42.015,283.31
42.031,264.65
42.046,245.85
42.062,224.68
42.078,199.16
42.093,171.36
42.109,144.69
42.125,123.45
42.140,111.52
42.156,109.48
42.171,114.38
42.187,121.3
42.203,124.09
42.218,117.98
42.234,100.67
42.250,71.4
42.265,31.88
42.281,-13.83
42.296,-61.47
42.312,-107.49
42.328,-148.91
42.343,-184.28
42.359,-212.71
42.375,-234.43
42.390,-252.37
42.406,-269.24
42.421,-286.63
42.437,-305.07
42.453,-324.29
42.468,-342.69
42.484,-358.2
42.500,-366.98
42.515,-365.64
42.531,-354.68
42.546,-335.29
42.562,-308.48
42.578,-276.26
42.593,-241.42
42.609,-209.09
42.625,-185.53
42.640,-173.86
42.656,-176.43
42.671,-196.98
42.687,-234.95
42.703,-284.35
42.718,-336.12
42.734,-379.74
42.750,-407.64
42.765,-415.81
42.781,-400.46
42.796,-363.02
42.812,-313.15
42.828,-259.93
42.843,-209.55
42.859,-166.62
42.875,-133.44
42.890,-113.66
42.906,-109.9
42.921,-120.97
42.937,-112.07
42.953,-65.98
42.968,13.41
42.984,104.83
43.000,184.29
43.015,240.52
43.031,271.85
43.046,271.02
43.062,250.15
43.078,219.11
43.093,179.94
43.109,134.16
43.125,84.15
43.140,29.52
43.156,-17.82
43.171,-53.65
43.187,-77.01
43.203,-87.05
43.218,-87.19
43.234,-85.85
43.250,-89.13
43.265,-82.1
43.281,-56.84
43.296,-13.9
43.312,35.2
43.328,76.5
43.343,101.76
43.359,107.07
43.375,92.42
43.390,64.0
43.406,32.72
43.421,8.07
43.437,-1.64
43.453,6.71
43.468,31.74
43.484,69.34
43.500,111.31
43.515,148.11
43.531,173.19
43.546,184.99
43.562,184.05
43.578,173.93
43.593,158.16
43.609,139.85
43.625,121.7
43.640,104.95
43.656,90.11
43.671,78.33
43.687,70.36
43.703,64.63
43.718,58.81
43.734,50.37
43.750,38.15
43.765,22.46
43.781,4.57
43.796,-13.75
43.812,-30.21
43.828,-43.09
43.843,-52.21
43.859,-58.13
43.875,-62.81
43.890,-66.35
43.906,-68.57
43.921,-68.99
43.937,-66.95
43.953,-61.12
43.968,-51.02
43.984,-36.9
44.000,-19.7
44.015,-1.08
44.031,17.07
44.046,32.74
44.062,44.3
44.078,51.17
44.093,54.34
44.109,54.91
44.125,55.01
44.140,56.36
44.156,59.14
44.171,62.32
44.187,64.24
44.203,62.83
44.218,57.67
44.234,49.56
44.250,40.52
44.265,33.86
44.281,32.5
44.296,36.79
44.312,44.96
44.328,53.15
44.343,56.42
44.359,51.81
44.375,38.51
44.390,19.2
44.406,-0.8
44.421,-14.45
44.437,-16.26
44.453,-3.31
44.468,22.12
44.484,51.09
44.500,72.27
44.515,74.92
44.531,53.34
44.546,9.82
44.562,-44.46
44.578,-93.33
44.593,-119.44
44.609,-112.01
44.625,-70.86
44.640,-7.62
44.656,58.41
44.671,106.9
44.687,124.21
44.703,107.65
44.718,64.9
44.734,11.07
44.750,-37.07
44.765,-65.63
44.781,-67.15
44.796,-43.59
44.812,-4.86
44.828,35.41
44.843,63.87
44.859,71.3
44.875,55.3
44.890,20.66
44.906,-22.99
44.921,-63.98
44.937,-94.14
44.953,-110.07
44.968,-111.17
44.984,-97.75
45.000,-70.72
45.015,-32.96
45.031,9.98
45.046,48.7
45.062,73.6
45.078,77.91
45.093,61.43
45.109,32.85
45.125,7.4
45.140,-0.45
45.156,17.07
45.171,59.45
45.187,119.52
45.203,189.43
45.218,262.98
45.234,325.31
45.250,361.14
45.265,358.19
45.281,312.06
45.296,228.03
45.312,118.65
45.328,-2.0
45.343,-120.53
45.359,-227.4
45.375,-316.07
45.390,-386.15
45.406,-436.59
45.421,-466.13
45.437,-474.53
45.453,-463.12
45.468,-436.38
45.484,-400.1
45.500,-360.14
45.515,-321.46
45.531,-287.54
45.546,-259.39
45.562,-236.47
45.578,-217.5
45.593,-200.84
45.609,-185.12
45.625,-169.55
45.640,-153.36
45.656,-136.49
45.671,-118.6
45.687,-98.5
45.703,-74.56
45.718,-46.09
45.734,-13.83
45.750,20.75
45.765,55.23
45.781,86.55
45.796,111.19
45.812,126.93
45.828,133.5
45.843,133.27
45.859,130.22
45.875,128.79
45.890,132.3
45.906,141.81
45.921,155.99
45.937,171.67
45.953,185.66
45.968,196.38
45.984,204.13
46.000,211.11
46.015,220.12
46.031,233.8
46.046,253.23
46.062,278.23
46.078,308.2
46.093,340.51
46.109,370.2
46.125,389.39
46.140,389.09
46.156,362.66
46.171,310.78
46.187,242.38
46.203,172.15
46.218,115.5
46.234,80.19
46.250,63.71
46.265,54.93
46.281,40.52
46.296,12.37
46.312,-29.21
46.328,-77.58
46.343,-123.91
46.359,-159.97
46.375,-179.9
46.390,-178.6
46.406,-151.77
46.421,-97.75
46.437,-18.8
46.453,76.85
46.468,174.66
46.484,256.61
46.500,306.76
46.515,314.79
46.531,279.69
46.546,210.33
46.562,122.02
46.578,33.3
46.593,-39.52
46.609,-88.42
46.625,-115.42
46.640,-130.28
46.656,-146.72
46.671,-174.36
46.687,-214.14
46.703,-259.59
46.718,-299.46
46.734,-322.35
46.750,-319.58
46.765,-285.92
46.781,-221.02
46.796,-130.05
46.812,-23.17
46.828,85.75
46.843,180.89
46.859,249.04
46.875,283.05
46.890,283.16
46.906,255.68
46.921,209.32
46.937,151.72
46.953,88.47
46.968,24.19
46.984,-36.77
47.000,-88.89
47.015,-126.35
47.031,-145.17
47.046,-144.37
47.062,-126.78
47.078,-98.1
47.093,-64.36
47.109,-30.02
47.125,3.14
47.140,36.48
47.156,71.4
47.171,107.17
47.187,140.38
47.203,165.89
47.218,179.72
47.234,181.75
47.250,176.36
47.265,170.24
47.281,169.1
47.296,174.7
47.312,183.5
47.328,188.88
47.343,183.94
47.359,165.6
47.375,137.03
47.390,106.32
47.406,82.01
47.421,69.27
47.437,68.01
47.453,73.88
47.468,81.42
47.484,86.04
47.500,86.05
47.515,82.54
47.531,77.75
47.546,72.88
47.562,67.07
47.578,59.29
47.593,49.41
47.609,38.39
47.625,25.74
47.640,8.87
47.656,-17.13
47.671,-55.91
47.687,-108.86
47.703,-173.54
47.718,-242.77
47.734,-305.52
47.750,-346.92
47.765,-355.68
47.781,-330.36
47.796,-286.49
47.812,-237.7
47.828,-193.81
47.843,-160.8
47.859,-141.06
47.875,-135.93
47.890,-144.9
47.906,-165.36
47.921,-190.4
47.937,-211.65
47.953,-218.97
47.968,-205.66
47.984,-170.18
48.000,-116.13
48.015,-49.74
48.031,21.17
48.046,89.43
48.062,151.95
48.078,204.32
48.093,242.33
48.109,261.64
48.125,259.01
48.140,233.92
48.156,188.91
48.171,126.52
48.187,54.69
48.203,-16.94
48.218,-80.52
48.234,-130.31
48.250,-164.28
48.265,-184.14
48.281,-194.08
48.296,-200.06
48.312,-207.21
48.328,-217.97
48.343,-231.61
48.359,-245.89
48.375,-256.92
48.390,-262.05
48.406,-261.95
48.421,-260.19
48.437,-261.67
48.453,-268.82
48.468,-278.97
48.484,-276.9
48.500,-248.72
48.515,-186.05
48.531,-91.89
48.546,19.71
48.562,130.57
48.578,224.94
48.593,292.81
48.609,329.71
48.625,335.44
48.640,312.78
48.656,270.53
48.671,221.88
48.687,181.44
48.703,159.64
48.718,158.09
48.734,169.19
48.750,180.38
48.765,181.39
48.781,169.5
48.796,150.27
48.812,132.87
48.828,123.78
48.843,123.02
48.859,125.5
48.875,126.15
48.890,123.69
48.906,120.3
48.921,120.62
48.937,127.38
48.953,139.73
48.968,153.32
48.984,163.11
49.000,165.51
49.015,161.09
49.031,152.37
49.046,143.1
49.062,136.59
49.078,133.07
49.093,130.6
49.109,125.47
49.125,114.99
49.140,98.11
49.156,76.3
49.171,51.89
49.187,29.17
49.203,10.88
49.218,-2.58
49.234,-12.99
49.250,-24.83
49.265,-42.85
49.281,-72.21
49.296,-110.91
49.312,-159.01
49.328,-214.95
49.343,-275.51
49.359,-335.32
49.375,-386.61
49.390,-421.6
49.406,-436.28
49.421,-432.28
49.437,-418.1
49.453,-406.84
49.468,-409.34
49.484,-430.33
49.500,-467.23
49.515,-509.79
49.531,-544.79
49.546,-559.94
49.562,-545.67
49.578,-497.5
49.593,-417.11
49.609,-311.2
49.625,-191.93
49.640,-75.78
49.656,20.21
49.671,81.28
49.687,101.27
49.703,85.85
49.718,49.92
49.734,12.55
49.750,-9.81
49.765,-10.4
49.781,6.49
49.796,29.57
49.812,44.62
49.828,41.38
49.843,17.87
49.859,-21.29
49.875,-67.51
49.890,-110.76
49.906,-143.14
49.921,-159.46
49.937,-152.21
49.953,-119.21
49.968,-67.44
49.984,-10.39
50.000,36.73
50.015,62.81
50.031,64.35
50.046,52.69
50.062,35.3
50.078,21.28
50.093,18.49
50.109,30.76
50.125,57.03
50.140,92.62
50.156,121.09
50.171,132.16
50.187,122.63
50.203,96.88
50.218,66.67
50.234,44.56
50.250,39.18
50.265,52.33
50.281,78.5
50.296,108.01
50.312,131.74
50.328,141.71
50.343,132.79
50.359,105.77
50.375,67.44
50.390,28.51
50.406,0.83
50.421,-6.78
50.437,8.03
50.453,41.93
50.468,86.13
50.484,130.33
50.500,166.83
50.515,193.68
50.531,213.31
50.546,229.57
50.562,245.49
50.578,261.75
50.593,277.97
50.609,292.03
50.625,302.54
50.640,308.56
50.656,310.76
50.671,310.67
50.687,310.85
50.703,313.85
50.718,321.89
50.734,336.26
50.750,354.47
50.765,370.75
50.781,375.86
50.796,361.63
50.812,323.34
50.828,264.65
50.843,197.15
50.859,137.81
50.875,103.7
50.890,104.63
50.906,138.85
50.921,192.43
50.937,246.76
50.953,282.19
50.968,285.21
50.984,252.19
51.000,189.17
51.015,109.01
51.031,27.55
51.046,-41.63
51.062,-90.49
51.078,-114.48
51.093,-116.41
51.109,-104.71
51.125,-88.71
51.140,-74.14
51.156,-62.12
51.171,-50.73
51.187,-36.37
51.203,-16.09
51.218,15.1
51.234,58.52
51.250,111.08
51.265,165.89
51.281,214.11
51.296,247.01
51.312,256.16
51.328,237.03
51.343,170.06
51.359,57.64
51.375,-75.94
51.390,-197.55
51.406,-284.88
51.421,-333.76
51.437,-352.48
51.453,-356.0
51.468,-357.8
51.484,-365.77
51.500,-378.48
51.515,-389.52
51.531,-389.65
51.546,-371.34
51.562,-331.63
51.578,-273.7
51.593,-209.96
51.609,-160.5
51.625,-137.72
51.640,-145.32
51.656,-177.81
51.671,-220.89
51.687,-255.35
51.703,-263.89
51.718,-237.39
51.734,-178.38
51.750,-100.54
51.765,-23.1
51.781,35.45
51.796,62.59
51.812,54.84
51.828,19.04
51.843,-29.76
51.859,-77.1
51.875,-110.42
51.890,-121.79
51.906,-111.58
51.921,-88.82
51.937,-67.35
51.953,-60.49
51.968,-76.15
51.984,-113.86
52.000,-169.6
52.015,-238.15
52.031,-312.77
52.046,-377.25
52.062,-414.49
52.078,-413.83
52.093,-376.44
52.109,-323.45
52.125,-263.43
52.140,-204.41
52.156,-155.57
52.171,-124.07
52.187,-114.75
52.203,-127.19
52.218,-153.88
52.234,-181.67
52.250,-196.74
52.265,-188.8
52.281,-158.4
52.296,-114.22
52.312,-69.1
52.328,-35.44
52.343,-21.88
52.359,-31.33
52.375,-60.72
52.390,-100.86
52.406,-137.89
52.421,-158.83
52.437,-153.94
52.453,-118.75
52.468,-56.51
52.484,22.7
52.500,106.43
52.515,183.42
52.531,248.15
52.546,300.6
52.562,342.29
52.578,374.14
52.593,395.33
52.609,403.53
52.625,397.82
52.640,381.15
52.656,358.75
52.671,336.81
52.687,320.62
52.703,312.01
52.718,309.35
52.734,308.85
52.750,305.26
52.765,292.83
52.781,270.55
52.796,239.18
52.812,203.09
52.828,169.7
52.843,148.19
52.859,147.26
52.875,170.59
52.890,213.17
52.906,261.48
52.921,302.65
52.937,322.89
52.953,313.76
52.968,275.03
52.984,216.37
53.000,155.97
53.015,114.53
53.031,107.37
53.046,139.82
53.062,212.56
53.078,314.23
53.093,425.49
53.109,525.17
53.125,598.75
53.140,642.81
53.156,663.7
53.171,672.94
53.187,639.43
53.203,550.74
53.218,413.2
53.234,250.07
53.250,88.12
53.265,-53.88
53.281,-167.1
53.296,-251.64
53.312,-313.23
53.328,-360.52
53.343,-394.87
53.359,-416.69
53.375,-425.47
53.390,-421.27
53.406,-405.86
53.421,-383.29
53.437,-360.24
53.453,-343.98
53.468,-340.41
53.484,-346.65
53.500,-358.22
53.515,-369.68
53.531,-377.51
53.546,-378.79
53.562,-372.04
53.578,-357.73
53.593,-338.8
53.609,-320.55
53.625,-305.23
53.640,-291.86
53.656,-279.95
53.671,-266.83
53.687,-248.63
53.703,-222.86
53.718,-190.23
53.734,-153.87
53.750,-117.72
53.765,-81.36
53.781,-41.4
53.796,6.5
53.812,64.56
53.828,128.73
53.843,190.15
53.859,239.07
53.875,268.73
53.890,276.41
53.906,264.24
53.921,236.17
53.937,197.22
53.953,154.83
53.968,117.4
53.984,94.29
54.000,93.15
54.015,116.5
54.031,159.49
54.046,211.29
54.062,257.97
54.078,287.79
54.093,293.95
54.109,273.16
54.125,225.05
54.140,150.75
54.156,53.71
54.171,-60.4
54.187,-184.68
54.203,-312.33
54.218,-431.09
54.234,-518.74
54.250,-557.12
54.265,-538.65
54.281,-470.65
54.296,-370.73
54.312,-258.18
54.328,-148.66
54.343,-51.36
54.359,31.45
54.375,101.46
54.390,159.06
54.406,204.59
54.421,239.42
54.437,264.67
54.453,282.17
54.468,291.49
54.484,291.91
54.500,283.93
54.515,269.01
54.531,247.05
54.546,217.59
54.562,179.25
54.578,130.01
54.593,70.66
54.609,-1.06
54.625,-86.93
54.640,-186.52
54.656,-296.26
54.671,-410.55
54.687,-523.09
54.703,-627.71
54.718,-718.29
54.734,-765.2
54.750,-748.46
54.765,-666.27
54.781,-537.21
54.796,-387.96
54.812,-240.34
54.828,-106.97
54.843,6.52
54.859,98.66
54.875,169.8
54.890,219.79
54.906,253.47
54.921,280.16
54.937,309.75
54.953,348.22
54.968,393.59
54.984,437.16
55.000,468.37
55.015,479.09
55.031,464.43
55.046,426.81
55.062,374.37
55.078,309.08
55.093,234.99
55.109,153.36
55.125,64.2
55.140,-31.23
55.156,-131.41
55.171,-235.35
55.187,-341.49
55.203,-447.66
55.218,-551.5
55.234,-649.55
55.250,-736.28
55.265,-803.39
55.281,-814.54
55.296,-744.26
55.312,-595.62
55.328,-401.24
55.343,-203.81
55.359,-35.45
55.375,89.74
55.390,172.8
55.406,223.81
55.421,261.6
55.437,295.62
55.453,327.34
55.468,355.77
55.484,381.43
55.500,406.38
55.515,434.1
55.531,468.07
55.546,511.19
55.562,532.57
55.578,513.15
55.593,447.68
55.609,346.47
55.625,228.59
55.640,112.49
55.656,10.9
55.671,-70.54
55.687,-132.08
55.703,-177.61
55.718,-209.99
55.734,-233.69
55.750,-250.46
55.765,-260.22
55.781,-262.63
55.796,-258.13
55.812,-248.48
55.828,-236.94
55.843,-227.9
55.859,-222.24
55.875,-220.11
55.890,-220.2
55.906,-220.55
55.921,-219.71
55.937,-217.12
55.953,-213.17
55.968,-208.64
55.984,-203.87
56.000,-195.8
56.015,-179.76
56.031,-149.95
56.046,-101.48
56.062,-31.78
56.078,59.5
56.093,169.89
56.109,293.21
56.125,418.28
56.140,531.55
56.156,617.33
56.171,661.54
56.187,655.76
56.203,600.03
56.218,506.25
56.234,394.24
56.250,284.28
56.265,188.46
56.281,109.57
56.296,43.84
56.312,-14.14
56.328,-67.66
56.343,-117.77
56.359,-158.98
56.375,-182.49
56.390,-179.91
56.406,-148.09
56.421,-89.88
56.437,-10.1
56.453,83.66
56.468,179.28
56.484,257.32
56.500,302.54
56.515,307.05
56.531,271.3
56.546,202.03
56.562,110.77
56.578,16.63
56.593,-57.89
56.609,-93.73
56.625,-86.66
56.640,-37.03
56.656,49.57
56.671,162.65
56.687,287.23
56.703,386.4
56.718,427.64
56.734,399.81
56.750,347.02
56.765,282.42
56.781,207.77
56.796,113.58
56.812,6.22
56.828,-99.87
56.843,-186.83
56.859,-235.97
56.875,-236.39
56.890,-187.92
56.906,-111.97
56.921,-37.06
56.937,12.93
56.953,30.5
56.968,24.08
56.984,5.38
57.000,-15.44
57.015,-30.26
57.031,-36.56
57.046,-38.34
57.062,-36.35
57.078,-29.92
57.093,-18.03
57.109,-3.03
57.125,10.91
57.140,22.1
57.156,33.2
57.171,47.68
57.187,65.08
57.203,86.13
57.218,111.36
57.234,140.99
57.250,173.71
57.265,206.29
57.281,236.26
57.296,261.79
57.312,280.64
57.328,289.27
57.343,286.62
57.359,273.69
57.375,253.28
57.390,228.41
57.406,200.53
57.421,170.1
57.437,136.93
57.453,100.15
57.468,58.46
57.484,12.69
57.500,-35.11
57.515,-81.13
57.531,-121.07
57.546,-151.71
57.562,-170.85
57.578,-177.34
57.593,-171.22
57.609,-153.6
57.625,-126.03
57.640,-90.52
57.656,-49.24
57.671,-4.76
57.687,39.53
57.703,79.99
57.718,112.88
57.734,134.48
57.750,142.34
57.765,135.01
57.781,112.58
57.796,77.02
57.812,31.29
57.828,-20.63
57.843,-73.88
57.859,-123.24
57.875,-164.39
57.890,-193.56
57.906,-208.6
57.921,-209.85
57.937,-200.4
57.953,-185.73
57.968,-172.41
57.984,-166.76
58.000,-172.88
58.015,-191.32
58.031,-219.04
58.046,-250.18
58.062,-277.96
58.078,-296.93
58.093,-304.05
58.109,-299.18
58.125,-284.95
58.140,-265.3
58.156,-243.86
58.171,-222.75
58.187,-203.37
58.203,-186.43
58.218,-173.2
58.234,-165.43
58.250,-164.26
58.265,-169.74
58.281,-180.6
58.296,-194.17
58.312,-206.51
58.328,-213.62
58.343,-210.97
58.359,-193.72
58.375,-158.65
58.390,-105.73
58.406,-40.03
58.421,28.12
58.437,85.27
58.453,119.64
58.468,126.63
58.484,111.8
58.500,88.93
58.515,74.68
58.531,80.85
58.546,109.56
58.562,153.69
58.578,200.65
58.593,237.93
58.609,257.41
58.625,256.39
58.640,235.0
58.656,193.84
58.671,133.34
58.687,55.16
58.703,-35.17
58.718,-128.55
58.734,-214.04
58.750,-282.82
58.765,-330.88
58.781,-360.03
58.796,-376.36
58.812,-386.95
58.828,-397.04
58.843,-408.39
58.859,-420.31
58.875,-429.89
58.890,-433.85
58.906,-427.9
58.921,-407.21
58.937,-368.17
58.953,-311.11
58.968,-243.67
58.984,-179.3
59.000,-133.64
59.015,-117.3
59.031,-131.04
59.046,-164.2
59.062,-198.27
59.078,-214.9
59.093,-203.66
59.109,-166.95
59.125,-116.84
59.140,-68.74
59.156,-32.75
59.171,-10.4
59.187,4.56
59.203,21.44
59.218,44.97
59.234,72.64
59.250,94.39
59.265,98.29
59.281,75.91
59.296,27.36
59.312,-39.32
59.328,-112.53
59.343,-180.01
59.359,-233.59
59.375,-267.58
59.390,-278.48
59.406,-263.55
59.421,-222.23
59.437,-157.67
59.453,-76.7
59.468,10.16
59.484,91.75
59.500,158.36
59.515,205.37
59.531,233.22
59.546,245.86
59.562,248.19
59.578,243.96
59.593,235.78
59.609,225.43
59.625,214.15
59.640,201.93
59.656,189.56
59.671,178.28
59.687,170.11
59.703,167.89
59.718,172.67
59.734,182.45
59.750,191.38
59.765,191.0
59.781,172.31
59.796,131.42
59.812,71.63
59.828,2.64
59.843,-61.34
59.859,-107.27
59.875,-126.15
59.890,-114.77
59.906,-76.2
59.921,-18.41
59.937,49.06
59.953,116.7
59.968,176.2
59.984,221.53
