timestamp,value
00.000,-94.93
00.015,-106.92
00.031,-118.59
00.046,-128.62
00.062,-136.19
00.078,-141.33
00.093,-144.95
00.109,-147.7
00.125,-149.82
00.140,-150.2
00.156,-146.02
00.171,-132.82
00.187,-105.41
00.203,-59.43
00.218,6.23
00.234,88.28
00.250,179.64
00.265,271.2
00.281,353.6
00.296,419.59
00.312,464.7
00.328,487.2
00.343,487.91
00.359,469.73
00.375,437.65
00.390,398.0
00.406,357.34
00.421,320.77
00.437,290.82
00.453,267.41
00.468,248.56
00.484,231.86
00.500,215.26
00.515,196.58
00.531,173.18
00.546,141.95
00.562,101.03
00.578,50.99
00.593,-3.82
00.609,-56.73
00.625,-100.68
00.640,-130.97
00.656,-147.06
00.671,-151.98
00.687,-150.52
00.703,-146.56
00.718,-141.88
00.734,-136.63
00.750,-130.62
00.765,-123.72
00.781,-116.85
00.796,-111.09
00.812,-107.31
00.828,-105.95
00.843,-106.73
00.859,-108.66
00.875,-110.23
00.890,-109.77
00.906,-105.54
00.921,-96.6
00.937,-82.94
00.953,-65.38
00.968,-45.38
00.984,-24.65
01.000,-4.54
01.015,14.24
01.031,31.35
01.046,46.59
01.062,59.95
01.078,71.08
01.093,79.69
01.109,85.76
01.125,89.6
01.140,91.83
01.156,93.34
01.171,95.02
01.187,96.97
01.203,98.76
01.218,99.32
01.234,97.16
01.250,91.09
01.265,80.74
01.281,66.33
01.296,49.03
01.312,30.49
01.328,12.09
01.343,-5.05
01.359,-20.32
01.375,-33.67
01.390,-44.97
01.406,-53.96
01.421,-60.36
01.437,-63.57
01.453,-63.42
01.468,-59.99
01.484,-53.61
01.500,-44.96
01.515,-34.51
01.531,-22.61
01.546,-9.56
01.562,3.92
01.578,17.28
01.593,29.48
01.609,39.5
01.625,46.69
01.640,50.76
01.656,51.61
01.671,49.78
01.687,45.84
01.703,40.31
01.718,34.06
01.734,28.03
01.750,23.19
01.765,20.33
01.781,20.03
01.796,22.04
01.812,26.11
01.828,31.41
01.843,36.9
01.859,41.6
01.875,44.5
01.890,44.99
01.906,42.87
01.921,38.45
01.937,32.34
01.953,25.41
01.968,18.49
01.984,11.97
02.000,5.94
02.015,0.27
02.031,-5.16
02.046,-10.41
02.062,-15.54
02.078,-20.71
02.093,-26.04
02.109,-31.69
02.125,-37.82
02.140,-44.35
02.156,-51.39
02.171,-58.62
02.187,-65.69
02.203,-72.14
02.218,-77.61
02.234,-81.5
02.250,-82.98
02.265,-81.41
02.281,-76.11
02.296,-67.35
02.312,-55.66
02.328,-42.34
02.343,-28.63
02.359,-15.97
02.375,-5.19
02.390,3.79
02.406,11.35
02.421,18.18
02.437,24.71
02.453,30.83
02.468,36.24
02.484,40.86
02.500,44.39
02.515,46.77
02.531,48.2
02.546,48.69
02.562,48.29
02.578,46.98
02.593,44.86
02.609,41.74
02.625,37.87
02.640,33.48
02.656,28.67
02.671,23.71
02.687,18.7
02.703,13.78
02.718,8.9
02.734,3.99
02.750,-1.05
02.765,-6.03
02.781,-10.43
02.796,-13.84
02.812,-15.79
02.828,-16.4
02.843,-15.95
02.859,-15.25
02.875,-15.28
02.890,-16.8
02.906,-20.1
02.921,-25.31
02.937,-32.23
02.953,-40.57
02.968,-50.42
02.984,-61.26
03.000,-72.47
03.015,-83.19
03.031,-92.52
03.046,-99.37
03.062,-103.37
03.078,-104.32
03.093,-101.78
03.109,-96.01
03.125,-87.06
03.140,-75.28
03.156,-61.43
03.171,-46.91
03.187,-33.0
03.203,-21.05
03.218,-11.79
03.234,-4.8
03.250,0.54
03.265,5.27
03.281,10.12
03.296,15.42
03.312,20.9
03.328,26.05
03.343,30.46
03.359,33.81
03.375,36.49
03.390,38.8
03.406,41.32
03.421,44.29
03.437,47.68
03.453,51.52
03.468,55.82
03.484,60.78
03.500,66.42
03.515,72.72
03.531,78.93
03.546,84.14
03.562,87.18
03.578,87.02
03.593,83.3
03.609,76.48
03.625,67.6
03.640,57.78
03.656,48.36
03.671,40.11
03.687,33.42
03.703,28.1
03.718,23.28
03.734,18.06
03.750,11.6
03.765,3.86
03.781,-4.67
03.796,-12.87
03.812,-19.5
03.828,-23.78
03.843,-25.4
03.859,-25.2
03.875,-24.32
03.890,-24.11
03.906,-25.56
03.921,-28.82
03.937,-33.48
03.953,-38.65
03.968,-43.31
03.984,-46.3
04.000,-47.1
04.015,-45.58
04.031,-42.02
04.046,-37.31
04.062,-32.35
04.078,-27.81
04.093,-23.91
04.109,-20.17
04.125,-15.33
04.140,-8.09
04.156,2.25
04.171,15.71
04.187,31.03
04.203,46.58
04.218,60.77
04.234,72.65
04.250,81.98
04.265,89.2
04.281,94.77
04.296,98.86
04.312,101.52
04.328,102.38
04.343,101.49
04.359,99.32
04.375,96.58
04.390,93.99
04.406,91.96
04.421,90.18
04.437,87.98
04.453,84.61
04.468,79.62
04.484,73.35
04.500,66.51
04.515,59.93
04.531,53.95
04.546,48.7
04.562,43.43
04.578,37.59
04.593,30.7
04.609,22.65
04.625,13.87
04.640,4.8
04.656,-3.96
04.671,-12.15
04.687,-19.71
04.703,-27.02
04.718,-34.37
04.734,-42.17
04.750,-50.56
04.765,-59.39
04.781,-68.46
04.796,-77.23
04.812,-84.92
04.828,-90.85
04.843,-94.17
04.859,-94.31
04.875,-91.08
04.890,-85.15
04.906,-77.54
04.921,-69.83
04.937,-63.01
04.953,-57.36
04.968,-52.4
04.984,-47.02
05.000,-40.42
05.015,-32.35
05.031,-23.85
05.046,-16.26
05.062,-11.21
05.078,-9.15
05.093,-9.9
05.109,-12.41
05.125,-15.4
05.140,-18.12
05.156,-20.15
05.171,-21.61
05.187,-22.64
05.203,-23.17
05.218,-22.59
05.234,-20.42
05.250,-16.46
05.265,-11.02
05.281,-5.08
05.296,0.14
05.312,3.82
05.328,5.54
05.343,5.52
05.359,4.55
05.375,3.23
05.390,1.81
05.406,0.14
05.421,-2.3
05.437,-6.02
05.453,-10.85
05.468,-16.18
05.484,-21.07
05.500,-24.53
05.515,-26.15
05.531,-26.19
05.546,-25.44
05.562,-25.4
05.578,-27.17
05.593,-31.4
05.609,-38.45
05.625,-48.03
05.640,-59.25
05.656,-70.73
05.671,-80.77
05.687,-87.6
05.703,-90.09
05.718,-87.68
05.734,-80.56
05.750,-69.42
05.765,-55.61
05.781,-40.4
05.796,-25.31
05.812,-11.54
05.828,0.05
05.843,8.86
05.859,15.22
05.875,19.68
05.890,23.15
05.906,26.18
05.921,28.83
05.937,30.5
05.953,30.8
05.968,29.79
05.984,27.76
06.000,25.88
06.015,24.73
06.031,24.55
06.046,24.95
06.062,25.29
06.078,24.55
06.093,22.6
06.109,19.58
06.125,15.44
06.140,10.02
06.156,2.85
06.171,-6.72
06.187,-18.89
06.203,-33.05
06.218,-47.93
06.234,-61.91
06.250,-73.64
06.265,-82.39
06.281,-88.11
06.296,-91.11
06.312,-91.72
06.328,-89.98
06.343,-85.99
06.359,-79.69
06.375,-71.43
06.390,-62.35
06.406,-53.77
06.421,-47.01
06.437,-43.14
06.453,-42.09
06.468,-42.77
06.484,-43.73
06.500,-43.02
06.515,-39.32
06.531,-32.16
06.546,-21.75
06.562,-8.7
06.578,6.16
06.593,22.34
06.609,39.27
06.625,55.63
06.640,69.41
06.656,78.26
06.671,80.31
06.687,75.11
06.703,63.71
06.718,48.39
06.734,32.29
06.750,18.11
06.765,7.55
06.781,1.27
06.796,-0.81
06.812,0.75
06.828,5.36
06.843,12.45
06.859,20.83
06.875,29.33
06.890,36.48
06.906,40.35
06.921,39.88
06.937,34.35
06.953,24.34
06.968,11.25
06.984,-2.63
07.000,-15.21
07.015,-24.92
07.031,-31.02
07.046,-33.75
07.062,-33.6
07.078,-31.53
07.093,-28.5
07.109,-25.62
07.125,-23.81
07.140,-23.93
07.156,-26.67
07.171,-32.36
07.187,-40.8
07.203,-51.1
07.218,-62.16
07.234,-72.77
07.250,-81.45
07.265,-86.7
07.281,-87.3
07.296,-82.23
07.312,-71.4
07.328,-55.42
07.343,-35.73
07.359,-14.39
07.375,6.17
07.390,23.87
07.406,37.07
07.421,44.94
07.437,48.0
07.453,47.86
07.468,46.59
07.484,46.28
07.500,48.25
07.515,52.47
07.531,58.05
07.546,63.11
07.562,65.78
07.578,65.1
07.593,61.12
07.609,54.56
07.625,46.64
07.640,38.47
07.656,30.58
07.671,23.25
07.687,16.59
07.703,10.55
07.718,5.6
07.734,2.23
07.750,0.7
07.765,1.1
07.781,3.01
07.796,5.65
07.812,7.99
07.828,9.54
07.843,10.04
07.859,9.58
07.875,8.35
07.890,6.21
07.906,3.03
07.921,-1.57
07.937,-7.82
07.953,-15.62
07.968,-24.47
07.984,-33.86
08.000,-43.58
08.015,-53.7
08.031,-64.48
08.046,-75.54
08.062,-85.98
08.078,-94.35
08.093,-98.83
08.109,-98.23
08.125,-92.26
08.140,-81.44
08.156,-66.85
08.171,-49.86
08.187,-31.67
08.203,-13.11
08.218,5.1
08.234,22.54
08.250,38.83
08.265,53.38
08.281,65.7
08.296,75.44
08.312,82.34
08.328,86.44
08.343,88.42
08.359,89.22
08.375,89.8
08.390,90.85
08.406,92.41
08.421,94.18
08.437,95.97
08.453,97.44
08.468,98.47
08.484,98.8
08.500,97.92
08.515,95.37
08.531,90.65
08.546,83.32
08.562,73.64
08.578,62.26
08.593,50.05
08.609,38.03
08.625,26.92
08.640,16.98
08.656,8.49
08.671,1.37
08.687,-4.99
08.703,-11.1
08.718,-17.68
08.734,-25.17
08.750,-33.5
08.765,-42.24
08.781,-50.98
08.796,-58.7
08.812,-64.58
08.828,-68.54
08.843,-71.06
08.859,-73.26
08.875,-76.63
08.890,-82.16
08.906,-90.17
08.921,-100.3
08.937,-109.98
08.953,-116.17
08.968,-116.9
08.984,-112.08
09.000,-103.18
09.015,-92.25
09.031,-80.9
09.046,-70.13
09.062,-60.23
09.078,-49.37
09.093,-35.67
09.109,-19.31
09.125,-3.15
09.140,8.9
09.156,14.42
09.171,12.99
09.187,5.84
09.203,-5.18
09.218,-15.07
09.234,-19.18
09.250,-15.96
09.265,-7.75
09.281,1.35
09.296,8.47
09.312,12.71
09.328,14.39
09.343,14.42
09.359,18.67
09.375,34.78
09.390,68.91
09.406,123.63
09.421,198.73
09.437,292.58
09.453,401.35
09.468,518.84
09.484,610.4
09.500,641.67
09.515,601.13
09.531,508.27
09.546,394.79
09.562,284.48
09.578,188.21
09.593,107.63
09.609,41.05
09.625,-15.25
09.640,-61.47
09.656,-96.05
09.671,-120.24
09.687,-139.05
09.703,-158.9
09.718,-183.68
09.734,-216.69
09.750,-255.16
09.765,-294.26
09.781,-325.26
09.796,-340.48
09.812,-337.33
09.828,-320.37
09.843,-298.59
09.859,-273.48
09.875,-251.47
09.890,-233.17
09.906,-215.23
09.921,-191.06
09.937,-156.34
09.953,-112.76
09.968,-66.82
09.984,-26.23
10.000,4.09
10.015,23.12
10.031,34.58
10.046,42.01
10.062,49.07
10.078,58.4
10.093,70.68
10.109,86.3
10.125,105.82
10.140,129.1
10.156,155.31
10.171,185.13
10.187,215.25
10.203,242.01
10.218,261.75
10.234,271.4
10.250,269.24
10.265,255.07
10.281,230.11
10.296,193.7
10.312,151.48
10.328,107.06
10.343,63.3
10.359,22.59
10.375,-13.43
10.390,-43.39
10.406,-66.28
10.421,-81.9
10.437,-90.71
10.453,-93.42
10.468,-92.86
10.484,-91.74
10.500,-91.96
10.515,-94.88
10.531,-101.21
10.546,-110.56
10.562,-122.24
10.578,-136.36
10.593,-149.43
10.609,-159.74
10.625,-165.54
10.640,-165.01
10.656,-156.63
10.671,-139.81
10.687,-114.52
10.703,-81.87
10.718,-44.0
10.734,-3.33
10.750,36.26
10.765,70.98
10.781,97.73
10.796,114.25
10.812,119.56
10.828,114.17
10.843,99.63
10.859,78.75
10.875,55.3
10.890,32.69
10.906,13.91
10.921,1.73
10.937,-2.45
10.953,2.14
10.968,15.25
10.984,35.32
11.000,60.46
11.015,88.65
11.031,117.56
11.046,145.54
11.062,172.18
11.078,197.13
11.093,221.13
11.109,244.9
11.125,268.47
11.140,291.2
11.156,311.86
11.171,328.99
11.187,339.85
11.203,341.82
11.218,332.4
11.234,310.24
11.250,274.72
11.265,226.12
11.281,165.62
11.296,95.13
11.312,17.54
11.328,-63.48
11.343,-143.37
11.359,-217.85
11.375,-282.54
11.390,-334.56
11.406,-373.31
11.421,-399.89
11.437,-417.45
11.453,-429.07
11.468,-436.95
11.484,-441.53
11.500,-442.04
11.515,-435.75
11.531,-420.32
11.546,-395.68
11.562,-363.76
11.578,-328.97
11.593,-296.59
11.609,-272.28
11.625,-261.69
11.640,-269.25
11.656,-294.6
11.671,-333.07
11.687,-377.08
11.703,-418.25
11.718,-449.45
11.734,-465.71
11.750,-466.38
11.765,-454.57
11.781,-435.22
11.796,-410.04
11.812,-378.22
11.828,-339.11
11.843,-293.71
11.859,-245.0
11.875,-194.96
11.890,-144.36
11.906,-92.09
11.921,-35.07
11.937,34.17
11.953,123.09
11.968,233.58
11.984,360.83
12.000,495.09
12.015,626.82
12.031,748.2
12.046,852.93
12.062,912.28
12.078,901.33
12.093,816.88
12.109,681.03
12.125,524.82
12.140,370.85
12.156,231.42
12.171,111.85
12.187,14.1
12.203,-63.12
12.218,-120.26
12.234,-154.85
12.250,-167.37
12.265,-162.63
12.281,-147.2
12.296,-124.97
12.312,-97.07
12.328,-63.0
12.343,-20.43
12.359,32.56
12.375,97.31
12.390,171.49
12.406,248.93
12.421,314.04
12.437,352.25
12.453,355.75
12.468,326.51
12.484,273.48
12.500,208.82
12.515,143.53
12.531,84.14
12.546,32.95
12.562,-10.44
12.578,-45.47
12.593,-71.39
12.609,-88.42
12.625,-97.98
12.640,-101.81
12.656,-101.19
12.671,-97.81
12.687,-93.57
12.703,-90.51
12.718,-88.73
12.734,-87.3
12.750,-85.28
12.765,-82.44
12.781,-79.33
12.796,-76.43
12.812,-74.6
12.828,-74.85
12.843,-78.24
12.859,-84.28
12.875,-92.42
12.890,-102.15
12.906,-113.01
12.921,-124.94
12.937,-137.35
12.953,-149.37
12.968,-159.8
12.984,-168.61
13.000,-173.69
13.015,-173.39
13.031,-167.01
13.046,-154.53
13.062,-137.17
13.078,-116.32
13.093,-93.82
13.109,-71.4
13.125,-50.72
13.140,-32.6
13.156,-17.72
13.171,-6.5
13.187,1.2
13.203,5.27
13.218,6.28
13.234,4.64
13.250,0.85
13.265,-4.73
13.281,-11.43
13.296,-18.96
13.312,-27.11
13.328,-35.57
13.343,-44.47
13.359,-53.67
13.375,-63.11
13.390,-72.74
13.406,-82.5
13.421,-91.83
13.437,-100.44
13.453,-108.06
13.468,-114.38
13.484,-119.13
13.500,-121.94
13.515,-122.29
13.531,-119.51
13.546,-115.21
13.562,-109.96
13.578,-104.09
13.593,-98.03
13.609,-91.92
13.625,-85.96
13.640,-80.23
13.656,-74.72
13.671,-69.63
13.687,-65.07
13.703,-60.89
13.718,-56.87
13.734,-53.04
13.750,-49.41
13.765,-46.04
13.781,-42.93
13.796,-40.1
13.812,-37.53
13.828,-35.24
13.843,-33.06
13.859,-30.82
13.875,-28.4
13.890,-25.78
13.906,-23.01
13.921,-20.09
13.937,-17.2
13.953,-14.52
13.968,-12.29
13.984,-10.59
14.000,-9.54
14.015,-9.2
14.031,-9.52
14.046,-10.35
14.062,-11.51
14.078,-12.71
14.093,-13.71
14.109,-14.28
14.125,-14.35
14.140,-13.86
14.156,-12.9
14.171,-11.5
14.187,-9.63
14.203,-7.28
14.218,-4.47
14.234,-1.16
14.250,2.62
14.265,6.7
14.281,10.83
14.296,14.84
14.312,18.73
14.328,22.76
14.343,27.4
14.359,32.92
14.375,39.67
14.390,47.57
14.406,56.29
14.421,65.31
14.437,74.06
14.453,82.32
14.468,90.29
14.484,98.72
14.500,108.28
14.515,119.7
14.531,133.14
14.546,148.35
14.562,164.71
14.578,181.54
14.593,198.26
14.609,214.67
14.625,230.94
14.640,247.4
14.656,264.62
14.671,283.11
14.687,303.24
14.703,324.6
14.718,345.62
14.734,363.5
14.750,374.71
14.765,376.18
14.781,366.38
14.796,346.08
14.812,318.07
14.828,286.23
14.843,254.24
14.859,224.39
14.875,197.57
14.890,173.54
14.906,151.85
14.921,132.23
14.937,114.83
14.953,99.74
14.968,86.66
14.984,74.99
15.000,63.62
15.015,51.72
15.031,38.71
15.046,24.65
15.062,9.81
15.078,-5.24
15.093,-20.02
15.109,-34.29
15.125,-47.98
15.140,-61.23
15.156,-73.99
15.171,-86.23
15.187,-97.61
15.203,-107.81
15.218,-116.46
15.234,-123.21
15.250,-127.73
15.265,-129.74
15.281,-129.02
15.296,-125.32
15.312,-118.72
15.328,-109.39
15.343,-97.75
15.359,-84.47
15.375,-70.4
15.390,-56.46
15.406,-43.47
15.421,-32.03
15.437,-22.3
15.453,-14.27
15.468,-7.62
15.484,-2.04
15.500,2.8
15.515,7.03
15.531,10.67
15.546,13.74
15.562,16.11
15.578,17.92
15.593,19.19
15.609,20.18
15.625,21.04
15.640,21.88
15.656,22.67
15.671,23.18
15.687,23.22
15.703,22.48
15.718,21.03
15.734,18.99
15.750,16.64
15.765,14.17
15.781,11.62
15.796,8.91
15.812,5.8
15.828,2.22
15.843,-2.03
15.859,-6.91
15.875,-12.33
15.890,-18.11
15.906,-24.1
15.921,-30.14
15.937,-36.08
15.953,-41.76
15.968,-46.87
15.984,-51.46
16.000,-55.57
16.015,-59.53
16.031,-63.62
16.046,-67.88
16.062,-72.03
16.078,-75.24
16.093,-76.52
16.109,-74.84
16.125,-69.77
16.140,-61.47
16.156,-50.75
16.171,-38.81
16.187,-26.59
16.203,-14.85
16.218,-3.9
16.234,6.13
16.250,15.26
16.265,23.35
16.281,30.36
16.296,36.16
16.312,40.5
16.328,43.35
16.343,44.63
16.359,44.51
16.375,43.17
16.390,40.88
16.406,37.81
16.421,34.3
16.437,30.69
16.453,27.23
16.468,24.36
16.484,22.33
16.500,21.21
16.515,20.82
16.531,20.65
16.546,20.12
16.562,18.8
16.578,16.52
16.593,13.37
16.609,9.68
16.625,5.88
16.640,2.18
16.656,-1.34
16.671,-4.86
16.687,-8.58
16.703,-12.71
16.718,-17.26
16.734,-22.03
16.750,-26.78
16.765,-31.32
16.781,-35.56
16.796,-39.56
16.812,-43.37
16.828,-47.04
16.843,-50.71
16.859,-54.49
16.875,-58.34
16.890,-62.16
16.906,-65.66
16.921,-68.28
16.937,-69.23
16.953,-67.62
16.968,-62.8
16.984,-54.63
17.000,-43.54
17.015,-30.41
17.031,-16.54
17.046,-3.2
17.062,8.6
17.078,18.29
17.093,25.67
17.109,30.83
17.125,34.09
17.140,35.8
17.156,36.41
17.171,36.23
17.187,35.74
17.203,35.14
17.218,34.62
17.234,34.09
17.250,33.45
17.265,32.57
17.281,31.54
17.296,30.53
17.312,29.69
17.328,29.13
17.343,28.68
17.359,27.99
17.375,26.66
17.390,24.58
17.406,21.73
17.421,18.41
17.437,14.9
17.453,11.42
17.468,8.09
17.484,4.85
17.500,1.65
17.515,-1.53
17.531,-4.66
17.546,-7.82
17.562,-11.02
17.578,-14.24
17.593,-17.41
17.609,-20.34
17.625,-22.92
17.640,-25.12
17.656,-27.01
17.671,-28.79
17.687,-30.57
17.703,-32.34
17.718,-33.63
17.734,-33.99
17.750,-32.76
17.765,-29.62
17.781,-24.38
17.796,-17.26
17.812,-8.74
17.828,0.52
17.843,9.81
17.859,18.61
17.875,26.29
17.890,32.63
17.906,37.47
17.921,40.87
17.937,42.99
17.953,44.1
17.968,44.44
17.984,44.16
18.000,43.46
18.015,42.31
18.031,40.87
18.046,39.17
18.062,37.24
18.078,35.13
18.093,32.9
18.109,30.68
18.125,28.59
18.140,26.77
18.156,25.09
18.171,23.51
18.187,21.72
18.203,19.44
18.218,16.54
18.234,13.02
18.250,9.05
18.265,4.76
18.281,0.42
18.296,-3.92
18.312,-8.06
18.328,-11.96
18.343,-15.59
18.359,-18.8
18.375,-21.62
18.390,-24.08
18.406,-26.28
18.421,-28.33
18.437,-30.45
18.453,-32.76
18.468,-35.32
18.484,-38.17
18.500,-41.06
18.515,-43.64
18.531,-45.37
18.546,-45.52
18.562,-43.32
18.578,-38.37
18.593,-30.74
18.609,-20.99
18.625,-10.01
18.640,1.23
18.656,11.84
18.671,21.2
18.687,29.02
18.703,35.25
18.718,39.95
18.734,43.27
18.750,45.34
18.765,46.24
18.781,46.24
18.796,45.42
18.812,43.94
18.828,41.91
18.843,39.5
18.859,36.85
18.875,34.15
18.890,31.53
18.906,29.06
18.921,26.85
18.937,24.99
18.953,23.5
18.968,22.29
18.984,21.2
19.000,19.86
19.015,18.02
19.031,15.47
19.046,12.14
19.062,8.15
19.078,3.79
19.093,-0.64
19.109,-5.05
19.125,-9.46
19.140,-14.09
19.156,-19.02
19.171,-24.18
19.187,-29.43
19.203,-34.4
19.218,-38.83
19.234,-42.62
19.250,-46.07
19.265,-49.62
19.281,-53.84
19.296,-59.14
19.312,-65.64
19.328,-73.23
19.343,-81.21
19.359,-88.68
19.375,-94.6
19.390,-97.89
19.406,-97.65
19.421,-93.42
19.437,-85.1
19.453,-73.04
19.468,-58.09
19.484,-41.25
19.500,-23.86
19.515,-7.31
19.531,7.23
19.546,19.04
19.562,27.94
19.578,34.25
19.593,38.66
19.609,41.72
19.625,43.92
19.640,45.25
19.656,45.67
19.671,45.22
19.687,44.18
19.703,42.9
19.718,41.7
19.734,40.84
19.750,40.24
19.765,39.76
19.781,39.11
19.796,38.17
19.812,36.93
19.828,35.38
19.843,33.44
19.859,31.0
19.875,27.88
19.890,23.94
19.906,19.21
19.921,13.89
19.937,8.26
19.953,2.71
19.968,-2.49
19.984,-7.22
20.000,-11.46
20.015,-15.26
20.031,-18.72
20.046,-21.82
20.062,-24.52
20.078,-26.67
20.093,-28.33
20.109,-29.57
20.125,-30.66
20.140,-31.99
20.156,-33.88
20.171,-36.53
20.187,-39.82
20.203,-43.5
20.218,-46.91
20.234,-49.41
20.250,-50.19
20.265,-48.59
20.281,-44.18
20.296,-36.93
20.312,-27.41
20.328,-16.52
20.343,-5.45
20.359,4.77
20.375,13.39
20.390,20.25
20.406,25.44
20.421,29.37
20.437,32.39
20.453,34.67
20.468,36.25
20.484,37.12
20.500,37.18
20.515,36.44
20.531,35.01
20.546,33.21
20.562,31.26
20.578,29.38
20.593,27.6
20.609,25.93
20.625,24.25
20.640,22.4
20.656,20.21
20.671,17.63
20.687,14.81
20.703,11.9
20.718,9.04
20.734,6.21
20.750,3.35
20.765,0.35
20.781,-2.93
20.796,-6.43
20.812,-10.01
20.828,-13.41
20.843,-16.37
20.859,-18.81
20.875,-20.84
20.890,-22.51
20.906,-23.98
20.921,-25.34
20.937,-26.65
20.953,-27.99
20.968,-29.6
20.984,-31.6
21.000,-33.85
21.015,-35.97
21.031,-37.27
21.046,-36.94
21.062,-34.3
21.078,-29.1
21.093,-21.55
21.109,-12.29
21.125,-2.18
21.140,7.99
21.156,17.51
21.171,25.79
21.187,32.36
21.203,36.93
21.218,39.25
21.234,39.29
21.250,37.15
21.265,33.31
21.281,28.4
21.296,23.14
21.312,18.27
21.328,14.2
21.343,11.19
21.359,9.09
21.375,7.75
21.390,6.91
21.406,6.53
21.421,6.69
21.437,7.35
21.453,8.41
21.468,9.5
21.484,10.21
21.500,10.11
21.515,8.95
21.531,6.71
21.546,3.61
21.562,0.03
21.578,-3.73
21.593,-7.41
21.609,-10.86
21.625,-13.99
21.640,-16.81
21.656,-19.22
21.671,-21.22
21.687,-22.81
21.703,-23.89
21.718,-24.5
21.734,-24.53
21.750,-23.85
21.765,-22.07
21.781,-18.85
21.796,-13.86
21.812,-7.04
21.828,1.15
21.843,10.04
21.859,18.64
21.875,26.22
21.890,32.15
21.906,36.34
21.921,39.0
21.937,40.38
21.953,40.74
21.968,40.17
21.984,38.65
22.000,36.04
22.015,32.55
22.031,28.37
22.046,24.01
22.062,20.0
22.078,16.62
22.093,13.88
22.109,11.53
22.125,9.44
22.140,7.37
22.156,5.48
22.171,3.84
22.187,2.5
22.203,1.36
22.218,0.11
22.234,-1.53
22.250,-3.84
22.265,-6.73
22.281,-10.05
22.296,-13.46
22.312,-16.69
22.328,-19.56
22.343,-22.06
22.359,-24.34
22.375,-26.44
22.390,-28.53
22.406,-30.66
22.421,-32.75
22.437,-34.63
22.453,-36.24
22.468,-37.22
22.484,-37.16
22.500,-35.76
22.515,-32.58
22.531,-27.5
22.546,-20.68
22.562,-12.52
22.578,-3.63
22.593,5.15
22.609,13.11
22.625,19.76
22.640,24.77
22.656,28.29
22.671,30.54
22.687,31.82
22.703,32.33
22.718,32.06
22.734,30.98
22.750,29.13
22.765,26.69
22.781,23.89
22.796,21.23
22.812,18.92
22.828,17.06
22.843,15.59
22.859,14.3
22.875,13.08
22.890,11.89
22.906,10.72
22.921,9.48
22.937,8.23
22.953,6.81
22.968,5.04
22.984,2.96
23.000,0.51
23.015,-2.19
23.031,-5.03
23.046,-7.93
23.062,-10.89
23.078,-13.82
23.093,-16.74
23.109,-19.71
23.125,-22.57
23.140,-25.3
23.156,-27.73
23.171,-29.75
23.187,-31.4
23.203,-32.8
23.218,-34.15
23.234,-35.48
23.250,-36.73
23.265,-37.42
23.281,-37.16
23.296,-35.34
23.312,-31.52
23.328,-25.6
23.343,-17.75
23.359,-8.68
23.375,0.88
23.390,10.03
23.406,18.16
23.421,24.78
23.437,29.82
23.453,33.46
23.468,35.91
23.484,37.65
23.500,38.93
23.515,40.23
23.531,41.73
23.546,43.6
23.562,45.72
23.578,47.95
23.593,50.12
23.609,52.15
23.625,54.3
23.640,56.75
23.656,60.19
23.671,64.91
23.687,70.92
23.703,77.79
23.718,84.84
23.734,91.71
23.750,98.28
23.765,105.01
23.781,112.4
23.796,121.45
23.812,132.45
23.828,144.89
23.843,157.67
23.859,169.63
23.875,180.3
23.890,189.96
23.906,199.8
23.921,210.91
23.937,224.92
23.953,242.33
23.968,262.36
23.984,283.3
24.000,303.02
24.015,319.58
24.031,331.27
24.046,336.99
24.062,335.72
24.078,327.96
24.093,313.91
24.109,293.07
24.125,264.15
24.140,225.17
24.156,174.37
24.171,111.12
24.187,37.0
24.203,-51.81
24.218,-151.52
24.234,-252.7
24.250,-343.02
24.265,-411.45
24.281,-452.49
24.296,-467.09
24.312,-460.68
24.328,-440.08
24.343,-411.47
24.359,-378.47
24.375,-343.84
24.390,-310.35
24.406,-280.24
24.421,-254.95
24.437,-234.75
24.453,-218.74
24.468,-205.41
24.484,-193.33
24.500,-180.73
24.515,-166.95
24.531,-152.73
24.546,-139.3
24.562,-127.79
24.578,-118.63
24.593,-111.36
24.609,-105.02
24.625,-98.76
24.640,-91.54
24.656,-83.28
24.671,-74.68
24.687,-66.69
24.703,-60.17
24.718,-55.39
24.734,-51.98
24.750,-49.11
24.765,-45.88
24.781,-41.37
24.796,-35.41
24.812,-28.59
24.828,-22.04
24.843,-16.97
24.859,-14.11
24.875,-13.26
24.890,-13.38
24.906,-13.22
24.921,-11.66
24.937,-8.59
24.953,-4.74
24.968,-1.25
24.984,0.92
25.000,1.38
25.015,0.32
25.031,-1.43
25.046,-3.07
25.062,-3.7
25.078,-2.74
25.093,0.39
25.109,5.87
25.125,13.94
25.140,24.52
25.156,37.16
25.171,51.35
25.187,65.94
25.203,80.18
25.218,92.2
25.234,100.63
25.250,104.21
25.265,102.45
25.281,95.47
25.296,83.72
25.312,68.33
25.328,50.35
25.343,31.23
25.359,12.19
25.375,-5.38
25.390,-20.43
25.406,-32.39
25.421,-40.88
25.437,-46.15
25.453,-48.57
25.468,-48.91
25.484,-47.73
25.500,-45.78
25.515,-43.27
25.531,-40.49
25.546,-37.51
25.562,-34.37
25.578,-31.28
25.593,-28.08
25.609,-25.29
25.625,-22.83
25.640,-20.77
25.656,-19.03
25.671,-17.13
25.687,-14.66
25.703,-11.11
25.718,-6.43
25.734,-0.42
25.750,6.33
25.765,13.11
25.781,19.16
25.796,23.43
25.812,25.49
25.828,25.38
25.843,23.99
25.859,22.38
25.875,21.82
25.890,22.95
25.906,25.75
25.921,29.63
25.937,33.65
25.953,37.13
25.968,39.39
25.984,40.71
26.000,41.14
26.015,41.42
26.031,42.35
26.046,45.32
26.062,51.46
26.078,60.76
26.093,72.33
26.109,83.57
26.125,91.81
26.140,94.96
26.156,92.48
26.171,84.99
26.187,74.21
26.203,62.93
26.218,52.75
26.234,44.48
26.250,37.6
26.265,31.35
26.281,25.19
26.296,18.96
26.312,12.69
26.328,6.41
26.343,0.08
26.359,-6.97
26.375,-14.82
26.390,-23.55
26.406,-32.42
26.421,-40.43
26.437,-46.77
26.453,-50.69
26.468,-52.49
26.484,-52.8
26.500,-53.04
26.515,-54.12
26.531,-56.72
26.546,-60.49
26.562,-64.47
26.578,-67.67
26.593,-69.19
26.609,-68.83
26.625,-67.0
26.640,-64.41
26.656,-61.45
26.671,-58.56
26.687,-55.87
26.703,-53.48
26.718,-51.79
26.734,-50.91
26.750,-50.8
26.765,-51.26
26.781,-51.9
26.796,-52.44
26.812,-52.84
26.828,-53.48
26.843,-54.67
26.859,-56.72
26.875,-59.3
26.890,-61.62
26.906,-63.01
26.921,-62.71
26.937,-60.76
26.953,-57.36
26.968,-53.1
26.984,-48.29
27.000,-43.2
27.015,-37.89
27.031,-32.2
27.046,-26.27
27.062,-20.22
27.078,-14.61
27.093,-9.88
27.109,-6.34
27.125,-3.87
27.140,-2.05
27.156,-0.55
27.171,0.89
27.187,2.36
27.203,3.61
27.218,4.21
27.234,3.58
27.250,1.37
27.265,-2.69
27.281,-8.45
27.296,-15.93
27.312,-24.78
27.328,-34.38
27.343,-44.06
27.359,-52.75
27.375,-59.66
27.390,-63.84
27.406,-64.75
27.421,-62.11
27.437,-56.31
27.453,-47.81
27.468,-37.38
27.484,-25.9
27.500,-14.06
27.515,-2.64
27.531,7.87
27.546,16.97
27.562,24.32
27.578,29.76
27.593,33.54
27.609,35.99
27.625,37.44
27.640,38.38
27.656,39.06
27.671,39.65
27.687,40.28
27.703,41.09
27.718,42.25
27.734,44.06
27.750,46.55
27.765,49.54
27.781,52.71
27.796,55.39
27.812,57.06
27.828,57.33
27.843,56.1
27.859,53.52
27.875,49.68
27.890,44.8
27.906,39.29
27.921,33.68
27.937,28.19
27.953,23.14
27.968,18.69
27.984,14.86
28.000,11.59
28.015,8.52
28.031,5.27
28.046,1.67
28.062,-2.0
28.078,-5.68
28.093,-8.95
28.109,-11.66
28.125,-13.91
28.140,-16.18
28.156,-19.01
28.171,-22.81
28.187,-27.62
28.203,-32.72
28.218,-37.12
28.234,-39.51
28.250,-38.99
28.265,-34.89
28.281,-27.33
28.296,-17.01
28.312,-4.9
28.328,7.74
28.343,19.68
28.359,30.25
28.375,39.13
28.390,45.92
28.406,50.63
28.421,53.29
28.437,54.01
28.453,53.14
28.468,51.12
28.484,48.44
28.500,45.53
28.515,42.77
28.531,40.15
28.546,37.2
28.562,33.88
28.578,30.18
28.593,26.48
28.609,23.33
28.625,21.43
28.640,20.81
28.656,21.33
28.671,22.49
28.687,23.28
28.703,22.96
28.718,21.08
28.734,17.66
28.750,12.83
28.765,7.16
28.781,1.04
28.796,-5.04
28.812,-10.89
28.828,-16.45
28.843,-21.76
28.859,-27.14
28.875,-32.56
28.890,-38.07
28.906,-43.39
28.921,-48.26
28.937,-52.28
28.953,-55.52
28.968,-58.21
28.984,-60.61
29.000,-63.01
29.015,-65.22
29.031,-66.48
29.046,-66.02
29.062,-62.88
29.078,-56.22
29.093,-45.72
29.109,-31.65
29.125,-14.93
29.140,2.85
29.156,19.69
29.171,34.29
29.187,45.75
29.203,54.1
29.218,60.06
29.234,64.57
29.250,68.55
29.265,72.32
29.281,75.66
29.296,77.94
29.312,78.91
29.328,78.24
29.343,76.26
29.359,73.52
29.375,70.5
29.390,67.81
29.406,65.6
29.421,63.68
29.437,61.52
29.453,58.63
29.468,54.46
29.484,48.9
29.500,42.32
29.515,35.34
29.531,28.82
29.546,23.3
29.562,18.83
29.578,14.87
29.593,10.61
29.609,5.44
29.625,-0.87
29.640,-7.97
29.656,-15.32
29.671,-22.29
29.687,-28.4
29.703,-33.29
29.718,-36.71
29.734,-38.89
29.750,-40.29
29.765,-41.58
29.781,-43.56
29.796,-46.97
29.812,-52.4
29.828,-59.92
29.843,-69.16
29.859,-79.01
29.875,-88.12
29.890,-95.14
29.906,-98.86
29.921,-98.24
29.937,-92.96
29.953,-83.29
29.968,-69.9
29.984,-53.98
30.000,-36.62
30.015,-18.94
30.031,-1.94
30.046,13.23
30.062,25.89
30.078,35.8
30.093,42.88
30.109,47.71
30.125,50.66
30.140,52.04
30.156,51.83
30.171,50.04
30.187,46.4
30.203,41.0
30.218,34.38
30.234,27.34
30.250,20.72
30.265,15.08
30.281,10.51
30.296,7.02
30.312,4.42
30.328,2.57
30.343,1.32
30.359,0.27
30.375,-0.79
30.390,-2.23
30.406,-4.54
30.421,-7.95
30.437,-12.55
30.453,-18.23
30.468,-24.45
30.484,-30.7
30.500,-36.74
30.515,-42.47
30.531,-47.74
30.546,-52.69
30.562,-57.46
30.578,-62.03
30.593,-66.3
30.609,-69.73
30.625,-71.87
30.640,-72.25
30.656,-71.09
30.671,-68.8
30.687,-66.24
30.703,-64.07
30.718,-62.5
30.734,-61.37
30.750,-59.82
30.765,-57.06
30.781,-52.11
30.796,-44.51
30.812,-34.24
30.828,-21.93
30.843,-8.37
30.859,5.28
30.875,17.76
30.890,28.39
30.906,36.55
30.921,42.36
30.937,46.43
30.953,49.31
30.968,51.34
30.984,52.79
31.000,53.6
31.015,53.33
31.031,52.12
31.046,50.1
31.062,47.83
31.078,45.83
31.093,44.16
31.109,42.76
31.125,41.01
31.140,38.64
31.156,35.49
31.171,31.96
31.187,28.44
31.203,25.37
31.218,22.93
31.234,20.71
31.250,18.42
31.265,15.37
31.281,11.28
31.296,6.11
31.312,0.34
31.328,-5.9
31.343,-12.32
31.359,-18.63
31.375,-24.92
31.390,-30.96
31.406,-36.7
31.421,-42.05
31.437,-46.97
31.453,-51.45
31.468,-55.53
31.484,-59.32
31.500,-62.31
31.515,-64.29
31.531,-64.62
31.546,-62.94
31.562,-58.82
31.578,-51.96
31.593,-42.41
31.609,-30.45
31.625,-16.81
31.640,-2.51
31.656,11.16
31.671,23.31
31.687,33.23
31.703,40.79
31.718,46.21
31.734,49.94
31.750,52.28
31.765,53.54
31.781,53.9
31.796,53.34
31.812,51.98
31.828,49.87
31.843,47.0
31.859,43.58
31.875,39.67
31.890,35.41
31.906,30.82
31.921,26.14
31.937,21.61
31.953,17.43
31.968,13.87
31.984,10.93
32.000,8.6
32.015,6.57
32.031,4.52
32.046,2.11
32.062,-0.63
32.078,-3.78
32.093,-7.1
32.109,-10.83
32.125,-15.11
32.140,-20.29
32.156,-26.64
32.171,-33.99
32.187,-41.76
32.203,-49.16
32.218,-55.48
32.234,-60.0
32.250,-63.08
32.265,-65.13
32.281,-67.03
32.296,-69.32
32.312,-72.2
32.328,-74.85
32.343,-76.36
32.359,-75.52
32.375,-71.12
32.390,-62.98
32.406,-51.23
32.421,-36.77
32.437,-20.57
32.453,-3.75
32.468,12.93
32.484,28.63
32.500,42.57
32.515,54.52
32.531,64.0
32.546,70.88
32.562,75.37
32.578,77.69
32.593,78.47
32.609,78.3
32.625,77.8
32.640,77.07
32.656,76.1
32.671,74.31
32.687,71.34
32.703,66.98
32.718,61.36
32.734,55.12
32.750,48.78
32.765,42.96
32.781,37.92
32.796,33.89
32.812,30.39
32.828,27.21
32.843,24.17
32.859,20.99
32.875,17.64
32.890,13.96
32.906,9.85
32.921,5.14
32.937,-0.12
32.953,-6.3
32.968,-13.49
32.984,-21.57
33.000,-30.58
33.015,-40.19
33.031,-50.05
33.046,-59.57
33.062,-67.96
33.078,-74.22
33.093,-77.87
33.109,-78.95
33.125,-77.97
33.140,-76.35
33.156,-75.43
33.171,-76.4
33.187,-79.53
33.203,-84.08
33.218,-88.23
33.234,-90.09
33.250,-87.89
33.265,-80.81
33.281,-69.17
33.296,-53.74
33.312,-35.83
33.328,-16.88
33.343,1.54
33.359,18.1
33.375,31.55
33.390,41.53
33.406,48.4
33.421,53.19
33.437,57.52
33.453,62.58
33.468,68.75
33.484,75.56
33.500,81.79
33.515,86.43
33.531,88.9
33.546,89.34
33.562,88.25
33.578,86.45
33.593,84.53
33.609,82.41
33.625,79.85
33.640,76.41
33.656,71.77
33.671,65.88
33.687,59.03
33.703,51.45
33.718,43.48
33.734,35.03
33.750,25.91
33.765,16.14
33.781,5.83
33.796,-4.13
33.812,-13.08
33.828,-20.24
33.843,-25.67
33.859,-29.72
33.875,-33.24
33.890,-37.05
33.906,-41.46
33.921,-46.65
33.937,-52.12
33.953,-57.69
33.968,-63.07
33.984,-68.23
34.000,-73.11
34.015,-77.56
34.031,-81.67
34.046,-85.23
34.062,-88.45
34.078,-91.58
34.093,-94.7
34.109,-97.7
34.125,-99.99
34.140,-100.37
34.156,-97.24
34.171,-89.49
34.187,-76.36
34.203,-58.37
34.218,-37.22
34.234,-15.17
34.250,5.35
34.265,22.51
34.281,35.33
34.296,44.2
34.312,49.98
34.328,54.11
34.343,57.63
34.359,61.04
34.375,64.66
34.390,68.32
34.406,71.97
34.421,75.25
34.437,77.95
34.453,79.39
34.468,79.19
34.484,76.95
34.500,72.59
34.515,66.64
34.531,59.6
34.546,52.19
34.562,45.02
34.578,38.45
34.593,32.5
34.609,27.06
34.625,21.81
34.640,16.47
34.656,11.21
34.671,6.09
34.687,1.35
34.703,-2.65
34.718,-6.0
34.734,-8.95
34.750,-11.95
34.765,-15.58
34.781,-20.22
34.796,-25.69
34.812,-31.54
34.828,-37.27
34.843,-42.32
34.859,-46.86
34.875,-51.24
34.890,-55.9
34.906,-61.24
34.921,-67.25
34.937,-73.28
34.953,-78.42
34.968,-81.56
34.984,-81.74
35.000,-78.49
35.015,-71.64
35.031,-61.47
35.046,-48.61
35.062,-34.03
35.078,-18.78
35.093,-3.99
35.109,9.45
35.125,20.83
35.140,29.74
35.156,36.04
35.171,39.97
35.187,41.9
35.203,42.56
35.218,42.58
35.234,42.39
35.250,42.27
35.265,42.07
35.281,41.48
35.296,40.05
35.312,37.65
35.328,34.35
35.343,30.87
35.359,27.72
35.375,25.17
35.390,23.43
35.406,22.26
35.421,21.41
35.437,20.44
35.453,19.14
35.468,17.16
35.484,14.56
35.500,11.35
35.515,7.78
35.531,4.16
35.546,0.7
35.562,-2.38
35.578,-5.13
35.593,-7.85
35.609,-10.93
35.625,-14.85
35.640,-19.89
35.656,-26.11
35.671,-33.12
35.687,-40.62
35.703,-48.04
35.718,-55.17
35.734,-61.71
35.750,-67.4
35.765,-71.72
35.781,-73.76
35.796,-72.6
35.812,-67.36
35.828,-58.01
35.843,-44.96
35.859,-29.47
35.875,-13.17
35.890,2.19
35.906,15.39
35.921,25.95
35.937,33.97
35.953,39.93
35.968,44.35
35.984,47.77
36.000,50.47
36.015,52.63
36.031,54.22
36.046,55.33
36.062,56.04
36.078,56.4
36.093,56.13
36.109,54.83
36.125,52.3
36.140,48.45
36.156,43.64
36.171,38.41
36.187,33.51
36.203,29.36
36.218,26.1
36.234,23.38
36.250,20.77
36.265,17.95
36.281,14.83
36.296,11.57
36.312,8.4
36.328,5.46
36.343,2.5
36.359,-0.74
36.375,-4.51
36.390,-8.83
36.406,-13.36
36.421,-18.06
36.437,-22.64
36.453,-27.22
36.468,-31.94
36.484,-37.02
36.500,-42.51
36.515,-48.16
36.531,-53.66
36.546,-58.58
36.562,-62.94
36.578,-66.67
36.593,-69.93
36.609,-72.85
36.625,-75.47
36.640,-77.61
36.656,-78.63
36.671,-77.84
36.687,-74.31
36.703,-67.57
36.718,-57.42
36.734,-44.49
36.750,-29.72
36.765,-14.34
36.781,0.5
36.796,14.18
36.812,26.26
36.828,37.0
36.843,46.61
36.859,55.33
36.875,63.14
36.890,69.58
36.906,74.48
36.921,77.45
36.937,78.59
36.953,78.13
36.968,76.28
36.984,73.51
37.000,70.14
37.015,66.7
37.031,63.26
37.046,60.13
37.062,57.46
37.078,55.3
37.093,53.63
37.109,52.31
37.125,51.03
37.140,49.57
37.156,47.78
37.171,45.4
37.187,42.32
37.203,38.56
37.218,34.08
37.234,28.83
37.250,22.83
37.265,16.16
37.281,9.07
37.296,1.94
37.312,-5.1
37.328,-11.97
37.343,-18.75
37.359,-25.72
37.375,-33.01
37.390,-40.79
37.406,-48.92
37.421,-57.33
37.437,-65.61
37.453,-73.24
37.468,-79.8
37.484,-85.13
37.500,-89.25
37.515,-92.18
37.531,-94.01
37.546,-94.54
37.562,-93.42
37.578,-89.92
37.593,-83.35
37.609,-73.02
37.625,-59.06
37.640,-42.21
37.656,-23.63
37.671,-5.0
37.687,12.23
37.703,26.83
37.718,38.31
37.734,46.52
37.750,52.02
37.765,55.37
37.781,57.1
37.796,57.86
37.812,57.88
37.828,57.49
37.843,56.97
37.859,56.49
37.875,56.01
37.890,55.44
37.906,54.4
37.921,52.5
37.937,49.61
37.953,45.68
37.968,41.16
37.984,36.56
38.000,32.29
38.015,28.58
38.031,25.39
38.046,22.63
38.062,19.96
38.078,17.13
38.093,13.59
38.109,9.33
38.125,4.34
38.140,-1.2
38.156,-6.84
38.171,-12.24
38.187,-17.0
38.203,-21.17
38.218,-24.65
38.234,-27.87
38.250,-31.01
38.265,-34.2
38.281,-37.5
38.296,-40.62
38.312,-43.4
38.328,-45.62
38.343,-47.42
38.359,-49.04
38.375,-51.07
38.390,-53.79
38.406,-57.15
38.421,-60.63
38.437,-63.02
38.453,-63.25
38.468,-60.36
38.484,-53.94
38.500,-44.13
38.515,-31.61
38.531,-17.49
38.546,-2.98
38.562,10.79
38.578,22.96
38.593,32.7
38.609,39.87
38.625,44.59
38.640,47.31
38.656,48.56
38.671,48.62
38.687,47.6
38.703,45.61
38.718,43.03
38.734,40.02
38.750,37.28
38.765,35.14
38.781,33.84
38.796,33.3
38.812,33.23
38.828,33.11
38.843,32.78
38.859,32.09
38.875,30.88
38.890,29.09
38.906,26.44
38.921,22.62
38.937,17.67
38.953,11.86
38.968,5.56
38.984,-0.37
39.000,-5.53
39.015,-9.67
39.031,-12.87
39.046,-15.78
39.062,-18.94
39.078,-22.61
39.093,-26.85
39.109,-31.54
39.125,-36.13
39.140,-40.21
39.156,-43.45
39.171,-45.66
39.187,-47.15
39.203,-48.48
39.218,-50.14
39.234,-52.77
39.250,-56.58
39.265,-61.46
39.281,-66.62
39.296,-70.77
39.312,-72.09
39.328,-69.45
39.343,-62.1
39.359,-50.23
39.375,-35.01
39.390,-17.87
39.406,-0.4
39.421,16.09
39.437,30.71
39.453,43.39
39.468,53.96
39.484,62.56
39.500,69.3
39.515,74.2
39.531,77.37
39.546,78.94
39.562,79.18
39.578,78.31
39.593,76.69
39.609,74.49
39.625,72.01
39.640,69.22
39.656,66.31
39.671,63.36
39.687,60.28
39.703,57.07
39.718,53.66
39.734,49.96
39.750,46.04
39.765,42.14
39.781,38.01
39.796,33.57
39.812,28.57
39.828,22.89
39.843,16.6
39.859,9.89
39.875,2.97
39.890,-3.72
39.906,-9.86
39.921,-15.55
39.937,-20.99
39.953,-26.48
39.968,-32.2
39.984,-37.83
40.000,-43.33
40.015,-48.45
40.031,-52.97
40.046,-56.84
40.062,-60.11
40.078,-62.89
40.093,-65.54
40.109,-68.68
40.125,-72.49
40.140,-77.21
40.156,-82.49
40.171,-87.38
40.187,-90.37
40.203,-90.2
40.218,-85.57
40.234,-76.23
40.250,-62.69
40.265,-45.95
40.281,-27.52
40.296,-8.82
40.312,8.68
40.328,24.2
40.343,37.17
40.359,47.75
40.375,56.04
40.390,62.44
40.406,67.41
40.421,71.01
40.437,73.4
40.453,74.41
40.468,73.99
40.484,72.2
40.500,69.56
40.515,66.44
40.531,63.18
40.546,60.04
40.562,57.08
40.578,54.23
40.593,51.27
40.609,47.98
40.625,43.91
40.640,38.93
40.656,33.05
40.671,26.29
40.687,19.02
40.703,11.59
40.718,4.34
40.734,-2.61
40.750,-9.12
40.765,-15.1
40.781,-20.5
40.796,-25.27
40.812,-29.48
40.828,-33.08
40.843,-36.28
40.859,-39.11
40.875,-41.82
40.890,-44.58
40.906,-47.44
40.921,-50.5
40.937,-53.87
40.953,-57.65
40.968,-61.53
40.984,-65.55
41.000,-69.51
41.015,-73.3
41.031,-77.07
41.046,-81.03
41.062,-85.12
41.078,-89.04
41.093,-92.03
41.109,-92.76
41.125,-90.17
41.140,-83.71
41.156,-73.42
41.171,-60.06
41.187,-44.99
41.203,-29.4
41.218,-14.2
41.234,0.02
41.250,12.83
41.265,24.11
41.281,33.75
41.296,41.59
41.312,47.7
41.328,52.12
41.343,54.94
41.359,56.31
41.375,56.56
41.390,55.8
41.406,54.21
41.421,52.01
41.437,49.31
41.453,46.3
41.468,43.18
41.484,40.3
41.500,37.69
41.515,35.44
41.531,33.38
41.546,31.16
41.562,28.43
41.578,24.87
41.593,20.44
41.609,15.33
41.625,10.13
41.640,5.3
41.656,1.22
41.671,-2.15
41.687,-4.83
41.703,-7.25
41.718,-9.69
41.734,-12.51
41.750,-15.94
41.765,-20.09
41.781,-24.82
41.796,-29.84
41.812,-34.89
41.828,-39.43
41.843,-43.38
41.859,-46.86
41.875,-50.27
41.890,-54.06
41.906,-58.47
41.921,-63.06
41.937,-67.15
41.953,-69.28
41.968,-68.25
41.984,-63.19
42.000,-53.77
42.015,-40.44
42.031,-24.24
42.046,-6.44
42.062,11.69
42.078,28.82
42.093,44.19
42.109,57.15
42.125,67.42
42.140,75.0
42.156,80.11
42.171,82.81
42.187,83.42
42.203,82.11
42.218,79.14
42.234,75.11
42.250,70.52
42.265,65.85
42.281,61.14
42.296,56.44
42.312,51.38
42.328,46.07
42.343,40.69
42.359,35.42
42.375,30.7
42.390,26.76
42.406,23.66
42.421,21.14
42.437,18.64
42.453,15.62
42.468,11.85
42.484,7.27
42.500,2.22
42.515,-2.84
42.531,-7.54
42.546,-11.8
42.562,-15.64
42.578,-19.47
42.593,-23.58
42.609,-28.3
42.625,-33.77
42.640,-39.96
42.656,-46.87
42.671,-54.13
42.687,-61.42
42.703,-68.24
42.718,-74.43
42.734,-80.0
42.750,-85.37
42.765,-90.76
42.781,-96.17
42.796,-100.93
42.812,-103.81
42.828,-103.25
42.843,-97.82
42.859,-86.81
42.875,-70.48
42.890,-50.13
42.906,-27.54
42.921,-4.82
42.937,16.39
42.953,35.1
42.968,50.75
42.984,63.36
43.000,73.55
43.015,82.06
43.031,89.49
43.046,96.14
43.062,101.84
43.078,106.06
43.093,108.68
43.109,109.48
43.125,108.78
43.140,106.91
43.156,103.91
43.171,99.63
43.187,94.02
43.203,87.07
43.218,79.03
43.234,70.76
43.250,62.93
43.265,56.18
43.281,50.55
43.296,45.67
43.312,40.94
43.328,36.02
43.343,30.65
43.359,24.85
43.375,18.78
43.390,12.61
43.406,6.71
43.421,1.13
43.437,-4.28
43.453,-9.59
43.468,-14.97
43.484,-20.68
43.500,-26.86
43.515,-33.54
43.531,-40.81
43.546,-48.48
43.562,-56.11
43.578,-63.51
43.593,-70.02
43.609,-75.38
43.625,-79.28
43.640,-81.7
43.656,-82.89
43.671,-83.44
43.687,-83.66
43.703,-83.44
43.718,-82.45
43.734,-79.41
43.750,-73.09
43.765,-62.67
43.781,-47.65
43.796,-28.66
43.812,-7.24
43.828,14.77
43.843,35.42
43.859,53.09
43.875,67.09
43.890,77.39
43.906,84.29
43.921,88.71
43.937,91.38
43.953,92.85
43.968,93.38
43.984,92.94
44.000,91.36
44.015,88.65
44.031,85.03
44.046,80.4
44.062,75.05
44.078,68.96
44.093,62.57
44.109,56.22
44.125,50.28
44.140,45.01
44.156,40.48
44.171,36.59
44.187,32.81
44.203,28.84
44.218,24.05
44.234,18.23
44.250,11.61
44.265,4.32
44.281,-3.28
44.296,-10.85
44.312,-18.13
44.328,-24.8
44.343,-30.63
44.359,-35.71
44.375,-40.32
44.390,-44.73
44.406,-49.28
44.421,-54.07
44.437,-59.18
44.453,-64.44
44.468,-69.55
44.484,-74.05
44.500,-77.67
44.515,-80.4
44.531,-82.32
44.546,-83.84
44.562,-85.34
44.578,-87.2
44.593,-89.16
44.609,-90.51
44.625,-89.83
44.640,-85.65
44.656,-76.91
44.671,-63.35
44.687,-45.57
44.703,-24.89
44.718,-3.32
44.734,17.4
44.750,35.76
44.765,50.82
44.781,62.37
44.796,70.38
44.812,75.01
44.828,76.55
44.843,75.42
44.859,72.16
44.875,67.39
44.890,61.97
44.906,56.45
44.921,51.49
44.937,47.29
44.953,43.89
44.968,40.97
44.984,38.32
45.000,35.9
45.015,33.75
45.031,32.24
45.046,31.43
45.062,31.28
45.078,31.04
45.093,30.19
45.109,27.93
45.125,24.07
45.140,18.78
45.156,12.49
45.171,5.64
45.187,-1.5
45.203,-8.64
45.218,-15.96
45.234,-23.33
45.250,-30.79
45.265,-38.13
45.281,-45.2
45.296,-51.66
45.312,-57.36
45.328,-62.04
45.343,-65.53
45.359,-67.95
45.375,-69.73
45.390,-71.33
45.406,-73.41
45.421,-76.57
45.437,-80.79
45.453,-85.48
45.468,-89.31
45.484,-90.73
45.500,-88.09
45.515,-80.49
45.531,-67.58
45.546,-49.98
45.562,-28.91
45.578,-6.08
45.593,16.66
45.609,37.57
45.625,55.39
45.640,69.38
45.656,79.6
45.671,86.39
45.687,90.34
45.703,91.81
45.718,91.16
45.734,88.93
45.750,85.53
45.765,81.84
45.781,78.37
45.796,75.41
45.812,72.62
45.828,69.6
45.843,65.95
45.859,61.72
45.875,57.32
45.890,52.91
45.906,48.84
45.921,44.87
45.937,40.65
45.953,35.66
45.968,29.56
45.984,22.28
46.000,14.06
46.015,5.3
46.031,-3.74
46.046,-12.62
46.062,-21.13
46.078,-28.83
46.093,-35.53
46.109,-41.06
46.125,-45.54
46.140,-49.41
46.156,-53.17
46.171,-57.53
46.187,-62.45
46.203,-67.95
46.218,-73.51
46.234,-78.51
46.250,-82.38
46.265,-84.87
46.281,-86.27
46.296,-87.0
46.312,-88.1
46.328,-90.12
46.343,-93.27
46.359,-96.96
46.375,-99.51
46.390,-98.99
46.406,-93.55
46.421,-82.26
46.437,-65.04
46.453,-43.08
46.468,-18.09
46.484,7.7
46.500,32.37
46.515,54.43
46.531,72.97
46.546,87.46
46.562,97.97
46.578,104.79
46.593,108.26
46.609,109.04
46.625,107.62
46.640,104.52
46.656,100.39
46.671,95.64
46.687,90.49
46.703,85.18
46.718,79.73
46.734,74.13
46.750,68.41
46.765,62.86
46.781,57.59
46.796,52.77
46.812,48.4
46.828,44.23
46.843,40.04
46.859,35.5
46.875,30.29
46.890,24.28
46.906,17.41
46.921,9.59
46.937,0.95
46.953,-8.21
46.968,-17.41
46.984,-26.06
47.000,-33.72
47.015,-40.41
47.031,-46.18
47.046,-51.52
47.062,-57.01
47.078,-62.75
47.093,-68.75
47.109,-74.8
47.125,-80.35
47.140,-85.27
47.156,-89.43
47.171,-92.75
47.187,-95.38
47.203,-97.57
47.218,-99.59
47.234,-101.37
47.250,-102.79
47.265,-103.25
47.281,-101.66
47.296,-96.95
47.312,-88.01
47.328,-74.19
47.343,-55.8
47.359,-33.77
47.375,-9.65
47.390,14.56
47.406,36.89
47.421,55.72
47.437,70.07
47.453,79.87
47.468,85.66
47.484,88.13
47.500,88.0
47.515,85.73
47.531,81.52
47.546,75.7
47.562,68.59
47.578,60.8
47.593,53.06
47.609,46.1
47.625,40.37
47.640,35.93
47.656,32.81
47.671,30.71
47.687,29.51
47.703,28.99
47.718,28.79
47.734,28.56
47.750,27.85
47.765,26.11
47.781,22.88
47.796,18.32
47.812,12.62
47.828,6.5
47.843,0.89
47.859,-3.9
47.875,-7.84
47.890,-11.26
47.906,-14.83
47.921,-19.09
47.937,-24.17
47.953,-29.89
47.968,-35.64
47.984,-40.73
48.000,-45.02
48.015,-48.61
48.031,-52.04
48.046,-55.98
48.062,-60.92
48.078,-66.79
48.093,-72.93
48.109,-77.88
48.125,-79.76
48.140,-77.27
48.156,-69.42
48.171,-56.26
48.187,-38.84
48.203,-18.94
48.218,1.56
48.234,20.84
48.250,37.65
48.265,51.43
48.281,61.82
48.296,69.1
48.312,73.8
48.328,76.35
48.343,77.31
48.359,77.06
48.375,75.74
48.390,73.66
48.406,70.97
48.421,67.59
48.437,63.33
48.453,57.96
48.468,51.31
48.484,43.91
48.500,36.45
48.515,29.84
48.531,24.9
48.546,21.93
48.562,20.89
48.578,21.2
48.593,21.93
48.609,22.08
48.625,21.25
48.640,19.08
48.656,15.77
48.671,11.64
48.687,7.15
48.703,2.58
48.718,-1.94
48.734,-6.54
48.750,-11.48
48.765,-16.84
48.781,-22.71
48.796,-28.88
48.812,-34.96
48.828,-40.51
48.843,-45.13
48.859,-48.55
48.875,-50.71
48.890,-51.96
48.906,-52.88
48.921,-54.57
48.937,-57.95
48.953,-63.22
48.968,-69.86
48.984,-76.14
49.000,-79.8
49.015,-78.81
49.031,-71.91
49.046,-59.39
49.062,-42.66
49.078,-23.77
49.093,-4.34
49.109,14.12
49.125,30.99
49.140,45.92
49.156,58.66
49.171,69.1
49.187,77.13
49.203,82.61
49.218,85.56
49.234,86.33
49.250,85.09
49.265,82.27
49.281,78.29
49.296,73.37
49.312,67.73
49.328,61.88
49.343,56.37
49.359,51.65
49.375,48.42
49.390,46.62
49.406,45.91
49.421,45.57
49.437,44.67
49.453,42.3
49.468,37.86
49.484,31.39
49.500,23.25
49.515,14.14
49.531,4.8
49.546,-4.14
49.562,-12.21
49.578,-19.39
49.593,-25.65
49.609,-31.42
49.625,-37.06
49.640,-42.85
49.656,-49.1
49.671,-55.85
49.687,-62.84
49.703,-69.48
49.718,-75.39
49.734,-79.74
49.750,-82.13
49.765,-82.58
49.781,-81.51
49.796,-79.69
49.812,-78.23
49.828,-77.99
49.843,-79.26
49.859,-81.94
49.875,-84.89
49.890,-86.55
49.906,-85.34
49.921,-80.06
49.937,-70.05
49.953,-55.62
49.968,-37.89
49.984,-18.22
50.000,1.82
50.015,20.78
50.031,37.79
50.046,52.26
50.062,64.08
50.078,73.31
50.093,80.26
50.109,84.92
50.125,87.53
50.140,88.27
50.156,87.13
50.171,84.23
50.187,79.8
50.203,74.43
50.218,68.47
50.234,62.33
50.250,56.2
50.265,50.36
50.281,45.03
50.296,40.39
50.312,36.57
50.328,33.19
50.343,29.95
50.359,26.23
50.375,21.49
50.390,15.54
50.406,8.48
50.421,0.79
50.437,-6.85
50.453,-13.64
50.468,-19.38
50.484,-24.03
50.500,-27.98
50.515,-31.84
50.531,-36.07
50.546,-40.96
50.562,-46.37
50.578,-52.02
50.593,-57.3
50.609,-61.87
50.625,-65.48
50.640,-68.1
50.656,-69.87
50.671,-71.11
50.687,-72.38
50.703,-74.12
50.718,-76.5
50.734,-79.23
50.750,-81.45
50.765,-82.13
50.781,-79.99
50.796,-74.22
50.812,-64.38
50.828,-51.02
50.843,-35.02
50.859,-17.7
50.875,-0.52
50.890,15.27
50.906,28.6
50.921,38.93
50.937,46.11
50.953,50.59
50.968,52.67
50.984,52.91
51.000,51.73
51.015,49.42
51.031,46.41
51.046,42.94
51.062,39.36
51.078,35.94
51.093,33.06
51.109,30.74
51.125,29.08
51.140,28.02
51.156,27.37
51.171,27.08
51.187,26.84
51.203,26.42
51.218,25.45
51.234,23.61
51.250,20.64
51.265,16.46
51.281,11.08
51.296,5.04
51.312,-0.99
51.328,-6.44
51.343,-10.8
51.359,-13.95
51.375,-16.1
51.390,-17.64
51.406,-19.0
51.421,-20.61
51.437,-22.58
51.453,-24.87
51.468,-27.35
51.484,-30.03
51.500,-32.9
51.515,-36.22
51.531,-40.15
51.546,-44.77
51.562,-50.13
51.578,-55.87
51.593,-61.14
51.609,-64.85
51.625,-65.89
51.640,-63.32
51.656,-56.84
51.671,-46.85
51.687,-34.04
51.703,-19.59
51.718,-4.67
51.734,9.76
51.750,22.86
51.765,34.29
51.781,43.68
51.796,51.05
51.812,56.37
51.828,59.84
51.843,61.5
51.859,61.66
51.875,60.5
51.890,58.45
51.906,55.92
51.921,53.12
51.937,50.31
51.953,47.52
51.968,44.89
51.984,42.27
52.000,39.74
52.015,37.32
52.031,35.1
52.046,33.03
52.062,30.82
52.078,28.06
52.093,24.12
52.109,18.66
52.125,11.4
52.140,2.72
52.156,-6.67
52.171,-15.8
52.187,-23.83
52.203,-30.29
52.218,-35.08
52.234,-38.5
52.250,-40.98
52.265,-43.21
52.281,-45.56
52.296,-48.26
52.312,-51.24
52.328,-54.27
52.343,-57.19
52.359,-59.71
52.375,-61.78
52.390,-63.26
52.406,-64.6
52.421,-66.11
52.437,-68.04
52.453,-70.28
52.468,-72.11
52.484,-72.64
52.500,-70.7
52.515,-65.44
52.531,-56.19
52.546,-43.43
52.562,-28.05
52.578,-11.5
52.593,4.76
52.609,19.61
52.625,32.21
52.640,42.4
52.656,50.02
52.671,55.56
52.687,59.38
52.703,62.13
52.718,64.3
52.734,66.26
52.750,68.28
52.765,70.22
52.781,71.93
52.796,72.95
52.812,73.3
52.828,72.94
52.843,72.05
52.859,70.62
52.875,68.45
52.890,65.43
52.906,61.42
52.921,56.52
52.937,50.83
52.953,44.77
52.968,38.72
52.984,32.75
53.000,26.84
53.015,20.63
53.031,14.06
53.046,7.14
53.062,0.22
53.078,-6.33
53.093,-12.14
53.109,-17.19
53.125,-21.65
53.140,-25.63
53.156,-29.26
53.171,-32.47
53.187,-35.21
53.203,-37.59
53.218,-39.9
53.234,-42.46
53.250,-45.75
53.265,-50.0
53.281,-55.04
53.296,-60.51
53.312,-65.82
53.328,-70.6
53.343,-74.8
53.359,-78.61
53.375,-82.28
53.390,-85.71
53.406,-88.34
53.421,-89.03
53.437,-86.54
53.453,-80.04
53.468,-69.3
53.484,-55.03
53.500,-38.51
53.515,-21.25
53.531,-4.59
53.546,10.49
53.562,23.39
53.578,33.84
53.593,41.96
53.609,47.91
53.625,52.13
53.640,54.76
53.656,56.29
53.671,57.2
53.687,57.84
53.703,58.26
53.718,58.32
53.734,57.91
53.750,56.84
53.765,55.26
53.781,53.26
53.796,51.09
53.812,49.0
53.828,47.19
53.843,45.62
53.859,44.25
53.875,42.85
53.890,41.29
53.906,39.39
53.921,36.87
53.937,33.58
53.953,29.38
53.968,24.27
53.984,18.53
54.000,12.6
54.015,6.83
54.031,1.59
54.046,-3.08
54.062,-7.4
54.078,-11.73
54.093,-16.41
54.109,-21.73
54.125,-27.34
54.140,-32.9
54.156,-37.97
54.171,-42.21
54.187,-45.38
54.203,-47.65
54.218,-49.31
54.234,-50.84
54.250,-52.85
54.265,-55.68
54.281,-59.62
54.296,-64.54
54.312,-69.6
54.328,-73.57
54.343,-74.96
54.359,-72.55
54.375,-65.72
54.390,-54.84
54.406,-40.75
54.421,-24.75
54.437,-8.42
54.453,7.16
54.468,21.21
54.484,33.15
54.500,42.64
54.515,49.56
54.531,53.94
54.546,55.88
54.562,55.79
54.578,54.04
54.593,51.05
54.609,47.22
54.625,42.97
54.640,38.7
54.656,34.77
54.671,31.65
54.687,29.46
54.703,28.21
54.718,27.62
54.734,27.27
54.750,26.76
54.765,25.87
54.781,24.66
54.796,23.03
54.812,21.18
54.828,18.92
54.843,16.36
54.859,13.39
54.875,10.39
54.890,7.54
54.906,4.8
54.921,2.21
54.937,-0.66
54.953,-4.2
54.968,-8.69
54.984,-13.78
55.000,-19.29
55.015,-24.81
55.031,-29.98
55.046,-34.71
55.062,-38.97
55.078,-42.86
55.093,-46.49
55.109,-50.05
55.125,-53.73
55.140,-57.87
55.156,-62.61
55.171,-67.66
55.187,-72.32
55.203,-75.3
55.218,-75.32
55.234,-71.37
55.250,-62.91
55.265,-50.27
55.281,-34.43
55.296,-16.92
55.312,0.86
55.328,17.43
55.343,31.97
55.359,43.73
55.375,52.46
55.390,58.31
55.406,61.56
55.421,62.82
55.437,62.67
55.453,62.06
55.468,61.32
55.484,61.06
55.500,61.28
55.515,61.91
55.531,62.69
55.546,63.22
55.562,63.15
55.578,62.34
55.593,60.88
55.609,58.61
55.625,55.7
55.640,52.05
55.656,47.59
55.671,42.39
55.687,36.53
55.703,30.16
55.718,23.68
55.734,17.47
55.750,11.66
55.765,6.57
55.781,2.23
55.796,-1.62
55.812,-5.08
55.828,-8.47
55.843,-11.97
55.859,-15.81
55.875,-19.88
55.890,-24.23
55.906,-28.62
55.921,-32.9
55.937,-37.3
55.953,-41.66
55.968,-46.29
55.984,-51.14
56.000,-56.14
56.015,-61.11
56.031,-65.92
56.046,-70.4
56.062,-74.75
56.078,-79.2
56.093,-83.18
56.109,-86.1
56.125,-86.94
56.140,-84.51
56.156,-78.19
56.171,-68.16
56.187,-54.94
56.203,-39.83
56.218,-24.25
56.234,-9.05
56.250,4.88
56.265,17.12
56.281,27.59
56.296,36.19
56.312,42.96
56.328,48.17
56.343,52.06
56.359,54.72
56.375,56.55
56.390,57.47
56.406,57.53
56.421,56.75
56.437,54.92
56.453,52.28
56.468,49.03
56.484,45.53
56.500,41.94
56.515,38.63
56.531,35.52
56.546,32.83
56.562,30.57
56.578,28.43
56.593,26.37
56.609,24.08
56.625,21.28
56.640,17.74
56.656,13.6
56.671,8.83
56.687,3.93
56.703,-0.7
56.718,-4.91
56.734,-8.48
56.750,-11.54
56.765,-14.23
56.781,-16.86
56.796,-19.56
56.812,-22.66
56.828,-26.15
56.843,-29.98
56.859,-34.07
56.875,-38.0
56.890,-41.61
56.906,-44.59
56.921,-46.87
56.937,-48.68
56.953,-50.28
56.968,-51.96
56.984,-53.72
57.000,-55.34
57.015,-56.01
57.031,-54.96
57.046,-51.3
57.062,-44.75
57.078,-35.65
57.093,-24.7
57.109,-13.15
57.125,-2.01
57.140,7.99
57.156,16.47
57.171,23.45
57.187,29.06
57.203,33.47
57.218,36.67
57.234,38.81
57.250,39.87
57.265,40.13
57.281,39.91
57.296,39.25
57.312,38.21
57.328,36.48
57.343,33.9
57.359,30.33
57.375,25.99
57.390,21.23
57.406,16.52
57.421,12.56
57.437,9.66
57.453,7.9
57.468,6.98
57.484,6.5
57.500,5.81
57.515,4.56
57.531,2.42
57.546,-0.6
57.562,-4.1
57.578,-7.8
57.593,-11.32
57.609,-14.73
57.625,-18.13
57.640,-21.62
57.656,-25.26
57.671,-28.93
57.687,-32.49
57.703,-35.73
57.718,-38.52
57.734,-40.64
57.750,-42.09
57.765,-42.92
57.781,-43.23
57.796,-43.33
57.812,-43.43
57.828,-43.84
57.843,-44.84
57.859,-46.07
57.875,-47.06
57.890,-46.61
57.906,-43.9
57.921,-38.44
57.937,-30.25
57.953,-19.73
57.968,-7.87
57.984,4.2
58.000,15.55
58.015,25.42
58.031,33.59
58.046,40.08
58.062,44.87
58.078,48.11
58.093,50.02
58.109,50.72
58.125,50.46
58.140,49.5
58.156,48.22
58.171,46.69
58.187,45.1
58.203,43.1
58.218,40.58
58.234,37.62
58.250,34.49
58.265,31.84
58.281,30.14
58.296,29.73
58.312,30.24
58.328,31.33
58.343,32.14
58.359,32.07
58.375,30.68
58.390,27.75
58.406,23.57
58.421,18.28
58.437,12.16
58.453,5.34
58.468,-1.68
58.484,-8.63
58.500,-15.02
58.515,-20.48
58.531,-25.05
58.546,-28.69
58.562,-31.97
58.578,-35.31
58.593,-39.13
58.609,-43.48
58.625,-48.3
58.640,-53.24
58.656,-57.84
58.671,-62.12
58.687,-65.7
58.703,-68.95
58.718,-71.91
58.734,-74.49
58.750,-76.26
58.765,-76.6
58.781,-74.67
58.796,-69.72
58.812,-61.64
58.828,-50.5
58.843,-37.07
58.859,-22.16
58.875,-6.85
58.890,7.93
58.906,21.45
58.921,33.25
58.937,43.36
58.953,51.79
58.968,58.69
58.984,64.07
59.000,68.02
59.015,70.66
59.031,71.88
59.046,71.84
59.062,70.51
59.078,68.0
59.093,64.41
59.109,59.96
59.125,54.86
59.140,49.48
59.156,44.43
59.171,40.06
59.187,36.82
59.203,34.65
59.218,33.39
59.234,32.51
59.250,31.57
59.265,29.94
59.281,27.29
59.296,23.72
59.312,19.25
59.328,14.4
59.343,9.2
59.359,4.13
59.375,-0.62
59.390,-4.9
59.406,-8.92
59.421,-13.2
59.437,-18.03
59.453,-23.82
59.468,-30.32
59.484,-37.19
59.500,-43.87
59.515,-49.89
59.531,-55.1
59.546,-59.61
59.562,-63.81
59.578,-67.91
59.593,-72.14
59.609,-76.67
59.625,-81.5
59.640,-86.29
59.656,-90.43
59.671,-92.88
59.687,-92.26
59.703,-87.63
59.718,-78.42
59.734,-64.7
59.750,-47.34
59.765,-27.9
59.781,-8.06
59.796,10.75
59.812,27.19
59.828,40.6
59.843,50.69
59.859,57.51
59.875,61.6
59.890,63.59
59.906,64.0
59.921,63.28
59.937,62.05
59.953,60.66
59.968,59.3
59.984,58.14
