timestamp,value
00.000,32.89
00.015,-1.3
00.031,-32.31
00.046,-57.53
00.062,-74.54
00.078,-81.83
00.093,-79.4
00.109,-68.59
00.125,-52.21
00.140,-33.74
00.156,-16.85
00.171,-4.59
00.187,0.74
00.203,-1.84
00.218,-11.99
00.234,-28.17
00.250,-47.81
00.265,-68.06
00.281,-86.44
00.296,-101.66
00.312,-113.6
00.328,-123.29
00.343,-132.14
00.359,-141.64
00.375,-152.76
00.390,-165.58
00.406,-179.14
00.421,-191.32
00.437,-199.35
00.453,-200.35
00.468,-192.45
00.484,-175.23
00.500,-150.16
00.515,-120.23
00.531,-88.9
00.546,-59.38
00.562,-33.95
00.578,-13.67
00.593,1.49
00.609,12.3
00.625,20.04
00.640,26.22
00.656,32.04
00.671,38.49
00.687,45.95
00.703,54.2
00.718,62.61
00.734,70.38
00.750,76.63
00.765,80.86
00.781,83.08
00.796,83.91
00.812,84.53
00.828,86.27
00.843,90.07
00.859,96.12
00.875,103.71
00.890,111.48
00.906,118.0
00.921,122.13
00.937,123.19
00.953,120.95
00.968,115.35
00.984,106.45
01.000,94.67
01.015,80.64
01.031,65.33
01.046,49.68
01.062,34.29
01.078,19.18
01.093,4.03
01.109,-11.44
01.125,-27.12
01.140,-42.14
01.156,-55.28
01.171,-65.15
01.187,-70.86
01.203,-72.01
01.218,-68.96
01.234,-62.65
01.250,-54.28
01.265,-45.29
01.281,-37.0
01.296,-30.48
01.312,-26.48
01.328,-25.55
01.343,-28.06
01.359,-34.12
01.375,-43.72
01.390,-56.46
01.406,-71.58
01.421,-88.18
01.437,-105.41
01.453,-122.5
01.468,-138.91
01.484,-154.1
01.500,-167.37
01.515,-178.19
01.531,-186.2
01.546,-191.34
01.562,-193.58
01.578,-192.4
01.593,-186.31
01.609,-172.96
01.625,-149.79
01.640,-115.16
01.656,-69.31
01.671,-14.64
01.687,44.74
01.703,103.82
01.718,158.15
01.734,204.25
01.750,240.06
01.765,264.66
01.781,277.96
01.796,280.47
01.812,273.39
01.828,258.57
01.843,238.12
01.859,214.57
01.875,189.96
01.890,165.73
01.906,142.58
01.921,120.46
01.937,99.05
01.953,78.57
01.968,60.05
01.984,45.11
02.000,35.95
02.015,33.91
02.031,38.87
02.046,48.94
02.062,60.81
02.078,70.62
02.093,75.29
02.109,73.18
02.125,64.07
02.140,49.13
02.156,29.9
02.171,8.07
02.187,-14.76
02.203,-37.26
02.218,-58.33
02.234,-77.12
02.250,-93.2
02.265,-106.77
02.281,-118.54
02.296,-129.78
02.312,-141.64
02.328,-154.58
02.343,-167.95
02.359,-179.77
02.375,-187.25
02.390,-187.76
02.406,-180.01
02.421,-164.58
02.437,-144.09
02.453,-122.05
02.468,-101.57
02.484,-84.46
02.500,-70.82
02.515,-59.53
02.531,-49.09
02.546,-38.55
02.562,-27.52
02.578,-16.14
02.593,-4.74
02.609,6.75
02.625,18.42
02.640,30.38
02.656,42.23
02.671,53.07
02.687,61.54
02.703,66.79
02.718,68.86
02.734,69.22
02.750,70.65
02.765,76.19
02.781,88.22
02.796,107.09
02.812,130.95
02.828,155.93
02.843,177.57
02.859,191.82
02.875,196.19
02.890,190.1
02.906,174.54
02.921,151.64
02.937,123.85
02.953,93.67
02.968,63.43
02.984,35.21
03.000,10.65
03.015,-9.24
03.031,-24.25
03.046,-35.13
03.062,-43.41
03.078,-50.97
03.093,-59.41
03.109,-69.37
03.125,-80.14
03.140,-89.73
03.156,-95.64
03.171,-95.71
03.187,-89.15
03.203,-76.99
03.218,-61.56
03.234,-45.73
03.250,-31.91
03.265,-21.48
03.281,-14.9
03.296,-12.16
03.312,-13.27
03.328,-18.39
03.343,-27.54
03.359,-40.3
03.375,-55.47
03.390,-71.5
03.406,-86.94
03.421,-100.84
03.437,-112.95
03.453,-123.68
03.468,-133.53
03.484,-142.65
03.500,-150.64
03.515,-156.13
03.531,-157.28
03.546,-152.24
03.562,-139.72
03.578,-119.28
03.593,-91.58
03.609,-58.21
03.625,-21.43
03.640,16.3
03.656,52.6
03.671,85.25
03.687,112.82
03.703,134.84
03.718,151.96
03.734,166.05
03.750,179.44
03.765,194.09
03.781,210.7
03.796,228.22
03.812,243.75
03.828,253.87
03.843,255.53
03.859,247.23
03.875,229.47
03.890,204.46
03.906,175.28
03.921,145.19
03.937,116.97
03.953,92.51
03.968,73.24
03.984,60.1
04.000,53.48
04.015,53.11
04.031,57.84
04.046,65.51
04.062,73.36
04.078,78.66
04.093,79.5
04.109,75.35
04.125,67.02
04.140,56.07
04.156,44.15
04.171,31.95
04.187,19.01
04.203,4.04
04.218,-14.77
04.234,-39.11
04.250,-70.15
04.265,-108.51
04.281,-153.72
04.296,-203.58
04.312,-254.05
04.328,-299.84
04.343,-335.67
04.359,-358.22
04.375,-367.46
04.390,-366.4
04.406,-359.89
04.421,-352.06
04.437,-344.57
04.453,-336.18
04.468,-323.87
04.484,-304.76
04.500,-277.66
04.515,-243.12
04.531,-202.48
04.546,-157.02
04.562,-107.41
04.578,-54.6
04.593,-0.69
04.609,50.55
04.625,94.53
04.640,127.18
04.656,146.89
04.671,155.32
04.687,156.85
04.703,157.14
04.718,161.18
04.734,171.72
04.750,188.92
04.765,210.64
04.781,233.2
04.796,252.54
04.812,265.32
04.828,269.22
04.843,263.45
04.859,248.62
04.875,226.26
04.890,198.63
04.906,168.15
04.921,137.31
04.937,108.17
04.953,82.3
04.968,60.42
04.984,42.57
05.000,27.87
05.015,14.81
05.031,1.59
05.046,-13.53
05.062,-31.43
05.078,-52.06
05.093,-74.07
05.109,-95.62
05.125,-114.81
05.140,-130.59
05.156,-143.03
05.171,-153.07
05.187,-162.19
05.203,-171.83
05.218,-183.44
05.234,-197.77
05.250,-215.2
05.265,-235.33
05.281,-256.99
05.296,-278.21
05.312,-296.48
05.328,-309.07
05.343,-313.53
05.359,-308.3
05.375,-292.74
05.390,-267.41
05.406,-233.96
05.421,-194.8
05.437,-152.3
05.453,-108.27
05.468,-63.24
05.484,-16.36
05.500,33.86
05.515,88.46
05.531,146.79
05.546,205.97
05.562,261.3
05.578,307.65
05.593,340.87
05.609,359.06
05.625,362.82
05.640,354.51
05.656,337.34
05.671,314.24
05.687,287.41
05.703,258.67
05.718,229.25
05.734,200.2
05.750,172.26
05.765,145.71
05.781,120.25
05.796,95.42
05.812,70.75
05.828,46.25
05.843,23.11
05.859,3.34
05.875,-10.65
05.890,-17.03
05.906,-15.39
05.921,-7.57
05.937,3.24
05.953,13.27
05.968,19.36
05.984,19.87
06.000,14.66
06.015,4.56
06.031,-9.2
06.046,-25.5
06.062,-43.66
06.078,-62.67
06.093,-81.44
06.109,-98.73
06.125,-113.56
06.140,-125.52
06.156,-135.16
06.171,-143.66
06.187,-152.54
06.203,-163.01
06.218,-174.96
06.234,-186.74
06.250,-195.27
06.265,-196.81
06.281,-188.37
06.296,-168.79
06.312,-139.07
06.328,-102.4
06.343,-62.82
06.359,-24.14
06.375,10.97
06.390,41.17
06.406,66.28
06.421,86.71
06.437,102.93
06.453,115.77
06.468,126.11
06.484,135.05
06.500,143.77
06.515,152.82
06.531,162.05
06.546,170.24
06.562,175.5
06.578,175.84
06.593,170.13
06.609,158.71
06.625,143.41
06.640,127.4
06.656,113.65
06.671,104.23
06.687,99.3
06.703,97.43
06.718,96.15
06.734,93.24
06.750,87.53
06.765,79.16
06.781,69.28
06.796,59.13
06.812,49.71
06.828,41.27
06.843,33.54
06.859,25.81
06.875,16.98
06.890,5.59
06.906,-9.87
06.921,-30.62
06.937,-57.39
06.953,-89.96
06.968,-127.44
06.984,-168.37
07.000,-210.82
07.015,-252.59
07.031,-291.1
07.046,-323.48
07.062,-346.81
07.078,-358.81
07.093,-358.27
07.109,-345.44
07.125,-322.03
07.140,-290.69
07.156,-254.78
07.171,-217.53
07.187,-181.79
07.203,-149.38
07.218,-120.84
07.234,-95.21
07.250,-70.57
07.265,-44.68
07.281,-15.84
07.296,16.2
07.312,50.23
07.328,83.88
07.343,114.34
07.359,139.34
07.375,157.76
07.390,169.59
07.406,176.11
07.421,179.29
07.437,181.22
07.453,183.57
07.468,187.12
07.484,191.51
07.500,195.54
07.515,197.62
07.531,196.04
07.546,189.36
07.562,176.71
07.578,157.9
07.593,133.65
07.609,105.63
07.625,76.28
07.640,48.35
07.656,24.14
07.671,4.93
07.687,-9.39
07.703,-20.0
07.718,-28.8
07.734,-37.4
07.750,-46.92
07.765,-57.45
07.781,-68.2
07.796,-77.59
07.812,-83.66
07.828,-84.64
07.843,-79.35
07.859,-68.03
07.875,-52.01
07.890,-33.8
07.906,-16.15
07.921,-1.61
07.937,8.23
07.953,12.69
07.968,12.03
07.984,7.14
08.000,-0.92
08.015,-10.93
08.031,-21.69
08.046,-31.9
08.062,-40.38
08.078,-45.97
08.093,-47.96
08.109,-46.21
08.125,-41.04
08.140,-33.34
08.156,-23.97
08.171,-13.34
08.187,-1.14
08.203,13.51
08.218,31.45
08.234,53.1
08.250,77.84
08.265,104.4
08.281,130.85
08.296,155.23
08.312,175.71
08.328,190.42
08.343,197.73
08.359,196.16
08.375,184.93
08.390,164.13
08.406,135.34
08.421,101.06
08.437,64.46
08.453,28.56
08.468,-4.38
08.484,-33.02
08.500,-57.07
08.515,-76.87
08.531,-93.27
08.546,-106.73
08.562,-117.26
08.578,-123.88
08.593,-125.0
08.609,-119.17
08.625,-105.59
08.640,-84.88
08.656,-59.15
08.671,-31.67
08.687,-6.04
08.703,14.51
08.718,27.98
08.734,33.7
08.750,32.2
08.765,24.91
08.781,13.6
08.796,-0.09
08.812,-14.89
08.828,-30.06
08.843,-45.36
08.859,-60.8
08.875,-76.46
08.890,-92.51
08.906,-109.01
08.921,-126.01
08.937,-142.97
08.953,-158.41
08.968,-169.76
08.984,-173.87
09.000,-167.84
09.015,-150.21
09.031,-121.52
09.046,-84.14
09.062,-41.69
09.078,2.32
09.093,45.14
09.109,85.08
09.125,121.0
09.140,152.2
09.156,177.83
09.171,197.31
09.187,210.65
09.203,218.26
09.218,220.94
09.234,219.36
09.250,213.73
09.265,203.6
09.281,188.4
09.296,167.65
09.312,141.58
09.328,111.71
09.343,80.53
09.359,51.17
09.375,26.64
09.390,9.06
09.406,-0.84
09.421,-3.74
09.437,-1.45
09.453,3.81
09.468,9.96
09.484,15.29
09.500,18.47
09.515,18.34
09.531,14.11
09.546,5.32
09.562,-7.63
09.578,-23.56
09.593,-40.74
09.609,-57.45
09.625,-72.68
09.640,-86.28
09.656,-99.13
09.671,-112.46
09.687,-127.42
09.703,-144.32
09.718,-162.27
09.734,-179.16
09.750,-192.29
09.765,-199.15
09.781,-198.2
09.796,-189.58
09.812,-175.05
09.828,-157.43
09.843,-139.66
09.859,-123.92
09.875,-111.21
09.890,-101.39
09.906,-93.68
09.921,-86.94
09.937,-80.19
09.953,-72.6
09.968,-63.58
09.984,-52.62
10.000,-39.53
10.015,-24.53
10.031,-8.18
10.046,8.66
10.062,25.11
10.078,40.66
10.093,55.46
10.109,70.08
10.125,85.56
10.140,102.76
10.156,121.99
10.171,142.75
10.187,163.95
10.203,183.95
10.218,201.14
10.234,214.23
10.250,222.24
10.265,224.57
10.281,220.84
10.296,211.04
10.312,195.49
10.328,175.07
10.343,151.11
10.359,125.1
10.375,98.55
10.390,72.91
10.406,49.36
10.421,28.88
10.437,12.28
10.453,-0.1
10.468,-8.58
10.484,-13.65
10.500,-16.12
10.515,-16.66
10.531,-15.99
10.546,-15.17
10.562,-15.96
10.578,-20.67
10.593,-31.43
10.609,-49.45
10.625,-74.13
10.640,-103.46
10.656,-134.46
10.671,-164.59
10.687,-192.3
10.703,-217.22
10.718,-239.64
10.734,-259.68
10.750,-277.0
10.765,-290.87
10.781,-300.85
10.796,-306.69
10.812,-308.66
10.828,-307.21
10.843,-302.11
10.859,-292.52
10.875,-277.0
10.890,-253.68
10.906,-221.07
10.921,-178.87
10.937,-127.78
10.953,-69.48
10.968,-6.28
10.984,59.86
11.000,127.2
11.015,193.82
11.031,256.98
11.046,312.75
11.062,356.38
11.078,383.7
11.093,392.91
11.109,385.27
11.125,364.99
11.140,337.2
11.156,306.33
11.171,274.66
11.187,242.54
11.203,209.44
11.218,175.08
11.234,140.1
11.250,105.89
11.265,74.41
11.281,47.24
11.296,25.62
11.312,10.25
11.328,1.16
11.343,-2.06
11.359,-0.39
11.375,4.51
11.390,10.34
11.406,14.74
11.421,15.34
11.437,10.33
11.453,-1.03
11.468,-18.39
11.484,-40.14
11.500,-63.89
11.515,-87.14
11.531,-108.09
11.546,-125.79
11.562,-140.31
11.578,-152.37
11.593,-162.7
11.609,-172.17
11.625,-181.22
11.640,-189.98
11.656,-197.95
11.671,-203.98
11.687,-206.26
11.703,-202.88
11.718,-192.5
11.734,-174.68
11.750,-150.69
11.765,-122.84
11.781,-94.06
11.796,-66.94
11.812,-43.27
11.828,-23.71
11.843,-8.1
11.859,4.22
11.875,14.19
11.890,22.66
11.906,30.38
11.921,37.97
11.937,45.81
11.953,54.05
11.968,62.72
11.984,71.65
12.000,80.61
12.015,89.44
12.031,98.02
12.046,106.43
12.062,114.96
12.078,123.86
12.093,133.23
12.109,142.71
12.125,151.3
12.140,157.63
12.156,160.21
12.171,157.9
12.187,150.42
12.203,138.26
12.218,122.48
12.234,104.46
12.250,85.61
12.265,67.0
12.281,49.27
12.296,32.57
12.312,16.5
12.328,0.4
12.343,-16.32
12.359,-33.99
12.375,-52.55
12.390,-71.74
12.406,-91.32
12.421,-111.23
12.437,-131.15
12.453,-150.45
12.468,-167.99
12.484,-182.41
12.500,-192.72
12.515,-198.59
12.531,-200.64
12.546,-199.96
12.562,-197.68
12.578,-194.25
12.593,-189.63
12.609,-183.45
12.625,-175.38
12.640,-165.28
12.656,-152.84
12.671,-137.43
12.687,-117.85
12.703,-92.61
12.718,-60.28
12.734,-20.74
12.750,24.47
12.765,71.93
12.781,116.96
12.796,154.91
12.812,182.8
12.828,200.26
12.843,209.86
12.859,216.28
12.875,224.25
12.890,237.05
12.906,255.3
12.921,276.87
12.937,297.92
12.953,314.24
12.968,322.37
12.984,320.05
13.000,306.32
13.015,281.28
13.031,246.12
13.046,203.12
13.062,155.5
13.078,107.23
13.093,62.12
13.109,23.1
13.125,-8.52
13.140,-33.26
13.156,-52.93
13.171,-69.65
13.187,-84.96
13.203,-99.2
13.218,-111.1
13.234,-118.57
13.250,-119.58
13.265,-113.14
13.281,-99.78
13.296,-81.56
13.312,-61.09
13.328,-40.93
13.343,-23.19
13.359,-9.16
13.375,0.22
13.390,4.32
13.406,2.85
13.421,-3.94
13.437,-15.01
13.453,-28.72
13.468,-43.18
13.484,-56.94
13.500,-69.24
13.515,-80.1
13.531,-90.0
13.546,-99.45
13.562,-109.06
13.578,-118.98
13.593,-129.08
13.609,-138.55
13.625,-146.06
13.640,-149.93
13.656,-148.85
13.671,-142.37
13.687,-131.11
13.703,-116.81
13.718,-101.53
13.734,-86.95
13.750,-74.01
13.765,-62.82
13.781,-52.83
13.796,-43.33
13.812,-33.51
13.828,-22.6
13.843,-10.2
13.859,3.67
13.875,18.54
13.890,33.46
13.906,47.53
13.921,60.02
13.937,70.57
13.953,79.16
13.968,85.82
13.984,90.68
14.000,93.93
14.015,96.09
14.031,97.94
14.046,100.33
14.062,103.72
14.078,107.88
14.093,111.85
14.109,114.18
14.125,113.39
14.140,108.41
14.156,98.96
14.171,85.48
14.187,69.24
14.203,52.08
14.218,35.98
14.234,22.57
14.250,12.53
14.265,5.47
14.281,-0.06
14.296,-5.79
14.312,-13.33
14.328,-23.6
14.343,-36.61
14.359,-51.7
14.375,-67.63
14.390,-82.83
14.406,-95.46
14.421,-103.67
14.437,-105.97
14.453,-101.79
14.468,-91.86
14.484,-78.19
14.500,-63.64
14.515,-51.13
14.531,-42.65
14.546,-39.04
14.562,-39.89
14.578,-43.9
14.593,-49.54
14.609,-55.23
14.625,-59.66
14.640,-61.7
14.656,-60.32
14.671,-54.77
14.687,-44.52
14.703,-29.68
14.718,-10.96
14.734,10.17
14.750,32.13
14.765,53.55
14.781,73.67
14.796,92.81
14.812,111.87
14.828,131.76
14.843,152.58
14.859,173.23
14.875,191.66
14.890,205.5
14.906,213.16
14.921,213.94
14.937,208.32
14.953,197.14
14.968,181.31
14.984,161.36
15.000,137.62
15.015,110.53
15.031,80.83
15.046,49.77
15.062,18.82
15.078,-10.34
15.093,-36.35
15.109,-58.21
15.125,-75.64
15.140,-88.98
15.156,-98.69
15.171,-105.24
15.187,-108.6
15.203,-108.36
15.218,-103.94
15.234,-95.29
15.250,-82.95
15.265,-68.22
15.281,-53.15
15.296,-39.69
15.312,-29.64
15.328,-24.14
15.343,-23.69
15.359,-28.21
15.375,-37.14
15.390,-49.7
15.406,-64.9
15.421,-81.63
15.437,-98.89
15.453,-115.99
15.468,-132.58
15.484,-148.75
15.500,-164.97
15.515,-181.38
15.531,-197.47
15.546,-211.62
15.562,-221.04
15.578,-222.52
15.593,-213.42
15.609,-192.62
15.625,-160.99
15.640,-121.49
15.656,-78.13
15.671,-35.11
15.687,4.18
15.703,37.75
15.718,64.89
15.734,86.05
15.750,102.19
15.765,114.54
15.781,124.06
15.796,131.48
15.812,137.21
15.828,141.2
15.843,143.36
15.859,143.41
15.875,141.11
15.890,136.21
15.906,128.48
15.921,117.97
15.937,105.12
15.953,91.04
15.968,77.18
15.984,65.3
16.000,56.73
16.015,52.21
16.031,51.55
16.046,53.69
16.062,57.07
16.078,59.89
16.093,60.66
16.109,58.01
16.125,51.15
16.140,39.72
16.156,24.11
16.171,5.48
16.187,-14.45
16.203,-33.66
16.218,-50.6
16.234,-64.34
16.250,-75.03
16.265,-83.71
16.281,-92.17
16.296,-102.52
16.312,-116.54
16.328,-135.25
16.343,-158.32
16.359,-183.99
16.375,-208.92
16.390,-228.93
16.406,-239.77
16.421,-238.27
16.437,-223.37
16.453,-196.19
16.468,-159.98
16.484,-119.16
16.500,-78.56
16.515,-42.05
16.531,-12.21
16.546,10.06
16.562,25.33
16.578,35.08
16.593,41.32
16.609,46.03
16.625,50.91
16.640,57.17
16.656,65.52
16.671,76.09
16.687,88.34
16.703,101.33
16.718,113.95
16.734,125.4
16.750,135.69
16.765,145.67
16.781,156.74
16.796,169.99
16.812,185.46
16.828,201.64
16.843,215.83
16.859,224.78
16.875,225.72
16.890,217.1
16.906,198.72
16.921,171.76
16.937,138.03
16.953,99.61
16.968,58.48
16.984,16.66
17.000,-23.75
17.015,-60.62
17.031,-91.81
17.046,-115.67
17.062,-131.43
17.078,-139.64
17.093,-142.15
17.109,-141.39
17.125,-139.64
17.140,-137.9
17.156,-135.63
17.171,-131.12
17.187,-122.61
17.203,-109.53
17.218,-92.95
17.234,-75.29
17.250,-59.21
17.265,-46.72
17.281,-38.46
17.296,-33.98
17.312,-32.28
17.328,-32.49
17.343,-34.17
17.359,-37.15
17.375,-41.33
17.390,-46.46
17.406,-52.13
17.421,-57.7
17.437,-62.61
17.453,-66.4
17.468,-69.11
17.484,-71.49
17.500,-74.34
17.515,-78.0
17.531,-81.52
17.546,-82.49
17.562,-77.8
17.578,-65.08
17.593,-43.96
17.609,-16.47
17.625,13.83
17.640,43.43
17.656,70.3
17.671,94.25
17.687,116.08
17.703,136.51
17.718,155.19
17.734,170.8
17.750,181.72
17.765,187.22
17.781,187.47
17.796,183.44
17.812,176.14
17.828,165.83
17.843,152.23
17.859,134.68
17.875,112.79
17.890,86.76
17.906,57.91
17.921,28.51
17.937,1.42
17.953,-20.51
17.968,-35.29
17.984,-42.61
18.000,-43.87
18.015,-41.69
18.031,-38.6
18.046,-35.95
18.062,-33.56
18.078,-30.35
18.093,-25.3
18.109,-18.51
18.125,-11.39
18.140,-5.77
18.156,-2.95
18.171,-2.83
18.187,-3.99
18.203,-4.89
18.218,-4.74
18.234,-4.13
18.250,-4.93
18.265,-9.17
18.281,-17.99
18.296,-31.06
18.312,-46.42
18.328,-61.35
18.343,-73.27
18.359,-80.28
18.375,-81.55
18.390,-77.49
18.406,-69.16
18.421,-57.96
18.437,-45.57
18.453,-33.46
18.468,-23.19
18.484,-16.32
18.500,-13.93
18.515,-16.32
18.531,-22.6
18.546,-30.46
18.562,-36.61
18.578,-37.59
18.593,-30.76
18.609,-15.06
18.625,8.51
18.640,37.33
18.656,67.67
18.671,95.46
18.687,117.58
18.703,132.48
18.718,140.61
18.734,144.0
18.750,145.51
18.765,147.65
18.781,151.68
18.796,157.39
18.812,163.2
18.828,166.93
18.843,166.51
18.859,160.46
18.875,148.19
18.890,129.93
18.906,106.71
18.921,80.24
18.937,52.76
18.953,26.59
18.968,3.74
18.984,-14.65
19.000,-28.58
19.015,-38.83
19.031,-46.75
19.046,-53.8
19.062,-61.18
19.078,-69.47
19.093,-78.62
19.109,-87.77
19.125,-95.55
19.140,-100.49
19.156,-101.4
19.171,-98.07
19.187,-91.42
19.203,-83.38
19.218,-76.26
19.234,-71.96
19.250,-71.54
19.265,-74.85
19.281,-80.95
19.296,-88.4
19.312,-95.77
19.328,-101.89
19.343,-106.02
19.359,-107.7
19.375,-106.72
19.390,-103.23
19.406,-97.57
19.421,-90.43
19.437,-82.53
19.453,-74.65
19.468,-67.34
19.484,-60.71
19.500,-54.27
19.515,-46.89
19.531,-37.1
19.546,-23.32
19.562,-4.71
19.578,18.76
19.593,46.09
19.609,75.58
19.625,105.12
19.640,132.75
19.656,156.89
19.671,176.01
19.687,188.93
19.703,194.5
19.718,192.03
19.734,181.49
19.750,163.95
19.765,141.38
19.781,116.37
19.796,91.62
19.812,69.04
19.828,49.33
19.843,31.78
19.859,14.95
19.875,-2.75
19.890,-22.01
19.906,-42.29
19.921,-62.25
19.937,-80.19
19.953,-94.85
19.968,-105.64
19.984,-112.5
20.000,-115.4
20.015,-114.26
20.031,-109.13
20.046,-100.43
20.062,-89.42
20.078,-77.8
20.093,-67.34
20.109,-59.21
20.125,-53.83
20.140,-50.86
20.156,-49.64
20.171,-49.7
20.187,-50.69
20.203,-52.68
20.218,-55.63
20.234,-59.52
20.250,-64.17
20.265,-69.24
20.281,-74.12
20.296,-77.8
20.312,-78.98
20.328,-76.32
20.343,-69.08
20.359,-57.03
20.375,-40.51
20.390,-20.27
20.406,2.78
20.421,27.44
20.437,52.05
20.453,74.73
20.468,93.74
20.484,107.94
20.500,117.54
20.515,124.22
20.531,130.51
20.546,138.9
20.562,150.71
20.578,165.44
20.593,181.02
20.609,194.53
20.625,203.09
20.640,204.76
20.656,199.11
20.671,187.25
20.687,171.77
20.703,156.11
20.718,143.27
20.734,135.25
20.750,132.24
20.765,132.69
20.781,134.01
20.796,133.3
20.812,128.42
20.828,118.41
20.843,103.53
20.859,84.6
20.875,62.77
20.890,39.16
20.906,14.84
20.921,-8.73
20.937,-30.21
20.953,-48.38
20.968,-62.55
20.984,-72.74
21.000,-79.74
21.015,-84.6
21.031,-88.37
21.046,-91.75
21.062,-94.8
21.078,-97.09
21.093,-97.8
21.109,-96.13
21.125,-91.44
21.140,-83.81
21.156,-74.03
21.171,-63.58
21.187,-54.44
21.203,-48.36
21.218,-46.52
21.234,-49.26
21.250,-56.25
21.265,-66.61
21.281,-79.32
21.296,-93.48
21.312,-108.3
21.328,-123.22
21.343,-137.78
21.359,-151.56
21.375,-163.73
21.390,-173.21
21.406,-178.8
21.421,-179.59
21.437,-175.21
21.453,-166.3
21.468,-154.0
21.484,-139.5
21.500,-123.58
21.515,-106.21
21.531,-86.75
21.546,-64.44
21.562,-38.99
21.578,-10.54
21.593,20.32
21.609,52.84
21.625,86.24
21.640,119.42
21.656,150.55
21.671,177.18
21.687,196.57
21.703,206.63
21.718,206.68
21.734,197.91
21.750,182.81
21.765,164.4
21.781,145.15
21.796,126.37
21.812,108.09
21.828,89.61
21.843,70.43
21.859,50.49
21.875,30.79
21.890,13.08
21.906,-0.61
21.921,-8.84
21.937,-11.14
21.953,-8.27
21.968,-1.98
21.984,5.77
22.000,13.2
22.015,19.19
22.031,23.04
22.046,24.32
22.062,22.38
22.078,16.32
22.093,5.26
22.109,-11.18
22.125,-32.52
22.140,-57.44
22.156,-83.89
22.171,-109.82
22.187,-133.69
22.203,-154.59
22.218,-172.5
22.234,-187.67
22.250,-200.16
22.265,-209.53
22.281,-214.74
22.296,-214.28
22.312,-206.79
22.328,-191.76
22.343,-169.63
22.359,-141.91
22.375,-110.65
22.390,-77.85
22.406,-45.1
22.421,-13.33
22.437,16.97
22.453,45.9
22.468,73.63
22.484,100.55
22.500,127.12
22.515,153.67
22.531,179.94
22.546,204.75
22.562,226.06
22.578,241.19
22.593,247.66
22.609,243.85
22.625,229.59
22.640,206.23
22.656,176.61
22.671,144.59
22.687,114.25
22.703,89.17
22.718,71.64
22.734,62.1
22.750,59.25
22.765,60.67
22.781,63.51
22.796,65.36
22.812,64.94
22.828,61.81
22.843,56.3
22.859,48.75
22.875,39.6
22.890,29.08
22.906,17.65
22.921,5.93
22.937,-5.53
22.953,-16.28
22.968,-26.45
22.984,-36.69
23.000,-48.02
23.015,-61.15
23.031,-76.38
23.046,-93.0
23.062,-109.52
23.078,-124.09
23.093,-134.92
23.109,-140.72
23.125,-141.18
23.140,-136.92
23.156,-129.18
23.171,-119.55
23.187,-109.57
23.203,-100.47
23.218,-93.16
23.234,-88.2
23.250,-85.84
23.265,-85.97
23.281,-88.14
23.296,-91.57
23.312,-95.39
23.328,-98.89
23.343,-101.71
23.359,-103.97
23.375,-105.96
23.390,-108.21
23.406,-111.06
23.421,-114.78
23.437,-119.28
23.453,-123.73
23.468,-126.53
23.484,-125.32
23.500,-117.58
23.515,-101.39
23.531,-76.32
23.546,-43.74
23.562,-6.74
23.578,30.66
23.593,64.7
23.609,92.91
23.625,114.33
23.640,129.24
23.656,138.53
23.671,143.09
23.687,143.47
23.703,139.9
23.718,132.56
23.734,121.75
23.750,108.11
23.765,92.34
23.781,74.85
23.796,55.54
23.812,33.85
23.828,9.37
23.843,-17.64
23.859,-45.76
23.875,-72.37
23.890,-94.41
23.906,-109.12
23.921,-115.27
23.937,-113.37
23.953,-105.7
23.968,-95.14
23.984,-84.56
24.000,-76.17
24.015,-71.42
24.031,-71.3
24.046,-76.27
24.062,-86.32
24.078,-100.78
24.093,-118.32
24.109,-136.74
24.125,-153.64
24.140,-166.75
24.156,-174.55
24.171,-176.28
24.187,-171.86
24.203,-161.55
24.218,-145.66
24.234,-124.64
24.250,-98.78
24.265,-68.67
24.281,-35.16
24.296,0.52
24.312,36.84
24.328,72.56
24.343,106.98
24.359,140.1
24.375,172.38
24.390,204.18
24.406,235.08
24.421,263.71
24.437,288.03
24.453,305.69
24.468,314.9
24.484,314.94
24.500,306.12
24.515,289.53
24.531,266.62
24.546,238.51
24.562,206.35
24.578,171.19
24.593,134.02
24.609,96.05
24.625,58.84
24.640,24.41
24.656,-4.93
24.671,-26.75
24.687,-39.3
24.703,-42.04
24.718,-36.0
24.734,-23.95
24.750,-9.36
24.765,4.28
24.781,14.34
24.796,19.43
24.812,19.14
24.828,13.71
24.843,3.97
24.859,-8.93
24.875,-23.56
24.890,-38.15
24.906,-51.2
24.921,-62.0
24.937,-70.76
24.953,-78.47
24.968,-86.71
24.984,-96.76
25.000,-109.32
25.015,-124.1
25.031,-139.56
25.046,-153.16
25.062,-161.79
25.078,-162.46
25.093,-153.28
25.109,-134.42
25.125,-108.02
25.140,-77.96
25.156,-48.55
25.171,-23.33
25.187,-4.2
25.203,8.42
25.218,15.34
25.234,17.5
25.250,15.47
25.265,9.65
25.281,0.36
25.296,-11.36
25.312,-23.61
25.328,-34.13
25.343,-41.09
25.359,-43.56
25.375,-42.16
25.390,-38.75
25.406,-35.37
25.421,-33.55
25.437,-33.54
25.453,-33.93
25.468,-32.38
25.484,-26.56
25.500,-14.96
25.515,2.36
25.531,23.51
25.546,45.48
25.562,64.8
25.578,78.55
25.593,85.07
25.609,84.1
25.625,76.63
25.640,64.46
25.656,49.85
25.671,35.08
25.687,22.38
25.703,13.42
25.718,9.27
25.734,10.17
25.750,15.4
25.765,23.59
25.781,32.71
25.796,40.68
25.812,45.72
25.828,47.04
25.843,44.97
25.859,40.96
25.875,37.15
25.890,35.37
25.906,36.57
25.921,40.59
25.937,46.18
25.953,51.74
25.968,55.96
25.984,57.89
26.000,56.81
26.015,52.22
26.031,43.79
26.046,31.58
26.062,16.44
26.078,0.15
26.093,-15.0
26.109,-26.99
26.125,-34.61
26.140,-38.13
26.156,-39.04
26.171,-39.39
26.187,-41.08
26.203,-45.07
26.218,-50.99
26.234,-56.94
26.250,-60.03
26.265,-56.78
26.281,-44.19
26.296,-20.37
26.312,14.62
26.328,58.57
26.343,107.52
26.359,156.33
26.375,199.84
26.390,233.6
26.406,254.62
26.421,261.57
26.437,254.94
26.453,236.63
26.468,209.53
26.484,177.23
26.500,143.15
26.515,110.18
26.531,80.06
26.546,53.38
26.562,29.74
26.578,8.15
26.593,-12.34
26.609,-32.35
26.625,-51.54
26.640,-68.74
26.656,-82.1
26.671,-89.74
26.687,-90.3
26.703,-83.49
26.718,-70.2
26.734,-52.42
26.750,-32.7
26.765,-13.5
26.781,2.73
26.796,14.2
26.812,19.7
26.828,18.84
26.843,12.09
26.859,0.72
26.875,-13.48
26.890,-28.93
26.906,-44.42
26.921,-59.7
26.937,-75.04
26.953,-91.0
26.968,-108.04
26.984,-126.02
27.000,-144.41
27.015,-161.84
27.031,-176.5
27.046,-186.26
27.062,-189.23
27.078,-184.08
27.093,-170.57
27.109,-149.86
27.125,-123.97
27.140,-95.66
27.156,-67.35
27.171,-40.86
27.187,-17.17
27.203,3.32
27.218,20.57
27.234,34.82
27.250,46.35
27.265,55.95
27.281,64.39
27.296,72.5
27.312,80.8
27.328,89.42
27.343,98.03
27.359,105.83
27.375,111.91
27.390,115.21
27.406,115.08
27.421,111.54
27.437,105.7
27.453,99.56
27.468,95.5
27.484,95.33
27.500,99.2
27.515,105.61
27.531,111.66
27.546,114.39
27.562,111.65
27.578,102.8
27.593,88.57
27.609,70.48
27.625,50.36
27.640,29.83
27.656,10.3
27.671,-7.08
27.687,-21.52
27.703,-32.72
27.718,-41.16
27.734,-47.85
27.750,-54.14
27.765,-61.12
27.781,-69.39
27.796,-79.06
27.812,-89.64
27.828,-100.15
27.843,-109.05
27.859,-114.67
27.875,-115.67
27.890,-111.59
27.906,-103.1
27.921,-91.85
27.937,-80.05
27.953,-69.79
27.968,-62.45
27.984,-58.69
28.000,-58.56
28.015,-61.91
28.031,-68.29
28.046,-77.02
28.062,-86.92
28.078,-96.53
28.093,-104.45
28.109,-109.79
28.125,-112.41
28.140,-113.05
28.156,-113.11
28.171,-113.85
28.187,-116.01
28.203,-119.06
28.218,-121.04
28.234,-118.71
28.250,-108.27
28.265,-86.3
28.281,-51.05
28.296,-3.56
28.312,52.46
28.328,111.17
28.343,166.24
28.359,212.64
28.375,247.58
28.390,270.51
28.406,282.31
28.421,284.33
28.437,277.49
28.453,262.6
28.468,240.6
28.484,213.03
28.500,182.08
28.515,150.1
28.531,119.0
28.546,89.88
28.562,63.05
28.578,38.26
28.593,15.38
28.609,-5.33
28.625,-23.06
28.640,-36.41
28.656,-44.1
28.671,-45.45
28.687,-40.89
28.703,-32.1
28.718,-21.58
28.734,-11.78
28.750,-4.63
28.765,-1.15
28.781,-1.57
28.796,-5.78
28.812,-13.54
28.828,-24.65
28.843,-38.67
28.859,-54.88
28.875,-72.11
28.890,-89.12
28.906,-104.75
28.921,-118.2
28.937,-129.26
28.953,-138.13
28.968,-145.36
28.984,-151.51
29.000,-156.93
29.015,-161.44
29.031,-164.21
29.046,-163.76
29.062,-158.23
29.078,-146.15
29.093,-126.99
29.109,-101.56
29.125,-71.73
29.140,-39.97
29.156,-8.67
29.171,20.4
29.187,46.06
29.203,67.75
29.218,85.23
29.234,98.59
29.250,108.13
29.265,114.49
29.281,118.36
29.296,120.26
29.312,120.38
29.328,118.42
29.343,113.84
29.359,106.07
29.375,94.68
29.390,79.52
29.406,61.05
29.421,40.21
29.437,18.45
29.453,-2.26
29.468,-20.06
29.484,-33.17
29.500,-40.27
29.515,-40.69
29.531,-34.87
29.546,-24.52
29.562,-12.49
29.578,-2.35
29.593,2.74
29.609,0.94
29.625,-7.57
29.640,-20.93
29.656,-36.18
29.671,-50.41
29.687,-61.51
29.703,-68.41
29.718,-71.13
29.734,-70.41
29.750,-67.48
29.765,-63.87
29.781,-61.27
29.796,-61.0
29.812,-63.49
29.828,-68.09
29.843,-73.2
29.859,-76.77
29.875,-77.25
29.890,-74.04
29.906,-67.62
29.921,-59.23
29.937,-50.27
29.953,-41.78
29.968,-34.38
29.984,-28.63
30.000,-25.05
30.015,-24.29
30.031,-26.68
30.046,-31.79
30.062,-38.08
30.078,-43.02
30.093,-43.84
30.109,-38.46
30.125,-26.17
30.140,-7.72
30.156,14.9
30.171,39.17
30.187,62.51
30.203,82.94
30.218,99.61
30.234,113.13
30.250,125.5
30.265,139.43
30.281,157.24
30.296,179.38
30.312,203.77
30.328,226.11
30.343,241.03
30.359,244.19
30.375,233.4
30.390,209.24
30.406,174.41
30.421,132.68
30.437,87.84
30.453,43.2
30.468,1.81
30.484,-33.84
30.500,-61.61
30.515,-80.27
30.531,-89.96
30.546,-92.25
30.562,-89.8
30.578,-85.7
30.593,-82.76
30.609,-82.59
30.625,-85.38
30.640,-89.59
30.656,-92.59
30.671,-91.43
30.687,-83.92
30.703,-69.46
30.718,-49.23
30.734,-25.91
30.750,-2.75
30.765,17.03
30.781,31.28
30.796,38.86
30.812,39.69
30.828,34.66
30.843,25.25
30.859,13.44
30.875,1.44
30.890,-8.7
30.906,-15.8
30.921,-19.62
30.937,-20.88
30.953,-20.98
30.968,-21.29
30.984,-22.88
31.000,-26.2
31.015,-30.9
31.031,-35.89
31.046,-39.72
31.062,-40.89
31.078,-38.16
31.093,-31.13
31.109,-20.36
31.125,-7.27
31.140,6.33
31.156,18.88
31.171,29.52
31.187,38.14
31.203,45.1
31.218,50.89
31.234,55.85
31.250,60.08
31.265,63.34
31.281,65.25
31.296,65.4
31.312,63.35
31.328,58.78
31.343,51.73
31.359,42.39
31.375,31.09
31.390,18.28
31.406,4.47
31.421,-9.45
31.437,-22.04
31.453,-31.54
31.468,-36.13
31.484,-34.4
31.500,-26.06
31.515,-12.07
31.531,5.57
31.546,24.48
31.562,42.33
31.578,57.54
31.593,69.13
31.609,76.61
31.625,79.66
31.640,77.83
31.656,70.64
31.671,57.67
31.687,39.1
31.703,15.5
31.718,-12.2
31.734,-43.21
31.750,-77.17
31.765,-114.22
31.781,-154.45
31.796,-197.03
31.812,-239.58
31.828,-277.83
31.843,-306.59
31.859,-321.1
31.875,-318.63
31.890,-299.48
31.906,-266.92
31.921,-225.83
31.937,-181.43
31.953,-137.92
31.968,-98.06
31.984,-63.65
32.000,-35.71
32.015,-14.75
32.031,-0.37
32.046,9.25
32.062,17.31
32.078,27.78
32.093,43.78
32.109,66.43
32.125,94.04
32.140,122.8
32.156,148.1
32.171,166.08
32.187,174.8
32.203,174.4
32.218,166.82
32.234,154.94
32.250,141.82
32.265,130.04
32.281,121.34
32.296,116.55
32.312,115.42
32.328,117.06
32.343,119.94
32.359,122.44
32.375,123.25
32.390,121.41
32.406,116.27
32.421,107.55
32.437,95.3
32.453,79.87
32.468,62.14
32.484,43.33
32.500,24.71
32.515,7.38
32.531,-7.94
32.546,-21.17
32.562,-32.65
32.578,-43.12
32.593,-53.26
32.609,-63.44
32.625,-73.28
32.640,-81.59
32.656,-86.75
32.671,-87.18
32.687,-82.09
32.703,-71.91
32.718,-58.47
32.734,-44.4
32.750,-32.43
32.765,-24.51
32.781,-21.32
32.796,-22.3
32.812,-25.95
32.828,-30.35
32.843,-33.78
32.859,-35.49
32.875,-35.64
32.890,-35.37
32.906,-36.49
32.921,-40.75
32.937,-49.41
32.953,-63.06
32.968,-81.6
32.984,-104.12
33.000,-129.05
33.015,-153.73
33.031,-174.08
33.046,-185.23
33.062,-182.81
33.078,-164.29
33.093,-130.2
33.109,-84.29
33.125,-32.26
33.140,19.92
33.156,67.56
33.171,107.92
33.187,139.8
33.203,162.73
33.218,176.28
33.234,180.11
33.250,174.1
33.265,158.88
33.281,135.84
33.296,106.96
33.312,74.57
33.328,40.93
33.343,8.29
33.359,-21.5
33.375,-47.09
33.390,-67.56
33.406,-82.38
33.421,-91.03
33.437,-93.09
33.453,-88.3
33.468,-77.1
33.484,-60.78
33.500,-41.41
33.515,-21.69
33.531,-4.07
33.546,9.85
33.562,19.48
33.578,25.04
33.593,27.13
33.609,26.24
33.625,22.87
33.640,17.65
33.656,11.41
33.671,5.19
33.687,-0.12
33.703,-4.15
33.718,-7.21
33.734,-10.04
33.750,-13.66
33.765,-18.72
33.781,-25.07
33.796,-31.67
33.812,-36.46
33.828,-36.8
33.843,-30.22
33.859,-15.14
33.875,8.45
33.890,38.88
33.906,73.25
33.921,108.48
33.937,142.02
33.953,172.15
33.968,197.92
33.984,218.61
34.000,233.54
34.015,242.04
34.031,243.72
34.046,238.58
34.062,227.01
34.078,209.56
34.093,186.74
34.109,158.91
34.125,126.38
34.140,89.85
34.156,50.44
34.171,9.71
34.187,-30.44
34.203,-67.92
34.218,-100.67
34.234,-126.42
34.250,-143.16
34.265,-149.63
34.281,-145.83
34.296,-133.42
34.312,-115.43
34.328,-95.46
34.343,-76.77
34.359,-61.64
34.375,-51.19
34.390,-45.49
34.406,-44.1
34.421,-46.38
34.437,-51.36
34.453,-57.82
34.468,-64.43
34.484,-70.0
34.500,-73.81
34.515,-75.93
34.531,-76.96
34.546,-77.9
34.562,-79.89
34.578,-83.75
34.593,-89.75
34.609,-97.42
34.625,-105.45
34.640,-111.82
34.656,-114.2
34.671,-110.68
34.687,-100.44
34.703,-83.85
34.718,-62.48
34.734,-38.55
34.750,-14.38
34.765,8.04
34.781,27.28
34.796,42.55
34.812,53.63
34.828,60.97
34.843,65.42
34.859,68.24
34.875,70.56
34.890,73.19
34.906,76.18
34.921,79.09
34.937,81.02
34.953,81.05
34.968,78.49
34.984,73.14
35.000,65.43
35.015,56.56
35.031,48.41
35.046,42.97
35.062,41.8
35.078,45.17
35.093,52.14
35.109,60.6
35.125,68.32
35.140,73.29
35.156,74.46
35.171,71.58
35.187,64.87
35.203,54.55
35.218,40.62
35.234,23.25
35.250,2.93
35.265,-19.07
35.281,-40.65
35.296,-58.92
35.312,-71.05
35.328,-75.0
35.343,-70.68
35.359,-60.24
35.375,-47.4
35.390,-36.03
35.406,-28.52
35.421,-24.9
35.437,-23.12
35.453,-20.41
35.468,-14.95
35.484,-6.85
35.500,2.05
35.515,9.44
35.531,13.68
35.546,14.36
35.562,12.09
35.578,7.45
35.593,0.37
35.609,-9.89
35.625,-24.23
35.640,-42.94
35.656,-65.16
35.671,-89.03
35.687,-112.32
35.703,-133.1
35.718,-150.37
35.734,-164.2
35.750,-175.33
35.765,-184.46
35.781,-191.83
35.796,-196.7
35.812,-197.45
35.828,-192.07
35.843,-178.72
35.859,-156.53
35.875,-125.57
35.890,-86.77
35.906,-41.13
35.921,10.66
35.937,68.09
35.953,129.94
35.968,193.3
35.984,253.39
36.000,304.19
36.015,340.43
36.031,359.36
36.046,361.57
36.062,350.54
36.078,330.93
36.093,306.39
36.109,278.66
36.125,247.6
36.140,212.28
36.156,172.27
36.171,128.51
36.187,83.46
36.203,40.51
36.218,3.4
36.234,-24.77
36.250,-42.12
36.265,-48.46
36.281,-45.37
36.296,-35.78
36.312,-23.01
36.328,-10.1
36.343,0.82
36.359,8.46
36.375,12.19
36.390,11.84
36.406,7.52
36.421,-0.2
36.437,-10.21
36.453,-20.84
36.468,-30.47
36.484,-37.94
36.500,-42.85
36.515,-45.77
36.531,-47.91
36.546,-50.64
36.562,-55.36
36.578,-62.96
36.593,-73.67
36.609,-87.0
36.625,-101.55
36.640,-115.23
36.656,-125.61
36.671,-130.58
36.687,-128.88
36.703,-120.49
36.718,-106.58
36.734,-89.14
36.750,-70.52
36.765,-52.65
36.781,-36.73
36.796,-23.04
36.812,-11.12
36.828,-0.12
36.843,10.87
36.859,22.51
36.875,34.98
36.890,47.93
36.906,60.54
36.921,71.79
36.937,80.67
36.953,86.47
36.968,88.9
36.984,88.23
37.000,85.57
37.015,82.63
37.031,81.11
37.046,82.26
37.062,86.08
37.078,91.31
37.093,95.82
37.109,97.51
37.125,94.86
37.140,87.54
37.156,76.16
37.171,61.78
37.187,45.57
37.203,28.35
37.218,10.82
37.234,-6.25
37.250,-21.8
37.265,-34.51
37.281,-42.68
37.296,-44.89
37.312,-40.4
37.328,-29.77
37.343,-15.55
37.359,-2.0
37.375,5.82
37.390,3.89
37.406,-9.3
37.421,-31.61
37.437,-57.84
37.453,-81.48
37.468,-96.97
37.484,-101.54
37.500,-95.9
37.515,-83.51
37.531,-68.83
37.546,-56.01
37.562,-48.05
37.578,-46.9
37.593,-53.94
37.609,-70.23
37.625,-96.18
37.640,-130.83
37.656,-171.15
37.671,-212.26
37.687,-248.22
37.703,-273.8
37.718,-285.74
37.734,-283.48
37.750,-268.56
37.765,-243.64
37.781,-210.9
37.796,-171.3
37.812,-124.81
37.828,-70.89
37.843,-9.89
37.859,56.16
37.875,123.48
37.890,187.29
37.906,242.98
37.921,287.32
37.937,318.98
37.953,338.05
37.968,345.36
37.984,341.79
38.000,328.1
38.015,305.31
38.031,275.21
38.046,240.78
38.062,205.55
38.078,172.88
38.093,145.08
38.109,122.76
38.125,105.13
38.140,90.67
38.156,78.04
38.171,66.58
38.187,56.57
38.203,48.91
38.218,44.63
38.234,44.41
38.250,48.08
38.265,54.63
38.281,62.33
38.296,69.28
38.312,73.98
38.328,75.51
38.343,73.61
38.359,68.11
38.375,58.91
38.390,45.66
38.406,27.79
38.421,4.79
38.437,-23.82
38.453,-58.32
38.468,-98.74
38.484,-144.49
38.500,-194.48
38.515,-246.91
38.531,-299.55
38.546,-350.1
38.562,-396.45
38.578,-436.76
38.593,-469.29
38.609,-492.1
38.625,-503.19
38.640,-501.12
38.656,-485.39
38.671,-456.69
38.687,-416.69
38.703,-367.47
38.718,-311.15
38.734,-249.77
38.750,-185.45
38.765,-120.4
38.781,-56.84
38.796,3.65
38.812,60.64
38.828,114.95
38.843,167.88
38.859,219.51
38.875,267.67
38.890,307.54
38.906,332.9
38.921,338.41
38.937,321.71
38.953,284.61
38.968,232.65
38.984,173.67
39.000,115.55
39.015,64.62
39.031,24.62
39.046,-3.41
39.062,-20.51
39.078,-29.07
39.093,-31.81
39.109,-31.02
39.125,-28.08
39.140,-23.54
39.156,-17.8
39.171,-11.63
39.187,-6.35
39.203,-3.29
39.218,-3.15
39.234,-5.18
39.250,-7.62
39.265,-8.6
39.281,-7.2
39.296,-4.07
39.312,-1.05
39.328,-0.24
39.343,-2.79
39.359,-8.57
39.375,-15.97
39.390,-22.6
39.406,-25.95
39.421,-24.03
39.437,-16.04
39.453,-2.48
39.468,14.77
39.484,33.19
39.500,50.16
39.515,63.68
39.531,72.62
39.546,76.54
39.562,75.36
39.578,68.99
39.593,57.48
39.609,41.42
39.625,22.24
39.640,2.08
39.656,-16.42
39.671,-30.95
39.687,-39.84
39.703,-42.15
39.718,-37.85
39.734,-27.56
39.750,-12.27
39.765,6.97
39.781,29.16
39.796,53.7
39.812,80.17
39.828,107.97
39.843,136.12
39.859,162.8
39.875,185.88
39.890,203.3
39.906,213.65
39.921,216.4
39.937,211.64
39.953,199.5
39.968,179.94
39.984,153.08
40.000,119.83
40.015,82.43
40.031,44.18
40.046,8.69
40.062,-21.43
40.078,-45.24
40.093,-63.75
40.109,-79.16
40.125,-93.93
40.140,-110.26
40.156,-129.32
40.171,-151.35
40.187,-175.48
40.203,-199.62
40.218,-220.89
40.234,-236.26
40.250,-243.63
40.265,-242.33
40.281,-233.55
40.296,-219.23
40.312,-201.21
40.328,-180.53
40.343,-157.36
40.359,-131.96
40.375,-105.29
40.390,-79.35
40.406,-56.39
40.421,-38.34
40.437,-25.71
40.453,-17.96
40.468,-13.78
40.484,-12.01
40.500,-12.12
40.515,-14.06
40.531,-18.11
40.546,-24.33
40.562,-32.34
40.578,-41.06
40.593,-48.78
40.609,-53.24
40.625,-52.14
40.640,-43.8
40.656,-27.74
40.671,-4.7
40.687,23.31
40.703,53.91
40.718,84.75
40.734,113.55
40.750,138.32
40.765,157.5
40.781,170.03
40.796,175.78
40.812,175.76
40.828,171.78
40.843,165.96
40.859,159.98
40.875,154.49
40.890,148.98
40.906,142.17
40.921,132.35
40.937,118.08
40.953,98.29
40.968,72.9
40.984,43.03
41.000,11.3
41.015,-18.64
41.031,-42.82
41.046,-58.27
41.062,-64.01
41.078,-61.31
41.093,-53.19
41.109,-43.14
41.125,-34.22
41.140,-28.19
41.156,-25.93
41.171,-27.37
41.187,-32.23
41.203,-39.89
41.218,-49.27
41.234,-58.84
41.250,-66.79
41.265,-71.61
41.281,-72.35
41.296,-69.29
41.312,-63.5
41.328,-56.72
41.343,-50.86
41.359,-47.39
41.375,-46.96
41.390,-48.88
41.406,-51.44
41.421,-52.06
41.437,-48.43
41.453,-39.1
41.468,-23.97
41.484,-4.28
41.500,18.15
41.515,41.21
41.531,63.09
41.546,81.95
41.562,96.26
41.578,104.66
41.593,106.47
41.609,102.21
41.625,93.56
41.640,83.16
41.656,73.57
41.671,66.6
41.687,62.55
41.703,60.66
41.718,59.53
41.734,57.88
41.750,55.06
41.765,51.29
41.781,47.99
41.796,47.46
41.812,52.47
41.828,65.26
41.843,86.5
41.859,114.49
41.875,145.19
41.890,173.38
41.906,193.9
41.921,203.09
41.937,199.46
41.953,183.23
41.968,155.73
41.984,118.72
42.000,74.32
42.015,25.02
42.031,-25.79
42.046,-74.17
42.062,-116.51
42.078,-150.06
42.093,-174.01
42.109,-189.31
42.125,-198.24
42.140,-203.75
42.156,-208.47
42.171,-213.98
42.187,-220.35
42.203,-226.25
42.218,-228.91
42.234,-225.14
42.250,-212.28
42.265,-189.13
42.281,-156.81
42.296,-118.47
42.312,-78.4
42.328,-40.99
42.343,-9.45
42.359,14.6
42.375,30.92
42.390,40.3
42.406,44.09
42.421,43.68
42.437,40.54
42.453,36.27
42.468,32.14
42.484,29.26
42.500,28.15
42.515,28.61
42.531,29.68
42.546,30.11
42.562,28.26
42.578,23.13
42.593,14.91
42.609,5.11
42.625,-3.29
42.640,-6.98
42.656,-3.44
42.671,7.99
42.687,25.87
42.703,46.87
42.718,66.86
42.734,82.09
42.750,89.66
42.765,88.34
42.781,78.45
42.796,61.65
42.812,40.85
42.828,19.52
42.843,1.1
42.859,-11.64
42.875,-17.23
42.890,-16.09
42.906,-10.14
42.921,-2.37
42.937,3.62
42.953,4.81
42.968,-0.72
42.984,-13.04
43.000,-30.11
43.015,-48.12
43.031,-62.85
43.046,-70.82
43.062,-70.48
43.078,-62.67
43.093,-49.93
43.109,-35.46
43.125,-22.02
43.140,-11.41
43.156,-4.57
43.171,-1.96
43.187,-4.05
43.203,-11.19
43.218,-23.27
43.234,-39.02
43.250,-55.93
43.265,-70.89
43.281,-81.11
43.296,-85.54
43.312,-85.0
43.328,-81.86
43.343,-78.84
43.359,-77.82
43.375,-78.77
43.390,-79.72
43.406,-77.74
43.421,-69.95
43.437,-54.76
43.453,-32.37
43.468,-4.49
43.484,26.45
43.500,57.92
43.515,87.96
43.531,115.24
43.546,138.73
43.562,157.58
43.578,171.0
43.593,178.53
43.609,180.49
43.625,178.31
43.640,174.44
43.656,171.53
43.671,171.53
43.687,175.02
43.703,180.99
43.718,187.5
43.734,192.57
43.750,194.89
43.765,194.19
43.781,191.47
43.796,188.36
43.812,186.42
43.828,186.64
43.843,188.85
43.859,191.77
43.875,193.16
43.890,190.65
43.906,182.25
43.921,167.18
43.937,145.77
43.953,119.15
43.968,88.81
43.984,56.04
44.000,22.27
44.015,-11.06
44.031,-42.13
44.046,-69.09
44.062,-90.37
44.078,-105.15
44.093,-113.81
44.109,-117.49
44.125,-118.02
44.140,-117.15
44.156,-116.31
44.171,-116.56
44.187,-118.13
44.203,-120.38
44.218,-121.85
44.234,-120.59
44.250,-114.62
44.265,-102.96
44.281,-85.97
44.296,-65.34
44.312,-43.96
44.328,-24.91
44.343,-10.75
44.359,-3.07
44.375,-2.36
44.390,-7.87
44.406,-18.18
44.421,-31.44
44.437,-45.62
44.453,-59.11
44.468,-70.78
44.484,-80.09
44.500,-87.12
44.515,-92.41
44.531,-96.71
44.546,-101.06
44.562,-106.48
44.578,-113.42
44.593,-121.63
44.609,-129.77
44.625,-135.78
44.640,-137.66
44.656,-134.13
44.671,-125.12
44.687,-111.65
44.703,-95.07
44.718,-76.09
44.734,-54.76
44.750,-30.67
44.765,-3.86
44.781,24.32
44.796,51.59
44.812,75.16
44.828,92.78
44.843,103.51
44.859,107.93
44.875,107.4
44.890,103.38
44.906,96.85
44.921,87.82
44.937,76.06
44.953,61.32
44.968,43.86
44.984,24.86
45.000,6.46
45.015,-8.7
45.031,-17.97
45.046,-19.54
45.062,-13.21
45.078,-0.14
45.093,17.38
45.109,36.67
45.125,55.31
45.140,71.61
45.156,84.43
45.171,93.23
45.187,97.87
45.203,98.53
45.218,95.94
45.234,91.12
45.250,85.24
45.265,78.88
45.281,71.71
45.296,62.26
45.312,48.33
45.328,27.66
45.343,-1.2
45.359,-38.04
45.375,-80.62
45.390,-124.8
45.406,-165.51
45.421,-198.12
45.437,-219.8
45.453,-230.17
45.468,-230.87
45.484,-224.65
45.500,-214.03
45.515,-200.39
45.531,-184.03
45.546,-164.74
45.562,-142.58
45.578,-118.32
45.593,-93.21
45.609,-68.28
45.625,-43.94
45.640,-19.88
45.656,4.37
45.671,28.81
45.687,52.54
45.703,73.87
45.718,90.85
45.734,101.88
45.750,106.52
45.765,105.58
45.781,101.29
45.796,96.5
45.812,93.89
45.828,95.09
45.843,100.27
45.859,108.37
45.875,117.67
45.890,127.02
45.906,135.96
45.921,144.93
45.937,154.51
45.953,164.43
45.968,173.39
45.984,179.27
46.000,179.88
46.015,173.62
46.031,160.12
46.046,139.92
46.062,114.15
46.078,84.11
46.093,51.12
46.109,16.4
46.125,-18.68
46.140,-52.88
46.156,-84.96
46.171,-113.58
46.187,-137.34
46.203,-154.44
46.218,-163.12
46.234,-162.16
46.250,-151.59
46.265,-133.02
46.281,-109.66
46.296,-85.58
46.312,-64.43
46.328,-48.82
46.343,-39.69
46.359,-36.54
46.375,-38.06
46.390,-42.7
46.406,-48.97
46.421,-55.61
46.437,-61.62
46.453,-66.14
46.468,-68.55
46.484,-68.51
46.500,-65.98
46.515,-61.39
46.531,-55.63
46.546,-49.71
46.562,-44.48
46.578,-39.9
46.593,-34.86
46.609,-27.56
46.625,-16.07
46.640,0.59
46.656,21.86
46.671,45.68
46.687,69.16
46.703,89.36
46.718,104.14
46.734,112.58
46.750,114.3
46.765,109.45
46.781,98.4
46.796,81.74
46.812,60.58
46.828,36.61
46.843,11.85
46.859,-11.9
46.875,-33.36
46.890,-52.24
46.906,-69.11
46.921,-84.81
46.937,-100.03
46.953,-114.53
46.968,-126.97
46.984,-135.11
47.000,-136.65
47.015,-129.82
47.031,-114.31
47.046,-91.3
47.062,-63.22
47.078,-33.15
47.093,-3.92
47.109,22.12
47.125,43.34
47.140,58.58
47.156,67.21
47.171,68.95
47.187,64.25
47.203,54.2
47.218,40.5
47.234,25.29
47.250,10.44
47.265,-2.7
47.281,-13.76
47.296,-23.06
47.312,-31.48
47.328,-39.85
47.343,-48.47
47.359,-56.92
47.375,-63.61
47.390,-66.41
47.406,-63.13
47.421,-52.3
47.437,-33.71
47.453,-8.5
47.468,21.05
47.484,52.3
47.500,82.49
47.515,109.41
47.531,131.38
47.546,147.29
47.562,156.77
47.578,160.12
47.593,158.49
47.609,153.42
47.625,146.59
47.640,139.0
47.656,130.8
47.671,121.09
47.687,108.38
47.703,91.1
47.718,68.16
47.734,39.88
47.750,7.91
47.765,-24.48
47.781,-53.41
47.796,-75.08
47.812,-87.12
47.828,-88.95
47.843,-81.76
47.859,-68.28
47.875,-51.45
47.890,-34.22
47.906,-18.99
47.921,-7.88
47.937,-2.53
47.953,-3.96
47.968,-12.23
47.984,-25.87
48.000,-42.49
48.015,-59.1
48.031,-73.14
48.046,-83.26
48.062,-89.42
48.078,-92.71
48.093,-94.56
48.109,-96.37
48.125,-98.76
48.140,-101.68
48.156,-104.22
48.171,-104.79
48.187,-101.56
48.203,-92.99
48.218,-78.55
48.234,-58.86
48.250,-35.76
48.265,-11.64
48.281,11.05
48.296,30.53
48.312,45.8
48.328,56.36
48.343,62.21
48.359,63.52
48.375,61.05
48.390,56.12
48.406,50.59
48.421,46.41
48.437,44.99
48.453,46.85
48.468,51.1
48.484,55.95
48.500,59.13
48.515,58.69
48.531,53.8
48.546,45.14
48.562,34.97
48.578,26.61
48.593,23.37
48.609,27.26
48.625,38.3
48.640,54.2
48.656,71.15
48.671,85.2
48.687,93.41
48.703,94.41
48.718,88.5
48.734,76.99
48.750,61.54
48.765,43.78
48.781,24.9
48.796,5.71
48.812,-13.19
48.828,-31.39
48.843,-48.4
48.859,-63.56
48.875,-75.83
48.890,-84.12
48.906,-87.74
48.921,-86.87
48.937,-82.77
48.953,-77.0
48.968,-70.59
48.984,-63.28
49.000,-53.62
49.015,-39.77
49.031,-20.86
49.046,2.25
49.062,26.86
49.078,49.28
49.093,66.04
49.109,74.92
49.125,75.41
49.140,68.35
49.156,55.29
49.171,37.83
49.187,17.47
49.203,-4.68
49.218,-27.66
49.234,-50.54
49.250,-72.2
49.265,-91.43
49.281,-107.36
49.296,-120.06
49.312,-130.6
49.328,-140.47
49.343,-150.39
49.359,-159.6
49.375,-165.49
49.390,-164.35
49.406,-152.85
49.421,-129.06
49.437,-93.31
49.453,-47.69
49.468,4.68
49.484,60.43
49.500,116.16
49.515,168.36
49.531,213.28
49.546,247.21
49.562,267.44
49.578,272.97
49.593,264.91
49.609,246.12
49.625,220.12
49.640,190.1
49.656,158.03
49.671,124.73
49.687,90.04
49.703,53.72
49.718,16.42
49.734,-20.09
49.750,-52.83
49.765,-78.46
49.781,-94.13
49.796,-98.79
49.812,-93.5
49.828,-81.5
49.843,-66.96
49.859,-53.72
49.875,-44.39
49.890,-40.07
49.906,-40.98
49.921,-46.53
49.937,-55.99
49.953,-68.21
49.968,-81.65
49.984,-94.43
50.000,-104.62
50.015,-110.82
50.031,-112.55
50.046,-110.58
50.062,-106.44
50.078,-102.14
50.093,-99.55
50.109,-99.65
50.125,-102.29
50.140,-105.93
50.156,-108.09
50.171,-106.1
50.187,-98.23
50.203,-84.16
50.218,-64.92
50.234,-42.52
50.250,-18.93
50.265,4.26
50.281,25.89
50.296,44.62
50.312,59.01
50.328,67.41
50.343,68.61
50.359,62.6
50.375,50.74
50.390,35.57
50.406,19.94
50.421,6.34
50.437,-3.88
50.453,-10.23
50.468,-13.01
50.484,-12.83
50.500,-10.55
50.515,-6.77
50.531,-1.76
50.546,4.7
50.562,13.4
50.578,25.19
50.593,40.48
50.609,58.62
50.625,78.06
50.640,96.33
50.656,111.07
50.671,120.36
50.687,123.16
50.703,119.27
50.718,109.21
50.734,94.1
50.750,75.54
50.765,55.7
50.781,36.99
50.796,21.86
50.812,11.97
50.828,7.83
50.843,8.8
50.859,13.37
50.875,19.98
50.890,27.49
50.906,35.42
50.921,44.0
50.937,53.75
50.953,64.91
50.968,76.79
50.984,87.78
51.000,95.43
51.015,97.47
51.031,92.57
51.046,80.77
51.062,63.36
51.078,42.4
51.093,20.05
51.109,-2.46
51.125,-24.69
51.140,-47.27
51.156,-71.0
51.171,-96.48
51.187,-123.5
51.203,-151.17
51.218,-178.18
51.234,-202.9
51.250,-223.82
51.265,-239.86
51.281,-250.47
51.296,-255.18
51.312,-253.31
51.328,-243.6
51.343,-224.57
51.359,-195.13
51.375,-154.89
51.390,-104.4
51.406,-44.91
51.421,21.56
51.437,92.27
51.453,163.29
51.468,229.58
51.484,285.45
51.500,325.75
51.515,347.64
51.531,351.42
51.546,340.79
51.562,321.04
51.578,297.19
51.593,272.24
51.609,246.63
51.625,218.95
51.640,187.51
51.656,151.53
51.671,111.2
51.687,67.91
51.703,23.62
51.718,-19.45
51.734,-58.77
51.750,-91.06
51.765,-113.06
51.781,-122.26
51.796,-118.0
51.812,-102.45
51.828,-79.97
51.843,-55.76
51.859,-34.45
51.875,-19.09
51.890,-10.66
51.906,-8.71
51.921,-11.93
51.937,-18.78
51.953,-28.12
51.968,-39.01
51.984,-50.78
52.000,-63.05
52.015,-75.67
52.031,-88.54
52.046,-101.71
52.062,-115.26
52.078,-129.25
52.093,-143.63
52.109,-157.83
52.125,-170.57
52.140,-179.97
52.156,-183.82
52.171,-180.49
52.187,-169.86
52.203,-153.36
52.218,-133.5
52.234,-113.28
52.250,-94.89
52.265,-79.27
52.281,-66.45
52.296,-55.84
52.312,-46.72
52.328,-38.37
52.343,-29.97
52.359,-20.23
52.375,-7.9
52.390,7.85
52.406,26.9
52.421,47.85
52.437,68.64
52.453,86.81
52.468,100.39
52.484,108.12
52.500,109.71
52.515,105.81
52.531,98.01
52.546,88.39
52.562,78.82
52.578,70.46
52.593,63.25
52.609,55.91
52.625,46.57
52.640,33.6
52.656,16.13
52.671,-5.64
52.687,-30.6
52.703,-57.65
52.718,-85.73
52.734,-113.92
52.750,-141.29
52.765,-166.26
52.781,-186.36
52.796,-198.79
52.812,-201.35
52.828,-193.23
52.843,-175.99
52.859,-152.97
52.875,-128.25
52.890,-105.42
52.906,-86.39
52.921,-70.96
52.937,-57.16
52.953,-42.32
52.968,-24.0
52.984,-0.88
53.000,26.87
53.015,57.96
53.031,90.32
53.046,122.06
53.062,151.46
53.078,177.12
53.093,197.72
53.109,211.97
53.125,218.79
53.140,217.85
53.156,210.12
53.171,197.5
53.187,183.0
53.203,169.43
53.218,158.83
53.234,151.96
53.250,148.34
53.265,146.61
53.281,144.86
53.296,141.57
53.312,135.74
53.328,127.63
53.343,118.71
53.359,111.2
53.375,107.44
53.390,109.06
53.406,116.32
53.421,127.76
53.437,140.7
53.453,151.8
53.468,157.85
53.484,156.44
53.500,146.19
53.515,127.12
53.531,100.64
53.546,69.35
53.562,36.47
53.578,5.31
53.593,-21.71
53.609,-43.52
53.625,-60.53
53.640,-74.15
53.656,-86.28
53.671,-98.54
53.687,-111.77
53.703,-125.93
53.718,-139.83
53.734,-151.45
53.750,-158.24
53.765,-157.75
53.781,-148.34
53.796,-129.93
53.812,-104.1
53.828,-73.53
53.843,-41.44
53.859,-10.7
53.875,16.36
53.890,38.1
53.906,53.32
53.921,61.14
53.937,61.12
53.953,53.54
53.968,39.64
53.984,21.75
54.000,2.75
54.015,-14.87
54.031,-29.59
54.046,-41.48
54.062,-52.32
54.078,-65.02
54.093,-82.73
54.109,-107.46
54.125,-138.95
54.140,-173.97
54.156,-207.22
54.171,-232.77
54.187,-246.17
54.203,-245.97
54.218,-233.82
54.234,-213.57
54.250,-189.7
54.265,-166.18
54.281,-145.58
54.296,-129.25
54.312,-117.59
54.328,-110.0
54.343,-105.08
54.359,-100.67
54.375,-94.31
54.390,-83.82
54.406,-68.07
54.421,-47.06
54.437,-21.81
54.453,5.98
54.468,34.31
54.484,60.93
54.500,83.7
54.515,100.83
54.531,111.59
54.546,116.76
54.562,118.49
54.578,119.47
54.593,121.64
54.609,125.33
54.625,128.94
54.640,129.93
54.656,125.99
54.671,116.2
54.687,101.21
54.703,82.67
54.718,62.13
54.734,40.64
54.750,18.95
54.765,-1.98
54.781,-20.36
54.796,-33.62
54.812,-39.53
54.828,-37.12
54.843,-27.29
54.859,-12.8
54.875,2.82
54.890,16.35
54.906,25.77
54.921,30.73
54.937,32.53
54.953,33.37
54.968,35.49
54.984,40.63
55.000,49.26
55.015,60.62
55.031,72.76
55.046,83.14
55.062,89.16
55.078,88.75
55.093,80.59
55.109,63.96
55.125,38.87
55.140,6.15
55.156,-32.42
55.171,-74.17
55.187,-115.64
55.203,-153.23
55.218,-183.87
55.234,-205.5
55.250,-217.34
55.265,-219.71
55.281,-213.84
55.296,-201.16
55.312,-182.85
55.328,-159.54
55.343,-130.98
55.359,-96.4
55.375,-55.03
55.390,-7.12
55.406,45.65
55.421,99.63
55.437,150.17
55.453,192.69
55.468,223.8
55.484,242.08
55.500,247.99
55.515,243.44
55.531,230.85
55.546,212.91
55.562,191.97
55.578,169.99
55.593,148.51
55.609,128.41
55.625,109.75
55.640,91.84
55.656,73.55
55.671,53.78
55.687,31.97
55.703,8.59
55.718,-15.07
55.734,-36.89
55.750,-54.57
55.765,-66.17
55.781,-70.68
55.796,-68.38
55.812,-60.71
55.828,-49.93
55.843,-38.42
55.859,-28.24
55.875,-20.71
55.890,-16.54
55.906,-15.99
55.921,-19.18
55.937,-26.19
55.953,-36.76
55.968,-50.01
55.984,-64.48
56.000,-78.38
56.015,-90.07
56.031,-98.66
56.046,-104.2
56.062,-107.58
56.078,-110.1
56.093,-113.04
56.109,-116.97
56.125,-121.46
56.140,-124.72
56.156,-124.17
56.171,-116.95
56.187,-101.08
56.203,-76.3
56.218,-44.42
56.234,-8.74
56.250,26.89
56.265,59.05
56.281,85.65
56.296,105.69
56.312,119.02
56.328,125.82
56.343,126.61
56.359,122.23
56.375,113.96
56.390,103.57
56.406,92.69
56.421,82.61
56.437,73.75
56.453,65.7
56.468,57.57
56.484,48.25
56.500,36.96
56.515,23.52
56.531,8.82
56.546,-5.36
56.562,-16.76
56.578,-23.36
56.593,-24.44
56.609,-20.91
56.625,-15.13
56.640,-10.18
56.656,-8.53
56.671,-11.35
56.687,-18.26
56.703,-27.9
56.718,-38.87
56.734,-50.2
56.750,-61.31
56.765,-71.69
56.781,-80.52
56.796,-86.58
56.812,-88.93
56.828,-87.39
56.843,-82.86
56.859,-77.13
56.875,-72.26
56.890,-69.78
56.906,-70.19
56.921,-72.72
56.937,-75.51
56.953,-76.17
56.968,-72.31
56.984,-62.17
57.000,-45.19
57.015,-22.24
57.031,4.59
57.046,32.69
57.062,59.3
57.078,82.18
57.093,99.68
57.109,110.68
57.125,114.86
57.140,112.74
57.156,105.67
57.171,95.63
57.187,84.9
57.203,75.51
57.218,68.58
57.234,64.4
57.250,62.57
57.265,62.28
57.281,62.74
57.296,63.44
57.312,64.24
57.328,65.51
57.343,68.4
57.359,74.39
57.375,84.89
57.390,100.51
57.406,120.58
57.421,142.93
57.437,164.7
57.453,183.06
57.468,195.97
57.484,202.56
57.500,202.79
57.515,196.84
57.531,184.56
57.546,165.91
57.562,140.91
57.578,110.47
57.593,76.34
57.609,40.54
57.625,4.79
57.640,-29.92
57.656,-63.4
57.671,-96.0
57.687,-127.82
57.703,-158.3
57.718,-185.85
57.734,-207.93
57.750,-221.51
57.765,-223.87
57.781,-213.46
57.796,-190.85
57.812,-158.84
57.828,-122.16
57.843,-86.37
57.859,-56.28
57.875,-35.08
57.890,-23.96
57.906,-22.31
57.921,-28.6
57.937,-40.83
57.953,-56.74
57.968,-73.95
57.984,-90.03
58.000,-102.73
58.015,-110.45
58.031,-112.9
58.046,-110.82
58.062,-106.25
58.078,-101.69
58.093,-99.42
58.109,-101.01
58.125,-106.7
58.140,-115.2
58.156,-123.82
58.171,-129.32
58.187,-128.63
58.203,-120.18
58.218,-104.21
58.234,-82.67
58.250,-58.36
58.265,-34.0
58.281,-11.35
58.296,8.93
58.312,27.03
58.328,43.76
58.343,60.0
58.359,76.58
58.375,93.91
58.390,111.73
58.406,128.81
58.421,143.1
58.437,152.05
58.453,153.25
58.468,145.28
58.484,127.94
58.500,102.36
58.515,70.62
58.531,35.66
58.546,1.3
58.562,-28.21
58.578,-48.83
58.593,-57.87
58.609,-54.96
58.625,-42.24
58.640,-23.58
58.656,-3.12
58.671,15.82
58.687,31.57
58.703,43.81
58.718,52.91
58.734,59.12
58.750,62.31
58.765,62.3
58.781,59.08
58.796,53.22
58.812,45.45
58.828,36.37
58.843,26.34
58.859,15.52
58.875,3.92
58.890,-8.4
58.906,-21.56
58.921,-35.9
58.937,-51.61
58.953,-68.65
58.968,-86.27
58.984,-102.99
59.000,-116.81
59.015,-125.75
59.031,-128.3
59.046,-123.76
59.062,-112.27
59.078,-94.75
59.093,-72.74
59.109,-48.2
59.125,-23.25
59.140,0.22
59.156,21.06
59.171,39.07
59.187,54.75
59.203,69.0
59.218,82.44
59.234,95.18
59.250,106.85
59.265,116.99
59.281,125.15
59.296,131.03
59.312,134.4
59.328,135.09
59.343,133.41
59.359,130.47
59.375,128.39
59.390,129.82
59.406,137.01
59.421,150.72
59.437,170.03
59.453,192.25
59.468,213.77
59.484,230.79
59.500,239.84
59.515,237.9
59.531,222.62
59.546,192.79
59.562,148.85
59.578,93.57
59.593,31.66
59.609,-30.92
59.625,-88.31
59.640,-136.17
59.656,-172.21
59.671,-196.14
59.687,-209.31
59.703,-213.7
59.718,-211.41
59.734,-204.17
59.750,-193.0
59.765,-178.05
59.781,-158.91
59.796,-134.88
59.812,-105.81
59.828,-72.71
59.843,-37.83
59.859,-4.17
59.875,25.1
59.890,47.71
59.906,62.36
59.921,68.62
59.937,66.57
59.953,56.7
59.968,39.87
59.984,17.73
