timestamp,value
00.000,29.92
00.015,63.27
00.031,93.69
00.046,117.48
00.062,130.21
00.078,127.27
00.093,105.15
00.109,63.48
00.125,5.69
00.140,-61.85
00.156,-131.86
00.171,-198.54
00.187,-259.18
00.203,-313.57
00.218,-362.19
00.234,-404.53
00.250,-438.14
00.265,-459.01
00.281,-463.5
00.296,-449.17
00.312,-415.78
00.328,-365.15
00.343,-300.57
00.359,-226.07
00.375,-146.47
00.390,-67.21
00.406,6.52
00.421,69.79
00.437,119.43
00.453,154.34
00.468,175.76
00.484,186.23
00.500,188.76
00.515,186.06
00.531,180.22
00.546,172.58
00.562,163.71
00.578,154.12
00.593,143.89
00.609,133.76
00.625,124.65
00.640,117.87
00.656,114.46
00.671,114.83
00.687,118.93
00.703,125.63
00.718,133.68
00.734,141.53
00.750,148.17
00.765,153.02
00.781,156.34
00.796,158.87
00.812,161.35
00.828,164.11
00.843,165.89
00.859,164.59
00.875,157.59
00.890,143.12
00.906,121.4
00.921,94.55
00.937,65.59
00.953,36.8
00.968,9.29
00.984,-17.4
01.000,-43.5
01.015,-68.3
01.031,-89.72
01.046,-105.52
01.062,-114.88
01.078,-119.2
01.093,-122.14
01.109,-127.58
01.125,-137.84
01.140,-152.3
01.156,-167.54
01.171,-178.98
01.187,-182.66
01.203,-176.62
01.218,-161.51
01.234,-140.1
01.250,-115.66
01.265,-91.33
01.281,-69.18
01.296,-49.97
01.312,-33.78
01.328,-20.3
01.343,-8.89
01.359,1.5
01.375,12.17
01.390,24.93
01.406,41.19
01.421,61.47
01.437,85.05
01.453,109.89
01.468,133.22
01.484,152.18
01.500,164.75
01.515,169.59
01.531,166.54
01.546,156.24
01.562,139.89
01.578,119.26
01.593,96.43
01.609,73.37
01.625,51.69
01.640,32.26
01.656,14.52
01.671,-2.95
01.687,-21.83
01.703,-43.06
01.718,-65.93
01.734,-88.13
01.750,-106.2
01.765,-117.45
01.781,-120.69
01.796,-117.19
01.812,-109.46
01.828,-100.2
01.843,-91.15
01.859,-82.43
01.875,-73.35
01.890,-62.82
01.906,-50.48
01.921,-36.52
01.937,-21.68
01.953,-6.96
01.968,6.19
01.984,15.19
02.000,16.81
02.015,8.47
02.031,-10.33
02.046,-36.53
02.062,-63.79
02.078,-84.29
02.093,-91.35
02.109,-81.43
02.125,-54.99
02.140,-15.59
02.156,31.88
02.171,81.99
02.187,129.72
02.203,170.18
02.218,198.44
02.234,210.13
02.250,202.89
02.265,177.21
02.281,137.01
02.296,89.18
02.312,41.72
02.328,2.24
02.343,-24.0
02.359,-35.16
02.375,-32.91
02.390,-21.06
02.406,-4.25
02.421,13.32
02.437,29.11
02.453,41.54
02.468,50.34
02.484,55.89
02.500,58.17
02.515,56.85
02.531,50.93
02.546,39.38
02.562,21.47
02.578,-2.04
02.593,-29.31
02.609,-57.43
02.625,-83.44
02.640,-105.46
02.656,-122.64
02.671,-135.57
02.687,-145.33
02.703,-152.81
02.718,-158.37
02.734,-162.08
02.750,-163.55
02.765,-162.45
02.781,-158.57
02.796,-151.2
02.812,-139.59
02.828,-122.41
02.843,-98.18
02.859,-66.05
02.875,-26.72
02.890,17.54
02.906,62.84
02.921,104.66
02.937,139.57
02.953,165.27
02.968,181.42
02.984,189.29
03.000,190.56
03.015,186.65
03.031,178.26
03.046,165.03
03.062,146.39
03.078,122.55
03.093,94.38
03.109,63.89
03.125,33.15
03.140,3.53
03.156,-24.39
03.171,-50.57
03.187,-74.78
03.203,-95.96
03.218,-111.67
03.234,-119.54
03.250,-117.86
03.265,-106.88
03.281,-89.16
03.296,-68.36
03.312,-48.44
03.328,-32.34
03.343,-21.41
03.359,-15.38
03.375,-13.29
03.390,-13.96
03.406,-16.46
03.421,-20.49
03.437,-25.49
03.453,-30.9
03.468,-36.02
03.484,-40.11
03.500,-42.59
03.515,-43.56
03.531,-43.27
03.546,-41.8
03.562,-38.85
03.578,-33.13
03.593,-22.96
03.609,-6.94
03.625,15.02
03.640,41.38
03.656,69.04
03.671,94.08
03.687,113.32
03.703,125.02
03.718,129.17
03.734,127.11
03.750,120.67
03.765,111.36
03.781,99.98
03.796,86.78
03.812,71.69
03.828,54.95
03.843,37.09
03.859,19.04
03.875,2.05
03.890,-12.76
03.906,-24.64
03.921,-33.33
03.937,-38.91
03.953,-41.39
03.968,-40.65
03.984,-36.6
04.000,-29.49
04.015,-20.13
04.031,-10.17
04.046,-1.5
04.062,4.14
04.078,5.79
04.093,3.65
04.109,-1.16
04.125,-7.1
04.140,-13.08
04.156,-18.44
04.171,-23.64
04.187,-29.49
04.203,-36.8
04.218,-45.9
04.234,-56.62
04.250,-68.16
04.265,-79.5
04.281,-89.8
04.296,-98.05
04.312,-103.47
04.328,-105.11
04.343,-102.28
04.359,-94.58
04.375,-82.59
04.390,-67.21
04.406,-50.01
04.421,-32.47
04.437,-15.74
04.453,-0.67
04.468,12.58
04.484,23.83
04.500,33.39
04.515,41.77
04.531,50.0
04.546,59.29
04.562,70.86
04.578,85.46
04.593,102.81
04.609,121.83
04.625,140.51
04.640,156.78
04.656,169.04
04.671,176.37
04.687,178.82
04.703,177.08
04.718,172.13
04.734,164.7
04.750,155.27
04.765,143.79
04.781,129.89
04.796,113.31
04.812,93.71
04.828,70.94
04.843,45.25
04.859,17.36
04.875,-11.52
04.890,-39.88
04.906,-66.21
04.921,-89.47
04.937,-108.95
04.953,-124.15
04.968,-134.83
04.984,-140.74
05.000,-141.9
05.015,-138.68
05.031,-132.26
05.046,-124.22
05.062,-115.99
05.078,-108.51
05.093,-101.77
05.109,-95.29
05.125,-88.46
05.140,-80.88
05.156,-72.48
05.171,-64.14
05.187,-57.28
05.203,-53.78
05.218,-55.16
05.234,-61.9
05.250,-73.12
05.265,-86.57
05.281,-99.35
05.296,-108.8
05.312,-113.33
05.328,-112.69
05.343,-107.66
05.359,-99.46
05.375,-88.89
05.390,-76.31
05.406,-61.46
05.421,-43.87
05.437,-23.63
05.453,-0.72
05.468,24.12
05.484,49.93
05.500,75.45
05.515,99.9
05.531,122.65
05.546,143.3
05.562,161.68
05.578,176.93
05.593,187.99
05.609,193.14
05.625,190.54
05.640,179.16
05.656,159.71
05.671,134.7
05.687,107.93
05.703,83.38
05.718,63.46
05.734,48.84
05.750,38.52
05.765,30.92
05.781,25.13
05.796,21.2
05.812,19.79
05.828,21.77
05.843,28.32
05.859,40.85
05.875,60.63
05.890,87.37
05.906,118.18
05.921,147.3
05.937,167.23
05.953,171.69
05.968,158.28
05.984,129.5
06.000,91.57
06.015,51.64
06.031,14.08
06.046,-20.53
06.062,-54.9
06.078,-92.86
06.093,-136.7
06.109,-185.49
06.125,-235.19
06.140,-279.78
06.156,-312.78
06.171,-329.53
06.187,-328.45
06.203,-311.24
06.218,-282.45
06.234,-247.7
06.250,-211.9
06.265,-178.49
06.281,-149.05
06.296,-123.94
06.312,-102.89
06.328,-85.37
06.343,-70.44
06.359,-56.6
06.375,-41.63
06.390,-23.61
06.406,-1.63
06.421,23.61
06.437,49.95
06.453,74.23
06.468,93.5
06.484,105.87
06.500,110.87
06.515,110.03
06.531,106.0
06.546,101.57
06.562,98.75
06.578,98.28
06.593,99.51
06.609,100.73
06.625,100.3
06.640,97.09
06.656,91.06
06.671,82.8
06.687,72.84
06.703,61.28
06.718,47.49
06.734,30.63
06.750,9.94
06.765,-14.45
06.781,-41.49
06.796,-69.24
06.812,-95.25
06.828,-117.57
06.843,-134.75
06.859,-146.35
06.875,-152.46
06.890,-153.58
06.906,-149.94
06.921,-141.5
06.937,-128.23
06.953,-110.38
06.968,-88.97
06.984,-65.6
07.000,-41.99
07.015,-19.43
07.031,1.6
07.046,21.24
07.062,39.72
07.078,56.76
07.093,71.49
07.109,82.79
07.125,89.73
07.140,92.43
07.156,91.87
07.171,89.58
07.187,86.84
07.203,84.47
07.218,82.7
07.234,82.26
07.250,84.63
07.265,91.98
07.281,106.16
07.296,127.32
07.312,153.06
07.328,178.53
07.343,198.15
07.359,207.14
07.375,203.22
07.390,186.82
07.406,160.13
07.421,126.25
07.437,88.09
07.453,48.31
07.468,9.63
07.484,-25.24
07.500,-53.64
07.515,-73.81
07.531,-85.0
07.546,-88.21
07.562,-85.39
07.578,-79.34
07.593,-72.88
07.609,-68.1
07.625,-66.2
07.640,-67.06
07.656,-69.96
07.671,-73.5
07.687,-76.54
07.703,-77.97
07.718,-77.38
07.734,-74.97
07.750,-71.53
07.765,-68.06
07.781,-65.35
07.796,-63.94
07.812,-63.9
07.828,-65.1
07.843,-67.14
07.859,-69.35
07.875,-71.14
07.890,-71.97
07.906,-71.71
07.921,-70.42
07.937,-68.68
07.953,-67.17
07.968,-66.26
07.984,-65.96
08.000,-65.17
08.015,-62.61
08.031,-56.73
08.046,-46.68
08.062,-32.21
08.078,-13.79
08.093,7.84
08.109,31.83
08.125,56.88
08.140,81.86
08.156,104.97
08.171,124.36
08.187,138.45
08.203,146.5
08.218,149.24
08.234,148.5
08.250,146.57
08.265,145.09
08.281,144.7
08.296,144.58
08.312,143.22
08.328,139.18
08.343,131.43
08.359,120.14
08.375,106.3
08.390,91.48
08.406,77.12
08.421,64.43
08.437,53.78
08.453,44.85
08.468,36.79
08.484,27.96
08.500,17.0
08.515,2.92
08.531,-14.32
08.546,-33.79
08.562,-53.27
08.578,-70.74
08.593,-84.28
08.609,-92.81
08.625,-96.81
08.640,-97.51
08.656,-96.91
08.671,-97.08
08.687,-99.85
08.703,-105.68
08.718,-113.59
08.734,-120.69
08.750,-122.87
08.765,-116.91
08.781,-101.86
08.796,-80.96
08.812,-60.45
08.828,-47.23
08.843,-45.7
08.859,-55.74
08.875,-72.78
08.890,-90.19
08.906,-102.53
08.921,-107.06
08.937,-104.37
08.953,-96.65
08.968,-85.73
08.984,-72.06
09.000,-55.23
09.015,-34.99
09.031,-12.23
09.046,10.47
09.062,30.65
09.078,46.73
09.093,58.94
09.109,69.4
09.125,80.95
09.140,95.67
09.156,113.58
09.171,132.57
09.187,148.51
09.203,157.43
09.218,156.71
09.234,145.93
09.250,127.1
09.265,103.13
09.281,77.13
09.296,51.05
09.312,25.74
09.328,1.16
09.343,-22.44
09.359,-44.4
09.375,-63.49
09.390,-78.21
09.406,-87.93
09.421,-92.94
09.437,-94.4
09.453,-93.42
09.468,-90.78
09.484,-86.0
09.500,-78.39
09.515,-67.68
09.531,-54.5
09.546,-40.86
09.562,-29.35
09.578,-22.27
09.593,-20.76
09.609,-24.64
09.625,-32.53
09.640,-42.63
09.656,-53.26
09.671,-63.25
09.687,-71.89
09.703,-78.65
09.718,-82.73
09.734,-83.21
09.750,-79.4
09.765,-71.01
09.781,-58.53
09.796,-42.8
09.812,-24.65
09.828,-4.33
09.843,18.54
09.859,44.81
09.875,75.02
09.890,108.58
09.906,143.78
09.921,177.85
09.937,207.98
09.953,232.01
09.968,248.55
09.984,256.81
10.000,256.22
10.015,245.93
10.031,225.1
10.046,193.55
10.062,152.22
10.078,103.7
10.093,51.88
10.109,1.25
10.125,-44.12
10.140,-81.34
10.156,-109.04
10.171,-127.34
10.187,-136.96
10.203,-139.0
10.218,-134.4
10.234,-123.88
10.250,-108.42
10.265,-89.48
10.281,-69.3
10.296,-50.35
10.312,-35.03
10.328,-24.79
10.343,-19.98
10.359,-20.13
10.375,-24.35
10.390,-32.03
10.406,-42.69
10.421,-55.81
10.437,-70.39
10.453,-84.83
10.468,-96.96
10.484,-104.83
10.500,-107.38
10.515,-104.69
10.531,-98.2
10.546,-89.55
10.562,-79.9
10.578,-69.21
10.593,-56.35
10.609,-39.4
10.625,-17.1
10.640,10.34
10.656,41.57
10.671,73.91
10.687,104.87
10.703,132.84
10.718,157.26
10.734,178.06
10.750,195.2
10.765,207.95
10.781,214.78
10.796,214.48
10.812,206.75
10.828,192.86
10.843,175.36
10.859,157.23
10.875,140.41
10.890,125.04
10.906,109.72
10.921,92.82
10.937,73.72
10.953,53.65
10.968,35.16
10.984,20.86
11.000,11.95
11.015,7.86
11.031,6.36
11.046,4.72
11.062,1.13
11.078,-5.03
11.093,-13.74
11.109,-24.7
11.125,-37.71
11.140,-52.64
11.156,-68.42
11.171,-83.0
11.187,-94.34
11.203,-101.45
11.218,-105.49
11.234,-110.35
11.250,-120.85
11.265,-140.74
11.281,-170.76
11.296,-207.74
11.312,-245.44
11.328,-276.95
11.343,-296.59
11.359,-301.33
11.375,-291.14
11.390,-268.07
11.406,-235.37
11.421,-196.64
11.437,-155.19
11.453,-113.8
11.468,-74.53
11.484,-38.4
11.500,-5.9
11.515,23.4
11.531,50.38
11.546,76.1
11.562,101.29
11.578,126.23
11.593,150.55
11.609,172.95
11.625,191.8
11.640,205.12
11.656,211.15
11.671,209.11
11.687,199.44
11.703,183.69
11.718,164.23
11.734,143.61
11.750,123.87
11.765,106.37
11.781,91.73
11.796,79.74
11.812,69.98
11.828,61.68
11.843,53.99
11.859,46.13
11.875,37.33
11.890,27.19
11.906,16.04
11.921,4.78
11.937,-5.6
11.953,-13.88
11.968,-19.35
11.984,-21.64
12.000,-21.09
12.015,-18.74
12.031,-15.84
12.046,-13.41
12.062,-11.43
12.078,-9.23
12.093,-5.21
12.109,2.09
12.125,13.16
12.140,26.5
12.156,38.64
12.171,45.18
12.187,42.28
12.203,28.78
12.218,6.53
12.234,-19.67
12.250,-44.13
12.265,-61.97
12.281,-70.71
12.296,-70.69
12.312,-64.11
12.328,-54.19
12.343,-43.78
12.359,-34.95
12.375,-28.87
12.390,-26.12
12.406,-26.63
12.421,-29.29
12.437,-32.2
12.453,-33.03
12.468,-29.54
12.484,-20.49
12.500,-6.15
12.515,11.53
12.531,29.49
12.546,44.29
12.562,53.82
12.578,57.64
12.593,57.04
12.609,54.29
12.625,51.87
12.640,51.2
12.656,52.46
12.671,54.69
12.687,56.27
12.703,55.83
12.718,52.6
12.734,46.59
12.750,38.37
12.765,29.68
12.781,22.97
12.796,21.04
12.812,26.37
12.828,39.96
12.843,60.32
12.859,83.72
12.875,105.14
12.890,119.77
12.906,124.84
12.921,120.35
12.937,108.46
12.953,92.29
12.968,74.51
12.984,56.54
13.000,38.49
13.015,20.12
13.031,1.3
13.046,-17.64
13.062,-35.86
13.078,-52.86
13.093,-68.46
13.109,-83.34
13.125,-98.44
13.140,-115.03
13.156,-134.31
13.171,-157.48
13.187,-185.48
13.203,-218.02
13.218,-252.92
13.234,-285.4
13.250,-309.43
13.265,-319.18
13.281,-311.29
13.296,-286.22
13.312,-247.99
13.328,-202.64
13.343,-155.86
13.359,-111.66
13.375,-71.64
13.390,-36.07
13.406,-5.03
13.421,21.16
13.437,41.85
13.453,56.54
13.468,65.42
13.484,69.64
13.500,70.56
13.515,69.83
13.531,68.68
13.546,67.7
13.562,66.94
13.578,66.22
13.593,65.21
13.609,63.68
13.625,61.78
13.640,59.72
13.656,57.61
13.671,55.39
13.687,52.61
13.703,48.22
13.718,41.46
13.734,32.04
13.750,20.52
13.765,8.2
13.781,-3.46
13.796,-13.37
13.812,-21.19
13.828,-27.07
13.843,-31.5
13.859,-34.35
13.875,-34.96
13.890,-32.38
13.906,-26.07
13.921,-16.55
13.937,-5.08
13.953,6.76
13.968,17.72
13.984,27.32
14.000,35.8
14.015,43.38
14.031,49.96
14.046,54.98
14.062,57.5
14.078,57.18
14.093,54.45
14.109,50.43
14.125,46.24
14.140,42.91
14.156,40.66
14.171,39.23
14.187,38.7
14.203,39.23
14.218,41.18
14.234,45.03
14.250,51.23
14.265,59.77
14.281,70.69
14.296,83.97
14.312,99.06
14.328,115.16
14.343,130.96
14.359,144.94
14.375,156.0
14.390,163.5
14.406,166.9
14.421,165.75
14.437,159.47
14.453,147.43
14.468,129.69
14.484,107.13
14.500,81.66
14.515,55.55
14.531,30.67
14.546,7.95
14.562,-12.78
14.578,-32.04
14.593,-50.16
14.609,-66.5
14.625,-80.0
14.640,-89.27
14.656,-93.74
14.671,-93.98
14.687,-91.83
14.703,-89.48
14.718,-88.76
14.734,-90.63
14.750,-94.75
14.765,-100.44
14.781,-107.04
14.796,-114.5
14.812,-122.98
14.828,-133.15
14.843,-145.9
14.859,-162.31
14.875,-183.48
14.890,-209.68
14.906,-239.69
14.921,-270.23
14.937,-296.08
14.953,-311.4
14.968,-311.61
14.984,-295.19
15.000,-263.78
15.015,-221.25
15.031,-171.87
15.046,-118.79
15.062,-63.87
15.078,-8.38
15.093,45.79
15.109,95.87
15.125,138.36
15.140,170.44
15.156,191.13
15.171,201.56
15.187,204.12
15.203,201.35
15.218,195.22
15.234,186.53
15.250,175.45
15.265,162.01
15.281,146.63
15.296,130.04
15.312,113.27
15.328,97.55
15.343,83.54
15.359,71.45
15.375,61.1
15.390,52.23
15.406,44.84
15.421,39.19
15.437,35.76
15.453,34.64
15.468,35.56
15.484,37.46
15.500,38.59
15.515,36.85
15.531,30.27
15.546,17.88
15.562,-0.09
15.578,-21.88
15.593,-44.72
15.609,-65.47
15.625,-81.71
15.640,-92.25
15.656,-97.47
15.671,-98.86
15.687,-98.03
15.703,-96.56
15.718,-95.08
15.734,-93.49
15.750,-90.72
15.765,-85.43
15.781,-75.93
15.796,-60.8
15.812,-39.51
15.828,-12.39
15.843,18.85
15.859,51.77
15.875,83.3
15.890,110.72
15.906,132.1
15.921,146.56
15.937,154.14
15.953,155.31
15.968,150.73
15.984,140.76
16.000,125.99
16.015,107.17
16.031,85.08
16.046,60.81
16.062,35.37
16.078,9.68
16.093,-15.5
16.109,-38.8
16.125,-58.44
16.140,-72.03
16.156,-77.19
16.171,-72.53
16.187,-58.31
16.203,-36.67
16.218,-11.14
16.234,13.94
16.250,34.86
16.265,48.97
16.281,55.16
16.296,53.54
16.312,45.16
16.328,31.55
16.343,14.5
16.359,-4.31
16.375,-23.58
16.390,-42.75
16.406,-62.12
16.421,-82.87
16.437,-106.39
16.453,-133.78
16.468,-164.91
16.484,-198.16
16.500,-230.37
16.515,-257.27
16.531,-274.78
16.546,-280.03
16.562,-272.28
16.578,-252.58
16.593,-223.32
16.609,-187.33
16.625,-146.8
16.640,-103.22
16.656,-57.34
16.671,-9.85
16.687,38.13
16.703,84.74
16.718,127.95
16.734,165.93
16.750,197.15
16.765,220.69
16.781,236.3
16.796,244.15
16.812,244.74
16.828,238.74
16.843,227.05
16.859,211.14
16.875,193.03
16.890,174.92
16.906,158.94
16.921,146.32
16.937,137.45
16.953,131.89
16.968,128.81
16.984,127.1
17.000,125.72
17.015,123.64
17.031,119.82
17.046,113.53
17.062,104.46
17.078,93.26
17.093,81.24
17.109,70.02
17.125,60.42
17.140,52.09
17.156,43.7
17.171,33.82
17.187,21.68
17.203,7.12
17.218,-9.31
17.234,-27.05
17.250,-45.61
17.265,-64.55
17.281,-83.22
17.296,-100.92
17.312,-117.47
17.328,-133.84
17.343,-152.27
17.359,-174.8
17.375,-201.51
17.390,-229.13
17.406,-251.81
17.421,-263.12
17.437,-259.19
17.453,-240.41
17.468,-211.17
17.484,-177.73
17.500,-145.52
17.515,-117.34
17.531,-93.16
17.546,-71.86
17.562,-52.49
17.578,-34.82
17.593,-19.1
17.609,-5.12
17.625,8.35
17.640,23.18
17.656,40.44
17.671,60.18
17.687,80.91
17.703,99.82
17.718,114.25
17.734,122.26
17.750,123.21
17.765,117.57
17.781,106.74
17.796,92.07
17.812,75.06
17.828,57.05
17.843,39.05
17.859,22.08
17.875,6.76
17.890,-6.27
17.906,-16.78
17.921,-24.62
17.937,-29.78
17.953,-31.89
17.968,-30.5
17.984,-25.03
18.000,-15.06
18.015,-0.85
18.031,16.74
18.046,36.18
18.062,55.07
18.078,70.82
18.093,81.1
18.109,84.04
18.125,78.65
18.140,65.0
18.156,43.82
18.171,16.45
18.187,-15.06
18.203,-48.46
18.218,-81.18
18.234,-110.69
18.250,-135.29
18.265,-154.6
18.281,-169.13
18.296,-179.9
18.312,-187.34
18.328,-190.35
18.343,-186.41
18.359,-172.26
18.375,-145.29
18.390,-104.77
18.406,-52.74
18.421,6.25
18.437,65.64
18.453,118.49
18.468,158.45
18.484,181.0
18.500,184.58
18.515,170.72
18.531,143.77
18.546,109.96
18.562,75.58
18.578,45.47
18.593,22.47
18.609,7.07
18.625,-1.59
18.640,-4.96
18.656,-4.45
18.671,-1.1
18.687,4.88
18.703,13.52
18.718,25.05
18.734,39.8
18.750,57.75
18.765,78.17
18.781,99.78
18.796,120.71
18.812,138.95
18.828,152.69
18.843,160.41
18.859,160.96
18.875,153.8
18.890,139.52
18.906,119.66
18.921,96.65
18.937,72.88
18.953,49.99
18.968,28.64
18.984,8.31
19.000,-12.06
19.015,-33.51
19.031,-56.71
19.046,-81.5
19.062,-106.8
19.078,-130.73
19.093,-151.04
19.109,-165.68
19.125,-173.53
19.140,-174.67
19.156,-170.26
19.171,-162.27
19.187,-152.53
19.203,-142.13
19.218,-131.36
19.234,-119.59
19.250,-106.09
19.265,-90.42
19.281,-72.68
19.296,-53.19
19.312,-32.44
19.328,-10.55
19.343,12.23
19.359,35.62
19.375,58.51
19.390,79.1
19.406,95.1
19.421,104.51
19.437,106.75
19.453,102.72
19.468,95.17
19.484,87.24
19.500,81.53
19.515,78.82
19.531,78.1
19.546,77.03
19.562,73.08
19.578,64.87
19.593,52.42
19.609,37.07
19.625,20.64
19.640,4.78
19.656,-9.56
19.671,-22.04
19.687,-32.46
19.703,-40.51
19.718,-45.95
19.734,-48.7
19.750,-49.34
19.765,-48.93
19.781,-48.84
19.796,-49.86
19.812,-51.98
19.828,-54.04
19.843,-54.39
19.859,-51.79
19.875,-46.0
19.890,-38.1
19.906,-29.89
19.921,-23.31
19.937,-19.41
19.953,-18.35
19.968,-19.43
19.984,-21.79
20.000,-24.76
20.015,-28.17
20.031,-31.72
20.046,-34.8
20.062,-36.55
20.078,-35.73
20.093,-31.37
20.109,-23.19
20.125,-11.96
20.140,1.19
20.156,15.22
20.171,30.08
20.187,46.8
20.203,66.92
20.218,91.43
20.234,119.87
20.250,149.86
20.265,177.64
20.281,199.34
20.296,211.97
20.312,214.37
20.328,206.74
20.343,190.65
20.359,167.91
20.375,140.49
20.390,110.17
20.406,78.37
20.421,46.52
20.437,15.76
20.453,-12.78
20.468,-38.43
20.484,-60.53
20.500,-78.4
20.515,-91.69
20.531,-99.88
20.546,-102.39
20.562,-98.8
20.578,-89.14
20.593,-74.09
20.609,-55.13
20.625,-34.72
20.640,-15.18
20.656,1.26
20.671,13.35
20.687,21.14
20.703,25.42
20.718,26.82
20.734,25.02
20.750,18.65
20.765,6.16
20.781,-12.86
20.796,-37.06
20.812,-62.76
20.828,-85.72
20.843,-102.57
20.859,-112.25
20.875,-116.02
20.890,-116.17
20.906,-114.49
20.921,-110.78
20.937,-103.57
20.953,-90.57
20.968,-70.67
20.984,-45.01
21.000,-16.47
21.015,11.06
21.031,34.21
21.046,51.04
21.062,61.8
21.078,67.89
21.093,71.34
21.109,73.97
21.125,76.74
21.140,79.97
21.156,83.74
21.171,88.02
21.187,92.66
21.203,97.31
21.218,101.21
21.234,103.16
21.250,101.88
21.265,96.85
21.281,88.4
21.296,77.71
21.312,66.36
21.328,55.88
21.343,47.13
21.359,40.28
21.375,34.93
21.390,30.33
21.406,25.73
21.421,20.67
21.437,14.99
21.453,8.64
21.468,1.74
21.484,-5.69
21.500,-13.74
21.515,-22.93
21.531,-33.75
21.546,-46.64
21.562,-61.31
21.578,-76.43
21.593,-89.87
21.609,-99.63
21.625,-104.5
21.640,-104.7
21.656,-101.88
21.671,-98.24
21.687,-95.57
21.703,-94.62
21.718,-94.89
21.734,-95.43
21.750,-95.99
21.765,-97.28
21.781,-100.94
21.796,-108.52
21.812,-120.64
21.828,-136.5
21.843,-153.99
21.859,-170.18
21.875,-182.29
21.890,-188.19
21.906,-186.69
21.921,-177.62
21.937,-161.23
21.953,-138.15
21.968,-109.38
21.984,-75.97
22.000,-38.76
22.015,1.42
22.031,43.98
22.046,88.29
22.062,133.32
22.078,177.53
22.093,218.94
22.109,255.18
22.125,283.9
22.140,303.17
22.156,311.69
22.171,308.86
22.187,295.01
22.203,271.53
22.218,240.52
22.234,204.68
22.250,166.48
22.265,127.65
22.281,89.02
22.296,50.54
22.312,12.12
22.328,-25.85
22.343,-61.71
22.359,-92.86
22.375,-116.07
22.390,-128.31
22.406,-128.34
22.421,-116.78
22.437,-96.15
22.453,-70.05
22.468,-42.4
22.484,-16.74
22.500,4.41
22.515,19.45
22.531,28.22
22.546,31.25
22.562,29.95
22.578,26.45
22.593,22.67
22.609,19.56
22.625,16.27
22.640,10.38
22.656,-0.82
22.671,-18.64
22.687,-42.44
22.703,-69.2
22.718,-94.97
22.734,-116.09
22.750,-130.08
22.765,-135.93
22.781,-133.46
22.796,-122.95
22.812,-104.71
22.828,-80.03
22.843,-51.0
22.859,-20.52
22.875,8.1
22.890,33.06
22.906,53.83
22.921,70.88
22.937,85.11
22.953,97.31
22.968,107.58
22.984,115.32
23.000,119.9
23.015,120.07
23.031,115.53
23.046,106.29
23.062,92.43
23.078,74.04
23.093,51.31
23.109,24.86
23.125,-3.84
23.140,-32.17
23.156,-57.6
23.171,-77.57
23.187,-90.69
23.203,-96.64
23.218,-95.76
23.234,-88.59
23.250,-75.69
23.265,-57.9
23.281,-36.76
23.296,-15.02
23.312,4.31
23.328,18.53
23.343,26.3
23.359,28.3
23.375,26.28
23.390,22.08
23.406,16.85
23.421,10.6
23.437,2.37
23.453,-8.59
23.468,-22.35
23.484,-38.14
23.500,-53.78
23.515,-66.49
23.531,-73.49
23.546,-72.96
23.562,-64.93
23.578,-51.9
23.593,-37.75
23.609,-26.78
23.625,-22.29
23.640,-25.04
23.656,-33.61
23.671,-45.46
23.687,-57.95
23.703,-69.38
23.718,-78.68
23.734,-84.64
23.750,-85.74
23.765,-80.29
23.781,-67.33
23.796,-47.19
23.812,-21.84
23.828,6.26
23.843,34.85
23.859,62.52
23.875,89.22
23.890,115.06
23.906,139.93
23.921,162.66
23.937,181.21
23.953,193.06
23.968,196.43
23.984,190.73
24.000,176.43
24.015,155.31
24.031,129.47
24.046,101.2
24.062,72.46
24.078,44.62
24.093,18.6
24.109,-5.02
24.125,-25.93
24.140,-44.29
24.156,-60.38
24.171,-74.53
24.187,-86.79
24.203,-96.54
24.218,-102.57
24.234,-103.19
24.250,-97.09
24.265,-83.76
24.281,-64.28
24.296,-41.13
24.312,-17.63
24.328,3.14
24.343,19.24
24.359,29.82
24.375,35.56
24.390,37.11
24.406,35.18
24.421,30.04
24.437,21.9
24.453,11.19
24.468,-1.25
24.484,-14.32
24.500,-27.42
24.515,-40.12
24.531,-52.73
24.546,-65.58
24.562,-78.49
24.578,-90.22
24.593,-98.68
24.609,-101.32
24.625,-96.07
24.640,-82.4
24.656,-61.53
24.671,-36.3
24.687,-10.31
24.703,13.17
24.718,32.12
24.734,45.89
24.750,54.92
24.765,60.17
24.781,62.49
24.796,62.5
24.812,60.33
24.828,55.99
24.843,49.52
24.859,41.08
24.875,30.87
24.890,19.23
24.906,6.32
24.921,-7.67
24.937,-22.0
24.953,-35.54
24.968,-46.48
24.984,-52.94
25.000,-53.57
25.015,-48.3
25.031,-38.3
25.046,-25.62
25.062,-12.73
25.078,-1.27
25.093,7.98
25.109,15.05
25.125,20.04
25.140,22.79
25.156,22.57
25.171,18.37
25.187,9.73
25.203,-3.4
25.218,-20.03
25.234,-38.94
25.250,-58.52
25.265,-77.72
25.281,-95.76
25.296,-111.94
25.312,-125.46
25.328,-135.05
25.343,-139.48
25.359,-137.65
25.375,-129.46
25.390,-115.43
25.406,-96.83
25.421,-75.28
25.437,-52.07
25.453,-28.06
25.468,-3.57
25.484,20.86
25.500,44.52
25.515,65.99
25.531,83.82
25.546,97.05
25.562,105.5
25.578,109.98
25.593,111.76
25.609,112.54
25.625,113.25
25.640,114.31
25.656,115.62
25.671,117.04
25.687,118.59
25.703,120.98
25.718,125.13
25.734,131.16
25.750,138.55
25.765,145.72
25.781,150.48
25.796,150.59
25.812,144.71
25.828,132.3
25.843,114.14
25.859,91.98
25.875,67.94
25.890,44.06
25.906,22.24
25.921,3.76
25.937,-10.92
25.953,-22.02
25.968,-30.28
25.984,-36.89
26.000,-42.98
26.015,-49.62
26.031,-57.42
26.046,-66.14
26.062,-74.79
26.078,-81.79
26.093,-85.59
26.109,-85.12
26.125,-80.38
26.140,-72.15
26.156,-62.23
26.171,-52.61
26.187,-45.23
26.203,-41.44
26.218,-41.68
26.234,-45.57
26.250,-52.19
26.265,-60.6
26.281,-69.71
26.296,-79.17
26.312,-88.78
26.328,-98.54
26.343,-108.37
26.359,-117.74
26.375,-125.58
26.390,-130.59
26.406,-131.37
26.421,-126.42
26.437,-114.6
26.453,-95.13
26.468,-68.07
26.484,-34.49
26.500,3.45
26.515,42.87
26.531,80.21
26.546,112.26
26.562,136.43
26.578,151.27
26.593,156.74
26.609,153.9
26.625,144.47
26.640,130.63
26.656,114.71
26.671,98.72
26.687,84.44
26.703,73.22
26.718,65.56
26.734,60.95
26.750,58.1
26.765,55.07
26.781,50.28
26.796,42.89
26.812,33.48
26.828,23.59
26.843,15.31
26.859,10.65
26.875,10.8
26.890,15.62
26.906,23.75
26.921,32.93
26.937,40.62
26.953,44.93
26.968,44.89
26.984,40.68
27.000,32.86
27.015,22.15
27.031,8.87
27.046,-6.71
27.062,-24.26
27.078,-42.87
27.093,-61.28
27.109,-78.47
27.125,-93.66
27.140,-106.58
27.156,-117.3
27.171,-125.79
27.187,-132.19
27.203,-136.82
27.218,-140.45
27.234,-144.01
27.250,-148.25
27.265,-152.9
27.281,-156.53
27.296,-157.34
27.312,-153.61
27.328,-145.04
27.343,-132.63
27.359,-118.14
27.375,-102.56
27.390,-85.8
27.406,-66.59
27.421,-43.82
27.437,-17.75
27.453,9.83
27.468,36.1
27.484,58.79
27.500,77.09
27.515,92.33
27.531,106.61
27.546,121.59
27.562,137.27
27.578,151.81
27.593,162.67
27.609,167.53
27.625,165.55
27.640,157.49
27.656,145.23
27.671,130.86
27.687,115.65
27.703,99.94
27.718,83.27
27.734,65.21
27.750,45.96
27.765,26.5
27.781,8.29
27.796,-7.42
27.812,-19.87
27.828,-29.59
27.843,-37.44
27.859,-44.57
27.875,-51.43
27.890,-57.52
27.906,-61.77
27.921,-62.89
27.937,-60.21
27.953,-53.69
27.968,-44.2
27.984,-32.58
28.000,-19.73
28.015,-6.47
28.031,6.16
28.046,16.11
28.062,20.67
28.078,17.56
28.093,6.01
28.109,-12.24
28.125,-33.1
28.140,-51.97
28.156,-65.52
28.171,-72.79
28.187,-75.25
28.203,-75.38
28.218,-74.91
28.234,-74.08
28.250,-71.45
28.265,-64.72
28.281,-52.26
28.296,-34.03
28.312,-11.32
28.328,13.51
28.343,38.2
28.359,61.26
28.375,82.02
28.390,100.59
28.406,117.25
28.421,131.75
28.437,142.91
28.453,149.28
28.468,149.86
28.484,144.73
28.500,135.48
28.515,124.1
28.531,112.39
28.546,100.92
28.562,88.93
28.578,74.92
28.593,57.41
28.609,35.88
28.625,10.93
28.640,-15.66
28.656,-42.06
28.671,-66.45
28.687,-87.33
28.703,-103.2
28.718,-112.0
28.734,-111.94
28.750,-102.46
28.765,-85.07
28.781,-63.3
28.796,-41.79
28.812,-24.6
28.828,-13.83
28.843,-9.61
28.859,-10.63
28.875,-15.77
28.890,-25.11
28.906,-39.8
28.921,-61.16
28.937,-89.05
28.953,-121.05
28.968,-152.65
28.984,-178.73
29.000,-194.89
29.015,-199.12
29.031,-192.36
29.046,-177.93
29.062,-160.1
29.078,-142.42
29.093,-126.35
29.109,-111.1
29.125,-94.93
29.140,-76.3
29.156,-54.79
29.171,-31.18
29.187,-6.76
29.203,17.4
29.218,41.0
29.234,64.31
29.250,87.52
29.265,110.17
29.281,131.06
29.296,148.69
29.312,161.75
29.328,170.04
29.343,174.44
29.359,176.8
29.375,178.87
29.390,181.52
29.406,184.25
29.421,185.24
29.437,182.22
29.453,173.37
29.468,158.27
29.484,137.66
29.500,113.47
29.515,87.96
29.531,63.0
29.546,39.83
29.562,19.2
29.578,1.33
29.593,-13.87
29.609,-26.53
29.625,-36.88
29.640,-45.21
29.656,-52.0
29.671,-57.83
29.687,-63.13
29.703,-68.11
29.718,-72.1
29.734,-73.86
29.750,-71.97
29.765,-65.53
29.781,-54.53
29.796,-40.33
29.812,-25.41
29.828,-12.28
29.843,-3.05
29.859,1.47
29.875,1.58
29.890,-1.55
29.906,-6.56
29.921,-12.21
29.937,-17.53
29.953,-21.89
29.968,-24.78
29.984,-26.01
30.000,-25.67
30.015,-24.22
30.031,-22.55
30.046,-21.76
30.062,-22.7
30.078,-25.42
30.093,-28.77
30.109,-30.62
30.125,-28.55
30.140,-20.64
30.156,-6.36
30.171,13.11
30.187,35.61
30.203,58.54
30.218,79.65
30.234,97.51
30.250,111.56
30.265,121.4
30.281,126.94
30.296,128.28
30.312,125.64
30.328,119.41
30.343,110.04
30.359,97.84
30.375,82.69
30.390,64.59
30.406,43.63
30.421,20.36
30.437,-4.16
30.453,-28.28
30.468,-50.58
30.484,-69.78
30.500,-85.29
30.515,-97.21
30.531,-106.15
30.546,-112.77
30.562,-117.37
30.578,-119.86
30.593,-119.9
30.609,-117.57
30.625,-113.05
30.640,-107.04
30.656,-100.54
30.671,-94.9
30.687,-92.04
30.703,-93.57
30.718,-100.65
30.734,-113.27
30.750,-129.83
30.765,-146.91
30.781,-160.2
30.796,-165.79
30.812,-161.33
30.828,-147.1
30.843,-125.28
30.859,-98.86
30.875,-70.54
30.890,-42.2
30.906,-14.93
30.921,10.09
30.937,31.22
30.953,47.02
30.968,56.8
30.984,61.37
31.000,63.05
31.015,64.79
31.031,69.05
31.046,76.76
31.062,87.26
31.078,99.21
31.093,111.74
31.109,124.41
31.125,137.62
31.140,151.56
31.156,165.93
31.171,180.22
31.187,193.42
31.203,204.38
31.218,212.0
31.234,215.21
31.250,212.75
31.265,203.62
31.281,187.29
31.296,164.27
31.312,136.27
31.328,105.53
31.343,73.84
31.359,42.23
31.375,11.05
31.390,-19.13
31.406,-46.46
31.421,-68.14
31.437,-81.46
31.453,-85.2
31.468,-80.35
31.484,-70.01
31.500,-58.04
31.515,-47.85
31.531,-41.55
31.546,-39.77
31.562,-42.3
31.578,-48.56
31.593,-57.4
31.609,-66.9
31.625,-74.2
31.640,-76.42
31.656,-72.04
31.671,-62.21
31.687,-50.68
31.703,-42.67
31.718,-42.76
31.734,-53.07
31.750,-72.4
31.765,-96.93
31.781,-121.97
31.796,-143.65
31.812,-160.01
31.828,-170.56
31.843,-175.85
31.859,-176.59
31.875,-173.56
31.890,-167.9
31.906,-160.74
31.921,-152.84
31.937,-144.05
31.953,-133.12
31.968,-117.7
31.984,-95.09
32.000,-63.37
32.015,-22.44
32.031,25.23
32.046,75.05
32.062,121.45
32.078,159.42
32.093,185.92
32.109,200.36
32.125,204.57
32.140,201.62
32.156,194.59
32.171,185.47
32.187,175.04
32.203,163.11
32.218,149.03
32.234,132.08
32.250,111.79
32.265,88.21
32.281,62.21
32.296,35.3
32.312,9.51
32.328,-13.15
32.343,-31.41
32.359,-45.09
32.375,-54.72
32.390,-61.16
32.406,-65.03
32.421,-66.5
32.437,-65.7
32.453,-62.98
32.468,-58.97
32.484,-54.16
32.500,-48.68
32.515,-41.98
32.531,-33.8
32.546,-24.65
32.562,-16.43
32.578,-11.96
32.593,-13.88
32.609,-23.53
32.625,-40.49
32.640,-62.76
32.656,-87.56
32.671,-112.26
32.687,-134.85
32.703,-153.87
32.718,-168.16
32.734,-176.93
32.750,-179.72
32.765,-176.55
32.781,-167.8
32.796,-154.07
32.812,-135.99
32.828,-113.99
32.843,-88.2
32.859,-58.32
32.875,-23.87
32.890,15.14
32.906,57.89
32.921,102.45
32.937,145.93
32.953,185.06
32.968,217.14
32.984,240.37
33.000,254.17
33.015,259.15
33.031,256.78
33.046,248.88
33.062,237.29
33.078,223.29
33.093,207.13
33.109,187.99
33.125,164.35
33.140,134.8
33.156,98.84
33.171,57.83
33.187,14.76
33.203,-26.47
33.218,-62.12
33.234,-89.51
33.250,-107.5
33.265,-116.24
33.281,-116.55
33.296,-109.6
33.312,-96.83
33.328,-80.06
33.343,-61.64
33.359,-44.14
33.375,-29.8
33.390,-19.74
33.406,-13.72
33.421,-10.33
33.437,-7.58
33.453,-4.11
33.468,0.47
33.484,5.53
33.500,9.93
33.515,12.46
33.531,12.43
33.546,9.45
33.562,3.4
33.578,-5.39
33.593,-16.36
33.609,-28.22
33.625,-39.19
33.640,-47.11
33.656,-50.55
33.671,-49.19
33.687,-44.72
33.703,-40.51
33.718,-40.31
33.734,-46.69
33.750,-59.2
33.765,-74.14
33.781,-85.37
33.796,-87.07
33.812,-75.62
33.828,-51.63
33.843,-19.21
33.859,16.33
33.875,50.25
33.890,80.05
33.906,105.29
33.921,126.48
33.937,143.7
33.953,156.55
33.968,164.06
33.984,165.53
34.000,161.15
34.015,151.42
34.031,136.75
34.046,117.18
34.062,92.38
34.078,62.23
34.093,27.42
34.109,-9.97
34.125,-46.54
34.140,-78.26
34.156,-101.69
34.171,-114.92
34.187,-118.17
34.203,-113.66
34.218,-104.52
34.234,-93.79
34.250,-83.45
34.265,-74.09
34.281,-65.36
34.296,-56.67
34.312,-47.34
34.328,-36.66
34.343,-24.23
34.359,-9.98
34.375,5.36
34.390,19.75
34.406,29.85
34.421,31.92
34.437,23.27
34.453,4.02
34.468,-22.22
34.484,-49.78
34.500,-73.07
34.515,-88.64
34.531,-96.4
34.546,-98.9
34.562,-99.33
34.578,-99.69
34.593,-100.07
34.609,-98.84
34.625,-94.07
34.640,-84.88
34.656,-71.83
34.671,-56.11
34.687,-38.73
34.703,-19.46
34.718,2.87
34.734,29.09
34.750,58.8
34.765,89.93
34.781,119.65
34.796,144.87
34.812,163.67
34.828,174.93
34.843,178.61
34.859,175.0
34.875,164.24
34.890,146.72
34.906,123.47
34.921,96.8
34.937,69.91
34.953,46.37
34.968,28.8
34.984,18.42
35.000,14.88
35.015,16.63
35.031,21.48
35.046,27.25
35.062,32.19
35.078,35.13
35.093,35.54
35.109,33.36
35.125,28.99
35.140,23.18
35.156,16.62
35.171,9.83
35.187,2.76
35.203,-4.79
35.218,-12.94
35.234,-21.3
35.250,-28.81
35.265,-34.41
35.281,-37.04
35.296,-36.62
35.312,-33.57
35.328,-29.14
35.343,-24.73
35.359,-21.47
35.375,-20.0
35.390,-20.22
35.406,-21.83
35.421,-24.36
35.437,-27.54
35.453,-31.21
35.468,-35.38
35.484,-39.93
35.500,-44.42
35.515,-48.36
35.531,-51.38
35.546,-53.89
35.562,-56.99
35.578,-62.08
35.593,-69.94
35.609,-80.35
35.625,-91.67
35.640,-101.54
35.656,-107.78
35.671,-109.24
35.687,-106.33
35.703,-99.97
35.718,-91.1
35.734,-79.76
35.750,-65.34
35.765,-47.13
35.781,-25.37
35.796,-1.45
35.812,22.4
35.828,43.9
35.843,61.74
35.859,75.67
35.875,86.24
35.890,94.07
35.906,99.48
35.921,101.98
35.937,100.89
35.953,96.05
35.968,88.34
35.984,79.69
36.000,72.67
36.015,69.42
36.031,70.76
36.046,76.02
36.062,82.9
36.078,88.6
36.093,90.86
36.109,88.45
36.125,81.31
36.140,69.79
36.156,54.5
36.171,35.76
36.187,13.77
36.203,-11.1
36.218,-37.83
36.234,-64.9
36.250,-90.55
36.265,-113.18
36.281,-132.01
36.296,-147.01
36.312,-158.56
36.328,-166.92
36.343,-171.66
36.359,-171.41
36.375,-164.76
36.390,-150.99
36.406,-130.91
36.421,-106.9
36.437,-82.26
36.453,-60.19
36.468,-42.67
36.484,-30.13
36.500,-21.24
36.515,-13.8
36.531,-5.34
36.546,5.9
36.562,20.56
36.578,38.34
36.593,58.09
36.609,78.33
36.625,97.38
36.640,113.37
36.656,124.67
36.671,130.11
36.687,129.52
36.703,123.74
36.718,115.0
36.734,106.2
36.750,100.03
36.765,98.05
36.781,99.97
36.796,103.9
36.812,107.08
36.828,107.19
36.843,102.94
36.859,94.8
36.875,84.51
36.890,74.35
36.906,66.09
36.921,60.43
36.937,56.89
36.953,54.24
36.968,51.37
36.984,47.47
37.000,42.43
37.015,36.44
37.031,29.88
37.046,23.24
37.062,17.04
37.078,11.81
37.093,8.17
37.109,6.55
37.125,6.61
37.140,7.09
37.156,5.77
37.171,0.59
37.187,-9.53
37.203,-24.11
37.218,-41.65
37.234,-60.3
37.250,-79.09
37.265,-98.22
37.281,-118.78
37.296,-141.71
37.312,-166.69
37.328,-191.72
37.343,-213.62
37.359,-229.36
37.375,-237.05
37.390,-236.37
37.406,-228.13
37.421,-213.66
37.437,-193.87
37.453,-169.04
37.468,-139.11
37.484,-104.28
37.500,-65.6
37.515,-25.36
37.531,13.5
37.546,47.97
37.562,76.0
37.578,96.63
37.593,110.17
37.609,117.8
37.625,121.18
37.640,122.26
37.656,122.6
37.671,123.49
37.687,125.43
37.703,128.28
37.718,131.1
37.734,132.55
37.750,131.04
37.765,125.41
37.781,115.42
37.796,101.71
37.812,85.87
37.828,70.13
37.843,56.77
37.859,47.54
37.875,43.06
37.890,42.55
37.906,44.09
37.921,45.06
37.937,42.7
37.953,35.06
37.968,21.77
37.984,4.23
38.000,-14.45
38.015,-30.71
38.031,-41.92
38.046,-47.63
38.062,-49.67
38.078,-51.33
38.093,-55.55
38.109,-63.76
38.125,-75.59
38.140,-89.53
38.156,-104.18
38.171,-118.87
38.187,-133.61
38.203,-148.23
38.218,-162.13
38.234,-173.95
38.250,-182.23
38.265,-186.3
38.281,-186.35
38.296,-183.23
38.312,-177.81
38.328,-170.12
38.343,-159.22
38.359,-143.49
38.375,-121.42
38.390,-92.34
38.406,-57.1
38.421,-17.93
38.437,22.12
38.453,59.9
38.468,93.0
38.484,119.87
38.500,139.78
38.515,152.63
38.531,158.83
38.546,159.35
38.562,155.76
38.578,149.89
38.593,143.56
38.609,138.03
38.625,133.77
38.640,130.35
38.656,126.7
38.671,121.55
38.687,113.86
38.703,103.21
38.718,89.76
38.734,74.09
38.750,57.15
38.765,39.99
38.781,23.63
38.796,8.77
38.812,-4.24
38.828,-15.53
38.843,-25.52
38.859,-34.62
38.875,-43.19
38.890,-51.26
38.906,-58.46
38.921,-63.96
38.937,-66.68
38.953,-65.48
38.968,-59.72
38.984,-49.66
39.000,-36.31
39.015,-21.62
39.031,-7.71
39.046,3.67
39.062,11.43
39.078,15.43
39.093,16.36
39.109,15.08
39.125,12.49
39.140,9.6
39.156,7.07
39.171,5.32
39.187,4.55
39.203,4.53
39.218,4.52
39.234,3.72
39.250,1.21
39.265,-3.38
39.281,-9.13
39.296,-14.12
39.312,-15.62
39.328,-10.98
39.343,1.19
39.359,20.34
39.375,44.46
39.390,70.51
39.406,95.46
39.421,117.03
39.437,133.59
39.453,144.1
39.468,148.16
39.484,145.44
39.500,136.29
39.515,121.65
39.531,102.79
39.546,81.31
39.562,58.75
39.578,36.1
39.593,13.88
39.609,-7.77
39.625,-29.17
39.640,-50.46
39.656,-71.01
39.671,-89.57
39.687,-104.21
39.703,-112.71
39.718,-113.96
39.734,-107.98
39.750,-96.2
39.765,-80.8
39.781,-63.84
39.796,-46.52
39.812,-29.87
39.828,-14.97
39.843,-3.13
39.859,3.88
39.875,4.92
39.890,0.07
39.906,-9.39
39.921,-21.54
39.937,-34.37
39.953,-46.86
39.968,-58.8
39.984,-70.37
40.000,-81.53
40.015,-91.75
40.031,-99.66
40.046,-103.7
40.062,-102.35
40.078,-94.54
40.093,-79.94
40.109,-59.28
40.125,-34.18
40.140,-7.18
40.156,18.95
40.171,41.93
40.187,60.43
40.203,74.33
40.218,84.53
40.234,92.59
40.250,100.27
40.265,109.02
40.281,119.54
40.296,131.71
40.312,144.71
40.328,156.97
40.343,166.58
40.359,171.63
40.375,170.27
40.390,161.64
40.406,146.18
40.421,125.82
40.437,103.42
40.453,82.22
40.468,64.46
40.484,50.71
40.500,39.91
40.515,29.6
40.531,16.94
40.562,-21.58
40.578,-46.42
40.593,-71.77
40.609,-94.4
40.625,-111.53
40.640,-121.34
40.656,-123.54
40.671,-119.23
40.687,-110.42
40.703,-99.44
40.718,-88.39
40.734,-78.83
40.750,-71.63
40.765,-67.1
40.781,-64.63
40.796,-63.4
40.812,-61.91
40.828,-58.36
40.843,-51.12
40.859,-38.88
40.875,-21.46
40.890,0.1
40.906,23.28
40.921,45.13
40.937,62.36
40.953,72.88
40.968,76.12
40.984,72.71
41.000,64.12
41.015,51.71
41.031,36.17
41.046,17.72
41.062,-3.38
41.078,-26.34
41.093,-49.52
41.109,-70.88
41.125,-88.73
41.140,-101.74
41.156,-108.94
41.171,-109.23
41.187,-101.11
41.203,-83.36
41.218,-56.03
41.234,-21.45
41.250,15.77
41.265,49.54
41.281,74.93
41.296,89.44
41.312,93.73
41.328,91.05
41.343,85.29
41.359,79.38
41.375,74.06
41.390,68.53
41.406,61.23
41.421,51.88
41.437,41.13
41.453,30.61
41.468,21.96
41.484,15.51
41.500,10.41
41.515,5.04
41.531,-1.95
41.546,-10.92
41.562,-21.1
41.578,-31.58
41.593,-41.47
41.609,-49.53
41.625,-53.85
41.640,-51.73
41.656,-41.13
41.671,-22.18
41.687,1.74
41.703,24.53
41.718,39.57
41.734,42.34
41.750,32.5
41.765,13.06
41.781,-11.14
41.796,-36.37
41.812,-61.14
41.828,-86.11
41.843,-112.39
41.859,-139.96
41.875,-167.33
41.890,-192.09
41.906,-212.49
41.921,-227.44
41.937,-237.1
41.953,-241.76
41.968,-241.29
41.984,-234.54
42.000,-219.54
42.015,-194.14
42.031,-157.44
42.046,-110.82
42.062,-57.9
42.078,-3.75
42.093,46.76
42.109,90.4
42.125,125.92
42.140,153.99
42.156,175.83
42.171,192.23
42.187,203.05
42.203,207.32
42.218,204.2
42.234,193.33
42.250,175.81
42.265,153.76
42.281,130.24
42.296,108.16
42.312,89.91
42.328,76.62
42.343,67.88
42.359,62.52
42.375,58.79
42.390,55.41
42.406,51.52
42.421,46.94
42.437,41.55
42.453,35.29
42.468,27.93
42.484,19.38
42.500,10.12
42.515,0.9
42.531,-7.23
42.546,-13.67
42.562,-18.28
42.578,-21.78
42.593,-25.26
42.609,-29.76
42.625,-35.61
42.640,-42.13
42.656,-47.99
42.671,-51.15
42.687,-49.92
42.703,-43.44
42.718,-31.96
42.734,-17.0
42.750,-0.86
42.765,13.87
42.781,25.2
42.796,31.17
42.812,30.77
42.828,23.78
42.843,10.48
42.859,-7.87
42.875,-29.44
42.890,-51.67
42.906,-72.2
42.921,-88.77
42.937,-100.41
42.953,-106.82
42.968,-108.33
42.984,-105.77
43.000,-99.67
43.015,-90.44
43.031,-77.79
43.046,-61.53
43.062,-41.28
43.078,-17.47
43.093,8.82
43.109,35.56
43.125,60.11
43.140,80.2
43.156,93.8
43.171,100.29
43.187,99.84
43.203,93.67
43.218,83.43
43.234,71.05
43.250,58.32
43.265,46.3
43.281,36.02
43.296,27.63
43.312,20.86
43.328,15.12
43.343,9.6
43.359,3.66
43.375,-3.03
43.390,-10.12
43.406,-16.85
43.421,-21.73
43.437,-23.36
43.453,-20.86
43.468,-14.12
43.484,-4.02
43.500,7.71
43.515,18.95
43.531,27.56
43.546,31.3
43.562,28.62
43.578,18.42
43.593,0.43
43.609,-24.37
43.625,-53.99
43.640,-85.65
43.656,-116.67
43.671,-144.78
43.687,-168.82
43.703,-188.37
43.718,-203.54
43.734,-214.39
43.750,-220.15
43.765,-219.59
43.781,-210.86
43.796,-192.24
43.812,-162.96
43.828,-123.56
43.843,-76.01
43.859,-23.59
43.875,29.98
43.890,81.4
43.906,128.3
43.921,169.55
43.937,204.98
43.953,234.64
43.968,258.34
43.984,275.26
44.000,284.57
44.015,285.62
44.031,278.4
44.046,263.22
44.062,241.02
44.078,212.79
44.093,179.47
44.109,142.15
44.125,101.73
44.140,59.68
44.156,17.71
44.171,-22.19
44.187,-58.21
44.203,-88.09
44.218,-109.42
44.234,-119.82
44.250,-118.06
44.265,-105.09
44.281,-84.42
44.296,-61.21
44.312,-40.76
44.328,-27.05
44.343,-21.23
44.359,-22.17
44.375,-27.32
44.390,-34.51
44.406,-42.89
44.421,-52.69
44.437,-64.43
44.453,-78.08
44.468,-92.56
44.484,-106.66
44.500,-118.76
44.515,-127.17
44.531,-130.06
44.546,-126.06
44.562,-114.11
44.578,-94.04
44.593,-66.83
44.609,-34.04
44.625,1.58
44.640,36.9
44.656,68.72
44.671,94.34
44.687,111.75
44.703,120.01
44.718,119.2
44.734,110.84
44.750,97.56
44.765,82.55
44.781,68.83
44.796,58.57
44.812,52.83
44.828,51.34
44.843,53.02
44.859,56.33
44.875,60.22
44.890,64.51
44.906,69.97
44.921,77.87
44.937,89.43
44.953,104.77
44.968,122.63
44.984,140.38
45.000,154.64
45.015,162.56
45.031,162.95
45.046,156.25
45.062,144.22
45.078,128.58
45.093,110.41
45.109,89.85
45.125,66.49
45.140,40.08
45.156,10.94
45.171,-20.14
45.187,-52.51
45.203,-85.75
45.218,-119.63
45.234,-152.99
45.250,-183.21
45.265,-206.51
45.281,-219.61
45.296,-220.93
45.312,-211.92
45.328,-196.49
45.343,-179.12
45.359,-163.33
45.375,-150.26
45.390,-139.38
45.406,-129.71
45.421,-121.52
45.437,-116.35
45.453,-116.43
45.468,-123.21
45.484,-135.95
45.500,-152.33
45.515,-168.92
45.531,-182.58
45.546,-191.02
45.562,-193.09
45.578,-188.43
45.593,-177.04
45.609,-159.15
45.625,-134.85
45.640,-104.56
45.656,-68.9
45.671,-28.76
45.687,14.9
45.703,61.09
45.718,108.74
45.734,156.25
45.750,201.34
45.765,241.27
45.781,272.87
45.796,293.77
45.812,302.66
45.828,299.43
45.843,285.1
45.859,261.45
45.875,230.74
45.890,195.38
45.906,158.05
45.921,120.9
45.937,85.66
45.953,53.23
45.968,23.73
45.984,-3.0
46.000,-27.02
46.015,-47.72
46.031,-64.12
46.046,-74.5
46.062,-77.54
46.078,-72.45
46.093,-59.74
46.109,-41.38
46.125,-20.25
46.140,0.2
46.156,17.15
46.171,28.52
46.187,33.62
46.203,32.59
46.218,26.62
46.234,17.45
46.250,7.01
46.265,-2.6
46.281,-9.77
46.296,-13.44
46.312,-13.45
46.328,-10.73
46.343,-7.51
46.359,-6.55
46.375,-10.23
46.390,-19.43
46.406,-32.79
46.421,-46.94
46.437,-57.67
46.453,-61.7
46.468,-57.92
46.484,-47.63
46.500,-33.67
46.515,-18.88
46.531,-5.29
46.546,6.54
46.562,16.66
46.578,25.44
46.593,33.1
46.609,39.63
46.625,45.27
46.640,50.78
46.656,57.02
46.671,64.65
46.687,73.77
46.703,83.3
46.718,91.37
46.734,96.04
46.750,96.01
46.765,91.43
46.781,84.07
46.796,76.51
46.812,71.26
46.828,69.75
46.843,71.89
46.859,76.07
46.875,79.7
46.890,80.15
46.906,75.26
46.921,63.92
46.937,46.14
46.953,23.15
46.968,-3.03
46.984,-30.03
47.000,-55.51
47.015,-77.59
47.031,-95.19
47.046,-107.9
47.062,-115.94
47.078,-120.29
47.093,-122.03
47.109,-122.35
47.125,-122.47
47.140,-122.92
47.156,-123.58
47.171,-123.83
47.187,-122.59
47.203,-118.98
47.218,-113.02
47.234,-105.28
47.250,-96.71
47.265,-88.42
47.281,-81.0
47.296,-74.77
47.312,-69.81
47.328,-65.94
47.343,-63.0
47.359,-60.58
47.375,-58.4
47.390,-56.18
47.406,-54.34
47.421,-53.63
47.437,-54.69
47.453,-57.25
47.468,-59.22
47.484,-57.38
47.500,-48.2
47.515,-29.29
47.531,-0.36
47.546,36.57
47.562,78.18
47.578,120.93
47.593,161.55
47.609,197.24
47.625,225.41
47.640,243.53
47.656,249.87
47.671,244.09
47.687,227.63
47.703,203.67
47.718,176.09
47.734,148.3
47.750,122.53
47.765,99.72
47.781,79.99
47.796,63.05
47.812,48.55
47.828,36.21
47.843,25.73
47.859,16.89
47.875,9.32
47.890,2.89
47.906,-2.47
47.921,-6.81
47.937,-10.24
47.953,-13.31
47.968,-16.72
47.984,-21.27
48.000,-27.59
48.015,-36.02
48.031,-46.37
48.046,-58.24
48.062,-71.17
48.078,-84.39
48.093,-96.83
48.109,-107.37
48.125,-114.75
48.140,-118.05
48.156,-117.21
48.171,-112.46
48.187,-104.65
48.203,-94.46
48.218,-82.56
48.234,-69.35
48.250,-55.51
48.265,-41.67
48.281,-28.5
48.296,-16.65
48.312,-6.09
48.328,3.17
48.343,11.56
48.359,19.5
48.375,27.34
48.390,35.19
48.406,43.24
48.421,51.66
48.437,60.29
48.453,69.06
48.468,77.3
48.484,84.5
48.500,90.23
48.515,94.36
48.531,97.17
48.546,98.89
48.562,99.68
48.578,99.25
48.593,97.31
48.609,93.45
48.625,87.62
48.640,80.34
48.656,72.33
48.671,64.72
48.687,58.17
48.703,52.96
48.718,48.63
48.734,44.19
48.750,38.67
48.765,31.33
48.781,21.81
48.796,9.72
48.812,-4.98
48.828,-22.61
48.843,-42.94
48.859,-65.46
48.875,-88.98
48.890,-111.75
48.906,-132.06
48.921,-148.41
48.937,-159.98
48.953,-166.25
48.968,-167.42
48.984,-164.06
49.000,-157.41
49.015,-149.45
49.031,-142.03
49.046,-136.99
49.062,-135.15
49.078,-136.27
49.093,-139.04
49.109,-141.82
49.125,-143.21
49.140,-142.35
49.156,-139.27
49.171,-134.09
49.187,-127.22
49.203,-118.83
49.218,-108.79
49.234,-97.3
49.250,-84.68
49.265,-71.42
49.281,-58.15
49.296,-45.38
49.312,-33.37
49.328,-22.52
49.343,-12.95
49.359,-4.38
49.375,3.54
49.390,11.68
49.406,21.32
49.421,33.72
49.437,49.82
49.453,69.95
49.468,93.26
49.484,118.08
49.500,142.27
49.515,163.39
49.531,179.55
49.546,189.38
49.562,192.4
49.578,188.66
49.593,179.13
49.609,165.45
49.625,149.33
49.640,132.41
49.656,115.67
49.671,99.51
49.687,83.76
49.703,68.17
49.718,52.58
49.734,37.12
49.750,22.57
49.765,9.96
49.781,0.62
49.796,-4.21
49.812,-4.24
49.828,-0.53
49.843,4.1
49.859,6.12
49.875,2.52
49.890,-7.71
49.906,-23.23
49.921,-40.98
49.937,-57.61
49.953,-70.94
49.968,-80.44
49.984,-86.6
50.000,-90.21
50.015,-91.62
50.031,-90.65
50.046,-87.18
50.062,-81.53
50.078,-74.67
50.093,-68.01
50.109,-62.64
50.125,-58.81
50.140,-55.9
50.156,-52.63
50.171,-47.15
50.187,-37.89
50.203,-23.91
50.218,-5.44
50.234,15.96
50.250,37.98
50.265,58.39
50.281,75.31
50.296,87.93
50.312,96.01
50.328,99.91
50.343,100.2
50.359,97.46
50.375,92.38
50.390,85.74
50.406,78.7
50.421,72.12
50.437,66.72
50.453,62.5
50.468,58.8
50.484,54.68
50.500,49.44
50.515,42.98
50.531,35.75
50.546,28.76
50.562,22.88
50.578,18.54
50.593,15.5
50.609,12.87
50.625,9.48
50.640,4.49
50.656,-2.46
50.671,-11.2
50.687,-21.12
50.703,-31.62
50.718,-42.07
50.734,-51.9
50.750,-60.58
50.765,-67.41
50.781,-71.97
50.796,-74.18
50.812,-74.6
50.828,-74.26
50.843,-74.49
50.859,-76.3
50.875,-79.8
50.890,-84.23
50.906,-87.81
50.921,-88.43
50.937,-84.32
50.953,-74.71
50.968,-59.93
50.984,-41.42
51.000,-21.37
51.015,-2.04
51.031,14.67
51.046,27.37
51.062,35.37
51.078,38.55
51.093,37.45
51.109,33.34
51.125,27.96
51.140,23.25
51.156,20.97
51.171,22.25
51.187,27.16
51.203,34.69
51.218,42.85
51.234,49.57
51.250,53.57
51.265,54.93
51.281,55.14
51.296,56.17
51.312,59.42
51.328,64.85
51.343,71.19
51.359,76.25
51.375,78.34
51.390,76.83
51.406,72.07
51.421,64.94
51.437,56.21
51.453,46.11
51.468,34.48
51.484,21.51
51.500,7.98
51.515,-4.94
51.531,-15.97
51.546,-24.58
51.562,-31.27
51.578,-37.4
51.593,-44.69
51.609,-54.36
51.625,-66.37
51.640,-79.32
51.656,-90.94
51.671,-98.67
51.687,-100.69
51.703,-96.44
51.718,-86.57
51.734,-72.59
51.750,-56.51
51.765,-40.46
51.781,-26.84
51.796,-17.83
51.812,-15.08
51.828,-18.93
51.843,-27.94
51.859,-39.25
51.875,-49.59
51.890,-56.41
51.906,-58.79
51.921,-57.82
51.937,-55.28
51.953,-52.94
51.968,-51.44
51.984,-50.14
52.000,-47.27
52.015,-40.97
52.031,-29.72
52.046,-12.72
52.062,9.6
52.078,35.78
52.093,63.51
52.109,89.98
52.125,112.58
52.140,129.28
52.156,139.03
52.171,141.45
52.187,137.19
52.203,127.31
52.218,113.14
52.234,96.47
52.250,78.92
52.265,61.98
52.281,46.37
52.296,32.38
52.312,19.42
52.328,6.86
52.343,-5.83
52.359,-18.39
52.375,-29.86
52.390,-38.54
52.406,-42.55
52.421,-41.03
52.437,-34.27
52.453,-23.73
52.468,-11.54
52.484,0.07
52.500,9.52
52.515,15.62
52.531,17.85
52.546,16.13
52.562,10.62
52.578,2.02
52.593,-8.58
52.609,-19.9
52.625,-30.64
52.640,-39.88
52.656,-47.15
52.671,-52.53
52.687,-56.42
52.703,-59.09
52.718,-60.55
52.734,-60.35
52.750,-57.37
52.765,-50.18
52.781,-37.71
52.796,-19.6
52.812,3.13
52.828,28.13
52.843,52.39
52.859,73.39
52.875,89.27
52.890,99.69
52.906,105.44
52.921,107.66
52.937,107.29
52.953,104.96
52.968,101.04
52.984,95.75
53.000,89.87
53.015,83.8
53.031,77.79
53.046,71.27
53.062,62.68
53.078,50.45
53.093,33.93
53.109,14.01
53.125,-6.78
53.140,-24.76
53.156,-36.97
53.171,-41.79
53.187,-39.63
53.203,-32.83
53.218,-24.22
53.234,-16.11
53.250,-9.77
53.265,-5.53
53.281,-3.07
53.296,-2.36
53.312,-3.36
53.328,-5.81
53.343,-9.28
53.359,-12.44
53.375,-14.05
53.390,-13.27
53.406,-10.25
53.421,-6.0
53.437,-2.21
53.453,-0.56
53.468,-1.8
53.484,-6.09
53.500,-12.18
53.515,-18.4
53.531,-23.14
53.546,-25.35
53.562,-24.87
53.578,-22.52
53.593,-19.34
53.609,-16.23
53.625,-14.22
53.640,-13.77
53.656,-15.41
53.671,-19.67
53.687,-26.88
53.703,-36.98
53.718,-49.58
53.734,-63.37
53.750,-76.28
53.765,-86.4
53.781,-91.94
53.796,-92.25
53.812,-87.97
53.828,-80.52
53.843,-71.52
53.859,-62.0
53.875,-52.08
53.890,-40.65
53.906,-26.72
53.921,-9.46
53.937,10.86
53.953,32.91
53.968,55.01
53.984,75.24
54.000,92.01
54.015,104.04
54.031,110.66
54.046,111.5
54.062,107.15
54.078,98.72
54.093,87.67
54.109,75.55
54.125,63.26
54.140,50.92
54.156,37.77
54.171,22.65
54.187,4.41
54.203,-17.07
54.218,-40.91
54.234,-64.99
54.250,-86.49
54.265,-102.85
54.281,-112.49
54.296,-115.44
54.312,-113.42
54.328,-109.34
54.343,-105.71
54.359,-104.05
54.375,-104.34
54.390,-105.41
54.406,-106.21
54.421,-106.61
54.437,-107.45
54.453,-110.03
54.468,-115.28
54.484,-122.61
54.500,-130.2
54.515,-135.63
54.531,-136.87
54.546,-133.34
54.562,-125.88
54.578,-116.24
54.593,-105.64
54.609,-94.23
54.625,-80.56
54.640,-62.46
54.656,-38.15
54.671,-6.7
54.687,31.44
54.703,75.25
54.718,123.01
54.734,172.68
54.750,221.38
54.765,265.17
54.781,299.35
54.796,319.41
54.812,322.64
54.828,308.67
54.843,279.78
54.859,239.54
54.875,191.51
54.890,138.36
54.906,81.83
54.921,23.19
54.937,-35.68
54.953,-91.38
54.968,-139.32
54.984,-174.51
55.000,-193.17
55.015,-194.12
55.031,-179.42
55.046,-153.73
55.062,-122.66
55.078,-91.29
55.093,-62.68
55.109,-37.98
55.125,-17.2
55.140,-0.24
55.156,12.67
55.171,21.17
55.187,25.34
55.203,26.19
55.218,25.62
55.234,25.59
55.250,27.45
55.265,31.41
55.281,36.57
55.296,41.35
55.312,44.31
55.328,44.97
55.343,43.74
55.359,42.21
55.375,42.14
55.390,44.99
55.406,50.98
55.421,59.1
55.437,67.38
55.453,73.23
55.468,74.72
55.484,70.73
55.500,61.43
55.515,47.77
55.531,31.25
55.546,13.63
55.562,-3.57
55.578,-18.9
55.593,-31.57
55.609,-41.23
55.625,-48.15
55.640,-53.17
55.656,-57.35
55.671,-61.91
55.687,-67.44
55.703,-73.82
55.718,-79.92
55.734,-83.82
55.750,-83.03
55.765,-75.14
55.781,-58.73
55.796,-34.57
55.812,-6.17
55.828,21.19
55.843,41.65
55.859,50.96
55.875,47.63
55.890,33.44
55.906,12.35
55.921,-11.26
55.937,-33.75
55.953,-53.36
55.968,-69.37
55.984,-81.76
56.000,-90.53
56.015,-95.85
56.031,-98.64
56.046,-100.11
56.062,-101.78
56.078,-104.24
56.093,-106.93
56.109,-107.72
56.125,-103.92
56.140,-93.74
56.156,-76.84
56.171,-55.16
56.187,-31.91
56.203,-10.48
56.218,6.95
56.234,19.88
56.250,28.89
56.265,35.09
56.281,39.32
56.296,42.02
56.312,43.35
56.328,43.69
56.343,43.66
56.359,44.12
56.375,46.23
56.390,50.7
56.406,58.05
56.421,68.05
56.437,80.34
56.453,94.28
56.468,109.23
56.484,124.86
56.500,140.85
56.515,157.34
56.531,173.73
56.546,189.25
56.562,202.33
56.578,211.25
56.593,214.4
56.609,210.6
56.625,199.62
56.640,181.7
56.656,157.82
56.671,128.96
56.687,96.49
56.703,61.79
56.718,26.32
56.734,-8.19
56.750,-40.23
56.765,-68.43
56.781,-92.02
56.796,-110.86
56.812,-125.53
56.828,-136.45
56.843,-143.6
56.859,-146.53
56.875,-144.22
56.890,-135.95
56.906,-121.72
56.921,-102.98
56.937,-82.11
56.953,-62.13
56.968,-45.69
56.984,-34.36
57.000,-28.73
57.015,-28.27
57.031,-32.12
57.046,-39.03
57.062,-47.83
57.078,-57.21
57.093,-65.66
57.109,-71.93
57.125,-75.01
57.140,-74.78
57.156,-71.81
57.171,-67.46
57.187,-62.94
57.203,-58.61
57.218,-53.7
57.234,-46.18
57.250,-33.78
57.265,-14.78
57.281,10.75
57.296,40.6
57.312,70.78
57.328,96.59
57.343,114.21
57.359,122.08
57.375,121.06
57.390,114.19
57.406,105.23
57.421,97.33
57.437,92.14
57.453,89.89
57.468,89.83
57.484,90.97
57.500,92.6
57.515,93.89
57.531,93.76
57.546,90.86
57.562,83.89
57.578,72.39
57.593,57.86
57.609,43.14
57.625,31.49
57.640,25.22
57.656,24.54
57.671,27.58
57.687,31.29
57.703,32.82
57.718,30.09
57.734,22.32
57.750,9.55
57.765,-7.63
57.781,-28.06
57.796,-50.5
57.812,-73.18
57.828,-94.44
57.843,-112.87
57.859,-127.66
57.875,-138.91
57.890,-147.09
57.906,-152.9
57.921,-156.7
57.937,-158.61
57.953,-158.31
57.968,-155.11
57.984,-148.0
58.000,-136.08
58.015,-119.19
58.031,-98.2
58.046,-75.11
58.062,-52.54
58.078,-32.99
58.093,-18.01
58.109,-7.86
58.125,-1.81
58.140,1.47
58.156,3.0
58.171,3.38
58.187,2.68
58.203,0.94
58.218,-1.48
58.234,-3.75
58.250,-4.91
58.265,-4.36
58.281,-1.95
58.296,1.66
58.312,5.81
58.328,10.18
58.343,15.43
58.359,23.21
58.375,35.31
58.390,52.5
58.406,73.82
58.421,96.29
58.437,115.89
58.453,128.65
58.468,131.99
58.484,125.36
58.500,110.11
58.515,88.6
58.531,63.45
58.546,37.3
58.562,12.05
58.578,-10.93
58.593,-30.98
58.609,-48.24
58.625,-63.42
58.640,-77.48
58.656,-90.7
58.671,-102.3
58.687,-109.87
58.703,-110.18
58.718,-100.82
58.734,-80.99
58.750,-52.68
58.765,-20.17
58.781,11.41
58.796,37.86
58.812,56.6
58.828,67.28
58.843,70.9
58.859,68.81
58.875,62.41
58.890,52.97
58.906,41.87
58.921,30.42
58.937,20.33
58.953,12.58
58.968,7.44
58.984,4.58
59.000,3.24
59.015,2.93
59.031,3.1
59.046,3.82
59.062,5.11
59.078,7.5
59.093,11.65
59.109,18.2
59.125,27.61
59.140,39.42
59.156,52.62
59.171,65.34
59.187,75.67
59.203,82.24
59.218,84.79
59.234,83.85
59.250,80.46
59.265,75.5
59.281,68.93
59.296,60.61
59.312,50.31
59.328,38.17
59.343,24.86
59.359,11.44
59.375,-1.41
59.390,-13.21
59.406,-23.64
59.421,-32.78
59.437,-40.12
59.453,-44.83
59.468,-45.92
59.484,-43.0
59.500,-36.44
59.515,-27.65
59.531,-18.93
59.546,-12.32
59.562,-9.69
59.578,-11.82
59.593,-18.6
59.609,-29.0
59.625,-41.56
59.640,-54.83
59.656,-67.55
59.671,-78.75
59.687,-87.45
59.703,-93.22
59.718,-95.7
59.734,-95.02
59.750,-91.85
59.765,-87.15
59.781,-82.19
59.796,-78.13
59.812,-75.76
59.828,-74.97
59.843,-74.98
59.859,-73.74
59.875,-68.44
59.890,-56.48
59.906,-36.29
59.921,-8.92
59.937,22.05
59.953,51.02
59.968,72.6
59.984,83.06
