timestamp,value
00.000,-47.7
00.015,-48.99
00.031,-49.35
00.046,-49.3
00.062,-49.21
00.078,-49.14
00.093,-48.7
00.109,-46.81
00.125,-42.08
00.140,-32.98
00.156,-18.6
00.171,0.85
00.187,23.78
00.203,47.43
00.218,68.88
00.234,85.77
00.250,96.99
00.265,102.63
00.281,103.7
00.296,101.45
00.312,96.67
00.328,89.81
00.343,80.8
00.359,69.63
00.375,56.34
00.390,41.27
00.406,25.04
00.421,8.25
00.437,-8.27
00.453,-23.73
00.468,-37.08
00.484,-47.23
00.500,-52.96
00.515,-53.49
00.531,-48.72
00.546,-39.6
00.562,-28.12
00.578,-16.52
00.593,-6.91
00.609,-0.45
00.625,2.73
00.640,3.35
00.656,2.33
00.671,0.3
00.687,-2.6
00.703,-6.79
00.718,-12.55
00.734,-19.86
00.750,-28.25
00.765,-36.99
00.781,-45.5
00.796,-53.43
00.812,-60.86
00.828,-67.79
00.843,-74.05
00.859,-78.93
00.875,-81.41
00.890,-80.48
00.906,-75.44
00.921,-66.38
00.937,-54.07
00.953,-39.81
00.968,-24.96
00.984,-10.73
01.000,2.11
01.015,13.07
01.031,21.79
01.046,28.06
01.062,31.72
01.078,32.73
01.093,31.28
01.109,27.96
01.125,23.63
01.140,19.55
01.156,16.92
01.171,16.8
01.187,19.65
01.203,25.3
01.218,33.1
01.234,42.12
01.250,51.7
01.265,61.65
01.281,72.11
01.296,83.09
01.312,93.9
01.328,102.96
01.343,108.2
01.359,107.97
01.375,101.65
01.390,89.99
01.406,74.88
01.421,58.56
01.437,42.97
01.453,29.35
01.468,18.15
01.484,9.39
01.500,3.12
01.515,-0.64
01.531,-2.0
01.546,-1.36
01.562,0.39
01.578,2.31
01.593,3.5
01.609,3.64
01.625,3.03
01.640,2.45
01.656,2.78
01.671,4.48
01.687,7.29
01.703,10.2
01.718,12.02
01.734,11.78
01.750,9.12
01.765,4.32
01.781,-1.95
01.796,-8.94
01.812,-16.02
01.828,-22.94
01.843,-29.61
01.859,-35.91
01.875,-41.59
01.890,-46.35
01.906,-49.98
01.921,-52.52
01.937,-54.36
01.953,-55.92
01.968,-57.54
01.984,-59.09
02.000,-59.77
02.015,-58.17
02.031,-52.74
02.046,-42.25
02.062,-26.45
02.078,-6.17
02.093,16.69
02.109,39.67
02.125,60.45
02.140,77.05
02.156,88.24
02.171,93.47
02.187,92.78
02.203,86.77
02.218,76.52
02.234,63.42
02.250,49.01
02.265,34.86
02.281,21.9
02.296,10.48
02.312,0.27
02.328,-9.48
02.343,-19.51
02.359,-30.01
02.375,-40.5
02.390,-49.71
02.406,-55.91
02.421,-57.53
02.437,-53.74
02.453,-44.85
02.468,-32.36
02.484,-18.53
02.500,-5.75
02.515,4.06
02.531,9.69
02.546,10.73
02.562,7.34
02.578,0.26
02.593,-9.41
02.609,-20.18
02.625,-30.41
02.640,-38.61
02.656,-43.9
02.671,-46.36
02.687,-46.92
02.703,-47.25
02.718,-48.89
02.734,-52.91
02.750,-59.44
02.765,-67.59
02.781,-75.63
02.796,-81.54
02.812,-83.57
02.828,-80.61
02.843,-72.65
02.859,-60.45
02.875,-45.16
02.890,-28.17
02.906,-10.65
02.921,6.48
02.937,22.71
02.953,37.77
02.968,51.92
02.984,65.71
03.000,79.64
03.015,93.86
03.031,107.66
03.046,119.51
03.062,127.48
03.078,130.03
03.093,126.39
03.109,117.09
03.125,103.57
03.140,87.88
03.156,72.17
03.171,58.36
03.187,47.92
03.203,41.81
03.218,40.2
03.234,42.3
03.250,46.55
03.265,50.85
03.281,53.1
03.296,51.71
03.312,45.99
03.328,36.2
03.343,23.52
03.359,9.56
03.375,-3.93
03.390,-15.56
03.406,-24.5
03.421,-30.7
03.437,-34.76
03.453,-37.64
03.468,-40.49
03.484,-44.14
03.500,-49.04
03.515,-55.11
03.531,-61.84
03.546,-68.35
03.562,-73.62
03.578,-76.8
03.593,-77.36
03.609,-75.47
03.625,-71.85
03.640,-67.69
03.656,-64.14
03.671,-62.06
03.687,-61.78
03.703,-63.08
03.718,-65.23
03.734,-67.23
03.750,-68.19
03.765,-67.42
03.781,-64.73
03.796,-60.3
03.812,-54.64
03.828,-48.12
03.843,-41.04
03.859,-33.47
03.875,-25.38
03.890,-16.92
03.906,-8.46
03.921,-0.24
03.937,7.74
03.953,16.0
03.968,25.38
03.984,36.38
04.000,48.89
04.015,61.97
04.031,74.18
04.046,84.04
04.062,90.68
04.078,93.77
04.093,93.44
04.109,89.95
04.125,83.35
04.140,73.63
04.156,60.96
04.171,45.88
04.187,29.66
04.203,13.7
04.218,-0.71
04.234,-12.89
04.250,-22.96
04.265,-31.67
04.281,-39.91
04.296,-47.97
04.312,-55.47
04.328,-61.01
04.343,-63.02
04.359,-60.39
04.375,-53.01
04.390,-41.93
04.406,-28.99
04.421,-16.15
04.437,-4.94
04.453,3.55
04.468,8.73
04.484,10.22
04.500,7.76
04.515,1.55
04.531,-7.71
04.546,-18.54
04.562,-29.0
04.578,-37.22
04.593,-42.04
04.609,-43.32
04.625,-41.95
04.640,-39.52
04.656,-37.65
04.671,-37.62
04.687,-39.61
04.703,-42.76
04.718,-45.17
04.734,-44.49
04.750,-38.81
04.765,-27.28
04.781,-10.55
04.796,9.52
04.812,30.31
04.828,49.39
04.843,65.01
04.859,76.31
04.875,83.42
04.890,87.07
04.906,88.34
04.921,88.28
04.937,87.9
04.953,87.76
04.968,87.91
04.984,87.74
05.000,86.01
05.015,81.44
05.031,72.99
05.046,60.66
05.062,45.48
05.078,29.6
05.093,15.56
05.109,5.66
05.125,1.03
05.140,1.45
05.156,5.51
05.171,11.05
05.187,15.97
05.203,18.63
05.218,18.08
05.234,14.08
05.250,6.92
05.265,-2.62
05.281,-13.48
05.296,-24.47
05.312,-34.45
05.328,-42.6
05.343,-48.56
05.359,-52.56
05.375,-55.23
05.390,-57.47
05.406,-59.94
05.421,-63.05
05.437,-66.69
05.453,-70.23
05.468,-72.67
05.484,-72.94
05.500,-70.36
05.515,-64.99
05.531,-57.73
05.546,-49.89
05.562,-42.84
05.578,-37.41
05.593,-33.83
05.609,-31.8
05.625,-30.87
05.640,-30.69
05.656,-31.23
05.671,-32.58
05.687,-34.7
05.703,-37.3
05.718,-39.79
05.734,-41.59
05.750,-42.27
05.765,-41.51
05.781,-39.01
05.796,-34.56
05.812,-28.04
05.828,-19.4
05.843,-8.8
05.859,3.58
05.875,17.58
05.890,32.91
05.906,49.05
05.921,65.1
05.937,79.81
05.953,91.67
05.968,99.37
05.984,101.95
06.000,99.2
06.015,91.55
06.031,79.66
06.046,64.53
06.062,47.03
06.078,28.2
06.093,9.08
06.109,-9.09
06.125,-25.39
06.140,-38.87
06.156,-48.96
06.171,-55.58
06.187,-59.07
06.203,-60.25
06.218,-59.97
06.234,-58.97
06.250,-57.3
06.265,-54.77
06.281,-50.82
06.296,-45.09
06.312,-37.67
06.328,-28.92
06.343,-19.49
06.359,-9.98
06.375,-0.96
06.390,7.15
06.406,13.71
06.421,18.07
06.437,19.63
06.453,18.07
06.468,13.67
06.484,7.22
06.500,-0.27
06.515,-7.84
06.531,-14.73
06.546,-20.56
06.562,-25.11
06.578,-28.31
06.593,-30.28
06.609,-30.98
06.625,-30.19
06.640,-27.58
06.656,-22.73
06.671,-15.35
06.687,-5.53
06.703,6.24
06.718,19.37
06.734,32.89
06.750,46.12
06.765,58.52
06.781,69.98
06.796,80.5
06.812,90.09
06.828,98.53
06.843,105.37
06.859,110.17
06.875,112.33
06.890,111.44
06.906,106.99
06.921,98.58
06.937,85.88
06.953,68.9
06.968,48.34
06.984,25.74
07.000,3.55
07.015,-15.38
07.031,-28.37
07.046,-33.91
07.062,-32.09
07.078,-24.58
07.093,-14.08
07.109,-3.47
07.125,5.1
07.140,10.46
07.156,12.42
07.171,11.64
07.187,8.83
07.203,4.74
07.218,-0.07
07.234,-5.02
07.250,-9.66
07.265,-13.71
07.281,-17.3
07.296,-20.95
07.312,-25.48
07.328,-31.55
07.343,-39.58
07.359,-49.37
07.375,-60.19
07.390,-70.92
07.406,-80.34
07.421,-87.27
07.437,-90.96
07.453,-91.27
07.468,-88.47
07.484,-83.3
07.500,-76.61
07.515,-69.27
07.531,-61.87
07.546,-54.9
07.562,-48.59
07.578,-42.95
07.593,-37.79
07.609,-32.91
07.625,-27.85
07.640,-22.27
07.656,-16.11
07.671,-9.4
07.687,-2.61
07.703,3.78
07.718,9.14
07.734,12.97
07.750,14.94
07.765,15.13
07.781,14.22
07.796,13.34
07.812,13.88
07.828,17.0
07.843,23.26
07.859,32.3
07.875,42.97
07.890,53.71
07.906,62.82
07.921,68.89
07.937,71.11
07.953,69.28
07.968,63.88
07.984,55.83
08.000,46.26
08.015,36.22
08.031,26.55
08.046,17.82
08.062,10.32
08.078,4.25
08.093,-0.32
08.109,-3.55
08.125,-5.86
08.140,-7.74
08.156,-9.58
08.171,-11.27
08.187,-12.14
08.203,-11.2
08.218,-7.52
08.234,-0.84
08.250,8.16
08.265,17.89
08.281,26.64
08.296,33.08
08.312,36.51
08.328,36.94
08.343,34.63
08.359,29.78
08.375,22.36
08.390,12.29
08.406,-0.28
08.421,-14.65
08.437,-29.35
08.453,-42.51
08.468,-52.21
08.484,-57.07
08.500,-56.68
08.515,-51.59
08.531,-43.05
08.546,-32.4
08.562,-20.6
08.578,-7.97
08.593,5.86
08.609,21.38
08.625,38.75
08.640,57.37
08.656,75.98
08.671,92.8
08.687,106.1
08.703,114.35
08.718,116.53
08.734,112.19
08.750,101.6
08.765,85.61
08.781,65.67
08.796,43.8
08.812,22.13
08.828,2.53
08.843,-13.76
08.859,-26.44
08.875,-35.89
08.890,-42.87
08.906,-48.01
08.921,-51.47
08.937,-52.79
08.953,-51.17
08.968,-45.86
08.984,-36.7
09.000,-24.4
09.015,-10.4
09.031,3.47
09.046,15.5
09.062,24.45
09.078,29.77
09.093,31.45
09.109,29.86
09.125,25.49
09.140,18.71
09.156,10.1
09.171,0.28
09.187,-10.05
09.203,-20.2
09.218,-29.61
09.234,-38.11
09.250,-45.71
09.265,-52.53
09.281,-58.81
09.296,-64.33
09.312,-68.31
09.328,-69.69
09.343,-67.43
09.359,-60.98
09.375,-50.92
09.390,-38.66
09.406,-25.97
09.421,-14.39
09.437,-4.65
09.453,3.35
09.468,10.19
09.484,16.33
09.500,21.85
09.515,26.33
09.531,29.35
09.546,30.99
09.562,31.76
09.578,32.46
09.593,33.63
09.609,35.17
09.625,36.26
09.640,35.73
09.656,32.76
09.671,27.33
09.687,20.61
09.703,14.43
09.718,10.81
09.734,11.01
09.750,15.24
09.765,22.48
09.781,30.89
09.796,38.4
09.812,43.39
09.828,44.88
09.843,42.44
09.859,36.36
09.875,27.32
09.890,16.37
09.906,4.77
09.921,-6.2
09.937,-15.78
09.953,-23.54
09.968,-29.66
09.984,-34.65
10.000,-38.92
10.015,-42.82
10.031,-46.6
10.046,-50.4
10.062,-54.2
10.078,-57.81
10.093,-60.54
10.109,-61.14
10.125,-58.24
10.140,-50.68
10.156,-38.11
10.171,-21.22
10.187,-1.43
10.203,19.42
10.218,39.53
10.234,57.48
10.250,72.45
10.265,84.2
10.281,93.07
10.296,99.89
10.312,105.78
10.328,111.8
10.343,118.54
10.359,125.78
10.375,132.48
10.390,137.11
10.406,138.17
10.421,134.78
10.437,126.78
10.453,115.08
10.468,101.31
10.484,87.44
10.500,75.43
10.515,66.74
10.531,61.91
10.546,60.62
10.562,61.84
10.578,64.22
10.593,66.62
10.609,68.32
10.625,68.95
10.640,68.38
10.656,66.52
10.671,63.23
10.687,58.66
10.703,53.14
10.718,47.26
10.734,41.78
10.750,37.48
10.765,34.88
10.781,34.24
10.796,35.68
10.812,39.47
10.828,46.05
10.843,55.85
10.859,69.03
10.875,85.35
10.890,104.04
10.906,124.1
10.921,144.34
10.937,163.65
10.953,180.74
10.968,194.04
10.984,201.51
11.000,200.55
11.015,188.85
11.031,165.09
11.046,129.94
11.062,86.44
11.078,39.62
11.093,-4.93
11.109,-42.51
11.125,-70.18
11.140,-87.34
11.156,-94.95
11.171,-95.15
11.187,-90.62
11.203,-83.98
11.218,-77.56
11.234,-73.41
11.250,-72.75
11.265,-75.86
11.281,-82.37
11.296,-91.4
11.312,-102.35
11.328,-115.18
11.343,-130.27
11.359,-148.14
11.375,-168.97
11.390,-192.27
11.406,-217.08
11.421,-242.11
11.437,-266.3
11.453,-289.25
11.468,-311.53
11.484,-334.31
11.500,-359.63
11.515,-389.8
11.531,-426.72
11.546,-470.69
11.562,-519.05
11.578,-565.53
11.593,-601.46
11.609,-618.51
11.625,-611.45
11.640,-580.77
11.656,-532.33
11.671,-474.84
11.687,-416.76
11.703,-363.64
11.718,-317.19
11.734,-276.6
11.750,-240.33
11.765,-207.41
11.781,-177.88
11.796,-152.12
11.812,-129.74
11.828,-109.51
11.843,-89.65
11.859,-68.46
11.875,-45.3
11.890,-20.27
11.906,5.74
11.921,31.78
11.937,57.33
11.953,82.6
11.968,108.31
11.984,135.38
12.000,164.59
12.015,195.84
12.031,228.58
12.046,261.74
12.062,294.46
12.078,326.67
12.093,358.96
12.109,391.88
12.125,424.78
12.140,455.38
12.156,479.81
12.171,493.99
12.187,495.23
12.203,483.25
12.218,459.96
12.234,428.19
12.250,390.08
12.265,346.31
12.281,296.49
12.296,240.56
12.312,180.06
12.328,118.43
12.343,60.07
12.359,9.02
12.375,-32.53
12.390,-64.3
12.406,-86.97
12.421,-101.3
12.437,-107.45
12.453,-105.35
12.468,-95.45
12.484,-79.8
12.500,-61.44
12.515,-43.81
12.531,-29.53
12.546,-19.42
12.562,-12.86
12.578,-8.4
12.593,-4.99
12.609,-2.34
12.625,-1.25
12.640,-2.57
12.656,-6.53
12.671,-12.59
12.687,-19.4
12.703,-25.56
12.718,-30.23
12.734,-33.6
12.750,-36.44
12.765,-39.88
12.781,-44.61
12.796,-50.41
12.812,-56.26
12.828,-60.33
12.843,-60.76
12.859,-56.11
12.875,-45.87
12.890,-30.66
12.906,-11.95
12.921,8.24
12.937,27.92
12.953,45.23
12.968,59.02
12.984,68.44
13.000,73.04
13.015,72.8
13.031,67.96
13.046,59.25
13.062,47.65
13.078,34.38
13.093,20.56
13.109,7.33
13.125,-4.2
13.140,-13.11
13.156,-18.49
13.171,-19.72
13.187,-16.19
13.203,-7.68
13.218,5.73
13.234,23.23
13.250,43.31
13.265,63.72
13.281,81.75
13.296,94.97
13.312,101.53
13.328,100.65
13.343,92.4
13.359,77.57
13.375,57.32
13.390,33.11
13.406,6.92
13.421,-19.05
13.437,-42.36
13.453,-61.04
13.468,-74.17
13.484,-82.24
13.500,-86.78
13.515,-89.81
13.531,-93.16
13.546,-97.65
13.562,-103.26
13.578,-109.08
13.593,-113.62
13.609,-115.38
13.625,-113.01
13.640,-105.41
13.656,-92.02
13.671,-73.12
13.687,-49.62
13.703,-23.38
13.718,3.03
13.734,26.86
13.750,45.64
13.765,57.76
13.781,62.93
13.796,62.17
13.812,57.24
13.828,50.25
13.843,42.96
13.859,36.47
13.875,31.37
13.890,27.74
13.906,25.48
13.921,24.31
13.937,23.83
13.953,23.57
13.968,23.31
13.984,23.23
14.000,23.99
14.015,26.71
14.031,32.22
14.046,40.91
14.062,52.23
14.078,64.72
14.093,76.59
14.109,86.06
14.125,91.86
14.140,93.36
14.156,90.65
14.171,84.14
14.187,74.47
14.203,62.38
14.218,48.54
14.234,33.7
14.250,18.52
14.265,3.66
14.281,-10.32
14.296,-22.89
14.312,-33.76
14.328,-42.91
14.343,-50.54
14.359,-57.0
14.375,-62.37
14.390,-66.43
14.406,-68.34
14.421,-67.29
14.437,-62.62
14.453,-54.35
14.468,-43.24
14.484,-30.57
14.500,-17.71
14.515,-5.8
14.531,4.26
14.546,11.89
14.562,16.62
14.578,18.01
14.593,15.89
14.609,10.65
14.625,3.36
14.640,-4.2
14.656,-10.28
14.671,-13.59
14.687,-13.94
14.703,-12.39
14.718,-11.0
14.734,-11.94
14.750,-16.66
14.765,-24.97
14.781,-34.66
14.796,-42.27
14.812,-44.26
14.828,-38.33
14.843,-24.35
14.859,-4.35
14.875,18.37
14.890,40.33
14.906,58.97
14.921,73.02
14.937,82.27
14.953,87.19
14.968,88.41
14.984,86.6
15.000,82.54
15.015,77.03
15.031,70.59
15.046,63.45
15.062,55.39
15.078,45.89
15.093,34.42
15.109,20.62
15.125,4.57
15.140,-12.84
15.156,-29.98
15.171,-44.8
15.187,-55.13
15.203,-59.41
15.218,-57.11
15.234,-48.88
15.250,-36.26
15.265,-21.46
15.281,-6.51
15.296,7.05
15.312,18.24
15.328,26.75
15.343,32.71
15.359,36.56
15.375,38.95
15.390,40.53
15.406,41.59
15.421,42.07
15.437,41.28
15.453,38.16
15.468,31.82
15.484,21.75
15.500,8.3
15.515,-7.17
15.531,-22.63
15.546,-35.81
15.562,-44.54
15.578,-47.27
15.593,-43.43
15.609,-33.51
15.625,-19.13
15.640,-2.64
15.656,13.58
15.671,27.59
15.687,38.33
15.703,45.63
15.718,49.62
15.734,50.52
15.750,48.54
15.765,43.92
15.781,37.24
15.796,29.35
15.812,21.08
15.828,12.86
15.843,4.65
15.859,-4.17
15.875,-14.45
15.890,-26.58
15.906,-40.62
15.921,-55.88
15.937,-71.23
15.953,-85.35
15.968,-96.72
15.984,-103.97
16.000,-106.08
16.015,-102.76
16.031,-94.33
16.046,-81.86
16.062,-67.03
16.078,-51.76
16.093,-38.08
16.109,-27.61
16.125,-21.31
16.140,-19.08
16.156,-19.97
16.171,-22.26
16.187,-24.12
16.203,-24.02
16.218,-21.14
16.234,-15.57
16.250,-8.11
16.265,-0.2
16.281,6.64
16.296,10.87
16.312,11.55
16.328,8.66
16.343,3.39
16.359,-1.82
16.375,-4.1
16.390,-0.87
16.406,8.92
16.421,24.53
16.437,43.47
16.453,62.38
16.468,78.26
16.484,89.14
16.500,94.79
16.515,96.19
16.531,94.89
16.546,92.14
16.562,88.4
16.578,83.37
16.593,76.37
16.609,67.04
16.625,55.32
16.640,41.89
16.656,27.53
16.671,12.82
16.687,-2.04
16.703,-17.07
16.718,-32.32
16.734,-47.4
16.750,-61.27
16.765,-72.68
16.781,-80.27
16.796,-83.04
16.812,-80.61
16.828,-73.24
16.843,-61.71
16.859,-47.3
16.875,-31.54
16.890,-15.91
16.906,-1.84
16.921,9.54
16.937,17.48
16.953,21.74
16.968,22.73
16.984,21.35
17.000,18.86
17.015,16.63
17.031,16.02
17.046,17.82
17.062,22.18
17.078,28.34
17.093,34.76
17.109,39.7
17.125,41.63
17.140,39.83
17.156,34.56
17.171,27.1
17.187,19.01
17.203,11.78
17.218,6.35
17.234,2.86
17.250,0.99
17.265,-0.05
17.281,-1.1
17.296,-3.02
17.312,-6.24
17.328,-10.75
17.343,-15.86
17.359,-20.35
17.375,-22.89
17.390,-22.43
17.406,-18.78
17.421,-12.78
17.437,-6.38
17.453,-1.77
17.468,-0.73
17.484,-3.9
17.500,-10.76
17.515,-19.78
17.531,-29.06
17.546,-36.96
17.562,-42.33
17.578,-44.87
17.593,-44.77
17.609,-42.73
17.625,-39.51
17.640,-35.91
17.656,-32.77
17.671,-30.6
17.687,-29.78
17.703,-30.4
17.718,-32.25
17.734,-34.99
17.750,-38.25
17.765,-41.58
17.781,-44.48
17.796,-46.6
17.812,-47.57
17.828,-47.15
17.843,-45.41
17.859,-42.48
17.875,-38.72
17.890,-34.48
17.906,-29.89
17.921,-24.69
17.937,-18.29
17.953,-9.82
17.968,1.48
17.984,16.03
18.000,33.58
18.015,53.19
18.031,73.47
18.046,92.71
18.062,109.2
18.078,121.29
18.093,127.89
18.109,128.46
18.125,123.41
18.140,114.0
18.156,101.86
18.171,88.82
18.187,76.26
18.203,65.02
18.218,55.26
18.234,46.92
18.250,39.63
18.265,32.97
18.281,26.5
18.296,19.63
18.312,12.05
18.328,3.77
18.343,-4.57
18.359,-12.05
18.375,-17.72
18.390,-21.17
18.406,-22.6
18.421,-22.92
18.437,-23.45
18.453,-25.5
18.468,-30.16
18.484,-37.78
18.500,-48.08
18.515,-60.07
18.531,-72.49
18.546,-84.02
18.562,-93.66
18.578,-100.85
18.593,-105.35
18.609,-107.2
18.625,-106.38
18.640,-102.98
18.656,-97.22
18.671,-89.54
18.687,-80.63
18.703,-70.96
18.718,-60.57
18.734,-48.73
18.750,-34.18
18.765,-15.77
18.781,6.79
18.796,32.34
18.812,58.49
18.828,82.01
18.843,99.95
18.859,110.32
18.875,112.66
18.890,107.8
18.906,97.42
18.921,83.46
18.937,67.55
18.953,51.04
18.968,34.83
18.984,19.49
19.000,5.27
19.015,-7.77
19.031,-19.81
19.046,-31.0
19.062,-41.22
19.078,-50.17
19.093,-57.23
19.109,-61.7
19.125,-62.91
19.140,-60.54
19.156,-54.56
19.171,-45.47
19.187,-34.16
19.203,-21.88
19.218,-9.99
19.234,0.31
19.250,8.18
19.265,13.36
19.281,15.83
19.296,15.77
19.312,13.27
19.328,8.54
19.343,1.92
19.359,-5.93
19.375,-14.11
19.390,-21.75
19.406,-28.12
19.421,-32.87
19.437,-36.02
19.453,-38.06
19.468,-39.54
19.484,-41.21
19.500,-43.4
19.515,-45.91
19.531,-47.84
19.546,-47.86
19.562,-44.66
19.578,-37.47
19.593,-26.54
19.609,-13.07
19.625,1.23
19.640,14.52
19.656,25.43
19.671,33.26
19.687,38.02
19.703,40.26
19.718,40.86
19.734,40.82
19.750,40.92
19.765,41.89
19.781,43.97
19.796,47.06
19.812,50.58
19.828,53.64
19.843,55.39
19.859,55.31
19.875,53.65
19.890,51.3
19.906,49.74
19.921,50.34
19.937,53.81
19.953,59.65
19.968,66.43
19.984,72.2
20.000,75.2
20.015,74.32
20.031,69.26
20.046,60.32
20.062,47.83
20.078,32.17
20.093,13.68
20.109,-6.96
20.125,-28.39
20.140,-48.53
20.156,-65.26
20.171,-77.11
20.187,-83.86
20.203,-86.78
20.218,-88.04
20.234,-89.81
20.250,-93.63
20.265,-99.82
20.281,-107.52
20.296,-115.01
20.312,-120.31
20.328,-121.56
20.343,-117.54
20.359,-107.64
20.375,-92.07
20.390,-71.82
20.406,-48.41
20.421,-23.66
20.437,0.82
20.453,23.83
20.468,44.63
20.484,62.75
20.500,78.03
20.515,90.12
20.531,98.69
20.546,103.47
20.562,104.29
20.578,101.41
20.593,95.5
20.609,87.38
20.625,77.66
20.640,66.68
20.656,54.49
20.671,41.13
20.687,27.07
20.703,13.3
20.718,1.19
20.734,-7.89
20.750,-13.15
20.765,-14.74
20.781,-13.82
20.796,-11.93
20.812,-10.39
20.828,-9.81
20.843,-10.12
20.859,-10.94
20.875,-12.09
20.890,-13.97
20.906,-17.07
20.921,-21.78
20.937,-27.81
20.953,-34.12
20.968,-39.27
20.984,-42.15
21.000,-42.39
21.015,-40.61
21.031,-38.24
21.046,-36.84
21.062,-37.58
21.078,-40.77
21.093,-45.68
21.109,-50.79
21.125,-54.37
21.140,-55.02
21.156,-52.23
21.171,-46.39
21.187,-38.57
21.203,-30.05
21.218,-21.9
21.234,-14.97
21.250,-9.62
21.265,-6.0
21.281,-4.1
21.296,-3.77
21.312,-4.62
21.328,-6.06
21.343,-7.31
21.359,-7.51
21.375,-6.11
21.390,-2.98
21.406,1.49
21.421,6.43
21.437,10.87
21.453,14.36
21.468,17.23
21.484,20.66
21.500,26.17
21.515,34.92
21.531,47.06
21.546,61.52
21.562,76.4
21.578,89.54
21.593,99.29
21.609,104.75
21.625,105.71
21.640,102.49
21.656,95.65
21.671,85.91
21.687,74.06
21.703,61.08
21.718,48.07
21.734,35.84
21.750,24.9
21.765,15.24
21.781,6.42
21.796,-2.17
21.812,-11.18
21.828,-21.1
21.843,-31.89
21.859,-42.79
21.875,-52.58
21.890,-59.83
21.906,-63.43
21.921,-62.9
21.937,-58.54
21.953,-51.22
21.968,-42.26
21.984,-33.0
22.000,-24.76
22.015,-18.64
22.031,-15.46
22.046,-15.68
22.062,-19.04
22.078,-24.7
22.093,-31.15
22.109,-36.7
22.125,-39.88
22.140,-39.79
22.156,-36.26
22.171,-29.68
22.187,-20.96
22.203,-10.94
22.218,-0.35
22.234,10.59
22.250,22.2
22.265,35.18
22.281,49.93
22.296,66.38
22.312,83.53
22.328,99.52
22.343,112.22
22.359,119.69
22.375,120.86
22.390,115.7
22.406,105.18
22.421,90.59
22.437,73.4
22.453,55.0
22.468,36.63
22.484,19.47
22.500,4.52
22.515,-7.58
22.531,-16.56
22.546,-22.62
22.562,-26.37
22.578,-28.84
22.593,-31.18
22.609,-34.48
22.625,-39.43
22.640,-45.95
22.656,-53.23
22.671,-59.83
22.687,-64.25
22.703,-65.29
22.718,-62.55
22.734,-56.53
22.750,-48.57
22.765,-40.3
22.781,-33.33
22.796,-28.97
22.812,-27.97
22.828,-30.47
22.843,-36.06
22.859,-43.75
22.875,-52.24
22.890,-60.32
22.906,-67.0
22.921,-71.77
22.937,-74.6
22.953,-75.85
22.968,-75.97
22.984,-75.53
23.000,-74.87
23.015,-74.1
23.031,-73.05
23.046,-71.02
23.062,-66.87
23.078,-59.3
23.093,-47.39
23.109,-31.0
23.125,-11.09
23.140,10.55
23.156,31.73
23.171,50.46
23.187,65.35
23.203,75.92
23.218,82.45
23.234,85.7
23.250,86.6
23.265,85.85
23.281,83.94
23.296,81.1
23.312,77.39
23.328,72.95
23.343,67.9
23.359,62.36
23.375,56.37
23.390,50.06
23.406,43.73
23.421,37.97
23.437,33.76
23.453,32.12
23.468,33.62
23.484,37.93
23.500,43.82
23.515,49.33
23.531,52.55
23.546,52.22
23.562,48.04
23.578,40.62
23.593,31.1
23.609,20.6
23.625,9.86
23.640,-0.8
23.656,-11.23
23.671,-21.23
23.687,-30.45
23.703,-38.45
23.718,-44.81
23.734,-49.3
23.750,-51.88
23.765,-52.84
23.781,-52.71
23.796,-51.87
23.812,-50.34
23.828,-47.71
23.843,-43.11
23.859,-35.52
23.875,-24.4
23.890,-9.9
23.906,6.98
23.921,24.6
23.937,40.97
23.953,54.37
23.968,63.58
23.984,67.93
24.000,67.62
24.015,63.38
24.031,56.5
24.046,48.54
24.062,41.3
24.078,36.26
24.093,34.44
24.109,36.1
24.125,40.6
24.140,46.54
24.156,51.85
24.171,54.54
24.187,53.34
24.203,48.37
24.218,41.11
24.234,33.82
24.250,28.77
24.265,27.23
24.281,29.2
24.296,33.47
24.312,38.33
24.328,42.09
24.343,43.58
24.359,42.36
24.375,38.34
24.390,31.62
24.406,22.49
24.421,11.33
24.437,-1.35
24.453,-14.82
24.468,-28.3
24.484,-41.11
24.500,-52.48
24.515,-61.86
24.531,-68.9
24.546,-73.67
24.562,-76.7
24.578,-78.86
24.593,-80.87
24.609,-83.0
24.625,-85.13
24.640,-86.58
24.656,-86.96
24.671,-86.39
24.687,-85.34
24.703,-84.39
24.718,-83.71
24.734,-82.87
24.750,-81.09
24.765,-78.12
24.781,-74.27
24.796,-70.53
24.812,-67.97
24.828,-66.98
24.843,-66.99
24.859,-66.71
24.875,-64.63
24.890,-59.68
24.906,-51.79
24.921,-41.61
24.937,-30.37
24.953,-19.39
24.968,-9.58
24.984,-1.37
25.000,5.35
25.015,11.44
25.031,17.93
25.046,25.79
25.062,35.63
25.078,47.27
25.093,59.71
25.109,71.52
25.125,80.88
25.140,86.06
25.156,85.93
25.171,79.9
25.187,68.33
25.203,52.5
25.218,34.54
25.234,16.89
25.250,2.07
25.265,-8.06
25.281,-12.78
25.296,-12.33
25.312,-8.11
25.328,-2.11
25.343,3.62
25.359,7.34
25.375,8.02
25.390,5.71
25.406,1.31
25.421,-3.74
25.437,-7.83
25.453,-9.92
25.468,-9.74
25.484,-7.48
25.500,-4.08
25.515,-0.47
25.531,2.51
25.546,4.32
25.562,4.69
25.578,3.8
25.593,2.02
25.609,-0.13
25.625,-2.02
25.640,-3.2
25.656,-3.45
25.671,-2.78
25.687,-1.41
25.703,0.31
25.718,2.22
25.734,4.32
25.750,6.86
25.765,10.33
25.781,15.31
25.796,22.31
25.812,31.52
25.828,42.54
25.843,54.36
25.859,65.6
25.875,74.85
25.890,81.06
25.906,83.69
25.921,82.59
25.937,78.0
25.953,70.5
25.968,60.85
25.984,50.02
26.000,39.06
26.015,28.96
26.031,20.38
26.046,13.6
26.062,8.56
26.078,4.89
26.093,2.1
26.109,-0.42
26.125,-3.15
26.140,-6.59
26.156,-10.78
26.171,-15.4
26.187,-19.73
26.203,-22.8
26.218,-23.8
26.234,-22.45
26.250,-19.14
26.265,-14.68
26.281,-10.18
26.296,-6.6
26.312,-4.56
26.328,-4.31
26.343,-5.8
26.359,-8.77
26.375,-12.88
26.390,-17.68
26.406,-22.57
26.421,-27.05
26.437,-30.65
26.453,-33.29
26.468,-35.17
26.484,-36.87
26.500,-39.11
26.515,-42.67
26.531,-48.1
26.546,-55.36
26.562,-63.85
26.578,-72.08
26.593,-78.28
26.609,-80.91
26.625,-79.11
26.640,-73.12
26.656,-64.03
26.671,-53.49
26.687,-43.04
26.703,-33.92
26.718,-26.72
26.734,-21.59
26.750,-18.42
26.765,-17.03
26.781,-17.06
26.796,-17.99
26.812,-19.09
26.828,-19.48
26.843,-18.43
26.859,-15.47
26.875,-10.72
26.890,-4.69
26.906,1.73
26.921,7.69
26.937,12.56
26.953,16.27
26.968,19.16
26.984,21.83
27.000,24.91
27.015,28.67
27.031,32.93
27.046,37.38
27.062,41.61
27.078,45.43
27.093,48.9
27.109,51.89
27.125,54.16
27.140,55.0
27.156,53.7
27.171,49.57
27.187,42.41
27.203,32.47
27.218,20.34
27.234,6.89
27.250,-7.05
27.265,-20.66
27.281,-33.26
27.296,-44.24
27.312,-53.26
27.328,-60.01
27.343,-64.23
27.359,-65.41
27.375,-63.09
27.390,-56.92
27.406,-47.04
27.421,-34.01
27.437,-18.89
27.453,-2.98
27.468,12.39
27.484,25.96
27.500,36.69
27.515,43.8
27.531,46.99
27.546,46.54
27.562,43.5
27.578,39.36
27.593,35.71
27.609,33.51
27.625,32.94
27.640,33.23
27.656,33.38
27.671,32.55
27.687,30.51
27.703,27.54
27.718,24.23
27.734,21.43
27.750,19.85
27.765,20.41
27.781,23.94
27.796,31.28
27.812,42.86
27.828,58.5
27.843,77.15
27.859,96.77
27.875,114.88
27.890,128.91
27.906,136.85
27.921,137.81
27.937,132.11
27.953,121.02
27.968,106.18
27.984,89.11
28.000,70.77
28.015,51.64
28.031,31.89
28.046,11.94
28.062,-7.66
28.078,-26.35
28.093,-43.69
28.109,-59.4
28.125,-73.07
28.140,-83.99
28.156,-91.16
28.171,-94.03
28.187,-92.77
28.203,-88.59
28.218,-83.39
28.234,-78.95
28.250,-76.27
28.265,-75.28
28.281,-75.19
28.296,-75.14
28.312,-74.81
28.328,-74.67
28.343,-75.49
28.359,-77.86
28.375,-81.75
28.390,-86.55
28.406,-91.36
28.421,-95.47
28.437,-98.55
28.453,-100.71
28.468,-102.27
28.484,-103.65
28.500,-105.05
28.515,-106.12
28.531,-106.14
28.546,-104.05
28.562,-98.74
28.578,-89.54
28.593,-76.56
28.609,-60.53
28.625,-42.77
28.640,-24.68
28.656,-7.32
28.671,8.69
28.687,22.9
28.703,34.87
28.718,44.16
28.734,50.41
28.750,53.7
28.765,54.67
28.781,54.35
28.796,53.74
28.812,53.53
28.828,53.77
28.843,54.01
28.859,53.52
28.875,51.7
28.890,48.39
28.906,44.16
28.921,40.17
28.937,37.95
28.953,38.81
28.968,43.36
28.984,51.27
29.000,61.14
29.015,71.03
29.031,79.1
29.046,84.06
29.062,85.47
29.078,83.6
29.093,78.94
29.109,72.0
29.125,62.99
29.140,51.93
29.156,38.69
29.171,23.33
29.187,6.15
29.203,-12.18
29.218,-30.77
29.234,-48.68
29.250,-65.05
29.265,-79.27
29.281,-90.76
29.296,-98.97
29.312,-103.07
29.328,-102.2
29.343,-95.68
29.359,-83.48
29.375,-66.22
29.390,-45.41
29.406,-22.93
29.421,-0.69
29.437,19.64
29.453,36.93
29.468,50.33
29.484,59.48
29.500,64.26
29.515,64.96
29.531,62.28
29.546,57.34
29.562,51.53
29.578,46.09
29.593,42.0
29.609,39.52
29.625,38.38
29.640,37.99
29.656,37.61
29.671,36.99
29.687,36.47
29.703,36.95
29.718,39.54
29.734,44.97
29.750,53.03
29.765,62.51
29.781,71.53
29.796,78.0
29.812,80.54
29.828,78.61
29.843,72.45
29.859,62.82
29.875,50.7
29.890,36.96
29.906,22.7
29.921,8.97
29.937,-3.28
29.953,-13.32
29.968,-20.94
29.984,-26.61
30.000,-31.17
30.015,-35.56
30.031,-40.72
30.046,-47.16
30.062,-54.93
30.078,-63.6
30.093,-72.16
30.109,-79.15
30.125,-83.22
30.140,-83.35
30.156,-79.39
30.171,-72.16
30.187,-63.0
30.203,-53.55
30.218,-45.08
30.234,-38.34
30.250,-33.57
30.265,-30.74
30.281,-29.54
30.296,-29.68
30.312,-30.74
30.328,-31.96
30.343,-32.67
30.359,-32.32
30.375,-30.62
30.390,-27.71
30.406,-24.02
30.421,-19.98
30.437,-15.97
30.453,-12.25
30.468,-8.59
30.484,-4.5
30.500,0.61
30.515,7.42
30.531,16.11
30.546,26.37
30.562,37.36
30.578,47.94
30.593,56.76
30.609,62.68
30.625,64.95
30.640,63.42
30.656,58.57
30.671,51.32
30.687,42.73
30.703,33.73
30.718,24.99
30.734,16.82
30.750,9.24
30.765,2.11
30.781,-4.7
30.796,-11.39
30.812,-18.26
30.828,-25.6
30.843,-33.58
30.859,-42.0
30.875,-50.19
30.890,-56.98
30.906,-61.24
30.921,-62.15
30.937,-59.54
30.953,-54.0
30.968,-46.63
30.984,-38.8
31.000,-31.82
31.015,-26.44
31.031,-22.87
31.046,-20.72
31.062,-19.27
31.078,-17.72
31.093,-15.48
31.109,-12.34
31.125,-8.48
31.140,-4.28
31.156,0.07
31.171,4.79
31.187,10.53
31.203,17.97
31.218,27.68
31.234,39.78
31.250,53.9
31.265,69.14
31.281,84.15
31.296,97.23
31.312,106.61
31.328,110.93
31.343,109.47
31.359,102.61
31.375,91.83
31.390,79.2
31.406,66.96
31.421,56.83
31.437,49.44
31.453,44.31
31.468,40.35
31.484,36.2
31.500,30.68
31.515,23.14
31.531,13.43
31.546,1.97
31.562,-10.45
31.578,-22.79
31.593,-34.06
31.609,-43.3
31.625,-49.99
31.640,-53.75
31.656,-54.38
31.671,-51.86
31.687,-46.3
31.703,-38.33
31.718,-29.17
31.734,-20.61
31.750,-14.28
31.765,-11.54
31.781,-12.79
31.796,-17.55
31.812,-24.82
31.828,-33.32
31.843,-41.89
31.859,-49.7
31.875,-56.0
31.890,-60.03
31.906,-61.34
31.921,-59.6
31.937,-54.92
31.953,-48.11
31.968,-40.4
31.984,-33.19
32.000,-27.71
32.015,-24.48
32.031,-22.92
32.046,-21.65
32.062,-18.57
32.078,-11.82
32.093,-0.64
32.109,14.53
32.125,31.84
32.140,48.79
32.156,63.0
32.171,72.89
32.187,77.73
32.203,77.72
32.218,73.73
32.234,66.67
32.250,57.79
32.265,48.25
32.281,39.04
32.296,30.82
32.312,23.76
32.328,17.35
32.343,10.72
32.359,2.93
32.375,-6.64
32.390,-17.87
32.406,-29.94
32.421,-41.63
32.437,-51.44
32.453,-58.23
32.468,-61.61
32.484,-61.83
32.500,-59.62
32.515,-55.94
32.531,-51.53
32.546,-46.9
32.562,-42.53
32.578,-38.92
32.593,-36.64
32.609,-36.25
32.625,-37.78
32.640,-40.68
32.656,-43.88
32.671,-46.16
32.687,-46.6
32.703,-45.0
32.718,-41.65
32.734,-37.18
32.750,-32.16
32.765,-26.84
32.781,-21.18
32.796,-15.06
32.812,-8.27
32.828,-0.59
32.843,8.2
32.859,18.25
32.875,29.58
32.890,41.92
32.906,54.77
32.921,67.42
32.937,79.08
32.953,89.08
32.968,96.79
32.984,101.61
33.000,103.07
33.015,100.94
33.031,95.28
33.046,86.6
33.062,75.74
33.078,63.74
33.093,51.65
33.109,40.34
33.125,30.32
33.140,21.63
33.156,14.07
33.171,7.34
33.187,1.17
33.203,-4.35
33.218,-8.78
33.234,-11.36
33.250,-11.43
33.265,-8.85
33.281,-4.26
33.296,1.05
33.312,5.54
33.328,7.91
33.343,7.53
33.359,4.46
33.375,-0.79
33.390,-7.5
33.406,-15.02
33.421,-22.94
33.437,-30.79
33.453,-38.05
33.468,-44.21
33.484,-48.75
33.500,-51.27
33.515,-51.73
33.531,-50.32
33.546,-47.42
33.562,-43.73
33.578,-39.8
33.593,-35.83
33.609,-31.44
33.625,-25.59
33.640,-17.0
33.656,-4.69
33.671,11.44
33.687,30.67
33.703,51.26
33.718,71.19
33.734,88.45
33.750,101.55
33.765,109.42
33.781,111.28
33.796,106.76
33.812,95.99
33.828,79.97
33.843,60.58
33.859,40.25
33.875,21.3
33.890,5.16
33.906,-7.87
33.921,-18.77
33.937,-29.04
33.953,-40.03
33.968,-52.21
33.984,-65.07
34.000,-77.3
34.015,-87.16
34.031,-93.35
34.046,-95.08
34.062,-92.71
34.078,-87.49
34.093,-81.07
34.109,-75.01
34.125,-70.14
34.140,-66.41
34.156,-62.99
34.171,-59.19
34.187,-54.61
34.203,-49.69
34.218,-45.26
34.234,-42.07
34.250,-40.39
34.265,-39.73
34.281,-39.22
34.296,-37.98
34.312,-35.67
34.328,-32.35
34.343,-28.24
34.359,-23.29
34.375,-16.83
34.390,-7.79
34.406,4.77
34.421,21.24
34.437,41.18
34.453,63.27
34.468,85.88
34.484,107.61
34.500,127.49
34.515,145.0
34.531,159.53
34.546,170.21
34.562,175.77
34.578,175.3
34.593,168.6
34.609,156.49
34.625,140.4
34.640,121.7
34.656,101.26
34.671,79.04
34.687,54.7
34.703,27.92
34.718,-0.99
34.734,-30.96
34.750,-60.3
34.765,-87.07
34.781,-109.4
34.796,-125.56
34.812,-134.41
34.828,-135.6
34.843,-129.91
34.859,-119.2
34.875,-106.2
34.890,-93.65
34.906,-83.61
34.921,-76.9
34.937,-72.83
34.953,-69.7
34.968,-65.58
34.984,-59.26
35.000,-50.65
35.015,-40.86
35.031,-31.58
35.046,-24.28
35.062,-19.91
35.078,-18.46
35.093,-19.54
35.109,-22.57
35.125,-27.12
35.140,-32.7
35.156,-38.53
35.171,-43.31
35.187,-45.37
35.203,-43.28
35.218,-36.24
35.234,-24.67
35.250,-10.07
35.265,5.43
35.281,19.8
35.296,31.55
35.312,40.02
35.328,45.25
35.343,47.53
35.359,47.43
35.375,45.49
35.390,42.24
35.406,38.11
35.421,33.36
35.437,27.93
35.453,21.4
35.468,13.3
35.484,3.34
35.500,-8.19
35.515,-19.99
35.531,-29.88
35.546,-35.15
35.562,-33.31
35.578,-22.91
35.593,-4.25
35.609,20.46
35.625,47.59
35.640,72.76
35.656,91.98
35.671,102.35
35.687,102.45
35.703,92.32
35.718,73.43
35.734,48.13
35.750,19.33
35.765,-9.94
35.781,-37.03
35.796,-59.95
35.812,-77.58
35.828,-89.57
35.843,-96.38
35.859,-98.84
35.875,-98.08
35.890,-95.35
35.906,-91.74
35.921,-87.99
35.937,-84.12
35.953,-79.58
35.968,-73.38
35.984,-64.66
36.000,-53.22
36.015,-39.6
36.031,-24.81
36.046,-9.85
36.062,4.62
36.078,18.32
36.093,31.11
36.109,42.59
36.125,52.13
36.140,59.04
36.156,63.03
36.171,64.6
36.187,65.13
36.203,66.21
36.218,69.11
36.234,74.11
36.250,80.21
36.265,85.44
36.281,87.72
36.296,85.46
36.312,78.38
36.328,67.77
36.343,55.94
36.359,45.39
36.375,37.87
36.390,33.87
36.406,32.42
36.421,31.93
36.437,30.61
36.453,27.31
36.468,21.49
36.484,13.36
36.500,3.52
36.515,-7.27
36.531,-18.23
36.546,-28.73
36.562,-38.17
36.578,-46.29
36.593,-52.93
36.609,-58.28
36.625,-62.68
36.640,-66.43
36.656,-69.73
36.671,-72.81
36.687,-75.75
36.703,-78.25
36.718,-79.74
36.734,-79.29
36.750,-76.03
36.765,-69.54
36.781,-60.18
36.796,-48.98
36.812,-37.46
36.828,-27.21
36.843,-19.41
36.859,-14.59
36.875,-12.6
36.890,-12.89
36.906,-14.77
36.921,-17.39
36.937,-20.02
36.953,-21.95
36.968,-22.62
36.984,-21.56
37.000,-18.74
37.015,-14.39
37.031,-9.05
37.046,-3.6
37.062,1.34
37.078,5.36
37.093,8.81
37.109,12.8
37.125,18.77
37.140,27.9
37.156,40.5
37.171,55.7
37.187,71.71
37.203,86.35
37.218,97.69
37.234,104.47
37.250,106.19
37.265,103.06
37.281,95.56
37.296,84.5
37.312,70.9
37.328,56.12
37.343,41.61
37.359,28.52
37.375,17.55
37.390,8.59
37.406,0.96
37.421,-6.51
37.437,-14.91
37.453,-24.86
37.468,-36.33
37.484,-48.32
37.500,-59.21
37.515,-67.25
37.531,-71.0
37.546,-69.9
37.562,-64.42
37.578,-55.73
37.593,-45.47
37.609,-35.32
37.625,-26.67
37.640,-20.44
37.656,-17.08
37.671,-16.42
37.687,-17.76
37.703,-20.17
37.718,-22.42
37.734,-23.55
37.750,-23.1
37.765,-21.04
37.781,-17.64
37.796,-13.32
37.812,-8.31
37.828,-2.41
37.843,4.84
37.859,14.24
37.875,26.65
37.890,42.62
37.906,62.13
37.921,84.07
37.937,106.29
37.953,125.88
37.968,139.82
37.984,145.66
38.000,142.36
38.015,130.36
38.031,111.55
38.046,88.94
38.062,65.58
38.078,43.97
38.093,25.56
38.109,10.61
38.125,-1.54
38.140,-11.79
38.156,-21.01
38.171,-29.62
38.187,-37.61
38.203,-44.84
38.218,-51.2
38.234,-56.42
38.250,-60.01
38.265,-61.12
38.281,-58.63
38.296,-51.93
38.312,-41.29
38.328,-28.05
38.343,-14.43
38.359,-2.7
38.375,5.33
38.390,8.81
38.406,7.83
38.421,3.06
38.437,-4.53
38.453,-14.05
38.468,-24.61
38.484,-35.46
38.500,-45.78
38.515,-54.7
38.531,-61.57
38.546,-65.94
38.562,-67.87
38.578,-67.82
38.593,-66.55
38.609,-64.77
38.625,-62.78
38.640,-60.18
38.656,-55.96
38.671,-48.83
38.687,-37.8
38.703,-22.85
38.718,-4.95
38.734,13.97
38.750,31.74
38.765,46.39
38.781,56.87
38.796,62.85
38.812,64.74
38.828,63.44
38.843,59.82
38.859,55.01
38.875,49.89
38.890,45.52
38.906,42.52
38.921,41.07
38.937,40.75
38.953,40.42
38.968,38.87
38.984,35.1
39.000,29.13
39.015,21.92
39.031,15.18
39.046,10.71
39.062,9.52
39.078,11.37
39.093,14.92
39.109,18.4
39.125,20.28
39.140,19.92
39.156,17.41
39.171,13.13
39.187,7.43
39.203,0.3
39.218,-8.45
39.234,-18.8
39.250,-29.98
39.265,-40.75
39.281,-49.57
39.296,-55.26
39.312,-57.47
39.328,-56.61
39.343,-53.76
39.359,-50.01
39.375,-46.36
39.390,-43.14
39.406,-40.29
39.421,-37.31
39.437,-33.57
39.453,-28.64
39.468,-22.3
39.484,-14.76
39.500,-6.31
39.515,2.61
39.531,11.66
39.546,20.4
39.562,28.37
39.578,34.99
39.593,39.76
39.609,42.53
39.625,43.63
39.640,43.91
39.656,44.36
39.671,45.81
39.687,48.47
39.703,52.02
39.718,55.55
39.734,57.93
39.750,58.31
39.765,56.34
39.781,52.37
39.796,47.4
39.812,42.74
39.828,39.4
39.843,37.8
39.859,37.67
39.875,38.22
39.890,38.57
39.906,38.11
39.921,36.36
39.937,33.1
39.953,28.11
39.968,21.12
39.984,12.0
40.000,0.9
40.015,-11.55
40.031,-24.33
40.046,-36.24
40.062,-46.29
40.078,-53.8
40.093,-58.58
40.109,-60.92
40.125,-61.35
40.140,-60.64
40.156,-59.47
40.171,-58.23
40.187,-56.86
40.203,-54.78
40.218,-51.29
40.234,-46.0
40.250,-39.01
40.265,-31.13
40.281,-23.67
40.296,-17.88
40.312,-14.47
40.328,-13.52
40.343,-14.45
40.359,-16.45
40.375,-18.82
40.390,-21.05
40.406,-22.63
40.421,-23.19
40.437,-22.37
40.453,-19.76
40.468,-15.34
40.484,-9.33
40.500,-2.42
40.515,4.41
40.531,10.23
40.546,14.61
40.562,17.93
40.578,21.33
40.593,26.32
40.609,33.84
40.625,44.08
40.640,55.99
40.656,67.71
40.671,77.21
40.687,82.84
40.703,83.81
40.718,80.21
40.734,72.76
40.750,62.41
40.765,50.34
40.781,37.61
40.796,25.11
40.812,13.48
40.828,3.03
40.843,-6.32
40.859,-14.83
40.875,-22.78
40.890,-30.48
40.906,-37.84
40.921,-44.41
40.937,-49.35
40.953,-51.52
40.968,-49.96
40.984,-44.31
41.000,-35.09
41.015,-23.66
41.031,-11.88
41.046,-1.46
41.062,6.5
41.078,11.71
41.093,14.67
41.109,16.04
41.125,16.37
41.140,15.85
41.156,14.31
41.171,11.52
41.187,7.45
41.203,2.58
41.218,-2.45
41.234,-6.63
41.250,-9.28
41.265,-9.91
41.281,-8.4
41.296,-4.83
41.312,0.58
41.328,7.59
41.343,16.01
41.359,25.6
41.375,36.28
41.390,47.84
41.406,60.06
41.421,72.33
41.437,83.72
41.453,92.71
41.468,97.6
41.484,96.79
41.500,89.4
41.515,75.64
41.531,56.87
41.546,35.31
41.562,13.4
41.578,-6.79
41.593,-23.98
41.609,-37.69
41.625,-48.01
41.640,-55.38
41.656,-60.53
41.671,-64.23
41.687,-67.29
41.703,-70.06
41.718,-72.39
41.734,-73.52
41.750,-72.4
41.765,-68.31
41.781,-61.32
41.796,-52.36
41.812,-42.9
41.828,-34.47
41.843,-28.17
41.859,-24.64
41.875,-24.15
41.890,-26.72
41.906,-32.12
41.921,-39.98
41.937,-49.29
41.953,-58.71
41.968,-66.78
41.984,-72.49
42.000,-75.55
42.015,-76.65
42.031,-76.93
42.046,-77.57
42.062,-79.35
42.078,-82.12
42.093,-84.8
42.109,-85.64
42.125,-82.89
42.140,-75.3
42.156,-63.0
42.171,-47.18
42.187,-29.98
42.203,-13.66
42.218,0.26
42.234,11.05
42.250,18.99
42.265,24.68
42.281,28.87
42.296,31.93
42.312,34.18
42.328,35.76
42.343,36.95
42.359,38.16
42.375,39.57
42.390,41.18
42.406,42.67
42.421,43.63
42.437,43.67
42.453,42.9
42.468,41.92
42.484,41.8
42.500,43.71
42.515,48.3
42.531,55.32
42.546,63.68
42.562,71.79
42.578,78.09
42.593,81.69
42.609,82.49
42.625,80.82
42.640,77.23
42.656,71.82
42.671,64.31
42.687,54.39
42.703,41.93
42.718,27.39
42.734,11.64
42.750,-4.22
42.765,-19.32
42.781,-33.01
42.796,-44.94
42.812,-54.97
42.828,-62.93
42.843,-68.52
42.859,-71.37
42.875,-70.97
42.890,-66.94
42.906,-59.18
42.921,-48.01
42.937,-34.11
42.953,-18.52
42.968,-2.4
42.984,13.25
43.000,27.51
43.015,39.73
43.031,49.37
43.046,56.16
43.062,60.13
43.078,61.89
43.093,62.51
43.109,63.35
43.125,65.58
43.140,69.71
43.156,75.46
43.171,81.69
43.187,86.97
43.203,89.87
43.218,89.73
43.234,86.74
43.250,82.07
43.265,77.2
43.281,73.48
43.296,71.57
43.312,71.07
43.328,70.88
43.343,69.44
43.359,65.43
43.375,58.09
43.390,47.3
43.406,33.39
43.421,16.77
43.437,-1.95
43.453,-22.06
43.468,-42.45
43.484,-61.77
43.500,-78.68
43.515,-92.29
43.531,-102.57
43.546,-110.09
43.562,-116.17
43.578,-122.04
43.593,-128.65
43.609,-136.08
43.625,-143.46
43.640,-149.05
43.656,-150.65
43.671,-146.45
43.687,-135.42
43.703,-118.01
43.718,-95.94
43.734,-71.85
43.750,-48.45
43.765,-27.97
43.781,-11.82
43.796,-0.59
43.812,5.8
43.828,8.05
43.843,7.39
43.859,5.42
43.875,3.78
43.890,3.79
43.906,6.09
43.921,10.45
43.937,16.03
43.953,21.72
43.968,26.68
43.984,30.51
44.000,33.48
44.015,36.54
44.031,40.94
44.046,47.93
44.062,57.93
44.078,70.37
44.093,83.6
44.109,95.55
44.125,104.31
44.140,108.87
44.156,109.41
44.171,107.02
44.187,103.17
44.203,99.09
44.218,95.39
44.234,92.01
44.250,88.42
44.265,83.74
44.281,76.83
44.296,66.51
44.312,51.79
44.328,32.23
44.343,8.16
44.359,-19.59
44.375,-50.06
44.390,-82.46
44.406,-116.18
44.421,-150.35
44.437,-183.36
44.453,-212.89
44.468,-236.13
44.484,-250.76
44.500,-255.96
44.515,-252.83
44.531,-244.01
44.546,-232.67
44.562,-221.3
44.578,-211.08
44.593,-201.81
44.609,-192.06
44.625,-179.8
44.640,-163.18
44.656,-141.03
44.671,-113.39
44.687,-81.72
44.703,-48.27
44.718,-15.71
44.734,13.51
44.750,37.82
44.765,56.74
44.781,70.71
44.796,81.24
44.812,90.55
44.828,101.04
44.843,114.71
44.859,132.51
44.875,153.74
44.890,176.17
44.906,196.78
44.921,212.47
44.937,221.15
44.953,222.08
44.968,215.89
44.984,204.3
45.000,189.52
45.015,173.75
45.031,158.57
45.046,144.73
45.062,131.97
45.078,119.25
45.093,105.38
45.109,89.27
45.125,70.59
45.140,49.84
45.156,28.47
45.171,8.5
45.187,-7.84
45.203,-18.58
45.218,-22.66
45.234,-20.15
45.250,-12.36
45.265,-1.45
45.281,10.21
45.296,20.5
45.312,28.05
45.328,32.37
45.343,33.6
45.359,32.37
45.375,29.36
45.390,25.12
45.406,20.0
45.421,14.34
45.437,8.53
45.453,2.95
45.468,-1.94
45.484,-5.96
45.500,-9.02
45.515,-11.29
45.531,-12.91
45.546,-14.01
45.562,-14.27
45.578,-13.04
45.593,-9.62
45.609,-3.59
45.625,4.72
45.640,14.29
45.656,23.53
45.671,31.12
45.687,36.0
45.703,37.72
45.718,36.18
45.734,31.38
45.750,23.1
45.765,10.89
45.781,-5.53
45.796,-26.33
45.812,-51.22
45.828,-79.73
45.843,-111.21
45.859,-144.86
45.875,-179.57
45.890,-214.08
45.906,-247.05
45.921,-277.01
45.937,-302.32
45.953,-321.05
45.968,-330.84
45.984,-329.37
46.000,-315.12
46.015,-288.26
46.031,-250.89
46.046,-206.91
46.062,-161.03
46.078,-117.4
46.093,-78.82
46.109,-46.37
46.125,-19.81
46.140,1.85
46.156,19.51
46.171,33.83
46.187,45.14
46.203,53.67
46.218,59.63
46.234,63.4
46.250,65.42
46.265,65.77
46.281,64.41
46.296,61.07
46.312,55.6
46.328,48.23
46.343,39.8
46.359,31.6
46.375,25.12
46.390,21.57
46.406,21.18
46.421,23.42
46.437,27.16
46.453,31.17
46.468,34.71
46.484,37.68
46.500,40.51
46.515,43.92
46.531,48.75
46.546,55.74
46.562,65.54
46.578,78.35
46.593,93.85
46.609,110.85
46.625,127.4
46.640,141.08
46.656,149.62
46.671,151.5
46.687,146.24
46.703,134.68
46.718,118.69
46.734,101.05
46.750,85.15
46.765,74.27
46.781,70.78
46.796,75.6
46.812,87.95
46.828,105.47
46.843,124.98
46.859,143.12
46.875,157.02
46.890,164.99
46.906,166.64
46.921,162.63
46.937,154.6
46.953,144.52
46.968,134.26
46.984,125.22
47.000,117.88
47.015,111.89
47.031,106.34
47.046,100.33
47.062,93.34
47.078,85.58
47.093,78.03
47.109,72.07
47.125,69.01
47.140,69.5
47.156,73.02
47.171,77.75
47.187,80.71
47.203,78.54
47.218,68.22
47.234,47.86
47.250,17.37
47.265,-21.69
47.281,-66.35
47.296,-112.89
47.312,-157.58
47.328,-197.48
47.343,-230.69
47.359,-256.68
47.375,-276.16
47.390,-290.63
47.406,-301.78
47.421,-310.96
47.437,-318.71
47.453,-324.78
47.468,-328.52
47.484,-329.26
47.500,-326.51
47.515,-319.89
47.531,-308.72
47.546,-291.93
47.562,-268.58
47.578,-238.47
47.593,-202.87
47.609,-164.46
47.625,-126.96
47.640,-93.9
47.656,-67.43
47.671,-47.76
47.687,-33.24
47.703,-21.32
47.718,-9.77
47.734,2.63
47.750,15.95
47.765,29.59
47.781,42.97
47.796,55.92
47.812,68.93
47.828,82.72
47.843,97.87
47.859,114.44
47.875,131.82
47.890,149.27
47.906,166.01
47.921,181.78
47.937,196.32
47.953,209.5
47.968,220.67
47.984,228.8
48.000,232.54
48.015,230.53
48.031,221.94
48.046,206.78
48.062,186.06
48.078,161.34
48.093,134.73
48.109,107.97
48.125,82.52
48.140,58.87
48.156,36.91
48.171,15.89
48.187,-4.9
48.203,-25.78
48.218,-46.73
48.234,-67.17
48.250,-86.43
48.265,-103.49
48.281,-117.14
48.296,-125.78
48.312,-127.89
48.328,-122.38
48.343,-109.01
48.359,-88.92
48.375,-64.39
48.390,-38.25
48.406,-13.18
48.421,8.95
48.437,27.33
48.453,42.0
48.468,53.41
48.484,62.18
48.500,68.59
48.515,72.54
48.531,73.64
48.546,71.58
48.562,66.59
48.578,59.38
48.593,51.31
48.609,43.46
48.625,36.67
48.640,31.03
48.656,26.48
48.671,23.14
48.687,21.47
48.703,22.22
48.718,25.62
48.734,31.07
48.750,36.78
48.765,40.66
48.781,40.93
48.796,37.01
48.812,29.51
48.828,19.67
48.843,8.84
48.859,-1.98
48.875,-12.08
48.890,-21.14
48.906,-28.81
48.921,-35.16
48.937,-40.41
48.953,-45.08
48.968,-50.14
48.984,-56.44
49.000,-64.65
49.015,-74.92
49.031,-86.89
49.046,-99.61
49.062,-111.69
49.078,-121.5
49.093,-127.23
49.109,-127.59
49.125,-121.84
49.140,-110.06
49.156,-93.18
49.171,-72.65
49.187,-50.26
49.203,-27.97
49.218,-7.64
49.234,9.43
49.250,22.6
49.265,32.18
49.281,39.32
49.296,45.44
49.312,51.64
49.328,58.36
49.343,65.13
49.359,70.85
49.375,74.44
49.390,75.15
49.406,73.03
49.421,68.66
49.437,63.16
49.453,57.95
49.468,54.52
49.484,54.07
49.500,57.35
49.515,64.43
49.531,74.59
49.546,86.66
49.562,99.35
49.578,111.29
49.593,121.5
49.609,129.36
49.625,134.52
49.640,137.03
49.656,137.36
49.671,136.3
49.687,134.8
49.703,133.89
49.718,134.0
49.734,135.03
49.750,136.45
49.765,137.4
49.781,136.93
49.796,134.31
49.812,129.18
49.828,121.94
49.843,113.94
49.859,107.21
49.875,103.83
49.890,104.91
49.906,109.63
49.921,114.67
49.937,115.23
49.953,106.49
49.968,85.85
49.984,54.07
50.000,15.43
50.015,-23.86
50.031,-57.7
50.046,-82.04
50.062,-95.76
50.078,-99.88
50.093,-96.65
50.109,-88.31
50.125,-77.23
50.140,-65.94
50.156,-57.74
50.171,-56.75
50.187,-67.48
50.203,-93.54
50.218,-136.52
50.234,-195.39
50.250,-265.41
50.265,-338.83
50.281,-405.93
50.296,-457.26
50.312,-486.1
50.328,-490.37
50.343,-472.82
50.359,-439.82
50.375,-399.42
50.390,-358.42
50.406,-320.98
50.421,-288.27
50.437,-258.98
50.453,-230.88
50.468,-201.75
50.484,-170.12
50.500,-135.09
50.515,-96.66
50.531,-55.35
50.546,-12.36
50.562,30.32
50.578,70.33
50.593,105.44
50.609,134.61
50.625,158.23
50.640,178.08
50.656,196.34
50.671,214.62
50.687,232.83
50.703,249.32
50.718,261.57
50.734,266.91
50.750,263.57
50.765,251.02
50.781,230.18
50.796,203.21
50.812,173.1
50.828,143.0
50.843,115.39
50.859,91.9
50.875,72.85
50.890,57.66
50.906,45.3
50.921,34.69
50.937,24.91
50.953,15.4
50.968,5.98
50.984,-3.31
51.000,-11.53
51.015,-17.55
51.031,-20.03
51.046,-18.16
51.062,-12.08
51.078,-2.91
51.093,7.6
51.109,17.89
51.125,26.77
51.140,34.09
51.156,40.08
51.171,45.05
51.187,49.11
51.203,52.12
51.218,53.85
51.234,54.17
51.250,53.29
51.265,51.62
51.281,49.91
51.296,48.93
51.312,49.02
51.328,49.86
51.343,49.94
51.359,46.77
51.375,37.45
51.390,19.59
51.406,-7.51
51.421,-42.04
51.437,-79.83
51.453,-115.43
51.468,-143.33
51.484,-159.76
51.500,-163.23
51.515,-154.51
51.531,-136.1
51.546,-111.47
51.562,-84.29
51.578,-57.91
51.593,-35.18
51.609,-17.87
51.625,-6.76
51.640,-1.52
51.656,-0.86
51.671,-3.07
51.687,-6.58
51.703,-10.5
51.718,-14.65
51.734,-19.49
51.750,-25.37
51.765,-31.99
51.781,-38.01
51.796,-41.17
51.812,-39.07
51.828,-30.24
51.843,-14.92
51.859,4.62
51.875,24.81
51.890,41.96
51.906,53.29
51.921,57.51
51.937,54.75
51.953,45.99
51.968,32.52
51.984,15.78
52.000,-2.76
52.015,-21.54
52.031,-38.9
52.046,-53.48
52.062,-64.51
52.078,-71.82
52.093,-75.71
52.109,-76.69
52.125,-74.63
52.140,-68.72
52.156,-57.49
52.171,-39.19
52.187,-12.57
52.203,22.49
52.218,64.66
52.234,111.24
52.250,158.57
52.265,202.95
52.281,241.19
52.296,271.0
52.312,291.28
52.328,301.92
52.343,303.55
52.359,297.43
52.375,285.14
52.390,268.33
52.406,248.55
52.421,226.94
52.437,203.81
52.453,178.65
52.468,150.28
52.484,117.43
52.500,79.34
52.515,36.53
52.531,-9.2
52.546,-54.73
52.562,-96.53
52.578,-131.39
52.593,-157.36
52.609,-174.18
52.625,-182.93
52.640,-185.7
52.656,-184.81
52.671,-182.43
52.687,-180.3
52.703,-179.83
52.718,-182.05
52.734,-187.65
52.750,-196.71
52.765,-208.26
52.781,-220.32
52.796,-230.29
52.812,-235.95
52.828,-236.21
52.843,-231.89
52.859,-225.49
52.875,-220.58
52.890,-220.58
52.906,-227.45
52.921,-240.66
52.937,-257.16
52.953,-271.99
52.968,-279.69
52.984,-275.83
53.000,-258.12
53.015,-226.68
53.031,-183.97
53.046,-133.8
53.062,-80.83
53.078,-29.59
53.093,16.1
53.109,53.65
53.125,82.2
53.140,102.47
53.156,116.43
53.171,126.01
53.187,132.56
53.203,135.77
53.218,134.35
53.234,126.57
53.250,111.1
53.265,87.93
53.281,58.62
53.296,26.24
53.312,-5.06
53.328,-30.63
53.343,-46.64
53.359,-50.74
53.375,-42.86
53.390,-25.28
53.406,-1.95
53.421,22.61
53.437,44.37
53.453,60.64
53.468,70.24
53.484,73.27
53.500,70.87
53.515,64.59
53.531,56.18
53.546,47.32
53.562,39.1
53.578,32.05
53.593,25.87
53.609,19.75
53.625,12.82
53.640,4.64
53.656,-4.5
53.671,-13.53
53.687,-20.59
53.703,-23.86
53.718,-21.58
53.734,-12.72
53.750,2.95
53.765,24.81
53.781,51.46
53.796,80.81
53.812,110.52
53.828,138.46
53.843,162.77
53.859,182.45
53.875,197.06
53.890,206.68
53.906,211.49
53.921,211.55
53.937,206.55
53.953,196.15
53.968,180.25
53.984,159.07
54.000,133.46
54.015,104.44
54.031,73.12
54.046,40.6
54.062,8.22
54.078,-22.17
54.093,-47.94
54.109,-66.29
54.125,-74.99
54.140,-73.1
54.156,-61.65
54.171,-43.27
54.187,-21.51
54.203,0.13
54.218,18.8
54.234,32.85
54.250,41.51
54.265,44.9
54.281,43.94
54.296,39.82
54.312,33.96
54.328,27.74
54.343,22.11
54.359,17.56
54.375,14.13
54.390,11.35
54.406,8.6
54.421,5.21
54.437,0.83
54.453,-4.44
54.468,-9.79
54.484,-13.78
54.500,-14.76
54.515,-11.37
54.531,-3.2
54.546,8.91
54.562,23.21
54.578,37.49
54.593,49.93
54.609,59.34
54.625,65.24
54.640,67.58
54.656,66.44
54.671,62.11
54.687,54.91
54.703,45.49
54.718,34.63
54.734,23.27
54.750,12.01
54.765,1.02
54.781,-10.23
54.796,-22.97
54.812,-38.68
54.828,-58.72
54.843,-83.5
54.859,-112.28
54.875,-142.94
54.890,-172.53
54.906,-197.76
54.921,-215.74
54.937,-224.38
54.953,-222.51
54.968,-210.27
54.984,-188.99
55.000,-161.42
55.015,-131.1
55.031,-101.87
55.046,-76.95
55.062,-58.45
55.078,-47.33
55.093,-43.41
55.109,-45.95
55.125,-53.67
55.140,-65.1
55.156,-78.6
55.171,-92.66
55.187,-106.13
55.203,-118.39
55.218,-129.22
55.234,-138.01
55.250,-143.55
55.265,-143.83
55.281,-136.45
55.296,-119.88
55.312,-94.13
55.328,-61.24
55.343,-24.6
55.359,11.95
55.375,45.4
55.390,74.1
55.406,97.61
55.421,116.48
55.437,131.39
55.453,143.09
55.468,152.47
55.484,160.59
55.500,168.5
55.515,176.85
55.531,185.34
55.546,192.51
55.562,196.33
55.578,194.79
55.593,186.71
55.609,172.45
55.625,154.04
55.640,134.62
55.656,117.76
55.671,106.13
55.687,100.77
55.703,100.84
55.718,103.83
55.734,106.53
55.750,106.17
55.765,101.13
55.781,91.36
55.796,78.16
55.812,63.31
55.828,48.56
55.843,35.02
55.859,23.11
55.875,12.67
55.890,3.47
55.906,-4.69
55.921,-11.97
55.937,-18.45
55.953,-24.63
55.968,-31.16
55.984,-38.81
56.000,-47.94
56.015,-58.16
56.031,-68.06
56.046,-75.69
56.062,-79.24
56.078,-77.46
56.093,-70.19
56.109,-58.35
56.125,-43.52
56.140,-27.7
56.156,-12.92
56.171,-0.92
56.187,6.91
56.203,9.8
56.218,7.81
56.234,1.8
56.250,-6.83
56.265,-16.41
56.281,-25.67
56.296,-33.79
56.312,-40.7
56.328,-46.74
56.343,-52.5
56.359,-58.41
56.375,-64.28
56.390,-69.2
56.406,-71.48
56.421,-69.2
56.437,-60.75
56.453,-45.65
56.468,-24.84
56.484,-0.64
56.500,23.98
56.515,46.0
56.531,63.13
56.546,73.89
56.562,77.56
56.578,73.98
56.593,63.33
56.609,46.38
56.625,24.52
56.640,-0.04
56.656,-24.63
56.671,-46.61
56.687,-63.93
56.703,-75.74
56.718,-82.13
56.734,-84.14
56.750,-83.27
56.765,-80.83
56.781,-77.64
56.796,-73.75
56.812,-68.63
56.828,-61.41
56.843,-51.44
56.859,-38.56
56.875,-23.45
56.890,-7.55
56.906,7.12
56.921,18.43
56.937,24.46
56.953,23.93
56.968,16.74
56.984,4.01
57.000,-11.81
57.015,-27.55
57.031,-39.92
57.046,-46.69
57.062,-47.1
57.078,-42.0
57.093,-33.55
57.109,-24.18
57.125,-15.74
57.140,-8.75
57.156,-2.11
57.171,6.55
57.187,20.24
57.203,41.34
57.218,70.92
57.234,107.99
57.250,149.6
57.265,191.39
57.281,228.63
57.296,257.19
57.312,274.27
57.328,278.82
57.343,271.15
57.359,252.91
57.375,226.37
57.390,194.28
57.406,159.34
57.421,123.98
57.437,90.11
57.453,58.91
57.468,30.81
57.484,5.58
57.500,-17.32
57.515,-38.76
57.531,-59.18
57.546,-78.41
57.562,-95.48
57.578,-108.55
57.593,-115.34
57.609,-113.98
57.625,-103.94
57.640,-86.15
57.656,-63.16
57.671,-38.51
57.687,-15.65
57.703,2.57
57.718,14.51
57.734,19.66
57.750,18.39
57.765,11.61
57.781,0.64
57.796,-12.95
57.812,-27.64
57.828,-42.03
57.843,-55.34
57.859,-67.17
57.875,-77.52
57.890,-86.74
57.906,-95.32
57.921,-103.9
57.937,-113.06
57.953,-123.0
57.968,-133.3
57.984,-142.71
58.000,-149.2
58.015,-150.29
58.031,-143.75
58.046,-128.13
58.062,-103.08
58.078,-69.59
58.093,-29.74
58.109,13.33
58.125,55.73
58.140,93.31
58.156,122.37
58.171,140.48
58.187,146.9
58.203,142.6
58.218,129.87
58.234,111.45
58.250,89.74
58.265,66.57
58.281,42.92
58.296,19.26
58.312,-4.27
58.328,-27.44
58.343,-49.79
58.359,-70.1
58.375,-86.32
58.390,-96.16
58.406,-97.63
58.421,-90.36
58.437,-75.91
58.453,-57.64
58.468,-39.71
58.484,-25.58
58.500,-17.12
58.515,-14.26
58.531,-15.59
58.546,-19.26
58.562,-23.82
58.578,-28.47
58.593,-32.81
58.609,-36.65
58.625,-39.56
58.640,-41.11
58.656,-41.24
58.671,-40.64
58.687,-40.46
58.703,-42.33
58.718,-47.4
58.734,-55.6
58.750,-65.58
58.765,-74.72
58.781,-80.04
58.796,-79.29
58.812,-71.75
58.828,-58.21
58.843,-40.92
58.859,-22.61
58.875,-5.46
58.890,9.4
58.906,22.25
58.921,34.26
58.937,46.79
58.953,60.72
58.968,76.17
58.984,92.4
59.000,108.34
59.015,122.94
59.031,135.47
59.046,145.45
59.062,152.27
59.078,155.08
59.093,152.89
59.109,145.13
59.125,132.08
59.140,115.35
59.156,97.57
59.171,81.43
59.187,68.79
59.203,59.94
59.218,53.9
59.234,49.04
59.250,44.04
59.265,38.39
59.281,32.46
59.296,26.98
59.312,22.27
59.328,18.23
59.343,14.38
59.359,10.39
59.375,6.2
59.390,2.09
59.406,-1.76
59.421,-5.48
59.437,-9.58
59.453,-14.97
59.468,-22.48
59.484,-32.54
59.500,-44.89
59.515,-58.7
59.531,-72.43
59.546,-84.4
59.562,-93.12
59.578,-97.68
59.593,-97.99
59.609,-94.58
59.625,-88.27
59.640,-79.97
59.656,-70.65
59.671,-61.25
59.687,-53.04
59.703,-47.42
59.718,-45.46
59.734,-47.69
59.750,-53.51
59.765,-61.33
59.781,-69.17
59.796,-75.44
59.812,-79.53
59.828,-81.92
59.843,-83.82
59.859,-86.38
59.875,-90.25
59.890,-94.99
59.906,-99.02
59.921,-99.88
59.937,-95.09
59.953,-82.73
59.968,-62.29
59.984,-34.72
