timestamp,value
00.000,-40.24
00.015,9.09
00.031,26.78
00.046,13.09
00.062,-27.83
00.078,-88.99
00.093,-161.03
00.109,-232.87
00.125,-292.6
00.140,-330.22
00.156,-341.26
00.171,-327.78
00.187,-296.05
00.203,-252.67
00.218,-201.57
00.234,-143.77
00.250,-78.85
00.265,-6.9
00.281,70.65
00.296,148.99
00.312,222.7
00.328,288.13
00.343,343.87
00.359,389.62
00.375,424.35
00.390,446.0
00.406,452.17
00.421,440.95
00.437,407.5
00.453,345.26
00.468,248.41
00.484,115.85
00.500,-46.81
00.515,-227.43
00.531,-410.16
00.546,-579.63
00.562,-703.69
00.578,-754.23
00.593,-719.18
00.609,-611.56
00.625,-461.83
00.640,-301.51
00.656,-151.99
00.671,-23.13
00.687,82.15
00.703,164.33
00.718,222.73
00.734,256.73
00.750,267.81
00.765,261.5
00.781,246.58
00.796,231.63
00.812,222.74
00.828,222.25
00.843,229.64
00.859,240.86
00.875,250.83
00.890,255.97
00.906,255.93
00.921,253.03
00.937,249.8
00.953,249.16
00.968,249.71
00.984,248.92
01.000,242.86
01.015,228.04
01.031,202.96
01.046,169.39
01.062,131.38
01.078,93.17
01.093,58.36
01.109,28.63
01.125,4.21
01.140,-16.26
01.156,-34.92
01.171,-53.59
01.187,-72.93
01.203,-92.58
01.218,-111.3
01.234,-126.67
01.250,-136.14
01.265,-138.15
01.281,-132.62
01.296,-121.43
01.312,-107.83
01.328,-95.67
01.343,-84.55
01.359,-74.61
01.375,-64.66
01.390,-53.0
01.406,-39.65
01.421,-25.67
01.437,-13.61
01.453,-6.44
01.468,-6.46
01.484,-13.81
01.500,-25.44
01.515,-35.77
01.531,-39.31
01.546,-34.15
01.562,-20.01
01.578,1.96
01.593,30.25
01.609,62.83
01.625,97.38
01.640,132.43
01.656,167.4
01.671,202.33
01.687,235.93
01.703,269.28
01.718,305.12
01.734,346.09
01.750,391.69
01.765,430.11
01.781,445.62
01.796,424.85
01.812,375.25
01.828,300.19
01.843,202.19
01.859,82.03
01.875,-52.95
01.890,-193.21
01.906,-329.44
01.921,-453.11
01.937,-557.76
01.953,-638.87
01.968,-695.41
01.984,-725.52
02.000,-727.09
02.015,-699.16
02.031,-644.88
02.046,-571.52
02.062,-487.64
02.078,-401.16
02.093,-317.52
02.109,-241.04
02.125,-172.98
02.140,-113.22
02.156,-61.14
02.171,-16.51
02.187,21.3
02.203,54.85
02.218,87.66
02.234,122.31
02.250,158.22
02.265,192.85
02.281,222.48
02.296,243.82
02.312,255.17
02.328,257.44
02.343,254.5
02.359,251.87
02.375,255.17
02.390,267.86
02.406,290.52
02.421,319.78
02.437,348.68
02.453,368.12
02.468,369.69
02.484,349.01
02.500,308.0
02.515,255.15
02.531,203.32
02.546,165.48
02.562,148.92
02.578,152.72
02.593,168.49
02.609,184.23
02.625,189.09
02.640,177.15
02.656,148.62
02.671,108.64
02.687,63.95
02.703,18.2
02.718,-26.63
02.734,-67.62
02.750,-98.18
02.765,-109.41
02.781,-94.21
02.796,-52.2
02.812,7.9
02.828,70.12
02.843,114.01
02.859,124.68
02.875,99.02
02.890,46.81
02.906,-16.18
02.921,-75.71
02.937,-124.46
02.953,-162.5
02.968,-194.36
02.984,-229.16
03.000,-274.0
03.015,-331.39
03.031,-398.4
03.046,-471.09
03.062,-546.14
03.078,-621.56
03.093,-695.5
03.109,-739.41
03.125,-728.52
03.140,-653.38
03.156,-527.68
03.171,-377.32
03.187,-227.22
03.203,-92.63
03.218,20.38
03.234,111.67
03.250,184.98
03.265,241.87
03.281,283.7
03.296,312.71
03.312,336.86
03.328,359.16
03.343,379.19
03.359,394.27
03.375,400.83
03.390,395.81
03.406,374.54
03.421,334.54
03.437,270.57
03.453,194.49
03.468,122.4
03.484,67.53
03.500,35.58
03.515,23.87
03.531,24.32
03.546,25.7
03.562,19.71
03.578,3.8
03.593,-18.2
03.609,-42.02
03.625,-65.04
03.640,-86.58
03.656,-107.19
03.671,-127.0
03.687,-146.02
03.703,-162.87
03.718,-175.45
03.734,-182.71
03.750,-183.56
03.765,-178.61
03.781,-168.33
03.796,-153.28
03.812,-134.28
03.828,-113.27
03.843,-92.48
03.859,-74.21
03.875,-60.15
03.890,-51.78
03.906,-50.31
03.921,-53.82
03.937,-59.39
03.953,-64.13
03.968,-66.17
03.984,-64.15
04.000,-57.21
04.015,-44.66
04.031,-25.72
04.046,0.44
04.062,37.68
04.078,89.88
04.093,160.09
04.109,244.21
04.125,336.21
04.140,428.72
04.156,514.38
04.171,586.7
04.187,624.15
04.203,612.96
04.218,550.91
04.234,448.85
04.250,324.91
04.265,197.08
04.281,78.29
04.296,-24.17
04.312,-107.06
04.328,-169.99
04.343,-212.05
04.359,-234.65
04.375,-242.03
04.390,-240.25
04.406,-235.89
04.421,-234.42
04.437,-238.73
04.453,-249.09
04.468,-263.68
04.484,-277.72
04.500,-286.59
04.515,-287.65
04.531,-279.19
04.546,-261.3
04.562,-234.95
04.578,-201.85
04.593,-165.43
04.609,-130.74
04.625,-102.2
04.640,-82.97
04.656,-73.12
04.671,-69.53
04.687,-66.89
04.703,-59.64
04.718,-44.29
04.734,-20.45
04.750,9.86
04.765,45.09
04.781,84.36
04.796,126.66
04.812,168.79
04.828,203.87
04.843,222.6
04.859,217.07
04.875,184.93
04.890,131.77
04.906,70.05
04.921,14.15
04.937,-24.88
04.953,-42.84
04.968,-42.26
04.984,-29.32
05.000,-9.57
05.015,14.51
05.031,43.33
05.046,77.98
05.062,116.93
05.078,154.77
05.093,182.97
05.109,192.72
05.125,178.29
05.140,139.24
05.156,80.82
05.171,12.38
05.187,-55.14
05.203,-111.78
05.218,-149.86
05.234,-164.48
05.250,-153.87
05.265,-119.11
05.281,-64.27
05.296,3.72
05.312,76.26
05.328,144.87
05.343,203.07
05.359,247.92
05.375,280.26
05.390,303.5
05.406,321.6
05.421,336.8
05.437,348.33
05.453,352.87
05.468,346.53
05.484,327.0
05.500,295.32
05.515,255.51
05.531,212.55
05.546,170.44
05.562,130.64
05.578,92.49
05.593,54.77
05.609,17.26
05.625,-18.8
05.640,-51.23
05.656,-78.68
05.671,-101.48
05.687,-121.72
05.703,-142.31
05.718,-165.53
05.734,-192.0
05.750,-220.69
05.765,-249.71
05.781,-276.87
05.796,-300.88
05.812,-321.26
05.828,-337.97
05.843,-350.94
05.859,-359.54
05.875,-363.09
05.890,-361.5
05.906,-354.84
05.921,-342.76
05.937,-323.61
05.953,-293.93
05.968,-249.81
05.984,-189.23
06.000,-113.78
06.015,-29.74
06.031,53.31
06.046,125.46
06.062,178.92
06.078,209.78
06.093,218.39
06.109,208.14
06.125,184.39
06.140,154.08
06.156,124.94
06.171,104.54
06.187,98.61
06.203,109.09
06.218,133.12
06.234,164.14
06.250,194.18
06.265,215.91
06.281,225.32
06.296,221.54
06.312,205.76
06.328,179.53
06.343,143.4
06.359,96.85
06.375,39.45
06.390,-28.47
06.406,-104.98
06.421,-185.15
06.437,-261.4
06.453,-323.95
06.468,-362.91
06.484,-370.92
06.500,-346.58
06.515,-296.31
06.531,-233.42
06.546,-173.68
06.562,-129.13
06.578,-103.44
06.593,-90.22
06.609,-76.56
06.625,-49.41
06.640,-2.4
06.656,60.37
06.671,125.43
06.687,175.24
06.703,195.57
06.718,180.85
06.734,135.83
06.750,73.8
06.765,10.76
06.781,-40.0
06.796,-71.37
06.812,-82.65
06.828,-77.55
06.843,-60.53
06.859,-35.76
06.875,-7.31
06.890,19.29
06.906,36.42
06.921,36.88
06.937,17.97
06.953,-15.55
06.968,-52.88
06.984,-81.44
07.000,-92.85
07.015,-85.96
07.031,-65.74
07.046,-38.89
07.062,-9.21
07.078,23.81
07.093,63.08
07.109,109.5
07.125,159.25
07.140,203.82
07.156,232.77
07.171,237.63
07.187,214.28
07.203,164.3
07.218,94.93
07.234,17.64
07.250,-53.87
07.265,-106.59
07.281,-130.89
07.296,-122.31
07.312,-81.92
07.328,-16.36
07.343,63.79
07.359,145.27
07.375,214.63
07.390,261.21
07.406,280.1
07.421,273.64
07.437,250.37
07.453,221.52
07.468,196.68
07.484,181.25
07.500,175.99
07.515,178.82
07.531,186.86
07.546,197.24
07.562,207.13
07.578,213.28
07.593,212.22
07.609,201.14
07.625,179.27
07.640,148.28
07.656,111.75
07.671,74.03
07.687,38.56
07.703,7.34
07.718,-19.12
07.734,-41.44
07.750,-60.73
07.765,-78.27
07.781,-95.02
07.796,-111.14
07.812,-125.83
07.828,-138.89
07.843,-151.48
07.859,-166.15
07.875,-185.33
07.890,-209.1
07.906,-234.44
07.921,-256.46
07.937,-271.44
07.953,-278.99
07.968,-282.5
07.984,-286.45
08.000,-293.18
08.015,-301.41
08.031,-307.5
08.046,-309.33
08.062,-308.68
08.078,-310.44
08.093,-318.53
08.109,-331.89
08.125,-343.71
08.140,-344.85
08.156,-328.96
08.171,-295.93
08.187,-251.52
08.203,-203.25
08.218,-155.66
08.234,-108.14
08.250,-55.8
08.265,7.03
08.281,83.15
08.296,170.39
08.312,262.16
08.328,348.6
08.343,418.82
08.359,463.24
08.375,475.73
08.390,455.12
08.406,405.22
08.421,333.22
08.437,246.86
08.453,152.42
08.468,54.32
08.484,-43.23
08.500,-134.51
08.515,-211.47
08.531,-264.88
08.546,-287.11
08.562,-275.31
08.578,-233.0
08.593,-168.91
08.609,-93.23
08.625,-14.47
08.640,61.63
08.656,131.3
08.671,190.98
08.687,236.84
08.703,265.55
08.718,275.95
08.734,270.2
08.750,253.84
08.765,233.88
08.781,216.55
08.796,206.01
08.812,203.8
08.828,209.85
08.843,221.7
08.859,234.03
08.875,239.57
08.890,232.13
08.906,209.41
08.921,174.45
08.937,134.39
08.953,96.17
08.968,64.67
08.984,39.74
09.000,16.05
09.015,-13.15
09.031,-50.66
09.046,-94.13
09.062,-137.98
09.078,-177.19
09.093,-212.09
09.109,-244.22
09.125,-276.27
09.140,-310.91
09.156,-348.35
09.171,-383.09
09.187,-406.18
09.203,-409.72
09.218,-391.72
09.234,-360.85
09.250,-326.82
09.265,-297.79
09.281,-276.95
09.296,-259.11
09.312,-228.49
09.328,-164.6
09.343,-51.48
09.359,113.71
09.375,314.63
09.390,530.28
09.406,739.33
09.421,924.52
09.437,1053.78
09.453,1097.84
09.468,1044.0
09.484,904.64
09.500,734.47
09.515,550.2
09.531,356.4
09.546,157.5
09.562,-41.6
09.578,-227.25
09.593,-384.19
09.609,-502.38
09.625,-579.23
09.640,-620.28
09.656,-639.04
09.671,-642.27
09.687,-631.09
09.703,-604.75
09.718,-563.97
09.734,-512.06
09.750,-455.14
09.765,-399.52
09.781,-351.34
09.796,-318.17
09.812,-299.9
09.828,-290.84
09.843,-282.89
09.859,-267.58
09.875,-238.29
09.890,-189.78
09.906,-116.76
09.921,-17.16
09.937,103.48
09.953,236.29
09.968,369.23
09.984,488.4
10.000,581.98
10.015,641.64
10.031,655.68
10.046,623.57
10.062,558.15
10.078,479.36
10.093,404.72
10.109,341.02
10.125,283.29
10.140,222.95
10.156,152.25
10.171,67.55
10.187,-25.5
10.203,-116.55
10.218,-196.85
10.234,-262.7
10.250,-315.36
10.265,-362.64
10.281,-406.26
10.296,-453.19
10.312,-508.03
10.328,-569.44
10.343,-631.34
10.359,-687.22
10.375,-733.16
10.390,-766.93
10.406,-789.88
10.421,-785.07
10.437,-744.07
10.453,-667.17
10.468,-563.01
10.484,-443.03
10.500,-316.74
10.515,-197.74
10.531,-82.48
10.546,31.52
10.562,144.37
10.578,251.49
10.593,350.32
10.609,435.74
10.625,506.19
10.640,562.53
10.656,606.76
10.671,642.54
10.687,671.79
10.703,696.05
10.718,713.09
10.734,718.96
10.750,708.52
10.765,679.5
10.781,632.88
10.796,573.04
10.812,507.47
10.828,442.85
10.843,384.33
10.859,332.66
10.875,285.71
10.890,238.84
10.906,189.48
10.921,136.57
10.937,80.31
10.953,22.53
10.968,-34.22
10.984,-84.65
11.000,-122.12
11.015,-140.21
11.031,-136.09
11.046,-109.12
11.062,-62.49
11.078,-3.37
11.093,55.79
11.109,97.75
11.125,107.45
11.140,79.37
11.156,25.27
11.171,-44.43
11.187,-119.66
11.203,-192.28
11.218,-255.33
11.234,-305.04
11.250,-341.99
11.265,-368.15
11.281,-383.88
11.296,-386.73
11.312,-374.31
11.328,-344.72
11.343,-300.37
11.359,-249.33
11.375,-202.34
11.390,-167.65
11.406,-146.09
11.421,-131.25
11.437,-114.08
11.453,-89.08
11.468,-55.86
11.484,-19.09
11.500,14.03
11.515,37.54
11.531,49.04
11.546,50.25
11.562,45.48
11.578,39.11
11.593,33.9
11.609,31.86
11.625,34.33
11.640,41.27
11.656,50.88
11.671,59.51
11.687,62.39
11.703,54.73
11.718,32.69
11.734,-5.5
11.750,-57.63
11.765,-117.01
11.781,-173.25
11.796,-214.47
11.812,-230.78
11.828,-217.32
11.843,-175.26
11.859,-111.52
11.875,-35.93
11.890,42.57
11.906,118.9
11.921,192.32
11.937,264.31
11.953,335.13
11.968,401.43
11.984,456.99
12.000,495.12
12.015,512.25
12.031,509.83
12.046,493.47
12.062,470.26
12.078,445.21
12.093,419.45
12.109,390.44
12.125,354.92
12.140,311.21
12.156,260.79
12.171,207.79
12.187,156.75
12.203,110.96
12.218,71.24
12.234,36.18
12.250,3.28
12.265,-29.62
12.281,-63.86
12.296,-99.43
12.312,-135.54
12.328,-171.77
12.343,-208.42
12.359,-246.67
12.375,-287.88
12.390,-332.81
12.406,-380.86
12.421,-430.49
12.437,-479.84
12.453,-527.67
12.468,-573.69
12.484,-617.61
12.500,-657.48
12.515,-688.72
12.531,-704.55
12.546,-698.18
12.562,-665.58
12.578,-607.59
12.593,-530.19
12.609,-442.67
12.625,-354.45
12.640,-272.54
12.656,-200.24
12.671,-137.63
12.687,-83.16
12.703,-34.88
12.718,8.7
12.734,48.15
12.750,82.86
12.765,111.6
12.781,132.41
12.796,143.55
12.812,144.09
12.828,134.29
12.843,116.01
12.859,92.68
12.875,68.69
12.890,47.78
12.906,31.69
12.921,18.08
12.937,-0.07
12.953,-33.19
12.968,-91.37
12.984,-178.88
13.000,-289.78
13.015,-407.23
13.031,-507.58
13.046,-567.62
13.062,-572.46
13.078,-519.73
13.093,-418.72
13.109,-285.99
13.125,-138.86
13.140,8.95
13.156,148.71
13.171,275.46
13.187,386.35
13.203,479.58
13.218,554.98
13.234,613.9
13.250,658.16
13.265,689.22
13.281,707.05
13.296,710.69
13.312,699.48
13.328,674.41
13.343,638.61
13.359,597.48
13.375,556.44
13.390,518.57
13.406,484.53
13.421,453.5
13.437,424.72
13.453,397.95
13.468,372.67
13.484,347.29
13.500,319.57
13.515,287.06
13.531,247.44
13.546,200.49
13.562,149.23
13.578,99.65
13.593,59.07
13.609,33.33
13.625,25.1
13.640,33.79
13.656,56.44
13.671,87.88
13.687,122.06
13.703,153.63
13.718,179.42
13.734,198.49
13.750,211.83
13.765,209.15
13.781,185.04
13.796,144.22
13.812,96.43
13.828,47.36
13.843,-6.04
13.859,-71.26
13.875,-153.48
13.890,-250.86
13.906,-355.08
13.921,-459.66
13.937,-556.85
13.953,-641.23
13.968,-710.69
13.984,-765.7
14.000,-806.92
14.015,-835.39
14.031,-854.35
14.046,-841.86
14.062,-790.31
14.078,-701.21
14.093,-585.45
14.109,-458.54
14.125,-335.27
14.140,-224.17
14.156,-127.92
14.171,-46.38
14.187,22.17
14.203,75.04
14.218,109.96
14.234,125.22
14.250,124.23
14.265,111.19
14.281,94.2
14.296,83.54
14.312,88.3
14.328,114.55
14.343,158.43
14.359,210.56
14.375,258.78
14.390,292.32
14.406,305.23
14.421,299.4
14.437,282.24
14.453,254.21
14.468,219.87
14.484,181.21
14.500,140.2
14.515,99.71
14.531,64.05
14.546,37.77
14.562,26.0
14.578,32.22
14.593,56.15
14.609,95.64
14.625,144.39
14.640,194.74
14.656,238.62
14.671,267.78
14.687,274.38
14.703,254.9
14.718,210.96
14.734,147.81
14.750,73.72
14.765,-3.23
14.781,-75.21
14.796,-135.38
14.812,-178.51
14.828,-200.88
14.843,-197.26
14.859,-161.71
14.875,-91.48
14.890,11.41
14.906,138.94
14.921,279.53
14.937,420.87
14.953,552.17
14.968,648.72
14.984,688.97
15.000,666.17
15.015,589.87
15.031,477.72
15.046,343.74
15.062,195.94
15.078,40.57
15.093,-113.58
15.109,-256.6
15.125,-382.17
15.140,-482.65
15.156,-554.47
15.171,-599.67
15.187,-624.45
15.203,-635.63
15.218,-638.99
15.234,-639.97
15.250,-633.35
15.265,-618.91
15.281,-597.41
15.296,-570.97
15.312,-541.61
15.328,-509.72
15.343,-473.66
15.359,-431.19
15.375,-382.36
15.390,-330.62
15.406,-282.28
15.421,-242.08
15.437,-212.76
15.453,-194.14
15.468,-183.56
15.484,-177.15
15.500,-171.64
15.515,-165.6
15.531,-159.11
15.546,-153.14
15.562,-146.63
15.578,-137.82
15.593,-124.99
15.609,-107.37
15.625,-85.23
15.640,-59.46
15.656,-30.8
15.671,1.2
15.687,38.04
15.703,83.14
15.718,140.17
15.734,211.32
15.750,295.95
15.765,390.24
15.781,487.85
15.796,581.12
15.812,662.86
15.828,727.24
15.843,770.89
15.859,792.76
15.875,793.98
15.890,777.62
15.906,748.1
15.921,709.84
15.937,665.57
15.953,615.3
15.968,556.45
15.984,485.92
16.000,402.77
16.015,310.62
16.031,217.65
16.046,134.55
16.062,70.97
16.078,32.27
16.093,18.58
16.109,25.84
16.125,48.38
16.140,80.93
16.156,119.88
16.171,162.91
16.187,207.82
16.203,251.06
16.218,287.13
16.234,308.92
16.250,309.09
16.265,282.2
16.281,226.81
16.296,145.76
16.312,44.89
16.328,-68.85
16.343,-189.22
16.359,-310.93
16.375,-428.8
16.390,-537.11
16.406,-630.36
16.421,-705.58
16.437,-764.32
16.453,-812.0
16.468,-854.24
16.484,-892.55
16.500,-921.89
16.515,-932.26
16.531,-913.86
16.546,-862.47
16.562,-782.3
16.578,-684.26
16.593,-581.08
16.609,-482.3
16.625,-392.36
16.640,-311.75
16.656,-239.87
16.671,-177.28
16.687,-125.61
16.703,-86.33
16.718,-58.89
16.734,-40.13
16.750,-25.08
16.765,-9.02
16.781,11.02
16.796,35.45
16.812,62.19
16.828,88.27
16.843,111.14
16.859,129.75
16.875,144.55
16.890,156.88
16.906,167.83
16.921,177.61
16.937,185.45
16.953,190.2
16.968,191.56
16.984,190.74
17.000,190.52
17.015,194.27
17.031,204.8
17.046,223.41
17.062,249.94
17.078,283.15
17.093,321.08
17.109,361.4
17.125,401.19
17.140,436.72
17.156,463.37
17.171,476.41
17.187,472.05
17.203,448.74
17.218,407.71
17.234,352.32
17.250,287.17
17.265,217.04
17.281,146.44
17.296,79.78
17.312,21.69
17.328,-23.43
17.343,-52.41
17.359,-64.66
17.375,-62.99
17.390,-52.84
17.406,-40.22
17.421,-29.15
17.437,-19.96
17.453,-9.65
17.468,5.99
17.484,29.6
17.500,60.35
17.515,93.67
17.531,122.84
17.546,140.93
17.562,142.67
17.578,125.58
17.593,89.9
17.609,38.23
17.625,-25.24
17.640,-95.59
17.656,-167.73
17.671,-236.45
17.687,-296.32
17.703,-341.46
17.718,-365.58
17.734,-363.56
17.750,-333.29
17.765,-276.82
17.781,-200.57
17.796,-113.78
17.812,-25.67
17.828,57.09
17.843,131.29
17.859,196.37
17.875,252.11
17.890,297.43
17.906,330.73
17.921,351.1
17.937,359.4
17.953,357.56
17.968,347.16
17.984,327.85
18.000,297.28
18.015,252.65
18.031,192.74
18.046,119.15
18.062,36.0
18.078,-51.45
18.093,-138.6
18.109,-221.69
18.125,-297.22
18.140,-361.08
18.156,-408.92
18.171,-437.29
18.187,-445.1
18.203,-434.1
18.218,-407.36
18.234,-367.66
18.250,-316.56
18.265,-254.8
18.281,-183.66
18.296,-106.57
18.312,-29.32
18.328,40.87
18.343,96.63
18.359,132.24
18.375,144.49
18.390,133.23
18.406,102.09
18.421,58.67
18.437,13.72
18.453,-21.03
18.468,-36.42
18.484,-29.58
18.500,-5.4
18.515,24.92
18.531,48.22
18.546,54.47
18.562,40.57
18.578,11.05
18.593,-23.62
18.609,-50.51
18.625,-58.17
18.640,-40.12
18.656,2.6
18.671,60.34
18.687,116.94
18.703,154.45
18.718,159.83
18.734,130.48
18.750,76.33
18.765,16.48
18.781,-28.06
18.796,-42.52
18.812,-23.48
18.828,20.65
18.843,73.44
18.859,116.71
18.875,136.41
18.890,126.77
18.906,91.88
18.921,44.17
18.937,-0.28
18.953,-27.89
18.968,-32.8
18.984,-18.49
19.000,5.24
19.015,28.13
19.031,44.91
19.046,57.44
19.062,72.43
19.078,95.49
19.093,126.46
19.109,157.66
19.125,177.17
19.140,174.72
19.156,146.19
19.171,94.63
19.187,27.43
19.203,-47.78
19.218,-125.87
19.234,-203.77
19.250,-277.67
19.265,-340.5
19.281,-382.5
19.296,-395.44
19.312,-377.77
19.328,-337.09
19.343,-287.41
19.359,-242.53
19.375,-209.28
19.390,-184.61
19.406,-158.68
19.421,-121.34
19.437,-68.19
19.453,-2.14
19.468,69.24
19.484,138.93
19.500,203.64
19.515,263.35
19.531,317.84
19.546,363.08
19.562,390.29
19.578,388.08
19.593,347.61
19.609,267.09
19.625,153.76
19.640,23.0
19.656,-106.09
19.671,-215.89
19.687,-294.92
19.703,-339.62
19.718,-353.39
19.734,-343.46
19.750,-317.58
19.765,-282.12
19.781,-241.15
19.796,-196.87
19.812,-150.5
19.828,-103.27
19.843,-56.88
19.859,-13.38
19.875,25.64
19.890,59.55
19.906,88.53
19.921,112.96
19.937,132.12
19.953,144.17
19.968,147.06
19.984,140.3
20.000,127.02
20.015,114.31
20.031,110.95
20.046,123.33
20.062,151.69
20.078,188.82
20.093,222.72
20.109,242.15
20.125,241.63
20.140,223.85
20.156,197.67
20.171,173.11
20.187,156.37
20.203,147.46
20.218,141.16
20.234,130.91
20.250,113.1
20.265,89.09
20.281,64.45
20.296,45.85
20.312,37.29
20.328,37.85
20.343,41.99
20.359,41.9
20.375,31.15
20.390,7.47
20.406,-26.12
20.421,-62.14
20.437,-91.35
20.453,-105.66
20.468,-100.69
20.484,-77.58
20.500,-42.89
20.515,-6.73
20.531,21.1
20.546,34.91
20.562,35.49
20.578,29.08
20.593,23.61
20.609,24.31
20.625,30.63
20.640,36.66
20.656,34.55
20.671,18.78
20.687,-11.36
20.703,-51.9
20.718,-96.3
20.734,-137.55
20.750,-169.01
20.765,-184.68
20.781,-180.15
20.796,-153.93
20.812,-108.57
20.828,-50.75
20.843,11.15
20.859,70.51
20.875,124.51
20.890,173.9
20.906,220.0
20.921,261.53
20.937,293.18
20.953,307.62
20.968,299.42
20.984,268.43
21.000,220.44
21.015,164.63
21.031,109.07
21.046,57.38
21.062,8.26
21.078,-41.79
21.093,-94.53
21.109,-147.02
21.125,-191.27
21.140,-217.35
21.156,-218.21
21.171,-193.88
21.187,-152.06
21.203,-104.36
21.218,-60.69
21.234,-25.04
21.250,4.61
21.265,33.05
21.281,63.18
21.296,92.47
21.312,114.2
21.328,121.14
21.343,109.86
21.359,82.81
21.375,47.08
21.390,10.85
21.406,-20.0
21.421,-43.42
21.437,-61.15
21.453,-76.62
21.468,-93.08
21.484,-112.48
21.500,-135.08
21.515,-158.49
21.531,-178.09
21.546,-187.46
21.562,-180.2
21.578,-152.36
21.593,-103.78
21.609,-39.06
21.625,33.21
21.640,102.52
21.656,159.9
21.671,200.05
21.687,221.94
21.703,227.44
21.718,218.74
21.734,196.52
21.750,159.51
21.765,106.09
21.781,37.25
21.796,-41.87
21.812,-122.27
21.828,-193.5
21.843,-246.92
21.859,-278.05
21.875,-287.38
21.890,-279.81
21.906,-263.25
21.921,-246.42
21.937,-236.99
21.953,-239.25
21.968,-252.41
21.984,-270.95
22.000,-286.76
22.015,-291.94
22.031,-281.97
22.046,-256.63
22.062,-218.97
22.078,-173.64
22.093,-125.26
22.109,-77.55
22.125,-33.59
22.140,3.96
22.156,33.59
22.171,55.68
22.187,73.23
22.203,91.16
22.218,114.39
22.234,145.4
22.250,182.34
22.265,219.16
22.281,247.48
22.296,259.31
22.312,249.72
22.328,218.98
22.343,172.92
22.359,121.72
22.375,77.06
22.390,48.65
22.406,41.09
22.421,52.88
22.437,77.79
22.453,108.05
22.468,137.72
22.484,164.18
22.500,187.58
22.515,208.73
22.531,227.19
22.546,240.86
22.562,247.02
22.578,244.15
22.593,232.71
22.609,214.81
22.625,192.61
22.640,167.2
22.656,138.63
22.671,106.9
22.687,72.96
22.703,38.46
22.718,4.74
22.734,-28.22
22.750,-61.87
22.765,-98.08
22.781,-137.27
22.796,-177.66
22.812,-215.65
22.828,-247.52
22.843,-271.23
22.859,-287.45
22.875,-298.77
22.890,-307.58
22.906,-314.03
22.921,-315.2
22.937,-306.56
22.953,-284.58
22.968,-248.9
22.984,-202.38
23.000,-149.35
23.015,-93.07
23.031,-34.58
23.046,26.06
23.062,86.82
23.078,141.44
23.093,180.43
23.109,195.2
23.125,183.2
23.140,150.3
23.156,108.75
23.171,71.12
23.187,44.09
23.203,25.64
23.218,7.77
23.234,-16.81
23.250,-48.62
23.265,-79.54
23.281,-96.16
23.296,-86.14
23.312,-44.18
23.328,25.17
23.343,109.66
23.359,193.41
23.375,261.92
23.390,305.43
23.406,320.35
23.421,308.51
23.437,275.6
23.453,228.76
23.468,174.44
23.484,118.32
23.500,65.36
23.515,20.34
23.531,-12.65
23.546,-31.33
23.562,-35.64
23.578,-28.56
23.593,-15.62
23.609,-3.7
23.625,1.24
23.640,-4.31
23.656,-20.51
23.671,-44.28
23.687,-70.34
23.703,-92.63
23.718,-106.31
23.734,-109.6
23.750,-104.09
23.765,-93.63
23.781,-82.74
23.796,-74.86
23.812,-71.61
23.828,-73.1
23.843,-78.19
23.859,-85.04
23.875,-91.03
23.890,-92.88
23.906,-87.56
23.921,-73.73
23.937,-52.12
23.953,-25.35
23.968,3.08
23.984,29.29
24.000,48.77
24.015,56.71
24.031,49.27
24.046,25.08
24.062,-12.88
24.078,-57.23
24.093,-98.64
24.109,-129.88
24.125,-148.46
24.140,-156.31
24.156,-156.55
24.171,-149.7
24.187,-133.19
24.203,-104.15
24.218,-63.36
24.234,-18.1
24.250,19.46
24.265,37.27
24.281,29.3
24.296,-1.05
24.312,-42.18
24.328,-79.22
24.343,-99.9
24.359,-98.56
24.375,-76.96
24.390,-41.89
24.406,-1.13
24.421,39.94
24.437,79.59
24.453,118.1
24.468,155.0
24.484,186.81
24.500,207.45
24.515,210.73
24.531,193.94
24.546,160.26
24.562,118.11
24.578,77.46
24.593,45.45
24.609,23.85
24.625,9.59
24.640,-1.39
24.656,-10.24
24.671,-14.18
24.687,-8.73
24.703,7.8
24.718,31.33
24.734,52.58
24.750,61.35
24.765,51.66
24.781,24.85
24.796,-11.47
24.812,-48.05
24.828,-78.7
24.843,-102.73
24.859,-123.47
24.875,-144.91
24.890,-168.27
24.906,-190.66
24.921,-206.15
24.937,-208.34
24.953,-193.18
24.968,-160.55
24.984,-114.41
25.000,-61.52
25.015,-9.46
25.031,35.66
25.046,70.7
25.062,95.68
25.078,112.72
25.093,124.72
25.109,134.52
25.125,144.2
25.140,155.46
25.156,169.21
25.171,184.5
25.187,197.71
25.203,202.53
25.218,192.48
25.234,164.28
25.250,120.5
25.265,67.85
25.281,15.14
25.296,-30.82
25.312,-67.22
25.328,-93.99
25.343,-111.23
25.359,-117.24
25.375,-109.36
25.390,-86.44
25.406,-54.24
25.421,-23.03
25.437,-4.32
25.453,-4.73
25.468,-21.74
25.484,-44.59
25.500,-60.05
25.515,-59.7
25.531,-43.2
25.546,-21.27
25.562,-6.57
25.578,-8.67
25.593,-29.39
25.609,-62.27
25.625,-95.56
25.640,-117.15
25.656,-118.82
25.671,-96.99
25.687,-57.21
25.703,-6.66
25.718,47.24
25.734,99.37
25.750,147.95
25.765,193.85
25.781,238.47
25.796,270.65
25.812,298.4
25.828,312.7
25.843,306.6
25.859,276.83
25.875,226.1
25.890,162.25
25.906,95.21
25.921,33.08
25.937,-20.72
25.953,-66.2
25.968,-109.32
25.984,-153.83
26.000,-200.78
26.015,-248.19
26.031,-292.71
26.046,-331.52
26.062,-363.2
26.078,-387.17
26.093,-401.1
26.109,-403.82
26.125,-391.7
26.140,-361.48
26.156,-312.24
26.171,-246.57
26.187,-170.5
26.203,-91.84
26.218,-17.91
26.234,47.12
26.250,100.77
26.265,144.25
26.281,180.51
26.296,213.18
26.312,245.67
26.328,280.68
26.343,319.6
26.359,361.54
26.375,402.76
26.390,435.74
26.406,451.74
26.421,443.02
26.437,405.67
26.453,341.22
26.468,256.96
26.484,164.31
26.500,75.94
26.515,2.55
26.531,-49.87
26.546,-80.24
26.562,-91.52
26.578,-88.83
26.593,-78.0
26.609,-64.79
26.625,-55.01
26.640,-54.42
26.656,-67.7
26.671,-96.63
26.687,-138.44
26.703,-185.38
26.718,-226.97
26.734,-254.19
26.750,-262.92
26.765,-255.38
26.781,-238.3
26.796,-218.66
26.812,-199.89
26.828,-180.84
26.843,-157.61
26.859,-127.28
26.875,-90.97
26.890,-54.04
26.906,-23.51
26.921,-4.14
26.937,4.93
26.953,10.09
26.968,20.21
26.984,41.77
27.000,75.32
27.015,114.73
27.031,149.97
27.046,171.56
27.062,174.25
27.078,158.41
27.093,128.03
27.109,87.97
27.125,41.49
27.140,-10.12
27.156,-66.24
27.171,-125.12
27.187,-183.37
27.203,-236.8
27.218,-282.06
27.234,-318.05
27.250,-345.22
27.265,-363.85
27.281,-372.13
27.296,-366.02
27.312,-340.72
27.328,-293.87
27.343,-227.73
27.359,-149.44
27.375,-68.92
27.390,4.47
27.406,64.97
27.421,111.54
27.437,146.8
27.453,175.34
27.468,201.86
27.484,230.27
27.500,263.23
27.515,301.65
27.531,343.99
27.546,386.03
27.562,421.38
27.578,443.26
27.593,446.63
27.609,429.75
27.625,394.44
27.640,345.2
27.656,287.57
27.671,226.65
27.687,166.14
27.703,108.15
27.718,53.7
27.734,3.62
27.750,-40.4
27.765,-75.41
27.781,-97.84
27.796,-105.14
27.812,-97.88
27.828,-81.04
27.843,-63.5
27.859,-55.67
27.875,-66.01
27.890,-98.28
27.906,-150.18
27.921,-214.07
27.937,-278.98
27.953,-333.1
27.968,-365.72
27.984,-369.02
28.000,-339.17
28.015,-277.48
28.031,-190.66
28.046,-90.09
28.062,10.01
28.078,95.48
28.093,156.03
28.109,188.24
28.125,196.4
28.140,190.58
28.156,182.58
28.171,181.51
28.187,190.95
28.203,209.05
28.218,230.39
28.234,248.82
28.250,259.48
28.265,259.42
28.281,247.22
28.296,223.2
28.312,190.19
28.328,154.04
28.343,122.62
28.359,102.71
28.375,96.41
28.390,99.06
28.406,100.83
28.421,91.23
28.437,64.42
28.453,22.02
28.468,-27.9
28.484,-74.96
28.500,-111.09
28.515,-133.46
28.531,-144.12
28.546,-147.78
28.562,-148.9
28.578,-150.11
28.593,-151.92
28.609,-153.45
28.625,-152.7
28.640,-147.12
28.656,-134.46
28.671,-113.96
28.687,-88.01
28.703,-62.21
28.718,-43.7
28.734,-37.89
28.750,-45.52
28.765,-61.18
28.781,-75.42
28.796,-78.88
28.812,-66.71
28.828,-41.04
28.843,-9.75
28.859,17.09
28.875,31.66
28.890,31.04
28.906,17.8
28.921,-1.98
28.937,-21.68
28.953,-36.45
28.968,-44.76
28.984,-48.42
29.000,-51.82
29.015,-59.65
29.031,-74.77
29.046,-96.63
29.062,-120.7
29.078,-139.91
29.093,-147.28
29.109,-138.76
29.125,-114.87
29.140,-80.19
29.156,-41.23
29.171,-3.88
29.187,28.17
29.203,53.68
29.218,72.69
29.234,85.25
29.250,90.65
29.265,87.71
29.281,75.47
29.296,54.01
29.312,25.2
29.328,-7.34
29.343,-38.36
29.359,-62.02
29.375,-73.53
29.390,-71.22
29.406,-57.06
29.421,-36.02
29.437,-14.19
29.453,3.92
29.468,16.31
29.484,24.55
29.500,32.16
29.515,42.67
29.531,57.71
29.546,76.09
29.562,94.75
29.578,110.34
29.593,120.76
29.609,124.75
29.625,122.91
29.640,116.52
29.656,105.94
29.671,89.95
29.687,65.92
29.703,31.61
29.718,-13.01
29.734,-65.12
29.750,-121.81
29.765,-178.9
29.781,-231.68
29.796,-275.68
29.812,-307.26
29.828,-325.03
29.843,-330.64
29.859,-328.91
29.875,-326.65
29.890,-333.14
29.906,-353.29
29.921,-384.99
29.937,-419.93
29.953,-447.38
29.968,-459.62
29.984,-454.4
30.000,-434.05
30.015,-386.38
30.031,-305.71
30.046,-193.94
30.062,-62.46
30.078,71.19
30.093,190.13
30.109,282.82
30.125,344.53
30.140,376.59
30.156,386.96
30.171,380.51
30.187,360.79
30.203,331.51
30.218,297.0
30.234,261.71
30.250,228.99
30.265,200.67
30.281,177.09
30.296,157.15
30.312,138.47
30.328,119.47
30.343,99.97
30.359,81.38
30.375,66.09
30.390,56.46
30.406,54.46
30.421,60.31
30.437,71.59
30.453,82.03
30.468,84.72
30.484,75.87
30.500,57.4
30.515,36.56
30.531,23.05
30.546,25.38
30.562,47.45
30.578,87.63
30.593,138.0
30.609,186.35
30.625,220.69
30.640,234.16
30.656,226.8
30.671,202.82
30.687,167.3
30.703,123.95
30.718,75.42
30.734,24.06
30.750,-27.07
30.765,-73.69
30.781,-111.29
30.796,-136.61
30.812,-150.5
30.828,-154.49
30.843,-151.16
30.859,-143.42
30.875,-133.77
30.890,-123.77
30.906,-113.52
30.921,-101.95
30.937,-87.66
30.953,-69.72
30.968,-47.55
30.984,-21.2
31.000,9.12
31.015,43.71
31.031,83.6
31.046,129.14
31.062,179.94
31.078,234.28
31.093,288.43
31.109,337.08
31.125,373.63
31.140,391.52
31.156,386.26
31.171,356.71
31.187,305.96
31.203,241.07
31.218,171.23
31.234,104.79
31.250,47.09
31.265,-0.39
31.281,-39.54
31.296,-73.19
31.312,-103.56
31.328,-131.25
31.343,-155.31
31.359,-174.18
31.375,-186.52
31.390,-191.33
31.406,-187.76
31.421,-175.14
31.437,-152.73
31.453,-120.59
31.468,-79.51
31.484,-31.06
31.500,22.53
31.515,78.43
31.531,132.94
31.546,181.18
31.562,217.05
31.578,234.65
31.593,229.41
31.609,199.71
31.625,147.27
31.640,76.43
31.656,-7.06
31.671,-97.25
31.687,-188.67
31.703,-276.44
31.718,-355.59
31.734,-421.26
31.750,-469.19
31.765,-496.47
31.781,-502.89
31.796,-491.02
31.812,-465.54
31.828,-431.64
31.843,-393.38
31.859,-352.8
31.875,-310.59
31.890,-267.77
31.906,-227.13
31.921,-193.87
31.937,-173.7
31.953,-170.18
31.968,-182.12
31.984,-203.63
32.000,-226.4
32.015,-243.54
32.031,-252.24
32.046,-253.59
32.062,-250.38
32.078,-243.75
32.093,-231.5
32.109,-208.53
32.125,-169.79
32.140,-113.1
32.156,-40.96
32.171,39.63
32.187,119.42
32.203,189.34
32.218,242.66
32.234,275.69
32.250,287.76
32.265,280.4
32.281,256.89
32.296,221.86
32.312,181.09
32.328,141.25
32.343,109.23
32.359,90.89
32.375,89.47
32.390,104.44
32.406,131.47
32.421,163.66
32.437,193.9
32.453,216.97
32.468,230.63
32.484,235.23
32.500,232.24
32.515,222.78
32.531,206.98
32.546,184.59
32.562,155.83
32.578,121.94
32.593,85.01
32.609,47.02
32.625,8.76
32.640,-30.35
32.656,-71.39
32.671,-114.77
32.687,-159.51
32.703,-203.03
32.718,-241.73
32.734,-271.53
32.750,-288.45
32.765,-289.14
32.781,-271.42
32.796,-234.83
32.812,-181.45
32.828,-116.19
32.843,-46.31
32.859,19.83
32.875,74.71
32.890,113.58
32.906,135.71
32.921,144.32
32.937,145.38
32.953,145.56
32.968,150.32
32.984,162.89
33.000,183.92
33.015,211.43
33.031,240.94
33.046,266.09
33.062,279.73
33.078,276.08
33.093,253.05
33.109,213.64
33.125,165.56
33.140,118.63
33.156,81.53
33.171,59.01
33.187,51.42
33.203,55.41
33.218,65.64
33.234,75.96
33.250,80.07
33.265,72.41
33.281,49.59
33.296,12.35
33.312,-33.72
33.328,-79.48
33.343,-115.81
33.359,-137.39
33.375,-144.75
33.390,-143.16
33.406,-139.3
33.421,-137.66
33.437,-139.04
33.453,-141.66
33.468,-144.01
33.484,-146.6
33.500,-151.81
33.515,-162.05
33.531,-177.37
33.546,-194.43
33.562,-207.34
33.578,-209.51
33.593,-195.67
33.609,-163.51
33.625,-113.93
33.640,-50.83
33.656,19.5
33.671,89.24
33.687,150.56
33.703,196.88
33.718,224.53
33.734,233.35
33.750,226.4
33.765,209.11
33.781,188.2
33.796,170.8
33.812,163.15
33.828,169.31
33.843,189.34
33.859,218.83
33.875,250.08
33.890,274.83
33.906,287.23
33.921,285.59
33.937,271.94
33.953,250.1
33.968,223.57
33.984,194.23
34.000,162.81
34.015,130.13
34.031,97.86
34.046,68.3
34.062,42.88
34.078,20.84
34.093,-0.87
34.109,-26.17
34.125,-58.02
34.140,-96.77
34.156,-140.2
34.171,-184.65
34.187,-226.02
34.203,-260.81
34.218,-285.77
34.234,-297.32
34.250,-291.82
34.265,-267.29
34.281,-225.57
34.296,-173.1
34.312,-119.39
34.328,-72.82
34.343,-36.63
34.359,-7.87
34.375,19.74
34.390,50.96
34.406,85.25
34.421,116.99
34.437,139.06
34.453,147.3
34.468,142.98
34.484,131.4
34.500,118.3
34.515,107.04
34.531,97.93
34.546,89.81
34.562,81.8
34.578,73.65
34.593,64.43
34.609,51.1
34.625,28.88
34.640,-6.58
34.656,-56.37
34.671,-117.39
34.687,-183.28
34.703,-246.61
34.718,-300.65
34.734,-339.99
34.750,-360.29
34.765,-358.41
34.781,-333.46
34.796,-287.77
34.812,-227.22
34.828,-159.98
34.843,-93.83
34.859,-33.71
34.875,18.85
34.890,64.37
34.906,103.04
34.921,133.25
34.937,151.67
34.953,155.32
34.968,143.62
34.984,119.6
35.000,89.54
35.015,61.29
35.031,42.25
35.046,37.7
35.062,49.2
35.078,74.22
35.093,106.81
35.109,139.02
35.125,163.62
35.140,176.78
35.156,179.54
35.171,177.04
35.187,175.47
35.203,178.26
35.218,184.08
35.234,187.27
35.250,181.05
35.265,161.2
35.281,128.51
35.296,88.1
35.312,46.7
35.328,9.76
35.343,-20.66
35.359,-45.73
35.375,-68.33
35.390,-91.22
35.406,-115.75
35.421,-141.04
35.437,-164.44
35.453,-182.09
35.468,-189.99
35.484,-185.6
35.500,-168.6
35.515,-141.21
35.531,-107.55
35.546,-72.28
35.562,-39.24
35.578,-10.37
35.593,14.16
35.609,35.08
35.625,52.76
35.640,66.7
35.656,76.05
35.671,80.52
35.687,80.65
35.703,77.41
35.718,71.89
35.734,64.76
35.750,56.69
35.765,48.41
35.781,40.81
35.796,34.44
35.812,28.6
35.828,20.77
35.843,6.99
35.859,-16.73
35.875,-52.23
35.890,-97.02
35.906,-144.27
35.921,-184.8
35.937,-210.15
35.953,-215.42
35.968,-200.11
35.984,-167.49
36.000,-122.71
36.015,-71.1
36.031,-16.81
36.046,37.24
36.062,88.71
36.078,135.1
36.093,173.49
36.109,201.46
36.125,218.4
36.140,226.72
36.156,231.42
36.171,238.03
36.187,249.65
36.203,264.78
36.218,277.78
36.234,281.62
36.250,271.49
36.265,247.29
36.281,213.54
36.296,176.79
36.312,142.29
36.328,111.66
36.343,82.93
36.359,52.44
36.375,17.36
36.390,-22.54
36.406,-64.29
36.421,-102.65
36.437,-131.6
36.453,-146.01
36.468,-143.39
36.484,-124.97
36.500,-95.77
36.515,-63.37
36.531,-35.54
36.546,-17.23
36.562,-9.15
36.578,-8.25
36.593,-9.98
36.609,-11.5
36.625,-13.99
36.640,-22.49
36.656,-43.42
36.671,-80.87
36.687,-133.68
36.703,-195.02
36.718,-254.6
36.734,-301.89
36.750,-329.58
36.765,-335.05
36.781,-319.88
36.796,-287.84
36.812,-243.16
36.828,-189.93
36.843,-132.6
36.859,-76.6
36.875,-27.88
36.890,8.51
36.906,30.41
36.921,39.57
36.937,40.67
36.953,39.1
36.968,38.01
36.984,36.9
37.000,32.42
37.015,20.71
37.031,-0.03
37.046,-28.14
37.062,-59.1
37.078,-87.87
37.093,-110.79
37.109,-126.78
37.125,-137.36
37.140,-145.65
37.156,-155.1
37.171,-168.07
37.187,-184.64
37.203,-202.19
37.218,-216.28
37.234,-222.07
37.250,-216.24
37.265,-198.19
37.281,-169.86
37.296,-134.54
37.312,-95.39
37.328,-54.59
37.343,-13.54
37.359,26.43
37.375,63.68
37.390,96.35
37.406,123.17
37.421,143.85
37.437,158.77
37.453,168.4
37.468,172.74
37.484,171.48
37.500,164.93
37.515,154.61
37.531,143.17
37.546,133.47
37.562,127.4
37.578,124.97
37.593,124.6
37.609,123.93
37.625,120.72
37.640,113.78
37.656,103.15
37.671,90.11
37.687,76.59
37.703,64.59
37.718,55.72
37.734,51.25
37.750,52.26
37.765,59.62
37.781,73.88
37.796,95.06
37.812,122.35
37.828,153.82
37.843,186.69
37.859,218.23
37.875,246.9
37.890,273.06
37.906,297.85
37.921,322.26
37.937,345.85
37.953,366.96
37.968,383.21
37.984,392.24
38.000,392.56
38.015,384.39
38.031,369.59
38.046,350.12
38.062,327.66
38.078,303.07
38.093,276.67
38.109,248.55
38.125,218.63
38.140,186.91
38.156,154.12
38.171,121.45
38.187,88.25
38.203,51.38
38.218,5.91
38.234,-52.76
38.250,-126.68
38.265,-213.85
38.281,-308.36
38.296,-403.42
38.312,-485.61
38.328,-540.79
38.343,-560.64
38.359,-546.49
38.375,-506.99
38.390,-452.6
38.406,-391.68
38.421,-329.63
38.437,-269.09
38.453,-211.55
38.468,-158.66
38.484,-111.61
38.500,-70.36
38.515,-33.06
38.531,2.57
38.546,39.82
38.562,77.89
38.578,113.89
38.593,143.13
38.609,160.38
38.625,161.58
38.640,145.41
38.656,113.62
38.671,70.22
38.687,19.77
38.703,-36.06
38.718,-91.09
38.734,-140.03
38.750,-180.17
38.765,-211.75
38.781,-236.44
38.796,-255.28
38.812,-267.18
38.828,-269.08
38.843,-257.64
38.859,-230.98
38.875,-191.96
38.890,-147.9
38.906,-108.84
38.921,-83.63
38.937,-76.33
38.953,-84.92
38.968,-103.21
38.984,-124.18
39.000,-142.26
39.015,-156.41
39.031,-166.63
39.046,-173.37
39.062,-176.48
39.078,-175.2
39.093,-169.06
39.109,-158.61
39.125,-145.81
39.140,-133.16
39.156,-123.12
39.171,-116.85
39.187,-114.22
39.203,-113.92
39.218,-114.02
39.234,-113.04
39.250,-110.38
39.265,-106.54
39.281,-102.98
39.296,-101.09
39.312,-102.02
39.328,-106.56
39.343,-114.72
39.359,-125.7
39.375,-138.45
39.390,-151.57
39.406,-163.41
39.421,-174.98
39.437,-185.84
39.453,-194.93
39.468,-200.88
39.484,-202.08
39.500,-196.8
39.515,-183.65
39.531,-161.7
39.546,-130.5
39.562,-90.07
39.578,-40.38
39.593,17.9
39.609,82.89
39.625,151.32
39.640,218.75
39.656,280.45
39.671,333.11
39.687,375.95
39.703,410.81
39.718,441.42
39.734,471.09
39.750,501.29
39.765,531.39
39.781,558.98
39.796,581.1
39.812,594.96
39.828,598.28
39.843,589.28
39.859,567.16
39.875,532.19
39.890,486.34
39.906,433.09
39.921,376.61
39.937,320.71
39.953,268.02
39.968,220.03
39.984,177.65
40.000,141.96
40.015,113.95
40.031,94.19
40.046,82.17
40.062,76.06
40.078,73.2
40.093,70.83
40.109,66.95
40.125,61.0
40.140,53.77
40.156,46.69
40.171,41.03
40.187,37.03
40.203,33.55
40.218,28.36
40.234,18.82
40.250,2.92
40.265,-19.82
40.281,-48.34
40.296,-80.45
40.312,-113.73
40.328,-145.96
40.343,-174.95
40.359,-198.2
40.375,-212.85
40.390,-216.2
40.406,-206.49
40.421,-183.94
40.437,-150.85
40.453,-111.03
40.468,-69.01
40.484,-28.7
40.500,6.6
40.515,33.83
40.531,49.92
40.546,52.96
40.562,42.45
40.578,19.47
40.593,-13.5
40.609,-54.26
40.625,-100.05
40.640,-148.56
40.656,-197.98
40.671,-246.28
40.687,-289.45
40.703,-323.16
40.718,-344.74
40.734,-354.32
40.750,-355.97
40.765,-352.55
40.781,-345.29
40.796,-333.91
40.812,-317.37
40.828,-293.25
40.843,-260.76
40.859,-221.85
40.875,-180.43
40.890,-142.43
40.906,-108.23
40.921,-74.36
40.937,-35.91
40.953,11.87
40.968,74.89
40.984,157.43
41.000,260.63
41.015,381.0
41.031,507.61
41.046,629.84
41.062,737.03
41.078,819.52
41.093,853.83
41.109,825.74
41.125,737.14
41.140,607.69
41.156,482.66
41.171,376.14
41.187,286.97
41.203,207.57
41.218,126.35
41.234,38.49
41.250,-53.47
41.265,-142.9
41.281,-221.71
41.296,-283.32
41.312,-326.6
41.328,-349.42
41.343,-350.67
41.359,-331.51
41.375,-295.13
41.390,-245.4
41.406,-187.31
41.421,-126.39
41.437,-67.59
41.453,-16.08
41.468,28.47
41.484,68.91
41.500,107.1
41.515,141.99
41.531,169.69
41.546,184.43
41.562,180.43
41.578,153.56
41.593,101.05
41.609,24.6
41.625,-71.83
41.640,-182.83
41.656,-301.45
41.671,-418.61
41.687,-523.52
41.703,-605.78
41.718,-658.02
41.734,-678.37
41.750,-669.38
41.765,-636.84
41.781,-586.72
41.796,-522.54
41.812,-444.27
41.828,-349.64
41.843,-237.85
41.859,-112.88
41.875,15.83
41.890,136.31
41.906,237.39
41.921,311.53
41.937,355.69
41.953,369.89
41.968,355.12
41.984,312.16
42.000,242.41
42.015,150.82
42.031,48.24
42.046,-49.19
42.062,-123.64
42.078,-161.22
42.093,-156.71
42.109,-114.89
42.125,-48.23
42.140,27.98
42.156,100.43
42.171,159.79
42.187,200.55
42.203,219.13
42.218,212.51
42.234,178.69
42.250,118.99
42.265,39.46
42.281,-49.32
42.296,-134.85
42.312,-206.34
42.328,-257.1
42.343,-284.45
42.359,-288.78
42.375,-272.24
42.390,-237.13
42.406,-185.7
42.421,-120.64
42.437,-45.67
42.453,33.51
42.468,108.73
42.484,169.89
42.500,206.78
42.515,211.81
42.531,183.55
42.546,128.47
42.562,59.72
42.578,-6.55
42.593,-56.36
42.609,-81.94
42.625,-83.11
42.640,-65.57
42.656,-37.68
42.671,-7.75
42.687,17.84
42.703,34.94
42.718,41.66
42.734,37.72
42.750,24.4
42.765,4.5
42.781,-17.81
42.796,-37.48
42.812,-49.81
42.828,-51.81
42.843,-43.22
42.859,-26.54
42.875,-6.44
42.890,12.03
42.906,25.16
42.921,31.65
42.937,32.54
42.953,30.23
42.968,27.15
42.984,24.15
43.000,20.76
43.015,15.92
43.031,9.37
43.046,2.24
43.062,-2.96
43.078,-3.25
43.093,3.93
43.109,19.9
43.125,43.37
43.140,71.59
43.156,101.51
43.171,131.01
43.187,159.18
43.203,185.9
43.218,211.01
43.234,233.85
43.250,253.26
43.265,265.84
43.281,267.94
43.296,256.9
43.312,232.16
43.328,195.43
43.343,149.89
43.359,99.05
43.375,45.99
43.390,-7.02
43.406,-61.22
43.421,-119.12
43.437,-183.06
43.453,-253.51
43.468,-328.65
43.484,-405.08
43.500,-479.1
43.515,-547.62
43.531,-593.22
43.546,-601.11
43.562,-563.65
43.578,-485.88
43.593,-383.29
43.609,-273.84
43.625,-170.86
43.640,-81.2
43.656,-6.86
43.671,52.81
43.687,97.33
43.703,126.54
43.718,141.43
43.734,145.04
43.750,142.06
43.765,137.39
43.781,134.57
43.796,135.24
43.812,139.51
43.828,144.75
43.843,148.0
43.859,147.0
43.875,141.5
43.890,133.1
43.906,124.21
43.921,116.91
43.937,112.38
43.953,111.17
43.968,112.52
43.984,115.52
44.000,119.32
44.015,123.93
44.031,129.77
44.046,136.91
44.062,144.48
44.078,151.19
44.093,154.28
44.109,151.02
44.125,139.62
44.140,119.66
44.156,92.44
44.171,60.36
44.187,26.5
44.203,-6.19
44.218,-35.71
44.234,-60.49
44.250,-79.4
44.265,-91.75
44.281,-97.51
44.296,-97.17
44.312,-92.38
44.328,-85.61
44.343,-79.98
44.359,-79.11
44.375,-85.55
44.390,-99.88
44.406,-120.78
44.421,-146.0
44.437,-172.64
44.453,-198.37
44.468,-221.81
44.484,-242.43
44.500,-261.33
44.515,-280.1
44.531,-300.33
44.546,-323.19
44.562,-348.76
44.578,-374.75
44.593,-396.96
44.609,-410.54
44.625,-406.3
44.640,-380.69
44.656,-335.67
44.671,-277.84
44.687,-216.45
44.703,-160.22
44.718,-113.5
44.734,-76.39
44.750,-46.19
44.765,-19.26
44.781,6.62
44.796,32.1
44.812,58.04
44.828,85.41
44.843,114.92
44.859,148.78
44.875,187.94
44.890,231.05
44.906,275.47
44.921,317.63
44.937,353.91
44.953,383.68
44.968,407.64
44.984,426.37
45.000,443.16
45.015,460.45
45.031,478.07
45.046,494.32
45.062,506.72
45.078,511.39
45.093,507.55
45.109,494.78
45.125,471.75
45.140,441.04
45.156,405.7
45.171,367.4
45.187,327.79
45.203,289.36
45.218,253.35
45.234,225.63
45.250,212.74
45.265,194.14
45.281,159.22
45.296,108.14
45.312,47.59
45.328,-15.87
45.343,-61.78
45.359,-96.78
45.375,-125.75
45.390,-148.95
45.406,-163.96
45.421,-174.02
45.437,-179.49
45.453,-184.43
45.468,-195.23
45.484,-216.85
45.500,-252.24
45.515,-295.41
45.531,-336.51
45.546,-366.6
45.562,-378.17
45.578,-369.12
45.593,-344.83
45.609,-314.39
45.625,-286.08
45.640,-266.18
45.656,-253.96
45.671,-246.16
45.687,-240.22
45.703,-233.82
45.718,-225.78
45.734,-216.82
45.750,-207.17
45.765,-195.58
45.781,-181.27
45.796,-162.33
45.812,-139.05
45.828,-114.5
45.843,-92.75
45.859,-77.05
45.875,-69.26
45.890,-68.19
45.906,-69.61
45.921,-68.1
45.937,-57.7
45.953,-35.02
45.968,-0.49
45.984,42.52
46.000,89.33
46.015,135.28
46.031,177.79
46.046,216.48
46.062,252.44
46.078,287.5
46.093,322.98
46.109,359.04
46.125,395.03
46.140,429.45
46.156,459.07
46.171,479.08
46.187,483.54
46.203,467.71
46.218,431.12
46.234,379.34
46.250,323.24
46.265,275.36
46.281,244.72
46.296,232.95
46.312,233.99
46.328,237.26
46.343,232.61
46.359,214.41
46.375,182.53
46.390,140.54
46.406,92.75
46.421,41.97
46.437,-10.64
46.453,-64.51
46.468,-118.6
46.484,-171.01
46.500,-219.9
46.515,-264.84
46.531,-307.32
46.546,-350.55
46.562,-398.38
46.578,-453.42
46.593,-515.21
46.609,-579.6
46.625,-638.88
46.640,-683.56
46.656,-705.47
46.671,-700.47
46.687,-669.91
46.703,-620.19
46.718,-560.35
46.734,-498.78
46.750,-440.76
46.765,-387.79
46.781,-339.04
46.796,-294.14
46.812,-255.01
46.828,-225.71
46.843,-210.37
46.859,-210.19
46.875,-221.38
46.890,-235.66
46.906,-243.08
46.921,-235.9
46.937,-211.41
46.953,-172.53
46.968,-125.6
46.984,-77.09
47.000,-31.1
47.015,11.31
47.031,50.79
47.046,87.83
47.062,121.38
47.078,149.14
47.093,168.99
47.109,180.28
47.125,184.56
47.140,184.93
47.156,184.98
47.171,186.99
47.187,191.56
47.203,197.7
47.218,203.88
47.234,209.13
47.250,213.67
47.265,219.02
47.281,227.35
47.296,240.66
47.312,260.08
47.328,285.83
47.343,317.03
47.359,351.78
47.375,386.95
47.390,418.49
47.406,442.55
47.421,456.89
47.437,462.21
47.453,461.97
47.468,460.86
47.484,462.25
47.500,466.04
47.515,468.12
47.531,461.94
47.546,441.38
47.562,403.07
47.578,347.74
47.593,279.78
47.609,205.97
47.625,134.14
47.640,72.14
47.656,27.0
47.671,4.01
47.687,5.58
47.703,30.39
47.718,73.23
47.734,125.58
47.750,177.06
47.765,217.26
47.781,237.67
47.796,233.66
47.812,205.24
47.828,156.82
47.843,95.46
47.859,28.87
47.875,-36.28
47.890,-94.33
47.906,-139.76
47.921,-166.42
47.937,-168.22
47.953,-141.96
47.968,-90.37
47.984,-23.45
48.000,43.53
48.015,94.83
48.031,119.62
48.046,115.22
48.062,86.76
48.078,44.22
48.093,-1.24
48.109,-40.51
48.125,-67.75
48.140,-80.37
48.156,-78.66
48.171,-65.14
48.187,-43.75
48.203,-18.68
48.218,6.74
48.234,30.42
48.250,51.11
48.265,67.2
48.281,76.02
48.296,74.36
48.312,59.81
48.328,32.02
48.343,-6.77
48.359,-51.78
48.375,-96.54
48.390,-133.83
48.406,-157.15
48.421,-162.45
48.437,-149.7
48.453,-123.18
48.468,-90.7
48.484,-61.38
48.500,-42.49
48.515,-37.27
48.531,-44.42
48.546,-59.88
48.562,-79.05
48.578,-99.07
48.593,-118.71
48.609,-137.8
48.625,-156.04
48.640,-172.33
48.656,-184.51
48.671,-189.55
48.687,-184.65
48.703,-168.51
48.718,-142.76
48.734,-112.41
48.750,-84.82
48.765,-66.89
48.781,-62.39
48.796,-70.61
48.812,-87.24
48.828,-107.27
48.843,-126.73
48.859,-143.82
48.875,-157.54
48.890,-165.75
48.906,-164.13
48.921,-147.61
48.937,-114.0
48.953,-66.89
48.968,-16.32
48.984,24.82
49.000,45.2
49.015,39.32
49.031,9.05
49.046,-37.43
49.062,-87.94
49.078,-130.12
49.093,-154.29
49.109,-156.23
49.125,-136.6
49.140,-101.43
49.156,-60.87
49.171,-26.47
49.187,-7.28
49.203,-5.31
49.218,-16.32
49.234,-32.32
49.250,-47.48
49.265,-57.62
49.281,-61.97
49.296,-62.41
49.312,-62.08
49.328,-63.42
49.343,-64.59
49.359,-63.02
49.375,-57.06
49.390,-50.55
49.406,-45.45
49.421,-42.72
49.437,-42.42
49.453,-45.09
49.468,-50.36
49.484,-51.14
49.500,-39.3
49.515,-9.51
49.531,31.94
49.546,78.01
49.562,121.07
49.578,156.05
49.593,180.22
49.609,195.48
49.625,213.35
49.640,245.52
49.656,298.02
49.671,361.86
49.687,429.71
49.703,496.44
49.718,560.2
49.734,618.19
49.750,631.71
49.765,574.52
49.781,444.22
49.796,308.82
49.812,192.82
49.828,102.58
49.843,24.03
49.859,-45.27
49.875,-104.79
49.890,-152.33
49.906,-179.97
49.921,-182.14
49.937,-158.85
49.953,-123.47
49.968,-85.44
49.984,-50.36
50.000,-19.99
50.015,2.87
50.031,15.4
50.046,19.72
50.062,18.64
50.078,13.94
50.093,0.2
50.109,-23.47
50.125,-55.37
50.140,-92.06
50.156,-132.05
50.171,-174.43
50.187,-214.93
50.203,-248.52
50.218,-271.22
50.234,-285.02
50.250,-291.06
50.265,-290.49
50.281,-283.93
50.296,-272.59
50.312,-257.09
50.328,-235.71
50.343,-206.41
50.359,-168.5
50.375,-125.21
50.390,-80.04
50.406,-36.19
50.421,4.27
50.437,40.23
50.453,71.92
50.468,101.0
50.484,129.28
50.500,157.87
50.515,186.13
50.531,213.2
50.546,238.43
50.562,261.64
50.578,283.07
50.593,303.23
50.609,322.44
50.625,340.38
50.640,355.84
50.656,367.02
50.671,371.92
50.687,369.24
50.703,358.62
50.718,340.81
50.734,317.33
50.750,290.02
50.765,260.44
50.781,229.61
50.796,198.2
50.812,166.67
50.828,135.77
50.843,106.51
50.859,80.09
50.875,57.43
50.890,38.92
50.906,24.13
50.921,11.93
50.937,0.91
50.953,-10.37
50.968,-23.06
50.984,-37.93
51.000,-55.12
51.015,-73.91
51.031,-92.61
51.046,-108.69
51.062,-119.59
51.078,-123.45
51.093,-120.09
51.109,-110.94
51.125,-98.72
51.140,-86.5
51.156,-76.82
51.171,-71.32
51.187,-70.99
51.203,-76.78
51.218,-89.94
51.234,-112.43
51.250,-145.76
51.265,-190.25
51.281,-244.18
51.296,-303.49
51.312,-362.54
51.328,-415.56
51.343,-458.12
51.359,-488.19
51.375,-506.48
51.390,-515.34
51.406,-518.06
51.421,-518.08
51.437,-518.38
51.453,-521.01
51.468,-526.22
51.484,-531.68
51.500,-532.29
51.515,-521.61
51.531,-494.18
51.546,-448.73
51.562,-389.68
51.578,-325.95
51.593,-267.68
51.609,-221.85
51.625,-189.41
51.640,-165.38
51.656,-142.05
51.671,-113.09
51.687,-76.48
51.703,-34.71
51.718,7.75
51.734,47.37
51.750,83.43
51.765,117.62
51.781,151.79
51.796,185.72
51.812,216.39
51.828,238.93
51.843,249.36
51.859,246.91
51.875,234.83
51.890,219.03
51.906,204.69
51.921,193.3
51.937,181.13
51.953,160.86
51.968,125.05
51.984,70.33
52.000,-0.65
52.015,-80.06
52.031,-157.95
52.046,-225.9
52.062,-278.76
52.078,-314.32
52.093,-331.21
52.109,-327.68
52.125,-301.85
52.140,-253.76
52.156,-187.45
52.171,-111.4
52.187,-36.76
52.203,25.96
52.218,69.81
52.234,92.9
52.250,97.56
52.265,88.57
52.281,71.13
52.296,49.48
52.312,26.54
52.328,4.1
52.343,-16.71
52.359,-35.19
52.375,-50.65
52.390,-62.68
52.406,-71.33
52.421,-77.0
52.437,-80.19
52.453,-81.16
52.468,-79.75
52.484,-75.52
52.500,-68.34
52.515,-58.57
52.531,-47.38
52.546,-36.22
52.562,-25.99
52.578,-16.26
52.593,-5.1
52.609,10.51
52.625,33.31
52.640,64.51
52.656,103.2
52.671,146.56
52.687,190.78
52.703,232.08
52.718,267.11
52.734,293.13
52.750,308.08
52.765,310.52
52.781,300.22
52.796,278.78
52.812,249.91
52.828,219.08
52.843,192.63
52.859,175.99
52.875,172.55
52.890,183.1
52.906,205.89
52.921,237.39
52.937,273.49
52.953,310.24
52.968,344.47
52.984,373.77
53.000,396.0
53.015,408.92
53.031,410.1
53.046,397.28
53.062,369.18
53.078,326.18
53.093,270.61
53.109,206.38
53.125,138.28
53.140,70.91
53.156,7.94
53.171,-48.31
53.187,-96.91
53.203,-137.78
53.218,-171.28
53.234,-197.89
53.250,-217.93
53.265,-231.68
53.281,-239.47
53.296,-241.45
53.312,-237.53
53.328,-227.53
53.343,-211.12
53.359,-188.32
53.375,-159.77
53.390,-127.03
53.406,-92.36
53.421,-58.32
53.437,-27.13
53.453,-0.13
53.468,22.12
53.484,39.88
53.500,53.64
53.515,63.84
53.531,70.61
53.546,73.79
53.562,73.13
53.578,68.44
53.593,59.84
53.609,47.78
53.625,33.11
53.640,16.9
53.656,0.32
53.671,-15.53
53.687,-29.83
53.703,-42.04
53.718,-51.94
53.734,-59.51
53.750,-64.78
53.765,-67.53
53.781,-67.19
53.796,-62.92
53.812,-53.88
53.828,-39.89
53.843,-21.61
53.859,-0.55
53.875,21.43
53.890,42.93
53.906,63.36
53.921,82.95
53.937,102.07
53.953,120.44
53.968,136.73
53.984,148.85
54.000,154.62
54.015,152.83
54.031,143.69
54.046,128.68
54.062,109.94
54.078,89.46
54.093,68.61
54.109,48.16
54.125,28.55
54.140,10.21
54.156,-6.18
54.171,-19.66
54.187,-29.39
54.203,-34.79
54.218,-35.87
54.234,-33.16
54.250,-27.55
54.265,-20.0
54.281,-11.43
54.296,-2.47
54.312,6.3
54.328,14.23
54.343,20.76
54.359,25.5
54.375,28.54
54.390,30.39
54.406,31.85
54.421,33.71
54.437,36.51
54.453,40.22
54.468,44.14
54.484,47.39
54.500,48.83
54.515,47.16
54.531,40.65
54.546,27.19
54.562,4.69
54.578,-28.17
54.593,-71.32
54.609,-122.96
54.625,-179.33
54.640,-235.38
54.656,-285.41
54.671,-323.79
54.687,-345.46
54.703,-346.6
54.718,-325.44
54.734,-282.92
54.750,-222.99
54.765,-152.15
54.781,-78.4
54.796,-9.35
54.812,48.91
54.828,92.24
54.843,118.53
54.859,127.14
54.875,118.58
54.890,94.33
54.906,56.96
54.921,10.55
54.937,-38.88
54.953,-83.55
54.968,-115.2
54.984,-126.72
55.000,-113.89
55.015,-76.58
55.031,-18.76
55.046,52.44
55.062,128.32
55.078,200.56
55.093,262.54
55.109,309.45
55.125,338.11
55.140,346.55
55.156,333.84
55.171,300.26
55.187,247.65
55.203,180.05
55.218,103.64
55.234,26.79
55.250,-41.17
55.265,-91.55
55.281,-118.6
55.296,-120.76
55.312,-100.65
55.328,-64.43
55.343,-19.94
55.359,24.47
55.375,61.03
55.390,82.97
55.406,85.18
55.421,64.84
55.437,22.12
55.453,-39.18
55.468,-111.9
55.484,-186.61
55.500,-253.34
55.515,-303.1
55.531,-328.98
55.546,-326.75
55.562,-295.52
55.578,-238.15
55.593,-161.08
55.609,-73.52
55.625,14.07
55.640,91.77
55.656,151.95
55.671,190.04
55.687,204.59
55.703,196.88
55.718,170.12
55.734,129.13
55.750,80.12
55.765,30.13
55.781,-13.42
55.796,-43.62
55.812,-55.21
55.828,-45.61
55.843,-15.39
55.859,31.88
55.875,90.48
55.890,153.72
55.906,214.87
55.921,267.96
55.937,308.17
55.953,332.18
55.968,338.12
55.984,325.91
56.000,297.4
56.015,256.65
56.031,209.53
56.046,162.7
56.062,122.34
56.078,92.83
56.093,76.03
56.109,71.24
56.125,76.31
56.140,88.49
56.156,105.4
56.171,124.93
56.187,144.75
56.203,161.94
56.218,172.97
56.234,174.28
56.250,163.56
56.265,140.65
56.281,107.57
56.296,67.73
56.312,24.68
56.328,-18.77
56.343,-61.15
56.359,-102.0
56.375,-141.28
56.390,-178.2
56.406,-210.94
56.421,-236.9
56.437,-254.02
56.453,-261.63
56.468,-260.64
56.484,-253.06
56.500,-241.11
56.515,-226.38
56.531,-209.44
56.546,-190.3
56.562,-169.11
56.578,-146.67
56.593,-124.48
56.609,-104.25
56.625,-87.47
56.640,-74.98
56.656,-66.93
56.671,-62.88
56.687,-62.28
56.703,-64.68
56.718,-69.7
56.734,-77.07
56.750,-86.28
56.765,-96.39
56.781,-106.01
56.796,-113.38
56.812,-116.9
56.828,-115.56
56.843,-109.17
56.859,-98.35
56.875,-84.25
56.890,-68.28
56.906,-51.9
56.921,-36.55
56.937,-23.51
56.953,-13.69
56.968,-7.32
56.984,-3.78
57.000,-1.95
57.015,-0.56
57.031,0.98
57.046,2.45
57.062,2.85
57.078,1.06
57.093,-3.72
57.109,-11.53
57.125,-21.85
57.140,-33.93
57.156,-46.93
57.171,-59.89
57.187,-71.32
57.203,-79.06
57.218,-80.68
57.234,-74.31
57.250,-59.63
57.265,-38.42
57.281,-14.32
57.296,8.45
57.312,26.37
57.328,37.74
57.343,42.71
57.359,42.38
57.375,37.88
57.390,29.6
57.406,17.42
57.421,1.58
57.437,-16.24
57.453,-32.77
57.468,-43.86
57.484,-45.97
57.500,-37.93
57.515,-21.57
57.531,-1.17
57.546,18.24
57.562,32.75
57.578,40.96
57.593,43.84
57.609,43.45
57.625,41.55
57.640,38.56
57.656,33.85
57.671,26.75
57.687,17.66
57.703,8.44
57.718,1.87
57.734,0.55
57.750,5.55
57.765,16.23
57.781,30.79
57.796,47.28
57.812,64.1
57.828,80.16
57.843,94.35
57.859,105.22
57.875,111.36
57.890,111.55
57.906,105.37
57.921,93.73
57.937,78.57
57.953,61.93
57.968,44.88
57.984,27.14
58.000,8.07
58.015,-11.38
58.031,-28.86
58.046,-41.61
58.062,-47.47
58.078,-46.31
58.093,-40.49
58.109,-34.42
58.125,-33.32
58.140,-40.83
58.156,-56.49
58.171,-78.04
58.187,-103.28
58.203,-130.31
58.218,-157.45
58.234,-182.5
58.250,-202.34
58.265,-214.08
58.281,-215.41
58.296,-203.46
58.312,-178.67
58.328,-145.72
58.343,-110.77
58.359,-79.46
58.375,-55.54
58.390,-40.76
58.406,-37.25
58.421,-47.4
58.437,-70.87
58.453,-107.2
58.468,-155.72
58.484,-212.63
58.500,-270.88
58.515,-321.3
58.531,-346.35
58.546,-332.23
58.562,-289.76
58.578,-229.47
58.593,-154.84
58.609,-72.59
58.625,10.5
58.640,88.3
58.656,155.88
58.671,209.57
58.687,245.75
58.703,262.28
58.718,261.93
58.734,248.96
58.750,227.38
58.765,201.82
58.781,176.93
58.796,156.68
58.812,143.8
58.828,138.35
58.843,138.33
58.859,142.5
58.875,148.46
58.890,152.55
58.906,152.11
58.921,146.18
58.937,135.49
58.953,121.94
58.968,107.21
58.984,92.6
59.000,80.23
59.015,71.29
59.031,65.65
59.046,62.84
59.062,62.25
59.078,63.33
59.093,65.75
59.109,68.98
59.125,72.43
59.140,75.96
59.156,78.91
59.171,79.97
59.187,77.98
59.203,72.52
59.218,64.33
59.234,55.51
59.250,49.08
59.265,48.39
59.281,56.7
59.296,75.89
59.312,105.42
59.328,142.1
59.343,180.74
59.359,215.78
59.375,243.41
59.390,262.54
59.406,274.62
59.421,282.31
59.437,287.4
59.453,289.12
59.468,283.9
59.484,266.7
59.500,232.82
59.515,179.36
59.531,105.78
59.546,14.85
59.562,-86.76
59.578,-188.58
59.593,-277.64
59.609,-341.6
59.625,-372.19
59.640,-367.74
59.656,-333.81
59.671,-281.79
59.687,-224.37
59.703,-171.33
59.718,-127.38
59.734,-92.01
59.750,-62.88
59.765,-37.82
59.781,-15.81
59.796,2.92
59.812,16.18
59.828,22.19
59.843,20.93
59.859,14.25
59.875,6.09
59.890,-1.56
59.906,-8.63
59.921,-16.42
59.937,-26.58
59.953,-42.3
59.968,-65.42
59.984,-95.38
