timestamp,value
00.000,-241.83
00.015,-261.83
00.031,-283.95
00.046,-298.35
00.062,-296.41
00.078,-273.74
00.093,-231.76
00.109,-177.26
00.125,-120.31
00.140,-70.9
00.156,-36.12
00.171,-18.73
00.187,-17.15
00.203,-27.15
00.218,-43.63
00.234,-61.51
00.250,-76.67
00.265,-85.63
00.281,-85.77
00.296,-75.71
00.312,-56.01
00.328,-29.06
00.343,1.79
00.359,34.18
00.375,68.4
00.390,107.56
00.406,155.65
00.421,214.43
00.437,281.37
00.453,349.25
00.468,408.96
00.484,452.59
00.500,476.28
00.515,480.6
00.531,468.55
00.546,443.08
00.562,405.83
00.578,357.61
00.593,299.98
00.609,237.03
00.625,174.75
00.640,119.31
00.656,74.66
00.671,41.08
00.687,15.46
00.703,-6.7
00.718,-29.35
00.734,-54.37
00.750,-81.36
00.765,-108.82
00.781,-135.21
00.796,-159.71
00.812,-182.37
00.828,-203.63
00.843,-223.66
00.859,-241.8
00.875,-256.96
00.890,-267.68
00.906,-273.09
00.921,-273.48
00.937,-270.22
00.953,-265.44
00.968,-260.73
00.984,-256.25
01.000,-250.45
01.015,-240.86
01.031,-225.16
01.046,-202.68
01.062,-174.99
01.078,-145.35
01.093,-117.77
01.109,-95.24
01.125,-78.69
01.140,-66.94
01.156,-57.8
01.171,-49.46
01.187,-41.8
01.203,-36.32
01.218,-35.0
01.234,-38.7
01.250,-45.85
01.265,-52.5
01.281,-53.73
01.296,-45.49
01.312,-25.63
01.328,6.18
01.343,49.57
01.359,104.39
01.375,170.15
01.390,244.44
01.406,321.78
01.421,393.91
01.437,452.19
01.453,490.74
01.468,508.7
01.484,509.91
01.500,500.31
01.515,484.37
01.531,462.73
01.546,432.11
01.562,387.38
01.578,324.96
01.593,245.2
01.609,153.33
01.625,58.41
01.640,-29.09
01.656,-100.29
01.671,-150.23
01.687,-178.82
01.703,-190.32
01.718,-191.43
01.734,-188.99
01.750,-188.12
01.765,-191.47
01.781,-199.33
01.796,-210.63
01.812,-223.63
01.828,-236.33
01.843,-246.58
01.859,-252.72
01.875,-253.88
01.890,-250.59
01.906,-245.19
01.921,-240.82
01.937,-240.26
01.953,-244.61
01.968,-252.31
01.984,-259.35
02.000,-260.82
02.015,-252.81
02.031,-233.86
02.046,-205.77
02.062,-173.02
02.078,-141.22
02.093,-115.47
02.109,-98.97
02.125,-92.53
02.140,-95.17
02.156,-104.58
02.171,-117.81
02.187,-131.72
02.203,-142.95
02.218,-148.33
02.234,-145.68
02.250,-134.18
02.265,-114.65
02.281,-88.84
02.296,-58.01
02.312,-21.58
02.328,22.48
02.343,76.59
02.359,141.12
02.375,212.66
02.390,284.66
02.406,349.41
02.421,400.8
02.437,436.29
02.453,456.79
02.468,464.62
02.484,461.85
02.500,448.94
02.515,425.04
02.531,389.57
02.546,343.73
02.562,291.0
02.578,236.54
02.593,185.75
02.609,142.44
02.625,108.3
02.640,82.57
02.656,62.61
02.671,45.02
02.687,26.52
02.703,4.64
02.718,-21.7
02.734,-52.64
02.750,-87.44
02.765,-124.21
02.781,-160.24
02.796,-192.3
02.812,-217.35
02.828,-233.5
02.843,-241.03
02.859,-242.42
02.875,-241.8
02.890,-243.32
02.906,-249.29
02.921,-259.17
02.937,-269.67
02.953,-275.91
02.968,-273.37
02.984,-259.54
03.000,-235.02
03.015,-203.12
03.031,-168.73
03.046,-136.62
03.062,-110.08
03.078,-90.22
03.093,-75.96
03.109,-64.87
03.125,-54.33
03.140,-42.5
03.156,-29.04
03.171,-15.05
03.187,-2.25
03.203,7.69
03.218,14.31
03.234,18.66
03.250,23.13
03.265,31.13
03.281,46.59
03.296,73.54
03.312,115.42
03.328,174.04
03.343,248.08
03.359,332.24
03.375,417.61
03.390,493.82
03.406,552.23
03.421,588.56
03.437,603.96
03.453,603.05
03.468,590.99
03.484,570.65
03.500,541.36
03.515,500.04
03.531,443.48
03.546,370.69
03.562,283.3
03.578,184.93
03.593,79.71
03.609,-28.09
03.625,-134.02
03.640,-232.43
03.656,-316.62
03.671,-380.13
03.687,-418.43
03.703,-430.83
03.718,-421.1
03.734,-396.1
03.750,-363.44
03.765,-329.49
03.781,-298.24
03.796,-271.77
03.812,-251.84
03.828,-240.64
03.843,-240.34
03.859,-251.93
03.875,-273.64
03.890,-300.31
03.906,-324.41
03.921,-338.76
03.937,-338.31
03.953,-322.21
03.968,-293.43
03.984,-257.43
04.000,-220.53
04.015,-188.02
04.031,-163.31
04.046,-147.28
04.062,-139.08
04.078,-136.49
04.093,-137.08
04.109,-138.42
04.125,-138.34
04.140,-134.92
04.156,-126.1
04.171,-110.06
04.187,-85.75
04.203,-53.23
04.218,-13.77
04.234,30.64
04.250,79.12
04.265,132.58
04.281,193.0
04.296,261.7
04.312,336.94
04.328,412.6
04.343,479.69
04.359,529.63
04.375,557.32
04.390,562.9
04.406,550.67
04.421,525.59
04.437,490.27
04.453,443.89
04.468,383.88
04.484,309.49
04.500,224.64
04.515,137.73
04.531,58.98
04.546,-3.14
04.562,-45.23
04.578,-69.14
04.593,-80.11
04.609,-84.26
04.625,-86.43
04.640,-89.92
04.656,-97.5
04.671,-111.84
04.687,-135.05
04.703,-167.37
04.718,-205.73
04.734,-243.83
04.750,-274.28
04.765,-291.12
04.781,-292.27
04.796,-280.36
04.812,-261.19
04.828,-241.43
04.843,-226.16
04.859,-217.39
04.875,-214.01
04.890,-212.97
04.906,-210.83
04.921,-204.85
04.937,-193.9
04.953,-178.44
04.968,-160.38
04.984,-142.31
05.000,-126.38
05.015,-113.39
05.031,-102.9
05.046,-93.59
05.062,-84.33
05.078,-75.08
05.093,-66.45
05.109,-59.08
05.125,-52.38
05.140,-44.06
05.156,-31.07
05.171,-11.14
05.187,16.33
05.203,50.46
05.218,90.26
05.234,136.13
05.250,189.45
05.265,250.6
05.281,316.87
05.296,381.73
05.312,436.6
05.328,474.29
05.343,492.04
05.359,491.86
05.375,478.55
05.390,456.12
05.406,425.23
05.421,383.36
05.437,327.19
05.453,256.23
05.468,174.57
05.484,90.67
05.500,14.42
05.515,-46.22
05.531,-87.65
05.546,-110.85
05.562,-120.16
05.578,-121.21
05.593,-118.73
05.609,-116.13
05.625,-115.47
05.640,-118.13
05.656,-125.03
05.671,-136.51
05.687,-151.68
05.703,-168.66
05.718,-184.97
05.734,-198.63
05.750,-208.9
05.765,-216.55
05.781,-223.22
05.796,-230.26
05.812,-237.86
05.828,-244.69
05.843,-248.38
05.859,-246.4
05.875,-237.1
05.890,-220.68
05.906,-199.24
05.921,-176.34
05.937,-155.7
05.953,-140.03
05.968,-129.86
05.984,-123.62
06.000,-118.38
06.015,-111.19
06.031,-100.51
06.046,-86.5
06.062,-70.4
06.078,-53.66
06.093,-37.28
06.109,-21.8
06.125,-7.51
06.140,5.59
06.156,18.46
06.171,34.24
06.187,58.76
06.203,98.94
06.218,159.83
06.234,241.12
06.250,335.46
06.265,430.12
06.281,511.15
06.296,568.57
06.312,599.26
06.328,606.94
06.343,598.49
06.359,579.77
06.375,553.04
06.390,516.54
06.406,466.85
06.421,401.22
06.437,319.84
06.453,225.83
06.468,125.11
06.484,24.94
06.500,-67.03
06.515,-143.79
06.531,-200.14
06.546,-234.11
06.562,-247.54
06.578,-245.62
06.593,-235.64
06.609,-224.83
06.625,-218.81
06.640,-220.44
06.656,-230.07
06.671,-246.23
06.687,-266.12
06.703,-286.43
06.718,-303.88
06.734,-315.9
06.750,-321.55
06.765,-321.94
06.781,-319.9
06.796,-318.43
06.812,-319.59
06.828,-322.71
06.843,-324.64
06.859,-321.14
06.875,-308.6
06.890,-285.94
06.906,-255.03
06.921,-220.02
06.937,-185.28
06.953,-154.87
06.968,-131.21
06.984,-115.35
07.000,-107.14
07.015,-104.74
07.031,-104.46
07.046,-101.44
07.062,-91.18
07.078,-71.51
07.093,-43.77
07.109,-11.78
07.125,20.69
07.140,52.54
07.156,86.66
07.171,128.09
07.187,181.02
07.203,245.92
07.218,318.28
07.234,390.3
07.250,453.96
07.265,503.83
07.281,537.83
07.296,556.84
07.312,562.07
07.328,553.73
07.343,530.53
07.359,490.42
07.375,432.31
07.390,357.9
07.406,272.43
07.421,183.82
07.437,101.38
07.453,32.46
07.468,-19.36
07.484,-54.72
07.500,-77.69
07.515,-93.46
07.531,-105.9
07.546,-116.94
07.562,-126.86
07.578,-135.64
07.593,-144.1
07.609,-153.96
07.625,-166.74
07.640,-182.53
07.656,-199.35
07.671,-213.72
07.687,-222.49
07.703,-224.48
07.718,-221.32
07.734,-216.8
07.750,-215.03
07.765,-218.24
07.781,-225.7
07.796,-233.47
07.812,-236.15
07.828,-229.04
07.843,-210.23
07.859,-181.64
07.875,-148.4
07.890,-116.9
07.906,-92.29
07.921,-76.95
07.937,-69.98
07.953,-68.32
07.968,-68.54
07.984,-68.11
08.000,-65.83
08.015,-61.51
08.031,-55.01
08.046,-45.83
08.062,-33.34
08.078,-16.99
08.093,3.75
08.109,29.95
08.125,63.87
08.140,108.69
08.156,166.63
08.171,236.7
08.187,313.52
08.203,388.1
08.218,450.96
08.234,495.72
08.250,521.08
08.265,530.22
08.281,528.09
08.296,517.95
08.312,499.56
08.328,470.03
08.343,425.77
08.359,364.75
08.375,287.71
08.390,198.2
08.406,101.92
08.421,5.95
08.437,-82.09
08.453,-155.21
08.468,-208.29
08.484,-239.52
08.500,-250.93
08.515,-247.52
08.531,-235.8
08.546,-221.58
08.562,-209.12
08.578,-200.92
08.593,-198.26
08.609,-201.78
08.625,-211.38
08.640,-225.71
08.656,-241.82
08.671,-255.69
08.687,-263.32
08.703,-262.54
08.718,-253.92
08.734,-240.47
08.750,-226.33
08.765,-215.06
08.781,-208.06
08.796,-204.06
08.812,-200.69
08.828,-195.56
08.843,-188.08
08.859,-179.99
08.875,-174.6
08.890,-175.27
08.906,-183.55
08.921,-197.91
08.937,-213.73
08.953,-225.13
08.968,-227.05
08.984,-217.49
09.000,-198.12
09.015,-172.96
09.031,-146.5
09.046,-121.48
09.062,-98.21
09.078,-75.15
09.093,-49.93
09.109,-20.31
09.125,15.6
09.140,60.09
09.156,115.73
09.171,184.49
09.187,265.96
09.203,355.89
09.218,446.03
09.234,526.1
09.250,587.04
09.265,623.54
09.281,634.87
09.296,624.0
09.312,595.05
09.328,551.19
09.343,493.67
09.359,422.24
09.375,337.09
09.390,240.88
09.406,139.37
09.421,40.71
09.437,-46.66
09.453,-116.58
09.468,-166.43
09.484,-197.42
09.500,-213.45
09.515,-219.12
09.531,-217.94
09.546,-211.83
09.562,-201.64
09.578,-188.23
09.593,-173.46
09.609,-159.99
09.625,-150.32
09.640,-145.51
09.656,-144.55
09.671,-144.63
09.687,-142.84
09.703,-137.53
09.718,-129.53
09.734,-121.97
09.750,-118.78
09.765,-122.73
09.781,-134.13
09.796,-150.46
09.812,-167.24
09.828,-179.82
09.843,-184.73
09.859,-180.95
09.875,-170.23
09.890,-156.56
09.906,-145.09
09.921,-140.52
09.937,-145.45
09.953,-159.77
09.968,-180.61
09.984,-203.22
10.000,-222.32
10.015,-233.65
10.031,-234.56
10.046,-224.04
10.062,-202.53
10.078,-171.22
10.093,-131.63
10.109,-85.38
10.125,-33.82
10.140,21.78
10.156,80.25
10.171,140.36
10.187,200.81
10.203,260.38
10.218,318.24
10.234,373.8
10.250,425.88
10.265,472.36
10.281,509.69
10.296,533.81
10.312,541.39
10.328,531.02
10.343,503.28
10.359,460.11
10.375,403.85
10.390,336.74
10.406,261.46
10.421,181.93
10.437,104.07
10.453,34.86
10.468,-19.52
10.484,-56.14
10.500,-76.46
10.515,-85.49
10.531,-89.92
10.546,-95.44
10.562,-105.24
10.578,-119.68
10.593,-137.05
10.609,-154.81
10.625,-170.49
10.640,-182.41
10.656,-189.65
10.671,-192.36
10.687,-191.49
10.703,-188.87
10.718,-186.69
10.734,-186.39
10.750,-188.19
10.765,-190.43
10.781,-190.55
10.796,-186.16
10.812,-176.29
10.828,-161.67
10.843,-144.99
10.859,-129.7
10.875,-118.99
10.890,-114.84
10.906,-117.15
10.921,-124.13
10.937,-132.44
10.953,-138.88
10.968,-141.39
10.984,-140.24
11.000,-137.98
11.015,-138.0
11.031,-142.45
11.046,-150.31
11.062,-157.26
11.078,-157.05
11.093,-144.12
11.109,-115.33
11.125,-70.49
11.140,-11.83
11.156,57.13
11.171,132.0
11.187,207.52
11.203,277.31
11.218,335.32
11.234,377.81
11.250,405.31
11.265,422.56
11.281,436.4
11.296,451.73
11.312,468.32
11.328,480.49
11.343,479.19
11.359,456.18
11.375,408.26
11.390,339.06
11.406,257.67
11.421,175.46
11.437,102.61
11.453,45.26
11.468,4.86
11.484,-20.91
11.500,-36.34
11.515,-45.83
11.531,-53.12
11.546,-60.98
11.562,-71.75
11.578,-87.29
11.593,-108.71
11.609,-135.43
11.625,-164.59
11.640,-191.31
11.656,-210.42
11.671,-218.76
11.687,-216.85
11.703,-208.91
11.718,-201.4
11.734,-200.38
11.750,-208.64
11.765,-224.67
11.781,-242.99
11.796,-256.48
11.812,-259.03
11.828,-247.67
11.843,-223.12
11.859,-189.67
11.875,-153.53
11.890,-120.51
11.906,-94.39
11.921,-76.27
11.937,-64.73
11.953,-56.94
11.968,-50.29
11.984,-42.97
12.000,-34.47
12.015,-25.15
12.031,-15.5
12.046,-5.35
12.062,6.33
12.078,21.56
12.093,43.35
12.109,75.24
12.125,120.78
12.140,181.85
12.156,257.33
12.171,342.3
12.187,428.59
12.203,507.1
12.218,570.63
12.234,615.83
12.250,643.25
12.265,655.84
12.281,656.28
12.296,645.37
12.312,621.84
12.328,583.72
12.343,530.02
12.359,461.72
12.375,381.41
12.390,292.31
12.406,197.4
12.421,99.11
12.437,0.02
12.453,-96.34
12.468,-185.54
12.484,-263.08
12.500,-325.52
12.515,-371.98
12.531,-404.67
12.546,-428.05
12.562,-447.18
12.578,-465.66
12.593,-483.78
12.609,-498.58
12.625,-505.0
12.640,-498.34
12.656,-476.68
12.671,-442.45
12.687,-401.84
12.703,-362.69
12.718,-331.68
12.734,-311.85
12.750,-302.02
12.765,-297.39
12.781,-291.57
12.796,-278.84
12.812,-256.14
12.828,-223.75
12.843,-185.22
12.859,-146.39
12.875,-113.88
12.890,-93.2
12.906,-87.11
12.921,-94.91
12.937,-112.58
12.953,-133.9
12.968,-152.22
12.984,-161.99
13.000,-159.75
13.015,-144.19
13.031,-115.57
13.046,-74.66
13.062,-21.8
13.078,43.2
13.093,120.5
13.109,208.67
13.125,303.53
13.140,397.95
13.156,483.21
13.171,551.45
13.187,598.08
13.203,623.04
13.218,629.73
13.234,622.63
13.250,604.83
13.265,576.58
13.281,535.91
13.296,480.28
13.312,408.98
13.328,324.02
13.343,230.29
13.359,134.41
13.375,42.75
13.390,-40.07
13.406,-111.67
13.421,-171.63
13.437,-220.77
13.453,-259.86
13.468,-289.44
13.484,-310.11
13.500,-323.13
13.515,-330.84
13.531,-336.16
13.546,-341.15
13.562,-345.81
13.578,-347.85
13.593,-343.63
13.609,-330.46
13.625,-308.72
13.640,-282.27
13.656,-257.34
13.671,-239.68
13.687,-232.49
13.703,-234.94
13.718,-242.79
13.734,-250.34
13.750,-252.65
13.765,-247.36
13.781,-234.95
13.796,-218.31
13.812,-200.81
13.828,-185.0
13.843,-171.84
13.859,-160.68
13.875,-150.48
13.890,-140.8
13.906,-131.97
13.921,-124.29
13.937,-117.08
13.953,-107.91
13.968,-93.36
13.984,-70.8
14.000,-40.18
14.015,-4.44
14.031,31.68
14.046,64.68
14.062,94.7
14.078,125.62
14.093,163.16
14.109,211.42
14.125,270.3
14.140,335.57
14.156,400.77
14.171,460.09
14.187,509.89
14.203,548.46
14.218,574.11
14.234,583.82
14.250,573.42
14.265,539.31
14.281,481.23
14.296,403.69
14.312,315.37
14.328,226.62
14.343,146.32
14.359,79.54
14.375,27.36
14.390,-12.06
14.406,-41.44
14.421,-63.04
14.437,-78.21
14.453,-87.91
14.468,-93.16
14.484,-95.71
14.500,-97.91
14.515,-102.07
14.531,-109.91
14.546,-122.03
14.562,-137.79
14.578,-155.82
14.593,-174.92
14.609,-194.3
14.625,-214.11
14.640,-234.48
14.656,-254.66
14.671,-272.05
14.687,-282.73
14.703,-282.36
14.718,-268.02
14.734,-240.26
14.750,-203.21
14.765,-164.01
14.781,-130.24
14.796,-107.62
14.812,-98.07
14.828,-99.58
14.843,-107.25
14.859,-115.39
14.875,-119.54
14.890,-118.06
14.906,-112.29
14.921,-105.5
14.937,-100.91
14.953,-99.92
14.968,-101.2
14.984,-101.25
15.000,-95.56
15.015,-80.29
15.031,-52.57
15.046,-10.62
15.062,46.18
15.078,116.93
15.093,197.93
15.109,282.49
15.125,361.51
15.140,426.21
15.156,470.94
15.171,495.49
15.187,504.44
15.203,504.0
15.218,498.36
15.234,486.87
15.250,465.14
15.265,427.7
15.281,372.06
15.296,300.93
15.312,221.58
15.328,143.1
15.343,72.86
15.359,14.47
15.375,-31.94
15.390,-68.21
15.406,-96.34
15.421,-117.54
15.437,-132.78
15.453,-143.65
15.468,-152.78
15.484,-163.02
15.500,-175.95
15.515,-190.78
15.531,-204.61
15.546,-213.82
15.562,-216.0
15.578,-211.37
15.593,-202.82
15.609,-194.58
15.625,-190.43
15.640,-192.03
15.656,-198.41
15.671,-206.62
15.687,-212.62
15.703,-212.72
15.718,-204.73
15.734,-188.67
15.750,-166.79
15.765,-142.86
15.781,-121.06
15.796,-104.2
15.812,-92.9
15.828,-85.54
15.843,-79.85
15.859,-74.54
15.875,-70.19
15.890,-68.56
15.906,-70.77
15.921,-75.66
15.937,-79.45
15.953,-77.01
15.968,-64.16
15.984,-39.17
16.000,-2.76
16.015,43.45
16.031,98.29
16.046,161.38
16.062,231.6
16.078,305.5
16.093,376.64
16.109,437.35
16.125,481.34
16.140,505.99
16.156,512.86
16.171,505.42
16.187,486.57
16.203,456.86
16.218,415.14
16.234,360.21
16.250,293.5
16.265,220.05
16.281,147.11
16.296,81.82
16.312,28.67
16.328,-11.35
16.343,-40.41
16.359,-61.95
16.375,-79.44
16.390,-95.17
16.406,-110.14
16.421,-124.79
16.437,-139.71
16.453,-156.22
16.468,-175.87
16.484,-199.75
16.500,-227.35
16.515,-256.01
16.531,-281.58
16.546,-299.78
16.562,-308.5
16.578,-308.93
16.593,-305.59
16.609,-304.22
16.625,-309.06
16.640,-320.25
16.656,-333.37
16.671,-341.03
16.687,-335.97
16.703,-314.54
16.718,-277.9
16.734,-231.91
16.750,-184.88
16.765,-144.84
16.781,-117.01
16.796,-103.11
16.812,-101.48
16.828,-108.26
16.843,-118.8
16.859,-128.26
16.875,-132.43
16.890,-127.99
16.906,-113.22
16.921,-88.43
16.937,-56.23
16.953,-20.94
16.968,13.19
16.984,44.05
17.000,73.34
17.015,105.99
17.031,147.92
17.046,202.73
17.062,269.55
17.078,342.8
17.093,414.2
17.109,475.9
17.125,522.8
17.140,553.27
17.156,567.98
17.171,568.31
17.187,554.57
17.203,525.75
17.218,480.29
17.234,417.48
17.250,339.07
17.265,250.14
17.281,158.44
17.296,72.45
17.312,-0.68
17.328,-57.41
17.343,-98.37
17.359,-127.05
17.375,-148.03
17.390,-164.55
17.406,-177.77
17.421,-187.32
17.437,-192.95
17.453,-195.49
17.468,-197.25
17.484,-200.76
17.500,-206.89
17.515,-214.22
17.531,-219.08
17.546,-217.62
17.562,-207.96
17.578,-191.59
17.593,-173.29
17.609,-159.52
17.625,-155.62
17.640,-163.34
17.656,-180.35
17.671,-200.85
17.687,-218.21
17.703,-227.52
17.718,-226.98
17.734,-218.11
17.750,-204.87
17.765,-191.65
17.781,-181.37
17.796,-175.17
17.812,-172.13
17.828,-170.19
17.843,-167.39
17.859,-161.58
17.875,-150.7
17.890,-132.9
17.906,-107.01
17.921,-73.68
17.937,-36.33
17.953,-0.26
17.968,29.4
17.984,50.1
18.000,64.27
18.015,78.46
18.031,100.76
18.046,137.01
18.062,188.17
18.078,250.17
18.093,316.0
18.109,378.6
18.125,432.71
18.140,475.45
18.156,505.33
18.171,521.4
18.187,522.64
18.203,507.89
18.218,476.45
18.234,428.64
18.250,366.41
18.265,293.55
18.281,215.84
18.296,140.14
18.312,73.03
18.328,19.21
18.343,-20.01
18.359,-46.62
18.375,-64.67
18.390,-78.39
18.406,-90.72
18.421,-102.54
18.437,-113.81
18.453,-124.6
18.468,-135.92
18.484,-149.57
18.500,-166.73
18.515,-186.86
18.531,-207.19
18.546,-224.22
18.562,-235.4
18.578,-240.72
18.593,-242.56
18.609,-244.1
18.625,-247.12
18.640,-250.37
18.656,-250.25
18.671,-242.52
18.687,-225.27
18.703,-200.34
18.718,-172.92
18.734,-149.44
18.750,-134.79
18.765,-130.89
18.781,-135.97
18.796,-146.43
18.812,-158.13
18.828,-168.38
18.843,-176.43
18.859,-182.84
18.875,-188.18
18.890,-191.63
18.906,-190.91
18.921,-182.48
18.937,-163.07
18.953,-130.5
18.968,-84.12
18.984,-24.41
19.000,47.34
19.015,129.23
19.031,218.58
19.046,311.01
19.062,400.72
19.078,481.08
19.093,546.09
19.109,591.92
19.125,617.53
19.140,624.31
19.156,614.61
19.171,590.71
19.187,553.7
19.203,503.4
19.218,439.11
19.234,360.99
19.250,271.49
19.265,175.77
19.281,81.16
19.296,-4.71
19.312,-75.77
19.328,-129.02
19.343,-164.49
19.359,-184.41
19.375,-191.82
19.390,-189.7
19.406,-180.77
19.421,-168.29
19.437,-156.18
19.453,-148.57
19.468,-148.51
19.484,-156.66
19.500,-170.7
19.515,-186.35
19.531,-198.73
19.546,-204.37
19.562,-202.88
19.578,-197.05
19.593,-191.84
19.609,-192.32
19.625,-201.43
19.640,-218.17
19.656,-237.74
19.671,-253.1
19.687,-257.48
19.703,-247.55
19.718,-225.09
19.734,-196.88
19.750,-172.37
19.765,-160.03
19.781,-164.1
19.796,-182.57
19.812,-208.13
19.828,-230.53
19.843,-240.39
19.859,-232.16
19.875,-205.46
19.890,-164.87
19.906,-118.13
19.921,-73.55
19.937,-37.82
19.953,-14.23
19.968,-1.43
19.984,5.82
20.000,15.53
20.015,36.05
20.031,73.65
20.046,130.54
20.062,204.53
20.078,289.28
20.093,375.91
20.109,454.96
20.125,517.71
20.140,557.9
20.156,572.95
20.171,564.06
20.187,535.62
20.203,493.58
20.218,443.23
20.234,387.75
20.250,328.37
20.265,265.4
20.281,199.77
20.296,134.24
20.312,72.58
20.328,18.66
20.343,-25.24
20.359,-59.25
20.375,-85.37
20.390,-105.8
20.406,-122.11
20.421,-134.66
20.437,-143.28
20.453,-148.64
20.468,-152.8
20.484,-158.83
20.500,-169.59
20.515,-186.14
20.531,-206.23
20.546,-225.16
20.562,-237.2
20.578,-238.37
20.593,-228.21
20.609,-210.21
20.625,-190.42
20.640,-174.88
20.656,-167.46
20.671,-168.35
20.687,-174.91
20.703,-182.96
20.718,-188.84
20.734,-190.77
20.750,-188.64
20.765,-183.84
20.781,-178.27
20.796,-173.4
20.812,-170.03
20.828,-168.6
20.843,-169.0
20.859,-170.93
20.875,-173.73
20.890,-175.72
20.906,-174.34
20.921,-166.45
20.937,-149.36
20.953,-121.47
20.968,-83.0
20.984,-35.45
21.000,19.23
21.015,79.62
21.031,145.0
21.046,214.65
21.062,287.06
21.078,359.13
21.093,426.54
21.109,484.44
21.125,527.82
21.140,552.97
21.156,557.85
21.171,542.7
21.187,509.51
21.203,462.13
21.218,405.92
21.234,347.15
21.250,291.77
21.265,242.49
21.281,199.33
21.296,160.35
21.312,123.59
21.328,87.78
21.343,53.21
21.359,22.01
21.375,-2.63
21.390,-17.77
21.406,-24.53
21.421,-26.17
21.437,-26.62
21.453,-28.65
21.468,-34.23
21.484,-44.98
21.500,-62.06
21.515,-85.97
21.531,-116.26
21.546,-154.26
21.562,-199.63
21.578,-249.4
21.593,-298.23
21.609,-341.45
21.625,-377.52
21.640,-408.12
21.656,-436.87
21.671,-448.57
21.687,-431.48
21.703,-383.69
21.718,-315.91
21.734,-242.46
21.750,-173.29
21.765,-112.81
21.781,-61.85
21.796,-19.54
21.812,15.88
21.828,43.56
21.843,62.49
21.859,72.8
21.875,76.55
21.890,76.61
21.906,75.38
21.921,74.66
21.937,75.65
21.953,79.04
21.968,82.92
21.984,84.99
22.000,84.04
22.015,80.8
22.031,77.02
22.046,74.12
22.062,73.18
22.078,74.72
22.093,78.88
22.109,84.14
22.125,88.56
22.140,90.71
22.156,90.45
22.171,88.35
22.187,84.66
22.203,79.65
22.218,73.52
22.234,66.47
22.250,58.08
22.265,48.13
22.281,36.58
22.296,23.97
22.312,11.28
22.328,-0.71
22.343,-11.21
22.359,-19.58
22.375,-25.22
22.390,-27.82
22.406,-27.3
22.421,-23.71
22.437,-17.36
22.453,-8.73
22.468,1.58
22.484,13.05
22.500,24.8
22.515,36.04
22.531,45.96
22.546,53.47
22.562,57.34
22.578,55.94
22.593,47.7
22.609,31.43
22.625,9.59
22.640,-15.19
22.656,-39.91
22.671,-62.02
22.687,-80.03
22.703,-93.4
22.718,-102.71
22.734,-108.97
22.750,-113.15
22.765,-115.63
22.781,-116.97
22.796,-117.82
22.812,-118.61
22.828,-118.95
22.843,-117.31
22.859,-111.92
22.875,-101.59
22.890,-87.12
22.906,-71.41
22.921,-58.33
22.937,-50.41
22.953,-47.01
22.968,-45.75
22.984,-40.42
23.000,-27.21
23.015,-6.11
23.031,19.66
23.046,45.49
23.062,67.68
23.078,84.81
23.093,97.33
23.109,106.81
23.125,114.88
23.140,121.55
23.156,125.7
23.171,125.56
23.187,119.07
23.203,104.35
23.218,80.08
23.234,45.41
23.250,1.77
23.265,-46.57
23.281,-93.82
23.296,-133.6
23.312,-160.7
23.328,-172.79
23.343,-171.29
23.359,-155.76
23.375,-131.98
23.390,-108.3
23.406,-92.23
23.421,-88.47
23.437,-97.58
23.453,-116.52
23.468,-140.3
23.484,-164.05
23.500,-184.37
23.515,-200.62
23.531,-213.59
23.546,-224.82
23.562,-236.0
23.578,-248.17
23.593,-260.98
23.609,-272.45
23.625,-278.93
23.640,-275.82
23.656,-259.21
23.671,-226.64
23.687,-178.69
23.703,-119.67
23.718,-57.46
23.734,-1.54
23.750,39.24
23.765,59.61
23.781,59.29
23.796,42.56
23.812,17.1
23.828,-8.72
23.843,-28.11
23.859,-37.52
23.875,-36.23
23.890,-25.56
23.906,-7.3
23.921,16.86
23.937,45.43
23.953,77.52
23.968,113.17
23.984,153.92
24.000,202.86
24.015,264.08
24.031,340.39
24.046,431.08
24.062,529.93
24.078,625.42
24.093,703.54
24.109,751.9
24.125,763.29
24.140,736.9
24.156,677.74
24.171,593.68
24.187,492.82
24.203,382.24
24.218,267.92
24.234,156.07
24.250,53.26
24.265,-34.39
24.281,-102.67
24.296,-150.3
24.312,-179.16
24.328,-193.24
24.343,-197.36
24.359,-196.09
24.375,-193.11
24.390,-191.35
24.406,-193.03
24.421,-199.44
24.437,-210.45
24.453,-224.36
24.468,-237.9
24.484,-247.12
24.500,-249.34
24.515,-244.35
24.531,-235.39
24.546,-228.09
24.562,-228.11
24.578,-238.78
24.593,-259.28
24.609,-284.66
24.625,-307.26
24.640,-319.71
24.656,-317.06
24.671,-298.3
24.687,-266.66
24.703,-227.96
24.718,-189.06
24.734,-155.67
24.750,-131.4
24.765,-117.43
24.781,-113.0
24.796,-116.01
24.812,-123.56
24.828,-132.34
24.843,-138.88
24.859,-140.06
24.875,-133.58
24.890,-118.56
24.906,-95.55
24.921,-66.01
24.937,-31.13
24.953,9.6
24.968,58.73
24.984,120.66
25.000,199.11
25.015,294.72
25.031,402.98
25.046,513.83
25.062,614.07
25.078,690.72
25.093,734.88
25.109,743.1
25.125,717.22
25.140,661.78
25.156,581.94
25.171,482.84
25.187,370.29
25.203,252.41
25.218,139.43
25.234,42.11
25.250,-31.37
25.265,-78.04
25.281,-100.75
25.296,-106.42
25.312,-103.39
25.328,-98.84
25.343,-97.61
25.359,-102.27
25.375,-113.65
25.390,-131.5
25.406,-154.37
25.421,-179.37
25.437,-202.4
25.453,-219.37
25.468,-227.98
25.484,-228.69
25.500,-224.97
25.515,-221.69
25.531,-223.36
25.546,-232.28
25.562,-247.42
25.578,-264.73
25.593,-278.32
25.609,-282.4
25.625,-273.16
25.640,-250.65
25.656,-219.01
25.671,-185.53
25.687,-158.51
25.703,-144.21
25.718,-144.65
25.734,-157.24
25.750,-176.06
25.765,-194.21
25.781,-206.44
25.796,-209.95
25.812,-204.2
25.828,-189.64
25.843,-166.5
25.859,-134.59
25.875,-93.23
25.890,-41.68
25.906,21.11
25.921,96.03
25.937,183.22
25.953,281.14
25.968,385.24
25.984,487.95
26.000,579.42
26.015,650.15
26.031,693.32
26.046,706.12
26.062,689.75
26.078,648.06
26.093,586.04
26.109,508.64
26.125,420.96
26.140,328.35
26.156,236.96
26.171,153.16
26.187,82.1
26.203,26.24
26.218,-15.69
26.234,-48.09
26.250,-76.75
26.265,-106.36
26.281,-138.79
26.296,-172.09
26.312,-201.79
26.328,-222.98
26.343,-232.35
26.359,-229.7
26.375,-217.96
26.390,-202.1
26.406,-187.31
26.421,-177.68
26.437,-175.34
26.453,-180.48
26.468,-191.84
26.484,-206.78
26.500,-221.8
26.515,-232.79
26.531,-235.7
26.546,-227.6
26.562,-207.52
26.578,-176.89
26.593,-139.02
26.609,-98.37
26.625,-59.23
26.640,-25.64
26.656,-1.55
26.671,8.78
26.687,0.94
26.703,-28.22
26.718,-78.79
26.734,-146.02
26.750,-220.16
26.765,-288.07
26.781,-336.75
26.796,-357.31
26.812,-347.09
26.828,-310.06
26.843,-254.4
26.859,-188.68
26.875,-118.98
26.890,-47.55
26.906,26.61
26.921,105.65
26.937,190.93
26.953,281.87
26.968,375.55
26.984,467.11
27.000,550.04
27.015,616.65
27.031,659.52
27.046,673.12
27.062,655.94
27.078,611.09
27.093,545.61
27.109,468.24
27.125,387.05
27.140,307.87
27.156,234.02
27.171,167.1
27.187,107.99
27.203,57.7
27.218,17.07
27.234,-13.83
27.250,-36.11
27.265,-52.07
27.281,-64.56
27.296,-76.56
27.312,-90.47
27.328,-107.88
27.343,-129.32
27.359,-154.05
27.375,-180.31
27.390,-205.59
27.406,-227.37
27.421,-244.0
27.437,-254.95
27.453,-260.9
27.468,-263.21
27.484,-262.93
27.500,-260.17
27.515,-254.14
27.531,-243.31
27.546,-226.42
27.562,-203.54
27.578,-176.32
27.593,-147.96
27.609,-122.32
27.625,-102.52
27.640,-90.16
27.656,-84.89
27.671,-84.7
27.687,-86.78
27.703,-88.57
27.718,-87.79
27.734,-83.29
27.750,-74.9
27.765,-63.51
27.781,-51.22
27.796,-40.57
27.812,-33.24
27.828,-28.81
27.843,-24.32
27.859,-14.28
27.875,7.61
27.890,46.77
27.906,105.85
27.921,183.26
27.937,272.97
27.953,365.41
27.968,449.62
27.984,515.66
28.000,557.12
28.015,571.76
28.031,561.12
28.046,528.58
28.062,477.77
28.078,411.97
28.093,334.55
28.109,250.16
28.125,165.19
28.140,86.86
28.156,21.27
28.171,-28.59
28.187,-63.35
28.203,-86.47
28.218,-102.16
28.234,-114.13
28.250,-124.85
28.265,-135.9
28.281,-148.33
28.296,-162.91
28.312,-179.48
28.328,-196.51
28.343,-210.77
28.359,-218.22
28.375,-215.79
28.390,-202.64
28.406,-181.33
28.421,-157.08
28.437,-136.18
28.453,-123.95
28.468,-123.07
28.484,-132.84
28.500,-149.26
28.515,-166.96
28.531,-180.24
28.546,-185.16
28.562,-180.49
28.578,-167.81
28.593,-150.59
28.609,-132.82
28.625,-117.84
28.640,-107.7
28.656,-103.42
28.671,-105.05
28.687,-111.99
28.703,-122.42
28.718,-133.44
28.734,-140.99
28.750,-140.97
28.765,-130.94
28.781,-110.9
28.796,-83.21
28.812,-50.71
28.828,-15.06
28.843,24.6
28.859,70.66
28.875,125.22
28.890,188.42
28.906,257.26
28.921,326.39
28.937,389.46
28.953,441.39
28.968,479.1
28.984,501.84
29.000,510.38
29.015,505.68
29.031,488.27
29.046,457.64
29.062,413.32
29.078,355.23
29.093,285.07
29.109,206.77
29.125,126.03
29.140,49.29
29.156,-17.91
29.171,-71.99
29.187,-111.98
29.203,-138.47
29.218,-153.61
29.234,-159.96
29.250,-160.32
29.265,-157.87
29.281,-155.58
29.296,-155.75
29.312,-159.31
29.328,-165.57
29.343,-172.17
29.359,-176.36
29.375,-176.41
29.390,-172.28
29.406,-166.25
29.421,-161.71
29.437,-161.91
29.453,-168.23
29.468,-179.41
29.484,-191.85
29.500,-201.04
29.515,-203.67
29.531,-199.01
29.546,-189.61
29.562,-179.67
29.578,-173.32
29.593,-172.65
29.609,-176.52
29.625,-181.14
29.640,-181.39
29.656,-173.02
29.671,-153.91
29.687,-125.11
29.703,-90.08
29.718,-54.21
29.734,-23.55
29.750,-3.01
29.765,5.1
29.781,2.48
29.796,-5.16
29.812,-9.55
29.828,-2.18
29.843,23.3
29.859,69.16
29.875,132.8
29.890,207.81
29.906,285.39
29.921,356.85
29.937,414.79
29.953,453.96
29.968,472.04
29.984,469.51
30.000,448.77
30.015,412.82
30.031,364.46
30.046,306.53
30.062,243.97
30.078,181.99
30.093,124.8
30.109,74.67
30.125,32.08
30.140,-4.14
30.156,-36.47
30.171,-67.27
30.187,-97.38
30.203,-122.32
30.218,-137.37
30.234,-140.82
30.250,-134.38
30.265,-120.99
30.281,-102.96
30.296,-81.29
30.312,-56.28
30.328,-27.55
30.343,10.68
30.359,61.76
30.375,124.21
30.390,193.06
30.406,263.53
30.421,332.37
30.437,396.01
30.453,448.87
30.468,484.41
30.484,504.91
30.500,514.12
30.515,514.92
30.531,508.33
30.546,495.46
30.562,477.32
30.578,453.55
30.593,422.58
30.609,339.31
30.625,189.7
30.640,-1.79
30.656,-187.02
30.671,-329.96
30.687,-421.87
30.703,-472.84
30.718,-497.55
30.734,-507.64
30.750,-509.49
30.765,-498.51
30.781,-471.83
30.796,-432.72
30.812,-390.31
30.828,-353.24
30.843,-326.05
30.859,-308.94
30.875,-299.59
30.890,-294.66
30.906,-285.61
30.921,-267.27
30.937,-240.47
30.953,-211.17
30.968,-185.4
30.984,-166.3
31.000,-153.96
31.015,-146.71
31.031,-142.3
31.046,-135.3
31.062,-122.51
31.078,-104.56
31.093,-85.11
31.109,-67.59
31.125,-53.26
31.140,-41.62
31.156,-31.06
31.171,-20.0
31.187,-5.92
31.203,11.88
31.218,31.86
31.234,50.45
31.250,64.39
31.265,71.97
31.281,73.15
31.296,68.89
31.312,60.4
31.328,49.2
31.343,35.84
31.359,20.62
31.375,3.16
31.390,-16.23
31.406,-35.98
31.421,-53.64
31.437,-66.65
31.453,-73.53
31.468,-74.47
31.484,-71.43
31.500,-67.27
31.515,-64.62
31.531,-64.66
31.546,-66.6
31.562,-68.66
31.578,-69.04
31.593,-67.13
31.609,-63.4
31.625,-58.03
31.640,-50.77
31.656,-41.01
31.671,-29.13
31.687,-17.15
31.703,-8.09
31.718,-3.83
31.734,-2.99
31.750,-0.52
31.765,10.06
31.781,32.47
31.796,64.34
31.812,96.88
31.828,118.53
31.843,120.41
31.859,100.89
31.875,66.1
31.890,26.83
31.906,-6.51
31.921,-28.11
31.937,-37.83
31.953,-39.46
31.968,-37.7
31.984,-35.88
32.000,-34.89
32.015,-33.99
32.031,-32.18
32.046,-29.22
32.062,-26.04
32.078,-23.84
32.093,-23.31
32.109,-24.5
32.125,-26.87
32.140,-29.84
32.156,-32.89
32.171,-35.65
32.187,-37.8
32.203,-38.91
32.218,-38.77
32.234,-37.32
32.250,-35.4
32.265,-34.24
32.281,-34.86
32.296,-37.98
32.312,-43.6
32.328,-51.59
32.343,-61.43
32.359,-71.79
32.375,-79.45
32.390,-80.25
32.406,-70.42
32.421,-49.15
32.437,-21.0
32.453,6.47
32.468,24.26
32.484,26.7
32.500,14.55
32.515,-5.03
32.531,-22.36
32.546,-30.04
32.562,-26.62
32.578,-16.69
32.593,-7.59
32.609,-5.29
32.625,-10.31
32.640,-19.04
32.656,-24.87
32.671,-22.39
32.687,-10.55
32.703,6.74
32.718,22.42
32.734,30.26
32.750,27.48
32.765,15.94
32.781,0.96
32.796,-12.15
32.812,-20.79
32.828,-25.78
32.843,-30.48
32.859,-37.63
32.875,-46.86
32.890,-54.56
32.906,-55.49
32.921,-45.13
32.937,-22.15
32.953,11.51
32.968,51.66
32.984,92.94
33.000,129.88
33.015,157.71
33.031,172.55
33.046,172.23
33.062,158.21
33.078,133.72
33.093,104.54
33.109,76.75
33.125,53.74
33.140,34.78
33.156,16.27
33.171,-4.71
33.187,-27.35
33.203,-46.09
33.218,-53.68
33.234,-45.59
33.250,-23.49
33.265,5.0
33.281,30.16
33.296,44.93
33.312,47.15
33.328,38.56
33.343,22.05
33.359,0.17
33.375,-24.63
33.390,-47.86
33.406,-63.28
33.421,-65.03
33.437,-50.94
33.453,-25.3
33.468,2.08
33.484,20.35
33.500,23.26
33.515,12.39
33.531,-3.78
33.546,-14.75
33.562,-13.31
33.578,1.32
33.593,23.77
33.609,45.42
33.625,58.44
33.640,58.92
33.656,47.32
33.671,27.11
33.687,1.97
33.703,-25.21
33.718,-52.96
33.734,-80.61
33.750,-106.8
33.765,-128.97
33.781,-144.06
33.796,-150.57
33.812,-147.71
33.828,-137.14
33.843,-121.4
33.859,-102.67
33.875,-82.12
33.890,-59.31
33.906,-33.09
33.921,-3.41
33.937,28.47
33.953,60.8
33.968,91.33
33.984,118.88
34.000,142.32
34.015,160.16
34.031,170.73
34.046,172.18
34.062,163.23
34.078,143.75
34.093,115.1
34.109,78.47
34.125,35.5
34.140,-11.57
34.156,-58.8
34.171,-99.4
34.187,-125.96
34.203,-133.32
34.218,-121.44
34.234,-95.31
34.250,-64.36
34.265,-37.21
34.281,-18.97
34.296,-9.15
34.312,-1.98
34.328,9.44
34.343,27.94
34.359,51.18
34.375,79.02
34.390,105.39
34.406,124.88
34.421,133.17
34.437,124.77
34.453,100.75
34.468,68.84
34.484,45.42
34.500,36.82
34.515,42.56
34.531,55.31
34.546,68.08
34.562,74.82
34.578,73.17
34.593,65.78
34.609,58.07
34.625,51.21
34.640,45.97
34.656,41.41
34.671,32.81
34.687,15.21
34.703,-14.32
34.718,-53.91
34.734,-97.29
34.750,-137.34
34.765,-170.23
34.781,-195.03
34.796,-210.72
34.812,-216.85
34.828,-212.97
34.843,-200.95
34.859,-185.22
34.875,-171.28
34.890,-161.41
34.906,-158.15
34.921,-160.29
34.937,-163.04
34.953,-162.66
34.968,-153.62
34.984,-130.93
35.000,-90.6
35.015,-30.31
35.031,47.77
35.046,134.24
35.062,216.11
35.078,281.29
35.093,323.64
35.109,345.24
35.125,353.08
35.140,353.71
35.156,348.77
35.171,332.98
35.187,297.17
35.203,235.34
35.218,149.02
35.234,48.56
35.250,-50.08
35.265,-131.3
35.281,-183.71
35.296,-201.27
35.312,-184.44
35.328,-139.87
35.343,-78.22
35.359,-13.07
35.375,42.03
35.390,77.07
35.406,87.49
35.421,71.83
35.437,37.4
35.453,-1.3
35.468,-29.13
35.484,-36.64
35.500,-26.98
35.515,-7.92
35.531,13.38
35.546,30.44
35.562,38.95
35.578,37.44
35.593,26.58
35.609,6.15
35.625,-19.69
35.640,-44.76
35.656,-64.38
35.671,-78.21
35.687,-90.05
35.703,-103.78
35.718,-119.86
35.734,-135.75
35.750,-147.87
35.765,-154.2
35.781,-153.3
35.796,-150.96
35.812,-152.97
35.828,-163.56
35.843,-183.36
35.859,-208.59
35.875,-232.22
35.890,-244.0
35.906,-234.8
35.921,-199.02
35.937,-136.6
35.953,-52.18
35.968,45.84
35.984,148.49
36.000,248.5
36.015,340.63
36.031,419.54
36.046,478.27
36.062,508.89
36.078,504.86
36.093,465.16
36.109,395.66
36.125,308.9
36.140,220.06
36.156,141.96
36.171,79.86
36.187,31.03
36.203,-11.42
36.218,-54.05
36.234,-99.04
36.250,-144.15
36.265,-184.7
36.281,-216.49
36.296,-233.53
36.312,-233.03
36.328,-216.61
36.343,-189.54
36.359,-158.18
36.375,-126.23
36.390,-94.07
36.406,-60.66
36.421,-25.6
36.437,10.42
36.453,44.2
36.468,69.94
36.484,82.28
36.500,78.47
36.515,58.53
36.531,24.46
36.546,-20.8
36.562,-75.43
36.578,-131.18
36.593,-177.62
36.609,-206.4
36.625,-214.8
36.640,-206.3
36.656,-188.99
36.671,-171.61
36.687,-160.05
36.703,-156.24
36.718,-158.05
36.734,-163.44
36.750,-171.94
36.765,-185.37
36.781,-202.68
36.796,-220.06
36.812,-231.13
36.828,-229.66
36.843,-212.09
36.859,-178.24
36.875,-132.51
36.890,-81.78
36.906,-32.08
36.921,14.03
36.937,57.47
36.953,102.59
36.968,154.63
36.984,211.67
37.000,270.71
37.015,327.23
37.031,375.53
37.046,410.01
37.062,425.18
37.078,416.12
37.093,381.72
37.109,325.16
37.125,254.5
37.140,182.41
37.156,122.25
37.171,82.58
37.187,65.41
37.203,66.13
37.218,77.12
37.234,94.36
37.250,117.64
37.265,147.93
37.281,184.19
37.296,220.63
37.312,246.58
37.328,251.86
37.343,231.57
37.359,178.97
37.375,102.4
37.390,22.07
37.406,-40.23
37.421,-72.83
37.437,-75.37
37.453,-62.53
37.468,-48.11
37.484,-40.25
37.500,-41.26
37.515,-50.43
37.531,-65.41
37.546,-83.96
37.562,-105.55
37.578,-125.64
37.593,-139.0
37.609,-143.05
37.625,-140.28
37.640,-136.38
37.656,-134.78
37.671,-136.07
37.687,-139.02
37.703,-142.64
37.718,-146.6
37.734,-152.38
37.750,-161.6
37.765,-174.24
37.781,-188.17
37.796,-198.67
37.812,-203.05
37.828,-199.27
37.843,-187.94
37.859,-171.12
37.875,-151.71
37.890,-131.98
37.906,-111.85
37.921,-89.05
37.937,-58.73
37.953,-16.62
37.968,37.52
37.984,97.58
38.000,152.61
38.015,194.15
38.031,213.01
38.046,204.57
38.062,170.49
38.078,119.13
38.093,61.49
38.109,8.74
38.125,-30.86
38.140,-53.05
38.156,-58.5
38.171,-50.05
38.187,-31.67
38.203,-8.4
38.218,15.74
38.234,37.12
38.250,54.71
38.265,69.6
38.281,84.26
38.296,101.28
38.312,117.29
38.328,136.84
38.343,157.7
38.359,177.25
38.375,185.45
38.390,174.55
38.406,143.53
38.421,99.8
38.437,55.29
38.453,22.7
38.468,1.8
38.484,-12.18
38.500,-22.41
38.515,-29.47
38.531,-32.05
38.546,-27.01
38.562,-14.55
38.578,2.75
38.593,18.59
38.609,24.95
38.625,16.17
38.640,-7.56
38.656,-41.57
38.671,-77.98
38.687,-109.89
38.703,-134.03
38.718,-150.67
38.734,-162.99
38.750,-175.86
38.765,-191.21
38.781,-208.24
38.796,-224.85
38.812,-236.46
38.828,-237.16
38.843,-221.7
38.859,-187.92
38.875,-138.53
38.890,-79.32
38.906,-15.66
38.921,51.04
38.937,120.66
38.953,193.21
38.968,266.21
38.984,331.92
39.000,377.6
39.015,389.86
39.031,361.18
39.046,295.24
39.062,207.47
39.078,119.97
39.093,54.26
39.109,23.42
39.125,27.88
39.140,55.73
39.156,87.83
39.171,105.04
39.187,95.29
39.203,58.0
39.218,3.25
39.234,-53.5
39.250,-98.55
39.265,-125.52
39.281,-136.9
39.296,-140.99
39.312,-143.73
39.328,-147.67
39.343,-149.38
39.359,-141.13
39.375,-116.94
39.390,-80.61
39.406,-42.46
39.421,-14.14
39.437,-2.01
39.453,-4.54
39.468,-12.4
39.484,-12.13
39.500,5.7
39.515,41.87
39.531,87.69
39.546,127.92
39.562,147.47
39.578,139.02
39.593,106.03
39.609,60.45
39.625,16.56
39.640,-16.1
39.656,-35.74
39.671,-47.0
39.687,-56.07
39.703,-67.41
39.718,-80.13
39.734,-90.43
39.750,-95.19
39.765,-94.49
39.781,-92.17
39.796,-93.36
39.812,-99.41
39.828,-108.44
39.843,-114.32
39.859,-110.16
39.875,-92.32
39.890,-62.25
39.906,-25.38
39.921,11.69
39.937,46.41
39.953,77.6
39.968,104.5
39.984,125.8
40.000,137.99
40.015,136.51
40.031,118.31
40.046,84.7
40.062,42.34
40.078,1.31
40.093,-30.4
40.109,-50.13
40.125,-60.82
40.140,-70.67
40.156,-87.77
40.171,-113.95
40.187,-142.16
40.203,-159.05
40.218,-151.96
40.234,-116.81
40.250,-61.18
40.265,-0.77
40.281,46.84
40.296,69.77
40.312,66.58
40.328,45.12
40.343,16.6
40.359,-6.36
40.375,-15.47
40.390,-12.9
40.406,-4.84
40.421,2.12
40.437,4.63
40.453,3.84
40.468,4.43
40.484,12.4
40.500,31.6
40.515,60.74
40.531,92.75
40.546,117.0
40.562,123.3
40.578,107.78
40.593,75.07
40.609,35.33
40.625,0.25
40.640,-25.59
40.656,-42.73
40.671,-53.99
40.687,-60.61
40.703,-60.39
40.718,-48.27
40.734,-18.14
40.750,30.42
40.765,90.62
40.781,150.81
40.796,198.74
40.812,225.85
40.828,230.11
40.843,215.69
40.859,190.07
40.875,160.44
40.890,131.13
40.906,103.78
40.921,79.72
40.937,60.94
40.953,49.06
40.968,43.32
40.984,39.53
41.000,30.79
41.015,10.15
41.031,-26.3
41.046,-77.27
41.062,-134.89
41.078,-187.3
41.093,-224.31
41.109,-242.28
41.125,-245.25
41.140,-242.69
41.156,-243.77
41.171,-252.76
41.187,-267.95
41.203,-282.13
41.218,-286.85
41.234,-276.96
41.250,-252.73
41.265,-218.54
41.281,-180.09
41.296,-141.63
41.312,-100.33
41.328,-57.94
41.343,-19.19
41.359,11.65
41.375,33.98
41.390,50.95
41.406,66.41
41.421,81.29
41.437,95.34
41.453,107.29
41.468,114.99
41.484,117.91
41.500,117.5
41.515,116.33
41.531,114.92
41.546,115.18
41.562,117.52
41.578,119.85
41.593,118.08
41.609,108.01
41.625,88.08
41.640,59.47
41.656,24.87
41.671,-12.59
41.687,-49.81
41.703,-84.05
41.718,-110.49
41.734,-123.38
41.750,-118.5
41.765,-94.38
41.781,-54.01
41.796,-4.67
41.812,43.72
41.828,82.2
41.843,104.4
41.859,109.84
41.875,105.89
41.890,105.46
41.906,121.47
41.921,159.71
41.937,214.97
41.953,272.33
41.968,314.12
41.984,327.22
42.000,308.94
42.015,266.76
42.031,212.52
42.046,155.66
42.062,98.93
42.078,39.25
42.093,-27.92
42.109,-102.56
42.125,-179.01
42.140,-246.53
42.156,-293.32
42.171,-311.45
42.187,-299.73
42.203,-264.84
42.218,-218.66
42.234,-174.39
42.250,-141.76
42.265,-125.62
42.281,-125.1
42.296,-132.48
42.312,-138.34
42.328,-133.28
42.343,-112.71
42.359,-79.76
42.375,-47.13
42.390,-21.1
42.406,-2.28
42.421,12.74
42.437,28.9
42.453,49.36
42.468,74.64
42.484,101.5
42.500,125.14
42.515,140.0
42.531,142.12
42.546,130.23
42.562,107.46
42.578,79.72
42.593,52.79
42.609,29.47
42.625,8.19
42.640,-14.2
42.656,-39.97
42.671,-67.72
42.687,-94.11
42.703,-113.23
42.718,-120.13
42.734,-112.76
42.750,-91.85
42.765,-60.35
42.781,-21.08
42.796,23.65
42.812,67.79
42.828,103.53
42.843,124.49
42.859,128.07
42.875,116.89
42.890,99.87
42.906,83.06
42.921,70.06
42.937,60.38
42.953,49.84
42.968,33.59
42.984,8.99
43.000,-22.53
43.015,-55.79
43.031,-84.09
43.046,-102.42
43.062,-107.78
43.078,-98.83
43.093,-77.5
43.109,-47.63
43.125,-14.56
43.140,14.98
43.156,33.05
43.171,31.71
43.187,5.39
43.203,-44.12
43.218,-106.42
43.234,-164.36
43.250,-198.71
43.265,-195.94
43.281,-154.1
43.296,-83.68
43.312,-3.44
43.328,66.53
43.343,113.34
43.359,133.57
43.375,132.26
43.390,119.61
43.406,106.68
43.421,102.65
43.437,113.23
43.453,140.14
43.468,177.1
43.484,213.5
43.500,235.98
43.515,234.54
43.531,207.15
43.546,159.11
43.562,99.3
43.578,36.51
43.593,-21.06
43.609,-70.37
43.625,-106.99
43.640,-126.38
43.656,-126.11
43.671,-108.16
43.687,-79.9
43.703,-51.96
43.718,-33.66
43.734,-31.98
43.750,-46.11
43.765,-65.84
43.781,-77.42
43.796,-70.97
43.812,-45.86
43.828,-11.5
43.843,20.61
43.859,41.95
43.875,50.14
43.890,49.24
43.906,46.93
43.921,49.26
43.937,56.95
43.953,67.5
43.968,77.13
43.984,83.38
44.000,85.12
44.015,80.88
44.031,67.72
44.046,41.68
44.062,-1.17
44.078,-61.4
44.093,-133.35
44.109,-205.7
44.125,-264.05
44.140,-296.87
44.156,-299.84
44.171,-275.88
44.187,-232.04
44.203,-176.47
44.218,-115.98
44.234,-55.07
44.250,2.9
44.265,55.2
44.281,98.22
44.296,125.92
44.312,132.66
44.328,119.22
44.343,94.72
44.359,72.42
44.375,63.59
44.390,67.37
44.406,76.52
44.421,82.65
44.437,80.2
44.453,67.93
44.468,50.3
44.484,34.75
44.500,26.78
44.515,29.38
44.531,39.79
44.546,50.49
44.562,52.64
44.578,40.26
44.593,13.91
44.609,-19.94
44.625,-52.6
44.640,-77.89
44.656,-93.36
44.671,-101.99
44.687,-108.31
44.703,-116.37
44.718,-129.18
44.734,-147.93
44.750,-172.01
44.765,-199.29
44.781,-226.04
44.796,-247.32
44.812,-253.86
44.828,-237.45
44.843,-193.37
44.859,-122.77
44.875,-32.91
44.890,64.33
44.906,155.39
44.921,227.72
44.937,271.81
44.953,282.57
44.968,260.1
44.984,210.95
45.000,147.71
45.015,86.59
45.031,41.82
45.046,19.92
45.062,16.62
45.078,19.55
45.093,15.69
45.109,-1.09
45.125,-26.05
45.140,-46.47
45.156,-48.95
45.171,-27.28
45.187,15.0
45.203,66.44
45.218,113.55
45.234,146.36
45.250,160.88
45.265,159.15
45.281,146.66
45.296,129.71
45.312,113.06
45.328,99.71
45.343,90.15
45.359,83.06
45.375,77.15
45.390,72.6
45.406,72.24
45.421,80.48
45.437,100.7
45.453,127.7
45.468,152.71
45.484,164.75
45.500,155.37
45.515,123.11
45.531,74.31
45.546,20.05
45.562,-29.15
45.578,-67.14
45.593,-93.16
45.609,-109.75
45.625,-120.45
45.640,-126.57
45.656,-128.09
45.671,-125.82
45.687,-122.41
45.703,-121.76
45.718,-125.16
45.734,-131.94
45.750,-137.54
45.765,-135.87
45.781,-122.3
45.796,-96.28
45.812,-61.54
45.828,-23.92
45.843,10.97
45.859,39.2
45.875,58.83
45.890,69.18
45.906,69.78
45.921,61.57
45.937,47.18
45.953,30.18
45.968,14.38
45.984,2.23
46.000,-6.34
46.015,-15.02
46.031,-29.33
46.046,-54.34
46.062,-91.51
46.078,-135.39
46.093,-176.27
46.109,-202.81
46.125,-206.23
46.140,-183.43
46.156,-138.47
46.171,-81.0
46.187,-23.03
46.203,24.83
46.218,55.55
46.234,66.32
46.250,58.67
46.265,37.07
46.281,10.02
46.296,-11.48
46.312,-20.01
46.328,-15.37
46.343,-1.91
46.359,14.86
46.375,28.33
46.390,33.17
46.406,26.97
46.421,11.28
46.437,-9.6
46.453,-28.49
46.468,-38.65
46.484,-37.94
46.500,-30.37
46.515,-23.4
46.531,-23.33
46.546,-32.46
46.562,-49.13
46.578,-69.8
46.593,-91.63
46.609,-113.22
46.625,-133.66
46.640,-152.76
46.656,-168.0
46.671,-176.13
46.687,-174.62
46.703,-163.17
46.718,-143.3
46.734,-117.8
46.750,-89.27
46.765,-58.52
46.781,-24.15
46.796,17.14
46.812,68.78
46.828,132.8
46.843,204.43
46.859,274.93
46.875,332.94
46.890,368.89
46.906,378.15
46.921,362.3
46.937,328.11
46.953,284.18
46.968,238.23
46.984,194.56
47.000,154.06
47.015,115.48
47.031,78.19
47.046,42.99
47.062,11.56
47.078,-14.46
47.093,-34.31
47.109,-47.33
47.125,-53.23
47.140,-51.89
47.156,-43.7
47.171,-29.12
47.187,-10.08
47.203,8.88
47.218,21.69
47.234,19.77
47.250,0.24
47.265,-32.27
47.281,-64.87
47.296,-90.01
47.312,-103.68
47.328,-104.7
47.343,-92.47
47.359,-66.65
47.375,-27.13
47.390,25.89
47.406,89.15
47.421,151.48
47.437,197.6
47.453,215.69
47.468,202.87
47.484,165.63
47.500,115.02
47.515,61.04
47.531,10.33
47.546,-34.51
47.562,-72.8
47.578,-104.79
47.593,-126.82
47.609,-133.29
47.625,-120.33
47.640,-88.66
47.656,-43.93
47.671,5.43
47.687,50.13
47.703,79.72
47.718,88.8
47.734,80.81
47.750,66.44
47.765,56.93
47.781,58.67
47.796,68.34
47.812,79.26
47.828,84.87
47.843,81.65
47.859,70.92
47.875,56.89
47.890,43.09
47.906,29.24
47.921,11.31
47.937,-15.36
47.953,-51.12
47.968,-92.74
47.984,-135.89
48.000,-176.24
48.015,-211.59
48.031,-239.76
48.046,-259.01
48.062,-267.2
48.078,-262.24
48.093,-242.27
48.109,-210.06
48.125,-174.52
48.140,-146.47
48.156,-134.76
48.171,-139.79
48.187,-151.1
48.203,-155.33
48.218,-152.13
48.234,-144.31
48.250,-132.71
48.265,-120.67
48.281,-104.56
48.296,-88.1
48.312,-63.5
48.328,-25.05
48.343,29.44
48.359,91.77
48.375,147.76
48.390,182.54
48.406,187.46
48.421,165.31
48.437,126.77
48.453,86.17
48.468,52.72
48.484,28.07
48.500,8.15
48.515,-11.82
48.531,-33.52
48.546,-54.55
48.562,-69.15
48.578,-71.82
48.593,-57.81
48.609,-26.38
48.625,19.32
48.640,74.06
48.656,132.6
48.671,190.85
48.687,243.05
48.703,283.51
48.718,307.36
48.734,313.2
48.750,302.21
48.765,277.36
48.781,242.46
48.796,201.35
48.812,158.22
48.828,116.64
48.843,80.39
48.859,52.8
48.875,36.75
48.890,32.72
48.906,36.91
48.921,42.04
48.937,39.26
48.953,22.04
48.968,-12.77
48.984,-63.15
49.000,-122.43
49.015,-180.08
49.031,-224.98
49.046,-249.5
49.062,-251.39
49.078,-234.88
49.093,-207.44
49.109,-178.73
49.125,-157.38
49.140,-149.06
49.156,-154.45
49.171,-165.37
49.187,-171.47
49.203,-162.73
49.218,-143.19
49.234,-118.12
49.250,-93.5
49.265,-70.79
49.281,-52.08
49.296,-37.36
49.312,-23.93
49.328,-8.48
49.343,12.73
49.359,39.71
49.375,69.03
49.390,93.18
49.406,104.72
49.421,99.87
49.437,81.33
49.453,56.37
49.468,31.72
49.484,10.67
49.500,-7.76
49.515,-25.35
49.531,-44.23
49.546,-62.97
49.562,-77.6
49.578,-83.29
49.593,-76.25
49.609,-55.61
49.625,-22.65
49.640,20.05
49.656,70.41
49.671,125.92
49.687,183.41
49.703,238.72
49.718,284.29
49.734,313.39
49.750,321.78
49.765,309.74
49.781,281.7
49.796,244.81
49.812,205.95
49.828,169.88
49.843,138.48
49.859,111.79
49.875,89.53
49.890,70.38
49.906,53.3
49.921,37.69
49.937,23.44
49.953,10.78
49.968,-0.33
49.984,-10.21
50.000,-19.48
50.015,-28.31
50.031,-38.47
50.046,-51.15
50.062,-66.19
50.078,-82.2
50.093,-97.43
50.109,-111.33
50.125,-124.5
50.140,-138.09
50.156,-152.99
50.171,-172.05
50.187,-197.79
50.203,-231.44
50.218,-271.67
50.234,-314.66
50.250,-354.8
50.265,-384.92
50.281,-397.86
50.296,-376.09
50.312,-313.64
50.328,-220.67
50.343,-120.57
50.359,-36.42
50.375,19.77
50.390,47.94
50.406,55.39
50.421,51.09
50.437,42.12
50.453,30.77
50.468,17.82
50.484,4.07
50.500,-8.93
50.515,-18.12
50.531,-21.72
50.546,-19.54
50.562,-12.03
50.578,0.51
50.593,16.85
50.609,36.55
50.625,59.97
50.640,90.03
50.656,129.05
50.671,175.64
50.687,224.35
50.703,266.47
50.718,292.38
50.734,294.0
50.750,274.49
50.765,237.52
50.781,191.15
50.796,144.96
50.812,105.8
50.828,75.51
50.843,51.31
50.859,28.26
50.875,1.96
50.890,-29.18
50.906,-62.34
50.921,-90.4
50.937,-106.5
50.953,-107.89
50.968,-96.56
50.984,-77.5
51.000,-55.46
51.015,-33.6
51.031,-13.28
51.046,3.8
51.062,15.62
51.078,18.61
51.093,9.0
51.109,-14.2
51.125,-48.02
51.140,-82.99
51.156,-106.65
51.171,-110.3
51.187,-97.52
51.203,-77.24
51.218,-58.63
51.234,-46.71
51.250,-40.44
51.265,-34.97
51.281,-23.3
51.296,0.23
51.312,37.05
51.328,83.27
51.343,129.84
51.359,164.66
51.375,178.06
51.390,168.07
51.406,140.65
51.421,105.44
51.437,69.74
51.453,35.7
51.468,1.46
51.484,-34.91
51.500,-72.9
51.515,-108.6
51.531,-134.71
51.546,-144.48
51.562,-134.78
51.578,-108.18
51.593,-72.65
51.609,-38.83
51.625,-15.58
51.640,-9.69
51.656,-21.22
51.671,-43.32
51.687,-65.48
51.703,-78.64
51.718,-76.67
51.734,-56.15
51.750,-16.2
51.765,41.58
51.781,111.51
51.796,183.72
51.812,245.88
51.828,286.01
51.843,297.05
51.859,279.35
51.875,239.57
51.890,186.67
51.906,127.83
51.921,66.88
51.937,7.23
51.953,-45.97
51.968,-86.08
51.984,-106.8
52.000,-105.45
52.015,-84.95
52.031,-53.25
52.046,-20.65
52.062,3.66
52.078,15.63
52.093,15.66
52.109,5.03
52.125,-15.27
52.140,-44.83
52.156,-81.82
52.171,-119.9
52.187,-148.08
52.203,-162.49
52.218,-164.41
52.234,-154.97
52.250,-138.5
52.265,-118.95
52.281,-97.24
52.296,-70.6
52.312,-34.51
52.328,14.34
52.343,70.95
52.359,123.83
52.375,159.81
52.390,170.02
52.406,154.49
52.421,121.22
52.437,81.24
52.453,43.69
52.468,13.02
52.484,-10.92
52.500,-29.69
52.515,-43.49
52.531,-51.21
52.546,-52.35
52.562,-48.79
52.578,-44.75
52.593,-45.12
52.609,-51.76
52.625,-63.98
52.640,-76.45
52.656,-81.61
52.671,-73.82
52.687,-52.17
52.703,-20.31
52.718,15.86
52.734,50.65
52.750,80.03
52.765,101.47
52.781,113.3
52.796,114.87
52.812,106.7
52.828,90.03
52.843,66.67
52.859,38.86
52.875,9.26
52.890,-19.5
52.906,-45.54
52.921,-67.69
52.937,-85.83
52.953,-99.13
52.968,-108.5
52.984,-115.53
53.000,-120.39
53.015,-120.59
53.031,-112.25
53.046,-93.02
53.062,-64.52
53.078,-32.79
53.093,-7.05
53.109,4.02
53.125,-3.12
53.140,-25.09
53.156,-51.08
53.171,-67.62
53.187,-65.9
53.203,-45.84
53.218,-14.13
53.234,18.69
53.250,46.73
53.265,67.15
53.281,78.79
53.296,80.84
53.312,72.59
53.328,54.32
53.343,27.14
53.359,-1.26
53.375,-21.16
53.390,-26.61
53.406,-19.29
53.421,-7.24
53.437,-0.47
53.453,-6.26
53.468,-26.55
53.484,-57.56
53.500,-92.14
53.515,-123.04
53.531,-144.21
53.546,-151.3
53.562,-142.04
53.578,-116.31
53.593,-77.26
53.609,-31.73
53.625,11.46
53.640,45.27
53.656,65.62
53.671,73.78
53.687,78.21
53.703,91.4
53.718,123.76
53.734,177.09
53.750,242.06
53.765,301.46
53.781,338.16
53.796,342.74
53.812,316.34
53.828,270.24
53.843,219.16
53.859,174.18
53.875,138.26
53.890,106.71
53.906,71.76
53.921,26.65
53.937,-23.37
53.953,-71.85
53.968,-109.73
53.984,-130.32
54.000,-132.17
54.015,-119.56
54.031,-100.46
54.046,-82.97
54.062,-72.0
54.078,-69.2
54.093,-74.99
54.109,-88.28
54.125,-106.58
54.140,-124.85
54.156,-135.64
54.171,-132.53
54.187,-117.95
54.203,-95.12
54.218,-67.37
54.234,-39.04
54.250,-13.35
54.265,6.42
54.281,19.38
54.296,27.58
54.312,34.35
54.328,43.23
54.343,56.07
54.359,70.12
54.375,78.85
54.390,77.07
54.406,63.4
54.421,40.72
54.437,13.8
54.453,-13.53
54.468,-39.78
54.484,-63.76
54.500,-82.68
54.515,-92.58
54.531,-89.55
54.546,-72.32
54.562,-43.79
54.578,-11.11
54.593,17.13
54.609,31.92
54.625,30.58
54.640,18.17
54.656,4.44
54.671,-1.57
54.687,4.24
54.703,20.03
54.718,40.59
54.734,59.54
54.750,71.43
54.765,73.33
54.781,64.23
54.796,44.4
54.812,15.13
54.828,-20.67
54.843,-58.45
54.859,-92.64
54.875,-119.71
54.890,-138.96
54.906,-151.52
54.921,-159.14
54.937,-162.33
54.953,-160.23
54.968,-150.59
54.984,-130.89
55.000,-99.84
55.015,-58.45
55.031,-9.93
55.046,41.4
55.062,90.2
55.078,131.03
55.093,155.94
55.109,157.79
55.125,135.91
55.140,99.06
55.156,62.07
55.171,37.68
55.187,31.66
55.203,38.96
55.218,50.43
55.234,57.18
55.250,54.29
55.265,41.83
55.281,22.55
55.296,2.13
55.312,-14.34
55.328,-22.06
55.343,-20.16
55.359,-12.9
55.375,-8.55
55.390,-14.12
55.406,-32.1
55.421,-59.98
55.437,-92.16
55.453,-122.98
55.468,-148.74
55.484,-167.67
55.500,-178.75
55.515,-182.2
55.531,-180.15
55.546,-177.46
55.562,-180.7
55.578,-195.59
55.593,-223.83
55.609,-260.97
55.625,-294.64
55.640,-309.27
55.656,-291.5
55.671,-235.31
55.687,-144.75
55.703,-32.53
55.718,83.98
55.734,188.0
55.750,268.03
55.765,319.97
55.781,346.5
55.796,354.94
55.812,354.46
55.828,353.17
55.843,356.09
55.859,364.19
55.875,373.44
55.890,376.2
55.906,363.37
55.921,327.78
55.937,267.76
55.953,188.99
55.968,104.03
55.984,29.56
56.000,-19.34
56.015,-34.95
56.031,-20.03
56.046,12.86
56.062,46.37
56.078,66.04
56.093,65.18
56.109,45.53
56.125,14.91
56.140,-17.84
56.156,-45.97
56.171,-65.62
56.187,-73.91
56.203,-66.63
56.218,-38.42
56.234,13.77
56.250,82.49
56.265,150.95
56.281,197.7
56.296,207.21
56.312,177.37
56.328,118.99
56.343,48.83
56.359,-17.47
56.375,-70.44
56.390,-107.65
56.406,-130.41
56.421,-142.45
56.437,-145.96
56.453,-142.47
56.468,-134.51
56.484,-126.21
56.500,-122.15
56.515,-124.35
56.531,-132.5
56.546,-141.08
56.562,-141.89
56.578,-128.53
56.593,-100.41
56.609,-63.31
56.625,-27.17
56.640,2.5
56.656,24.72
56.671,42.49
56.687,61.07
56.703,84.13
56.718,110.62
56.734,134.83
56.750,149.2
56.765,147.63
56.781,125.84
56.796,84.71
56.812,28.41
56.828,-37.17
56.843,-105.96
56.859,-172.67
56.875,-230.88
56.890,-272.0
56.906,-286.94
56.921,-270.1
56.937,-223.92
56.953,-160.33
56.968,-97.1
56.984,-51.18
57.000,-33.7
57.015,-45.54
57.031,-75.98
57.046,-107.92
57.062,-123.91
57.078,-114.56
57.093,-82.7
57.109,-43.6
57.125,-7.23
57.140,21.24
57.156,40.49
57.171,51.72
57.187,56.46
57.203,56.11
57.218,52.7
57.234,48.62
57.250,47.13
57.265,50.09
57.281,54.93
57.296,56.47
57.312,50.79
57.328,37.37
57.343,18.33
57.359,-4.07
57.375,-28.67
57.390,-55.23
57.406,-83.76
57.421,-112.34
57.437,-136.37
57.453,-149.48
57.468,-146.5
57.484,-126.32
57.500,-93.19
57.515,-54.59
57.531,-18.46
57.546,9.97
57.562,29.52
57.578,40.5
57.593,46.1
57.609,50.94
57.625,59.93
57.640,76.34
57.656,100.33
57.671,128.16
57.687,152.93
57.703,166.75
57.718,161.77
57.734,135.24
57.750,90.44
57.765,35.89
57.781,-17.27
57.796,-58.66
57.812,-81.5
57.828,-83.56
57.843,-66.03
57.859,-35.2
57.875,1.86
57.890,38.13
57.906,68.24
57.921,89.56
57.937,102.81
57.953,111.29
57.968,113.9
57.984,120.35
58.000,129.22
58.015,136.84
58.031,137.83
58.046,128.17
58.062,107.14
58.078,77.82
58.093,45.87
58.109,16.83
58.125,-4.29
58.140,-16.09
58.156,-16.73
58.171,-3.42
58.187,27.41
58.203,77.29
58.218,138.83
58.234,197.21
58.250,234.52
58.265,239.4
58.281,210.57
58.296,157.62
58.312,94.22
58.328,32.33
58.343,-21.56
58.359,-65.5
58.375,-98.87
58.390,-121.86
58.406,-132.33
58.421,-129.89
58.437,-117.2
58.453,-100.43
58.468,-87.44
58.484,-85.37
58.500,-95.25
58.515,-112.28
58.531,-127.31
58.546,-130.6
58.562,-116.96
58.578,-87.0
58.593,-47.21
58.609,-2.84
58.625,40.82
58.640,78.73
58.656,106.7
58.671,121.81
58.687,123.67
58.703,114.4
58.718,96.09
58.734,72.56
58.750,46.65
58.765,17.69
58.781,-17.83
58.796,-62.94
58.812,-117.6
58.828,-176.48
58.843,-229.89
58.859,-267.19
58.875,-279.94
58.890,-265.39
58.906,-228.31
58.921,-178.94
58.937,-129.31
58.953,-90.41
58.968,-68.83
58.984,-62.57
59.000,-66.19
59.015,-70.03
59.031,-64.37
59.046,-44.71
59.062,-16.6
59.078,15.09
59.093,45.97
59.109,72.51
59.125,92.11
59.140,101.9
59.156,99.83
59.171,86.48
59.187,64.75
59.203,42.14
59.218,27.83
59.234,26.51
59.250,35.99
59.265,49.07
59.281,57.49
59.296,55.75
59.312,42.48
59.328,18.95
59.343,-11.08
59.359,-42.54
59.375,-69.25
59.390,-84.95
59.406,-85.79
59.421,-73.19
59.437,-54.1
59.453,-38.53
59.468,-36.51
59.484,-51.37
59.500,-79.12
59.515,-109.09
59.531,-128.18
59.546,-126.01
59.562,-98.3
59.578,-49.57
59.593,12.87
59.609,76.71
59.625,127.07
59.640,151.83
59.656,145.89
59.671,113.75
59.687,68.7
59.703,28.34
59.718,6.59
59.734,12.63
59.750,43.62
59.765,84.69
59.781,116.69
59.796,124.45
59.812,102.78
59.828,58.51
59.843,7.11
59.859,-33.54
59.875,-49.2
59.890,-36.15
59.906,-1.81
59.921,41.17
59.937,80.01
59.953,105.54
59.968,114.14
59.984,107.22
