timestamp,value
00.000,-14.19
00.015,-38.29
00.031,-54.33
00.046,-63.25
00.062,-67.04
00.078,-68.0
00.093,-68.08
00.109,-68.13
00.125,-67.67
00.140,-64.75
00.156,-56.45
00.171,-39.73
00.187,-12.75
00.203,23.74
00.218,65.45
00.234,105.26
00.250,135.14
00.265,149.06
00.281,145.55
00.296,128.06
00.312,103.4
00.328,78.56
00.343,58.15
00.359,43.32
00.375,32.74
00.390,24.46
00.406,17.36
00.421,11.21
00.437,5.72
00.453,-0.35
00.468,-9.54
00.484,-24.67
00.500,-47.55
00.515,-77.98
00.531,-114.0
00.546,-152.54
00.562,-190.62
00.578,-225.87
00.593,-256.52
00.609,-281.05
00.625,-297.89
00.640,-305.46
00.656,-302.52
00.671,-288.71
00.687,-264.9
00.703,-233.03
00.718,-195.78
00.734,-156.0
00.750,-116.32
00.765,-78.66
00.781,-44.1
00.796,-12.71
00.812,16.51
00.828,45.25
00.843,75.52
00.859,109.02
00.875,146.65
00.890,187.94
00.906,231.02
00.921,272.63
00.937,308.5
00.953,334.17
00.968,345.68
00.984,340.58
01.000,318.51
01.015,281.6
01.031,233.9
01.046,180.84
01.062,128.01
01.078,80.33
01.093,41.41
01.109,13.4
01.125,-3.2
01.140,-9.41
01.156,-7.63
01.171,-1.55
01.187,4.8
01.203,8.01
01.218,6.65
01.234,2.06
01.250,-1.73
01.265,0.67
01.281,13.91
01.296,39.61
01.312,74.64
01.328,111.45
01.343,140.17
01.359,152.26
01.375,143.98
01.390,117.92
01.406,81.82
01.421,45.11
01.437,15.04
01.453,-5.86
01.468,-19.63
01.484,-30.55
01.500,-42.19
01.515,-55.6
01.531,-69.54
01.546,-82.25
01.562,-93.29
01.578,-104.36
01.593,-118.47
01.609,-138.24
01.625,-164.37
01.640,-195.23
01.656,-227.33
01.671,-256.73
01.687,-280.15
01.703,-295.64
01.718,-302.57
01.734,-301.18
01.750,-292.06
01.765,-275.88
01.781,-253.51
01.796,-226.23
01.812,-195.86
01.828,-164.57
01.843,-134.62
01.859,-107.71
01.875,-84.6
01.890,-64.93
01.906,-47.38
01.921,-30.26
01.937,-12.26
01.953,7.19
01.968,27.7
01.984,48.64
02.000,69.77
02.015,91.76
02.031,115.97
02.046,143.67
02.062,175.03
02.078,208.49
02.093,240.86
02.109,267.98
02.125,285.72
02.140,291.02
02.156,282.55
02.171,261.0
02.187,229.19
02.203,191.72
02.218,154.02
02.234,121.13
02.250,96.28
02.265,80.09
02.281,70.95
02.296,65.94
02.312,62.28
02.328,58.31
02.343,53.96
02.359,50.64
02.375,50.88
02.390,57.72
02.406,73.52
02.421,98.66
02.437,130.05
02.453,160.9
02.468,182.17
02.484,185.75
02.500,167.9
02.515,131.41
02.531,84.83
02.546,39.07
02.562,3.09
02.578,-19.3
02.593,-29.88
02.609,-33.92
02.625,-37.09
02.640,-43.05
02.656,-52.85
02.671,-65.94
02.687,-81.73
02.703,-100.37
02.718,-122.57
02.734,-148.81
02.750,-178.47
02.765,-209.84
02.781,-240.79
02.796,-269.46
02.812,-294.66
02.828,-315.68
02.843,-331.41
02.859,-339.95
02.875,-338.75
02.890,-325.29
02.906,-298.29
02.921,-258.6
02.937,-209.29
02.953,-155.09
02.968,-101.24
02.984,-52.22
03.000,-11.0
03.015,21.27
03.031,45.16
03.046,62.44
03.062,75.41
03.078,86.18
03.093,96.02
03.109,105.21
03.125,112.98
03.140,118.23
03.156,120.22
03.171,119.19
03.187,116.52
03.203,114.12
03.218,113.81
03.234,116.36
03.250,121.3
03.265,126.95
03.281,131.08
03.296,131.7
03.312,127.64
03.328,118.82
03.343,105.98
03.359,90.4
03.375,73.33
03.390,55.79
03.406,38.69
03.421,23.14
03.437,10.87
03.453,4.32
03.468,6.32
03.484,19.37
03.500,44.36
03.515,79.49
03.531,119.72
03.546,157.27
03.562,183.4
03.578,191.03
03.593,176.93
03.609,143.07
03.625,96.02
03.640,44.8
03.656,-1.88
03.671,-37.93
03.687,-60.66
03.703,-70.26
03.718,-68.58
03.734,-58.29
03.750,-42.31
03.765,-24.07
03.781,-7.46
03.796,3.86
03.812,7.2
03.828,1.7
03.843,-11.67
03.859,-30.76
03.875,-53.42
03.890,-78.14
03.906,-104.32
03.921,-131.79
03.937,-159.97
03.953,-187.63
03.968,-213.16
03.984,-235.2
04.000,-253.19
04.015,-267.58
04.031,-279.05
04.046,-287.53
04.062,-291.61
04.078,-288.69
04.093,-275.94
04.109,-251.61
04.125,-215.92
04.140,-171.04
04.156,-120.54
04.171,-68.41
04.187,-18.23
04.203,27.39
04.218,67.22
04.234,101.64
04.250,132.69
04.265,163.34
04.281,196.24
04.296,231.89
04.312,267.58
04.328,297.51
04.343,314.5
04.359,312.94
04.375,290.91
04.390,251.25
04.406,200.35
04.421,145.82
04.437,93.94
04.453,48.46
04.468,10.78
04.484,-18.94
04.500,-40.37
04.515,-52.74
04.531,-55.14
04.546,-47.38
04.562,-30.46
04.578,-6.79
04.593,20.41
04.609,47.75
04.625,71.99
04.640,90.44
04.656,101.07
04.671,103.14
04.687,97.92
04.703,89.0
04.718,81.76
04.734,81.48
04.750,91.24
04.765,110.13
04.781,133.16
04.796,152.65
04.812,160.87
04.828,152.73
04.843,127.39
04.859,88.44
04.875,42.42
04.890,-3.26
04.906,-42.46
04.921,-71.68
04.937,-90.34
04.953,-100.29
04.968,-104.58
04.984,-106.48
05.000,-108.54
05.015,-112.38
05.031,-118.83
05.046,-128.48
05.062,-141.78
05.078,-158.98
05.093,-179.73
05.109,-202.81
05.125,-226.23
05.140,-247.49
05.156,-264.35
05.171,-275.07
05.187,-278.68
05.203,-274.93
05.218,-263.92
05.234,-246.17
05.250,-222.45
05.265,-194.0
05.281,-162.44
05.296,-129.59
05.312,-97.2
05.328,-66.69
05.343,-39.11
05.359,-14.87
05.375,6.59
05.390,26.77
05.406,48.21
05.421,73.82
05.437,105.94
05.453,145.01
05.468,188.93
05.484,233.04
05.500,271.29
05.515,297.92
05.531,309.26
05.546,304.68
05.562,286.47
05.578,259.04
05.593,227.54
05.609,196.78
05.625,170.36
05.640,150.34
05.656,137.15
05.671,129.61
05.687,125.41
05.703,121.57
05.718,115.38
05.734,105.03
05.750,90.37
05.765,72.71
05.781,54.37
05.796,37.78
05.812,24.66
05.828,15.62
05.843,10.05
05.859,6.52
05.875,3.28
05.890,-1.21
05.906,-8.02
05.921,-17.61
05.937,-29.8
05.953,-43.98
05.968,-59.2
05.984,-74.45
06.000,-88.77
06.015,-101.69
06.031,-113.3
06.046,-124.24
06.062,-135.59
06.078,-148.47
06.093,-163.75
06.109,-181.63
06.125,-201.4
06.140,-221.25
06.156,-238.45
06.171,-249.67
06.187,-251.74
06.203,-242.31
06.218,-220.59
06.234,-187.76
06.250,-146.62
06.265,-100.84
06.281,-53.82
06.296,-7.87
06.312,36.15
06.328,78.19
06.343,117.96
06.359,154.09
06.375,183.82
06.390,203.84
06.406,211.76
06.421,207.47
06.437,193.47
06.453,174.08
06.468,153.68
06.484,135.29
06.500,120.0
06.515,107.38
06.531,96.75
06.546,88.06
06.562,82.19
06.578,80.37
06.593,83.22
06.609,90.02
06.625,98.59
06.640,106.13
06.656,109.94
06.671,108.48
06.687,101.64
06.703,90.64
06.718,77.45
06.734,63.93
06.750,51.13
06.765,38.95
06.781,26.25
06.796,11.52
06.812,-6.41
06.828,-28.07
06.843,-53.36
06.859,-81.91
06.875,-113.29
06.890,-147.25
06.906,-183.36
06.921,-220.85
06.937,-258.26
06.953,-293.3
06.968,-323.12
06.984,-344.56
07.000,-354.74
07.015,-351.65
07.031,-334.8
07.046,-305.45
07.062,-266.47
07.078,-221.56
07.093,-174.26
07.109,-127.08
07.125,-81.13
07.140,-36.5
07.156,7.07
07.171,49.37
07.187,89.47
07.203,126.04
07.218,158.02
07.234,185.09
07.250,207.76
07.265,226.87
07.281,242.85
07.296,255.24
07.312,262.84
07.328,264.15
07.343,258.19
07.359,245.08
07.375,226.08
07.390,203.16
07.406,178.54
07.421,154.12
07.437,131.41
07.453,111.59
07.468,95.77
07.484,85.18
07.500,81.17
07.515,84.76
07.531,95.88
07.546,112.64
07.562,130.99
07.578,145.43
07.593,150.51
07.609,142.88
07.625,122.72
07.640,93.77
07.656,61.81
07.671,32.13
07.687,7.58
07.703,-11.99
07.718,-28.66
07.734,-44.43
07.750,-59.9
07.765,-73.9
07.781,-84.65
07.796,-91.13
07.812,-94.02
07.828,-95.48
07.843,-98.08
07.859,-103.37
07.875,-110.98
07.890,-118.74
07.906,-123.33
07.921,-121.58
07.937,-111.67
07.953,-93.68
07.968,-69.51
07.984,-42.34
08.000,-15.61
08.015,7.96
08.031,26.7
08.046,40.25
08.062,49.19
08.078,54.6
08.093,57.66
08.109,59.22
08.125,59.59
08.140,58.34
08.156,54.73
08.171,48.13
08.187,38.39
08.203,25.96
08.218,11.7
08.234,-3.37
08.250,-18.3
08.265,-32.12
08.281,-43.77
08.296,-52.03
08.312,-55.62
08.328,-53.8
08.343,-46.68
08.359,-35.46
08.375,-22.05
08.390,-8.78
08.406,2.42
08.421,10.21
08.437,14.13
08.453,14.43
08.468,11.88
08.484,7.54
08.500,2.37
08.515,-2.82
08.531,-7.33
08.546,-10.33
08.562,-10.7
08.578,-7.05
08.593,1.54
08.609,14.59
08.625,29.54
08.640,41.66
08.656,45.27
08.671,35.72
08.687,11.37
08.703,-25.45
08.718,-68.85
08.734,-111.15
08.750,-145.17
08.765,-165.8
08.781,-170.87
08.796,-160.96
08.812,-138.63
08.828,-107.65
08.843,-72.31
08.859,-36.94
08.875,-5.37
08.890,19.27
08.906,35.12
08.921,41.54
08.937,39.02
08.953,28.9
08.968,12.82
08.984,-7.65
09.000,-31.18
09.015,-56.56
09.031,-82.64
09.046,-107.96
09.062,-130.91
09.078,-150.07
09.093,-164.9
09.109,-176.08
09.125,-185.46
09.140,-195.22
09.156,-207.02
09.171,-221.08
09.187,-236.04
09.203,-249.53
09.218,-259.11
09.234,-263.13
09.250,-261.18
09.265,-253.64
09.281,-240.96
09.296,-223.05
09.312,-199.18
09.328,-168.29
09.343,-129.73
09.359,-83.92
09.375,-32.82
09.390,19.89
09.406,69.13
09.421,109.43
09.437,136.36
09.453,148.18
09.468,147.04
09.484,138.62
09.500,130.63
09.515,130.16
09.531,141.26
09.546,164.08
09.562,195.56
09.578,231.14
09.593,266.37
09.609,297.6
09.625,321.76
09.640,336.19
09.656,339.1
09.671,330.64
09.687,313.96
09.703,294.95
09.718,280.48
09.734,275.74
09.750,281.95
09.765,295.57
09.781,309.44
09.796,315.38
09.812,306.73
09.828,280.36
09.843,237.21
09.859,181.67
09.875,119.97
09.890,58.4
09.906,1.8
09.921,-47.16
09.937,-87.67
09.953,-120.21
09.968,-145.84
09.984,-166.06
10.000,-182.9
10.015,-198.95
10.031,-217.08
10.046,-239.5
10.062,-266.59
10.078,-296.25
10.093,-324.5
10.109,-346.94
10.125,-360.61
10.140,-365.23
10.156,-362.87
10.171,-356.71
10.187,-349.34
10.203,-341.69
10.218,-332.93
10.234,-321.32
10.250,-305.07
10.265,-282.89
10.281,-254.08
10.296,-218.11
10.312,-174.67
10.328,-123.95
10.343,-67.07
10.359,-6.28
10.375,55.17
10.390,113.9
10.406,167.35
10.421,214.02
10.437,253.53
10.453,285.82
10.468,310.26
10.484,325.44
10.500,329.72
10.515,322.22
10.531,304.25
10.546,279.45
10.562,253.03
10.578,229.99
10.593,213.34
10.609,202.94
10.625,196.02
10.640,188.74
10.656,178.05
10.671,163.38
10.687,146.96
10.703,132.99
10.718,126.2
10.734,130.02
10.750,145.19
10.765,169.02
10.781,195.68
10.796,217.51
10.812,226.85
10.828,218.3
10.843,190.03
10.859,144.33
10.875,86.51
10.890,23.17
10.906,-39.4
10.921,-96.54
10.937,-145.5
10.953,-185.32
10.968,-216.44
10.984,-240.3
11.000,-258.9
11.015,-274.49
11.031,-289.09
11.046,-303.78
11.062,-318.44
11.078,-331.78
11.093,-341.99
11.109,-347.48
11.125,-347.52
11.140,-342.21
11.156,-332.05
11.171,-317.27
11.187,-297.52
11.203,-272.05
11.218,-240.5
11.234,-203.63
11.250,-163.45
11.265,-122.7
11.281,-83.7
11.296,-47.2
11.312,-12.2
11.328,23.45
11.343,61.84
11.359,103.73
11.375,148.24
11.390,193.19
11.406,235.78
11.421,273.04
11.437,302.07
11.453,320.08
11.468,324.78
11.484,315.16
11.500,292.28
11.515,259.61
11.531,222.34
11.546,185.94
11.562,154.7
11.578,130.83
11.593,114.43
11.609,104.14
11.625,97.99
11.640,93.92
11.656,90.01
11.671,84.8
11.687,77.45
11.703,68.19
11.718,58.34
11.734,49.77
11.750,43.94
11.765,40.74
11.781,37.94
11.796,31.54
11.812,17.1
11.828,-8.56
11.843,-45.83
11.859,-91.98
11.875,-142.05
11.890,-190.51
11.906,-232.92
11.921,-267.08
11.937,-293.13
11.953,-312.82
11.968,-328.65
11.984,-342.65
12.000,-355.66
12.015,-367.05
12.031,-374.8
12.046,-375.97
12.062,-367.53
12.078,-347.05
12.093,-313.32
12.109,-266.72
12.125,-209.29
12.140,-144.68
12.156,-77.68
12.171,-13.63
12.187,42.46
12.203,86.81
12.218,117.81
12.234,136.2
12.250,144.64
12.265,146.59
12.281,144.91
12.296,141.01
12.312,135.03
12.328,126.56
12.343,115.92
12.359,104.55
12.375,94.76
12.390,88.5
12.406,86.52
12.421,88.04
12.437,91.48
12.453,95.96
12.468,102.1
12.484,111.59
12.500,125.84
12.515,144.27
12.531,163.61
12.546,179.01
12.562,185.91
12.578,181.83
12.593,166.94
12.609,143.43
12.625,114.05
12.640,81.09
12.656,46.45
12.671,12.34
12.687,-17.93
12.703,-40.3
12.718,-51.2
12.734,-48.91
12.750,-34.37
12.765,-10.57
12.781,18.76
12.796,50.48
12.812,82.48
12.828,113.22
12.843,141.17
12.859,164.22
12.875,180.05
12.890,186.82
12.906,184.15
12.921,173.44
12.937,157.51
12.953,139.63
12.968,122.61
12.984,108.03
13.000,96.24
13.015,86.92
13.031,79.6
13.046,74.0
13.062,70.1
13.078,67.66
13.093,65.74
13.109,62.73
13.125,56.67
13.140,46.04
13.156,30.48
13.171,10.84
13.187,-11.25
13.203,-33.96
13.218,-55.94
13.234,-76.58
13.250,-95.65
13.265,-113.01
13.281,-128.34
13.296,-141.17
13.312,-150.97
13.328,-157.48
13.343,-160.6
13.359,-160.28
13.375,-156.43
13.390,-148.81
13.406,-137.16
13.421,-121.49
13.437,-102.44
13.453,-81.52
13.468,-60.86
13.484,-42.85
13.500,-29.38
13.515,-21.38
13.531,-18.39
13.546,-18.84
13.562,-20.53
13.578,-21.32
13.593,-19.75
13.609,-15.29
13.625,-8.22
13.640,0.63
13.656,10.18
13.671,19.41
13.687,27.35
13.703,33.02
13.718,35.39
13.734,33.58
13.750,27.11
13.765,16.22
13.781,2.07
13.796,-13.57
13.812,-28.62
13.828,-41.28
13.843,-50.48
13.859,-55.95
13.875,-58.18
13.890,-57.97
13.906,-56.27
13.921,-53.71
13.937,-50.58
13.953,-46.67
13.968,-41.39
13.984,-34.07
14.000,-24.16
14.015,-11.85
14.031,1.88
14.046,15.31
14.062,26.5
14.078,33.77
14.093,36.29
14.109,34.04
14.125,27.76
14.140,18.5
14.156,7.55
14.171,-3.82
14.187,-14.29
14.203,-22.6
14.218,-27.88
14.234,-29.79
14.250,-28.72
14.265,-25.65
14.281,-21.77
14.296,-18.01
14.312,-14.89
14.328,-12.43
14.343,-10.36
14.359,-8.33
14.375,-6.1
14.390,-3.51
14.406,-0.55
14.421,2.62
14.437,5.71
14.453,8.36
14.468,10.3
14.484,11.52
14.500,12.27
14.515,13.0
14.531,14.18
14.546,16.09
14.562,18.74
14.578,21.81
14.593,24.78
14.609,27.09
14.625,28.34
14.640,28.34
14.656,27.17
14.671,25.21
14.687,22.92
14.703,20.84
14.718,19.38
14.734,18.8
14.750,19.31
14.765,20.99
14.781,23.83
14.796,27.61
14.812,31.83
14.828,35.8
14.843,38.76
14.859,40.03
14.875,39.2
14.890,36.17
14.906,31.18
14.921,24.65
14.937,17.19
14.953,9.52
14.968,2.44
14.984,-3.24
15.000,-6.82
15.015,-7.91
15.031,-6.62
15.046,-3.52
15.062,0.33
15.078,3.92
15.093,6.47
15.109,7.96
15.125,8.99
15.140,10.54
15.156,13.43
15.171,17.98
15.187,23.83
15.203,30.14
15.218,35.99
15.234,40.6
15.250,43.57
15.265,44.63
15.281,43.59
15.296,40.05
15.312,33.59
15.328,23.86
15.343,10.8
15.359,-5.15
15.375,-23.14
15.390,-41.93
15.406,-60.2
15.421,-76.66
15.437,-90.22
15.453,-100.11
15.468,-105.93
15.484,-107.76
15.500,-106.07
15.515,-101.77
15.531,-95.9
15.546,-89.38
15.562,-82.78
15.578,-76.26
15.593,-69.8
15.609,-63.34
15.625,-57.18
15.640,-51.91
15.656,-48.33
15.671,-47.11
15.687,-48.36
15.703,-51.65
15.718,-56.1
15.734,-60.65
15.750,-64.52
15.765,-67.49
15.781,-69.8
15.796,-72.06
15.812,-74.75
15.828,-77.88
15.843,-80.91
15.859,-82.98
15.875,-83.33
15.890,-81.6
15.906,-77.87
15.921,-72.67
15.937,-66.79
15.953,-61.37
15.968,-57.83
15.984,-57.62
16.000,-61.66
16.015,-69.59
16.031,-79.12
16.046,-86.02
16.062,-85.42
16.078,-73.61
16.093,-49.72
16.109,-16.01
16.125,23.22
16.140,64.03
16.156,104.64
16.171,145.55
16.187,187.98
16.203,231.29
16.218,271.69
16.234,302.85
16.250,318.56
16.265,315.65
16.281,295.79
16.296,264.5
16.312,228.58
16.328,193.38
16.343,161.77
16.359,135.19
16.375,115.55
16.390,106.28
16.406,111.44
16.421,132.99
16.437,168.05
16.453,208.39
16.468,242.6
16.484,260.35
16.500,256.51
16.515,232.64
16.531,194.89
16.546,150.61
16.562,105.58
16.578,63.56
16.593,28.26
16.609,4.8
16.625,-1.09
16.640,13.89
16.656,46.93
16.671,88.02
16.687,122.61
16.703,136.98
16.718,123.91
16.734,85.43
16.750,31.79
16.765,-23.01
16.781,-66.63
16.796,-92.67
16.812,-102.05
16.828,-101.73
16.843,-101.52
16.859,-110.04
16.875,-131.6
16.890,-164.79
16.906,-203.43
16.921,-239.32
16.937,-265.81
16.953,-279.96
16.968,-282.46
16.984,-276.05
17.000,-263.48
17.015,-246.28
17.031,-225.15
17.046,-201.32
17.062,-177.3
17.078,-156.89
17.093,-143.81
17.109,-140.11
17.125,-145.1
17.140,-155.32
17.156,-165.87
17.171,-172.31
17.187,-172.13
17.203,-165.32
17.218,-153.76
17.234,-139.83
17.250,-125.23
17.265,-110.56
17.281,-95.39
17.296,-79.11
17.312,-61.44
17.328,-42.5
17.343,-22.49
17.359,-1.04
17.375,22.88
17.390,50.64
17.406,82.91
17.421,118.75
17.437,155.18
17.453,187.64
17.468,211.61
17.484,224.07
17.500,224.45
17.515,214.49
17.531,197.19
17.546,175.5
17.562,151.49
17.578,126.37
17.593,101.2
17.609,77.59
17.625,57.84
17.640,44.24
17.656,37.85
17.671,37.78
17.687,41.09
17.703,43.6
17.718,41.43
17.734,32.28
17.750,16.42
17.765,-3.52
17.781,-23.61
17.796,-40.04
17.812,-50.26
17.828,-53.31
17.843,-49.73
17.859,-40.71
17.875,-27.65
17.890,-11.88
17.906,5.04
17.921,21.12
17.937,34.1
17.953,42.24
17.968,45.54
17.984,46.13
18.000,47.39
18.015,52.07
18.031,60.77
18.046,71.64
18.062,81.45
18.078,87.58
18.093,89.32
18.109,87.63
18.125,83.99
18.140,78.98
18.156,71.59
18.171,60.31
18.187,44.83
18.203,27.02
18.218,10.75
18.234,-0.39
18.250,-5.5
18.265,-7.64
18.281,-13.07
18.296,-28.51
18.312,-57.66
18.328,-98.91
18.343,-145.29
18.359,-186.66
18.375,-213.49
18.390,-220.13
18.406,-206.46
18.421,-176.71
18.437,-136.81
18.453,-91.37
18.468,-42.36
18.484,10.29
18.500,66.92
18.515,125.79
18.531,182.82
18.546,232.47
18.562,269.82
18.578,291.99
18.593,298.77
18.609,291.68
18.625,272.74
18.640,243.78
18.656,206.68
18.671,164.39
18.687,121.57
18.703,84.17
18.718,57.7
18.734,45.0
18.750,44.75
18.765,51.59
18.781,57.71
18.796,55.57
18.812,40.34
18.828,11.26
18.843,-28.42
18.859,-72.73
18.875,-114.93
18.890,-149.26
18.906,-172.09
18.921,-182.26
18.937,-181.0
18.953,-171.07
18.968,-156.1
18.984,-140.01
19.000,-126.34
19.015,-118.04
19.031,-116.97
19.046,-123.24
19.062,-134.69
19.078,-147.27
19.093,-156.0
19.109,-156.36
19.125,-145.75
19.140,-124.25
19.156,-94.4
19.171,-60.31
19.187,-26.63
19.203,2.71
19.218,25.01
19.234,39.01
19.250,44.75
19.265,43.49
19.281,37.27
19.296,28.62
19.312,20.09
19.328,13.61
19.343,10.12
19.359,9.49
19.375,10.98
19.390,13.77
19.406,17.48
19.421,22.29
19.437,28.77
19.453,37.29
19.468,47.66
19.484,59.1
19.500,70.19
19.515,79.36
19.531,85.09
19.546,86.1
19.562,81.81
19.578,72.51
19.593,59.65
19.609,45.66
19.625,33.54
19.640,25.86
19.656,24.03
19.671,27.84
19.687,35.31
19.703,43.4
19.718,48.69
19.734,48.34
19.750,40.77
19.765,26.23
19.781,6.61
19.796,-14.9
19.812,-34.61
19.828,-49.39
19.843,-57.63
19.859,-59.72
19.875,-57.71
19.890,-54.38
19.906,-51.98
19.921,-51.42
19.937,-51.9
19.953,-51.65
19.968,-48.93
19.984,-42.94
20.000,-34.4
20.015,-25.21
20.031,-17.84
20.046,-14.38
20.062,-16.06
20.078,-22.85
20.093,-33.69
20.109,-46.86
20.125,-60.24
20.140,-71.91
20.156,-80.49
20.171,-85.42
20.187,-87.06
20.203,-86.41
20.218,-84.66
20.234,-82.65
20.250,-80.65
20.265,-78.19
20.281,-74.36
20.296,-68.24
20.312,-59.31
20.328,-47.65
20.343,-33.72
20.359,-18.12
20.375,-1.14
20.390,17.22
20.406,36.99
20.421,57.82
20.437,78.71
20.453,98.14
20.468,114.35
20.484,126.05
20.500,132.5
20.515,133.76
20.531,130.4
20.546,123.4
20.562,113.82
20.578,102.83
20.593,91.6
20.609,80.94
20.625,71.13
20.640,61.69
20.656,51.68
20.671,40.2
20.687,27.02
20.703,12.92
20.718,-0.58
20.734,-11.7
20.750,-19.29
20.765,-23.24
20.781,-24.57
20.796,-25.06
20.812,-26.54
20.828,-30.3
20.843,-36.92
20.859,-46.25
20.875,-57.7
20.890,-70.55
20.906,-83.93
20.921,-97.03
20.937,-109.09
20.953,-119.46
20.968,-127.79
20.984,-134.15
21.000,-138.94
21.015,-142.72
21.031,-146.01
21.046,-148.78
21.062,-150.33
21.078,-149.23
21.093,-143.52
21.109,-131.18
21.125,-110.93
21.140,-82.91
21.156,-49.17
21.171,-13.54
21.187,19.27
21.203,44.97
21.218,60.86
21.234,66.54
21.250,63.97
21.265,56.57
21.281,48.27
21.296,42.45
21.312,41.38
21.328,45.86
21.343,55.38
21.359,68.38
21.375,82.61
21.390,95.75
21.406,105.8
21.421,111.59
21.437,112.9
21.453,110.24
21.468,104.72
21.484,97.49
21.500,89.53
21.515,81.54
21.531,73.88
21.546,66.63
21.562,59.79
21.578,53.27
21.593,46.91
21.609,40.56
21.625,34.09
21.640,27.33
21.656,20.15
21.671,12.37
21.687,3.87
21.703,-5.29
21.718,-14.74
21.734,-23.76
21.750,-31.42
21.765,-36.8
21.781,-39.36
21.796,-39.22
21.812,-37.04
21.828,-34.01
21.843,-31.6
21.859,-31.13
21.875,-33.57
21.890,-39.31
21.906,-47.9
21.921,-58.22
21.937,-68.54
21.953,-77.08
21.968,-82.42
21.984,-83.98
22.000,-82.08
22.015,-77.67
22.031,-71.91
22.046,-65.57
22.062,-58.8
22.078,-51.16
22.093,-42.01
22.109,-31.0
22.125,-18.56
22.140,-5.89
22.156,5.35
22.171,13.54
22.187,17.68
22.203,17.65
22.218,14.23
22.234,8.84
22.250,3.07
22.265,-1.61
22.281,-4.0
22.296,-3.49
22.312,0.04
22.328,6.26
22.343,14.58
22.359,24.3
22.375,35.06
22.390,46.62
22.406,58.75
22.421,71.01
22.437,82.4
22.453,91.54
22.468,97.1
22.484,98.18
22.500,94.49
22.515,86.33
22.531,74.19
22.546,58.55
22.562,40.02
22.578,19.54
22.593,-1.29
22.609,-20.21
22.625,-34.77
22.640,-42.96
22.656,-43.75
22.671,-37.29
22.687,-24.81
22.703,-8.23
22.718,10.21
22.734,28.2
22.750,43.53
22.765,54.35
22.781,59.69
22.796,59.81
22.812,56.19
22.828,51.36
22.843,47.92
22.859,47.78
22.875,51.52
22.890,58.31
22.906,66.17
22.921,72.78
22.937,76.1
22.953,74.75
22.968,68.2
22.984,56.65
23.000,40.67
23.015,21.04
23.031,-1.29
23.046,-25.13
23.062,-48.75
23.078,-69.87
23.093,-85.83
23.109,-94.24
23.125,-93.62
23.140,-84.0
23.156,-66.86
23.171,-44.7
23.187,-20.26
23.203,4.27
23.218,27.56
23.234,49.02
23.250,68.47
23.265,85.76
23.281,100.46
23.296,111.85
23.312,118.94
23.328,120.72
23.343,116.16
23.359,104.56
23.375,85.58
23.390,59.66
23.406,28.32
23.421,-5.67
23.437,-38.51
23.453,-66.15
23.468,-85.22
23.484,-94.15
23.500,-93.59
23.515,-86.24
23.531,-75.91
23.546,-66.39
23.562,-60.39
23.578,-59.06
23.593,-62.09
23.609,-68.04
23.625,-75.07
23.640,-81.46
23.656,-86.07
23.671,-88.79
23.687,-90.49
23.703,-92.83
23.718,-97.5
23.734,-105.47
23.750,-116.29
23.765,-128.14
23.781,-138.1
23.796,-142.98
23.812,-140.16
23.828,-128.07
23.843,-106.51
23.859,-76.5
23.875,-39.98
23.890,0.5
23.906,42.22
23.921,82.7
23.937,119.97
23.953,152.46
23.968,178.87
23.984,197.9
24.000,208.19
24.015,208.59
24.031,198.67
24.046,179.06
24.062,151.78
24.078,120.07
24.093,87.69
24.109,58.33
24.125,34.94
24.140,19.25
24.156,11.79
24.171,12.0
24.187,18.49
24.203,29.55
24.218,43.26
24.234,57.85
24.250,71.86
24.265,84.29
24.281,94.67
24.296,103.17
24.312,110.38
24.328,116.83
24.343,122.64
24.359,127.06
24.375,128.53
24.390,125.18
24.406,115.5
24.421,99.08
24.437,77.02
24.453,51.79
24.468,26.49
24.484,4.13
24.500,-13.21
24.515,-24.63
24.531,-30.25
24.546,-30.76
24.562,-27.25
24.578,-21.04
24.593,-13.78
24.609,-7.43
24.625,-3.83
24.640,-4.21
24.656,-8.53
24.671,-15.24
24.687,-21.6
24.703,-24.45
24.718,-21.28
24.734,-10.96
24.750,6.01
24.765,27.69
24.781,51.12
24.796,72.87
24.812,89.56
24.828,98.22
24.843,96.76
24.859,84.41
24.875,61.81
24.890,30.77
24.906,-5.94
24.921,-45.31
24.937,-84.41
24.953,-120.64
24.968,-151.87
24.984,-176.58
25.000,-193.71
25.015,-202.83
25.031,-204.27
25.046,-198.96
25.062,-188.32
25.078,-174.08
25.093,-157.94
25.109,-141.17
25.125,-124.16
25.140,-105.97
25.156,-84.35
25.171,-56.31
25.187,-19.14
25.203,28.27
25.218,84.45
25.234,145.07
25.250,203.68
25.265,253.07
25.281,287.09
25.296,302.14
25.312,297.69
25.328,276.28
25.343,242.38
25.359,201.2
25.375,157.53
25.390,115.1
25.406,76.35
25.421,42.68
25.437,14.81
25.453,-7.06
25.468,-23.09
25.484,-34.02
25.500,-41.09
25.515,-45.76
25.531,-49.45
25.546,-53.25
25.562,-57.65
25.578,-62.8
25.593,-68.78
25.609,-75.67
25.625,-83.62
25.640,-92.63
25.656,-102.33
25.671,-111.94
25.687,-120.59
25.703,-127.47
25.718,-132.42
25.734,-135.95
25.750,-139.02
25.765,-142.85
25.781,-148.48
25.796,-156.51
25.812,-167.02
25.828,-179.6
25.843,-193.4
25.859,-207.32
25.875,-220.2
25.890,-230.86
25.906,-238.22
25.921,-241.24
25.937,-239.04
25.953,-230.86
25.968,-216.38
25.984,-196.0
26.000,-170.93
26.015,-143.04
26.031,-114.13
26.046,-85.57
26.062,-57.74
26.078,-30.18
26.093,-2.15
26.109,26.77
26.125,56.04
26.140,83.97
26.156,107.78
26.171,124.34
26.187,131.02
26.203,126.85
26.218,113.06
26.234,93.07
26.250,71.63
26.265,53.35
26.281,41.29
26.296,36.14
26.312,36.46
26.328,39.7
26.343,43.31
26.359,45.65
26.375,45.98
26.390,44.03
26.406,39.43
26.421,31.85
26.437,21.12
26.453,7.93
26.468,-5.96
26.484,-18.14
26.500,-26.1
26.515,-28.07
26.531,-23.3
26.546,-11.96
26.562,5.35
26.578,27.78
26.593,54.12
26.609,82.32
26.625,109.21
26.640,130.7
26.656,142.56
26.671,141.29
26.687,125.16
26.703,94.65
26.718,52.38
26.734,2.76
26.750,-48.49
26.765,-95.17
26.781,-131.38
26.796,-152.55
26.812,-156.45
26.828,-143.59
26.843,-116.97
26.859,-81.26
26.875,-41.59
26.890,-2.48
26.906,32.67
26.921,62.01
26.937,84.98
26.953,102.01
26.968,114.03
26.984,122.04
27.000,126.66
27.015,127.94
27.031,125.49
27.046,118.54
27.062,106.42
27.078,88.72
27.093,65.45
27.109,37.08
27.125,4.49
27.140,-30.9
27.156,-67.07
27.171,-101.32
27.187,-130.62
27.203,-151.85
27.218,-162.62
27.234,-161.94
27.250,-150.74
27.265,-132.08
27.281,-110.47
27.296,-90.68
27.312,-76.42
27.328,-69.25
27.343,-68.32
27.359,-71.08
27.375,-74.44
27.390,-76.03
27.406,-74.83
27.421,-71.07
27.437,-65.53
27.453,-58.83
27.468,-51.2
27.484,-42.41
27.500,-32.36
27.515,-21.37
27.531,-10.12
27.546,0.27
27.562,8.75
27.578,14.64
27.593,17.69
27.609,18.34
27.625,17.55
27.640,16.65
27.656,16.96
27.671,19.33
27.687,23.6
27.703,28.59
27.718,32.39
27.734,32.96
27.750,28.99
27.765,20.26
27.781,7.7
27.796,-7.14
27.812,-22.62
27.828,-37.53
27.843,-51.19
27.859,-63.22
27.875,-73.28
27.890,-80.65
27.906,-84.21
27.921,-82.62
27.937,-74.93
27.953,-61.02
27.968,-42.01
27.984,-19.87
28.000,3.27
28.015,25.85
28.031,47.52
28.046,68.94
28.062,91.21
28.078,115.07
28.093,140.26
28.109,165.39
28.125,188.2
28.140,206.06
28.156,216.47
28.171,217.41
28.187,207.82
28.203,187.87
28.218,159.2
28.234,124.78
28.250,88.41
28.265,53.85
28.281,23.98
28.296,0.14
28.312,-17.94
28.328,-31.64
28.343,-42.87
28.359,-53.36
28.375,-64.35
28.390,-76.42
28.406,-89.64
28.421,-103.42
28.437,-116.77
28.453,-128.29
28.468,-136.58
28.484,-140.67
28.500,-140.29
28.515,-136.19
28.531,-129.83
28.546,-123.09
28.562,-117.54
28.578,-114.09
28.593,-112.68
28.609,-112.3
28.625,-111.19
28.640,-107.16
28.656,-98.13
28.671,-82.71
28.687,-60.82
28.703,-33.91
28.718,-4.75
28.734,23.32
28.750,47.4
28.765,65.9
28.781,78.78
28.796,87.21
28.812,92.62
28.828,95.71
28.843,96.1
28.859,92.46
28.875,83.33
28.890,68.06
28.906,47.38
28.921,23.51
28.937,-0.48
28.953,-21.51
28.968,-37.21
28.984,-46.31
29.000,-48.5
29.015,-44.19
29.031,-34.2
29.046,-19.57
29.062,-1.43
29.078,18.93
29.093,40.2
29.109,61.23
29.125,80.99
29.140,98.63
29.156,113.47
29.171,124.86
29.187,132.33
29.203,135.72
29.218,135.25
29.234,131.47
29.250,125.17
29.265,117.21
29.281,108.22
29.296,98.73
29.312,89.07
29.328,79.36
29.343,69.58
29.359,59.56
29.375,49.07
29.390,37.84
29.406,25.55
29.421,11.99
29.437,-2.95
29.453,-19.02
29.468,-35.7
29.484,-52.15
29.500,-67.5
29.515,-81.12
29.531,-92.72
29.546,-102.58
29.562,-111.22
29.578,-119.12
29.593,-126.52
29.609,-133.2
29.625,-138.62
29.640,-142.06
29.656,-142.75
29.671,-140.04
29.687,-133.52
29.703,-123.16
29.718,-109.36
29.734,-93.2
29.750,-76.28
29.765,-60.41
29.781,-47.38
29.796,-38.38
29.812,-33.75
29.828,-32.98
29.843,-34.86
29.859,-37.71
29.875,-39.81
29.890,-39.62
29.906,-36.08
29.921,-28.72
29.937,-17.88
29.953,-4.6
29.968,9.64
29.984,23.3
30.000,35.27
30.015,44.97
30.031,52.48
30.046,58.21
30.062,62.8
30.078,66.78
30.093,70.48
30.109,74.02
30.125,77.3
30.140,80.1
30.156,82.08
30.171,83.01
30.187,82.83
30.203,81.78
30.218,80.26
30.234,78.65
30.250,77.05
30.265,75.18
30.281,72.3
30.296,67.34
30.312,59.39
30.328,47.9
30.343,32.95
30.359,15.3
30.375,-3.75
30.390,-22.63
30.406,-39.9
30.421,-54.46
30.437,-65.83
30.453,-73.97
30.468,-79.29
30.484,-82.53
30.500,-84.56
30.515,-86.15
30.531,-87.91
30.546,-90.12
30.562,-92.46
30.578,-94.17
30.593,-94.14
30.609,-91.26
30.625,-84.79
30.640,-74.66
30.656,-61.52
30.671,-46.61
30.687,-31.35
30.703,-16.93
30.718,-3.98
30.734,7.41
30.750,17.45
30.765,26.24
30.781,33.68
30.796,39.39
30.812,43.23
30.828,45.9
30.843,49.19
30.859,55.59
30.875,67.67
30.890,86.71
30.906,112.11
30.921,141.33
30.937,170.9
30.953,197.58
30.968,219.38
30.984,235.66
31.000,246.68
31.015,253.0
31.031,255.01
31.046,252.88
31.062,246.82
31.078,236.94
31.093,222.78
31.109,202.78
31.125,174.34
31.140,134.69
31.156,82.68
31.171,20.36
31.187,-46.13
31.203,-107.46
31.218,-153.42
31.234,-176.09
31.250,-172.39
31.265,-144.96
31.281,-101.15
31.296,-50.42
31.312,-1.61
31.328,38.99
31.343,67.68
31.359,82.3
31.375,81.07
31.390,62.33
31.406,26.23
31.421,-23.22
31.437,-76.99
31.453,-122.7
31.468,-148.56
31.484,-148.14
31.500,-122.71
31.515,-80.31
31.531,-31.7
31.546,14.32
31.562,53.48
31.578,85.69
31.593,112.35
31.609,133.27
31.625,145.29
31.640,143.37
31.656,123.36
31.671,84.46
31.687,30.33
31.703,-31.83
31.718,-93.45
31.734,-146.93
31.750,-187.14
31.765,-212.14
31.781,-222.52
31.796,-220.2
31.812,-207.44
31.828,-186.08
31.843,-158.13
31.859,-126.41
31.875,-94.68
31.890,-67.1
31.906,-46.49
31.921,-32.98
31.937,-23.77
31.953,-14.48
31.968,-1.37
31.984,16.56
32.000,36.7
32.015,53.99
32.031,63.07
32.046,60.91
32.062,48.1
32.078,28.54
32.093,7.74
32.109,-9.22
32.125,-19.4
32.140,-22.43
32.156,-19.88
32.171,-14.27
32.187,-8.09
32.203,-3.25
32.218,-1.03
32.234,-2.38
32.250,-7.44
32.265,-15.21
32.281,-23.39
32.296,-28.69
32.312,-28.57
32.328,-23.01
32.343,-15.2
32.359,-10.84
32.375,-15.37
32.390,-31.06
32.406,-55.32
32.421,-81.42
32.437,-101.35
32.453,-109.49
32.468,-104.85
32.484,-90.66
32.500,-72.1
32.515,-53.07
32.531,-34.35
32.546,-13.77
32.562,12.06
32.578,45.64
32.593,87.33
32.609,135.36
32.625,186.75
32.640,238.3
32.656,287.37
32.671,332.13
32.687,371.27
32.703,403.97
32.718,429.77
32.734,448.44
32.750,459.9
32.765,464.14
32.781,460.98
32.796,450.07
32.812,431.46
32.828,405.3
32.843,372.23
32.859,333.19
32.875,289.44
32.890,242.63
32.906,194.9
32.921,148.91
32.937,107.63
32.953,73.84
32.968,49.35
32.984,34.66
33.000,28.75
33.015,29.54
33.031,34.37
33.046,40.74
33.062,46.8
33.078,51.56
33.093,54.86
33.109,57.06
33.125,58.67
33.140,60.15
33.156,61.73
33.171,63.51
33.187,65.64
33.203,68.38
33.218,72.07
33.234,77.1
33.250,83.69
33.265,91.75
33.281,100.78
33.296,109.85
33.312,117.73
33.328,123.15
33.343,125.08
33.359,122.96
33.375,116.86
33.390,107.35
33.406,95.39
33.421,81.95
33.437,67.69
33.453,52.88
33.468,37.42
33.484,21.1
33.500,3.84
33.515,-13.95
33.531,-31.31
33.546,-47.05
33.562,-60.16
33.578,-70.33
33.593,-78.13
33.609,-84.96
33.625,-92.44
33.640,-101.78
33.656,-113.16
33.671,-125.62
33.687,-137.59
33.703,-147.61
33.718,-155.37
33.734,-162.07
33.750,-170.26
33.765,-182.87
33.781,-201.86
33.796,-227.35
33.812,-257.43
33.828,-288.74
33.843,-317.63
33.859,-341.5
33.875,-359.52
33.890,-372.86
33.906,-384.12
33.921,-396.44
33.937,-412.29
33.953,-432.2
33.968,-453.68
33.984,-470.72
34.000,-474.86
34.015,-457.68
34.031,-413.92
34.046,-344.34
34.062,-256.76
34.078,-164.59
34.093,-82.57
34.109,-22.02
34.125,12.91
34.140,26.09
34.156,26.98
34.171,26.38
34.187,32.13
34.203,46.75
34.218,67.56
34.234,88.84
34.250,104.64
34.265,110.74
34.281,105.41
34.296,89.12
34.312,63.38
34.328,30.19
34.343,-8.12
34.359,-48.96
34.375,-89.71
34.390,-128.3
34.406,-163.95
34.421,-197.77
34.437,-232.3
34.453,-270.58
34.468,-314.75
34.484,-364.72
34.500,-417.55
34.515,-468.11
34.531,-510.46
34.546,-539.76
34.562,-553.69
34.578,-553.31
34.593,-542.84
34.609,-528.42
34.625,-516.17
34.640,-510.13
34.656,-510.68
34.671,-514.12
34.687,-513.68
34.703,-501.98
34.718,-473.89
34.734,-428.52
34.750,-369.52
34.765,-303.46
34.781,-237.46
34.796,-176.83
34.812,-124.31
34.828,-80.52
34.843,-45.13
34.859,-17.9
34.875,1.21
34.890,12.45
34.906,16.99
34.921,16.89
34.937,14.69
34.953,12.62
34.968,12.01
34.984,13.08
35.000,15.39
35.015,18.23
35.031,21.25
35.046,24.8
35.062,29.73
35.078,37.05
35.093,47.31
35.109,60.25
35.125,74.9
35.140,90.01
35.156,104.34
35.171,116.91
35.187,127.21
35.203,135.17
35.218,140.85
35.234,144.32
35.250,145.52
35.265,144.35
35.281,140.82
35.296,135.29
35.312,128.46
35.328,121.04
35.343,113.57
35.359,105.97
35.375,97.31
35.390,86.01
35.406,70.32
35.421,48.87
35.437,21.35
35.453,-11.33
35.468,-47.05
35.484,-83.05
35.500,-116.36
35.515,-144.43
35.531,-165.42
35.546,-178.14
35.562,-181.85
35.578,-175.92
35.593,-159.81
35.609,-133.28
35.625,-97.01
35.640,-52.88
35.656,-4.01
35.671,45.83
35.687,92.98
35.703,134.77
35.718,169.99
35.734,199.01
35.750,223.38
35.765,245.47
35.781,268.11
35.796,294.2
35.812,326.13
35.828,364.35
35.843,406.34
35.859,446.66
35.875,478.4
35.890,496.2
35.906,498.84
35.921,489.98
35.937,476.64
35.953,465.82
35.968,461.13
35.984,461.19
36.000,460.44
36.015,451.75
36.031,429.29
36.046,390.4
36.062,335.94
36.078,269.63
36.093,196.8
36.109,123.26
36.125,54.47
36.140,-5.15
36.156,-52.94
36.171,-87.63
36.187,-109.02
36.203,-117.32
36.218,-113.05
36.234,-97.4
36.250,-72.74
36.265,-42.15
36.281,-8.38
36.296,26.99
36.312,63.7
36.328,101.24
36.343,137.04
36.359,165.82
36.375,181.1
36.390,178.35
36.406,158.25
36.421,126.98
36.437,93.35
36.453,64.4
36.468,41.96
36.484,22.82
36.500,1.98
36.515,-22.91
36.531,-49.13
36.546,-69.93
36.562,-78.3
36.578,-70.78
36.593,-49.11
36.609,-18.98
36.625,13.03
36.640,42.5
36.656,68.21
36.671,91.6
36.687,115.08
36.703,140.34
36.718,167.22
36.734,193.86
36.750,217.19
36.765,233.99
36.781,242.13
36.796,241.0
36.812,231.4
36.828,214.58
36.843,191.27
36.859,161.04
36.875,122.82
36.890,75.77
36.906,20.41
36.921,-41.0
36.937,-104.59
36.953,-165.66
36.968,-219.86
36.984,-263.8
37.000,-295.54
37.015,-314.35
37.031,-319.96
37.046,-311.96
37.062,-289.32
37.078,-250.88
37.093,-196.29
37.109,-127.39
37.125,-48.97
37.140,31.57
37.156,105.92
37.171,167.13
37.187,211.02
37.203,236.39
37.218,243.97
37.234,235.15
37.250,211.14
37.265,173.69
37.281,126.12
37.296,74.02
37.312,24.76
37.328,-14.24
37.343,-37.53
37.359,-43.0
37.375,-31.77
37.390,-7.68
37.406,23.7
37.421,55.78
37.437,81.22
37.453,92.86
37.468,85.49
37.484,57.93
37.500,14.32
37.515,-36.73
37.531,-84.66
37.546,-120.33
37.562,-138.68
37.578,-139.49
37.593,-126.28
37.609,-104.07
37.625,-77.53
37.640,-50.07
37.656,-23.92
37.671,-0.66
37.687,18.53
37.703,32.87
37.718,42.15
37.734,46.94
37.750,48.3
37.765,47.75
37.781,46.68
37.796,45.59
37.812,44.56
37.828,43.36
37.843,41.47
37.859,38.13
37.875,33.35
37.890,28.38
37.906,25.53
37.921,27.12
37.937,33.79
37.953,44.52
37.968,57.06
37.984,68.79
38.000,77.96
38.015,84.29
38.031,88.45
38.046,91.55
38.062,93.52
38.078,91.9
38.093,84.54
38.109,71.43
38.125,54.58
38.140,37.63
38.156,24.61
38.171,18.49
38.187,22.21
38.203,36.61
38.218,57.29
38.234,79.7
38.250,100.44
38.265,115.75
38.281,122.28
38.296,117.83
38.312,102.1
38.328,80.14
38.343,57.61
38.359,32.64
38.375,4.37
38.390,-25.13
38.406,-54.69
38.421,-83.35
38.437,-110.09
38.453,-133.83
38.468,-148.2
38.484,-148.61
38.500,-143.52
38.515,-139.22
38.531,-135.81
38.546,-133.52
38.562,-132.06
38.578,-130.07
38.593,-124.66
38.609,-104.14
38.625,-57.4
38.640,9.87
38.656,92.77
38.671,190.35
38.687,296.83
38.703,403.06
38.718,498.98
38.734,531.28
38.750,466.95
38.765,376.85
38.781,296.6
38.796,215.75
38.812,135.82
38.828,59.59
38.843,-9.9
38.859,-70.37
38.875,-121.13
38.890,-156.28
38.906,-172.91
38.921,-184.56
38.937,-200.43
38.953,-219.73
38.968,-240.05
38.984,-258.2
39.000,-271.35
39.015,-277.91
39.031,-272.41
39.046,-251.87
39.062,-226.55
39.078,-204.25
39.093,-185.94
39.109,-172.05
39.125,-162.36
39.140,-156.43
39.156,-153.88
39.171,-151.17
39.187,-145.85
39.203,-143.32
39.218,-147.04
39.234,-155.72
39.250,-167.3
39.265,-179.27
39.281,-189.05
39.296,-194.49
39.312,-192.58
39.328,-181.54
39.343,-164.13
39.359,-142.72
39.375,-117.82
39.390,-89.89
39.406,-59.28
39.421,-26.25
39.437,8.85
39.453,46.05
39.468,84.7
39.484,122.13
39.500,155.22
39.515,181.0
39.531,196.44
39.546,199.2
39.562,188.29
39.578,164.34
39.593,129.52
39.609,86.93
39.625,39.96
39.640,-8.25
39.656,-55.11
39.671,-98.54
39.687,-136.84
39.703,-168.73
39.718,-193.34
39.734,-210.32
39.750,-219.74
39.765,-222.07
39.781,-217.95
39.796,-208.2
39.812,-193.57
39.828,-174.59
39.843,-151.58
39.859,-124.87
39.875,-95.06
39.890,-63.27
39.906,-31.34
39.921,-1.51
39.937,24.16
39.953,44.53
39.968,59.83
39.984,71.37
40.000,80.92
40.015,89.72
40.031,98.01
40.046,105.05
40.062,109.95
40.078,112.48
40.093,113.62
40.109,115.16
40.125,118.7
40.140,124.52
40.156,131.05
40.171,135.48
40.187,134.92
40.203,127.96
40.218,115.39
40.234,100.15
40.250,86.12
40.265,76.73
40.281,73.69
40.296,76.38
40.312,82.35
40.328,88.19
40.343,90.78
40.359,87.81
40.375,77.89
40.390,61.17
40.406,39.76
40.421,17.88
40.437,0.98
40.453,-6.31
40.468,-2.85
40.484,7.36
40.500,15.9
40.515,13.21
40.531,-6.55
40.546,-42.13
40.562,-85.12
40.578,-123.62
40.593,-147.44
40.609,-152.35
40.625,-140.85
40.640,-119.68
40.656,-95.88
40.671,-73.69
40.687,-53.89
40.703,-35.55
40.718,-18.4
40.734,-4.05
40.750,4.0
40.765,2.22
40.781,-11.02
40.796,-34.6
40.812,-65.02
40.828,-97.84
40.843,-129.24
40.859,-156.86
40.875,-180.08
40.890,-199.33
40.906,-215.37
40.921,-228.42
40.937,-238.27
40.953,-244.47
40.968,-246.72
40.984,-245.02
41.000,-239.46
41.015,-229.7
41.031,-214.65
41.046,-192.46
41.062,-160.85
41.078,-117.97
41.093,-63.28
41.109,1.71
41.125,73.26
41.140,145.76
41.156,212.84
41.171,268.66
41.187,309.34
41.203,333.66
41.218,342.98
41.234,340.41
41.250,329.57
41.265,313.5
41.281,293.98
41.296,271.68
41.312,246.54
41.328,218.7
41.343,188.93
41.359,158.84
41.375,130.39
41.390,105.16
41.406,83.66
41.421,65.04
41.437,47.66
41.453,29.69
41.468,10.25
41.484,-10.21
41.500,-30.05
41.515,-47.0
41.531,-58.88
41.546,-63.86
41.562,-61.08
41.578,-50.93
41.593,-35.87
41.609,-20.35
41.625,-10.18
41.640,-10.44
41.656,-23.02
41.671,-44.91
41.687,-68.64
41.703,-85.0
41.718,-86.76
41.734,-71.82
41.750,-43.78
41.765,-9.89
41.781,22.37
41.796,48.23
41.812,66.68
41.828,79.36
41.843,88.43
41.859,94.95
41.875,98.54
41.890,98.31
41.906,94.11
41.921,87.05
41.937,79.42
41.953,73.56
41.968,70.78
41.984,70.71
42.000,71.36
42.015,70.07
42.031,64.46
42.046,53.6
42.062,38.17
42.078,20.23
42.093,2.37
42.109,-13.26
42.125,-25.47
42.140,-34.13
42.156,-39.86
42.171,-43.41
42.187,-45.08
42.203,-44.72
42.218,-41.88
42.234,-36.31
42.250,-28.47
42.265,-19.51
42.281,-10.95
42.296,-3.97
42.312,1.08
42.328,4.96
42.343,9.07
42.359,14.71
42.375,22.25
42.390,30.59
42.406,37.56
42.421,40.7
42.437,38.35
42.453,30.65
42.468,19.59
42.484,8.26
42.500,-0.34
42.515,-4.44
42.531,-4.15
42.546,-1.05
42.562,2.42
42.578,3.9
42.593,1.74
42.609,-4.8
42.625,-15.8
42.640,-30.95
42.656,-49.78
42.671,-71.72
42.687,-95.91
42.703,-121.12
42.718,-145.88
42.734,-168.62
42.750,-188.14
42.765,-203.86
42.781,-215.9
42.796,-224.82
42.812,-231.37
42.828,-235.97
42.843,-238.85
42.859,-240.28
42.875,-240.71
42.890,-240.75
42.906,-240.46
42.921,-238.6
42.937,-232.28
42.953,-217.56
42.968,-190.77
42.984,-150.21
43.000,-97.01
43.015,-34.9
43.031,30.99
43.046,95.52
43.062,154.25
43.078,203.46
43.093,239.51
43.109,258.81
43.125,258.55
43.140,238.24
43.156,200.74
43.171,152.47
43.187,101.68
43.203,56.12
43.218,20.89
43.234,-2.56
43.250,-15.73
43.265,-21.61
43.281,-22.87
43.296,-20.74
43.312,-15.25
43.328,-5.97
43.343,6.93
43.359,22.2
43.375,37.66
43.390,51.06
43.406,60.79
43.421,66.31
43.437,68.22
43.453,67.57
43.468,65.33
43.484,61.84
43.500,56.86
43.515,49.93
43.531,41.01
43.546,30.71
43.562,20.34
43.578,11.67
43.593,6.26
43.609,4.96
43.625,7.58
43.640,12.87
43.656,18.89
43.671,24.04
43.687,27.46
43.703,29.57
43.718,32.11
43.734,37.74
43.750,49.46
43.765,69.36
43.781,97.18
43.796,129.32
43.812,158.96
43.828,177.31
43.843,176.06
43.859,150.47
43.875,101.72
43.890,37.38
43.906,-30.38
43.921,-88.47
43.937,-126.52
43.953,-139.54
43.968,-128.58
43.984,-99.57
44.000,-61.18
44.015,-22.57
44.031,8.47
44.046,26.9
44.062,31.01
44.078,22.7
44.093,6.63
44.109,-11.27
44.125,-25.5
44.140,-32.57
44.156,-31.84
44.171,-25.02
44.187,-15.06
44.203,-5.19
44.218,1.86
44.234,4.13
44.250,0.3
44.265,-9.95
44.281,-25.75
44.296,-45.17
44.312,-65.65
44.328,-84.45
44.343,-99.62
44.359,-110.47
44.375,-117.57
44.390,-122.09
44.406,-125.16
44.421,-127.26
44.437,-128.03
44.453,-126.66
44.468,-122.38
44.484,-114.99
44.500,-105.12
44.515,-94.01
44.531,-83.05
44.546,-73.49
44.562,-66.21
44.578,-61.7
44.593,-59.91
44.609,-60.02
44.625,-59.99
44.640,-56.65
44.656,-46.23
44.671,-25.64
44.687,6.18
44.703,47.43
44.718,93.72
44.734,139.34
44.750,179.05
44.765,209.15
44.781,227.94
44.796,235.29
44.812,231.83
44.828,218.64
44.843,197.2
44.859,169.72
44.875,139.09
44.890,108.51
44.906,80.75
44.921,57.45
44.937,38.9
44.953,24.25
44.968,12.17
44.984,1.55
45.000,-8.11
45.015,-16.76
45.031,-24.04
45.046,-29.73
45.062,-34.0
45.078,-37.37
45.093,-40.46
45.109,-43.78
45.125,-47.44
45.140,-51.16
45.156,-54.5
45.171,-56.89
45.187,-57.94
45.203,-57.6
45.218,-56.01
45.234,-53.61
45.250,-50.87
45.265,-48.25
45.281,-46.03
45.296,-44.26
45.312,-42.84
45.328,-41.57
45.343,-40.35
45.359,-39.24
45.375,-38.33
45.390,-37.77
45.406,-37.59
45.421,-37.65
45.437,-37.71
45.453,-37.54
45.468,-36.97
45.484,-35.98
45.500,-34.6
45.515,-32.8
45.531,-30.64
45.546,-28.19
45.562,-25.56
45.578,-22.89
45.593,-20.31
45.609,-17.9
45.625,-15.71
45.640,-13.69
45.656,-11.7
45.671,-9.59
45.687,-7.11
45.703,-4.1
45.718,-0.57
45.734,3.3
45.750,7.17
45.765,10.68
45.781,13.59
45.796,15.95
45.812,17.92
45.828,19.75
45.843,21.57
45.859,23.28
45.875,24.7
45.890,25.7
45.906,26.21
45.921,26.27
45.937,25.97
45.953,25.38
45.968,24.6
45.984,23.71
46.000,22.73
46.015,21.63
46.031,20.41
46.046,19.09
46.062,17.71
46.078,16.44
46.093,15.41
46.109,14.68
46.125,14.22
46.140,13.82
46.156,13.32
46.171,12.64
46.187,11.89
46.203,11.21
46.218,10.73
46.234,10.4
46.250,10.03
46.265,9.41
46.281,8.39
46.296,6.9
46.312,4.99
46.328,2.69
46.343,0.07
46.359,-2.82
46.375,-5.9
46.390,-8.99
46.406,-11.85
46.421,-14.17
46.437,-15.69
46.453,-16.27
46.468,-15.89
46.484,-14.56
46.500,-12.37
46.515,-9.4
46.531,-5.83
46.546,-1.91
46.562,2.04
46.578,5.7
46.593,8.83
46.609,11.36
46.625,13.23
46.640,14.54
46.656,15.33
46.671,15.69
46.687,15.72
46.703,15.59
46.718,15.44
46.734,15.42
46.750,15.57
46.765,15.79
46.781,15.92
46.796,15.73
46.812,15.04
46.828,13.78
46.843,11.98
46.859,9.72
46.875,7.19
46.890,4.65
46.906,2.28
46.921,0.16
46.937,-1.77
46.953,-3.59
46.968,-5.37
46.984,-7.1
47.000,-8.7
47.015,-9.99
47.031,-10.76
47.046,-10.86
47.062,-10.22
47.078,-8.84
47.093,-6.88
47.109,-4.58
47.125,-2.31
47.140,-0.48
47.156,0.53
47.171,0.5
47.187,-0.67
47.203,-2.87
47.218,-5.74
47.234,-8.82
47.250,-11.62
47.265,-13.71
47.281,-14.81
47.296,-14.95
47.312,-14.32
47.328,-13.22
47.343,-11.86
47.359,-10.3
47.375,-8.41
47.390,-6.04
47.406,-3.11
47.421,0.29
47.437,3.91
47.453,7.4
47.468,10.41
47.484,12.73
47.500,14.17
47.515,14.73
47.531,14.55
47.546,13.85
47.562,13.04
47.578,12.51
47.593,12.58
47.609,13.33
47.625,14.57
47.640,15.8
47.656,16.54
47.671,16.41
47.687,15.38
47.703,13.83
47.718,12.38
47.734,11.83
47.750,12.66
47.765,14.94
47.781,18.27
47.796,21.85
47.812,24.77
47.828,26.38
47.843,26.42
47.859,25.05
47.875,22.8
47.890,20.22
47.906,17.62
47.921,15.04
47.937,12.42
47.953,9.67
47.968,6.81
47.984,4.19
48.000,2.27
48.015,1.82
48.031,3.7
48.046,8.61
48.062,17.22
48.078,30.06
48.093,47.02
48.109,67.12
48.125,88.55
48.140,109.17
48.156,127.6
48.171,143.58
48.187,157.9
48.203,171.15
48.218,182.46
48.234,188.78
48.250,185.95
48.265,170.62
48.281,142.15
48.296,103.18
48.312,58.4
48.328,12.52
48.343,-31.4
48.359,-72.49
48.375,-111.18
48.390,-147.41
48.406,-180.01
48.421,-206.73
48.437,-225.05
48.453,-233.13
48.468,-230.32
48.484,-217.01
48.500,-194.71
48.515,-166.3
48.531,-135.71
48.546,-107.68
48.562,-86.86
48.578,-76.47
48.593,-77.39
48.609,-88.13
48.625,-105.28
48.640,-124.43
48.656,-141.25
48.671,-152.16
48.687,-154.82
48.703,-148.73
48.718,-135.26
48.734,-117.63
48.750,-100.19
48.765,-87.06
48.781,-80.71
48.796,-81.03
48.812,-85.39
48.828,-89.53
48.843,-88.83
48.859,-79.16
48.875,-57.6
48.890,-22.69
48.906,25.22
48.921,83.41
48.937,146.54
48.953,206.94
48.968,255.96
48.984,286.01
49.000,292.9
49.015,277.09
49.031,243.26
49.046,198.43
49.062,149.45
49.078,100.86
49.093,54.5
49.109,10.9
49.125,-28.85
49.140,-61.81
49.156,-83.81
49.171,-91.67
49.187,-85.69
49.203,-70.54
49.218,-53.68
49.234,-42.15
49.250,-39.59
49.265,-45.17
49.281,-54.62
49.296,-63.15
49.312,-67.81
49.328,-68.32
49.343,-66.14
49.359,-62.56
49.375,-57.33
49.390,-48.62
49.406,-34.22
49.421,-12.92
49.437,14.48
49.453,45.27
49.468,75.73
49.484,102.42
49.500,123.22
49.515,137.64
49.531,146.52
49.546,150.95
49.562,151.63
49.578,148.42
49.593,140.72
49.609,128.22
49.625,111.79
49.640,93.72
49.656,77.17
49.671,65.08
49.687,59.06
49.703,58.86
49.718,62.57
49.734,67.67
49.750,71.98
49.765,74.16
49.781,73.8
49.796,70.92
49.812,65.57
49.828,57.96
49.843,48.86
49.859,39.92
49.875,33.31
49.890,30.92
49.906,33.06
49.921,38.06
49.937,42.63
49.953,43.37
49.968,38.4
49.984,27.96
50.000,13.93
50.015,-1.67
50.031,-17.92
50.046,-35.36
50.062,-55.22
50.078,-78.36
50.093,-104.35
50.109,-131.69
50.125,-158.54
50.140,-183.57
50.156,-206.09
50.171,-225.56
50.187,-240.94
50.203,-250.43
50.218,-251.95
50.234,-244.13
50.250,-227.25
50.265,-203.55
50.281,-176.68
50.296,-150.58
50.312,-128.02
50.328,-109.81
50.343,-94.91
50.359,-81.06
50.375,-66.11
50.390,-48.98
50.406,-29.97
50.421,-10.52
50.437,7.81
50.453,24.13
50.468,38.66
50.484,52.41
50.500,66.53
50.515,81.7
50.531,97.79
50.546,114.04
50.562,129.46
50.578,143.29
50.593,155.16
50.609,165.01
50.625,172.84
50.640,178.46
50.656,181.47
50.671,181.37
50.687,177.96
50.703,171.42
50.718,162.34
50.734,151.68
50.750,140.27
50.765,128.62
50.781,116.65
50.796,103.73
50.812,88.94
50.828,71.68
50.843,52.01
50.859,30.67
50.875,9.04
50.890,-11.3
50.906,-28.81
50.921,-42.37
50.937,-51.31
50.953,-55.5
50.968,-55.16
50.984,-50.75
51.000,-42.89
51.015,-32.28
51.031,-19.65
51.046,-5.78
51.062,8.32
51.078,21.48
51.093,32.46
51.109,40.2
51.125,44.08
51.140,43.99
51.156,40.25
51.171,33.2
51.187,23.13
51.203,10.4
51.218,-4.34
51.234,-19.81
51.250,-34.2
51.265,-45.65
51.281,-52.9
51.296,-55.71
51.312,-54.82
51.328,-51.53
51.343,-47.09
51.359,-42.34
51.375,-37.61
51.390,-33.0
51.406,-28.65
51.421,-24.88
51.437,-22.01
51.453,-20.37
51.468,-19.97
51.484,-20.67
51.500,-22.2
51.515,-24.25
51.531,-26.52
51.546,-28.61
51.562,-30.05
51.578,-30.31
51.593,-28.97
51.609,-25.75
51.625,-20.66
51.640,-14.05
51.656,-6.58
51.671,0.92
51.687,7.66
51.703,13.15
51.718,17.39
51.734,20.58
51.750,23.02
51.765,24.72
51.781,25.28
51.796,24.17
51.812,21.04
51.828,16.13
51.843,10.38
51.859,5.12
51.875,1.52
51.890,0.21
51.906,1.11
51.921,3.61
51.937,7.07
51.953,11.04
51.968,15.28
51.984,19.66
52.000,23.82
52.015,27.09
52.031,28.68
52.046,27.94
52.062,24.63
52.078,19.14
52.093,12.25
52.109,4.82
52.125,-2.35
52.140,-8.65
52.156,-13.71
52.171,-17.28
52.187,-19.31
52.203,-19.96
52.218,-19.58
52.234,-18.69
52.250,-17.81
52.265,-17.39
52.281,-17.78
52.296,-19.31
52.312,-22.15
52.328,-26.4
52.343,-31.94
52.359,-38.34
52.375,-44.92
52.390,-50.78
52.406,-55.03
52.421,-56.9
52.437,-55.91
52.453,-51.88
52.468,-44.98
52.484,-35.69
52.500,-24.84
52.515,-13.48
52.531,-2.75
52.546,6.33
52.562,13.09
52.578,17.34
52.593,19.36
52.609,19.76
52.625,19.18
52.640,18.26
52.656,17.39
52.671,16.83
52.687,16.65
52.703,16.82
52.718,17.3
52.734,18.02
52.750,18.89
52.765,19.82
52.781,20.65
52.796,21.15
52.812,21.08
52.828,20.14
52.843,18.05
52.859,14.63
52.875,9.75
52.890,3.3
52.906,-4.68
52.921,-14.04
52.937,-24.36
52.953,-34.93
52.968,-44.82
52.984,-53.01
53.000,-58.56
53.015,-60.79
53.031,-59.45
53.046,-54.8
53.062,-47.62
53.078,-38.9
53.093,-29.62
53.109,-20.39
53.125,-11.39
53.140,-2.44
53.156,6.69
53.171,15.97
53.187,24.99
53.203,32.96
53.218,39.11
53.234,42.97
53.250,44.6
53.265,44.41
53.281,42.88
53.296,40.27
53.312,36.46
53.328,31.05
53.343,23.52
53.359,13.56
53.375,1.37
53.390,-12.27
53.406,-25.92
53.421,-37.67
53.437,-45.41
53.453,-47.33
53.468,-42.36
53.484,-30.5
53.500,-13.07
53.515,7.49
53.531,28.12
53.546,45.86
53.562,58.63
53.578,65.79
53.593,68.05
53.609,67.03
53.625,64.28
53.640,60.29
53.656,54.26
53.671,44.59
53.687,30.12
53.703,11.25
53.718,-9.66
53.734,-28.82
53.750,-42.37
53.765,-47.81
53.781,-44.84
53.796,-35.06
53.812,-21.06
53.828,-5.18
53.843,11.07
53.859,26.95
53.875,41.89
53.890,54.94
53.906,64.68
53.921,69.58
53.937,68.74
53.953,62.19
53.968,51.04
53.984,37.14
54.000,22.47
54.015,8.5
54.031,-4.14
54.046,-15.84
54.062,-27.65
54.078,-40.77
54.093,-56.02
54.109,-73.31
54.125,-91.72
54.140,-109.77
54.156,-125.99
54.171,-139.39
54.187,-149.51
54.203,-156.21
54.218,-159.39
54.234,-158.74
54.250,-153.85
54.265,-144.52
54.281,-131.2
54.296,-115.06
54.312,-97.82
54.328,-81.34
54.343,-66.87
54.359,-54.77
54.375,-44.37
54.390,-34.33
54.406,-23.26
54.421,-10.29
54.437,4.63
54.453,20.83
54.468,37.27
54.484,53.06
54.500,67.74
54.515,81.2
54.531,93.5
54.546,104.41
54.562,113.47
54.578,120.06
54.593,123.72
54.609,124.28
54.625,121.93
54.640,116.88
54.656,109.14
54.671,98.59
54.687,85.08
54.703,68.91
54.718,51.04
54.734,32.87
54.750,15.89
54.765,1.17
54.781,-11.06
54.796,-21.32
54.812,-30.33
54.828,-38.52
54.843,-45.47
54.859,-50.06
54.875,-50.9
54.890,-47.13
54.906,-38.93
54.921,-27.65
54.937,-15.21
54.953,-3.43
54.968,6.75
54.984,15.38
55.000,23.38
55.015,31.69
55.031,40.62
55.046,49.41
55.062,56.51
55.078,60.45
55.093,60.69
55.109,58.19
55.125,55.03
55.140,53.53
55.156,55.08
55.171,59.47
55.187,64.99
55.203,69.38
55.218,71.06
55.234,69.91
55.250,67.1
55.265,64.27
55.281,62.32
55.296,60.79
55.312,58.03
55.328,52.16
55.343,42.07
55.359,27.81
55.375,10.32
55.390,-9.41
55.406,-31.14
55.421,-55.49
55.437,-83.29
55.453,-114.79
55.468,-148.92
55.484,-183.61
55.500,-216.49
55.515,-245.7
55.531,-270.15
55.546,-289.16
55.562,-301.83
55.578,-306.77
55.593,-302.51
55.609,-288.1
55.625,-263.98
55.640,-232.01
55.656,-195.08
55.671,-156.13
55.687,-117.36
55.703,-79.73
55.718,-43.19
55.734,-7.3
55.750,28.12
55.765,62.55
55.781,94.69
55.796,122.89
55.812,145.6
55.828,161.93
55.843,171.9
55.859,176.4
55.875,176.57
55.890,173.46
55.906,167.74
55.921,159.57
55.937,149.1
55.953,136.7
55.968,123.14
55.984,109.49
56.000,96.89
56.015,86.02
56.031,76.91
56.046,69.11
56.062,61.94
56.078,55.08
56.093,48.81
56.109,44.04
56.125,41.82
56.140,42.83
56.156,46.91
56.171,53.07
56.187,59.88
56.203,66.05
56.218,71.02
56.234,75.07
56.250,79.08
56.265,84.02
56.281,90.52
56.296,98.58
56.312,107.67
56.328,117.02
56.343,125.91
56.359,133.98
56.375,141.19
56.390,147.62
56.406,153.21
56.421,157.54
56.437,159.68
56.453,158.58
56.468,153.3
56.484,143.5
56.500,129.67
56.515,113.15
56.531,95.64
56.546,79.01
56.562,64.79
56.578,53.62
56.593,44.9
56.609,36.43
56.625,24.68
56.640,5.9
56.656,-22.43
56.671,-60.4
56.687,-105.25
56.703,-152.29
56.718,-196.51
56.734,-234.04
56.750,-263.19
56.765,-284.27
56.781,-298.83
56.796,-308.72
56.812,-315.22
56.828,-318.52
56.843,-317.29
56.859,-308.87
56.875,-289.84
56.890,-257.59
56.906,-211.94
56.921,-156.09
56.937,-96.1
56.953,-38.8
56.968,10.49
56.984,49.51
57.000,78.69
57.015,99.8
57.031,114.14
57.046,121.78
57.062,122.04
57.078,114.73
57.093,101.27
57.109,84.61
57.125,68.25
57.140,54.75
57.156,45.07
57.171,38.47
57.187,33.47
57.203,28.71
57.218,23.52
57.234,18.07
57.250,12.88
57.265,8.38
57.281,4.35
57.296,0.01
57.312,-5.82
57.328,-13.99
57.343,-24.48
57.359,-36.13
57.375,-46.76
57.390,-53.9
57.406,-55.59
57.421,-51.09
57.437,-41.31
57.453,-28.56
57.468,-15.74
57.484,-5.32
57.500,1.3
57.515,4.17
57.531,4.34
57.546,3.09
57.562,1.07
57.578,-1.97
57.593,-6.77
57.609,-13.78
57.625,-22.45
57.640,-31.1
57.656,-37.51
57.671,-39.9
57.687,-37.55
57.703,-31.04
57.718,-21.73
57.734,-10.92
57.750,0.54
57.765,12.35
57.781,24.3
57.796,35.91
57.812,46.37
57.828,54.81
57.843,60.94
57.859,65.25
57.875,68.96
57.890,73.43
57.906,79.53
57.921,87.28
57.937,95.93
57.953,104.24
57.968,110.95
57.984,115.5
58.000,118.06
58.015,119.56
58.031,121.17
58.046,123.77
58.062,127.46
58.078,131.49
58.093,134.4
58.109,134.34
58.125,129.57
58.140,118.83
58.156,101.53
58.171,77.98
58.187,49.24
58.203,17.08
58.218,-16.27
58.234,-48.43
58.250,-77.04
58.265,-100.07
58.281,-115.78
58.296,-123.13
58.312,-121.74
58.328,-112.45
58.343,-97.1
58.359,-78.44
58.375,-59.46
58.390,-42.63
58.406,-29.46
58.421,-20.34
58.437,-14.93
58.453,-12.6
58.468,-12.98
58.484,-15.97
58.500,-21.52
58.515,-29.38
58.531,-39.08
58.546,-50.05
58.562,-61.84
58.578,-74.39
58.593,-87.79
58.609,-102.17
58.625,-117.59
58.640,-133.9
58.656,-150.87
58.671,-168.09
58.687,-185.03
58.703,-200.83
58.718,-214.52
58.734,-225.11
58.750,-231.94
58.765,-234.88
58.781,-234.15
58.796,-230.04
58.812,-222.58
58.828,-211.48
58.843,-196.21
58.859,-176.45
58.875,-152.36
58.890,-124.67
58.906,-94.73
58.921,-64.07
58.937,-34.21
58.953,-6.29
58.968,18.82
58.984,40.75
59.000,59.39
59.015,74.96
59.031,87.75
59.046,97.89
59.062,105.44
59.078,110.37
59.093,112.88
59.109,113.55
59.125,113.2
59.140,112.65
59.156,112.37
59.171,112.33
59.187,112.0
59.203,110.65
59.218,107.72
59.234,103.09
59.250,97.05
59.265,89.91
59.281,81.77
59.296,72.37
59.312,61.45
59.328,48.97
59.343,35.45
59.359,21.83
59.375,9.17
59.390,-1.57
59.406,-10.01
59.421,-16.24
59.437,-20.66
59.453,-23.63
59.468,-25.37
59.484,-25.93
59.500,-25.32
59.515,-23.82
59.531,-21.87
59.546,-19.98
59.562,-18.56
59.578,-17.75
59.593,-17.35
59.609,-17.1
59.625,-16.79
59.640,-16.3
59.656,-15.71
59.671,-15.11
59.687,-14.53
59.703,-13.88
59.718,-12.92
59.734,-11.3
59.750,-8.73
59.765,-5.18
59.781,-0.99
59.796,3.09
59.812,6.17
59.828,7.66
59.843,7.38
59.859,5.9
59.875,4.2
59.890,3.36
59.906,4.1
59.921,6.6
59.937,10.7
59.953,16.0
59.968,22.34
59.984,29.59
