timestamp,value
00.000,10.19
00.015,10.2
00.031,9.68
00.046,8.42
00.062,6.29
00.078,3.6
00.093,0.65
00.109,-2.08
00.125,-4.22
00.140,-5.67
00.156,-6.54
00.171,-7.16
00.187,-7.83
00.203,-8.76
00.218,-9.84
00.234,-10.99
00.250,-11.97
00.265,-12.6
00.281,-13.0
00.296,-13.34
00.312,-13.94
00.328,-14.98
00.343,-16.59
00.359,-18.62
00.375,-20.84
00.390,-22.91
00.406,-24.42
00.421,-25.17
00.437,-25.0
00.453,-23.97
00.468,-22.21
00.484,-20.06
00.500,-17.82
00.515,-15.78
00.531,-14.18
00.546,-13.11
00.562,-12.64
00.578,-12.66
00.593,-13.04
00.609,-13.62
00.625,-14.21
00.640,-14.54
00.656,-14.33
00.671,-13.23
00.687,-10.91
00.703,-7.25
00.718,-2.24
00.734,3.78
00.750,10.28
00.765,16.61
00.781,22.17
00.796,26.53
00.812,29.55
00.828,31.5
00.843,32.66
00.859,33.36
00.875,33.66
00.890,33.56
00.906,32.93
00.921,31.7
00.937,29.91
00.953,27.7
00.968,25.36
00.984,23.13
01.000,21.13
01.015,19.32
01.031,17.49
01.046,15.34
01.062,12.67
01.078,9.26
01.093,5.1
01.109,0.32
01.125,-4.88
01.140,-10.17
01.156,-15.22
01.171,-19.8
01.187,-23.55
01.203,-26.2
01.218,-27.57
01.234,-27.68
01.250,-26.64
01.265,-24.76
01.281,-22.3
01.296,-19.56
01.312,-16.91
01.328,-14.63
01.343,-13.0
01.359,-12.08
01.375,-11.84
01.390,-11.86
01.406,-11.51
01.421,-10.02
01.437,-6.75
01.453,-1.47
01.468,5.65
01.484,13.98
01.500,22.64
01.515,30.63
01.531,37.08
01.546,41.31
01.562,42.93
01.578,41.83
01.593,38.15
01.609,32.18
01.625,24.49
01.640,15.7
01.656,6.63
01.671,-2.0
01.687,-9.57
01.703,-15.73
01.718,-20.33
01.734,-23.34
01.750,-24.87
01.765,-25.07
01.781,-24.11
01.796,-22.36
01.812,-20.24
01.828,-18.24
01.843,-16.75
01.859,-15.97
01.875,-15.92
01.890,-16.41
01.906,-17.31
01.921,-18.5
01.937,-19.96
01.953,-21.78
01.968,-24.02
01.984,-26.59
02.000,-29.2
02.015,-31.47
02.031,-32.99
02.046,-33.45
02.062,-32.76
02.078,-31.02
02.093,-28.39
02.109,-25.1
02.125,-21.21
02.140,-16.79
02.156,-11.84
02.171,-6.48
02.187,-0.81
02.203,5.14
02.218,11.17
02.234,17.2
02.250,23.05
02.265,28.52
02.281,33.4
02.296,37.6
02.312,41.03
02.328,43.56
02.343,45.04
02.359,45.14
02.375,43.53
02.390,40.07
02.406,34.85
02.421,28.21
02.437,20.62
02.453,12.63
02.468,4.58
02.484,-3.13
02.500,-10.38
02.515,-16.93
02.531,-22.66
02.546,-27.58
02.562,-31.69
02.578,-35.0
02.593,-37.48
02.609,-39.02
02.625,-39.49
02.640,-38.87
02.656,-37.26
02.671,-35.03
02.687,-32.78
02.703,-30.99
02.718,-29.92
02.734,-29.64
02.750,-29.86
02.765,-30.11
02.781,-29.99
02.796,-29.12
02.812,-27.36
02.828,-24.83
02.843,-21.65
02.859,-17.99
02.875,-14.13
02.890,-10.27
02.906,-6.64
02.921,-3.48
02.937,-0.93
02.953,1.02
02.968,2.43
02.984,3.6
03.000,4.76
03.015,6.11
03.031,7.73
03.046,9.5
03.062,11.18
03.078,12.53
03.093,13.42
03.109,13.95
03.125,14.34
03.140,14.84
03.156,15.55
03.171,16.39
03.187,17.09
03.203,17.37
03.218,17.07
03.234,16.07
03.250,14.51
03.265,12.5
03.281,10.24
03.296,8.04
03.312,6.21
03.328,5.0
03.343,4.49
03.359,4.63
03.375,5.09
03.390,5.51
03.406,5.62
03.421,5.26
03.437,4.5
03.453,3.47
03.468,2.27
03.484,0.93
03.500,-0.52
03.515,-2.15
03.531,-3.89
03.546,-5.61
03.562,-7.1
03.578,-8.1
03.593,-8.38
03.609,-7.79
03.625,-6.38
03.640,-4.35
03.656,-2.04
03.671,0.23
03.687,2.17
03.703,3.62
03.718,4.64
03.734,5.36
03.750,6.01
03.765,6.7
03.781,7.44
03.796,8.19
03.812,8.85
03.828,9.31
03.843,9.44
03.859,9.23
03.875,8.77
03.890,8.2
03.906,7.78
03.921,7.63
03.937,7.84
03.953,8.33
03.968,8.96
03.984,9.49
04.000,9.77
04.015,9.77
04.031,9.5
04.046,9.15
04.062,8.89
04.078,8.77
04.093,8.85
04.109,9.06
04.125,9.24
04.140,9.12
04.156,8.53
04.171,7.31
04.187,5.51
04.203,3.33
04.218,0.96
04.234,-1.35
04.250,-3.51
04.265,-5.49
04.281,-7.37
04.296,-9.11
04.312,-10.66
04.328,-11.84
04.343,-12.36
04.359,-12.15
04.375,-11.13
04.390,-9.42
04.406,-7.19
04.421,-4.66
04.437,-2.1
04.453,0.21
04.468,2.01
04.484,3.16
04.500,3.68
04.515,3.97
04.531,4.43
04.546,5.52
04.562,7.5
04.578,10.15
04.593,12.95
04.609,15.26
04.625,16.44
04.640,16.01
04.656,13.88
04.671,10.17
04.687,5.29
04.703,-0.05
04.718,-5.13
04.734,-9.16
04.750,-11.55
04.765,-11.98
04.781,-10.42
04.796,-7.09
04.812,-2.4
04.828,3.06
04.843,8.77
04.859,14.07
04.875,18.28
04.890,20.85
04.906,21.45
04.921,20.04
04.937,16.89
04.953,12.5
04.968,7.37
04.984,1.88
05.000,-3.73
05.015,-9.27
05.031,-14.51
05.046,-19.16
05.062,-22.86
05.078,-25.35
05.093,-26.5
05.109,-26.47
05.125,-25.52
05.140,-23.94
05.156,-21.92
05.171,-19.48
05.187,-16.6
05.203,-13.27
05.218,-9.56
05.234,-5.57
05.250,-1.52
05.265,2.35
05.281,5.83
05.296,8.7
05.312,10.86
05.328,12.3
05.343,13.04
05.359,13.07
05.375,12.51
05.390,11.45
05.406,10.11
05.421,8.75
05.437,7.63
05.453,6.92
05.468,6.74
05.484,6.94
05.500,7.37
05.515,7.91
05.531,8.52
05.546,9.28
05.562,10.24
05.578,11.4
05.593,12.65
05.609,13.84
05.625,14.7
05.640,14.99
05.656,14.54
05.671,13.3
05.687,11.39
05.703,9.05
05.718,6.44
05.734,3.67
05.750,0.78
05.765,-2.24
05.781,-5.29
05.796,-8.17
05.812,-10.7
05.828,-12.62
05.843,-13.88
05.859,-14.64
05.875,-15.17
05.890,-15.64
05.906,-16.02
05.921,-15.96
05.937,-15.17
05.953,-13.49
05.968,-11.06
05.984,-8.26
06.000,-5.49
06.015,-2.97
06.031,-0.64
06.046,1.72
06.062,4.3
06.078,7.07
06.093,9.74
06.109,11.95
06.125,13.29
06.140,13.56
06.156,12.83
06.171,11.31
06.187,9.42
06.203,7.58
06.218,6.12
06.234,5.14
06.250,4.65
06.265,4.46
06.281,4.38
06.296,4.33
06.312,4.23
06.328,4.04
06.343,3.83
06.359,3.6
06.375,3.26
06.390,2.86
06.406,2.39
06.421,2.05
06.437,2.07
06.453,2.68
06.468,3.97
06.484,5.76
06.500,7.69
06.515,9.29
06.531,10.27
06.546,10.44
06.562,9.89
06.578,8.79
06.593,7.29
06.609,5.53
06.625,3.61
06.640,1.59
06.656,-0.36
06.671,-2.1
06.687,-3.63
06.703,-5.0
06.718,-6.26
06.734,-7.59
06.750,-8.92
06.765,-9.96
06.781,-10.38
06.796,-9.83
06.812,-8.18
06.828,-5.64
06.843,-2.61
06.859,0.48
06.875,3.05
06.890,4.79
06.906,5.63
06.921,5.75
06.937,5.52
06.953,5.39
06.968,5.64
06.984,6.4
07.000,7.56
07.015,8.79
07.031,9.85
07.046,10.62
07.062,11.14
07.078,11.57
07.093,11.99
07.109,12.45
07.125,12.82
07.140,12.97
07.156,12.79
07.171,12.26
07.187,11.59
07.203,10.89
07.218,10.44
07.234,10.31
07.250,10.49
07.265,10.83
07.281,11.24
07.296,11.68
07.312,12.09
07.328,12.51
07.343,12.84
07.359,13.0
07.375,12.87
07.390,12.32
07.406,11.32
07.421,9.9
07.437,8.15
07.453,6.07
07.468,3.73
07.484,1.12
07.500,-1.62
07.515,-4.32
07.531,-6.76
07.546,-8.7
07.562,-10.02
07.578,-10.64
07.593,-10.68
07.609,-10.22
07.625,-9.58
07.640,-9.0
07.656,-8.73
07.671,-8.85
07.687,-9.21
07.703,-9.51
07.718,-9.31
07.734,-8.4
07.750,-6.66
07.765,-4.43
07.781,-2.2
07.796,-0.4
07.812,0.56
07.828,0.69
07.843,0.2
07.859,-0.43
07.875,-0.83
07.890,-0.75
07.906,-0.26
07.921,0.4
07.937,0.97
07.953,1.2
07.968,1.13
07.984,0.79
08.000,0.31
08.015,-0.32
08.031,-1.18
08.046,-2.4
08.062,-3.96
08.078,-5.64
08.093,-7.2
08.109,-8.36
08.125,-9.13
08.140,-9.68
08.156,-10.3
08.171,-11.23
08.187,-12.44
08.203,-13.74
08.218,-14.76
08.234,-15.32
08.250,-15.4
08.265,-15.19
08.281,-14.95
08.296,-14.83
08.312,-14.74
08.328,-14.45
08.343,-13.64
08.359,-12.13
08.375,-9.9
08.390,-7.09
08.406,-3.96
08.421,-0.79
08.437,2.16
08.453,4.68
08.468,6.64
08.484,8.0
08.500,8.76
08.515,8.99
08.531,8.8
08.546,8.36
08.562,7.83
08.578,7.44
08.593,7.37
08.609,7.74
08.625,8.57
08.640,9.78
08.656,11.22
08.671,12.72
08.687,14.06
08.703,15.07
08.718,15.65
08.734,15.81
08.750,15.55
08.765,14.9
08.781,13.93
08.796,12.68
08.812,11.21
08.828,9.63
08.843,8.01
08.859,6.34
08.875,4.63
08.890,2.82
08.906,0.87
08.921,-1.2
08.937,-3.44
08.953,-5.79
08.968,-8.25
08.984,-10.8
09.000,-13.38
09.015,-15.86
09.031,-18.06
09.046,-19.83
09.062,-21.03
09.078,-21.67
09.093,-21.77
09.109,-21.27
09.125,-20.12
09.140,-18.2
09.156,-15.49
09.171,-12.01
09.187,-7.86
09.203,-3.23
09.218,1.68
09.234,6.59
09.250,11.31
09.265,15.63
09.281,19.53
09.296,22.95
09.312,25.84
09.328,28.08
09.343,29.57
09.359,30.11
09.375,29.64
09.390,28.17
09.406,25.89
09.421,23.17
09.437,20.28
09.453,17.4
09.468,14.55
09.484,11.69
09.500,8.67
09.515,5.35
09.531,1.62
09.546,-2.59
09.562,-7.25
09.578,-12.16
09.593,-17.06
09.609,-21.67
09.625,-25.72
09.640,-28.98
09.656,-31.32
09.671,-32.65
09.687,-33.03
09.703,-32.59
09.718,-31.54
09.734,-30.06
09.750,-28.3
09.765,-26.28
09.781,-23.85
09.796,-20.86
09.812,-17.3
09.828,-13.29
09.843,-9.08
09.859,-5.11
09.875,-1.6
09.890,1.19
09.906,3.15
09.921,4.36
09.937,5.1
09.953,5.67
09.968,6.45
09.984,7.77
10.000,9.79
10.015,12.52
10.031,15.69
10.046,19.02
10.062,22.12
10.078,24.67
10.093,26.45
10.109,27.36
10.125,27.44
10.140,26.87
10.156,25.91
10.171,24.75
10.187,23.5
10.203,22.11
10.218,20.39
10.234,18.12
10.250,15.17
10.265,11.5
10.281,7.43
10.296,3.37
10.312,-0.21
10.328,-2.84
10.343,-4.29
10.359,-4.69
10.375,-4.32
10.390,-3.66
10.406,-3.17
10.421,-3.17
10.437,-3.74
10.453,-4.81
10.468,-6.16
10.484,-7.49
10.500,-8.65
10.515,-9.46
10.531,-9.96
10.546,-10.25
10.562,-10.38
10.578,-10.32
10.593,-9.89
10.609,-8.68
10.625,-6.32
10.640,-2.48
10.656,3.0
10.671,9.85
10.687,17.4
10.703,24.63
10.718,30.32
10.734,33.32
10.750,32.87
10.765,28.68
10.781,21.03
10.796,10.72
10.812,-1.29
10.828,-13.91
10.843,-25.97
10.859,-36.34
10.875,-43.83
10.890,-47.59
10.906,-47.02
10.921,-42.04
10.937,-33.02
10.953,-20.75
10.968,-6.31
10.984,9.09
11.000,24.03
11.015,37.12
11.031,46.87
11.046,52.15
11.062,52.34
11.078,47.58
11.093,38.53
11.109,26.39
11.125,12.57
11.140,-1.51
11.156,-14.54
11.171,-25.31
11.187,-32.89
11.203,-36.72
11.218,-36.84
11.234,-33.87
11.250,-28.81
11.265,-22.79
11.281,-16.77
11.296,-11.44
11.312,-7.09
11.328,-3.88
11.343,-1.94
11.359,-1.41
11.375,-2.25
11.390,-4.14
11.406,-6.54
11.421,-8.73
11.437,-10.08
11.453,-10.22
11.468,-9.19
11.484,-7.43
11.500,-5.51
11.515,-4.03
11.531,-3.31
11.546,-3.54
11.562,-4.69
11.578,-6.5
11.593,-8.62
11.609,-10.67
11.625,-12.32
11.640,-13.21
11.656,-13.21
11.671,-12.24
11.687,-10.4
11.703,-7.81
11.718,-4.61
11.734,-1.0
11.750,2.94
11.765,6.99
11.781,11.0
11.796,14.84
11.812,18.28
11.828,21.14
11.843,23.21
11.859,24.32
11.875,24.27
11.890,23.12
11.906,20.97
11.921,18.19
11.937,15.29
11.953,12.78
11.968,10.93
11.984,9.68
12.000,8.77
12.015,7.64
12.031,6.05
12.046,3.93
12.062,1.62
12.078,-0.38
12.093,-1.59
12.109,-1.78
12.125,-1.1
12.140,0.07
12.156,1.23
12.171,2.11
12.187,2.56
12.203,2.66
12.218,2.57
12.234,2.26
12.250,1.8
12.265,1.08
12.281,0.09
12.296,-1.1
12.312,-2.37
12.328,-3.78
12.343,-5.33
12.359,-7.05
12.375,-8.84
12.390,-10.35
12.406,-11.16
12.421,-10.94
12.437,-9.51
12.453,-7.05
12.468,-4.02
12.484,-0.92
12.500,1.8
12.515,3.81
12.531,5.08
12.546,5.65
12.562,5.71
12.578,5.49
12.593,5.2
12.609,4.9
12.625,4.68
12.640,4.44
12.656,4.03
12.671,3.48
12.687,2.8
12.703,2.21
12.718,1.94
12.734,2.17
12.750,2.9
12.765,3.97
12.781,5.09
12.796,5.93
12.812,6.4
12.828,6.4
12.843,5.98
12.859,5.14
12.875,3.87
12.890,2.24
12.906,0.41
12.921,-1.42
12.937,-3.03
12.953,-4.28
12.968,-5.3
12.984,-6.32
13.000,-7.54
13.015,-9.1
13.031,-10.94
13.046,-12.91
13.062,-14.88
13.078,-16.77
13.093,-18.44
13.109,-19.76
13.125,-20.43
13.140,-20.11
13.156,-18.58
13.171,-15.73
13.187,-11.74
13.203,-6.96
13.218,-1.87
13.234,3.08
13.250,7.43
13.265,10.82
13.281,12.91
13.296,13.4
13.312,12.05
13.328,8.87
13.343,4.29
13.359,-0.96
13.375,-5.86
13.390,-9.45
13.406,-11.0
13.421,-10.29
13.437,-7.56
13.453,-3.47
13.468,1.16
13.484,5.55
13.500,9.02
13.515,11.13
13.531,11.78
13.546,11.14
13.562,9.52
13.578,7.35
13.593,4.92
13.609,2.42
13.640,-2.26
13.656,-4.28
13.671,-5.88
13.687,-6.94
13.703,-7.3
13.718,-6.84
13.734,-5.57
13.750,-3.6
13.765,-1.14
13.781,1.51
13.796,4.06
13.812,6.34
13.828,8.18
13.843,9.53
13.859,10.4
13.875,10.7
13.890,10.3
13.906,9.03
13.921,6.71
13.937,3.2
13.953,-1.42
13.968,-6.94
13.984,-12.88
14.000,-18.47
14.015,-22.98
14.031,-25.76
14.046,-26.37
14.062,-24.76
14.078,-21.17
14.093,-16.06
14.109,-10.21
14.125,-4.5
14.140,0.32
14.156,3.58
14.171,5.0
14.187,4.86
14.203,3.77
14.218,2.56
14.234,1.88
14.250,1.96
14.265,2.57
14.281,3.26
14.296,3.61
14.312,3.39
14.328,2.78
14.343,2.09
14.359,1.58
14.375,1.25
14.390,0.81
14.406,-0.2
14.421,-1.99
14.437,-4.51
14.453,-7.29
14.468,-9.65
14.484,-10.93
14.500,-10.79
14.515,-9.34
14.531,-7.0
14.546,-4.32
14.562,-1.78
14.578,0.37
14.593,2.01
14.609,3.1
14.625,3.52
14.640,3.16
14.656,2.0
14.671,0.07
14.687,-2.39
14.703,-5.03
14.718,-7.33
14.734,-8.9
14.750,-9.36
14.765,-8.63
14.781,-6.94
14.796,-4.64
14.812,-2.26
14.828,-0.21
14.843,1.31
14.859,2.29
14.875,2.83
14.890,3.05
14.906,3.04
14.921,2.83
14.937,2.66
14.953,2.75
14.968,3.32
14.984,4.5
15.000,6.26
15.015,8.31
15.031,10.38
15.046,12.19
15.062,13.62
15.078,14.83
15.093,15.96
15.109,17.25
15.125,18.72
15.140,20.24
15.156,21.62
15.171,22.75
15.187,23.7
15.203,24.73
15.218,26.15
15.234,28.21
15.250,31.04
15.265,34.46
15.281,38.11
15.296,41.66
15.312,44.64
15.328,46.76
15.343,47.88
15.359,47.95
15.375,47.05
15.390,45.28
15.406,42.77
15.421,39.51
15.437,35.47
15.453,30.5
15.468,24.49
15.484,17.45
15.500,9.54
15.515,1.04
15.531,-7.63
15.546,-16.07
15.562,-23.81
15.578,-30.32
15.593,-35.19
15.609,-38.1
15.625,-39.06
15.640,-38.47
15.656,-36.98
15.671,-35.28
15.687,-33.84
15.703,-32.61
15.718,-31.08
15.734,-28.66
15.750,-24.77
15.765,-19.35
15.781,-12.8
15.796,-5.64
15.812,1.54
15.828,8.34
15.843,14.61
15.859,20.25
15.875,25.07
15.890,28.85
15.906,31.35
15.921,32.42
15.937,32.28
15.953,31.29
15.968,29.78
15.984,28.06
16.000,26.22
16.015,24.21
16.031,21.98
16.046,19.53
16.062,17.01
16.078,14.61
16.093,12.49
16.109,10.71
16.125,9.18
16.140,7.81
16.156,6.39
16.171,4.74
16.187,2.73
16.203,0.4
16.218,-2.11
16.234,-4.64
16.250,-6.95
16.265,-8.94
16.281,-10.68
16.296,-12.22
16.312,-13.62
16.328,-14.89
16.343,-16.03
16.359,-17.03
16.375,-17.94
16.390,-18.96
16.406,-20.28
16.421,-22.1
16.437,-24.46
16.453,-27.22
16.468,-30.04
16.484,-32.62
16.500,-34.66
16.515,-36.03
16.531,-36.91
16.546,-37.68
16.562,-38.92
16.578,-41.02
16.593,-44.24
16.609,-48.44
16.625,-53.42
16.640,-58.92
16.656,-64.87
16.671,-71.42
16.687,-78.85
16.703,-87.25
16.718,-96.29
16.734,-105.33
16.750,-113.44
16.765,-119.85
16.781,-124.15
16.796,-126.31
16.812,-126.52
16.828,-124.99
16.843,-121.77
16.859,-116.89
16.875,-110.47
16.890,-102.59
16.906,-93.56
16.921,-83.74
16.937,-73.45
16.953,-63.03
16.968,-52.71
16.984,-42.75
17.000,-33.36
17.015,-24.68
17.031,-16.59
17.046,-8.63
17.062,-0.08
17.078,10.08
17.093,22.87
17.109,39.17
17.125,59.05
17.140,81.67
17.156,105.0
17.171,126.17
17.187,142.13
17.203,150.58
17.218,150.55
17.234,142.65
17.250,128.69
17.265,110.99
17.281,91.56
17.296,71.6
17.312,51.58
17.328,31.54
17.343,11.77
17.359,-6.85
17.375,-22.92
17.390,-34.69
17.406,-40.56
17.421,-39.77
17.437,-32.79
17.453,-21.21
17.468,-7.49
17.484,5.86
17.500,16.8
17.515,24.21
17.531,27.95
17.546,28.7
17.562,27.64
17.578,26.12
17.593,25.37
17.609,26.15
17.625,28.58
17.640,32.05
17.656,35.26
17.671,36.59
17.687,34.66
17.703,28.84
17.718,19.5
17.734,8.06
17.750,-3.53
17.765,-13.07
17.781,-18.73
17.796,-19.32
17.812,-14.64
17.828,-5.46
17.843,6.72
17.859,20.04
17.875,32.71
17.890,43.36
17.906,51.21
17.921,56.17
17.937,58.56
17.953,58.98
17.968,58.11
17.984,56.65
18.000,55.2
18.015,54.21
18.031,53.96
18.046,54.51
18.062,55.75
18.078,57.39
18.093,59.06
18.109,60.38
18.125,61.08
18.140,61.05
18.156,60.27
18.171,58.86
18.187,56.87
18.203,54.4
18.218,51.46
18.234,48.0
18.250,43.94
18.265,39.02
18.281,32.93
18.296,25.35
18.312,16.03
18.328,4.87
18.343,-7.94
18.359,-21.92
18.375,-36.26
18.390,-49.83
18.406,-61.56
18.421,-70.26
18.437,-75.0
18.453,-75.38
18.468,-71.66
18.484,-64.68
18.500,-55.68
18.515,-45.74
18.531,-35.52
18.546,-25.35
18.562,-15.52
18.578,-6.72
18.593,-0.26
18.609,2.16
18.625,-0.91
18.640,-10.06
18.656,-24.75
18.671,-43.39
18.687,-63.89
18.703,-84.18
18.718,-102.34
18.734,-116.8
18.750,-126.21
18.765,-129.59
18.781,-126.55
18.796,-117.49
18.812,-103.41
18.828,-85.63
18.843,-65.54
18.859,-44.24
18.875,-22.63
18.890,-1.36
18.906,18.83
18.921,37.07
18.937,52.55
18.953,64.65
18.968,73.16
18.984,78.27
19.000,80.55
19.015,80.59
19.031,79.0
19.046,76.37
19.062,73.09
19.078,69.58
19.093,66.08
19.109,62.65
19.125,59.05
19.140,54.84
19.156,49.4
19.171,42.21
19.187,33.15
19.203,22.43
19.218,10.7
19.234,-1.27
19.250,-12.72
19.265,-23.02
19.281,-31.75
19.296,-38.77
19.312,-44.11
19.328,-47.84
19.343,-50.08
19.359,-50.89
19.375,-50.35
19.390,-48.53
19.406,-45.46
19.421,-41.26
19.437,-36.1
19.453,-30.21
19.468,-23.87
19.484,-17.5
19.500,-11.33
19.515,-5.64
19.531,-0.69
19.546,3.37
19.562,6.35
19.578,8.21
19.593,9.01
19.609,9.06
19.625,8.6
19.640,7.97
19.656,7.43
19.671,6.99
19.687,6.65
19.703,6.4
19.718,6.34
19.734,6.61
19.750,7.33
19.765,8.39
19.781,9.7
19.796,10.95
19.812,11.9
19.828,12.39
19.843,12.42
19.859,12.1
19.875,11.58
19.890,11.0
19.906,10.25
19.921,9.29
19.937,7.95
19.953,6.15
19.968,4.07
19.984,1.91
20.000,-0.05
20.015,-1.64
20.031,-2.86
20.046,-3.94
20.062,-5.02
20.078,-6.25
20.093,-7.56
20.109,-8.61
20.125,-9.05
20.140,-8.71
20.156,-7.45
20.171,-5.47
20.187,-3.17
20.203,-0.89
20.218,1.09
20.234,2.6
20.250,3.71
20.265,4.5
20.281,5.06
20.296,5.44
20.312,5.74
20.328,5.98
20.343,6.31
20.359,6.82
20.375,7.45
20.390,8.11
20.406,8.57
20.421,8.59
20.437,8.08
20.453,7.11
20.468,5.83
20.484,4.57
20.500,3.58
20.515,2.94
20.531,2.68
20.546,2.69
20.562,2.78
20.578,2.72
20.593,2.34
20.609,1.44
20.625,0.04
20.640,-1.86
20.656,-4.12
20.671,-6.48
20.687,-8.72
20.703,-10.67
20.718,-12.19
20.734,-13.24
20.750,-13.99
20.765,-14.54
20.781,-15.09
20.796,-15.74
20.812,-16.41
20.828,-16.99
20.843,-17.42
20.859,-17.59
20.875,-17.42
20.890,-17.01
20.906,-16.22
20.921,-15.0
20.937,-13.27
20.953,-11.09
20.968,-8.65
20.984,-6.27
21.000,-4.25
21.015,-2.71
21.031,-1.77
21.046,-1.16
21.062,-0.61
21.078,0.09
21.093,1.08
21.109,2.35
21.125,3.81
21.140,5.33
21.156,6.99
21.171,8.81
21.187,11.0
21.203,13.59
21.218,16.47
21.234,19.37
21.250,21.98
21.265,24.04
21.281,25.37
21.296,25.98
21.312,25.79
21.328,24.88
21.343,23.19
21.359,20.86
21.375,18.21
21.390,15.64
21.406,13.46
21.421,11.79
21.437,10.5
21.453,9.12
21.468,7.32
21.484,4.89
21.500,1.9
21.515,-1.19
21.531,-3.94
21.546,-6.03
21.562,-7.38
21.578,-8.07
21.593,-8.35
21.609,-8.35
21.625,-8.17
21.640,-7.89
21.656,-7.62
21.671,-7.48
21.687,-7.6
21.703,-7.91
21.718,-8.11
21.734,-7.92
21.750,-6.97
21.765,-5.21
21.781,-2.87
21.796,-0.36
21.812,1.94
21.828,3.75
21.843,5.06
21.859,6.0
21.875,6.67
21.890,7.2
21.906,7.53
21.921,7.62
21.937,7.37
21.953,6.76
21.968,5.8
21.984,4.5
22.000,2.84
22.015,0.77
22.031,-1.66
22.046,-4.27
22.062,-6.74
22.078,-8.75
22.093,-10.07
22.109,-10.62
22.125,-10.41
22.140,-9.49
22.156,-7.98
22.171,-5.82
22.187,-3.15
22.203,-0.22
22.218,2.46
22.234,4.23
22.250,4.61
22.265,3.51
22.281,1.3
22.296,-1.22
22.312,-3.13
22.328,-3.75
22.343,-2.8
22.359,-0.5
22.375,2.58
22.390,5.81
22.406,8.72
22.421,11.03
22.437,12.7
22.453,13.69
22.468,14.05
22.484,13.78
22.500,12.98
22.515,11.87
22.531,10.79
22.546,9.97
22.562,9.49
22.578,9.11
22.593,8.45
22.609,7.17
22.625,5.15
22.640,2.64
22.656,-0.05
22.671,-2.53
22.687,-4.6
22.703,-6.14
22.718,-7.17
22.734,-7.61
22.750,-7.44
22.765,-6.63
22.781,-5.29
22.796,-3.74
22.812,-2.29
22.828,-1.23
22.843,-0.63
22.859,-0.36
22.875,-0.19
22.890,0.02
22.906,0.31
22.921,0.57
22.937,0.64
22.953,0.51
22.968,0.23
22.984,-0.1
23.000,-0.33
23.015,-0.39
23.031,-0.27
23.046,0.08
23.062,0.72
23.078,1.69
23.093,2.91
23.109,4.2
23.125,5.22
23.140,5.68
23.156,5.43
23.171,4.49
23.187,3.17
23.203,1.88
23.218,0.92
23.234,0.43
23.250,0.36
23.265,0.53
23.281,0.78
23.296,1.08
23.312,1.43
23.328,1.94
23.343,2.64
23.359,3.51
23.375,4.47
23.390,5.49
23.406,6.53
23.421,7.57
23.437,8.61
23.453,9.51
23.468,10.09
23.484,10.1
23.500,9.35
23.515,7.81
23.531,5.62
23.546,3.12
23.562,0.6
23.578,-1.63
23.593,-3.48
23.609,-4.87
23.625,-5.76
23.640,-6.14
23.656,-6.0
23.671,-5.47
23.687,-4.88
23.703,-4.52
23.718,-4.57
23.734,-5.07
23.750,-5.74
23.765,-6.23
23.781,-6.41
23.796,-6.22
23.812,-5.83
23.828,-5.46
23.843,-5.15
23.859,-4.74
23.875,-4.12
23.890,-3.26
23.906,-2.22
23.921,-1.29
23.937,-0.73
23.953,-0.58
23.968,-0.8
23.984,-1.19
24.000,-1.52
24.015,-1.68
24.031,-1.61
24.046,-1.26
24.062,-0.69
24.093,0.65
24.109,1.11
24.125,1.3
24.140,1.35
24.156,1.43
24.171,1.83
24.187,2.64
24.203,3.72
24.218,4.73
24.234,5.31
24.250,5.22
24.265,4.52
24.281,3.45
24.296,2.32
24.312,1.3
24.328,0.3
24.343,-0.83
24.359,-2.25
24.375,-3.82
24.390,-5.44
24.406,-6.72
24.421,-7.41
24.437,-7.39
24.453,-6.73
24.468,-5.76
24.484,-4.92
24.500,-4.57
24.515,-4.93
24.531,-6.12
24.546,-7.98
24.562,-10.21
24.578,-12.46
24.593,-14.45
24.609,-15.98
24.625,-16.99
24.640,-17.42
24.656,-17.18
24.671,-16.25
24.687,-14.69
24.703,-12.75
24.718,-10.72
24.734,-8.81
24.750,-7.02
24.765,-5.24
24.781,-3.4
24.796,-1.37
24.812,0.78
24.828,2.83
24.843,4.59
24.859,5.96
24.875,7.07
24.890,8.11
24.906,9.27
24.921,10.55
24.937,11.89
24.953,13.17
24.968,14.34
24.984,15.39
25.000,16.35
25.015,17.22
25.031,17.97
25.046,18.57
25.062,19.03
25.078,19.36
25.093,19.63
25.109,19.8
25.125,19.78
25.140,19.38
25.156,18.43
25.171,16.84
25.187,14.7
25.203,12.28
25.218,9.88
25.234,7.66
25.250,5.67
25.265,3.77
25.281,1.66
25.296,-0.85
25.312,-3.76
25.328,-6.81
25.343,-9.53
25.359,-11.38
25.375,-12.02
25.390,-11.38
25.406,-9.75
25.421,-7.59
25.437,-5.35
25.453,-3.37
25.468,-1.77
25.484,-0.63
25.500,0.07
25.515,0.33
25.531,0.27
25.546,0.04
25.562,-0.09
25.578,0.11
25.593,0.79
25.609,1.87
25.625,3.15
25.640,4.35
25.656,5.27
25.671,5.87
25.687,6.17
25.703,6.16
25.718,5.92
25.734,5.48
25.750,4.95
25.765,4.47
25.781,4.21
25.796,4.24
25.812,4.56
25.828,5.09
25.843,5.65
25.859,6.13
25.875,6.49
25.890,6.75
25.906,6.77
25.921,6.49
25.937,5.72
25.953,4.41
25.968,2.63
25.984,0.51
26.000,-1.88
26.015,-4.44
26.031,-7.14
26.046,-9.85
26.062,-12.32
26.078,-14.25
26.093,-15.29
26.109,-15.18
26.125,-13.92
26.140,-11.76
26.156,-9.05
26.171,-6.28
26.187,-3.78
26.203,-1.81
26.218,-0.49
26.234,0.3
26.250,0.73
26.265,0.96
26.281,1.05
26.296,0.96
26.312,0.49
26.328,-0.38
26.343,-1.57
26.359,-2.87
26.375,-3.99
26.390,-4.67
26.406,-4.95
26.421,-4.91
26.437,-4.8
26.453,-4.87
26.468,-5.11
26.484,-5.43
26.500,-5.7
26.515,-5.92
26.531,-6.2
26.546,-6.76
26.562,-7.76
26.578,-9.24
26.593,-11.08
26.609,-13.05
26.625,-14.85
26.640,-16.34
26.656,-17.43
26.671,-18.21
26.687,-18.85
26.703,-19.41
26.718,-19.97
26.734,-20.42
26.750,-20.65
26.765,-20.54
26.781,-20.06
26.796,-19.2
26.812,-18.09
26.828,-16.87
26.843,-15.57
26.859,-14.17
26.875,-12.57
26.890,-10.69
26.906,-8.58
26.921,-6.39
26.937,-4.29
26.953,-2.41
26.968,-0.71
26.984,0.94
27.000,2.66
27.015,4.51
27.031,6.51
27.046,8.52
27.062,10.45
27.078,12.23
27.093,13.84
27.109,15.3
27.125,16.48
27.140,17.21
27.156,17.35
27.171,16.89
27.187,15.93
27.203,14.8
27.218,13.8
27.234,13.15
27.250,12.91
27.265,12.95
27.281,12.96
27.296,12.59
27.312,11.61
27.328,9.93
27.343,7.76
27.359,5.36
27.375,3.11
27.390,1.17
27.406,-0.35
27.421,-1.49
27.437,-2.35
27.453,-3.04
27.468,-3.69
27.484,-4.39
27.500,-5.31
27.515,-6.5
27.531,-7.84
27.546,-9.16
27.562,-10.16
27.578,-10.61
27.593,-10.49
27.609,-9.97
27.625,-9.21
27.640,-8.51
27.656,-8.01
27.671,-7.75
27.687,-7.76
27.703,-7.99
27.718,-8.31
27.734,-8.62
27.750,-8.88
27.765,-9.03
27.781,-9.16
27.796,-9.44
27.812,-10.1
27.828,-11.36
27.843,-13.4
27.859,-16.25
27.875,-19.76
27.890,-23.76
27.906,-28.0
27.921,-32.33
27.937,-36.56
27.953,-40.7
27.968,-44.78
27.984,-48.99
28.000,-53.43
28.015,-58.3
28.031,-63.7
28.046,-69.61
28.062,-75.89
28.078,-82.15
28.093,-88.01
28.109,-93.32
28.125,-98.11
28.140,-102.58
28.156,-106.95
28.171,-111.05
28.187,-114.36
28.203,-116.01
28.218,-115.01
28.234,-110.43
28.250,-101.74
28.265,-88.74
28.281,-71.63
28.296,-50.99
28.312,-27.64
28.328,-2.61
28.343,23.09
28.359,48.89
28.375,74.93
28.390,101.74
28.406,129.62
28.421,157.63
28.437,183.41
28.453,203.57
28.468,214.85
28.484,215.34
28.500,205.43
28.515,187.73
28.531,165.92
28.546,143.46
28.562,122.53
28.578,104.09
28.593,88.56
28.609,76.39
28.625,68.29
28.640,64.72
28.656,65.22
28.671,68.19
28.687,71.16
28.703,71.71
28.718,68.31
28.734,60.76
28.750,50.17
28.765,38.51
28.781,27.94
28.796,20.12
28.812,16.09
28.828,15.96
28.843,18.91
28.859,23.45
28.875,27.73
28.890,30.41
28.906,31.11
28.921,30.65
28.937,30.46
28.953,32.06
28.968,36.29
28.984,43.0
29.000,51.21
29.015,59.24
29.031,65.06
29.046,66.56
29.062,62.16
29.078,51.37
29.093,35.34
29.109,16.68
29.125,-1.17
29.140,-15.21
29.156,-24.05
29.171,-28.18
29.187,-29.61
29.203,-30.8
29.218,-33.63
29.234,-38.75
29.250,-45.71
29.265,-53.38
29.281,-60.34
29.296,-65.23
29.312,-66.82
29.328,-64.18
29.343,-56.9
29.359,-45.21
29.375,-30.14
29.390,-13.36
29.406,3.07
29.421,17.19
29.437,27.41
29.453,33.08
29.468,34.52
29.484,32.81
29.500,29.46
29.515,25.81
29.531,22.71
29.546,20.32
29.562,18.3
29.578,16.06
29.593,13.12
29.609,9.31
29.625,4.9
29.640,0.49
29.656,-3.19
29.671,-5.62
29.687,-6.48
29.703,-5.85
29.718,-4.29
29.734,-2.53
29.750,-1.31
29.765,-1.2
29.781,-2.44
29.796,-4.9
29.812,-8.26
29.828,-12.09
29.843,-15.98
29.859,-19.6
29.875,-22.67
29.890,-24.92
29.906,-26.28
29.921,-26.71
29.937,-26.33
29.953,-25.3
29.968,-23.72
29.984,-21.68
30.000,-19.18
30.015,-16.22
30.031,-12.93
30.046,-9.64
30.062,-6.87
30.078,-5.05
30.093,-4.5
30.109,-5.27
30.125,-7.1
30.140,-9.56
30.156,-12.09
30.171,-14.36
30.187,-16.1
30.203,-17.24
30.218,-17.84
30.234,-18.0
30.250,-17.83
30.265,-17.34
30.281,-16.64
30.296,-15.76
30.312,-14.83
30.328,-14.07
30.343,-13.68
30.359,-13.86
30.375,-14.83
30.390,-16.59
30.406,-19.03
30.421,-21.99
30.437,-25.19
30.453,-28.32
30.468,-31.11
30.484,-33.2
30.500,-34.39
30.515,-34.53
30.531,-33.73
30.546,-32.18
30.562,-30.21
30.578,-28.09
30.593,-25.9
30.609,-23.55
30.625,-20.83
30.640,-17.71
30.656,-14.38
30.671,-11.19
30.687,-8.58
30.703,-6.76
30.718,-5.62
30.734,-4.84
30.750,-4.11
30.765,-3.38
30.781,-2.92
30.796,-3.29
30.812,-4.85
30.828,-7.65
30.843,-11.34
30.859,-15.22
30.875,-18.55
30.890,-20.92
30.906,-22.38
30.921,-23.39
30.937,-24.66
30.953,-26.73
30.968,-29.71
30.984,-33.27
31.000,-36.68
31.015,-39.0
31.031,-39.6
31.046,-38.31
31.062,-35.41
31.078,-31.48
31.093,-27.16
31.109,-22.71
31.125,-17.77
31.140,-11.19
31.156,-1.19
31.171,14.16
31.187,36.0
31.203,63.97
31.218,95.62
31.234,126.5
31.250,150.72
31.265,162.32
31.281,156.56
31.296,131.06
31.312,86.6
31.328,27.23
31.343,-40.42
31.359,-108.34
31.375,-168.6
31.390,-214.76
31.406,-242.68
31.421,-250.76
31.437,-239.67
31.453,-211.9
31.468,-171.16
31.484,-122.04
31.500,-69.74
31.515,-19.33
31.531,24.96
31.546,60.37
31.562,85.97
31.578,102.4
31.593,111.2
31.609,113.97
31.625,111.9
31.640,105.62
31.656,95.57
31.671,82.47
31.687,67.39
31.703,51.67
31.718,36.51
31.734,22.98
31.750,11.51
31.765,2.15
31.781,-5.33
31.796,-11.13
31.812,-15.46
31.828,-18.47
31.843,-20.48
31.859,-22.11
31.875,-24.16
31.890,-27.64
31.906,-33.46
31.921,-42.37
31.937,-54.5
31.953,-69.38
31.968,-85.91
31.984,-102.52
32.000,-117.75
32.015,-130.62
32.031,-140.55
32.046,-146.94
32.062,-148.76
32.078,-143.87
32.093,-129.22
32.109,-101.5
32.125,-58.27
32.140,0.76
32.156,72.91
32.171,152.56
32.187,231.81
32.203,301.52
32.218,352.66
32.234,377.69
32.250,371.78
32.265,333.59
32.281,265.65
32.296,174.08
32.312,67.8
32.328,-42.86
32.343,-147.52
32.359,-237.14
32.375,-305.07
32.390,-347.84
32.406,-365.12
32.421,-359.57
32.437,-335.78
32.453,-299.01
32.468,-254.1
32.484,-204.54
32.500,-152.0
32.515,-96.6
32.531,-37.71
32.546,25.35
32.562,92.23
32.578,161.15
32.593,228.78
32.609,290.62
32.625,341.78
32.640,378.13
32.656,397.15
32.671,398.09
32.687,382.05
32.703,351.22
32.718,308.54
32.734,257.26
32.750,200.76
32.765,142.35
32.781,84.86
32.796,30.66
32.812,-18.54
32.828,-61.57
32.843,-97.74
32.859,-126.9
32.875,-149.28
32.890,-165.81
32.906,-178.03
32.921,-187.87
32.937,-197.0
32.953,-205.93
32.968,-213.46
32.984,-216.95
33.000,-213.42
33.015,-200.67
33.031,-178.44
33.046,-148.49
33.062,-113.92
33.078,-78.06
33.093,-43.36
33.109,-10.84
33.125,19.31
33.140,46.97
33.156,71.37
33.171,91.32
33.187,105.76
33.203,114.67
33.218,119.23
33.234,121.22
33.250,122.13
33.265,122.61
33.281,122.18
33.296,119.72
33.312,114.23
33.328,105.38
33.343,93.45
33.359,78.96
33.375,62.32
33.390,43.73
33.406,23.39
33.421,1.82
33.437,-20.13
33.453,-41.33
33.468,-60.49
33.484,-76.2
33.500,-87.2
33.515,-92.22
33.531,-90.64
33.546,-82.59
33.562,-69.21
33.578,-52.25
33.593,-33.53
33.609,-14.21
33.625,5.38
33.640,25.55
33.656,46.76
33.671,68.87
33.687,90.71
33.703,110.28
33.718,125.56
33.734,135.45
33.750,140.26
33.765,141.43
33.781,140.83
33.796,139.54
33.812,137.42
33.828,133.13
33.843,125.05
33.859,112.38
33.875,95.9
33.890,77.81
33.906,60.81
33.921,47.0
33.937,36.94
33.953,29.97
33.968,24.86
33.984,20.81
34.000,17.52
34.015,14.84
34.031,12.18
34.046,8.43
34.062,2.68
34.078,-5.11
34.093,-13.66
34.109,-20.95
34.125,-25.37
34.140,-27.19
34.156,-29.13
34.171,-35.53
34.187,-50.39
34.203,-74.98
34.218,-106.64
34.234,-139.08
34.250,-164.52
34.265,-176.57
34.281,-172.23
34.296,-152.77
34.312,-122.9
34.328,-88.91
34.343,-56.81
34.359,-30.86
34.375,-12.95
34.390,-2.77
34.406,1.62
34.421,2.94
34.437,3.82
34.453,6.0
34.468,9.96
34.484,14.97
34.500,19.75
34.515,22.98
34.531,23.89
34.546,22.07
34.562,17.45
34.578,10.28
34.593,1.38
34.609,-7.82
34.625,-15.54
34.640,-20.09
34.656,-20.72
34.671,-17.81
34.687,-12.86
34.703,-7.9
34.718,-4.63
34.734,-3.9
34.750,-5.41
34.765,-7.97
34.781,-10.18
34.796,-10.97
34.812,-10.02
34.828,-7.64
34.843,-4.59
34.859,-1.68
34.875,0.62
34.890,2.13
34.906,2.96
34.921,3.27
34.937,3.24
34.953,2.96
34.968,2.58
34.984,2.2
35.000,2.0
35.015,2.04
35.031,2.22
35.046,2.34
35.062,2.24
35.078,1.8
35.093,1.15
35.109,0.54
35.125,0.12
35.140,-0.02
35.171,-0.1
35.187,-0.56
35.203,-1.46
35.218,-2.62
35.234,-3.64
35.250,-4.17
35.265,-3.97
35.281,-3.03
35.296,-1.63
35.312,-0.22
35.328,0.81
35.343,1.21
35.359,0.95
35.375,0.18
35.390,-0.92
35.406,-2.21
35.421,-3.55
35.437,-4.93
35.453,-6.38
35.468,-7.8
35.484,-9.18
35.500,-10.47
35.515,-11.65
35.531,-12.71
35.546,-13.69
35.562,-14.51
35.578,-15.12
35.593,-15.48
35.609,-15.51
35.625,-15.21
35.640,-14.61
35.656,-13.71
35.671,-12.53
35.687,-11.12
35.703,-9.54
35.718,-7.94
35.734,-6.45
35.750,-5.11
35.765,-3.95
35.781,-2.87
35.796,-1.83
35.812,-0.82
35.828,0.04
35.843,0.57
35.859,0.72
35.875,0.42
35.890,-0.17
35.906,-0.96
35.921,-1.75
35.937,-2.46
35.953,-3.04
35.968,-3.51
35.984,-3.85
36.000,-4.03
36.015,-4.0
36.031,-3.56
36.046,-2.75
36.062,-1.6
36.078,-0.31
36.093,0.83
36.109,1.51
36.125,1.69
36.140,1.47
36.156,1.13
36.171,1.02
36.187,1.08
36.203,1.16
36.218,0.96
36.234,0.26
36.250,-0.77
36.265,-1.85
36.281,-2.6
36.296,-2.91
36.312,-2.97
36.328,-3.25
36.343,-4.22
36.359,-5.91
36.375,-8.09
36.390,-10.2
36.406,-11.73
36.421,-12.47
36.437,-12.47
36.453,-12.07
36.468,-11.54
36.484,-11.01
36.500,-10.35
36.515,-9.42
36.531,-8.11
36.546,-6.5
36.562,-4.76
36.578,-3.09
36.593,-1.71
36.609,-0.7
36.625,-0.03
36.640,0.48
36.656,0.9
36.671,1.32
36.687,1.71
36.703,1.94
36.718,1.84
36.734,1.23
36.750,0.09
36.765,-1.36
36.781,-2.78
36.796,-3.77
36.812,-4.11
36.828,-3.82
36.843,-3.12
36.859,-2.35
36.875,-1.78
36.890,-1.48
36.906,-1.38
36.921,-1.43
36.937,-1.52
36.953,-1.72
36.968,-2.16
36.984,-2.94
37.000,-4.0
37.015,-5.09
37.031,-5.95
37.046,-6.48
37.062,-6.81
37.078,-7.19
37.093,-8.04
37.109,-9.56
37.125,-11.67
37.140,-14.06
37.156,-16.25
37.171,-17.86
37.187,-18.77
37.203,-19.02
37.218,-18.71
37.234,-17.98
37.250,-16.83
37.265,-15.18
37.281,-13.02
37.296,-10.43
37.312,-7.56
37.328,-4.77
37.343,-2.33
37.359,-0.42
37.375,0.96
37.390,1.89
37.406,2.6
37.421,3.12
37.437,3.49
37.453,3.62
37.468,3.42
37.484,2.95
37.500,2.37
37.515,1.92
37.531,1.72
37.546,1.77
37.562,1.94
37.578,2.18
37.593,2.52
37.609,3.07
37.625,4.09
37.640,5.56
37.656,7.26
37.671,8.77
37.687,9.53
37.703,9.2
37.718,7.74
37.734,5.31
37.750,2.25
37.765,-0.99
37.781,-4.12
37.796,-6.96
37.812,-9.4
37.828,-11.38
37.843,-12.82
37.859,-13.49
37.875,-13.14
37.890,-11.53
37.906,-8.55
37.921,-4.51
37.937,0.03
37.953,4.27
37.968,7.52
37.984,9.4
38.000,10.04
38.015,9.86
38.031,9.36
38.046,8.89
38.062,8.49
38.078,8.0
38.093,7.24
38.109,6.2
38.125,5.07
38.140,4.16
38.156,3.67
38.171,3.61
38.187,3.79
38.203,3.86
38.218,3.64
38.234,3.04
38.250,2.26
38.265,1.53
38.281,1.11
38.296,1.05
38.312,1.31
38.328,1.76
38.343,2.13
38.359,2.23
38.375,1.96
38.390,1.35
38.406,0.45
38.421,-0.63
38.437,-1.83
38.453,-3.19
38.468,-4.72
38.484,-6.44
38.500,-8.2
38.515,-9.67
38.531,-10.49
38.546,-10.46
38.562,-9.63
38.578,-8.34
38.593,-7.1
38.609,-6.24
38.625,-5.89
38.640,-5.83
38.656,-5.6
38.671,-4.88
38.687,-3.5
38.703,-1.6
38.718,0.48
38.734,2.34
38.750,3.75
38.765,4.6
38.781,4.98
38.796,5.07
38.812,5.01
38.828,4.98
38.843,5.16
38.859,5.68
38.875,6.52
38.890,7.64
38.906,8.87
38.921,9.88
38.937,10.43
38.953,10.36
38.968,9.66
38.984,8.62
39.000,7.51
39.015,6.58
39.031,5.89
39.046,5.29
39.062,4.47
39.078,3.27
39.093,1.63
39.109,-0.34
39.125,-2.45
39.140,-4.57
39.156,-6.71
39.171,-8.96
39.187,-11.3
39.203,-13.64
39.218,-15.6
39.234,-16.83
39.250,-17.01
39.265,-16.06
39.281,-14.1
39.296,-11.44
39.312,-8.52
39.328,-5.7
39.343,-3.28
39.359,-1.37
39.375,0.05
39.390,1.16
39.406,2.34
39.421,3.84
39.437,5.86
39.453,8.39
39.468,11.19
39.484,14.01
39.500,16.54
39.515,18.56
39.531,19.88
39.546,20.56
39.562,20.57
39.578,20.09
39.593,19.29
39.609,18.34
39.625,17.38
39.640,16.5
39.656,15.57
39.671,14.44
39.687,12.98
39.703,11.01
39.718,8.65
39.734,6.14
39.750,3.79
39.765,1.87
39.781,0.54
39.796,-0.27
39.812,-0.85
39.828,-1.46
39.843,-2.44
39.859,-3.85
39.875,-5.58
39.890,-7.46
39.906,-9.32
39.921,-11.08
39.937,-12.68
39.953,-14.08
39.968,-15.22
39.984,-16.13
40.000,-16.8
40.015,-17.34
40.031,-17.92
40.046,-18.63
40.062,-19.4
40.078,-19.99
40.093,-19.89
40.109,-18.61
40.125,-15.93
40.140,-11.9
40.156,-7.03
40.171,-2.05
40.187,2.32
40.203,5.66
40.218,7.92
40.234,9.51
40.250,10.8
40.265,11.97
40.281,12.9
40.296,13.26
40.312,12.72
40.328,11.35
40.343,9.56
40.359,7.95
40.375,7.11
40.390,7.21
40.406,8.04
40.421,9.1
40.437,10.03
40.453,10.62
40.468,11.0
40.484,11.3
40.500,11.6
40.515,11.85
40.531,11.87
40.546,11.52
40.562,10.86
40.578,10.1
40.593,9.44
40.609,9.1
40.625,9.05
40.640,9.07
40.656,8.76
40.671,7.82
40.687,6.0
40.703,3.31
40.718,-0.06
40.734,-3.76
40.750,-7.4
40.765,-10.71
40.781,-13.6
40.796,-16.22
40.812,-18.72
40.828,-21.25
40.843,-23.75
40.859,-26.05
40.875,-27.89
40.890,-29.01
40.906,-29.24
40.921,-28.68
40.937,-27.46
40.953,-25.73
40.968,-23.61
40.984,-21.08
41.000,-18.16
41.015,-14.91
41.031,-11.58
41.046,-8.43
41.062,-5.8
41.078,-3.87
41.093,-2.59
41.109,-1.81
41.125,-1.32
41.140,-1.0
41.156,-0.94
41.171,-1.29
41.187,-2.1
41.203,-3.33
41.218,-4.73
41.234,-6.01
41.250,-6.98
41.265,-7.57
41.281,-7.84
41.296,-7.83
41.312,-7.47
41.328,-6.53
41.343,-4.84
41.359,-2.35
41.375,0.72
41.390,3.75
41.406,6.08
41.421,7.06
41.437,6.36
41.453,3.99
41.468,0.37
41.484,-3.84
41.500,-7.83
41.515,-10.87
41.531,-12.44
41.546,-12.14
41.562,-9.71
41.578,-4.75
41.593,3.22
41.609,14.63
41.625,29.46
41.640,47.02
41.656,65.81
41.671,83.67
41.687,98.61
41.703,109.17
41.718,115.0
41.734,116.67
41.750,115.29
41.765,111.93
41.781,107.16
41.796,101.08
41.812,93.54
41.828,84.58
41.843,74.37
41.859,63.18
41.875,51.0
41.890,37.33
41.906,21.3
41.921,2.01
41.937,-20.99
41.953,-47.2
41.968,-75.52
41.984,-104.58
42.000,-133.19
42.015,-160.4
42.031,-185.15
42.046,-205.85
42.062,-220.54
42.078,-227.28
42.093,-224.88
42.109,-213.5
42.125,-194.61
42.140,-170.43
42.156,-143.08
42.171,-114.35
42.187,-85.43
42.203,-57.47
42.218,-31.61
42.234,-8.88
42.250,10.07
42.265,25.43
42.281,38.16
42.296,49.51
42.312,60.67
42.328,72.45
42.343,85.18
42.359,98.94
42.375,113.73
42.390,129.26
42.406,144.75
42.421,158.73
42.437,168.68
42.453,171.57
42.468,164.62
42.484,146.23
42.500,116.63
42.515,77.71
42.531,32.26
42.546,-16.51
42.562,-65.65
42.578,-112.23
42.593,-152.82
42.609,-183.57
42.625,-200.41
42.640,-200.34
42.656,-182.46
42.671,-148.62
42.687,-102.62
42.703,-49.1
42.718,7.54
42.734,63.69
42.750,116.11
42.765,161.46
42.781,196.09
42.796,216.73
42.812,221.42
42.828,210.52
42.843,186.75
42.859,154.43
42.875,118.27
42.890,82.26
42.906,49.08
42.921,20.4
42.937,-2.72
42.953,-19.45
42.968,-29.36
42.984,-32.67
43.000,-30.64
43.015,-25.33
43.031,-19.23
43.046,-14.39
43.062,-12.05
43.078,-12.36
43.093,-14.52
43.109,-17.63
43.125,-20.78
43.140,-23.61
43.156,-25.86
43.171,-27.47
43.187,-28.3
43.203,-28.32
43.218,-27.55
43.234,-26.1
43.250,-24.29
43.265,-22.28
43.281,-20.33
43.296,-18.38
43.312,-16.19
43.328,-13.15
43.343,-8.63
43.359,-2.25
43.375,5.76
43.390,14.6
43.406,23.21
43.421,30.5
43.437,35.77
43.453,38.62
43.468,38.91
43.484,36.7
43.500,32.22
43.515,25.68
43.531,17.38
43.546,7.89
43.562,-2.32
43.578,-13.28
43.593,-26.02
43.609,-42.76
43.625,-65.9
43.640,-97.07
43.656,-135.93
43.671,-179.47
43.687,-222.12
43.703,-256.72
43.718,-276.31
43.734,-275.68
43.750,-252.66
43.765,-208.09
43.781,-145.88
43.796,-72.53
43.812,3.51
43.828,73.2
43.843,128.69
43.859,165.21
43.875,182.46
43.890,184.04
43.906,175.92
43.921,163.76
43.937,151.07
43.953,138.59
43.968,125.12
43.984,109.25
44.000,90.76
44.015,71.11
44.031,52.36
44.046,36.32
44.062,23.74
44.078,14.66
44.093,8.86
44.109,6.08
44.125,6.06
44.140,8.21
44.156,11.71
44.171,15.29
44.187,17.44
44.203,16.71
44.218,12.4
44.234,4.68
44.250,-5.51
44.265,-16.68
44.281,-27.24
44.296,-35.86
44.312,-41.7
44.328,-44.49
44.343,-44.49
44.359,-42.18
44.375,-38.17
44.390,-33.04
44.406,-27.32
44.421,-21.5
44.437,-15.93
44.453,-10.88
44.468,-6.55
44.484,-3.14
44.500,-0.78
44.515,0.41
44.531,0.47
44.546,-0.33
44.562,-1.54
44.578,-2.49
44.593,-2.55
44.609,-1.41
44.625,0.83
44.640,3.65
44.656,6.36
44.671,8.38
44.687,9.51
44.703,9.78
44.718,9.5
44.734,8.8
44.750,7.73
44.765,6.17
44.781,4.05
44.796,1.42
44.812,-1.49
44.828,-4.28
44.843,-6.62
44.859,-8.31
44.875,-9.43
44.890,-10.15
44.906,-10.73
44.921,-11.34
44.937,-11.96
44.953,-12.51
44.968,-12.73
44.984,-12.42
45.000,-11.48
45.015,-10.13
45.031,-8.6
45.046,-7.29
45.062,-6.35
45.078,-5.67
45.093,-4.94
45.109,-3.71
45.125,-1.82
45.140,0.57
45.156,2.85
45.171,4.43
45.187,4.88
45.203,4.19
45.218,2.75
45.234,1.05
45.250,-0.54
45.265,-1.98
45.281,-3.54
45.296,-5.51
45.312,-7.96
45.328,-10.71
45.343,-13.38
45.359,-15.76
45.375,-17.9
45.390,-20.04
45.406,-22.32
45.421,-24.46
45.437,-25.66
45.453,-24.95
45.468,-21.66
45.484,-15.76
45.500,-8.03
45.515,0.22
45.531,7.81
45.546,13.99
45.562,18.64
45.578,22.18
45.593,25.09
45.609,27.68
45.625,30.04
45.640,32.01
45.656,33.42
45.671,34.14
45.687,34.16
45.703,33.52
45.718,32.23
45.734,30.16
45.750,27.22
45.765,23.37
45.781,18.83
45.796,14.05
45.812,9.69
45.828,6.27
45.843,4.1
45.859,3.2
45.875,3.32
45.890,3.98
45.906,4.69
45.921,5.04
45.937,4.93
45.953,4.53
45.968,4.0
45.984,3.57
46.000,3.29
46.015,3.0
46.031,2.52
46.046,1.72
46.062,0.65
46.078,-0.37
46.093,-1.0
46.109,-1.07
46.125,-0.69
46.140,-0.24
46.156,-0.07
46.171,-0.26
46.187,-0.69
46.203,-0.95
46.218,-0.64
46.234,0.39
46.250,1.84
46.265,3.17
46.281,3.84
46.296,3.55
46.312,2.39
46.328,0.73
46.343,-0.9
46.359,-2.17
46.375,-2.95
46.390,-3.3
46.406,-3.36
46.421,-3.2
46.437,-2.75
46.453,-1.92
46.468,-0.7
46.484,0.79
46.500,2.13
46.515,2.9
46.531,2.78
46.546,1.66
46.562,-0.34
46.578,-2.92
46.593,-5.71
46.609,-8.39
46.625,-10.67
46.640,-12.43
46.656,-13.65
46.671,-14.31
46.687,-14.4
46.703,-13.78
46.718,-12.27
46.734,-9.76
46.750,-6.31
46.765,-2.25
46.781,1.83
46.796,5.38
46.812,8.06
46.828,9.77
46.843,10.68
46.859,11.08
46.875,11.15
46.890,10.98
46.906,10.64
46.921,10.23
46.937,10.01
46.953,10.24
46.968,10.92
46.984,11.87
47.000,12.68
47.015,13.04
47.031,13.0
47.046,13.02
47.062,13.8
47.078,15.89
47.093,19.55
47.109,24.32
47.125,29.55
47.140,34.42
47.156,38.27
47.171,40.82
47.187,42.11
47.203,42.39
47.218,41.97
47.234,41.18
47.250,40.13
47.265,39.0
47.281,37.92
47.296,36.99
47.312,36.33
47.328,35.98
47.343,35.82
47.359,35.44
47.375,34.1
47.390,30.66
47.406,23.84
47.421,12.28
47.437,-5.02
47.453,-28.21
47.468,-56.23
47.484,-86.8
47.500,-116.95
47.515,-143.53
47.531,-163.92
47.546,-176.37
47.562,-180.05
47.578,-175.21
47.593,-162.86
47.609,-144.98
47.625,-124.12
47.640,-102.65
47.656,-81.97
47.671,-61.74
47.687,-40.02
47.703,-14.4
47.718,16.18
47.734,50.4
47.750,84.24
47.765,112.56
47.781,130.99
47.796,137.57
47.812,132.98
47.828,119.92
47.843,101.75
47.859,81.12
47.875,59.92
47.890,39.24
47.906,20.23
47.921,4.29
47.937,-7.13
47.953,-13.15
47.968,-13.71
47.984,-9.68
48.000,-2.8
48.015,5.07
48.031,12.29
48.046,17.84
48.062,21.45
48.078,23.33
48.093,23.83
48.109,23.17
48.125,21.29
48.140,17.99
48.156,13.14
48.171,6.98
48.187,0.25
48.203,-5.99
48.218,-10.66
48.234,-13.04
48.250,-13.13
48.265,-11.53
48.281,-9.06
48.296,-6.44
48.312,-4.09
48.328,-2.17
48.343,-0.8
48.359,-0.38
48.375,-1.5
48.390,-4.91
48.406,-10.96
48.421,-19.12
48.437,-28.05
48.453,-36.25
48.468,-43.13
48.484,-49.49
48.500,-57.13
48.515,-68.14
48.531,-83.64
48.546,-102.99
48.562,-123.69
48.578,-142.25
48.593,-155.31
48.609,-160.04
48.625,-154.42
48.640,-136.87
48.656,-106.71
48.671,-64.79
48.687,-14.39
48.703,38.71
48.718,87.39
48.734,125.09
48.750,147.95
48.765,155.61
48.781,151.03
48.796,138.6
48.812,122.48
48.828,105.5
48.843,88.82
48.859,72.77
48.875,57.73
48.890,44.37
48.906,33.43
48.921,25.53
48.937,20.54
48.953,17.79
48.968,16.47
48.984,15.53
49.000,14.31
49.015,12.63
49.031,10.78
49.046,9.05
49.062,7.72
49.078,6.67
49.093,5.42
49.109,3.52
49.125,0.68
49.140,-2.83
49.156,-6.25
49.171,-8.6
49.187,-9.14
49.203,-7.64
49.218,-4.6
49.234,-0.86
49.250,2.76
49.265,5.58
49.281,7.5
49.296,8.75
49.312,9.67
49.328,10.47
49.343,11.07
49.359,11.13
49.375,10.27
49.390,8.32
49.406,5.37
49.421,1.8
49.437,-1.82
49.453,-4.98
49.468,-7.28
49.484,-8.64
49.500,-9.13
49.515,-8.91
49.531,-8.1
49.546,-6.86
49.562,-5.31
49.578,-3.71
49.593,-2.51
49.609,-2.14
49.625,-2.94
49.640,-5.03
49.656,-8.25
49.671,-12.14
49.687,-16.2
49.703,-19.83
49.718,-22.57
49.734,-24.23
49.750,-24.79
49.765,-24.43
49.781,-23.46
49.796,-22.13
49.812,-20.63
49.828,-18.93
49.843,-17.0
49.859,-14.75
49.875,-12.2
49.890,-9.44
49.906,-6.49
49.921,-3.38
49.937,-0.15
49.953,3.16
49.968,6.52
49.984,9.81
50.000,12.85
50.015,15.44
50.031,17.33
50.046,18.31
50.062,18.19
50.078,16.89
50.093,14.36
50.109,10.83
50.125,6.64
50.140,2.39
50.156,-1.45
50.171,-4.35
50.187,-6.04
50.203,-6.47
50.218,-5.74
50.234,-4.11
50.250,-1.88
50.265,0.66
50.281,3.28
50.296,5.77
50.312,7.94
50.328,9.65
50.343,10.72
50.359,11.07
50.375,10.7
50.390,9.72
50.406,8.38
50.421,6.96
50.437,5.67
50.453,4.66
50.468,3.95
50.484,3.53
50.500,3.33
50.515,3.25
50.531,3.15
50.546,2.85
50.562,2.22
50.578,1.18
50.593,-0.21
50.609,-1.96
50.625,-3.92
50.640,-5.96
50.656,-7.99
50.671,-9.79
50.687,-11.2
50.703,-11.99
50.718,-12.06
50.734,-11.39
50.750,-10.14
50.765,-8.44
50.781,-6.42
50.796,-4.21
50.812,-1.9
50.828,0.34
50.843,2.25
50.859,3.64
50.875,4.47
50.890,4.94
50.906,5.4
50.921,6.22
50.937,7.53
50.953,9.23
50.968,11.01
50.984,12.57
51.000,13.67
51.015,14.15
51.031,14.11
51.046,13.67
51.062,12.93
51.078,11.89
51.093,10.59
51.109,8.99
51.125,7.18
51.140,5.3
51.156,3.52
51.171,2.16
51.187,1.38
51.203,1.36
51.218,2.04
51.234,3.22
51.250,4.59
51.265,5.85
51.281,6.78
51.296,7.27
51.312,7.36
51.328,7.16
51.343,6.7
51.359,5.89
51.375,4.57
51.390,2.69
51.406,0.42
51.421,-1.88
51.437,-3.72
51.453,-4.85
51.468,-5.31
51.484,-5.44
51.500,-5.66
51.515,-6.37
51.531,-7.69
51.546,-9.5
51.562,-11.47
51.578,-13.31
51.593,-14.78
51.609,-15.79
51.625,-16.25
51.640,-15.96
51.656,-14.8
51.671,-12.79
51.687,-10.09
51.703,-7.05
51.718,-4.15
51.734,-1.78
51.750,-0.17
51.765,0.71
51.781,1.21
51.796,1.75
51.812,2.59
51.828,3.9
51.843,5.58
51.859,7.33
51.875,8.83
51.890,9.84
51.906,10.29
51.921,10.32
51.937,10.19
51.953,10.14
51.968,10.27
51.984,10.5
52.000,10.59
52.015,10.3
52.031,9.48
52.046,8.18
52.062,6.64
52.078,5.19
52.093,4.2
52.109,3.88
52.125,4.21
52.140,5.04
52.156,6.12
52.171,7.12
52.187,7.76
52.203,7.93
52.218,7.53
52.234,6.64
52.250,5.4
52.265,3.86
52.281,2.18
52.296,0.53
52.312,-1.07
52.328,-2.55
52.343,-3.82
52.359,-4.9
52.375,-5.86
52.390,-6.71
52.406,-7.6
52.421,-8.47
52.437,-9.25
52.453,-9.8
52.468,-9.98
52.484,-9.74
52.500,-9.24
52.515,-8.66
52.531,-8.1
52.546,-7.55
52.562,-6.82
52.578,-5.74
52.593,-4.24
52.609,-2.49
52.625,-0.73
52.640,0.86
52.656,2.26
52.671,3.66
52.687,5.21
52.703,6.98
52.718,8.84
52.734,10.5
52.750,11.67
52.765,12.14
52.781,11.82
52.796,10.74
52.812,8.87
52.828,6.16
52.843,2.55
52.859,-1.96
52.875,-7.36
52.890,-13.25
52.906,-19.05
52.921,-23.76
52.937,-26.28
52.953,-25.61
52.968,-21.36
52.984,-13.72
53.000,-3.54
53.015,8.03
53.031,19.9
53.046,31.26
53.062,41.57
53.078,50.44
53.093,57.49
53.109,62.33
53.125,64.75
53.140,64.87
53.156,63.18
53.171,60.39
53.187,57.17
53.203,53.86
53.218,50.52
53.234,47.13
53.250,43.69
53.265,40.45
53.281,37.74
53.296,35.93
53.312,35.25
53.328,35.53
53.343,36.36
53.359,37.18
53.375,37.46
53.390,36.84
53.406,35.27
53.421,32.9
53.437,30.04
53.453,27.09
53.468,24.34
53.484,22.02
53.500,20.14
53.515,18.56
53.531,16.84
53.546,14.41
53.562,10.73
53.578,5.4
53.593,-1.52
53.609,-9.62
53.625,-18.07
53.640,-25.99
53.656,-32.63
53.671,-37.79
53.687,-41.76
53.703,-45.22
53.718,-49.1
53.734,-54.12
53.750,-60.67
53.765,-68.62
53.781,-77.37
53.796,-85.99
53.812,-93.53
53.828,-99.35
53.843,-103.05
53.859,-104.6
53.875,-104.06
53.890,-101.78
53.906,-97.96
53.921,-92.63
53.937,-85.26
53.953,-74.74
53.968,-59.79
53.984,-39.65
54.000,-14.92
54.015,12.2
54.031,38.19
54.046,59.24
54.062,72.57
54.078,77.23
54.093,74.11
54.109,65.3
54.125,53.14
54.140,39.42
54.156,25.47
54.171,12.26
54.187,0.83
54.203,-7.77
54.218,-12.71
54.234,-13.73
54.250,-11.11
54.265,-5.79
54.281,0.93
54.296,7.78
54.312,13.78
54.328,18.42
54.343,21.71
54.359,24.0
54.375,25.73
54.390,27.31
54.406,28.74
54.421,29.69
54.437,29.66
54.453,28.25
54.468,25.38
54.484,21.35
54.500,16.78
54.515,12.28
54.531,8.14
54.546,3.98
54.562,-1.17
54.578,-8.56
54.593,-19.43
54.609,-34.64
54.625,-54.24
54.640,-77.08
54.656,-100.93
54.671,-122.83
54.687,-139.34
54.703,-147.1
54.718,-143.39
54.734,-126.97
54.750,-98.47
54.765,-60.76
54.781,-18.52
54.796,22.69
54.812,57.6
54.828,82.66
54.843,96.5
54.859,99.93
54.875,95.01
54.890,84.27
54.906,70.02
54.921,54.12
54.937,38.08
54.953,23.23
54.968,10.86
54.984,1.74
55.000,-3.85
55.015,-6.25
55.031,-6.17
55.046,-4.48
55.062,-1.93
55.078,0.75
55.093,3.06
55.109,4.81
55.125,5.83
55.140,6.15
55.156,5.92
55.171,5.3
55.187,4.36
55.203,3.17
55.218,1.76
55.234,0.25
55.250,-1.08
55.265,-1.98
55.281,-2.34
55.296,-2.18
55.312,-1.76
55.328,-1.41
55.343,-1.39
55.359,-1.7
55.375,-2.12
55.390,-2.36
55.406,-2.11
55.421,-1.35
55.437,-0.24
55.453,0.73
55.468,1.06
55.484,0.37
55.500,-1.42
55.515,-3.95
55.531,-6.58
55.546,-8.63
55.562,-9.61
55.578,-9.34
55.593,-8.16
55.609,-6.54
55.625,-4.88
55.640,-3.39
55.656,-2.06
55.671,-0.91
55.687,-0.03
55.703,0.43
55.718,0.36
55.734,-0.12
55.750,-0.7
55.765,-0.88
55.781,-0.47
55.796,0.49
55.812,1.64
55.828,2.53
55.843,2.82
55.859,2.36
55.875,1.22
55.890,-0.49
55.906,-2.55
55.921,-4.78
55.937,-6.93
55.953,-8.73
55.968,-9.98
55.984,-10.57
56.000,-10.65
56.015,-10.43
56.031,-10.16
56.046,-10.04
56.062,-10.14
56.078,-10.34
56.093,-10.49
56.109,-10.37
56.125,-9.79
56.140,-8.6
56.156,-6.76
56.171,-4.35
56.187,-1.53
56.203,1.46
56.218,4.37
56.234,6.93
56.250,8.93
56.265,10.37
56.281,11.34
56.296,12.02
56.312,12.63
56.328,13.25
56.343,13.84
56.359,14.3
56.375,14.47
56.390,14.26
56.406,13.76
56.421,13.17
56.437,12.58
56.453,11.97
56.468,11.17
56.484,9.94
56.500,8.22
56.515,6.0
56.531,3.48
56.546,0.93
56.562,-1.54
56.578,-3.79
56.593,-5.79
56.609,-7.51
56.625,-8.96
56.640,-9.93
56.656,-10.3
56.671,-9.86
56.687,-8.56
56.703,-6.59
56.718,-4.32
56.734,-2.12
56.750,-0.3
56.765,1.04
56.781,2.12
56.796,3.07
56.812,4.09
56.828,5.18
56.843,6.18
56.859,6.84
56.875,7.06
56.890,6.86
56.906,6.29
56.921,5.59
56.937,4.9
56.953,4.32
56.968,3.96
56.984,3.92
57.000,4.27
57.015,5.01
57.031,6.08
57.046,7.31
57.062,8.53
57.078,9.53
57.093,10.15
57.109,10.36
57.125,10.16
57.140,9.66
57.156,8.99
57.171,8.29
57.187,7.66
57.203,7.17
57.218,6.72
57.234,6.21
57.250,5.6
57.265,4.88
57.281,4.24
57.296,3.81
57.312,3.63
57.328,3.53
57.343,3.4
57.359,3.06
57.375,2.58
57.390,2.27
57.406,2.4
57.421,3.19
57.437,4.51
57.453,5.93
57.468,6.9
57.484,7.08
57.500,6.42
57.515,5.23
57.531,4.11
57.546,3.63
57.562,4.25
57.578,6.01
57.593,8.7
57.609,11.98
57.625,15.57
57.640,19.41
57.656,23.65
57.671,28.51
57.687,34.16
57.703,40.59
57.718,47.51
57.734,54.61
57.750,61.5
57.765,67.97
57.781,73.85
57.796,79.04
57.812,83.31
57.828,86.36
57.843,88.01
57.859,88.13
57.875,86.52
57.890,82.54
57.906,74.95
57.921,62.17
57.937,42.85
57.953,16.72
57.968,-14.94
57.984,-49.26
58.000,-82.81
58.015,-112.37
58.031,-135.79
58.046,-152.09
58.062,-160.87
58.078,-161.99
58.093,-155.39
58.109,-141.31
58.125,-120.69
58.140,-95.45
58.156,-68.01
58.171,-40.95
58.187,-16.27
58.203,4.85
58.218,21.86
58.234,34.61
58.250,43.11
58.265,47.39
58.281,47.58
58.296,44.21
58.312,38.1
58.328,30.18
58.343,21.49
58.359,12.91
58.375,5.17
58.390,-1.13
58.406,-5.56
58.421,-7.75
58.437,-7.48
58.453,-4.86
58.468,-0.33
58.484,5.5
58.500,11.96
58.515,18.58
58.531,25.04
58.546,31.13
58.562,36.59
58.578,41.03
58.593,43.96
58.609,44.77
58.625,43.16
58.640,39.15
58.656,33.13
58.671,25.82
58.687,17.87
58.703,9.71
58.718,1.49
58.734,-6.79
58.750,-15.15
58.765,-23.28
58.781,-30.76
58.796,-37.03
58.812,-41.57
58.828,-43.91
58.843,-43.66
58.859,-40.57
58.875,-34.63
58.890,-26.23
58.906,-16.21
58.921,-5.81
58.937,3.64
58.953,11.03
58.968,16.02
58.984,18.93
59.000,20.6
59.015,21.95
59.031,23.56
59.046,25.68
59.062,28.3
59.078,31.23
59.093,34.09
59.109,36.41
59.125,37.57
59.140,36.85
59.156,33.57
59.171,26.99
59.187,16.78
59.203,2.91
59.218,-14.24
59.234,-33.85
59.250,-54.49
59.265,-73.92
59.281,-89.24
59.296,-97.24
59.312,-95.29
59.328,-82.06
59.343,-58.1
59.359,-25.91
59.375,10.51
59.390,46.48
59.406,77.54
59.421,100.18
59.437,112.32
59.453,113.38
59.468,104.37
59.484,87.56
59.500,65.81
59.515,42.24
59.531,19.36
59.546,-1.46
59.562,-19.9
59.578,-36.27
59.593,-50.93
59.609,-63.8
59.625,-74.21
59.640,-81.39
59.656,-84.61
59.671,-83.49
59.687,-78.17
59.703,-69.1
59.718,-56.72
59.734,-41.47
59.750,-23.86
59.765,-4.42
59.781,16.08
59.796,36.72
59.812,56.42
59.828,73.99
59.843,88.33
59.859,98.53
59.875,104.04
59.890,104.72
59.906,100.88
59.921,93.27
59.937,82.72
59.953,70.04
59.968,55.85
59.984,41.01
