timestamp,value
00.000,-7.1
00.015,-2.98
00.031,2.55
00.046,8.38
00.062,13.43
00.078,16.95
00.093,18.52
00.109,18.24
00.125,16.48
00.140,13.7
00.156,10.34
00.171,6.65
00.187,2.66
00.203,-1.55
00.218,-5.74
00.234,-9.63
00.250,-12.68
00.265,-14.56
00.281,-15.26
00.296,-14.98
00.312,-14.1
00.328,-12.89
00.343,-11.42
00.359,-9.44
00.375,-6.68
00.390,-2.88
00.406,1.88
00.421,7.15
00.437,12.31
00.453,16.71
00.468,19.82
00.484,21.58
00.500,22.13
00.515,21.58
00.531,19.79
00.546,16.19
00.562,10.15
00.578,1.54
00.593,-8.91
00.609,-19.62
00.625,-28.29
00.640,-32.79
00.656,-31.74
00.671,-25.03
00.687,-13.98
00.703,-1.29
00.718,9.93
00.734,16.62
00.750,17.13
00.765,11.76
00.781,3.02
00.796,-5.25
00.812,-9.26
00.828,-6.69
00.843,2.33
00.859,15.41
00.875,28.59
00.890,37.72
00.906,39.52
00.921,32.64
00.937,17.96
00.953,-1.63
00.968,-22.04
00.984,-39.0
01.000,-49.55
01.015,-52.74
01.031,-49.53
01.046,-42.2
01.062,-32.94
01.078,-22.92
01.093,-12.12
01.109,0.05
01.125,13.99
01.140,29.09
01.156,43.84
01.171,56.46
01.187,65.66
01.203,71.13
01.218,73.75
01.234,74.95
01.250,76.36
01.265,79.27
01.281,84.33
01.296,91.63
01.312,100.59
01.328,109.99
01.343,118.12
01.359,123.22
01.375,123.69
01.390,118.71
01.406,108.26
01.421,93.14
01.437,74.82
01.453,54.94
01.468,34.65
01.484,14.6
01.500,-5.01
01.515,-23.95
01.531,-41.18
01.546,-54.82
01.562,-62.4
01.578,-61.82
01.593,-52.44
01.609,-35.75
01.625,-15.11
01.640,5.33
01.656,21.9
01.671,32.63
01.687,37.45
01.703,37.72
01.718,35.45
01.734,32.32
01.750,29.07
01.765,25.55
01.781,20.95
01.796,14.28
01.812,5.2
01.828,-5.87
01.843,-18.03
01.859,-30.18
01.875,-41.86
01.890,-53.53
01.906,-66.45
01.921,-82.13
01.937,-101.7
01.953,-125.17
01.968,-151.24
01.984,-177.57
02.000,-201.06
02.015,-218.53
02.031,-227.05
02.046,-224.7
02.062,-210.91
02.078,-186.76
02.093,-154.98
02.109,-119.44
02.125,-84.49
02.140,-53.8
02.156,-29.76
02.171,-12.83
02.187,-1.87
02.203,5.09
02.218,10.11
02.234,14.44
02.250,18.49
02.265,21.9
02.281,24.21
02.296,24.9
02.312,23.69
02.328,20.59
02.343,15.79
02.359,9.96
02.375,4.27
02.390,0.27
02.406,-0.66
02.421,2.32
02.437,8.77
02.453,17.24
02.468,25.86
02.484,32.81
02.500,36.96
02.515,38.03
02.531,36.41
02.546,32.78
02.562,27.9
02.578,22.48
02.593,17.19
02.609,12.79
02.625,9.79
02.640,8.14
02.656,7.1
02.671,5.51
02.687,2.28
02.703,-2.79
02.718,-8.59
02.734,-13.25
02.750,-14.78
02.765,-12.18
02.781,-6.06
02.796,1.4
02.812,7.24
02.828,8.86
02.843,4.96
02.859,-3.86
02.875,-15.75
02.890,-28.0
02.906,-38.23
02.921,-44.81
02.937,-47.32
02.953,-46.67
02.968,-44.49
02.984,-42.64
03.000,-42.6
03.015,-45.08
03.031,-49.73
03.046,-55.54
03.062,-61.23
03.078,-65.69
03.093,-68.4
03.109,-69.5
03.125,-69.31
03.140,-68.25
03.156,-66.58
03.171,-64.24
03.187,-61.21
03.203,-57.83
03.218,-54.67
03.234,-52.42
03.250,-51.59
03.265,-52.1
03.281,-53.22
03.296,-53.73
03.312,-52.11
03.328,-46.94
03.343,-37.38
03.359,-23.29
03.375,-5.62
03.390,13.64
03.406,31.56
03.421,45.09
03.437,52.38
03.453,53.57
03.468,51.34
03.484,49.81
03.500,52.94
03.515,62.2
03.531,75.62
03.546,88.21
03.562,94.05
03.578,89.14
03.593,73.28
03.609,50.11
03.625,25.45
03.640,4.75
03.656,-9.32
03.671,-17.73
03.687,-24.17
03.703,-33.17
03.718,-47.72
03.734,-67.67
03.750,-89.92
03.765,-109.89
03.781,-123.47
03.796,-128.29
03.812,-123.82
03.828,-110.41
03.843,-88.28
03.859,-57.19
03.875,-17.15
03.890,30.6
03.906,82.8
03.921,134.51
03.937,180.56
03.953,217.24
03.968,243.17
03.984,259.03
04.000,266.34
04.015,266.49
04.031,260.36
04.046,248.64
04.062,232.19
04.078,212.43
04.093,191.11
04.109,169.89
04.125,149.8
04.140,130.85
04.156,112.41
04.171,94.08
04.187,76.76
04.203,62.57
04.218,54.28
04.234,53.63
04.250,59.85
04.265,69.74
04.281,78.44
04.296,81.48
04.312,76.44
04.328,63.79
04.343,46.11
04.359,26.68
04.375,7.88
04.390,-9.8
04.406,-26.99
04.421,-44.49
04.437,-62.01
04.453,-77.98
04.468,-90.15
04.484,-96.58
04.500,-96.74
04.515,-91.55
04.531,-82.94
04.546,-72.93
04.562,-62.94
04.578,-53.4
04.593,-44.12
04.609,-34.93
04.625,-26.08
04.640,-18.28
04.656,-12.49
04.671,-9.54
04.687,-9.48
04.703,-11.8
04.718,-15.45
04.734,-19.41
04.750,-23.31
04.765,-27.71
04.781,-33.99
04.796,-43.41
04.812,-56.25
04.828,-70.86
04.843,-83.98
04.859,-91.75
04.875,-91.16
04.890,-81.49
04.906,-64.48
04.921,-44.06
04.937,-24.71
04.953,-10.26
04.968,-2.98
04.984,-3.22
05.000,-9.85
05.015,-20.65
05.031,-32.96
05.046,-44.06
05.062,-52.0
05.078,-55.82
05.093,-55.64
05.109,-52.37
05.125,-46.95
05.140,-39.7
05.156,-30.32
05.171,-18.44
05.187,-4.17
05.203,11.13
05.218,25.24
05.234,35.81
05.250,41.57
05.265,42.94
05.281,41.93
05.296,40.92
05.312,41.31
05.328,43.05
05.343,44.72
05.359,44.63
05.375,41.65
05.390,35.67
05.406,27.35
05.421,17.63
05.437,7.21
05.453,-3.71
05.468,-15.16
05.484,-27.07
05.500,-39.03
05.515,-50.13
05.531,-59.21
05.546,-64.92
05.562,-65.83
05.578,-60.87
05.593,-49.41
05.609,-31.88
05.625,-9.95
05.640,13.58
05.656,35.26
05.671,51.67
05.687,60.37
05.703,60.6
05.718,53.46
05.734,41.63
05.750,28.42
05.765,16.57
05.781,7.71
05.796,2.11
05.812,-0.74
05.828,-1.51
05.843,-0.5
05.859,2.29
05.875,6.64
05.890,11.85
05.906,16.51
05.921,19.23
05.937,19.16
05.953,16.56
05.968,12.64
05.984,8.76
06.000,5.61
06.015,2.75
06.031,-0.69
06.046,-5.17
06.062,-9.71
06.078,-12.24
06.093,-10.59
06.109,-4.11
06.125,5.57
06.140,14.84
06.156,19.73
06.171,17.97
06.187,9.83
06.203,-2.03
06.218,-14.05
06.234,-23.36
06.250,-28.67
06.265,-30.1
06.281,-28.35
06.296,-24.02
06.312,-17.2
06.328,-8.1
06.343,2.53
06.359,13.18
06.375,21.89
06.390,27.05
06.406,27.97
06.421,25.24
06.437,20.46
06.453,15.58
06.468,12.01
06.484,10.33
06.500,10.25
06.515,10.83
06.531,11.23
06.546,10.81
06.562,9.51
06.578,7.78
06.593,6.45
06.609,6.05
06.625,6.71
06.640,7.89
06.656,8.49
06.671,7.65
06.687,5.03
06.703,1.26
06.718,-2.41
06.734,-4.71
06.750,-5.03
06.765,-3.46
06.781,-0.59
06.796,2.84
06.812,6.51
06.828,10.38
06.843,14.59
06.859,19.23
06.875,23.96
06.890,28.34
06.906,31.97
06.921,34.84
06.937,37.15
06.953,39.28
06.968,41.71
06.984,44.84
07.000,49.17
07.015,54.81
07.031,61.5
07.046,68.68
07.062,75.53
07.078,81.36
07.093,85.95
07.109,89.66
07.125,93.3
07.140,97.68
07.156,102.98
07.171,108.6
07.187,113.3
07.203,115.69
07.218,114.97
07.234,111.12
07.250,105.02
07.265,98.04
07.281,91.56
07.296,86.28
07.312,82.02
07.328,77.85
07.343,72.32
07.359,64.27
07.375,53.21
07.390,39.53
07.406,24.35
07.421,9.17
07.437,-4.7
07.453,-16.54
07.468,-26.15
07.484,-33.8
07.500,-39.8
07.515,-44.14
07.531,-46.69
07.546,-47.49
07.562,-47.24
07.578,-47.18
07.593,-48.88
07.609,-53.52
07.625,-61.37
07.640,-71.58
07.656,-82.45
07.671,-92.13
07.687,-99.27
07.703,-103.69
07.718,-106.29
07.734,-108.65
07.750,-112.53
07.765,-119.27
07.781,-129.33
07.796,-142.11
07.812,-156.37
07.828,-170.24
07.843,-181.8
07.859,-189.44
07.875,-192.1
07.890,-189.2
07.906,-180.9
07.921,-167.99
07.937,-151.93
07.953,-134.95
07.968,-119.68
07.984,-108.32
08.000,-102.05
08.015,-100.67
08.031,-102.65
08.046,-105.91
08.062,-108.25
08.078,-107.94
08.093,-103.91
08.109,-95.96
08.125,-84.65
08.140,-71.12
08.156,-56.96
08.171,-43.93
08.187,-33.91
08.203,-28.26
08.218,-27.51
08.234,-30.94
08.250,-36.38
08.265,-40.45
08.281,-39.53
08.296,-30.97
08.312,-13.9
08.328,10.22
08.343,38.33
08.359,67.09
08.375,93.79
08.390,117.04
08.406,136.5
08.421,151.98
08.437,162.92
08.453,168.5
08.468,168.03
08.484,161.85
08.500,151.5
08.515,139.34
08.531,127.65
08.546,117.49
08.562,108.23
08.578,98.03
08.593,85.18
08.609,69.03
08.625,50.76
08.640,32.74
08.656,17.25
08.671,5.46
08.687,-3.25
08.703,-10.7
08.718,-18.39
08.734,-26.43
08.750,-33.44
08.765,-37.47
08.781,-37.38
08.796,-33.99
08.812,-29.62
08.828,-26.99
08.843,-27.8
08.859,-31.77
08.875,-37.12
08.890,-41.42
08.906,-42.76
08.921,-40.41
08.937,-34.67
08.953,-26.54
08.968,-17.24
08.984,-8.14
09.000,-0.12
09.015,6.56
09.031,12.65
09.046,19.83
09.062,29.91
09.078,43.9
09.093,61.29
09.109,79.86
09.125,96.01
09.140,105.97
09.156,106.84
09.171,97.7
09.187,80.09
09.203,57.54
09.218,34.67
09.234,15.8
09.250,3.82
09.265,-0.75
09.281,0.55
09.296,4.97
09.312,9.88
09.328,13.97
09.343,17.41
09.359,21.23
09.375,25.98
09.390,31.41
09.406,36.3
09.421,39.33
09.437,39.91
09.453,38.65
09.468,37.15
09.484,36.95
09.500,38.89
09.515,42.48
09.531,46.43
09.546,49.39
09.562,50.59
09.578,50.38
09.593,49.73
09.609,49.87
09.625,51.47
09.640,54.47
09.656,58.11
09.671,61.22
09.687,62.65
09.703,61.72
09.718,58.62
09.734,54.21
09.750,49.99
09.765,47.14
09.781,46.1
09.796,46.21
09.812,46.05
09.828,43.91
09.843,38.7
09.859,30.36
09.875,19.41
09.890,6.43
09.906,-8.55
09.921,-25.94
09.937,-46.07
09.953,-68.27
09.968,-90.46
09.984,-109.66
10.000,-122.67
10.015,-127.35
10.031,-123.28
10.046,-111.76
10.062,-95.5
10.078,-77.89
10.093,-62.22
10.109,-50.88
10.125,-45.03
10.140,-44.29
10.156,-47.46
10.171,-53.11
10.187,-60.27
10.203,-68.76
10.218,-78.51
10.234,-89.19
10.250,-99.34
10.265,-106.74
10.281,-109.2
10.296,-105.8
10.312,-97.42
10.328,-86.44
10.343,-75.71
10.359,-67.31
10.375,-61.9
10.390,-58.86
10.406,-56.93
10.421,-54.91
10.437,-52.11
10.453,-48.37
10.468,-43.9
10.484,-39.23
10.500,-34.84
10.515,-30.95
10.531,-27.27
10.546,-22.98
10.562,-17.06
10.578,-8.65
10.593,2.38
10.609,15.41
10.625,29.03
10.640,41.82
10.656,52.75
10.671,61.42
10.687,67.76
10.703,71.54
10.718,72.52
10.734,70.36
10.750,64.84
10.765,55.58
10.781,41.67
10.796,22.04
10.812,-4.1
10.828,-36.38
10.843,-72.76
10.859,-108.98
10.875,-139.35
10.890,-157.83
10.906,-159.44
10.921,-141.75
10.937,-105.31
10.953,-53.44
10.968,8.44
10.984,73.86
11.000,136.13
11.015,188.7
11.031,225.63
11.046,242.05
11.062,234.9
11.078,203.85
11.093,152.18
11.109,86.5
11.125,15.29
11.140,-53.41
11.156,-114.48
11.171,-166.55
11.187,-210.6
11.203,-247.4
11.218,-275.5
11.234,-290.68
11.250,-287.69
11.265,-263.26
11.281,-218.57
11.296,-159.74
11.312,-96.16
11.328,-37.22
11.343,10.87
11.359,46.75
11.375,73.58
11.390,96.96
11.406,122.37
11.421,153.21
11.437,189.98
11.453,230.89
11.468,273.1
11.484,314.05
11.500,351.94
11.515,385.47
11.531,412.62
11.546,429.74
11.562,432.01
11.578,415.04
11.593,377.34
11.609,322.19
11.625,257.32
11.640,192.62
11.656,136.68
11.671,93.63
11.687,62.26
11.703,37.95
11.718,15.68
11.734,-7.2
11.750,-29.91
11.765,-49.8
11.781,-64.65
11.796,-74.23
11.812,-80.5
11.828,-86.31
11.843,-93.54
11.859,-102.23
11.875,-110.7
11.890,-116.32
11.906,-117.08
11.921,-112.47
11.937,-103.43
11.953,-92.08
11.968,-80.76
11.984,-71.19
12.000,-64.32
12.015,-60.04
12.031,-57.47
12.046,-55.68
12.062,-54.0
12.078,-52.12
12.093,-50.13
12.109,-48.33
12.125,-46.83
12.140,-45.6
12.156,-44.27
12.171,-42.3
12.187,-39.42
12.203,-35.85
12.218,-32.09
12.234,-28.92
12.250,-26.91
12.265,-26.12
12.281,-26.28
12.296,-26.8
12.312,-27.25
12.328,-27.55
12.343,-28.15
12.359,-29.42
12.375,-31.67
12.390,-34.66
12.406,-37.67
12.421,-39.88
12.437,-40.74
12.453,-40.16
12.468,-38.58
12.484,-36.72
12.500,-35.31
12.515,-34.8
12.531,-35.29
12.546,-36.45
12.562,-37.9
12.578,-39.26
12.593,-40.31
12.609,-41.04
12.625,-41.59
12.640,-42.13
12.656,-42.92
12.671,-44.09
12.687,-45.48
12.703,-46.81
12.718,-47.53
12.734,-46.96
12.750,-44.57
12.765,-40.07
12.781,-33.58
12.796,-25.71
12.812,-17.48
12.828,-9.84
12.843,-3.75
12.859,0.36
12.875,2.49
12.890,3.09
12.906,2.9
12.921,2.72
12.937,3.07
12.953,4.07
12.968,5.47
12.984,6.75
13.000,7.39
13.015,7.09
13.031,5.74
13.046,3.48
13.062,0.6
13.078,-2.58
13.093,-5.65
13.109,-8.05
13.125,-9.33
13.140,-9.11
13.156,-7.43
13.171,-4.83
13.187,-2.11
13.203,-0.2
13.218,0.33
13.234,-0.65
13.250,-2.63
13.265,-5.02
13.281,-7.13
13.296,-8.67
13.312,-9.78
13.328,-10.72
13.343,-11.91
13.359,-13.48
13.375,-15.33
13.390,-17.08
13.406,-18.41
13.421,-19.08
13.437,-19.14
13.453,-18.88
13.468,-18.57
13.484,-18.41
13.500,-18.39
13.515,-18.35
13.531,-18.05
13.546,-17.42
13.562,-16.47
13.578,-15.45
13.593,-14.65
13.609,-14.24
13.625,-14.3
13.640,-14.83
13.656,-15.78
13.671,-17.13
13.687,-18.84
13.703,-20.68
13.718,-22.47
13.734,-23.96
13.750,-25.02
13.765,-25.69
13.781,-26.21
13.796,-26.74
13.812,-27.77
13.828,-29.53
13.843,-32.03
13.859,-35.16
13.875,-38.6
13.890,-41.92
13.906,-44.83
13.921,-47.31
13.937,-49.38
13.953,-51.4
13.968,-53.69
13.984,-56.37
14.000,-59.43
14.015,-62.53
14.031,-65.0
14.046,-65.89
14.062,-63.99
14.078,-58.23
14.093,-48.29
14.109,-34.87
14.125,-19.68
14.140,-4.98
14.156,7.39
14.171,16.56
14.187,22.62
14.203,26.38
14.218,28.51
14.234,29.14
14.250,27.98
14.265,24.83
14.281,19.88
14.296,14.23
14.312,9.19
14.328,5.56
14.343,3.5
14.359,2.51
14.375,1.81
14.390,0.99
14.406,0.24
14.421,-0.08
14.437,0.6
14.453,2.45
14.468,5.23
14.484,8.35
14.500,11.2
14.515,13.22
14.531,13.99
14.546,13.28
14.562,10.99
14.578,7.22
14.593,2.13
14.609,-3.89
14.625,-10.46
14.640,-17.03
14.656,-23.12
14.671,-28.38
14.687,-32.66
14.703,-36.13
14.718,-39.11
14.734,-42.05
14.750,-45.18
14.765,-48.33
14.781,-50.84
14.796,-51.8
14.812,-50.28
14.828,-45.64
14.843,-38.0
14.859,-28.04
14.875,-16.95
14.890,-5.99
14.906,3.81
14.921,11.82
14.937,17.79
14.953,21.77
14.968,24.12
14.984,25.22
15.000,25.68
15.015,25.98
15.031,26.33
15.046,26.69
15.062,26.58
15.078,25.57
15.093,23.33
15.109,20.05
15.125,16.19
15.140,12.4
15.156,9.27
15.171,7.16
15.187,6.17
15.203,6.06
15.218,6.5
15.234,6.98
15.250,7.01
15.265,6.06
15.281,3.82
15.296,0.28
15.312,-4.22
15.328,-9.0
15.343,-13.36
15.359,-16.83
15.375,-19.27
15.390,-21.0
15.406,-22.51
15.421,-24.34
15.437,-26.87
15.453,-30.28
15.468,-34.39
15.484,-38.75
15.500,-42.54
15.515,-44.62
15.531,-44.01
15.546,-39.95
15.562,-32.4
15.578,-22.1
15.593,-10.48
15.609,0.92
15.625,10.8
15.640,18.47
15.656,24.09
15.671,28.37
15.687,32.39
15.703,36.97
15.718,42.73
15.734,49.79
15.750,58.1
15.765,67.41
15.781,77.0
15.796,85.56
15.812,91.03
15.828,91.31
15.843,84.98
15.859,72.13
15.875,54.76
15.890,35.97
15.906,18.88
15.921,5.41
15.937,-4.21
15.953,-11.1
15.968,-16.76
15.984,-22.07
16.000,-27.13
16.015,-31.43
16.031,-34.64
16.046,-37.06
16.062,-39.68
16.078,-43.41
16.093,-48.82
16.109,-55.61
16.125,-62.82
16.140,-69.42
16.156,-74.79
16.171,-79.08
16.187,-82.77
16.203,-86.59
16.218,-90.65
16.234,-94.55
16.250,-97.31
16.265,-97.65
16.281,-94.61
16.296,-87.79
16.312,-77.64
16.328,-65.11
16.343,-51.47
16.359,-37.87
16.375,-25.15
16.390,-13.59
16.406,-3.15
16.421,6.3
16.437,14.83
16.453,22.23
16.468,28.22
16.484,32.73
16.500,36.21
16.515,39.66
16.531,44.55
16.546,52.29
16.562,63.5
16.578,77.95
16.593,94.52
16.609,111.49
16.625,127.21
16.640,140.32
16.656,149.85
16.671,155.05
16.687,155.43
16.703,150.7
16.718,141.16
16.734,127.75
16.750,111.87
16.765,94.95
16.781,77.9
16.796,60.92
16.812,43.72
16.828,26.01
16.843,7.93
16.859,-9.78
16.875,-26.31
16.890,-40.96
16.906,-53.25
16.921,-62.59
16.937,-68.01
16.953,-67.97
16.968,-61.03
16.984,-46.47
17.000,-24.82
17.015,1.99
17.031,31.29
17.046,60.37
17.062,86.69
17.078,107.72
17.093,120.99
17.109,124.03
17.125,115.32
17.140,95.53
17.156,68.11
17.171,38.7
17.187,13.19
17.203,-4.37
17.218,-13.62
17.234,-17.67
17.250,-21.84
17.265,-31.27
17.281,-48.86
17.296,-74.66
17.312,-105.85
17.328,-138.11
17.343,-166.25
17.359,-184.85
17.375,-189.44
17.390,-178.01
17.406,-152.42
17.421,-118.5
17.437,-84.87
17.453,-59.56
17.468,-46.88
17.484,-45.66
17.500,-49.49
17.515,-49.71
17.531,-38.67
17.546,-12.66
17.562,27.29
17.578,75.34
17.593,122.65
17.609,159.38
17.625,177.04
17.640,171.52
17.656,144.92
17.671,105.64
17.687,65.35
17.703,34.59
17.718,17.92
17.734,12.03
17.750,7.86
17.765,-4.66
17.781,-30.9
17.796,-68.94
17.812,-110.31
17.828,-144.5
17.843,-164.01
17.859,-167.55
17.875,-159.92
17.890,-148.66
17.906,-140.29
17.921,-136.69
17.937,-135.28
17.953,-130.74
17.968,-118.27
17.984,-96.17
18.000,-66.5
18.015,-33.57
18.031,-1.41
18.046,27.92
18.062,54.95
18.078,81.08
18.093,106.92
18.109,131.2
18.125,150.73
18.140,162.21
18.156,163.94
18.171,156.74
18.187,143.26
18.203,126.74
18.218,109.37
18.234,91.65
18.250,72.78
18.265,51.35
18.281,26.71
18.296,-0.49
18.312,-28.15
18.328,-53.68
18.343,-74.89
18.359,-91.03
18.375,-103.01
18.390,-112.72
18.406,-122.02
18.421,-131.15
18.437,-138.09
18.453,-138.93
18.468,-129.41
18.484,-106.61
18.500,-70.75
18.515,-25.76
18.531,21.73
18.546,64.1
18.562,95.14
18.578,111.87
18.593,115.07
18.609,108.32
18.625,96.01
18.640,81.38
18.656,65.25
18.671,46.9
18.687,25.8
18.703,3.46
18.718,-16.06
18.734,-27.58
18.750,-27.49
18.765,-16.25
18.781,1.36
18.796,17.91
18.812,26.94
18.828,25.84
18.843,17.03
18.859,6.6
18.875,1.39
18.890,5.65
18.906,19.15
18.921,37.19
18.937,52.35
18.953,57.84
18.968,49.88
18.984,29.52
19.000,2.21
19.015,-24.2
19.031,-42.03
19.046,-46.27
19.062,-35.84
19.078,-14.05
19.093,12.81
19.109,36.97
19.125,51.64
19.140,53.15
19.156,42.12
19.171,23.7
19.187,6.12
19.203,-2.09
19.218,4.89
19.234,27.74
19.250,61.75
19.265,98.47
19.281,128.97
19.296,146.8
19.312,149.6
19.328,138.86
19.343,117.91
19.359,90.23
19.375,58.44
19.390,24.79
19.406,-7.73
19.421,-34.88
19.437,-52.16
19.453,-56.41
19.468,-47.29
19.484,-27.72
19.500,-2.48
19.515,23.91
19.531,48.75
19.546,70.91
19.562,89.46
19.578,101.91
19.593,103.99
19.609,91.15
19.625,61.25
19.640,17.0
19.656,-34.01
19.671,-81.21
19.687,-114.57
19.703,-128.35
19.718,-122.39
19.734,-101.47
19.750,-72.41
19.765,-41.03
19.781,-10.07
19.796,20.76
19.812,52.74
19.828,85.86
19.843,117.03
19.859,140.76
19.875,151.19
19.890,145.26
19.906,124.89
19.921,96.59
19.937,69.09
19.953,49.48
19.968,40.25
19.984,38.8
20.000,39.76
20.015,38.2
20.031,32.47
20.046,24.6
20.062,18.5
20.078,17.33
20.093,21.5
20.109,28.67
20.125,35.23
20.140,38.78
20.156,39.28
20.171,38.95
20.187,41.21
20.203,48.74
20.218,62.15
20.234,80.05
20.250,99.66
20.265,118.02
20.281,132.88
20.296,143.22
20.312,148.9
20.328,149.91
20.343,146.12
20.359,136.95
20.375,122.08
20.390,101.81
20.406,77.2
20.421,49.28
20.437,18.07
20.453,-17.25
20.468,-57.21
20.484,-100.12
20.500,-140.46
20.515,-169.03
20.531,-175.71
20.546,-153.44
20.562,-101.88
20.578,-28.99
20.593,50.86
20.609,120.88
20.625,166.59
20.640,179.7
20.656,159.65
20.671,113.0
20.687,51.15
20.703,-12.75
20.718,-67.17
20.734,-104.39
20.750,-121.6
20.765,-120.64
20.781,-106.45
20.796,-85.22
20.812,-62.79
20.828,-43.74
20.843,-30.7
20.859,-24.84
20.875,-25.91
20.890,-32.4
20.906,-41.8
20.921,-50.87
20.937,-56.54
20.953,-56.79
20.968,-51.51
20.984,-42.32
21.000,-32.19
21.015,-23.93
21.031,-19.09
21.046,-17.61
21.062,-18.26
21.078,-19.64
21.093,-21.1
21.109,-23.03
21.125,-26.32
21.140,-31.34
21.156,-36.9
21.171,-40.26
21.187,-38.15
21.203,-28.42
21.218,-11.75
21.234,7.93
21.250,24.64
21.265,32.64
21.281,28.97
21.296,14.87
21.312,-4.81
21.328,-23.94
21.343,-37.77
21.359,-44.73
21.375,-46.49
21.390,-46.32
21.406,-46.94
21.421,-49.11
21.437,-51.81
21.453,-53.45
21.468,-53.42
21.484,-52.56
21.500,-52.87
21.515,-56.0
21.531,-62.05
21.546,-69.14
21.562,-74.17
21.578,-74.4
21.593,-68.82
21.609,-58.82
21.625,-47.4
21.640,-38.02
21.656,-32.81
21.671,-31.8
21.687,-32.93
21.703,-33.22
21.718,-30.11
21.734,-22.75
21.750,-12.07
21.765,-0.24
21.781,10.4
21.796,18.72
21.812,25.25
21.828,31.7
21.843,39.45
21.859,48.46
21.875,56.89
21.890,61.75
21.906,60.42
21.921,52.14
21.937,38.27
21.953,21.64
21.968,4.81
21.984,-11.05
22.000,-26.38
22.015,-41.94
22.031,-57.37
22.046,-70.45
22.062,-77.67
22.078,-76.08
22.093,-64.87
22.109,-46.0
22.125,-23.22
22.140,-0.29
22.156,20.57
22.171,38.93
22.187,55.4
22.203,70.11
22.218,81.85
22.234,88.14
22.250,86.63
22.265,76.67
22.281,60.14
22.296,41.01
22.312,23.71
22.328,11.63
22.343,5.93
22.359,5.54
22.375,8.16
22.390,11.51
22.406,14.2
22.421,15.78
22.437,16.46
22.453,16.33
22.468,15.42
22.484,13.86
22.500,12.32
22.515,12.02
22.531,14.27
22.546,19.84
22.562,28.13
22.578,37.42
22.593,45.38
22.609,50.14
22.625,51.12
22.640,49.28
22.656,46.25
22.671,43.3
22.687,40.54
22.703,36.77
22.718,30.46
22.734,20.92
22.750,9.0
22.765,-3.24
22.781,-13.42
22.796,-20.38
22.812,-24.5
22.828,-27.18
22.843,-29.79
22.859,-32.35
22.875,-33.45
22.890,-31.37
22.906,-25.55
22.921,-17.57
22.937,-10.89
22.953,-9.35
22.968,-14.89
22.984,-26.74
23.000,-41.26
23.015,-53.53
23.031,-59.5
23.046,-57.52
23.062,-49.04
23.078,-37.88
23.093,-28.57
23.109,-24.26
23.125,-25.66
23.140,-30.65
23.156,-35.39
23.171,-36.11
23.187,-30.26
23.203,-17.52
23.218,0.71
23.234,22.02
23.250,43.61
23.265,62.65
23.281,76.62
23.296,83.96
23.312,84.92
23.328,82.82
23.343,83.4
23.359,92.69
23.375,113.74
23.390,143.9
23.406,174.73
23.421,194.88
23.437,195.12
23.453,172.14
23.468,130.17
23.484,78.05
23.500,24.95
23.515,-23.69
23.531,-67.07
23.546,-106.94
23.562,-144.02
23.578,-175.8
23.593,-197.22
23.609,-203.07
23.625,-191.24
23.640,-164.01
23.656,-127.58
23.671,-89.35
23.687,-55.61
23.703,-30.12
23.718,-13.84
23.734,-5.88
23.750,-4.41
23.765,-7.09
23.781,-11.67
23.796,-16.36
23.812,-20.31
23.828,-23.76
23.843,-27.37
23.859,-31.59
23.875,-36.2
23.890,-40.77
23.906,-45.39
23.921,-51.23
23.937,-60.13
23.953,-73.14
23.968,-88.93
23.984,-103.67
24.000,-112.28
24.015,-110.91
24.031,-99.08
24.046,-80.15
24.062,-59.42
24.078,-41.52
24.093,-28.29
24.109,-18.43
24.125,-8.94
24.140,3.02
24.156,18.62
24.171,37.32
24.187,57.49
24.203,77.22
24.218,94.76
24.234,108.66
24.250,117.39
24.265,119.84
24.281,115.8
24.296,106.22
24.312,93.34
24.328,79.72
24.343,67.46
24.359,57.47
24.375,49.6
24.390,43.36
24.406,38.64
24.421,36.1
24.437,36.47
24.453,40.07
24.468,46.03
24.484,52.42
24.500,57.01
24.515,58.3
24.531,56.04
24.546,51.26
24.562,45.32
24.578,39.16
24.593,32.88
24.609,25.94
24.625,18.1
24.640,9.67
24.656,1.72
24.671,-4.48
24.687,-7.98
24.703,-8.53
24.718,-6.72
24.734,-3.5
24.750,0.1
24.765,3.3
24.781,5.81
24.796,7.75
24.812,9.5
24.828,11.38
24.843,13.6
24.859,15.9
24.875,17.8
24.890,18.79
24.906,18.66
24.921,17.57
24.937,16.08
24.953,14.74
24.968,13.85
24.984,13.53
25.000,13.61
25.015,13.88
25.031,13.69
25.046,12.14
25.062,7.91
25.078,-0.18
25.093,-12.57
25.109,-28.51
25.125,-45.83
25.140,-61.7
25.156,-73.15
25.171,-78.18
25.187,-76.28
25.203,-68.43
25.218,-56.81
25.234,-43.97
25.250,-31.77
25.265,-21.03
25.281,-11.52
25.296,-2.56
25.312,6.14
25.328,13.94
25.343,19.55
25.359,21.72
25.375,20.29
25.390,16.45
25.406,12.4
25.421,10.31
25.437,11.35
25.453,15.26
25.468,20.91
25.484,27.24
25.500,33.58
25.515,39.75
25.531,44.95
25.546,47.12
25.562,43.48
25.578,31.69
25.593,11.51
25.609,-14.29
25.625,-40.42
25.640,-61.31
25.656,-73.3
25.671,-76.09
25.687,-72.7
25.703,-67.25
25.718,-63.01
25.734,-61.07
25.750,-60.39
25.765,-59.08
25.781,-56.12
25.796,-51.93
25.812,-48.09
25.828,-46.25
25.843,-46.75
25.859,-48.25
25.875,-48.43
25.890,-45.4
25.906,-38.87
25.921,-30.42
25.937,-22.45
25.953,-16.69
25.968,-13.28
25.984,-10.74
26.000,-7.34
26.015,-2.33
26.031,3.35
26.046,7.42
26.062,7.87
26.078,4.21
26.093,-2.18
26.109,-8.89
26.125,-13.72
26.140,-15.83
26.156,-15.8
26.171,-14.87
26.187,-14.11
26.203,-13.66
26.218,-12.96
26.234,-11.55
26.250,-9.7
26.265,-8.44
26.281,-9.09
26.296,-12.11
26.312,-16.44
26.328,-19.99
26.343,-20.56
26.359,-17.05
26.375,-10.12
26.390,-1.74
26.406,6.01
26.421,11.91
26.437,16.13
26.453,20.15
26.468,25.65
26.484,33.85
26.500,45.01
26.515,58.27
26.531,72.1
26.546,84.62
26.562,94.06
26.578,99.25
26.593,100.29
26.609,98.13
26.625,94.38
26.640,90.49
26.656,86.85
26.671,82.82
26.687,76.69
26.703,66.43
26.718,50.0
26.734,25.9
26.750,-7.04
26.765,-48.99
26.781,-98.49
26.796,-152.42
26.812,-206.28
26.828,-255.64
26.843,-296.82
26.859,-327.25
26.875,-344.86
26.890,-347.71
26.906,-334.3
26.921,-304.51
26.937,-260.98
26.953,-209.1
26.968,-155.72
26.984,-106.4
27.000,-63.22
27.015,-24.67
27.031,11.87
27.046,46.43
27.062,74.3
27.078,87.1
27.093,77.73
27.109,45.58
27.125,-0.73
27.140,-45.24
27.156,-70.77
27.171,-65.53
27.187,-28.09
27.203,32.46
27.218,100.03
27.234,157.5
27.250,191.92
27.265,197.08
27.281,173.81
27.296,128.31
27.312,70.65
27.328,12.37
27.343,-35.23
27.359,-63.7
27.375,-69.42
27.390,-54.31
27.406,-25.32
27.421,7.53
27.437,33.78
27.453,45.3
27.468,37.73
27.484,11.38
27.500,-29.35
27.515,-77.27
27.531,-124.18
27.546,-162.38
27.562,-186.26
27.578,-193.33
27.593,-184.34
27.609,-162.77
27.625,-132.96
27.640,-98.63
27.656,-61.81
27.671,-23.01
27.687,17.78
27.703,59.86
27.718,101.15
27.734,138.42
27.750,168.35
27.765,189.17
27.781,201.48
27.796,208.14
27.812,212.79
27.828,218.09
27.843,224.59
27.859,231.08
27.875,235.53
27.890,236.55
27.906,233.82
27.921,227.36
27.937,216.71
27.953,200.58
27.968,177.45
27.984,146.86
28.000,110.68
28.015,72.88
28.031,38.19
28.046,10.11
28.062,-10.49
28.078,-25.29
28.093,-37.01
28.109,-47.76
28.125,-57.96
28.140,-66.76
28.156,-73.02
28.171,-76.58
28.187,-78.21
28.203,-79.17
28.218,-80.18
28.234,-80.99
28.250,-80.7
28.265,-78.35
28.281,-73.81
28.296,-67.62
28.312,-61.03
28.328,-54.84
28.343,-49.33
28.359,-43.96
28.375,-38.03
28.390,-31.31
28.406,-24.26
28.421,-17.93
28.437,-13.2
28.453,-10.36
28.468,-8.69
28.484,-6.9
28.500,-3.69
28.515,1.35
28.531,7.52
28.546,13.29
28.562,16.95
28.578,17.63
28.593,15.5
28.609,11.79
28.625,8.06
28.640,5.59
28.656,5.07
28.671,6.44
28.687,9.09
28.703,11.98
28.718,13.89
28.734,13.38
28.750,9.68
28.765,2.81
28.781,-6.06
28.796,-14.81
28.812,-21.3
28.828,-24.14
28.843,-23.31
28.859,-19.85
28.875,-15.54
28.890,-11.71
28.906,-9.0
28.921,-7.19
28.937,-5.64
28.953,-3.81
28.968,-1.65
28.984,0.31
29.000,1.45
29.015,1.32
29.031,0.09
29.046,-1.68
29.062,-3.1
29.078,-3.34
29.093,-2.12
29.109,0.27
29.125,2.99
29.140,5.07
29.156,5.92
29.171,5.57
29.187,4.44
29.203,3.09
29.218,2.13
29.234,1.68
29.250,1.59
29.265,1.55
29.281,1.29
29.296,0.64
29.312,-0.33
29.328,-1.54
29.343,-2.93
29.359,-4.35
29.375,-5.68
29.390,-6.54
29.406,-6.54
29.421,-5.33
29.437,-2.73
29.453,1.17
29.468,5.98
29.484,11.16
29.500,16.08
29.515,20.13
29.531,22.89
29.546,24.01
29.562,23.34
29.578,20.82
29.593,16.59
29.609,10.95
29.625,4.49
29.640,-2.3
29.656,-9.03
29.671,-15.54
29.687,-21.84
29.703,-27.98
29.718,-33.78
29.734,-38.89
29.750,-43.02
29.765,-46.06
29.781,-48.35
29.796,-50.39
29.812,-52.55
29.828,-54.68
29.843,-56.53
29.859,-57.94
29.875,-59.4
29.890,-61.96
29.906,-66.41
29.921,-72.76
29.937,-79.52
29.953,-84.04
29.968,-83.2
29.984,-74.26
30.000,-55.19
30.015,-25.08
30.031,15.66
30.046,65.05
30.062,119.17
30.078,172.58
30.093,219.1
30.109,253.18
30.125,271.34
30.140,272.75
30.156,259.14
30.171,233.85
30.187,200.8
30.203,163.38
30.218,124.38
30.234,85.82
30.250,49.08
30.265,15.31
30.281,-14.67
30.296,-40.28
30.312,-61.18
30.328,-77.04
30.343,-87.7
30.359,-92.89
30.375,-92.39
30.390,-86.44
30.406,-75.84
30.421,-62.48
30.437,-49.12
30.453,-38.89
30.468,-34.17
30.484,-35.98
30.500,-43.43
30.515,-54.28
30.531,-66.04
30.546,-76.5
30.562,-84.42
30.578,-89.34
30.593,-91.04
30.609,-88.92
30.625,-81.8
30.640,-68.19
30.656,-47.3
30.671,-20.27
30.687,9.78
30.703,38.21
30.718,60.82
30.734,75.62
30.750,83.67
30.765,88.33
30.781,93.24
30.796,100.28
30.812,108.63
30.828,115.98
30.843,120.14
30.859,120.88
30.875,120.06
30.890,120.11
30.906,122.08
30.921,124.67
30.937,124.72
30.953,118.81
30.968,105.39
30.984,85.48
31.000,62.37
31.015,40.21
31.031,22.18
31.046,9.6
31.062,1.84
31.078,-2.78
31.093,-5.87
31.109,-8.11
31.125,-9.36
31.140,-9.05
31.156,-7.05
31.171,-4.21
31.187,-2.33
31.203,-3.25
31.218,-8.06
31.234,-16.18
31.250,-25.43
31.265,-33.05
31.281,-36.79
31.296,-35.94
31.312,-31.5
31.328,-25.59
31.343,-20.16
31.359,-16.38
31.375,-14.32
31.390,-13.18
31.406,-12.25
31.421,-11.23
31.437,-10.32
31.453,-9.98
31.468,-10.4
31.484,-11.2
31.500,-11.61
31.515,-10.87
31.531,-8.57
31.546,-4.97
31.562,-0.66
31.578,3.7
31.593,7.77
31.609,11.6
31.625,15.58
31.640,19.87
31.656,24.14
31.671,27.5
31.687,28.68
31.703,26.86
31.718,22.02
31.734,15.09
31.750,7.6
31.765,0.84
31.781,-4.64
31.796,-9.31
31.812,-14.43
31.828,-21.33
31.843,-30.9
31.859,-43.23
31.875,-57.91
31.890,-74.1
31.906,-90.75
31.921,-106.6
31.937,-119.97
31.953,-129.13
31.968,-132.51
31.984,-129.38
32.000,-120.09
32.015,-106.21
32.031,-89.88
32.046,-73.1
32.062,-57.15
32.078,-42.35
32.093,-28.39
32.109,-15.03
32.125,-2.5
32.140,8.36
32.156,16.37
32.171,20.6
32.187,20.82
32.203,17.7
32.218,12.43
32.234,6.45
32.250,0.91
32.265,-3.67
32.281,-7.34
32.296,-10.56
32.312,-13.92
32.328,-17.7
32.343,-21.66
32.359,-25.05
32.375,-26.92
32.390,-26.67
32.406,-24.66
32.421,-22.15
32.437,-20.68
32.453,-21.37
32.468,-24.31
32.484,-28.55
32.500,-32.84
32.515,-36.23
32.531,-38.42
32.546,-39.6
32.562,-39.76
32.578,-38.36
32.593,-34.39
32.609,-27.07
32.625,-16.6
32.640,-4.44
32.656,7.3
32.671,16.87
32.687,23.48
32.703,27.78
32.718,31.06
32.734,34.44
32.750,38.18
32.765,41.67
32.781,43.95
32.796,44.41
32.812,43.11
32.828,40.66
32.843,37.8
32.859,34.97
32.875,32.19
32.890,29.3
32.906,26.2
32.921,22.9
32.937,19.7
32.953,16.74
32.968,13.85
32.984,10.7
33.000,6.85
33.015,2.12
33.031,-3.39
33.046,-9.26
33.062,-15.02
33.078,-20.12
33.093,-24.12
33.109,-26.91
33.125,-28.78
33.140,-30.48
33.156,-32.81
33.171,-36.12
33.187,-39.97
33.203,-43.37
33.218,-45.18
33.234,-44.75
33.250,-42.42
33.265,-39.32
33.281,-37.04
33.296,-36.74
33.312,-38.6
33.328,-41.66
33.343,-44.19
33.359,-44.33
33.375,-40.69
33.390,-32.96
33.406,-21.63
33.421,-8.19
33.437,5.52
33.453,17.81
33.468,27.66
33.484,34.77
33.500,39.52
33.515,42.48
33.531,43.91
33.546,43.86
33.562,42.11
33.578,38.7
33.593,34.22
33.609,29.93
33.625,27.3
33.640,27.43
33.656,30.46
33.671,35.48
33.687,41.18
33.703,46.34
33.718,50.2
33.734,52.49
33.750,53.02
33.765,51.5
33.781,47.48
33.796,40.72
33.812,31.54
33.828,20.98
33.843,10.45
33.859,1.11
33.875,-6.4
33.890,-12.34
33.906,-17.25
33.921,-21.55
33.937,-24.91
33.953,-26.49
33.968,-25.25
33.984,-20.66
34.000,-13.22
34.015,-4.1
34.031,5.19
34.046,13.79
34.062,21.65
34.078,29.64
34.093,38.48
34.109,48.1
34.125,57.31
34.140,64.39
34.156,68.03
34.171,67.89
34.187,65.01
34.203,61.09
34.218,57.46
34.234,54.42
34.250,51.27
34.265,46.72
34.281,39.76
34.296,29.98
34.312,17.59
34.328,2.94
34.343,-13.56
34.359,-31.63
34.375,-50.79
34.390,-69.89
34.406,-87.27
34.421,-101.2
34.437,-110.57
34.453,-115.39
34.468,-116.72
34.484,-116.02
34.500,-114.52
34.515,-112.82
34.531,-110.93
34.546,-108.58
34.562,-105.72
34.578,-102.51
34.593,-99.29
34.609,-96.18
34.625,-92.9
34.640,-88.82
34.656,-83.23
34.671,-75.68
34.687,-66.15
34.703,-55.1
34.718,-43.29
34.734,-31.61
34.750,-20.84
34.765,-11.52
34.781,-3.69
34.796,2.94
34.812,8.79
34.828,14.18
34.843,19.03
34.859,23.07
34.875,25.83
34.890,27.15
34.906,27.02
34.921,25.84
34.937,23.97
34.953,21.59
34.968,18.52
34.984,14.35
35.000,9.03
35.015,2.95
35.031,-2.83
35.046,-7.14
35.062,-8.9
35.078,-7.76
35.093,-4.31
35.109,0.14
35.125,3.99
35.140,6.08
35.156,6.11
35.171,4.71
35.187,2.93
35.203,1.65
35.218,1.03
35.234,0.4
35.250,-1.36
35.265,-5.24
35.281,-11.34
35.296,-18.75
35.312,-25.76
35.328,-30.62
35.343,-32.16
35.359,-30.27
35.375,-25.78
35.390,-19.86
35.406,-13.6
35.421,-7.43
35.437,-1.29
35.453,5.15
35.468,11.99
35.484,18.98
35.500,25.7
35.515,31.88
35.531,37.93
35.546,44.6
35.562,52.79
35.578,62.73
35.593,73.62
35.609,83.77
35.625,91.32
35.640,95.18
35.656,95.49
35.671,93.54
35.687,91.11
35.703,89.45
35.718,88.71
35.734,87.95
35.750,85.77
35.765,81.05
35.781,73.65
35.796,64.48
35.812,55.07
35.828,46.71
35.843,39.97
35.859,34.65
35.875,29.89
35.890,25.07
35.906,20.04
35.921,14.99
35.937,10.25
35.953,5.66
35.968,0.48
35.984,-6.46
36.000,-15.82
36.015,-27.28
36.031,-39.25
36.046,-49.36
36.062,-55.62
36.078,-57.0
36.093,-53.93
36.109,-47.84
36.125,-40.46
36.140,-33.25
36.156,-27.13
36.171,-22.51
36.187,-19.52
36.203,-18.05
36.218,-17.66
36.234,-17.52
36.250,-16.72
36.265,-14.63
36.281,-11.28
36.296,-7.23
36.312,-3.18
36.328,0.48
36.343,3.68
36.359,6.7
36.375,9.59
36.390,11.97
36.406,13.23
36.421,12.91
36.437,11.06
36.453,8.33
36.468,5.62
36.484,3.48
36.500,1.95
36.515,0.69
36.531,-0.79
36.546,-2.51
36.562,-4.08
36.578,-4.92
36.593,-4.73
36.609,-3.75
36.625,-2.73
36.640,-2.41
36.656,-3.13
36.671,-4.7
36.687,-6.37
36.703,-7.43
36.718,-7.57
36.734,-7.18
36.750,-7.05
36.765,-8.04
36.781,-10.47
36.796,-13.89
36.812,-17.26
36.828,-19.34
36.843,-19.27
36.859,-16.86
36.875,-12.62
36.890,-7.38
36.906,-1.95
36.921,3.35
36.937,8.49
36.953,13.56
36.968,18.57
36.984,22.99
37.000,26.12
37.015,27.51
37.031,27.25
37.046,25.94
37.062,24.55
37.078,23.7
37.093,23.41
37.109,23.26
37.125,22.48
37.140,20.69
37.156,18.11
37.171,15.48
37.187,13.64
37.203,13.11
37.218,13.75
37.234,14.83
37.250,15.56
37.265,15.42
37.281,14.32
37.296,12.41
37.312,9.84
37.328,6.49
37.343,2.16
37.359,-3.25
37.375,-9.45
37.390,-15.68
37.406,-20.95
37.421,-24.36
37.437,-25.69
37.453,-25.63
37.468,-25.48
37.484,-26.48
37.500,-29.4
37.515,-34.06
37.531,-39.38
37.546,-44.01
37.562,-46.59
37.578,-46.28
37.593,-43.11
37.609,-37.62
37.625,-30.56
37.640,-22.72
37.656,-14.77
37.671,-7.24
37.687,-0.67
37.703,4.7
37.718,8.87
37.734,12.04
37.750,14.5
37.765,16.45
37.781,17.86
37.796,18.46
37.812,18.05
37.828,16.51
37.843,14.13
37.859,11.48
37.875,9.09
37.890,7.2
37.906,5.77
37.921,4.55
37.937,3.44
37.953,2.61
37.968,2.23
37.984,2.58
38.000,3.63
38.015,5.11
38.031,6.6
38.046,7.68
38.062,8.07
38.078,7.65
38.093,6.6
38.109,5.2
38.125,3.92
38.140,3.36
38.156,3.93
38.171,5.62
38.187,7.85
38.203,9.65
38.218,10.09
38.234,8.81
38.250,6.13
38.265,2.69
38.281,-0.92
38.296,-4.46
38.312,-8.07
38.328,-11.9
38.343,-15.76
38.359,-19.06
38.375,-21.04
38.390,-21.4
38.406,-20.34
38.421,-18.49
38.437,-16.56
38.453,-14.85
38.468,-13.48
38.484,-12.36
38.500,-11.54
38.515,-11.02
38.531,-10.79
38.546,-10.59
38.562,-9.91
38.578,-8.48
38.593,-6.5
38.609,-4.76
38.625,-4.25
38.640,-5.64
38.656,-8.78
38.671,-12.8
38.687,-16.47
38.703,-18.83
38.718,-19.72
38.734,-19.73
38.750,-19.98
38.765,-21.5
38.781,-24.85
38.796,-29.82
38.812,-35.7
38.828,-41.61
38.843,-46.84
38.859,-50.99
38.875,-53.95
38.890,-55.77
38.906,-56.68
38.921,-57.06
38.937,-57.41
38.953,-58.22
38.968,-59.97
38.984,-62.85
39.000,-66.9
39.015,-72.04
39.031,-78.19
39.046,-85.31
39.062,-93.11
39.078,-101.01
39.093,-107.86
39.109,-112.44
39.125,-113.71
39.140,-111.17
39.156,-104.77
39.171,-94.44
39.187,-79.92
39.203,-60.73
39.218,-36.67
39.234,-7.97
39.250,24.67
39.265,60.55
39.281,99.29
39.296,140.9
39.312,185.41
39.328,231.76
39.343,277.44
39.359,318.46
39.375,350.29
39.390,369.28
39.406,373.66
39.421,363.9
39.437,342.15
39.453,311.52
39.468,274.94
39.484,234.92
39.500,193.5
39.515,152.38
39.531,113.22
39.546,77.53
39.562,46.65
39.578,21.24
39.593,1.23
39.609,-14.59
39.625,-28.26
39.640,-42.29
39.656,-58.75
39.671,-78.61
39.687,-101.16
39.703,-124.36
39.718,-145.9
39.734,-164.12
39.750,-178.65
39.765,-189.86
39.781,-198.06
39.796,-202.56
39.812,-201.74
39.828,-193.91
39.843,-178.51
39.859,-157.04
39.875,-132.48
39.890,-108.2
39.906,-86.49
39.921,-67.83
39.937,-51.44
39.953,-36.18
39.968,-21.42
39.984,-7.39
40.000,4.99
40.015,14.93
40.031,22.12
40.046,26.76
40.062,29.67
40.078,31.72
40.093,33.65
40.109,35.96
40.125,38.84
40.140,42.0
40.156,44.9
40.171,46.81
40.187,47.02
40.203,45.22
40.218,41.69
40.234,37.27
40.250,33.1
40.265,30.37
40.281,29.84
40.296,31.74
40.312,35.31
40.328,38.65
40.343,39.34
40.359,35.14
40.375,25.55
40.390,12.32
40.406,-0.69
40.421,-9.03
40.437,-9.52
40.453,-2.0
40.468,10.49
40.484,23.13
40.500,30.98
40.515,31.16
40.531,23.43
40.546,9.68
40.562,-7.11
40.578,-23.93
40.593,-38.54
40.609,-49.73
40.625,-56.95
40.640,-60.28
40.656,-60.28
40.671,-57.8
40.687,-53.92
40.703,-49.84
40.718,-46.52
40.734,-44.5
40.750,-43.6
40.765,-42.88
40.781,-41.17
40.796,-37.57
40.812,-31.73
40.828,-24.12
40.843,-15.72
40.859,-7.43
40.875,0.14
40.890,6.83
40.906,12.81
40.921,18.27
40.937,23.22
40.953,27.59
40.968,31.2
40.984,33.91
41.000,35.49
41.015,35.65
41.031,34.25
41.046,31.22
41.062,26.9
41.078,21.96
41.093,17.17
41.109,13.18
41.125,10.36
41.140,8.84
41.156,8.35
41.171,8.64
41.187,9.3
41.203,9.94
41.218,10.26
41.234,10.05
41.250,9.36
41.265,8.38
41.281,7.45
41.296,6.57
41.312,5.5
41.328,3.8
41.343,0.94
41.359,-3.22
41.375,-8.31
41.390,-13.57
41.406,-18.17
41.421,-21.45
41.437,-23.25
41.453,-23.74
41.468,-23.26
41.484,-22.0
41.500,-19.89
41.515,-16.81
41.531,-12.57
41.546,-7.19
41.562,-1.05
41.578,5.18
41.593,10.75
41.609,14.77
41.625,16.72
41.640,16.6
41.656,14.95
41.671,12.71
41.687,10.88
41.703,9.95
41.718,9.82
41.734,9.86
41.750,9.45
41.765,8.28
41.781,6.63
41.796,5.04
41.812,3.95
41.828,3.4
41.843,2.85
41.859,1.68
41.875,-0.42
41.890,-3.22
41.906,-6.1
41.921,-8.35
41.937,-9.81
41.953,-10.86
41.968,-12.13
41.984,-14.27
42.000,-17.44
42.015,-21.19
42.031,-25.04
42.046,-28.83
42.062,-32.83
42.078,-37.85
42.093,-44.52
42.109,-52.8
42.125,-61.75
42.140,-69.99
42.156,-76.47
42.171,-81.24
42.187,-85.51
42.203,-90.92
42.218,-98.6
42.234,-108.39
42.250,-118.77
42.265,-127.25
42.281,-131.28
42.296,-128.86
42.312,-118.9
42.328,-101.11
42.343,-75.99
42.359,-45.3
42.375,-11.98
42.390,20.14
42.406,47.29
42.421,66.92
42.437,78.33
42.453,82.43
42.468,80.92
42.484,75.69
42.500,68.34
42.515,60.52
42.531,54.23
42.546,51.5
42.562,53.59
42.578,60.16
42.593,69.24
42.609,77.98
42.625,84.38
42.640,88.06
42.656,90.14
42.671,91.92
42.687,93.45
42.703,93.31
42.718,89.55
42.734,81.22
42.750,69.29
42.765,56.44
42.781,45.84
42.796,39.88
42.812,39.33
42.828,43.3
42.843,49.99
42.859,57.42
42.875,63.91
42.890,68.36
42.906,70.14
42.921,68.8
42.937,63.7
42.953,54.12
42.968,39.19
42.984,18.59
43.000,-6.6
43.015,-33.5
43.031,-57.82
43.046,-75.33
43.062,-83.4
43.078,-82.25
43.093,-74.44
43.109,-63.43
43.125,-52.09
43.140,-41.49
43.156,-31.19
43.171,-20.29
43.187,-8.51
43.203,3.29
43.218,13.54
43.234,20.69
43.250,24.17
43.265,24.44
43.281,22.76
43.296,20.46
43.312,18.38
43.328,16.67
43.343,15.08
43.359,13.32
43.375,11.35
43.390,9.68
43.406,9.09
43.421,10.48
43.437,14.42
43.453,20.95
43.468,29.51
43.484,39.15
43.500,48.76
43.515,57.31
43.531,64.29
43.546,69.67
43.562,73.8
43.578,77.06
43.593,79.51
43.609,80.96
43.625,80.82
43.640,78.5
43.656,73.49
43.671,65.57
43.687,54.87
43.703,41.96
43.718,27.8
43.734,13.46
43.750,0.14
43.765,-11.26
43.781,-20.44
43.796,-27.67
43.812,-33.75
43.828,-39.93
43.843,-47.22
43.859,-55.86
43.875,-65.18
43.890,-73.48
43.906,-78.72
43.921,-79.36
43.937,-74.95
43.953,-66.43
43.968,-55.67
43.984,-44.75
44.000,-34.93
44.015,-26.51
44.031,-18.98
44.046,-11.82
44.062,-4.9
44.078,1.44
44.093,6.61
44.109,10.17
44.125,12.21
44.140,13.24
44.156,13.99
44.171,15.09
44.187,16.88
44.203,19.56
44.218,23.49
44.234,28.92
44.250,35.15
44.265,41.0
44.281,45.21
44.296,47.08
44.312,46.86
44.328,45.38
44.343,43.76
44.359,43.24
44.375,44.76
44.390,47.52
44.406,50.27
44.421,52.49
44.437,54.82
44.453,58.57
44.468,64.53
44.484,72.49
44.500,81.66
44.515,91.01
44.531,97.21
44.546,96.46
44.562,86.41
44.578,67.46
44.593,42.46
44.609,15.11
44.625,-11.03
44.640,-33.52
44.656,-51.91
44.671,-71.02
44.687,-98.2
44.703,-139.26
44.718,-195.33
44.734,-262.61
44.750,-334.7
44.765,-404.65
44.781,-466.78
44.796,-498.29
44.812,-481.21
44.828,-412.13
44.843,-306.19
44.859,-187.28
44.875,-74.54
44.890,22.84
44.906,103.27
44.921,168.53
44.937,219.11
44.953,256.79
44.968,281.54
44.984,294.52
45.000,299.87
45.015,303.42
45.031,309.71
45.046,320.76
45.062,336.18
45.078,353.52
45.093,367.99
45.109,374.31
45.125,369.46
45.140,353.8
45.156,329.94
45.171,300.72
45.187,268.09
45.203,233.16
45.218,196.78
45.234,158.79
45.250,118.87
45.265,78.0
45.281,38.91
45.296,4.98
45.312,-21.26
45.328,-38.71
45.343,-47.76
45.359,-49.64
45.375,-46.33
45.390,-40.28
45.406,-33.29
45.421,-26.32
45.437,-19.48
45.453,-12.55
45.468,-5.29
45.484,2.52
45.500,11.0
45.515,20.21
45.531,29.75
45.546,39.08
45.562,47.25
45.578,53.03
45.593,55.24
45.609,52.95
45.625,45.88
45.640,34.53
45.656,20.15
45.671,4.27
45.687,-11.64
45.703,-26.59
45.718,-39.98
45.734,-51.43
45.750,-60.23
45.765,-65.22
45.781,-65.07
45.796,-58.89
45.812,-46.74
45.828,-29.65
45.843,-10.04
45.859,8.92
45.875,24.0
45.890,32.38
45.906,32.3
45.921,22.75
45.937,3.44
45.953,-24.62
45.968,-58.71
45.984,-95.11
46.000,-130.36
46.015,-162.52
46.031,-192.1
46.046,-221.3
46.062,-252.24
46.078,-285.3
46.093,-318.41
46.109,-347.63
46.125,-368.96
46.140,-380.2
46.156,-381.37
46.171,-374.2
46.187,-360.41
46.203,-340.46
46.218,-313.6
46.234,-279.62
46.250,-239.48
46.265,-195.73
46.281,-152.05
46.296,-112.55
46.312,-82.22
46.328,-65.73
46.343,-65.77
46.359,-81.5
46.375,-108.76
46.390,-140.18
46.406,-167.5
46.421,-183.96
46.437,-186.91
46.453,-179.32
46.468,-168.68
46.484,-163.09
46.500,-167.8
46.515,-184.2
46.531,-209.67
46.546,-239.69
46.562,-269.06
46.578,-292.79
46.593,-307.03
46.609,-309.26
46.625,-298.46
46.640,-275.67
46.656,-244.26
46.671,-209.96
46.687,-179.95
46.703,-160.48
46.718,-153.89
46.734,-157.24
46.750,-162.34
46.765,-159.11
46.781,-140.24
46.796,-104.29
46.812,-56.27
46.828,-5.84
46.843,36.91
46.859,66.4
46.875,82.31
46.890,89.02
46.906,91.8
46.921,94.18
46.937,97.13
46.953,100.56
46.968,103.99
46.984,107.25
47.000,110.88
47.015,114.97
47.031,119.29
47.046,122.49
47.062,122.45
47.078,117.62
47.093,107.61
47.109,93.84
47.125,79.31
47.140,67.81
47.156,62.49
47.171,64.89
47.187,74.32
47.203,88.71
47.218,105.89
47.234,124.21
47.250,143.43
47.265,164.22
47.281,187.07
47.296,211.03
47.312,233.25
47.328,249.79
47.343,257.23
47.359,254.35
47.375,241.55
47.390,219.98
47.406,189.7
47.421,149.01
47.437,95.54
47.453,29.21
47.468,-45.28
47.484,-118.82
47.500,-179.96
47.515,-219.56
47.531,-233.93
47.546,-225.59
47.562,-200.94
47.578,-166.53
47.593,-125.93
47.609,-80.46
47.625,-32.44
47.640,12.46
47.656,44.77
47.671,55.18
47.687,40.02
47.703,4.29
47.718,-38.88
47.734,-73.98
47.750,-90.11
47.765,-85.55
47.781,-66.81
47.796,-44.23
47.812,-26.25
47.828,-15.54
47.843,-9.61
47.859,-3.74
47.875,4.97
47.890,16.04
47.906,26.97
47.921,36.39
47.937,45.44
47.953,57.47
47.968,76.44
47.984,103.18
48.000,134.03
48.015,161.02
48.031,175.13
48.046,170.31
48.062,146.91
48.078,111.45
48.093,73.79
48.109,43.27
48.125,24.46
48.140,16.56
48.156,14.9
48.171,14.66
48.187,13.93
48.203,14.4
48.218,19.96
48.234,33.76
48.250,56.36
48.265,84.73
48.281,113.72
48.296,138.61
48.312,156.98
48.328,169.47
48.343,178.75
48.359,188.3
48.375,200.52
48.390,216.08
48.406,233.5
48.421,250.24
48.437,263.65
48.453,271.81
48.468,273.96
48.484,269.9
48.500,259.53
48.515,242.03
48.531,216.48
48.546,182.65
48.562,142.11
48.578,98.58
48.593,57.01
48.609,22.05
48.625,-3.48
48.640,-19.28
48.656,-27.51
48.671,-31.43
48.687,-34.01
48.703,-37.09
48.718,-40.83
48.734,-44.32
48.750,-46.37
48.765,-46.38
48.781,-44.72
48.796,-42.55
48.812,-40.92
48.828,-40.07
48.843,-39.39
48.859,-37.77
48.875,-34.31
48.890,-28.51
48.906,-20.6
48.921,-10.87
48.937,0.19
48.953,12.09
48.968,23.86
48.984,33.92
49.000,40.28
49.015,41.11
49.031,35.58
49.046,24.0
49.062,8.01
49.078,-10.12
49.093,-27.92
49.109,-43.35
49.125,-54.95
49.140,-62.17
49.156,-65.39
49.171,-65.94
49.187,-65.63
49.203,-66.17
49.218,-68.43
49.234,-71.82
49.250,-74.68
49.265,-74.64
49.281,-69.75
49.296,-59.11
49.312,-43.37
49.328,-24.53
49.343,-5.15
49.359,12.3
49.375,26.23
49.390,36.07
49.406,41.86
49.421,43.71
49.437,41.6
49.453,35.42
49.468,25.37
49.484,12.59
49.500,-1.11
49.515,-13.56
49.531,-23.12
49.546,-29.27
49.562,-32.67
49.578,-34.65
49.593,-36.29
49.609,-38.15
49.625,-39.93
49.640,-41.09
49.656,-41.15
49.671,-40.18
49.687,-38.6
49.703,-36.83
49.718,-35.09
49.734,-32.98
49.750,-29.8
49.765,-24.63
49.781,-17.12
49.796,-7.45
49.812,3.43
49.828,14.01
49.843,22.75
49.859,28.4
49.875,30.27
49.890,28.24
49.906,23.0
49.921,15.36
49.937,6.24
49.953,-3.73
49.968,-14.19
49.984,-24.81
50.000,-34.96
50.015,-43.75
50.031,-50.17
50.046,-53.42
50.062,-53.37
50.078,-50.64
50.093,-46.18
50.109,-40.93
50.125,-35.29
50.140,-29.04
50.156,-21.61
50.171,-12.44
50.187,-1.23
50.203,12.05
50.218,27.2
50.234,43.92
50.250,61.69
50.265,79.91
50.281,97.69
50.296,114.18
50.312,128.55
50.328,140.31
50.343,149.22
50.359,155.53
50.375,159.8
50.390,162.36
50.406,163.06
50.421,161.1
50.437,155.48
50.453,145.6
50.468,131.86
50.484,115.83
50.500,99.67
50.515,85.38
50.531,73.72
50.546,64.18
50.562,55.64
50.578,47.56
50.593,40.68
50.609,36.55
50.625,36.48
50.640,40.4
50.656,46.71
50.671,52.58
50.687,55.12
50.703,52.34
50.718,43.65
50.734,29.5
50.750,10.69
50.765,-12.07
50.781,-38.01
50.796,-65.29
50.812,-91.3
50.828,-113.3
50.843,-129.48
50.859,-139.48
50.875,-144.16
50.890,-145.52
50.906,-145.16
50.921,-144.26
50.937,-141.88
50.953,-136.78
50.968,-128.6
50.984,-118.92
51.000,-110.88
51.015,-106.95
51.031,-108.84
51.046,-114.7
51.062,-120.9
51.078,-121.07
51.093,-109.71
51.109,-84.12
51.125,-45.98
51.140,0.1
51.156,49.21
51.171,96.21
51.187,139.07
51.203,176.47
51.218,210.43
51.234,243.79
51.250,279.86
51.265,320.96
51.281,368.77
51.296,424.9
51.312,488.18
51.328,557.03
51.343,606.61
51.359,614.04
51.375,569.17
51.390,482.67
51.406,376.97
51.421,270.78
51.437,180.49
51.453,95.73
51.468,6.31
51.484,-91.41
51.500,-190.92
51.515,-280.96
51.531,-348.64
51.546,-387.13
51.562,-398.3
51.578,-390.49
51.593,-375.63
51.609,-361.01
51.625,-349.76
51.640,-339.28
51.656,-324.75
51.671,-303.11
51.687,-275.75
51.703,-247.31
51.718,-222.56
51.734,-205.11
51.750,-194.0
51.765,-186.55
51.781,-178.91
51.796,-168.16
51.812,-153.5
51.828,-136.74
51.843,-120.87
51.859,-108.27
51.875,-100.21
51.890,-95.4
51.906,-91.91
51.921,-87.58
51.937,-81.14
51.953,-72.51
51.968,-63.03
51.984,-54.53
52.000,-48.42
52.015,-45.2
52.031,-43.69
52.046,-42.32
52.062,-39.38
52.078,-33.95
52.093,-25.95
52.109,-16.47
52.125,-6.96
52.140,1.3
52.156,7.54
52.171,11.94
52.187,15.01
52.203,17.29
52.218,18.95
52.234,20.02
52.250,20.33
52.265,19.81
52.281,18.48
52.296,16.63
52.312,14.58
52.328,12.63
52.343,11.11
52.359,10.13
52.375,9.78
52.390,9.96
52.406,10.51
52.421,11.12
52.437,11.58
52.453,11.77
52.468,11.64
52.484,11.29
52.500,10.67
52.515,9.72
52.531,8.3
52.546,6.38
52.562,4.14
52.578,1.86
52.593,-0.12
52.609,-1.6
52.625,-2.67
52.640,-3.6
52.656,-4.64
52.671,-6.03
52.687,-7.83
52.703,-9.88
52.718,-12.02
52.734,-14.09
52.750,-15.84
52.765,-16.93
52.781,-16.96
52.796,-15.45
52.812,-12.14
52.828,-7.12
52.843,-0.86
52.859,5.87
52.875,12.2
52.890,17.32
52.906,20.83
52.921,22.57
52.937,22.69
52.953,21.6
52.968,19.64
52.984,17.16
53.000,14.31
53.015,11.24
53.031,7.99
53.046,4.67
53.062,1.55
53.078,-1.05
53.093,-2.8
53.109,-3.67
53.125,-3.98
53.140,-4.34
53.156,-5.33
53.171,-7.22
53.187,-9.98
53.203,-13.2
53.218,-16.41
53.234,-19.38
53.250,-22.15
53.265,-24.97
53.281,-28.04
53.296,-31.26
53.312,-34.25
53.328,-36.52
53.343,-37.71
53.359,-37.8
53.375,-37.13
53.390,-36.25
53.406,-35.67
53.421,-35.61
53.437,-36.03
53.453,-36.59
53.468,-36.81
53.484,-36.24
53.500,-34.71
53.515,-32.19
53.531,-28.69
53.546,-24.27
53.562,-18.84
53.578,-12.48
53.593,-5.3
53.609,2.36
53.625,9.99
53.640,16.99
53.656,22.87
53.671,27.49
53.687,30.97
53.703,33.65
53.718,35.8
53.734,37.44
53.750,38.32
53.765,38.03
53.781,36.34
53.796,33.48
53.812,30.09
53.828,27.02
53.843,24.93
53.859,24.0
53.875,24.02
53.890,24.48
53.906,24.89
53.921,25.0
53.937,24.86
53.953,24.59
53.968,24.15
53.984,23.37
54.000,21.85
54.015,19.29
54.031,15.63
54.046,11.06
54.062,5.86
54.078,0.53
54.093,-4.64
54.109,-9.55
54.125,-14.25
54.140,-18.97
54.156,-23.91
54.171,-29.14
54.187,-34.56
54.203,-40.05
54.218,-45.38
54.234,-50.42
54.250,-55.12
54.265,-59.38
54.281,-62.99
54.296,-65.53
54.312,-66.44
54.328,-65.26
54.343,-61.98
54.359,-57.05
54.375,-51.47
54.390,-46.26
54.406,-42.19
54.421,-39.6
54.437,-38.36
54.453,-38.14
54.468,-38.57
54.484,-39.59
54.500,-41.19
54.515,-43.53
54.531,-46.64
54.546,-50.24
54.562,-53.98
54.578,-57.35
54.593,-59.87
54.609,-61.15
54.625,-60.98
54.640,-59.22
54.656,-55.75
54.671,-50.47
54.687,-43.18
54.703,-33.91
54.718,-22.74
54.734,-9.87
54.750,4.38
54.765,19.84
54.781,36.32
54.796,53.74
54.812,71.98
54.828,90.82
54.843,109.48
54.859,126.8
54.875,141.09
54.890,150.26
54.906,152.26
54.921,145.25
54.937,127.95
54.953,99.76
54.968,60.83
54.984,11.89
55.000,-45.28
55.015,-107.91
55.031,-172.03
55.046,-232.84
55.062,-285.43
55.078,-325.78
55.093,-351.55
55.109,-362.41
55.125,-359.64
55.140,-345.3
55.156,-321.68
55.171,-290.78
55.187,-254.45
55.203,-214.59
55.218,-173.33
55.234,-132.6
55.250,-94.12
55.265,-58.79
55.281,-26.83
55.296,1.96
55.312,28.03
55.328,51.69
55.343,73.03
55.359,91.78
55.375,107.66
55.390,120.46
55.406,130.31
55.421,137.74
55.437,143.4
55.453,148.0
55.468,151.81
55.484,154.74
55.500,156.29
55.515,156.06
55.531,154.05
55.546,150.67
55.562,146.59
55.578,142.23
55.593,137.69
55.609,132.4
55.625,125.57
55.640,116.46
55.656,104.75
55.671,90.89
55.687,75.89
55.703,61.24
55.718,48.32
55.734,38.31
55.750,31.86
55.765,29.15
55.781,29.88
55.796,33.47
55.812,39.13
55.828,45.91
55.843,52.83
55.859,58.86
55.875,63.1
55.890,65.09
55.906,64.88
55.921,62.89
55.937,59.8
55.953,56.21
55.968,52.54
55.984,49.01
56.000,45.69
56.015,42.65
56.031,40.17
56.046,38.58
56.062,38.2
56.078,39.09
56.093,41.0
56.109,43.33
56.125,45.38
56.140,46.56
56.156,46.49
56.171,45.15
56.187,42.64
56.203,39.29
56.218,35.23
56.234,30.43
56.250,24.87
56.265,18.49
56.281,11.53
56.296,4.49
56.312,-2.11
56.328,-7.87
56.343,-12.64
56.359,-16.55
56.375,-19.95
56.390,-23.14
56.406,-26.17
56.421,-28.95
56.437,-31.16
56.453,-32.56
56.468,-32.86
56.484,-31.79
56.500,-29.07
56.515,-24.46
56.531,-17.88
56.546,-9.44
56.562,0.38
56.578,10.82
56.593,20.89
56.609,29.6
56.625,36.31
56.640,40.73
56.656,43.16
56.671,44.08
56.687,43.96
56.703,43.04
56.718,41.36
56.734,38.96
56.750,36.11
56.765,33.34
56.781,31.29
56.796,30.58
56.812,31.28
56.828,33.05
56.843,35.14
56.859,36.75
56.875,37.4
56.890,37.04
56.906,36.14
56.921,35.42
56.937,35.66
56.953,37.19
56.968,39.97
56.984,43.52
57.000,47.08
57.015,50.01
57.031,51.84
57.046,52.48
57.062,52.03
57.078,50.66
57.093,48.5
57.109,45.67
57.125,42.37
57.140,38.75
57.156,35.1
57.171,31.46
57.187,27.5
57.203,22.75
57.218,16.69
57.234,8.99
57.250,-0.1
57.265,-9.79
57.281,-19.05
57.296,-26.7
57.312,-31.98
57.328,-34.73
57.343,-35.37
57.359,-34.72
57.375,-33.69
57.390,-32.8
57.406,-31.94
57.421,-30.63
57.437,-28.06
57.453,-23.71
57.468,-17.69
57.484,-10.61
57.500,-3.54
57.515,2.41
57.531,6.46
57.546,8.37
57.562,8.38
57.578,7.11
57.593,5.26
57.609,3.35
57.625,1.84
57.640,1.11
57.656,1.56
57.671,3.61
57.687,7.59
57.703,13.37
57.718,20.31
57.734,27.37
57.750,33.36
57.765,37.33
57.781,38.86
57.796,38.03
57.812,35.24
57.828,31.07
57.843,25.86
57.859,19.87
57.875,13.28
57.890,6.41
57.906,-0.33
57.921,-6.45
57.937,-11.64
57.953,-15.96
57.968,-19.74
57.984,-23.68
58.000,-28.38
58.015,-34.12
58.031,-40.57
58.046,-46.85
58.062,-51.81
58.078,-54.27
58.093,-53.48
58.109,-49.21
58.125,-41.85
58.140,-32.16
58.156,-20.99
58.171,-9.14
58.187,2.72
58.203,14.17
58.218,24.79
58.234,34.14
58.250,41.89
58.265,47.64
58.281,51.14
58.296,52.47
58.312,51.84
58.328,49.67
58.343,46.47
58.359,42.73
58.375,38.79
58.390,34.99
58.406,31.5
58.421,28.48
58.437,25.96
58.453,23.82
58.468,21.84
58.484,19.66
58.500,17.09
58.515,14.12
58.531,11.11
58.546,8.56
58.562,6.91
58.578,6.27
58.593,6.43
58.609,6.82
58.625,6.83
58.640,6.04
58.656,4.35
58.671,1.98
58.687,-0.68
58.703,-3.37
58.718,-5.96
58.734,-8.55
58.750,-11.22
58.765,-14.08
58.781,-17.09
58.796,-20.14
58.812,-23.09
58.828,-25.81
58.843,-28.13
58.859,-29.79
58.875,-30.22
58.890,-28.65
58.906,-24.33
58.921,-16.87
58.937,-6.54
58.953,5.7
58.968,18.34
58.984,29.97
59.000,39.46
59.015,46.28
59.031,50.48
59.046,52.37
59.062,52.26
59.078,50.29
59.093,46.49
59.109,40.93
59.125,33.88
59.140,25.98
59.156,17.99
59.171,10.7
59.187,4.75
59.203,0.47
59.218,-2.03
59.234,-2.93
59.250,-2.36
59.265,-0.44
59.281,2.79
59.296,7.22
59.312,12.58
59.328,18.4
59.343,24.14
59.359,29.25
59.375,33.29
59.390,36.01
59.406,37.18
59.421,36.67
59.437,34.23
59.453,29.81
59.468,23.24
59.484,14.63
59.500,4.37
59.515,-7.06
59.531,-18.94
59.546,-30.57
59.562,-41.46
59.578,-51.44
59.593,-60.67
59.609,-69.78
59.625,-79.45
59.640,-89.81
59.656,-100.19
59.671,-109.01
59.687,-114.35
59.703,-114.7
59.718,-109.68
59.734,-99.97
59.750,-87.16
59.765,-73.05
59.781,-59.04
59.796,-46.0
59.812,-34.54
59.828,-25.26
59.843,-18.62
59.859,-14.82
59.875,-13.33
59.890,-12.91
59.906,-12.04
59.921,-9.53
59.937,-5.15
59.953,0.58
59.968,6.38
59.984,11.0
