timestamp,value
00.000,-35.71
00.015,-10.2
00.031,-2.95
00.046,-11.06
00.062,-29.0
00.078,-49.76
00.093,-66.58
00.109,-75.13
00.125,-75.03
00.140,-69.77
00.156,-65.46
00.171,-68.43
00.187,-82.89
00.203,-109.03
00.218,-142.61
00.234,-175.89
00.250,-200.05
00.265,-208.13
00.281,-197.43
00.296,-170.22
00.312,-132.3
00.328,-90.5
00.343,-50.44
00.359,-15.65
00.375,12.09
00.390,31.99
00.406,43.44
00.421,46.02
00.437,39.97
00.453,27.1
00.468,10.84
00.484,-4.59
00.500,-15.67
00.515,-20.92
00.531,-20.95
00.546,-17.56
00.562,-12.45
00.578,-6.37
00.593,1.29
00.609,12.23
00.625,28.62
00.640,52.2
00.656,83.67
00.671,121.94
00.687,163.74
00.703,203.79
00.718,235.93
00.734,254.73
00.750,257.43
00.765,245.64
00.781,224.29
00.796,199.77
00.812,177.04
00.828,158.51
00.843,144.07
00.859,132.47
00.875,123.27
00.890,116.49
00.906,113.09
00.921,113.43
00.937,117.82
00.953,126.56
00.968,140.25
00.984,159.45
01.000,182.92
01.015,206.39
01.031,222.95
01.046,226.21
01.062,213.67
01.078,189.65
01.093,163.78
01.109,147.08
01.125,146.48
01.140,161.31
01.156,182.82
01.171,198.84
01.187,199.72
01.203,182.12
01.218,149.37
01.234,106.78
01.250,58.25
01.265,4.97
01.281,-53.07
01.296,-115.8
01.312,-180.76
01.328,-242.38
01.343,-294.21
01.359,-332.2
01.375,-357.74
01.390,-376.31
01.406,-394.24
01.421,-415.75
01.437,-443.52
01.453,-476.91
01.468,-512.02
01.484,-541.13
01.500,-555.21
01.515,-549.38
01.531,-523.02
01.546,-479.76
01.562,-424.63
01.578,-365.34
01.593,-308.33
01.609,-257.11
01.625,-211.39
01.640,-157.13
01.656,-88.87
01.671,-9.56
01.687,58.41
01.703,106.13
01.718,132.26
01.734,144.74
01.750,151.36
01.765,160.67
01.781,179.75
01.796,210.4
01.812,250.26
01.828,293.5
01.843,333.67
01.859,361.54
01.875,369.16
01.890,352.83
01.906,316.44
01.921,270.31
01.937,225.36
01.953,191.38
01.968,173.14
01.984,171.11
02.000,179.21
02.015,187.71
02.031,186.29
02.046,167.81
02.062,130.85
02.078,77.99
02.093,17.72
02.109,-38.1
02.125,-76.27
02.140,-87.99
02.156,-71.37
02.171,-32.3
02.187,17.55
02.203,63.94
02.218,93.71
02.234,99.58
02.250,81.13
02.265,45.98
02.281,7.08
02.296,-22.36
02.312,-34.86
02.328,-30.97
02.343,-16.69
02.359,1.04
02.375,18.44
02.390,33.95
02.406,48.66
02.421,62.19
02.437,71.51
02.453,73.24
02.468,65.03
02.484,46.17
02.500,17.23
02.515,-20.23
02.531,-63.03
02.546,-107.54
02.562,-148.89
02.578,-182.0
02.593,-201.71
02.609,-199.36
02.625,-171.33
02.640,-122.59
02.656,-65.02
02.671,-11.58
02.687,29.75
02.703,57.28
02.718,73.33
02.734,81.23
02.750,83.33
02.765,81.07
02.781,76.24
02.796,72.68
02.812,75.62
02.828,89.3
02.843,114.49
02.859,147.47
02.875,181.34
02.890,207.05
02.906,216.93
02.921,206.25
02.937,175.14
02.953,128.36
02.968,72.78
02.984,14.88
03.000,-41.05
03.015,-93.21
03.031,-141.4
03.046,-180.8
03.062,-205.25
03.078,-208.95
03.093,-189.2
03.109,-148.46
03.125,-93.5
03.140,-33.3
03.156,23.3
03.171,66.69
03.187,94.08
03.203,105.01
03.218,102.03
03.234,91.01
03.250,80.15
03.265,78.34
03.281,92.01
03.296,123.88
03.312,169.55
03.328,218.49
03.343,256.0
03.359,269.17
03.375,252.11
03.390,207.13
03.406,142.88
03.421,69.48
03.437,-5.12
03.453,-76.53
03.468,-142.7
03.484,-202.91
03.500,-255.66
03.515,-298.41
03.531,-329.48
03.546,-349.51
03.562,-361.81
03.578,-371.7
03.593,-384.42
03.609,-403.25
03.625,-428.98
03.640,-458.79
03.656,-486.15
03.671,-502.7
03.687,-500.89
03.703,-476.95
03.718,-432.69
03.734,-374.59
03.750,-311.19
03.765,-250.15
03.781,-196.17
03.796,-150.26
03.812,-110.95
03.828,-76.55
03.843,-46.57
03.859,-22.29
03.875,-5.13
03.890,4.56
03.906,8.43
03.921,9.36
03.937,9.76
03.953,10.48
03.968,10.58
03.984,7.87
04.000,0.04
04.015,-13.8
04.031,-32.58
04.046,-53.54
04.062,-72.98
04.078,-87.84
04.093,-96.38
04.109,-98.29
04.125,-94.4
04.140,-86.18
04.156,-74.75
04.171,-60.39
04.187,-42.75
04.203,-21.24
04.218,4.11
04.234,31.83
04.250,59.3
04.265,83.43
04.281,101.54
04.296,112.34
04.312,116.41
04.328,115.86
04.343,113.75
04.359,113.1
04.375,115.99
04.390,123.31
04.406,134.92
04.421,149.98
04.437,167.93
04.453,188.61
04.468,212.06
04.484,238.56
04.500,268.36
04.515,301.77
04.531,338.97
04.546,379.09
04.562,418.95
04.578,452.58
04.593,471.86
04.609,468.9
04.625,439.39
04.640,384.8
04.656,312.54
04.671,233.66
04.687,159.3
04.703,97.59
04.718,52.69
04.734,25.38
04.750,14.68
04.765,18.83
04.781,35.22
04.796,59.53
04.812,85.81
04.828,107.3
04.843,118.2
04.859,115.85
04.875,101.24
04.890,78.59
04.906,53.76
04.921,31.88
04.937,15.2
04.953,2.89
04.968,-8.28
04.984,-21.9
05.000,-39.33
05.015,-58.48
05.031,-73.96
05.046,-78.67
05.062,-66.65
05.078,-35.55
05.093,12.64
05.109,71.82
05.125,133.26
05.140,187.57
05.156,225.96
05.171,241.82
05.187,232.43
05.203,199.58
05.218,149.59
05.234,92.79
05.250,41.89
05.265,8.88
05.281,1.56
05.296,19.94
05.312,55.79
05.328,96.45
05.343,128.43
05.359,141.69
05.375,131.92
05.390,100.91
05.406,55.55
05.421,6.37
05.437,-34.75
05.453,-56.31
05.468,-47.35
05.484,-2.87
05.500,72.95
05.515,165.87
05.531,255.77
05.546,322.91
05.562,354.8
05.578,348.88
05.593,312.42
05.609,261.96
05.625,216.22
05.640,190.8
05.656,193.32
05.671,222.2
05.687,267.53
05.703,315.03
05.718,350.91
05.734,348.89
05.750,295.89
05.765,195.81
05.781,68.72
05.796,-59.95
05.812,-171.38
05.828,-258.75
05.843,-323.44
05.859,-369.11
05.875,-398.08
05.890,-409.44
05.906,-403.26
05.921,-382.71
05.937,-354.34
05.953,-324.85
05.968,-298.71
05.984,-277.13
06.000,-259.59
06.015,-244.65
06.031,-229.87
06.046,-214.82
06.062,-201.12
06.078,-192.51
06.093,-191.68
06.109,-199.15
06.125,-212.91
06.140,-230.01
06.156,-247.68
06.171,-262.99
06.187,-274.01
06.203,-274.78
06.218,-263.77
06.234,-241.15
06.250,-208.59
06.265,-168.25
06.281,-123.82
06.296,-79.69
06.312,-39.63
06.328,-6.5
06.343,17.66
06.359,30.66
06.375,33.3
06.390,28.89
06.406,23.07
06.421,21.58
06.437,28.51
06.453,43.98
06.468,63.38
06.484,78.4
06.500,79.35
06.515,61.7
06.531,28.08
06.546,-13.57
06.562,-53.97
06.578,-86.48
06.593,-109.88
06.609,-124.92
06.625,-135.32
06.640,-146.22
06.656,-159.52
06.671,-172.88
06.687,-181.14
06.703,-178.36
06.718,-160.25
06.734,-126.05
06.750,-79.62
06.765,-26.46
06.781,21.4
06.796,52.19
06.812,61.03
06.828,51.66
06.843,33.09
06.859,13.36
06.875,-3.79
06.890,-18.87
06.906,-33.56
06.921,-50.42
06.937,-68.2
06.953,-82.86
06.968,-91.21
06.984,-91.55
07.000,-84.45
07.015,-71.88
07.031,-55.51
07.046,-37.79
07.062,-20.84
07.078,-5.66
07.093,7.49
07.109,15.75
07.125,17.12
07.140,10.78
07.156,-1.11
07.171,-13.42
07.187,-20.16
07.203,-16.92
07.218,-1.67
07.234,25.4
07.250,58.4
07.265,91.26
07.281,118.64
07.296,138.73
07.312,152.0
07.328,159.96
07.343,163.48
07.359,162.62
07.375,159.06
07.390,152.34
07.406,145.64
07.421,143.36
07.437,150.46
07.453,168.27
07.468,193.23
07.484,218.68
07.500,228.07
07.515,230.92
07.531,226.86
07.546,220.66
07.562,217.75
07.578,222.53
07.593,234.95
07.609,249.67
07.625,258.17
07.640,251.64
07.656,225.63
07.671,177.86
07.687,113.8
07.703,35.55
07.718,-47.21
07.734,-122.2
07.750,-179.83
07.765,-216.91
07.781,-236.73
07.796,-243.26
07.812,-242.15
07.828,-236.23
07.843,-229.18
07.859,-225.9
07.875,-232.85
07.890,-255.04
07.906,-291.99
07.921,-336.71
07.937,-376.8
07.953,-401.66
07.968,-404.71
07.984,-385.77
08.000,-349.61
08.015,-303.67
08.031,-255.83
08.046,-213.21
08.062,-181.58
08.078,-164.73
08.093,-164.14
08.109,-176.18
08.125,-191.59
08.140,-198.11
08.156,-184.52
08.171,-145.83
08.187,-85.55
08.203,-13.22
08.218,60.03
08.234,125.35
08.250,178.7
08.265,220.85
08.281,252.82
08.296,275.86
08.312,290.19
08.328,296.21
08.343,296.19
08.359,294.62
08.375,296.83
08.390,306.27
08.406,323.69
08.421,342.86
08.437,356.43
08.453,357.44
08.468,342.09
08.484,310.86
08.500,267.14
08.515,215.75
08.531,162.09
08.546,113.76
08.562,75.17
08.578,52.27
08.593,49.05
08.609,65.73
08.625,98.34
08.640,139.13
08.656,179.45
08.671,201.88
08.687,218.06
08.703,227.29
08.718,231.52
08.734,231.41
08.750,225.91
08.765,213.58
08.781,192.71
08.796,162.26
08.812,121.98
08.828,74.33
08.843,18.89
08.859,-42.17
08.875,-105.73
08.890,-170.84
08.906,-231.41
08.921,-279.51
08.937,-308.98
08.953,-318.59
08.968,-310.26
08.984,-290.66
09.000,-264.81
09.015,-236.55
09.031,-208.47
09.046,-182.03
09.062,-158.45
09.078,-138.22
09.093,-121.21
09.109,-105.92
09.125,-92.64
09.140,-81.29
09.156,-72.88
09.171,-68.7
09.187,-68.71
09.203,-71.23
09.218,-72.65
09.234,-68.95
09.250,-56.96
09.265,-36.45
09.281,-9.08
09.296,21.97
09.312,53.46
09.328,83.39
09.343,108.48
09.359,126.97
09.375,138.15
09.390,141.88
09.406,138.71
09.421,130.89
09.437,122.09
09.453,117.66
09.468,118.78
09.484,123.32
09.500,127.21
09.515,125.27
09.531,113.49
09.546,91.95
09.562,64.87
09.578,38.79
09.593,19.63
09.609,11.22
09.625,13.23
09.640,22.24
09.656,32.19
09.671,35.89
09.687,28.54
09.703,8.62
09.718,-22.24
09.734,-60.22
09.750,-101.22
09.765,-141.65
09.781,-177.69
09.796,-207.25
09.812,-230.99
09.828,-250.11
09.843,-266.11
09.859,-280.72
09.875,-295.13
09.890,-310.19
09.906,-325.85
09.921,-340.05
09.937,-339.62
09.953,-315.95
09.968,-267.51
09.984,-201.49
10.000,-129.73
10.015,-62.25
10.031,-3.56
10.046,42.22
10.062,81.06
10.078,116.76
10.093,146.87
10.109,166.05
10.125,168.01
10.140,148.83
10.156,109.91
10.171,57.78
10.187,3.28
10.203,-39.55
10.218,-58.74
10.234,-50.07
10.250,-17.48
10.265,28.56
10.281,74.31
10.296,107.39
10.312,119.76
10.328,108.6
10.343,78.03
10.359,36.8
10.375,-5.69
10.390,-41.45
10.406,-65.87
10.421,-79.54
10.437,-87.94
10.453,-98.92
10.468,-119.44
10.484,-149.57
10.500,-182.12
10.515,-207.69
10.531,-218.16
10.546,-210.25
10.562,-186.93
10.578,-155.0
10.593,-116.81
10.609,-77.69
10.625,-44.35
10.640,-13.7
10.656,17.17
10.671,46.54
10.687,70.21
10.703,83.54
10.718,85.57
10.734,80.27
10.750,73.81
10.765,73.88
10.781,86.26
10.796,111.36
10.812,145.18
10.828,181.97
10.843,214.79
10.859,237.03
10.875,242.97
10.890,228.31
10.906,194.0
10.921,147.78
10.937,101.26
10.953,66.88
10.968,54.13
10.984,65.3
11.000,96.27
11.015,134.31
11.031,163.56
11.046,172.03
11.062,157.37
11.078,125.34
11.093,84.38
11.109,45.18
11.125,8.29
11.140,-25.68
11.156,-53.56
11.171,-69.5
11.187,-67.37
11.203,-45.18
11.218,-7.89
11.234,32.94
11.250,62.71
11.265,68.71
11.281,47.27
11.296,4.53
11.312,-45.51
11.328,-86.8
11.343,-107.74
11.359,-106.17
11.375,-89.19
11.390,-69.08
11.406,-57.82
11.421,-60.19
11.437,-73.24
11.453,-88.81
11.468,-97.71
11.484,-93.2
11.500,-73.26
11.515,-39.83
11.531,3.1
11.546,50.57
11.562,97.29
11.578,137.03
11.593,163.74
11.609,173.73
11.625,167.48
11.640,149.41
11.656,125.48
11.671,104.04
11.687,86.31
11.703,71.72
11.718,59.18
11.734,48.1
11.750,38.9
11.765,32.63
11.781,29.94
11.796,31.39
11.812,36.45
11.828,42.89
11.843,48.76
11.859,52.86
11.875,54.97
11.890,55.54
11.906,54.91
11.921,52.72
11.937,48.04
11.953,39.81
11.968,27.04
11.984,10.0
12.000,-10.33
12.015,-32.81
12.031,-56.29
12.046,-79.47
12.062,-100.96
12.078,-119.15
12.093,-132.94
12.109,-142.84
12.125,-150.31
12.140,-157.76
12.156,-167.89
12.171,-182.95
12.187,-203.95
12.203,-230.0
12.218,-257.72
12.234,-281.12
12.250,-292.83
12.265,-285.51
12.281,-254.56
12.296,-200.57
12.312,-130.17
12.328,-54.82
12.343,12.39
12.359,60.9
12.375,85.89
12.390,88.97
12.406,77.08
12.421,59.57
12.437,44.71
12.453,37.15
12.468,37.05
12.484,40.74
12.500,42.78
12.515,37.91
12.531,22.3
12.546,-4.43
12.562,-38.67
12.578,-73.92
12.593,-101.92
12.609,-114.68
12.625,-106.47
12.640,-75.71
12.656,-25.91
12.671,32.78
12.687,87.71
12.703,127.95
12.718,146.64
12.734,142.89
12.750,121.16
12.765,88.91
12.781,53.31
12.796,18.86
12.812,-15.65
12.828,-52.87
12.843,-93.05
12.859,-133.88
12.875,-169.75
12.890,-192.63
12.906,-194.58
12.921,-170.58
12.937,-120.98
12.953,-53.85
12.968,20.86
12.984,96.25
13.000,168.94
13.015,238.22
13.031,304.89
13.046,360.75
13.062,393.48
13.078,405.76
13.093,396.07
13.109,356.44
13.125,287.6
13.140,197.32
13.156,97.72
13.171,-1.75
13.187,-88.48
13.203,-150.77
13.218,-183.71
13.234,-192.89
13.250,-187.65
13.265,-176.97
13.281,-164.3
13.296,-151.82
13.312,-142.18
13.328,-138.74
13.343,-142.7
13.359,-151.75
13.375,-161.95
13.390,-167.06
13.406,-160.81
13.421,-139.79
13.437,-109.17
13.453,-74.31
13.468,-40.45
13.484,-10.57
13.500,14.49
13.515,33.71
13.531,46.44
13.546,52.8
13.562,54.68
13.578,55.9
13.593,62.97
13.609,82.01
13.625,116.23
13.640,164.22
13.656,219.63
13.671,274.54
13.687,321.25
13.703,353.65
13.718,366.81
13.734,358.66
13.750,329.28
13.765,281.17
13.781,219.62
13.796,151.34
13.812,83.27
13.828,20.19
13.843,-36.11
13.859,-87.25
13.875,-135.93
13.890,-184.71
13.906,-234.58
13.921,-283.58
13.937,-327.07
13.953,-357.68
13.968,-367.78
13.984,-352.38
14.000,-311.97
14.015,-251.73
14.031,-180.26
14.046,-106.63
14.062,-37.16
14.078,25.31
14.093,81.44
14.109,133.17
14.125,181.89
14.140,223.21
14.156,251.28
14.171,261.81
14.187,254.59
14.203,234.12
14.218,206.18
14.234,175.84
14.250,146.11
14.265,118.4
14.281,93.8
14.296,74.16
14.312,62.39
14.328,57.87
14.343,57.51
14.359,55.32
14.375,44.96
14.390,22.36
14.406,-12.01
14.421,-53.3
14.437,-94.47
14.453,-130.18
14.468,-159.94
14.484,-184.62
14.500,-207.67
14.515,-231.01
14.531,-252.37
14.546,-265.03
14.562,-261.07
14.578,-234.97
14.593,-186.67
14.609,-121.62
14.625,-47.55
14.640,27.93
14.656,99.55
14.671,163.75
14.687,216.46
14.703,251.95
14.718,263.77
14.734,248.49
14.750,208.11
14.765,150.73
14.781,87.28
14.796,27.48
14.812,-22.64
14.828,-60.91
14.843,-86.0
14.859,-95.75
14.875,-87.08
14.890,-59.31
14.906,-17.03
14.921,28.98
14.937,65.24
14.953,80.89
14.968,71.73
14.984,41.96
15.000,1.27
15.015,-39.87
15.031,-75.06
15.046,-103.54
15.062,-128.81
15.078,-155.02
15.093,-183.64
15.109,-212.5
15.125,-235.67
15.140,-245.97
15.156,-238.09
15.171,-210.53
15.187,-166.15
15.203,-110.15
15.218,-48.01
15.234,16.12
15.250,78.58
15.265,136.26
15.281,185.19
15.296,219.97
15.312,235.24
15.328,227.07
15.343,195.08
15.359,142.81
15.375,76.95
15.390,4.92
15.406,-64.92
15.421,-124.62
15.437,-168.32
15.453,-193.82
15.468,-204.18
15.484,-207.15
15.500,-212.37
15.515,-219.93
15.531,-226.95
15.546,-226.3
15.562,-210.58
15.578,-177.11
15.593,-129.87
15.609,-77.69
15.625,-29.94
15.640,7.87
15.656,35.35
15.671,54.7
15.687,69.42
15.703,81.92
15.718,92.58
15.734,100.76
15.750,105.42
15.765,105.64
15.781,101.1
15.796,91.4
15.812,75.29
15.828,51.88
15.843,21.55
15.859,-13.25
15.875,-47.32
15.890,-73.96
15.906,-87.52
15.921,-85.26
15.937,-68.57
15.953,-42.61
15.968,-13.07
15.984,17.07
16.000,46.18
16.015,75.47
16.031,107.89
16.046,144.42
16.062,184.34
16.078,224.34
16.093,258.34
16.109,279.19
16.125,280.44
16.140,258.7
16.156,215.87
16.171,159.18
16.187,98.89
16.203,45.33
16.218,5.14
16.234,-20.34
16.250,-33.68
16.265,-38.93
16.281,-39.16
16.296,-35.79
16.312,-29.11
16.328,-20.38
16.343,-11.71
16.359,-5.8
16.375,-4.63
16.390,-8.13
16.406,-14.19
16.421,-19.65
16.437,-22.14
16.453,-20.84
16.468,-16.48
16.484,-10.92
16.500,-6.09
16.515,-3.26
16.531,-2.5
16.546,-2.51
16.562,-0.91
16.578,3.9
16.593,12.15
16.609,22.68
16.625,33.23
16.640,41.49
16.656,45.3
16.671,43.77
16.687,37.47
16.703,28.07
16.718,17.43
16.734,6.96
16.750,-2.88
16.765,-12.84
16.781,-23.14
16.796,-34.9
16.812,-48.45
16.828,-63.04
16.843,-76.98
16.859,-88.37
16.875,-95.85
16.890,-99.19
16.906,-99.54
16.921,-98.2
16.937,-96.75
16.953,-96.39
16.968,-97.87
16.984,-101.69
17.000,-107.77
17.015,-114.54
17.031,-118.83
17.046,-116.91
17.062,-104.96
17.078,-81.55
17.093,-48.77
17.109,-12.2
17.125,21.16
17.140,45.69
17.156,59.17
17.171,63.01
17.187,60.67
17.203,55.8
17.218,50.38
17.234,45.06
17.250,39.86
17.265,35.03
17.281,31.49
17.296,30.11
17.312,30.9
17.328,32.46
17.343,33.01
17.359,30.8
17.375,25.82
17.390,19.66
17.406,14.25
17.421,11.21
17.437,10.93
17.453,12.59
17.468,14.49
17.484,15.15
17.500,13.33
17.515,9.35
17.531,5.07
17.546,2.77
17.562,4.72
17.578,12.3
17.593,25.48
17.609,42.21
17.625,58.21
17.640,67.82
17.656,66.22
17.671,51.61
17.687,26.73
17.703,-1.42
17.718,-24.15
17.734,-35.16
17.750,-33.11
17.765,-21.71
17.781,-7.34
17.796,4.4
17.812,11.15
17.828,13.66
17.843,14.13
17.859,13.63
17.875,11.22
17.890,5.21
17.906,-5.62
17.921,-21.05
17.937,-39.7
17.953,-59.75
17.968,-79.74
17.984,-97.83
18.000,-111.61
18.015,-118.31
18.031,-114.65
18.046,-98.74
18.062,-71.82
18.078,-38.54
18.093,-5.73
18.109,20.07
18.125,34.98
18.140,39.14
18.156,35.88
18.171,30.03
18.187,25.42
18.203,23.8
18.218,25.2
18.234,28.82
18.250,34.16
18.265,40.57
18.281,47.44
18.296,53.63
18.312,58.16
18.328,60.11
18.343,58.57
18.359,52.92
18.375,43.15
18.390,30.83
18.406,18.64
18.421,9.29
18.437,3.54
18.453,-0.65
18.468,-7.87
18.484,-22.82
18.500,-48.1
18.515,-82.51
18.531,-121.36
18.546,-158.6
18.562,-189.29
18.578,-210.77
18.593,-221.92
18.609,-221.28
18.625,-206.12
18.640,-174.01
18.656,-125.54
18.671,-66.61
18.687,-8.07
18.703,37.43
18.718,60.34
18.734,57.91
18.750,33.25
18.765,-2.86
18.781,-36.85
18.796,-57.93
18.812,-62.16
18.828,-52.3
18.843,-34.75
18.859,-15.3
18.875,2.99
18.890,20.05
18.906,37.34
18.921,54.9
18.937,70.68
18.953,81.59
18.968,86.04
18.984,85.84
19.000,86.22
19.015,94.13
19.031,115.51
19.046,152.81
19.062,202.58
19.078,255.52
19.093,298.61
19.109,319.38
19.125,310.49
19.140,272.3
19.156,212.51
19.171,142.87
19.187,74.42
19.203,13.62
19.218,-38.54
19.234,-84.72
19.250,-127.68
19.265,-167.05
19.281,-198.78
19.296,-216.61
19.312,-214.71
19.328,-189.74
19.343,-142.12
19.359,-75.62
19.375,2.77
19.390,84.04
19.406,158.18
19.421,215.61
19.437,249.27
19.453,256.75
19.468,242.75
19.484,218.62
19.500,199.13
19.515,196.2
19.531,213.73
19.546,246.24
19.562,281.56
19.578,306.77
19.593,313.1
19.609,299.27
19.625,269.9
19.640,231.18
19.656,187.2
19.671,138.82
19.687,85.76
19.703,28.89
19.718,-28.19
19.734,-81.35
19.750,-127.01
19.765,-163.73
19.781,-193.05
19.796,-218.67
19.812,-244.35
19.828,-271.92
19.843,-301.44
19.859,-331.18
19.875,-360.6
19.890,-389.48
19.906,-416.96
19.921,-440.48
19.937,-455.44
19.953,-456.18
19.968,-437.82
19.984,-399.49
20.000,-337.75
20.015,-259.44
20.031,-178.88
20.046,-111.42
20.062,-66.36
20.078,-44.52
20.093,-41.85
20.109,-51.05
20.125,-65.04
20.140,-76.25
20.156,-78.36
20.171,-66.07
20.187,-36.47
20.203,7.33
20.218,55.92
20.234,95.97
20.250,115.77
20.265,110.27
20.281,84.53
20.296,51.11
20.312,26.29
20.328,24.6
20.343,53.48
20.359,110.07
20.375,182.38
20.390,253.8
20.406,307.85
20.421,333.39
20.437,326.15
20.453,288.74
20.468,229.1
20.484,158.65
20.500,88.64
20.515,29.03
20.531,-11.12
20.546,-25.36
20.562,-10.64
20.578,30.55
20.593,90.22
20.609,157.92
20.625,224.64
20.640,283.78
20.656,331.48
20.671,365.47
20.687,383.16
20.703,382.41
20.718,362.3
20.734,324.32
20.750,267.88
20.765,201.64
20.781,138.99
20.796,92.37
20.812,69.67
20.828,65.63
20.843,71.53
20.859,79.68
20.875,83.16
20.890,77.6
20.906,61.78
20.921,34.94
20.937,-2.71
20.953,-49.99
20.968,-104.91
20.984,-164.19
21.000,-225.16
21.015,-287.49
21.031,-351.8
21.046,-417.06
21.062,-480.14
21.078,-534.53
21.093,-571.23
21.109,-580.89
21.125,-556.47
21.140,-497.12
21.156,-409.85
21.171,-308.23
21.187,-208.95
21.203,-129.06
21.218,-81.26
21.234,-71.36
21.250,-96.69
21.265,-145.56
21.281,-200.97
21.296,-245.7
21.312,-267.45
21.328,-261.73
21.343,-232.54
21.359,-188.89
21.375,-140.66
21.390,-95.23
21.406,-55.72
21.421,-22.18
21.437,6.67
21.453,32.11
21.468,55.13
21.484,76.81
21.500,98.99
21.515,123.77
21.531,152.35
21.546,184.49
21.562,217.58
21.578,247.05
21.593,267.31
21.609,274.02
21.625,266.08
21.640,246.64
21.656,222.21
21.671,200.18
21.687,186.18
21.703,182.03
21.718,186.02
21.734,194.24
21.750,202.22
21.765,206.11
21.781,203.44
21.796,192.89
21.812,173.31
21.828,143.32
21.843,101.38
21.859,47.49
21.875,-15.16
21.890,-79.38
21.906,-134.87
21.921,-170.58
21.937,-177.93
21.953,-153.7
21.968,-102.32
21.984,-35.79
22.000,30.26
22.015,80.28
22.031,102.68
22.046,91.65
22.062,48.29
22.078,-19.63
22.093,-99.22
22.109,-175.23
22.125,-233.64
22.140,-263.2
22.156,-258.28
22.171,-219.99
22.187,-155.55
22.203,-75.11
22.218,10.51
22.234,92.58
22.250,163.84
22.265,217.5
22.281,248.46
22.296,253.78
22.312,233.82
22.328,193.41
22.343,142.3
22.359,88.86
22.375,43.56
22.390,16.69
22.406,7.61
22.421,9.63
22.437,15.28
22.453,18.25
22.468,14.38
22.484,1.11
22.500,-22.83
22.515,-56.56
22.531,-96.84
22.546,-138.55
22.562,-174.49
22.578,-197.54
22.593,-204.3
22.609,-195.37
22.625,-174.68
22.640,-147.44
22.656,-117.36
22.671,-86.17
22.687,-54.58
22.703,-22.03
22.718,11.62
22.734,45.37
22.750,78.07
22.765,109.25
22.781,139.64
22.796,171.68
22.812,208.29
22.828,250.47
22.843,297.21
22.859,344.18
22.875,384.37
22.890,410.13
22.906,415.98
22.921,400.87
22.937,368.91
22.953,327.37
22.968,283.24
22.984,241.26
23.000,202.91
23.015,167.37
23.031,133.53
23.046,101.37
23.062,71.5
23.078,44.55
23.093,19.33
23.109,-7.35
23.125,-38.89
23.140,-77.11
23.156,-121.02
23.171,-167.68
23.187,-214.06
23.203,-258.92
23.218,-303.45
23.234,-350.79
23.250,-403.96
23.265,-464.1
23.281,-529.97
23.296,-597.93
23.312,-662.71
23.328,-718.34
23.343,-758.12
23.359,-775.21
23.375,-763.92
23.390,-721.66
23.406,-650.23
23.421,-555.95
23.437,-448.12
23.453,-335.94
23.468,-226.36
23.484,-123.19
23.500,-28.1
23.515,57.13
23.531,129.33
23.546,184.53
23.562,219.73
23.578,235.01
23.593,234.45
23.609,224.79
23.625,212.92
23.640,203.74
23.656,198.87
23.671,197.15
23.687,196.52
23.703,195.79
23.718,195.62
23.734,198.55
23.750,208.21
23.765,227.61
23.781,257.38
23.796,294.47
23.812,332.2
23.828,361.68
23.843,374.95
23.859,368.89
23.875,347.75
23.890,322.34
23.906,305.95
23.921,308.69
23.937,332.76
23.953,371.61
23.968,413.05
23.984,444.89
24.000,459.81
24.015,456.71
24.031,438.49
24.046,408.4
24.062,367.56
24.078,315.46
24.093,252.46
24.109,181.88
24.125,110.01
24.140,44.02
24.156,-11.49
24.171,-57.03
24.187,-97.64
24.203,-140.09
24.218,-189.28
24.234,-245.7
24.250,-305.62
24.265,-362.73
24.281,-410.63
24.296,-444.3
24.312,-461.42
24.328,-462.14
24.343,-449.39
24.359,-428.64
24.375,-406.96
24.390,-391.88
24.406,-388.85
24.421,-399.73
24.437,-421.42
24.453,-446.73
24.468,-465.93
24.484,-469.41
24.500,-450.59
24.515,-407.1
24.531,-341.39
24.546,-259.22
24.562,-167.98
24.578,-75.43
24.593,11.41
24.609,87.34
24.625,149.78
24.640,198.29
24.656,234.57
24.671,261.57
24.687,283.51
24.703,305.02
24.718,329.08
24.734,354.7
24.750,376.53
24.765,386.71
24.781,377.37
24.796,344.62
24.812,290.49
24.828,220.54
24.843,147.42
24.859,86.78
24.875,49.72
24.890,37.93
24.906,45.32
24.921,62.35
24.937,81.47
24.953,98.19
24.968,112.39
24.984,124.49
25.000,133.36
25.015,135.61
25.031,127.88
25.046,108.84
25.062,79.8
25.078,44.49
25.093,6.94
25.109,-29.77
25.125,-63.95
25.140,-95.76
25.156,-127.74
25.171,-162.01
25.187,-198.81
25.203,-236.38
25.218,-271.62
25.234,-301.84
25.250,-325.42
25.265,-341.79
25.281,-342.6
25.296,-323.26
25.312,-283.76
25.328,-228.89
25.343,-166.25
25.359,-103.25
25.375,-44.95
25.390,6.29
25.406,50.5
25.421,88.5
25.437,119.89
25.453,144.27
25.468,161.74
25.484,173.35
25.500,180.22
25.515,182.49
25.531,179.82
25.546,171.87
25.562,158.45
25.578,138.62
25.593,111.62
25.609,77.03
25.625,35.95
25.640,-9.32
25.656,-55.81
25.671,-101.05
25.687,-143.68
25.703,-183.17
25.718,-218.96
25.734,-248.57
25.750,-272.3
25.765,-283.53
25.781,-276.28
25.796,-248.93
25.812,-205.1
25.828,-152.66
25.843,-100.56
25.859,-55.92
25.875,-21.81
25.890,2.6
25.906,21.65
25.921,39.71
25.937,58.72
25.953,78.8
25.968,98.91
25.984,118.22
26.000,136.22
26.015,152.48
26.031,166.05
26.046,171.32
26.062,163.2
26.078,138.78
26.093,99.55
26.109,49.85
26.125,-4.5
26.140,-58.08
26.156,-107.12
26.171,-149.75
26.187,-185.32
26.203,-213.78
26.218,-236.53
26.234,-254.36
26.250,-267.61
26.265,-276.28
26.281,-280.17
26.296,-279.34
26.312,-274.07
26.328,-264.76
26.343,-251.58
26.359,-235.63
26.375,-217.96
26.390,-199.75
26.406,-181.88
26.421,-164.85
26.437,-148.87
26.453,-133.87
26.468,-119.46
26.484,-104.73
26.500,-88.9
26.515,-71.14
26.531,-51.17
26.546,-28.89
26.562,-4.33
26.578,22.07
26.593,49.28
26.609,75.5
26.625,99.05
26.640,118.24
26.656,132.0
26.671,139.57
26.687,140.78
26.703,136.2
26.718,127.05
26.734,114.62
26.750,100.02
26.765,84.13
26.781,67.59
26.796,51.11
26.812,35.64
26.828,22.66
26.843,13.76
26.859,10.42
26.875,13.38
26.890,22.31
26.906,35.94
26.921,52.54
26.937,70.81
26.953,90.22
26.968,111.26
26.984,134.86
27.000,161.89
27.015,192.46
27.031,225.46
27.046,258.41
27.062,288.41
27.078,313.36
27.093,332.99
27.109,348.62
27.125,362.43
27.140,376.49
27.156,392.29
27.171,410.88
27.187,432.39
27.203,455.7
27.218,477.91
27.234,494.01
27.250,497.35
27.265,481.2
27.281,441.46
27.296,378.62
27.312,298.27
27.328,209.56
27.343,122.35
27.359,44.34
27.375,-20.6
27.390,-71.85
27.406,-110.49
27.421,-137.54
27.437,-153.15
27.453,-157.8
27.468,-153.73
27.484,-146.31
27.500,-143.24
27.515,-151.73
27.531,-174.57
27.546,-207.84
27.562,-241.51
27.578,-263.38
27.593,-264.59
27.609,-243.33
27.625,-205.27
27.640,-159.71
27.656,-115.04
27.671,-75.0
27.687,-38.61
27.703,-2.64
27.718,34.55
27.734,70.94
27.750,101.87
27.765,122.11
27.781,129.11
27.796,123.83
27.812,110.09
27.828,92.81
27.843,75.9
27.859,61.15
27.875,47.87
27.890,34.57
27.906,20.16
27.921,5.84
27.937,-4.98
27.953,-8.52
27.968,-3.13
27.984,8.91
28.000,22.07
28.015,30.07
28.031,29.76
28.046,23.41
28.062,18.0
28.078,21.92
28.093,41.38
28.109,78.1
28.125,128.84
28.140,187.01
28.156,244.39
28.171,292.29
28.187,322.47
28.203,328.69
28.218,308.21
28.234,262.77
28.250,198.65
28.265,124.14
28.281,46.81
28.296,-28.3
28.312,-98.76
28.328,-163.38
28.343,-220.57
28.359,-267.64
28.375,-301.4
28.390,-319.29
28.406,-321.13
28.421,-309.76
28.437,-290.32
28.453,-268.6
28.468,-249.25
28.484,-234.42
28.500,-223.35
28.515,-212.74
28.531,-198.16
28.546,-175.66
28.562,-143.2
28.578,-101.35
28.593,-52.93
28.609,-2.14
28.625,47.24
28.640,92.43
28.656,131.82
28.671,164.3
28.687,188.22
28.703,200.79
28.718,198.56
28.734,179.04
28.750,142.4
28.765,93.24
28.781,39.83
28.796,-8.39
28.812,-44.22
28.828,-65.17
28.843,-74.01
28.859,-76.56
28.875,-78.01
28.890,-80.28
28.906,-80.48
28.921,-72.84
28.937,-52.82
28.953,-20.7
28.968,16.96
28.984,49.78
29.000,67.55
29.015,64.55
29.031,41.12
29.046,3.22
29.062,-39.98
29.078,-79.54
29.093,-109.21
29.109,-127.5
29.125,-137.64
29.140,-146.58
29.156,-162.35
29.171,-190.82
29.187,-232.25
29.203,-279.85
29.218,-321.51
29.234,-343.78
29.250,-337.14
29.265,-299.98
29.281,-239.55
29.296,-169.11
29.312,-103.21
29.328,-52.75
29.343,-21.91
29.359,-8.49
29.375,-5.8
29.390,-6.08
29.406,-3.37
29.421,5.15
29.437,19.99
29.453,40.71
29.468,67.04
29.484,99.16
29.500,136.31
29.515,175.65
29.531,211.6
29.546,236.8
29.562,244.78
29.578,233.02
29.593,204.43
29.609,166.28
29.625,127.26
29.640,93.95
29.656,68.59
29.671,48.82
29.687,29.64
29.703,6.51
29.718,-22.05
29.734,-53.42
29.750,-81.73
29.765,-100.29
29.781,-104.44
29.796,-93.22
29.812,-69.86
29.828,-40.45
29.843,-12.03
29.859,9.35
29.875,19.87
29.890,18.74
29.906,7.95
29.921,-8.09
29.937,-23.43
29.953,-31.62
29.968,-27.07
29.984,-6.5
30.000,30.08
30.015,78.94
30.031,133.43
30.046,185.57
30.062,228.32
30.078,257.85
30.093,274.2
30.109,280.21
30.125,279.38
30.140,274.01
30.156,264.31
30.171,249.44
30.187,229.05
30.203,204.34
30.218,178.22
30.234,154.19
30.250,134.27
30.265,118.36
30.281,104.71
30.296,91.46
30.312,77.66
30.328,63.7
30.343,50.71
30.359,39.16
30.375,28.45
30.390,15.73
30.406,-2.77
30.421,-30.22
30.437,-67.6
30.453,-113.06
30.468,-162.58
30.484,-211.28
30.500,-255.3
30.515,-289.71
30.531,-309.95
30.546,-312.51
30.562,-297.01
30.578,-266.65
30.593,-226.69
30.609,-182.34
30.625,-137.46
30.640,-97.01
30.656,-62.26
30.671,-35.62
30.687,-19.51
30.703,-15.72
30.718,-24.05
30.734,-42.09
30.750,-66.03
30.765,-90.99
30.781,-113.26
30.796,-127.77
30.812,-131.98
30.828,-124.88
30.843,-107.46
30.859,-82.26
30.875,-52.45
30.890,-23.51
30.906,3.02
30.921,25.91
30.937,43.68
30.953,53.02
30.968,50.44
30.984,32.65
31.000,-2.38
31.015,-53.98
31.031,-117.64
31.046,-185.14
31.062,-245.43
31.078,-286.93
31.093,-301.98
31.109,-288.43
31.125,-250.86
31.140,-198.67
31.156,-142.76
31.171,-89.26
31.187,-45.0
31.203,-14.72
31.218,0.32
31.234,1.44
31.250,-6.95
31.265,-20.38
31.281,-35.06
31.296,-47.43
31.312,-54.96
31.328,-56.12
31.343,-49.65
31.359,-34.73
31.375,-11.94
31.390,19.14
31.406,58.81
31.421,107.02
31.437,163.56
31.453,227.24
31.468,294.93
31.484,361.36
31.500,419.09
31.515,449.01
31.531,435.8
31.546,375.21
31.562,278.69
31.578,168.4
31.593,65.99
31.609,-16.25
31.625,-75.87
31.640,-115.4
31.656,-137.47
31.671,-140.17
31.687,-120.07
31.703,-77.09
31.718,-17.96
31.734,44.51
31.750,96.22
31.765,127.65
31.781,137.18
31.796,129.82
31.812,115.02
31.828,101.25
31.843,92.81
31.859,89.73
31.875,89.91
31.890,91.73
31.906,94.69
31.921,98.54
31.937,101.64
31.953,100.69
31.968,91.75
31.984,72.11
32.000,42.23
32.015,6.83
32.031,-26.25
32.046,-49.98
32.062,-61.2
32.078,-61.52
32.093,-55.85
32.109,-49.42
32.125,-45.41
32.140,-44.76
32.156,-46.73
32.171,-50.3
32.187,-55.04
32.203,-60.94
32.218,-67.8
32.234,-74.63
32.250,-79.32
32.265,-79.8
32.281,-74.43
32.296,-62.62
32.312,-45.15
32.328,-24.35
32.343,-3.17
32.359,15.22
32.375,27.95
32.390,34.0
32.406,33.84
32.421,28.31
32.437,18.95
32.453,7.34
32.468,-5.87
32.484,-19.85
32.500,-33.73
32.515,-47.28
32.531,-59.29
32.546,-67.81
32.562,-71.87
32.578,-71.11
32.593,-66.1
32.609,-59.33
32.625,-55.09
32.640,-54.8
32.656,-61.87
32.671,-79.11
32.687,-102.68
32.703,-129.36
32.718,-155.49
32.734,-176.59
32.750,-186.47
32.765,-178.9
32.781,-150.57
32.796,-103.74
32.812,-45.77
32.828,12.6
32.843,60.59
32.859,92.07
32.875,106.82
32.890,109.53
32.906,106.27
32.921,101.61
32.937,97.55
32.953,94.39
32.968,90.75
32.984,83.54
33.000,69.71
33.015,46.21
33.031,12.5
33.046,-29.21
33.062,-74.74
33.078,-117.85
33.093,-152.42
33.109,-174.21
33.125,-182.21
33.140,-177.66
33.156,-163.8
33.171,-144.15
33.187,-117.19
33.203,-87.22
33.218,-58.1
33.234,-32.82
33.250,-12.74
33.265,0.87
33.281,9.59
33.296,14.48
33.312,15.74
33.328,13.39
33.343,5.63
33.359,-8.92
33.375,-30.71
33.390,-56.73
33.406,-80.71
33.421,-94.34
33.437,-90.79
33.453,-67.18
33.468,-24.49
33.484,31.67
33.500,94.43
33.515,154.95
33.531,207.48
33.546,250.48
33.562,285.74
33.578,315.21
33.593,330.4
33.609,324.93
33.625,296.37
33.640,249.58
33.656,192.99
33.671,135.89
33.687,85.62
33.703,46.66
33.718,19.81
33.734,2.48
33.750,-8.15
33.765,-15.49
33.781,-21.81
33.796,-28.75
33.812,-35.41
33.828,-38.97
33.843,-35.78
33.859,-23.47
33.875,-2.78
33.890,23.19
33.906,48.16
33.921,64.21
33.937,64.35
33.953,45.66
33.968,9.44
33.984,-37.11
34.000,-82.53
34.015,-114.82
34.031,-123.99
34.046,-106.16
34.062,-65.46
34.078,-13.53
34.093,33.96
34.109,62.83
34.125,64.73
34.140,41.18
34.156,2.51
34.171,-35.97
34.187,-61.01
34.203,-67.09
34.218,-57.51
34.234,-41.41
34.250,-28.0
34.265,-22.66
34.281,-25.56
34.296,-33.94
34.312,-45.31
34.328,-56.56
34.343,-65.51
34.359,-70.02
34.375,-67.86
34.390,-56.13
34.406,-32.45
34.421,3.33
34.437,47.72
34.453,93.9
34.468,134.25
34.484,162.68
34.500,177.3
34.515,180.01
34.531,174.85
34.546,166.02
34.562,156.13
34.578,145.67
34.593,133.04
34.609,116.2
34.625,93.62
34.640,65.68
34.656,34.14
34.671,4.86
34.687,-16.88
34.703,-28.85
34.718,-31.79
34.734,-28.85
34.750,-23.97
34.765,-20.68
34.781,-20.68
34.796,-25.24
34.812,-34.39
34.828,-47.61
34.843,-65.98
34.859,-90.85
34.875,-123.0
34.890,-161.71
34.906,-205.26
34.921,-250.61
34.937,-297.12
34.953,-344.39
34.968,-390.55
34.984,-432.28
35.000,-462.23
35.015,-471.76
35.031,-454.86
35.046,-412.64
35.062,-353.83
35.078,-294.78
35.093,-250.7
35.109,-215.96
35.125,-183.7
35.140,-146.22
35.156,-100.43
35.171,-48.79
35.187,-3.67
35.203,37.39
35.218,79.42
35.234,128.45
35.250,189.44
35.265,261.3
35.281,336.54
35.296,398.97
35.312,431.43
35.328,424.66
35.343,384.0
35.359,322.4
35.375,254.74
35.390,192.45
35.406,139.66
35.421,96.8
35.437,62.7
35.453,38.14
35.468,23.43
35.484,18.61
35.500,21.18
35.515,28.31
35.531,37.94
35.546,48.33
35.562,59.29
35.578,71.68
35.593,89.24
35.609,116.05
35.625,154.52
35.640,200.94
35.656,247.88
35.671,286.44
35.687,307.84
35.703,307.74
35.718,282.22
35.734,237.82
35.750,189.4
35.765,152.73
35.781,135.38
35.796,135.52
35.812,144.96
35.828,155.51
35.843,163.34
35.859,168.04
35.875,169.97
35.890,167.44
35.906,156.15
35.921,130.74
35.937,87.76
35.953,27.71
35.968,-47.14
35.984,-131.07
36.000,-216.65
36.015,-296.44
36.031,-366.0
36.046,-425.11
36.062,-476.02
36.078,-521.68
36.093,-564.89
36.109,-609.57
36.125,-655.07
36.140,-695.22
36.156,-720.22
36.171,-721.66
36.187,-696.36
36.203,-647.74
36.218,-584.3
36.234,-494.81
36.250,-383.63
36.265,-265.97
36.281,-159.22
36.296,-73.72
36.312,-11.52
36.328,29.56
36.343,51.91
36.359,58.22
36.375,51.11
36.390,34.15
36.406,13.71
36.421,-2.16
36.437,-6.65
36.453,2.82
36.468,25.03
36.484,55.82
36.500,91.48
36.515,129.54
36.531,167.39
36.546,204.87
36.562,243.57
36.578,285.1
36.593,329.06
36.609,374.76
36.625,420.11
36.640,462.45
36.656,498.27
36.671,521.49
36.687,526.37
36.703,510.34
36.718,476.12
36.734,431.38
36.750,388.11
36.765,354.93
36.781,333.11
36.796,316.62
36.812,295.2
36.828,260.54
36.843,210.57
36.859,150.02
36.875,78.28
36.890,3.66
36.906,-62.9
36.921,-113.49
36.937,-145.7
36.953,-161.35
36.968,-163.34
36.984,-154.89
37.000,-139.55
37.015,-122.45
37.031,-108.05
37.046,-101.62
37.062,-106.59
37.078,-121.44
37.093,-139.23
37.109,-150.19
37.125,-145.78
37.140,-121.6
37.156,-79.54
37.171,-25.61
37.187,30.84
37.203,77.79
37.218,105.89
37.234,113.02
37.250,104.6
37.265,88.54
37.281,69.93
37.296,49.36
37.312,26.36
37.328,0.93
37.343,-25.41
37.359,-48.6
37.375,-63.82
37.390,-67.34
37.406,-59.11
37.421,-42.66
37.437,-24.23
37.453,-10.68
37.468,-8.45
37.484,-21.45
37.500,-48.49
37.515,-83.14
37.531,-116.09
37.546,-138.79
37.562,-146.45
37.578,-139.56
37.593,-122.68
37.609,-98.73
37.625,-72.43
37.640,-46.64
37.656,-21.26
37.671,6.0
37.687,37.62
37.703,74.57
37.718,115.16
37.734,154.77
37.750,187.41
37.765,207.07
37.781,210.58
37.796,198.26
37.812,173.45
37.828,140.94
37.843,105.51
37.859,71.01
37.875,39.61
37.890,12.21
37.906,-11.2
37.921,-30.55
37.937,-45.44
37.953,-55.46
37.968,-61.45
37.984,-65.3
38.000,-69.31
38.015,-74.73
38.031,-81.22
38.046,-87.58
38.062,-93.07
38.078,-99.17
38.093,-109.49
38.109,-128.92
38.125,-160.66
38.140,-203.69
38.156,-251.11
38.171,-292.31
38.187,-317.56
38.203,-321.37
38.218,-304.19
38.234,-270.89
38.250,-228.9
38.265,-185.78
38.281,-147.2
38.296,-115.68
38.312,-91.09
38.328,-71.53
38.343,-53.41
38.359,-31.33
38.375,1.15
38.390,47.46
38.406,105.19
38.421,165.29
38.437,215.19
38.453,243.03
38.468,241.36
38.484,210.39
38.500,154.69
38.515,89.16
38.531,33.38
38.546,1.74
38.562,-3.75
38.578,9.5
38.593,31.31
38.609,53.08
38.625,70.5
38.640,82.54
38.656,91.18
38.671,98.59
38.687,105.75
38.703,111.93
38.718,116.98
38.734,121.41
38.750,124.72
38.765,126.58
38.781,124.89
38.796,118.12
38.812,104.96
38.828,86.02
38.843,63.4
38.859,42.35
38.875,29.13
38.890,26.15
38.906,29.92
38.921,31.91
38.937,23.12
38.953,-2.14
38.968,-42.98
38.984,-93.67
39.000,-144.9
39.015,-179.78
39.031,-186.54
39.046,-164.23
39.062,-122.31
39.078,-73.2
39.093,-30.04
39.109,8.07
39.125,42.77
39.140,73.79
39.156,98.28
39.171,110.73
39.187,105.38
39.203,79.57
39.218,34.88
39.234,-21.88
39.250,-80.95
39.265,-134.31
39.281,-175.66
39.296,-199.72
39.312,-204.16
39.328,-189.27
39.343,-158.49
39.359,-117.94
39.375,-75.45
39.390,-37.8
39.406,-9.82
39.421,7.32
39.437,15.71
39.453,17.8
39.468,15.34
39.484,9.11
39.500,0.6
39.515,-7.75
39.531,-12.8
39.546,-12.51
39.562,-6.57
39.578,3.09
39.593,12.59
39.609,18.21
39.625,17.57
39.640,11.4
39.656,2.69
39.671,-5.0
39.687,-8.71
39.703,-6.85
39.718,0.11
39.734,10.19
39.750,20.89
39.765,30.76
39.781,40.88
39.796,53.94
39.812,72.3
39.828,96.57
39.843,125.52
39.859,155.67
39.875,182.13
39.890,200.04
39.906,206.52
39.921,202.57
39.937,191.67
39.953,177.62
39.968,162.85
39.984,149.04
40.000,136.58
40.015,124.51
40.031,110.73
40.046,92.79
40.062,70.34
40.078,43.79
40.093,14.08
40.109,-18.35
40.125,-51.36
40.140,-79.09
40.156,-93.55
40.171,-89.26
40.187,-73.65
40.203,-52.69
40.218,-30.49
40.234,-6.28
40.250,19.34
40.265,46.32
40.281,73.66
40.296,97.99
40.312,113.82
40.328,112.69
40.343,88.77
40.359,42.54
40.375,-16.21
40.390,-74.01
40.406,-119.03
40.421,-145.97
40.437,-157.67
40.453,-162.26
40.468,-168.22
40.484,-178.74
40.500,-196.46
40.515,-211.42
40.531,-212.8
40.546,-193.8
40.562,-153.27
40.578,-97.13
40.593,-37.42
40.609,11.15
40.625,36.85
40.640,34.55
40.656,7.98
40.671,-35.14
40.687,-85.27
40.703,-135.66
40.718,-183.55
40.734,-229.63
40.750,-275.78
40.765,-321.62
40.781,-363.3
40.796,-393.96
40.812,-397.62
40.828,-366.05
40.843,-301.47
40.859,-216.08
40.875,-126.37
40.890,-45.97
40.906,17.7
40.921,63.71
40.937,95.44
40.953,116.16
40.968,128.15
40.984,134.3
41.000,140.15
41.015,152.4
41.031,175.99
41.046,209.67
41.062,245.12
41.078,270.33
41.093,273.75
41.109,250.3
41.125,204.7
41.140,150.58
41.156,104.52
41.171,79.34
41.187,79.03
41.203,99.54
41.218,131.56
41.234,165.02
41.250,191.76
41.265,207.33
41.281,210.57
41.296,202.27
41.312,184.08
41.328,157.6
41.343,122.02
41.359,82.74
41.375,44.83
41.390,12.54
41.406,-11.39
41.421,-26.96
41.437,-36.57
41.453,-43.89
41.468,-52.31
41.484,-63.88
41.500,-77.74
41.515,-91.88
41.531,-103.82
41.546,-111.2
41.562,-113.62
41.578,-112.58
41.593,-110.25
41.609,-108.31
41.625,-107.76
41.640,-106.6
41.656,-102.44
41.671,-92.83
41.687,-76.02
41.703,-51.86
41.718,-22.25
41.734,10.09
41.750,41.55
41.765,69.06
41.781,91.1
41.796,106.86
41.812,116.4
41.828,120.38
41.843,119.26
41.859,110.99
41.875,96.69
41.890,77.2
41.906,53.95
41.921,29.42
41.937,5.9
41.953,-14.41
41.968,-29.87
41.984,-40.14
42.000,-46.29
42.015,-49.49
42.031,-51.79
42.046,-54.58
42.062,-58.21
42.078,-62.4
42.093,-66.56
42.109,-69.25
42.125,-68.73
42.140,-63.18
42.156,-50.59
42.171,-30.99
42.187,-6.88
42.203,16.6
42.218,32.55
42.234,35.26
42.250,23.76
42.265,2.57
42.281,-19.84
42.296,-34.68
42.312,-37.26
42.328,-27.97
42.343,-11.1
42.359,7.2
42.375,22.8
42.390,34.48
42.406,42.14
42.421,45.84
42.437,45.31
42.453,39.51
42.468,29.6
42.484,19.64
42.500,15.0
42.515,19.92
42.531,34.95
42.546,55.29
42.562,73.36
42.578,81.77
42.593,76.57
42.609,59.16
42.625,34.74
42.640,9.39
42.656,-12.38
42.671,-28.93
42.687,-40.89
42.703,-49.36
42.718,-55.31
42.734,-59.15
42.750,-60.81
42.765,-60.5
42.781,-59.0
42.796,-57.26
42.812,-56.29
42.828,-56.48
42.843,-57.13
42.859,-57.37
42.875,-56.46
42.890,-53.98
42.906,-50.25
42.921,-46.08
42.937,-42.3
42.953,-39.77
42.968,-38.55
42.984,-38.25
43.000,-38.13
43.015,-37.54
43.031,-35.86
43.046,-32.96
43.062,-29.21
43.078,-24.87
43.093,-20.38
43.109,-15.84
43.125,-11.13
43.140,-6.0
43.156,-0.32
43.171,6.06
43.187,13.02
43.203,20.07
43.218,26.88
43.234,32.88
43.250,37.52
43.265,40.39
43.281,41.29
43.296,40.28
43.312,37.78
43.328,34.31
43.343,30.59
43.359,27.62
43.375,26.04
43.390,26.0
43.406,27.03
43.421,28.2
43.437,28.65
43.453,28.21
43.468,27.15
43.484,26.02
43.500,25.63
43.515,26.01
43.531,26.48
43.546,25.84
43.562,22.57
43.578,15.91
43.593,6.41
43.609,-4.22
43.625,-13.55
43.640,-19.1
43.656,-19.74
43.671,-16.02
43.687,-9.71
43.703,-3.28
43.718,1.51
43.734,4.52
43.750,7.02
43.765,11.29
43.781,20.05
43.796,35.61
43.812,59.89
43.828,94.1
43.843,136.17
43.859,179.86
43.875,216.53
43.890,236.09
43.906,230.54
43.921,198.02
43.937,144.31
43.953,81.15
43.968,21.53
43.984,-25.46
44.000,-56.68
44.015,-74.2
44.031,-82.62
44.046,-85.7
44.062,-85.09
44.078,-81.01
44.093,-73.79
44.109,-64.94
44.125,-57.19
44.140,-52.71
44.156,-52.06
44.171,-54.16
44.187,-56.68
44.203,-57.09
44.218,-54.05
44.234,-47.88
44.250,-40.28
44.265,-33.6
44.281,-29.5
44.296,-28.4
44.312,-29.42
44.328,-30.85
44.343,-31.01
44.359,-28.99
44.375,-24.95
44.390,-19.97
44.406,-15.48
44.421,-12.54
44.437,-11.41
44.453,-11.63
44.468,-12.23
44.484,-12.26
44.500,-11.19
44.515,-9.06
44.531,-6.37
44.546,-3.81
44.562,-1.91
44.578,-0.87
44.593,-0.53
44.609,-0.42
44.625,-0.12
44.640,0.61
44.656,1.82
44.671,3.49
44.687,5.48
44.703,7.74
44.718,10.22
44.734,12.76
44.750,15.42
44.765,18.03
44.781,20.44
44.796,22.26
44.812,23.24
44.828,23.07
44.843,21.45
44.859,18.32
44.875,13.61
44.890,7.58
44.906,0.67
44.921,-6.59
44.937,-13.51
44.953,-19.37
44.968,-23.23
44.984,-24.55
45.000,-22.97
45.015,-18.64
45.031,-11.81
45.046,-2.98
45.062,7.14
45.078,17.67
45.093,27.67
45.109,36.22
45.125,42.33
45.140,45.31
45.156,44.13
45.171,38.36
45.187,27.83
45.203,12.91
45.218,-5.27
45.234,-25.38
45.250,-45.69
45.265,-64.54
45.281,-80.3
45.296,-91.92
45.312,-98.3
45.328,-98.76
45.343,-93.16
45.359,-81.09
45.375,-64.23
45.390,-44.39
45.406,-23.37
45.421,-2.64
45.437,16.65
45.453,33.94
45.468,49.02
45.484,60.77
45.500,67.42
45.515,66.63
45.531,57.85
45.546,42.91
45.562,26.99
45.578,16.53
45.593,16.73
45.609,29.31
45.625,50.68
45.640,74.77
45.656,94.32
45.671,104.02
45.687,100.88
45.703,84.47
45.718,56.07
45.734,18.74
45.750,-22.41
45.765,-60.16
45.781,-85.69
45.796,-91.42
45.812,-74.46
45.828,-39.3
45.843,2.94
45.859,37.55
45.875,52.07
45.890,41.22
45.906,8.62
45.921,-35.17
45.937,-77.5
45.953,-108.67
45.968,-125.02
45.984,-128.36
46.000,-123.17
46.015,-113.7
46.031,-101.62
46.046,-87.05
46.062,-69.74
46.078,-50.33
46.093,-30.15
46.109,-11.05
46.125,5.15
46.140,17.4
46.156,25.12
46.171,28.51
46.187,27.07
46.203,20.29
46.218,8.86
46.234,-4.7
46.250,-15.05
46.265,-15.64
46.281,-0.96
46.296,30.92
46.312,76.76
46.328,127.87
46.343,172.89
46.359,202.11
46.375,210.09
46.390,197.62
46.406,170.47
46.421,136.58
46.437,103.16
46.453,74.2
46.468,53.25
46.484,41.52
46.500,38.34
46.515,40.91
46.531,44.91
46.546,44.82
46.562,34.93
46.578,12.76
46.593,-20.63
46.609,-61.24
46.625,-104.66
46.640,-145.81
46.656,-178.85
46.671,-196.81
46.687,-193.86
46.703,-168.46
46.718,-125.15
46.734,-75.4
46.750,-33.35
46.765,-10.43
46.781,-9.95
46.796,-26.93
46.812,-50.4
46.828,-69.15
46.843,-77.06
46.859,-73.89
46.875,-64.75
46.890,-56.03
46.906,-54.68
46.921,-60.05
46.937,-69.6
46.953,-80.08
46.968,-88.23
46.984,-91.73
47.000,-89.08
47.015,-79.72
47.031,-63.66
47.046,-41.2
47.062,-12.46
47.078,21.66
47.093,59.75
47.109,100.04
47.125,139.81
47.140,175.66
47.156,203.96
47.171,221.85
47.187,227.81
47.203,222.34
47.218,207.39
47.234,184.12
47.250,156.51
47.265,129.76
47.281,108.94
47.296,97.65
47.312,97.41
47.328,107.42
47.343,124.88
47.359,145.39
47.375,163.75
47.390,175.24
47.406,175.79
47.421,162.85
47.437,135.98
47.453,97.26
47.468,50.83
47.484,2.01
47.500,-43.78
47.515,-81.96
47.531,-109.25
47.546,-124.54
47.562,-128.88
47.578,-125.1
47.593,-116.92
47.609,-108.12
47.625,-101.38
47.640,-97.6
47.656,-95.81
47.671,-93.6
47.687,-88.81
47.703,-80.67
47.718,-70.47
47.734,-60.86
47.750,-54.83
47.765,-54.09
47.781,-58.38
47.796,-65.63
47.812,-72.71
47.828,-76.9
47.843,-76.54
47.859,-71.03
47.875,-60.55
47.890,-45.44
47.906,-26.26
47.921,-3.92
47.937,19.82
47.953,42.57
47.968,61.46
47.984,73.81
48.000,77.7
48.015,72.01
48.031,56.33
48.046,30.35
48.062,-5.84
48.078,-51.24
48.093,-102.71
48.109,-154.58
48.125,-199.22
48.140,-229.18
48.156,-239.57
48.171,-229.63
48.187,-202.75
48.203,-164.45
48.218,-120.3
48.234,-74.05
48.250,-27.58
48.265,18.27
48.281,62.22
48.296,101.8
48.312,134.08
48.328,156.37
48.343,167.44
48.359,167.51
48.375,157.97
48.390,140.86
48.406,118.79
48.421,94.6
48.437,71.05
48.453,50.87
48.468,36.1
48.484,28.24
48.500,27.65
48.515,33.65
48.531,44.08
48.546,55.69
48.562,64.66
48.578,67.36
48.593,61.68
48.609,47.21
48.625,25.52
48.640,-0.62
48.656,-27.92
48.671,-53.25
48.687,-73.89
48.703,-87.46
48.718,-92.59
48.734,-89.3
48.750,-79.65
48.765,-67.56
48.781,-57.7
48.796,-53.97
48.812,-58.01
48.828,-68.99
48.843,-83.87
48.859,-98.91
48.875,-110.95
48.890,-118.32
48.906,-120.94
48.921,-120.08
48.937,-117.78
48.953,-115.99
48.968,-116.42
48.984,-119.67
49.000,-125.1
49.015,-130.72
49.031,-133.92
49.046,-132.2
49.062,-124.14
49.078,-110.05
49.093,-92.0
49.109,-73.31
49.125,-57.37
49.140,-46.59
49.156,-41.23
49.171,-39.23
49.187,-36.66
49.203,-28.75
49.218,-11.66
49.234,15.86
49.250,51.38
49.265,88.87
49.281,120.03
49.296,137.06
49.312,135.72
49.328,117.19
49.343,87.85
49.359,56.92
49.375,32.85
49.390,20.47
49.406,19.96
49.421,28.0
49.437,40.2
49.453,53.46
49.468,66.86
49.484,80.86
49.500,95.8
49.515,110.77
49.531,123.53
49.546,131.31
49.562,132.24
49.578,125.95
49.593,113.8
49.609,98.28
49.625,82.15
49.640,67.69
49.656,56.22
49.671,48.03
49.687,42.51
49.703,38.74
49.718,35.82
49.734,33.08
49.750,30.19
49.765,27.3
49.781,24.65
49.796,22.73
49.812,22.28
49.828,24.82
49.843,32.11
49.859,45.13
49.875,62.82
49.890,81.68
49.906,97.05
49.921,105.49
49.937,107.26
49.953,106.72
49.968,110.58
49.984,123.97
50.000,146.79
50.015,172.62
50.031,191.05
50.046,192.06
50.062,170.48
50.078,127.97
50.093,71.52
50.109,10.17
50.125,-48.63
50.140,-100.52
50.156,-144.07
50.171,-179.08
50.187,-205.13
50.203,-221.15
50.218,-225.94
50.234,-219.36
50.250,-203.34
50.265,-181.54
50.281,-158.37
50.296,-137.44
50.312,-120.77
50.328,-108.15
50.343,-97.84
50.359,-87.45
50.375,-75.08
50.390,-59.9
50.406,-42.09
50.421,-22.48
50.437,-1.86
50.453,18.83
50.468,38.22
50.484,53.92
50.500,62.74
50.515,61.46
50.531,48.32
50.546,24.35
50.562,-6.33
50.578,-37.45
50.593,-62.35
50.609,-76.03
50.625,-76.63
50.640,-65.39
50.656,-45.76
50.671,-22.22
50.687,0.88
50.703,19.81
50.718,31.58
50.734,34.1
50.750,26.61
50.765,9.88
50.781,-13.29
50.796,-38.41
50.812,-60.51
50.828,-75.68
50.843,-82.69
50.859,-83.35
50.875,-81.83
50.890,-82.71
50.906,-89.45
50.921,-103.12
50.937,-122.25
50.953,-143.49
50.968,-162.66
50.984,-176.19
51.000,-181.73
51.015,-178.66
51.031,-167.79
51.046,-150.89
51.062,-129.96
51.078,-106.66
51.093,-81.9
51.109,-55.73
51.125,-27.71
51.140,2.71
51.156,35.41
51.171,69.41
51.187,102.5
51.203,131.76
51.218,154.07
51.234,166.97
51.250,169.47
51.265,162.15
51.281,147.03
51.296,126.65
51.312,103.53
51.328,79.85
51.343,57.58
51.359,38.79
51.375,25.53
51.390,19.45
51.406,20.91
51.421,28.77
51.437,40.36
51.453,52.32
51.468,61.85
51.484,67.46
51.500,69.41
51.515,69.59
51.531,71.08
51.546,77.06
51.562,89.89
51.578,109.64
51.593,133.52
51.609,156.22
51.625,171.39
51.640,174.08
51.656,162.57
51.671,139.37
51.687,110.35
51.703,82.96
51.718,63.55
51.734,55.95
51.750,60.7
51.765,75.26
51.781,95.03
51.796,114.22
51.812,127.04
51.828,129.0
51.843,117.98
51.859,94.38
51.875,61.0
51.890,22.07
51.906,-18.02
51.921,-55.24
51.937,-86.14
51.953,-107.93
51.968,-118.67
51.984,-117.92
52.000,-108.13
52.015,-94.61
52.031,-84.08
52.046,-82.53
52.062,-92.53
52.078,-112.21
52.093,-136.39
52.109,-158.83
52.125,-175.14
52.140,-184.72
52.156,-190.18
52.171,-195.09
52.187,-202.08
52.203,-211.56
52.218,-222.15
52.234,-231.92
52.250,-238.54
52.265,-240.5
52.281,-237.26
52.296,-228.98
52.312,-216.1
52.328,-199.29
52.343,-179.33
52.359,-156.92
52.375,-132.43
52.390,-104.46
52.406,-70.9
52.421,-30.46
52.437,16.48
52.453,67.77
52.468,119.9
52.484,168.84
52.500,211.67
52.515,240.73
52.531,250.34
52.546,240.63
52.562,217.1
52.578,186.77
52.593,155.81
52.609,129.18
52.625,109.25
52.640,97.39
52.656,93.14
52.671,96.08
52.687,104.17
52.703,115.6
52.718,129.41
52.734,144.71
52.750,161.34
52.765,179.17
52.781,197.83
52.796,215.97
52.812,232.71
52.828,243.86
52.843,244.1
52.859,226.67
52.875,185.97
52.890,120.19
52.906,32.55
52.921,-69.03
52.937,-174.52
52.953,-272.99
52.968,-359.82
52.984,-433.35
53.000,-494.2
53.015,-541.22
53.031,-568.97
53.046,-569.03
53.062,-533.7
53.078,-460.49
53.093,-352.33
53.109,-222.31
53.125,-85.19
53.140,45.03
53.156,159.28
53.171,255.28
53.187,335.15
53.203,402.1
53.218,445.73
53.234,477.63
53.250,491.25
53.265,480.3
53.281,439.16
53.296,366.45
53.312,267.1
53.328,151.45
53.343,32.28
53.359,-79.12
53.375,-172.67
53.390,-241.16
53.406,-275.29
53.421,-272.71
53.437,-240.83
53.453,-192.2
53.468,-138.07
53.484,-86.0
53.500,-40.96
53.515,-3.89
53.531,23.24
53.546,40.99
53.562,50.07
53.578,51.88
53.593,48.39
53.609,41.14
53.625,31.91
53.640,18.5
53.656,0.42
53.671,-21.85
53.687,-43.69
53.703,-59.85
53.718,-66.17
53.734,-60.94
53.750,-46.0
53.765,-26.88
53.781,-10.82
53.796,-2.63
53.812,-8.46
53.828,-27.34
53.843,-54.44
53.859,-84.45
53.875,-113.64
53.890,-139.43
53.906,-162.46
53.921,-183.06
53.937,-200.26
53.953,-212.26
53.968,-217.87
53.984,-217.83
54.000,-214.78
54.015,-210.87
54.031,-207.02
54.046,-202.99
54.062,-198.06
54.078,-191.16
54.093,-180.08
54.109,-163.71
54.125,-143.0
54.140,-122.62
54.156,-105.54
54.171,-93.1
54.187,-84.79
54.203,-79.58
54.218,-76.23
54.234,-70.54
54.250,-59.74
54.265,-43.73
54.281,-28.53
54.296,-16.64
54.312,-7.98
54.328,-0.17
54.343,8.88
54.359,20.99
54.375,42.55
54.390,77.59
54.406,125.78
54.421,177.0
54.437,225.82
54.453,270.44
54.468,312.28
54.484,351.91
54.500,389.52
54.515,431.87
54.531,483.09
54.546,542.1
54.562,595.6
54.578,637.02
54.593,664.24
54.609,679.0
54.625,681.94
54.640,630.25
54.656,502.98
54.671,308.52
54.687,126.1
54.703,-22.55
54.718,-134.9
54.734,-227.7
54.750,-304.97
54.765,-368.36
54.781,-418.38
54.796,-448.58
54.812,-454.97
54.828,-439.0
54.843,-414.47
54.859,-388.42
54.875,-363.73
54.890,-339.51
54.906,-316.31
54.921,-295.07
54.937,-271.6
54.953,-243.03
54.968,-210.01
54.984,-181.85
55.000,-162.04
55.015,-150.44
55.031,-143.82
55.046,-140.18
55.062,-138.29
55.078,-134.45
55.093,-126.5
55.109,-114.96
55.125,-106.1
55.140,-102.48
55.156,-104.19
55.171,-109.16
55.187,-115.95
55.203,-123.48
55.218,-129.5
55.234,-132.43
55.250,-131.64
55.265,-128.92
55.281,-123.89
55.296,-114.87
55.312,-99.65
55.328,-77.32
55.343,-48.54
55.359,-15.13
55.375,20.0
55.390,53.67
55.406,82.9
55.421,106.98
55.437,126.92
55.453,144.49
55.468,160.85
55.484,176.12
55.500,189.27
55.515,199.03
55.531,204.69
55.546,206.98
55.562,208.33
55.578,211.54
55.593,218.73
55.609,230.76
55.625,247.51
55.640,268.47
55.656,292.66
55.671,317.43
55.687,337.37
55.703,344.94
55.718,332.68
55.734,297.4
55.750,243.22
55.765,181.17
55.781,125.05
55.796,85.31
55.812,64.64
55.828,58.16
55.843,57.92
55.859,58.38
55.875,59.71
55.890,66.56
55.906,83.58
55.921,110.94
55.937,142.68
55.953,169.08
55.968,181.62
55.984,177.11
56.000,158.97
56.015,135.28
56.031,114.49
56.046,101.72
56.062,97.5
56.078,98.63
56.093,100.13
56.109,97.19
56.125,85.59
56.140,62.12
56.156,24.63
56.171,-26.62
56.187,-87.67
56.203,-150.23
56.218,-203.09
56.234,-235.33
56.250,-239.86
56.265,-216.32
56.281,-171.25
56.296,-116.07
56.312,-63.7
56.328,-24.83
56.343,-5.04
56.359,-3.54
56.375,-13.92
56.390,-26.49
56.406,-31.92
56.421,-24.69
56.437,-5.29
56.453,19.97
56.468,42.05
56.484,53.12
56.500,50.24
56.515,36.33
56.531,18.74
56.546,5.72
56.562,2.74
56.578,10.47
56.593,24.76
56.609,38.74
56.625,45.85
56.640,42.37
56.656,27.93
56.671,4.53
56.687,-25.12
56.703,-58.83
56.718,-94.69
56.734,-130.08
56.750,-160.95
56.765,-182.49
56.781,-191.24
56.796,-187.17
56.812,-174.34
56.828,-159.09
56.843,-147.27
56.859,-141.09
56.875,-138.97
56.890,-137.2
56.906,-132.9
56.921,-126.45
56.937,-121.14
56.953,-120.63
56.968,-125.95
56.984,-134.14
57.000,-139.52
57.015,-136.99
57.031,-124.99
57.046,-106.01
57.062,-84.77
57.078,-64.81
57.093,-45.99
57.109,-24.87
57.125,2.7
57.140,38.28
57.156,79.16
57.171,119.33
57.187,152.38
57.203,174.47
57.218,185.77
57.234,189.45
57.250,189.55
57.265,188.69
57.281,187.17
57.296,183.51
57.312,175.74
57.328,162.95
57.343,145.87
57.359,127.05
57.375,109.93
57.390,97.73
57.406,92.69
57.421,95.44
57.437,104.94
57.453,118.93
57.468,134.4
57.484,148.02
57.500,156.78
57.515,158.82
57.531,153.77
57.546,143.08
57.562,129.45
57.578,115.57
57.593,103.0
57.609,91.43
57.625,79.04
57.640,63.71
57.656,44.71
57.671,23.48
57.687,3.62
57.703,-10.45
57.718,-15.29
57.734,-9.71
57.750,4.88
57.765,25.14
57.781,47.15
57.796,67.95
57.812,86.28
57.828,102.74
57.843,119.1
57.859,136.87
57.875,156.11
57.890,174.63
57.906,188.01
57.921,190.35
57.937,175.73
57.953,139.81
57.968,81.6
57.984,4.93
58.000,-81.37
58.015,-164.63
58.031,-231.48
58.046,-272.25
58.062,-284.76
58.078,-275.8
58.093,-258.93
58.109,-248.55
58.125,-253.5
58.140,-273.06
58.156,-297.54
58.171,-313.03
58.187,-308.08
58.203,-278.31
58.218,-227.27
58.234,-163.47
58.250,-95.74
58.265,-29.93
58.281,31.45
58.296,87.43
58.312,136.35
58.328,175.04
58.343,200.03
58.359,209.67
58.375,205.38
58.390,191.24
58.406,172.14
58.421,151.43
58.437,129.8
58.453,105.69
58.468,76.77
58.484,41.72
58.500,1.44
58.515,-41.37
58.531,-83.32
58.546,-121.55
58.562,-154.73
58.578,-183.21
58.593,-208.5
58.609,-232.5
58.625,-256.73
58.640,-281.32
58.656,-304.49
58.671,-322.58
58.687,-330.63
58.703,-324.23
58.718,-301.11
58.734,-262.21
58.750,-211.3
58.765,-153.65
58.781,-93.83
58.796,-34.09
58.812,25.63
58.828,86.46
58.843,148.03
58.859,207.09
58.875,257.47
58.890,292.74
58.906,308.47
58.921,304.67
58.937,285.97
58.953,260.04
58.968,234.78
58.984,215.8
59.000,205.27
59.015,202.08
59.031,203.96
59.046,207.48
59.062,209.26
59.078,206.42
59.093,197.47
59.109,182.67
59.125,163.73
59.140,143.01
59.156,122.44
59.171,104.92
59.187,92.02
59.203,84.11
59.218,81.08
59.234,82.95
59.250,90.13
59.265,102.83
59.281,120.37
59.296,140.73
59.312,163.97
59.328,189.14
59.343,214.24
59.359,237.15
59.375,256.65
59.390,273.33
59.406,288.92
59.421,305.03
59.437,321.78
59.453,341.33
59.468,362.75
59.484,382.02
59.500,393.19
59.515,390.59
59.531,371.21
59.546,335.52
59.562,287.14
59.578,207.97
59.593,94.64
59.609,-42.79
59.625,-183.29
59.640,-305.13
59.656,-395.46
59.671,-451.98
59.687,-479.54
59.703,-485.95
59.718,-479.63
59.734,-463.49
59.750,-440.44
59.765,-413.87
59.781,-387.24
59.796,-363.15
59.812,-343.35
59.828,-328.33
59.843,-318.24
59.859,-313.84
59.875,-312.11
59.890,-311.38
59.906,-312.4
59.921,-317.61
59.937,-328.93
59.953,-345.55
59.968,-362.64
59.984,-372.9
