timestamp,value
00.000,-88.5
00.015,-96.09
00.031,-104.69
00.046,-112.47
00.062,-116.87
00.078,-115.41
00.093,-106.83
00.109,-92.09
00.125,-74.67
00.140,-59.32
00.156,-49.9
00.171,-47.95
00.187,-51.93
00.203,-57.55
00.218,-60.02
00.234,-56.03
00.250,-45.33
00.265,-30.75
00.281,-17.04
00.296,-8.72
00.312,-8.48
00.328,-16.61
00.343,-31.45
00.359,-50.8
00.375,-73.33
00.390,-99.07
00.406,-129.02
00.421,-164.27
00.437,-204.65
00.453,-248.04
00.468,-290.03
00.484,-324.07
00.500,-342.89
00.515,-340.49
00.531,-314.18
00.546,-266.16
00.562,-203.77
00.578,-137.55
00.593,-79.11
00.609,-38.02
00.625,-19.01
00.640,-22.05
00.656,-43.02
00.671,-75.71
00.687,-113.47
00.703,-150.66
00.718,-182.55
00.734,-206.63
00.750,-222.23
00.765,-229.34
00.781,-228.34
00.796,-218.91
00.812,-200.16
00.828,-171.53
00.843,-134.64
00.859,-93.91
00.875,-57.99
00.890,-37.12
00.906,-38.0
00.921,-60.37
00.937,-95.71
00.953,-129.2
00.968,-144.95
00.984,-131.56
01.000,-84.64
01.015,-8.65
01.031,86.21
01.046,189.11
01.062,290.79
01.078,384.41
01.093,464.82
01.109,527.03
01.125,561.4
01.140,567.01
01.156,549.13
01.171,512.23
01.187,464.11
01.203,413.41
01.218,367.66
01.234,331.19
01.250,304.11
01.265,282.94
01.281,262.63
01.296,237.43
01.312,203.1
01.328,159.85
01.343,111.33
01.359,63.16
01.375,20.74
01.390,-12.69
01.406,-36.74
01.421,-52.56
01.437,-62.68
01.453,-69.49
01.468,-73.55
01.484,-74.7
01.500,-73.0
01.515,-69.34
01.531,-65.09
01.546,-61.55
01.562,-58.99
01.578,-57.32
01.593,-56.43
01.609,-55.81
01.625,-55.32
01.640,-55.01
01.656,-54.97
01.671,-54.92
01.687,-54.38
01.703,-52.81
01.718,-49.95
01.734,-45.96
01.750,-40.93
01.765,-34.83
01.781,-27.6
01.796,-19.24
01.812,-10.07
01.828,-0.76
01.843,7.96
01.859,15.49
01.875,21.65
01.890,26.68
01.906,31.09
01.921,35.04
01.937,38.24
01.953,39.76
01.968,38.54
01.984,33.75
02.000,25.28
02.015,13.91
02.031,1.04
02.046,-11.58
02.062,-22.44
02.078,-30.44
02.093,-35.31
02.109,-37.36
02.125,-37.42
02.140,-36.3
02.156,-34.8
02.171,-33.49
02.187,-32.57
02.203,-32.14
02.218,-32.22
02.234,-32.73
02.250,-33.53
02.265,-34.49
02.281,-35.36
02.296,-35.86
02.312,-35.91
02.328,-35.49
02.343,-34.52
02.359,-32.94
02.375,-30.54
02.390,-27.08
02.406,-22.53
02.421,-17.18
02.437,-11.75
02.453,-7.21
02.468,-4.48
02.484,-3.97
02.500,-5.63
02.515,-8.91
02.531,-12.93
02.546,-16.75
02.562,-19.66
02.578,-21.08
02.593,-20.85
02.609,-19.15
02.625,-16.44
02.640,-13.27
02.656,-10.15
02.671,-7.32
02.687,-4.74
02.703,-2.34
02.718,0.1
02.734,2.52
02.750,4.74
02.765,6.59
02.781,8.01
02.796,9.28
02.812,10.83
02.828,13.09
02.843,16.13
02.859,19.9
02.875,24.11
02.890,28.37
02.906,32.29
02.921,35.33
02.937,36.94
02.953,36.5
02.968,33.62
02.984,28.19
03.000,20.76
03.015,12.25
03.031,3.59
03.046,-4.4
03.062,-11.33
03.078,-17.02
03.093,-21.44
03.109,-24.55
03.125,-26.4
03.140,-27.06
03.156,-26.88
03.171,-26.51
03.187,-26.53
03.203,-27.44
03.218,-29.19
03.234,-31.33
03.250,-33.24
03.265,-34.41
03.281,-34.58
03.296,-33.72
03.312,-31.95
03.328,-29.09
03.343,-24.98
03.359,-19.32
03.375,-12.15
03.390,-3.88
03.406,4.61
03.421,12.27
03.437,18.36
03.453,22.38
03.468,24.46
03.484,24.99
03.500,24.59
03.515,23.76
03.531,22.92
03.546,22.18
03.562,21.36
03.578,20.31
03.593,18.85
03.609,16.95
03.625,14.74
03.640,12.5
03.656,10.48
03.671,8.86
03.687,7.78
03.703,7.29
03.718,7.44
03.734,8.24
03.750,9.7
03.765,11.59
03.781,13.6
03.796,15.33
03.812,16.34
03.828,16.47
03.843,15.81
03.859,14.65
03.875,13.37
03.890,12.21
03.906,11.41
03.921,10.81
03.937,10.38
03.953,9.95
03.968,9.45
03.984,8.79
04.000,7.94
04.015,6.89
04.031,5.55
04.046,3.97
04.062,2.04
04.078,-0.33
04.093,-3.09
04.109,-6.24
04.125,-9.62
04.140,-12.92
04.156,-15.62
04.171,-17.24
04.187,-17.35
04.203,-15.68
04.218,-12.16
04.234,-6.93
04.250,-0.47
04.265,6.6
04.281,13.4
04.296,19.35
04.312,24.04
04.328,27.32
04.343,29.3
04.359,30.13
04.375,30.07
04.390,29.17
04.406,27.76
04.421,25.99
04.437,24.2
04.453,22.6
04.468,21.29
04.484,20.2
04.500,19.12
04.515,18.02
04.531,16.77
04.546,15.51
04.562,14.45
04.578,13.7
04.593,13.32
04.609,13.33
04.625,13.71
04.640,14.36
04.656,15.25
04.671,16.15
04.687,16.77
04.703,16.81
04.718,15.95
04.734,14.11
04.750,11.53
04.765,8.61
04.781,5.77
04.796,3.43
04.812,1.77
04.828,0.88
04.843,0.61
04.859,0.82
04.875,1.26
04.890,1.71
04.906,1.97
04.921,1.79
04.937,0.98
04.953,-0.42
04.968,-2.15
04.984,-3.88
05.000,-5.13
05.015,-5.47
05.031,-4.69
05.046,-2.77
05.062,0.03
05.078,3.37
05.093,6.82
05.109,10.11
05.125,13.02
05.140,15.4
05.156,17.16
05.171,18.13
05.187,18.12
05.203,16.97
05.218,14.73
05.234,11.58
05.250,8.12
05.265,4.97
05.281,2.8
05.296,2.0
05.312,2.63
05.328,4.56
05.343,7.3
05.359,10.37
05.375,13.13
05.390,15.01
05.406,15.54
05.421,14.61
05.437,12.39
05.453,9.25
05.468,5.93
05.484,3.04
05.500,1.21
05.515,0.81
05.531,1.91
05.546,4.3
05.562,7.63
05.578,11.46
05.593,15.32
05.609,18.85
05.625,21.66
05.640,23.56
05.656,24.57
05.671,24.83
05.687,24.55
05.703,23.9
05.718,22.89
05.734,21.33
05.750,19.09
05.765,15.89
05.781,11.8
05.796,6.94
05.812,1.6
05.828,-3.94
05.843,-9.44
05.859,-14.64
05.875,-19.23
05.890,-22.72
05.906,-24.78
05.921,-25.1
05.937,-23.71
05.953,-21.1
05.968,-17.9
05.984,-14.81
06.000,-12.35
06.015,-10.7
06.031,-9.73
06.046,-9.21
06.062,-8.87
06.078,-8.61
06.093,-8.42
06.109,-8.21
06.125,-7.96
06.140,-7.66
06.156,-7.26
06.171,-6.71
06.187,-6.18
06.203,-5.67
06.218,-5.21
06.234,-4.76
06.250,-4.09
06.265,-3.15
06.281,-1.84
06.296,-0.24
06.312,1.59
06.328,3.47
06.343,5.26
06.359,6.76
06.375,7.88
06.390,8.64
06.406,9.04
06.421,9.16
06.437,9.04
06.453,8.64
06.468,7.88
06.484,6.74
06.500,5.11
06.515,3.13
06.531,0.96
06.546,-1.14
06.562,-2.94
06.578,-4.38
06.593,-5.54
06.609,-6.53
06.625,-7.42
06.640,-8.41
06.656,-9.6
06.671,-10.95
06.687,-12.35
06.703,-13.51
06.718,-14.19
06.734,-14.21
06.750,-13.5
06.765,-12.07
06.781,-10.19
06.796,-8.13
06.812,-6.22
06.828,-4.6
06.843,-3.22
06.859,-1.95
06.875,-0.64
06.890,0.7
06.906,2.05
06.921,3.15
06.937,3.82
06.953,3.78
06.968,2.95
06.984,1.5
07.000,-0.33
07.015,-2.18
07.031,-3.83
07.046,-5.19
07.062,-6.29
07.078,-7.26
07.093,-8.28
07.109,-9.63
07.125,-11.42
07.140,-13.71
07.156,-16.5
07.171,-19.61
07.187,-22.78
07.203,-25.43
07.218,-26.9
07.234,-26.36
07.250,-23.35
07.265,-17.44
07.281,-8.65
07.296,2.56
07.312,15.32
07.328,28.33
07.343,40.09
07.359,48.97
07.375,54.0
07.390,54.66
07.406,51.47
07.421,45.63
07.437,38.69
07.453,31.92
07.468,25.98
07.484,20.8
07.500,15.73
07.515,10.15
07.531,3.61
07.546,-3.84
07.562,-11.75
07.578,-19.52
07.593,-26.34
07.609,-31.52
07.625,-34.42
07.640,-34.52
07.656,-31.71
07.671,-26.29
07.687,-18.93
07.703,-10.67
07.718,-2.65
07.734,4.26
07.750,9.32
07.765,12.34
07.781,13.42
07.796,12.9
07.812,11.33
07.828,9.25
07.843,7.12
07.859,5.24
07.875,3.73
07.890,2.61
07.906,1.88
07.921,1.53
07.937,1.51
07.953,1.85
07.968,2.46
07.984,3.28
08.000,4.17
08.015,5.0
08.031,5.53
08.046,5.55
08.062,4.82
08.078,3.3
08.093,1.17
08.109,-1.27
08.125,-3.6
08.140,-5.55
08.156,-6.94
08.171,-7.92
08.187,-8.6
08.203,-9.25
08.218,-9.94
08.234,-10.54
08.250,-11.02
08.265,-11.14
08.281,-10.82
08.296,-10.12
08.312,-9.34
08.328,-8.65
08.343,-8.42
08.359,-8.71
08.375,-9.3
08.390,-9.86
08.406,-9.88
08.421,-9.06
08.437,-7.27
08.453,-4.85
08.468,-2.02
08.484,0.85
08.500,3.6
08.515,6.22
08.531,8.76
08.546,11.31
08.562,13.67
08.578,15.62
08.593,16.72
08.609,16.78
08.625,15.67
08.640,13.63
08.656,11.12
08.671,8.55
08.687,6.33
08.703,4.56
08.718,3.23
08.734,2.14
08.750,1.12
08.765,-0.11
08.781,-1.6
08.796,-3.21
08.812,-4.8
08.828,-5.98
08.843,-6.54
08.859,-6.39
08.875,-5.64
08.890,-4.5
08.906,-3.36
08.921,-2.5
08.937,-2.08
08.953,-2.24
08.968,-3.0
08.984,-4.44
09.000,-6.5
09.015,-9.07
09.031,-11.84
09.046,-14.42
09.062,-16.38
09.078,-17.41
09.093,-17.49
09.109,-16.72
09.125,-15.48
09.140,-14.21
09.156,-13.31
09.171,-12.94
09.187,-13.1
09.203,-13.57
09.218,-13.94
09.234,-13.95
09.250,-13.22
09.265,-11.58
09.281,-9.01
09.296,-5.74
09.312,-2.05
09.328,1.64
09.343,4.91
09.359,7.5
09.375,9.3
09.390,10.46
09.406,11.21
09.421,11.88
09.437,12.57
09.453,13.3
09.468,14.04
09.484,14.77
09.500,15.52
09.515,16.32
09.531,17.22
09.546,18.07
09.562,18.67
09.578,18.82
09.593,18.41
09.609,17.45
09.625,16.0
09.640,14.33
09.656,12.55
09.671,10.94
09.687,9.61
09.703,8.68
09.718,8.13
09.734,7.92
09.750,7.95
09.765,8.05
09.781,8.26
09.796,8.38
09.812,8.38
09.828,8.04
09.843,7.2
09.859,5.65
09.875,3.44
09.890,0.76
09.906,-2.08
09.921,-4.76
09.937,-7.18
09.953,-9.53
09.968,-12.05
09.984,-14.99
10.000,-18.46
10.015,-22.14
10.031,-25.47
10.046,-27.69
10.062,-28.13
10.078,-26.52
10.093,-22.98
10.109,-18.01
10.125,-12.44
10.140,-6.98
10.156,-2.23
10.171,1.49
10.187,4.01
10.203,5.35
10.218,5.34
10.234,3.97
10.250,1.26
10.265,-2.55
10.281,-6.94
10.296,-11.23
10.312,-14.81
10.328,-17.29
10.343,-18.5
10.359,-18.63
10.375,-17.74
10.390,-16.03
10.406,-13.58
10.421,-10.5
10.437,-6.92
10.453,-3.06
10.468,0.79
10.484,4.52
10.500,8.02
10.515,11.42
10.531,14.86
10.546,18.39
10.562,21.89
10.578,25.08
10.593,27.65
10.609,29.16
10.625,29.27
10.640,27.93
10.656,25.22
10.671,21.4
10.687,16.76
10.703,11.59
10.718,6.09
10.734,0.53
10.750,-4.83
10.765,-9.68
10.781,-13.61
10.796,-16.36
10.812,-17.76
10.828,-17.77
10.843,-16.49
10.859,-14.13
10.875,-10.96
10.890,-7.46
10.906,-4.14
10.921,-1.47
10.937,0.07
10.953,0.23
10.968,-1.02
10.984,-3.38
11.000,-6.38
11.015,-9.4
11.031,-11.96
11.046,-13.62
11.062,-14.27
11.078,-14.1
11.093,-13.47
11.109,-12.78
11.125,-12.33
11.140,-12.18
11.156,-11.97
11.171,-11.39
11.187,-9.93
11.203,-7.42
11.218,-3.9
11.234,0.36
11.250,5.19
11.265,10.42
11.281,15.83
11.296,21.26
11.312,26.28
11.328,30.35
11.343,32.99
11.359,33.89
11.375,32.97
11.390,30.52
11.406,26.91
11.421,22.55
11.437,17.79
11.453,12.83
11.468,7.76
11.484,2.68
11.500,-2.16
11.515,-6.54
11.531,-10.08
11.546,-12.54
11.562,-13.78
11.578,-13.94
11.593,-13.29
11.609,-12.19
11.625,-11.0
11.640,-10.06
11.656,-9.55
11.671,-9.54
11.687,-10.1
11.703,-11.17
11.718,-12.61
11.734,-14.31
11.750,-16.05
11.765,-17.56
11.781,-18.69
11.796,-19.33
11.812,-19.3
11.828,-18.57
11.843,-17.08
11.859,-14.68
11.875,-11.31
11.890,-7.02
11.906,-1.89
11.921,3.82
11.937,9.7
11.953,15.29
11.968,20.19
11.984,23.96
12.000,26.4
12.015,27.39
12.031,26.98
12.046,25.45
12.062,23.18
12.078,20.55
12.093,17.79
12.109,15.03
12.125,12.32
12.140,9.84
12.156,7.68
12.171,5.94
12.187,4.62
12.203,3.55
12.218,2.44
12.234,0.91
12.250,-1.21
12.265,-3.86
12.281,-6.71
12.296,-9.62
12.312,-12.36
12.328,-14.82
12.343,-16.93
12.359,-18.45
12.375,-19.11
12.390,-18.69
12.406,-17.05
12.421,-14.21
12.437,-10.53
12.453,-6.49
12.468,-2.61
12.484,0.6
12.500,2.78
12.515,3.9
12.531,4.03
12.546,3.48
12.562,2.51
12.578,1.34
12.593,0.07
12.609,-1.27
12.625,-2.71
12.640,-4.23
12.656,-5.8
12.671,-7.23
12.687,-8.34
12.703,-8.94
12.718,-8.66
12.734,-7.25
12.750,-4.38
12.765,0.1
12.781,6.21
12.796,13.46
12.812,21.2
12.828,28.55
12.843,34.68
12.859,39.03
12.875,41.47
12.890,42.17
12.906,41.38
12.921,39.5
12.937,36.79
12.953,33.52
12.968,29.93
12.984,26.4
13.000,23.16
13.015,20.35
13.031,17.92
13.046,15.5
13.062,12.69
13.078,8.94
13.093,3.96
13.109,-2.4
13.125,-9.96
13.140,-18.28
13.156,-26.8
13.171,-34.92
13.187,-41.98
13.203,-47.45
13.218,-50.9
13.234,-52.04
13.250,-50.83
13.265,-47.41
13.281,-42.01
13.296,-34.89
13.312,-26.36
13.328,-16.67
13.343,-6.3
13.359,4.16
13.375,14.02
13.390,22.6
13.406,29.37
13.421,34.07
13.437,36.9
13.453,38.33
13.468,39.1
13.484,39.8
13.500,40.87
13.515,42.33
13.531,43.84
13.546,44.68
13.562,44.08
13.578,41.36
13.593,36.05
13.609,28.04
13.625,17.41
13.640,4.45
13.656,-10.43
13.671,-26.79
13.687,-44.22
13.703,-62.03
13.718,-79.34
13.734,-94.82
13.750,-106.6
13.765,-112.39
13.781,-109.74
13.796,-96.58
13.812,-72.14
13.828,-37.28
13.843,5.2
13.859,51.08
13.875,95.56
13.890,134.38
13.906,164.51
13.921,184.44
13.937,193.87
13.953,192.85
13.968,181.47
13.984,159.69
14.000,127.52
14.015,85.67
14.031,35.89
14.046,-19.05
14.062,-75.71
14.078,-130.42
14.093,-179.67
14.109,-220.5
14.125,-250.47
14.140,-267.68
14.156,-271.04
14.171,-260.08
14.187,-235.4
14.203,-198.43
14.218,-151.18
14.234,-96.07
14.250,-35.66
14.265,27.67
14.281,91.36
14.296,152.53
14.312,207.86
14.328,253.5
14.343,285.52
14.359,300.62
14.375,296.7
14.390,273.67
14.406,233.65
14.421,180.89
14.437,120.96
14.453,60.11
14.468,4.26
14.484,-41.93
14.500,-75.34
14.515,-94.87
14.531,-100.93
14.546,-95.06
14.562,-79.3
14.578,-56.0
14.593,-27.42
14.609,3.94
14.625,35.21
14.640,63.52
14.656,86.08
14.671,100.7
14.687,106.12
14.703,102.04
14.718,89.25
14.734,69.63
14.750,45.73
14.765,20.57
14.781,-2.56
14.796,-21.11
14.812,-33.34
14.828,-38.81
14.843,-38.27
14.859,-33.15
14.875,-25.14
14.890,-15.86
14.906,-6.67
14.921,1.68
14.937,8.77
14.953,14.51
14.968,19.0
14.984,22.23
15.000,24.28
15.015,24.98
15.031,23.96
15.046,20.81
15.062,15.31
15.078,7.61
15.093,-1.48
15.109,-10.49
15.125,-17.85
15.140,-21.94
15.156,-21.84
15.171,-17.66
15.187,-10.44
15.203,-1.77
15.218,6.68
15.234,13.73
15.250,18.83
15.265,21.78
15.281,22.84
15.296,22.32
15.312,20.49
15.328,17.71
15.343,14.46
15.359,11.3
15.375,8.98
15.390,8.27
15.406,9.58
15.421,12.94
15.437,17.92
15.453,23.88
15.468,29.95
15.484,35.46
15.500,39.89
15.515,43.15
15.531,45.27
15.546,46.43
15.562,46.6
15.578,45.61
15.593,43.24
15.609,39.37
15.625,34.15
15.640,27.96
15.656,21.3
15.671,14.71
15.687,8.62
15.703,3.17
15.718,-1.51
15.734,-5.38
15.750,-8.38
15.765,-10.41
15.781,-11.56
15.796,-12.2
15.812,-12.91
15.828,-14.24
15.843,-16.54
15.859,-19.89
15.875,-24.03
15.890,-28.58
15.906,-33.01
15.921,-36.89
15.937,-40.05
15.953,-42.37
15.968,-44.06
15.984,-45.41
16.000,-46.71
16.015,-48.25
16.031,-50.09
16.046,-51.91
16.062,-53.31
16.078,-53.91
16.093,-53.42
16.109,-52.11
16.125,-50.41
16.140,-48.79
16.156,-47.51
16.171,-46.48
16.187,-45.36
16.203,-43.77
16.218,-41.5
16.234,-38.51
16.250,-34.96
16.265,-30.95
16.281,-26.32
16.296,-20.75
16.312,-14.02
16.328,-6.31
16.343,1.78
16.359,9.27
16.375,15.23
16.390,18.95
16.406,20.21
16.421,19.23
16.437,16.59
16.453,12.86
16.468,8.52
16.484,3.86
16.500,-0.82
16.515,-5.36
16.531,-9.61
16.546,-13.56
16.562,-17.35
16.578,-21.1
16.593,-24.86
16.609,-28.55
16.625,-31.96
16.640,-34.75
16.656,-36.58
16.671,-37.05
16.687,-35.92
16.703,-33.17
16.718,-28.89
16.734,-23.49
16.750,-17.46
16.765,-11.3
16.781,-5.26
16.796,0.53
16.812,6.21
16.828,11.79
16.843,17.08
16.859,21.71
16.875,25.22
16.890,27.23
16.906,27.61
16.921,26.44
16.937,24.04
16.953,20.67
16.968,16.45
16.984,11.42
17.000,5.57
17.015,-1.1
17.031,-8.35
17.046,-15.85
17.062,-23.1
17.078,-29.43
17.093,-34.26
17.109,-37.1
17.125,-37.65
17.140,-36.06
17.156,-32.83
17.171,-28.66
17.187,-24.32
17.203,-20.49
17.218,-17.61
17.234,-15.91
17.250,-15.35
17.265,-15.88
17.281,-17.45
17.296,-20.04
17.312,-23.43
17.328,-27.41
17.343,-31.66
17.359,-35.72
17.375,-39.19
17.390,-41.67
17.406,-42.81
17.421,-42.58
17.437,-41.15
17.453,-38.78
17.468,-35.91
17.484,-32.93
17.500,-29.92
17.515,-26.75
17.531,-23.08
17.546,-18.54
17.562,-12.92
17.578,-6.06
17.593,1.98
17.609,10.91
17.625,20.22
17.640,29.27
17.656,37.5
17.671,44.69
17.687,51.11
17.703,57.39
17.718,64.37
17.734,72.31
17.750,80.75
17.765,88.46
17.781,93.8
17.796,95.31
17.812,92.27
17.828,84.68
17.843,73.05
17.859,58.0
17.875,39.93
17.890,19.17
17.906,-3.86
17.921,-28.19
17.937,-52.47
17.953,-75.03
17.968,-94.34
17.984,-109.57
18.000,-120.54
18.015,-127.58
18.031,-131.27
18.046,-132.21
18.062,-130.88
18.078,-127.55
18.093,-122.35
18.109,-115.42
18.125,-107.14
18.140,-97.96
18.156,-88.49
18.171,-79.28
18.187,-70.56
18.203,-62.44
18.218,-54.46
18.234,-45.98
18.250,-36.24
18.265,-24.57
18.281,-10.46
18.296,5.99
18.312,24.45
18.328,44.26
18.343,64.67
18.359,85.24
18.375,105.42
18.390,124.75
18.406,142.3
18.421,156.76
18.437,166.32
18.453,169.34
18.468,164.68
18.484,152.18
18.500,132.78
18.515,108.05
18.531,79.88
18.546,50.12
18.562,20.38
18.578,-8.03
18.593,-33.94
18.609,-56.21
18.625,-74.18
18.640,-87.52
18.656,-96.68
18.671,-102.81
18.687,-107.19
18.703,-110.97
18.718,-114.99
18.734,-119.48
18.750,-123.99
18.765,-128.1
18.781,-131.01
18.796,-132.16
18.812,-131.2
18.828,-127.83
18.843,-121.95
18.859,-113.59
18.875,-102.97
18.890,-90.29
18.906,-76.13
18.921,-61.12
18.937,-46.1
18.953,-31.93
18.968,-19.22
18.984,-8.47
19.000,0.16
19.015,6.71
19.031,11.48
19.046,14.73
19.062,16.81
19.078,18.11
19.093,18.85
19.109,19.48
19.125,20.17
19.140,21.03
19.156,22.06
19.171,23.06
19.187,23.74
19.203,23.85
19.218,23.47
19.234,22.78
19.250,22.2
19.265,21.95
19.281,22.14
19.296,22.68
19.312,23.39
19.328,23.95
19.343,24.16
19.359,23.99
19.375,23.35
19.390,22.34
19.406,21.09
19.421,19.68
19.437,18.33
19.453,17.23
19.468,16.51
19.484,16.2
19.500,16.23
19.515,16.4
19.531,16.41
19.546,16.13
19.562,15.42
19.578,14.3
19.593,12.82
19.609,11.23
19.625,9.61
19.640,7.99
19.656,6.37
19.671,4.46
19.687,2.13
19.703,-0.85
19.718,-4.41
19.734,-8.39
19.750,-12.33
19.765,-15.86
19.781,-18.77
19.796,-20.98
19.812,-22.69
19.828,-24.18
19.843,-25.72
19.859,-27.33
19.875,-29.04
19.890,-30.51
19.906,-31.29
19.921,-31.02
19.937,-29.39
19.953,-26.39
19.968,-22.24
19.984,-17.37
20.000,-12.3
20.015,-7.59
20.031,-3.55
20.046,-0.33
20.062,2.03
20.078,3.73
20.093,4.94
20.109,5.89
20.125,6.86
20.140,8.0
20.156,9.31
20.171,10.77
20.187,12.33
20.203,13.79
20.218,15.17
20.234,16.46
20.250,17.68
20.265,18.81
20.281,19.78
20.296,20.48
20.312,20.75
20.328,20.59
20.343,19.92
20.359,18.88
20.375,17.48
20.390,15.82
20.406,13.97
20.421,11.76
20.437,8.75
20.453,4.21
20.468,-2.43
20.484,-11.53
20.500,-22.44
20.515,-33.94
20.531,-44.35
20.546,-52.19
20.562,-56.75
20.578,-58.35
20.593,-57.89
20.609,-56.14
20.625,-53.35
20.640,-49.0
20.656,-42.63
20.671,-34.31
20.687,-24.96
20.703,-16.15
20.718,-9.46
20.734,-5.9
20.750,-5.38
20.765,-6.99
20.781,-9.26
20.796,-10.81
20.812,-10.94
20.828,-9.5
20.843,-6.7
20.859,-3.16
20.875,0.15
20.890,2.07
20.906,1.47
20.921,-2.48
20.937,-9.89
20.953,-20.22
20.968,-32.04
20.984,-43.37
21.000,-52.91
21.015,-60.28
21.031,-65.83
21.046,-69.78
21.062,-71.66
21.078,-70.48
21.093,-65.27
21.109,-55.41
21.125,-40.52
21.140,-21.55
21.156,0.24
21.171,24.64
21.187,53.3
21.203,89.54
21.218,136.37
21.234,194.04
21.250,259.06
21.265,324.97
21.281,382.61
21.296,423.51
21.312,443.21
21.328,442.95
21.343,428.22
21.359,405.7
21.375,379.55
21.390,350.78
21.406,318.25
21.421,277.69
21.437,223.59
21.453,150.8
21.468,56.53
21.484,-58.69
21.500,-190.79
21.515,-332.8
21.531,-475.49
21.546,-595.2
21.562,-665.33
21.578,-668.78
21.593,-609.49
21.609,-509.71
21.625,-395.54
21.640,-284.86
21.656,-185.45
21.671,-98.74
21.687,-23.97
21.703,37.41
21.718,83.11
21.734,112.56
21.750,128.92
21.765,138.35
21.781,147.84
21.796,162.18
21.812,183.04
21.828,209.69
21.843,237.69
21.859,261.27
21.875,276.11
21.890,282.43
21.906,281.15
21.921,274.99
21.937,266.73
21.953,258.68
21.968,253.02
21.984,250.7
22.000,251.86
22.015,257.13
22.031,268.02
22.046,286.33
22.062,313.38
22.078,348.73
22.093,390.32
22.109,434.48
22.125,476.33
22.140,511.3
22.156,536.3
22.171,550.37
22.187,553.39
22.203,546.08
22.218,528.73
22.234,499.78
22.250,459.14
22.265,407.23
22.281,345.04
22.296,274.19
22.312,197.08
22.328,115.72
22.343,32.55
22.359,-50.14
22.375,-130.17
22.390,-206.48
22.406,-278.27
22.421,-344.51
22.437,-403.71
22.453,-453.91
22.468,-495.7
22.484,-530.32
22.500,-559.05
22.515,-582.73
22.531,-604.52
22.546,-625.8
22.562,-644.74
22.578,-656.31
22.593,-651.66
22.609,-626.88
22.625,-581.09
22.640,-515.43
22.656,-433.09
22.671,-345.73
22.687,-264.43
22.703,-195.45
22.718,-138.72
22.734,-86.03
22.750,-37.16
22.765,5.6
22.781,40.26
22.796,64.8
22.812,66.65
22.828,35.81
22.843,-30.21
22.859,-124.31
22.875,-227.89
22.890,-336.86
22.906,-452.75
22.921,-577.29
22.937,-711.61
22.953,-868.26
22.968,-1054.24
22.984,-1264.77
23.000,-1482.18
23.015,-1674.84
23.031,-1832.54
23.046,-1954.38
23.062,-2040.31
23.078,-1998.1
23.093,-1771.64
23.109,-1369.73
23.125,-870.29
23.140,-432.38
23.156,-73.78
23.171,218.97
23.187,463.47
23.203,682.23
23.218,881.45
23.234,1048.85
23.250,1172.39
23.265,1248.39
23.281,1284.33
23.296,1302.81
23.312,1307.77
23.328,1297.29
23.343,1271.53
23.359,1231.12
23.375,1168.03
23.390,1076.81
23.406,960.46
23.421,831.45
23.437,713.7
23.453,614.55
23.468,533.79
23.484,470.24
23.500,420.48
23.515,374.41
23.531,322.61
23.546,262.69
23.562,200.35
23.578,151.05
23.593,120.79
23.609,99.03
23.625,79.08
23.640,58.64
23.656,37.3
23.671,15.03
23.687,-6.8
23.703,-26.15
23.718,-36.57
23.734,-37.61
23.750,-30.18
23.765,-14.16
23.781,10.02
23.796,47.21
23.812,91.28
23.828,136.4
23.843,178.02
23.859,215.13
23.875,243.99
23.890,261.0
23.906,263.86
23.921,251.9
23.937,225.54
23.953,185.12
23.968,134.01
23.984,65.81
24.000,-14.29
24.015,-97.93
24.031,-175.83
24.046,-239.7
24.062,-282.55
24.078,-300.96
24.093,-296.95
24.109,-275.24
24.125,-242.68
24.140,-204.47
24.156,-166.12
24.171,-132.17
24.187,-105.56
24.203,-85.85
24.218,-69.87
24.234,-54.06
24.250,-34.02
24.265,-5.93
24.281,34.05
24.296,87.25
24.312,152.56
24.328,216.73
24.343,265.6
24.359,289.93
24.375,288.27
24.390,264.97
24.406,224.26
24.421,170.51
24.437,109.58
24.453,50.23
24.468,2.43
24.484,-24.34
24.500,-25.95
24.515,-5.9
24.531,27.16
24.546,62.98
24.562,94.66
24.578,118.98
24.593,135.19
24.609,143.75
24.625,146.59
24.640,145.37
24.656,141.48
24.671,136.5
24.687,131.91
24.703,129.21
24.718,129.43
24.734,132.0
24.750,134.55
24.765,135.99
24.781,134.49
24.796,128.39
24.812,116.59
24.828,98.82
24.843,75.33
24.859,47.36
24.875,16.48
24.890,-15.78
24.906,-47.61
24.921,-77.43
24.937,-103.7
24.953,-124.99
24.968,-140.14
24.984,-149.46
25.000,-153.1
25.015,-151.4
25.031,-145.03
25.046,-135.25
25.062,-123.86
25.078,-112.63
25.093,-103.4
25.109,-97.86
25.125,-99.47
25.140,-110.15
25.156,-130.58
25.171,-160.45
25.187,-199.46
25.203,-246.99
25.218,-301.62
25.234,-361.26
25.250,-423.13
25.265,-486.78
25.281,-549.42
25.296,-606.05
25.312,-650.71
25.328,-678.81
25.343,-687.06
25.359,-673.35
25.375,-637.05
25.390,-578.96
25.406,-505.28
25.421,-421.04
25.437,-329.91
25.453,-235.43
25.468,-142.09
25.484,-55.29
25.500,19.56
25.515,77.37
25.531,136.77
25.546,196.8
25.562,245.4
25.578,271.02
25.593,272.12
25.609,255.86
25.625,232.29
25.640,209.76
25.656,193.11
25.671,183.77
25.687,176.36
25.703,167.02
25.718,154.82
25.734,140.85
25.750,126.36
25.765,112.61
25.781,101.11
25.796,94.06
25.812,95.1
25.828,104.23
25.843,121.3
25.859,144.97
25.875,171.82
25.890,196.73
25.906,214.93
25.921,224.04
25.937,224.51
25.953,218.82
25.968,208.27
25.984,194.88
26.000,181.1
26.015,168.01
26.031,154.31
26.046,137.48
26.062,115.62
26.078,89.76
26.093,64.48
26.109,44.98
26.125,33.94
26.140,29.14
26.156,23.17
26.171,7.94
26.187,-19.29
26.203,-53.51
26.218,-84.32
26.234,-104.5
26.250,-112.08
26.265,-113.09
26.281,-116.24
26.296,-126.49
26.312,-140.86
26.328,-150.55
26.343,-146.81
26.359,-126.12
26.375,-92.97
26.390,-56.82
26.406,-27.15
26.421,-8.64
26.437,-0.36
26.453,2.73
26.468,4.88
26.484,6.92
26.500,7.22
26.515,2.17
26.531,-11.13
26.546,-33.09
26.562,-60.74
26.578,-88.66
26.593,-109.71
26.609,-119.0
26.625,-114.9
26.640,-94.95
26.656,-62.59
26.671,-22.0
26.687,23.38
26.703,70.7
26.718,117.7
26.734,165.57
26.750,213.59
26.765,260.44
26.781,305.11
26.796,344.52
26.812,373.4
26.828,385.95
26.843,377.0
26.859,339.44
26.875,279.42
26.890,210.02
26.906,139.49
26.921,76.44
26.937,25.37
26.953,-12.74
26.968,-39.73
26.984,-58.87
27.000,-73.33
27.015,-84.26
27.031,-93.9
27.046,-103.64
27.062,-113.06
27.078,-123.18
27.093,-134.53
27.109,-146.76
27.125,-158.89
27.140,-170.13
27.156,-174.28
27.171,-171.6
27.187,-165.16
27.203,-159.73
27.218,-162.92
27.234,-180.62
27.250,-215.03
27.265,-264.7
27.281,-325.17
27.296,-389.26
27.312,-452.17
27.328,-509.85
27.343,-543.24
27.359,-537.89
27.375,-489.82
27.390,-408.4
27.406,-311.08
27.421,-212.19
27.437,-119.75
27.453,-40.71
27.468,26.97
27.484,82.38
27.500,121.95
27.515,142.12
27.531,141.71
27.546,121.61
27.562,83.05
27.578,34.48
27.593,-13.78
27.609,-53.66
27.625,-82.64
27.640,-101.13
27.656,-112.24
27.671,-119.5
27.687,-128.27
27.703,-136.57
27.718,-139.22
27.734,-131.55
27.750,-112.97
27.765,-87.4
27.781,-57.14
27.796,-24.39
27.812,8.78
27.828,35.0
27.843,53.83
27.859,68.32
27.875,83.69
27.890,103.71
27.906,103.92
27.921,69.81
27.937,3.64
27.953,-42.88
27.968,-55.78
27.984,-31.04
28.000,14.11
28.015,70.91
28.031,131.44
28.046,188.69
28.062,242.19
28.078,293.28
28.093,343.11
28.109,385.91
28.125,420.21
28.140,445.76
28.156,464.48
28.171,476.09
28.187,479.53
28.203,477.74
28.218,474.23
28.234,472.27
28.250,469.19
28.265,465.01
28.281,460.62
28.296,459.16
28.312,462.45
28.328,469.81
28.343,479.61
28.359,487.14
28.375,487.1
28.390,471.56
28.406,436.99
28.421,384.66
28.437,321.54
28.453,256.23
28.468,195.52
28.484,143.71
28.500,101.36
28.515,69.27
28.531,45.84
28.546,27.92
28.562,11.97
28.578,-3.67
28.593,-19.2
28.609,-33.62
28.625,-44.72
28.640,-50.06
28.656,-43.62
28.671,-21.08
28.687,15.24
28.703,58.21
28.718,100.61
28.734,136.5
28.750,161.01
28.765,170.6
28.781,139.2
28.796,58.73
28.812,-54.72
28.828,-175.81
28.843,-286.23
28.859,-377.11
28.875,-445.02
28.890,-489.27
28.906,-510.57
28.921,-512.04
28.937,-504.46
28.953,-489.98
28.968,-474.56
28.984,-464.83
29.000,-462.29
29.015,-463.6
29.031,-463.38
29.046,-457.15
29.062,-442.22
29.078,-415.3
29.093,-364.02
29.109,-279.11
29.125,-169.4
29.140,-55.39
29.156,39.39
29.171,99.54
29.187,122.44
29.203,115.86
29.218,93.81
29.234,70.27
29.250,50.47
29.265,33.07
29.281,16.77
29.296,1.16
29.312,-12.62
29.328,-24.06
29.343,-34.57
29.359,-46.14
29.375,-59.54
29.390,-77.52
29.406,-102.63
29.421,-135.29
29.437,-171.08
29.453,-203.51
29.468,-227.07
29.484,-238.25
29.500,-235.35
29.515,-217.66
29.531,-186.68
29.546,-145.45
29.562,-92.35
29.578,-31.88
29.593,32.38
29.609,97.06
29.625,157.95
29.640,209.15
29.656,243.71
29.671,255.62
29.687,241.85
29.703,206.83
29.718,160.81
29.734,118.29
29.750,91.22
29.765,85.28
29.781,98.53
29.796,123.55
29.812,153.43
29.828,179.9
29.843,198.04
29.859,204.97
29.875,199.64
29.890,181.94
29.906,153.61
29.921,119.07
29.937,82.64
29.953,53.31
29.968,34.85
29.984,26.11
30.000,21.63
30.015,15.31
30.031,3.25
30.046,-14.79
30.062,-35.82
30.078,-56.47
30.093,-73.75
30.109,-88.12
30.125,-100.91
30.140,-113.09
30.156,-124.4
30.171,-133.41
30.187,-138.47
30.203,-137.71
30.218,-131.51
30.234,-118.66
30.250,-99.88
30.265,-75.97
30.281,-48.04
30.296,-17.66
30.312,13.15
30.328,41.72
30.343,64.96
30.359,80.28
30.375,86.21
30.390,81.38
30.406,65.54
30.421,39.69
30.437,5.52
30.453,-34.36
30.468,-76.97
30.484,-119.01
30.500,-157.41
30.515,-190.52
30.531,-217.12
30.546,-236.22
30.562,-247.02
30.578,-248.76
30.593,-240.11
30.609,-219.54
30.625,-185.83
30.640,-139.11
30.656,-80.76
30.671,-17.11
30.687,44.36
30.703,96.45
30.718,134.12
30.734,155.66
30.750,162.89
30.765,160.41
30.781,153.63
30.796,147.12
30.812,143.64
30.828,144.27
30.843,148.25
30.859,153.02
30.875,154.67
30.890,148.75
30.906,133.51
30.921,112.05
30.937,92.83
30.953,88.71
30.968,107.65
30.984,149.57
31.000,203.99
31.015,252.53
31.031,275.71
31.046,261.32
31.062,208.73
31.078,128.76
31.093,37.78
31.109,-45.37
31.125,-109.55
31.140,-152.39
31.156,-177.7
31.171,-191.32
31.187,-197.6
31.203,-199.96
31.218,-201.14
31.234,-203.12
31.250,-206.36
31.265,-208.41
31.281,-203.61
31.296,-185.21
31.312,-149.77
31.328,-99.47
31.343,-42.68
31.359,9.43
31.375,47.95
31.390,68.75
31.406,73.23
31.421,66.7
31.437,55.0
31.453,43.29
31.468,35.87
31.484,35.93
31.500,46.15
31.515,67.72
31.531,98.3
31.546,132.38
31.562,162.49
31.578,180.48
31.593,177.83
31.609,153.3
31.625,109.46
31.640,51.17
31.656,-14.81
31.671,-81.68
31.687,-145.14
31.703,-200.73
31.718,-244.52
31.734,-273.41
31.750,-284.99
31.765,-278.44
31.781,-254.76
31.796,-213.25
31.812,-159.27
31.828,-98.86
31.843,-37.37
31.859,20.67
31.875,71.35
31.890,112.2
31.906,141.68
31.921,159.69
31.937,167.44
31.953,167.01
31.968,161.46
31.984,153.94
32.000,146.69
32.015,141.09
32.031,138.24
32.046,138.33
32.062,140.12
32.078,140.23
32.093,133.9
32.109,116.83
32.125,87.64
32.140,48.98
32.156,7.42
32.171,-28.5
32.187,-51.96
32.203,-60.27
32.218,-55.44
32.234,-42.04
32.250,-24.92
32.265,-6.68
32.281,11.81
32.296,30.39
32.312,48.39
32.328,64.25
32.343,75.01
32.359,78.64
32.375,74.99
32.390,65.32
32.406,52.17
32.421,37.93
32.437,24.11
32.453,11.28
32.468,-0.72
32.484,-12.3
32.500,-23.48
32.515,-33.48
32.531,-41.34
32.546,-46.0
32.562,-47.0
32.578,-44.86
32.593,-40.45
32.609,-35.15
32.625,-29.95
32.640,-25.34
32.656,-20.95
32.671,-16.17
32.687,-10.21
32.703,-2.8
32.718,5.73
32.734,15.0
32.750,24.14
32.765,32.55
32.781,39.95
32.796,46.46
32.812,52.5
32.828,58.81
32.843,65.4
32.859,72.08
32.875,78.97
32.890,85.73
32.906,92.22
32.921,98.46
32.937,104.58
32.953,110.91
32.968,117.84
32.984,124.88
33.000,131.47
33.015,137.25
33.031,141.58
33.046,143.87
33.062,143.62
33.078,140.09
33.093,132.04
33.109,122.54
33.125,112.35
33.140,101.65
33.156,90.44
33.171,78.47
33.187,65.71
33.203,52.51
33.218,39.42
33.234,27.29
33.250,16.8
33.265,7.58
33.281,-1.06
33.296,-10.1
33.312,-20.5
33.328,-32.75
33.343,-46.66
33.359,-61.61
33.375,-76.52
33.390,-90.39
33.406,-103.18
33.421,-115.11
33.437,-126.94
33.453,-139.52
33.468,-153.62
33.484,-169.74
33.500,-187.9
33.515,-207.01
33.531,-224.71
33.546,-237.91
33.562,-242.98
33.578,-237.2
33.593,-219.77
33.609,-192.41
33.625,-159.14
33.640,-124.93
33.656,-94.04
33.671,-68.96
33.687,-50.44
33.703,-37.73
33.718,-29.79
33.734,-26.03
33.750,-26.42
33.765,-31.18
33.781,-39.99
33.796,-51.6
33.812,-63.81
33.828,-74.1
33.843,-80.14
33.859,-80.69
33.875,-75.75
33.890,-66.69
33.906,-55.81
33.921,-45.48
33.937,-37.75
33.953,-33.84
33.968,-34.2
33.984,-38.74
34.000,-47.01
34.015,-58.21
34.031,-70.95
34.046,-83.09
34.062,-91.74
34.078,-94.16
34.093,-88.99
34.109,-77.0
34.125,-61.3
34.140,-46.08
34.156,-34.71
34.171,-28.41
34.187,-25.8
34.203,-24.05
34.218,-20.54
34.234,-14.32
34.250,-6.14
34.265,2.38
34.281,9.98
34.296,16.68
34.312,23.39
34.328,31.03
34.343,39.62
34.359,48.04
34.375,54.66
34.390,58.14
34.406,58.15
34.421,55.35
34.437,51.18
34.453,46.96
34.468,43.66
34.484,41.24
34.500,39.05
34.515,36.02
34.531,31.21
34.546,24.22
34.562,15.35
34.578,5.64
34.593,-3.95
34.609,-12.59
34.625,-20.18
34.640,-27.06
34.656,-33.45
34.671,-39.19
34.687,-43.41
34.703,-44.97
34.718,-42.98
34.734,-37.36
34.750,-28.92
34.765,-18.99
34.781,-9.05
34.796,0.09
34.812,8.1
34.828,15.17
34.843,21.58
34.859,27.36
34.875,32.28
34.890,36.08
34.906,38.72
34.921,40.26
34.937,41.31
34.953,42.35
34.968,43.77
34.984,45.63
35.000,47.71
35.015,49.44
35.031,50.55
35.046,51.13
35.062,51.28
35.078,51.42
35.093,51.8
35.109,52.34
35.125,52.58
35.140,51.89
35.156,49.56
35.171,45.42
35.187,40.09
35.203,34.46
35.218,29.24
35.234,24.37
35.250,18.69
35.265,10.47
35.281,-1.58
35.296,-17.55
35.312,-35.93
35.328,-54.37
35.343,-70.75
35.359,-84.04
35.375,-94.3
35.390,-102.15
35.406,-107.58
35.421,-109.66
35.437,-107.0
35.453,-98.35
35.468,-84.03
35.484,-65.62
35.500,-45.7
35.515,-26.77
35.531,-10.67
35.546,2.07
35.562,11.75
35.578,18.95
35.593,24.23
35.609,27.7
35.625,29.16
35.640,28.64
35.656,26.57
35.671,23.83
35.687,21.66
35.703,21.12
35.718,22.52
35.734,25.62
35.750,29.43
35.765,32.7
35.781,34.63
35.796,34.85
35.812,33.89
35.828,32.63
35.843,31.8
35.859,31.66
35.875,31.95
35.890,31.92
35.906,30.63
35.921,27.64
35.937,23.08
35.953,17.95
35.968,13.23
35.984,9.32
36.000,5.74
36.015,1.61
36.031,-3.86
36.046,-10.55
36.062,-17.28
36.078,-22.59
36.093,-25.59
36.109,-26.48
36.125,-26.59
36.140,-27.31
36.156,-29.13
36.171,-31.0
36.187,-30.97
36.203,-27.22
36.218,-19.39
36.234,-8.59
36.250,3.07
36.265,13.41
36.281,21.28
36.296,26.65
36.312,30.44
36.328,33.79
36.343,37.48
36.359,41.49
36.375,45.42
36.390,48.44
36.406,49.73
36.421,48.57
36.437,44.44
36.453,37.19
36.468,27.12
36.484,15.15
36.500,2.28
36.515,-10.24
36.531,-21.41
36.546,-30.75
36.562,-38.27
36.578,-44.41
36.593,-49.97
36.609,-55.9
36.625,-62.91
36.640,-71.5
36.656,-81.6
36.671,-93.08
36.687,-105.77
36.703,-120.05
36.718,-136.93
36.734,-157.34
36.750,-181.75
36.765,-209.58
36.781,-239.53
36.796,-269.3
36.812,-295.83
36.828,-315.77
36.843,-325.95
36.859,-324.29
36.875,-310.63
36.890,-287.54
36.906,-259.66
36.921,-231.97
36.937,-207.04
36.953,-183.03
36.968,-154.71
36.984,-116.89
37.000,-67.62
37.015,-10.36
37.031,46.49
37.046,93.07
37.062,121.98
37.078,130.92
37.093,123.13
37.109,104.7
37.125,81.44
37.140,56.84
37.156,32.34
37.171,8.01
37.187,-15.5
37.203,-36.65
37.218,-53.89
37.234,-66.35
37.250,-74.89
37.265,-81.93
37.281,-90.54
37.296,-102.89
37.312,-119.35
37.328,-137.63
37.343,-153.83
37.359,-164.11
37.375,-166.02
37.390,-159.46
37.406,-146.78
37.421,-131.61
37.437,-117.58
37.453,-106.95
37.468,-98.83
37.484,-90.39
37.500,-78.24
37.515,-60.17
37.531,-36.47
37.546,-10.13
37.562,14.85
37.578,34.84
37.593,48.39
37.609,57.32
37.625,65.63
37.640,77.49
37.656,95.58
37.671,119.78
37.687,147.61
37.703,175.77
37.718,201.28
37.734,222.28
37.750,237.82
37.765,246.91
37.781,248.4
37.796,242.0
37.812,229.34
37.828,214.26
37.843,201.63
37.859,194.19
37.875,190.57
37.890,185.47
37.906,172.81
37.921,150.38
37.937,123.2
37.953,102.41
37.968,99.96
37.984,122.04
38.000,165.26
38.015,218.35
38.031,268.19
38.046,306.27
38.062,332.29
38.078,352.3
38.093,372.64
38.109,394.32
38.125,410.74
38.140,410.53
38.156,384.15
38.171,329.33
38.187,252.85
38.203,168.12
38.218,89.32
38.234,25.69
38.250,-21.34
38.265,-57.28
38.281,-90.7
38.296,-128.08
38.312,-170.48
38.328,-213.54
38.343,-249.89
38.359,-273.32
38.375,-281.54
38.390,-276.56
38.406,-262.76
38.421,-244.22
38.437,-223.33
38.453,-200.6
38.468,-176.13
38.484,-150.76
38.500,-126.48
38.515,-105.59
38.531,-89.29
38.546,-76.76
38.562,-65.43
38.578,-51.67
38.593,-32.01
38.609,-4.06
38.625,33.03
38.640,77.57
38.656,125.45
38.671,170.64
38.687,206.4
38.703,226.84
38.718,229.24
38.734,214.56
38.750,187.21
38.765,153.46
38.781,118.95
38.796,87.15
38.812,59.43
38.828,35.8
38.843,16.06
38.859,0.41
38.875,-11.26
38.890,-20.27
38.906,-29.63
38.921,-43.15
38.937,-63.57
38.953,-90.63
38.968,-120.4
38.984,-146.15
39.000,-160.24
39.015,-156.51
39.031,-132.44
39.046,-89.91
39.062,-34.95
39.078,23.77
39.093,77.15
39.109,117.87
39.125,142.03
39.140,149.85
39.156,145.12
39.171,133.52
39.187,120.85
39.203,111.13
39.218,106.05
39.234,104.7
39.250,104.46
39.265,102.02
39.281,94.61
39.296,80.77
39.312,60.77
39.328,36.77
39.343,12.24
39.359,-8.73
39.375,-23.0
39.390,-29.29
39.406,-28.89
39.421,-25.3
39.437,-23.0
39.453,-25.45
39.468,-33.73
39.484,-45.75
39.500,-56.79
39.515,-61.26
39.531,-54.48
39.546,-34.59
39.562,-3.22
39.578,34.73
39.593,72.79
39.609,104.32
39.625,124.1
39.640,129.42
39.656,119.99
39.671,97.36
39.687,63.86
39.703,21.59
39.718,-28.13
39.734,-84.74
39.750,-148.1
39.765,-217.37
39.781,-289.37
39.796,-358.14
39.812,-415.07
39.828,-450.87
39.843,-458.29
39.859,-434.55
39.875,-382.58
39.890,-309.99
39.906,-227.34
39.921,-145.15
39.937,-72.75
39.953,-17.08
39.968,17.49
39.984,29.84
40.000,23.37
40.015,6.11
40.031,-10.11
40.046,-14.0
40.062,1.76
40.078,37.9
40.093,88.99
40.109,146.7
40.125,203.73
40.140,256.59
40.156,305.08
40.171,350.29
40.187,391.49
40.203,425.3
40.218,447.07
40.234,453.29
40.250,443.53
40.265,420.72
40.281,389.75
40.296,354.74
40.312,318.44
40.328,282.06
40.343,246.83
40.359,214.8
40.375,188.02
40.390,167.34
40.406,150.58
40.421,132.68
40.437,107.66
40.453,72.38
40.468,28.6
40.484,-16.91
40.500,-54.99
40.515,-78.71
40.531,-85.8
40.546,-79.62
40.562,-67.59
40.578,-57.66
40.593,-54.82
40.609,-60.03
40.625,-70.39
40.640,-81.02
40.656,-87.95
40.671,-89.36
40.687,-85.85
40.703,-79.41
40.718,-71.15
40.734,-60.2
40.750,-44.19
40.765,-20.76
40.781,10.86
40.796,48.62
40.812,88.23
40.828,124.46
40.843,152.82
40.859,170.71
40.875,177.34
40.890,173.33
40.906,160.24
40.921,140.32
40.937,116.26
40.953,91.02
40.968,67.14
40.984,45.46
41.000,25.06
41.015,3.73
41.031,-20.89
41.046,-49.58
41.062,-81.25
41.078,-113.57
41.093,-144.26
41.109,-172.52
41.125,-199.58
41.140,-227.77
41.156,-258.4
41.171,-290.89
41.187,-322.41
41.203,-349.07
41.218,-367.15
41.234,-373.87
41.250,-367.49
41.265,-347.82
41.281,-316.92
41.296,-278.79
41.312,-239.41
41.328,-204.81
41.343,-178.97
41.359,-161.57
41.375,-147.21
41.390,-126.86
41.406,-92.09
41.421,-38.87
41.437,29.83
41.453,104.42
41.468,172.39
41.484,222.46
41.500,248.03
41.515,248.13
41.531,226.16
41.546,188.19
41.562,141.08
41.578,92.11
41.593,48.16
41.609,15.3
41.625,-2.89
41.640,-7.12
41.656,-1.93
41.671,5.7
41.687,9.88
41.703,8.52
41.718,4.04
41.734,1.21
41.750,4.84
41.765,17.54
41.781,38.4
41.796,64.29
41.812,90.95
41.828,114.56
41.843,132.39
41.859,143.0
41.875,145.66
41.890,140.96
41.906,130.41
41.921,116.14
41.937,100.59
41.953,85.64
41.968,72.49
41.984,61.28
42.000,51.73
42.015,42.95
42.031,33.87
42.046,23.49
42.062,10.95
42.078,-4.29
42.093,-22.59
42.109,-43.77
42.125,-66.96
42.140,-90.11
42.156,-109.79
42.171,-121.47
42.187,-120.72
42.203,-104.92
42.218,-75.13
42.234,-36.87
42.250,1.01
42.265,28.98
42.281,40.31
42.296,33.8
42.312,14.07
42.328,-10.85
42.343,-32.69
42.359,-46.3
42.375,-50.72
42.390,-48.12
42.406,-41.36
42.421,-32.35
42.437,-21.61
42.453,-9.35
42.468,3.3
42.484,14.04
42.500,20.22
42.515,20.61
42.531,16.35
42.546,10.7
42.562,7.01
42.578,6.61
42.593,7.55
42.609,5.54
42.625,-3.59
42.640,-21.49
42.656,-45.91
42.671,-71.64
42.687,-93.06
42.703,-106.64
42.718,-111.95
42.734,-111.16
42.750,-107.29
42.765,-102.72
42.781,-98.53
42.796,-94.79
42.812,-91.32
42.828,-88.59
42.843,-87.26
42.859,-87.48
42.875,-88.35
42.890,-87.94
42.906,-83.8
42.921,-73.99
42.937,-57.62
42.953,-35.49
42.968,-9.89
42.984,16.23
43.000,40.1
43.015,60.2
43.031,76.49
43.046,90.43
43.062,103.85
43.078,117.82
43.093,131.94
43.109,144.41
43.125,152.99
43.140,155.88
43.156,152.65
43.171,144.31
43.187,132.91
43.203,120.71
43.218,109.46
43.234,99.65
43.250,90.93
43.265,82.48
43.281,73.58
43.296,63.91
43.312,53.52
43.328,42.64
43.343,31.62
43.359,20.95
43.375,10.81
43.390,1.1
43.406,-8.79
43.421,-20.32
43.437,-35.18
43.453,-54.7
43.468,-78.95
43.484,-106.02
43.500,-132.13
43.515,-152.72
43.531,-163.45
43.546,-161.25
43.562,-144.6
43.578,-113.49
43.593,-69.23
43.609,-14.48
43.625,47.09
43.640,111.88
43.656,177.0
43.671,241.05
43.687,303.79
43.703,364.56
43.718,420.47
43.734,465.09
43.750,489.23
43.765,483.55
43.781,442.53
43.796,367.26
43.812,266.05
43.828,152.07
43.843,39.25
43.859,-61.65
43.875,-145.27
43.890,-211.14
43.906,-261.42
43.921,-298.23
43.937,-322.47
43.953,-334.31
43.968,-334.55
43.984,-325.58
44.000,-311.21
44.015,-295.2
44.031,-279.9
44.046,-265.71
44.062,-251.31
44.078,-235.2
44.093,-216.28
44.109,-194.5
44.125,-170.64
44.140,-145.66
44.156,-120.41
44.171,-95.46
44.187,-71.17
44.203,-47.45
44.218,-23.99
44.234,-0.56
44.250,22.39
44.265,43.51
44.281,60.66
44.296,71.66
44.312,75.37
44.328,71.88
44.343,62.67
44.359,49.63
44.375,34.12
44.390,16.55
44.406,-3.38
44.421,-25.91
44.437,-50.24
44.453,-74.2
44.468,-95.27
44.484,-110.99
44.500,-120.18
44.515,-123.04
44.531,-120.62
44.546,-114.38
44.562,-105.47
44.578,-94.89
44.593,-83.69
44.609,-73.32
44.625,-65.34
44.640,-60.79
44.656,-59.79
44.671,-61.37
44.687,-64.13
44.703,-66.81
44.718,-68.77
44.734,-70.13
44.750,-71.43
44.765,-73.18
44.781,-75.25
44.796,-77.23
44.812,-78.28
44.828,-77.77
44.843,-75.33
44.859,-71.12
44.875,-65.57
44.890,-59.17
44.906,-52.35
44.921,-45.26
44.937,-38.03
44.953,-30.5
44.968,-22.01
44.984,-10.85
45.000,5.81
45.015,31.18
45.031,67.34
45.046,113.32
45.062,164.47
45.078,213.0
45.093,250.47
45.109,270.47
45.125,270.85
45.140,254.32
45.156,226.96
45.171,195.45
45.187,164.05
45.203,133.7
45.218,102.53
45.234,68.04
45.250,29.38
45.265,-11.85
45.281,-51.51
45.296,-84.64
45.312,-107.35
45.328,-118.0
45.343,-117.14
45.359,-106.53
45.375,-88.23
45.390,-64.09
45.406,-36.29
45.421,-7.25
45.437,20.33
45.453,44.31
45.468,64.13
45.484,80.73
45.500,95.95
45.515,110.89
45.531,125.03
45.546,135.63
45.562,139.14
45.578,132.13
45.593,112.96
45.609,82.23
45.625,42.57
45.640,-2.08
45.656,-47.24
45.671,-88.28
45.687,-121.24
45.703,-143.32
45.718,-153.3
45.734,-151.41
45.750,-138.8
45.765,-117.06
45.781,-87.87
45.796,-52.67
45.812,-12.63
45.828,31.84
45.843,80.45
45.859,132.17
45.875,183.85
45.890,229.14
45.906,258.33
45.921,260.88
45.937,228.96
45.953,161.07
45.968,63.81
45.984,-49.71
46.000,-163.41
46.015,-262.89
46.031,-338.41
46.046,-385.73
46.062,-404.42
46.078,-396.12
46.093,-363.38
46.109,-309.67
46.125,-239.9
46.140,-160.41
46.156,-78.26
46.171,-0.11
46.187,68.99
46.203,125.92
46.218,169.15
46.234,198.33
46.250,213.75
46.265,216.05
46.281,206.38
46.296,186.3
46.312,157.4
46.328,121.58
46.343,81.08
46.359,38.31
46.375,-4.25
46.390,-44.02
46.406,-78.96
46.421,-107.3
46.437,-127.91
46.453,-140.28
46.468,-144.31
46.484,-140.43
46.500,-129.58
46.515,-113.06
46.531,-92.45
46.546,-69.58
46.562,-46.11
46.578,-23.63
46.593,-3.43
46.609,13.57
46.625,26.98
46.640,36.87
46.656,43.77
46.671,48.18
46.687,50.46
46.703,50.74
46.718,48.9
46.734,44.96
46.750,39.42
46.765,33.2
46.781,27.59
46.796,24.0
46.812,23.48
46.828,26.35
46.843,32.19
46.859,39.8
46.875,47.39
46.890,53.15
46.906,55.26
46.921,52.61
46.937,45.03
46.953,33.49
46.968,19.65
46.984,5.57
47.000,-7.11
47.015,-17.68
47.031,-26.19
47.046,-33.31
47.062,-39.7
47.078,-45.65
47.093,-50.84
47.109,-54.77
47.125,-56.69
47.140,-56.12
47.156,-52.88
47.171,-46.95
47.187,-38.5
47.203,-27.81
47.218,-15.33
47.234,-1.76
47.250,11.86
47.265,24.46
47.281,35.08
47.296,43.08
47.312,48.37
47.328,51.23
47.343,52.24
47.359,52.1
47.375,51.28
47.390,50.13
47.406,48.78
47.421,47.3
47.437,45.67
47.453,43.99
47.468,42.37
47.484,40.92
47.500,39.87
47.515,39.19
47.531,38.86
47.546,38.66
47.562,38.31
47.578,37.59
47.593,36.44
47.609,34.97
47.625,33.3
47.640,31.69
47.656,30.04
47.671,28.01
47.687,25.19
47.703,21.06
47.718,15.42
47.734,8.51
47.750,0.88
47.765,-6.77
47.781,-13.89
47.796,-20.23
47.812,-26.0
47.828,-31.37
47.843,-36.51
47.859,-41.26
47.875,-45.16
47.890,-47.39
47.906,-47.03
47.921,-43.4
47.937,-36.13
47.953,-25.6
47.968,-12.63
47.984,1.5
48.000,15.48
48.015,28.17
48.031,38.84
48.046,47.24
48.062,53.38
48.078,57.58
48.093,60.09
48.109,61.25
48.125,61.14
48.140,59.79
48.156,57.23
48.171,53.45
48.187,48.62
48.203,42.97
48.218,36.8
48.234,30.39
48.250,23.98
48.265,17.46
48.281,10.52
48.296,2.75
48.312,-6.45
48.328,-17.52
48.343,-30.46
48.359,-44.94
48.375,-60.22
48.390,-75.16
48.406,-88.54
48.421,-99.21
48.437,-106.14
48.453,-108.76
48.468,-106.87
48.484,-100.65
48.500,-90.88
48.515,-78.61
48.531,-65.19
48.546,-51.96
48.562,-40.09
48.578,-30.18
48.593,-22.42
48.609,-16.4
48.625,-11.31
48.640,-6.27
48.656,-0.5
48.671,6.36
48.687,14.19
48.703,22.39
48.718,30.18
48.734,36.56
48.750,40.83
48.765,42.57
48.781,41.9
48.796,39.21
48.812,35.2
48.828,30.53
48.843,25.86
48.859,21.65
48.875,18.07
48.890,15.09
48.906,12.41
48.921,9.61
48.937,6.22
48.953,1.81
48.968,-3.94
48.984,-10.91
49.000,-18.92
49.015,-27.78
49.031,-37.4
49.046,-47.92
49.062,-59.57
49.078,-72.17
49.093,-85.08
49.109,-97.16
49.125,-106.72
49.140,-112.22
49.156,-112.29
49.171,-106.16
49.187,-93.56
49.203,-74.97
49.218,-51.38
49.234,-24.32
49.250,4.36
49.265,32.75
49.281,59.13
49.296,82.19
49.312,101.07
49.328,115.29
49.343,124.65
49.359,129.33
49.375,129.68
49.390,126.32
49.406,120.11
49.421,111.9
49.437,102.59
49.453,92.91
49.468,83.38
49.484,74.28
49.500,65.75
49.515,57.76
49.531,50.0
49.546,42.18
49.562,33.82
49.578,24.71
49.593,15.05
49.609,5.42
49.625,-3.26
49.640,-10.25
49.656,-15.14
49.671,-18.2
49.687,-20.08
49.703,-21.63
49.718,-23.37
49.734,-25.3
49.750,-27.11
49.765,-28.27
49.781,-28.56
49.796,-28.08
49.812,-27.32
49.828,-26.57
49.843,-25.96
49.859,-25.27
49.875,-23.94
49.890,-21.6
49.906,-18.23
49.921,-14.18
49.937,-10.02
49.953,-6.49
49.968,-3.77
49.984,-1.78
50.000,-0.29
50.015,1.08
50.031,2.35
50.046,3.25
50.062,3.46
50.078,2.69
50.093,0.82
50.109,-1.95
50.125,-5.19
50.140,-8.46
50.156,-11.36
50.171,-13.65
50.187,-15.21
50.203,-16.04
50.218,-16.15
50.234,-15.47
50.250,-13.89
50.265,-11.16
50.281,-7.06
50.296,-1.31
50.312,6.22
50.328,15.48
50.343,26.21
50.359,37.88
50.375,49.62
50.390,60.45
50.406,69.31
50.421,75.32
50.437,77.97
50.453,77.0
50.468,72.45
50.484,64.53
50.500,53.59
50.515,40.07
50.531,24.46
50.546,7.29
50.562,-10.79
50.578,-28.97
50.593,-46.39
50.609,-62.05
50.625,-74.96
50.640,-84.21
50.656,-88.93
50.671,-88.52
50.687,-82.76
50.703,-71.96
50.718,-56.96
50.734,-39.05
50.750,-19.68
50.765,-0.27
50.781,18.06
50.796,34.39
50.812,47.99
50.828,58.14
50.843,64.17
50.859,65.66
50.875,62.62
50.890,55.55
50.906,45.43
50.921,33.44
50.937,20.59
50.953,7.55
50.968,-5.27
50.984,-17.55
51.000,-28.83
51.015,-38.29
51.031,-45.12
51.046,-48.88
51.062,-49.8
51.078,-48.69
51.093,-46.84
51.109,-45.43
51.125,-45.2
51.140,-46.41
51.156,-48.66
51.171,-51.26
51.187,-53.39
51.203,-54.44
51.218,-54.11
51.234,-52.36
51.250,-49.32
51.265,-45.15
51.281,-40.01
51.296,-34.03
51.312,-27.32
51.328,-20.15
51.343,-12.89
51.359,-6.04
51.375,-0.07
51.390,4.84
51.406,8.74
51.421,12.05
51.437,15.3
51.453,19.03
51.468,23.68
51.484,29.51
51.500,36.56
51.515,44.48
51.531,52.82
51.546,60.89
51.562,67.81
51.578,72.92
51.593,75.73
51.609,76.19
51.625,74.62
51.640,71.47
51.656,67.07
51.671,61.43
51.687,54.48
51.703,46.14
51.718,36.61
51.734,26.32
51.750,15.91
51.765,6.06
51.781,-2.72
51.796,-10.27
51.812,-16.53
51.828,-21.65
51.843,-25.73
51.859,-28.86
51.875,-31.23
51.890,-33.01
51.906,-34.49
51.921,-36.0
51.937,-37.9
51.953,-40.44
51.968,-43.85
51.984,-48.06
52.000,-52.67
52.015,-57.09
52.031,-60.45
52.046,-61.92
52.062,-60.96
52.078,-57.45
52.093,-51.62
52.109,-43.97
52.125,-35.1
52.140,-25.41
52.156,-15.06
52.171,-4.24
52.187,6.95
52.203,18.09
52.218,28.49
52.234,37.4
52.250,43.96
52.265,47.76
52.281,48.76
52.296,47.4
52.312,44.25
52.328,39.96
52.343,35.02
52.359,29.75
52.375,24.54
52.390,19.64
52.406,15.48
52.421,12.26
52.437,9.98
52.453,8.39
52.468,6.99
52.484,5.47
52.500,3.7
52.515,1.75
52.531,-0.21
52.546,-2.04
52.562,-3.82
52.578,-5.66
52.593,-7.72
52.609,-10.15
52.625,-12.83
52.640,-15.76
52.656,-18.85
52.671,-22.33
52.687,-26.16
52.703,-30.39
52.718,-34.73
52.734,-38.83
52.750,-42.38
52.765,-45.22
52.781,-47.61
52.796,-49.95
52.812,-52.65
52.828,-55.55
52.843,-58.1
52.859,-59.32
52.875,-58.17
52.890,-54.2
52.906,-47.4
52.921,-38.56
52.937,-28.57
52.953,-18.53
52.968,-9.16
52.984,-0.87
53.000,6.14
53.015,11.94
53.031,16.65
53.046,20.53
53.062,23.69
53.078,26.42
53.093,29.0
53.109,31.61
53.125,34.37
53.140,37.33
53.156,40.48
53.171,43.61
53.187,46.46
53.203,48.73
53.218,50.2
53.234,50.7
53.250,50.32
53.265,49.15
53.281,47.33
53.296,44.99
53.312,41.88
53.328,37.77
53.343,32.34
53.359,25.43
53.375,17.1
53.390,7.71
53.406,-2.21
53.421,-12.12
53.437,-21.41
53.453,-29.86
53.468,-37.44
53.484,-44.18
53.500,-50.21
53.515,-55.65
53.531,-60.55
53.546,-64.91
53.562,-68.87
53.578,-72.36
53.593,-75.27
53.609,-77.28
53.625,-77.9
53.640,-76.59
53.656,-73.07
53.671,-67.39
53.687,-59.97
53.703,-51.56
53.718,-42.88
53.734,-34.46
53.750,-26.6
53.765,-19.39
53.781,-12.8
53.796,-6.76
53.812,-1.3
53.828,3.44
53.843,7.26
53.859,10.19
53.875,12.28
53.890,13.84
53.906,15.12
53.921,16.33
53.937,17.58
53.953,18.96
53.968,20.54
53.984,22.34
54.000,24.42
54.015,26.56
54.031,28.46
54.046,29.72
54.062,29.94
54.078,28.97
54.093,26.85
54.109,23.83
54.125,20.13
54.140,16.08
54.156,11.87
54.171,7.69
54.187,3.57
54.203,-0.46
54.218,-4.38
54.234,-8.18
54.250,-11.68
54.265,-14.76
54.281,-17.35
54.296,-19.47
54.312,-21.24
54.328,-22.84
54.343,-24.51
54.359,-26.42
54.375,-28.62
54.390,-30.85
54.406,-32.67
54.421,-33.55
54.437,-33.0
54.453,-30.64
54.468,-26.37
54.484,-20.57
54.500,-13.73
54.515,-6.65
54.531,0.06
54.546,5.93
54.562,10.86
54.578,14.82
54.593,18.03
54.609,20.78
54.625,23.05
54.640,24.98
54.656,26.48
54.671,27.53
54.687,28.09
54.703,28.16
54.718,27.81
54.734,27.18
54.750,26.52
54.765,25.97
54.781,25.77
54.796,25.9
54.812,26.24
54.828,26.53
54.843,26.46
54.859,25.73
54.875,24.26
54.890,22.05
54.906,19.26
54.921,16.24
54.937,13.17
54.953,10.18
54.968,7.39
54.984,4.82
55.000,2.61
55.015,0.81
55.031,-0.44
55.046,-1.31
55.062,-1.82
55.078,-2.33
55.093,-3.17
55.109,-4.49
55.125,-6.52
55.140,-9.28
55.156,-12.64
55.171,-16.46
55.187,-20.48
55.203,-24.32
55.218,-27.48
55.234,-29.31
55.250,-29.13
55.265,-26.8
55.281,-22.43
55.296,-16.64
55.312,-10.34
55.328,-4.4
55.343,0.63
55.359,4.52
55.375,7.51
55.390,9.92
55.406,11.91
55.421,13.6
55.437,15.07
55.453,16.22
55.468,17.13
55.484,17.95
55.500,18.86
55.515,20.0
55.531,21.47
55.546,23.18
55.562,24.98
55.578,26.71
55.593,28.14
55.609,29.21
55.625,29.73
55.640,29.55
55.656,28.55
55.671,26.72
55.687,24.23
55.703,21.33
55.718,18.36
55.734,15.57
55.750,13.28
55.765,11.56
55.781,10.27
55.796,9.14
55.812,7.93
55.828,6.41
55.843,4.42
55.859,2.07
55.875,-0.51
55.890,-3.07
55.906,-5.55
55.921,-8.01
55.937,-10.63
55.953,-13.56
55.968,-16.95
55.984,-20.71
56.000,-24.46
56.015,-27.66
56.031,-29.62
56.046,-29.79
56.062,-27.84
56.078,-23.73
56.093,-17.82
56.109,-10.72
56.125,-3.15
56.140,4.19
56.156,10.68
56.171,15.97
56.187,19.97
56.203,22.85
56.218,25.01
56.234,26.68
56.250,28.09
56.265,29.19
56.281,29.97
56.296,30.35
56.312,30.39
56.328,30.34
56.343,30.32
56.359,30.54
56.375,30.98
56.390,31.62
56.406,32.27
56.421,32.77
56.437,32.91
56.453,32.65
56.468,32.11
56.484,31.32
56.500,30.35
56.515,29.11
56.531,27.46
56.546,25.27
56.562,22.58
56.578,19.55
56.593,16.54
56.609,13.8
56.625,11.31
56.640,8.92
56.656,6.3
56.671,3.27
56.687,-0.25
56.703,-4.02
56.718,-7.74
56.734,-11.12
56.750,-13.96
56.765,-16.37
56.781,-18.62
56.796,-21.0
56.812,-23.67
56.828,-26.57
56.843,-29.36
56.859,-31.49
56.875,-32.34
56.890,-31.36
56.906,-28.37
56.921,-23.43
56.937,-16.98
56.953,-9.64
56.968,-2.13
56.984,4.87
57.000,10.73
57.015,15.2
57.031,18.2
57.046,19.93
57.062,20.72
57.078,21.03
57.093,21.12
57.109,21.26
57.125,21.48
57.140,21.71
57.156,21.87
57.171,21.96
57.187,21.95
57.203,21.95
57.218,22.12
57.234,22.47
57.250,23.09
57.265,23.87
57.281,24.69
57.296,25.38
57.312,25.84
57.328,25.98
57.343,25.74
57.359,25.12
57.375,24.08
57.390,22.69
57.406,21.04
57.421,19.18
57.437,17.16
57.453,15.0
57.468,12.71
57.484,10.39
57.500,8.02
57.515,5.57
57.531,3.07
57.546,0.68
57.562,-1.49
57.578,-3.23
57.593,-4.47
57.609,-5.25
57.625,-5.66
57.640,-6.02
57.656,-6.6
57.671,-7.68
57.687,-9.28
57.703,-11.3
57.718,-13.3
57.734,-14.73
57.750,-15.1
57.765,-13.98
57.781,-11.34
57.796,-7.34
57.812,-2.48
57.828,2.74
57.843,7.74
57.859,12.2
57.875,15.85
57.890,18.54
57.906,20.3
57.921,21.17
57.937,21.32
57.953,20.87
57.968,20.02
57.984,18.95
58.000,17.97
58.015,17.29
58.031,17.08
58.046,17.32
58.062,17.82
58.078,18.51
58.093,19.33
58.109,20.14
58.125,20.85
58.140,21.39
58.156,21.61
58.171,21.35
58.187,20.47
58.203,18.86
58.218,16.57
58.234,13.9
58.250,11.06
58.265,8.24
58.281,5.5
58.296,2.98
58.312,0.69
58.328,-1.4
58.343,-3.3
58.359,-5.08
58.375,-6.65
58.390,-8.03
58.406,-9.17
58.421,-10.07
58.437,-10.72
58.453,-11.03
58.468,-11.05
58.484,-10.95
58.500,-10.98
58.515,-11.37
58.531,-12.43
58.546,-14.13
58.562,-16.36
58.578,-18.85
58.593,-20.95
58.609,-22.09
58.625,-21.8
58.640,-19.9
58.656,-16.48
58.671,-11.99
58.687,-7.02
58.703,-2.11
58.718,2.19
58.734,5.67
58.750,8.31
58.765,10.18
58.781,11.39
58.796,12.08
58.812,12.41
58.828,12.43
58.843,12.29
58.859,11.94
58.875,11.5
58.890,11.11
58.906,10.83
58.921,10.8
58.937,10.92
58.953,11.13
58.968,11.32
58.984,11.5
59.000,11.64
59.015,11.76
59.031,11.83
59.046,11.59
59.062,10.84
59.078,9.34
59.093,7.1
59.109,4.36
59.125,1.58
59.140,-0.88
59.156,-2.75
59.171,-3.93
59.187,-4.66
59.203,-5.22
59.218,-5.82
59.234,-6.62
59.250,-7.67
59.265,-8.89
59.281,-10.33
59.296,-11.94
59.312,-13.63
59.328,-15.34
59.343,-16.87
59.359,-18.18
59.375,-19.26
59.390,-20.21
59.406,-21.19
59.421,-22.27
59.437,-23.36
59.453,-24.1
59.468,-24.01
59.484,-22.65
59.500,-19.77
59.515,-15.57
59.531,-10.35
59.546,-4.71
59.562,0.82
59.578,5.79
59.593,9.88
59.609,13.02
59.625,15.21
59.640,16.56
59.656,17.22
59.671,17.44
59.687,17.42
59.703,17.3
59.718,17.08
59.734,16.69
59.750,16.06
59.765,15.28
59.781,14.42
59.796,13.75
59.812,13.44
59.828,13.43
59.843,13.7
59.859,13.91
59.875,13.89
59.890,13.51
59.906,12.77
59.921,11.74
59.937,10.44
59.953,8.89
59.968,6.99
59.984,4.81
