timestamp,value
00.000,34.56
00.015,35.32
00.031,35.73
00.046,35.75
00.062,35.4
00.078,34.8
00.093,34.08
00.109,33.35
00.125,32.55
00.140,31.5
00.156,29.98
00.171,27.8
00.187,24.99
00.203,21.76
00.218,18.45
00.234,15.29
00.250,12.32
00.265,9.32
00.281,5.98
00.296,2.02
00.312,-2.59
00.328,-7.56
00.343,-12.47
00.359,-16.95
00.375,-20.83
00.390,-24.25
00.406,-27.56
00.421,-31.17
00.437,-35.38
00.453,-40.29
00.468,-45.59
00.484,-50.74
00.500,-54.95
00.515,-57.42
00.531,-57.52
00.546,-54.95
00.562,-49.84
00.578,-42.66
00.593,-34.1
00.609,-24.9
00.625,-15.71
00.640,-7.01
00.656,0.89
00.671,7.84
00.687,13.8
00.703,18.82
00.718,22.94
00.734,26.24
00.750,28.77
00.765,30.55
00.781,31.63
00.796,32.12
00.812,32.15
00.828,31.87
00.843,31.38
00.859,30.78
00.875,30.11
00.890,29.42
00.906,28.71
00.921,27.95
00.937,27.02
00.953,25.78
00.968,24.12
00.984,22.05
01.000,19.73
01.015,17.39
01.031,15.29
01.046,13.6
01.062,12.33
01.078,11.39
01.093,10.6
01.109,9.75
01.125,8.63
01.140,7.04
01.156,4.86
01.171,2.16
01.187,-0.92
01.203,-4.12
01.218,-7.28
01.234,-10.35
01.250,-13.5
01.265,-16.96
01.281,-20.91
01.296,-25.29
01.312,-29.64
01.328,-33.3
01.343,-35.45
01.359,-35.53
01.375,-33.39
01.390,-29.3
01.406,-23.9
01.421,-17.95
01.437,-12.1
01.453,-6.79
01.468,-2.22
01.484,1.65
01.500,4.97
01.515,7.88
01.531,10.51
01.546,12.94
01.562,15.22
01.578,17.36
01.593,19.31
01.609,21.06
01.625,22.6
01.640,23.95
01.656,25.1
01.671,26.02
01.687,26.65
01.703,26.93
01.718,26.87
01.734,26.55
01.750,26.08
01.765,25.62
01.781,25.18
01.796,24.7
01.812,24.0
01.828,22.9
01.843,21.26
01.859,19.1
01.875,16.57
01.890,13.92
01.906,11.44
01.921,9.27
01.937,7.44
01.953,5.8
01.968,4.06
01.984,1.89
02.000,-0.89
02.015,-4.35
02.031,-8.35
02.046,-12.62
02.062,-16.87
02.078,-20.86
02.093,-24.5
02.109,-27.85
02.125,-31.19
02.140,-34.85
02.156,-39.1
02.171,-43.98
02.187,-49.07
02.203,-53.61
02.218,-56.56
02.234,-56.98
02.250,-54.34
02.265,-48.68
02.281,-40.65
02.296,-31.22
02.312,-21.45
02.328,-12.15
02.343,-3.79
02.359,3.47
02.375,9.66
02.390,14.85
02.406,19.11
02.421,22.46
02.437,24.98
02.453,26.8
02.468,28.09
02.484,29.01
02.500,29.65
02.515,29.97
02.531,29.81
02.546,29.05
02.562,27.67
02.578,25.86
02.593,23.97
02.609,22.33
02.625,21.17
02.640,20.48
02.656,19.98
02.671,19.27
02.687,17.95
02.703,15.81
02.718,12.86
02.734,9.35
02.750,5.69
02.765,2.26
02.781,-0.67
02.796,-3.07
02.812,-5.13
02.828,-7.17
02.843,-9.49
02.859,-12.23
02.875,-15.37
02.890,-18.77
02.906,-22.22
02.921,-25.6
02.937,-28.87
02.953,-32.03
02.968,-35.2
02.984,-38.47
03.000,-41.97
03.015,-45.88
03.031,-50.34
03.046,-55.34
03.062,-60.56
03.078,-65.38
03.093,-68.95
03.109,-70.44
03.125,-69.35
03.140,-65.6
03.156,-59.62
03.171,-52.1
03.187,-43.8
03.203,-35.36
03.218,-27.31
03.234,-19.97
03.250,-13.61
03.265,-8.36
03.281,-4.15
03.296,-0.71
03.312,2.45
03.328,5.93
03.343,10.15
03.359,15.32
03.375,21.3
03.390,27.72
03.406,34.07
03.421,39.89
03.437,44.92
03.453,49.1
03.468,52.54
03.484,55.36
03.500,57.64
03.515,59.31
03.531,60.17
03.546,60.0
03.562,58.6
03.578,55.96
03.593,52.18
03.609,47.5
03.625,42.18
03.640,36.47
03.656,30.55
03.671,24.53
03.687,18.49
03.703,12.48
03.718,6.53
03.734,0.72
03.750,-4.87
03.765,-10.19
03.781,-15.25
03.796,-20.1
03.812,-24.86
03.828,-29.64
03.843,-34.53
03.859,-39.64
03.875,-45.05
03.890,-50.76
03.906,-56.59
03.921,-62.07
03.937,-66.42
03.953,-68.66
03.968,-67.96
03.984,-63.89
04.000,-56.71
04.015,-47.31
04.031,-37.02
04.046,-27.01
04.062,-18.1
04.078,-10.51
04.093,-4.03
04.109,1.73
04.125,7.08
04.140,12.09
04.156,16.61
04.171,20.42
04.187,23.45
04.203,25.79
04.218,27.66
04.234,29.27
04.250,30.75
04.265,32.09
04.281,33.16
04.296,33.86
04.312,34.17
04.328,34.18
04.343,33.98
04.359,33.54
04.375,32.76
04.390,31.42
04.406,29.4
04.421,26.78
04.437,23.76
04.453,20.66
04.468,17.69
04.484,14.86
04.500,12.02
04.515,9.0
04.531,5.74
04.546,2.3
04.562,-1.1
04.578,-4.26
04.593,-7.08
04.609,-9.57
04.625,-11.8
04.640,-13.92
04.656,-16.06
04.671,-18.48
04.687,-21.46
04.703,-25.31
04.718,-30.18
04.734,-35.9
04.750,-41.84
04.765,-47.02
04.781,-50.36
04.796,-50.94
04.812,-48.37
04.828,-42.84
04.843,-35.09
04.859,-26.17
04.875,-17.11
04.890,-8.64
04.906,-1.19
04.921,5.18
04.937,10.56
04.953,15.05
04.968,18.71
04.984,21.55
05.000,23.64
05.015,25.11
05.031,26.17
05.046,27.01
05.062,27.74
05.078,28.41
05.093,28.99
05.109,29.44
05.125,29.84
05.140,30.27
05.156,30.81
05.171,31.38
05.187,31.81
05.203,31.77
05.218,30.94
05.234,29.14
05.250,26.42
05.265,23.12
05.281,19.66
05.296,16.48
05.312,13.77
05.328,11.49
05.343,9.31
05.359,6.82
05.375,3.71
05.390,-0.03
05.406,-4.15
05.421,-8.26
05.437,-12.04
05.453,-15.37
05.468,-18.43
05.484,-21.6
05.500,-25.31
05.515,-29.84
05.531,-35.13
05.546,-40.77
05.562,-46.0
05.578,-49.9
05.593,-51.6
05.609,-50.5
05.625,-46.44
05.640,-39.79
05.656,-31.37
05.671,-22.22
05.687,-13.37
05.703,-5.52
05.718,1.05
05.734,6.45
05.750,10.94
05.765,14.74
05.781,17.84
05.796,20.06
05.812,21.28
05.828,21.47
05.843,20.95
05.859,20.15
05.875,19.46
05.890,19.05
05.906,18.8
05.921,18.54
05.937,18.13
05.953,17.59
05.968,17.03
05.984,16.49
06.000,15.89
06.015,15.03
06.031,13.72
06.046,11.84
06.062,9.45
06.078,6.63
06.093,3.47
06.109,-0.01
06.125,-3.79
06.140,-7.74
06.156,-11.66
06.171,-15.32
06.187,-18.62
06.203,-21.62
06.218,-24.62
06.234,-27.98
06.250,-32.01
06.265,-36.83
06.281,-42.33
06.296,-48.15
06.312,-53.57
06.328,-57.77
06.343,-59.84
06.359,-59.04
06.375,-55.07
06.390,-48.14
06.406,-38.93
06.421,-28.39
06.437,-17.54
06.453,-7.15
06.468,2.21
06.484,10.23
06.500,16.71
06.515,21.54
06.531,24.71
06.546,26.29
06.562,26.54
06.578,25.75
06.593,24.35
06.609,22.75
06.625,21.35
06.640,20.46
06.656,20.2
06.671,20.5
06.687,21.07
06.703,21.61
06.718,21.88
06.734,21.78
06.750,21.33
06.765,20.63
06.781,19.68
06.796,18.35
06.812,16.45
06.828,13.84
06.843,10.49
06.859,6.56
06.875,2.29
06.890,-2.14
06.906,-6.65
06.921,-11.23
06.937,-15.92
06.953,-20.66
06.968,-25.44
06.984,-30.29
07.000,-35.37
07.015,-40.85
07.031,-46.76
07.046,-52.79
07.062,-58.11
07.078,-61.62
07.093,-62.22
07.109,-59.24
07.125,-52.74
07.140,-43.45
07.156,-32.56
07.171,-21.31
07.187,-10.66
07.203,-1.12
07.218,7.16
07.234,14.26
07.250,20.28
07.265,25.27
07.281,29.22
07.296,32.08
07.312,33.9
07.328,34.9
07.343,35.34
07.359,35.49
07.375,35.57
07.390,35.63
07.406,35.6
07.421,35.35
07.437,34.79
07.453,33.96
07.468,32.97
07.484,32.0
07.500,31.14
07.515,30.43
07.531,29.71
07.546,28.74
07.562,27.13
07.578,24.54
07.593,20.73
07.609,15.69
07.625,9.71
07.640,3.31
07.656,-2.96
07.671,-8.73
07.687,-13.92
07.703,-18.71
07.718,-23.4
07.734,-28.25
07.750,-33.4
07.765,-38.85
07.781,-44.44
07.796,-49.82
07.812,-54.32
07.828,-56.99
07.843,-56.79
07.859,-53.06
07.875,-45.79
07.890,-35.77
07.906,-24.35
07.921,-12.92
07.937,-2.47
07.953,6.63
07.968,14.59
07.984,21.8
08.000,28.48
08.015,34.54
08.031,39.67
08.046,43.56
08.062,46.12
08.078,47.56
08.093,48.28
08.109,48.72
08.125,49.17
08.140,49.74
08.156,50.34
08.171,50.76
08.187,50.79
08.203,50.21
08.218,48.87
08.234,46.77
08.250,44.0
08.265,40.73
08.281,37.11
08.296,33.21
08.312,28.97
08.328,24.31
08.343,19.17
08.359,13.68
08.375,8.13
08.390,2.94
08.406,-1.58
08.421,-5.4
08.437,-8.82
08.453,-12.36
08.468,-16.57
08.484,-21.85
08.500,-28.22
08.515,-35.34
08.531,-42.48
08.546,-48.67
08.562,-52.94
08.578,-54.42
08.593,-52.59
08.609,-47.39
08.625,-39.22
08.640,-28.87
08.656,-17.42
08.671,-5.92
08.687,4.76
08.703,14.1
08.718,21.88
08.734,28.16
08.750,33.09
08.765,36.86
08.781,39.67
08.796,41.62
08.812,42.8
08.828,43.37
08.843,43.43
08.859,43.1
08.875,42.46
08.890,41.62
08.906,40.69
08.921,39.8
08.937,39.0
08.953,38.27
08.968,37.44
08.984,36.27
09.000,34.56
09.015,32.18
09.031,29.18
09.046,25.61
09.062,21.54
09.078,16.98
09.093,11.89
09.109,6.33
09.125,0.55
09.140,-5.06
09.156,-10.09
09.171,-14.41
09.187,-18.2
09.203,-21.86
09.218,-25.86
09.234,-30.49
09.250,-35.72
09.265,-41.31
09.281,-46.85
09.296,-51.86
09.312,-55.77
09.328,-57.93
09.343,-57.61
09.359,-54.24
09.375,-47.75
09.390,-38.54
09.406,-27.58
09.421,-16.04
09.437,-4.94
09.453,5.1
09.468,13.86
09.484,21.37
09.500,27.73
09.515,32.9
09.531,36.79
09.546,39.26
09.562,40.31
09.578,40.15
09.593,39.23
09.609,38.04
09.625,37.04
09.640,36.42
09.656,36.1
09.671,35.76
09.687,34.99
09.703,33.53
09.718,31.47
09.734,29.08
09.750,26.76
09.765,24.77
09.781,23.02
09.796,21.15
09.812,18.67
09.828,15.19
09.843,10.68
09.859,5.5
09.875,0.23
09.890,-4.61
09.906,-8.79
09.921,-12.44
09.937,-15.91
09.953,-19.59
09.968,-23.78
09.984,-28.64
10.000,-34.13
10.015,-40.09
10.031,-46.01
10.046,-51.04
10.062,-54.12
10.078,-54.1
10.093,-50.21
10.109,-42.47
10.125,-31.67
10.140,-19.25
10.156,-6.83
10.171,4.33
10.187,13.49
10.203,20.54
10.218,25.7
10.234,29.29
10.250,31.54
10.265,32.55
10.281,32.4
10.296,31.33
10.312,29.75
10.328,28.16
10.343,26.94
10.359,26.23
10.375,25.84
10.390,25.49
10.406,24.86
10.421,23.82
10.437,22.49
10.453,21.09
10.468,19.83
10.484,18.69
10.500,17.44
10.515,15.69
10.531,13.07
10.546,9.46
10.562,4.98
10.578,0.02
10.593,-4.93
10.609,-9.44
10.625,-13.28
10.640,-16.41
10.656,-19.0
10.671,-21.35
10.687,-23.79
10.703,-26.67
10.718,-30.27
10.734,-34.69
10.750,-39.65
10.765,-44.46
10.781,-48.07
10.796,-49.31
10.812,-47.26
10.828,-41.63
10.843,-32.8
10.859,-21.79
10.875,-9.9
10.890,1.67
10.906,12.1
10.921,21.09
10.937,28.73
10.953,35.27
10.968,40.92
10.984,45.77
11.000,49.65
11.015,52.32
11.031,53.56
11.046,53.28
11.062,51.67
11.078,49.03
11.093,45.78
11.109,42.22
11.125,38.49
11.140,34.65
11.156,30.72
11.171,26.77
11.187,22.92
11.203,19.32
11.218,16.08
11.234,13.2
11.250,10.57
11.265,7.98
11.281,5.25
11.296,2.19
11.312,-1.31
11.328,-5.15
11.343,-9.14
11.359,-12.91
11.375,-16.19
11.390,-18.86
11.406,-21.12
11.421,-23.38
11.437,-26.16
11.453,-29.88
11.468,-34.65
11.484,-40.26
11.500,-46.18
11.515,-51.63
11.531,-55.68
11.546,-57.48
11.562,-56.34
11.578,-52.05
11.593,-44.94
11.609,-35.77
11.625,-25.59
11.640,-15.42
11.656,-5.95
11.671,2.5
11.687,9.87
11.703,16.21
11.718,21.51
11.734,25.67
11.750,28.63
11.765,30.39
11.781,31.13
11.796,31.13
11.812,30.62
11.828,29.79
11.843,28.66
11.859,27.23
11.875,25.49
11.890,23.57
11.906,21.62
11.921,19.87
11.937,18.46
11.953,17.45
11.968,16.75
11.984,16.17
12.000,15.4
12.015,14.17
12.031,12.28
12.046,9.68
12.062,6.45
12.078,2.85
12.093,-0.84
12.109,-4.38
12.125,-7.68
12.140,-10.8
12.156,-13.88
12.171,-17.05
12.187,-20.36
12.203,-23.85
12.218,-27.49
12.234,-31.35
12.250,-35.38
12.265,-39.39
12.281,-42.9
12.296,-45.21
12.312,-45.6
12.328,-43.62
12.343,-39.31
12.359,-33.17
12.375,-26.06
12.390,-18.79
12.406,-11.95
12.421,-5.77
12.437,-0.31
12.453,4.42
12.468,8.31
12.484,11.18
12.500,12.91
12.515,13.53
12.531,13.23
12.546,12.38
12.562,11.32
12.578,10.36
12.593,9.75
12.609,9.58
12.625,9.86
12.640,10.46
12.656,11.19
12.671,11.75
12.687,11.99
12.703,11.89
12.718,11.62
12.734,11.38
12.750,11.28
12.765,11.17
12.781,10.71
12.796,9.52
12.812,7.38
12.828,4.4
12.843,0.9
12.859,-2.62
12.875,-5.85
12.890,-8.69
12.906,-11.25
12.921,-13.8
12.937,-16.53
12.953,-19.52
12.968,-22.71
12.984,-26.0
13.000,-29.24
13.015,-32.23
13.031,-34.59
13.046,-35.77
13.062,-35.17
13.078,-32.44
13.093,-27.58
13.109,-21.11
13.125,-13.83
13.140,-6.59
13.156,-0.08
13.171,5.38
13.187,9.78
13.203,13.28
13.218,16.05
13.234,18.28
13.250,20.09
13.265,21.58
13.281,22.83
13.296,23.93
13.312,24.9
13.328,25.74
13.343,26.33
13.359,26.52
13.375,26.14
13.390,25.06
13.406,23.32
13.421,21.14
13.437,18.89
13.453,16.93
13.468,15.45
13.484,14.39
13.500,13.47
13.515,12.37
13.531,10.87
13.546,8.97
13.562,6.92
13.578,5.03
13.593,3.52
13.609,2.36
13.625,1.32
13.640,0.09
13.656,-1.53
13.671,-3.57
13.687,-5.92
13.703,-8.33
13.718,-10.65
13.734,-12.65
13.750,-14.11
13.765,-14.68
13.781,-14.05
13.796,-12.01
13.812,-8.61
13.828,-4.28
13.843,0.36
13.859,4.66
13.875,8.23
13.890,10.92
13.906,12.86
13.921,14.18
13.937,14.89
13.953,14.91
13.968,14.16
13.984,12.71
14.000,10.83
14.015,8.88
14.031,7.14
14.046,5.69
14.062,4.38
14.078,2.97
14.093,1.34
14.109,-0.42
14.125,-2.05
14.140,-3.28
14.156,-3.91
14.171,-4.01
14.187,-3.82
14.203,-3.7
14.218,-3.98
14.234,-4.82
14.250,-6.15
14.265,-7.72
14.281,-9.21
14.296,-10.37
14.312,-11.1
14.328,-11.61
14.343,-12.16
14.359,-13.02
14.375,-14.35
14.390,-16.16
14.406,-18.36
14.421,-20.81
14.437,-23.23
14.453,-25.22
14.468,-26.29
14.484,-25.91
14.500,-23.76
14.515,-19.91
14.531,-14.77
14.546,-8.99
14.562,-3.23
14.578,1.96
14.593,6.3
14.609,9.67
14.625,12.02
14.640,13.44
14.656,14.02
14.671,14.01
14.687,13.7
14.703,13.4
14.718,13.3
14.734,13.44
14.750,13.71
14.765,13.96
14.781,14.04
14.796,13.82
14.812,13.36
14.828,12.73
14.843,12.01
14.859,11.34
14.875,10.68
14.890,9.96
14.906,9.03
14.921,7.8
14.937,6.22
14.953,4.35
14.968,2.24
14.984,-0.05
15.000,-2.43
15.015,-4.83
15.031,-7.08
15.046,-9.0
15.062,-10.4
15.078,-11.34
15.093,-11.97
15.109,-12.61
15.125,-13.59
15.140,-15.07
15.156,-17.15
15.171,-19.67
15.187,-22.34
15.203,-24.76
15.218,-26.41
15.234,-26.72
15.250,-25.27
15.265,-21.91
15.281,-16.9
15.296,-10.91
15.312,-4.71
15.328,1.0
15.343,5.81
15.359,9.64
15.375,12.69
15.390,15.2
15.406,17.37
15.421,19.39
15.437,21.42
15.453,23.65
15.468,26.18
15.484,28.89
15.500,31.46
15.515,33.4
15.531,34.23
15.546,33.68
15.562,31.74
15.578,28.67
15.593,24.84
15.609,20.61
15.625,16.18
15.640,11.71
15.656,7.29
15.671,3.07
15.687,-0.87
15.703,-4.41
15.718,-7.58
15.734,-10.36
15.750,-12.83
15.765,-15.01
15.781,-16.96
15.796,-18.72
15.812,-20.37
15.828,-22.07
15.843,-23.98
15.859,-26.33
15.875,-29.31
15.890,-33.07
15.906,-37.65
15.921,-42.96
15.937,-48.7
15.953,-54.33
15.968,-59.16
15.984,-62.48
16.000,-63.72
16.015,-62.62
16.031,-59.25
16.046,-53.98
16.062,-47.44
16.078,-40.37
16.093,-33.45
16.109,-27.14
16.125,-21.64
16.140,-16.86
16.156,-12.58
16.171,-8.61
16.187,-4.93
16.203,-1.66
16.218,0.97
16.234,2.89
16.250,4.22
16.265,5.27
16.281,6.36
16.296,7.68
16.312,9.18
16.328,10.64
16.343,11.79
16.359,12.47
16.375,12.7
16.390,12.66
16.406,12.59
16.421,12.64
16.437,12.85
16.453,13.15
16.468,13.4
16.484,13.48
16.500,13.25
16.515,12.63
16.531,11.56
16.546,10.05
16.562,8.21
16.578,6.24
16.593,4.46
16.609,3.05
16.625,2.09
16.640,1.39
16.656,0.56
16.671,-0.83
16.687,-3.15
16.703,-6.4
16.718,-10.32
16.734,-14.26
16.750,-17.5
16.765,-19.4
16.781,-19.62
16.796,-18.12
16.812,-15.17
16.828,-11.18
16.843,-6.55
16.859,-1.65
16.875,3.23
16.890,7.8
16.906,11.71
16.921,14.62
16.937,16.25
16.953,16.48
16.968,15.42
16.984,13.38
17.000,10.8
17.015,8.18
17.031,5.95
17.046,4.34
17.062,3.38
17.078,2.87
17.093,2.51
17.109,2.01
17.125,1.2
17.140,0.12
17.156,-1.06
17.171,-2.11
17.187,-2.93
17.203,-3.53
17.218,-4.02
17.234,-4.44
17.250,-4.78
17.265,-4.93
17.281,-4.88
17.296,-4.79
17.312,-5.02
17.328,-5.89
17.343,-7.5
17.359,-9.7
17.375,-12.0
17.390,-13.97
17.406,-15.33
17.421,-16.23
17.437,-17.07
17.453,-18.35
17.468,-20.46
17.484,-23.52
17.500,-27.42
17.515,-31.86
17.531,-36.32
17.546,-40.14
17.562,-42.6
17.578,-43.01
17.593,-40.95
17.609,-36.45
17.625,-29.95
17.640,-22.19
17.656,-13.97
17.671,-5.92
17.687,1.56
17.703,8.3
17.718,14.19
17.734,19.16
17.750,23.17
17.765,26.2
17.781,28.33
17.796,29.79
17.812,30.81
17.828,31.55
17.843,32.1
17.859,32.43
17.875,32.48
17.890,32.3
17.906,32.04
17.921,31.84
17.937,31.77
17.953,31.7
17.968,31.31
17.984,30.19
18.000,28.06
18.015,24.96
18.031,21.22
18.046,17.37
18.062,13.82
18.078,10.77
18.093,8.14
18.109,5.7
18.125,3.2
18.140,0.59
18.156,-2.07
18.171,-4.63
18.187,-7.0
18.203,-9.25
18.218,-11.51
18.234,-13.97
18.250,-16.74
18.265,-19.9
18.281,-23.5
18.296,-27.6
18.312,-32.07
18.328,-36.58
18.343,-40.5
18.359,-42.96
18.375,-43.14
18.390,-40.53
18.406,-35.17
18.421,-27.59
18.437,-18.69
18.453,-9.41
18.468,-0.45
18.484,7.69
18.500,14.78
18.515,20.66
18.531,25.31
18.546,28.7
18.562,30.88
18.578,31.94
18.593,32.03
18.609,31.37
18.625,30.29
18.640,29.11
18.656,28.11
18.671,27.48
18.687,27.24
18.703,27.26
18.718,27.32
18.734,27.27
18.750,27.02
18.765,26.55
18.781,25.78
18.796,24.6
18.812,22.88
18.828,20.58
18.843,17.77
18.859,14.59
18.875,11.13
18.890,7.42
18.906,3.42
18.921,-0.92
18.937,-5.52
18.953,-10.24
18.968,-14.83
18.984,-19.08
19.000,-22.87
19.015,-26.19
19.031,-29.09
19.046,-31.66
19.062,-34.04
19.078,-36.38
19.093,-38.85
19.109,-41.52
19.125,-44.14
19.140,-46.12
19.156,-46.59
19.171,-44.66
19.187,-39.84
19.203,-32.26
19.218,-22.67
19.234,-12.31
19.250,-2.43
19.265,6.05
19.281,12.74
19.296,17.68
19.312,21.15
19.328,23.41
19.343,24.62
19.359,24.89
19.375,24.32
19.390,23.23
19.406,22.03
19.421,21.19
19.437,21.04
19.453,21.68
19.468,22.88
19.484,24.29
19.500,25.46
19.515,26.0
19.531,25.78
19.546,24.82
19.562,23.34
19.578,21.55
19.593,19.67
19.609,17.75
19.625,15.68
19.640,13.23
19.656,10.15
19.671,6.29
19.687,1.68
19.703,-3.38
19.718,-8.47
19.734,-13.16
19.750,-17.1
19.765,-20.18
19.781,-22.5
19.796,-24.26
19.812,-25.82
19.828,-27.48
19.843,-29.45
19.859,-31.73
19.875,-34.07
19.890,-35.96
19.906,-36.73
19.921,-35.75
19.937,-32.59
19.953,-27.2
19.968,-19.97
19.984,-11.59
20.000,-2.91
20.015,5.33
20.031,12.61
20.046,18.72
20.062,23.64
20.078,27.47
20.093,30.28
20.109,32.13
20.125,33.1
20.140,33.31
20.156,33.01
20.171,32.48
20.187,31.9
20.203,31.31
20.218,30.6
20.234,29.6
20.250,28.27
20.265,26.74
20.281,25.25
20.296,24.12
20.312,23.47
20.328,23.14
20.343,22.71
20.359,21.65
20.375,19.5
20.390,16.09
20.406,11.6
20.421,6.45
20.437,1.11
20.453,-3.97
20.468,-8.58
20.484,-12.64
20.500,-16.18
20.515,-19.34
20.531,-22.4
20.546,-25.66
20.562,-29.49
20.578,-34.0
20.593,-38.98
20.609,-43.77
20.625,-47.33
20.640,-48.61
20.656,-46.98
20.671,-42.47
20.687,-35.8
20.703,-28.07
20.718,-20.36
20.734,-13.39
20.750,-7.4
20.765,-2.35
20.781,1.93
20.796,5.44
20.812,8.13
20.828,9.87
20.843,10.73
20.859,10.99
20.875,11.06
20.890,11.36
20.906,12.08
20.921,13.22
20.937,14.54
20.953,15.76
20.968,16.65
20.984,17.11
21.000,17.19
21.015,17.04
21.031,16.82
21.046,16.6
21.062,16.35
21.078,15.93
21.093,15.23
21.109,14.19
21.125,12.85
21.140,11.33
21.156,9.71
21.171,8.03
21.187,6.22
21.203,4.26
21.218,2.12
21.234,-0.21
21.250,-2.79
21.265,-5.75
21.281,-9.3
21.296,-13.58
21.312,-18.42
21.328,-23.34
21.343,-27.52
21.359,-30.12
21.375,-30.5
21.390,-28.45
21.406,-24.25
21.421,-18.48
21.437,-11.94
21.453,-5.33
21.468,0.8
21.484,6.08
21.500,10.31
21.515,13.39
21.531,15.38
21.546,16.36
21.562,16.59
21.578,16.41
21.593,16.16
21.609,16.12
21.625,16.39
21.640,17.0
21.656,17.86
21.671,18.93
21.687,20.16
21.703,21.53
21.718,22.94
21.734,24.24
21.750,25.26
21.765,25.91
21.781,26.17
21.796,26.1
21.812,25.67
21.828,24.71
21.843,22.92
21.859,20.03
21.875,16.02
21.890,11.2
21.906,6.14
21.921,1.46
21.937,-2.4
21.953,-5.38
21.968,-7.77
21.984,-10.14
22.000,-13.03
22.015,-16.78
22.031,-21.29
22.046,-25.99
22.062,-29.94
22.078,-32.15
22.093,-31.9
22.109,-29.02
22.125,-23.96
22.140,-17.59
22.156,-10.89
22.171,-4.62
22.187,0.75
22.203,5.1
22.218,8.38
22.234,10.57
22.250,11.64
22.265,11.68
22.281,10.95
22.296,9.87
22.312,8.82
22.328,7.99
22.343,7.33
22.359,6.64
22.375,5.76
22.390,4.66
22.406,3.49
22.421,2.48
22.437,1.79
22.453,1.44
22.468,1.23
22.484,0.87
22.500,0.12
22.515,-1.17
22.531,-3.03
22.546,-5.34
22.562,-7.93
22.578,-10.58
22.593,-13.07
22.609,-15.25
22.625,-17.08
22.640,-18.58
22.656,-19.94
22.671,-21.4
22.687,-23.22
22.703,-25.49
22.718,-28.1
22.734,-30.62
22.750,-32.4
22.765,-32.77
22.781,-31.19
22.796,-27.53
22.812,-21.99
22.828,-15.13
22.843,-7.64
22.859,-0.22
22.875,6.65
22.890,12.65
22.906,17.68
22.921,21.75
22.937,24.87
22.953,27.05
22.968,28.28
22.984,28.54
23.000,27.93
23.015,26.71
23.031,25.16
23.046,23.56
23.062,22.06
23.078,20.63
23.093,19.13
23.109,17.48
23.125,15.68
23.140,14.0
23.156,12.76
23.171,12.16
23.187,12.03
23.203,11.89
23.218,11.17
23.234,9.47
23.250,6.74
23.265,3.33
23.281,-0.21
23.296,-3.41
23.312,-6.06
23.328,-8.25
23.343,-10.28
23.359,-12.47
23.375,-15.01
23.390,-18.01
23.406,-21.32
23.421,-24.61
23.437,-27.33
23.453,-28.81
23.468,-28.43
23.484,-25.87
23.500,-21.27
23.515,-15.14
23.531,-8.23
23.546,-1.23
23.562,5.33
23.578,11.16
23.593,16.15
23.609,20.24
23.625,23.41
23.640,25.61
23.656,26.85
23.671,27.26
23.687,27.08
23.703,26.57
23.718,25.96
23.734,25.41
23.750,24.92
23.765,24.36
23.781,23.49
23.796,22.1
23.812,20.08
23.828,17.52
23.843,14.6
23.859,11.58
23.875,8.63
23.890,5.77
23.906,2.91
23.921,-0.09
23.937,-3.39
23.953,-6.97
23.968,-10.7
23.984,-14.29
24.000,-17.47
24.015,-20.06
24.031,-22.12
24.046,-23.9
24.062,-25.74
24.078,-28.02
24.093,-30.91
24.109,-34.27
24.125,-37.65
24.140,-40.26
24.156,-41.26
24.171,-39.99
24.187,-36.18
24.203,-30.06
24.218,-22.3
24.234,-13.76
24.250,-5.28
24.265,2.55
24.281,9.41
24.296,15.19
24.312,19.87
24.328,23.4
24.343,25.77
24.359,27.0
24.375,27.28
24.390,26.9
24.406,26.27
24.421,25.74
24.437,25.6
24.453,25.9
24.468,26.49
24.484,27.09
24.500,27.39
24.515,27.21
24.531,26.57
24.546,25.55
24.562,24.3
24.578,22.87
24.593,21.21
24.609,19.2
24.625,16.73
24.640,13.79
24.656,10.49
24.671,7.08
24.687,3.75
24.703,0.66
24.718,-2.1
24.734,-4.51
24.750,-6.55
24.765,-8.28
24.781,-9.85
24.796,-11.47
24.812,-13.44
24.828,-15.93
24.843,-18.88
24.859,-21.84
24.875,-24.12
24.890,-24.91
24.906,-23.61
24.921,-20.18
24.937,-15.0
24.953,-8.81
24.968,-2.4
24.984,3.6
25.000,8.84
25.015,13.16
25.031,16.47
25.046,18.74
25.062,19.9
25.078,19.98
25.093,19.19
25.109,17.88
25.125,16.44
25.140,15.23
25.156,14.46
25.171,14.13
25.187,14.16
25.203,14.4
25.218,14.73
25.234,15.05
25.250,15.31
25.265,15.48
25.281,15.46
25.296,15.15
25.312,14.41
25.328,13.18
25.343,11.4
25.359,9.11
25.375,6.41
25.390,3.54
25.406,0.78
25.421,-1.62
25.437,-3.52
25.453,-5.01
25.468,-6.35
25.484,-7.91
25.500,-10.03
25.515,-12.79
25.531,-16.06
25.546,-19.44
25.562,-22.43
25.578,-24.52
25.593,-25.27
25.609,-24.31
25.625,-21.52
25.640,-17.07
25.656,-11.4
25.671,-5.25
25.687,0.58
25.703,5.46
25.718,9.06
25.734,11.47
25.750,13.07
25.765,14.31
25.781,15.44
25.796,16.46
25.812,17.17
25.828,17.29
25.843,16.76
25.859,15.73
25.875,14.65
25.890,13.9
25.906,13.69
25.921,13.88
25.937,14.12
25.953,14.01
25.968,13.29
25.984,12.05
26.000,10.51
26.015,8.97
26.031,7.58
26.046,6.28
26.062,4.87
26.078,3.23
26.093,1.39
26.109,-0.43
26.125,-1.95
26.140,-3.03
26.156,-3.71
26.171,-4.26
26.187,-5.0
26.203,-6.22
26.218,-8.01
26.234,-10.34
26.250,-13.01
26.265,-15.84
26.281,-18.64
26.296,-21.24
26.312,-23.38
26.328,-24.7
26.343,-24.71
26.359,-23.04
26.375,-19.6
26.390,-14.68
26.406,-8.9
26.421,-3.09
26.437,2.12
26.453,6.4
26.468,9.68
26.484,12.07
26.500,13.66
26.515,14.46
26.531,14.44
26.546,13.67
26.562,12.38
26.578,10.95
26.593,9.75
26.609,9.03
26.625,8.85
26.640,9.08
26.656,9.5
26.671,9.88
26.687,10.04
26.703,9.89
26.718,9.43
26.734,8.6
26.750,7.37
26.765,5.75
26.781,3.76
26.796,1.58
26.812,-0.58
26.828,-2.53
26.843,-4.24
26.859,-5.86
26.875,-7.7
26.890,-10.08
26.906,-13.05
26.921,-16.45
26.937,-19.85
26.953,-22.8
26.968,-25.06
26.984,-26.64
27.000,-27.81
27.015,-28.87
27.031,-30.03
27.046,-31.24
27.062,-32.27
27.078,-32.71
27.093,-32.13
27.109,-30.16
27.125,-26.69
27.140,-21.88
27.156,-16.21
27.171,-10.3
27.187,-4.75
27.203,0.06
27.218,4.0
27.234,7.19
27.250,9.78
27.265,11.91
27.281,13.57
27.296,14.65
27.312,15.08
27.328,14.83
27.343,14.02
27.359,12.82
27.375,11.49
27.390,10.25
27.406,9.34
27.421,8.81
27.437,8.53
27.453,8.22
27.468,7.53
27.484,6.21
27.500,4.26
27.515,2.01
27.531,-0.18
27.546,-1.93
27.562,-3.15
27.578,-3.97
27.593,-4.68
27.609,-5.51
27.625,-6.51
27.640,-7.61
27.656,-8.61
27.671,-9.42
27.687,-10.0
27.703,-10.37
27.718,-10.57
27.734,-10.7
27.750,-10.81
27.765,-11.02
27.781,-11.46
27.796,-12.23
27.812,-13.33
27.828,-14.55
27.843,-15.48
27.859,-15.59
27.875,-14.39
27.890,-11.57
27.906,-7.19
27.921,-1.67
27.937,4.25
27.953,9.76
27.968,14.18
27.984,17.13
28.000,18.56
28.015,18.76
28.031,18.18
28.046,17.28
28.062,16.38
28.078,15.64
28.093,15.03
28.109,14.36
28.125,13.38
28.140,11.91
28.156,9.99
28.171,7.84
28.187,5.77
28.203,4.04
28.218,2.7
28.234,1.65
28.250,0.7
28.265,-0.23
28.281,-1.09
28.296,-1.64
28.312,-1.61
28.328,-0.91
28.343,0.33
28.359,1.79
28.375,3.05
28.390,3.74
28.406,3.66
28.421,2.78
28.437,1.14
28.453,-1.14
28.468,-3.95
28.484,-7.14
28.500,-10.57
28.515,-14.03
28.531,-17.32
28.546,-20.24
28.562,-22.73
28.578,-24.83
28.593,-26.6
28.609,-28.09
28.625,-29.14
28.640,-29.47
28.656,-28.77
28.671,-26.85
28.687,-23.72
28.703,-19.64
28.718,-15.03
28.734,-10.31
28.750,-5.84
28.765,-1.85
28.781,1.52
28.796,4.18
28.812,6.15
28.828,7.47
28.843,8.31
28.859,8.85
28.875,9.23
28.890,9.5
28.906,9.67
28.921,9.71
28.937,9.57
28.953,9.2
28.968,8.57
28.984,7.68
29.000,6.6
29.015,5.38
29.031,4.09
29.046,2.73
29.062,1.23
29.078,-0.51
29.093,-2.54
29.109,-4.79
29.125,-7.13
29.140,-9.37
29.156,-11.42
29.171,-13.31
29.187,-15.17
29.203,-17.1
29.218,-19.12
29.234,-21.19
29.250,-23.23
29.265,-25.17
29.281,-27.11
29.296,-29.14
29.312,-31.39
29.328,-33.83
29.343,-36.23
29.359,-38.08
29.375,-38.78
29.390,-37.73
29.406,-34.58
29.421,-29.39
29.437,-22.62
29.453,-15.01
29.468,-7.33
29.484,-0.26
29.500,5.82
29.515,10.78
29.531,14.73
29.546,17.89
29.562,20.48
29.578,22.72
29.593,24.7
29.609,26.38
29.625,27.65
29.640,28.35
29.656,28.38
29.671,27.72
29.687,26.48
29.703,24.81
29.718,22.94
29.734,20.99
29.750,19.08
29.765,17.23
29.781,15.41
29.796,13.59
29.812,11.76
29.828,9.91
29.843,8.01
29.859,6.02
29.875,3.86
29.890,1.51
29.906,-0.98
29.921,-3.49
29.937,-5.83
29.953,-7.95
29.968,-9.93
29.984,-11.99
30.000,-14.37
30.015,-17.26
30.031,-20.67
30.046,-24.51
30.062,-28.65
30.078,-32.94
30.093,-37.22
30.109,-41.21
30.125,-44.43
30.140,-46.25
30.156,-46.03
30.171,-43.38
30.187,-38.4
30.203,-31.63
30.218,-23.96
30.234,-16.31
30.250,-9.35
30.265,-3.33
30.281,1.83
30.296,6.39
30.312,10.54
30.328,14.25
30.343,17.33
30.359,19.58
30.375,20.99
30.390,21.84
30.406,22.55
30.421,23.52
30.437,24.94
30.453,26.62
30.468,28.08
30.484,28.83
30.500,28.49
30.515,26.99
30.531,24.54
30.546,21.52
30.562,18.3
30.578,15.21
30.593,12.38
30.609,9.86
30.625,7.62
30.640,5.6
30.656,3.71
30.671,1.81
30.687,-0.2
30.703,-2.39
30.718,-4.73
30.734,-7.1
30.750,-9.34
30.765,-11.36
30.781,-13.14
30.796,-14.83
30.812,-16.63
30.828,-18.76
30.843,-21.4
30.859,-24.58
30.875,-28.08
30.890,-31.44
30.906,-33.99
30.921,-34.91
30.937,-33.56
30.953,-29.63
30.968,-23.31
30.984,-15.27
31.000,-6.43
31.015,2.25
31.031,9.98
31.046,16.25
31.062,20.89
31.078,23.98
31.093,25.78
31.109,26.64
31.125,26.86
31.140,26.66
31.156,26.16
31.171,25.45
31.187,24.64
31.203,23.91
31.218,23.38
31.234,23.12
31.250,23.02
31.265,22.83
31.281,22.31
31.296,21.33
31.312,19.94
31.328,18.26
31.343,16.49
31.359,14.7
31.375,12.92
31.390,11.11
31.406,9.2
31.421,7.17
31.437,5.02
31.453,2.74
31.468,0.41
31.484,-1.91
31.500,-4.16
31.515,-6.33
31.531,-8.41
31.546,-10.46
31.562,-12.47
31.578,-14.37
31.593,-16.1
31.609,-17.62
31.625,-19.06
31.640,-20.69
31.656,-22.76
31.671,-25.26
31.687,-27.79
31.703,-29.49
31.718,-29.41
31.734,-26.74
31.750,-21.22
31.765,-13.25
31.781,-3.76
31.796,6.07
31.812,15.18
31.828,22.74
31.843,28.38
31.859,31.95
31.875,33.54
31.890,33.38
31.906,31.72
31.921,28.93
31.937,25.37
31.953,21.4
31.968,17.3
31.984,13.32
32.000,9.71
32.015,6.64
32.031,4.3
32.046,2.72
32.062,1.83
32.078,1.45
32.093,1.4
32.109,1.53
32.125,1.84
32.140,2.47
32.156,3.59
32.171,5.32
32.187,7.67
32.203,10.53
32.218,13.64
32.234,16.68
32.250,19.26
32.265,21.01
32.281,21.6
32.296,20.85
32.312,18.68
32.328,15.25
32.343,10.87
32.359,6.03
32.375,1.29
32.390,-2.95
32.406,-6.51
32.421,-9.46
32.437,-12.05
32.453,-14.42
32.468,-16.51
32.484,-17.92
32.500,-18.1
32.515,-16.62
32.531,-13.37
32.546,-8.67
32.562,-3.22
32.578,2.14
32.593,6.68
32.609,9.95
32.625,11.8
32.640,12.34
32.656,11.79
32.671,10.49
32.687,8.72
32.703,6.72
32.718,4.71
32.734,2.93
32.750,1.56
32.765,0.76
32.781,0.58
32.796,0.95
32.812,1.66
32.828,2.53
32.843,3.4
32.859,4.27
32.875,5.25
32.890,6.52
32.906,8.11
32.921,9.97
32.937,11.86
32.953,13.44
32.968,14.47
32.984,14.76
33.000,14.35
33.015,13.35
33.031,11.92
33.046,10.2
33.062,8.27
33.078,6.11
33.093,3.65
33.109,0.85
33.125,-2.3
33.140,-5.61
33.156,-8.88
33.171,-11.82
33.187,-14.26
33.203,-16.21
33.218,-17.82
33.234,-19.35
33.250,-20.95
33.265,-22.53
33.281,-23.63
33.296,-23.57
33.312,-21.71
33.328,-17.7
33.343,-11.67
33.359,-4.12
33.375,4.16
33.390,12.45
33.406,20.14
33.421,26.84
33.437,32.24
33.453,36.01
33.468,37.93
33.484,37.98
33.500,36.48
33.515,34.01
33.531,31.28
33.546,28.86
33.562,27.01
33.578,25.65
33.593,24.51
33.609,23.35
33.625,22.11
33.640,20.94
33.656,20.04
33.671,19.55
33.687,19.41
33.703,19.35
33.718,18.96
33.734,17.87
33.750,15.93
33.765,13.17
33.781,9.89
33.796,6.49
33.812,3.32
33.828,0.56
33.843,-1.81
33.859,-3.92
33.875,-5.92
33.890,-7.83
33.906,-9.67
33.921,-11.36
33.937,-12.93
33.953,-14.47
33.968,-16.16
33.984,-18.21
34.000,-20.7
34.015,-23.6
34.031,-26.82
34.046,-30.23
34.062,-33.73
34.078,-37.16
34.093,-40.23
34.109,-42.43
34.125,-43.07
34.140,-41.51
34.156,-37.37
34.171,-30.84
34.187,-22.59
34.203,-13.7
34.218,-5.27
34.234,1.86
34.250,7.38
34.265,11.4
34.281,14.37
34.296,16.79
34.312,19.04
34.328,21.33
34.343,23.67
34.359,25.93
34.375,27.9
34.390,29.42
34.406,30.42
34.421,30.96
34.437,31.17
34.453,31.17
34.468,31.15
34.484,31.18
34.500,31.3
34.515,31.47
34.531,31.62
34.546,31.63
34.562,31.36
34.578,30.64
34.593,29.39
34.609,27.68
34.625,25.64
34.640,23.48
34.656,21.33
34.671,19.15
34.687,16.84
34.703,14.34
34.718,11.67
34.734,8.98
34.750,6.42
34.765,4.07
34.781,1.88
34.796,-0.23
34.812,-2.4
34.828,-4.69
34.843,-7.07
34.859,-9.43
34.875,-11.54
34.890,-13.08
34.906,-13.75
34.921,-13.32
34.937,-11.82
34.953,-9.65
34.968,-7.41
34.984,-5.76
35.000,-5.04
35.015,-5.27
35.031,-6.12
35.046,-7.26
35.062,-8.44
35.078,-9.66
35.093,-11.02
35.109,-12.62
35.125,-14.51
35.140,-16.61
35.156,-18.81
35.171,-20.94
35.187,-22.8
35.203,-24.07
35.218,-24.5
35.234,-23.94
35.250,-22.41
35.265,-20.21
35.281,-17.8
35.296,-15.59
35.312,-13.97
35.328,-13.16
35.343,-13.2
35.359,-14.1
35.375,-15.88
35.390,-18.5
35.406,-21.92
35.421,-26.04
35.437,-30.65
35.453,-35.51
35.468,-40.37
35.484,-44.95
35.500,-49.03
35.515,-52.44
35.531,-55.03
35.546,-56.8
35.562,-57.77
35.578,-58.08
35.593,-57.94
35.609,-57.55
35.625,-57.08
35.640,-56.48
35.656,-55.53
35.671,-53.74
35.687,-50.62
35.703,-45.74
35.718,-38.95
35.734,-30.44
35.750,-20.71
35.765,-10.43
35.781,-0.33
35.796,8.93
35.812,16.94
35.828,23.45
35.843,28.53
35.859,32.45
35.875,35.55
35.890,38.19
35.906,40.48
35.921,42.3
35.937,43.37
35.953,43.49
35.968,42.61
35.984,41.01
36.000,39.15
36.015,37.43
36.031,36.1
36.046,35.13
36.062,34.31
36.078,33.37
36.093,32.17
36.109,30.69
36.125,29.07
36.140,27.43
36.156,25.83
36.171,24.2
36.187,22.43
36.203,20.39
36.218,17.96
36.234,15.06
36.250,11.63
36.265,7.58
36.281,2.9
36.296,-2.35
36.312,-7.97
36.328,-13.69
36.343,-19.19
36.359,-24.33
36.375,-29.12
36.390,-33.78
36.406,-38.53
36.421,-43.45
36.437,-48.27
36.453,-52.39
36.468,-55.03
36.484,-55.45
36.500,-53.19
36.515,-48.39
36.531,-41.66
36.546,-33.91
36.562,-26.13
36.578,-19.07
36.593,-13.12
36.609,-8.3
36.625,-4.44
36.640,-1.23
36.656,1.5
36.671,3.78
36.687,5.57
36.703,6.68
36.718,6.99
36.734,6.55
36.750,5.6
36.765,4.56
36.781,3.88
36.796,3.89
36.812,4.65
36.828,5.9
36.843,7.25
36.859,8.24
36.875,8.69
36.890,8.63
36.906,8.34
36.921,8.18
36.937,8.45
36.953,9.3
36.968,10.73
36.984,12.56
37.000,14.54
37.015,16.35
37.031,17.61
37.046,17.96
37.062,17.16
37.078,15.07
37.093,11.77
37.109,7.5
37.125,2.56
37.140,-2.77
37.156,-8.32
37.171,-14.06
37.187,-20.02
37.203,-26.19
37.218,-32.38
37.234,-38.15
37.250,-42.82
37.265,-45.65
37.281,-46.1
37.296,-44.01
37.312,-39.72
37.328,-34.03
37.343,-27.85
37.359,-21.97
37.375,-16.78
37.390,-12.29
37.406,-8.24
37.421,-4.29
37.437,-0.18
37.453,4.16
37.468,8.67
37.484,13.12
37.500,17.18
37.515,20.49
37.531,22.73
37.546,23.76
37.562,23.62
37.578,22.54
37.593,20.86
37.609,18.84
37.625,16.67
37.640,14.47
37.656,12.29
37.671,10.2
37.687,8.24
37.703,6.41
37.718,4.61
37.734,2.74
37.750,0.68
37.765,-1.59
37.781,-4.07
37.796,-6.79
37.812,-9.81
37.828,-13.28
37.843,-17.24
37.859,-21.61
37.875,-26.13
37.890,-30.51
37.906,-34.5
37.921,-38.05
37.937,-41.3
37.953,-44.45
37.968,-47.66
37.984,-50.84
38.000,-53.57
38.015,-55.11
38.031,-54.61
38.046,-51.31
38.062,-44.97
38.078,-35.94
38.093,-25.15
38.109,-13.9
38.125,-3.38
38.140,5.58
38.156,12.69
38.171,18.17
38.187,22.46
38.203,26.05
38.218,29.21
38.234,32.03
38.250,34.45
38.265,36.39
38.281,37.75
38.296,38.55
38.312,38.84
38.328,38.69
38.343,38.22
38.359,37.53
38.375,36.73
38.390,35.94
38.406,35.21
38.421,34.53
38.437,33.81
38.453,32.94
38.468,31.77
38.484,30.18
38.500,28.15
38.515,25.77
38.531,23.17
38.546,20.42
38.562,17.56
38.578,14.57
38.593,11.39
38.609,8.05
38.625,4.56
38.640,0.96
38.656,-2.7
38.671,-6.36
38.687,-9.97
38.703,-13.55
38.718,-17.09
38.734,-20.66
38.750,-24.36
38.765,-28.12
38.781,-31.66
38.796,-34.33
38.812,-35.22
38.828,-33.5
38.843,-28.75
38.859,-21.17
38.875,-11.62
38.890,-1.32
38.906,8.65
38.921,17.58
38.937,25.29
38.953,32.07
38.968,38.31
38.984,44.32
39.000,50.13
39.015,55.53
39.031,60.24
39.046,64.05
39.062,66.88
39.078,68.83
39.093,70.11
39.109,70.9
39.125,71.36
39.140,71.53
39.156,71.34
39.171,70.75
39.187,69.7
39.203,68.06
39.218,65.61
39.234,62.06
39.250,57.13
39.265,50.73
39.281,42.96
39.296,34.13
39.312,24.74
39.328,15.23
39.343,5.91
39.359,-3.03
39.375,-11.55
39.390,-19.63
39.406,-27.17
39.421,-33.97
39.437,-39.89
39.453,-44.8
39.468,-48.78
39.484,-52.12
39.500,-55.31
39.515,-58.97
39.531,-63.6
39.546,-69.39
39.562,-75.98
39.578,-82.65
39.593,-88.31
39.609,-91.89
39.625,-92.53
39.640,-89.86
39.656,-84.08
39.671,-75.84
39.687,-66.13
39.703,-55.96
39.718,-46.24
39.734,-37.64
39.750,-30.52
39.765,-24.97
39.781,-20.84
39.796,-17.89
39.812,-15.81
39.828,-14.38
39.843,-13.45
39.859,-12.94
39.875,-12.86
39.890,-13.16
39.906,-13.76
39.921,-14.51
39.937,-15.25
39.953,-15.91
39.968,-16.51
39.984,-17.19
40.000,-18.14
40.015,-19.53
40.031,-21.5
40.046,-24.09
40.062,-27.27
40.078,-30.91
40.093,-34.82
40.109,-38.7
40.125,-42.19
40.140,-44.91
40.156,-46.59
40.171,-47.04
40.187,-46.28
40.203,-44.36
40.218,-41.48
40.234,-37.84
40.250,-33.68
40.265,-29.3
40.281,-25.03
40.296,-21.24
40.312,-18.32
40.328,-16.57
40.343,-16.13
40.359,-16.89
40.375,-18.39
40.390,-19.87
40.406,-20.4
40.421,-19.06
40.437,-15.24
40.453,-8.81
40.468,-0.16
40.484,9.89
40.500,20.34
40.515,30.3
40.531,39.14
40.546,46.55
40.562,52.51
40.578,57.1
40.593,60.43
40.609,62.58
40.625,63.63
40.640,63.74
40.656,63.11
40.671,62.06
40.687,60.85
40.703,59.62
40.718,58.41
40.734,57.16
40.750,55.83
40.765,54.45
40.781,53.1
40.796,51.81
40.812,50.56
40.828,49.18
40.843,47.38
40.859,44.91
40.875,41.6
40.890,37.51
40.906,32.94
40.921,28.27
40.937,23.86
40.953,19.82
40.968,16.08
40.984,12.33
41.000,8.32
41.015,3.86
41.031,-0.91
41.046,-5.7
41.062,-10.19
41.078,-14.2
41.093,-17.78
41.109,-21.22
41.125,-24.96
41.140,-29.39
41.156,-34.78
41.171,-41.04
41.187,-47.62
41.203,-53.52
41.218,-57.44
41.234,-58.1
41.250,-54.7
41.265,-47.21
41.281,-36.4
41.296,-23.65
41.312,-10.54
41.328,1.63
41.343,12.06
41.359,20.51
41.375,27.05
41.390,31.92
41.406,35.29
41.421,37.31
41.437,38.11
41.453,37.85
41.468,36.8
41.484,35.3
41.500,33.7
41.515,32.23
41.531,31.06
41.546,30.29
41.562,29.95
41.578,30.0
41.593,30.37
41.609,30.89
41.625,31.29
41.640,31.29
41.656,30.62
41.671,29.12
41.687,26.78
41.703,23.64
41.718,19.8
41.734,15.35
41.750,10.35
41.765,4.91
41.781,-0.84
41.796,-6.74
41.812,-12.58
41.828,-18.23
41.843,-23.62
41.859,-28.75
41.875,-33.72
41.890,-38.66
41.906,-43.71
41.921,-49.01
41.937,-54.54
41.953,-60.02
41.968,-64.83
41.984,-68.05
42.000,-68.59
42.015,-65.63
42.031,-58.9
42.046,-48.83
42.062,-36.53
42.078,-23.47
42.093,-11.01
42.109,-0.07
42.125,8.96
42.140,16.19
42.156,21.95
42.171,26.56
42.187,30.24
42.203,33.06
42.218,35.04
42.234,36.26
42.250,36.8
42.265,36.87
42.281,36.68
42.296,36.41
42.312,36.19
42.328,36.08
42.343,36.08
42.359,36.22
42.375,36.51
42.390,36.91
42.406,37.28
42.421,37.35
42.437,36.72
42.453,35.09
42.468,32.3
42.484,28.45
42.500,23.84
42.515,18.75
42.531,13.44
42.546,8.05
42.562,2.66
42.578,-2.66
42.593,-7.72
42.609,-12.28
42.625,-16.19
42.640,-19.36
42.656,-21.96
42.671,-24.27
42.687,-26.71
42.703,-29.69
42.718,-33.47
42.734,-38.02
42.750,-42.94
42.765,-47.4
42.781,-50.3
42.796,-50.61
42.812,-47.65
42.828,-41.3
42.843,-32.19
42.859,-21.33
42.875,-9.98
42.890,0.79
42.906,10.28
42.921,18.29
42.937,24.9
42.953,30.37
42.968,34.89
42.984,38.47
43.000,41.04
43.015,42.46
43.031,42.74
43.046,42.03
43.062,40.62
43.078,38.83
43.093,36.9
43.109,35.01
43.125,33.19
43.140,31.54
43.156,30.11
43.171,29.0
43.187,28.18
43.203,27.48
43.218,26.56
43.234,25.05
43.250,22.71
43.265,19.53
43.281,15.74
43.296,11.72
43.312,7.77
43.328,4.09
43.343,0.66
43.359,-2.62
43.375,-5.88
43.390,-9.2
43.406,-12.62
43.421,-16.15
43.437,-19.81
43.453,-23.59
43.468,-27.44
43.484,-31.34
43.500,-35.24
43.515,-39.18
43.531,-43.26
43.546,-47.36
43.562,-51.12
43.578,-53.8
43.593,-54.44
43.609,-52.17
43.625,-46.56
43.640,-37.81
43.656,-26.81
43.671,-14.8
43.687,-3.08
43.703,7.34
43.718,15.91
43.734,22.51
43.750,27.41
43.765,31.02
43.781,33.73
43.796,35.85
43.812,37.56
43.828,38.97
43.843,40.09
43.859,40.91
43.875,41.39
43.890,41.45
43.906,41.02
43.921,40.08
43.937,38.73
43.953,37.15
43.968,35.62
43.984,34.27
44.000,33.06
44.015,31.8
44.031,30.18
44.046,28.01
44.062,25.25
44.078,22.06
44.093,18.68
44.109,15.33
44.125,12.09
44.140,8.9
44.156,5.59
44.171,2.04
44.187,-1.84
44.203,-6.0
44.218,-10.34
44.234,-14.66
44.250,-18.79
44.265,-22.56
44.281,-25.88
44.296,-28.8
44.312,-31.52
44.328,-34.38
44.343,-37.61
44.359,-41.32
44.375,-45.19
44.390,-48.51
44.406,-50.32
44.421,-49.62
44.437,-45.79
44.453,-38.85
44.468,-29.46
44.484,-18.76
44.500,-8.05
44.515,1.62
44.531,9.63
44.546,15.86
44.562,20.53
44.578,24.01
44.593,26.62
44.609,28.47
44.625,29.66
44.640,30.24
44.656,30.31
44.671,30.0
44.687,29.42
44.703,28.68
44.718,27.83
44.734,26.91
44.750,25.93
44.765,24.92
44.781,23.87
44.796,22.77
44.812,21.56
44.828,20.16
44.843,18.5
44.859,16.54
44.875,14.29
44.890,11.83
44.906,9.3
44.921,6.91
44.937,4.84
44.953,3.16
44.968,1.74
44.984,0.27
45.000,-1.63
45.015,-4.2
45.031,-7.44
45.046,-11.03
45.062,-14.56
45.078,-17.68
45.093,-20.25
45.109,-22.46
45.125,-24.66
45.140,-27.29
45.156,-30.59
45.171,-34.59
45.187,-39.03
45.203,-43.33
45.218,-46.65
45.234,-48.0
45.250,-46.49
45.265,-41.63
45.281,-33.63
45.296,-23.32
45.312,-12.01
45.328,-1.06
45.343,8.57
45.359,16.48
45.375,22.81
45.390,27.96
45.406,32.3
45.421,35.91
45.437,38.75
45.453,40.64
45.468,41.5
45.484,41.44
45.500,40.68
45.515,39.54
45.531,38.24
45.546,36.89
45.562,35.5
45.578,34.03
45.593,32.5
45.609,30.97
45.625,29.54
45.640,28.23
45.656,26.94
45.671,25.46
45.687,23.55
45.703,21.08
45.718,18.16
45.734,15.13
45.750,12.42
45.765,10.43
45.781,9.3
45.796,8.93
45.812,8.93
45.828,8.78
45.843,7.99
45.859,6.27
45.875,3.52
45.890,-0.13
45.906,-4.39
45.921,-9.08
45.937,-14.12
45.953,-19.62
45.968,-25.82
45.984,-32.79
46.000,-40.24
46.015,-47.4
46.031,-53.05
46.046,-55.91
46.062,-55.1
46.078,-50.44
46.093,-42.62
46.109,-32.98
46.125,-23.08
46.140,-14.27
46.156,-7.36
46.171,-2.54
46.187,0.51
46.203,2.29
46.218,3.41
46.234,4.35
46.250,5.44
46.265,6.94
46.281,8.99
46.296,11.63
46.312,14.75
46.328,18.12
46.343,21.33
46.359,24.07
46.375,26.09
46.390,27.33
46.406,27.95
46.421,28.1
46.437,27.86
46.453,27.17
46.468,25.88
46.484,23.81
46.500,20.96
46.515,17.48
46.531,13.6
46.546,9.68
46.562,5.98
46.578,2.74
46.593,0.14
46.609,-1.74
46.625,-2.96
46.640,-3.63
46.656,-3.97
46.671,-4.26
46.687,-4.71
46.703,-5.46
46.718,-6.58
46.734,-8.14
46.750,-10.23
46.765,-13.0
46.781,-16.53
46.796,-20.75
46.812,-25.38
46.828,-29.81
46.843,-33.29
46.859,-35.07
46.875,-34.65
46.890,-32.03
46.906,-27.67
46.921,-22.39
46.937,-17.1
46.953,-12.51
46.968,-8.92
46.984,-6.31
47.000,-4.39
47.015,-2.82
47.031,-1.3
47.046,0.31
47.062,2.05
47.078,3.82
47.093,5.54
47.109,7.11
47.125,8.49
47.140,9.74
47.156,11.05
47.171,12.62
47.187,14.63
47.203,17.13
47.218,20.02
47.234,23.01
47.250,25.66
47.265,27.36
47.281,27.48
47.296,25.49
47.312,21.16
47.328,14.68
47.343,6.63
47.359,-2.16
47.375,-10.81
47.390,-18.69
47.406,-25.52
47.421,-31.42
47.437,-36.79
47.453,-42.12
47.468,-47.74
47.484,-53.77
47.500,-59.94
47.515,-65.82
47.531,-70.94
47.546,-74.92
47.562,-77.6
47.578,-78.96
47.593,-79.09
47.609,-78.08
47.625,-76.03
47.640,-73.0
47.656,-69.0
47.671,-63.92
47.687,-57.5
47.703,-49.35
47.718,-39.23
47.734,-27.24
47.750,-14.03
47.765,-0.67
47.781,11.62
47.796,21.82
47.812,29.41
47.828,34.49
47.843,37.55
47.859,39.2
47.875,39.97
47.890,40.15
47.906,39.89
47.921,39.22
47.937,38.21
47.953,36.89
47.968,35.29
47.984,33.42
48.000,31.27
48.015,28.93
48.031,26.62
48.046,24.66
48.062,23.35
48.078,22.93
48.093,23.42
48.109,24.58
48.125,26.02
48.140,27.27
48.156,27.9
48.171,27.64
48.187,26.51
48.203,24.82
48.218,23.03
48.234,21.55
48.250,20.42
48.265,19.37
48.281,17.87
48.296,15.45
48.312,11.89
48.328,7.33
48.343,2.08
48.359,-3.58
48.375,-9.43
48.390,-15.48
48.406,-21.68
48.421,-27.95
48.437,-34.07
48.453,-39.8
48.468,-44.9
48.484,-49.14
48.500,-52.22
48.515,-53.73
48.531,-53.28
48.546,-50.68
48.562,-46.13
48.578,-40.1
48.593,-33.27
48.609,-26.27
48.625,-19.55
48.640,-13.36
48.656,-7.82
48.671,-3.05
48.687,0.86
48.703,3.81
48.718,5.77
48.734,6.77
48.750,7.04
48.765,6.84
48.781,6.62
48.796,6.85
48.812,7.85
48.828,9.69
48.843,12.09
48.859,14.42
48.875,16.04
48.890,16.57
48.906,16.05
48.921,14.97
48.937,14.03
48.953,13.84
48.968,14.66
48.984,16.35
49.000,18.48
49.015,20.5
49.031,21.94
49.046,22.46
49.062,21.91
49.078,20.22
49.093,17.4
49.109,13.6
49.125,9.06
49.140,4.24
49.156,-0.39
49.171,-4.38
49.187,-7.55
49.203,-9.98
49.218,-12.06
49.234,-14.4
49.250,-17.5
49.265,-21.55
49.281,-26.29
49.296,-30.97
49.312,-34.62
49.328,-36.28
49.343,-35.35
49.359,-31.83
49.375,-26.32
49.390,-19.75
49.406,-13.15
49.421,-7.33
49.437,-2.65
49.453,0.91
49.468,3.71
49.484,6.19
49.500,8.77
49.515,11.64
49.531,14.73
49.546,17.71
49.562,20.23
49.578,22.04
49.593,23.1
49.609,23.68
49.625,24.11
49.640,24.72
49.656,25.72
49.671,27.2
49.687,29.24
49.703,31.95
49.718,35.46
49.734,39.81
49.750,44.83
49.765,50.01
49.781,54.66
49.796,58.06
49.812,59.66
49.828,59.26
49.843,56.99
49.859,53.27
49.875,48.58
49.890,43.35
49.906,37.82
49.921,32.1
49.937,26.26
49.953,20.42
49.968,14.81
49.984,9.64
50.000,5.09
50.015,1.0
50.031,-2.88
50.046,-6.95
50.062,-11.29
50.078,-15.49
50.093,-18.65
50.109,-19.64
50.125,-17.59
50.140,-12.25
50.156,-4.21
50.171,5.28
50.187,14.83
50.203,23.27
50.218,30.01
50.234,35.02
50.250,38.57
50.265,40.92
50.281,42.21
50.296,42.41
50.312,41.47
50.328,39.52
50.343,36.92
50.359,34.22
50.375,31.91
50.390,30.19
50.406,28.93
50.421,27.67
50.437,25.78
50.453,22.75
50.468,18.34
50.484,12.53
50.500,5.53
50.515,-2.42
50.531,-11.08
50.546,-20.21
50.562,-29.48
50.578,-38.58
50.593,-47.24
50.609,-55.28
50.625,-62.81
50.640,-70.03
50.656,-77.15
50.671,-84.18
50.687,-90.88
50.703,-96.75
50.718,-101.33
50.734,-104.28
50.750,-105.54
50.765,-105.34
50.781,-104.08
50.796,-102.26
50.812,-100.34
50.828,-98.6
50.843,-97.09
50.859,-95.49
50.875,-93.11
50.890,-89.01
50.906,-82.38
50.921,-72.78
50.937,-60.44
50.953,-46.24
50.968,-31.37
50.984,-17.1
51.000,-4.35
51.015,6.4
51.031,15.06
51.046,21.8
51.062,26.84
51.078,30.47
51.093,32.96
51.109,34.65
51.125,35.85
51.140,36.76
51.156,37.45
51.171,37.84
51.187,37.78
51.203,37.09
51.218,35.67
51.234,33.51
51.250,30.82
51.265,27.83
51.281,24.78
51.296,21.87
51.312,19.17
51.328,16.64
51.343,14.23
51.359,11.91
51.375,9.65
51.390,7.46
51.406,5.32
51.421,3.13
51.437,0.8
51.453,-1.77
51.468,-4.58
51.484,-7.52
51.500,-10.41
51.515,-13.17
51.531,-15.8
51.546,-18.41
51.562,-21.19
51.578,-24.19
51.593,-27.31
51.609,-30.13
51.625,-32.11
51.640,-32.63
51.656,-31.33
51.671,-28.2
51.687,-23.63
51.703,-18.29
51.718,-12.87
51.734,-7.9
51.750,-3.5
51.765,0.46
51.781,4.24
51.796,7.98
51.812,11.62
51.828,14.88
51.843,17.42
51.859,19.1
51.875,20.02
51.890,20.52
51.906,21.01
51.921,21.77
51.937,22.8
51.953,23.94
51.968,24.94
51.984,25.67
52.000,26.26
52.015,26.95
52.031,27.95
52.046,29.3
52.062,30.77
52.078,31.95
52.093,32.44
52.109,31.97
52.125,30.49
52.140,28.18
52.156,25.39
52.171,22.56
52.187,20.21
52.203,18.8
52.218,18.62
52.234,19.56
52.250,21.14
52.265,22.48
52.281,22.63
52.296,20.85
52.312,16.96
52.328,11.45
52.343,5.32
52.359,-0.19
52.375,-4.06
52.390,-5.72
52.406,-5.23
52.421,-3.08
52.437,-0.12
52.453,2.77
52.468,4.84
52.484,5.59
52.500,4.79
52.515,2.36
52.531,-1.6
52.546,-6.96
52.562,-13.37
52.578,-20.34
52.593,-27.17
52.609,-33.08
52.625,-37.44
52.640,-39.92
52.656,-40.61
52.671,-39.93
52.687,-38.42
52.703,-36.59
52.718,-34.74
52.734,-33.01
52.750,-31.38
52.765,-29.84
52.781,-28.38
52.796,-27.06
52.812,-25.97
52.828,-25.23
52.843,-24.99
52.859,-25.34
52.875,-26.26
52.890,-27.59
52.906,-29.06
52.921,-30.39
52.937,-31.34
52.953,-31.8
52.968,-31.83
52.984,-31.55
53.000,-31.11
53.015,-30.65
53.031,-30.29
53.046,-30.15
53.062,-30.29
53.078,-30.59
53.093,-30.69
53.109,-30.02
53.125,-27.97
53.140,-24.12
53.156,-18.44
53.171,-11.38
53.187,-3.72
53.203,3.73
53.218,10.28
53.234,15.61
53.250,19.63
53.265,22.47
53.281,24.33
53.296,25.4
53.312,25.96
53.328,26.23
53.343,26.45
53.359,26.73
53.375,27.08
53.390,27.41
53.406,27.64
53.421,27.76
53.437,27.76
53.453,27.67
53.468,27.43
53.484,26.95
53.500,26.09
53.515,24.79
53.531,23.02
53.546,20.84
53.562,18.37
53.578,15.62
53.593,12.61
53.609,9.29
53.625,5.73
53.640,2.08
53.656,-1.39
53.671,-4.46
53.687,-7.01
53.703,-9.03
53.718,-10.66
53.734,-12.04
53.750,-13.33
53.765,-14.66
53.781,-16.19
53.796,-18.04
53.812,-20.26
53.828,-22.58
53.843,-24.47
53.859,-25.22
53.875,-24.23
53.890,-21.24
53.906,-16.49
53.921,-10.56
53.937,-4.17
53.953,2.14
53.968,8.05
53.984,13.4
54.000,18.18
54.015,22.42
54.031,26.16
54.046,29.47
54.062,32.45
54.078,35.09
54.093,37.34
54.109,39.01
54.125,39.96
54.140,40.07
54.156,39.36
54.171,37.82
54.187,35.43
54.203,32.22
54.218,28.28
54.234,23.89
54.250,19.39
54.265,15.18
54.281,11.43
54.296,8.13
54.312,5.11
54.328,2.15
54.343,-0.84
54.359,-3.81
54.375,-6.57
54.390,-8.97
54.406,-10.89
54.421,-12.33
54.437,-13.44
54.453,-14.35
54.468,-15.26
54.484,-16.3
54.500,-17.55
54.515,-19.04
54.531,-20.82
54.546,-22.92
54.562,-25.43
54.578,-28.43
54.593,-31.9
54.609,-35.67
54.625,-39.27
54.640,-42.12
54.656,-43.49
54.671,-42.79
54.687,-39.82
54.703,-34.79
54.718,-28.32
54.734,-21.2
54.750,-14.24
54.765,-8.03
54.781,-2.9
54.796,1.1
54.812,4.14
54.828,6.42
54.843,8.21
54.859,9.67
54.875,10.96
54.890,12.12
54.906,13.18
54.921,14.17
54.937,15.21
54.953,16.52
54.968,18.32
54.984,20.79
55.000,23.81
55.015,27.03
55.031,29.87
55.046,31.79
55.062,32.42
55.078,31.72
55.093,30.01
55.109,27.75
55.125,25.44
55.140,23.35
55.156,21.52
55.171,19.81
55.187,18.02
55.203,16.02
55.218,13.72
55.234,11.06
55.250,7.94
55.265,4.3
55.281,0.11
55.296,-4.5
55.312,-9.22
55.328,-13.67
55.343,-17.57
55.359,-20.89
55.375,-23.9
55.390,-27.02
55.406,-30.6
55.421,-34.67
55.437,-38.8
55.453,-42.14
55.468,-43.62
55.484,-42.37
55.500,-38.02
55.515,-30.81
55.531,-21.55
55.546,-11.33
55.562,-1.2
55.578,8.07
55.593,16.1
55.609,22.87
55.625,28.53
55.640,33.25
55.656,37.07
55.671,39.99
55.687,42.02
55.703,43.29
55.718,44.08
55.734,44.75
55.750,45.67
55.765,47.05
55.781,48.86
55.796,50.73
55.812,52.12
55.828,52.39
55.843,51.12
55.859,48.19
55.875,43.79
55.890,38.42
55.906,32.63
55.921,26.9
55.937,21.49
55.953,16.51
55.968,12.01
55.984,8.08
56.000,4.83
56.015,2.27
56.031,0.23
56.046,-1.68
56.062,-4.0
56.078,-7.1
56.093,-11.08
56.109,-15.61
56.125,-20.15
56.140,-24.11
56.156,-27.17
56.171,-29.39
56.187,-31.08
56.203,-32.73
56.218,-34.78
56.234,-37.57
56.250,-41.21
56.265,-45.48
56.281,-49.85
56.296,-53.4
56.312,-55.02
56.328,-53.69
56.343,-48.96
56.359,-41.03
56.375,-30.9
56.390,-19.96
56.406,-9.62
56.421,-0.96
56.437,5.52
56.453,9.86
56.468,12.51
56.484,14.02
56.500,15.0
56.515,15.92
56.531,17.04
56.546,18.41
56.562,19.98
56.578,21.55
56.593,22.94
56.609,23.99
56.625,24.57
56.640,24.62
56.656,24.17
56.671,23.29
56.687,22.11
56.703,20.83
56.718,19.57
56.734,18.36
56.750,17.07
56.765,15.59
56.781,13.84
56.796,11.89
56.812,9.96
56.828,8.33
56.843,7.18
56.859,6.53
56.875,6.16
56.890,5.74
56.906,4.91
56.921,3.44
56.937,1.27
56.953,-1.43
56.968,-4.36
56.984,-7.13
57.000,-9.48
57.015,-11.28
57.031,-12.63
57.046,-13.83
57.062,-15.24
57.078,-17.1
57.093,-19.33
57.109,-21.38
57.125,-22.3
57.140,-21.09
57.156,-17.03
57.171,-10.01
57.187,-0.64
57.203,9.87
57.218,20.17
57.234,29.14
57.250,36.16
57.265,41.2
57.281,44.57
57.296,46.74
57.312,48.13
57.328,49.0
57.343,49.48
57.359,49.6
57.375,49.3
57.390,48.52
57.406,47.22
57.421,45.41
57.437,43.21
57.453,40.88
57.468,38.73
57.484,37.09
57.500,36.11
57.515,35.76
57.531,35.79
57.546,35.9
57.562,35.74
57.578,35.1
57.593,33.93
57.609,32.17
57.625,29.88
57.640,27.07
57.656,23.76
57.671,19.99
57.687,15.85
57.703,11.46
57.718,6.93
57.734,2.24
57.750,-2.69
57.765,-7.92
57.781,-13.42
57.796,-19.06
57.812,-24.66
57.828,-30.07
57.843,-35.31
57.859,-40.54
57.875,-46.07
57.890,-52.21
57.906,-59.1
57.921,-66.57
57.937,-74.17
57.953,-81.14
57.968,-86.61
57.984,-89.83
58.000,-90.36
58.015,-88.24
58.031,-83.94
58.046,-78.14
58.062,-71.59
58.078,-64.86
58.093,-58.27
58.109,-51.92
58.125,-45.79
58.140,-39.85
58.156,-34.2
58.171,-28.99
58.187,-24.41
58.203,-20.5
58.218,-17.14
58.234,-14.04
58.250,-10.9
58.265,-7.55
58.281,-3.97
58.296,-0.33
58.312,3.15
58.328,6.33
58.343,9.18
58.359,11.79
58.375,14.21
58.390,16.47
58.406,18.44
58.421,19.98
58.437,20.97
58.453,21.34
58.468,21.18
58.484,20.58
58.500,19.7
58.515,18.67
58.531,17.56
58.546,16.36
58.562,14.97
58.578,13.18
58.593,10.85
58.609,7.93
58.625,4.52
58.640,0.95
58.656,-2.43
58.671,-5.3
58.687,-7.5
58.703,-9.06
58.718,-10.28
58.734,-11.52
58.750,-13.16
58.765,-15.52
58.781,-18.59
58.796,-22.09
58.812,-25.28
58.828,-27.23
58.843,-27.04
58.859,-24.25
58.875,-18.96
58.890,-11.85
58.906,-3.94
58.921,3.8
58.937,10.64
58.953,16.28
58.968,20.73
58.984,24.31
59.000,27.35
59.015,30.1
59.031,32.63
59.046,34.83
59.062,36.56
59.078,37.7
59.093,38.27
59.109,38.47
59.125,38.62
59.140,38.93
59.156,39.52
59.171,40.34
59.187,41.23
59.203,42.08
59.218,42.78
59.234,43.21
59.250,43.21
59.265,42.59
59.281,41.12
59.296,38.7
59.312,35.33
59.328,31.17
59.343,26.47
59.359,21.49
59.375,16.4
59.390,11.32
59.406,6.38
59.421,1.6
59.437,-2.94
59.453,-7.17
59.468,-11.13
59.484,-14.81
59.500,-18.28
59.515,-21.56
59.531,-24.58
59.546,-27.19
59.562,-29.21
59.578,-30.5
59.593,-31.07
59.609,-31.2
59.625,-31.37
59.640,-32.17
59.656,-33.96
59.671,-36.55
59.687,-39.14
59.703,-40.55
59.718,-39.58
59.734,-35.6
59.750,-28.81
59.765,-20.01
59.781,-10.39
59.796,-0.97
59.812,7.69
59.828,15.44
59.843,22.36
59.859,28.54
59.875,33.97
59.890,38.58
59.906,42.39
59.921,45.53
59.937,48.16
59.953,50.41
59.968,52.28
59.984,53.61
