timestamp,value
00.000,61.1
00.015,58.98
00.031,56.47
00.046,54.12
00.062,52.36
00.078,51.39
00.093,51.02
00.109,51.09
00.125,51.19
00.140,50.7
00.156,49.16
00.171,46.39
00.187,42.63
00.203,38.35
00.218,33.95
00.234,29.8
00.250,27.14
00.265,26.55
00.281,27.94
00.296,30.78
00.312,34.85
00.328,40.48
00.343,48.47
00.359,59.61
00.375,74.44
00.390,95.23
00.406,122.49
00.421,154.65
00.437,188.37
00.453,220.27
00.468,248.15
00.484,271.54
00.500,291.31
00.515,309.13
00.531,330.42
00.546,358.02
00.562,390.9
00.578,424.61
00.593,454.02
00.609,475.52
00.625,488.08
00.640,492.57
00.656,490.74
00.671,488.55
00.687,487.79
00.703,484.94
00.718,472.65
00.734,444.5
00.750,398.22
00.765,336.81
00.781,266.93
00.796,166.73
00.812,34.13
00.828,-115.0
00.843,-253.76
00.859,-360.46
00.875,-427.35
00.890,-458.03
00.906,-460.55
00.921,-443.21
00.937,-413.25
00.953,-371.94
00.968,-322.0
00.984,-268.31
01.000,-217.27
01.015,-172.37
01.031,-136.01
01.046,-108.33
01.062,-88.09
01.078,-73.96
01.093,-61.1
01.109,-47.34
01.125,-33.46
01.140,-22.51
01.156,-17.22
01.171,-18.86
01.187,-26.76
01.203,-39.5
01.218,-56.33
01.234,-72.09
01.250,-84.25
01.265,-93.14
01.281,-101.42
01.296,-111.94
01.312,-126.54
01.328,-145.09
01.343,-165.88
01.359,-186.61
01.375,-204.17
01.390,-217.12
01.406,-226.21
01.421,-233.7
01.437,-242.01
01.453,-252.92
01.468,-267.24
01.484,-285.15
01.500,-306.48
01.515,-329.61
01.531,-351.45
01.546,-367.23
01.562,-371.56
01.578,-360.77
01.593,-335.05
01.609,-298.78
01.625,-258.77
01.640,-221.33
01.656,-189.51
01.671,-162.73
01.687,-138.24
01.703,-113.21
01.718,-86.19
01.734,-57.33
01.750,-27.01
01.765,5.42
01.781,41.57
01.796,82.92
01.812,128.88
01.828,175.51
01.843,216.09
01.859,242.82
01.875,248.84
01.890,230.15
01.906,186.43
01.921,120.4
01.937,37.15
01.953,-56.78
01.968,-153.76
01.984,-244.95
02.000,-320.6
02.015,-371.24
02.031,-389.64
02.046,-372.85
02.062,-323.12
02.078,-247.46
02.093,-155.86
02.109,-59.4
02.125,31.38
02.140,107.21
02.156,161.48
02.171,191.56
02.187,199.56
02.203,191.75
02.218,176.53
02.234,161.4
02.250,150.31
02.265,142.65
02.281,134.26
02.296,120.01
02.312,96.73
02.328,65.29
02.343,30.92
02.359,1.69
02.375,-13.93
02.390,-9.81
02.406,15.97
02.421,60.25
02.437,115.89
02.453,174.15
02.468,227.63
02.484,272.56
02.500,308.85
02.515,338.38
02.531,362.31
02.546,379.46
02.562,386.65
02.578,380.85
02.593,361.42
02.609,331.02
02.625,294.57
02.640,256.52
02.656,218.7
02.671,179.75
02.687,137.19
02.703,89.93
02.718,39.79
02.734,-8.99
02.750,-52.0
02.765,-86.9
02.781,-114.41
02.796,-137.62
02.812,-160.61
02.828,-186.24
02.843,-214.7
02.859,-242.99
02.875,-265.45
02.890,-275.6
02.906,-268.34
02.921,-242.61
02.937,-202.56
02.953,-157.05
02.968,-116.3
02.984,-88.29
03.000,-76.13
03.015,-77.82
03.031,-88.42
03.046,-102.58
03.062,-116.71
03.078,-129.52
03.093,-141.71
03.109,-152.99
03.125,-161.11
03.140,-162.6
03.156,-154.35
03.171,-136.64
03.187,-112.79
03.203,-87.89
03.218,-67.08
03.234,-55.21
03.250,-53.43
03.265,-59.31
03.281,-68.76
03.296,-78.12
03.312,-87.86
03.328,-100.53
03.343,-118.83
03.359,-144.33
03.375,-178.68
03.390,-219.9
03.406,-262.38
03.421,-298.87
03.437,-322.09
03.453,-329.48
03.468,-320.88
03.484,-297.66
03.500,-262.82
03.515,-223.77
03.531,-186.77
03.546,-154.99
03.562,-128.2
03.578,-102.96
03.593,-77.93
03.609,-51.35
03.625,-21.72
03.640,31.27
03.656,110.6
03.671,201.38
03.687,280.04
03.703,321.33
03.718,331.54
03.734,321.95
03.750,302.76
03.765,285.45
03.781,277.12
03.796,278.36
03.812,287.59
03.828,302.32
03.843,319.51
03.859,336.15
03.875,346.72
03.890,349.25
03.906,346.25
03.921,342.8
03.937,341.98
03.953,345.78
03.968,354.86
03.984,369.19
04.000,389.05
04.015,411.7
04.031,434.65
04.046,456.08
04.062,473.91
04.078,484.59
04.093,485.48
04.109,476.05
04.125,457.76
04.140,433.12
04.156,402.68
04.171,365.27
04.187,318.82
04.203,260.74
04.218,188.66
04.234,102.22
04.250,4.42
04.265,-98.12
04.281,-197.03
04.296,-283.57
04.312,-350.55
04.328,-393.0
04.343,-408.86
04.359,-398.95
04.375,-367.07
04.390,-318.59
04.406,-259.29
04.421,-195.27
04.437,-132.27
04.453,-75.08
04.468,-27.05
04.484,9.84
04.500,35.38
04.515,50.74
04.531,57.91
04.546,59.35
04.562,56.96
04.578,52.32
04.593,46.67
04.609,40.64
04.625,33.82
04.640,25.19
04.656,13.98
04.671,-0.28
04.687,-17.3
04.703,-36.64
04.718,-56.88
04.734,-75.37
04.750,-89.38
04.765,-96.51
04.781,-95.8
04.796,-87.14
04.812,-71.81
04.828,-51.91
04.843,-31.43
04.859,-14.36
04.875,-3.26
04.890,0.08
04.906,-5.73
04.921,-22.22
04.937,-50.35
04.953,-90.2
04.968,-140.24
04.984,-200.41
05.000,-268.45
05.015,-338.61
05.031,-403.22
05.046,-455.41
05.062,-491.55
05.078,-511.8
05.093,-518.65
05.109,-515.38
05.125,-512.5
05.140,-518.44
05.156,-535.49
05.171,-559.88
05.187,-584.76
05.203,-603.87
05.218,-612.88
05.234,-609.37
05.250,-592.89
05.265,-575.66
05.281,-567.67
05.296,-570.97
05.312,-580.17
05.328,-587.76
05.343,-589.54
05.359,-584.94
05.375,-575.4
05.390,-563.05
05.406,-562.71
05.421,-582.67
05.437,-619.89
05.453,-662.61
05.468,-699.0
05.484,-724.18
05.500,-739.79
05.515,-750.55
05.531,-678.32
05.546,-491.86
05.562,-218.48
05.578,72.3
05.593,320.08
05.609,501.35
05.625,619.96
05.640,690.28
05.656,726.9
05.671,740.26
05.687,723.85
05.703,674.47
05.718,598.69
05.734,506.86
05.750,416.0
05.765,337.74
05.781,278.88
05.796,242.43
05.812,228.03
05.828,222.69
05.843,215.58
05.859,203.33
05.875,189.23
05.890,177.84
05.906,170.23
05.921,167.33
05.937,169.96
05.953,175.48
05.968,174.22
05.984,159.65
06.000,132.83
06.015,100.7
06.031,70.56
06.046,47.33
06.062,36.69
06.078,40.88
06.093,58.76
06.109,84.87
06.125,115.62
06.140,152.52
06.156,198.54
06.171,252.58
06.187,310.53
06.203,369.84
06.218,425.84
06.234,473.16
06.250,506.81
06.265,525.67
06.281,535.0
06.296,542.09
06.312,551.59
06.328,533.99
06.343,473.52
06.359,374.19
06.375,258.22
06.390,149.57
06.406,60.12
06.421,-8.28
06.437,-45.44
06.453,-64.95
06.468,-76.1
06.484,-78.27
06.500,-69.09
06.515,-47.3
06.531,-12.53
06.546,19.74
06.562,43.71
06.578,56.88
06.593,57.72
06.609,48.89
06.625,37.27
06.640,27.54
06.656,20.6
06.671,14.18
06.687,4.44
06.703,-8.97
06.718,-26.64
06.734,-47.47
06.750,-68.34
06.765,-84.9
06.781,-95.61
06.796,-101.2
06.812,-103.59
06.828,-104.93
06.843,-103.42
06.859,-98.65
06.875,-86.73
06.890,-64.31
06.906,-30.72
06.921,10.14
06.937,52.45
06.953,90.79
06.968,121.1
06.984,144.81
07.000,161.75
07.015,178.32
07.031,199.95
07.046,228.5
07.062,261.51
07.078,295.61
07.093,329.13
07.109,362.22
07.125,400.98
07.140,412.38
07.156,377.71
07.171,299.77
07.187,202.37
07.203,111.28
07.218,40.13
07.234,-9.8
07.250,-44.07
07.265,-52.28
07.281,-42.5
07.296,-15.84
07.312,26.05
07.328,78.47
07.343,134.41
07.359,188.28
07.375,239.24
07.390,256.35
07.406,230.47
07.421,163.5
07.437,74.7
07.453,-14.9
07.468,-91.7
07.484,-151.67
07.500,-196.72
07.515,-230.65
07.531,-257.18
07.546,-273.96
07.562,-282.06
07.578,-279.96
07.593,-268.34
07.609,-250.48
07.625,-231.13
07.640,-214.27
07.656,-202.49
07.671,-196.88
07.687,-193.07
07.703,-189.33
07.718,-183.22
07.734,-174.5
07.750,-164.98
07.765,-157.57
07.781,-154.54
07.796,-157.41
07.812,-166.5
07.828,-178.51
07.843,-191.22
07.859,-202.65
07.875,-210.61
07.890,-213.69
07.906,-210.98
07.921,-201.88
07.937,-186.08
07.953,-163.62
07.968,-133.74
07.984,-97.32
08.000,-55.44
08.015,-11.73
08.031,30.01
08.046,66.74
08.062,96.55
08.078,118.28
08.093,131.94
08.109,139.26
08.125,141.98
08.140,142.62
08.156,143.15
08.171,144.56
08.187,146.9
08.203,149.95
08.218,152.89
08.234,154.96
08.250,157.93
08.265,160.43
08.281,162.37
08.296,163.61
08.312,163.72
08.328,161.88
08.343,157.28
08.359,149.51
08.375,139.11
08.390,127.52
08.406,116.32
08.421,107.23
08.437,101.23
08.453,98.54
08.468,98.95
08.484,102.17
08.500,107.14
08.515,111.81
08.531,112.87
08.546,106.58
08.562,91.52
08.578,69.79
08.593,46.45
08.609,27.77
08.625,18.27
08.640,18.7
08.656,26.53
08.671,37.7
08.687,48.63
08.703,58.2
08.718,67.6
08.734,78.26
08.750,90.23
08.765,101.65
08.781,109.57
08.796,111.59
08.812,106.65
08.828,98.02
08.843,88.53
08.859,80.31
08.875,74.21
08.890,69.88
08.906,66.46
08.921,63.14
08.937,60.08
08.953,58.28
08.968,58.99
08.984,62.84
09.000,69.92
09.015,79.55
09.031,90.62
09.046,102.15
09.062,113.36
09.078,124.17
09.093,135.31
09.109,147.99
09.125,162.73
09.140,179.22
09.156,196.09
09.171,211.22
09.187,222.68
09.203,228.41
09.218,226.63
09.234,216.21
09.250,196.7
09.265,167.76
09.281,129.09
09.296,80.31
09.312,21.69
09.328,-45.34
09.343,-117.94
09.359,-192.37
09.375,-263.86
09.390,-327.57
09.406,-379.74
09.421,-418.75
09.437,-445.44
09.453,-462.31
09.468,-472.4
09.484,-478.36
09.500,-483.19
09.515,-487.98
09.531,-492.33
09.546,-495.01
09.562,-495.68
09.578,-495.6
09.593,-497.29
09.609,-503.77
09.625,-517.62
09.640,-542.8
09.656,-579.35
09.671,-622.31
09.687,-661.91
09.703,-687.39
09.718,-690.31
09.734,-667.04
09.750,-619.45
09.765,-554.4
09.781,-486.12
09.796,-426.55
09.812,-381.33
09.828,-349.08
09.843,-324.9
09.859,-303.16
09.875,-279.29
09.890,-250.77
09.906,-217.55
09.921,-187.52
09.937,-166.37
09.953,-154.43
09.968,-147.25
09.984,-140.14
10.000,-131.22
10.015,-121.27
10.031,-112.96
10.046,-71.98
10.062,12.05
10.078,124.17
10.093,235.8
10.109,326.46
10.125,389.8
10.140,427.36
10.156,442.49
10.171,438.27
10.187,418.65
10.203,383.28
10.218,335.96
10.234,283.44
10.250,235.53
10.265,198.54
10.281,173.95
10.296,160.21
10.312,154.45
10.328,154.08
10.343,152.64
10.359,146.72
10.375,136.94
10.390,126.91
10.406,119.78
10.421,115.06
10.437,111.38
10.453,107.29
10.468,102.12
10.484,93.26
10.500,80.35
10.515,65.53
10.531,52.31
10.546,42.99
10.562,38.9
10.578,40.07
10.593,45.2
10.609,52.58
10.625,59.35
10.640,64.15
10.656,67.4
10.671,70.49
10.687,74.33
10.703,81.07
10.718,91.82
10.734,105.97
10.750,121.98
10.765,137.84
10.781,152.7
10.796,167.0
10.812,181.8
10.828,198.0
10.843,219.69
10.859,249.65
10.875,287.07
10.890,327.63
10.906,365.36
10.921,395.6
10.937,416.56
10.953,429.56
10.968,437.73
10.984,448.9
11.000,468.07
11.015,494.44
11.031,522.34
11.046,545.35
11.062,559.94
11.078,566.53
11.093,567.91
11.109,536.56
11.125,459.39
11.140,341.65
11.156,204.07
11.171,69.11
11.187,-49.75
11.203,-148.49
11.218,-228.03
11.234,-290.28
11.250,-335.17
11.265,-361.71
11.281,-368.97
11.296,-359.23
11.312,-338.44
11.328,-314.21
11.343,-292.93
11.359,-278.47
11.375,-272.21
11.390,-273.33
11.406,-276.41
11.421,-275.96
11.437,-269.48
11.453,-257.88
11.468,-243.91
11.484,-229.91
11.500,-216.9
11.515,-204.81
11.531,-193.24
11.546,-180.03
11.562,-164.01
11.578,-146.08
11.593,-128.55
11.609,-113.63
11.625,-101.9
11.640,-92.4
11.656,-83.43
11.671,-73.68
11.687,-61.48
11.703,-46.15
11.718,-28.52
11.734,-10.32
11.750,6.56
11.765,21.15
11.781,33.39
11.796,43.79
11.812,52.88
11.828,61.49
11.843,70.08
11.859,78.4
11.875,85.81
11.890,91.62
11.906,95.5
11.921,97.43
11.937,97.68
11.953,96.47
11.968,94.08
11.984,90.83
12.000,87.06
12.015,83.05
12.031,78.93
12.046,74.74
12.062,70.2
12.078,65.03
12.093,58.96
12.109,51.86
12.125,43.75
12.140,34.73
12.156,25.18
12.171,15.49
12.187,6.31
12.203,-1.83
12.218,-8.54
12.234,-13.77
12.250,-17.95
12.265,-21.61
12.281,-25.35
12.296,-29.34
12.312,-33.5
12.328,-37.46
12.343,-40.92
12.359,-43.65
12.375,-45.48
12.390,-46.5
12.406,-46.52
12.421,-45.57
12.437,-43.58
12.453,-40.53
12.468,-36.49
12.484,-31.45
12.500,-25.43
12.515,-18.24
12.531,-9.76
12.546,0.22
12.562,11.61
12.578,24.0
12.593,36.66
12.609,48.5
12.625,58.47
12.640,65.58
12.656,69.1
12.671,68.52
12.687,63.76
12.703,55.09
12.718,43.07
12.734,28.73
12.750,13.25
12.765,-1.98
12.781,-15.44
12.796,-25.9
12.812,-32.55
12.828,-35.16
12.843,-34.02
12.859,-29.94
12.875,-23.95
12.890,-17.52
12.906,-12.04
12.921,-8.37
12.937,-6.67
12.953,-5.79
12.968,-4.11
12.984,0.36
13.000,9.23
13.015,23.64
13.031,43.48
13.046,67.36
13.062,92.53
13.078,114.68
13.093,129.18
13.109,131.78
13.125,120.63
13.140,96.85
13.156,64.36
13.171,28.1
13.187,-7.93
13.203,-41.55
13.218,-72.64
13.234,-101.81
13.250,-129.71
13.265,-156.04
13.281,-179.28
13.296,-196.88
13.312,-205.94
13.328,-204.14
13.343,-190.92
13.359,-168.33
13.375,-140.88
13.390,-114.72
13.406,-95.71
13.421,-87.58
13.437,-90.99
13.453,-103.16
13.468,-119.31
13.484,-134.16
13.500,-143.57
13.515,-144.89
13.531,-137.5
13.546,-122.66
13.562,-102.93
13.578,-81.9
13.593,-62.9
13.609,-48.83
13.625,-41.35
13.640,-41.0
13.656,-46.66
13.671,-55.54
13.687,-63.8
13.703,-67.37
13.718,-63.47
13.734,-51.36
13.750,-32.43
13.765,-9.5
13.781,14.36
13.796,36.89
13.812,56.84
13.828,73.84
13.843,87.89
13.859,99.29
13.875,108.7
13.890,117.32
13.906,126.65
13.921,137.72
13.937,150.26
13.953,162.46
13.968,171.4
13.984,174.35
14.000,170.24
14.015,160.51
14.031,148.54
14.046,138.18
14.062,132.02
14.078,130.21
14.093,130.76
14.109,130.58
14.125,126.98
14.140,118.63
14.156,105.64
14.171,88.69
14.187,68.2
14.203,44.11
14.218,16.45
14.234,-14.03
14.250,-45.13
14.265,-73.69
14.281,-96.23
14.296,-110.1
14.312,-113.98
14.328,-107.85
14.343,-92.85
14.359,-70.72
14.375,-43.99
14.390,-15.82
14.406,10.04
14.421,29.69
14.437,39.56
14.453,37.26
14.468,22.64
14.484,-2.19
14.500,-32.89
14.515,-63.72
14.531,-88.86
14.546,-103.71
14.562,-105.74
14.578,-95.24
14.593,-75.27
14.609,-50.67
14.625,-27.09
14.640,-9.68
14.656,-1.96
14.671,-5.26
14.687,-18.84
14.703,-40.1
14.718,-65.19
14.734,-89.87
14.750,-110.12
14.765,-122.98
14.781,-126.99
14.796,-122.66
14.812,-112.27
14.828,-99.05
14.843,-86.04
14.859,-74.96
14.875,-65.7
14.890,-56.83
14.906,-46.81
14.921,-34.9
14.937,-21.6
14.953,-8.57
14.968,2.24
14.984,9.35
15.000,12.05
15.015,10.62
15.031,6.02
15.046,-0.53
15.062,-7.73
15.078,-14.4
15.093,-19.65
15.109,-23.1
15.125,-24.53
15.140,-24.07
15.156,-21.92
15.171,-18.39
15.187,-13.96
15.203,-9.37
15.218,-5.35
15.234,-2.25
15.250,0.03
15.265,2.25
15.281,5.23
15.296,9.7
15.312,15.71
15.328,22.6
15.343,29.22
15.359,34.35
15.375,37.11
15.390,37.22
15.406,35.09
15.421,31.61
15.437,27.82
15.453,24.69
15.468,22.63
15.484,21.5
15.500,20.61
15.515,19.24
15.531,17.04
15.546,14.46
15.562,12.57
15.578,12.71
15.593,16.12
15.609,23.36
15.625,34.43
15.640,48.6
15.656,64.86
15.671,81.84
15.687,98.07
15.703,111.99
15.718,122.13
15.734,127.5
15.750,127.73
15.765,123.29
15.781,115.12
15.796,104.45
15.812,92.34
15.828,79.7
15.843,67.31
15.859,55.93
15.875,46.47
15.890,39.65
15.906,35.65
15.921,33.93
15.937,33.28
15.953,32.66
15.968,31.81
15.984,31.47
16.000,32.97
16.015,37.19
16.031,43.53
16.046,49.72
16.062,52.59
16.078,49.07
16.093,37.63
16.109,18.68
16.125,-5.63
16.140,-32.11
16.156,-57.17
16.171,-77.73
16.187,-91.73
16.203,-98.64
16.218,-99.71
16.234,-97.37
16.250,-93.89
16.265,-90.37
16.281,-86.12
16.296,-79.38
16.312,-68.74
16.328,-54.5
16.343,-38.84
16.359,-24.74
16.375,-14.36
16.390,-8.21
16.406,-5.57
16.421,-5.64
16.437,-8.02
16.453,-12.26
16.468,-16.6
16.484,-17.54
16.500,-10.94
16.515,5.74
16.531,31.17
16.546,60.05
16.562,85.03
16.578,100.05
16.593,102.8
16.609,95.25
16.625,81.91
16.640,67.1
16.656,53.44
16.671,41.42
16.687,30.85
16.703,21.9
16.718,15.58
16.734,12.82
16.750,13.94
16.765,18.12
16.781,23.61
16.796,28.35
16.812,30.75
16.828,30.23
16.843,27.17
16.859,22.61
16.875,17.7
16.890,13.17
16.906,9.26
16.921,5.67
16.937,1.93
16.953,-2.35
16.968,-7.1
16.984,-11.82
17.000,-15.86
17.015,-18.56
17.031,-19.74
17.046,-19.53
17.062,-18.43
17.078,-16.98
17.093,-15.53
17.109,-14.15
17.125,-12.6
17.140,-10.69
17.156,-8.12
17.171,-5.02
17.187,-1.61
17.203,1.57
17.218,4.04
17.234,5.46
17.250,5.75
17.265,5.13
17.281,4.0
17.296,2.89
17.312,2.18
17.328,2.03
17.343,2.25
17.359,2.55
17.375,2.61
17.390,2.31
17.406,1.76
17.421,1.13
17.437,0.78
17.453,0.89
17.468,1.6
17.484,2.76
17.500,4.19
17.515,5.61
17.531,6.72
17.546,7.37
17.562,7.5
17.578,7.23
17.593,6.68
17.609,5.94
17.625,5.03
17.640,3.91
17.656,2.64
17.671,1.3
17.687,0.13
17.703,-0.72
17.718,-1.13
17.734,-1.31
17.750,-1.46
17.765,-1.7
17.781,-2.02
17.796,-2.22
17.812,-2.16
17.828,-1.72
17.843,-1.1
17.859,-0.5
17.875,-0.18
17.890,-0.26
17.906,-0.61
17.921,-1.01
17.937,-1.15
17.953,-0.97
17.968,-0.48
17.984,0.17
18.000,0.74
18.015,1.04
18.031,0.95
18.046,0.5
18.062,-0.24
18.078,-1.03
18.093,-1.77
18.109,-2.47
18.125,-3.25
18.140,-4.23
18.156,-5.48
18.171,-6.93
18.187,-8.29
18.203,-9.37
18.218,-10.04
18.234,-10.38
18.250,-10.48
18.265,-10.43
18.281,-10.1
18.296,-9.27
18.312,-7.81
18.328,-5.75
18.343,-3.49
18.359,-1.53
18.375,-0.25
18.390,0.24
18.406,0.09
18.421,-0.45
18.437,-1.08
18.453,-1.66
18.468,-2.29
18.484,-3.06
18.500,-4.12
18.515,-5.4
18.531,-6.68
18.546,-7.65
18.562,-8.08
18.578,-7.85
18.593,-7.01
18.609,-5.74
18.625,-4.36
18.640,-3.12
18.656,-2.11
18.671,-1.35
18.687,-0.82
18.703,-0.54
18.718,-0.63
18.734,-1.32
18.750,-2.69
18.765,-4.72
18.781,-7.24
18.796,-9.84
18.812,-12.13
18.828,-13.88
18.843,-15.0
18.859,-15.58
18.875,-15.86
18.890,-15.92
18.906,-15.9
18.921,-15.79
18.937,-15.6
18.953,-15.26
18.968,-14.87
18.984,-14.53
19.000,-14.31
19.015,-14.23
19.031,-14.12
19.046,-13.82
19.062,-13.11
19.078,-11.9
19.093,-10.22
19.109,-8.33
19.125,-6.46
19.140,-4.86
19.156,-3.62
19.171,-2.62
19.187,-1.74
19.203,-0.79
19.218,0.22
19.234,1.13
19.250,1.7
19.265,1.82
19.281,1.57
19.296,1.17
19.312,0.91
19.328,0.94
19.343,1.21
19.359,1.51
19.375,1.64
19.390,1.45
19.406,1.04
19.421,0.64
19.437,0.42
19.453,0.47
19.468,0.76
19.484,1.1
19.500,1.28
19.515,1.3
19.531,1.19
19.546,1.17
19.562,1.39
19.578,1.89
19.593,2.54
19.609,3.08
19.625,3.33
19.640,3.23
19.656,2.86
19.671,2.38
19.687,1.95
19.703,1.56
19.718,1.2
19.734,0.85
19.750,0.49
19.765,0.18
19.781,0.06
19.796,0.26
19.812,0.87
19.828,1.92
19.843,3.34
19.859,4.94
19.875,6.61
19.890,8.16
19.906,9.38
19.921,10.13
19.937,10.37
19.953,10.06
19.968,9.29
19.984,8.18
20.000,6.8
20.015,5.36
20.031,4.0
20.046,2.8
20.062,1.84
20.078,1.09
20.093,0.53
20.109,0.01
20.125,-0.5
20.140,-1.08
20.156,-1.68
20.171,-2.3
20.187,-2.92
20.203,-3.5
20.218,-4.08
20.234,-4.66
20.250,-5.28
20.265,-5.94
20.281,-6.64
20.296,-7.28
20.312,-7.81
20.328,-8.16
20.343,-8.19
20.359,-8.05
20.375,-7.83
20.390,-7.73
20.406,-7.81
20.421,-8.14
20.437,-8.55
20.453,-8.95
20.468,-9.32
20.484,-9.65
20.500,-10.12
20.515,-10.76
20.531,-11.47
20.546,-12.02
20.562,-12.19
20.578,-11.84
20.593,-11.0
20.609,-9.93
20.625,-8.9
20.640,-8.13
20.656,-7.61
20.671,-7.16
20.687,-6.68
20.703,-6.13
20.718,-5.65
20.734,-5.34
20.750,-5.36
20.765,-5.7
20.781,-6.22
20.796,-6.63
20.812,-6.66
20.828,-6.18
20.843,-5.2
20.859,-3.96
20.875,-2.71
20.890,-1.76
20.906,-1.2
20.921,-1.07
20.937,-1.24
20.953,-1.58
20.968,-2.04
20.984,-2.61
21.000,-3.43
21.015,-4.55
21.031,-5.91
21.046,-7.31
21.062,-8.47
21.078,-9.17
21.093,-9.3
21.109,-8.87
21.125,-8.06
21.140,-7.08
21.156,-6.16
21.171,-5.36
21.187,-4.68
21.203,-4.07
21.218,-3.54
21.234,-3.11
21.250,-2.88
21.265,-2.86
21.281,-2.98
21.296,-3.05
21.312,-2.82
21.328,-2.14
21.343,-1.01
21.359,0.41
21.375,1.9
21.390,3.39
21.406,4.98
21.421,6.85
21.437,9.11
21.453,11.54
21.468,13.79
21.484,15.5
21.500,16.5
21.515,16.97
21.531,17.32
21.546,17.98
21.562,19.22
21.578,21.05
21.593,23.24
21.609,25.53
21.625,27.69
21.640,29.68
21.656,31.42
21.671,33.04
21.687,34.56
21.703,36.04
21.718,37.55
21.734,39.12
21.750,40.81
21.765,42.48
21.781,44.09
21.796,45.48
21.812,46.63
21.828,47.55
21.843,48.27
21.859,48.8
21.875,49.19
21.890,49.49
21.906,49.67
21.921,49.65
21.937,49.35
21.953,48.58
21.968,47.18
21.984,44.98
22.000,41.93
22.015,38.08
22.031,33.61
22.046,28.78
22.062,23.87
22.078,19.11
22.093,14.67
22.109,10.5
22.125,6.38
22.140,2.04
22.156,-2.76
22.171,-7.95
22.187,-13.38
22.203,-18.64
22.218,-23.45
22.234,-27.67
22.250,-31.24
22.265,-34.27
22.281,-36.78
22.296,-38.81
22.312,-40.28
22.328,-41.13
22.343,-41.34
22.359,-41.08
22.375,-40.59
22.390,-40.09
22.406,-39.79
22.421,-39.72
22.437,-39.86
22.453,-40.07
22.468,-40.18
22.484,-40.11
22.500,-39.92
22.515,-39.71
22.531,-39.54
22.546,-39.45
22.562,-39.36
22.578,-39.27
22.593,-39.12
22.609,-38.95
22.625,-38.88
22.640,-39.02
22.656,-39.37
22.671,-39.75
22.687,-39.82
22.703,-39.08
22.718,-37.3
22.734,-34.48
22.750,-30.88
22.765,-26.99
22.781,-23.18
22.796,-19.72
22.812,-16.63
22.828,-13.85
22.843,-11.3
22.859,-9.07
22.875,-7.29
22.890,-6.11
22.906,-5.59
22.921,-5.54
22.937,-5.76
22.953,-5.98
22.968,-6.07
22.984,-5.96
23.000,-5.68
23.015,-5.35
23.031,-5.07
23.046,-4.88
23.062,-4.76
23.078,-4.69
23.093,-4.65
23.109,-4.6
23.125,-4.62
23.140,-4.76
23.156,-5.09
23.171,-5.59
23.187,-6.2
23.203,-6.83
23.218,-7.45
23.234,-8.06
23.250,-8.66
23.265,-9.44
23.281,-10.44
23.296,-11.73
23.312,-13.24
23.328,-14.85
23.343,-16.42
23.359,-17.85
23.375,-19.09
23.390,-20.07
23.406,-20.75
23.421,-20.9
23.437,-20.29
23.453,-18.71
23.468,-16.14
23.484,-12.85
23.500,-9.33
23.515,-6.07
23.531,-3.38
23.546,-1.31
23.562,0.36
23.578,1.86
23.593,3.28
23.609,4.65
23.625,5.82
23.640,6.65
23.656,7.13
23.671,7.35
23.687,7.44
23.703,7.54
23.718,7.7
23.734,7.81
23.750,7.86
23.765,7.76
23.781,7.49
23.796,7.06
23.812,6.5
23.828,5.87
23.843,5.22
23.859,4.64
23.875,4.06
23.890,3.49
23.906,2.83
23.921,2.05
23.937,1.16
23.953,0.19
23.968,-0.81
23.984,-1.78
24.000,-2.73
24.015,-3.81
24.031,-5.05
24.046,-6.49
24.062,-8.09
24.078,-9.75
24.093,-11.38
24.109,-13.01
24.125,-14.58
24.140,-16.08
24.156,-17.49
24.171,-18.59
24.187,-19.08
24.203,-18.75
24.218,-17.53
24.234,-15.53
24.250,-13.1
24.265,-10.5
24.281,-7.98
24.296,-5.67
24.312,-3.48
24.328,-1.23
24.343,1.16
24.359,3.6
24.375,5.88
24.390,7.76
24.406,9.08
24.421,9.86
24.437,10.19
24.453,10.28
24.468,10.3
24.484,10.28
24.500,10.26
24.515,10.14
24.531,9.87
24.546,9.46
24.562,9.07
24.578,8.74
24.593,8.53
24.609,8.3
24.625,7.86
24.640,7.09
24.656,5.97
24.671,4.62
24.687,3.26
24.703,2.13
24.718,1.31
24.734,0.66
24.750,-0.09
24.765,-1.19
24.781,-2.65
24.796,-4.33
24.812,-6.01
24.828,-7.41
24.843,-8.4
24.859,-9.04
24.875,-9.53
24.890,-10.23
24.906,-11.45
24.921,-13.25
24.937,-15.46
24.953,-17.7
24.968,-19.47
24.984,-20.33
25.000,-20.0
25.015,-18.44
25.031,-15.91
25.046,-12.74
25.062,-9.29
25.078,-5.83
25.093,-2.56
25.109,0.36
25.125,2.85
25.140,4.89
25.156,6.51
25.171,7.81
25.187,8.96
25.203,10.07
25.218,11.16
25.234,12.19
25.250,13.13
25.265,13.79
25.281,14.14
25.296,14.14
25.312,13.78
25.328,13.18
25.343,12.41
25.359,11.56
25.375,10.67
25.390,9.86
25.406,9.14
25.421,8.6
25.437,8.33
25.453,8.33
25.468,8.55
25.484,8.81
25.500,8.91
25.515,8.71
25.531,8.13
25.546,7.15
25.562,5.81
25.578,4.2
25.593,2.38
25.609,0.47
25.625,-1.41
25.640,-3.08
25.656,-4.44
25.671,-5.45
25.687,-6.19
25.703,-6.87
25.718,-7.7
25.734,-9.0
25.750,-10.84
25.765,-13.16
25.781,-15.68
25.796,-17.9
25.812,-19.4
25.828,-19.77
25.843,-18.9
25.859,-16.87
25.875,-14.05
25.890,-10.79
25.906,-7.41
25.921,-4.11
25.937,-0.95
25.953,2.02
25.968,4.74
25.984,7.11
26.000,9.05
26.015,10.44
26.031,11.35
26.046,11.95
26.062,12.43
26.078,13.0
26.093,13.61
26.109,14.12
26.125,14.32
26.140,14.07
26.156,13.33
26.171,12.33
26.187,11.4
26.203,10.74
26.218,10.47
26.234,10.45
26.250,10.38
26.265,10.04
26.281,9.37
26.296,8.38
26.312,7.21
26.328,6.03
26.343,4.87
26.359,3.76
26.375,2.66
26.390,1.52
26.406,0.29
26.421,-1.03
26.437,-2.42
26.453,-3.78
26.468,-5.01
26.484,-6.16
26.500,-7.12
26.515,-8.02
26.531,-8.93
26.546,-9.88
26.562,-10.87
26.578,-11.87
26.593,-12.8
26.609,-13.66
26.625,-14.6
26.640,-15.66
26.656,-16.87
26.671,-17.95
26.687,-18.51
26.703,-18.16
26.718,-16.72
26.734,-14.22
26.750,-10.96
26.765,-7.44
26.781,-4.08
26.796,-1.12
26.812,1.44
26.828,3.7
26.843,5.69
26.859,7.35
26.875,8.63
26.890,9.41
26.906,9.69
26.921,9.59
26.937,9.27
26.953,9.0
26.968,9.11
26.984,9.66
27.000,10.62
27.015,11.95
27.031,13.39
27.046,14.86
27.062,16.33
27.078,17.69
27.093,18.91
27.109,19.83
27.125,20.33
27.140,20.23
27.156,19.52
27.171,18.3
27.187,16.76
27.203,15.19
27.218,13.74
27.234,12.44
27.250,11.15
27.265,9.81
27.281,8.26
27.296,6.45
27.312,4.41
27.328,2.21
27.343,-0.01
27.359,-2.26
27.375,-4.46
27.390,-6.56
27.406,-8.47
27.421,-10.11
27.437,-11.49
27.453,-12.66
27.468,-13.74
27.484,-14.74
27.500,-15.73
27.515,-16.6
27.531,-17.11
27.546,-17.03
27.562,-16.06
27.578,-14.1
27.593,-11.15
27.609,-7.55
27.625,-3.63
27.640,0.19
27.656,3.66
27.671,6.71
27.687,9.43
27.703,11.92
27.718,14.23
27.734,16.18
27.750,17.58
27.765,18.16
27.781,17.99
27.796,17.24
27.812,16.26
27.828,15.38
27.843,14.84
27.859,14.65
27.875,14.67
27.890,14.71
27.906,14.61
27.921,14.4
27.937,14.16
27.953,14.0
27.968,13.92
27.984,13.85
28.000,13.6
28.015,13.03
28.031,12.11
28.046,10.96
28.062,9.84
28.078,9.0
28.093,8.56
28.109,8.43
28.125,8.32
28.140,7.9
28.156,6.98
28.171,5.59
28.187,3.92
28.203,2.31
28.218,0.97
28.234,-0.16
28.250,-1.15
28.265,-2.31
28.281,-3.83
28.296,-5.75
28.312,-7.98
28.328,-10.39
28.343,-12.77
28.359,-14.89
28.375,-16.55
28.390,-17.44
28.406,-17.27
28.421,-15.88
28.437,-13.3
28.453,-9.76
28.468,-5.81
28.484,-1.99
28.500,1.23
28.515,3.58
28.531,5.17
28.546,6.28
28.562,7.23
28.578,8.27
28.593,9.46
28.609,10.69
28.625,11.84
28.640,12.82
28.656,13.53
28.671,14.14
28.687,14.66
28.703,15.08
28.718,15.41
28.734,15.62
28.750,15.75
28.765,15.76
28.781,15.66
28.796,15.38
28.812,14.91
28.828,14.22
28.843,13.27
28.859,12.12
28.875,10.75
28.890,9.11
28.906,7.26
28.921,5.2
28.937,3.09
28.953,1.13
28.968,-0.52
28.984,-1.83
29.000,-2.86
29.015,-3.8
29.031,-4.81
29.046,-5.83
29.062,-6.79
29.078,-7.66
29.093,-8.5
29.109,-9.53
29.125,-10.91
29.140,-12.71
29.156,-14.79
29.171,-16.76
29.187,-18.04
29.203,-18.22
29.218,-17.15
29.234,-14.99
29.250,-12.16
29.265,-9.08
29.281,-6.14
29.296,-3.52
29.312,-1.22
29.328,0.94
29.343,3.05
29.359,5.18
29.375,7.28
29.390,9.13
29.406,10.66
29.421,11.74
29.437,12.44
29.453,12.8
29.468,12.96
29.484,12.95
29.500,12.75
29.515,12.42
29.531,11.82
29.546,11.03
29.562,10.09
29.578,9.13
29.593,8.19
29.609,7.21
29.625,6.07
29.640,4.6
29.656,2.77
29.671,0.54
29.687,-1.88
29.703,-4.39
29.718,-6.83
29.734,-9.14
29.750,-11.33
29.765,-13.46
29.781,-15.49
29.796,-17.38
29.812,-19.06
29.828,-20.4
29.843,-21.37
29.859,-22.04
29.875,-22.55
29.890,-23.21
29.906,-24.17
29.921,-25.4
29.937,-26.62
29.953,-27.42
29.968,-27.36
29.984,-26.24
30.000,-24.19
30.015,-21.44
30.031,-18.38
30.046,-15.17
30.062,-11.83
30.078,-8.33
30.093,-4.66
30.109,-1.07
30.125,2.11
30.140,4.51
30.156,5.99
30.171,6.59
30.187,6.61
30.203,6.41
30.218,6.22
30.234,6.21
30.250,6.44
30.265,6.86
30.281,7.39
30.296,8.05
30.312,8.81
30.328,9.63
30.343,10.51
30.359,11.33
30.375,11.98
30.390,12.39
30.406,12.47
30.421,12.25
30.437,11.74
30.453,11.08
30.468,10.31
30.484,9.51
30.500,8.62
30.515,7.54
30.531,6.28
30.546,4.87
30.562,3.43
30.578,2.08
30.593,0.95
30.609,-0.05
30.625,-1.02
30.640,-2.18
30.656,-3.6
30.671,-5.13
30.687,-6.52
30.703,-7.57
30.718,-8.33
30.734,-9.15
30.750,-10.45
30.765,-12.43
30.781,-15.11
30.796,-18.06
30.812,-20.59
30.828,-22.09
30.843,-22.18
30.859,-20.78
30.875,-18.21
30.890,-14.95
30.906,-11.36
30.921,-7.69
30.937,-4.08
30.953,-0.47
30.968,2.99
30.984,6.13
31.000,8.8
31.015,10.84
31.031,12.23
31.046,13.17
31.062,13.88
31.078,14.52
31.093,15.25
31.109,15.94
31.125,16.5
31.140,16.87
31.156,17.03
31.171,17.05
31.187,17.08
31.203,17.25
31.218,17.59
31.234,18.09
31.250,18.53
31.265,18.76
31.281,18.66
31.296,18.15
31.312,17.23
31.328,16.02
31.343,14.55
31.359,12.89
31.375,11.14
31.390,9.29
31.406,7.47
31.421,5.75
31.437,4.15
31.453,2.71
31.468,1.46
31.484,0.26
31.500,-0.94
31.515,-2.21
31.531,-3.61
31.546,-5.06
31.562,-6.46
31.578,-7.88
31.593,-9.42
31.609,-11.23
31.625,-13.51
31.640,-16.28
31.656,-19.36
31.671,-22.36
31.687,-24.67
31.703,-25.74
31.718,-25.26
31.734,-23.19
31.750,-19.74
31.765,-15.47
31.781,-10.97
31.796,-6.72
31.812,-2.97
31.828,0.26
31.843,3.14
31.859,5.8
31.875,8.23
31.890,10.42
31.906,12.22
31.921,13.58
31.937,14.59
31.953,15.39
31.968,16.15
31.984,16.94
32.000,17.64
32.015,18.11
32.031,18.17
32.046,17.82
32.062,17.2
32.078,16.59
32.093,16.24
32.109,16.23
32.125,16.48
32.140,16.73
32.156,16.75
32.171,16.37
32.187,15.66
32.203,14.8
32.218,13.99
32.234,13.33
32.250,12.77
32.265,12.09
32.281,11.09
32.296,9.66
32.312,7.85
32.328,5.84
32.343,3.84
32.359,1.92
32.375,0.06
32.390,-1.84
32.406,-3.84
32.421,-5.92
32.437,-7.93
32.453,-9.66
32.468,-10.98
32.484,-11.83
32.500,-12.28
32.515,-12.41
32.531,-12.15
32.546,-11.39
32.562,-9.8
32.578,-7.19
32.593,-3.49
32.609,1.0
32.625,5.8
32.640,10.3
32.656,14.02
32.671,16.76
32.687,18.59
32.703,19.88
32.718,20.87
32.734,21.73
32.750,22.48
32.765,23.02
32.781,23.24
32.796,23.17
32.812,22.95
32.828,22.75
32.843,22.83
32.859,23.3
32.875,24.1
32.890,25.2
32.906,26.55
32.921,28.2
32.937,30.34
32.953,33.17
32.968,36.72
32.984,40.76
33.000,44.99
33.015,48.92
33.031,52.31
33.046,55.04
33.062,57.26
33.078,59.12
33.093,60.81
33.109,62.37
33.125,63.49
33.140,63.96
33.156,63.44
33.171,61.84
33.187,59.12
33.203,55.5
33.218,51.12
33.234,46.05
33.250,40.28
33.265,33.71
33.281,26.36
33.296,18.39
33.312,10.09
33.328,1.75
33.343,-6.38
33.359,-14.1
33.375,-21.31
33.390,-27.81
33.406,-33.33
33.421,-37.53
33.437,-40.19
33.453,-41.29
33.468,-41.08
33.484,-40.06
33.500,-38.75
33.515,-37.55
33.531,-36.69
33.546,-36.19
33.562,-35.81
33.578,-35.39
33.593,-34.87
33.609,-34.23
33.625,-33.67
33.640,-33.36
33.656,-33.29
33.671,-33.35
33.687,-33.33
33.703,-32.97
33.718,-32.18
33.734,-31.17
33.750,-30.21
33.765,-29.71
33.781,-30.03
33.796,-31.25
33.812,-33.2
33.828,-35.58
33.843,-37.95
33.859,-40.02
33.875,-41.57
33.890,-42.56
33.906,-43.18
33.921,-43.59
33.937,-43.97
33.953,-44.32
33.968,-44.64
33.984,-44.89
34.000,-45.11
34.015,-45.36
34.031,-45.65
34.046,-46.04
34.062,-46.46
34.078,-46.83
34.093,-47.02
34.109,-46.98
34.125,-46.71
34.140,-46.3
34.156,-45.74
34.171,-44.87
34.187,-43.3
34.203,-40.68
34.218,-36.84
34.234,-31.75
34.250,-25.87
34.265,-19.72
34.281,-13.82
34.296,-8.56
34.312,-4.01
34.328,-0.01
34.343,3.64
34.359,6.94
34.375,9.86
34.390,12.3
34.406,14.04
34.421,15.16
34.437,15.71
34.453,15.86
34.468,15.76
34.484,15.56
34.500,15.26
34.515,14.84
34.531,14.31
34.546,13.61
34.562,12.88
34.578,12.19
34.593,11.57
34.609,10.94
34.625,10.22
34.640,9.29
34.656,8.1
34.671,6.56
34.687,4.77
34.703,2.93
34.718,1.16
34.734,-0.52
34.750,-2.13
34.765,-3.78
34.781,-5.53
34.796,-7.33
34.812,-9.14
34.828,-10.88
34.843,-12.5
34.859,-13.98
34.875,-15.41
34.890,-16.78
34.906,-18.15
34.921,-19.48
34.937,-20.64
34.953,-21.51
34.968,-21.97
34.984,-21.94
35.000,-21.3
35.015,-20.02
35.031,-18.11
35.046,-15.68
35.062,-12.93
35.078,-10.08
35.093,-7.3
35.109,-4.76
35.125,-2.55
35.140,-0.68
35.156,0.87
35.171,2.17
35.187,3.3
35.203,4.37
35.218,5.5
35.234,6.82
35.250,8.34
35.265,10.11
35.281,12.04
35.296,14.0
35.312,15.9
35.328,17.64
35.343,19.02
35.359,19.92
35.375,20.24
35.390,19.88
35.406,18.94
35.421,17.63
35.437,16.27
35.453,15.22
35.468,14.85
35.484,15.16
35.500,16.0
35.515,17.05
35.531,17.87
35.546,18.19
35.562,17.8
35.578,16.72
35.593,15.11
35.609,13.18
35.625,11.09
35.640,8.99
35.656,6.96
35.671,5.0
35.687,3.14
35.703,1.32
35.718,-0.47
35.734,-2.16
35.750,-3.67
35.765,-4.81
35.781,-5.38
35.796,-5.3
35.812,-4.64
35.828,-3.55
35.843,-2.27
35.859,-0.96
35.875,0.35
35.890,1.68
35.906,3.08
35.921,4.52
35.937,5.97
35.953,7.26
35.968,8.43
35.984,9.54
36.000,10.66
36.015,11.72
36.031,12.61
36.046,13.24
36.062,13.57
36.078,13.77
36.093,14.07
36.109,14.69
36.125,15.65
36.140,16.81
36.156,17.83
36.171,18.46
36.187,18.59
36.203,18.32
36.218,17.77
36.234,17.1
36.250,16.31
36.265,15.26
36.281,13.93
36.296,12.32
36.312,10.61
36.328,8.99
36.343,7.67
36.359,6.68
36.375,5.97
36.390,5.41
36.406,4.93
36.421,4.48
36.437,4.1
36.453,3.78
36.468,3.45
36.484,3.09
36.500,2.59
36.515,1.88
36.531,0.85
36.546,-0.48
36.562,-1.94
36.578,-3.28
36.593,-4.16
36.609,-4.36
36.625,-3.81
36.640,-2.65
36.656,-1.21
36.671,0.22
36.687,1.49
36.703,2.62
36.718,3.69
36.734,4.75
36.750,5.72
36.765,6.41
36.781,6.72
36.796,6.6
36.812,6.23
36.828,5.76
36.843,5.38
36.859,5.12
36.875,4.84
36.890,4.41
36.906,3.71
36.921,2.71
36.937,1.54
36.953,0.4
36.968,-0.63
36.984,-1.48
37.000,-2.16
37.015,-2.75
37.031,-3.29
37.046,-3.78
37.062,-4.15
37.078,-4.32
37.093,-4.13
37.109,-3.61
37.125,-2.84
37.140,-2.03
37.156,-1.47
37.171,-1.37
37.187,-1.87
37.203,-2.96
37.218,-4.66
37.234,-6.79
37.250,-9.24
37.265,-11.79
37.281,-14.09
37.296,-15.79
37.312,-16.54
37.328,-16.18
37.343,-14.8
37.359,-12.77
37.375,-10.43
37.390,-8.12
37.406,-5.98
37.421,-4.0
37.437,-2.12
37.453,-0.18
37.468,1.8
37.484,3.74
37.500,5.44
37.515,6.71
37.531,7.43
37.546,7.69
37.562,7.68
37.578,7.61
37.593,7.7
37.609,7.91
37.625,8.1
37.640,8.06
37.656,7.65
37.671,6.91
37.687,6.07
37.703,5.5
37.718,5.41
37.734,5.82
37.750,6.48
37.765,7.0
37.781,7.03
37.796,6.37
37.812,5.07
37.828,3.38
37.843,1.68
37.859,0.17
37.875,-1.09
37.890,-2.22
37.906,-3.28
37.921,-4.29
37.937,-5.2
37.953,-5.81
37.968,-6.02
37.984,-5.81
38.000,-5.2
38.015,-4.34
38.031,-3.35
38.046,-2.27
38.062,-0.97
38.078,0.6
38.093,2.57
38.109,4.87
38.125,7.31
38.140,9.68
38.156,11.82
38.171,13.61
38.187,15.14
38.203,16.54
38.218,17.99
38.234,19.7
38.250,21.67
38.265,23.93
38.281,26.59
38.296,29.62
38.312,32.91
38.328,36.25
38.343,39.41
38.359,42.37
38.375,45.19
38.390,47.98
38.406,50.89
38.421,54.4
38.437,58.58
38.453,63.12
38.468,67.37
38.484,70.76
38.500,73.2
38.515,75.1
38.531,77.19
38.546,80.33
38.562,85.8
38.578,93.94
38.593,103.83
38.609,113.73
38.625,121.87
38.640,127.27
38.656,129.94
38.671,130.62
38.687,130.38
38.703,131.3
38.718,134.36
38.734,139.05
38.750,143.73
38.765,146.55
38.781,146.48
38.796,143.34
38.812,137.89
38.828,131.16
38.843,125.61
38.859,122.43
38.875,120.82
38.890,118.15
38.906,110.97
38.921,96.21
38.937,71.62
38.953,36.49
38.968,-16.99
38.984,-87.15
39.000,-162.9
39.015,-228.02
39.031,-269.9
39.046,-285.1
39.062,-277.93
39.078,-256.3
39.093,-227.48
39.109,-196.61
39.125,-165.35
39.140,-135.04
39.156,-108.22
39.171,-88.14
39.187,-77.48
39.203,-75.94
39.218,-82.48
39.234,-94.57
39.250,-108.87
39.265,-121.1
39.281,-127.69
39.296,-127.68
39.312,-121.81
39.328,-111.64
39.343,-98.1
39.359,-81.61
39.375,-62.15
39.390,-39.54
39.406,-13.54
39.421,15.13
39.437,44.43
39.453,71.94
39.468,94.9
39.484,112.42
39.500,123.69
39.515,128.75
39.531,128.15
39.546,122.83
39.562,113.51
39.578,100.62
39.593,84.74
39.609,65.51
39.625,43.4
39.640,19.37
39.656,-4.95
39.671,-27.71
39.687,-47.18
39.703,-61.97
39.718,-71.07
39.734,-73.86
39.750,-72.13
39.765,-67.54
39.781,-61.68
39.796,-55.63
39.812,-50.13
39.828,-45.93
39.843,-43.68
39.859,-44.28
39.875,-43.67
39.890,-42.96
39.906,-44.0
39.921,-48.49
39.937,-57.33
39.953,-70.28
39.968,-86.31
39.984,-103.52
40.000,-119.48
40.015,-131.64
40.031,-141.13
40.046,-149.35
40.062,-157.63
40.078,-166.88
40.093,-177.71
40.109,-191.48
40.125,-210.24
40.140,-236.13
40.156,-255.59
40.171,-258.72
40.187,-240.17
40.203,-200.83
40.218,-146.08
40.234,-83.06
40.250,-20.48
40.265,32.66
40.281,69.27
40.296,86.98
40.312,86.29
40.328,72.04
40.343,51.44
40.359,29.75
40.375,11.54
40.390,-0.67
40.406,-5.61
40.421,-2.58
40.437,8.5
40.453,24.77
40.468,42.26
40.484,57.5
40.500,68.6
40.515,76.52
40.531,84.66
40.546,97.53
40.562,117.96
40.578,145.2
40.593,172.96
40.609,192.02
40.625,193.59
40.640,171.77
40.656,125.75
40.671,59.34
40.687,-20.22
40.703,-103.15
40.718,-178.44
40.734,-235.87
40.750,-267.44
40.765,-269.31
40.781,-243.22
40.796,-195.65
40.812,-135.43
40.828,-70.63
40.843,-6.29
40.859,56.09
40.875,117.03
40.890,177.57
40.906,238.09
40.921,297.54
40.937,353.24
40.953,400.68
40.968,433.47
40.984,444.97
41.000,430.7
41.015,390.81
41.031,331.22
41.046,262.02
41.062,194.2
41.078,135.95
41.093,90.72
41.109,57.46
41.125,33.29
41.140,15.83
41.156,4.26
41.171,-1.05
41.187,-0.06
41.203,6.01
41.218,14.7
41.234,23.47
41.250,30.63
41.265,36.07
41.281,40.6
41.296,44.95
41.312,49.29
41.328,53.11
41.343,55.98
41.359,57.66
41.375,58.4
41.390,58.26
41.406,56.84
41.421,52.73
41.437,43.26
41.453,24.74
41.468,-7.28
41.484,-56.66
41.500,-124.83
41.515,-209.05
41.531,-301.62
41.546,-390.83
41.562,-464.0
41.578,-511.6
41.593,-530.14
41.609,-523.2
41.625,-499.29
41.640,-468.28
41.656,-437.75
41.671,-411.55
41.687,-390.19
41.703,-372.47
41.718,-357.27
41.734,-344.04
41.750,-332.41
41.765,-321.39
41.781,-309.49
41.796,-294.97
41.812,-276.68
41.828,-254.41
41.843,-228.67
41.859,-200.35
41.875,-170.0
41.890,-137.46
41.906,-101.87
41.921,-62.24
41.937,-18.08
41.953,30.44
41.968,82.27
41.984,135.82
42.000,189.38
42.015,241.87
42.031,292.95
42.046,342.98
42.062,392.26
42.078,439.74
42.093,482.3
42.109,514.47
42.125,529.84
42.140,522.99
42.156,492.22
42.171,440.93
42.187,377.34
42.203,312.05
42.218,254.39
42.234,209.1
42.250,174.94
42.265,146.46
42.281,117.24
42.296,82.85
42.312,42.51
42.328,-0.93
42.343,-42.52
42.359,-77.57
42.375,-103.21
42.390,-118.79
42.406,-125.47
42.421,-124.98
42.437,-120.8
42.453,-117.77
42.468,-120.39
42.484,-129.98
42.500,-143.0
42.515,-151.02
42.531,-143.34
42.546,-111.24
42.562,-50.89
42.578,32.88
42.593,128.16
42.609,220.43
42.625,297.95
42.640,354.48
42.656,389.19
42.671,404.52
42.687,403.72
42.703,390.82
42.718,367.72
42.734,334.76
42.750,292.3
42.765,241.84
42.781,185.82
42.796,126.69
42.812,66.48
42.828,-1.5
42.843,-73.58
42.859,-138.59
42.875,-184.71
42.890,-206.27
42.906,-204.99
42.921,-186.51
42.937,-157.47
42.953,-123.98
42.968,-91.45
42.984,-62.56
43.000,-38.62
43.015,-21.15
43.031,-10.88
43.046,-6.89
43.062,-7.35
43.078,-10.64
43.093,-15.95
43.109,-23.73
43.125,-33.42
43.140,-44.92
43.156,-59.26
43.171,-78.07
43.187,-102.99
43.203,-134.95
43.218,-173.41
43.234,-214.82
43.250,-252.97
43.265,-279.25
43.281,-286.25
43.296,-270.92
43.312,-235.11
43.328,-184.33
43.343,-125.35
43.359,-64.92
43.375,-8.91
43.390,36.26
43.406,64.46
43.421,70.95
43.437,54.97
43.453,21.85
43.468,-17.0
43.484,-46.75
43.500,-55.08
43.515,-32.68
43.531,17.57
43.546,78.54
43.562,126.89
43.578,146.51
43.593,134.77
43.609,99.58
43.625,52.85
43.640,4.16
43.656,-40.82
43.671,-81.03
43.687,-115.11
43.703,-139.79
43.718,-151.2
43.734,-147.84
43.750,-132.53
43.765,-106.25
43.781,-77.95
43.796,-56.09
43.812,-43.48
43.828,-35.98
43.843,-25.77
43.859,-6.62
43.875,21.89
43.890,54.22
43.906,83.65
43.921,105.39
43.937,118.75
43.953,126.43
43.968,131.72
43.984,136.45
44.000,139.73
44.015,138.71
44.031,130.58
44.046,115.02
44.062,94.21
44.078,70.34
44.093,48.09
44.109,30.6
44.125,18.26
44.140,8.75
44.156,-1.51
44.171,-15.08
44.187,-31.83
44.203,-49.4
44.218,-64.63
44.234,-74.78
44.250,-80.08
44.265,-82.61
44.281,-82.36
44.296,-78.74
44.312,-71.22
44.328,-59.09
44.343,-41.16
44.359,-16.45
44.375,14.67
44.390,51.12
44.406,90.39
44.421,128.49
44.437,162.44
44.453,190.13
44.468,207.72
44.484,212.61
44.500,202.88
44.515,178.11
44.531,133.89
44.546,75.78
44.562,17.31
44.578,-26.41
44.593,-49.44
44.609,-54.96
44.625,-50.88
44.640,-46.89
44.656,-45.03
44.671,-46.03
44.687,-49.05
44.703,-55.33
44.718,-66.7
44.734,-88.39
44.750,-120.27
44.765,-159.2
44.781,-197.44
44.796,-217.46
44.812,-206.68
44.828,-161.58
44.843,-104.19
44.859,-48.13
44.875,-3.32
44.890,29.12
44.906,49.36
44.921,60.92
44.937,68.4
44.953,73.38
44.968,77.52
44.984,79.6
45.000,78.67
45.015,71.21
45.031,56.71
45.046,41.73
45.062,37.64
45.078,53.99
45.093,85.65
45.109,128.94
45.125,179.62
45.140,236.71
45.156,294.14
45.171,346.44
45.187,388.63
45.203,417.01
45.218,427.2
45.234,408.01
45.250,357.38
45.265,283.26
45.281,201.52
45.296,124.42
45.312,60.62
45.328,6.53
45.343,-40.42
45.359,-82.71
45.375,-123.41
45.390,-164.18
45.406,-208.49
45.421,-247.54
45.437,-279.87
45.453,-305.23
45.468,-324.5
45.484,-338.56
45.500,-350.04
45.515,-361.68
45.531,-374.58
45.546,-390.6
45.562,-412.03
45.578,-442.83
45.593,-483.22
45.609,-528.75
45.625,-570.79
45.640,-600.51
45.656,-610.82
45.671,-597.75
45.687,-562.68
45.703,-510.74
45.718,-449.64
45.734,-384.5
45.750,-317.02
45.765,-246.74
45.781,-173.55
45.796,-97.3
45.812,-17.5
45.828,65.52
45.843,150.76
45.859,235.29
45.875,316.32
45.890,391.03
45.906,456.51
45.921,501.22
45.937,512.29
45.953,484.99
45.968,426.66
45.984,351.49
46.000,271.44
46.015,193.77
46.031,121.96
46.046,57.13
46.062,-0.68
46.078,-50.47
46.093,-90.55
46.109,-121.71
46.125,-144.35
46.140,-159.78
46.156,-169.49
46.171,-174.71
46.187,-176.47
46.203,-175.8
46.218,-172.8
46.234,-166.99
46.250,-158.23
46.265,-146.91
46.281,-133.67
46.296,-119.74
46.312,-105.91
46.328,-92.23
46.343,-78.25
46.359,-62.83
46.375,-44.85
46.390,-24.29
46.406,-2.5
46.421,17.85
46.437,33.77
46.453,42.75
46.468,43.29
46.484,35.02
46.500,19.18
46.515,-1.66
46.531,-24.41
46.546,-46.08
46.562,-64.12
46.578,-76.7
46.593,-82.69
46.609,-81.82
46.625,-74.84
46.640,-63.02
46.656,-47.94
46.671,-31.44
46.687,-15.44
46.703,-1.37
46.718,9.99
46.734,18.62
46.750,25.24
46.765,30.86
46.781,36.62
46.796,43.6
46.812,52.35
46.828,62.52
46.843,73.28
46.859,83.4
46.875,91.8
46.890,97.9
46.906,101.76
46.921,103.96
46.937,105.44
46.953,106.95
46.968,108.74
46.984,110.48
47.000,111.28
47.015,110.15
47.031,106.59
47.046,100.78
47.062,93.84
47.078,87.67
47.093,84.6
47.109,86.68
47.125,94.95
47.140,108.58
47.156,124.97
47.171,140.57
47.187,151.87
47.203,156.94
47.218,155.89
47.234,150.82
47.250,144.94
47.265,141.49
47.281,142.71
47.296,149.43
47.312,161.04
47.328,175.75
47.343,191.29
47.359,205.51
47.375,216.86
47.390,224.38
47.406,227.23
47.421,224.22
47.437,213.67
47.453,193.79
47.468,163.57
47.484,124.07
47.500,79.02
47.515,34.54
47.531,-2.48
47.546,-26.01
47.562,-32.47
47.578,-21.31
47.593,5.15
47.609,41.98
47.625,82.15
47.640,117.15
47.656,138.07
47.671,137.27
47.687,110.53
47.703,58.58
47.718,-13.21
47.734,-96.28
47.750,-181.04
47.765,-258.63
47.781,-321.7
47.796,-364.47
47.812,-382.83
47.828,-374.74
47.843,-341.81
47.859,-290.18
47.875,-229.48
47.890,-169.79
47.906,-118.46
47.921,-77.5
47.937,-44.13
47.953,-13.42
47.968,19.39
47.984,54.91
48.000,89.19
48.015,116.02
48.031,130.74
48.046,133.08
48.062,129.12
48.078,128.8
48.093,141.95
48.109,176.31
48.125,232.42
48.140,303.48
48.156,378.55
48.171,447.09
48.187,500.8
48.203,536.77
48.218,555.15
48.234,557.4
48.250,548.66
48.265,533.17
48.281,513.31
48.296,490.42
48.312,465.96
48.328,440.0
48.343,414.94
48.359,393.12
48.375,375.96
48.390,367.55
48.406,368.39
48.421,373.57
48.437,375.2
48.453,365.58
48.468,338.09
48.484,294.01
48.500,239.99
48.515,158.57
48.531,48.25
48.546,-78.35
48.562,-199.4
48.578,-293.55
48.593,-338.8
48.609,-343.14
48.625,-318.49
48.640,-276.5
48.656,-227.43
48.671,-181.82
48.687,-147.37
48.703,-128.52
48.718,-128.9
48.734,-143.6
48.750,-164.98
48.765,-182.28
48.781,-190.35
48.796,-192.09
48.812,-193.6
48.828,-203.37
48.843,-230.32
48.859,-275.28
48.875,-334.16
48.890,-402.28
48.906,-470.99
48.921,-532.95
48.937,-576.23
48.953,-581.92
48.968,-540.54
48.984,-475.13
49.000,-400.16
49.015,-316.12
49.031,-228.86
49.046,-143.94
49.062,-67.54
49.078,-5.89
49.093,35.96
49.109,54.08
49.125,47.18
49.140,20.25
49.156,-21.16
49.171,-73.91
49.187,-133.66
49.203,-195.5
49.218,-254.37
49.234,-306.9
49.250,-353.25
49.265,-396.42
49.281,-437.75
49.296,-478.41
49.312,-518.07
49.328,-551.37
49.343,-569.75
49.359,-564.74
49.375,-531.98
49.390,-472.94
49.406,-393.37
49.421,-299.21
49.437,-196.92
49.453,-92.56
49.468,9.84
49.484,107.71
49.500,199.08
49.515,281.57
49.531,352.32
49.546,408.71
49.562,450.24
49.578,477.66
49.593,492.28
49.609,495.5
49.625,487.39
49.640,466.42
49.656,430.41
49.671,378.69
49.687,314.1
49.703,243.08
49.718,172.92
49.734,108.54
49.750,50.81
49.765,-2.7
49.781,-55.0
49.796,-106.88
49.812,-155.89
49.828,-197.46
49.843,-227.64
49.859,-245.3
49.875,-252.37
49.890,-252.42
49.906,-248.4
49.921,-241.48
49.937,-231.33
49.953,-217.51
49.968,-200.61
49.984,-182.53
50.000,-165.88
50.015,-152.75
50.031,-143.78
50.046,-137.84
50.062,-132.43
50.078,-124.78
50.093,-113.01
50.109,-96.78
50.125,-77.56
50.140,-58.12
50.156,-41.23
50.171,-28.57
50.187,-20.04
50.203,-13.48
50.218,-5.6
50.234,6.62
50.250,24.7
50.265,48.08
50.281,74.57
50.296,101.53
50.312,126.72
50.328,148.66
50.343,166.09
50.359,177.49
50.375,181.11
50.390,175.82
50.406,162.3
50.421,143.31
50.437,123.02
50.453,105.17
50.468,91.76
50.484,82.61
50.500,76.16
50.515,70.88
50.531,66.41
50.546,63.6
50.562,63.7
50.578,67.53
50.593,74.88
50.609,84.8
50.625,96.18
50.640,107.89
50.656,118.86
50.671,128.17
50.687,135.19
50.703,139.66
50.718,141.93
50.734,142.66
50.750,142.49
50.765,141.62
50.781,139.51
50.796,135.28
50.812,128.34
50.828,119.24
50.843,108.81
50.859,97.77
50.875,86.37
50.890,74.47
50.906,62.02
50.921,49.34
50.937,37.55
50.953,28.2
50.968,23.67
50.984,25.03
51.000,31.82
51.015,42.62
51.031,56.06
51.046,71.71
51.062,89.66
51.078,110.61
51.093,135.04
51.109,164.37
51.125,198.54
51.140,236.41
51.156,276.42
51.171,317.28
51.187,357.87
51.203,396.13
51.218,429.22
51.234,453.45
51.250,467.15
51.265,468.17
51.281,454.33
51.296,424.21
51.312,377.85
51.328,317.57
51.343,247.33
51.359,173.75
51.375,92.7
51.390,10.52
51.406,-60.83
51.421,-109.18
51.437,-128.57
51.453,-121.81
51.468,-94.42
51.484,-57.36
51.500,-19.02
51.515,15.5
51.531,45.71
51.546,71.73
51.562,90.79
51.578,101.05
51.593,101.7
51.609,93.61
51.625,75.68
51.640,48.02
51.656,11.97
51.671,-28.11
51.687,-68.11
51.703,-105.15
51.718,-137.68
51.734,-165.27
51.750,-187.6
51.765,-209.27
51.781,-234.54
51.796,-266.06
51.812,-302.89
51.828,-343.03
51.843,-385.21
51.859,-429.5
51.875,-477.06
51.890,-528.8
51.906,-590.64
51.921,-666.42
51.937,-755.84
51.953,-853.1
51.968,-949.42
51.984,-1036.3
52.000,-1107.75
52.015,-1160.7
52.031,-1158.79
52.046,-1079.44
52.062,-920.31
52.078,-704.05
52.093,-466.98
52.109,-241.58
52.125,-46.43
52.140,112.94
52.156,238.75
52.171,336.47
52.187,406.21
52.203,447.95
52.218,463.66
52.234,458.68
52.250,440.61
52.265,417.06
52.281,393.41
52.296,372.44
52.312,355.3
52.328,337.95
52.343,316.79
52.359,290.98
52.375,263.47
52.390,239.63
52.406,224.78
52.421,221.83
52.437,230.43
52.453,247.94
52.468,267.1
52.484,280.09
52.500,281.27
52.515,268.74
52.531,244.03
52.546,210.65
52.562,172.23
52.578,131.47
52.593,89.63
52.609,47.69
52.625,5.67
52.640,-36.1
52.656,-76.57
52.671,-114.49
52.687,-148.61
52.703,-177.42
52.718,-198.89
52.734,-209.92
52.750,-207.93
52.765,-192.77
52.781,-167.51
52.796,-138.19
52.812,-111.9
52.828,-94.87
52.843,-86.74
52.859,-83.8
52.875,-80.24
52.890,-71.07
52.906,-54.46
52.921,-31.72
52.937,-5.89
52.953,20.02
52.968,44.37
52.984,66.85
53.000,87.39
53.015,105.09
53.031,117.83
53.046,122.72
53.062,117.38
53.078,101.78
53.093,78.15
53.109,50.97
53.125,25.46
53.140,6.23
53.156,-4.39
53.171,-7.07
53.187,-4.95
53.203,-1.87
53.218,-0.46
53.234,-1.62
53.250,-4.14
53.265,-5.95
53.281,-4.48
53.296,2.01
53.312,14.18
53.328,31.9
53.343,52.83
53.359,74.64
53.375,93.86
53.390,106.27
53.406,103.14
53.421,79.02
53.437,35.39
53.453,-18.3
53.468,-68.77
53.484,-105.54
53.500,-124.56
53.515,-128.85
53.531,-123.47
53.546,-112.97
53.562,-99.2
53.578,-82.93
53.593,-65.88
53.609,-52.17
53.625,-47.66
53.640,-56.77
53.656,-80.64
53.671,-111.94
53.687,-140.12
53.703,-153.49
53.718,-144.35
53.734,-112.19
53.750,-63.98
53.765,-11.38
53.781,34.98
53.796,68.61
53.812,92.05
53.828,113.94
53.843,143.24
53.859,184.49
53.875,236.32
53.890,293.59
53.906,350.22
53.921,403.77
53.937,442.01
53.953,446.35
53.968,409.11
53.984,333.58
54.000,231.7
54.015,117.89
54.031,4.04
54.046,-103.29
54.062,-197.23
54.078,-282.24
54.093,-357.62
54.109,-418.34
54.125,-459.43
54.140,-477.8
54.156,-472.39
54.171,-439.65
54.187,-380.43
54.203,-300.47
54.218,-211.76
54.234,-126.91
54.250,-56.65
54.265,-7.59
54.281,20.4
54.296,33.66
54.312,42.29
54.328,53.63
54.343,69.57
54.359,85.2
54.375,94.02
54.390,90.01
54.406,70.02
54.421,33.8
54.437,-16.61
54.453,-74.81
54.468,-132.74
54.484,-180.98
54.500,-210.41
54.515,-212.12
54.531,-181.72
54.546,-118.94
54.562,-30.88
54.578,68.57
54.593,165.75
54.609,248.09
54.625,306.42
54.640,335.85
54.656,337.54
54.671,315.95
54.687,281.58
54.703,245.45
54.718,216.62
54.734,205.92
54.750,220.69
54.765,261.95
54.781,323.7
54.796,396.14
54.812,466.7
54.828,528.78
54.843,578.75
54.859,585.56
54.875,530.55
54.890,415.75
54.906,263.88
54.921,104.63
54.937,-23.77
54.953,-123.68
54.968,-202.12
54.984,-264.08
55.000,-311.26
55.015,-341.66
55.031,-351.35
55.046,-340.45
55.062,-313.66
55.078,-277.97
55.093,-242.47
55.109,-210.08
55.125,-181.59
55.140,-156.22
55.156,-129.91
55.171,-99.54
55.187,-65.39
55.203,-30.44
55.218,2.07
55.234,29.21
55.250,53.79
55.265,72.01
55.281,81.91
55.296,85.29
55.312,86.12
55.328,87.43
55.343,89.86
55.359,91.73
55.375,89.86
55.390,83.93
55.406,74.73
55.421,64.83
55.437,57.82
55.453,56.6
55.468,61.29
55.484,69.07
55.500,74.45
55.515,70.25
55.531,51.83
55.546,18.17
55.562,-26.0
55.578,-71.61
55.593,-108.82
55.609,-130.98
55.625,-136.71
55.640,-129.47
55.656,-115.48
55.671,-99.92
55.687,-85.33
55.703,-71.37
55.718,-56.62
55.734,-40.29
55.750,-23.16
55.765,-6.81
55.781,7.38
55.796,18.34
55.812,25.58
55.828,29.07
55.843,29.34
55.859,27.06
55.875,23.03
55.890,17.75
55.906,12.1
55.921,7.0
55.937,3.32
55.953,1.5
55.968,1.45
55.984,2.23
56.000,2.47
56.015,1.21
56.031,-1.51
56.046,-2.84
56.062,2.17
56.078,18.87
56.093,49.94
56.109,93.47
56.125,142.41
56.140,187.09
56.156,218.81
56.171,232.31
56.187,228.28
56.203,211.96
56.218,190.58
56.234,170.34
56.250,154.7
56.265,144.08
56.281,136.64
56.296,133.32
56.312,132.56
56.328,131.4
56.343,125.88
56.359,112.36
56.375,88.83
56.390,55.86
56.406,16.31
56.421,-25.72
56.437,-66.22
56.453,-103.1
56.468,-135.27
56.484,-162.05
56.500,-182.6
56.515,-196.22
56.531,-202.55
56.546,-202.53
56.562,-198.45
56.578,-192.69
56.593,-186.69
56.609,-178.76
56.625,-163.92
56.640,-135.62
56.656,-88.93
56.671,-23.64
56.687,54.41
56.703,134.41
56.718,204.12
56.734,253.54
56.750,278.13
56.765,279.13
56.781,261.91
56.796,233.13
56.812,198.21
56.828,160.24
56.843,120.44
56.859,79.65
56.875,39.21
56.890,1.91
56.906,-28.66
56.921,-49.51
56.937,-59.47
56.953,-59.72
56.968,-53.57
56.984,-45.36
57.000,-38.73
57.015,-36.19
57.031,-38.71
57.046,-46.41
57.062,-59.38
57.078,-77.59
57.093,-100.0
57.109,-123.61
57.125,-143.59
57.140,-154.59
57.156,-153.26
57.171,-140.12
57.187,-119.85
57.203,-99.32
57.218,-84.62
57.234,-78.61
57.250,-80.4
57.265,-86.82
57.281,-94.86
57.296,-103.59
57.312,-114.1
57.328,-127.6
57.343,-143.3
57.359,-157.23
57.375,-163.33
57.390,-156.53
57.406,-135.74
57.421,-104.91
57.437,-71.85
57.453,-44.69
57.468,-28.12
57.484,-21.51
57.500,-19.34
57.515,-14.19
57.531,-0.37
57.546,23.54
57.562,54.32
57.578,85.99
57.593,112.52
57.609,130.1
57.625,138.01
57.640,138.01
57.656,132.85
57.671,124.61
57.687,113.91
57.703,100.15
57.718,82.82
57.734,62.67
57.750,42.23
57.765,24.81
57.781,12.95
57.796,6.93
57.812,4.34
57.828,1.28
57.843,-6.23
57.859,-20.71
57.875,-42.35
57.890,-69.02
57.906,-96.98
57.921,-121.87
57.937,-140.21
57.953,-150.61
57.968,-154.64
57.984,-156.35
58.000,-160.74
58.015,-171.57
58.031,-189.58
58.046,-212.34
58.062,-235.5
58.078,-255.02
58.093,-268.88
58.109,-277.57
58.125,-283.02
58.140,-286.89
58.156,-289.43
58.171,-289.62
58.187,-286.51
58.203,-280.47
58.218,-273.51
58.234,-268.08
58.250,-265.26
58.265,-263.11
58.281,-256.76
58.296,-239.93
58.312,-207.88
58.328,-160.01
58.343,-101.05
58.359,-40.11
58.375,12.2
58.390,47.17
58.406,60.84
58.421,54.77
58.437,35.2
58.453,10.96
58.468,-9.25
58.484,-18.67
58.500,-13.27
58.515,8.21
58.531,44.53
58.546,92.42
58.562,146.53
58.578,199.81
58.593,244.85
58.609,275.59
58.625,289.36
58.640,288.01
58.656,276.82
58.671,262.04
58.687,247.75
58.703,233.93
58.718,216.61
58.734,190.62
58.750,152.76
58.765,103.65
58.781,47.91
58.796,-7.83
58.812,-57.17
58.828,-95.76
58.843,-121.52
58.859,-133.94
58.875,-132.94
58.890,-118.47
58.906,-90.94
58.921,-51.93
58.937,-4.62
58.953,46.94
58.968,98.81
58.984,147.72
59.000,190.85
59.015,225.1
59.031,246.27
59.046,249.68
59.062,232.04
59.078,193.53
59.093,139.52
59.109,79.95
59.125,26.33
59.140,-11.93
59.156,-30.49
59.171,-30.71
59.187,-17.83
59.203,1.92
59.218,23.08
59.234,41.87
59.250,55.6
59.265,61.62
59.281,57.09
59.296,39.53
59.312,7.93
59.328,-36.55
59.343,-90.25
59.359,-148.06
59.375,-204.46
59.390,-254.56
59.406,-294.8
59.421,-323.06
59.437,-338.34
59.453,-340.6
59.468,-330.56
59.484,-309.46
59.500,-279.18
59.515,-241.94
59.531,-200.08
59.546,-155.8
59.562,-110.91
59.578,-66.83
59.593,-24.65
59.609,14.5
59.625,49.45
59.640,78.79
59.656,100.96
59.671,114.47
59.687,118.48
59.703,113.31
59.718,100.83
59.734,84.74
59.750,70.3
59.765,63.04
59.781,66.81
59.796,81.85
59.812,104.04
59.828,125.92
59.843,139.63
59.859,140.13
59.875,127.3
59.890,105.86
59.906,82.87
59.921,64.53
59.937,53.74
59.953,50.01
59.968,50.83
59.984,53.95
