timestamp,value
00.000,108.68
00.015,98.31
00.031,85.51
00.046,72.25
00.062,59.87
00.078,48.95
00.093,39.42
00.109,30.83
00.125,22.51
00.140,13.83
00.156,4.37
00.171,-6.01
00.187,-16.84
00.203,-26.87
00.218,-34.11
00.234,-36.19
00.250,-31.09
00.265,-18.11
00.281,1.58
00.296,24.93
00.312,47.77
00.328,66.06
00.343,77.05
00.359,79.95
00.375,75.69
00.390,66.29
00.406,53.85
00.421,39.93
00.437,25.37
00.453,10.38
00.468,-5.18
00.484,-21.72
00.500,-39.77
00.515,-59.88
00.531,-82.29
00.546,-106.43
00.562,-130.44
00.578,-151.09
00.593,-164.29
00.609,-166.12
00.625,-154.13
00.640,-128.54
00.656,-92.55
00.671,-51.76
00.687,-12.84
00.703,18.34
00.718,38.13
00.734,45.81
00.750,43.24
00.765,33.74
00.781,20.68
00.796,6.65
00.812,-6.69
00.828,-18.16
00.843,-26.66
00.859,-31.27
00.875,-31.8
00.890,-29.37
00.906,-26.23
00.921,-24.86
00.937,-26.4
00.953,-29.59
00.968,-30.84
00.984,-25.66
01.000,-10.89
01.015,13.58
01.031,44.42
01.046,76.05
01.062,102.6
01.078,119.74
01.093,125.58
01.109,120.4
01.125,105.97
01.140,84.72
01.156,59.32
01.171,32.51
01.187,6.95
01.203,-15.12
01.218,-32.4
01.234,-44.95
01.250,-54.12
01.265,-62.06
01.281,-70.81
01.296,-81.22
01.312,-92.38
01.328,-101.56
01.343,-105.07
01.359,-99.53
01.375,-83.27
01.390,-57.1
01.406,-24.34
01.421,10.08
01.437,41.02
01.453,64.4
01.468,78.02
01.484,81.61
01.500,76.42
01.515,64.52
01.531,48.21
01.546,29.71
01.562,11.04
01.578,-6.06
01.593,-20.31
01.609,-31.09
01.625,-38.58
01.640,-43.75
01.656,-47.98
01.671,-52.49
01.687,-57.59
01.703,-62.22
01.718,-64.08
01.734,-60.34
01.750,-48.8
01.765,-28.92
01.781,-2.4
01.796,27.26
01.812,55.6
01.828,78.44
01.843,92.82
01.859,97.51
01.875,92.93
01.890,80.73
01.906,63.26
01.921,42.99
01.937,22.22
01.953,2.66
01.968,-14.55
01.984,-28.95
02.000,-40.63
02.015,-50.05
02.031,-57.86
02.046,-64.53
02.062,-69.95
02.078,-73.26
02.093,-72.8
02.109,-66.72
02.125,-53.75
02.140,-33.98
02.156,-9.21
02.171,17.29
02.187,41.64
02.203,60.34
02.218,71.14
02.234,73.34
02.250,67.75
02.265,56.14
02.281,40.84
02.296,24.21
02.312,8.28
02.328,-5.56
02.343,-16.76
02.359,-25.57
02.375,-32.88
02.390,-39.76
02.406,-47.06
02.421,-54.74
02.437,-61.62
02.453,-65.47
02.468,-63.45
02.484,-53.15
02.500,-33.61
02.515,-5.99
02.531,26.38
02.546,58.71
02.562,86.06
02.578,104.54
02.593,112.21
02.609,109.27
02.625,97.59
02.640,79.84
02.656,58.75
02.671,36.64
02.687,15.24
02.703,-4.17
02.718,-20.72
02.734,-34.1
02.750,-44.48
02.765,-52.79
02.781,-60.23
02.796,-67.72
02.812,-75.14
02.828,-80.93
02.843,-82.34
02.859,-76.32
02.875,-61.05
02.890,-36.79
02.906,-6.4
02.921,25.51
02.937,53.86
02.953,74.53
02.968,85.25
02.984,85.84
03.000,77.75
03.015,63.29
03.031,45.13
03.046,25.7
03.062,7.07
03.078,-9.2
03.093,-22.33
03.109,-32.35
03.125,-40.1
03.140,-46.92
03.156,-54.2
03.171,-62.56
03.187,-71.4
03.203,-78.57
03.218,-80.87
03.234,-75.12
03.250,-59.41
03.265,-34.24
03.281,-2.64
03.296,30.38
03.312,59.42
03.328,80.14
03.343,90.27
03.359,89.9
03.375,80.8
03.390,65.59
03.406,46.93
03.421,27.18
03.437,8.24
03.453,-8.37
03.468,-21.76
03.484,-31.87
03.500,-39.53
03.515,-46.25
03.531,-53.46
03.546,-61.73
03.562,-70.02
03.578,-75.71
03.593,-75.24
03.609,-65.51
03.625,-45.17
03.640,-15.48
03.656,19.76
03.671,55.16
03.687,85.15
03.703,105.42
03.718,113.77
03.734,110.37
03.750,97.2
03.765,77.28
03.781,53.79
03.796,29.53
03.812,6.64
03.828,-13.49
03.843,-30.13
03.859,-43.24
03.875,-53.42
03.890,-61.71
03.906,-69.26
03.921,-76.63
03.937,-83.32
03.953,-87.34
03.968,-85.83
03.984,-76.01
04.000,-56.48
04.015,-28.17
04.031,5.6
04.046,39.91
04.062,69.6
04.078,90.59
04.093,100.76
04.109,100.09
04.125,90.22
04.140,73.78
04.156,53.75
04.171,32.92
04.187,13.59
04.203,-2.69
04.218,-15.31
04.234,-24.51
04.250,-31.27
04.265,-36.96
04.281,-42.84
04.296,-49.55
04.312,-56.55
04.328,-62.01
04.343,-63.15
04.359,-57.17
04.375,-42.4
04.390,-19.31
04.406,9.26
04.421,38.67
04.437,63.75
04.453,80.42
04.468,86.71
04.484,82.95
04.500,71.19
04.515,54.24
04.531,34.78
04.546,14.91
04.562,-3.94
04.578,-20.76
04.593,-34.89
04.609,-46.05
04.625,-54.63
04.640,-61.65
04.656,-68.32
04.671,-75.32
04.687,-81.95
04.703,-85.96
04.718,-84.14
04.734,-73.51
04.750,-52.84
04.765,-23.53
04.781,10.46
04.796,43.74
04.812,71.08
04.828,88.81
04.843,95.55
04.859,92.06
04.875,80.53
04.890,63.68
04.906,44.16
04.921,24.19
04.937,5.5
04.953,-10.76
04.968,-24.11
04.984,-34.84
05.000,-43.92
05.015,-52.5
05.031,-61.29
05.046,-69.73
05.062,-75.83
05.078,-76.61
05.093,-69.14
05.109,-51.93
05.125,-25.73
05.140,6.21
05.156,39.06
05.171,67.68
05.187,87.96
05.203,97.73
05.218,96.9
05.234,87.02
05.250,70.58
05.265,50.33
05.281,28.77
05.296,7.97
05.312,-10.52
05.328,-25.84
05.343,-37.82
05.359,-47.18
05.375,-55.3
05.390,-63.74
05.406,-73.38
05.421,-83.59
05.437,-92.0
05.453,-94.85
05.468,-88.49
05.484,-70.97
05.500,-43.23
05.515,-9.22
05.531,25.33
05.546,54.65
05.562,74.68
05.578,83.76
05.593,82.55
05.609,73.03
05.625,57.63
05.640,38.73
05.656,18.49
05.671,-0.95
05.687,-17.51
05.703,-29.53
05.718,-36.4
05.734,-38.95
05.750,-39.22
05.765,-39.65
05.781,-41.7
05.796,-44.9
05.812,-46.67
05.828,-43.33
05.843,-31.73
05.859,-10.94
05.875,17.01
05.890,47.58
05.906,75.27
05.921,95.36
05.937,105.15
05.953,104.27
05.968,94.13
05.984,77.03
06.000,55.53
06.015,31.95
06.031,8.43
06.046,-13.23
06.062,-31.57
06.078,-45.86
06.093,-56.27
06.109,-63.92
06.125,-70.37
06.140,-76.74
06.156,-82.79
06.171,-86.47
06.187,-84.42
06.203,-73.16
06.218,-50.79
06.234,-18.24
06.250,20.53
06.265,59.56
06.281,92.53
06.296,114.62
06.312,123.5
06.328,119.43
06.343,104.71
06.359,82.68
06.375,56.93
06.390,30.72
06.406,6.65
06.421,-13.63
06.437,-29.53
06.453,-41.52
06.468,-50.94
06.484,-59.47
06.500,-68.43
06.515,-78.07
06.531,-87.15
06.546,-93.02
06.562,-92.34
06.578,-82.29
06.593,-61.77
06.609,-32.11
06.625,2.9
06.640,37.99
06.656,67.79
06.671,88.26
06.687,97.54
06.703,96.02
06.718,85.78
06.734,69.69
06.750,50.69
06.765,31.2
06.781,13.03
06.796,-2.7
06.812,-15.49
06.828,-25.56
06.843,-33.7
06.859,-41.07
06.875,-48.58
06.890,-56.24
06.906,-62.71
06.921,-65.35
06.937,-61.08
06.953,-47.62
06.968,-24.73
06.984,5.32
07.000,38.04
07.015,68.0
07.031,90.36
07.046,102.14
07.062,102.71
07.078,93.57
07.093,77.49
07.109,57.56
07.125,36.54
07.140,16.44
07.156,-1.4
07.171,-16.32
07.187,-28.27
07.203,-37.84
07.218,-46.12
07.234,-54.36
07.250,-63.25
07.265,-72.29
07.281,-79.4
07.296,-81.31
07.312,-74.74
07.328,-57.79
07.343,-31.16
07.359,1.7
07.375,35.44
07.390,64.38
07.406,84.1
07.421,92.46
07.437,89.69
07.453,77.73
07.468,59.34
07.484,37.36
07.500,14.39
07.515,-7.33
07.531,-25.96
07.546,-40.28
07.562,-49.99
07.578,-55.85
07.593,-59.56
07.609,-62.97
07.625,-67.14
07.640,-71.42
07.656,-73.42
07.671,-69.7
07.687,-57.21
07.703,-34.9
07.718,-4.42
07.734,29.99
07.750,62.86
07.765,89.03
07.781,105.12
07.796,110.08
07.812,104.9
07.828,91.94
07.843,73.89
07.859,53.33
07.875,32.49
07.890,13.16
07.906,-3.36
07.921,-16.3
07.937,-25.71
07.953,-32.38
07.968,-37.71
07.984,-43.05
08.000,-48.95
08.015,-54.58
08.031,-57.66
08.046,-55.27
08.062,-44.97
08.078,-26.1
08.093,-0.41
08.109,28.18
08.125,54.71
08.140,74.67
08.156,85.17
08.171,85.52
08.187,76.89
08.203,61.55
08.218,42.15
08.234,21.13
08.250,0.56
08.265,-17.95
08.281,-33.24
08.296,-44.76
08.312,-52.68
08.328,-57.93
08.343,-61.87
08.359,-65.67
08.375,-69.52
08.390,-72.13
08.406,-70.96
08.421,-63.17
08.437,-46.83
08.453,-22.09
08.468,8.46
08.484,40.39
08.500,68.63
08.515,88.87
08.531,98.62
08.546,97.42
08.562,86.59
08.578,68.56
08.593,46.3
08.609,22.7
08.625,0.32
08.640,-18.99
08.656,-34.32
08.671,-45.77
08.687,-54.38
08.703,-61.59
08.718,-68.65
08.734,-75.67
08.750,-81.35
08.765,-82.99
08.781,-77.47
08.796,-62.52
08.812,-37.95
08.828,-6.14
08.843,28.47
08.859,60.65
08.875,85.9
08.890,101.44
08.906,106.62
08.921,102.48
08.937,91.05
08.953,74.67
08.968,55.56
08.984,35.65
09.000,16.49
09.015,-0.75
09.031,-15.49
09.046,-27.78
09.062,-38.3
09.078,-48.16
09.093,-58.23
09.109,-68.52
09.125,-77.62
09.140,-82.75
09.156,-80.55
09.171,-68.36
09.187,-45.68
09.203,-14.73
09.218,19.77
09.234,52.03
09.250,76.83
09.265,90.89
09.281,93.45
09.296,85.95
09.312,71.14
09.328,52.03
09.343,31.27
09.359,10.75
09.375,-8.26
09.390,-24.92
09.406,-38.78
09.421,-49.85
09.437,-58.67
09.453,-66.27
09.468,-73.65
09.484,-81.05
09.500,-87.31
09.515,-89.81
09.531,-85.22
09.546,-70.95
09.562,-46.56
09.578,-14.43
09.593,20.61
09.609,52.73
09.625,76.93
09.640,90.32
09.656,92.66
09.671,85.8
09.687,72.66
09.703,56.17
09.718,38.59
09.734,21.44
09.750,5.72
09.765,-7.81
09.781,-18.62
09.796,-26.62
09.812,-32.37
09.828,-37.12
09.843,-42.06
09.859,-47.51
09.875,-52.13
09.890,-53.02
09.906,-46.73
09.921,-30.96
09.937,-6.02
09.953,24.8
09.968,56.01
09.984,81.73
10.000,97.57
10.015,101.74
10.031,95.12
10.046,80.39
10.062,60.83
10.078,39.35
10.093,18.09
10.109,-1.59
10.125,-18.84
10.140,-33.19
10.156,-44.6
10.171,-53.58
10.187,-61.12
10.203,-68.31
10.218,-75.56
10.234,-81.91
10.250,-84.96
10.265,-81.46
10.281,-68.76
10.296,-46.17
10.312,-15.69
10.328,18.28
10.343,50.29
10.359,75.36
10.375,90.41
10.390,94.69
10.406,89.44
10.421,77.05
10.437,60.15
10.453,41.06
10.468,21.62
10.484,3.22
10.500,-13.15
10.515,-26.91
10.531,-38.06
10.546,-47.26
10.562,-55.6
10.578,-64.04
10.593,-72.6
10.609,-79.85
10.625,-82.98
10.640,-78.71
10.656,-64.66
10.671,-40.63
10.687,-9.1
10.703,25.29
10.718,57.11
10.734,81.65
10.750,96.09
10.765,99.86
10.781,94.27
10.796,81.7
10.812,64.88
10.828,46.28
10.843,27.98
10.859,11.5
10.875,-2.18
10.890,-12.77
10.906,-20.66
10.921,-26.86
10.937,-32.62
10.953,-38.66
10.968,-44.47
10.984,-48.03
11.000,-46.21
11.015,-36.04
11.031,-16.08
11.046,12.52
11.062,46.0
11.078,78.92
11.093,105.77
11.109,122.5
11.125,127.25
11.140,120.5
11.156,104.25
11.171,81.21
11.187,54.08
11.203,25.11
11.218,-3.92
11.234,-31.61
11.250,-56.89
11.265,-79.13
11.281,-98.25
11.296,-114.89
11.312,-130.13
11.328,-144.81
11.343,-158.72
11.359,-169.89
11.375,-174.83
11.390,-169.58
11.406,-151.51
11.421,-120.69
11.437,-80.54
11.453,-36.99
11.468,3.36
11.484,35.05
11.500,55.05
11.515,63.07
11.531,60.92
11.546,51.53
11.562,38.12
11.578,23.52
11.593,9.85
11.609,-1.49
11.625,-9.94
11.640,-15.64
11.656,-19.31
11.671,-21.97
11.687,-24.65
11.703,-27.87
11.718,-31.28
11.734,-33.45
11.750,-32.04
11.765,-24.52
11.781,-9.13
11.796,14.05
11.812,42.67
11.828,72.5
11.843,98.47
11.859,116.26
11.875,123.28
11.890,119.23
11.906,105.81
11.921,85.86
11.937,62.54
11.953,38.63
11.968,16.18
11.984,-3.56
12.000,-20.07
12.015,-33.55
12.031,-44.69
12.046,-54.54
12.062,-63.94
12.078,-73.03
12.093,-80.76
12.109,-84.89
12.125,-82.62
12.140,-71.61
12.156,-51.13
12.171,-22.63
12.187,10.36
12.203,43.14
12.218,71.02
12.234,90.43
12.250,99.61
12.265,98.54
12.281,88.63
12.296,72.17
12.312,51.83
12.328,30.24
12.343,9.69
12.359,-8.14
12.375,-22.4
12.390,-33.11
12.406,-41.0
12.421,-47.28
12.437,-53.1
12.453,-58.88
12.468,-63.83
12.484,-65.91
12.500,-62.31
12.515,-50.49
12.531,-29.51
12.546,-0.69
12.562,32.32
12.578,64.53
12.593,91.05
12.609,108.46
12.625,115.46
12.640,112.73
12.656,102.1
12.671,85.72
12.687,65.58
12.703,43.45
12.718,21.1
12.734,0.45
12.750,-16.8
12.765,-29.72
12.781,-38.63
12.796,-45.16
12.812,-51.43
12.828,-58.8
12.843,-66.75
12.859,-72.61
12.875,-72.46
12.890,-62.88
12.906,-42.75
12.921,-13.99
12.937,18.76
12.953,49.67
12.968,73.59
12.984,87.32
13.000,90.03
13.015,82.91
13.031,68.27
13.046,48.82
13.062,27.28
13.078,6.04
13.093,-13.02
13.109,-28.75
13.125,-41.02
13.140,-50.64
13.156,-59.01
13.171,-67.53
13.187,-76.83
13.203,-86.23
13.218,-93.71
13.234,-96.33
13.250,-91.13
13.265,-76.17
13.281,-51.4
13.296,-18.92
13.312,17.3
13.328,52.4
13.343,81.7
13.359,101.74
13.375,110.83
13.390,109.19
13.406,98.54
13.421,81.5
13.437,60.95
13.453,39.48
13.468,19.05
13.484,0.86
13.500,-14.59
13.515,-27.56
13.531,-38.83
13.546,-49.46
13.562,-60.29
13.578,-71.23
13.593,-80.83
13.609,-86.23
13.625,-83.99
13.640,-71.37
13.656,-47.77
13.671,-15.47
13.687,20.73
13.703,54.91
13.718,81.82
13.734,98.23
13.750,103.34
13.765,98.36
13.781,85.58
13.796,67.53
13.812,46.51
13.828,24.57
13.843,3.47
13.859,-15.23
13.875,-30.53
13.890,-42.12
13.906,-50.59
13.921,-57.22
13.937,-63.38
13.953,-69.78
13.968,-75.79
13.984,-79.34
14.000,-77.45
14.015,-67.38
14.031,-47.98
14.046,-20.46
14.062,11.52
14.078,42.9
14.093,68.69
14.109,85.36
14.125,91.62
14.140,88.34
14.156,77.83
14.171,62.84
14.187,45.88
14.203,28.75
14.218,12.65
14.234,-1.65
14.250,-13.7
14.265,-23.47
14.281,-31.49
14.296,-38.79
14.312,-46.56
14.328,-55.25
14.343,-63.93
14.359,-70.01
14.375,-69.86
14.390,-60.23
14.406,-39.78
14.421,-10.14
14.437,24.24
14.453,57.25
14.468,83.07
14.484,97.69
14.500,99.87
14.515,90.93
14.531,73.9
14.546,52.34
14.562,29.35
14.578,7.15
14.593,-12.89
14.609,-29.96
14.625,-43.64
14.640,-53.93
14.656,-61.44
14.671,-67.39
14.687,-73.16
14.703,-79.42
14.718,-85.37
14.734,-88.48
14.750,-85.27
14.765,-72.76
14.781,-50.03
14.796,-18.97
14.812,16.06
14.828,49.59
14.843,76.62
14.859,93.86
14.875,100.16
14.890,96.21
14.906,83.92
14.921,65.75
14.937,44.35
14.953,22.3
14.968,1.85
14.984,-15.32
15.000,-28.39
15.015,-37.59
15.031,-44.11
15.046,-49.64
15.062,-55.58
15.078,-62.23
15.093,-68.25
15.109,-70.86
15.125,-66.79
15.140,-53.56
15.156,-30.77
15.171,-0.61
15.187,32.65
15.203,63.83
15.218,88.33
15.234,103.13
15.250,107.25
15.265,101.49
15.281,87.87
15.296,69.04
15.312,47.78
15.328,26.64
15.343,7.6
15.359,-8.16
15.375,-20.41
15.390,-29.85
15.406,-37.81
15.421,-45.76
15.437,-54.54
15.453,-63.82
15.468,-71.73
15.484,-75.3
15.500,-71.37
15.515,-57.89
15.531,-34.88
15.546,-4.85
15.562,27.76
15.578,57.81
15.593,80.74
15.609,93.63
15.625,95.54
15.640,87.35
15.656,71.27
15.671,50.26
15.687,27.36
15.703,5.29
15.718,-13.94
15.734,-29.25
15.750,-40.47
15.765,-48.38
15.781,-54.41
15.796,-60.15
15.812,-66.75
15.828,-74.2
15.843,-80.9
15.859,-83.75
15.875,-79.11
15.890,-64.19
15.906,-38.49
15.921,-4.51
15.937,32.69
15.953,66.94
15.968,92.84
15.984,107.18
16.000,109.55
16.015,101.81
16.031,87.13
16.046,68.9
16.062,50.07
16.078,32.78
16.093,18.39
16.109,7.24
16.125,-1.35
16.140,-9.19
16.156,-18.79
16.171,-32.43
16.187,-51.04
16.203,-73.31
16.218,-95.54
16.234,-112.6
16.250,-119.44
16.265,-112.79
16.281,-92.28
16.296,-60.61
16.312,-22.65
16.328,15.81
16.343,49.47
16.359,74.5
16.375,89.01
16.390,92.92
16.406,87.54
16.421,74.97
16.437,57.53
16.453,37.45
16.468,16.79
16.484,-2.64
16.500,-19.32
16.515,-32.33
16.531,-41.67
16.546,-48.36
16.562,-53.99
16.578,-59.92
16.593,-66.15
16.609,-70.96
16.625,-71.27
16.640,-63.99
16.656,-47.57
16.671,-22.94
16.687,6.54
16.703,36.08
16.718,60.97
16.734,77.89
16.750,85.44
16.765,84.0
16.781,75.13
16.796,60.86
16.812,43.26
16.828,24.22
16.843,5.39
16.859,-11.88
16.875,-26.58
16.890,-38.32
16.906,-47.48
16.921,-55.08
16.937,-62.35
16.953,-69.85
16.968,-76.83
16.984,-81.01
17.000,-79.14
17.015,-68.33
17.031,-47.49
17.046,-18.14
17.062,15.81
17.078,49.13
17.093,76.86
17.109,95.51
17.125,103.73
17.140,102.1
17.156,92.56
17.171,77.59
17.187,59.75
17.203,41.25
17.218,23.75
17.234,8.28
17.250,-4.92
17.265,-16.17
17.281,-26.38
17.296,-36.63
17.312,-47.57
17.328,-58.87
17.343,-68.75
17.359,-74.25
17.375,-72.05
17.390,-59.83
17.406,-37.44
17.421,-7.34
17.437,25.84
17.453,56.72
17.468,80.64
17.484,94.7
17.500,98.11
17.515,91.77
17.531,77.7
17.546,58.34
17.562,36.26
17.578,13.83
17.593,-6.92
17.609,-24.61
17.625,-38.66
17.640,-49.41
17.656,-57.91
17.671,-65.48
17.687,-73.05
17.703,-80.51
17.718,-86.43
17.734,-88.17
17.750,-82.82
17.765,-68.28
17.781,-44.33
17.796,-13.14
17.812,21.22
17.828,53.74
17.843,79.94
17.859,96.79
17.875,103.25
17.890,100.1
17.906,89.31
17.921,73.43
17.937,54.98
17.953,36.1
17.968,18.38
17.984,2.83
18.000,-10.09
18.015,-20.52
18.031,-29.15
18.046,-37.09
18.062,-45.42
18.078,-54.63
18.093,-63.96
18.109,-71.2
18.125,-73.07
18.140,-66.35
18.156,-49.34
18.171,-22.87
18.187,9.56
18.203,42.68
18.218,71.02
18.234,90.36
18.250,98.78
18.265,96.63
18.281,85.94
18.296,69.47
18.312,49.85
18.328,29.25
18.343,9.27
18.359,-8.92
18.375,-24.57
18.390,-37.48
18.406,-48.09
18.421,-57.37
18.437,-66.36
18.453,-75.45
18.468,-83.72
18.484,-88.79
18.500,-87.48
18.515,-77.06
18.531,-56.52
18.546,-27.48
18.562,6.13
18.578,39.0
18.593,66.09
18.609,83.85
18.625,90.87
18.640,87.77
18.656,76.58
18.671,59.86
18.687,40.11
18.703,19.41
18.718,-0.6
18.734,-18.78
18.750,-34.49
18.765,-47.59
18.781,-58.57
18.796,-68.25
18.812,-77.3
18.828,-85.47
18.843,-91.27
18.859,-91.99
18.875,-84.66
18.890,-67.29
18.906,-39.95
18.921,-5.27
18.937,32.22
18.953,67.27
18.968,95.38
18.984,113.66
19.000,121.13
19.015,118.37
19.031,107.06
19.046,89.43
19.062,67.93
19.078,45.07
19.093,23.02
19.109,3.5
19.125,-12.61
19.140,-25.32
19.156,-35.61
19.171,-44.92
19.187,-54.65
19.203,-65.26
19.218,-75.68
19.234,-83.34
19.250,-84.91
19.265,-77.63
19.281,-60.59
19.296,-35.56
19.312,-6.64
19.328,20.95
19.343,42.39
19.359,54.5
19.375,56.21
19.390,48.23
19.406,32.42
19.421,11.19
19.437,-12.95
19.453,-37.46
19.468,-59.97
19.484,-78.57
19.500,-92.11
19.515,-100.54
19.531,-104.89
19.546,-106.9
19.562,-108.29
19.578,-109.78
19.593,-110.51
19.609,-108.0
19.625,-98.97
19.640,-80.65
19.656,-52.13
19.671,-15.05
19.687,26.51
19.703,67.24
19.718,102.08
19.734,127.51
19.750,142.16
19.765,146.57
19.781,142.51
19.796,132.26
19.812,118.04
19.828,101.85
19.843,85.4
19.859,70.04
19.875,56.57
19.890,45.08
19.906,34.88
19.921,24.78
19.937,13.74
19.953,1.62
19.968,-10.23
19.984,-18.96
20.000,-21.04
20.015,-13.6
20.031,4.35
20.046,31.18
20.062,62.93
20.078,94.34
20.093,120.28
20.109,136.85
20.125,141.98
20.140,135.38
20.156,118.09
20.171,92.26
20.187,60.79
20.203,27.09
20.218,-5.33
20.234,-33.62
20.250,-56.18
20.265,-73.02
20.281,-85.6
20.296,-96.09
20.312,-106.26
20.328,-116.45
20.343,-125.15
20.359,-129.34
20.375,-125.53
20.390,-111.28
20.406,-86.3
20.421,-52.93
20.437,-15.58
20.453,20.54
20.468,50.79
20.484,72.12
20.500,83.33
20.515,84.68
20.531,77.32
20.546,62.82
20.562,42.97
20.578,19.85
20.593,-4.16
20.609,-26.62
20.625,-45.35
20.640,-58.96
20.656,-67.28
20.671,-71.36
20.687,-73.05
20.703,-74.21
20.718,-75.73
20.734,-76.91
20.750,-75.49
20.765,-68.4
20.781,-52.96
20.796,-28.02
20.812,5.2
20.828,43.18
20.843,80.73
20.859,112.19
20.875,132.87
20.890,140.15
20.906,134.07
20.921,117.19
20.937,93.62
20.953,67.77
20.968,43.08
20.984,21.28
21.000,2.51
21.015,-13.94
21.031,-28.98
21.046,-43.2
21.062,-56.84
21.078,-69.81
21.093,-81.54
21.109,-90.67
21.125,-95.0
21.140,-91.88
21.156,-79.2
21.171,-56.68
21.187,-26.51
21.203,6.81
21.218,37.64
21.234,60.81
21.250,73.05
21.265,73.6
21.281,64.03
21.296,47.47
21.312,27.53
21.328,7.46
21.343,-10.3
21.359,-24.57
21.375,-35.2
21.390,-42.99
21.406,-49.3
21.421,-55.63
21.437,-63.03
21.453,-71.67
21.468,-80.34
21.484,-86.5
21.500,-86.87
21.515,-78.49
21.531,-59.84
21.546,-31.79
21.562,2.45
21.578,38.07
21.593,69.98
21.609,94.14
21.625,108.25
21.640,111.91
21.656,106.21
21.671,93.15
21.687,75.13
21.703,54.59
21.718,33.77
21.734,14.57
21.750,-1.79
21.765,-14.83
21.781,-24.88
21.796,-32.95
21.812,-40.2
21.828,-47.43
21.843,-54.4
21.859,-59.61
21.875,-60.55
21.890,-54.52
21.906,-39.78
21.921,-16.42
21.937,13.27
21.953,45.33
21.968,75.16
21.984,98.67
22.000,113.08
22.015,117.27
22.031,111.65
22.046,97.72
22.062,77.72
22.078,54.21
22.093,29.66
22.109,6.25
22.125,-14.52
22.140,-31.93
22.156,-46.12
22.171,-57.86
22.187,-68.4
22.203,-78.79
22.218,-89.41
22.234,-99.31
22.250,-106.18
22.265,-106.81
22.281,-98.2
22.296,-78.91
22.312,-49.98
22.328,-14.95
22.343,20.97
22.359,52.45
22.375,75.33
22.390,87.57
22.406,89.18
22.421,81.76
22.437,67.72
22.453,49.71
22.468,30.26
22.484,11.58
22.500,-4.54
22.515,-17.11
22.531,-25.93
22.546,-31.83
22.562,-36.42
22.578,-41.59
22.593,-48.77
22.609,-58.05
22.625,-67.61
22.640,-74.05
22.656,-73.35
22.671,-62.43
22.687,-40.61
22.703,-10.3
22.718,23.56
22.734,55.01
22.750,78.87
22.765,92.17
22.781,94.58
22.796,87.85
22.812,74.77
22.828,58.2
22.843,40.43
22.859,23.1
22.875,7.25
22.890,-6.38
22.906,-17.47
22.921,-26.14
22.937,-33.1
22.953,-39.48
22.968,-46.4
22.984,-54.26
23.000,-62.05
23.015,-67.38
23.031,-67.07
23.046,-58.34
23.062,-40.08
23.078,-13.69
23.093,17.17
23.109,47.46
23.125,72.33
23.140,88.37
23.156,94.18
23.171,90.36
23.187,78.79
23.203,61.9
23.218,42.02
23.234,21.16
23.250,0.81
23.265,-17.95
23.281,-34.55
23.296,-48.85
23.312,-61.3
23.328,-72.77
23.343,-84.14
23.359,-95.62
23.375,-106.17
23.390,-113.36
23.406,-113.85
23.421,-104.56
23.437,-83.84
23.453,-52.46
23.468,-13.74
23.484,27.2
23.500,64.78
23.515,94.28
23.531,112.81
23.546,119.55
23.562,115.56
23.578,103.07
23.593,84.95
23.609,63.99
23.625,42.64
23.640,22.72
23.656,5.27
23.671,-9.4
23.687,-21.7
23.703,-32.57
23.718,-43.19
23.734,-54.36
23.750,-65.91
23.765,-76.21
23.781,-82.37
23.796,-81.01
23.812,-69.61
23.828,-47.7
23.843,-17.43
23.859,16.8
23.875,49.61
23.890,76.15
23.906,93.3
23.921,99.94
23.937,96.76
23.953,85.62
23.968,68.8
23.984,48.74
24.000,27.73
24.015,7.77
24.031,-9.67
24.046,-23.89
24.062,-35.11
24.078,-44.36
24.093,-53.01
24.109,-62.18
24.125,-72.03
24.140,-81.29
24.156,-87.38
24.171,-87.12
24.187,-77.86
24.203,-58.64
24.218,-30.9
24.234,1.8
24.250,34.56
24.265,62.61
24.281,82.41
24.296,92.25
24.312,92.24
24.328,83.91
24.343,69.57
24.359,51.77
24.375,32.92
24.390,15.03
24.406,-0.57
24.421,-13.34
24.437,-23.5
24.453,-31.94
24.468,-39.86
24.484,-48.37
24.500,-58.0
24.515,-68.19
24.531,-77.02
24.546,-81.45
24.562,-78.06
24.578,-64.32
24.593,-39.78
24.609,-6.69
24.625,30.27
24.640,65.23
24.656,92.78
24.671,109.35
24.687,113.86
24.703,107.51
24.718,92.91
24.734,73.09
24.750,50.8
24.765,28.21
24.781,6.92
24.796,-11.89
24.812,-27.46
24.828,-39.56
24.843,-48.64
24.859,-55.76
24.875,-62.2
24.890,-68.72
24.906,-74.85
24.921,-78.7
24.937,-77.36
24.953,-68.09
24.968,-49.64
24.984,-23.15
25.000,7.9
25.015,38.53
25.031,63.84
25.046,80.34
25.062,86.67
25.078,83.49
25.093,72.78
25.109,56.94
25.125,38.29
25.140,18.81
25.156,0.01
25.171,-16.89
25.187,-31.1
25.203,-42.33
25.218,-50.86
25.234,-57.58
25.250,-63.65
25.265,-69.88
25.281,-76.14
25.296,-81.03
25.312,-81.95
25.328,-75.99
25.343,-61.1
25.359,-37.2
25.375,-6.58
25.390,26.49
25.406,57.11
25.421,81.0
25.437,95.59
25.453,100.28
25.468,96.06
25.484,84.82
25.500,68.76
25.515,50.06
25.531,30.78
25.546,12.73
25.562,-2.68
25.578,-14.65
25.593,-23.12
25.609,-28.79
25.625,-32.9
25.640,-36.77
25.656,-41.23
25.671,-46.04
25.687,-49.72
25.703,-49.74
25.718,-43.38
25.734,-28.91
25.750,-6.62
25.765,20.83
25.781,49.07
25.796,73.19
25.812,89.25
25.828,95.21
25.843,91.12
25.859,78.62
25.875,60.13
25.890,38.17
25.906,15.02
25.921,-7.38
25.937,-27.48
25.953,-44.19
25.968,-57.13
25.984,-66.69
26.000,-73.99
26.015,-80.52
26.031,-87.43
26.046,-94.92
26.062,-101.63
26.078,-104.82
26.093,-101.09
26.109,-87.63
26.125,-63.6
26.140,-30.73
26.156,6.74
26.171,43.26
26.187,73.48
26.203,93.66
26.218,102.28
26.234,100.03
26.250,89.06
26.265,72.14
26.281,52.06
26.296,31.29
26.312,11.81
26.328,-4.96
26.343,-18.25
26.359,-28.05
26.375,-35.12
26.390,-40.74
26.406,-46.27
26.421,-52.32
26.437,-58.21
26.453,-61.77
26.468,-59.86
26.484,-49.47
26.500,-29.11
26.515,0.21
26.531,34.89
26.546,69.58
26.562,98.8
26.578,118.42
26.593,126.54
26.609,123.63
26.625,111.66
26.640,93.31
26.656,71.17
26.671,47.45
26.687,24.0
26.703,2.38
26.718,-16.19
26.734,-31.01
26.750,-42.16
26.765,-50.66
26.781,-58.07
26.796,-65.9
26.812,-74.66
26.828,-83.27
26.843,-89.04
26.859,-88.52
26.875,-78.87
26.890,-59.14
26.906,-31.09
26.921,1.26
26.937,32.8
26.953,58.81
26.968,76.22
26.984,83.9
27.000,82.45
27.015,73.38
27.031,58.63
27.046,40.12
27.062,19.82
27.078,-0.38
27.093,-18.75
27.109,-34.01
27.125,-45.61
27.140,-53.9
27.156,-60.0
27.171,-65.26
27.187,-70.63
27.203,-75.96
27.218,-79.73
27.234,-79.41
27.250,-72.31
27.265,-56.75
27.281,-32.97
27.296,-3.39
27.312,27.95
27.328,56.42
27.343,78.09
27.359,90.53
27.375,93.18
27.390,87.1
27.406,74.46
27.421,57.91
27.437,40.05
27.453,23.0
27.468,8.12
27.484,-4.0
27.500,-13.54
27.515,-21.26
27.531,-28.35
27.546,-36.09
27.562,-45.31
27.578,-55.81
27.593,-65.94
27.609,-72.68
27.625,-72.45
27.640,-62.32
27.656,-41.3
27.671,-11.09
27.687,24.2
27.703,59.24
27.718,88.92
27.734,109.66
27.750,119.89
27.765,119.9
27.781,111.2
27.796,95.91
27.812,76.31
27.828,54.68
27.843,33.15
27.859,13.51
27.875,-3.11
27.890,-16.44
27.906,-27.15
27.921,-36.6
27.937,-46.35
27.953,-57.4
27.968,-69.5
27.984,-80.89
28.000,-88.5
28.015,-88.91
28.031,-79.61
28.046,-60.15
28.062,-32.6
28.078,-1.13
28.093,29.21
28.109,53.84
28.125,69.79
28.140,76.09
28.156,73.4
28.171,63.43
28.187,48.26
28.203,29.92
28.218,10.37
28.234,-8.52
28.250,-25.14
28.265,-38.24
28.281,-47.33
28.296,-52.83
28.312,-56.09
28.328,-58.95
28.343,-62.91
28.359,-68.21
28.375,-73.39
28.390,-75.51
28.406,-71.09
28.421,-57.6
28.437,-34.67
28.453,-4.49
28.468,28.72
28.484,59.95
28.500,84.86
28.515,100.77
28.531,106.9
28.546,104.1
28.562,94.19
28.578,79.44
28.593,62.28
28.609,44.95
28.625,29.34
28.640,16.66
28.656,7.31
28.671,0.66
28.687,-4.62
28.703,-10.21
28.718,-17.36
28.734,-26.25
28.750,-35.55
28.765,-42.56
28.781,-43.98
28.796,-37.05
28.812,-20.7
28.828,3.83
28.843,33.11
28.859,62.48
28.875,87.28
28.890,104.01
28.906,110.85
28.921,107.69
28.937,95.77
28.953,77.16
28.968,54.36
28.984,29.95
29.000,6.33
29.015,-14.59
29.031,-31.64
29.046,-44.66
29.062,-54.45
29.078,-62.55
29.093,-70.7
29.109,-80.09
29.125,-90.67
29.140,-100.8
29.156,-107.37
29.171,-106.82
29.187,-96.36
29.203,-75.3
29.218,-45.54
29.234,-11.24
29.250,22.37
29.265,50.49
29.281,69.82
29.296,79.04
29.312,78.5
29.328,69.7
29.343,54.71
29.359,35.83
29.375,15.46
29.390,-4.06
29.406,-20.76
29.421,-33.4
29.437,-41.76
29.453,-46.76
29.468,-50.06
29.484,-53.47
29.500,-58.17
29.515,-64.07
29.531,-69.48
29.546,-71.56
29.562,-67.21
29.578,-54.28
29.593,-32.65
29.609,-4.45
29.625,26.46
29.640,55.52
29.656,78.81
29.671,93.84
29.687,99.85
29.703,97.42
29.718,87.99
29.734,73.34
29.750,55.38
29.765,36.04
29.781,17.16
29.796,0.32
29.812,-13.47
29.828,-23.93
29.843,-31.7
29.859,-37.94
29.875,-43.94
29.890,-50.35
29.906,-56.74
29.921,-61.33
29.937,-61.5
29.953,-54.61
29.968,-39.14
29.984,-15.54
30.000,13.67
30.015,44.41
30.031,72.25
30.046,93.4
30.062,105.51
30.078,107.88
30.093,101.22
30.109,87.09
30.125,67.55
30.140,44.87
30.156,21.31
30.171,-1.05
30.187,-20.53
30.203,-36.17
30.218,-47.86
30.234,-56.43
30.250,-63.28
30.265,-69.92
30.281,-77.11
30.296,-84.36
30.312,-89.61
30.328,-89.76
30.343,-81.74
30.359,-63.9
30.375,-37.03
30.390,-4.31
30.406,29.41
30.421,59.18
30.437,81.23
30.453,93.73
30.468,96.78
30.484,91.64
30.500,80.16
30.515,64.21
30.531,45.69
30.546,26.46
30.562,8.4
30.578,-6.96
30.593,-18.79
30.609,-27.19
30.625,-33.25
30.640,-38.54
30.656,-44.61
30.671,-52.23
30.687,-60.9
30.703,-68.71
30.718,-72.73
30.734,-69.89
30.750,-58.08
30.765,-37.14
30.781,-9.08
30.796,22.29
30.812,52.49
30.828,77.53
30.843,94.8
30.859,103.3
30.875,103.32
30.890,95.98
30.906,82.81
30.921,65.58
30.937,46.18
30.953,26.66
30.968,8.85
30.984,-5.95
31.000,-17.29
31.015,-25.67
31.031,-32.37
31.046,-38.9
31.062,-46.41
31.078,-55.1
31.093,-63.85
31.109,-70.34
31.125,-71.66
31.140,-65.3
31.156,-50.21
31.171,-27.49
31.187,-0.4
31.203,26.53
31.218,48.59
31.234,62.26
31.250,65.94
31.265,60.0
31.281,46.35
31.296,27.71
31.312,6.87
31.328,-13.76
31.343,-32.22
31.359,-47.29
31.375,-58.38
31.390,-65.73
31.406,-70.35
31.421,-73.74
31.437,-77.54
31.453,-82.87
31.468,-89.63
31.484,-96.21
31.500,-99.73
31.515,-96.77
31.531,-84.73
31.546,-62.97
31.562,-33.28
31.578,0.36
31.593,32.91
31.609,59.67
31.625,77.47
31.640,85.1
31.656,83.25
31.671,73.83
31.687,59.3
31.703,42.26
31.718,25.06
31.734,9.66
31.750,-2.62
31.765,-11.31
31.781,-16.82
31.796,-20.26
31.812,-23.21
31.828,-27.23
31.843,-33.26
31.859,-41.28
31.875,-49.92
31.890,-56.55
31.906,-57.93
31.921,-51.29
31.937,-35.32
31.953,-11.05
31.968,18.33
31.984,48.36
32.000,74.55
32.015,93.63
32.031,104.15
32.046,106.27
32.062,101.22
32.078,90.69
32.093,76.39
32.109,59.9
32.125,42.75
32.140,26.36
32.156,11.86
32.171,-0.13
32.187,-9.68
32.203,-17.54
32.218,-24.99
32.234,-33.35
32.250,-43.36
32.265,-54.53
32.281,-65.03
32.296,-71.93
32.312,-72.16
32.328,-63.68
32.343,-46.41
32.359,-22.5
32.375,4.15
32.390,29.11
32.406,48.68
32.421,60.54
32.437,64.07
32.453,59.91
32.468,49.47
32.484,34.49
32.500,16.87
32.515,-1.41
32.531,-18.42
32.546,-32.43
32.562,-42.36
32.578,-47.94
32.593,-49.86
32.609,-49.58
32.625,-48.83
32.640,-48.91
32.656,-50.03
32.671,-51.04
32.687,-49.62
32.703,-43.12
32.718,-29.65
32.734,-8.9
32.750,17.42
32.765,46.04
32.781,73.05
32.796,94.8
32.812,108.74
32.828,113.62
32.843,109.48
32.859,97.41
32.875,79.36
32.890,57.72
32.906,35.09
32.921,13.78
32.937,-4.6
32.953,-19.35
32.968,-30.7
32.984,-39.57
33.000,-47.24
33.015,-54.97
33.031,-63.48
33.046,-72.39
33.062,-80.07
33.078,-83.81
33.093,-80.61
33.109,-68.36
33.125,-46.87
33.140,-18.24
33.156,13.53
33.171,43.71
33.187,68.14
33.203,84.13
33.218,90.66
33.234,88.18
33.250,78.07
33.265,62.17
33.281,42.63
33.296,21.65
33.312,1.34
33.328,-16.59
33.343,-31.15
33.359,-42.18
33.375,-50.3
33.390,-56.71
33.406,-62.85
33.421,-69.94
33.437,-78.37
33.453,-87.23
33.468,-94.16
33.484,-95.84
33.500,-89.02
33.515,-71.86
33.531,-44.9
33.546,-11.31
33.562,23.97
33.578,55.63
33.593,79.47
33.609,93.28
33.625,96.89
33.640,91.57
33.656,79.45
33.671,62.92
33.687,44.4
33.703,26.23
33.718,10.54
33.734,-1.22
33.750,-8.52
33.765,-11.91
33.781,-12.96
33.796,-13.73
33.812,-16.16
33.828,-21.38
33.843,-29.13
33.859,-37.55
33.875,-43.62
33.890,-43.98
33.906,-36.15
33.921,-19.59
33.937,3.97
33.953,30.89
33.968,56.77
33.984,77.59
34.000,90.67
34.015,94.88
34.031,90.5
34.046,78.65
34.062,61.03
34.078,39.66
34.093,16.77
34.109,-5.37
34.125,-24.81
34.140,-40.31
34.156,-51.62
34.171,-59.51
34.187,-65.52
34.203,-71.5
34.218,-78.84
34.234,-87.8
34.250,-97.08
34.265,-103.84
34.281,-104.56
34.296,-96.26
34.312,-77.73
34.328,-50.24
34.343,-17.31
34.359,16.28
34.375,45.83
34.390,67.88
34.406,80.63
34.421,83.91
34.437,78.72
34.453,66.76
34.468,50.26
34.484,31.64
34.500,13.34
34.515,-2.56
34.531,-14.82
34.546,-23.26
34.562,-28.67
34.578,-32.57
34.593,-36.62
34.609,-42.01
34.625,-48.98
34.640,-56.38
34.656,-61.79
34.671,-62.05
34.687,-54.38
34.703,-37.41
34.718,-12.07
34.734,18.49
34.750,49.71
34.765,76.99
34.781,96.88
34.796,107.73
34.812,109.57
34.828,103.46
34.843,90.93
34.859,73.58
34.875,53.16
34.890,31.75
34.906,11.47
34.921,-5.85
34.937,-19.27
34.953,-29.03
34.968,-36.47
34.984,-43.38
35.000,-51.34
35.015,-60.92
35.031,-71.27
35.046,-80.23
35.062,-84.88
35.078,-82.39
35.093,-71.01
35.109,-50.88
35.125,-24.08
35.140,5.73
35.156,34.25
35.171,57.68
35.187,73.44
35.203,80.52
35.218,79.22
35.234,70.82
35.250,57.07
35.265,39.95
35.281,21.57
35.296,3.92
35.312,-11.37
35.328,-23.32
35.343,-31.85
35.359,-37.76
35.375,-42.51
35.390,-47.71
35.406,-54.48
35.421,-62.74
35.437,-70.95
35.453,-76.22
35.468,-75.23
35.484,-65.43
35.500,-46.13
35.515,-19.02
35.531,12.21
35.546,43.02
35.562,69.28
35.578,88.19
35.593,98.58
35.609,100.58
35.625,95.04
35.640,83.29
35.656,66.95
35.671,47.99
35.687,28.65
35.703,11.13
35.718,-3.02
35.734,-13.25
35.750,-20.16
35.765,-25.31
35.781,-30.57
35.796,-37.44
35.812,-46.26
35.828,-55.89
35.843,-63.77
35.859,-66.57
35.875,-61.3
35.890,-46.49
35.906,-22.94
35.921,6.3
35.937,36.67
35.953,63.44
35.968,82.77
35.984,92.58
36.000,92.54
36.015,83.81
36.031,68.45
36.046,48.89
36.062,27.69
36.078,7.15
36.093,-10.9
36.109,-25.37
36.125,-35.98
36.140,-43.4
36.156,-48.93
36.171,-54.17
36.187,-60.41
36.203,-67.96
36.218,-75.75
36.234,-81.35
36.250,-81.53
36.265,-73.41
36.281,-55.65
36.296,-29.22
36.312,2.75
36.328,35.81
36.343,65.41
36.359,87.94
36.375,101.36
36.390,105.17
36.406,100.13
36.421,87.83
36.437,70.34
36.453,50.07
36.468,29.36
36.484,10.3
36.500,-5.81
36.515,-18.48
36.531,-28.06
36.546,-35.48
36.562,-41.94
36.578,-48.51
36.593,-55.61
36.609,-62.73
36.625,-68.11
36.640,-69.16
36.656,-63.24
36.671,-48.66
36.687,-25.7
36.703,3.2
36.718,33.93
36.734,61.9
36.750,83.21
36.765,95.51
36.781,98.29
36.796,92.39
36.812,79.58
36.828,61.97
36.843,41.8
36.859,21.21
36.875,2.17
36.890,-13.91
36.906,-26.31
36.921,-35.2
36.937,-41.59
36.953,-46.95
36.968,-52.86
36.984,-60.23
37.000,-68.85
37.015,-77.13
37.031,-82.33
37.046,-81.33
37.062,-71.81
37.078,-53.19
37.093,-27.12
37.109,2.79
37.125,32.08
37.140,56.54
37.156,73.25
37.171,80.93
37.187,79.85
37.203,71.3
37.218,57.14
37.234,39.49
37.250,20.52
37.265,2.21
37.281,-13.84
37.296,-26.75
37.312,-36.44
37.328,-43.61
37.343,-49.46
37.359,-55.24
37.375,-61.78
37.390,-68.98
37.406,-75.6
37.421,-79.3
37.437,-77.29
37.453,-67.1
37.468,-47.75
37.484,-20.29
37.500,12.18
37.515,45.17
37.531,74.11
37.546,95.4
37.562,107.19
37.578,109.38
37.593,103.2
37.609,90.6
37.625,73.65
37.640,54.38
37.656,34.61
37.671,15.93
37.687,-0.49
37.703,-14.08
37.718,-25.03
37.734,-34.3
37.750,-43.23
37.765,-53.03
37.781,-63.97
37.796,-74.88
37.812,-83.06
37.828,-85.0
37.843,-77.58
37.859,-59.38
37.875,-31.46
37.890,2.73
37.906,38.29
37.921,70.2
37.937,94.51
37.953,109.03
37.968,113.24
37.984,107.9
38.000,94.59
38.015,75.4
38.031,52.78
38.046,29.37
38.062,7.59
38.078,-10.72
38.093,-24.75
38.109,-34.79
38.125,-42.05
38.140,-48.28
38.156,-55.15
38.171,-63.6
38.187,-73.35
38.203,-82.66
38.218,-88.52
38.234,-87.58
38.250,-77.27
38.265,-56.95
38.281,-28.39
38.296,4.58
38.312,37.18
38.328,64.96
38.343,84.86
38.359,95.49
38.375,96.92
38.390,90.24
38.406,77.07
38.421,59.4
38.437,39.43
38.453,19.44
38.468,1.4
38.484,-13.24
38.500,-23.95
38.515,-31.06
38.531,-35.75
38.546,-39.53
38.562,-43.82
38.578,-49.22
38.593,-55.08
38.609,-59.33
38.625,-59.04
38.640,-51.46
38.656,-35.17
38.671,-10.92
38.687,18.45
38.703,48.67
38.718,75.39
38.734,95.27
38.750,106.52
38.765,108.83
38.781,102.96
38.796,90.28
38.812,72.51
38.828,51.7
38.843,30.03
38.859,9.56
38.875,-8.19
38.890,-22.59
38.906,-33.94
38.921,-43.3
38.937,-52.02
38.953,-61.25
38.968,-71.43
38.984,-81.93
39.000,-90.9
39.015,-95.56
39.031,-92.95
39.046,-80.97
39.062,-59.44
39.078,-30.45
39.093,1.98
39.109,33.09
39.125,58.61
39.140,75.75
39.156,83.45
39.171,82.09
39.187,72.88
39.203,57.55
39.218,38.11
39.234,16.87
39.250,-3.71
39.265,-21.51
39.281,-35.16
39.296,-44.41
39.312,-50.1
39.328,-53.84
39.343,-57.41
39.359,-62.08
39.375,-67.98
39.390,-73.81
39.406,-76.97
39.421,-74.32
39.437,-63.22
39.453,-42.79
39.468,-14.47
39.484,18.15
39.500,50.43
39.515,77.97
39.531,97.84
39.546,108.89
39.562,111.4
39.578,106.4
39.593,95.08
39.609,78.69
39.625,58.73
39.640,37.09
39.656,15.95
39.671,-2.65
39.687,-17.45
39.703,-28.26
39.718,-36.02
39.734,-42.36
39.750,-49.0
39.765,-56.99
39.781,-66.21
39.796,-75.17
39.812,-81.2
39.828,-81.19
39.843,-72.62
39.859,-54.5
39.875,-27.96
39.890,3.99
39.906,37.13
39.921,67.18
39.937,90.67
39.953,105.44
39.968,110.61
39.984,106.45
40.000,94.07
40.015,75.34
40.031,52.84
40.046,29.46
40.062,7.94
40.078,-9.84
40.093,-23.28
40.109,-33.1
40.125,-40.94
40.140,-48.68
40.156,-57.73
40.171,-68.45
40.187,-79.84
40.203,-89.6
40.218,-94.67
40.234,-92.05
40.250,-79.93
40.265,-58.53
40.281,-30.37
40.296,0.38
40.312,29.05
40.328,51.78
40.343,66.38
40.359,72.46
40.375,70.93
40.390,63.23
40.406,50.82
40.421,35.12
40.437,17.63
40.453,0.08
40.468,-15.8
40.484,-28.69
40.500,-38.07
40.515,-44.36
40.531,-48.84
40.546,-53.05
40.562,-58.19
40.578,-64.49
40.593,-70.78
40.609,-74.63
40.625,-72.92
40.640,-62.96
40.656,-43.55
40.671,-15.77
40.687,17.11
40.703,50.5
40.718,79.83
40.734,101.74
40.750,114.58
40.765,118.25
40.781,113.48
40.796,101.38
40.812,83.22
40.828,60.63
40.843,35.85
40.859,11.44
40.875,-10.16
40.890,-27.44
40.906,-40.27
40.921,-49.84
40.937,-58.18
40.953,-67.31
40.968,-78.46
40.984,-91.39
41.000,-104.27
41.015,-113.91
41.031,-116.59
41.046,-109.24
41.062,-90.5
41.078,-61.52
41.093,-25.77
41.109,11.87
41.125,46.36
41.140,73.69
41.156,91.63
41.171,99.69
41.187,98.73
41.203,90.49
41.218,77.02
41.234,60.56
41.250,43.29
41.265,27.14
41.281,13.48
41.296,2.9
41.312,-4.78
41.328,-10.49
41.343,-15.54
41.359,-21.23
41.375,-28.28
41.390,-36.44
41.406,-44.16
41.421,-48.87
41.437,-47.65
41.453,-38.2
41.468,-19.84
41.484,6.0
41.500,36.1
41.515,66.24
41.531,92.46
41.546,111.89
41.562,123.23
41.578,126.37
41.593,121.88
41.609,110.59
41.625,93.51
41.640,72.07
41.656,48.2
41.671,24.24
41.687,2.45
41.703,-15.62
41.718,-29.56
41.734,-40.06
41.750,-48.56
41.765,-56.72
41.781,-65.69
41.796,-75.63
41.812,-85.36
41.828,-92.35
41.843,-93.31
41.859,-85.31
41.875,-66.98
41.890,-39.41
41.906,-6.08
41.921,28.12
41.937,58.33
41.953,81.11
41.968,94.84
41.984,99.46
42.000,95.8
42.015,84.99
42.031,68.33
42.046,47.51
42.062,24.77
42.078,2.65
42.093,-16.56
42.109,-31.58
42.125,-42.49
42.140,-50.57
42.156,-57.79
42.171,-66.03
42.187,-76.32
42.203,-88.34
42.218,-100.22
42.234,-108.84
42.250,-110.68
42.265,-102.98
42.281,-84.76
42.296,-57.44
42.312,-24.56
42.328,9.2
42.343,39.32
42.359,62.48
42.375,77.05
42.390,82.78
42.406,80.3
42.421,70.78
42.437,55.68
42.453,36.95
42.468,16.92
42.484,-1.92
42.500,-17.5
42.515,-28.72
42.531,-35.76
42.546,-39.96
42.562,-43.25
42.578,-47.5
42.593,-53.74
42.609,-61.73
42.625,-69.83
42.640,-75.25
42.656,-74.87
42.671,-66.23
42.687,-48.43
42.703,-22.7
42.718,7.83
42.734,38.94
42.750,66.41
42.765,86.98
42.781,98.89
42.796,101.83
42.812,96.6
42.828,84.68
42.843,68.1
42.859,49.16
42.875,30.31
42.890,13.88
42.906,1.42
42.921,-6.57
42.937,-10.88
42.953,-13.38
42.968,-16.35
42.984,-21.74
43.000,-30.31
43.015,-41.05
43.031,-51.2
43.046,-56.95
43.062,-54.65
43.078,-42.19
43.093,-19.9
43.109,9.36
43.125,40.99
43.140,70.14
43.156,93.0
43.171,107.58
43.187,113.52
43.203,111.56
43.218,102.79
43.234,88.44
43.250,69.95
43.265,49.13
43.281,28.24
43.296,9.48
43.312,-5.6
43.328,-16.61
43.343,-24.41
43.359,-30.71
43.375,-37.36
43.390,-45.65
43.406,-55.84
43.421,-66.96
43.437,-76.86
43.453,-82.66
43.468,-81.39
43.484,-70.83
43.500,-50.35
43.515,-21.49
43.531,12.21
43.546,46.06
43.562,75.41
43.578,96.9
43.593,108.97
43.609,111.75
43.625,106.46
43.640,94.7
43.656,77.97
43.671,57.71
43.687,35.51
43.703,13.1
43.718,-7.75
43.734,-25.62
43.750,-39.8
43.765,-50.38
43.781,-58.06
43.796,-63.93
43.812,-68.97
43.828,-73.73
43.843,-77.94
43.859,-80.54
43.875,-79.87
43.890,-74.34
43.906,-63.13
43.921,-46.73
43.937,-27.05
43.953,-6.85
43.968,10.97
43.984,24.21
44.000,31.66
44.015,33.2
44.031,29.42
44.046,21.25
44.062,9.9
44.078,-3.33
44.093,-16.97
44.109,-29.65
44.125,-40.39
44.140,-48.79
44.156,-55.2
44.171,-60.53
44.187,-66.03
44.203,-72.65
44.218,-80.55
44.234,-88.6
44.250,-94.4
44.265,-94.84
44.281,-87.16
44.296,-70.0
44.312,-44.21
44.328,-12.69
44.343,20.31
44.359,50.44
44.375,74.22
44.390,89.59
44.406,95.94
44.421,93.8
44.437,84.51
44.453,69.96
44.468,52.32
44.484,33.91
44.500,16.71
44.515,2.02
44.531,-9.81
44.546,-19.33
44.562,-27.77
44.578,-36.45
44.593,-46.29
44.609,-57.09
44.625,-67.33
44.640,-74.24
44.656,-74.59
44.671,-65.84
44.687,-47.18
44.703,-20.23
44.718,11.3
44.734,42.57
44.750,69.02
44.765,87.38
44.781,96.09
44.796,95.19
44.812,85.8
44.828,69.84
44.843,49.74
44.859,28.41
44.875,8.76
44.890,-6.79
44.906,-16.99
44.921,-22.16
44.937,-23.87
44.953,-24.45
44.968,-26.09
44.984,-30.31
45.000,-37.57
45.015,-47.15
45.031,-57.33
45.046,-65.51
45.062,-68.72
45.078,-64.24
45.093,-50.57
45.109,-28.1
45.125,0.59
45.140,31.18
45.156,58.71
45.171,78.81
45.187,88.74
45.203,87.77
45.218,77.04
45.234,58.9
45.250,36.28
45.265,12.17
45.281,-10.83
45.296,-30.72
45.312,-46.51
45.328,-58.24
45.343,-66.95
45.359,-74.29
45.375,-82.0
45.390,-91.27
45.406,-102.15
45.421,-113.43
45.437,-122.61
45.453,-126.5
45.468,-122.06
45.484,-107.49
45.500,-83.02
45.515,-51.12
45.531,-16.01
45.546,17.59
45.562,45.6
45.578,65.7
45.593,77.47
45.609,81.93
45.625,80.87
45.640,76.17
45.656,69.44
45.671,62.1
45.687,55.42
45.703,50.36
45.718,47.4
45.734,46.32
45.750,45.97
45.765,44.63
45.781,40.46
45.796,32.39
45.812,20.74
45.828,7.51
45.843,-4.07
45.859,-10.48
45.875,-9.21
45.890,0.19
45.906,15.98
45.921,34.77
45.937,52.71
45.953,66.75
45.968,75.22
45.984,77.77
46.000,74.77
46.015,66.73
46.031,54.05
46.046,37.3
46.062,17.61
46.078,-3.08
46.093,-22.29
46.109,-37.81
46.125,-48.37
46.140,-54.19
46.156,-56.89
46.171,-58.78
46.187,-61.9
46.203,-67.2
46.218,-73.87
46.234,-79.44
46.250,-80.48
46.265,-73.74
46.281,-57.33
46.296,-31.66
46.312,0.6
46.328,35.3
46.343,67.9
46.359,94.71
46.375,113.49
46.390,123.36
46.406,124.45
46.421,117.42
46.437,103.4
46.453,84.09
46.468,61.89
46.484,39.55
46.500,19.62
46.515,3.82
46.531,-7.48
46.546,-15.07
46.562,-20.57
46.578,-25.73
46.593,-31.73
46.609,-38.88
46.625,-46.36
46.640,-52.51
46.656,-55.11
46.671,-52.13
46.687,-42.37
46.703,-26.02
46.718,-4.86
46.734,18.16
46.750,39.6
46.765,56.32
46.781,66.05
46.796,67.8
46.812,61.72
46.828,48.98
46.843,31.41
46.859,11.17
46.875,-9.47
46.890,-28.54
46.906,-44.67
46.921,-57.37
46.937,-67.02
46.953,-74.78
46.968,-82.18
46.984,-90.59
47.000,-100.65
47.015,-111.59
47.031,-120.93
47.046,-124.74
47.062,-118.72
47.078,-99.75
47.093,-67.4
47.109,-24.6
47.125,22.94
47.140,68.27
47.156,105.43
47.171,131.12
47.187,145.25
47.203,150.35
47.218,149.83
47.234,146.45
47.250,141.44
47.265,134.47
47.281,124.34
47.296,109.88
47.312,90.5
47.328,66.45
47.343,38.72
47.359,8.58
47.375,-22.48
47.390,-52.79
47.406,-80.29
47.421,-102.46
47.437,-116.51
47.453,-119.98
47.468,-111.67
47.484,-92.31
47.500,-64.76
47.515,-33.24
47.531,-1.93
47.546,26.42
47.562,51.02
47.578,72.43
47.593,91.0
47.609,105.66
47.625,113.7
47.640,112.04
47.656,99.14
47.671,76.34
47.687,47.72
47.703,18.56
47.718,-6.8
47.734,-26.53
47.750,-41.38
47.765,-53.67
47.781,-65.82
47.796,-79.18
47.812,-93.55
47.828,-107.45
47.843,-118.43
47.859,-123.7
47.875,-120.78
47.890,-108.16
47.906,-86.01
47.921,-56.38
47.937,-22.93
47.953,9.9
47.968,37.83
47.984,57.6
48.000,67.4
48.015,66.95
48.031,57.38
48.046,40.9
48.062,20.51
48.078,-0.46
48.093,-19.06
48.109,-33.26
48.125,-42.5
48.140,-47.61
48.156,-50.47
48.171,-53.26
48.187,-57.74
48.203,-64.71
48.218,-73.59
48.234,-82.51
48.250,-88.58
48.265,-88.58
48.281,-79.93
48.296,-61.6
48.312,-34.63
48.328,-2.07
48.343,31.77
48.359,62.45
48.375,86.31
48.390,101.17
48.406,106.4
48.421,102.67
48.437,91.56
48.453,75.14
48.468,55.67
48.484,35.4
48.500,16.24
48.515,-0.45
48.531,-14.07
48.546,-24.82
48.562,-33.73
48.578,-42.36
48.593,-52.32
48.609,-64.43
48.625,-77.96
48.640,-90.41
48.656,-97.92
48.671,-96.62
48.687,-84.2
48.703,-61.15
48.718,-30.82
48.734,1.79
48.750,31.83
48.765,56.18
48.781,73.88
48.796,85.53
48.812,92.19
48.828,94.71
48.843,93.67
48.859,89.93
48.875,84.91
48.890,80.19
48.906,76.77
48.921,74.33
48.937,71.3
48.953,65.79
48.968,56.68
48.984,44.36
49.000,30.53
49.015,17.45
49.031,7.03
49.046,0.52
49.062,-1.46
49.078,1.41
49.093,9.04
49.109,20.75
49.125,35.02
49.140,49.54
49.156,61.78
49.171,69.64
49.187,71.88
49.203,68.18
49.218,59.0
49.234,45.32
49.250,28.49
49.265,10.29
49.281,-7.32
49.296,-22.52
49.312,-34.14
49.328,-42.0
49.343,-46.93
49.359,-50.35
49.375,-53.89
49.390,-58.91
49.406,-66.14
49.421,-75.42
49.437,-85.42
49.453,-93.62
49.468,-96.77
49.484,-91.8
49.500,-76.95
49.515,-52.68
49.531,-21.89
49.546,10.89
49.562,40.62
49.578,63.22
49.593,76.3
49.609,79.38
49.625,73.51
49.640,60.69
49.656,43.34
49.671,23.89
49.687,4.62
49.703,-12.66
49.718,-26.79
49.734,-37.43
49.750,-45.15
49.765,-51.21
49.781,-57.26
49.796,-64.66
49.812,-73.75
49.828,-83.3
49.843,-90.51
49.859,-91.6
49.875,-83.2
49.890,-63.76
49.906,-34.36
49.921,1.36
49.937,38.22
49.953,71.04
49.968,95.92
49.984,110.74
50.000,115.06
50.015,109.5
50.031,95.28
50.046,74.15
50.062,48.46
50.078,21.09
50.093,-4.81
50.109,-26.59
50.125,-42.73
50.140,-53.16
50.156,-59.11
50.171,-62.54
50.187,-65.42
50.203,-69.12
50.218,-73.97
50.234,-79.02
50.250,-82.17
50.265,-80.7
50.281,-72.08
50.296,-54.91
50.312,-29.72
50.328,0.99
50.343,33.26
50.359,62.72
50.375,85.63
50.390,99.63
50.406,103.88
50.421,98.86
50.437,86.1
50.453,67.77
50.468,46.41
50.484,24.69
50.500,4.95
50.515,-11.17
50.531,-22.99
50.546,-30.92
50.562,-36.2
50.578,-40.53
50.593,-45.54
50.609,-52.23
50.625,-60.35
50.640,-68.18
50.656,-72.8
50.671,-70.95
50.687,-60.23
50.703,-40.31
50.718,-13.27
50.734,16.83
50.750,45.14
50.765,67.49
50.781,81.29
50.796,85.75
50.812,81.52
50.828,70.09
50.843,53.4
50.859,33.66
50.875,13.25
50.890,-5.45
50.906,-20.46
50.921,-30.84
50.937,-36.92
50.953,-40.2
50.968,-42.92
50.984,-47.21
51.000,-54.21
51.015,-63.49
51.031,-72.87
51.046,-78.76
51.062,-77.44
51.078,-66.22
51.093,-44.61
51.109,-14.75
51.125,19.23
51.140,52.44
51.156,80.54
51.171,100.76
51.187,112.01
51.203,114.46
51.218,108.96
51.234,96.73
51.250,79.37
51.265,58.89
51.281,37.73
51.296,18.21
51.312,2.09
51.328,-9.93
51.343,-18.28
51.359,-24.21
51.375,-29.31
51.390,-34.95
51.406,-41.87
51.421,-49.78
51.437,-57.19
51.453,-61.54
51.468,-59.83
51.484,-49.71
51.500,-30.45
51.515,-3.6
51.531,27.25
51.546,57.46
51.562,82.65
51.578,99.73
51.593,107.29
51.609,105.35
51.625,94.77
51.640,76.92
51.656,53.47
51.671,26.52
51.687,-1.43
51.703,-27.75
51.718,-50.15
51.734,-67.21
51.750,-78.62
51.765,-85.29
51.781,-88.82
51.796,-91.13
51.812,-93.62
51.828,-96.63
51.843,-99.04
51.859,-98.51
51.875,-92.25
51.890,-78.18
51.906,-55.88
51.921,-27.1
51.937,4.66
51.953,35.17
51.968,60.68
51.984,78.77
52.000,88.51
52.015,90.18
52.031,84.66
52.046,73.15
52.062,57.1
52.078,38.34
52.093,19.04
52.109,1.43
52.125,-12.8
52.140,-22.84
52.156,-29.1
52.171,-32.91
52.187,-36.07
52.203,-40.12
52.218,-45.79
52.234,-52.45
52.250,-58.15
52.265,-59.96
52.281,-54.92
52.296,-41.09
52.312,-18.48
52.328,10.72
52.343,42.59
52.359,72.5
52.375,96.37
52.390,111.47
52.406,116.7
52.421,112.46
52.437,100.15
52.453,81.93
52.468,60.31
52.484,37.96
52.500,17.25
52.515,-0.14
52.531,-13.5
52.546,-23.19
52.562,-30.41
52.578,-36.85
52.593,-44.09
52.609,-53.17
52.625,-64.02
52.640,-75.15
52.656,-83.77
52.671,-86.42
52.687,-80.16
52.703,-63.71
52.718,-38.23
52.734,-7.11
52.750,24.91
52.765,53.13
52.781,74.05
52.796,85.78
52.812,88.02
52.828,81.47
52.843,67.57
52.859,48.28
52.875,26.1
52.890,3.83
52.906,-15.84
52.921,-31.04
52.937,-41.2
52.953,-47.17
52.968,-50.91
52.984,-54.64
53.000,-60.01
53.015,-67.39
53.031,-75.53
53.046,-81.82
53.062,-82.91
53.078,-75.83
53.093,-58.96
53.109,-32.84
53.125,-0.18
53.140,34.82
53.156,67.48
53.171,93.86
53.187,111.49
53.203,119.54
53.218,118.49
53.234,109.58
53.250,94.37
53.265,74.64
53.281,52.37
53.296,29.71
53.312,8.83
53.328,-8.55
53.343,-21.64
53.359,-30.77
53.375,-37.3
53.390,-43.19
53.406,-50.27
53.421,-59.46
53.437,-70.35
53.453,-80.97
53.468,-88.27
53.484,-88.96
53.500,-80.63
53.515,-62.64
53.531,-36.59
53.546,-5.87
53.562,25.26
53.578,52.75
53.593,73.6
53.609,86.24
53.625,90.34
53.640,86.44
53.656,75.79
53.671,60.06
53.687,41.37
53.703,22.0
53.718,4.01
53.734,-11.17
53.750,-22.98
53.765,-31.79
53.781,-38.71
53.796,-45.13
53.812,-52.35
53.828,-61.02
53.843,-70.64
53.859,-79.45
53.875,-84.55
53.890,-82.85
53.906,-72.1
53.921,-52.0
53.937,-24.51
53.953,6.57
53.968,36.65
53.984,61.71
54.000,79.06
54.015,87.67
54.031,87.82
54.046,80.64
54.062,67.67
54.078,50.78
54.093,32.07
54.109,13.64
54.125,-2.7
54.140,-15.88
54.156,-25.76
54.171,-33.21
54.187,-39.66
54.203,-46.71
54.218,-55.54
54.234,-66.35
54.250,-78.1
54.265,-88.29
54.281,-93.58
54.296,-90.55
54.312,-77.02
54.328,-52.98
54.343,-20.88
54.359,14.95
54.375,49.5
54.390,78.42
54.406,98.91
54.421,109.83
54.437,111.32
54.453,104.31
54.468,90.16
54.484,70.66
54.500,48.03
54.515,24.84
54.531,3.56
54.546,-13.94
54.562,-26.84
54.578,-35.52
54.593,-41.28
54.609,-45.92
54.625,-51.09
54.640,-57.69
54.656,-65.25
54.671,-71.94
54.687,-74.75
54.703,-70.51
54.718,-57.11
54.734,-34.52
54.750,-5.16
54.765,26.73
54.781,56.34
54.796,79.79
54.812,94.88
54.828,101.29
54.843,99.78
54.859,91.5
54.875,77.58
54.890,59.2
54.906,37.94
54.921,15.96
54.937,-4.31
54.953,-20.82
54.968,-32.58
54.984,-39.99
55.000,-44.69
55.015,-48.82
55.031,-54.28
55.046,-62.06
55.062,-71.74
55.078,-81.47
55.093,-88.32
55.109,-89.04
55.125,-81.1
55.140,-63.66
55.156,-38.06
55.171,-7.64
55.187,23.12
55.203,49.87
55.218,69.39
55.234,80.13
55.250,82.11
55.265,76.4
55.281,64.66
55.296,48.88
55.312,31.27
55.328,14.13
55.343,-0.47
55.359,-11.11
55.375,-17.48
55.390,-20.4
55.406,-21.64
55.421,-23.38
55.437,-27.52
55.453,-35.14
55.468,-45.96
55.484,-58.23
55.500,-68.87
55.515,-74.19
55.531,-70.9
55.546,-57.35
55.562,-34.24
55.578,-4.63
55.593,26.85
55.609,55.38
55.625,77.18
55.640,90.19
55.656,94.06
55.671,89.66
55.687,78.45
55.703,62.2
55.718,42.93
55.734,22.83
55.750,4.14
55.765,-11.29
55.781,-22.56
55.796,-29.91
55.812,-34.68
55.828,-38.85
55.843,-44.36
55.859,-52.27
55.875,-62.29
55.890,-72.45
55.906,-79.54
55.921,-80.07
55.937,-71.4
55.953,-52.97
55.968,-26.58
55.984,3.89
56.000,33.78
56.015,58.92
56.031,76.68
56.046,86.18
56.062,87.81
56.078,82.6
56.093,71.6
56.109,55.98
56.125,37.11
56.140,16.87
56.156,-2.59
56.171,-19.24
56.187,-31.88
56.203,-40.46
56.218,-45.98
56.234,-50.2
56.250,-54.79
56.265,-60.79
56.281,-68.07
56.296,-75.16
56.312,-79.55
56.328,-78.34
56.343,-69.24
56.359,-51.42
56.375,-26.02
56.390,4.07
56.406,34.94
56.421,62.7
56.437,84.38
56.453,98.29
56.468,103.91
56.484,101.55
56.500,92.07
56.515,76.8
56.531,57.65
56.546,36.96
56.562,17.21
56.578,0.43
56.593,-12.3
56.609,-20.96
56.625,-26.51
56.640,-30.4
56.656,-34.14
56.671,-38.66
56.687,-44.03
56.703,-49.25
56.718,-52.25
56.734,-50.49
56.750,-41.7
56.765,-24.94
56.781,-1.18
56.796,26.68
56.812,54.65
56.828,78.73
56.843,95.96
56.859,104.91
56.875,105.52
56.890,98.63
56.906,85.41
56.921,67.23
56.937,45.66
56.953,22.71
56.968,0.68
56.984,-18.23
57.000,-32.56
57.015,-42.06
57.031,-47.76
57.046,-51.68
57.062,-56.01
57.078,-62.29
57.093,-70.65
57.109,-79.55
57.125,-86.02
57.140,-86.51
57.156,-78.07
57.171,-59.49
57.187,-31.89
57.203,1.41
57.218,35.77
57.234,66.54
57.250,90.18
57.265,104.83
57.281,110.25
57.296,107.24
57.312,97.14
57.328,81.54
57.343,62.34
57.359,41.82
57.375,22.41
57.390,6.26
57.406,-5.45
57.421,-12.8
57.437,-17.09
57.453,-20.31
57.468,-24.45
57.484,-30.85
57.500,-39.91
57.515,-50.85
57.531,-61.78
57.546,-69.99
57.562,-72.42
57.578,-66.63
57.593,-51.55
57.609,-28.18
57.625,0.52
57.640,30.37
57.656,57.16
57.671,77.64
57.687,90.09
57.703,94.17
57.718,90.39
57.734,79.73
57.750,63.54
57.765,43.57
57.781,22.1
57.796,1.71
57.812,-15.25
57.828,-27.38
57.843,-34.59
57.859,-38.17
57.875,-40.35
57.890,-43.52
57.906,-49.42
57.921,-58.41
57.937,-69.13
57.953,-78.66
57.968,-83.35
57.984,-79.96
58.000,-66.97
58.015,-45.23
58.031,-17.8
58.046,10.98
58.062,36.87
58.078,56.72
58.093,69.01
58.109,73.55
58.125,71.07
58.140,62.73
58.156,50.04
58.171,34.88
58.187,19.33
58.203,5.45
58.218,-5.4
58.234,-12.82
58.250,-17.52
58.265,-20.84
58.281,-24.36
58.296,-29.36
58.312,-36.45
58.328,-45.28
58.343,-54.37
58.359,-61.23
58.375,-62.87
58.390,-56.8
58.406,-42.0
58.421,-19.61
58.437,7.26
58.453,34.41
58.468,57.81
58.484,74.7
58.500,83.89
58.515,85.5
58.531,80.4
58.546,69.72
58.562,54.73
58.578,37.01
58.593,18.51
58.609,1.34
58.625,-12.7
58.640,-22.64
58.656,-28.76
58.671,-32.38
58.687,-35.5
58.703,-40.04
58.718,-47.11
58.734,-56.36
58.750,-65.79
58.765,-72.15
58.781,-71.82
58.796,-62.09
58.812,-42.26
58.828,-14.13
58.843,18.41
58.859,50.47
58.875,77.57
58.890,96.72
58.906,106.75
58.921,107.96
58.937,101.36
58.953,88.23
58.968,69.85
58.984,47.74
59.000,23.81
59.015,0.37
59.031,-20.34
59.046,-36.79
59.062,-48.53
59.078,-56.38
59.093,-61.98
59.109,-67.28
59.125,-73.84
59.140,-82.22
59.156,-91.69
59.171,-100.14
59.187,-104.57
59.203,-101.91
59.218,-90.07
59.234,-68.89
59.250,-40.4
59.265,-8.42
59.281,22.62
59.296,48.88
59.312,67.96
59.328,79.0
59.343,82.26
59.359,78.52
59.375,68.75
59.390,54.24
59.406,36.73
59.421,18.49
59.437,1.93
59.453,-10.99
59.468,-19.48
59.484,-24.02
59.500,-26.23
59.515,-28.23
59.531,-31.83
59.546,-37.85
59.562,-45.66
59.578,-53.27
59.593,-57.82
59.609,-56.34
59.625,-46.87
59.640,-29.17
59.656,-5.1
59.671,21.92
59.687,47.79
59.703,68.86
59.718,82.75
59.734,88.4
59.750,85.98
59.765,76.33
59.781,60.83
59.796,41.19
59.812,19.62
59.828,-1.37
59.843,-19.36
59.859,-32.59
59.875,-40.45
59.890,-43.53
59.906,-43.33
59.921,-41.72
59.937,-40.45
59.953,-40.53
59.968,-41.93
59.984,-43.35
