timestamp,value
00.000,-34.4
00.015,-41.01
00.031,-40.53
00.046,-36.81
00.062,-35.0
00.078,-39.1
00.093,-50.59
00.109,-68.24
00.125,-89.53
00.140,-112.2
00.156,-135.45
00.171,-160.17
00.187,-188.29
00.203,-221.63
00.218,-260.62
00.234,-303.64
00.250,-346.95
00.265,-385.11
00.281,-412.14
00.296,-423.18
00.312,-415.93
00.328,-391.52
00.343,-354.39
00.359,-310.84
00.375,-267.16
00.390,-228.23
00.406,-197.05
00.421,-175.06
00.437,-162.72
00.453,-159.55
00.468,-163.48
00.484,-170.38
00.500,-174.42
00.515,-169.6
00.531,-151.93
00.546,-121.25
00.562,-81.4
00.578,-39.09
00.593,-1.39
00.609,26.76
00.625,43.91
00.640,51.94
00.656,54.6
00.671,55.55
00.687,56.86
00.703,58.46
00.718,58.82
00.734,56.22
00.750,50.18
00.765,42.2
00.781,35.71
00.796,34.94
00.812,43.16
00.828,61.05
00.843,85.96
00.859,112.5
00.875,134.11
00.890,145.34
00.906,143.31
00.921,129.21
00.937,107.71
00.953,85.9
00.968,71.84
00.984,72.74
01.000,92.82
01.015,131.49
01.031,183.42
01.046,239.63
01.062,291.21
01.078,331.66
01.093,359.04
01.109,376.0
01.125,387.7
01.140,398.9
01.156,411.06
01.171,422.5
01.187,429.08
01.203,427.55
01.218,416.14
01.234,395.87
01.250,370.79
01.265,346.48
01.281,328.21
01.296,318.49
01.312,316.92
01.328,319.7
01.343,322.18
01.359,319.11
01.375,306.7
01.390,284.06
01.406,252.57
01.421,215.28
01.437,175.13
01.453,135.66
01.468,90.88
01.484,40.09
01.500,-13.23
01.515,-61.85
01.531,-97.2
01.546,-113.7
01.562,-106.67
01.578,-82.82
01.593,-51.8
01.609,-22.83
01.625,-0.76
01.640,12.59
01.656,15.62
01.671,8.89
01.687,-6.76
01.703,-30.25
01.718,-60.57
01.734,-94.86
01.750,-129.2
01.765,-158.87
01.781,-181.42
01.796,-197.51
01.812,-209.87
01.828,-221.04
01.843,-230.9
01.859,-236.45
01.875,-232.56
01.890,-216.28
01.906,-189.1
01.921,-158.01
01.937,-132.47
01.953,-119.7
01.968,-121.55
01.984,-134.37
02.000,-151.85
02.015,-167.83
02.031,-179.43
02.046,-186.76
02.062,-191.54
02.078,-195.04
02.093,-196.58
02.109,-194.2
02.125,-186.34
02.140,-173.14
02.156,-156.54
02.171,-139.96
02.187,-127.42
02.203,-122.27
02.218,-126.41
02.234,-139.94
02.250,-161.3
02.265,-188.02
02.281,-217.66
02.296,-248.0
02.312,-277.35
02.328,-304.56
02.343,-328.69
02.359,-349.03
02.375,-365.39
02.390,-378.72
02.406,-391.29
02.421,-405.89
02.437,-423.92
02.453,-444.07
02.468,-461.99
02.484,-471.85
02.500,-469.21
02.515,-453.27
02.531,-427.53
02.546,-398.33
02.562,-371.83
02.578,-351.18
02.593,-335.89
02.609,-322.71
02.625,-307.87
02.640,-288.99
02.656,-265.62
02.671,-238.58
02.687,-209.05
02.703,-177.95
02.718,-146.05
02.734,-114.73
02.750,-86.05
02.765,-62.41
02.781,-46.09
02.796,-38.25
02.812,-38.4
02.828,-44.51
02.843,-53.54
02.859,-62.45
02.875,-69.1
02.890,-72.54
02.906,-72.74
02.921,-70.36
02.937,-65.93
02.953,-59.52
02.968,-50.78
02.984,-39.29
03.000,-24.96
03.015,-8.38
03.031,9.35
03.046,27.26
03.062,44.76
03.078,62.04
03.093,79.9
03.109,99.23
03.125,120.37
03.140,142.7
03.156,164.59
03.171,184.16
03.187,200.06
03.203,212.18
03.218,221.9
03.234,231.6
03.250,243.66
03.265,259.44
03.281,278.79
03.296,300.12
03.312,321.28
03.328,340.51
03.343,357.3
03.359,372.58
03.375,388.46
03.390,407.58
03.406,432.18
03.421,462.93
03.437,497.77
03.453,531.16
03.468,554.54
03.484,558.23
03.500,534.67
03.515,481.67
03.531,404.23
03.546,313.73
03.562,224.54
03.578,149.33
03.593,95.24
03.609,62.57
03.625,46.39
03.640,40.01
03.656,38.3
03.671,39.48
03.687,44.8
03.703,56.76
03.718,76.97
03.734,104.75
03.750,136.9
03.765,168.64
03.781,195.31
03.796,213.9
03.812,223.75
03.828,226.1
03.843,222.92
03.859,215.58
03.875,204.04
03.890,187.29
03.906,164.48
03.921,136.1
03.937,104.37
03.953,72.59
03.968,44.04
03.984,20.72
04.000,3.11
04.015,-9.65
04.031,-19.04
04.046,-27.0
04.062,-35.84
04.078,-48.11
04.093,-65.8
04.109,-89.16
04.125,-115.96
04.140,-141.86
04.156,-161.9
04.171,-172.73
04.187,-174.34
04.203,-170.4
04.218,-166.65
04.234,-168.18
04.250,-176.72
04.265,-189.81
04.281,-202.2
04.296,-208.92
04.312,-208.12
04.328,-202.09
04.343,-196.06
04.359,-195.15
04.375,-201.62
04.390,-213.58
04.406,-225.86
04.421,-232.16
04.437,-227.28
04.453,-208.58
04.468,-175.95
04.484,-131.44
04.500,-78.67
04.515,-22.53
04.531,31.59
04.546,78.68
04.562,115.34
04.578,140.51
04.593,155.27
04.609,161.88
04.625,162.78
04.640,159.98
04.656,155.18
04.671,150.2
04.687,147.17
04.703,148.05
04.718,153.7
04.734,162.86
04.750,172.22
04.765,177.49
04.781,175.16
04.796,164.17
04.812,146.39
04.828,125.96
04.843,107.31
04.859,93.31
04.875,84.01
04.890,76.77
04.906,67.67
04.921,53.2
04.937,31.67
04.953,3.63
04.968,-28.69
04.984,-62.42
05.000,-94.9
05.015,-124.16
05.031,-148.76
05.046,-167.55
05.062,-179.78
05.078,-185.43
05.093,-185.7
05.109,-183.01
05.125,-180.5
05.140,-180.85
05.156,-185.13
05.171,-192.2
05.187,-199.1
05.203,-202.26
05.218,-199.16
05.234,-189.4
05.250,-175.01
05.265,-159.49
05.281,-146.39
05.296,-137.82
05.312,-133.76
05.328,-132.27
05.343,-130.48
05.359,-125.72
05.375,-116.4
05.390,-101.99
05.406,-82.61
05.421,-58.59
05.437,-30.37
05.453,1.1
05.468,33.95
05.484,65.4
05.500,92.52
05.515,112.88
05.531,125.02
05.546,128.39
05.562,123.12
05.578,110.03
05.593,90.75
05.609,68.17
05.625,46.11
05.640,28.52
05.656,18.15
05.671,15.63
05.687,19.35
05.703,26.21
05.718,32.82
05.734,36.52
05.750,35.98
05.765,31.04
05.781,22.35
05.796,10.6
05.812,-4.02
05.828,-22.03
05.843,-44.26
05.859,-70.85
05.875,-100.25
05.890,-128.83
05.906,-151.77
05.921,-164.98
05.937,-167.07
05.953,-160.09
05.968,-148.36
05.984,-136.06
06.000,-124.82
06.015,-112.89
06.031,-96.55
06.046,-72.56
06.062,-40.3
06.078,-2.18
06.093,37.76
06.109,76.22
06.125,112.48
06.140,148.31
06.156,186.12
06.171,226.44
06.187,266.31
06.203,299.68
06.218,319.71
06.234,321.89
06.250,306.14
06.265,276.67
06.281,240.14
06.296,203.02
06.312,169.6
06.328,141.47
06.343,118.54
06.359,100.46
06.375,87.34
06.390,79.46
06.406,76.12
06.421,74.96
06.437,72.19
06.453,63.92
06.468,47.75
06.484,23.74
06.500,-5.9
06.515,-37.69
06.531,-67.75
06.546,-92.01
06.562,-106.07
06.578,-105.47
06.593,-87.03
06.609,-50.82
06.625,-1.34
06.640,52.79
06.656,101.3
06.671,135.75
06.687,152.29
06.703,152.21
06.718,140.34
06.734,122.28
06.750,102.23
06.765,82.39
06.781,63.68
06.796,47.15
06.812,34.54
06.828,27.97
06.843,28.66
06.859,36.23
06.875,48.59
06.890,62.88
06.906,76.62
06.921,88.62
06.937,98.98
06.953,108.45
06.968,117.47
06.984,125.29
07.000,130.01
07.015,128.76
07.031,118.65
07.046,97.5
07.062,64.58
07.078,21.07
07.093,-29.74
07.109,-82.71
07.125,-131.82
07.140,-171.53
07.156,-198.57
07.171,-212.64
07.187,-215.96
07.203,-211.77
07.218,-202.56
07.234,-189.17
07.250,-171.3
07.265,-149.08
07.281,-124.4
07.296,-101.39
07.312,-85.18
07.328,-79.95
07.343,-87.06
07.359,-104.46
07.375,-127.57
07.390,-151.11
07.406,-170.95
07.421,-184.97
07.437,-192.89
07.453,-195.36
07.468,-192.78
07.484,-184.7
07.500,-169.91
07.515,-147.17
07.531,-116.43
07.546,-79.57
07.562,-40.4
07.578,-3.88
07.593,25.47
07.609,45.03
07.625,54.85
07.640,57.51
07.656,56.92
07.671,56.78
07.687,59.46
07.703,65.48
07.718,73.96
07.734,83.55
07.750,93.23
07.765,102.62
07.781,111.7
07.796,120.12
07.812,126.7
07.828,129.49
07.843,126.44
07.859,116.48
07.875,100.46
07.890,81.23
07.906,62.79
07.921,48.61
07.937,40.17
07.953,36.14
07.968,32.91
07.984,26.34
08.000,13.49
08.015,-6.11
08.031,-30.45
08.046,-56.3
08.062,-80.82
08.078,-102.77
08.093,-122.7
08.109,-142.3
08.125,-163.25
08.140,-186.58
08.156,-212.4
08.171,-240.06
08.187,-268.32
08.203,-295.23
08.218,-317.89
08.234,-332.49
08.250,-334.89
08.265,-321.78
08.281,-292.04
08.296,-247.48
08.312,-192.62
08.328,-133.4
08.343,-75.42
08.359,-22.54
08.375,23.78
08.390,64.07
08.406,99.81
08.421,132.34
08.437,162.17
08.453,188.93
08.468,211.68
08.484,229.6
08.500,242.26
08.515,249.59
08.531,251.7
08.546,248.7
08.562,240.66
08.578,227.75
08.593,210.33
08.609,188.76
08.625,163.27
08.640,133.88
08.656,100.48
08.671,63.16
08.687,22.41
08.703,-20.58
08.718,-64.02
08.734,-105.69
08.750,-143.38
08.765,-175.42
08.781,-200.81
08.796,-219.36
08.812,-231.35
08.828,-237.23
08.843,-237.26
08.859,-231.59
08.875,-220.57
08.890,-205.12
08.906,-187.13
08.921,-169.17
08.937,-153.92
08.953,-143.21
08.968,-137.24
08.984,-134.39
09.000,-131.7
09.015,-125.85
09.031,-114.12
09.046,-95.24
09.062,-69.49
09.078,-38.58
09.093,-5.08
09.109,28.24
09.125,59.0
09.140,85.67
09.156,107.73
09.171,125.7
09.187,140.64
09.203,153.67
09.218,165.33
09.234,175.33
09.250,182.85
09.265,186.99
09.281,187.51
09.296,184.95
09.312,180.5
09.328,175.14
09.343,169.27
09.359,162.46
09.375,153.88
09.390,142.98
09.406,129.9
09.421,115.52
09.437,101.1
09.453,87.7
09.468,75.84
09.484,65.56
09.500,56.62
09.515,48.79
09.531,41.97
09.546,36.05
09.562,30.72
09.578,25.47
09.593,19.74
09.609,13.35
09.625,6.81
09.640,1.36
09.656,-1.45
09.671,-0.48
09.687,4.44
09.703,12.28
09.718,21.19
09.734,29.21
09.750,34.95
09.765,38.06
09.781,39.01
09.796,38.68
09.812,37.91
09.828,37.24
09.843,37.09
09.859,37.88
09.875,40.1
09.890,44.03
09.906,49.5
09.921,55.72
09.937,61.44
09.953,65.42
09.968,66.97
09.984,66.32
10.000,64.5
10.015,62.99
10.031,63.17
10.046,65.94
10.062,71.57
10.078,79.96
10.093,90.77
10.109,103.51
10.125,117.24
10.140,130.2
10.156,139.9
10.171,143.56
10.187,139.27
10.203,126.81
10.218,108.04
10.234,86.38
10.250,65.85
10.265,50.02
10.281,41.27
10.296,40.49
10.312,46.94
10.328,58.29
10.343,70.6
10.359,79.03
10.375,78.99
10.390,67.89
10.406,46.53
10.421,19.38
10.437,-6.69
10.453,-24.91
10.468,-31.17
10.484,-25.55
10.500,-12.1
10.515,3.0
10.531,13.49
10.546,15.21
10.562,7.01
10.578,-9.3
10.593,-29.74
10.609,-49.02
10.625,-61.78
10.640,-63.52
10.656,-51.85
10.671,-27.61
10.687,4.9
10.703,38.61
10.718,65.78
10.734,80.71
10.750,81.86
10.765,72.38
10.781,58.76
10.796,47.91
10.812,44.04
10.828,47.22
10.843,53.89
10.859,59.19
10.875,59.76
10.890,55.35
10.906,48.5
10.921,42.81
10.937,40.94
10.953,43.7
10.968,50.54
10.984,60.55
11.000,73.29
11.015,88.64
11.031,105.66
11.046,121.93
11.062,133.85
11.078,137.87
11.093,132.24
11.109,117.98
11.125,98.55
11.140,78.33
11.156,61.04
11.171,48.43
11.187,40.24
11.203,34.86
11.218,30.09
11.234,24.13
11.250,15.97
11.265,5.52
11.281,-6.54
11.296,-19.22
11.312,-31.86
11.328,-44.59
11.343,-58.29
11.359,-74.42
11.375,-94.33
11.390,-118.7
11.406,-147.35
11.421,-179.42
11.437,-213.86
11.453,-249.86
11.468,-287.09
11.484,-325.35
11.500,-364.36
11.515,-403.53
11.531,-442.32
11.546,-480.94
11.562,-520.21
11.578,-560.78
11.593,-601.45
11.609,-638.16
11.625,-664.2
11.640,-672.23
11.656,-657.23
11.671,-618.72
11.687,-560.97
11.703,-490.95
11.718,-415.73
11.734,-340.87
11.750,-270.73
11.765,-209.74
11.781,-163.11
11.796,-135.41
11.812,-127.83
11.828,-135.81
11.843,-149.2
11.859,-155.57
11.875,-145.2
11.890,-114.97
11.906,-68.92
11.921,-15.63
11.937,36.29
11.953,81.87
11.968,120.97
11.984,156.95
12.000,193.99
12.015,234.54
12.031,277.95
12.046,320.77
12.062,357.8
12.078,383.6
12.093,393.92
12.109,386.64
12.125,362.03
12.140,322.72
12.156,272.86
12.171,217.11
12.187,159.67
12.203,103.27
12.218,48.91
12.234,-4.21
12.250,-58.09
12.265,-114.63
12.281,-174.2
12.296,-234.78
12.312,-292.07
12.328,-340.78
12.343,-376.66
12.359,-397.89
12.375,-405.51
12.390,-402.41
12.406,-391.75
12.421,-375.71
12.437,-355.11
12.453,-330.01
12.468,-300.71
12.484,-268.51
12.500,-235.28
12.515,-202.88
12.531,-172.35
12.546,-143.83
12.562,-116.99
12.578,-91.81
12.593,-69.08
12.609,-50.19
12.625,-36.64
12.640,-29.06
12.656,-26.72
12.671,-27.59
12.687,-28.92
12.703,-28.32
12.718,-24.44
12.734,-17.39
12.750,-8.33
12.765,1.25
12.781,10.38
12.796,19.04
12.812,28.09
12.828,38.75
12.843,51.86
12.859,67.39
12.875,84.51
12.890,101.89
12.906,118.35
12.921,133.23
12.937,146.73
12.953,159.58
12.968,172.91
12.984,187.98
13.000,205.83
13.015,226.77
13.031,249.78
13.046,272.18
13.062,289.88
13.078,298.47
13.093,294.96
13.109,278.94
13.125,252.88
13.140,221.2
13.156,188.52
13.171,158.27
13.187,132.13
13.203,110.63
13.218,94.05
13.234,83.01
13.250,78.23
13.265,79.81
13.281,86.62
13.296,96.38
13.312,106.45
13.328,114.78
13.343,120.48
13.359,123.65
13.375,125.04
13.390,125.39
13.406,125.17
13.421,124.6
13.437,123.81
13.453,122.78
13.468,121.44
13.484,119.72
13.500,117.78
13.515,116.16
13.531,115.71
13.546,117.1
13.562,120.3
13.578,124.28
13.593,127.41
13.609,128.14
13.625,125.72
13.640,120.46
13.656,113.25
13.671,105.0
13.687,96.23
13.703,87.2
13.718,78.37
13.734,70.56
13.750,64.81
13.765,61.76
13.781,61.22
13.796,62.11
13.812,63.06
13.828,63.27
13.843,62.94
13.859,63.15
13.875,64.97
13.890,68.61
13.906,73.05
13.921,76.38
13.937,76.76
13.953,73.33
13.968,66.81
13.984,59.23
14.000,53.11
14.015,50.38
14.031,51.47
14.046,55.08
14.062,58.54
14.078,58.72
14.093,52.77
14.109,38.71
14.125,15.55
14.140,-16.52
14.156,-56.28
14.171,-101.57
14.187,-149.39
14.203,-196.49
14.218,-239.92
14.234,-277.82
14.250,-309.56
14.265,-334.96
14.281,-353.05
14.296,-361.43
14.312,-356.43
14.328,-334.66
14.343,-295.04
14.359,-240.04
14.375,-175.84
14.390,-110.71
14.406,-52.5
14.421,-6.49
14.437,25.81
14.453,46.31
14.468,58.81
14.484,67.16
14.500,73.94
14.515,79.85
14.531,84.11
14.546,85.4
14.562,82.87
14.578,77.18
14.593,70.59
14.609,66.08
14.625,65.71
14.640,69.5
14.656,75.04
14.671,78.49
14.687,76.43
14.703,67.5
14.718,53.26
14.734,37.57
14.750,24.72
14.765,17.57
14.781,16.56
14.796,19.77
14.812,24.17
14.828,27.08
14.843,27.18
14.859,24.75
14.875,21.22
14.890,18.4
14.906,17.68
14.921,19.49
14.937,23.19
14.953,27.26
14.968,30.11
14.984,30.71
15.000,29.03
15.015,26.04
15.031,22.95
15.046,20.58
15.062,18.97
15.078,17.6
15.093,15.94
15.109,13.98
15.125,12.34
15.140,11.69
15.156,12.24
15.171,13.39
15.187,14.19
15.203,13.84
15.218,12.47
15.234,11.18
15.250,11.61
15.265,14.95
15.281,21.15
15.296,29.0
15.312,36.31
15.328,41.22
15.343,42.63
15.359,41.07
15.375,37.92
15.390,35.23
15.406,34.55
15.421,36.59
15.437,41.21
15.453,47.11
15.468,52.45
15.484,55.22
15.500,53.91
15.515,47.99
15.531,38.41
15.546,27.3
15.562,17.35
15.578,10.93
15.593,9.33
15.609,12.7
15.625,20.43
15.640,31.69
15.656,45.79
15.671,62.2
15.687,80.2
15.703,98.57
15.718,115.53
15.734,129.06
15.750,137.58
15.765,140.58
15.781,138.63
15.796,133.46
15.812,127.13
15.828,121.56
15.843,117.48
15.859,114.78
15.875,112.21
15.890,108.43
15.906,102.59
15.921,94.75
15.937,86.12
15.953,78.22
15.968,72.34
15.984,69.37
16.000,69.96
16.015,74.17
16.031,81.64
16.046,91.18
16.062,100.66
16.078,107.55
16.093,109.68
16.109,106.41
16.125,99.26
16.140,91.6
16.156,86.89
16.171,87.06
16.187,91.33
16.203,96.75
16.218,100.08
16.234,99.81
16.250,97.29
16.265,95.84
16.281,98.78
16.296,107.33
16.312,119.99
16.328,133.31
16.343,143.65
16.359,148.78
16.375,148.21
16.390,142.64
16.406,132.9
16.421,119.82
16.437,104.51
16.453,89.02
16.468,76.38
16.484,69.95
16.500,72.35
16.515,84.33
16.531,104.58
16.546,130.1
16.562,157.08
16.578,181.79
16.593,201.05
16.609,212.63
16.625,215.26
16.640,208.71
16.656,193.51
16.671,170.67
16.687,141.53
16.703,107.61
16.718,70.64
16.734,32.35
16.750,-5.5
16.765,-41.59
16.781,-75.12
16.796,-105.86
16.812,-134.05
16.828,-160.05
16.843,-184.04
16.859,-205.66
16.875,-224.21
16.890,-238.86
16.906,-249.33
16.921,-256.24
16.937,-261.07
16.953,-265.83
16.968,-272.35
16.984,-281.69
17.000,-293.77
17.015,-307.87
17.031,-322.94
17.046,-338.43
17.062,-354.63
17.078,-372.52
17.093,-393.57
17.109,-419.42
17.125,-451.75
17.140,-491.88
17.156,-539.89
17.171,-593.42
17.187,-646.81
17.203,-691.73
17.218,-719.4
17.234,-723.74
17.250,-703.75
17.265,-664.0
17.281,-612.68
17.296,-558.44
17.312,-507.56
17.328,-462.65
17.343,-423.4
17.359,-388.46
17.375,-357.06
17.390,-329.25
17.406,-305.21
17.421,-284.33
17.437,-265.0
17.453,-245.18
17.468,-223.43
17.484,-199.63
17.500,-174.77
17.515,-150.59
17.531,-128.45
17.546,-108.72
17.562,-90.76
17.578,-73.3
17.593,-55.28
17.609,-36.42
17.625,-17.56
17.640,-0.14
17.656,14.45
17.671,25.53
17.687,33.51
17.703,39.62
17.718,45.34
17.734,51.67
17.750,58.7
17.765,65.67
17.781,71.74
17.796,76.81
17.812,81.88
17.828,88.92
17.843,100.16
17.859,117.14
17.875,139.97
17.890,167.15
17.906,196.14
17.921,224.55
17.937,251.05
17.953,275.72
17.968,299.86
17.984,325.24
18.000,353.16
18.015,383.9
18.031,416.65
18.046,449.18
18.062,478.09
18.078,499.04
18.093,507.65
18.109,501.26
18.125,479.98
18.140,447.39
18.156,409.44
18.171,372.37
18.187,339.78
18.203,311.09
18.218,282.42
18.234,249.31
18.250,209.91
18.265,166.35
18.281,123.71
18.296,86.93
18.312,57.72
18.328,33.48
18.343,8.51
18.359,-23.23
18.375,-65.13
18.390,-116.13
18.406,-171.09
18.421,-222.21
18.437,-261.64
18.453,-283.99
18.468,-287.63
18.484,-274.37
18.500,-248.5
18.515,-214.84
18.531,-176.96
18.546,-136.78
18.562,-94.91
18.578,-51.62
18.593,-8.03
18.609,34.22
18.625,73.18
18.640,106.84
18.656,132.75
18.671,148.09
18.687,149.75
18.703,135.38
18.718,104.84
18.734,60.71
18.750,7.29
18.765,-51.35
18.781,-112.87
18.796,-176.45
18.812,-240.96
18.828,-302.87
18.843,-355.59
18.859,-391.21
18.875,-403.98
18.890,-393.25
18.906,-364.3
18.921,-326.29
18.937,-288.38
18.953,-256.38
18.968,-231.35
18.984,-210.69
19.000,-190.73
19.015,-169.14
19.031,-145.58
19.046,-121.09
19.062,-96.51
19.078,-71.55
19.093,-44.63
19.109,-13.93
19.125,21.44
19.140,60.72
19.156,101.45
19.171,140.27
19.187,174.05
19.203,200.62
19.218,219.11
19.234,229.85
19.250,233.85
19.265,232.25
19.281,225.95
19.296,215.63
19.312,201.9
19.328,185.58
19.343,167.8
19.359,149.93
19.375,133.49
19.390,119.83
19.406,109.97
19.421,104.47
19.437,103.5
19.453,107.17
19.468,115.78
19.484,129.97
19.500,150.3
19.515,176.43
19.531,206.26
19.546,235.75
19.562,259.57
19.578,272.73
19.593,272.28
19.609,258.39
19.625,234.1
19.640,203.99
19.656,172.5
19.671,142.68
19.687,115.92
19.703,92.44
19.718,71.86
19.734,53.49
19.750,36.39
19.765,19.29
19.781,0.93
19.796,-19.39
19.812,-41.22
19.828,-63.01
19.843,-82.54
19.859,-97.87
19.875,-107.9
19.890,-112.53
19.906,-112.34
19.921,-108.12
19.937,-100.61
19.953,-90.46
19.968,-78.44
19.984,-65.43
20.000,-52.4
20.015,-40.19
20.031,-29.55
20.046,-21.04
20.062,-15.21
20.078,-12.5
20.093,-13.02
20.109,-16.25
20.125,-20.73
20.140,-24.3
20.156,-24.69
20.171,-20.28
20.187,-10.71
20.203,2.97
20.218,18.9
20.234,35.15
20.250,50.55
20.265,65.01
20.281,79.24
20.296,94.02
20.312,109.6
20.328,125.45
20.343,140.47
20.359,153.66
20.375,164.45
20.390,172.79
20.406,178.85
20.421,182.62
20.437,183.66
20.453,181.29
20.468,174.91
20.484,164.48
20.500,150.67
20.515,134.86
20.531,118.77
20.546,104.08
20.562,91.9
20.578,82.57
20.593,75.68
20.609,70.32
20.625,65.53
20.640,60.63
20.656,55.42
20.671,50.09
20.687,45.01
20.703,40.38
20.718,36.13
20.734,31.99
20.750,27.66
20.765,23.11
20.781,18.61
20.796,14.71
20.812,11.91
20.828,10.47
20.843,10.21
20.859,10.51
20.875,10.55
20.890,9.61
20.906,7.4
20.921,4.08
20.937,0.23
20.953,-3.55
20.968,-6.88
20.984,-9.72
21.000,-12.37
21.015,-15.21
21.031,-18.51
21.046,-22.19
21.062,-25.86
21.078,-28.94
21.093,-30.87
21.109,-31.29
21.125,-30.12
21.140,-27.39
21.156,-23.18
21.171,-17.56
21.187,-10.44
21.203,-1.77
21.218,8.41
21.234,19.91
21.250,32.46
21.265,45.7
21.281,59.38
21.296,73.42
21.312,87.79
21.328,102.73
21.343,118.37
21.359,134.66
21.375,151.34
21.390,168.12
21.406,184.67
21.421,201.1
21.437,217.84
21.453,235.18
21.468,253.68
21.484,273.18
21.500,292.72
21.515,310.76
21.531,325.64
21.546,335.54
21.562,339.49
21.578,336.97
21.593,327.4
21.609,311.16
21.625,288.82
21.640,261.29
21.656,229.93
21.671,196.44
21.687,161.86
21.703,127.53
21.718,94.29
21.734,62.18
21.750,31.97
21.765,4.34
21.781,-20.23
21.796,-41.51
21.812,-59.49
21.828,-75.11
21.843,-88.17
21.859,-97.89
21.875,-110.78
21.890,-129.82
21.906,-154.98
21.921,-183.27
21.937,-209.91
21.953,-225.45
21.968,-229.52
21.984,-224.64
22.000,-213.8
22.015,-199.48
22.031,-183.49
22.046,-166.55
22.062,-149.44
22.078,-133.42
22.093,-120.05
22.109,-111.69
22.125,-109.16
22.140,-112.25
22.156,-120.14
22.171,-130.8
22.187,-142.26
22.203,-153.35
22.218,-163.74
22.234,-173.87
22.250,-185.13
22.265,-198.07
22.281,-212.72
22.296,-229.1
22.312,-246.68
22.328,-265.19
22.343,-284.87
22.359,-306.31
22.375,-330.31
22.390,-358.1
22.406,-390.43
22.421,-427.59
22.437,-469.2
22.453,-513.22
22.468,-555.89
22.484,-592.32
22.500,-617.52
22.515,-627.81
22.531,-621.89
22.546,-600.57
22.562,-566.21
22.578,-522.02
22.593,-471.27
22.609,-417.16
22.625,-362.95
22.640,-311.9
22.656,-266.87
22.671,-229.65
22.687,-200.33
22.703,-177.45
22.718,-158.54
22.734,-141.07
22.750,-123.09
22.765,-103.42
22.781,-81.64
22.796,-57.92
22.812,-32.74
22.828,-6.76
22.843,19.23
22.859,44.39
22.875,67.75
22.890,88.27
22.906,104.85
22.921,116.46
22.937,122.42
22.953,122.6
22.968,117.55
22.984,108.5
23.000,97.19
23.015,85.55
23.031,75.19
23.046,67.22
23.062,62.01
23.078,59.45
23.093,59.08
23.109,60.46
23.125,63.38
23.140,67.93
23.156,74.26
23.171,82.4
23.187,92.08
23.203,102.72
23.218,113.67
23.234,124.46
23.250,134.98
23.265,145.62
23.281,157.17
23.296,170.62
23.312,187.08
23.328,207.55
23.343,232.4
23.359,260.95
23.375,290.99
23.390,318.86
23.406,340.21
23.421,351.3
23.437,350.31
23.453,338.12
23.468,318.0
23.484,294.32
23.500,271.06
23.515,250.64
23.531,233.61
23.546,219.21
23.562,206.28
23.578,193.85
23.593,181.39
23.609,168.53
23.625,154.82
23.640,139.82
23.656,123.33
23.671,105.68
23.687,87.87
23.703,71.25
23.718,57.03
23.734,45.87
23.750,37.65
23.765,31.67
23.781,27.09
23.796,23.26
23.812,19.94
23.828,17.19
23.843,15.16
23.859,13.76
23.875,12.67
23.890,11.27
23.906,8.92
23.921,5.25
23.937,0.3
23.953,-5.36
23.968,-10.83
23.984,-15.22
24.000,-18.01
24.015,-19.15
24.031,-19.1
24.046,-18.49
24.062,-18.01
24.078,-18.17
24.093,-19.32
24.109,-21.54
24.125,-24.75
24.140,-28.76
24.156,-33.39
24.171,-38.59
24.187,-44.52
24.203,-51.42
24.218,-59.25
24.234,-67.3
24.250,-73.95
24.265,-76.95
24.281,-74.24
24.296,-64.78
24.312,-49.14
24.328,-29.51
24.343,-8.89
24.359,9.95
24.375,25.5
24.390,37.89
24.406,48.55
24.421,59.24
24.437,70.95
24.453,83.11
24.468,93.71
24.484,100.5
24.500,102.42
24.515,100.68
24.531,98.86
24.546,102.05
24.562,115.43
24.578,142.76
24.593,185.2
24.609,240.42
24.625,302.37
24.640,361.58
24.656,406.81
24.671,427.99
24.687,419.32
24.703,381.2
24.718,319.91
24.734,244.96
24.750,165.88
24.765,89.92
24.781,21.26
24.796,-37.98
24.812,-86.64
24.828,-124.13
24.843,-150.92
24.859,-169.12
24.875,-182.03
24.890,-192.96
24.906,-203.93
24.921,-215.3
24.937,-226.03
24.953,-234.86
24.968,-240.87
24.984,-243.54
25.000,-242.45
25.015,-237.14
25.031,-227.6
25.046,-214.71
25.062,-200.39
25.078,-186.86
25.093,-175.7
25.109,-167.0
25.125,-159.08
25.140,-148.88
25.156,-132.79
25.171,-107.8
25.187,-72.57
25.203,-28.03
25.218,22.58
25.234,74.3
25.250,121.67
25.265,160.19
25.281,187.21
25.296,202.14
25.312,205.99
25.328,200.4
25.343,187.01
25.359,167.03
25.375,141.55
25.390,112.08
25.406,80.77
25.421,50.25
25.437,23.05
25.453,0.7
25.468,-16.72
25.484,-30.42
25.500,-42.14
25.515,-53.2
25.531,-63.79
25.546,-73.13
25.562,-80.24
25.578,-84.77
25.593,-87.35
25.609,-89.11
25.625,-90.69
25.640,-91.7
25.656,-90.88
25.671,-86.94
25.687,-79.39
25.703,-68.96
25.718,-57.31
25.734,-46.29
25.750,-37.4
25.765,-31.57
25.781,-29.37
25.796,-31.29
25.812,-37.59
25.828,-48.09
25.843,-61.79
25.859,-76.93
25.875,-91.42
25.890,-103.67
25.906,-113.28
25.921,-121.29
25.937,-129.68
25.953,-140.31
25.968,-153.97
25.984,-169.89
26.000,-185.86
26.015,-199.07
26.031,-206.96
26.046,-207.65
26.062,-200.05
26.078,-183.69
26.093,-158.71
26.109,-126.2
26.125,-88.45
26.140,-48.76
26.156,-10.77
26.171,22.6
26.187,49.92
26.203,71.3
26.218,87.62
26.234,99.74
26.250,107.83
26.265,111.48
26.281,110.32
26.296,104.53
26.312,95.08
26.328,83.52
26.343,71.39
26.359,59.86
26.375,49.59
26.390,40.84
26.406,33.75
26.421,28.49
26.437,25.18
26.453,23.75
26.468,23.68
26.484,23.94
26.500,23.29
26.515,20.65
26.531,15.63
26.546,8.78
26.562,1.61
26.578,-3.97
26.593,-6.3
26.609,-4.64
26.625,0.54
26.640,7.72
26.656,14.9
26.671,20.23
26.687,22.56
26.703,21.72
26.718,18.22
26.734,12.88
26.750,6.24
26.765,-1.65
26.781,-11.1
26.796,-22.28
26.812,-34.65
26.828,-46.71
26.843,-56.31
26.859,-61.41
26.875,-60.92
26.890,-55.29
26.906,-46.33
26.921,-36.59
26.937,-28.46
26.953,-23.51
26.968,-22.2
26.984,-24.18
27.000,-28.75
27.015,-35.2
27.031,-42.87
27.046,-51.09
27.062,-59.0
27.078,-65.54
27.093,-69.63
27.109,-70.37
27.125,-67.26
27.140,-60.45
27.156,-50.7
27.171,-39.27
27.187,-27.64
27.203,-16.96
27.218,-7.75
27.234,0.27
27.250,7.93
27.265,16.22
27.281,25.71
27.296,36.41
27.312,47.84
27.328,59.42
27.343,70.84
27.359,82.08
27.375,93.31
27.390,104.52
27.406,115.31
27.421,124.82
27.437,132.01
27.453,135.82
27.468,135.38
27.484,130.16
27.500,119.87
27.515,104.72
27.531,85.54
27.546,64.02
27.562,42.63
27.578,24.19
27.593,11.06
27.609,4.45
27.625,4.08
27.640,8.29
27.656,14.7
27.671,20.95
27.687,25.31
27.703,26.95
27.718,25.91
27.734,22.8
27.750,18.35
27.765,13.23
27.781,7.73
27.796,1.88
27.812,-4.52
27.828,-11.59
27.843,-19.26
27.859,-27.1
27.875,-34.43
27.890,-40.59
27.906,-45.03
27.921,-47.43
27.937,-47.67
27.953,-45.75
27.968,-41.9
27.984,-36.51
28.000,-30.18
28.015,-23.66
28.031,-17.72
28.046,-12.97
28.062,-9.78
28.078,-8.26
28.093,-8.19
28.109,-9.22
28.125,-10.82
28.140,-12.51
28.156,-13.88
28.171,-14.72
28.187,-15.01
28.203,-14.86
28.218,-14.36
28.234,-13.46
28.250,-11.99
28.265,-9.69
28.281,-6.49
28.296,-2.55
28.312,1.68
28.328,5.64
28.343,8.86
28.359,11.11
28.375,12.44
28.390,13.14
28.406,13.5
28.421,13.67
28.437,13.61
28.453,13.11
28.468,11.99
28.484,10.24
28.500,8.07
28.515,5.9
28.531,4.19
28.546,3.26
28.562,3.17
28.578,3.76
28.593,4.71
28.609,5.67
28.625,6.31
28.640,6.4
28.656,5.83
28.671,4.58
28.687,2.78
28.703,0.66
28.718,-1.42
28.734,-3.12
28.750,-4.19
28.765,-4.58
28.781,-4.48
28.796,-4.08
28.812,-3.58
28.828,-2.91
28.843,-1.84
28.859,-0.06
28.875,2.57
28.890,5.86
28.906,9.34
28.921,12.44
28.937,14.79
28.953,16.19
28.968,16.74
28.984,16.58
29.000,15.82
29.015,14.46
29.031,12.51
29.046,10.04
29.062,7.23
29.078,4.34
29.093,1.59
29.109,-0.84
29.125,-2.82
29.140,-4.23
29.156,-5.02
29.171,-5.2
29.187,-4.91
29.203,-4.42
29.218,-4.08
29.234,-4.19
29.250,-4.93
29.265,-6.32
29.281,-8.21
29.296,-10.29
29.312,-12.06
29.328,-12.91
29.343,-12.29
29.359,-9.87
29.375,-5.71
29.390,-0.25
29.406,5.87
29.421,12.03
29.437,17.8
29.453,22.97
29.468,27.28
29.484,30.37
29.500,31.72
29.515,30.91
29.531,27.91
29.546,23.25
29.562,18.0
29.578,13.56
29.593,11.34
29.609,12.4
29.625,17.32
29.640,26.01
29.656,37.56
29.671,50.26
29.687,61.68
29.703,69.17
29.718,70.56
29.734,64.87
29.750,52.67
29.765,35.9
29.781,17.22
29.796,-0.91
29.812,-16.78
29.828,-29.7
29.843,-39.78
29.859,-47.58
29.875,-53.71
29.890,-58.61
29.906,-62.48
29.921,-65.23
29.937,-66.47
29.953,-65.49
29.968,-61.48
29.984,-53.69
30.000,-41.86
30.015,-26.41
30.031,-8.39
30.046,10.79
30.062,29.72
30.078,47.23
30.093,62.32
30.109,73.99
30.125,81.28
30.140,83.43
30.156,80.34
30.171,72.81
30.187,62.45
30.203,51.17
30.218,40.59
30.234,31.65
30.250,24.6
30.265,19.31
30.281,15.53
30.296,13.05
30.312,11.71
30.328,11.23
30.343,11.28
30.359,11.65
30.375,12.23
30.390,13.06
30.406,13.99
30.421,14.54
30.437,13.95
30.453,11.51
30.468,6.91
30.484,0.54
30.500,-6.62
30.515,-13.46
30.531,-19.22
30.546,-23.78
30.562,-27.77
30.578,-32.14
30.593,-37.61
30.609,-44.3
30.625,-51.52
30.640,-57.95
30.656,-62.11
30.671,-62.82
30.687,-59.4
30.703,-51.84
30.718,-40.73
30.734,-27.25
30.750,-13.03
30.765,0.18
30.781,10.95
30.796,18.7
30.812,23.67
30.828,26.69
30.843,28.44
30.859,29.16
30.875,28.94
30.890,28.17
30.906,28.22
30.921,31.31
30.937,39.93
30.953,55.95
30.968,80.21
30.984,112.4
31.000,151.32
31.015,194.88
31.031,239.73
31.046,281.3
31.062,314.43
31.078,334.98
31.093,341.33
31.109,335.08
31.125,320.08
31.140,300.59
31.156,279.49
31.171,257.22
31.187,232.6
31.203,204.13
31.218,171.31
31.234,134.89
31.250,96.65
31.265,58.89
31.281,24.17
31.296,-4.92
31.312,-26.76
31.328,-40.84
31.343,-48.2
31.359,-51.06
31.375,-52.2
31.390,-53.82
31.406,-56.86
31.421,-60.77
31.437,-63.88
31.453,-65.51
31.468,-65.64
31.484,-65.08
31.500,-65.11
31.515,-66.82
31.531,-70.72
31.546,-76.75
31.562,-84.24
31.578,-91.98
31.593,-100.55
31.609,-110.95
31.625,-124.45
31.640,-141.85
31.656,-162.86
31.671,-186.41
31.687,-211.5
31.703,-237.88
31.718,-265.96
31.734,-299.16
31.750,-341.03
31.765,-394.11
31.781,-458.69
31.796,-532.05
31.812,-609.34
31.828,-685.35
31.843,-755.8
31.859,-801.24
31.875,-805.23
31.890,-757.53
31.906,-660.16
31.921,-527.48
31.937,-378.82
31.953,-230.54
31.968,-92.78
31.984,29.57
32.000,134.5
32.015,218.39
32.031,277.48
32.046,311.29
32.062,320.76
32.078,309.86
32.093,286.05
32.109,258.71
32.125,237.09
32.140,228.01
32.156,229.98
32.171,237.79
32.187,242.32
32.203,234.6
32.218,210.07
32.234,170.69
32.250,123.0
32.265,74.69
32.281,31.44
32.296,-5.7
32.312,-38.15
32.328,-68.09
32.343,-95.97
32.359,-120.84
32.375,-139.79
32.390,-150.73
32.406,-153.48
32.421,-149.6
32.437,-142.14
32.453,-133.62
32.468,-125.66
32.484,-118.31
32.500,-110.63
32.515,-101.31
32.531,-89.81
32.546,-76.61
32.562,-62.59
32.578,-48.68
32.593,-35.01
32.609,-23.17
32.625,-13.44
32.640,-5.49
32.656,1.21
32.671,7.04
32.687,12.06
32.703,16.46
32.718,20.64
32.734,25.3
32.750,31.0
32.765,38.4
32.781,47.79
32.796,59.14
32.812,72.23
32.828,86.86
32.843,102.96
32.859,120.71
32.875,140.63
32.890,163.27
32.906,189.39
32.921,219.04
32.937,251.06
32.953,282.65
32.968,309.85
32.984,328.56
33.000,335.92
33.015,331.41
33.031,316.9
33.046,296.11
33.062,272.99
33.078,250.48
33.093,229.85
33.109,210.97
33.125,193.11
33.140,175.65
33.156,158.4
33.171,141.39
33.187,124.7
33.203,108.1
33.218,91.17
33.234,73.72
33.250,55.83
33.265,38.14
33.281,21.61
33.296,7.32
33.312,-3.96
33.328,-11.94
33.343,-17.05
33.359,-20.27
33.375,-22.68
33.390,-25.33
33.406,-28.78
33.421,-33.23
33.437,-38.53
33.453,-44.39
33.468,-50.4
33.484,-56.12
33.500,-60.97
33.515,-64.29
33.531,-65.42
33.546,-63.85
33.562,-59.32
33.578,-51.97
33.593,-42.35
33.609,-31.5
33.625,-20.95
33.640,-12.63
33.656,-8.45
33.671,-9.85
33.687,-17.21
33.703,-29.72
33.718,-45.58
33.734,-62.65
33.750,-79.05
33.765,-93.54
33.781,-105.57
33.796,-115.02
33.812,-121.94
33.828,-126.33
33.843,-128.17
33.859,-127.47
33.875,-124.36
33.890,-119.21
33.906,-112.59
33.921,-105.04
33.937,-96.76
33.953,-87.47
33.968,-76.38
33.984,-62.77
34.000,-46.44
34.015,-28.19
34.031,-9.67
34.046,7.23
34.062,21.2
34.078,32.09
34.093,40.96
34.109,49.42
34.125,58.81
34.140,69.57
34.156,81.23
34.171,92.78
34.187,103.39
34.203,112.64
34.218,120.73
34.234,128.06
34.250,134.79
34.265,140.57
34.281,144.41
34.296,145.09
34.312,141.6
34.328,133.8
34.343,122.41
34.359,108.98
34.375,95.26
34.390,82.82
34.406,72.58
34.421,64.81
34.437,59.3
34.453,55.37
34.468,52.09
34.484,47.89
34.500,40.95
34.515,29.73
34.531,13.76
34.546,-5.68
34.562,-25.48
34.578,-41.6
34.593,-50.45
34.609,-50.08
34.625,-41.41
34.640,-27.32
34.656,-11.46
34.671,3.17
34.687,15.03
34.703,23.83
34.718,29.55
34.734,31.46
34.750,28.03
34.765,16.81
34.781,-4.16
34.796,-35.39
34.812,-75.82
34.828,-123.08
34.843,-174.36
34.859,-227.14
34.875,-279.44
34.890,-324.21
34.906,-353.06
34.921,-358.17
34.937,-335.56
34.953,-287.73
34.968,-222.6
34.984,-149.98
35.000,-78.38
35.015,-13.46
35.031,42.12
35.046,86.94
35.062,119.78
35.078,141.31
35.093,152.13
35.109,153.39
35.125,147.42
35.140,137.43
35.156,126.68
35.171,117.45
35.187,109.92
35.203,102.37
35.218,91.86
35.234,75.99
35.250,53.55
35.265,24.93
35.281,-8.39
35.296,-44.45
35.312,-81.22
35.328,-116.85
35.343,-149.27
35.359,-176.26
35.375,-196.17
35.390,-208.39
35.406,-213.53
35.421,-212.8
35.437,-206.93
35.453,-194.9
35.468,-174.3
35.484,-142.48
35.500,-98.8
35.515,-46.19
35.531,8.89
35.546,58.35
35.562,95.36
35.578,116.6
35.593,123.1
35.609,118.76
35.625,108.09
35.640,94.04
35.656,77.43
35.671,57.74
35.687,34.81
35.703,10.24
35.718,-12.76
35.734,-30.69
35.750,-41.47
35.765,-45.37
35.781,-44.57
35.796,-41.6
35.812,-37.91
35.828,-33.28
35.843,-26.58
35.859,-17.2
35.875,-6.11
35.890,4.45
35.906,11.98
35.921,15.15
35.937,14.35
35.953,11.22
35.968,7.55
35.984,4.38
36.000,1.75
36.015,-0.79
36.031,-3.58
36.046,-6.74
36.062,-10.5
36.078,-15.65
36.093,-23.48
36.109,-35.03
36.125,-49.94
36.140,-65.98
36.156,-79.49
36.171,-86.89
36.187,-86.55
36.203,-79.67
36.218,-69.74
36.234,-60.76
36.250,-55.28
36.265,-53.24
36.281,-52.08
36.296,-48.05
36.312,-38.17
36.328,-21.38
36.343,1.15
36.359,26.58
36.375,51.54
36.390,73.16
36.406,89.73
36.421,100.59
36.437,105.52
36.453,104.3
36.468,96.74
36.484,83.34
36.500,66.08
36.515,48.38
36.531,33.71
36.546,23.64
36.562,16.56
36.578,8.21
36.593,-5.72
36.609,-26.58
36.625,-51.26
36.640,-73.34
36.656,-86.31
36.671,-87.09
36.687,-77.29
36.703,-61.81
36.718,-45.69
36.734,-31.35
36.750,-17.97
36.765,-3.04
36.781,15.36
36.796,36.97
36.812,59.26
36.828,78.9
36.843,93.13
36.859,100.65
36.875,101.53
36.890,96.58
36.906,86.93
36.921,73.91
36.937,59.27
36.953,45.05
36.968,33.39
36.984,25.68
37.000,22.23
37.015,22.2
37.031,24.16
37.046,26.76
37.062,29.39
37.078,32.27
37.093,36.27
37.109,42.79
37.125,53.3
37.140,68.95
37.156,89.74
37.171,113.76
37.187,136.63
37.203,152.09
37.218,153.77
37.234,137.4
37.250,102.42
37.265,52.02
37.281,-8.2
37.296,-72.09
37.312,-134.3
37.328,-190.4
37.343,-236.45
37.359,-268.3
37.375,-282.17
37.390,-275.8
37.406,-249.59
37.421,-206.81
37.437,-152.58
37.453,-92.57
37.468,-31.93
37.484,24.43
37.500,71.47
37.515,104.04
37.531,118.09
37.546,112.72
37.562,91.68
37.578,63.06
37.593,36.84
37.609,21.51
37.625,21.3
37.640,35.45
37.656,59.41
37.671,87.16
37.687,112.92
37.703,131.76
37.718,139.44
37.734,132.45
37.750,108.98
37.765,70.41
37.781,22.09
37.796,-27.2
37.812,-67.44
37.828,-90.29
37.843,-91.66
37.859,-72.67
37.875,-38.94
37.890,1.55
37.906,40.74
37.921,72.32
37.937,92.54
37.953,99.95
37.968,94.87
37.984,79.01
38.000,55.37
38.015,28.36
38.031,3.32
38.046,-14.59
38.062,-22.1
38.078,-18.89
38.093,-7.84
38.109,6.26
38.125,18.63
38.140,26.2
38.156,28.17
38.171,25.54
38.187,20.07
38.203,13.36
38.218,6.65
38.234,0.82
38.250,-3.37
38.265,-5.35
38.281,-5.17
38.296,-3.53
38.312,-1.65
38.328,-0.76
38.343,-1.59
38.359,-4.16
38.375,-8.03
38.390,-12.6
38.406,-17.22
38.421,-21.22
38.437,-23.66
38.453,-23.43
38.468,-19.54
38.484,-11.72
38.500,-0.83
38.515,11.12
38.531,21.52
38.546,28.07
38.562,29.55
38.578,26.17
38.593,19.49
38.609,11.74
38.625,5.17
38.640,1.5
38.656,1.44
38.671,4.64
38.687,9.77
38.703,14.8
38.718,17.65
38.734,16.87
38.750,12.23
38.765,4.94
38.781,-2.81
38.796,-8.74
38.812,-11.27
38.828,-10.1
38.843,-6.08
38.859,-0.65
38.875,4.75
38.890,9.1
38.906,11.81
38.921,12.55
38.937,11.08
38.953,7.32
38.968,1.46
38.984,-5.97
39.000,-13.92
39.015,-21.14
39.031,-26.36
39.046,-28.78
39.062,-28.23
39.078,-25.44
39.093,-21.68
39.109,-18.53
39.125,-17.42
39.140,-19.28
39.156,-24.47
39.171,-32.68
39.187,-43.2
39.203,-54.84
39.218,-66.15
39.234,-75.55
39.250,-81.73
39.265,-84.16
39.281,-83.25
39.296,-80.15
39.312,-75.98
39.328,-71.34
39.343,-66.1
39.359,-59.76
39.375,-51.91
39.390,-42.57
39.406,-32.26
39.421,-21.77
39.437,-12.01
39.453,-3.89
39.468,1.78
39.484,4.55
39.500,4.64
39.515,3.24
39.531,2.33
39.546,3.99
39.562,9.51
39.578,18.69
39.593,29.98
39.609,41.2
39.625,50.54
39.640,57.1
39.656,60.95
39.671,62.85
39.687,63.61
39.703,63.78
39.718,63.44
39.734,62.39
39.750,60.39
39.765,57.52
39.781,54.29
39.796,51.61
39.812,50.41
39.828,51.13
39.843,53.54
39.859,56.76
39.875,59.69
39.890,61.35
39.906,61.05
39.921,58.25
39.937,52.28
39.953,42.48
39.968,28.5
39.984,10.97
40.000,-8.23
40.015,-26.32
40.031,-40.41
40.046,-48.51
40.062,-50.08
40.078,-45.98
40.093,-37.76
40.109,-26.92
40.125,-14.51
40.140,-1.34
40.156,11.58
40.171,22.91
40.187,31.14
40.203,35.43
40.218,36.13
40.234,34.91
40.250,34.26
40.265,36.29
40.281,41.71
40.296,49.41
40.312,57.0
40.328,61.82
40.343,62.08
40.359,57.43
40.375,48.84
40.390,38.09
40.406,27.18
40.421,18.16
40.437,12.95
40.453,13.22
40.468,19.79
40.484,32.01
40.500,47.37
40.515,61.95
40.531,71.72
40.546,74.23
40.562,69.74
40.578,61.15
40.593,52.74
40.609,48.06
40.625,48.21
40.640,51.12
40.656,52.36
40.671,47.38
40.687,33.85
40.703,13.13
40.718,-9.89
40.734,-28.82
40.750,-38.68
40.765,-38.28
40.781,-30.35
40.796,-19.59
40.812,-9.87
40.828,-2.25
40.843,4.44
40.859,11.41
40.875,17.51
40.890,18.89
40.906,11.34
40.921,-6.31
40.937,-30.11
40.953,-52.08
40.968,-64.12
40.984,-62.26
41.000,-48.48
41.015,-28.92
41.031,-9.94
41.046,5.3
41.062,17.34
41.078,27.99
41.093,37.26
41.109,42.0
41.125,37.51
41.140,21.0
41.156,-6.13
41.171,-38.61
41.187,-70.2
41.203,-97.28
41.218,-120.54
41.234,-143.55
41.250,-169.56
41.265,-198.64
41.281,-226.97
41.296,-248.41
41.312,-257.33
41.328,-250.63
41.343,-228.49
41.359,-193.75
41.375,-150.85
41.390,-105.2
41.406,-62.47
41.421,-27.95
41.437,-5.58
41.453,3.01
41.468,-1.24
41.484,-15.31
41.500,-35.08
41.515,-56.13
41.531,-74.26
41.546,-85.57
41.562,-86.82
41.578,-76.34
41.593,-54.88
41.609,-26.05
41.625,4.25
41.640,29.6
41.656,45.06
41.671,48.5
41.687,40.94
41.703,25.75
41.718,7.36
41.734,-9.92
41.750,-22.76
41.765,-29.11
41.781,-28.46
41.796,-21.88
41.812,-11.9
41.828,-1.95
41.843,4.51
41.859,5.22
41.875,-0.15
41.890,-10.05
41.906,-21.77
41.921,-32.56
41.937,-40.42
41.953,-44.27
41.968,-43.76
41.984,-38.9
42.000,-30.1
42.015,-18.34
42.031,-5.33
42.046,6.82
42.062,16.29
42.078,22.11
42.093,24.44
42.109,24.32
42.125,23.12
42.140,22.02
42.156,21.79
42.171,22.74
42.187,24.88
42.203,27.9
42.218,31.18
42.234,34.08
42.250,36.3
42.265,38.04
42.281,39.82
42.296,42.05
42.312,44.28
42.328,45.18
42.343,42.76
42.359,35.37
42.375,22.63
42.390,5.89
42.406,-12.18
42.421,-28.46
42.437,-40.46
42.453,-46.98
42.468,-48.15
42.484,-45.05
42.500,-39.09
42.515,-31.65
42.531,-23.85
42.546,-16.68
42.562,-10.78
42.578,-6.43
42.593,-3.3
42.609,-0.49
42.625,2.98
42.640,7.7
42.656,13.44
42.671,19.26
42.687,24.32
42.703,28.67
42.718,33.56
42.734,40.76
42.750,51.48
42.765,65.24
42.781,79.61
42.796,90.97
42.812,95.9
42.828,92.5
42.843,80.91
42.859,62.82
42.875,40.67
42.890,17.08
42.906,-5.39
42.921,-24.08
42.937,-36.17
42.953,-39.04
42.968,-30.75
42.984,-10.45
43.000,21.45
43.015,63.54
43.031,113.22
43.046,166.01
43.062,215.09
43.078,251.48
43.093,265.69
43.109,250.47
43.125,203.68
43.140,129.86
43.156,39.92
43.171,-51.51
43.187,-129.85
43.203,-184.34
43.218,-210.45
43.234,-210.53
43.250,-192.5
43.265,-167.04
43.281,-144.47
43.296,-132.08
43.312,-132.62
43.328,-144.44
43.343,-162.68
43.359,-181.23
43.375,-194.68
43.390,-199.8
43.406,-196.12
43.421,-185.63
43.437,-171.66
43.453,-157.21
43.468,-143.57
43.484,-129.56
43.500,-112.41
43.515,-89.32
43.531,-59.13
43.546,-23.09
43.562,15.78
43.578,54.22
43.593,90.16
43.609,123.16
43.625,153.66
43.640,181.49
43.656,205.03
43.671,221.49
43.687,228.47
43.703,225.62
43.718,215.41
43.734,202.35
43.750,190.68
43.765,182.09
43.781,174.98
43.796,165.77
43.812,151.67
43.828,133.07
43.843,113.86
43.859,99.5
43.875,93.95
43.890,97.39
43.906,106.39
43.921,116.36
43.937,124.39
43.953,130.59
43.968,137.28
43.984,146.72
44.000,158.96
44.015,171.39
44.031,180.22
44.046,182.56
44.062,177.96
44.078,168.48
44.093,157.22
44.109,146.63
44.125,137.42
44.140,128.59
44.156,118.37
44.171,105.51
44.187,90.12
44.203,73.73
44.218,58.56
44.234,46.45
44.250,38.02
44.265,32.14
44.281,26.31
44.296,17.65
44.312,3.9
44.328,-15.62
44.343,-39.95
44.359,-66.85
44.375,-93.7
44.390,-118.33
44.406,-139.66
44.421,-157.69
44.437,-173.31
44.453,-187.77
44.468,-202.25
44.484,-217.73
44.500,-234.44
44.515,-251.55
44.531,-266.6
44.546,-275.72
44.562,-274.59
44.578,-260.17
44.593,-232.27
44.609,-194.2
44.625,-151.99
44.640,-112.29
44.656,-80.15
44.671,-57.58
44.687,-43.66
44.703,-35.82
44.718,-31.39
44.734,-28.75
44.750,-27.33
44.765,-27.14
44.781,-28.01
44.796,-29.37
44.812,-30.31
44.828,-29.89
44.843,-27.4
44.859,-22.36
44.875,-14.67
44.890,-4.56
44.906,7.31
44.921,19.88
44.937,31.91
44.953,42.29
44.968,50.33
44.984,55.8
45.000,58.87
45.015,59.84
45.031,59.12
45.046,57.2
45.062,54.87
45.078,53.2
45.093,53.39
45.109,56.29
45.125,61.91
45.140,69.23
45.156,76.54
45.171,82.22
45.187,85.51
45.203,86.9
45.218,87.98
45.234,90.56
45.250,95.72
45.265,103.17
45.281,111.32
45.296,117.92
45.312,121.08
45.328,120.06
45.343,115.5
45.359,108.97
45.375,102.07
45.390,95.71
45.406,89.78
45.421,83.4
45.437,75.43
45.453,64.69
45.468,49.84
45.484,29.26
45.500,1.41
45.515,-34.05
45.531,-75.1
45.546,-116.69
45.562,-151.91
45.578,-174.36
45.593,-180.87
45.609,-172.93
45.625,-155.68
45.640,-135.29
45.656,-115.89
45.671,-98.33
45.687,-81.3
45.703,-63.65
45.718,-46.31
45.734,-32.36
45.750,-25.44
45.765,-27.59
45.781,-38.35
45.796,-55.29
45.812,-75.34
45.828,-95.98
45.843,-115.23
45.859,-131.14
45.875,-141.24
45.890,-143.09
45.906,-135.49
45.921,-119.54
45.937,-98.43
45.953,-75.95
45.968,-54.67
45.984,-34.93
46.000,-15.49
46.015,4.97
46.031,26.13
46.046,45.74
46.062,60.66
46.078,68.66
46.093,69.81
46.109,66.44
46.125,62.06
46.140,59.34
46.156,59.03
46.171,59.84
46.187,59.51
46.203,56.48
46.218,50.75
46.234,43.95
46.250,38.15
46.265,34.8
46.281,33.74
46.296,33.52
46.312,32.21
46.328,28.54
46.343,22.64
46.359,15.87
46.375,10.21
46.390,7.28
46.406,7.67
46.421,10.73
46.437,14.96
46.453,18.8
46.468,21.12
46.484,21.71
46.500,21.14
46.515,20.37
46.531,20.15
46.546,20.62
46.562,21.17
46.578,20.6
46.593,17.93
46.609,12.82
46.625,5.93
46.640,-1.64
46.656,-9.09
46.671,-16.5
46.687,-24.78
46.703,-34.81
46.718,-46.52
46.734,-58.36
46.750,-67.94
46.765,-73.1
46.781,-73.2
46.796,-69.23
46.812,-63.03
46.828,-56.1
46.843,-48.71
46.859,-40.05
46.875,-29.19
46.890,-16.2
46.906,-2.47
46.921,9.69
46.937,18.22
46.953,22.34
46.968,22.7
46.984,20.97
47.000,18.86
47.015,17.47
47.031,16.79
47.046,15.98
47.062,13.98
47.078,10.17
47.093,4.91
47.109,-0.59
47.125,-4.73
47.140,-6.33
47.156,-5.15
47.171,-2.0
47.187,1.76
47.203,4.9
47.218,6.9
47.234,7.93
47.250,8.42
47.265,8.55
47.281,8.09
47.296,6.68
47.312,4.41
47.328,1.98
47.343,0.43
47.359,0.4
47.375,1.62
47.390,2.85
47.406,2.67
47.421,0.33
47.437,-3.6
47.453,-7.41
47.468,-9.15
47.484,-7.6
47.500,-2.87
47.515,3.69
47.531,10.19
47.546,14.89
47.562,16.62
47.578,14.88
47.593,9.78
47.609,2.06
47.625,-6.68
47.640,-14.16
47.656,-17.89
47.671,-16.2
47.687,-9.06
47.703,1.58
47.718,12.42
47.734,20.05
47.750,22.22
47.765,18.44
47.781,9.89
47.796,-1.41
47.812,-13.39
47.828,-24.25
47.843,-32.56
47.859,-37.11
47.875,-37.0
47.890,-32.03
47.906,-23.09
47.921,-12.29
47.937,-2.44
47.953,3.97
47.968,5.74
47.984,3.54
48.000,-0.45
48.015,-3.57
48.031,-3.81
48.046,-0.63
48.062,5.07
48.078,11.72
48.093,18.18
48.109,24.36
48.125,31.05
48.140,39.15
48.156,48.85
48.171,59.36
48.187,69.3
48.203,77.62
48.218,84.17
48.234,89.47
48.250,93.99
48.265,97.39
48.281,98.36
48.296,95.24
48.312,86.99
48.328,73.81
48.343,56.98
48.359,38.11
48.375,18.26
48.390,-2.34
48.406,-23.75
48.421,-45.67
48.437,-66.82
48.453,-85.06
48.468,-98.14
48.484,-104.57
48.500,-104.12
48.515,-97.88
48.531,-87.81
48.546,-76.02
48.562,-64.42
48.578,-54.39
48.593,-46.87
48.609,-42.37
48.625,-41.16
48.640,-43.22
48.656,-48.15
48.671,-54.99
48.687,-62.18
48.703,-67.78
48.718,-70.02
48.734,-67.91
48.750,-61.74
48.765,-53.04
48.781,-44.03
48.796,-36.8
48.812,-32.66
48.828,-31.82
48.843,-33.57
48.859,-36.63
48.875,-39.56
48.890,-41.16
48.906,-40.62
48.921,-37.85
48.937,-33.49
48.953,-28.89
48.968,-25.6
48.984,-24.87
49.000,-27.11
49.015,-31.78
49.031,-37.91
49.046,-44.46
49.062,-50.93
49.078,-57.24
49.093,-63.38
49.109,-69.03
49.125,-73.52
49.140,-76.2
49.156,-76.95
49.171,-76.56
49.187,-76.27
49.203,-76.92
49.218,-78.14
49.234,-77.95
49.250,-73.56
49.265,-62.6
49.281,-44.4
49.296,-20.35
49.312,6.59
49.328,33.16
49.343,56.89
49.359,76.76
49.375,93.27
49.390,107.97
49.406,122.75
49.421,138.97
49.437,156.77
49.453,174.54
49.468,189.27
49.484,197.49
49.500,196.77
49.515,186.75
49.531,169.15
49.546,146.59
49.562,121.15
49.578,93.32
49.593,62.5
49.609,28.37
49.625,-7.63
49.640,-41.99
49.656,-70.23
49.671,-88.7
49.687,-96.07
49.703,-93.56
49.718,-83.96
49.734,-70.33
49.750,-54.9
49.765,-38.99
49.781,-23.6
49.796,-10.02
49.812,-0.02
49.828,4.58
49.843,2.74
49.859,-5.31
49.875,-18.12
49.890,-33.56
49.906,-49.59
49.921,-64.64
49.937,-77.71
49.953,-88.05
49.968,-95.03
49.984,-98.24
50.000,-97.46
50.015,-92.68
50.031,-83.51
50.046,-68.93
50.062,-47.24
50.078,-17.11
50.093,21.05
50.109,63.99
50.125,105.89
50.140,140.21
50.156,162.18
50.171,170.73
50.187,168.74
50.203,161.41
50.218,153.61
50.234,147.93
50.250,144.11
50.265,140.01
50.281,133.5
50.296,123.67
50.312,111.27
50.328,97.93
50.343,85.13
50.359,73.4
50.375,62.4
50.390,51.36
50.406,39.72
50.421,27.71
50.437,16.29
50.453,6.92
50.468,0.99
50.484,-0.84
50.500,0.99
50.515,4.98
50.531,9.04
50.546,11.33
50.562,11.09
50.578,8.86
50.593,6.05
50.609,4.01
50.625,3.23
50.640,3.11
50.656,2.42
50.671,0.15
50.687,-3.84
50.703,-8.66
50.718,-12.93
50.734,-15.51
50.750,-16.02
50.765,-14.87
50.781,-12.81
50.796,-10.52
50.812,-8.26
50.828,-5.98
50.843,-3.45
50.859,-0.63
50.875,2.29
50.890,4.93
50.906,6.81
50.921,7.47
50.937,6.5
50.953,3.62
50.968,-1.16
50.984,-7.4
51.000,-14.27
51.015,-20.64
51.031,-25.44
51.046,-28.01
51.062,-28.28
51.078,-26.6
51.093,-23.53
51.109,-19.52
51.125,-14.87
51.140,-9.84
51.156,-4.75
51.171,-0.04
51.187,3.85
51.203,6.83
51.218,9.22
51.234,11.64
51.250,14.59
51.265,18.03
51.281,21.21
51.296,22.89
51.312,21.88
51.328,17.64
51.343,10.58
51.359,1.9
51.375,-6.96
51.390,-14.94
51.406,-21.76
51.421,-27.91
51.437,-34.06
51.453,-40.47
51.468,-46.55
51.484,-50.97
51.500,-52.29
51.515,-49.7
51.531,-43.53
51.546,-35.13
51.562,-26.36
51.578,-18.66
51.593,-12.45
51.609,-6.82
51.625,0.15
51.640,10.7
51.656,26.59
51.671,48.53
51.687,75.74
51.703,105.87
51.718,135.39
51.734,160.1
51.750,176.25
51.765,181.51
51.781,175.82
51.796,161.39
51.812,141.98
51.828,121.6
51.843,103.25
51.859,88.11
51.875,75.59
51.890,64.04
51.906,51.66
51.921,37.34
51.937,21.14
51.953,3.98
51.968,-12.63
51.984,-27.18
52.000,-38.61
52.015,-46.68
52.031,-52.1
52.046,-56.36
52.062,-61.17
52.078,-67.76
52.093,-76.33
52.109,-86.03
52.125,-95.29
52.140,-102.4
52.156,-105.88
52.171,-104.66
52.187,-98.35
52.203,-87.54
52.218,-74.05
52.234,-60.93
52.250,-51.64
52.265,-48.77
52.281,-52.74
52.296,-61.21
52.312,-69.82
52.328,-73.89
52.343,-70.24
52.359,-58.3
52.375,-39.98
52.390,-18.6
52.406,2.3
52.421,19.89
52.437,32.37
52.453,38.87
52.468,39.25
52.484,34.11
52.500,24.74
52.515,12.82
52.531,0.04
52.546,-12.32
52.562,-23.73
52.578,-34.36
52.593,-44.64
52.609,-54.77
52.625,-64.29
52.640,-72.13
52.656,-77.03
52.671,-78.05
52.687,-75.04
52.703,-68.7
52.718,-60.25
52.734,-50.92
52.750,-41.59
52.765,-32.8
52.781,-24.96
52.796,-18.57
52.812,-14.17
52.828,-12.2
52.843,-12.67
52.859,-15.14
52.875,-18.82
52.890,-22.77
52.906,-26.26
52.921,-28.96
52.937,-30.87
52.953,-32.3
52.968,-33.71
52.984,-35.38
53.000,-37.25
53.015,-39.0
53.031,-40.34
53.046,-41.44
53.062,-43.03
53.078,-45.99
53.093,-50.75
53.109,-56.71
53.125,-62.24
53.140,-65.44
53.156,-65.22
53.171,-61.97
53.187,-57.58
53.203,-54.26
53.218,-53.28
53.234,-53.96
53.250,-53.9
53.265,-50.11
53.281,-40.64
53.296,-25.57
53.312,-7.1
53.328,11.14
53.343,25.51
53.359,33.57
53.375,34.72
53.390,30.15
53.406,22.43
53.421,14.7
53.437,9.95
53.453,10.2
53.468,15.61
53.484,24.09
53.500,31.44
53.515,32.75
53.531,24.35
53.546,5.69
53.562,-19.7
53.578,-44.62
53.593,-60.19
53.609,-59.01
53.625,-38.13
53.640,-0.63
53.656,45.28
53.671,89.34
53.687,123.19
53.703,143.4
53.718,152.39
53.734,156.58
53.750,162.98
53.765,175.86
53.781,195.15
53.796,217.17
53.812,236.57
53.828,248.59
53.843,249.89
53.859,238.69
53.875,214.44
53.890,178.06
53.906,132.84
53.921,84.64
53.937,40.69
53.953,6.72
53.968,-15.61
53.984,-29.67
54.000,-42.55
54.015,-61.52
54.031,-90.38
54.046,-127.99
54.062,-169.59
54.078,-209.63
54.093,-244.41
54.109,-272.59
54.125,-294.21
54.140,-309.54
54.156,-318.96
54.171,-324.02
54.187,-328.16
54.203,-335.95
54.218,-350.23
54.234,-369.25
54.250,-385.59
54.265,-388.87
54.281,-370.55
54.296,-328.48
54.312,-268.7
54.328,-202.94
54.343,-143.48
54.359,-98.13
54.375,-67.92
54.390,-48.23
54.406,-32.39
54.421,-15.39
54.437,4.33
54.453,25.1
54.468,44.02
54.484,59.23
54.500,70.96
54.515,81.25
54.531,92.71
54.546,107.04
54.562,124.29
54.578,142.94
54.593,160.62
54.609,175.03
54.625,184.58
54.640,188.79
54.656,188.1
54.671,183.6
54.687,176.58
54.703,168.1
54.718,158.81
54.734,148.99
54.750,138.93
54.765,129.14
54.781,120.42
54.796,113.6
54.812,109.1
54.828,106.59
54.843,105.05
54.859,103.29
54.875,100.5
54.890,96.68
54.906,92.48
54.921,88.74
54.937,85.92
54.953,83.91
54.968,82.15
54.984,80.09
55.000,77.4
55.015,73.81
55.031,68.84
55.046,61.7
55.062,51.79
55.078,39.32
55.093,25.72
55.109,13.27
55.125,4.12
55.140,-0.74
55.156,-1.98
55.171,-1.31
55.187,-0.47
55.203,-0.08
55.218,0.57
55.234,2.93
55.250,7.97
55.265,15.19
55.281,22.57
55.296,27.39
55.312,27.46
55.328,22.07
55.343,12.18
55.359,0.03
55.375,-11.8
55.390,-21.21
55.406,-27.2
55.421,-29.89
55.437,-30.15
55.453,-29.11
55.468,-27.75
55.484,-26.69
55.500,-26.16
55.515,-26.12
55.531,-26.33
55.546,-26.52
55.562,-26.39
55.578,-25.7
55.593,-24.16
55.609,-21.52
55.625,-17.65
55.640,-12.75
55.656,-7.47
55.671,-2.65
55.687,0.84
55.703,2.68
55.718,3.23
55.734,3.41
55.750,4.21
55.765,6.15
55.781,9.06
55.796,12.12
55.812,14.31
55.828,14.82
55.843,13.25
55.859,9.67
55.875,4.48
55.890,-1.58
55.906,-7.51
55.921,-12.12
55.937,-14.49
55.953,-14.29
55.968,-12.08
55.984,-9.25
56.000,-7.45
56.015,-7.79
56.031,-10.45
56.046,-14.54
56.062,-18.66
56.078,-21.49
56.093,-22.29
56.109,-21.01
56.125,-18.05
56.140,-14.07
56.156,-9.75
56.171,-5.82
56.187,-2.92
56.203,-1.57
56.218,-1.76
56.234,-2.98
56.250,-4.21
56.265,-4.49
56.281,-3.33
56.296,-0.85
56.312,2.23
56.328,5.04
56.343,6.92
56.359,7.75
56.375,7.85
56.390,7.83
56.406,8.25
56.421,9.35
56.437,11.07
56.453,12.99
56.468,14.65
56.484,15.64
56.500,15.78
56.515,15.13
56.531,13.88
56.546,12.19
56.562,10.07
56.578,7.61
56.593,4.95
56.609,2.49
56.625,0.77
56.640,0.21
56.656,0.86
56.671,2.26
56.687,3.69
56.703,4.4
56.718,4.04
56.734,2.71
56.750,0.8
56.765,-1.23
56.781,-3.2
56.796,-5.12
56.812,-7.12
56.828,-9.21
56.843,-11.27
56.859,-13.0
56.875,-14.15
56.890,-14.65
56.906,-14.5
56.921,-13.85
56.937,-12.71
56.953,-10.97
56.968,-8.53
56.984,-5.41
57.000,-1.84
57.015,1.72
57.031,4.78
57.046,7.04
57.062,8.44
57.078,9.21
57.093,9.7
57.109,10.23
57.125,10.97
57.140,11.87
57.156,12.77
57.171,13.42
57.187,13.66
57.203,13.38
57.218,12.65
57.234,11.58
57.250,10.38
57.265,9.28
57.281,8.39
57.296,7.73
57.312,7.19
57.328,6.69
57.343,6.14
57.359,5.61
57.375,5.25
57.390,5.09
57.406,5.18
57.421,5.43
57.437,5.68
57.453,5.77
57.468,5.52
57.484,4.85
57.500,3.7
57.515,2.15
57.531,0.29
57.546,-1.63
57.562,-3.44
57.578,-4.98
57.593,-6.24
57.609,-7.29
57.625,-8.17
57.640,-8.79
57.656,-8.94
57.671,-8.43
57.687,-7.19
57.703,-5.52
57.718,-3.82
57.734,-2.47
57.750,-1.57
57.765,-0.93
57.781,-0.16
57.796,1.04
57.812,2.64
57.828,4.39
57.843,5.8
57.859,6.56
57.875,6.67
57.890,6.45
57.906,6.35
57.921,6.72
57.937,7.49
57.953,8.28
57.968,8.58
57.984,8.0
58.000,6.51
58.015,4.38
58.031,1.83
58.046,-1.12
58.062,-4.69
58.078,-9.11
58.093,-14.27
58.109,-19.42
58.125,-23.52
58.140,-25.66
58.156,-25.6
58.171,-24.04
58.187,-22.21
58.203,-21.3
58.218,-21.92
58.234,-23.82
58.250,-26.09
58.265,-27.8
58.281,-28.29
58.296,-27.48
58.312,-25.67
58.328,-23.26
58.343,-20.51
58.359,-17.52
58.375,-14.24
58.390,-10.55
58.406,-6.41
58.421,-1.89
58.437,2.91
58.453,7.72
58.468,12.31
58.484,16.41
58.500,19.73
58.515,22.04
58.531,23.11
58.546,22.75
58.562,20.92
58.578,17.83
58.593,13.92
58.609,9.91
58.625,6.48
58.640,4.14
58.656,2.98
58.671,2.75
58.687,2.98
58.703,3.3
58.718,3.6
58.734,3.91
58.750,4.41
58.765,5.13
58.781,6.07
58.796,7.12
58.812,8.28
58.828,9.58
58.843,10.97
58.859,12.18
58.875,12.69
58.890,11.95
58.906,9.66
58.921,5.98
58.937,1.57
58.953,-2.72
58.968,-6.17
58.984,-8.4
59.000,-9.45
59.015,-9.69
59.031,-9.54
59.046,-9.26
59.062,-8.93
59.078,-8.36
59.093,-7.34
59.109,-5.67
59.125,-3.3
59.140,-0.34
59.156,2.91
59.171,6.08
59.187,8.82
59.203,10.88
59.218,12.21
59.234,12.82
59.250,12.83
59.265,12.38
59.281,11.64
59.296,10.65
59.312,9.47
59.328,8.09
59.343,6.55
59.359,4.98
59.375,3.54
59.390,2.38
59.406,1.52
59.421,0.84
59.437,0.15
59.453,-0.64
59.468,-1.42
59.484,-1.93
59.500,-1.87
59.515,-1.12
59.531,0.13
59.546,1.48
59.562,2.52
59.578,3.04
59.593,3.14
59.609,3.04
59.625,3.01
59.640,3.15
59.656,3.39
59.671,3.61
59.687,3.63
59.703,3.41
59.718,2.98
59.734,2.37
59.750,1.52
59.765,0.26
59.781,-1.53
59.796,-3.87
59.812,-6.56
59.828,-9.25
59.843,-11.56
59.859,-13.24
59.875,-14.12
59.890,-14.15
59.906,-13.29
59.921,-11.48
59.937,-8.71
59.953,-5.16
59.968,-1.23
59.984,2.55
