timestamp,value
00.000,66.31
00.015,45.87
00.031,23.06
00.046,-0.15
00.062,-19.13
00.078,-28.18
00.093,-23.66
00.109,-6.69
00.125,16.4
00.140,36.08
00.156,43.34
00.171,32.94
00.187,4.8
00.203,-36.56
00.218,-84.13
00.234,-130.84
00.250,-171.05
00.265,-201.01
00.281,-218.59
00.296,-222.78
00.312,-213.33
00.328,-190.73
00.343,-156.58
00.359,-114.13
00.375,-68.28
00.390,-24.74
00.406,11.24
00.421,36.17
00.437,48.89
00.453,50.58
00.468,44.15
00.484,33.42
00.500,22.16
00.515,13.48
00.531,9.3
00.546,9.99
00.562,14.38
00.578,20.45
00.593,26.31
00.609,30.91
00.625,33.99
00.640,35.36
00.656,34.25
00.671,29.38
00.687,19.73
00.703,5.7
00.718,-10.1
00.734,-23.55
00.750,-30.58
00.765,-29.22
00.781,-20.56
00.796,-8.49
00.812,2.44
00.828,9.0
00.843,11.06
00.859,11.68
00.875,15.46
00.890,26.16
00.906,44.62
00.921,68.38
00.937,92.49
00.953,111.41
00.968,120.19
00.984,115.09
01.000,93.65
01.015,54.98
01.031,0.42
01.046,-65.56
01.062,-135.08
01.078,-197.99
01.093,-244.23
01.109,-266.88
01.125,-264.15
01.140,-239.67
01.156,-201.0
01.171,-156.82
01.187,-114.39
01.203,-77.84
01.218,-48.06
01.234,-23.64
01.250,-2.28
01.265,18.16
01.281,39.31
01.296,61.92
01.312,86.29
01.328,112.16
01.343,138.54
01.359,163.67
01.375,185.19
01.390,200.69
01.406,208.27
01.421,207.27
01.437,198.04
01.453,181.92
01.468,161.12
01.484,138.23
01.500,115.81
01.515,95.85
01.531,79.22
01.546,65.37
01.562,52.77
01.578,39.66
01.593,25.15
01.609,9.75
01.625,-4.87
01.640,-16.82
01.656,-24.95
01.671,-29.29
01.687,-30.74
01.703,-30.07
01.718,-27.32
01.734,-21.5
01.750,-11.27
01.765,4.17
01.781,24.29
01.796,47.13
01.812,69.79
01.828,89.15
01.843,102.63
01.859,108.41
01.875,105.59
01.890,94.03
01.906,74.34
01.921,48.03
01.937,17.69
01.953,-13.12
01.968,-40.49
01.984,-60.87
02.000,-72.08
02.015,-73.79
02.031,-67.49
02.046,-55.95
02.062,-42.24
02.078,-28.92
02.093,-17.68
02.109,-9.27
02.125,-3.86
02.140,-1.32
02.156,-1.34
02.171,-3.48
02.187,-7.12
02.203,-11.53
02.218,-15.88
02.234,-19.52
02.250,-21.96
02.265,-22.91
02.281,-22.21
02.296,-19.83
02.312,-15.78
02.328,-10.26
02.343,-3.56
02.359,3.99
02.375,12.05
02.390,20.36
02.406,28.7
02.421,36.75
02.437,44.06
02.453,50.06
02.468,54.1
02.484,55.63
02.500,54.39
02.515,50.45
02.531,44.19
02.546,36.3
02.562,27.75
02.578,19.72
02.593,13.32
02.609,9.26
02.625,7.49
02.640,7.1
02.656,6.61
02.671,4.56
02.687,0.23
02.703,-6.11
02.718,-13.21
02.734,-19.47
02.750,-23.66
02.765,-25.43
02.781,-25.33
02.796,-24.47
02.812,-23.98
02.828,-24.46
02.843,-25.98
02.859,-28.24
02.875,-30.94
02.890,-34.07
02.906,-37.88
02.921,-42.65
02.937,-48.31
02.953,-54.27
02.968,-59.44
02.984,-62.51
03.000,-62.37
03.015,-58.29
03.031,-50.12
03.046,-38.28
03.062,-23.75
03.078,-7.99
03.093,7.31
03.109,20.55
03.125,30.61
03.140,36.98
03.156,39.81
03.171,39.63
03.187,37.09
03.203,32.8
03.218,27.48
03.234,22.02
03.250,17.47
03.265,14.82
03.281,14.52
03.296,16.24
03.312,18.88
03.328,21.11
03.343,21.89
03.359,20.98
03.375,18.91
03.390,16.56
03.406,14.71
03.421,13.61
03.437,13.06
03.453,12.75
03.468,12.55
03.484,12.64
03.500,13.25
03.515,14.28
03.531,15.15
03.546,14.96
03.562,13.1
03.578,9.61
03.593,5.32
03.609,1.45
03.625,-0.96
03.640,-1.36
03.656,0.35
03.671,4.09
03.687,9.89
03.703,17.81
03.718,27.64
03.734,38.63
03.750,49.46
03.765,58.77
03.781,65.73
03.796,70.35
03.812,73.31
03.828,75.34
03.843,76.6
03.859,76.57
03.875,74.46
03.890,69.91
03.906,63.5
03.921,56.78
03.937,51.44
03.953,48.49
03.968,47.57
03.984,46.94
04.000,44.31
04.015,37.79
04.031,26.67
04.046,11.39
04.062,-6.84
04.078,-26.56
04.093,-46.22
04.109,-64.1
04.125,-78.38
04.140,-87.6
04.156,-91.27
04.171,-90.24
04.187,-86.65
04.203,-83.05
04.218,-81.25
04.234,-81.62
04.250,-83.19
04.265,-84.29
04.281,-83.54
04.296,-80.34
04.312,-74.78
04.328,-67.29
04.343,-58.27
04.359,-47.99
04.375,-36.79
04.390,-25.35
04.406,-14.59
04.421,-5.54
04.437,0.86
04.453,3.92
04.468,3.2
04.484,-1.44
04.500,-9.79
04.515,-21.36
04.531,-35.41
04.546,-51.0
04.562,-67.24
04.578,-83.27
04.593,-98.29
04.609,-111.48
04.625,-122.0
04.640,-129.08
04.656,-132.34
04.671,-131.89
04.687,-128.32
04.703,-122.55
04.718,-115.38
04.734,-107.29
04.750,-98.32
04.765,-88.3
04.781,-76.98
04.796,-64.12
04.812,-49.49
04.828,-32.68
04.843,-13.23
04.859,9.2
04.875,34.38
04.890,61.16
04.906,87.31
04.921,109.91
04.937,125.84
04.953,132.61
04.968,129.0
04.984,115.41
05.000,93.98
05.015,68.18
05.031,42.3
05.046,20.7
05.062,7.0
05.078,3.37
05.093,10.08
05.109,25.62
05.125,47.25
05.140,71.93
05.156,97.29
05.171,122.04
05.187,145.88
05.203,168.86
05.218,190.61
05.234,209.78
05.250,224.1
05.265,230.79
05.281,227.41
05.296,212.52
05.312,186.05
05.328,149.47
05.343,105.54
05.359,57.99
05.375,10.91
05.390,-31.88
05.406,-67.43
05.421,-93.95
05.437,-110.91
05.453,-119.01
05.468,-119.88
05.484,-115.81
05.500,-109.37
05.515,-102.67
05.531,-96.73
05.546,-91.03
05.562,-83.84
05.578,-73.0
05.593,-57.25
05.609,-37.0
05.625,-14.38
05.640,7.49
05.656,25.7
05.671,38.47
05.687,45.3
05.703,46.64
05.718,43.32
05.734,36.16
05.750,26.05
05.765,14.24
05.781,2.29
05.796,-8.14
05.812,-15.88
05.828,-20.66
05.843,-23.15
05.859,-24.56
05.875,-26.04
05.890,-28.28
05.906,-31.45
05.921,-35.43
05.937,-40.1
05.953,-45.55
05.968,-51.96
05.984,-59.3
06.000,-67.07
06.015,-74.3
06.031,-79.78
06.046,-82.51
06.062,-82.08
06.078,-78.73
06.093,-73.18
06.109,-66.3
06.125,-58.82
06.140,-51.17
06.156,-43.4
06.171,-35.33
06.187,-26.58
06.203,-16.74
06.218,-5.45
06.234,7.46
06.250,21.75
06.265,36.7
06.281,51.16
06.296,63.85
06.312,73.52
06.328,79.36
06.343,81.19
06.359,79.5
06.375,75.5
06.390,70.66
06.406,66.28
06.421,63.01
06.437,60.71
06.453,58.48
06.468,55.22
06.484,50.29
06.500,43.81
06.515,36.55
06.531,29.19
06.546,21.73
06.562,13.5
06.578,3.76
06.593,-7.71
06.609,-20.49
06.625,-34.08
06.640,-48.92
06.656,-66.3
06.671,-87.31
06.687,-111.05
06.703,-133.58
06.718,-148.59
06.734,-149.98
06.750,-134.94
06.765,-105.74
06.781,-69.19
06.796,-33.9
06.812,-7.05
06.828,7.81
06.843,10.89
06.859,4.75
06.875,-7.16
06.890,-21.56
06.906,-35.61
06.921,-47.23
06.937,-54.98
06.953,-58.1
06.968,-56.51
06.984,-50.48
07.000,-40.57
07.015,-27.62
07.031,-12.79
07.046,2.67
07.062,17.57
07.078,31.48
07.093,44.54
07.109,57.07
07.125,68.88
07.140,78.9
07.156,85.4
07.171,86.87
07.187,82.85
07.203,74.2
07.218,62.73
07.234,50.27
07.250,38.02
07.265,26.67
07.281,16.68
07.296,8.69
07.312,3.37
07.328,1.11
07.343,1.7
07.359,4.31
07.375,7.85
07.390,11.37
07.406,14.45
07.421,17.06
07.437,19.4
07.453,21.48
07.468,23.05
07.484,23.59
07.500,22.58
07.515,19.71
07.531,14.97
07.546,8.63
07.562,1.06
07.578,-7.4
07.593,-16.43
07.609,-25.74
07.625,-34.86
07.640,-42.99
07.656,-49.14
07.671,-52.51
07.687,-52.94
07.703,-51.25
07.718,-48.99
07.734,-47.84
07.750,-48.65
07.765,-50.9
07.781,-52.77
07.796,-51.85
07.812,-46.23
07.828,-35.58
07.843,-21.29
07.859,-5.98
07.875,7.5
07.890,17.1
07.906,22.19
07.921,23.55
07.937,22.82
07.953,21.89
07.968,22.24
07.984,24.52
08.000,28.53
08.015,33.4
08.031,38.18
08.046,42.22
08.062,45.51
08.078,48.48
08.093,51.61
08.109,55.14
08.125,58.97
08.140,62.95
08.156,67.09
08.171,71.77
08.187,77.45
08.203,84.28
08.218,91.82
08.234,99.01
08.250,104.61
08.265,107.73
08.281,108.11
08.296,106.0
08.312,101.97
08.328,96.41
08.343,89.46
08.359,81.13
08.375,71.41
08.390,60.48
08.406,48.57
08.421,36.03
08.437,23.14
08.453,10.25
08.468,-2.28
08.484,-14.29
08.500,-25.95
08.515,-37.96
08.531,-51.4
08.546,-67.33
08.562,-86.08
08.578,-106.88
08.593,-127.7
08.609,-145.88
08.625,-158.94
08.640,-165.35
08.656,-164.9
08.671,-158.36
08.687,-146.99
08.703,-132.09
08.718,-114.73
08.734,-95.81
08.750,-76.24
08.765,-57.09
08.781,-39.47
08.796,-24.32
08.812,-12.06
08.828,-2.46
08.843,5.17
08.859,11.76
08.875,18.09
08.890,24.62
08.906,31.33
08.921,37.91
08.937,43.81
08.953,48.52
08.968,51.6
08.984,52.7
09.000,51.5
09.015,47.81
09.031,41.74
09.046,33.77
09.062,24.59
09.078,14.86
09.093,4.91
09.109,-5.34
09.125,-16.1
09.140,-27.37
09.156,-38.61
09.171,-48.59
09.187,-55.65
09.203,-58.32
09.218,-55.95
09.234,-49.09
09.250,-39.48
09.265,-29.47
09.281,-21.23
09.296,-16.05
09.312,-13.98
09.328,-13.88
09.343,-14.17
09.359,-13.76
09.375,-12.45
09.390,-10.94
09.406,-10.23
09.421,-10.96
09.437,-13.04
09.453,-15.71
09.468,-17.87
09.484,-18.62
09.500,-17.56
09.515,-14.76
09.531,-10.56
09.546,-5.35
09.562,0.54
09.578,6.95
09.593,14.01
09.609,21.97
09.625,30.94
09.640,40.26
09.656,48.38
09.671,53.31
09.687,53.69
09.703,49.41
09.718,41.77
09.734,32.65
09.750,23.45
09.765,14.53
09.781,5.43
09.796,-4.2
09.812,-13.76
09.828,-21.63
09.843,-26.08
09.859,-26.83
09.875,-25.6
09.890,-25.28
09.906,-28.11
09.921,-34.27
09.937,-42.12
09.953,-49.57
09.968,-55.53
09.984,-60.12
10.000,-63.75
10.015,-65.84
10.031,-64.46
10.046,-57.37
10.062,-43.84
10.078,-25.88
10.093,-7.63
10.109,6.89
10.125,16.48
10.140,24.0
10.156,34.74
10.171,53.07
10.187,79.25
10.203,108.2
10.218,130.94
10.234,138.14
10.250,124.02
10.265,88.61
10.281,37.67
10.296,-19.27
10.312,-71.66
10.328,-110.55
10.343,-130.47
10.359,-130.6
10.375,-114.82
10.390,-90.54
10.406,-66.34
10.421,-49.15
10.437,-42.14
10.453,-44.16
10.468,-51.02
10.484,-58.05
10.500,-62.33
10.515,-63.53
10.531,-62.93
10.546,-61.56
10.562,-58.92
10.578,-53.18
10.593,-42.46
10.609,-26.65
10.625,-8.05
10.640,9.59
10.656,22.69
10.671,29.39
10.687,30.22
10.703,27.76
10.718,25.17
10.734,24.6
10.750,26.08
10.765,27.65
10.781,26.46
10.796,20.28
10.812,8.39
10.828,-8.33
10.843,-28.23
10.859,-49.93
10.875,-72.73
10.890,-96.47
10.906,-120.63
10.921,-143.66
10.937,-163.02
10.953,-175.89
10.968,-180.21
10.984,-175.3
11.000,-162.0
11.015,-142.24
11.031,-118.45
11.046,-93.11
11.062,-68.57
11.078,-46.96
11.093,-30.06
11.109,-19.01
11.125,-13.86
11.140,-13.39
11.156,-15.25
11.171,-16.5
11.187,-14.4
11.203,-7.19
11.218,5.49
11.234,22.57
11.250,41.89
11.265,61.02
11.281,77.74
11.296,90.55
11.312,98.76
11.328,102.28
11.343,101.42
11.359,96.58
11.375,88.28
11.390,77.05
11.406,63.64
11.421,48.87
11.437,33.67
11.453,18.93
11.468,5.47
11.484,-6.02
11.500,-15.09
11.515,-21.69
11.531,-26.36
11.546,-29.99
11.562,-33.53
11.578,-37.43
11.593,-41.22
11.609,-43.57
11.625,-42.83
11.640,-37.7
11.656,-27.8
11.671,-13.85
11.687,2.74
11.703,20.39
11.718,37.89
11.734,54.62
11.750,70.38
11.765,84.92
11.781,97.74
11.796,107.89
11.812,114.33
11.828,116.48
11.843,114.68
11.859,110.34
11.875,105.62
11.890,102.66
11.906,102.83
11.921,106.19
11.937,111.51
11.953,116.62
11.968,119.23
11.984,117.6
12.000,110.9
12.015,99.11
12.031,82.74
12.046,62.6
12.062,39.66
12.078,15.19
12.093,-9.12
12.109,-31.53
12.125,-50.65
12.140,-65.52
12.156,-75.67
12.171,-80.54
12.187,-78.81
12.203,-68.44
12.218,-47.64
12.234,-16.74
12.250,20.57
12.265,57.52
12.281,86.1
12.296,99.97
12.312,96.89
12.328,79.09
12.343,51.87
12.359,20.97
12.375,-9.58
12.390,-37.97
12.406,-63.92
12.421,-87.3
12.437,-107.25
12.453,-122.24
12.468,-130.63
12.484,-131.36
12.500,-124.5
12.515,-111.38
12.531,-94.43
12.546,-76.82
12.562,-61.7
12.578,-51.25
12.593,-45.41
12.609,-42.0
12.625,-37.75
12.640,-29.93
12.656,-17.92
12.671,-3.74
12.687,8.91
12.703,16.51
12.718,17.43
12.734,12.41
12.750,3.72
12.765,-6.08
12.781,-15.49
12.796,-24.23
12.812,-32.6
12.828,-40.54
12.843,-47.07
12.859,-50.36
12.875,-48.67
12.890,-41.34
12.906,-29.17
12.921,-14.17
12.937,1.3
12.953,15.37
12.968,27.24
12.984,37.2
13.000,46.19
13.015,55.05
13.031,63.97
13.046,72.25
13.062,78.66
13.078,82.01
13.093,81.77
13.109,78.45
13.125,73.45
13.140,68.52
13.156,64.93
13.171,63.0
13.187,62.06
13.203,60.92
13.218,58.53
13.234,54.45
13.250,48.92
13.265,42.5
13.281,35.68
13.296,28.61
13.312,21.16
13.328,13.24
13.343,4.98
13.359,-3.13
13.375,-10.43
13.390,-16.38
13.406,-20.6
13.421,-22.86
13.437,-22.78
13.453,-19.77
13.468,-13.14
13.484,-2.42
13.500,12.22
13.515,29.96
13.531,49.57
13.546,69.87
13.562,89.9
13.578,108.85
13.593,125.73
13.609,138.93
13.625,146.32
13.640,145.76
13.656,135.94
13.671,117.05
13.687,91.02
13.703,61.18
13.718,31.17
13.734,3.91
13.750,-19.22
13.765,-38.56
13.781,-55.46
13.796,-71.3
13.812,-86.57
13.828,-100.58
13.843,-111.82
13.859,-118.89
13.875,-121.23
13.890,-119.2
13.906,-113.69
13.921,-105.41
13.937,-94.71
13.953,-81.87
13.968,-67.47
13.984,-52.25
14.000,-36.61
14.015,-20.37
14.031,-3.12
14.046,15.14
14.062,33.57
14.078,50.38
14.093,63.07
14.109,68.79
14.125,64.97
14.140,49.98
14.156,23.88
14.171,-10.78
14.187,-48.93
14.203,-83.66
14.218,-108.1
14.234,-117.39
14.250,-109.94
14.265,-87.48
14.281,-54.15
14.296,-15.11
14.312,24.43
14.328,59.89
14.343,87.88
14.359,106.79
14.375,117.17
14.390,121.3
14.406,121.68
14.421,119.62
14.437,114.55
14.453,104.77
14.468,89.01
14.484,67.39
14.500,41.56
14.515,13.98
14.531,-13.14
14.546,-38.06
14.562,-59.29
14.578,-75.24
14.593,-84.17
14.609,-84.76
14.625,-76.7
14.640,-60.78
14.656,-38.63
14.671,-12.46
14.687,14.94
14.703,40.16
14.718,59.46
14.734,69.54
14.750,68.63
14.765,57.34
14.781,38.63
14.796,16.71
14.812,-4.22
14.828,-21.13
14.843,-32.32
14.859,-37.06
14.875,-35.1
14.890,-26.71
14.906,-13.13
14.921,3.21
14.937,18.86
14.953,30.31
14.968,35.12
14.984,32.94
15.000,25.68
15.015,16.79
15.031,10.11
15.046,8.37
15.062,12.19
15.078,19.74
15.093,27.28
15.109,30.48
15.125,26.2
15.140,14.01
15.156,-3.35
15.171,-20.26
15.187,-29.75
15.203,-25.68
15.218,-4.98
15.234,30.59
15.250,73.87
15.265,113.56
15.281,137.53
15.296,137.5
15.312,113.06
15.328,72.61
15.343,29.97
15.359,-1.8
15.375,-16.06
15.390,-14.78
15.406,-6.23
15.421,0.21
15.437,-1.21
15.453,-10.22
15.468,-21.72
15.484,-28.98
15.500,-26.72
15.515,-13.37
15.531,8.64
15.546,33.47
15.562,53.6
15.578,62.18
15.593,55.38
15.609,33.62
15.625,1.43
15.640,-34.55
15.656,-68.28
15.671,-96.03
15.687,-116.33
15.703,-128.65
15.718,-132.13
15.734,-125.51
15.750,-108.48
15.765,-82.62
15.781,-51.78
15.796,-20.9
15.812,5.56
15.828,24.96
15.843,37.07
15.859,43.58
15.875,47.21
15.890,50.6
15.906,55.48
15.921,62.06
15.937,68.79
15.953,73.18
15.968,72.92
15.984,66.74
16.000,55.1
16.015,40.13
16.031,24.94
16.046,12.93
16.062,7.25
16.078,10.58
16.093,24.8
16.109,50.18
16.125,84.04
16.140,120.11
16.156,149.01
16.171,160.72
16.187,148.47
16.203,111.85
16.218,57.63
16.234,-2.91
16.250,-58.5
16.265,-101.88
16.281,-130.95
16.296,-147.16
16.312,-152.7
16.328,-148.65
16.343,-135.25
16.359,-113.85
16.375,-88.36
16.390,-64.93
16.406,-49.46
16.421,-44.86
16.437,-49.75
16.453,-59.6
16.468,-69.21
16.484,-75.16
16.500,-76.89
16.515,-75.9
16.531,-74.25
16.546,-73.33
16.562,-73.29
16.578,-73.09
16.593,-70.83
16.609,-64.24
16.625,-51.52
16.640,-32.1
16.656,-7.09
16.671,20.87
16.687,48.47
16.703,72.87
16.718,92.73
16.734,108.47
16.750,121.7
16.765,133.9
16.781,145.54
16.796,155.84
16.812,163.08
16.828,165.3
16.843,160.96
16.859,149.34
16.875,130.96
16.890,107.77
16.906,83.33
16.921,62.55
16.937,50.92
16.953,52.59
16.968,68.27
16.984,93.67
17.000,119.66
17.015,134.5
17.031,127.62
17.046,93.74
17.062,35.49
17.078,-36.61
17.093,-107.63
17.109,-163.5
17.125,-195.84
17.140,-204.11
17.156,-194.2
17.171,-174.46
17.187,-151.83
17.203,-129.94
17.218,-109.84
17.234,-91.99
17.250,-77.61
17.265,-68.0
17.281,-62.67
17.296,-58.06
17.312,-48.42
17.328,-28.71
17.343,2.12
17.359,39.51
17.375,74.75
17.390,98.39
17.406,103.99
17.421,90.09
17.437,60.22
17.453,21.39
17.468,-18.06
17.484,-50.43
17.500,-70.18
17.515,-74.96
17.531,-65.79
17.546,-46.34
17.562,-21.62
17.578,3.59
17.593,25.86
17.609,43.26
17.625,54.93
17.640,60.55
17.656,60.06
17.671,53.74
17.687,42.37
17.703,27.17
17.718,9.51
17.734,-9.23
17.750,-27.61
17.765,-43.93
17.781,-56.0
17.796,-61.26
17.812,-57.41
17.828,-43.09
17.843,-18.62
17.859,13.2
17.875,46.96
17.890,75.0
17.906,89.2
17.921,83.74
17.937,58.21
17.953,19.07
17.968,-22.17
17.984,-53.25
18.000,-66.76
18.015,-63.52
18.031,-51.39
18.046,-40.25
18.062,-36.39
18.078,-39.46
18.093,-43.69
18.109,-42.27
18.125,-31.49
18.140,-12.2
18.156,11.95
18.171,37.32
18.187,61.74
18.203,83.97
18.218,101.91
18.234,111.74
18.250,108.96
18.265,90.98
18.281,59.1
18.296,18.64
18.312,-22.95
18.328,-58.95
18.343,-85.25
18.359,-100.97
18.375,-107.68
18.390,-108.3
18.406,-105.72
18.421,-101.87
18.437,-96.87
18.453,-88.98
18.468,-75.67
18.484,-54.93
18.500,-26.7
18.515,6.15
18.531,38.36
18.546,64.02
18.562,78.51
18.578,80.12
18.593,70.45
18.609,53.47
18.625,33.89
18.640,15.53
18.656,0.73
18.671,-9.42
18.687,-14.09
18.703,-12.23
18.718,-3.05
18.734,12.5
18.750,30.4
18.765,43.98
18.781,46.27
18.796,33.49
18.812,7.65
18.828,-23.79
18.843,-51.61
18.859,-69.34
18.875,-76.01
18.890,-75.12
18.906,-70.79
18.921,-64.2
18.937,-53.18
18.953,-35.23
18.968,-11.42
18.984,12.09
19.000,26.72
19.015,26.54
19.031,12.34
19.046,-8.26
19.062,-24.96
19.078,-30.37
19.093,-23.73
19.109,-10.37
19.125,2.14
19.140,8.41
19.156,7.66
19.171,2.88
19.187,-2.18
19.203,-5.73
19.218,-8.9
19.234,-14.67
19.250,-25.27
19.265,-39.95
19.281,-54.37
19.296,-62.29
19.312,-58.46
19.328,-41.41
19.343,-14.71
19.359,14.67
19.375,39.3
19.390,54.54
19.406,59.93
19.421,58.52
19.437,54.46
19.453,50.75
19.468,47.88
19.484,44.24
19.500,37.67
19.515,27.03
19.531,13.21
19.546,-0.99
19.562,-12.01
19.578,-16.93
19.593,-14.69
19.609,-6.33
19.625,5.47
19.640,17.34
19.656,25.73
19.671,27.06
19.687,17.7
19.703,-5.25
19.718,-42.17
19.734,-89.24
19.750,-137.99
19.765,-177.44
19.781,-198.12
19.796,-195.88
19.812,-173.21
19.828,-136.9
19.843,-93.95
19.859,-48.58
19.875,-2.4
19.890,42.93
19.906,83.09
19.921,111.38
19.937,122.15
19.953,114.99
19.968,96.49
19.984,77.53
20.000,67.55
20.015,69.47
20.031,78.21
20.046,83.82
20.062,77.08
20.078,54.18
20.093,17.84
20.109,-24.87
20.125,-66.26
20.140,-101.0
20.156,-126.94
20.171,-144.23
20.187,-153.88
20.203,-156.61
20.218,-152.47
20.234,-141.38
20.250,-123.73
20.265,-100.8
20.281,-74.66
20.296,-47.53
20.312,-21.26
20.328,3.0
20.343,24.74
20.359,43.59
20.375,58.95
20.390,69.93
20.406,75.55
20.421,75.14
20.437,68.9
20.453,58.22
20.468,45.87
20.484,35.92
20.500,33.0
20.515,40.97
20.531,61.44
20.546,92.93
20.562,130.84
20.578,168.48
20.593,198.65
20.609,214.99
20.625,212.85
20.640,189.71
20.656,145.83
20.671,84.88
20.687,14.38
20.703,-55.14
20.718,-112.27
20.734,-148.02
20.750,-158.53
20.765,-145.69
20.781,-115.91
20.796,-77.6
20.812,-38.92
20.828,-6.43
20.843,15.44
20.859,24.74
20.875,22.4
20.890,12.47
20.906,1.52
20.921,-3.73
20.937,0.93
20.953,15.21
20.968,34.09
20.984,49.78
21.000,55.12
21.015,46.54
21.031,25.22
21.046,-3.65
21.062,-33.25
21.078,-57.78
21.093,-74.3
21.109,-82.9
21.125,-85.75
21.140,-85.26
21.156,-82.42
21.171,-76.58
21.187,-66.36
21.203,-51.31
21.218,-32.73
21.234,-13.41
21.250,3.67
21.265,16.74
21.281,25.78
21.296,31.91
21.312,36.22
21.328,38.88
21.343,39.05
21.359,35.94
21.375,29.48
21.390,20.69
21.406,11.46
21.421,4.04
21.437,0.5
21.453,2.83
21.468,12.89
21.484,31.53
21.500,57.73
21.515,88.08
21.531,117.33
21.546,139.9
21.562,151.68
21.578,150.72
21.593,136.68
21.609,109.66
21.625,69.89
21.640,18.72
21.656,-39.62
21.671,-97.07
21.687,-143.32
21.703,-169.36
21.718,-171.37
21.734,-152.08
21.750,-119.03
21.765,-81.03
21.781,-44.92
21.796,-14.32
21.812,9.7
21.828,27.12
21.843,38.25
21.859,43.91
21.875,45.75
21.890,45.92
21.906,46.0
21.921,45.95
21.937,43.9
21.953,37.19
21.968,23.96
21.984,4.03
22.000,-21.37
22.015,-50.11
22.031,-79.68
22.046,-107.64
22.062,-131.39
22.078,-148.65
22.093,-158.2
22.109,-160.04
22.125,-155.08
22.140,-144.36
22.156,-128.43
22.171,-107.49
22.187,-82.11
22.203,-53.73
22.218,-24.82
22.234,1.81
22.250,23.91
22.265,40.37
22.281,51.19
22.296,56.89
22.312,57.71
22.328,53.54
22.343,44.44
22.359,31.55
22.375,17.72
22.390,7.55
22.406,6.35
22.421,18.21
22.437,44.09
22.453,80.84
22.468,122.09
22.484,159.98
22.500,187.59
22.515,200.62
22.531,197.35
22.546,177.75
22.562,142.36
22.578,92.29
22.593,30.44
22.609,-37.06
22.625,-100.93
22.640,-150.89
22.656,-179.13
22.671,-183.17
22.687,-166.4
22.703,-136.06
22.718,-100.22
22.734,-65.4
22.750,-35.9
22.765,-14.57
22.781,-3.35
22.796,-2.96
22.812,-11.63
22.828,-24.38
22.843,-33.78
22.859,-32.56
22.875,-16.88
22.890,11.49
22.906,45.66
22.921,76.52
22.937,96.36
22.953,101.2
22.968,91.4
22.984,70.15
23.000,41.51
23.015,9.25
23.031,-23.61
23.046,-54.41
23.062,-80.32
23.078,-98.54
23.093,-107.08
23.109,-105.58
23.125,-95.59
23.140,-80.2
23.156,-62.82
23.171,-46.19
23.187,-31.77
23.203,-19.92
23.218,-10.39
23.234,-2.91
23.250,2.41
23.265,5.07
23.281,4.13
23.296,-1.22
23.312,-10.73
23.328,-22.27
23.343,-31.7
23.359,-33.71
23.375,-24.03
23.390,-1.44
23.406,31.16
23.421,67.47
23.437,100.01
23.453,122.57
23.468,131.58
23.484,125.71
23.500,104.85
23.515,69.54
23.531,22.04
23.546,-32.25
23.562,-84.34
23.578,-123.46
23.593,-140.78
23.609,-132.74
23.625,-102.03
23.640,-55.97
23.656,-3.21
23.671,49.03
23.687,95.83
23.703,133.69
23.718,159.6
23.734,171.24
23.750,168.15
23.765,153.01
23.781,131.25
23.796,109.1
23.812,90.85
23.828,77.48
23.843,66.88
23.859,55.98
23.875,42.7
23.890,26.73
23.906,9.2
23.921,-8.25
23.937,-24.23
23.953,-37.82
23.968,-48.34
23.984,-55.26
24.000,-58.2
24.015,-57.16
24.031,-52.26
24.046,-43.43
24.062,-29.88
24.078,-10.28
24.093,16.31
24.109,49.24
24.125,85.47
24.140,120.05
24.156,147.6
24.171,164.19
24.187,168.69
24.203,162.81
24.218,149.93
24.234,133.44
24.250,115.64
24.265,97.43
24.281,78.97
24.296,60.45
24.312,42.58
24.328,26.57
24.343,13.49
24.359,3.7
24.375,-3.31
24.390,-8.65
24.406,-13.51
24.421,-18.68
24.437,-24.26
24.453,-29.79
24.468,-34.51
24.484,-37.73
24.500,-39.02
24.515,-38.45
24.531,-36.54
24.546,-34.22
24.562,-32.58
24.578,-32.71
24.593,-35.41
24.609,-40.92
24.625,-48.73
24.640,-57.65
24.656,-66.0
24.671,-72.2
24.687,-75.25
24.703,-75.0
24.718,-72.13
24.734,-67.79
24.750,-63.09
24.765,-58.74
24.781,-54.88
24.796,-51.25
24.812,-47.54
24.828,-43.67
24.843,-39.83
24.859,-36.43
24.875,-33.89
24.890,-32.5
24.906,-32.46
24.921,-33.94
24.937,-37.23
24.953,-42.45
24.968,-49.32
24.984,-56.77
25.000,-63.02
25.015,-66.08
25.031,-64.6
25.046,-58.58
25.062,-49.43
25.078,-39.45
25.093,-30.73
25.109,-24.38
25.125,-20.04
25.140,-16.39
25.156,-11.63
25.171,-4.31
25.187,6.24
25.203,19.73
25.218,34.65
25.234,48.35
25.250,57.34
25.265,58.14
25.281,48.53
25.296,28.91
25.312,2.69
25.328,-24.29
25.343,-45.58
25.359,-56.18
25.375,-54.07
25.390,-40.84
25.406,-20.8
25.421,0.75
25.437,19.45
25.453,32.92
25.468,40.87
25.484,44.23
25.500,44.03
25.515,40.9
25.531,35.31
25.546,28.27
25.562,21.59
25.578,17.55
25.593,18.06
25.609,24.17
25.625,36.15
25.640,53.99
25.656,77.64
25.671,106.66
25.687,139.16
25.703,170.89
25.718,195.3
25.734,205.11
25.750,194.98
25.765,164.14
25.781,117.24
25.796,63.3
25.812,13.02
25.828,-24.1
25.843,-42.1
25.859,-39.62
25.875,-20.04
25.890,9.39
25.906,39.1
25.921,59.58
25.937,64.1
25.953,50.87
25.968,23.6
25.984,-9.79
26.000,-40.26
26.015,-61.0
26.031,-69.51
26.046,-67.52
26.062,-59.15
26.078,-48.34
26.093,-37.38
26.109,-26.89
26.125,-16.99
26.140,-8.38
26.156,-2.43
26.171,-0.2
26.187,-1.34
26.203,-3.78
26.218,-4.53
26.234,-1.13
26.250,6.87
26.265,17.7
26.281,28.2
26.296,35.26
26.312,37.25
26.328,34.54
26.343,28.94
26.359,22.73
26.375,17.6
26.390,14.04
26.406,11.46
26.421,8.89
26.437,5.45
26.453,0.78
26.468,-5.01
26.484,-11.56
26.500,-18.59
26.515,-26.14
26.531,-34.52
26.546,-44.13
26.562,-55.03
26.578,-66.66
26.593,-77.75
26.609,-86.57
26.625,-91.62
26.640,-92.29
26.656,-89.19
26.671,-83.9
26.687,-78.18
26.703,-73.08
26.718,-68.52
26.734,-63.63
26.750,-57.52
26.765,-50.13
26.781,-42.48
26.796,-36.24
26.812,-32.91
26.828,-33.05
26.843,-36.05
26.859,-40.42
26.875,-44.49
26.890,-47.01
26.906,-47.38
26.921,-45.61
26.937,-42.01
26.953,-37.05
26.968,-31.07
26.984,-24.28
27.000,-16.8
27.015,-8.89
27.031,-0.83
27.046,6.91
27.062,14.02
27.078,20.37
27.093,26.1
27.109,31.47
27.125,36.67
27.140,41.56
27.156,45.72
27.171,48.57
27.187,49.76
27.203,49.29
27.218,47.67
27.234,45.58
27.250,43.66
27.265,42.18
27.281,41.03
27.296,39.91
27.312,38.44
27.328,36.41
27.343,33.86
27.359,31.08
27.375,28.51
27.390,26.56
27.406,25.54
27.421,25.48
27.437,26.21
27.453,27.36
27.468,28.59
27.484,29.61
27.500,30.29
27.515,30.58
27.531,30.52
27.546,30.03
27.562,29.05
27.578,27.5
27.593,25.36
27.609,22.65
27.625,19.41
27.640,15.67
27.656,11.5
27.671,7.02
27.687,2.47
27.703,-1.86
27.718,-5.73
27.734,-9.01
27.750,-11.8
27.765,-14.31
27.781,-16.77
27.796,-19.3
27.812,-21.85
27.828,-24.24
27.843,-26.31
27.859,-27.94
27.875,-29.19
27.890,-30.24
27.906,-31.3
27.921,-32.54
27.937,-34.08
27.953,-35.76
27.968,-37.25
27.984,-38.11
28.000,-37.84
28.015,-36.1
28.031,-32.72
28.046,-27.76
28.062,-21.51
28.078,-14.39
28.093,-6.85
28.109,0.66
28.125,7.8
28.140,14.44
28.156,20.54
28.171,26.21
28.187,31.48
28.203,36.16
28.218,39.88
28.234,42.15
28.250,42.63
28.265,41.29
28.281,38.45
28.296,34.64
28.312,30.33
28.328,25.72
28.343,20.66
28.359,14.86
28.375,8.24
28.390,1.04
28.406,-6.25
28.421,-13.13
28.437,-19.44
28.453,-25.43
28.468,-31.66
28.484,-38.76
28.500,-47.15
28.515,-56.88
28.531,-67.71
28.546,-79.23
28.562,-90.94
28.578,-102.31
28.593,-112.59
28.609,-120.92
28.625,-126.39
28.640,-128.39
28.656,-126.85
28.671,-122.28
28.687,-115.46
28.703,-107.13
28.718,-97.57
28.734,-86.64
28.750,-74.0
28.765,-59.65
28.781,-44.21
28.796,-28.79
28.812,-14.76
28.828,-3.16
28.843,5.42
28.859,10.83
28.875,13.11
28.890,12.4
28.906,9.08
28.921,4.0
28.937,-1.48
28.953,-5.68
28.968,-7.11
28.984,-5.05
29.000,0.22
29.015,7.46
29.031,14.93
29.046,20.89
29.062,24.12
29.078,24.12
29.093,21.25
29.109,16.53
29.125,11.11
29.140,5.93
29.156,1.13
29.171,-3.92
29.187,-10.4
29.203,-19.44
29.218,-31.37
29.234,-45.38
29.250,-59.45
29.265,-70.88
29.281,-77.01
29.296,-76.04
29.312,-67.53
29.328,-52.56
29.343,-33.54
29.359,-13.61
29.375,4.07
29.390,16.91
29.406,23.34
29.421,22.93
29.437,16.25
29.453,4.57
29.468,-10.28
29.484,-26.21
29.500,-41.02
29.515,-52.65
29.531,-59.35
29.546,-60.17
29.562,-55.02
29.578,-44.8
29.593,-31.05
29.609,-15.38
29.625,0.72
29.640,16.04
29.656,29.43
29.671,39.79
29.687,46.15
29.703,48.11
29.718,46.23
29.734,41.97
29.750,37.32
29.765,33.87
29.781,32.11
29.796,31.39
29.812,30.36
29.828,27.76
29.843,23.01
29.859,16.48
29.875,9.04
29.890,1.53
29.906,-5.74
29.921,-13.04
29.937,-20.89
29.953,-29.73
29.968,-39.4
29.984,-48.98
30.000,-57.03
30.015,-62.14
30.031,-63.52
30.046,-61.33
30.062,-56.51
30.078,-50.15
30.093,-42.99
30.109,-35.08
30.125,-26.01
30.140,-15.49
30.156,-4.0
30.171,7.22
30.187,16.43
30.203,22.26
30.218,24.32
30.234,23.5
30.250,21.71
30.265,21.11
30.281,23.2
30.296,28.36
30.312,35.75
30.328,43.76
30.343,50.56
30.359,54.7
30.375,55.5
30.390,53.19
30.406,48.73
30.421,43.5
30.437,38.96
30.453,36.44
30.468,36.78
30.484,40.17
30.500,45.95
30.515,52.72
30.531,58.75
30.546,62.57
30.562,63.42
30.578,61.65
30.593,58.64
30.609,56.43
30.625,57.17
30.640,62.54
30.656,73.29
30.671,88.99
30.687,108.06
30.703,127.93
30.718,145.46
30.734,157.6
30.750,162.2
30.765,158.64
30.781,148.05
30.796,133.06
30.812,116.92
30.828,102.48
30.843,91.24
30.859,83.0
30.875,76.18
30.890,68.66
30.906,58.63
30.921,45.39
30.937,29.25
30.953,11.33
30.968,-6.66
30.984,-22.45
31.000,-33.4
31.015,-37.25
31.031,-33.28
31.046,-23.42
31.062,-12.2
31.078,-5.59
31.093,-8.75
31.109,-23.73
31.125,-48.53
31.140,-77.99
31.156,-105.96
31.171,-127.66
31.187,-141.18
31.203,-147.49
31.218,-149.5
31.234,-150.66
31.250,-153.81
31.265,-160.36
31.281,-169.83
31.296,-179.51
31.312,-184.83
31.328,-180.61
31.343,-163.09
31.359,-131.62
31.375,-89.34
31.390,-42.03
31.406,3.95
31.421,43.9
31.437,75.73
31.453,99.59
31.468,116.59
31.484,127.74
31.500,133.89
31.515,136.16
31.531,136.19
31.546,135.66
31.562,135.38
31.578,134.73
31.593,131.92
31.609,125.07
31.625,113.59
31.640,98.59
31.656,82.4
31.671,67.36
31.687,55.03
31.703,45.94
31.718,40.11
31.734,37.38
31.750,37.37
31.765,39.36
31.781,41.85
31.796,42.85
31.812,40.66
31.828,34.73
31.843,25.93
31.859,16.13
31.875,7.32
31.890,0.47
31.906,-4.73
31.921,-9.67
31.937,-15.88
31.953,-24.12
31.968,-33.65
31.984,-42.65
32.000,-49.04
32.015,-51.3
32.031,-49.06
32.046,-42.87
32.062,-33.69
32.078,-22.41
32.093,-9.69
32.109,3.79
32.125,16.87
32.140,27.97
32.156,35.44
32.171,38.23
32.187,36.39
32.203,30.99
32.218,23.56
32.234,15.53
32.250,7.88
32.265,1.05
32.281,-4.89
32.296,-10.19
32.312,-15.42
32.328,-21.28
32.343,-28.52
32.359,-37.62
32.375,-48.53
32.390,-60.53
32.406,-72.55
32.421,-83.38
32.437,-92.0
32.453,-97.9
32.468,-100.96
32.484,-101.56
32.500,-100.39
32.515,-98.31
32.531,-96.02
32.546,-93.95
32.562,-92.19
32.578,-90.67
32.593,-89.25
32.609,-87.82
32.625,-86.05
32.640,-83.12
32.656,-77.64
32.671,-68.08
32.687,-53.47
32.703,-33.98
32.718,-11.18
32.734,12.43
32.750,34.22
32.765,52.2
32.781,65.45
32.796,74.07
32.812,78.78
32.828,80.5
32.843,80.11
32.859,78.17
32.875,74.84
32.890,69.94
32.906,63.12
32.921,54.28
32.937,43.87
32.953,33.0
32.968,23.14
32.984,15.69
33.000,11.47
33.015,10.52
33.031,12.38
33.046,16.3
33.062,21.38
33.078,26.32
33.093,29.25
33.109,28.1
33.125,21.39
33.140,9.17
33.156,-6.59
33.171,-22.57
33.187,-35.54
33.203,-43.72
33.218,-47.57
33.234,-49.33
33.250,-51.97
33.265,-57.81
33.281,-67.8
33.296,-81.38
33.312,-96.87
33.328,-112.08
33.343,-124.9
33.359,-133.63
33.375,-137.23
33.390,-135.41
33.406,-128.56
33.421,-117.61
33.437,-103.63
33.453,-87.46
33.468,-69.68
33.484,-50.71
33.500,-30.95
33.515,-10.81
33.531,9.25
33.546,28.84
33.562,47.73
33.578,65.86
33.593,83.16
33.609,99.29
33.625,113.47
33.640,124.71
33.656,132.05
33.671,134.65
33.687,131.77
33.703,122.44
33.718,105.63
33.734,80.78
33.750,48.73
33.765,12.43
33.781,-23.37
33.796,-53.31
33.812,-73.26
33.828,-81.69
33.843,-79.99
33.859,-71.58
33.875,-60.32
33.890,-49.15
33.906,-39.6
33.921,-32.21
33.937,-27.21
33.953,-24.79
33.968,-24.8
33.984,-26.33
34.000,-27.6
34.015,-26.24
34.031,-20.2
34.046,-8.52
34.062,8.27
34.078,28.36
34.093,49.3
34.109,68.77
34.125,85.13
34.140,97.36
34.156,104.86
34.171,107.02
34.187,103.16
34.203,92.83
34.218,76.28
34.234,54.9
34.250,31.0
34.265,7.38
34.281,-13.38
34.296,-29.28
34.312,-39.11
34.328,-42.27
34.343,-38.75
34.359,-29.18
34.375,-14.98
34.390,1.69
34.406,18.54
34.421,33.67
34.437,46.28
34.453,56.6
34.468,65.33
34.484,72.86
34.500,78.64
34.515,81.3
34.531,79.29
34.546,71.71
34.562,58.87
34.578,42.31
34.593,24.3
34.609,7.05
34.625,-7.87
34.640,-19.96
34.656,-29.86
34.671,-39.09
34.687,-49.47
34.703,-62.21
34.718,-77.09
34.734,-92.08
34.750,-103.79
34.765,-108.48
34.781,-103.42
34.796,-87.83
34.812,-63.15
34.828,-32.55
34.843,-0.09
34.859,30.1
34.875,54.43
34.890,70.27
34.906,76.4
34.921,73.22
34.937,62.88
34.953,48.84
34.968,34.9
34.984,24.04
35.000,17.62
35.015,15.16
35.031,14.92
35.046,14.75
35.062,12.87
35.078,8.4
35.093,1.31
35.109,-7.84
35.125,-18.35
35.140,-29.65
35.156,-41.42
35.171,-53.48
35.187,-65.66
35.203,-77.62
35.218,-88.98
35.234,-99.45
35.250,-108.82
35.265,-116.65
35.281,-121.81
35.296,-122.32
35.312,-115.78
35.328,-100.5
35.343,-76.57
35.359,-46.39
35.375,-13.93
35.390,16.64
35.406,42.41
35.421,62.33
35.437,76.82
35.453,86.61
35.468,91.73
35.484,91.47
35.500,85.16
35.515,73.41
35.531,58.74
35.546,44.96
35.562,35.84
35.578,33.55
35.593,37.97
35.609,47.11
35.625,58.22
35.640,68.9
35.656,77.63
35.671,83.52
35.687,85.67
35.703,82.82
35.718,73.53
35.734,57.05
35.750,34.26
35.765,7.93
35.781,-17.99
35.796,-39.8
35.812,-55.62
35.828,-66.06
35.843,-73.76
35.859,-82.01
35.875,-93.4
35.890,-108.54
35.906,-125.77
35.921,-141.95
35.937,-153.5
35.953,-157.64
35.968,-152.94
35.984,-139.4
36.000,-118.28
36.015,-91.78
36.031,-62.77
36.046,-34.23
36.062,-8.73
36.078,12.24
36.093,28.47
36.109,40.92
36.125,51.09
36.140,60.22
36.156,68.83
36.171,76.67
36.187,82.84
36.203,86.35
36.218,86.51
36.234,83.22
36.250,77.22
36.265,70.0
36.281,63.37
36.296,58.99
36.312,57.76
36.328,59.37
36.343,62.27
36.359,64.27
36.375,63.16
36.390,57.33
36.406,46.24
36.421,30.51
36.437,12.01
36.453,-6.45
36.468,-21.57
36.484,-30.53
36.500,-31.97
36.515,-26.88
36.531,-18.6
36.546,-11.73
36.562,-10.34
36.578,-16.29
36.593,-28.55
36.609,-43.8
36.625,-57.72
36.640,-66.34
36.656,-67.16
36.671,-59.37
36.687,-43.74
36.703,-22.27
36.718,2.04
36.734,25.6
36.750,45.11
36.765,58.76
36.781,66.8
36.796,71.0
36.812,73.22
36.828,74.16
36.843,73.14
36.859,69.23
36.875,62.75
36.890,56.05
36.906,52.54
36.921,54.72
36.937,62.38
36.953,72.15
36.968,79.03
36.984,78.59
37.000,68.84
37.015,50.66
37.031,27.04
37.046,1.82
37.062,-21.48
37.078,-40.22
37.093,-53.08
37.109,-60.49
37.125,-64.6
37.140,-68.44
37.156,-74.45
37.171,-83.23
37.187,-93.41
37.203,-102.74
37.218,-109.67
37.234,-114.3
37.250,-118.08
37.265,-122.5
37.281,-127.66
37.296,-131.82
37.312,-132.28
37.328,-126.99
37.343,-115.79
37.359,-100.44
37.375,-83.43
37.390,-66.56
37.406,-50.09
37.421,-32.96
37.437,-13.9
37.453,7.22
37.468,28.77
37.484,47.81
37.500,61.25
37.515,67.36
37.531,66.53
37.546,60.99
37.562,53.82
37.578,47.58
37.593,43.37
37.609,40.83
37.625,38.89
37.640,36.61
37.656,33.65
37.671,30.31
37.687,27.04
37.703,24.13
37.718,21.53
37.734,19.16
37.750,17.1
37.765,15.72
37.781,15.51
37.796,16.81
37.812,19.71
37.828,23.94
37.843,29.0
37.859,34.17
37.875,38.68
37.890,41.69
37.906,42.58
37.921,41.15
37.937,37.74
37.953,33.21
37.968,28.53
37.984,24.41
38.000,21.12
38.015,18.57
38.031,16.62
38.046,15.16
38.062,14.13
38.078,13.07
38.093,11.14
38.109,7.18
38.125,0.32
38.140,-9.59
38.156,-21.83
38.171,-35.11
38.187,-48.14
38.203,-60.01
38.218,-70.23
38.234,-78.35
38.250,-83.82
38.265,-86.13
38.281,-85.21
38.296,-81.79
38.312,-77.22
38.328,-72.86
38.343,-69.16
38.359,-65.23
38.375,-59.01
38.390,-48.32
38.406,-32.05
38.421,-11.14
38.437,11.31
38.453,30.87
38.468,43.24
38.484,45.9
38.500,39.02
38.515,25.53
38.531,9.98
38.546,-3.3
38.562,-11.72
38.578,-15.19
38.593,-15.44
38.609,-14.78
38.625,-14.54
38.640,-14.68
38.656,-14.08
38.671,-11.62
38.687,-6.71
38.703,0.74
38.718,10.94
38.734,24.71
38.750,43.2
38.765,67.1
38.781,95.51
38.796,125.63
38.812,153.33
38.828,174.54
38.843,186.57
38.859,188.75
38.875,182.07
38.890,168.34
38.906,149.45
38.921,127.15
38.937,103.47
38.953,81.08
38.968,63.28
38.984,53.19
39.000,52.53
39.015,60.51
39.031,73.84
39.046,87.83
39.062,98.2
39.078,102.88
39.093,102.69
39.109,100.57
39.125,99.94
39.140,102.83
39.156,109.19
39.171,117.22
39.187,124.62
39.203,129.67
39.218,131.63
39.234,130.54
39.250,126.57
39.265,119.69
39.281,109.69
39.296,96.73
39.312,81.71
39.328,66.29
39.343,52.51
39.359,42.23
39.375,36.52
39.390,35.32
39.406,37.54
39.421,41.13
39.437,43.81
39.453,43.52
39.468,39.1
39.484,30.47
39.500,18.77
39.515,5.73
39.531,-6.94
39.546,-18.02
39.562,-27.09
39.578,-34.34
39.593,-40.01
39.609,-44.2
39.625,-46.69
39.640,-47.28
39.656,-46.06
39.671,-43.63
39.687,-40.8
39.703,-38.27
39.718,-36.18
39.734,-34.16
39.750,-31.69
39.765,-28.6
39.781,-25.45
39.796,-23.39
39.812,-23.62
39.828,-26.77
39.843,-32.6
39.859,-40.22
39.875,-48.51
39.890,-56.75
39.906,-64.76
39.921,-72.8
39.937,-81.26
39.953,-90.31
39.968,-99.77
39.984,-109.14
40.000,-117.8
40.015,-125.01
40.031,-130.05
40.046,-132.16
40.062,-130.71
40.078,-125.45
40.093,-116.7
40.109,-105.26
40.125,-92.27
40.140,-78.82
40.156,-65.65
40.171,-53.13
40.187,-41.31
40.203,-30.18
40.218,-19.75
40.234,-10.12
40.250,-1.29
40.265,6.88
40.281,14.71
40.296,22.56
40.312,30.61
40.328,38.89
40.343,47.23
40.359,55.36
40.375,62.93
40.390,69.54
40.406,74.55
40.421,77.21
40.437,76.82
40.453,72.92
40.468,65.57
40.484,55.35
40.500,43.21
40.515,30.14
40.531,16.88
40.546,3.77
40.562,-9.19
40.578,-22.09
40.593,-34.98
40.609,-47.72
40.625,-59.94
40.640,-71.21
40.656,-80.91
40.671,-88.3
40.687,-92.56
40.703,-92.88
40.718,-88.82
40.734,-80.48
40.750,-68.62
40.765,-54.64
40.781,-40.24
40.796,-27.05
40.812,-16.29
40.828,-8.52
40.843,-3.73
40.859,-1.51
40.875,-1.22
40.890,-2.19
40.906,-3.81
40.921,-5.48
40.937,-6.56
40.953,-6.49
40.968,-4.85
40.984,-1.69
41.000,2.36
41.015,6.19
41.031,8.54
41.046,8.59
41.062,6.32
41.078,2.66
41.093,-0.99
41.109,-3.39
41.125,-4.02
41.140,-3.25
41.156,-2.04
41.171,-1.36
41.187,-1.75
41.203,-3.17
41.218,-5.23
41.234,-7.57
41.250,-10.17
41.265,-13.31
41.281,-17.41
41.296,-22.7
41.312,-29.09
41.328,-36.25
41.343,-43.69
41.359,-50.88
41.375,-57.29
41.390,-62.33
41.406,-65.36
41.421,-65.87
41.437,-63.59
41.453,-58.63
41.468,-51.39
41.484,-42.52
41.500,-32.6
41.515,-22.17
41.531,-11.68
41.546,-1.56
41.562,7.71
41.578,15.64
41.593,21.9
41.609,26.4
41.625,29.31
41.640,30.92
41.656,31.59
41.671,31.52
41.687,30.84
41.703,29.57
41.718,27.65
41.734,24.95
41.750,21.37
41.765,16.91
41.781,11.72
41.796,6.16
41.812,0.52
41.828,-5.03
41.843,-10.59
41.859,-16.49
41.875,-23.09
41.890,-30.61
41.906,-39.04
41.921,-48.14
41.937,-57.54
41.953,-66.96
41.968,-76.16
41.984,-85.1
42.000,-93.86
42.015,-102.6
42.031,-111.52
42.046,-120.71
42.062,-129.87
42.078,-138.23
42.093,-144.55
42.109,-147.37
42.125,-145.47
42.140,-138.35
42.156,-126.33
42.171,-110.52
42.187,-92.42
42.203,-73.38
42.218,-54.28
42.234,-35.52
42.250,-17.04
42.265,1.31
42.281,19.59
42.296,37.67
42.312,55.25
42.328,71.84
42.343,86.93
42.359,99.95
42.375,110.4
42.390,117.93
42.406,122.36
42.421,123.69
42.437,122.09
42.453,117.82
42.468,111.21
42.484,102.81
42.500,93.35
42.515,83.66
42.531,74.49
42.546,66.23
42.562,58.82
42.578,51.92
42.593,45.18
42.609,38.47
42.625,31.91
42.640,25.6
42.656,19.4
42.671,12.76
42.687,4.89
42.703,-4.91
42.718,-17.05
42.734,-31.63
42.750,-48.42
42.765,-66.95
42.781,-86.47
42.796,-105.77
42.812,-123.24
42.828,-137.31
42.843,-146.88
42.859,-151.87
42.875,-153.26
42.890,-152.66
42.906,-151.49
42.921,-150.28
42.937,-148.35
42.953,-144.11
42.968,-136.01
42.984,-123.58
43.000,-108.02
43.015,-92.05
43.031,-78.82
43.046,-70.52
43.062,-67.2
43.078,-66.56
43.093,-64.86
43.109,-58.49
43.125,-45.4
43.140,-25.82
43.156,-1.85
43.171,23.39
43.187,46.71
43.203,65.63
43.218,78.9
43.234,86.95
43.250,92.12
43.265,98.53
43.281,111.04
43.296,133.48
43.312,166.84
43.328,208.52
43.343,253.01
43.359,293.86
43.375,325.68
43.390,345.5
43.406,352.82
43.421,348.93
43.437,335.94
43.453,316.26
43.468,292.48
43.484,267.24
43.500,242.73
43.515,220.07
43.531,198.84
43.546,177.3
43.562,153.43
43.578,126.1
43.593,95.83
43.609,64.59
43.625,34.85
43.640,8.31
43.656,-14.57
43.671,-34.33
43.687,-51.68
43.703,-66.75
43.718,-78.74
43.734,-86.15
43.750,-87.37
43.765,-81.16
43.781,-67.23
43.796,-46.43
43.812,-21.18
43.828,4.52
43.843,25.57
43.859,37.05
43.875,35.96
43.890,22.52
43.906,0.58
43.921,-23.75
43.937,-44.22
43.953,-56.66
43.968,-60.04
43.984,-56.15
44.000,-48.19
44.015,-39.09
44.031,-30.21
44.046,-20.91
44.062,-9.23
44.078,6.83
44.093,27.46
44.109,49.66
44.125,67.39
44.140,73.08
44.156,60.48
44.171,27.46
44.187,-22.34
44.203,-80.05
44.218,-134.06
44.234,-173.79
44.250,-192.95
44.265,-191.08
44.281,-172.99
44.296,-146.53
44.312,-119.7
44.328,-98.5
44.343,-85.89
44.359,-82.11
44.375,-85.69
44.390,-94.69
44.406,-107.06
44.421,-120.66
44.437,-133.22
44.453,-142.31
44.468,-145.8
44.484,-142.54
44.500,-132.68
44.515,-117.18
44.531,-97.1
44.546,-72.95
44.562,-44.84
44.578,-13.19
44.593,20.64
44.609,54.01
44.625,83.53
44.640,106.38
44.656,121.4
44.671,129.53
44.687,133.66
44.703,137.51
44.718,144.5
44.734,156.59
44.750,173.49
44.765,192.45
44.781,208.89
44.796,217.63
44.812,214.45
44.828,197.44
44.843,167.46
44.859,127.7
44.875,82.27
44.890,34.85
44.906,-11.98
44.921,-56.34
44.937,-96.27
44.953,-129.06
44.968,-151.12
44.984,-158.8
45.000,-149.76
45.015,-124.44
45.031,-86.62
45.046,-43.11
45.062,-1.96
45.078,29.58
45.093,47.31
45.109,51.33
45.125,45.66
45.140,36.9
45.156,31.8
45.171,35.13
45.187,48.28
45.203,69.04
45.218,92.22
45.234,111.28
45.250,120.14
45.265,114.72
45.281,94.37
45.296,62.37
45.312,25.73
45.328,-6.63
45.343,-26.47
45.359,-29.0
45.375,-14.58
45.390,11.45
45.406,40.8
45.421,65.53
45.437,80.79
45.453,85.93
45.468,83.3
45.484,75.85
45.500,65.24
45.515,51.34
45.531,33.27
45.546,11.0
45.562,-13.8
45.578,-38.32
45.593,-59.94
45.609,-77.49
45.625,-91.51
45.640,-103.45
45.656,-114.53
45.671,-124.95
45.687,-133.71
45.703,-139.26
45.718,-140.37
45.734,-136.71
45.750,-129.16
45.765,-119.68
45.781,-110.91
45.796,-105.49
45.812,-105.08
45.828,-109.41
45.843,-116.15
45.859,-121.79
45.875,-123.21
45.890,-119.46
45.906,-112.48
45.921,-106.44
45.937,-105.76
45.953,-112.81
45.968,-126.33
45.984,-141.89
46.000,-153.72
46.015,-157.21
46.031,-150.88
46.046,-136.72
46.062,-118.81
46.078,-101.26
46.093,-86.26
46.109,-73.2
46.125,-59.33
46.140,-41.41
46.156,-17.29
46.171,13.04
46.187,47.58
46.203,83.26
46.218,116.99
46.234,146.45
46.250,170.13
46.265,186.97
46.281,196.21
46.296,197.63
46.312,192.06
46.328,181.56
46.343,168.88
46.359,156.13
46.375,143.63
46.390,129.7
46.406,111.52
46.421,86.94
46.437,55.91
46.453,20.83
46.468,-14.41
46.484,-46.08
46.500,-72.02
46.515,-91.91
46.531,-106.67
46.546,-117.44
46.562,-124.85
46.578,-129.06
46.593,-130.1
46.609,-128.16
46.625,-123.46
46.640,-115.86
46.656,-104.68
46.671,-89.02
46.687,-68.36
46.703,-43.48
46.718,-16.75
46.734,8.21
46.750,27.71
46.765,39.33
46.781,42.98
46.796,40.71
46.812,35.72
46.828,30.79
46.843,27.36
46.859,25.41
46.875,24.07
46.890,22.59
46.906,20.73
46.921,18.54
46.937,15.89
46.953,12.3
46.968,7.24
46.984,0.69
47.000,-6.51
47.015,-12.97
47.031,-17.31
47.046,-18.73
47.062,-17.06
47.078,-12.52
47.093,-5.32
47.109,4.43
47.125,16.49
47.140,30.17
47.156,44.26
47.171,57.25
47.187,67.67
47.203,74.46
47.218,76.98
47.234,74.97
47.250,68.48
47.265,57.75
47.281,43.16
47.296,25.15
47.312,4.28
47.328,-18.79
47.343,-43.12
47.359,-67.3
47.375,-89.53
47.390,-107.89
47.406,-120.72
47.421,-127.0
47.437,-126.37
47.453,-118.96
47.468,-105.37
47.484,-86.66
47.500,-64.47
47.515,-41.01
47.531,-18.75
47.546,0.03
47.562,13.88
47.578,22.59
47.593,27.15
47.609,29.37
47.625,31.38
47.640,34.97
47.656,41.18
47.671,49.88
47.687,59.73
47.703,68.42
47.718,73.34
47.734,72.33
47.750,64.4
47.765,50.16
47.781,31.59
47.796,11.41
47.812,-7.69
47.828,-23.65
47.843,-35.34
47.859,-42.41
47.875,-45.02
47.890,-43.62
47.906,-38.76
47.921,-31.32
47.937,-22.45
47.953,-13.32
47.968,-4.72
47.984,3.17
48.000,10.72
48.015,18.33
48.031,25.9
48.046,32.87
48.062,38.62
48.078,43.15
48.093,47.39
48.109,52.62
48.125,59.68
48.140,68.1
48.156,76.26
48.171,82.08
48.187,84.18
48.203,82.27
48.218,76.97
48.234,69.06
48.250,58.85
48.265,46.34
48.281,31.71
48.296,15.96
48.312,0.81
48.328,-11.85
48.343,-20.85
48.359,-26.23
48.375,-29.25
48.390,-31.83
48.406,-35.59
48.421,-41.23
48.437,-48.21
48.453,-54.94
48.468,-59.54
48.484,-60.84
48.500,-59.01
48.515,-55.64
48.531,-53.11
48.546,-53.52
48.562,-57.78
48.578,-65.32
48.593,-74.69
48.609,-84.37
48.625,-93.43
48.640,-101.33
48.656,-107.38
48.671,-110.21
48.687,-107.87
48.703,-98.73
48.718,-82.49
48.734,-60.61
48.750,-36.0
48.765,-11.76
48.781,9.83
48.796,27.73
48.812,41.65
48.828,51.29
48.843,55.96
48.859,54.9
48.875,48.15
48.890,36.97
48.906,23.89
48.921,11.88
48.937,3.51
48.953,0.26
48.968,2.55
48.984,10.18
49.000,22.76
49.015,39.7
49.031,59.93
49.046,81.76
49.062,103.1
49.078,121.82
49.093,136.25
49.109,145.3
49.125,148.53
49.140,146.0
49.156,138.39
49.171,126.96
49.187,113.5
49.203,99.67
49.218,86.24
49.234,72.61
49.250,56.62
49.265,35.44
49.281,6.85
49.296,-29.31
49.312,-70.5
49.328,-112.0
49.343,-148.78
49.359,-177.49
49.375,-197.84
49.390,-212.48
49.406,-225.17
49.421,-238.25
49.437,-250.81
49.453,-258.61
49.468,-256.16
49.484,-239.66
49.500,-209.12
49.515,-168.55
49.531,-124.12
49.546,-81.41
49.562,-43.52
49.578,-10.88
49.593,17.38
49.609,41.84
49.625,62.28
49.640,78.33
49.656,90.74
49.671,102.05
49.687,116.02
49.703,135.74
49.718,161.63
49.734,190.43
49.750,215.65
49.765,229.52
49.781,225.47
49.796,200.23
49.812,155.19
49.828,96.67
49.843,34.51
49.859,-20.53
49.875,-60.18
49.890,-81.46
49.906,-87.48
49.921,-85.75
49.937,-84.6
49.953,-89.4
49.968,-100.47
49.984,-113.9
50.000,-124.29
50.015,-128.02
50.031,-124.87
50.046,-117.28
50.062,-108.25
50.078,-99.0
50.093,-88.42
50.109,-74.21
50.125,-54.78
50.140,-30.87
50.156,-5.47
50.171,17.49
50.187,35.09
50.203,46.56
50.218,53.63
50.234,59.16
50.250,65.52
50.265,73.49
50.281,81.97
50.296,89.09
50.312,93.4
50.328,94.7
50.343,94.08
50.359,93.32
50.375,93.84
50.390,96.16
50.406,99.89
50.421,104.06
50.437,107.5
50.453,109.06
50.468,107.73
50.484,102.89
50.500,94.56
50.515,83.51
50.531,71.03
50.546,58.4
50.562,46.29
50.578,34.52
50.593,22.42
50.609,9.49
50.625,-3.95
50.640,-16.63
50.656,-26.75
50.671,-32.57
50.687,-32.92
50.703,-27.47
50.718,-16.85
50.734,-2.57
50.750,13.2
50.765,28.18
50.781,40.49
50.796,49.29
50.812,55.0
50.828,59.21
50.843,63.92
50.859,70.81
50.875,80.62
50.890,93.04
50.906,106.94
50.921,120.79
50.937,132.78
50.953,141.01
50.968,143.75
50.984,139.92
51.000,129.57
51.015,113.98
51.031,95.31
51.046,75.98
51.062,58.1
51.078,43.0
51.093,31.15
51.109,22.23
51.125,15.29
51.140,8.94
51.156,1.77
51.171,-7.29
51.187,-18.63
51.203,-31.87
51.218,-46.14
51.234,-60.6
51.250,-74.76
51.265,-88.56
51.281,-101.97
51.296,-114.63
51.312,-125.68
51.328,-134.26
51.343,-139.91
51.359,-142.85
51.375,-143.87
51.390,-143.63
51.406,-142.45
51.421,-140.05
51.437,-136.16
51.453,-131.07
51.468,-125.74
51.484,-121.48
51.500,-119.18
51.515,-118.85
51.531,-119.81
51.546,-121.32
51.562,-123.03
51.578,-124.96
51.593,-126.84
51.609,-127.46
51.625,-124.65
51.640,-116.08
51.656,-100.61
51.671,-79.2
51.687,-54.96
51.703,-31.94
51.718,-13.71
51.734,-2.07
51.750,3.22
51.765,3.8
51.781,1.77
51.796,-1.1
51.812,-3.58
51.828,-4.97
51.843,-4.91
51.859,-3.46
51.875,-1.24
51.890,0.7
51.906,1.08
51.921,-0.97
51.937,-5.47
51.953,-11.44
51.968,-17.03
51.984,-20.21
52.000,-19.36
52.015,-13.81
52.031,-3.89
52.046,9.27
52.062,24.19
52.078,39.39
52.093,53.75
52.109,66.66
52.125,77.94
52.140,87.52
52.156,94.97
52.171,99.22
52.187,98.57
52.203,91.31
52.218,76.53
52.234,55.03
52.250,29.49
52.265,3.8
52.281,-18.04
52.296,-33.23
52.312,-40.96
52.328,-42.33
52.343,-39.55
52.359,-34.9
52.375,-29.9
52.390,-25.14
52.406,-20.74
52.421,-16.74
52.437,-13.51
52.453,-11.59
52.468,-11.38
52.484,-12.85
52.500,-15.45
52.515,-18.54
52.531,-21.66
52.546,-24.92
52.562,-28.97
52.578,-34.7
52.593,-42.89
52.609,-53.84
52.625,-67.05
52.640,-81.3
52.656,-94.96
52.671,-106.33
52.687,-113.96
52.703,-116.82
52.718,-114.38
52.734,-106.73
52.750,-94.7
52.765,-79.74
52.781,-63.65
52.796,-48.09
52.812,-34.14
52.828,-22.19
52.843,-12.09
52.859,-3.61
52.875,3.23
52.890,8.0
52.906,10.06
52.921,8.95
52.937,4.63
52.953,-2.44
52.968,-11.53
52.984,-21.73
53.000,-32.16
53.015,-42.0
53.031,-50.48
53.046,-57.14
53.062,-61.8
53.078,-64.71
53.093,-66.24
53.109,-66.69
53.125,-65.99
53.140,-63.56
53.156,-58.48
53.171,-49.8
53.187,-36.94
53.203,-19.92
53.218,0.61
53.234,23.94
53.250,49.69
53.265,78.1
53.281,109.76
53.296,145.01
53.312,183.31
53.328,222.97
53.343,261.39
53.359,295.79
53.375,324.06
53.390,345.12
53.406,359.05
53.421,366.68
53.437,369.21
53.453,368.16
53.468,365.14
53.484,361.8
53.500,359.19
53.515,357.11
53.531,353.69
53.546,345.73
53.562,329.82
53.578,303.74
53.593,267.78
53.609,225.01
53.625,180.56
53.640,140.28
53.656,109.01
53.671,89.23
53.687,80.74
53.703,81.13
53.718,86.79
53.734,94.34
53.750,101.49
53.765,107.44
53.781,112.33
53.796,116.37
53.812,118.98
53.828,118.55
53.843,113.07
53.859,101.21
53.875,83.32
53.890,61.47
53.906,38.68
53.921,17.67
53.937,-0.21
53.953,-15.13
53.968,-28.32
53.984,-41.0
54.000,-53.73
54.015,-66.18
54.031,-77.45
54.046,-86.68
54.062,-93.59
54.078,-98.59
54.093,-102.53
54.109,-106.34
54.125,-110.7
54.140,-115.89
54.156,-121.8
54.171,-128.19
54.187,-134.81
54.203,-141.54
54.218,-148.38
54.234,-155.2
54.250,-161.53
54.265,-166.45
54.281,-168.82
54.296,-167.79
54.312,-163.46
54.328,-157.06
54.343,-150.45
54.359,-145.19
54.375,-141.25
54.390,-136.68
54.406,-128.25
54.421,-113.16
54.437,-90.79
54.453,-63.69
54.468,-37.13
54.484,-17.46
54.500,-10.1
54.515,-17.83
54.531,-40.09
54.546,-73.21
54.562,-111.3
54.578,-147.57
54.593,-175.74
54.609,-191.54
54.625,-193.8
54.640,-184.75
54.656,-169.08
54.671,-152.38
54.687,-139.48
54.703,-133.38
54.718,-135.2
54.734,-144.44
54.750,-159.38
54.765,-177.18
54.781,-193.96
54.796,-205.11
54.812,-206.42
54.828,-195.19
54.843,-171.05
54.859,-135.85
54.875,-92.69
54.890,-44.88
54.906,4.6
54.921,53.03
54.937,97.57
54.953,135.12
54.968,163.01
54.984,179.93
55.000,186.62
55.015,185.66
55.031,180.39
55.046,173.59
55.062,166.59
55.078,159.21
55.093,150.7
55.109,140.68
55.125,129.72
55.140,119.1
55.156,110.09
55.171,103.14
55.187,97.66
55.203,92.31
55.218,85.73
55.234,77.3
55.250,67.45
55.265,57.15
55.281,47.42
55.296,38.52
55.312,29.86
55.328,20.26
55.343,8.64
55.359,-5.48
55.375,-21.81
55.390,-39.53
55.406,-57.92
55.421,-76.52
55.437,-94.98
55.453,-112.5
55.468,-127.47
55.484,-137.78
55.500,-141.88
55.515,-139.89
55.531,-133.91
55.546,-127.37
55.562,-123.35
55.578,-123.2
55.593,-126.13
55.609,-130.07
55.625,-133.15
55.640,-134.77
55.656,-135.28
55.671,-134.74
55.687,-131.54
55.703,-122.11
55.718,-102.2
55.734,-68.98
55.750,-22.95
55.765,31.59
55.781,87.83
55.796,138.78
55.812,179.47
55.828,207.92
55.843,224.78
55.859,231.93
55.875,231.16
55.890,223.65
55.906,210.32
55.921,192.52
55.937,172.34
55.953,152.0
55.968,132.81
55.984,114.51
56.000,95.75
56.015,75.42
56.031,54.04
56.046,33.87
56.062,17.58
56.078,6.46
56.093,-0.63
56.109,-6.23
56.125,-12.32
56.140,-18.3
56.156,-20.9
56.171,-16.1
56.187,-1.84
56.203,20.09
56.218,44.69
56.234,65.96
56.250,79.74
56.265,84.86
56.281,82.37
56.296,74.37
56.312,63.36
56.328,52.97
56.343,48.28
56.359,55.05
56.375,77.19
56.390,113.74
56.406,157.52
56.421,196.84
56.437,219.67
56.453,218.29
56.468,191.76
56.484,145.2
56.500,86.72
56.515,24.07
56.531,-37.02
56.546,-92.66
56.562,-139.61
56.578,-174.59
56.593,-194.98
56.609,-199.96
56.625,-191.58
56.640,-174.66
56.656,-155.53
56.671,-140.33
56.687,-133.16
56.703,-134.79
56.718,-141.98
56.734,-148.45
56.750,-146.86
56.765,-131.97
56.781,-103.46
56.796,-66.93
56.812,-32.72
56.828,-12.17
56.843,-13.42
56.859,-38.21
56.875,-81.42
56.890,-133.12
56.906,-182.44
56.921,-220.97
56.937,-244.63
56.953,-253.31
56.968,-249.13
56.984,-234.63
57.000,-211.98
57.015,-183.19
57.031,-150.59
57.046,-117.02
57.062,-85.23
57.078,-56.89
57.093,-32.07
57.109,-9.57
57.125,12.05
57.140,33.11
57.156,52.27
57.171,67.14
57.187,75.69
57.203,77.44
57.218,73.79
57.234,67.26
57.250,60.35
57.265,54.59
57.281,50.48
57.296,47.89
57.312,46.69
57.328,46.98
57.343,49.0
57.359,52.83
57.375,58.16
57.390,64.29
57.406,70.29
57.421,74.97
57.437,76.74
57.453,73.56
57.468,63.15
57.484,43.57
57.500,14.22
57.515,-23.39
57.531,-65.27
57.546,-105.54
57.562,-137.83
57.578,-157.04
57.593,-160.74
57.609,-149.6
57.625,-127.01
57.640,-97.79
57.656,-66.98
57.671,-38.74
57.687,-15.71
57.703,1.12
57.718,12.31
57.734,19.68
57.750,25.77
57.765,33.16
57.781,43.76
57.796,58.15
57.812,75.36
57.828,93.38
57.843,109.89
57.859,123.15
57.875,132.62
57.890,138.9
57.906,143.22
57.921,146.71
57.937,149.77
57.953,151.98
57.968,152.36
57.984,149.9
58.000,144.09
58.015,135.22
58.031,124.25
58.046,112.38
58.062,100.57
58.078,89.16
58.093,77.82
58.109,65.89
58.125,52.81
58.140,38.5
58.156,23.48
58.171,8.55
58.187,-5.6
58.203,-18.72
58.218,-30.98
58.234,-42.82
58.250,-54.57
58.265,-66.32
58.281,-77.72
58.296,-88.17
58.312,-97.03
58.328,-103.82
58.343,-108.38
58.359,-110.75
58.375,-111.1
58.390,-109.48
58.406,-105.88
58.421,-100.08
58.437,-91.87
58.453,-81.15
58.468,-67.96
58.484,-52.45
58.500,-34.67
58.515,-14.46
58.531,8.47
58.546,34.27
58.562,62.76
58.578,93.17
58.593,124.3
58.609,154.56
58.625,182.28
58.640,205.72
58.656,223.31
58.671,233.94
58.687,237.36
58.703,234.58
58.718,227.88
58.734,220.28
58.750,214.55
58.765,212.04
58.781,212.01
58.796,211.89
58.812,208.23
58.828,198.17
58.843,180.51
58.859,156.04
58.875,127.19
58.890,97.04
58.906,68.29
58.921,42.7
58.937,20.92
58.953,2.78
58.968,-12.17
58.984,-24.42
59.000,-34.4
59.015,-42.5
59.031,-49.19
59.046,-55.02
59.062,-60.54
59.078,-66.19
59.093,-72.35
59.109,-79.27
59.125,-87.09
59.140,-95.86
59.156,-105.41
59.171,-115.32
59.187,-124.99
59.203,-133.82
59.218,-141.38
59.234,-147.57
59.250,-152.43
59.265,-155.98
59.281,-158.19
59.296,-159.05
59.312,-158.89
59.328,-158.46
59.343,-158.73
59.359,-160.37
59.375,-163.27
59.390,-166.33
59.406,-167.7
59.421,-165.57
59.437,-158.78
59.453,-147.18
59.468,-131.5
59.484,-112.87
59.500,-92.29
59.515,-70.41
59.531,-47.63
59.546,-24.33
59.562,-1.05
59.578,21.49
59.593,42.47
59.609,61.06
59.625,76.44
59.640,87.93
59.656,95.0
59.671,97.47
59.687,95.57
59.703,89.86
59.718,80.96
59.734,69.34
59.750,55.28
59.765,38.97
59.781,20.8
59.796,1.58
59.812,-17.66
59.828,-36.1
59.843,-53.52
59.859,-70.49
59.875,-87.83
59.890,-106.08
59.906,-124.91
59.921,-143.0
59.937,-158.33
59.953,-168.75
59.968,-172.54
59.984,-168.69
