timestamp,value
00.000,45.95
00.015,48.34
00.031,50.03
00.046,51.62
00.062,54.16
00.078,58.72
00.093,66.07
00.109,76.12
00.125,87.8
00.140,98.99
00.156,106.85
00.171,108.53
00.187,101.97
00.203,86.66
00.218,64.02
00.234,37.11
00.250,9.73
00.265,-14.66
00.281,-33.97
00.296,-47.78
00.312,-56.97
00.328,-62.88
00.343,-66.39
00.359,-67.63
00.375,-66.15
00.390,-61.42
00.406,-53.44
00.421,-42.83
00.437,-30.88
00.453,-19.13
00.468,-9.16
00.484,-2.18
00.500,1.19
00.515,1.22
00.531,-0.96
00.546,-3.57
00.562,-4.9
00.578,-4.11
00.593,-1.65
00.609,0.77
00.625,1.19
00.640,-1.55
00.656,-7.12
00.671,-13.86
00.687,-19.88
00.703,-24.43
00.718,-28.83
00.734,-36.4
00.750,-51.58
00.765,-78.07
00.781,-116.68
00.796,-164.03
00.812,-212.43
00.828,-251.53
00.843,-271.22
00.859,-264.98
00.875,-232.25
00.890,-178.91
00.906,-115.39
00.921,-53.29
00.937,-1.8
00.953,34.53
00.968,55.96
00.984,66.11
01.000,69.56
01.015,70.02
01.031,69.54
01.046,68.8
01.062,68.03
01.078,67.7
01.093,68.66
01.109,71.66
01.125,76.62
01.140,82.28
01.156,86.53
01.171,87.32
01.187,83.86
01.203,77.1
01.218,69.64
01.234,64.66
01.250,64.68
01.265,70.52
01.281,81.15
01.296,94.22
01.312,106.98
01.328,117.25
01.343,123.81
01.359,126.46
01.375,125.62
01.390,121.84
01.406,115.3
01.421,105.83
01.437,93.25
01.453,77.8
01.468,60.46
01.484,42.83
01.500,26.69
01.515,13.46
01.531,3.72
01.546,-2.89
01.562,-7.43
01.578,-11.14
01.593,-14.95
01.609,-19.16
01.625,-23.53
01.640,-27.48
01.656,-30.32
01.671,-31.59
01.687,-31.12
01.703,-29.01
01.718,-25.64
01.734,-21.55
01.750,-17.39
01.765,-13.84
01.781,-11.6
01.796,-11.27
01.812,-13.52
01.828,-18.96
01.843,-27.89
01.859,-40.06
01.875,-54.4
01.890,-69.06
01.906,-81.79
01.921,-90.69
01.937,-94.8
01.953,-94.39
01.968,-90.64
01.984,-84.87
02.000,-78.0
02.015,-70.07
02.031,-60.57
02.046,-48.84
02.062,-34.6
02.078,-18.13
02.093,-0.19
02.109,18.22
02.125,36.05
02.140,52.09
02.156,65.1
02.171,73.93
02.187,77.92
02.203,77.1
02.218,72.21
02.234,64.49
02.250,55.23
02.265,45.45
02.281,35.75
02.296,26.52
02.312,18.05
02.328,10.67
02.343,4.63
02.359,-0.11
02.375,-3.96
02.390,-7.7
02.406,-12.18
02.421,-18.03
02.437,-25.33
02.453,-33.53
02.468,-41.57
02.484,-48.2
02.500,-52.38
02.515,-53.61
02.531,-52.16
02.546,-48.92
02.562,-45.14
02.578,-42.03
02.593,-40.37
02.609,-40.41
02.625,-41.89
02.640,-44.22
02.656,-46.71
02.671,-48.8
02.687,-50.12
02.703,-50.5
02.718,-49.78
02.734,-47.85
02.750,-44.5
02.765,-39.58
02.781,-33.11
02.796,-25.28
02.812,-16.53
02.828,-7.32
02.843,1.91
02.859,10.86
02.875,19.25
02.890,26.83
02.906,33.27
02.921,38.34
02.937,41.98
02.953,44.46
02.968,46.31
02.984,48.11
03.000,50.22
03.015,52.56
03.031,54.7
03.046,56.07
03.062,56.19
03.078,54.83
03.093,51.86
03.109,47.23
03.125,40.9
03.140,32.87
03.156,23.39
03.171,13.06
03.187,2.8
03.203,-6.28
03.218,-13.23
03.234,-17.51
03.250,-18.98
03.265,-17.95
03.281,-15.0
03.296,-10.72
03.312,-5.63
03.328,-0.08
03.343,5.74
03.359,11.65
03.375,17.32
03.390,22.34
03.406,26.17
03.421,28.36
03.437,28.75
03.453,27.45
03.468,24.76
03.484,20.97
03.500,16.15
03.515,10.19
03.531,2.93
03.546,-5.57
03.562,-14.92
03.578,-24.33
03.593,-32.95
03.609,-40.06
03.625,-45.27
03.640,-48.52
03.656,-49.85
03.671,-49.31
03.687,-46.86
03.703,-42.45
03.718,-36.02
03.734,-27.7
03.750,-17.74
03.765,-6.51
03.781,5.4
03.796,17.3
03.812,28.31
03.828,37.61
03.843,44.7
03.859,49.56
03.875,52.69
03.890,54.83
03.906,56.7
03.921,58.62
03.937,60.61
03.953,62.33
03.968,63.42
03.984,63.55
04.000,62.53
04.015,60.27
04.031,56.82
04.046,52.3
04.062,46.92
04.078,40.86
04.093,34.22
04.109,27.0
04.125,19.05
04.140,10.14
04.156,-0.01
04.171,-11.6
04.187,-24.66
04.203,-38.83
04.218,-53.37
04.234,-67.19
04.250,-79.15
04.265,-88.34
04.281,-94.46
04.296,-97.69
04.312,-98.54
04.328,-97.58
04.343,-95.16
04.359,-91.51
04.375,-86.95
04.390,-81.98
04.406,-77.26
04.421,-73.4
04.437,-70.62
04.453,-68.61
04.468,-66.82
04.484,-64.56
04.500,-61.35
04.515,-56.92
04.531,-51.14
04.546,-43.85
04.562,-34.9
04.578,-24.24
04.593,-12.18
04.609,0.54
04.625,12.98
04.640,24.18
04.656,33.48
04.671,40.6
04.687,45.49
04.703,48.21
04.718,48.82
04.734,47.4
04.750,44.1
04.765,39.3
04.781,33.46
04.796,27.01
04.812,20.31
04.828,13.63
04.843,7.21
04.859,1.5
04.875,-2.92
04.890,-5.49
04.906,-5.84
04.921,-4.0
04.937,-0.41
04.953,4.26
04.968,9.37
04.984,14.38
05.000,18.99
05.015,23.19
05.031,27.03
05.046,30.67
05.062,34.14
05.078,37.45
05.093,40.61
05.109,43.63
05.125,46.67
05.140,49.94
05.156,53.68
05.171,57.87
05.187,62.2
05.203,65.91
05.218,67.94
05.234,67.21
05.250,62.84
05.265,54.52
05.281,42.64
05.296,28.15
05.312,12.35
05.328,-3.44
05.343,-18.22
05.359,-31.37
05.375,-42.59
05.390,-51.66
05.406,-58.35
05.421,-62.29
05.437,-63.14
05.453,-60.75
05.468,-55.25
05.484,-47.14
05.500,-37.27
05.515,-26.74
05.531,-16.79
05.546,-8.64
05.562,-3.24
05.578,-0.95
05.593,-1.42
05.609,-3.61
05.625,-6.11
05.640,-7.71
05.656,-7.71
05.671,-6.24
05.687,-3.99
05.703,-1.83
05.718,-0.27
05.734,0.73
05.750,1.67
05.765,3.15
05.781,5.43
05.796,8.29
05.812,11.06
05.828,13.0
05.843,13.51
05.859,12.48
05.875,10.22
05.890,7.38
05.906,4.76
05.921,3.09
05.937,2.94
05.953,4.52
05.968,7.66
05.984,11.84
06.000,16.32
06.015,20.32
06.031,23.29
06.046,25.06
06.062,25.75
06.078,25.6
06.093,24.78
06.109,23.24
06.125,20.81
06.140,17.39
06.156,13.0
06.171,7.84
06.187,2.2
06.203,-3.81
06.218,-10.29
06.234,-17.51
06.250,-25.61
06.265,-34.39
06.281,-43.12
06.296,-50.73
06.312,-56.02
06.328,-58.09
06.343,-56.56
06.359,-51.62
06.375,-43.8
06.390,-33.9
06.406,-22.76
06.421,-11.28
06.437,-0.41
06.453,8.83
06.468,15.46
06.484,18.69
06.500,18.19
06.515,14.23
06.531,7.7
06.546,-0.05
06.562,-7.56
06.578,-13.55
06.593,-17.21
06.609,-18.36
06.625,-17.4
06.640,-15.04
06.656,-12.1
06.671,-9.23
06.687,-6.79
06.703,-4.75
06.718,-2.77
06.734,-0.33
06.750,3.07
06.765,7.72
06.781,13.6
06.796,20.28
06.812,27.15
06.828,33.58
06.843,39.23
06.859,44.01
06.875,48.14
06.890,51.8
06.906,55.0
06.921,57.56
06.937,59.01
06.953,58.92
06.968,57.04
06.984,53.32
07.000,47.89
07.015,41.03
07.031,33.0
07.046,24.07
07.062,14.51
07.078,4.57
07.093,-5.52
07.109,-15.56
07.125,-25.3
07.140,-34.43
07.156,-42.37
07.171,-48.45
07.187,-52.03
07.203,-52.84
07.218,-51.23
07.234,-48.16
07.250,-44.95
07.265,-42.75
07.281,-42.04
07.296,-42.44
07.312,-42.87
07.328,-41.96
07.343,-38.66
07.359,-32.67
07.375,-24.41
07.390,-14.95
07.406,-5.65
07.421,2.22
07.437,7.64
07.453,10.06
07.468,9.52
07.484,6.65
07.500,2.51
07.515,-1.51
07.531,-4.04
07.546,-3.95
07.562,-0.57
07.578,6.16
07.593,15.69
07.609,26.89
07.625,38.34
07.640,48.55
07.656,56.37
07.671,61.08
07.687,62.64
07.703,61.46
07.718,58.08
07.734,52.95
07.750,46.21
07.765,37.85
07.781,27.97
07.796,17.13
07.812,6.36
07.828,-2.9
07.843,-9.35
07.859,-12.2
07.875,-11.54
07.890,-8.31
07.906,-3.92
07.921,0.16
07.937,2.93
07.953,3.91
07.968,3.28
07.984,1.61
08.000,-0.28
08.015,-1.54
08.031,-1.52
08.046,0.08
08.062,3.0
08.078,6.5
08.093,9.38
08.109,10.43
08.125,8.69
08.140,3.66
08.156,-4.53
08.171,-15.32
08.187,-27.79
08.203,-40.88
08.218,-53.53
08.234,-64.8
08.250,-74.01
08.265,-80.78
08.281,-85.15
08.296,-87.32
08.312,-87.58
08.328,-86.08
08.343,-82.85
08.359,-77.84
08.375,-71.08
08.390,-62.73
08.406,-53.03
08.421,-42.3
08.437,-30.83
08.453,-18.96
08.468,-7.16
08.484,3.96
08.500,13.77
08.515,21.79
08.531,27.86
08.546,32.27
08.562,35.47
08.578,37.91
08.593,39.74
08.609,40.98
08.625,41.67
08.640,42.09
08.656,42.79
08.671,44.27
08.687,46.83
08.703,50.25
08.718,53.92
08.734,57.03
08.750,58.91
08.765,59.2
08.781,57.78
08.796,54.85
08.812,50.69
08.828,45.75
08.843,40.66
08.859,36.16
08.875,32.94
08.890,31.39
08.906,31.46
08.921,32.51
08.937,33.56
08.953,33.47
08.968,31.29
08.984,26.59
09.000,19.54
09.015,10.96
09.031,1.94
09.046,-6.45
09.062,-13.57
09.078,-19.34
09.093,-24.22
09.109,-28.91
09.125,-34.07
09.140,-40.12
09.156,-47.09
09.171,-54.78
09.187,-62.86
09.203,-70.97
09.218,-78.68
09.234,-85.5
09.250,-90.76
09.265,-93.64
09.281,-93.32
09.296,-89.12
09.312,-80.72
09.328,-68.27
09.343,-52.47
09.359,-34.48
09.375,-15.75
09.390,2.08
09.406,17.47
09.421,29.07
09.437,36.05
09.453,38.15
09.468,35.82
09.484,30.18
09.500,22.81
09.515,15.48
09.531,9.68
09.546,6.33
09.562,5.57
09.578,6.87
09.593,9.28
09.609,11.88
09.625,14.15
09.640,16.0
09.656,17.87
09.671,20.4
09.687,24.22
09.703,29.55
09.718,36.13
09.734,43.08
09.750,49.11
09.765,52.84
09.781,53.22
09.796,49.88
09.812,43.3
09.828,34.7
09.843,25.6
09.859,17.4
09.875,11.0
09.890,6.65
09.906,4.04
09.921,2.57
09.937,1.48
09.953,0.13
09.968,-1.93
09.984,-4.92
10.000,-8.76
10.015,-13.07
10.031,-17.29
10.046,-20.89
10.062,-23.57
10.078,-25.4
10.093,-26.69
10.109,-27.88
10.125,-29.25
10.140,-30.78
10.156,-32.18
10.171,-32.98
10.187,-32.73
10.203,-31.2
10.218,-28.44
10.234,-24.73
10.250,-20.5
10.265,-16.2
10.281,-12.1
10.296,-8.3
10.312,-4.67
10.328,-0.98
10.343,2.85
10.359,6.7
10.375,10.08
10.390,12.46
10.406,13.31
10.421,12.4
10.437,9.75
10.453,5.7
10.468,0.84
10.484,-3.98
10.500,-7.76
10.515,-9.51
10.531,-8.4
10.546,-4.18
10.562,2.74
10.578,11.25
10.593,19.91
10.609,27.42
10.625,33.05
10.640,36.64
10.656,38.5
10.671,39.04
10.687,38.47
10.703,36.84
10.718,34.04
10.734,30.07
10.750,25.06
10.765,19.28
10.781,13.05
10.796,6.71
10.812,0.6
10.828,-4.89
10.843,-9.32
10.859,-12.3
10.875,-13.64
10.890,-13.43
10.906,-12.02
10.921,-9.92
10.937,-7.62
10.953,-5.47
10.968,-3.66
10.984,-2.23
11.000,-1.16
11.015,-0.4
11.031,0.03
11.046,0.05
11.062,-0.51
11.078,-1.9
11.093,-4.38
11.109,-8.15
11.125,-13.2
11.140,-19.33
11.156,-26.11
11.171,-33.0
11.187,-39.54
11.203,-45.43
11.218,-50.59
11.234,-55.05
11.250,-58.78
11.265,-61.51
11.281,-62.81
11.296,-61.99
11.312,-58.39
11.328,-51.62
11.343,-41.65
11.359,-28.88
11.375,-14.09
11.390,1.63
11.406,17.0
11.421,30.67
11.437,41.48
11.453,48.81
11.468,52.67
11.484,53.81
11.500,53.34
11.515,52.33
11.531,51.43
11.546,50.75
11.562,50.05
11.578,49.01
11.593,47.54
11.609,45.76
11.625,43.84
11.640,41.77
11.656,39.25
11.671,35.85
11.687,31.17
11.703,25.07
11.718,17.71
11.734,9.48
11.750,0.93
11.765,-7.31
11.781,-14.64
11.796,-20.38
11.812,-23.96
11.828,-24.98
11.843,-23.47
11.859,-19.94
11.875,-15.39
11.890,-11.04
11.906,-7.98
11.921,-6.94
11.937,-8.09
11.953,-11.1
11.968,-15.35
11.984,-20.08
12.000,-24.58
12.015,-28.26
12.031,-30.7
12.046,-31.65
12.062,-31.14
12.078,-29.54
12.093,-27.46
12.109,-25.59
12.125,-24.58
12.140,-24.78
12.156,-26.24
12.171,-28.73
12.187,-31.79
12.203,-34.88
12.218,-37.53
12.234,-39.36
12.250,-40.08
12.265,-39.5
12.281,-37.51
12.296,-34.04
12.312,-29.12
12.328,-22.98
12.343,-15.96
12.359,-8.56
12.375,-1.28
12.390,5.47
12.406,11.48
12.421,16.63
12.437,20.82
12.453,23.95
12.468,25.92
12.484,26.79
12.500,26.79
12.515,26.39
12.531,26.04
12.546,26.06
12.562,26.48
12.578,27.02
12.593,27.28
12.609,26.95
12.625,25.99
12.640,24.6
12.656,23.21
12.671,22.15
12.687,21.55
12.703,21.23
12.718,20.73
12.734,19.48
12.750,16.98
12.765,12.91
12.781,7.23
12.796,0.26
12.812,-7.43
12.828,-15.08
12.843,-21.86
12.859,-27.06
12.875,-30.23
12.890,-31.24
12.906,-30.31
12.921,-27.9
12.937,-24.6
12.953,-21.09
12.968,-18.01
12.984,-15.88
13.000,-15.16
13.015,-15.91
13.031,-17.87
13.046,-20.42
13.062,-22.72
13.078,-24.05
13.093,-24.06
13.109,-22.84
13.125,-20.87
13.140,-18.82
13.156,-17.2
13.171,-16.33
13.187,-16.18
13.203,-16.41
13.218,-16.6
13.234,-16.19
13.250,-14.7
13.265,-11.67
13.281,-6.86
13.296,-0.18
13.312,8.1
13.328,17.43
13.343,27.0
13.359,35.87
13.375,43.17
13.390,48.28
13.406,51.0
13.421,51.52
13.437,50.44
13.453,48.49
13.468,46.37
13.484,44.64
13.500,43.54
13.515,43.05
13.531,42.85
13.546,42.43
13.562,41.23
13.578,38.74
13.593,34.69
13.609,28.95
13.625,21.65
13.640,13.0
13.656,3.37
13.671,-6.68
13.687,-16.4
13.703,-24.91
13.718,-31.32
13.734,-35.03
13.750,-35.9
13.765,-34.23
13.781,-30.69
13.796,-26.04
13.812,-20.94
13.828,-15.97
13.843,-11.69
13.859,-8.65
13.875,-7.34
13.890,-7.98
13.906,-10.28
13.921,-13.5
13.937,-16.6
13.953,-18.63
13.968,-19.04
13.984,-17.77
14.000,-15.07
14.015,-11.31
14.031,-6.79
14.046,-1.82
14.062,3.15
14.078,7.39
14.093,10.0
14.109,10.14
14.125,7.51
14.140,2.5
14.156,-3.86
14.171,-10.2
14.187,-15.34
14.203,-18.62
14.218,-20.09
14.234,-20.27
14.250,-19.9
14.265,-19.53
14.281,-19.24
14.296,-18.61
14.312,-16.86
14.328,-13.19
14.343,-7.05
14.359,1.59
14.375,12.16
14.390,23.64
14.406,34.73
14.421,44.25
14.437,51.35
14.453,55.53
14.468,56.65
14.484,54.82
14.500,50.41
14.515,44.04
14.531,36.62
14.546,29.17
14.562,22.63
14.578,17.63
14.593,14.32
14.609,12.43
14.625,11.45
14.640,10.86
14.656,10.22
14.671,9.27
14.687,7.81
14.703,5.66
14.718,2.72
14.734,-0.9
14.750,-4.84
14.765,-8.43
14.781,-10.89
14.796,-11.51
14.812,-9.85
14.828,-5.89
14.859,7.06
14.875,14.28
14.890,20.61
14.906,25.08
14.921,26.95
14.937,25.93
14.953,22.12
14.968,16.09
14.984,8.78
15.000,1.27
15.015,-5.43
15.031,-10.58
15.046,-13.9
15.062,-15.66
15.078,-16.55
15.093,-17.59
15.109,-19.75
15.125,-23.68
15.140,-29.57
15.156,-37.08
15.171,-45.45
15.187,-53.81
15.203,-61.27
15.218,-67.1
15.234,-70.81
15.250,-72.09
15.265,-70.8
15.281,-67.06
15.296,-61.08
15.312,-53.11
15.328,-43.47
15.343,-32.37
15.359,-19.99
15.375,-6.64
15.390,7.22
15.406,20.82
15.421,33.19
15.437,43.39
15.453,50.75
15.468,54.99
15.484,56.33
15.500,55.3
15.515,52.56
15.531,48.69
15.546,44.05
15.562,38.79
15.578,32.96
15.593,26.59
15.609,19.95
15.625,13.49
15.640,7.75
15.656,3.17
15.671,-0.12
15.687,-2.33
15.703,-3.92
15.718,-5.13
15.734,-5.95
15.750,-5.94
15.765,-4.57
15.781,-1.6
15.796,2.65
15.812,7.4
15.828,11.73
15.843,15.05
15.859,17.33
15.875,18.87
15.890,19.94
15.906,20.59
15.921,20.48
15.937,19.26
15.953,17.0
15.968,14.22
15.984,11.81
16.000,10.51
16.015,10.48
16.031,11.21
16.046,11.74
16.062,11.06
16.078,8.57
16.093,4.22
16.109,-1.65
16.125,-8.45
16.140,-15.69
16.156,-23.09
16.171,-30.49
16.187,-37.8
16.203,-44.84
16.218,-51.2
16.234,-56.28
16.250,-59.38
16.265,-59.74
16.281,-56.84
16.296,-50.54
16.312,-41.22
16.328,-29.84
16.343,-17.81
16.359,-6.72
16.375,2.0
16.390,7.38
16.406,9.12
16.421,7.63
16.437,3.88
16.453,-0.8
16.468,-5.01
16.484,-7.55
16.500,-7.57
16.515,-4.8
16.531,0.43
16.546,7.2
16.562,14.28
16.578,20.44
16.593,24.75
16.609,26.8
16.625,26.71
16.640,24.93
16.656,21.98
16.671,18.38
16.687,14.53
16.703,10.71
16.718,7.25
16.734,4.45
16.750,2.65
16.765,2.15
16.781,3.14
16.796,5.6
16.812,9.31
16.828,13.8
16.843,18.41
16.859,22.38
16.875,24.96
16.890,25.6
16.906,24.1
16.921,20.56
16.937,15.44
16.953,9.42
16.968,3.21
16.984,-2.55
17.000,-7.44
17.015,-11.34
17.031,-14.39
17.046,-16.91
17.062,-19.29
17.078,-21.77
17.093,-24.46
17.109,-27.35
17.125,-30.37
17.140,-33.45
17.156,-36.57
17.171,-39.67
17.187,-42.58
17.203,-45.0
17.218,-46.57
17.234,-46.92
17.250,-45.85
17.265,-43.32
17.281,-39.39
17.296,-34.26
17.312,-28.15
17.328,-21.28
17.343,-14.06
17.359,-6.87
17.375,-0.3
17.390,5.13
17.406,9.08
17.421,11.47
17.437,12.63
17.453,13.2
17.468,13.98
17.484,15.73
17.500,19.03
17.515,24.05
17.531,30.51
17.546,37.74
17.562,44.74
17.578,50.48
17.593,54.08
17.609,55.1
17.625,53.56
17.640,49.91
17.656,44.83
17.671,39.06
17.687,33.29
17.703,28.12
17.718,24.17
17.734,21.96
17.750,21.96
17.765,24.37
17.781,29.09
17.796,35.75
17.812,43.81
17.828,52.81
17.843,62.32
17.859,72.1
17.875,81.76
17.890,90.9
17.906,99.03
17.921,105.66
17.937,110.52
17.953,113.54
17.968,114.91
17.984,114.89
18.000,113.85
18.015,112.03
18.031,109.66
18.046,106.93
18.062,103.99
18.078,101.06
18.093,97.95
18.109,93.97
18.125,87.43
18.140,75.77
18.156,56.09
18.171,26.32
18.187,-13.47
18.203,-60.26
18.218,-108.45
18.234,-151.35
18.250,-182.92
18.265,-199.37
18.281,-199.59
18.296,-184.6
18.312,-156.73
18.328,-119.01
18.343,-75.23
18.359,-29.85
18.375,12.16
18.390,46.51
18.406,70.82
18.421,85.48
18.437,93.47
18.453,99.04
18.468,106.11
18.484,116.85
18.500,131.43
18.515,148.45
18.531,165.85
18.546,181.81
18.562,195.19
18.578,205.65
18.593,213.35
18.609,218.73
18.625,222.15
18.640,223.92
18.656,224.33
18.671,223.85
18.687,223.05
18.703,222.67
18.718,223.18
18.734,224.51
18.750,226.16
18.765,227.3
18.781,227.22
18.796,225.65
18.812,222.63
18.828,218.25
18.843,212.36
18.859,204.33
18.875,193.27
18.890,178.5
18.906,159.86
18.921,137.97
18.937,114.07
18.953,89.74
18.968,66.55
18.984,45.74
19.000,28.02
19.015,13.73
19.031,2.98
19.046,-4.27
19.062,-8.37
19.078,-10.2
19.093,-11.24
19.109,-13.27
19.125,-17.85
19.140,-25.63
19.156,-36.1
19.171,-47.88
19.187,-59.38
19.203,-69.48
19.218,-78.01
19.234,-85.55
19.250,-93.0
19.265,-101.26
19.281,-111.11
19.296,-123.16
19.312,-137.41
19.328,-152.83
19.343,-166.75
19.359,-175.49
19.375,-175.52
19.390,-165.18
19.406,-145.66
19.421,-120.66
19.437,-94.91
19.453,-72.17
19.468,-54.12
19.484,-40.22
19.500,-28.89
19.515,-18.79
19.531,-9.69
19.546,-1.32
19.562,6.51
19.578,14.77
19.593,24.77
19.609,37.01
19.625,50.2
19.640,61.15
19.656,65.62
19.671,59.88
19.687,42.92
19.703,16.28
19.718,-16.23
19.734,-49.85
19.750,-80.62
19.765,-106.33
19.781,-126.58
19.796,-142.16
19.812,-154.45
19.828,-162.89
19.843,-166.92
19.859,-165.94
19.875,-159.83
19.890,-149.58
19.906,-137.28
19.921,-125.71
19.937,-117.67
19.953,-116.91
19.968,-121.71
19.984,-130.68
20.000,-141.09
20.015,-149.75
20.031,-154.01
20.046,-152.51
20.062,-145.46
20.078,-134.3
20.093,-124.98
20.109,-114.84
20.125,-104.53
20.140,-94.0
20.156,-83.34
20.171,-73.48
20.187,-66.8
20.203,-66.72
20.218,-77.02
20.234,-107.36
20.250,-153.13
20.265,-214.48
20.281,-288.77
20.296,-370.51
20.312,-451.4
20.328,-521.81
20.343,-573.1
20.359,-600.08
20.375,-611.24
20.390,-602.96
20.406,-582.69
20.421,-557.38
20.437,-531.43
20.453,-505.89
20.468,-479.57
20.484,-450.99
20.500,-368.74
20.515,-299.84
20.531,-240.99
20.546,-198.99
20.562,-178.76
20.578,-181.35
20.593,-202.75
20.609,-234.76
20.625,-267.31
20.640,-292.08
20.656,-315.62
20.671,-332.07
20.687,-346.2
20.703,-360.83
20.718,-374.23
20.734,-380.32
20.750,-372.04
20.765,-345.52
20.781,-302.76
20.796,-261.39
20.812,-227.95
20.828,-212.72
20.843,-219.3
20.859,-243.96
20.875,-278.34
20.890,-313.77
20.906,-344.65
20.921,-369.02
20.937,-395.91
20.953,-425.17
20.968,-457.61
20.984,-490.78
21.000,-521.13
21.015,-547.15
21.031,-571.35
21.046,-599.55
21.062,-605.66
21.078,-571.19
21.093,-477.67
21.109,-320.18
21.125,-109.82
21.140,129.49
21.156,369.68
21.171,587.2
21.187,767.69
21.203,906.59
21.218,1001.17
21.234,1054.72
21.250,1072.1
21.265,1059.74
21.281,1025.76
21.296,979.34
21.312,929.45
21.328,883.19
21.343,845.33
21.359,814.09
21.375,786.05
21.390,757.45
21.406,725.93
21.421,691.46
21.437,655.98
21.453,623.58
21.468,595.41
21.484,570.77
21.500,545.02
21.515,513.12
21.531,471.06
21.546,417.3
21.562,353.37
21.578,283.08
21.593,210.84
21.609,142.03
21.625,80.42
21.640,26.59
21.656,-20.32
21.671,-61.94
21.687,-99.87
21.703,-135.04
21.718,-166.98
21.734,-193.05
21.750,-209.22
21.765,-211.05
21.781,-196.22
21.796,-166.2
21.812,-126.85
21.828,-86.88
21.843,-54.95
21.859,-36.6
21.875,-32.41
21.890,-39.33
21.906,-52.69
21.921,-68.5
21.937,-84.59
21.953,-100.13
21.968,-114.45
21.984,-126.07
22.000,-133.68
22.015,-134.73
22.031,-128.18
22.046,-114.85
22.062,-97.0
22.078,-77.46
22.093,-58.56
22.109,-41.54
22.125,-26.61
22.140,-13.38
22.156,-1.29
22.171,9.56
22.187,18.57
22.203,24.92
22.218,27.98
22.234,27.73
22.250,25.06
22.265,21.17
22.281,17.19
22.296,13.87
22.312,11.04
22.328,7.88
22.343,3.24
22.359,-4.02
22.375,-14.65
22.390,-28.45
22.406,-44.75
22.421,-62.68
22.437,-81.13
22.453,-99.34
22.468,-116.69
22.484,-132.77
22.500,-147.31
22.515,-160.05
22.531,-170.27
22.546,-177.15
22.562,-179.94
22.578,-177.87
22.593,-170.34
22.609,-156.98
22.625,-137.54
22.640,-111.77
22.656,-82.23
22.671,-50.86
22.687,-19.39
22.703,10.53
22.718,37.81
22.734,61.68
22.750,81.61
22.765,97.23
22.781,108.15
22.796,114.07
22.812,115.28
22.828,112.44
22.843,106.57
22.859,99.69
22.875,93.98
22.890,91.19
22.906,92.23
22.921,96.68
22.937,102.98
22.953,109.23
22.968,113.48
22.984,114.35
23.000,112.74
23.015,110.49
23.031,109.59
23.046,111.48
23.062,116.26
23.078,122.81
23.093,129.67
23.109,135.75
23.125,140.88
23.140,148.09
23.156,161.08
23.171,182.94
23.187,214.78
23.203,254.94
23.218,299.31
23.234,343.22
23.250,382.66
23.265,415.5
23.281,444.24
23.296,472.62
23.312,504.27
23.328,541.32
23.343,584.27
23.359,632.28
23.375,683.77
23.390,735.98
23.406,767.02
23.421,757.01
23.437,690.87
23.453,565.68
23.468,394.04
23.484,200.72
23.500,13.13
23.515,-147.71
23.531,-272.03
23.546,-360.59
23.562,-417.86
23.578,-450.03
23.593,-462.08
23.609,-458.31
23.625,-442.65
23.640,-419.39
23.656,-392.37
23.671,-364.41
23.687,-336.55
23.703,-306.7
23.718,-272.92
23.734,-232.97
23.750,-189.13
23.765,-146.86
23.781,-113.79
23.796,-96.75
23.812,-99.46
23.828,-120.86
23.843,-153.9
23.859,-190.62
23.875,-220.71
23.890,-239.06
23.906,-247.38
23.921,-252.65
23.937,-260.99
23.953,-274.45
23.968,-289.96
23.984,-300.31
24.000,-298.1
24.015,-278.76
24.031,-242.77
24.046,-191.72
24.062,-131.78
24.078,-69.13
24.093,-8.33
24.109,47.77
24.125,97.63
24.140,140.3
24.156,175.38
24.171,201.89
24.187,218.6
24.203,223.37
24.218,214.13
24.234,189.53
24.250,150.48
24.265,101.32
24.281,49.36
24.296,3.01
24.312,-31.73
24.328,-52.92
24.343,-62.79
24.359,-65.28
24.375,-63.95
24.390,-60.6
24.406,-55.33
24.421,-48.13
24.437,-39.74
24.453,-32.1
24.468,-27.46
24.484,-27.12
24.500,-29.95
24.515,-33.04
24.531,-33.08
24.546,-27.63
24.562,-16.56
24.578,-1.59
24.593,14.6
24.609,29.39
24.625,41.08
24.640,49.8
24.656,57.34
24.671,65.14
24.687,73.87
24.703,82.55
24.718,88.85
24.734,90.0
24.750,83.8
24.765,69.74
24.781,49.16
24.796,24.8
24.812,-0.5
24.828,-24.43
24.843,-45.7
24.859,-64.46
24.875,-81.54
24.890,-97.74
24.906,-113.39
24.921,-128.68
24.937,-143.45
24.953,-156.45
24.968,-164.74
24.984,-164.47
25.000,-152.15
25.015,-126.67
25.031,-90.78
25.046,-50.63
25.062,-14.13
25.078,11.94
25.093,24.59
25.109,25.25
25.125,17.8
25.140,6.21
25.156,-7.15
25.171,-21.83
25.187,-37.98
25.203,-55.02
25.218,-70.94
25.234,-83.1
25.250,-88.76
25.265,-86.64
25.281,-77.14
25.296,-61.69
25.312,-42.35
25.328,-20.76
25.343,1.85
25.359,24.68
25.375,46.84
25.390,67.06
25.406,83.52
25.421,94.3
25.437,97.94
25.453,94.08
25.468,83.54
25.484,68.23
25.500,50.94
25.515,34.54
25.531,21.3
25.546,12.37
25.562,7.68
25.578,6.21
25.593,6.57
25.609,7.34
25.625,7.47
25.640,6.75
25.656,5.62
25.671,4.92
25.687,5.48
25.703,7.89
25.718,12.09
25.734,17.51
25.750,23.2
25.765,28.22
25.781,32.13
25.796,34.69
25.812,35.66
25.828,34.59
25.843,30.56
25.859,22.1
25.875,7.87
25.890,-12.49
25.906,-37.8
25.921,-64.67
25.937,-88.59
25.953,-104.65
25.968,-108.63
25.984,-98.0
26.000,-72.41
26.015,-33.68
26.031,14.28
26.046,65.57
26.062,113.57
26.078,151.75
26.093,175.69
26.109,184.77
26.125,182.16
26.140,173.41
26.156,164.34
26.171,159.11
26.187,156.54
26.203,155.39
26.218,154.14
26.234,151.83
26.250,148.69
26.265,145.75
26.281,143.58
26.296,141.32
26.312,135.88
26.328,122.29
26.343,95.94
26.359,54.11
26.375,-1.7
26.390,-64.84
26.406,-124.85
26.421,-170.94
26.437,-195.75
26.453,-198.03
26.468,-182.52
26.484,-157.16
26.500,-130.59
26.515,-109.58
26.531,-98.18
26.546,-98.05
26.562,-109.15
26.578,-129.66
26.593,-155.95
26.609,-182.67
26.625,-203.66
26.640,-214.12
26.656,-211.91
26.671,-197.95
26.687,-175.5
26.703,-148.92
26.718,-122.08
26.734,-97.62
26.750,-76.88
26.765,-59.8
26.781,-45.78
26.796,-33.87
26.812,-23.06
26.828,-12.22
26.843,0.08
26.859,15.55
26.875,35.76
26.890,61.25
26.906,90.7
26.921,120.75
26.937,147.14
26.953,166.18
26.968,176.4
26.984,178.91
27.000,176.48
27.015,171.55
27.031,164.89
27.046,155.5
27.062,141.32
27.078,121.08
27.093,94.67
27.109,62.92
27.125,26.57
27.140,-13.84
27.156,-57.36
27.171,-101.16
27.187,-139.81
27.203,-166.17
27.218,-173.76
27.234,-159.96
27.250,-127.58
27.265,-84.12
27.281,-38.25
27.296,4.26
27.312,42.63
27.328,79.88
27.343,118.77
27.359,158.12
27.375,191.53
27.390,210.1
27.406,207.07
27.421,181.62
27.437,139.75
27.453,90.97
27.468,43.48
27.484,0.89
27.500,-37.08
27.515,-71.41
27.531,-100.03
27.546,-117.19
27.562,-116.88
27.578,-96.77
27.593,-60.81
27.609,-18.47
27.625,19.04
27.640,43.02
27.656,49.45
27.671,38.46
27.687,11.82
27.703,-29.23
27.718,-82.85
27.734,-143.77
27.750,-201.3
27.765,-241.74
27.781,-254.5
27.796,-237.52
27.812,-197.81
27.828,-147.51
27.843,-98.73
27.859,-59.17
27.875,-31.15
27.890,-13.05
27.906,-2.1
27.921,3.63
27.937,4.98
27.953,2.56
27.968,-2.43
27.984,-7.96
28.000,-11.38
28.015,-10.44
28.031,-3.59
28.046,9.38
28.062,27.35
28.078,48.04
28.093,68.69
28.109,86.73
28.125,100.78
28.140,111.44
28.156,120.83
28.171,130.85
28.187,141.19
28.203,148.5
28.218,147.86
28.234,135.91
28.250,113.19
28.265,84.54
28.281,56.97
28.296,36.26
28.312,24.27
28.328,18.79
28.343,15.6
28.359,11.63
28.375,6.85
28.390,3.48
28.406,3.78
28.421,8.08
28.437,14.6
28.453,20.65
28.468,24.04
28.484,23.88
28.500,20.52
28.515,15.02
28.531,8.36
28.546,1.13
28.562,-6.51
28.578,-14.49
28.593,-22.57
28.609,-30.18
28.625,-36.03
28.640,-37.98
28.656,-33.61
28.671,-21.84
28.687,-4.2
28.703,14.63
28.718,27.84
28.734,29.23
28.750,15.95
28.765,-9.96
28.781,-42.1
28.796,-72.29
28.812,-93.98
28.828,-103.77
28.843,-101.8
28.859,-90.88
28.875,-74.74
28.890,-57.02
28.906,-40.77
28.921,-28.65
28.937,-23.11
28.953,-26.6
28.968,-40.49
28.984,-64.13
29.000,-94.24
29.015,-124.51
29.031,-146.74
29.046,-153.09
29.062,-138.76
29.078,-104.32
29.093,-55.72
29.109,-1.94
29.125,48.52
29.140,90.31
29.156,122.63
29.171,148.03
29.187,167.91
29.203,183.49
29.218,195.13
29.234,202.83
29.250,207.29
29.265,210.2
29.281,213.52
29.296,218.7
29.312,225.5
29.328,231.92
29.343,235.58
29.359,234.45
29.375,227.71
29.390,216.25
29.406,202.2
29.421,187.8
29.437,174.56
29.453,162.38
29.468,149.44
29.484,133.16
29.500,111.12
29.515,82.07
29.531,46.67
29.546,7.13
29.562,-33.55
29.578,-72.63
29.593,-108.58
29.609,-141.1
29.625,-170.59
29.640,-197.44
29.656,-221.31
29.671,-240.92
29.687,-254.42
29.703,-260.29
29.718,-258.08
29.734,-248.88
29.750,-234.74
29.765,-217.89
29.781,-199.98
29.796,-181.7
29.812,-162.97
29.828,-143.48
29.843,-123.2
29.859,-102.32
29.875,-80.9
29.890,-58.58
29.906,-34.91
29.921,-10.09
29.937,14.38
29.953,36.0
29.968,52.49
29.984,62.98
30.000,68.8
30.015,72.84
30.031,77.93
30.046,85.08
30.062,92.74
30.078,97.62
30.093,96.82
30.109,89.62
30.125,78.25
30.140,66.96
30.156,60.07
30.171,59.81
30.187,65.47
30.203,74.04
30.218,81.76
30.234,85.95
30.250,86.04
30.265,83.45
30.281,80.47
30.296,78.99
30.312,79.44
30.328,80.92
30.343,81.83
30.359,80.69
30.375,76.62
30.390,69.45
30.406,59.66
30.421,48.07
30.437,35.7
30.453,23.44
30.468,11.91
30.484,1.33
30.500,-8.55
30.515,-18.07
30.531,-27.19
30.546,-35.16
30.562,-40.5
30.578,-41.63
30.593,-37.27
30.609,-27.13
30.625,-11.98
30.640,6.54
30.656,26.51
30.671,46.24
30.687,64.62
30.703,81.42
30.718,97.08
30.734,112.52
30.750,128.2
30.765,143.3
30.781,155.23
30.796,159.99
30.812,153.31
30.828,132.15
30.843,96.06
30.859,47.51
30.875,-8.7
30.890,-66.93
30.906,-122.18
30.921,-171.18
30.937,-212.53
30.953,-246.05
30.968,-272.02
30.984,-290.51
31.000,-301.6
31.015,-305.78
31.031,-304.55
31.046,-300.61
31.062,-297.17
31.078,-297.45
31.093,-303.9
31.109,-318.0
31.125,-340.37
31.140,-370.32
31.156,-404.97
31.171,-438.7
31.187,-463.76
31.203,-472.06
31.218,-458.29
31.234,-422.2
31.250,-368.99
31.265,-307.86
31.281,-248.7
31.296,-198.95
31.312,-162.01
31.328,-137.59
31.343,-123.27
31.359,-116.26
31.375,-114.02
31.390,-114.06
31.406,-113.64
31.421,-109.61
31.437,-99.08
31.453,-80.5
31.468,-53.97
31.484,-21.13
31.500,15.42
31.515,53.27
31.531,91.01
31.546,128.34
31.562,165.91
31.578,204.58
31.593,244.49
31.609,285.02
31.625,324.71
31.640,361.49
31.656,393.09
31.671,417.77
31.687,434.17
31.703,441.3
31.718,438.34
31.734,424.27
31.750,398.74
31.765,363.13
31.781,320.45
31.796,274.68
31.812,229.58
31.828,186.83
31.843,145.87
31.859,104.89
31.875,61.96
31.890,16.23
31.906,-31.84
31.921,-80.56
31.937,-127.22
31.953,-168.28
31.968,-199.59
31.984,-217.06
32.000,-218.12
32.015,-203.27
32.031,-176.55
32.046,-144.51
32.062,-113.61
32.078,-87.68
32.093,-67.17
32.109,-50.02
32.125,-33.94
32.140,-17.95
32.156,-2.85
32.171,9.85
32.187,18.9
32.203,23.92
32.218,25.56
32.234,25.21
32.250,24.49
32.265,25.35
32.281,29.14
32.296,35.68
32.312,43.06
32.328,48.05
32.343,47.29
32.359,39.48
32.375,26.4
32.390,12.32
32.406,2.45
32.421,0.94
32.437,9.64
32.453,28.24
32.468,55.32
32.484,88.92
32.500,126.89
32.515,165.75
32.531,200.31
32.546,224.03
32.562,231.22
32.578,219.17
32.593,189.55
32.609,147.93
32.625,101.79
32.640,57.79
32.656,19.06
32.671,-15.18
32.687,-48.7
32.703,-86.05
32.718,-130.63
32.734,-183.07
32.750,-240.79
32.765,-298.28
32.781,-348.35
32.796,-384.15
32.812,-400.95
32.828,-397.11
32.843,-374.39
32.859,-337.05
32.875,-290.35
32.890,-239.42
32.906,-188.55
32.921,-141.06
32.937,-99.31
32.953,-64.61
32.968,-36.61
32.984,-13.28
33.000,8.89
33.015,33.74
33.031,64.33
33.046,101.79
33.062,145.2
33.078,192.3
33.093,240.06
33.109,285.36
33.125,325.46
33.140,358.46
33.156,382.98
33.171,397.96
33.187,402.04
33.203,393.23
33.218,369.6
33.234,330.35
33.250,276.91
33.265,213.12
33.281,144.72
33.296,78.05
33.312,18.38
33.328,-31.12
33.343,-69.74
33.359,-98.68
33.375,-120.31
33.390,-137.26
33.406,-151.81
33.421,-164.83
33.437,-174.94
33.453,-178.47
33.468,-170.51
33.484,-146.67
33.500,-105.27
33.515,-48.96
33.531,15.51
33.546,78.92
33.562,131.9
33.578,167.15
33.593,180.55
33.609,171.22
33.625,141.26
33.640,95.22
33.656,39.29
33.671,-19.49
33.687,-73.81
33.703,-117.04
33.718,-144.46
33.734,-154.02
33.750,-146.59
33.765,-125.83
33.781,-97.21
33.796,-66.63
33.812,-38.97
33.828,-17.0
33.843,-1.05
33.859,10.19
33.875,18.81
33.890,26.6
33.906,34.48
33.921,42.41
33.937,49.72
33.953,55.82
33.968,60.34
33.984,63.26
34.000,64.56
34.015,64.28
34.031,62.22
34.046,58.4
34.062,53.15
34.078,47.28
34.093,42.12
34.109,38.81
34.125,37.83
34.140,38.45
34.156,39.07
34.171,37.63
34.187,32.52
34.203,23.4
34.218,11.16
34.234,-2.54
34.250,-16.01
34.265,-28.15
34.281,-38.91
34.296,-48.9
34.312,-58.94
34.328,-69.49
34.343,-79.96
34.359,-88.96
34.375,-94.52
34.390,-94.85
34.406,-88.9
34.421,-76.49
34.437,-58.18
34.453,-34.93
34.468,-7.92
34.484,21.42
34.500,50.97
34.515,78.01
34.531,99.39
34.546,112.16
34.562,114.46
34.578,106.13
34.593,88.84
34.609,65.65
34.625,40.03
34.640,14.72
34.656,-8.74
34.671,-29.93
34.687,-49.11
34.703,-66.43
34.718,-81.52
34.734,-93.54
34.750,-101.29
34.765,-103.43
34.781,-98.69
34.796,-86.04
34.812,-65.02
34.828,-36.32
34.843,-1.97
34.859,34.68
34.875,69.35
34.890,97.81
34.906,116.82
34.921,124.76
34.937,121.97
34.953,110.27
34.968,92.14
34.984,70.28
35.000,46.96
35.015,23.61
35.031,0.98
35.046,-20.66
35.062,-40.96
35.078,-59.16
35.093,-74.09
35.109,-84.51
35.125,-89.6
35.140,-89.25
35.156,-84.03
35.171,-74.86
35.187,-62.69
35.203,-48.39
35.218,-32.88
35.234,-17.28
35.250,-2.71
35.265,9.88
35.281,20.11
35.296,28.29
35.312,35.28
35.328,41.96
35.343,48.81
35.359,55.75
35.375,62.39
35.390,68.38
35.406,73.42
35.421,77.38
35.437,80.01
35.453,80.87
35.468,79.25
35.484,74.34
35.500,65.52
35.515,52.7
35.531,36.44
35.546,17.73
35.562,-1.91
35.578,-20.83
35.593,-37.55
35.609,-51.13
35.625,-61.32
35.640,-68.62
35.656,-73.73
35.671,-77.45
35.687,-80.29
35.703,-82.37
35.718,-83.71
35.734,-84.19
35.750,-83.68
35.765,-81.89
35.781,-78.46
35.796,-72.91
35.812,-64.97
35.828,-54.72
35.843,-42.63
35.859,-29.46
35.875,-16.01
35.890,-2.85
35.906,9.54
35.921,20.56
35.937,29.49
35.953,35.57
35.968,38.36
35.984,38.03
36.000,35.49
36.015,31.98
36.031,28.79
36.046,26.48
36.062,24.73
36.078,22.51
36.093,18.64
36.109,12.33
36.125,3.55
36.140,-7.03
36.156,-18.36
36.171,-29.36
36.187,-39.27
36.203,-47.55
36.218,-53.88
36.234,-57.83
36.250,-58.78
36.265,-56.01
36.281,-49.02
36.296,-37.9
36.312,-23.57
36.328,-7.78
36.343,7.29
36.359,19.66
36.375,28.17
36.390,32.82
36.406,34.73
36.421,35.59
36.437,36.92
36.453,39.53
36.468,43.38
36.484,47.83
36.500,52.08
36.515,55.6
36.531,58.29
36.546,60.62
36.562,63.86
36.578,70.34
36.593,83.31
36.609,106.2
36.625,140.64
36.640,184.85
36.656,232.77
36.671,275.41
36.687,304.01
36.703,313.88
36.718,306.39
36.734,288.1
36.750,267.52
36.765,250.81
36.781,239.59
36.796,231.41
36.812,222.35
36.828,209.89
36.843,194.07
36.859,176.26
36.875,156.85
36.890,134.59
36.906,107.59
36.921,76.02
36.937,43.92
36.953,18.31
36.968,5.73
36.984,8.31
37.000,21.82
37.015,36.74
37.031,42.5
37.046,31.61
37.062,2.35
37.078,-41.74
37.093,-93.82
37.109,-146.18
37.125,-191.51
37.140,-223.64
37.156,-238.06
37.171,-232.73
37.187,-209.29
37.203,-173.2
37.218,-132.54
37.234,-95.39
37.250,-67.45
37.265,-50.78
37.281,-44.12
37.296,-43.87
37.312,-45.32
37.328,-43.62
37.343,-34.81
37.359,-16.91
37.375,8.98
37.390,38.63
37.406,65.94
37.421,84.93
37.437,91.68
37.453,85.22
37.468,66.69
37.484,38.0
37.500,0.86
37.515,-43.46
37.531,-93.63
37.546,-147.6
37.562,-202.55
37.578,-255.32
37.593,-302.57
37.609,-341.14
37.625,-367.4
37.640,-377.55
37.656,-368.3
37.671,-338.16
37.687,-288.48
37.703,-223.87
37.718,-151.57
37.734,-79.98
37.750,-17.25
37.765,30.46
37.781,59.8
37.796,70.93
37.812,67.34
37.828,55.28
37.843,42.48
37.859,36.51
37.875,42.79
37.890,62.77
37.906,93.38
37.921,127.64
37.937,157.04
37.953,174.39
37.968,176.03
37.984,162.71
38.000,138.52
38.015,109.18
38.031,80.36
38.046,56.82
38.062,41.88
38.078,37.16
38.093,42.21
38.109,53.95
38.125,67.39
38.140,76.89
38.156,78.2
38.171,69.94
38.187,53.6
38.203,31.74
38.218,6.04
38.234,-23.44
38.250,-58.28
38.265,-100.22
38.281,-150.18
38.296,-207.52
38.312,-270.28
38.328,-335.28
38.343,-398.39
38.359,-454.67
38.375,-498.82
38.390,-526.57
38.406,-535.82
38.421,-527.32
38.437,-504.05
38.453,-469.74
38.468,-427.57
38.484,-379.61
38.500,-327.26
38.515,-272.03
38.531,-216.07
38.546,-162.02
38.562,-112.41
38.578,-69.2
38.593,-33.34
38.609,-5.02
38.625,16.21
38.640,31.08
38.656,40.52
38.671,45.6
38.687,47.64
38.703,47.9
38.718,47.26
38.734,46.49
38.750,46.3
38.765,47.5
38.781,50.67
38.796,55.91
38.812,62.21
38.828,67.68
38.843,69.93
38.859,66.63
38.875,56.48
38.890,39.76
38.906,18.33
38.921,-4.78
38.937,-26.43
38.953,-44.33
38.968,-57.45
38.984,-65.78
39.000,-69.68
39.015,-69.12
39.031,-63.5
39.046,-52.19
39.062,-35.24
39.078,-14.05
39.093,8.67
39.109,29.73
39.125,46.65
39.140,58.43
39.156,65.61
39.171,69.9
39.187,73.09
39.203,76.37
39.218,79.98
39.234,83.34
39.250,85.62
39.265,86.43
39.281,85.98
39.296,85.09
39.312,84.77
39.328,85.72
39.343,88.08
39.359,91.36
39.375,94.75
39.390,97.59
39.406,99.45
39.421,100.23
39.437,100.03
39.453,98.93
39.468,97.17
39.484,95.11
39.500,93.47
39.515,93.24
39.531,95.53
39.546,101.1
39.562,109.99
39.578,121.48
39.593,134.22
39.609,146.7
39.625,157.56
39.640,165.87
39.656,170.98
39.671,172.53
39.687,170.56
39.703,165.58
39.718,158.67
39.734,151.27
39.750,144.55
39.765,139.02
39.781,134.11
39.796,128.41
39.812,120.26
39.828,108.47
39.843,92.81
39.859,74.05
39.875,53.86
39.890,34.33
39.906,17.61
39.921,5.31
39.937,-1.68
39.953,-3.4
39.968,-0.72
39.984,4.93
40.000,12.11
40.015,19.59
40.031,26.46
40.046,31.96
40.062,35.35
40.078,36.06
40.093,33.95
40.109,29.42
40.125,23.3
40.140,16.51
40.156,9.69
40.171,3.05
40.187,-3.48
40.203,-9.86
40.218,-15.89
40.234,-20.94
40.250,-24.64
40.265,-26.89
40.281,-28.17
40.296,-29.3
40.312,-31.07
40.328,-33.94
40.343,-37.84
40.359,-42.38
40.375,-46.72
40.390,-49.79
40.406,-50.22
40.421,-46.57
40.437,-37.73
40.453,-23.33
40.468,-4.16
40.484,17.67
40.500,39.27
40.515,57.82
40.531,71.31
40.546,79.08
40.562,81.73
40.578,80.49
40.593,76.58
40.609,70.88
40.625,63.8
40.640,55.73
40.656,47.29
40.671,39.37
40.687,32.84
40.703,28.3
40.718,25.54
40.734,23.7
40.750,21.72
40.765,18.82
40.781,14.98
40.796,10.81
40.812,7.37
40.828,5.79
40.843,7.26
40.859,12.66
40.875,22.54
40.890,36.87
40.906,54.76
40.921,74.65
40.937,94.33
40.953,111.84
40.968,125.96
40.984,136.53
41.000,144.22
41.015,149.87
41.031,153.86
41.046,155.49
41.062,152.99
41.078,143.74
41.093,124.98
41.109,94.66
41.125,52.28
41.140,-0.44
41.156,-59.53
41.171,-119.46
41.187,-174.26
41.203,-218.82
41.218,-249.79
41.234,-265.92
41.250,-267.7
41.265,-256.92
41.281,-235.89
41.296,-207.19
41.312,-173.52
41.328,-137.83
41.343,-103.07
41.359,-72.13
41.375,-47.7
41.390,-32.12
41.406,-27.46
41.421,-34.89
41.437,-54.31
41.453,-83.68
41.468,-119.08
41.484,-155.31
41.500,-186.93
41.515,-209.53
41.531,-220.48
41.546,-219.36
41.562,-207.54
41.578,-187.45
41.593,-161.86
41.609,-133.34
41.625,-104.2
41.640,-76.08
41.656,-49.71
41.671,-24.74
41.687,0.01
41.703,25.85
41.718,53.24
41.734,81.1
41.750,106.84
41.765,127.22
41.781,139.82
41.796,144.25
41.812,142.5
41.828,138.3
41.843,135.6
41.859,136.97
41.875,142.73
41.890,151.19
41.906,159.45
41.921,164.67
41.937,164.66
41.953,158.3
41.968,145.42
41.984,126.77
42.000,104.03
42.015,79.65
42.031,56.54
42.046,37.36
42.062,23.94
42.078,16.99
42.093,16.37
42.109,21.59
42.125,32.06
42.140,47.05
42.156,65.47
42.171,85.81
42.187,106.19
42.203,124.96
42.218,141.0
42.234,153.83
42.250,163.2
42.265,168.66
42.281,169.29
42.296,164.27
42.312,153.4
42.328,137.09
42.343,116.27
42.359,91.41
42.375,62.36
42.390,28.57
42.406,-9.61
42.421,-50.18
42.437,-89.33
42.453,-122.22
42.468,-144.92
42.484,-155.73
42.500,-155.74
42.515,-148.26
42.531,-137.83
42.546,-129.2
42.562,-126.18
42.578,-130.72
42.593,-141.84
42.609,-155.31
42.625,-164.61
42.640,-163.17
42.656,-147.11
42.671,-117.31
42.687,-79.3
42.703,-41.11
42.718,-10.05
42.734,9.75
42.750,17.72
42.765,15.79
42.781,6.3
42.796,-9.05
42.812,-28.95
42.828,-51.65
42.843,-74.17
42.859,-92.82
42.875,-104.34
42.890,-107.49
42.906,-103.46
42.921,-95.28
42.937,-86.48
42.953,-79.23
42.968,-73.7
42.984,-68.25
43.000,-60.35
43.015,-47.95
43.031,-30.47
43.046,-9.13
43.062,13.34
43.078,33.63
43.093,49.02
43.109,58.14
43.125,61.24
43.140,59.76
43.156,55.6
43.171,50.41
43.187,45.25
43.203,40.52
43.218,36.21
43.234,32.1
43.250,27.75
43.265,22.49
43.281,15.53
43.296,6.24
43.312,-5.39
43.328,-18.57
43.343,-31.9
43.359,-43.83
43.375,-53.3
43.390,-59.91
43.406,-63.99
43.421,-66.09
43.437,-66.88
43.453,-66.88
43.468,-66.27
43.484,-65.21
43.500,-63.67
43.515,-61.35
43.531,-57.69
43.546,-51.92
43.562,-43.3
43.578,-31.44
43.593,-16.53
43.609,0.94
43.625,20.12
43.640,40.13
43.656,60.19
43.671,79.64
43.687,97.8
43.703,113.96
43.718,127.45
43.734,137.6
43.750,143.95
43.765,146.13
43.781,143.94
43.796,137.36
43.812,126.7
43.828,112.6
43.843,96.06
43.859,78.41
43.875,60.91
43.890,44.37
43.906,28.87
43.921,13.93
43.937,-1.2
43.953,-17.18
43.968,-34.09
43.984,-51.31
44.000,-67.66
44.015,-81.82
44.031,-92.56
44.046,-99.04
44.062,-100.78
44.078,-97.57
44.093,-89.63
44.109,-77.68
44.125,-62.96
44.140,-47.17
44.156,-32.25
44.171,-19.86
44.187,-11.04
44.203,-6.22
44.218,-5.31
44.234,-7.97
44.250,-13.81
44.265,-22.55
44.281,-33.81
44.296,-47.15
44.312,-61.78
44.328,-76.61
44.343,-90.49
44.359,-102.15
44.375,-110.43
44.390,-114.49
44.406,-113.95
44.421,-109.05
44.437,-100.72
44.453,-90.24
44.468,-78.92
44.484,-67.75
44.500,-56.94
44.515,-45.91
44.531,-33.77
44.546,-19.78
44.562,-3.85
44.578,13.37
44.593,30.78
44.609,47.26
44.625,62.11
44.640,75.29
44.656,87.15
44.671,98.01
44.687,107.93
44.703,116.6
44.718,123.4
44.734,127.62
44.750,128.59
44.765,125.79
44.781,119.07
44.796,109.0
44.812,96.8
44.828,84.45
44.843,74.01
44.859,66.83
44.875,63.03
44.890,61.62
44.906,60.62
44.921,58.01
44.937,52.4
44.953,43.58
44.968,33.15
44.984,24.48
45.000,22.54
45.015,32.69
45.031,58.67
45.046,100.21
45.062,151.85
45.078,203.85
45.093,245.41
45.109,268.56
45.125,270.77
45.140,255.13
45.156,227.88
45.171,194.98
45.187,159.61
45.203,122.08
45.218,81.64
45.234,38.5
45.250,-5.12
45.265,-46.09
45.281,-82.01
45.296,-112.64
45.312,-140.1
45.328,-167.78
45.343,-198.67
45.359,-233.8
45.375,-271.55
45.390,-306.99
45.406,-333.04
45.421,-342.02
45.437,-328.22
45.453,-290.25
45.468,-231.99
45.484,-161.48
45.500,-88.08
45.515,-19.33
45.531,41.37
45.546,94.75
45.562,143.77
45.578,190.63
45.593,234.86
45.609,273.14
45.625,300.89
45.640,314.7
45.656,313.99
45.671,301.23
45.687,280.67
45.703,256.38
45.718,230.87
45.734,204.47
45.750,176.15
45.765,144.49
45.781,108.84
45.796,69.74
45.812,28.9
45.828,-11.44
45.843,-49.36
45.859,-83.59
45.875,-114.18
45.890,-141.99
45.906,-168.59
45.921,-195.56
45.937,-223.89
45.953,-253.79
45.968,-284.47
45.984,-314.13
46.000,-339.77
46.015,-357.48
46.031,-362.75
46.046,-351.93
46.062,-323.7
46.078,-280.27
46.093,-227.58
46.109,-173.8
46.125,-127.08
46.140,-93.01
46.156,-73.66
46.171,-67.7
46.187,-71.96
46.203,-82.88
46.218,-97.15
46.234,-111.68
46.250,-122.91
46.265,-127.24
46.281,-122.0
46.296,-107.0
46.312,-85.29
46.328,-62.57
46.343,-45.02
46.359,-36.81
46.375,-38.65
46.390,-47.55
46.406,-58.73
46.421,-67.88
46.437,-72.5
46.453,-72.02
46.468,-66.72
46.484,-56.28
46.500,-39.54
46.515,-15.21
46.531,17.08
46.546,55.56
46.562,96.45
46.578,134.98
46.593,166.78
46.609,188.94
46.625,200.58
46.640,202.36
46.656,195.79
46.671,182.83
46.687,165.51
46.703,145.99
46.718,126.54
46.734,109.06
46.750,94.58
46.765,83.1
46.781,73.56
46.796,64.56
46.812,55.21
46.828,45.47
46.843,36.29
46.859,29.0
46.875,24.41
46.890,22.42
46.906,22.25
46.921,22.85
46.937,23.67
46.953,25.12
46.968,27.86
46.984,32.46
47.000,38.61
47.015,44.95
47.031,49.52
47.046,50.6
47.062,47.39
47.078,40.4
47.093,31.23
47.109,21.36
47.125,11.62
47.140,1.73
47.156,-9.51
47.171,-23.66
47.187,-41.89
47.203,-64.67
47.218,-91.52
47.234,-121.06
47.250,-151.63
47.265,-181.24
47.281,-207.63
47.296,-228.53
47.312,-241.92
47.328,-246.4
47.343,-241.66
47.359,-228.71
47.375,-209.58
47.390,-186.98
47.406,-163.44
47.421,-140.77
47.437,-119.82
47.453,-100.51
47.468,-82.43
47.484,-65.31
47.500,-49.66
47.515,-36.43
47.531,-26.63
47.546,-20.4
47.562,-16.69
47.578,-13.23
47.593,-7.15
47.609,3.89
47.625,20.61
47.640,41.74
47.656,64.51
47.671,85.61
47.687,102.47
47.703,113.92
47.718,120.3
47.734,123.05
47.750,124.11
47.765,125.0
47.781,126.69
47.796,129.53
47.812,133.3
47.828,137.39
47.843,140.99
47.859,143.05
47.875,142.7
47.890,139.61
47.906,134.18
47.921,127.56
47.937,121.2
47.953,116.18
47.968,112.61
47.984,109.75
48.000,106.4
48.015,101.77
48.031,96.01
48.046,90.04
48.062,84.93
48.078,81.07
48.093,77.9
48.109,74.15
48.125,68.63
48.140,60.88
48.156,51.34
48.171,40.94
48.187,30.54
48.203,20.37
48.218,10.09
48.234,-0.88
48.250,-13.02
48.265,-26.35
48.281,-40.59
48.296,-55.38
48.312,-70.33
48.328,-85.34
48.343,-100.33
48.359,-115.05
48.375,-128.78
48.390,-140.2
48.406,-147.33
48.421,-148.09
48.437,-140.97
48.453,-125.53
48.468,-102.71
48.484,-74.47
48.500,-43.2
48.515,-11.28
48.531,19.15
48.546,46.25
48.562,68.45
48.578,84.42
48.593,93.63
48.609,96.55
48.625,94.73
48.640,90.43
48.656,85.98
48.671,83.04
48.687,82.37
48.703,83.78
48.718,86.36
48.734,88.99
48.750,90.49
48.765,89.98
48.781,87.03
48.796,81.61
48.812,74.13
48.828,65.19
48.843,55.28
48.859,44.73
48.875,33.62
48.890,21.93
48.906,9.76
48.921,-2.47
48.937,-13.98
48.953,-23.81
48.968,-30.98
48.984,-34.9
49.000,-35.27
49.015,-32.24
49.031,-26.37
49.046,-18.58
49.062,-9.89
49.078,-1.43
49.093,5.89
49.109,11.52
49.125,15.22
49.140,17.26
49.156,18.28
49.171,19.21
49.187,21.05
49.203,24.49
49.218,29.4
49.234,34.67
49.250,38.39
49.265,38.43
49.281,33.28
49.296,22.82
49.312,8.32
49.328,-7.86
49.343,-23.32
49.359,-36.23
49.375,-45.79
49.390,-52.09
49.406,-55.68
49.421,-57.21
49.437,-57.3
49.453,-56.7
49.468,-56.09
49.484,-56.27
49.500,-57.66
49.515,-60.11
49.531,-62.73
49.546,-64.28
49.562,-63.59
49.578,-60.08
49.593,-54.07
49.609,-46.29
49.625,-37.6
49.640,-28.41
49.656,-18.64
49.671,-7.92
49.687,3.91
49.703,16.46
49.718,28.82
49.734,39.75
49.750,48.08
49.765,53.06
49.781,54.33
49.796,52.13
49.812,47.1
49.828,40.42
49.843,33.53
49.859,27.88
49.875,24.62
49.890,24.09
49.906,25.72
49.921,28.24
49.937,30.06
49.953,29.77
49.968,26.85
49.984,21.55
50.000,14.96
50.015,8.43
50.031,3.04
50.046,-0.74
50.062,-3.15
50.078,-4.71
50.093,-5.95
50.109,-6.92
50.125,-7.47
50.140,-7.36
50.156,-6.7
50.171,-6.01
50.187,-5.85
50.203,-6.55
50.218,-8.0
50.234,-9.72
50.250,-11.32
50.265,-12.84
50.281,-14.65
50.296,-17.21
50.312,-20.67
50.328,-24.47
50.343,-27.77
50.359,-29.9
50.375,-30.65
50.390,-30.37
50.406,-29.77
50.421,-29.45
50.437,-29.48
50.453,-29.58
50.468,-28.83
50.484,-26.21
50.500,-20.84
50.515,-12.32
50.531,-0.87
50.546,12.62
50.562,26.78
50.578,40.14
50.593,51.44
50.609,60.1
50.625,66.11
50.640,69.82
50.656,71.65
50.671,71.84
50.687,70.59
50.703,68.15
50.718,64.84
50.734,60.79
50.750,55.79
50.765,49.14
50.781,39.79
50.796,26.89
50.812,10.3
50.828,-9.13
50.843,-29.74
50.859,-49.65
50.875,-67.5
50.890,-82.67
50.906,-95.14
50.921,-105.04
50.937,-112.01
50.953,-115.33
50.968,-114.09
50.984,-107.87
51.000,-96.92
51.015,-82.4
51.031,-65.96
51.046,-49.4
51.062,-34.26
51.078,-21.56
51.093,-11.8
51.109,-5.17
51.125,-1.58
51.140,-0.63
51.156,-1.7
51.171,-3.79
51.187,-5.8
51.203,-6.54
51.218,-5.16
51.234,-1.21
51.250,5.12
51.265,13.03
51.281,21.29
51.296,28.26
51.312,32.57
51.328,33.24
51.343,30.11
51.359,23.84
51.375,15.81
51.390,7.71
51.406,1.06
51.421,-2.99
51.437,-4.01
51.453,-2.1
51.468,2.2
51.484,8.02
51.500,14.31
51.515,20.12
51.531,24.79
51.546,27.96
51.562,29.59
51.578,29.77
51.593,28.6
51.609,26.14
51.625,22.4
51.640,17.49
51.656,11.69
51.671,5.56
51.687,-0.28
51.703,-5.25
51.718,-9.17
51.734,-12.29
51.750,-15.34
51.765,-19.36
51.781,-25.19
51.796,-33.14
51.812,-42.46
51.828,-51.49
51.843,-57.89
51.859,-59.58
51.875,-55.48
51.890,-45.91
51.906,-32.5
51.921,-17.45
51.937,-2.83
51.953,9.83
51.968,19.76
51.984,26.61
52.000,30.29
52.015,30.87
52.031,28.73
52.046,24.56
52.062,19.39
52.078,14.42
52.093,10.68
52.109,8.78
52.125,8.92
52.140,10.77
52.156,13.74
52.171,17.2
52.187,20.49
52.203,23.17
52.218,25.17
52.234,26.71
52.250,28.23
52.265,30.1
52.281,32.5
52.296,35.31
52.312,38.25
52.328,40.95
52.343,43.08
52.359,44.37
52.375,44.58
52.390,43.48
52.406,40.69
52.421,35.87
52.437,28.88
52.453,19.78
52.468,8.95
52.484,-2.84
52.500,-14.62
52.515,-25.34
52.531,-34.09
52.546,-40.35
52.562,-44.33
52.578,-46.65
52.593,-48.38
52.609,-50.66
52.625,-54.25
52.640,-59.38
52.656,-65.77
52.671,-72.92
52.687,-80.24
52.703,-87.23
52.718,-93.33
52.734,-97.66
52.750,-98.95
52.765,-95.78
52.781,-87.1
52.796,-72.73
52.812,-53.85
52.828,-32.85
52.843,-12.58
52.859,4.44
52.875,16.79
52.890,24.59
52.906,29.0
52.921,31.61
52.937,33.78
52.953,36.14
52.968,38.67
52.984,40.96
53.000,42.49
53.015,42.99
53.031,42.46
53.046,41.02
53.062,38.73
53.078,35.62
53.093,31.75
53.109,27.41
53.125,23.22
53.140,19.93
53.156,18.37
53.171,19.08
53.187,22.08
53.203,26.87
53.218,32.66
53.234,38.51
53.250,43.75
53.265,48.04
53.281,51.1
53.296,52.73
53.312,52.45
53.328,49.35
53.343,42.44
53.359,31.07
53.375,15.33
53.390,-3.39
53.406,-22.72
53.421,-40.0
53.437,-53.12
53.453,-61.35
53.468,-65.5
53.484,-67.52
53.500,-69.82
53.515,-74.48
53.531,-82.57
53.546,-94.08
53.562,-107.89
53.578,-121.8
53.593,-133.08
53.609,-139.05
53.625,-137.82
53.640,-128.98
53.656,-113.74
53.671,-94.32
53.687,-73.23
53.703,-52.41
53.718,-32.78
53.734,-14.73
53.750,1.57
53.765,15.72
53.781,27.09
53.796,35.19
53.812,40.02
53.828,42.16
53.843,42.47
53.859,41.88
53.875,40.85
53.890,39.43
53.906,37.47
53.921,34.85
53.937,31.55
53.953,27.79
53.968,23.9
53.984,20.21
54.000,17.07
54.015,14.65
54.031,13.17
54.046,12.79
54.062,13.77
54.078,16.4
54.093,20.9
54.109,27.3
54.125,35.25
54.140,43.99
54.156,52.22
54.171,58.6
54.187,61.85
54.203,61.15
54.218,56.35
54.234,47.83
54.250,36.46
54.265,23.25
54.281,9.32
54.296,-4.34
54.312,-16.88
54.328,-27.66
54.343,-36.32
54.359,-42.93
54.375,-47.97
54.390,-52.14
54.406,-56.23
54.421,-60.69
54.437,-65.49
54.453,-70.03
54.468,-73.38
54.484,-74.6
54.500,-73.02
54.515,-68.55
54.531,-61.51
54.546,-52.54
54.562,-42.25
54.578,-30.99
54.593,-18.82
54.609,-5.81
54.625,7.77
54.640,21.45
54.656,34.47
54.671,46.32
54.687,56.8
54.703,66.04
54.718,74.33
54.734,81.66
54.750,87.56
54.765,91.24
54.781,92.04
54.796,89.72
54.812,84.8
54.828,78.32
54.843,71.28
54.859,64.54
54.875,58.53
54.890,53.43
54.906,49.44
54.921,46.73
54.937,45.24
54.953,44.41
54.968,42.99
54.984,39.2
55.000,31.51
55.015,19.34
55.031,3.46
55.046,-14.0
55.062,-30.34
55.078,-43.09
55.093,-50.7
55.109,-52.87
55.125,-50.42
55.140,-44.55
55.156,-36.56
55.171,-27.46
55.187,-18.0
55.203,-8.91
55.218,-1.0
55.234,4.92
55.250,8.12
55.265,8.09
55.281,4.88
55.296,-1.12
55.312,-9.17
55.328,-18.12
55.343,-26.78
55.359,-33.9
55.375,-38.28
55.390,-39.18
55.406,-36.39
55.421,-30.3
55.437,-21.94
55.453,-12.63
55.468,-3.6
55.484,4.1
55.500,9.88
55.515,13.57
55.531,15.2
55.546,14.89
55.562,12.98
55.578,9.83
55.593,5.94
55.609,1.89
55.625,-1.93
55.640,-5.47
55.656,-8.93
55.671,-12.55
55.687,-16.4
55.703,-20.08
55.718,-22.97
55.734,-24.42
55.750,-24.11
55.765,-22.22
55.781,-19.27
55.796,-15.86
55.812,-12.33
55.828,-8.72
55.843,-4.82
55.859,-0.55
55.875,4.13
55.890,9.18
55.906,14.51
55.921,20.22
55.937,26.35
55.953,32.73
55.968,38.84
55.984,43.88
56.000,46.84
56.015,47.01
56.031,44.1
56.046,38.35
56.062,30.63
56.078,22.12
56.093,13.86
56.109,6.55
56.125,0.43
56.140,-4.66
56.156,-8.76
56.171,-11.67
56.187,-12.77
56.203,-11.18
56.218,-6.18
56.234,2.43
56.250,14.34
56.265,28.56
56.281,43.65
56.296,57.94
56.312,69.61
56.328,77.17
56.343,79.78
56.359,77.41
56.375,71.0
56.390,62.12
56.406,52.46
56.421,43.39
56.437,35.95
56.453,30.79
56.468,28.54
56.484,29.67
56.500,34.24
56.515,41.62
56.531,50.24
56.546,57.98
56.562,62.78
56.578,63.71
56.593,61.01
56.609,56.43
56.625,52.46
56.640,51.67
56.656,56.05
56.671,66.64
56.687,83.27
56.703,104.33
56.718,126.69
56.734,145.7
56.750,156.32
56.765,154.43
56.781,138.41
56.796,109.96
56.812,73.74
56.828,35.56
56.843,0.14
56.859,-30.47
56.875,-57.26
56.890,-82.85
56.906,-109.7
56.921,-138.51
56.937,-167.86
56.953,-194.99
56.968,-217.13
56.984,-232.49
57.000,-240.39
57.015,-241.0
57.031,-234.69
57.046,-221.94
57.062,-203.67
57.078,-181.45
57.093,-157.6
57.109,-134.33
57.125,-112.92
57.140,-93.11
57.156,-73.75
57.171,-53.74
57.187,-33.33
57.203,-14.61
57.218,-0.58
57.234,6.44
57.250,6.48
57.265,2.57
57.281,-0.08
57.296,3.77
57.312,17.45
57.328,41.09
57.343,71.87
57.359,105.2
57.375,136.01
57.390,159.69
57.406,172.27
57.421,170.45
57.437,151.53
57.453,114.1
57.468,58.89
57.484,-10.1
57.500,-85.27
57.515,-156.81
57.531,-215.21
57.546,-254.22
57.562,-272.56
57.578,-273.76
57.593,-263.84
57.609,-248.48
57.625,-231.03
57.640,-212.21
57.656,-191.75
57.671,-170.23
57.687,-149.78
57.703,-133.45
57.718,-123.41
57.734,-119.36
57.750,-118.48
57.765,-116.75
57.781,-110.84
57.796,-99.49
57.812,-83.66
57.828,-65.41
57.843,-46.69
57.859,-28.36
57.875,-10.14
57.890,8.85
57.906,29.2
57.921,50.7
57.937,72.3
57.953,92.71
57.968,111.05
57.984,127.36
58.000,142.53
58.015,157.91
58.031,174.5
58.046,192.46
58.062,211.05
58.078,228.98
58.093,244.9
58.109,257.85
58.125,267.42
58.140,273.43
58.156,275.74
58.171,273.88
58.187,267.32
58.203,255.52
58.218,238.24
58.234,215.61
58.250,188.23
58.265,157.12
58.281,123.79
58.296,90.23
58.312,58.54
58.328,30.76
58.343,8.28
58.359,-8.39
58.375,-19.54
58.390,-25.99
58.406,-28.64
58.421,-28.23
58.437,-25.24
58.453,-20.21
58.468,-13.78
58.484,-6.89
58.500,-0.56
58.515,4.38
58.531,7.47
58.546,8.74
58.562,8.55
58.578,7.28
58.593,5.19
58.609,2.29
58.625,-1.55
58.640,-6.35
58.656,-11.86
58.671,-17.52
58.687,-22.53
58.703,-26.27
58.718,-28.45
58.734,-29.23
58.750,-29.08
58.765,-28.56
58.781,-28.12
58.796,-27.98
58.812,-28.25
58.828,-28.93
58.843,-29.97
58.859,-31.31
58.875,-32.6
58.890,-33.31
58.906,-32.67
58.921,-29.98
58.937,-24.77
58.953,-17.1
58.968,-7.5
58.984,3.23
59.000,14.18
59.015,24.69
59.031,34.36
59.046,43.1
59.062,51.02
59.078,58.2
59.093,64.36
59.109,68.95
59.125,71.35
59.140,71.06
59.156,68.0
59.171,62.7
59.187,56.06
59.203,49.11
59.218,42.69
59.234,37.22
59.250,32.71
59.265,28.95
59.281,25.7
59.296,22.76
59.312,19.99
59.328,17.32
59.343,14.62
59.359,11.79
59.375,8.79
59.390,5.62
59.406,2.43
59.421,-0.58
59.437,-3.15
59.453,-5.1
59.468,-6.48
59.484,-7.58
59.500,-8.86
59.515,-10.8
59.531,-13.53
59.546,-16.85
59.562,-20.18
59.578,-22.8
59.593,-24.14
59.609,-24.05
59.625,-22.77
59.640,-20.85
59.656,-18.9
59.671,-17.34
59.687,-16.29
59.703,-15.79
59.718,-15.76
59.734,-16.22
59.750,-17.15
59.765,-18.5
59.781,-20.07
59.796,-21.49
59.812,-22.38
59.828,-22.45
59.843,-21.69
59.859,-20.34
59.875,-18.75
59.890,-17.25
59.906,-15.94
59.921,-14.81
59.937,-13.64
59.953,-12.21
59.968,-10.39
59.984,-8.07
