timestamp,value
00.000,77.41
00.015,63.58
00.031,49.31
00.046,34.85
00.062,20.22
00.078,5.36
00.093,-9.84
00.109,-25.27
00.125,-40.64
00.140,-55.29
00.156,-68.37
00.171,-79.24
00.187,-87.52
00.203,-93.22
00.218,-96.6
00.234,-98.09
00.250,-97.9
00.265,-96.1
00.281,-92.62
00.296,-87.54
00.312,-81.13
00.328,-73.69
00.343,-65.29
00.359,-55.59
00.375,-44.03
00.390,-30.14
00.406,-14.09
00.421,2.99
00.437,19.09
00.453,31.9
00.468,39.47
00.484,41.07
00.500,37.25
00.515,29.66
00.531,20.18
00.546,10.47
00.562,1.65
00.578,-5.53
00.593,-10.35
00.609,-11.98
00.625,-9.75
00.640,-3.76
00.656,4.95
00.671,14.33
00.687,21.94
00.703,25.81
00.718,25.0
00.734,19.79
00.750,11.34
00.765,1.12
00.781,-9.67
00.796,-20.16
00.812,-29.82
00.828,-38.16
00.843,-44.5
00.859,-47.96
00.875,-47.6
00.890,-42.81
00.906,-33.26
00.921,-19.28
00.937,-1.95
00.953,16.86
00.968,34.7
00.984,49.2
01.000,58.34
01.015,60.84
01.031,56.17
01.046,44.76
01.062,27.97
01.078,7.81
01.093,-13.09
01.109,-31.97
01.125,-46.31
01.140,-54.29
01.156,-55.33
01.171,-50.07
01.187,-40.02
01.203,-26.97
01.218,-12.74
01.234,1.36
01.250,14.29
01.265,25.27
01.281,33.61
01.296,38.79
01.312,40.36
01.328,38.39
01.343,33.34
01.359,26.16
01.375,18.28
01.390,11.13
01.406,5.95
01.421,3.47
01.437,4.01
01.453,7.24
01.468,12.41
01.484,18.14
01.500,22.88
01.515,25.17
01.531,23.94
01.546,18.68
01.562,9.52
01.578,-2.84
01.593,-17.11
01.609,-31.5
01.625,-43.97
01.640,-52.48
01.656,-55.14
01.671,-50.91
01.687,-39.63
01.703,-22.37
01.718,-1.21
01.734,21.21
01.750,42.12
01.765,59.19
01.781,70.59
01.796,75.54
01.812,73.83
01.828,66.05
01.843,53.39
01.859,37.38
01.875,19.83
01.890,2.4
01.906,-13.36
01.921,-26.57
01.937,-36.63
01.953,-43.06
01.968,-44.92
01.984,-40.73
02.000,-29.01
02.015,-9.18
02.031,17.48
02.046,47.61
02.062,76.23
02.078,98.02
02.093,109.13
02.109,108.34
02.125,97.29
02.140,79.56
02.156,59.44
02.171,40.05
02.187,22.82
02.203,7.45
02.218,-7.17
02.234,-21.79
02.250,-36.34
02.265,-50.0
02.281,-62.02
02.296,-72.14
02.312,-81.11
02.328,-90.07
02.343,-99.81
02.359,-110.09
02.375,-119.52
02.390,-126.24
02.406,-128.91
02.421,-127.21
02.437,-121.73
02.453,-113.3
02.468,-102.31
02.484,-88.77
02.500,-72.63
02.515,-54.24
02.531,-34.36
02.546,-14.07
02.562,5.67
02.578,24.07
02.593,40.43
02.609,54.05
02.625,64.02
02.640,69.57
02.656,70.41
02.671,67.27
02.687,61.47
02.703,54.56
02.718,47.41
02.734,40.04
02.750,31.75
02.765,21.88
02.781,10.31
02.796,-2.28
02.812,-14.59
02.828,-25.33
02.843,-33.41
02.859,-38.42
02.875,-40.43
02.890,-39.5
02.906,-35.6
02.921,-28.89
02.937,-20.11
02.953,-10.81
02.968,-2.56
02.984,3.71
03.000,8.16
03.015,11.87
03.031,16.07
03.046,21.25
03.062,26.7
03.078,30.92
03.093,32.59
03.109,31.39
03.125,27.78
03.140,22.47
03.156,15.48
03.171,6.11
03.187,-6.7
03.203,-23.51
03.218,-43.73
03.234,-65.41
03.250,-85.81
03.265,-102.47
03.281,-113.78
03.296,-119.19
03.312,-118.96
03.328,-113.94
03.343,-105.05
03.359,-93.22
03.375,-79.19
03.390,-63.39
03.406,-45.99
03.421,-27.07
03.437,-6.7
03.453,14.61
03.468,35.83
03.484,55.84
03.500,73.65
03.515,88.91
03.531,101.76
03.546,112.44
03.562,120.75
03.578,125.85
03.593,126.19
03.609,120.36
03.625,107.87
03.640,89.42
03.656,66.96
03.671,42.91
03.687,19.56
03.703,-1.37
03.718,-18.58
03.734,-31.37
03.750,-39.13
03.765,-41.23
03.781,-37.43
03.796,-28.24
03.812,-15.33
03.828,-1.33
03.843,10.84
03.859,18.9
03.875,21.42
03.890,17.98
03.906,9.06
03.921,-4.47
03.937,-21.17
03.953,-39.14
03.968,-56.04
03.984,-69.28
04.000,-76.76
04.015,-77.32
04.031,-71.01
04.046,-58.9
04.062,-42.84
04.078,-24.7
04.093,-6.19
04.109,11.13
04.125,25.94
04.140,36.95
04.156,43.29
04.171,44.71
04.187,41.79
04.203,35.54
04.218,27.34
04.234,18.51
04.250,9.88
04.265,1.83
04.281,-5.44
04.296,-11.27
04.312,-14.6
04.328,-14.33
04.343,-10.23
04.359,-3.19
04.375,4.98
04.390,12.39
04.406,18.08
04.421,22.54
04.437,27.44
04.453,34.55
04.468,44.64
04.484,57.12
04.500,70.36
04.515,82.37
04.531,91.52
04.546,96.79
04.562,97.57
04.578,93.24
04.593,83.41
04.609,68.04
04.625,47.83
04.640,24.44
04.656,-0.03
04.671,-23.42
04.687,-44.03
04.703,-60.99
04.718,-74.13
04.734,-83.5
04.750,-88.78
04.765,-89.24
04.781,-84.0
04.796,-72.92
04.812,-56.91
04.828,-38.09
04.843,-19.52
04.859,-4.21
04.875,5.79
04.890,10.22
04.906,10.27
04.921,7.99
04.937,5.32
04.953,3.56
04.968,3.13
04.984,3.76
05.000,5.16
05.015,7.24
05.031,10.32
05.046,14.6
05.062,19.83
05.078,24.97
05.093,28.48
05.109,28.93
05.125,25.57
05.140,18.93
05.156,10.37
05.171,1.52
05.187,-6.13
05.203,-11.71
05.218,-14.85
05.234,-15.66
05.250,-14.52
05.265,-12.19
05.281,-9.72
05.296,-8.57
05.312,-10.11
05.328,-14.83
05.343,-21.88
05.359,-29.12
05.375,-33.95
05.390,-34.17
05.406,-28.94
05.421,-18.85
05.437,-5.43
05.453,9.67
05.468,25.43
05.484,41.3
05.500,57.0
05.515,71.69
05.531,83.94
05.546,91.9
05.562,94.09
05.578,90.16
05.593,81.0
05.609,68.62
05.625,55.15
05.640,42.17
05.656,30.27
05.671,19.26
05.687,8.76
05.703,-1.06
05.718,-9.29
05.734,-14.81
05.750,-16.98
05.765,-16.47
05.781,-15.18
05.796,-15.48
05.812,-18.91
05.828,-25.31
05.843,-32.64
05.859,-38.03
05.875,-39.3
05.890,-35.98
05.906,-29.35
05.921,-21.64
05.937,-14.77
05.953,-9.46
05.968,-5.36
05.984,-1.55
06.000,2.23
06.015,5.27
06.031,6.1
06.046,3.47
06.062,-2.84
06.078,-11.7
06.093,-21.07
06.109,-28.68
06.125,-32.69
06.140,-32.06
06.156,-26.62
06.171,-16.87
06.187,-3.87
06.203,10.51
06.218,23.84
06.234,33.47
06.250,37.6
06.265,35.85
06.281,29.67
06.296,21.76
06.312,15.06
06.328,11.57
06.343,11.8
06.359,15.1
06.375,20.38
06.390,26.7
06.406,33.24
06.421,39.12
06.437,43.06
06.453,43.49
06.468,39.21
06.484,29.8
06.500,16.23
06.515,0.56
06.531,-14.75
06.546,-27.6
06.562,-36.67
06.578,-41.63
06.593,-43.2
06.609,-42.57
06.625,-41.16
06.640,-39.92
06.656,-39.07
06.671,-38.11
06.687,-36.36
06.703,-33.79
06.718,-31.37
06.734,-30.73
06.750,-32.93
06.765,-37.58
06.781,-42.5
06.796,-44.81
06.812,-42.15
06.828,-34.07
06.843,-22.09
06.859,-8.6
06.875,4.46
06.890,16.7
06.906,28.87
06.921,41.84
06.937,55.2
06.953,67.07
06.968,74.87
06.984,76.41
07.000,71.16
07.015,60.37
07.031,46.46
07.046,31.9
07.062,18.5
07.078,7.11
07.093,-2.23
07.109,-9.56
07.125,-14.92
07.140,-18.13
07.156,-19.18
07.171,-18.45
07.187,-16.59
07.203,-14.39
07.218,-12.45
07.234,-11.14
07.250,-10.29
07.265,-9.45
07.281,-8.01
07.296,-5.8
07.312,-3.14
07.328,-0.98
07.343,-0.6
07.359,-3.02
07.375,-8.42
07.390,-15.88
07.406,-23.54
07.421,-29.3
07.437,-31.58
07.453,-29.76
07.468,-24.24
07.484,-16.25
07.500,-7.58
07.515,0.09
07.531,5.3
07.546,7.04
07.562,5.08
07.578,0.02
07.593,-6.79
07.609,-13.32
07.625,-17.49
07.640,-17.97
07.656,-14.36
07.671,-7.58
07.687,0.72
07.703,8.88
07.718,15.93
07.734,21.65
07.750,26.37
07.765,30.33
07.781,33.11
07.796,33.75
07.812,31.23
07.828,25.37
07.843,17.22
07.859,8.92
07.875,2.76
07.890,0.29
07.906,1.69
07.921,5.99
07.937,11.67
07.953,17.55
07.968,23.15
07.984,28.52
08.000,33.51
08.015,37.4
08.031,38.9
08.046,36.62
08.062,29.88
08.078,19.25
08.093,6.37
08.109,-6.72
08.125,-18.28
08.140,-27.61
08.156,-34.93
08.171,-41.01
08.187,-46.48
08.203,-51.38
08.218,-54.91
08.234,-55.84
08.250,-53.25
08.265,-47.14
08.281,-38.71
08.296,-29.96
08.312,-22.92
08.328,-18.75
08.343,-17.6
08.359,-18.44
08.375,-19.95
08.390,-20.98
08.406,-20.9
08.421,-19.64
08.437,-17.35
08.453,-14.14
08.468,-9.97
08.484,-4.88
08.500,0.94
08.515,6.99
08.531,12.59
08.546,17.13
08.562,19.92
08.578,20.43
08.593,18.35
08.609,13.81
08.625,7.54
08.640,0.85
08.656,-4.86
08.671,-8.57
08.687,-9.88
08.703,-8.95
08.718,-6.37
08.734,-2.7
08.750,1.69
08.765,6.48
08.781,11.31
08.796,15.65
08.812,18.88
08.828,20.66
08.843,21.16
08.859,20.86
08.875,20.34
08.890,19.97
08.906,19.78
08.921,19.42
08.937,18.57
08.953,17.01
08.968,14.81
08.984,12.19
09.000,9.21
09.015,5.69
09.031,1.25
09.046,-4.29
09.062,-10.91
09.078,-17.89
09.093,-23.97
09.109,-27.83
09.125,-28.53
09.140,-25.83
09.156,-20.24
09.171,-12.78
09.187,-4.48
09.203,3.68
09.218,11.02
09.234,17.14
09.250,21.61
09.265,23.99
09.281,23.88
09.296,21.11
09.312,16.02
09.328,9.43
09.343,2.57
09.359,-3.23
09.375,-6.85
09.390,-7.85
09.406,-6.34
09.421,-2.95
09.437,1.62
09.453,6.82
09.468,12.28
09.484,17.68
09.500,22.38
09.515,25.41
09.531,25.67
09.546,22.32
09.562,15.19
09.578,4.79
09.593,-7.45
09.609,-19.86
09.625,-30.76
09.640,-38.89
09.656,-43.7
09.671,-45.33
09.687,-44.54
09.703,-42.37
09.718,-40.0
09.734,-38.0
09.750,-36.43
09.765,-34.8
09.781,-32.42
09.796,-28.85
09.812,-24.09
09.828,-18.33
09.843,-11.86
09.859,-4.91
09.875,2.55
09.890,10.53
09.906,18.87
09.921,26.81
09.937,33.2
09.953,36.76
09.968,36.77
09.984,33.46
10.000,27.97
10.015,22.05
10.031,17.34
10.046,14.77
10.062,14.35
10.078,15.21
10.093,16.36
10.109,17.16
10.125,17.45
10.140,17.36
10.156,17.07
10.171,16.6
10.187,15.79
10.203,14.66
10.218,13.34
10.234,12.12
10.250,11.25
10.265,10.78
10.281,10.54
10.296,10.3
10.312,9.88
10.328,9.2
10.343,8.13
10.359,6.35
10.375,3.17
10.390,-2.1
10.406,-9.86
10.421,-19.85
10.437,-31.07
10.453,-42.17
10.468,-51.88
10.484,-59.34
10.500,-64.15
10.515,-66.07
10.531,-64.88
10.546,-60.39
10.562,-52.62
10.578,-42.27
10.593,-30.64
10.609,-19.25
10.625,-9.18
10.640,-0.84
10.656,6.22
10.671,12.67
10.687,18.91
10.703,24.79
10.718,29.75
10.734,33.13
10.750,34.76
10.765,34.97
10.781,34.34
10.796,33.22
10.812,31.49
10.828,28.69
10.843,24.39
10.859,18.7
10.875,12.27
10.890,6.09
10.906,1.0
10.921,-2.76
10.937,-5.56
10.953,-8.11
10.968,-10.8
10.984,-13.27
11.000,-14.56
11.015,-13.61
11.031,-10.04
11.046,-4.67
11.062,0.67
11.078,3.79
11.093,3.0
11.109,-2.04
11.125,-10.3
11.140,-19.86
11.156,-28.73
11.171,-35.65
11.187,-40.23
11.203,-42.78
11.218,-43.69
11.234,-43.17
11.250,-41.05
11.265,-37.14
11.281,-31.6
11.296,-24.9
11.312,-17.88
11.328,-11.34
11.343,-5.69
11.359,-0.71
11.375,4.11
11.390,9.36
11.406,15.27
11.421,21.44
11.437,27.12
11.453,31.52
11.468,34.06
11.484,34.73
11.500,33.99
11.515,32.63
11.531,31.4
11.546,30.83
11.562,30.86
11.578,31.1
11.593,31.05
11.609,30.44
11.625,29.51
11.640,28.78
11.656,28.91
11.671,30.13
11.687,32.21
11.703,34.3
11.718,35.39
11.734,34.67
11.750,32.03
11.765,27.9
11.781,23.02
11.796,17.96
11.812,13.0
11.828,8.16
11.843,3.44
11.859,-1.0
11.875,-4.86
11.890,-7.92
11.906,-10.12
11.921,-11.8
11.937,-13.52
11.953,-15.69
11.968,-18.3
11.984,-20.82
12.000,-22.49
12.015,-22.71
12.031,-21.39
12.046,-18.92
12.062,-16.04
12.078,-13.5
12.093,-11.68
12.109,-10.36
12.125,-8.74
12.140,-5.91
12.156,-1.25
12.171,5.09
12.187,12.29
12.203,19.1
12.218,24.38
12.234,27.52
12.250,28.55
12.265,27.89
12.281,25.9
12.296,22.69
12.312,18.16
12.328,12.45
12.343,6.3
12.359,1.18
12.375,-1.33
12.390,-0.23
12.406,4.29
12.421,10.59
12.437,16.38
12.453,19.53
12.468,18.96
12.484,15.13
12.500,9.57
12.515,4.24
12.531,0.6
12.546,-0.67
12.562,0.06
12.578,2.02
12.593,4.24
12.609,5.87
12.625,6.47
12.640,5.63
12.656,3.03
12.671,-1.67
12.687,-8.48
12.703,-17.2
12.718,-27.07
12.734,-37.04
12.750,-45.99
12.765,-52.85
12.781,-56.81
12.796,-57.34
12.812,-54.06
12.828,-46.89
12.843,-36.17
12.859,-22.84
12.875,-8.42
12.890,5.11
12.906,15.99
12.921,22.93
12.937,25.54
12.953,24.61
12.968,21.56
12.984,18.14
13.000,15.84
13.015,15.43
13.031,16.78
13.046,19.21
13.062,21.55
13.078,22.8
13.093,22.53
13.109,20.84
13.125,18.39
13.140,15.98
13.156,14.13
13.171,12.86
13.187,11.95
13.203,11.01
13.218,9.86
13.234,8.71
13.250,7.83
13.265,7.41
13.281,7.29
13.296,6.8
13.312,5.1
13.328,1.74
13.343,-3.2
13.359,-9.06
13.375,-14.96
13.390,-20.3
13.406,-24.88
13.421,-28.92
13.437,-32.72
13.453,-36.48
13.468,-39.96
13.484,-42.73
13.500,-44.35
13.515,-44.53
13.531,-43.35
13.546,-41.07
13.562,-37.95
13.578,-34.09
13.593,-29.35
13.609,-23.46
13.625,-16.24
13.640,-7.85
13.656,1.24
13.671,10.21
13.687,18.27
13.703,24.88
13.718,29.85
13.734,33.34
13.750,35.65
13.765,37.01
13.781,37.47
13.796,36.94
13.812,35.17
13.828,32.14
13.843,28.07
13.859,23.37
13.875,18.58
13.890,14.18
13.906,10.55
13.921,7.9
13.937,6.33
13.953,5.75
13.968,6.11
13.984,7.21
14.000,8.65
14.015,9.98
14.031,10.45
14.046,9.34
14.062,6.15
14.078,0.77
14.093,-6.44
14.109,-14.6
14.125,-22.67
14.140,-29.68
14.156,-34.94
14.171,-38.33
14.187,-40.03
14.203,-40.51
14.218,-40.23
14.234,-39.71
14.250,-39.4
14.265,-39.75
14.281,-40.9
14.296,-42.61
14.312,-44.24
14.328,-44.59
14.343,-42.43
14.359,-36.7
14.375,-27.09
14.390,-14.18
14.406,0.59
14.421,15.53
14.437,29.07
14.453,40.12
14.468,48.29
14.484,53.7
14.500,56.73
14.515,57.93
14.531,57.78
14.546,56.53
14.562,54.38
14.578,51.27
14.593,47.05
14.609,41.81
14.625,35.81
14.640,29.65
14.656,24.16
14.671,19.96
14.687,17.23
14.703,15.57
14.718,14.02
14.734,11.49
14.750,7.22
14.765,0.89
14.781,-7.02
14.796,-15.58
14.812,-23.59
14.828,-29.99
14.843,-34.16
14.859,-36.08
14.875,-36.2
14.890,-35.19
14.906,-33.65
14.921,-31.83
14.937,-29.72
14.953,-27.24
14.968,-24.61
14.984,-22.21
15.000,-20.74
15.015,-20.59
15.031,-21.65
15.046,-23.24
15.062,-24.29
15.078,-23.8
15.093,-21.23
15.109,-16.71
15.125,-10.88
15.140,-4.6
15.156,1.41
15.171,6.76
15.187,11.34
15.203,15.29
15.218,18.76
15.234,21.91
15.250,24.98
15.265,28.1
15.281,31.41
15.296,34.7
15.312,37.5
15.328,39.14
15.343,39.19
15.359,37.69
15.375,35.21
15.390,32.7
15.406,30.93
15.421,30.16
15.437,29.84
15.453,29.09
15.468,26.96
15.484,23.14
15.500,17.91
15.515,11.97
15.531,6.01
15.546,0.48
15.562,-4.45
15.578,-8.76
15.593,-12.32
15.609,-14.86
15.625,-16.0
15.640,-15.44
15.656,-13.36
15.671,-10.31
15.687,-7.09
15.703,-4.64
15.718,-3.74
15.734,-4.89
15.750,-8.22
15.765,-13.37
15.781,-19.51
15.796,-25.56
15.812,-30.41
15.828,-33.16
15.843,-33.37
15.859,-31.05
15.875,-26.73
15.890,-21.12
15.906,-15.01
15.921,-9.01
15.937,-3.56
15.953,1.15
15.968,5.0
15.984,7.76
16.000,9.27
16.015,9.42
16.031,8.36
16.046,6.52
16.062,4.58
16.078,3.27
16.093,3.21
16.109,4.67
16.125,7.47
16.140,11.26
16.156,15.65
16.171,20.35
16.187,25.23
16.203,30.28
16.218,35.49
16.234,40.68
16.250,45.52
16.265,49.46
16.281,52.0
16.296,52.78
16.312,51.8
16.328,49.31
16.343,45.68
16.359,41.37
16.375,36.8
16.390,32.22
16.406,27.81
16.421,23.49
16.437,18.77
16.453,13.18
16.468,6.29
16.484,-1.93
16.500,-11.09
16.515,-20.35
16.531,-28.8
16.546,-35.57
16.562,-39.97
16.578,-41.56
16.593,-40.09
16.609,-35.43
16.625,-27.75
16.640,-17.7
16.656,-6.38
16.671,4.68
16.687,14.06
16.703,20.65
16.718,24.1
16.734,24.59
16.750,22.81
16.765,19.63
16.781,15.86
16.796,11.97
16.812,8.06
16.828,4.06
16.843,-0.27
16.859,-5.07
16.875,-10.37
16.890,-16.08
16.906,-21.95
16.921,-27.66
16.937,-33.04
16.953,-38.0
16.968,-42.55
16.984,-46.69
17.000,-50.39
17.015,-53.63
17.031,-56.36
17.046,-58.56
17.062,-60.14
17.078,-61.08
17.093,-61.33
17.109,-60.79
17.125,-59.33
17.140,-56.83
17.156,-53.13
17.171,-48.09
17.187,-41.67
17.203,-33.94
17.218,-25.26
17.234,-16.15
17.250,-7.42
17.265,0.18
17.281,5.94
17.296,9.52
17.312,11.0
17.328,10.98
17.343,10.42
17.359,10.47
17.375,11.98
17.390,15.19
17.406,19.63
17.421,23.98
17.437,26.82
17.453,26.95
17.468,24.01
17.484,18.61
17.500,12.2
17.515,6.34
17.531,2.33
17.546,0.58
17.562,0.74
17.578,1.99
17.593,3.55
17.609,5.0
17.625,6.21
17.640,7.38
17.656,8.61
17.671,10.04
17.687,11.67
17.703,13.52
17.718,15.57
17.734,17.8
17.750,20.0
17.765,21.82
17.781,22.79
17.796,22.45
17.812,20.74
17.828,17.82
17.843,14.21
17.859,10.42
17.875,6.79
17.890,3.16
17.906,-0.84
17.921,-5.71
17.937,-11.7
17.953,-18.52
17.968,-25.35
17.984,-31.19
18.000,-35.15
18.015,-36.83
18.031,-36.52
18.046,-34.95
18.062,-33.03
18.078,-31.44
18.093,-30.55
18.109,-30.1
18.125,-29.59
18.140,-28.25
18.156,-25.54
18.171,-21.0
18.187,-14.5
18.203,-6.13
18.218,3.7
18.234,14.16
18.250,24.16
18.265,32.44
18.281,37.98
18.296,40.03
18.312,38.52
18.328,33.96
18.343,27.44
18.359,20.16
18.375,13.39
18.390,7.97
18.406,4.26
18.421,2.14
18.437,1.1
18.453,0.61
18.468,0.34
18.484,0.4
18.500,1.06
18.515,2.64
18.531,5.19
18.546,8.19
18.562,10.85
18.578,12.41
18.593,12.43
18.609,10.94
18.625,8.43
18.640,5.45
18.656,2.44
18.671,-0.49
18.687,-3.4
18.703,-6.33
18.718,-9.16
18.734,-11.59
18.750,-13.25
18.765,-13.94
18.781,-13.78
18.796,-13.16
18.812,-12.6
18.828,-12.54
18.843,-12.97
18.859,-13.65
18.875,-13.96
18.890,-13.24
18.906,-10.93
18.921,-6.82
18.937,-1.06
18.953,5.94
18.968,13.53
18.984,21.07
19.000,27.89
19.015,33.42
19.031,37.33
19.046,39.45
19.062,39.87
19.078,38.78
19.093,36.5
19.109,33.43
19.125,29.92
19.140,26.3
19.156,22.84
19.171,19.68
19.187,16.92
19.203,14.62
19.218,12.68
19.234,10.92
19.250,9.13
19.265,7.09
19.281,4.56
19.296,1.44
19.312,-2.31
19.328,-6.66
19.343,-11.41
19.359,-16.28
19.375,-20.98
19.390,-25.17
19.406,-28.63
19.421,-31.31
19.437,-33.25
19.453,-34.58
19.468,-35.5
19.484,-36.11
19.500,-36.46
19.515,-36.63
19.531,-36.7
19.546,-36.8
19.562,-37.12
19.578,-37.62
19.593,-38.1
19.609,-38.11
19.625,-37.0
19.640,-34.12
19.656,-29.0
19.671,-21.66
19.687,-12.62
19.703,-2.7
19.718,7.23
19.734,16.44
19.750,24.47
19.765,31.19
19.781,36.62
19.796,40.78
19.812,43.79
19.828,45.64
19.843,46.45
19.859,46.44
19.875,45.81
19.890,44.7
19.906,43.26
19.921,41.43
19.937,39.11
19.953,36.31
19.968,33.01
19.984,29.27
20.000,25.2
20.015,20.74
20.031,15.77
20.046,10.13
20.062,3.72
20.078,-3.41
20.093,-11.01
20.109,-18.71
20.125,-26.15
20.140,-32.97
20.156,-39.07
20.171,-44.38
20.187,-48.96
20.203,-52.75
20.218,-55.59
20.234,-57.18
20.250,-57.22
20.265,-55.53
20.281,-52.02
20.296,-47.02
20.312,-40.99
20.328,-34.54
20.343,-28.28
20.359,-22.66
20.375,-17.94
20.390,-14.05
20.406,-10.77
20.421,-7.6
20.437,-4.33
20.453,-0.83
20.468,2.81
20.484,6.35
20.500,9.56
20.515,12.32
20.531,14.7
20.546,16.85
20.562,19.06
20.578,21.47
20.593,24.02
20.609,26.5
20.625,28.55
20.640,29.96
20.656,30.69
20.671,31.03
20.687,31.27
20.703,31.7
20.718,32.27
20.734,32.86
20.750,33.35
20.765,33.66
20.781,33.94
20.796,34.17
20.812,34.12
20.828,33.04
20.843,30.06
20.859,24.23
20.875,15.03
20.890,2.72
20.906,-11.85
20.921,-27.12
20.937,-41.31
20.953,-52.78
20.968,-60.52
20.984,-64.16
21.000,-64.12
21.015,-61.29
21.031,-56.7
21.046,-51.44
21.062,-46.33
21.078,-41.86
21.093,-38.11
21.109,-34.87
21.125,-31.58
21.140,-27.62
21.156,-22.44
21.171,-15.87
21.187,-8.04
21.203,0.57
21.218,9.33
21.234,17.61
21.250,24.74
21.265,30.35
21.281,34.28
21.296,36.51
21.312,37.15
21.328,36.39
21.343,34.41
21.359,31.46
21.375,27.7
21.390,23.33
21.406,18.55
21.421,13.56
21.437,8.54
21.453,3.69
21.468,-0.63
21.484,-3.76
21.500,-5.04
21.515,-4.2
21.531,-1.49
21.546,2.17
21.562,5.5
21.578,7.43
21.593,7.42
21.609,5.68
21.625,2.96
21.640,-0.11
21.656,-3.2
21.671,-6.4
21.687,-9.76
21.703,-13.14
21.718,-16.14
21.734,-18.31
21.750,-19.58
21.765,-20.19
21.781,-20.57
21.796,-20.77
21.812,-20.31
21.828,-18.35
21.843,-14.17
21.859,-7.49
21.875,1.18
21.890,10.77
21.906,20.32
21.921,28.93
21.937,36.29
21.953,42.23
21.968,46.39
21.984,48.21
22.000,47.19
22.015,43.13
22.031,36.36
22.046,27.9
22.062,18.93
22.078,10.74
22.093,4.21
22.109,-0.44
22.125,-3.35
22.140,-4.84
22.156,-5.31
22.171,-5.0
22.187,-4.07
22.203,-2.68
22.218,-0.91
22.234,1.09
22.250,2.94
22.265,4.43
22.281,5.42
22.296,5.75
22.312,5.34
22.328,4.18
22.343,2.25
22.359,-0.29
22.375,-3.08
22.390,-5.87
22.406,-8.29
22.421,-10.09
22.437,-11.3
22.453,-12.03
22.468,-12.33
22.484,-12.33
22.500,-12.12
22.515,-11.75
22.531,-11.38
22.546,-11.07
22.562,-10.71
22.578,-10.11
22.593,-8.96
22.609,-7.09
22.625,-4.68
22.640,-2.09
22.656,0.22
22.671,1.96
22.687,3.25
22.703,4.37
22.718,5.73
22.734,7.62
22.750,10.11
22.765,13.01
22.781,15.97
22.796,18.52
22.812,20.06
22.828,20.14
22.843,18.45
22.859,15.19
22.875,11.09
22.890,7.23
22.906,4.55
22.921,3.43
22.937,3.49
22.953,3.68
22.968,3.11
22.984,1.43
23.000,-0.93
23.015,-3.12
23.031,-4.33
23.046,-4.44
23.062,-3.98
23.078,-3.74
23.093,-4.38
23.109,-6.08
23.125,-8.45
23.140,-10.84
23.156,-12.78
23.171,-14.1
23.187,-14.94
23.203,-15.56
23.218,-16.14
23.234,-16.77
23.250,-17.65
23.265,-18.97
23.281,-20.9
23.296,-23.48
23.312,-26.51
23.328,-29.42
23.343,-31.51
23.359,-32.11
23.375,-30.82
23.390,-27.76
23.406,-23.28
23.421,-17.94
23.437,-12.41
23.453,-7.19
23.468,-2.5
23.484,1.59
23.500,5.29
23.515,8.95
23.531,12.91
23.546,17.38
23.562,22.43
23.578,27.99
23.593,34.02
23.609,40.51
23.625,47.27
23.640,53.88
23.656,59.7
23.671,63.68
23.687,64.86
23.703,62.56
23.718,56.74
23.734,48.17
23.750,38.08
23.765,27.65
23.781,17.78
23.796,8.83
23.812,0.62
23.828,-7.02
23.843,-14.05
23.859,-20.21
23.875,-25.0
23.890,-28.1
23.906,-29.65
23.921,-30.17
23.937,-30.24
23.953,-30.42
23.968,-30.7
23.984,-30.67
24.000,-29.8
24.015,-27.76
24.031,-24.62
24.046,-21.08
24.062,-18.14
24.078,-16.55
24.093,-16.52
24.109,-17.37
24.125,-17.64
24.140,-15.87
24.156,-11.24
24.171,-3.98
24.187,4.53
24.203,12.29
24.218,17.49
24.234,19.18
24.250,17.59
24.265,13.81
24.281,9.25
24.296,5.03
24.312,1.7
24.328,-0.68
24.343,-2.12
24.359,-2.62
24.375,-2.14
24.390,-0.54
24.406,2.08
24.421,5.35
24.437,8.89
24.453,12.41
24.468,15.82
24.484,19.31
24.500,22.99
24.515,26.69
24.531,30.13
24.546,33.02
24.562,35.22
24.578,36.87
24.593,38.27
24.609,39.54
24.625,40.47
24.640,40.58
24.656,39.01
24.671,35.0
24.687,28.11
24.703,18.28
24.718,6.0
24.734,-7.96
24.750,-22.59
24.765,-36.65
24.781,-48.8
24.796,-57.75
24.812,-62.48
24.828,-62.46
24.843,-57.95
24.859,-49.77
24.875,-39.4
24.890,-28.33
24.906,-17.79
24.921,-8.5
24.937,-0.55
24.953,6.3
24.968,12.43
24.984,18.06
25.000,23.33
25.015,27.91
25.031,31.43
25.046,33.46
25.062,33.71
25.078,32.25
25.093,29.41
25.109,25.64
25.125,21.25
25.140,16.52
25.156,11.43
25.171,5.75
25.187,-0.68
25.203,-8.07
25.218,-16.36
25.234,-25.04
25.250,-33.17
25.265,-39.49
25.281,-42.48
25.296,-41.18
25.312,-35.6
25.328,-26.78
25.343,-16.76
25.359,-7.56
25.375,-0.62
25.390,3.83
25.406,6.47
25.421,8.4
25.437,10.34
25.453,12.25
25.468,13.42
25.484,12.99
25.500,10.81
25.515,7.37
25.531,3.65
25.546,0.43
25.562,-2.24
25.578,-5.12
25.593,-9.15
25.609,-14.84
25.625,-21.92
25.640,-29.44
25.656,-36.17
25.671,-41.27
25.687,-44.1
25.703,-44.21
25.718,-41.23
25.734,-34.84
25.750,-25.07
25.765,-12.81
25.781,0.1
25.796,11.25
25.812,18.42
25.828,20.53
25.843,18.04
25.859,12.64
25.875,6.47
25.890,1.37
25.906,-1.77
25.921,-2.89
25.937,-2.35
25.953,-0.31
25.968,3.38
25.984,8.98
26.000,16.41
26.015,24.89
26.031,32.9
26.046,38.62
26.062,40.61
26.078,38.3
26.093,32.12
26.109,23.22
26.125,12.91
26.140,2.1
26.156,-8.73
26.171,-19.34
26.187,-29.35
26.203,-37.79
26.218,-43.33
26.234,-44.62
26.250,-41.13
26.265,-33.56
26.281,-23.82
26.296,-14.24
26.312,-6.44
26.328,-0.83
26.343,3.49
26.359,7.94
26.375,13.5
26.390,20.24
26.406,27.38
26.421,33.81
26.437,38.77
26.453,42.14
26.468,44.32
26.484,45.76
26.500,46.5
26.515,46.04
26.531,43.74
26.546,39.2
26.562,32.4
26.578,23.66
26.593,13.55
26.609,2.61
26.625,-8.59
26.640,-19.41
26.656,-29.44
26.671,-38.16
26.687,-44.88
26.703,-48.74
26.718,-48.91
26.734,-45.11
26.750,-38.01
26.765,-29.3
26.781,-21.24
26.796,-16.05
26.812,-14.93
26.828,-17.64
26.843,-22.8
26.859,-28.58
26.875,-33.65
26.890,-37.51
26.906,-40.24
26.921,-41.85
26.937,-41.88
26.953,-39.39
26.968,-33.64
26.984,-24.74
27.000,-13.77
27.015,-2.87
27.031,5.66
27.046,10.26
27.062,10.77
27.078,8.6
27.093,6.17
27.109,5.8
27.125,8.69
27.140,14.65
27.156,22.1
27.171,28.78
27.187,32.91
27.203,33.42
27.218,30.29
27.234,24.39
27.250,16.95
27.265,9.4
27.281,3.27
27.296,-0.2
27.312,-0.5
27.328,2.11
27.343,6.2
27.359,9.97
27.375,12.06
27.390,12.1
27.406,11.05
27.421,10.59
27.437,11.92
27.453,15.27
27.468,19.86
27.484,24.46
27.500,28.47
27.515,32.31
27.531,37.06
27.546,43.56
27.562,51.64
27.578,59.69
27.593,65.56
27.609,67.72
27.625,65.68
27.640,60.18
27.656,52.38
27.671,43.05
27.687,32.14
27.703,19.09
27.718,3.38
27.734,-14.85
27.750,-34.58
27.765,-54.34
27.781,-72.4
27.796,-86.84
27.812,-95.68
27.828,-97.1
27.843,-90.01
27.859,-74.89
27.875,-53.83
27.890,-30.21
27.906,-7.55
27.921,11.81
27.937,27.27
27.953,39.71
27.968,50.4
27.984,60.02
28.000,68.26
28.015,74.38
28.031,77.78
28.046,78.72
28.062,78.2
28.078,77.19
28.093,75.95
28.109,73.67
28.125,68.82
28.140,59.74
28.156,45.5
28.171,26.31
28.187,3.56
28.203,-20.7
28.218,-44.5
28.234,-66.57
28.250,-86.31
28.265,-103.59
28.281,-118.17
28.296,-129.6
28.312,-137.22
28.328,-140.41
28.343,-138.63
28.359,-131.71
28.375,-119.83
28.390,-103.72
28.406,-84.4
28.421,-63.16
28.437,-41.47
28.453,-20.47
28.468,-1.04
28.484,16.33
28.500,31.21
28.515,43.26
28.531,52.09
28.546,57.52
28.562,59.66
28.578,58.91
28.593,55.95
28.609,51.24
28.625,45.02
28.640,37.13
28.656,27.46
28.671,16.15
28.687,3.72
28.703,-8.97
28.718,-21.03
28.734,-31.59
28.750,-40.2
28.765,-46.86
28.781,-51.88
28.796,-55.48
28.812,-57.58
28.828,-57.71
28.843,-55.14
28.859,-49.44
28.875,-40.78
28.890,-30.04
28.906,-18.22
28.921,-6.03
28.937,6.51
28.953,19.79
28.968,34.12
28.984,49.25
29.000,64.22
29.015,77.69
29.031,88.42
29.046,95.96
29.062,100.5
29.078,102.51
29.093,102.27
29.109,99.45
29.125,93.3
29.140,83.13
29.156,68.65
29.171,50.28
29.187,29.2
29.203,6.92
29.218,-15.35
29.234,-36.94
29.250,-57.55
29.265,-77.18
29.281,-95.4
29.296,-111.19
29.312,-123.14
29.328,-130.1
29.343,-131.97
29.359,-129.74
29.375,-124.91
29.390,-118.29
29.406,-109.55
29.421,-97.48
29.437,-80.76
29.453,-59.05
29.468,-33.44
29.484,-6.23
29.500,20.14
29.515,43.81
29.531,63.9
29.546,80.05
29.562,91.96
29.578,98.97
29.593,100.35
29.609,95.78
29.625,85.64
29.640,71.21
29.656,54.21
29.671,36.39
29.687,18.95
29.703,2.83
29.718,-11.47
29.734,-23.75
29.750,-33.88
29.765,-41.7
29.781,-46.68
29.796,-48.09
29.812,-45.2
29.828,-37.83
29.843,-26.49
29.859,-12.32
29.875,2.88
29.890,17.39
29.906,30.0
29.921,40.09
29.937,47.45
29.953,51.99
29.968,53.43
29.984,51.43
30.000,45.98
30.015,37.64
30.031,27.69
30.046,17.76
30.062,9.08
30.078,2.2
30.093,-3.13
30.109,-7.55
30.125,-11.76
30.140,-16.24
30.156,-21.28
30.171,-27.02
30.187,-33.5
30.203,-40.75
30.218,-48.63
30.234,-56.69
30.250,-64.06
30.265,-69.63
30.281,-72.26
30.296,-71.09
30.312,-65.97
30.328,-57.39
30.343,-46.65
30.359,-35.4
30.375,-25.01
30.390,-16.12
30.406,-8.48
30.421,-1.33
30.437,6.02
30.453,13.54
30.468,20.52
30.484,25.92
30.500,29.06
30.515,30.04
30.531,29.66
30.546,29.14
30.562,29.23
30.578,29.98
30.593,30.72
30.609,30.65
30.625,29.39
30.640,27.23
30.656,24.89
30.671,22.99
30.687,21.66
30.703,20.47
30.718,18.65
30.734,15.51
30.750,10.92
30.765,5.35
30.781,-0.47
30.796,-5.78
30.812,-10.45
30.828,-14.89
30.843,-19.68
30.859,-25.22
30.875,-31.42
30.890,-37.65
30.906,-43.02
30.921,-46.85
30.937,-48.57
30.953,-48.11
30.968,-45.68
30.984,-41.54
31.000,-36.04
31.015,-29.48
31.031,-22.17
31.046,-14.37
31.062,-6.47
31.078,1.32
31.093,8.71
31.109,15.47
31.125,21.36
31.140,26.16
31.156,29.71
31.171,32.1
31.187,33.56
31.203,34.57
31.218,35.9
31.234,38.3
31.250,42.17
31.265,47.41
31.281,53.35
31.296,58.81
31.312,62.54
31.328,63.48
31.343,61.1
31.359,55.55
31.375,47.57
31.390,38.14
31.406,28.32
31.421,19.05
31.437,10.9
31.453,4.19
31.468,-1.12
31.484,-5.32
31.500,-8.92
31.515,-12.48
31.531,-16.57
31.546,-21.54
31.562,-27.48
31.578,-34.21
31.593,-41.28
31.609,-48.1
31.625,-53.9
31.640,-57.97
31.656,-59.68
31.671,-58.78
31.687,-55.39
31.703,-50.09
31.718,-43.6
31.734,-36.6
31.750,-29.54
31.765,-22.69
31.781,-16.16
31.796,-9.97
31.812,-4.29
31.828,0.73
31.843,5.01
31.859,8.66
31.875,12.08
31.890,15.69
31.906,19.58
31.921,23.55
31.937,27.16
31.953,29.77
31.968,31.03
31.984,30.91
32.000,29.78
32.015,28.2
32.031,26.61
32.046,25.12
32.062,23.54
32.078,21.57
32.093,18.97
32.109,15.77
32.125,12.24
32.140,8.53
32.156,4.84
32.171,1.2
32.187,-2.51
32.203,-6.36
32.218,-10.29
32.234,-14.07
32.250,-17.26
32.265,-19.5
32.281,-20.77
32.296,-21.21
32.312,-21.27
32.328,-21.37
32.343,-21.7
32.359,-22.11
32.375,-22.02
32.390,-20.68
32.406,-17.53
32.421,-12.47
32.437,-5.85
32.453,1.45
32.468,8.39
32.484,14.19
32.500,18.46
32.515,21.28
32.531,22.99
32.546,23.94
32.562,24.28
32.578,24.06
32.593,23.22
32.609,21.76
32.625,19.96
32.640,18.16
32.656,16.73
32.671,15.89
32.687,15.55
32.703,15.51
32.718,15.53
32.734,15.42
32.750,15.13
32.765,14.77
32.781,14.35
32.796,13.95
32.812,13.45
32.828,12.61
32.843,11.33
32.859,9.61
32.875,7.58
32.890,5.61
32.906,3.96
32.921,2.61
32.937,1.35
32.953,-0.12
32.968,-2.2
32.984,-4.94
33.000,-8.2
33.015,-11.65
33.031,-14.82
33.046,-17.47
33.062,-19.71
33.078,-21.83
33.093,-24.07
33.109,-26.59
33.125,-29.22
33.140,-31.57
33.156,-33.08
33.171,-33.17
33.187,-31.5
33.203,-28.08
33.218,-23.08
33.234,-16.88
33.250,-9.86
33.265,-2.35
33.281,5.18
33.296,12.33
33.312,18.68
33.328,23.82
33.343,27.54
33.359,29.93
33.375,31.27
33.390,32.04
33.406,32.64
33.421,33.22
33.437,33.68
33.453,33.77
33.468,33.25
33.484,32.06
33.500,30.3
33.515,28.2
33.531,26.07
33.546,24.1
33.562,22.36
33.578,20.61
33.593,18.65
33.609,16.37
33.625,13.81
33.640,11.23
33.656,8.94
33.671,7.1
33.687,5.71
33.703,4.47
33.718,2.97
33.734,0.92
33.750,-1.58
33.765,-4.19
33.781,-6.57
33.796,-8.34
33.812,-9.58
33.828,-10.61
33.843,-11.78
33.859,-13.42
33.875,-15.54
33.890,-17.76
33.906,-19.65
33.921,-20.71
33.937,-20.46
33.953,-18.77
33.968,-15.67
33.984,-11.22
34.000,-5.68
34.015,0.66
34.031,7.55
34.046,14.58
34.062,21.32
34.078,27.37
34.093,32.22
34.109,35.61
34.125,37.65
34.140,38.71
34.156,39.35
34.171,40.1
34.187,41.18
34.203,42.58
34.218,44.19
34.234,45.84
34.250,47.65
34.265,49.93
34.281,52.88
34.296,56.53
34.312,60.65
34.328,64.65
34.343,68.03
34.359,70.58
34.375,72.43
34.390,74.11
34.406,76.24
34.421,79.18
34.437,82.84
34.453,86.78
34.468,90.21
34.484,92.61
34.500,94.04
34.515,94.96
34.531,96.27
34.546,98.69
34.562,102.17
34.578,105.98
34.593,108.97
34.609,109.99
34.625,108.5
34.640,104.81
34.656,99.46
34.671,93.23
34.687,86.12
34.703,77.21
34.718,65.08
34.734,48.55
34.750,27.13
34.765,1.67
34.781,-25.67
34.796,-51.87
34.812,-73.32
34.828,-86.62
34.843,-89.03
34.859,-78.69
34.875,-54.59
34.890,-17.06
34.906,32.18
34.921,89.63
34.937,149.89
34.953,206.18
34.968,251.41
34.984,279.34
35.000,285.98
35.015,270.19
35.031,233.49
35.046,179.41
35.062,112.65
35.078,38.46
35.093,-37.26
35.109,-108.09
35.125,-167.52
35.140,-210.0
35.156,-232.18
35.171,-233.9
35.187,-218.26
35.203,-190.86
35.218,-158.24
35.234,-126.34
35.250,-99.29
35.265,-79.43
35.281,-67.66
35.296,-63.95
35.312,-67.69
35.328,-77.61
35.343,-91.39
35.359,-105.77
35.375,-116.69
35.390,-120.4
35.406,-114.75
35.421,-100.28
35.437,-80.26
35.453,-59.9
35.468,-44.74
35.484,-38.85
35.500,-43.85
35.515,-58.71
35.531,-80.53
35.546,-105.42
35.562,-129.81
35.578,-150.83
35.593,-166.55
35.609,-176.0
35.625,-178.47
35.640,-173.82
35.656,-162.23
35.671,-144.35
35.687,-121.5
35.703,-95.83
35.718,-69.93
35.734,-46.11
35.750,-25.43
35.765,-7.15
35.781,10.52
35.796,29.42
35.812,50.07
35.828,70.89
35.843,88.83
35.859,100.85
35.875,105.41
35.890,103.2
35.906,96.76
35.921,89.0
35.937,81.96
35.953,76.25
35.968,71.35
35.984,66.21
36.000,60.37
36.015,54.29
36.031,49.1
36.046,46.37
36.062,47.15
36.078,51.34
36.093,57.8
36.109,64.59
36.125,69.98
36.140,73.21
36.156,74.78
36.171,75.96
36.187,77.84
36.203,80.25
36.218,81.84
36.234,80.66
36.250,75.34
36.265,65.91
36.281,53.75
36.296,40.87
36.312,28.98
36.328,18.72
36.343,9.71
36.359,1.28
36.375,-6.82
36.390,-13.99
36.406,-19.3
36.421,-21.95
36.437,-22.03
36.453,-20.85
36.468,-20.28
36.484,-22.18
36.500,-27.19
36.515,-34.25
36.531,-41.13
36.546,-45.58
36.562,-46.65
36.578,-45.43
36.593,-44.19
36.609,-44.7
36.625,-46.85
36.640,-48.31
36.656,-45.87
36.671,-37.44
36.687,-23.41
36.703,-7.09
36.718,6.87
36.734,14.56
36.750,14.67
36.765,8.43
36.781,-1.5
36.796,-12.73
36.812,-23.94
36.828,-34.88
36.843,-45.66
36.859,-55.97
36.875,-65.03
36.890,-71.62
36.906,-75.37
36.921,-77.1
36.937,-78.93
36.953,-83.38
36.968,-92.26
36.984,-105.85
37.000,-122.55
37.015,-139.45
37.031,-153.09
37.046,-160.42
37.062,-159.45
37.078,-149.76
37.093,-132.38
37.109,-109.27
37.125,-82.72
37.140,-54.61
37.156,-26.09
37.171,2.06
37.187,29.21
37.203,54.32
37.218,75.93
37.234,92.4
37.250,102.88
37.265,107.72
37.281,108.28
37.296,106.45
37.312,103.69
37.328,100.67
37.343,97.07
37.359,92.3
37.375,85.78
37.390,77.34
37.406,67.2
37.421,55.59
37.437,42.6
37.453,28.03
37.468,11.76
37.484,-6.1
37.500,-24.76
37.515,-43.04
37.531,-59.87
37.546,-74.62
37.562,-87.17
37.578,-97.68
37.593,-106.33
37.609,-112.94
37.625,-117.14
37.640,-118.72
37.656,-117.78
37.671,-115.21
37.687,-112.48
37.703,-111.55
37.718,-114.01
37.734,-120.65
37.750,-130.98
37.765,-143.67
37.781,-157.53
37.796,-171.83
37.812,-186.47
37.828,-201.81
37.843,-217.96
37.859,-234.03
37.875,-247.96
37.890,-256.61
37.906,-256.86
37.921,-246.67
37.937,-225.69
37.953,-195.19
37.968,-157.53
37.984,-115.51
38.000,-71.69
38.015,-28.12
38.031,13.79
38.046,52.92
38.062,88.19
38.078,118.19
38.093,141.22
38.109,155.71
38.125,160.83
38.140,157.04
38.156,146.1
38.171,130.76
38.187,113.9
38.203,97.68
38.218,83.09
38.234,69.84
38.250,57.21
38.265,44.78
38.281,32.65
38.296,21.21
38.312,11.03
38.328,2.63
38.343,-3.47
38.359,-6.69
38.375,-6.78
38.390,-4.01
38.406,0.5
38.421,5.21
38.437,8.43
38.453,9.03
38.468,6.61
38.484,1.31
38.500,-6.08
38.515,-14.4
38.531,-22.16
38.546,-27.9
38.562,-30.55
38.578,-29.99
38.593,-27.08
38.609,-23.37
38.625,-20.5
38.640,-19.24
38.656,-19.3
38.671,-19.59
38.687,-18.87
38.703,-16.54
38.718,-12.91
38.734,-8.71
38.750,-4.61
38.765,-0.86
38.781,2.86
38.796,7.05
38.812,12.03
38.828,17.72
38.843,23.61
38.859,28.96
38.875,33.41
38.890,36.86
38.906,39.65
38.921,41.95
38.937,43.65
38.953,44.26
38.968,43.17
38.984,39.94
39.000,34.63
39.015,27.99
39.031,21.06
39.046,15.0
39.062,10.33
39.078,6.97
39.093,4.37
39.109,1.9
39.125,-0.84
39.140,-3.73
39.156,-6.26
39.171,-7.97
39.187,-8.52
39.203,-8.17
39.218,-7.5
39.234,-7.22
39.250,-7.81
39.265,-9.33
39.281,-11.52
39.296,-13.79
39.312,-15.66
39.328,-16.75
39.343,-16.79
39.359,-15.66
39.375,-13.25
39.390,-9.52
39.406,-4.54
39.421,1.42
39.437,7.9
39.453,14.33
39.468,20.19
39.484,25.12
39.500,29.04
39.515,32.09
39.531,34.49
39.546,36.48
39.562,38.14
39.578,39.31
39.593,39.8
39.609,39.47
39.625,38.24
39.640,36.22
39.656,33.57
39.671,30.38
39.687,26.82
39.703,22.96
39.718,18.96
39.734,15.08
39.750,11.63
39.765,8.96
39.781,7.21
39.796,6.48
39.812,6.59
39.828,7.23
39.843,7.97
39.859,8.43
39.875,8.38
39.890,7.82
39.906,6.89
39.921,5.68
39.937,4.3
39.953,2.62
39.968,0.44
39.984,-2.49
40.000,-6.14
40.015,-10.24
40.031,-14.19
40.046,-17.31
40.062,-19.09
40.078,-19.23
40.093,-17.85
40.109,-15.17
40.125,-11.59
40.140,-7.38
40.156,-2.75
40.171,2.15
40.187,7.15
40.203,12.02
40.218,16.55
40.234,20.49
40.250,23.84
40.265,26.69
40.281,29.07
40.296,31.08
40.312,32.8
40.328,34.21
40.343,35.25
40.359,35.89
40.375,36.09
40.390,36.02
40.406,35.89
40.421,35.73
40.437,35.59
40.453,35.23
40.468,34.42
40.484,32.82
40.500,30.39
40.515,27.21
40.531,23.65
40.546,20.05
40.562,16.59
40.578,13.3
40.593,10.1
40.609,6.92
40.625,3.72
40.640,0.66
40.656,-2.21
40.671,-4.89
40.687,-7.48
40.703,-10.26
40.718,-13.3
40.734,-16.4
40.750,-19.0
40.765,-20.42
40.781,-19.95
40.796,-17.34
40.812,-12.78
40.828,-6.65
40.843,0.26
40.859,7.29
40.875,13.9
40.890,19.92
40.906,25.27
40.921,29.93
40.937,33.72
40.953,36.21
40.968,37.09
40.984,36.08
41.000,33.3
41.015,29.3
41.031,24.88
41.046,20.82
41.062,17.44
41.078,14.42
41.093,10.95
41.109,6.31
41.125,0.16
41.140,-6.91
41.156,-13.58
41.171,-18.32
41.187,-19.59
41.203,-16.91
41.218,-10.92
41.234,-3.09
41.250,5.2
41.265,13.36
41.281,21.8
41.296,31.04
41.312,40.58
41.328,49.0
41.343,53.35
41.359,50.65
41.375,39.46
41.390,20.63
41.406,-2.88
41.421,-27.34
41.437,-49.69
41.453,-67.74
41.468,-78.58
41.484,-78.25
41.500,-62.07
41.515,-26.93
41.531,25.9
41.546,89.55
41.562,153.12
41.578,205.25
41.593,238.08
41.609,249.66
41.625,242.79
41.640,222.65
41.656,193.94
41.671,159.27
41.687,120.21
41.703,78.67
41.718,37.68
41.734,0.95
41.750,-28.6
41.765,-50.05
41.781,-64.31
41.796,-73.38
41.812,-79.87
41.828,-85.58
41.843,-91.03
41.859,-95.83
41.875,-98.9
41.890,-99.51
41.906,-97.88
41.921,-94.78
41.937,-91.21
41.953,-88.18
41.968,-86.13
41.984,-84.8
42.000,-83.61
42.015,-81.9
42.031,-79.26
42.046,-75.79
42.062,-71.83
42.078,-67.95
42.093,-64.74
42.109,-62.54
42.125,-61.33
42.140,-60.75
42.156,-60.11
42.171,-58.69
42.187,-55.85
42.203,-51.22
42.218,-44.87
42.234,-37.14
42.250,-28.43
42.265,-19.0
42.281,-9.1
42.296,1.16
42.312,11.48
42.328,21.39
42.343,30.27
42.359,37.54
42.375,42.82
42.390,46.14
42.406,47.86
42.421,48.48
42.437,48.61
42.453,48.59
42.468,48.38
42.484,47.67
42.500,46.11
42.515,43.61
42.531,40.59
42.546,37.67
42.562,35.51
42.578,34.57
42.593,34.69
42.609,35.08
42.625,34.63
42.640,32.51
42.656,28.6
42.671,23.62
42.687,18.61
42.703,14.16
42.718,9.92
42.734,4.47
42.750,-4.0
42.765,-16.74
42.781,-33.49
42.796,-52.49
42.812,-71.34
42.828,-88.49
42.843,-104.11
42.859,-119.16
42.875,-133.98
42.890,-146.79
42.906,-154.23
42.921,-153.51
42.937,-143.86
42.953,-126.81
42.968,-104.43
42.984,-76.7
43.000,-40.28
43.015,10.03
43.031,77.97
43.046,162.29
43.062,255.37
43.078,345.59
43.093,421.28
43.109,474.32
43.125,501.48
43.140,503.41
43.156,482.42
43.171,441.2
43.187,382.76
43.203,310.78
43.218,230.54
43.234,148.58
43.250,71.95
43.265,6.63
43.281,-43.46
43.296,-77.47
43.312,-97.03
43.328,-105.27
43.343,-105.57
43.359,-100.38
43.375,-91.18
43.390,-78.63
43.406,-63.19
43.421,-45.76
43.437,-27.99
43.453,-12.03
43.468,-0.03
43.484,6.58
43.500,7.5
43.515,3.54
43.531,-3.72
43.546,-12.54
43.562,-21.61
43.578,-30.26
43.593,-38.51
43.609,-46.86
43.625,-55.9
43.640,-65.79
43.656,-76.14
43.671,-85.97
43.687,-94.02
43.703,-99.36
43.718,-101.6
43.734,-101.19
43.750,-98.98
43.765,-95.86
43.781,-92.23
43.796,-88.21
43.812,-83.64
43.828,-78.82
43.843,-74.71
43.859,-72.77
43.875,-74.69
43.890,-81.73
43.906,-94.6
43.921,-113.71
43.937,-139.19
43.953,-170.9
43.968,-208.44
43.984,-250.51
44.000,-294.68
44.015,-337.31
44.031,-374.02
44.046,-400.55
44.062,-413.67
44.078,-411.54
44.093,-394.01
44.109,-362.26
44.125,-318.56
44.140,-265.76
44.156,-207.11
44.171,-145.99
44.187,-85.71
44.203,-29.32
44.218,20.73
44.234,62.92
44.250,96.77
44.265,122.78
44.281,142.3
44.296,156.77
44.312,167.51
44.328,175.29
44.343,180.28
44.359,182.48
44.375,182.06
44.390,179.48
44.406,175.65
44.421,171.35
44.437,166.81
44.453,161.8
44.468,155.7
44.484,147.97
44.500,138.65
44.515,128.52
44.531,118.77
44.546,110.63
44.562,104.68
44.578,100.76
44.593,97.93
44.609,95.23
44.625,91.88
44.640,87.74
44.656,83.15
44.671,78.63
44.687,74.48
44.703,70.69
44.718,66.82
44.734,62.35
44.750,57.06
44.765,51.01
44.781,44.77
44.796,38.93
44.812,34.09
44.828,30.43
44.843,27.79
44.859,25.71
44.875,23.83
44.890,22.09
44.906,20.76
44.921,20.26
44.937,20.75
44.953,22.19
44.968,24.1
44.984,25.68
45.000,26.22
45.015,25.34
45.031,23.19
45.046,20.33
45.062,17.58
45.078,15.51
45.093,14.36
45.109,13.87
45.125,13.45
45.140,12.64
45.156,11.29
45.171,9.67
45.187,8.13
45.203,7.1
45.218,6.52
45.234,6.05
45.250,5.14
45.265,3.43
45.281,0.98
45.296,-1.83
45.312,-4.3
45.328,-5.96
45.343,-6.74
45.359,-7.0
45.375,-7.37
45.390,-8.47
45.406,-10.35
45.421,-12.49
45.437,-14.11
45.453,-14.47
45.468,-13.58
45.484,-12.2
45.500,-11.46
45.515,-12.2
45.531,-14.34
45.546,-16.88
45.562,-18.33
45.578,-17.55
45.593,-14.24
45.609,-9.28
45.625,-4.12
45.640,-0.13
45.656,2.12
45.671,2.87
45.687,2.88
45.703,2.89
45.718,2.95
45.734,2.64
45.750,1.26
45.765,-1.65
45.781,-5.7
45.796,-9.86
45.812,-12.83
45.828,-13.48
45.843,-11.66
45.859,-8.2
45.875,-4.4
45.890,-1.57
45.906,-0.12
45.921,0.42
45.937,1.02
45.953,2.53
45.968,5.22
45.984,8.41
46.000,10.99
46.015,11.97
46.031,11.03
46.046,8.71
46.062,5.94
46.078,3.6
46.093,2.02
46.109,0.89
46.125,-0.53
46.140,-2.73
46.156,-5.66
46.171,-8.59
46.187,-10.52
46.203,-10.58
46.218,-8.66
46.234,-5.54
46.250,-2.41
46.265,-0.47
46.281,-0.21
46.296,-1.22
46.312,-2.47
46.328,-2.93
46.343,-2.06
46.359,-0.23
46.375,1.58
46.390,2.47
46.406,2.08
46.421,0.85
46.437,-0.28
46.453,-0.41
46.468,0.71
46.484,2.58
46.500,4.18
46.515,4.68
46.531,4.05
46.546,3.09
46.562,2.85
46.578,4.16
46.593,6.98
46.609,10.35
46.625,12.92
46.640,13.72
46.656,12.53
46.671,10.11
46.687,7.6
46.703,5.89
46.718,5.21
46.734,5.01
46.750,4.47
46.765,2.97
46.781,0.78
46.796,-1.39
46.812,-2.45
46.828,-1.79
46.843,0.42
46.859,3.23
46.875,5.32
46.890,5.76
46.906,4.47
46.921,2.25
46.937,0.16
46.953,-0.75
46.968,-0.3
46.984,0.91
47.000,1.9
47.015,1.84
47.031,0.73
47.046,-0.65
47.062,-1.18
47.078,-0.02
47.093,2.93
47.109,6.91
47.125,10.64
47.140,13.16
47.156,14.19
47.171,14.34
47.187,14.67
47.203,16.06
47.218,18.65
47.234,21.64
47.250,23.75
47.265,23.84
47.281,21.72
47.296,18.04
47.312,14.2
47.328,11.48
47.343,10.5
47.359,10.91
47.375,11.61
47.390,11.51
47.406,10.13
47.421,7.99
47.437,6.07
47.453,5.38
47.468,6.22
47.484,7.91
47.500,9.32
47.515,9.3
47.531,7.58
47.546,4.79
47.562,2.11
47.578,0.55
47.593,0.36
47.609,0.91
47.625,0.89
47.640,-0.68
47.656,-4.17
47.671,-8.83
47.687,-13.54
47.703,-17.04
47.718,-18.78
47.734,-19.05
47.750,-18.67
47.765,-18.54
47.781,-18.92
47.796,-19.47
47.812,-19.36
47.828,-17.96
47.843,-15.04
47.859,-11.2
47.875,-7.48
47.890,-4.83
47.906,-3.56
47.921,-3.13
47.937,-2.63
47.953,-1.22
47.968,1.38
47.984,4.63
48.000,7.6
48.015,9.42
48.031,9.92
48.046,9.79
48.062,10.06
48.078,11.42
48.093,13.9
48.109,16.65
48.125,18.38
48.140,18.1
48.156,15.65
48.171,11.85
48.187,7.89
48.203,4.77
48.218,2.66
48.234,0.84
48.250,-1.74
48.265,-5.75
48.281,-10.94
48.296,-16.01
48.312,-19.16
48.328,-19.02
48.343,-14.86
48.359,-6.83
48.375,4.12
48.390,16.64
48.406,29.38
48.421,41.22
48.437,51.44
48.453,59.78
48.468,66.3
48.484,71.02
48.500,73.65
48.515,73.52
48.531,69.75
48.546,61.9
48.562,50.42
48.578,36.76
48.593,22.9
48.609,10.71
48.625,1.33
48.640,-5.04
48.656,-8.6
48.671,-9.4
48.687,-7.33
48.703,-2.16
48.718,5.74
48.734,14.97
48.750,23.14
48.765,27.64
48.781,26.4
48.796,18.98
48.812,6.66
48.828,-8.14
48.843,-22.85
48.859,-35.72
48.875,-46.23
48.890,-54.92
48.906,-62.53
48.921,-69.56
48.937,-75.9
48.953,-81.17
48.968,-85.23
48.984,-88.45
49.000,-91.58
49.015,-95.11
49.031,-98.74
49.046,-101.18
49.062,-101.04
49.078,-97.54
49.093,-91.41
49.109,-84.76
49.125,-80.2
49.140,-79.31
49.156,-81.85
49.171,-85.26
49.187,-85.98
49.203,-81.13
49.218,-69.71
49.234,-53.31
49.250,-35.25
49.265,-18.75
49.281,-5.46
49.296,5.03
49.312,14.73
49.328,25.49
49.343,37.83
49.359,50.55
49.375,61.24
49.390,67.61
49.406,68.74
49.421,65.27
49.437,58.81
49.453,51.02
49.468,42.94
49.484,34.79
49.500,26.39
49.515,17.76
49.531,9.29
49.546,2.04
49.562,-3.1
49.578,-5.71
49.593,-6.35
49.609,-6.21
49.625,-6.77
49.640,-9.06
49.656,-13.27
49.671,-18.64
49.687,-23.71
49.703,-27.3
49.718,-28.75
49.734,-28.29
49.750,-26.75
49.765,-25.06
49.781,-23.81
49.796,-23.08
49.812,-22.31
49.828,-20.78
49.843,-18.07
49.859,-14.12
49.875,-9.33
49.890,-4.37
49.906,0.23
49.921,4.34
49.937,8.11
49.953,11.93
49.968,15.85
49.984,19.61
50.000,22.43
50.015,23.57
50.031,22.53
50.046,19.38
50.062,14.89
50.078,10.06
50.093,5.82
50.109,2.64
50.125,0.52
50.140,-1.02
50.156,-2.41
50.171,-3.94
50.187,-5.46
50.203,-6.46
50.218,-6.49
50.234,-5.33
50.250,-3.24
50.265,-0.84
50.281,1.36
50.296,3.18
50.312,4.88
50.328,6.99
50.343,9.89
50.359,13.42
50.375,16.92
50.390,19.42
50.406,20.21
50.421,19.2
50.437,16.82
50.453,13.84
50.468,10.9
50.484,8.26
50.500,5.71
50.515,2.93
50.531,-0.12
50.546,-3.05
50.562,-5.14
50.578,-5.73
50.593,-4.68
50.609,-2.33
50.625,0.4
50.640,2.51
50.656,3.42
50.671,3.09
50.687,2.09
50.703,1.04
50.718,0.54
50.734,0.67
50.750,1.12
50.765,1.24
50.781,0.49
50.796,-1.25
50.812,-3.62
50.828,-5.87
50.843,-7.41
50.859,-7.9
50.875,-7.67
50.890,-7.51
50.906,-8.25
50.921,-10.31
50.937,-13.36
50.953,-16.56
50.968,-18.91
50.984,-19.9
51.000,-19.78
51.015,-19.48
51.031,-20.38
51.046,-23.27
51.062,-28.24
51.078,-34.42
51.093,-40.74
51.109,-46.28
51.125,-51.14
51.140,-56.17
51.156,-62.38
51.171,-70.39
51.187,-79.53
51.203,-88.47
51.218,-95.64
51.234,-100.21
51.250,-102.2
51.265,-102.33
51.281,-101.19
51.296,-98.49
51.312,-93.3
51.328,-84.52
51.343,-71.98
51.359,-56.75
51.375,-40.93
51.390,-26.61
51.406,-14.99
51.421,-5.85
51.437,2.16
51.453,10.53
51.468,20.17
51.484,30.92
51.500,41.72
51.515,51.33
51.531,58.79
51.546,63.89
51.562,67.03
51.578,68.97
51.593,70.29
51.609,71.35
51.625,72.06
51.640,72.09
51.656,71.22
51.671,69.36
51.687,66.83
51.703,64.02
51.718,61.25
51.734,58.48
51.750,55.53
51.765,51.9
51.781,47.27
51.796,41.66
51.812,35.51
51.828,29.46
51.843,24.08
51.859,19.95
51.875,17.02
51.890,14.96
51.906,13.18
51.921,11.19
51.937,8.98
51.953,7.12
51.968,6.25
51.984,6.9
52.000,9.16
52.015,12.38
52.031,15.61
52.046,18.0
52.062,19.23
52.078,19.48
52.093,19.22
52.109,18.88
52.125,18.45
52.140,17.56
52.156,15.64
52.171,12.47
52.187,8.32
52.203,3.97
52.218,0.29
52.234,-2.19
52.250,-3.36
52.265,-3.82
52.281,-4.39
52.296,-5.85
52.312,-8.26
52.328,-11.1
52.343,-13.74
52.359,-15.56
52.375,-16.63
52.390,-17.39
52.406,-18.64
52.421,-20.9
52.437,-24.33
52.453,-28.34
52.468,-32.17
52.484,-35.27
52.500,-37.33
52.515,-38.66
52.531,-39.5
52.546,-40.02
52.562,-39.84
52.578,-38.18
52.593,-34.39
52.609,-28.16
52.625,-20.07
52.640,-11.2
52.656,-2.94
52.671,3.8
52.687,8.8
52.703,12.61
52.718,16.07
52.734,19.69
52.750,23.46
52.765,26.67
52.781,28.54
52.796,28.53
52.812,26.75
52.828,24.11
52.843,21.67
52.859,20.44
52.875,20.84
52.890,22.67
52.906,25.32
52.921,28.1
52.937,30.55
52.953,32.65
52.968,34.81
52.984,37.54
53.000,41.3
53.015,46.19
53.031,52.03
53.046,58.46
53.062,65.19
53.078,72.29
53.093,80.19
53.109,89.66
53.125,101.41
53.140,115.69
53.156,131.97
53.171,149.17
53.187,165.81
53.203,180.46
53.218,191.88
53.234,199.17
53.250,201.37
53.265,197.47
53.281,186.32
53.296,167.19
53.312,140.0
53.328,105.65
53.343,65.56
53.359,21.43
53.375,-25.05
53.390,-72.4
53.406,-118.91
53.421,-162.26
53.437,-199.42
53.453,-227.2
53.468,-242.95
53.484,-245.53
53.500,-235.82
53.515,-216.55
53.531,-191.64
53.546,-164.95
53.562,-139.12
53.578,-115.14
53.593,-93.07
53.609,-73.09
53.625,-56.38
53.640,-45.49
53.656,-43.33
53.671,-51.75
53.687,-70.26
53.703,-95.78
53.718,-123.8
53.734,-149.78
53.750,-170.61
53.765,-184.62
53.781,-191.17
53.796,-189.64
53.812,-179.18
53.828,-158.9
53.843,-128.93
53.859,-91.15
53.875,-49.09
53.890,-7.23
53.906,30.42
53.921,61.2
53.937,84.51
53.953,101.41
53.968,113.67
53.984,122.62
54.000,128.41
54.015,129.7
54.031,124.51
54.046,111.26
54.062,89.82
54.078,62.09
54.093,31.71
54.109,2.91
54.125,-20.76
54.140,-37.66
54.156,-48.4
54.171,-55.26
54.187,-61.01
54.203,-67.51
54.218,-74.95
54.234,-81.88
54.250,-86.11
54.265,-86.09
54.281,-81.81
54.296,-74.91
54.312,-67.94
54.328,-63.01
54.343,-60.92
54.359,-60.88
54.375,-60.78
54.390,-58.03
54.406,-50.33
54.421,-35.86
54.437,-13.45
54.453,17.36
54.468,55.82
54.484,99.51
54.500,144.21
54.515,184.78
54.531,216.9
54.546,239.13
54.562,254.08
54.578,267.37
54.593,284.62
54.609,307.67
54.625,332.49
54.640,349.75
54.656,348.42
54.671,320.68
54.687,265.29
54.703,188.46
54.718,101.17
54.734,15.26
54.750,-60.19
54.765,-120.46
54.781,-164.66
54.796,-194.18
54.812,-210.88
54.828,-216.35
54.843,-211.87
54.859,-199.08
54.875,-180.25
54.890,-158.53
54.906,-137.39
54.921,-119.87
54.937,-107.7
54.953,-100.84
54.968,-97.98
54.984,-97.32
55.000,-97.85
55.015,-99.96
55.031,-105.24
55.046,-114.97
55.062,-128.81
55.078,-144.03
55.093,-156.06
55.109,-160.21
55.125,-153.35
55.140,-134.89
55.156,-106.89
55.171,-72.79
55.187,-36.04
55.203,0.78
55.218,35.88
55.234,67.91
55.250,95.23
55.265,115.74
55.281,127.7
55.296,130.28
55.312,124.52
55.328,113.3
55.343,100.36
55.359,88.9
55.375,80.78
55.390,75.79
55.406,72.38
55.421,68.89
55.437,64.47
55.453,59.67
55.468,55.89
55.484,54.09
55.500,53.98
55.515,54.15
55.531,52.53
55.546,47.58
55.562,39.13
55.578,28.31
55.593,16.78
55.609,5.89
55.625,-4.21
55.640,-14.31
55.656,-25.34
55.671,-37.45
55.687,-49.32
55.703,-58.24
55.718,-61.32
55.734,-56.56
55.750,-43.66
55.765,-24.34
55.781,-1.47
55.796,21.88
55.812,43.41
55.828,61.97
55.843,77.54
55.859,90.14
55.875,99.64
55.890,105.49
55.906,106.92
55.921,103.59
55.937,95.94
55.953,85.19
55.968,72.98
55.984,61.13
56.000,50.72
56.015,42.14
56.031,34.95
56.046,28.17
56.062,20.84
56.078,12.49
56.093,3.2
56.109,-6.48
56.125,-15.73
56.140,-24.11
56.156,-31.58
56.171,-38.44
56.187,-45.06
56.203,-51.46
56.218,-57.27
56.234,-61.97
56.250,-65.22
56.265,-67.08
56.281,-67.99
56.296,-68.07
56.312,-66.75
56.328,-62.62
56.343,-53.87
56.359,-39.23
56.375,-18.74
56.390,5.94
56.406,32.06
56.421,56.46
56.437,76.75
56.453,91.76
56.468,101.32
56.484,105.99
56.500,106.3
56.515,102.63
56.531,95.22
56.546,84.71
56.562,72.18
56.578,59.19
56.593,47.48
56.609,38.27
56.625,32.18
56.640,28.95
56.656,27.65
56.671,27.12
56.687,26.25
56.703,24.36
56.718,21.11
56.734,16.58
56.750,10.84
56.765,4.05
56.781,-3.77
56.796,-12.65
56.812,-22.46
56.828,-32.76
56.843,-42.86
56.859,-52.15
56.875,-60.25
56.890,-67.53
56.906,-74.68
56.921,-82.28
56.937,-90.07
56.953,-96.53
56.968,-99.13
56.984,-95.37
57.000,-83.84
57.015,-64.8
57.031,-40.57
57.046,-14.24
57.062,11.05
57.078,33.11
57.093,50.82
57.109,63.95
57.125,72.5
57.140,76.6
57.156,76.6
57.171,73.33
57.187,68.41
57.203,63.91
57.218,61.72
57.234,62.93
57.250,67.4
57.265,73.81
57.281,80.14
57.296,84.35
57.312,84.98
57.328,81.53
57.343,74.46
57.359,64.58
57.375,52.83
57.390,39.84
57.406,25.65
57.421,10.2
57.437,-6.39
57.453,-23.39
57.468,-39.17
57.484,-51.68
57.500,-59.22
57.515,-61.1
57.531,-58.12
57.546,-52.35
57.562,-46.26
57.578,-41.93
57.593,-40.43
57.609,-41.48
57.625,-43.79
57.640,-45.79
57.656,-45.99
57.671,-43.5
57.687,-37.96
57.703,-29.39
57.718,-18.18
57.734,-5.09
57.750,8.81
57.765,22.09
57.781,33.08
57.796,40.3
57.812,42.94
57.828,41.25
57.843,36.42
57.859,30.24
57.875,24.34
57.890,19.82
57.906,16.97
57.921,15.31
57.937,14.02
57.953,12.42
57.968,10.18
57.984,7.38
58.000,4.53
58.015,2.11
58.031,0.5
58.046,-0.08
58.062,0.2
58.078,1.2
58.093,2.75
58.109,4.63
58.125,6.65
58.140,8.47
58.156,9.41
58.171,8.54
58.187,5.11
58.203,-1.2
58.218,-9.75
58.234,-19.2
58.250,-27.84
58.265,-34.05
58.281,-36.85
58.296,-35.98
58.312,-31.91
58.328,-25.35
58.343,-17.02
58.359,-7.46
58.375,2.89
58.390,13.41
58.406,23.25
58.421,31.42
58.437,37.03
58.453,39.56
58.468,39.09
58.484,36.13
58.500,31.49
58.515,26.02
58.531,20.25
58.546,14.57
58.562,9.15
58.578,4.14
58.593,-0.37
58.609,-4.34
58.625,-7.98
58.640,-11.66
58.656,-15.76
58.671,-20.5
58.687,-25.7
58.703,-30.77
58.718,-34.73
58.734,-36.75
58.750,-36.32
58.765,-33.56
58.781,-29.39
58.796,-24.93
58.812,-21.41
58.828,-19.68
58.843,-19.91
58.859,-21.72
58.875,-24.32
58.890,-26.69
58.906,-27.98
58.921,-27.86
58.937,-26.36
58.953,-23.84
58.968,-20.72
58.984,-17.31
59.000,-13.9
59.015,-10.72
59.031,-8.17
59.046,-6.74
59.062,-7.01
59.078,-9.0
59.093,-12.29
59.109,-15.67
59.125,-17.58
59.140,-16.67
59.156,-12.13
59.171,-4.08
59.187,6.62
59.203,18.55
59.218,30.62
59.234,41.59
59.250,50.71
59.265,57.29
59.281,60.62
59.296,60.29
59.312,56.24
59.328,48.94
59.343,39.31
59.359,28.62
59.375,17.81
59.390,7.39
59.406,-2.56
59.421,-12.43
59.437,-22.58
59.453,-33.2
59.468,-44.07
59.484,-54.69
59.500,-64.22
59.515,-71.69
59.531,-76.13
59.546,-76.45
59.562,-72.03
59.578,-62.48
59.593,-48.25
59.609,-30.44
59.625,-10.84
59.640,8.44
59.656,25.35
59.671,38.27
59.687,46.48
59.703,49.83
59.718,48.93
59.734,44.61
59.750,37.92
59.765,29.78
59.781,20.96
59.796,12.04
59.812,3.3
59.828,-4.86
59.843,-12.08
59.859,-17.71
59.875,-21.01
59.890,-21.33
59.906,-18.5
59.921,-13.03
59.937,-6.01
59.953,1.1
59.968,6.97
59.984,10.57
