timestamp,value
00.000,-63.35
00.015,-48.53
00.031,-30.23
00.046,-10.59
00.062,8.77
00.078,26.58
00.093,41.7
00.109,52.7
00.125,58.16
00.140,57.09
00.156,49.69
00.171,37.54
00.187,23.11
00.203,9.01
00.218,-2.91
00.234,-12.16
00.250,-19.36
00.265,-25.56
00.281,-31.54
00.296,-37.34
00.312,-42.49
00.328,-46.7
00.343,-50.32
00.359,-54.58
00.375,-60.84
00.390,-69.66
00.406,-79.78
00.421,-88.01
00.437,-90.21
00.453,-82.94
00.468,-64.98
00.484,-38.1
00.500,-6.48
00.515,24.9
00.531,52.1
00.546,73.18
00.562,88.2
00.578,98.16
00.593,103.94
00.609,105.46
00.625,102.13
00.640,93.49
00.656,80.2
00.671,64.2
00.687,48.02
00.703,33.86
00.718,22.67
00.734,13.87
00.750,6.04
00.765,-2.11
00.781,-11.05
00.796,-20.2
00.812,-28.67
00.828,-36.14
00.843,-43.22
00.859,-51.16
00.875,-60.7
00.890,-70.99
00.906,-79.27
00.921,-81.66
00.937,-74.92
00.953,-58.11
00.968,-33.31
00.984,-5.13
01.000,21.06
01.015,40.99
01.031,52.87
01.046,57.33
01.062,56.4
01.078,51.87
01.093,44.46
01.109,33.67
01.125,18.82
01.140,0.13
01.156,-20.6
01.171,-40.24
01.187,-55.66
01.203,-64.94
01.218,-68.25
01.234,-67.7
01.250,-66.07
01.265,-65.67
01.281,-67.39
01.296,-70.77
01.312,-74.54
01.328,-77.28
01.343,-77.79
01.359,-75.04
01.375,-68.02
01.390,-55.73
01.406,-37.47
01.421,-13.31
01.437,15.38
01.453,46.01
01.468,75.16
01.484,99.37
01.500,116.14
01.515,124.32
01.531,124.43
01.546,118.11
01.562,107.58
01.578,94.83
01.593,81.15
01.609,66.99
01.625,52.48
01.640,37.85
01.656,23.91
01.671,11.93
01.687,2.92
01.703,-2.93
01.718,-6.58
01.734,-10.13
01.750,-15.81
01.765,-25.05
01.781,-37.59
01.796,-51.13
01.812,-62.02
01.828,-66.39
01.843,-61.59
01.859,-47.08
01.875,-24.63
01.890,2.36
01.906,30.11
01.921,55.48
01.937,76.48
01.953,92.14
01.968,101.97
01.984,105.4
02.000,102.03
02.015,91.97
02.031,76.45
02.046,57.93
02.062,39.31
02.078,23.13
02.093,10.52
02.109,0.9
02.125,-7.31
02.140,-15.71
02.156,-24.91
02.171,-34.17
02.187,-42.24
02.203,-48.33
02.218,-52.94
02.234,-57.84
02.250,-64.85
02.265,-74.25
02.281,-83.91
02.296,-89.49
02.312,-86.23
02.328,-71.1
02.343,-44.41
02.359,-10.05
02.375,26.09
02.390,58.32
02.406,83.09
02.421,99.61
02.437,109.1
02.453,113.29
02.468,113.15
02.484,108.49
02.500,98.78
02.515,84.12
02.531,66.09
02.546,47.5
02.562,31.28
02.578,19.27
02.593,11.39
02.609,5.85
02.625,0.21
02.640,-7.22
02.656,-16.66
02.671,-26.93
02.687,-36.57
02.703,-44.6
02.718,-51.14
02.734,-56.78
02.750,-61.54
02.765,-64.07
02.781,-61.58
02.796,-51.1
02.812,-31.08
02.828,-2.63
02.843,30.47
02.859,62.66
02.875,88.85
02.890,105.85
02.906,113.28
02.921,112.93
02.937,107.33
02.953,98.62
02.968,87.69
02.984,74.45
03.000,58.69
03.015,41.0
03.031,23.1
03.046,7.46
03.062,-3.83
03.078,-10.15
03.093,-12.73
03.109,-14.3
03.125,-17.91
03.140,-25.68
03.156,-37.91
03.171,-53.1
03.187,-68.69
03.203,-81.83
03.218,-90.27
03.234,-92.54
03.250,-87.91
03.265,-76.39
03.281,-58.46
03.296,-35.22
03.312,-8.64
03.328,18.58
03.343,43.23
03.359,62.02
03.375,72.53
03.390,73.78
03.406,66.5
03.421,53.11
03.437,36.72
03.453,20.2
03.468,5.3
03.484,-7.56
03.500,-18.96
03.515,-29.42
03.531,-38.74
03.546,-46.05
03.562,-50.26
03.578,-51.13
03.593,-49.93
03.609,-49.21
03.625,-51.65
03.640,-58.64
03.656,-69.04
03.671,-79.36
03.687,-84.97
03.703,-81.86
03.718,-68.37
03.734,-45.79
03.750,-17.58
03.765,12.02
03.781,39.55
03.796,63.1
03.812,81.95
03.828,95.91
03.843,104.42
03.859,106.43
03.875,101.0
03.890,88.34
03.906,70.24
03.921,49.76
03.937,30.31
03.953,14.21
03.968,1.97
03.984,-7.56
04.000,-16.31
04.015,-25.82
04.031,-36.26
04.046,-46.63
04.062,-55.68
04.078,-62.67
04.093,-68.07
04.109,-73.08
04.125,-78.48
04.140,-83.69
04.156,-86.27
04.171,-82.87
04.187,-70.83
04.203,-49.7
04.218,-21.78
04.234,8.46
04.250,36.21
04.265,57.95
04.281,72.5
04.296,80.72
04.312,84.33
04.328,84.65
04.343,81.79
04.359,75.17
04.375,64.24
04.390,49.57
04.406,33.17
04.421,17.87
04.437,6.15
04.453,-0.83
04.468,-3.78
04.484,-4.72
04.500,-5.89
04.515,-8.61
04.531,-12.96
04.546,-17.99
04.562,-22.75
04.578,-26.74
04.593,-30.02
04.609,-32.69
04.625,-34.08
04.640,-32.53
04.656,-25.88
04.671,-12.66
04.687,6.87
04.703,30.41
04.718,54.14
04.734,74.16
04.750,87.78
04.765,94.32
04.781,94.9
04.796,91.53
04.812,85.8
04.828,78.38
04.843,68.9
04.859,56.74
04.875,41.92
04.890,25.47
04.906,9.52
04.921,-3.71
04.937,-12.77
04.953,-17.61
04.968,-19.73
04.984,-21.46
05.000,-25.08
05.015,-31.76
05.031,-41.25
05.046,-51.71
05.062,-60.63
05.078,-65.41
05.093,-64.27
05.109,-56.67
05.125,-43.27
05.140,-25.72
05.156,-5.92
05.171,14.23
05.187,33.11
05.203,49.27
05.218,61.33
05.234,67.99
05.250,68.32
05.265,62.15
05.281,50.37
05.296,35.08
05.312,18.84
05.328,4.11
05.343,-7.7
05.359,-16.41
05.375,-22.82
05.390,-28.03
05.406,-32.82
05.421,-37.42
05.437,-41.75
05.453,-45.95
05.468,-50.79
05.484,-57.37
05.500,-66.31
05.515,-76.89
05.531,-86.53
05.546,-91.44
05.562,-88.2
05.578,-75.13
05.593,-53.49
05.609,-26.96
05.625,-0.36
05.640,22.29
05.656,38.94
05.671,49.66
05.687,55.72
05.703,58.37
05.718,58.01
05.734,54.09
05.750,46.14
05.765,34.56
05.781,21.13
05.796,8.48
05.812,-1.05
05.828,-6.36
05.843,-8.25
05.859,-8.72
05.875,-10.11
05.890,-13.64
05.906,-19.08
05.921,-25.11
05.937,-30.39
05.953,-34.31
05.968,-37.17
05.984,-39.59
06.000,-41.44
06.015,-41.42
06.031,-37.23
06.046,-26.78
06.062,-9.43
06.078,13.28
06.093,37.8
06.109,59.84
06.125,75.82
06.140,84.06
06.156,84.97
06.171,80.5
06.187,72.84
06.203,63.48
06.218,52.81
06.234,40.39
06.250,25.89
06.265,9.87
06.281,-5.94
06.296,-19.25
06.312,-28.36
06.328,-32.88
06.343,-34.31
06.359,-35.11
06.375,-37.83
06.390,-43.87
06.406,-52.95
06.421,-63.39
06.437,-72.73
06.453,-78.64
06.468,-79.46
06.484,-74.45
06.500,-63.62
06.515,-47.57
06.531,-27.4
06.546,-4.58
06.562,18.83
06.578,40.64
06.593,58.41
06.609,70.13
06.625,74.59
06.640,71.96
06.656,63.7
06.671,52.29
06.687,40.3
06.703,29.6
06.718,20.78
06.734,13.36
06.750,6.4
06.765,-0.56
06.781,-7.14
06.796,-12.34
06.812,-15.36
06.828,-16.15
06.843,-16.0
06.859,-16.99
06.875,-20.9
06.890,-28.08
06.906,-36.71
06.921,-43.21
06.937,-43.72
06.953,-35.62
06.968,-18.9
06.984,3.72
07.000,27.88
07.015,49.26
07.031,65.19
07.046,75.11
07.062,79.85
07.078,80.68
07.093,77.89
07.109,70.96
07.125,59.12
07.140,42.52
07.156,22.93
07.171,3.33
07.187,-13.24
07.203,-24.94
07.218,-31.89
07.234,-36.0
07.250,-39.78
07.265,-45.2
07.281,-52.7
07.296,-61.54
07.312,-70.48
07.328,-78.6
07.343,-85.61
07.359,-91.35
07.375,-95.09
07.390,-95.0
07.406,-88.71
07.421,-74.15
07.437,-51.16
07.453,-21.93
07.468,9.16
07.484,37.18
07.500,58.26
07.515,70.76
07.531,75.5
07.546,74.66
07.562,70.47
07.578,64.24
07.593,55.99
07.609,45.15
07.625,31.59
07.640,16.22
07.656,1.08
07.671,-11.42
07.687,-19.72
07.703,-23.65
07.718,-24.73
07.734,-25.22
07.750,-27.31
07.765,-32.06
07.781,-39.19
07.796,-47.43
07.812,-55.07
07.828,-60.59
07.843,-62.85
07.859,-61.07
07.875,-54.64
07.890,-43.08
07.906,-26.29
07.921,-4.95
07.937,19.18
07.953,43.47
07.968,64.81
07.984,80.55
08.000,89.17
08.015,90.64
08.031,86.4
08.046,78.64
08.062,69.36
08.078,59.78
08.093,50.01
08.109,39.46
08.125,27.56
08.140,14.42
08.156,0.96
08.171,-11.45
08.187,-21.8
08.203,-29.99
08.218,-37.12
08.234,-44.85
08.250,-54.64
08.265,-66.67
08.281,-79.43
08.296,-90.04
08.312,-95.23
08.328,-92.51
08.343,-81.24
08.359,-62.87
08.375,-40.33
08.390,-17.06
08.406,4.26
08.421,22.09
08.437,35.9
08.453,45.69
08.468,51.27
08.484,52.13
08.500,47.8
08.515,38.41
08.531,25.15
08.546,10.14
08.562,-4.27
08.578,-16.3
08.593,-25.32
08.609,-31.81
08.625,-36.81
08.640,-41.07
08.656,-44.68
08.671,-47.17
08.687,-48.21
08.703,-48.21
08.718,-48.51
08.734,-50.63
08.750,-55.25
08.765,-61.14
08.781,-65.15
08.796,-63.3
08.812,-52.68
08.828,-32.83
08.843,-6.41
08.859,21.9
08.875,47.2
08.890,66.21
08.906,78.15
08.921,84.18
08.937,86.16
08.953,85.31
08.968,81.62
08.984,74.42
09.000,63.39
09.015,49.45
09.031,34.79
09.046,22.12
09.062,13.34
09.078,8.7
09.093,6.55
09.109,4.39
09.125,-0.02
09.140,-7.61
09.156,-17.78
09.171,-28.96
09.187,-39.53
09.203,-48.28
09.218,-54.63
09.234,-58.08
09.250,-57.86
09.265,-52.75
09.281,-41.68
09.296,-24.5
09.312,-2.62
09.328,21.13
09.343,43.05
09.359,59.76
09.375,69.12
09.390,70.71
09.406,65.88
09.421,56.68
09.437,45.14
09.453,32.52
09.468,19.25
09.484,5.31
09.500,-9.03
09.515,-22.72
09.531,-34.1
09.546,-41.54
09.562,-44.61
09.578,-44.34
09.593,-43.43
09.609,-45.0
09.625,-51.28
09.640,-62.45
09.656,-76.24
09.671,-88.65
09.687,-95.32
09.703,-93.05
09.718,-80.84
09.734,-59.97
09.750,-33.4
09.765,-4.63
09.781,23.42
09.796,48.8
09.812,70.32
09.828,87.23
09.843,98.56
09.859,103.43
09.875,101.37
09.890,92.86
09.906,79.63
09.921,64.22
09.937,49.12
09.953,36.02
09.968,25.31
09.984,16.25
10.000,7.83
10.015,-0.51
10.031,-8.55
10.046,-15.52
10.062,-21.01
10.078,-25.41
10.093,-30.14
10.109,-36.68
10.125,-45.56
10.140,-55.31
10.156,-62.46
10.171,-62.84
10.187,-53.35
10.203,-33.55
10.218,-6.15
10.234,23.85
10.250,51.24
10.265,72.28
10.281,85.74
10.296,92.55
10.312,94.39
10.328,92.53
10.343,86.98
10.359,77.13
10.375,62.51
10.390,43.89
10.406,23.47
10.421,4.15
10.437,-11.55
10.453,-22.56
10.468,-29.54
10.484,-34.26
10.500,-38.69
10.515,-43.92
10.531,-49.89
10.546,-55.78
10.562,-60.97
10.578,-65.26
10.593,-69.1
10.609,-72.58
10.625,-74.83
10.640,-73.82
10.656,-66.88
10.671,-52.23
10.687,-30.04
10.703,-3.01
10.718,24.52
10.734,47.89
10.750,63.85
10.765,71.38
10.781,71.55
10.796,66.79
10.812,59.38
10.828,50.82
10.843,41.36
10.859,30.74
10.875,18.76
10.890,5.96
10.906,-6.21
10.921,-16.16
10.937,-22.73
10.953,-25.99
10.968,-27.3
10.984,-28.63
11.000,-31.74
11.015,-37.38
11.031,-44.95
11.046,-52.74
11.062,-58.73
11.078,-60.92
11.093,-58.08
11.109,-49.68
11.125,-35.79
11.140,-17.02
11.156,5.56
11.171,30.31
11.187,55.03
11.203,77.03
11.218,93.65
11.234,102.79
11.250,103.6
11.265,96.79
11.281,84.46
11.296,69.4
11.312,54.1
11.328,40.05
11.343,27.37
11.359,15.31
11.375,3.06
11.390,-9.54
11.406,-21.61
11.421,-31.92
11.437,-39.64
11.453,-45.1
11.468,-49.94
11.484,-56.41
11.500,-65.91
11.515,-77.97
11.531,-89.73
11.546,-96.89
11.562,-95.39
11.578,-83.07
11.593,-60.79
11.609,-32.06
11.625,-1.7
11.640,26.04
11.656,48.54
11.671,65.17
11.687,76.42
11.703,82.81
11.718,84.25
11.734,80.24
11.750,70.54
11.765,56.06
11.781,39.16
11.796,22.8
11.812,9.59
11.828,0.72
11.843,-4.46
11.859,-7.74
11.875,-11.2
11.890,-16.02
11.906,-22.15
11.921,-28.7
11.937,-34.93
11.953,-40.76
11.968,-46.76
11.984,-53.43
12.000,-60.18
12.015,-64.84
12.031,-64.13
12.046,-55.09
12.062,-36.66
12.078,-10.51
12.093,19.17
12.109,47.29
12.125,69.6
12.140,84.07
12.156,91.04
12.171,92.36
12.187,89.95
12.203,84.79
12.218,76.74
12.234,65.25
12.250,50.39
12.265,33.4
12.281,16.72
12.296,2.94
12.312,-6.28
12.328,-10.93
12.343,-12.76
12.359,-14.29
12.375,-17.72
12.390,-23.98
12.406,-32.54
12.421,-41.89
12.437,-50.37
12.453,-56.64
12.468,-59.86
12.484,-59.35
12.500,-54.34
12.515,-44.09
12.531,-28.32
12.546,-7.82
12.562,15.18
12.578,37.53
12.593,55.82
12.609,67.47
12.625,71.53
12.640,68.7
12.656,60.95
12.671,50.55
12.687,39.29
12.703,28.01
12.718,16.65
12.734,4.83
12.750,-7.55
12.765,-19.91
12.781,-31.03
12.796,-39.63
12.812,-45.07
12.828,-47.74
12.843,-49.24
12.859,-51.63
12.875,-56.67
12.890,-64.84
12.906,-74.87
12.921,-83.94
12.937,-88.62
12.953,-85.87
12.968,-74.33
12.984,-54.85
13.000,-30.02
13.015,-3.35
13.031,21.99
13.046,43.87
13.062,61.16
13.078,73.41
13.093,80.16
13.109,80.86
13.125,75.11
13.140,63.33
13.156,47.23
13.171,29.4
13.187,12.66
13.203,-1.09
13.218,-11.51
13.234,-19.6
13.250,-26.91
13.265,-34.49
13.281,-42.39
13.296,-49.82
13.312,-56.09
13.328,-61.25
13.343,-66.44
13.359,-73.07
13.375,-81.5
13.390,-90.02
13.406,-95.0
13.421,-92.19
13.437,-78.79
13.453,-54.95
13.468,-24.05
13.484,8.51
13.500,37.45
13.515,59.42
13.531,73.82
13.546,82.01
13.562,85.91
13.578,86.67
13.593,84.16
13.609,77.57
13.625,66.5
13.640,51.74
13.656,35.56
13.671,20.74
13.687,9.56
13.703,2.83
13.718,-0.39
13.734,-2.15
13.750,-4.64
13.765,-9.18
13.781,-15.87
13.796,-23.9
13.812,-32.3
13.828,-40.3
13.843,-47.32
13.859,-52.6
13.875,-54.76
13.890,-51.86
13.906,-42.11
13.921,-24.9
13.937,-1.49
13.953,24.97
13.968,50.23
13.984,70.31
14.000,82.65
14.015,86.7
14.031,83.73
14.046,75.97
14.062,65.48
14.078,53.61
14.093,40.77
14.109,27.01
14.125,12.62
14.140,-1.48
14.156,-13.7
14.171,-22.57
14.187,-27.45
14.203,-29.1
14.218,-29.61
14.234,-31.59
14.250,-37.22
14.265,-47.22
14.281,-60.52
14.296,-74.42
14.312,-85.48
14.328,-90.44
14.343,-87.33
14.359,-75.87
14.375,-57.33
14.390,-34.08
14.406,-8.7
14.421,16.41
14.437,39.35
14.453,58.51
14.468,72.46
14.484,79.96
14.500,80.37
14.515,74.03
14.531,62.52
14.546,48.29
14.562,33.9
14.578,21.17
14.593,10.53
14.609,1.27
14.625,-7.73
14.640,-17.07
14.656,-26.3
14.671,-34.28
14.687,-39.98
14.703,-43.34
14.718,-45.64
14.734,-48.95
14.750,-54.74
14.765,-62.75
14.781,-70.31
14.796,-73.26
14.812,-67.66
14.828,-51.52
14.843,-26.05
14.859,4.84
14.875,35.94
14.890,62.92
14.906,83.53
14.921,97.68
14.937,106.48
14.953,110.96
14.968,111.11
14.984,106.18
15.000,95.59
15.015,79.92
15.031,61.38
15.046,43.07
15.062,27.62
15.078,16.22
15.093,8.0
15.109,0.74
15.125,-7.95
15.140,-19.3
15.156,-32.97
15.171,-47.29
15.187,-60.51
15.203,-71.48
15.218,-79.95
15.234,-86.07
15.250,-89.4
15.265,-88.6
15.281,-81.59
15.296,-66.76
15.312,-44.21
15.328,-16.17
15.343,13.26
15.359,39.58
15.375,59.29
15.390,70.96
15.406,75.13
15.421,73.58
15.437,68.09
15.453,59.89
15.468,49.4
15.484,36.72
15.500,22.35
15.515,7.44
15.531,-6.22
15.546,-16.78
15.562,-23.36
15.578,-26.34
15.593,-27.53
15.609,-29.37
15.625,-34.14
15.640,-42.89
15.656,-54.97
15.671,-68.05
15.687,-78.88
15.703,-84.2
15.718,-81.78
15.734,-71.0
15.750,-52.81
15.765,-29.47
15.781,-3.61
15.796,22.28
15.812,46.11
15.828,66.36
15.843,81.56
15.859,90.36
15.875,91.76
15.890,85.63
15.906,73.13
15.921,56.62
15.937,39.02
15.953,22.77
15.968,9.14
15.984,-1.95
16.000,-11.48
16.015,-20.36
16.031,-28.82
16.046,-36.34
16.062,-42.42
16.078,-47.06
16.093,-51.46
16.109,-57.29
16.125,-65.77
16.140,-76.38
16.156,-86.43
16.171,-91.79
16.187,-88.4
16.203,-74.18
16.218,-50.1
16.234,-19.99
16.250,11.05
16.265,38.53
16.281,60.05
16.296,75.45
16.312,85.72
16.328,91.8
16.343,93.59
16.359,90.18
16.375,80.72
16.390,65.65
16.406,47.13
16.421,28.53
16.437,12.99
16.453,2.3
16.468,-3.99
16.484,-7.94
16.500,-11.96
16.515,-17.68
16.531,-25.05
16.546,-32.9
16.562,-39.99
16.578,-45.74
16.593,-50.54
16.609,-54.96
16.625,-58.85
16.640,-60.5
16.656,-57.18
16.671,-46.31
16.687,-27.1
16.703,-1.34
16.718,26.83
16.734,52.38
16.750,71.26
16.765,81.65
16.781,84.32
16.796,81.54
16.812,75.71
16.828,68.26
16.843,59.12
16.859,47.59
16.875,33.23
16.890,16.69
16.906,-0.11
16.921,-14.68
16.937,-25.21
16.953,-31.3
16.968,-34.16
16.984,-36.04
17.000,-39.09
17.015,-44.52
17.031,-52.1
17.046,-60.48
17.062,-67.74
17.078,-71.99
17.093,-71.83
17.109,-66.39
17.125,-55.4
17.140,-39.1
17.156,-18.3
17.171,5.61
17.187,30.52
17.203,54.0
17.218,73.35
17.234,86.3
17.250,91.51
17.265,88.98
17.281,80.19
17.296,67.48
17.312,53.4
17.328,39.92
17.343,27.88
17.359,17.07
17.375,6.88
17.390,-3.1
17.406,-12.59
17.421,-20.75
17.437,-26.81
17.453,-30.62
17.468,-33.25
17.484,-36.45
17.500,-41.87
17.515,-49.96
17.531,-59.15
17.546,-66.22
17.562,-67.44
17.578,-60.02
17.593,-43.5
17.609,-20.12
17.625,6.19
17.640,31.27
17.656,52.12
17.671,67.6
17.687,77.87
17.703,83.56
17.718,84.76
17.734,81.05
17.750,72.03
17.765,58.16
17.781,41.31
17.796,24.34
17.812,9.96
17.828,-0.22
17.843,-6.47
17.859,-10.55
17.875,-14.65
17.890,-20.18
17.906,-27.22
17.921,-34.71
17.937,-41.57
17.953,-47.32
17.968,-52.63
17.984,-58.48
18.000,-64.98
18.015,-70.56
18.031,-72.05
18.046,-65.94
18.062,-50.26
18.078,-25.99
18.093,3.18
18.109,31.97
18.125,55.6
18.140,71.56
18.156,80.01
18.171,82.91
18.187,82.44
18.203,79.8
18.218,74.64
18.234,65.86
18.250,52.81
18.265,36.2
18.281,18.25
18.296,1.91
18.312,-10.55
18.328,-18.41
18.343,-22.77
18.359,-25.81
18.375,-29.64
18.390,-35.33
18.406,-42.65
18.421,-50.49
18.437,-57.74
18.453,-63.63
18.468,-67.7
18.484,-69.34
18.500,-67.34
18.515,-60.0
18.531,-45.9
18.546,-24.82
18.562,1.67
18.578,30.31
18.593,56.87
18.609,77.67
18.625,90.46
18.640,95.07
18.656,93.07
18.671,86.84
18.687,78.52
18.703,69.44
18.718,59.82
18.734,49.28
18.750,37.51
18.765,24.83
18.781,12.37
18.796,1.57
18.812,-6.6
18.828,-12.06
18.843,-15.98
18.859,-20.16
18.875,-26.34
18.890,-35.21
18.906,-46.01
18.921,-56.66
18.937,-64.38
18.953,-66.67
18.968,-62.12
18.984,-50.76
19.000,-33.9
19.015,-13.5
19.031,8.53
19.046,30.54
19.062,51.08
19.078,68.78
19.093,81.96
19.109,89.0
19.125,88.77
19.140,81.49
19.156,68.76
19.171,53.32
19.187,37.96
19.203,24.47
19.218,13.15
19.234,3.03
19.250,-7.09
19.265,-17.77
19.281,-28.29
19.296,-37.2
19.312,-43.18
19.328,-46.03
19.343,-47.11
19.359,-48.67
19.375,-52.73
19.390,-59.65
19.406,-67.5
19.421,-72.74
19.437,-71.63
19.453,-61.87
19.468,-43.84
19.484,-20.39
19.500,4.48
19.515,27.13
19.531,45.66
19.546,59.8
19.562,70.27
19.578,77.37
19.593,80.55
19.609,78.62
19.625,70.76
19.640,57.69
19.656,41.68
19.671,25.93
19.687,13.09
19.703,4.3
19.718,-1.37
19.734,-5.91
19.750,-11.29
19.765,-18.27
19.781,-26.01
19.796,-33.0
19.812,-38.08
19.828,-41.3
19.843,-44.02
19.859,-47.81
19.875,-53.3
19.890,-59.26
19.906,-62.63
19.921,-59.88
19.937,-48.7
19.953,-29.21
19.968,-4.23
19.984,21.86
20.000,44.83
20.015,61.97
20.031,72.74
20.046,78.07
20.062,79.4
20.078,77.54
20.093,72.38
20.109,63.33
20.125,50.26
20.140,34.19
20.156,17.38
20.171,2.56
20.187,-8.2
20.203,-14.34
20.218,-17.23
20.234,-19.16
20.250,-22.38
20.265,-27.89
20.281,-35.15
20.296,-42.76
20.312,-49.42
20.328,-54.7
20.343,-58.97
20.359,-62.6
20.375,-64.9
20.390,-63.98
20.406,-57.26
20.421,-43.07
20.437,-21.7
20.453,4.06
20.468,29.83
20.484,51.13
20.500,65.11
20.515,71.32
20.531,71.32
20.546,67.52
20.562,61.81
20.578,54.85
20.593,46.11
20.609,34.89
20.625,21.18
20.640,6.23
20.656,-7.59
20.671,-18.11
20.687,-24.11
20.703,-26.11
20.718,-26.09
20.734,-26.52
20.750,-29.19
20.765,-34.56
20.781,-41.7
20.796,-49.06
20.812,-55.12
20.828,-58.93
20.843,-60.03
20.859,-58.09
20.875,-52.57
20.890,-42.67
20.906,-27.95
20.921,-8.97
20.937,12.32
20.953,32.8
20.968,49.13
20.984,58.82
21.000,61.07
21.015,56.99
21.031,49.02
21.046,39.68
21.062,30.7
21.078,22.52
21.093,14.37
21.109,5.35
21.125,-4.82
21.140,-15.44
21.156,-24.93
21.171,-31.83
21.187,-35.59
21.203,-36.97
21.218,-37.82
21.234,-40.36
21.250,-45.87
21.265,-54.24
21.281,-63.76
21.296,-71.82
21.312,-75.76
21.328,-73.89
21.343,-65.84
21.359,-52.53
21.375,-35.73
21.390,-17.18
21.406,1.69
21.421,19.74
21.437,35.96
21.453,49.03
21.468,57.41
21.484,59.88
21.500,56.19
21.515,47.54
21.531,36.31
21.546,25.12
21.562,15.87
21.578,9.01
21.593,3.5
21.609,-2.27
21.625,-9.33
21.640,-17.56
21.656,-25.69
21.671,-32.31
21.687,-36.69
21.703,-39.5
21.718,-42.55
21.734,-47.71
21.750,-55.78
21.765,-65.59
21.781,-74.13
21.796,-77.76
21.812,-73.66
21.828,-61.18
21.843,-42.02
21.859,-19.61
21.875,2.53
21.890,21.98
21.906,37.98
21.921,50.8
21.937,60.9
21.953,67.96
21.968,70.95
21.984,68.86
22.000,61.57
22.015,50.49
22.031,38.13
22.046,27.02
22.062,18.58
22.078,12.48
22.093,7.12
22.109,0.63
22.125,-7.91
22.140,-18.01
22.156,-28.08
22.171,-36.61
22.187,-42.98
22.203,-48.1
22.218,-53.65
22.234,-60.86
22.250,-69.3
22.265,-76.41
22.281,-78.54
22.296,-72.48
22.312,-57.15
22.328,-34.43
22.343,-8.4
22.359,16.11
22.375,35.52
22.390,48.41
22.406,55.52
22.421,58.39
22.437,58.36
22.453,55.58
22.468,49.37
22.484,39.17
22.500,25.42
22.515,10.02
22.531,-4.46
22.546,-15.81
22.562,-23.26
22.578,-27.8
22.593,-31.52
22.609,-36.44
22.625,-43.29
22.640,-51.27
22.656,-58.75
22.671,-64.56
22.687,-68.66
22.703,-72.19
22.718,-76.41
22.734,-81.31
22.750,-85.03
22.765,-84.07
22.781,-75.01
22.796,-56.28
22.812,-29.33
22.828,1.66
22.843,31.21
22.859,54.65
22.875,69.76
22.890,76.9
22.906,78.3
22.921,76.3
22.937,72.26
22.953,66.01
22.968,56.67
22.984,43.59
23.000,27.33
23.015,9.88
23.031,-6.16
23.046,-18.78
23.062,-27.51
23.078,-33.63
23.093,-39.28
23.109,-46.39
23.125,-55.7
23.140,-66.51
23.156,-77.28
23.171,-86.46
23.187,-92.97
23.203,-96.38
23.218,-96.21
23.234,-91.53
23.250,-80.87
23.265,-62.87
23.281,-37.44
23.296,-6.33
23.312,26.78
23.328,57.2
23.343,80.65
23.359,94.66
23.375,99.1
23.390,96.01
23.406,88.38
23.421,78.8
23.437,68.67
23.453,57.93
23.468,45.93
23.484,32.31
23.500,17.75
23.515,3.83
23.531,-7.6
23.546,-15.41
23.562,-19.81
23.578,-22.48
23.593,-25.76
23.609,-31.63
23.625,-40.97
23.640,-52.96
23.656,-65.56
23.671,-76.02
23.687,-81.67
23.703,-80.61
23.718,-71.92
23.734,-55.81
23.750,-33.27
23.765,-6.02
23.781,23.68
23.796,53.1
23.812,79.26
23.828,99.24
23.843,110.84
23.859,113.32
23.875,107.52
23.890,95.84
23.906,81.26
23.921,66.38
23.937,52.61
23.953,39.95
23.968,27.58
23.984,14.83
24.000,1.96
24.015,-9.83
24.031,-19.08
24.046,-25.02
24.062,-28.22
24.078,-30.68
24.093,-34.91
24.109,-42.75
24.125,-54.16
24.140,-66.95
24.156,-77.44
24.171,-81.7
24.187,-77.09
24.203,-63.28
24.218,-42.04
24.234,-16.5
24.250,10.21
24.265,35.81
24.281,58.89
24.296,78.58
24.312,93.83
24.328,103.17
24.343,105.18
24.359,99.42
24.375,87.02
24.390,70.75
24.406,53.9
24.421,39.08
24.437,27.23
24.453,17.58
24.468,8.49
24.484,-1.31
24.500,-11.84
24.515,-21.86
24.531,-29.8
24.546,-34.94
24.562,-38.16
24.578,-41.63
24.593,-47.56
24.609,-56.77
24.625,-67.52
24.640,-75.78
24.656,-76.89
24.671,-67.52
24.687,-47.26
24.703,-19.0
24.718,12.32
24.734,41.71
24.750,65.72
24.765,83.31
24.781,95.09
24.796,102.19
24.812,105.06
24.828,103.17
24.843,95.74
24.859,82.68
24.875,65.41
24.890,46.63
24.906,29.27
24.921,15.48
24.937,5.71
24.953,-1.02
24.968,-6.48
24.984,-12.08
25.000,-18.13
25.015,-23.99
25.031,-28.87
25.046,-32.52
25.062,-35.89
25.078,-40.42
25.093,-46.86
25.109,-54.27
25.125,-59.55
25.140,-58.56
25.156,-47.94
25.171,-26.85
25.187,2.32
25.203,34.62
25.218,64.48
25.234,87.7
25.250,102.66
25.265,110.2
25.281,112.21
25.296,110.51
25.312,105.64
25.328,97.26
25.343,84.84
25.359,68.73
25.375,50.46
25.390,32.46
25.406,16.85
25.421,4.61
25.437,-4.97
25.453,-13.59
25.468,-22.93
25.484,-33.7
25.500,-45.06
25.515,-55.4
25.531,-63.46
25.546,-69.04
25.562,-73.26
25.578,-77.44
25.593,-81.79
25.609,-84.64
25.625,-82.79
25.640,-72.84
25.656,-53.18
25.671,-25.13
25.687,7.26
25.703,38.57
25.718,64.07
25.734,81.29
25.750,90.4
25.765,93.33
25.781,92.36
25.796,89.07
25.812,83.59
25.828,75.4
25.843,64.08
25.859,50.2
25.875,35.52
25.890,22.35
25.906,12.44
25.921,6.29
25.937,2.78
25.953,-0.14
25.968,-4.41
25.984,-10.97
26.000,-19.4
26.015,-28.38
26.031,-36.69
26.046,-43.65
26.062,-49.21
26.078,-53.43
26.093,-55.64
26.109,-54.12
26.125,-46.68
26.140,-31.83
26.156,-9.81
26.171,16.81
26.187,43.72
26.203,66.36
26.218,81.37
26.234,87.65
26.250,86.47
26.265,80.41
26.281,71.96
26.296,62.72
26.312,52.88
26.328,41.9
26.343,29.46
26.359,16.12
26.375,3.43
26.390,-6.7
26.406,-13.11
26.421,-16.07
26.437,-17.24
26.453,-18.92
26.468,-22.96
26.484,-29.89
26.500,-38.94
26.515,-48.48
26.531,-56.89
26.546,-63.1
26.562,-66.55
26.578,-66.77
26.593,-62.97
26.609,-54.02
26.625,-39.05
26.640,-18.26
26.656,6.64
26.671,32.47
26.687,55.32
26.703,71.83
26.718,80.12
26.734,80.4
26.750,74.6
26.765,65.41
26.781,55.07
26.796,44.78
26.812,34.38
26.828,23.18
26.843,10.75
26.859,-2.3
26.875,-14.39
26.890,-23.74
26.906,-29.28
26.921,-31.48
26.937,-32.13
26.953,-33.58
26.968,-37.68
26.984,-44.95
27.000,-54.35
27.015,-63.82
27.031,-71.01
27.046,-74.01
27.062,-71.81
27.078,-64.13
27.093,-51.42
27.109,-34.32
27.125,-13.81
27.140,8.68
27.156,31.23
27.171,51.4
27.187,66.62
27.203,74.96
27.218,75.71
27.234,69.69
27.250,59.14
27.265,46.78
27.281,34.88
27.296,24.6
27.312,15.74
27.328,7.43
27.343,-1.08
27.359,-9.81
27.375,-17.9
27.390,-24.13
27.406,-27.77
27.421,-29.21
27.437,-29.88
27.453,-31.7
27.468,-36.14
27.484,-43.43
27.500,-52.34
27.515,-60.55
27.531,-65.36
27.546,-64.65
27.562,-57.58
27.578,-44.5
27.593,-26.7
27.609,-5.92
27.625,16.13
27.640,37.77
27.656,57.29
27.671,72.92
27.687,82.89
27.703,85.96
27.718,82.03
27.734,72.45
27.750,59.71
27.765,46.52
27.781,34.81
27.796,25.02
27.812,16.32
27.828,7.31
27.843,-2.83
27.859,-13.73
27.875,-23.93
27.890,-31.81
27.906,-36.46
27.921,-38.5
27.937,-39.8
27.953,-42.65
27.968,-48.66
27.984,-57.9
28.000,-68.81
28.015,-78.83
28.031,-85.25
28.046,-86.11
28.062,-80.7
28.078,-69.49
28.093,-53.63
28.109,-34.55
28.125,-13.6
28.140,7.65
28.156,27.43
28.171,43.65
28.187,54.26
28.203,57.96
28.218,54.82
28.234,46.48
28.250,35.67
28.265,25.14
28.281,16.67
28.296,10.4
28.312,5.27
28.328,-0.16
28.343,-6.6
28.359,-13.57
28.375,-19.73
28.390,-23.81
28.406,-25.38
28.421,-25.45
28.437,-25.98
28.453,-28.92
28.468,-35.25
28.484,-44.39
28.500,-54.32
28.515,-62.38
28.531,-66.1
28.546,-64.04
28.562,-56.12
28.578,-43.29
28.593,-27.14
28.609,-9.37
28.625,8.63
28.640,25.61
28.656,40.4
28.671,51.7
28.687,58.31
28.703,59.45
28.718,55.33
28.734,47.3
28.750,37.45
28.765,27.91
28.781,19.97
28.796,13.56
28.812,7.59
28.828,0.73
28.843,-7.73
28.859,-17.2
28.875,-26.21
28.890,-33.35
28.906,-37.94
28.921,-40.84
28.937,-43.9
28.953,-49.08
28.968,-57.24
28.984,-67.53
29.000,-77.42
29.015,-83.66
29.031,-83.44
29.046,-75.58
29.062,-60.8
29.078,-41.31
29.093,-19.7
29.109,1.84
29.125,21.94
29.140,39.71
29.156,54.28
29.171,64.41
29.187,68.73
29.203,66.42
29.218,57.93
29.234,45.32
29.250,31.46
29.265,19.03
29.281,9.4
29.296,2.15
29.312,-4.29
29.328,-11.53
29.343,-20.11
29.359,-29.18
29.375,-36.98
29.390,-42.16
29.406,-44.6
29.421,-45.92
29.437,-48.67
29.453,-54.92
29.468,-64.82
29.484,-76.05
29.500,-84.56
29.515,-86.22
29.531,-78.48
29.546,-61.56
29.562,-38.11
29.578,-12.15
29.593,12.68
29.609,34.23
29.625,51.98
29.640,66.15
29.656,76.82
29.671,83.3
29.687,84.48
29.703,79.72
29.718,69.64
29.734,56.33
29.750,42.58
29.765,30.72
29.781,21.69
29.796,14.64
29.812,7.91
29.843,-9.35
29.859,-18.94
29.875,-26.86
29.890,-31.67
29.906,-33.3
29.921,-33.39
29.937,-34.5
29.953,-38.77
29.968,-46.62
29.984,-56.12
30.000,-63.59
30.015,-64.88
30.031,-57.11
30.046,-39.83
30.062,-15.08
30.078,13.47
30.093,41.94
30.109,67.36
30.125,88.25
30.140,104.13
30.156,114.74
30.171,119.53
30.187,117.83
30.203,109.5
30.218,95.66
30.234,78.84
30.250,62.04
30.265,47.74
30.281,36.78
30.296,28.14
30.312,19.83
30.328,10.14
30.343,-1.25
30.359,-13.01
30.375,-23.06
30.390,-29.82
30.406,-33.27
30.421,-35.25
30.437,-38.5
30.453,-45.26
30.468,-55.98
30.484,-68.79
30.500,-80.07
30.515,-85.86
30.531,-83.46
30.546,-72.34
30.562,-54.14
30.578,-31.72
30.593,-7.98
30.609,14.91
30.625,35.54
30.640,52.85
30.656,65.57
30.671,72.13
30.687,71.44
30.703,63.63
30.718,50.64
30.734,35.7
30.750,22.13
30.765,12.08
30.781,5.64
30.796,1.18
30.812,-3.5
30.828,-9.82
30.843,-17.64
30.859,-25.43
30.875,-31.44
30.890,-34.72
30.906,-35.8
30.921,-36.53
30.937,-39.12
30.953,-44.91
30.968,-53.62
30.984,-63.18
31.000,-70.48
31.015,-72.41
31.031,-66.96
31.046,-53.94
31.062,-34.86
31.078,-12.23
31.093,11.26
31.109,33.45
31.125,52.72
31.140,67.87
31.156,77.68
31.171,81.16
31.187,77.83
31.203,68.37
31.218,54.84
31.234,40.17
31.250,27.09
31.265,17.18
31.281,10.3
31.296,4.88
31.312,-0.92
31.328,-8.26
31.343,-16.82
31.359,-25.1
31.375,-31.48
31.390,-35.13
31.406,-36.72
31.421,-38.19
31.437,-41.77
31.453,-48.65
31.468,-58.3
31.484,-68.21
31.500,-74.91
31.515,-75.31
31.531,-67.84
31.546,-52.99
31.562,-32.95
31.578,-10.58
31.593,11.58
31.609,31.78
31.625,48.87
31.640,62.06
31.656,70.17
31.671,72.16
31.687,67.49
31.703,56.84
31.718,42.43
31.734,27.33
31.750,14.33
31.765,4.85
31.781,-1.51
31.796,-6.55
31.812,-12.17
31.828,-19.38
31.843,-27.66
31.859,-35.35
31.875,-40.8
31.890,-43.37
31.906,-44.08
31.921,-45.14
31.937,-48.89
31.953,-56.28
31.968,-66.15
31.984,-75.35
32.000,-79.87
32.015,-76.49
32.031,-63.99
32.046,-43.58
32.062,-18.27
32.078,8.37
32.093,33.45
32.109,55.28
32.125,72.98
32.140,85.98
32.156,93.49
32.171,94.62
32.187,89.05
32.203,77.56
32.218,62.32
32.234,46.07
32.250,31.32
32.265,19.39
32.281,10.03
32.296,2.08
32.312,-5.82
32.328,-14.21
32.343,-22.54
32.359,-29.59
32.375,-34.38
32.390,-36.93
32.406,-38.64
32.421,-41.7
32.437,-47.86
32.453,-57.2
32.468,-67.47
32.484,-74.72
32.500,-74.8
32.515,-65.1
32.531,-45.77
32.546,-19.59
32.562,9.11
32.578,36.21
32.593,59.1
32.609,76.88
32.625,89.81
32.640,98.18
32.656,101.64
32.671,99.32
32.687,90.71
32.703,76.42
32.718,58.57
32.734,39.98
32.750,23.24
32.765,9.61
32.781,-1.39
32.796,-11.18
32.812,-21.21
32.828,-31.81
32.843,-42.02
32.859,-50.31
32.875,-55.84
32.890,-59.1
32.906,-62.04
32.921,-66.95
32.937,-74.86
32.953,-84.4
32.968,-91.81
32.984,-92.32
33.000,-82.43
33.015,-61.62
33.031,-32.82
33.046,-1.15
33.062,28.11
33.078,51.43
33.093,68.01
33.109,78.88
33.125,85.59
33.140,88.85
33.156,88.11
33.171,82.38
33.187,71.33
33.203,56.21
33.218,39.62
33.234,24.54
33.250,12.95
33.265,5.19
33.281,-0.15
33.296,-5.15
33.312,-11.45
33.328,-19.47
33.343,-28.39
33.359,-36.98
33.375,-44.57
33.390,-51.48
33.406,-58.52
33.421,-65.95
33.437,-72.48
33.453,-75.17
33.468,-70.5
33.484,-56.01
33.500,-31.69
33.515,-0.6
33.531,32.01
33.546,60.76
33.562,81.77
33.578,93.8
33.593,97.99
33.609,96.48
33.625,91.24
33.640,83.14
33.656,72.06
33.671,57.73
33.687,40.67
33.703,22.61
33.718,6.01
33.734,-6.87
33.750,-15.15
33.765,-19.74
33.781,-22.88
33.796,-27.09
33.812,-33.85
33.828,-43.17
33.843,-53.75
33.859,-63.89
33.875,-72.11
33.890,-77.54
33.906,-79.52
33.921,-77.3
33.937,-69.68
33.953,-55.47
33.968,-34.34
33.984,-7.67
34.000,21.56
34.015,49.21
34.031,71.19
34.046,84.92
34.062,89.79
34.078,87.22
34.093,79.76
34.109,69.9
34.125,59.27
34.140,48.28
34.156,36.51
34.171,23.47
34.187,9.41
34.203,-4.39
34.218,-16.14
34.234,-24.46
34.250,-28.99
34.265,-30.93
34.281,-32.39
34.296,-35.59
34.312,-41.84
34.328,-50.93
34.343,-61.16
34.359,-69.99
34.375,-74.76
34.390,-73.5
34.406,-65.28
34.421,-50.37
34.437,-29.89
34.453,-5.51
34.468,20.78
34.484,46.76
34.500,70.17
34.515,88.7
34.531,100.36
34.546,104.06
34.562,99.94
34.578,89.53
34.593,75.35
34.609,60.01
34.625,45.54
34.640,32.88
34.656,21.89
34.671,12.0
34.687,2.78
34.703,-5.62
34.718,-12.62
34.734,-17.73
34.750,-21.12
34.765,-23.91
34.781,-27.72
34.796,-34.08
34.812,-43.34
34.828,-54.16
34.843,-63.7
34.859,-68.46
34.875,-65.52
34.890,-53.87
34.906,-34.68
34.921,-10.9
34.937,13.87
34.953,36.77
34.968,56.15
34.984,71.41
35.000,82.38
35.015,88.56
35.031,89.06
35.046,83.27
35.062,71.54
35.078,55.59
35.093,38.21
35.109,22.17
35.125,9.15
35.140,-0.76
35.156,-8.71
35.171,-16.15
35.187,-23.78
35.203,-31.17
35.218,-37.22
35.234,-41.04
35.250,-42.77
35.265,-43.97
35.281,-46.71
35.296,-52.23
35.312,-59.76
35.328,-66.18
35.343,-67.23
35.359,-59.36
35.375,-41.5
35.390,-15.76
35.406,13.39
35.421,40.94
35.437,63.22
35.453,78.9
35.468,88.62
35.484,93.75
35.500,95.19
35.515,92.7
35.531,85.51
35.546,73.24
35.562,56.77
35.578,38.44
35.593,21.17
35.609,7.28
35.625,-2.37
35.640,-8.72
35.656,-13.75
35.671,-19.29
35.687,-26.09
35.703,-33.64
35.718,-40.73
35.734,-46.56
35.750,-51.19
35.765,-55.43
35.781,-59.8
35.796,-63.6
35.812,-64.52
35.828,-59.38
35.843,-45.73
35.859,-23.35
35.875,5.19
35.890,35.2
35.906,61.51
35.921,80.4
35.937,90.51
35.953,92.89
35.968,89.81
35.984,83.48
36.000,75.07
36.015,64.6
36.031,51.75
36.046,36.66
36.062,20.58
36.078,5.59
36.093,-6.18
36.109,-13.64
36.125,-17.26
36.140,-19.01
36.156,-21.26
36.171,-25.84
36.187,-33.16
36.203,-42.35
36.218,-52.0
36.234,-60.82
36.250,-68.03
36.265,-73.17
36.281,-75.48
36.296,-73.6
36.312,-65.76
36.328,-50.52
36.343,-27.92
36.359,0.01
36.375,29.38
36.390,55.64
36.406,74.95
36.421,85.38
36.437,87.36
36.453,83.15
36.468,75.54
36.484,66.83
36.500,57.97
36.515,48.63
36.531,38.11
36.546,26.25
36.562,13.85
36.578,2.56
36.593,-6.02
36.609,-11.23
36.625,-13.71
36.640,-15.3
36.656,-18.01
36.671,-23.16
36.687,-30.69
36.703,-39.33
36.718,-47.21
36.734,-52.6
36.750,-54.34
36.765,-51.93
36.781,-45.3
36.796,-34.42
36.812,-19.44
36.828,-0.72
36.843,20.59
36.859,42.66
36.875,62.92
36.890,78.67
36.906,88.05
36.921,90.41
36.937,86.73
36.953,79.04
36.968,69.63
36.984,60.15
37.000,51.19
37.015,42.25
37.031,32.39
37.046,21.37
37.062,9.77
37.078,-0.92
37.093,-9.29
37.109,-14.69
37.125,-17.81
37.140,-20.28
37.156,-24.07
37.171,-30.59
37.187,-39.97
37.203,-51.12
37.218,-62.06
37.234,-70.55
37.250,-74.65
37.265,-73.18
37.281,-65.75
37.296,-52.73
37.312,-35.08
37.328,-14.21
37.343,7.95
37.359,29.25
37.375,47.41
37.390,60.3
37.406,66.52
37.421,65.79
37.437,59.24
37.453,49.01
37.468,37.54
37.484,26.64
37.500,16.97
37.515,8.09
37.531,-0.92
37.546,-10.57
37.562,-20.45
37.578,-29.23
37.593,-35.53
37.609,-38.5
37.625,-38.74
37.640,-37.93
37.656,-38.23
37.671,-41.13
37.687,-46.85
37.703,-54.16
37.718,-60.85
37.734,-64.57
37.750,-63.5
37.765,-56.85
37.781,-44.83
37.796,-28.29
37.812,-8.32
37.828,13.73
37.843,36.17
37.859,57.02
37.875,73.85
37.890,84.46
37.906,87.37
37.921,82.53
37.937,71.6
37.953,57.46
37.968,43.07
37.984,30.56
38.000,20.48
38.015,11.84
38.031,3.23
38.046,-6.35
38.062,-16.65
38.078,-26.41
38.093,-34.19
38.109,-39.29
38.125,-42.28
38.140,-44.83
38.156,-48.92
38.171,-55.64
38.187,-64.57
38.203,-73.76
38.218,-80.5
38.234,-82.37
38.250,-78.05
38.265,-67.63
38.281,-52.45
38.296,-34.36
38.312,-15.05
38.328,4.2
38.343,22.43
38.359,38.75
38.375,51.82
38.390,60.24
38.406,62.94
38.421,59.79
38.437,51.93
38.453,41.6
38.468,31.12
38.484,22.2
38.500,15.31
38.515,9.81
38.531,4.68
38.546,-0.69
38.562,-5.94
38.578,-10.02
38.593,-11.79
38.609,-10.9
38.625,-8.08
38.640,-4.97
38.656,-3.41
38.671,-4.58
38.687,-8.59
38.703,-14.33
38.718,-19.97
38.734,-23.47
38.750,-23.41
38.765,-19.12
38.781,-10.88
38.796,0.41
38.812,13.75
38.828,28.05
38.843,42.22
38.859,55.05
38.875,65.07
38.890,70.69
38.906,70.82
38.921,65.34
38.937,55.43
38.953,43.39
38.968,31.46
38.984,21.02
39.000,11.93
39.015,2.96
39.031,-7.31
39.046,-19.28
39.062,-31.94
39.078,-43.36
39.093,-51.63
39.109,-56.07
39.125,-57.57
39.140,-58.2
39.156,-60.09
39.171,-64.43
39.187,-70.86
39.203,-77.92
39.218,-83.76
39.234,-86.82
39.250,-86.4
39.265,-82.27
39.281,-74.45
39.296,-62.84
39.312,-47.31
39.328,-28.09
39.343,-6.22
39.359,16.31
39.375,36.73
39.390,52.28
39.406,61.18
39.421,63.17
39.437,59.65
39.453,52.99
39.468,45.52
39.484,38.56
39.500,32.04
39.515,24.98
39.531,16.31
39.546,5.88
39.562,-5.22
39.578,-15.2
39.593,-22.5
39.609,-26.66
39.625,-28.73
39.640,-30.51
39.656,-33.7
39.671,-39.07
39.687,-46.16
39.703,-53.66
39.718,-60.23
39.734,-64.82
39.750,-66.97
39.765,-66.24
39.781,-61.99
39.796,-53.28
39.812,-39.22
39.828,-19.87
39.843,3.26
39.859,27.28
39.875,48.54
39.890,63.81
39.906,71.32
39.921,71.26
39.937,65.52
39.953,56.8
39.968,47.51
39.984,38.92
40.000,30.83
40.015,22.3
40.031,12.42
40.046,1.16
40.062,-10.47
40.078,-20.85
40.093,-28.67
40.109,-33.74
40.125,-37.18
40.140,-40.94
40.156,-46.69
40.171,-55.06
40.187,-65.25
40.203,-75.74
40.218,-84.87
40.234,-91.44
40.250,-94.95
40.265,-95.01
40.281,-90.95
40.296,-81.65
40.312,-65.97
40.328,-43.67
40.343,-16.16
40.359,13.37
40.375,40.73
40.390,61.92
40.406,74.57
40.421,78.57
40.437,75.96
40.453,69.64
40.468,62.15
40.484,54.67
40.500,46.88
40.515,37.69
40.531,26.4
40.546,13.55
40.562,0.76
40.578,-9.98
40.593,-17.43
40.609,-21.73
40.625,-24.41
40.640,-27.59
40.656,-33.01
40.671,-41.31
40.687,-51.66
40.703,-62.38
40.718,-71.45
40.734,-77.08
40.750,-78.07
40.765,-73.7
40.781,-63.78
40.796,-48.41
40.812,-28.26
40.828,-4.67
40.843,20.23
40.859,43.64
40.875,62.49
40.890,74.32
40.906,78.0
40.921,74.11
40.937,64.88
40.953,53.13
40.968,41.31
40.984,30.55
41.000,20.53
41.015,10.07
41.031,-1.85
41.046,-15.1
41.062,-28.37
41.078,-39.78
41.093,-47.97
41.109,-52.86
41.125,-56.0
41.140,-59.67
41.156,-65.95
41.171,-75.64
41.187,-87.73
41.203,-99.81
41.218,-108.76
41.234,-111.8
41.250,-107.14
41.265,-94.31
41.281,-74.07
41.296,-47.93
41.312,-17.92
41.328,13.61
41.343,44.01
41.359,70.48
41.375,90.24
41.390,101.31
41.406,103.13
41.421,96.91
41.437,85.35
41.453,71.71
41.468,58.63
41.484,47.2
41.500,37.0
41.515,26.79
41.531,15.66
41.546,3.71
41.562,-7.76
41.578,-17.26
41.593,-23.82
41.609,-27.73
41.625,-30.66
41.640,-34.8
41.656,-41.88
41.671,-52.26
41.687,-64.49
41.703,-75.75
41.718,-82.67
41.734,-82.4
41.750,-73.57
41.765,-56.6
41.781,-33.32
41.796,-6.31
41.812,21.8
41.828,48.77
41.843,72.78
41.859,92.3
41.875,105.88
41.890,112.36
41.906,111.37
41.921,103.72
41.937,91.48
41.953,77.28
41.968,63.48
41.984,51.3
42.000,40.68
42.015,30.77
42.031,20.73
42.046,10.59
42.062,1.31
42.078,-5.95
42.093,-10.57
42.109,-13.17
42.125,-15.72
42.140,-20.67
42.156,-29.73
42.171,-42.95
42.187,-58.19
42.203,-71.7
42.218,-79.33
42.234,-78.0
42.250,-66.65
42.265,-46.63
42.281,-20.87
42.296,7.17
42.312,34.48
42.328,58.96
42.343,79.22
42.359,94.1
42.375,102.3
42.390,102.98
42.406,96.13
42.421,83.16
42.437,66.83
42.453,50.27
42.468,35.99
42.484,24.85
42.500,16.11
42.515,8.11
42.531,-0.46
42.546,-9.72
42.562,-18.46
42.578,-25.2
42.593,-29.07
42.609,-30.67
42.625,-32.09
42.640,-35.9
42.656,-43.73
42.671,-55.04
42.687,-67.01
42.703,-75.36
42.718,-75.93
42.734,-66.47
42.750,-47.35
42.765,-21.2
42.781,8.07
42.796,36.9
42.812,62.82
42.828,84.39
42.843,100.74
42.859,111.06
42.875,114.24
42.890,109.65
42.906,97.84
42.921,80.86
42.937,61.89
42.953,44.07
42.968,29.37
42.984,17.9
43.000,8.32
43.015,-1.2
43.031,-11.75
43.046,-23.07
43.062,-33.7
43.078,-42.07
43.093,-47.45
43.109,-50.74
43.125,-54.15
43.140,-60.01
43.156,-69.31
43.171,-80.63
43.187,-90.42
43.203,-94.18
43.218,-88.26
43.234,-71.39
43.250,-45.32
43.265,-13.92
43.281,18.29
43.296,47.69
43.312,72.42
43.328,91.86
43.343,106.02
43.359,114.5
43.375,116.57
43.390,111.56
43.406,99.86
43.421,83.28
43.437,64.77
43.453,47.36
43.468,33.07
43.484,22.21
43.500,13.51
43.515,5.18
43.531,-4.01
43.546,-13.98
43.562,-23.44
43.578,-30.96
43.593,-35.89
43.609,-39.23
43.625,-43.21
43.640,-50.19
43.656,-60.86
43.671,-73.35
43.687,-83.48
43.703,-86.31
43.718,-78.27
43.734,-58.85
43.750,-30.9
43.765,0.75
43.781,31.11
43.796,56.86
43.812,76.88
43.828,91.42
43.843,101.19
43.859,106.13
43.875,105.5
43.890,98.64
43.906,86.02
43.921,69.54
43.937,52.19
43.953,36.75
43.968,24.7
43.984,15.68
44.000,7.95
44.015,-0.53
44.031,-10.76
44.046,-22.16
44.062,-33.01
44.078,-41.53
44.093,-47.02
44.109,-50.63
44.125,-54.67
44.140,-61.41
44.156,-71.42
44.171,-82.66
44.187,-90.98
44.203,-91.88
44.218,-82.37
44.234,-62.47
44.250,-35.36
44.265,-5.88
44.281,21.36
44.296,43.5
44.312,59.83
44.328,70.96
44.343,77.71
44.359,80.17
44.375,77.83
44.390,70.24
44.406,58.05
44.421,43.24
44.437,28.65
44.453,16.72
44.468,8.68
44.484,3.97
44.500,0.89
44.515,-2.5
44.531,-7.12
44.546,-12.55
44.562,-17.41
44.578,-20.47
44.593,-21.61
44.609,-22.2
44.625,-24.47
44.640,-30.09
44.656,-38.9
44.671,-48.33
44.687,-54.15
44.703,-52.21
44.718,-40.39
44.734,-19.66
44.750,6.27
44.765,32.43
44.781,54.63
44.796,70.85
44.812,81.18
44.828,86.81
44.843,88.87
44.859,87.37
44.875,81.63
44.890,71.14
44.906,56.45
44.921,39.59
44.937,23.41
44.953,10.32
44.968,1.31
44.984,-4.42
45.000,-8.82
45.015,-13.88
45.031,-20.35
45.046,-27.52
45.062,-33.76
45.078,-37.75
45.093,-39.43
45.109,-40.45
45.125,-42.98
45.140,-48.28
45.156,-55.4
45.171,-60.96
45.187,-60.49
45.203,-50.59
45.218,-30.74
45.234,-3.83
45.250,24.95
45.265,50.28
45.281,68.7
45.296,79.55
45.312,84.44
45.328,85.57
45.343,84.5
45.359,81.16
45.375,74.56
45.390,63.88
45.406,49.51
45.421,33.4
45.437,18.16
45.453,6.03
45.468,-2.27
45.484,-7.7
45.500,-12.18
45.515,-17.46
45.531,-24.12
45.546,-31.24
45.562,-37.18
45.578,-40.88
45.593,-42.63
45.609,-44.2
45.625,-47.6
45.640,-53.54
45.656,-60.47
45.671,-64.8
45.687,-62.39
45.703,-50.57
45.718,-29.7
45.734,-3.24
45.750,23.55
45.765,45.89
45.781,61.12
45.796,69.32
45.812,72.36
45.828,72.33
45.843,70.32
45.859,65.95
45.875,58.18
45.890,46.35
45.906,31.3
45.921,15.2
45.937,0.86
45.953,-9.72
45.968,-16.13
45.984,-19.87
46.000,-23.23
46.015,-28.08
46.031,-34.86
46.046,-42.46
46.062,-49.14
46.078,-53.74
46.093,-56.56
46.109,-59.12
46.125,-63.14
46.140,-68.94
46.156,-74.67
46.171,-76.72
46.187,-71.46
46.203,-57.06
46.218,-34.69
46.234,-8.28
46.250,17.01
46.265,36.88
46.281,49.29
46.296,54.86
46.312,55.66
46.328,53.95
46.343,50.92
46.359,46.39
46.375,39.55
46.390,29.99
46.406,18.46
46.421,6.83
46.437,-2.69
46.453,-8.79
46.468,-11.52
46.484,-12.48
46.500,-13.81
46.515,-17.07
46.531,-22.41
46.546,-28.5
46.562,-33.49
46.578,-36.24
46.593,-37.11
46.609,-37.78
46.625,-39.99
46.640,-44.23
46.656,-48.76
46.671,-50.11
46.687,-44.72
46.703,-30.7
46.718,-9.22
46.734,15.79
46.750,39.22
46.765,56.91
46.781,67.06
46.796,70.54
46.812,69.69
46.828,66.83
46.843,63.09
46.859,58.08
46.875,50.78
46.890,40.62
46.906,28.36
46.921,15.98
46.937,5.8
46.953,-0.71
46.968,-3.77
46.984,-5.09
47.000,-6.98
47.015,-11.03
47.031,-17.33
47.046,-24.49
47.062,-30.74
47.078,-34.99
47.093,-37.61
47.109,-40.23
47.125,-44.26
47.140,-49.76
47.156,-54.62
47.171,-55.37
47.187,-48.86
47.203,-33.9
47.218,-12.24
47.234,11.86
47.250,33.38
47.265,48.46
47.281,55.81
47.296,56.64
47.312,53.4
47.328,48.38
47.343,42.58
47.359,35.67
47.375,26.8
47.390,15.71
47.406,3.29
47.421,-8.53
47.437,-17.79
47.453,-23.46
47.468,-26.04
47.484,-27.38
47.500,-29.63
47.515,-34.16
47.531,-40.88
47.546,-48.4
47.562,-55.08
47.578,-60.02
47.593,-63.63
47.609,-67.26
47.625,-71.99
47.640,-77.46
47.656,-81.3
47.671,-79.99
47.687,-70.49
47.703,-51.92
47.718,-26.38
47.734,1.58
47.750,26.81
47.765,45.36
47.781,55.88
47.796,59.47
47.812,58.43
47.828,54.98
47.843,50.07
47.859,43.45
47.875,34.37
47.890,22.83
47.906,9.9
47.921,-2.36
47.937,-11.92
47.953,-17.86
47.968,-20.92
47.984,-23.09
48.000,-26.5
48.015,-32.33
48.031,-40.13
48.046,-48.16
48.062,-54.75
48.078,-59.14
48.093,-62.22
48.109,-65.79
48.125,-71.25
48.140,-78.11
48.156,-83.66
48.171,-83.83
48.187,-75.17
48.203,-56.67
48.218,-30.55
48.234,-1.61
48.250,24.78
48.265,44.6
48.281,56.47
48.296,61.45
48.312,61.72
48.328,59.24
48.343,54.77
48.359,47.96
48.375,38.22
48.390,25.79
48.406,12.2
48.421,-0.16
48.437,-9.17
48.453,-13.91
48.468,-15.27
48.484,-15.51
48.500,-17.0
48.515,-21.1
48.531,-27.45
48.546,-34.28
48.562,-39.82
48.578,-43.29
48.593,-45.64
48.609,-48.88
48.625,-54.58
48.640,-62.37
48.656,-69.43
48.671,-71.44
48.687,-64.5
48.703,-47.19
48.718,-21.55
48.734,7.59
48.750,34.52
48.765,54.93
48.781,67.24
48.796,72.46
48.812,72.81
48.828,70.4
48.843,66.08
48.859,59.58
48.875,50.38
48.890,38.68
48.906,25.89
48.921,14.26
48.937,5.74
48.953,1.07
48.968,-0.74
48.984,-1.83
49.000,-4.46
49.015,-9.78
49.031,-17.24
49.046,-25.04
49.062,-31.39
49.078,-35.55
49.093,-38.49
49.109,-42.23
49.125,-48.2
49.140,-55.91
49.156,-62.38
49.171,-63.17
49.187,-54.6
49.203,-35.54
49.218,-8.5
49.234,21.35
49.250,48.21
49.265,67.92
49.281,79.2
49.296,83.38
49.312,82.79
49.328,79.33
49.343,73.51
49.359,64.89
49.375,53.0
49.390,38.39
49.406,22.92
49.421,9.05
49.437,-1.29
49.453,-7.56
49.468,-11.12
49.484,-14.26
49.500,-19.05
49.515,-26.3
49.531,-35.14
49.546,-43.73
49.562,-50.59
49.578,-55.5
49.593,-59.74
49.609,-65.11
49.625,-72.49
49.640,-80.52
49.656,-85.63
49.671,-83.45
49.687,-70.86
49.703,-47.71
49.718,-17.32
49.734,14.81
49.750,43.07
49.765,63.75
49.781,75.95
49.796,81.08
49.812,81.27
49.828,78.22
49.843,72.4
49.859,63.5
49.875,51.46
49.890,37.08
49.906,22.33
49.921,9.49
49.937,0.11
49.953,-5.62
49.968,-9.1
49.984,-12.43
50.000,-17.39
50.015,-24.4
50.031,-32.48
50.046,-39.9
50.062,-45.47
50.078,-49.31
50.093,-52.9
50.109,-57.95
50.125,-64.97
50.140,-72.29
50.156,-76.1
50.171,-72.1
50.187,-57.59
50.203,-32.89
50.218,-1.64
50.234,30.58
50.250,58.37
50.265,78.26
50.281,89.53
50.296,93.6
50.312,92.62
50.328,88.26
50.343,81.14
50.359,71.14
50.375,58.32
50.390,43.58
50.406,28.81
50.421,16.26
50.437,7.35
50.453,2.22
50.468,-0.63
50.484,-3.37
50.500,-7.84
50.515,-14.59
50.531,-22.63
50.546,-30.29
50.562,-36.28
50.578,-40.7
50.593,-45.02
50.609,-51.09
50.625,-59.6
50.640,-69.02
50.656,-75.66
50.671,-74.99
50.687,-63.92
50.703,-42.28
50.718,-13.47
50.734,16.95
50.750,43.4
50.765,62.22
50.781,72.75
50.796,76.55
50.812,76.01
50.828,72.86
50.843,67.5
50.859,59.51
50.875,48.67
50.890,35.87
50.906,23.03
50.921,12.51
50.937,5.79
50.953,2.75
50.968,1.63
50.984,-0.02
51.000,-4.04
51.015,-10.7
51.031,-18.6
51.046,-25.71
51.062,-30.61
51.078,-33.47
51.093,-36.04
51.109,-40.4
51.125,-47.47
51.140,-55.81
51.156,-61.7
51.171,-60.65
51.187,-49.56
51.203,-28.26
51.218,-0.09
51.234,29.58
51.250,55.27
51.265,73.48
51.281,83.46
51.296,86.66
51.312,85.32
51.328,81.15
51.343,74.63
51.359,65.41
51.375,53.44
51.390,39.6
51.406,25.91
51.421,14.72
51.437,7.49
51.453,4.14
51.468,3.03
51.484,1.77
51.500,-1.51
51.515,-7.2
51.531,-14.23
51.546,-20.92
51.562,-26.12
51.578,-30.1
51.593,-34.36
51.609,-40.37
51.625,-48.23
51.640,-55.83
51.656,-59.19
51.671,-54.33
51.687,-39.15
51.703,-14.73
51.718,14.72
51.734,43.57
51.750,66.78
51.765,81.64
51.781,88.27
51.796,88.75
51.812,85.43
51.828,79.82
51.843,72.1
51.859,61.72
51.875,48.48
51.890,33.28
51.906,18.09
51.921,5.14
51.937,-4.14
51.953,-9.9
51.968,-13.76
51.984,-17.83
52.000,-23.7
52.015,-31.56
52.031,-40.21
52.046,-48.09
52.062,-54.28
52.078,-59.12
52.093,-63.9
52.109,-69.62
52.125,-75.78
52.140,-79.92
52.156,-78.32
52.171,-67.7
52.187,-47.06
52.203,-18.6
52.218,12.82
52.234,41.44
52.250,62.77
52.265,74.99
52.281,79.03
52.296,77.45
52.312,72.84
52.328,66.64
52.343,58.8
52.359,48.71
52.375,36.19
52.390,22.1
52.406,8.43
52.421,-2.72
52.437,-10.18
52.453,-14.28
52.468,-16.76
52.484,-19.82
52.500,-24.81
52.515,-31.63
52.531,-38.96
52.546,-45.26
52.562,-49.81
52.578,-53.16
52.593,-56.75
52.609,-61.54
52.625,-66.94
52.640,-70.31
52.656,-67.97
52.671,-56.92
52.687,-36.54
52.703,-9.23
52.718,20.27
52.734,46.77
52.750,66.47
52.765,78.03
52.781,82.57
52.796,82.35
52.812,79.38
52.828,74.59
52.843,67.66
52.859,57.85
52.875,45.06
52.890,30.43
52.906,16.06
52.921,4.21
52.937,-3.76
52.953,-8.0
52.968,-10.07
52.984,-12.09
53.000,-15.66
53.015,-21.06
53.031,-27.31
53.046,-33.12
53.062,-37.82
53.078,-41.9
53.093,-46.55
53.109,-52.49
53.125,-58.9
53.140,-63.04
53.156,-61.16
53.171,-50.28
53.187,-29.84
53.203,-2.27
53.218,27.47
53.234,53.97
53.250,73.23
53.265,83.9
53.281,87.2
53.296,85.65
53.312,81.59
53.328,76.12
53.343,69.07
53.359,59.66
53.375,47.65
53.390,34.02
53.406,20.82
53.421,10.26
53.437,3.63
53.453,0.6
53.468,-0.63
53.484,-2.31
53.500,-6.16
53.515,-12.33
53.531,-19.67
53.546,-26.67
53.562,-32.38
53.578,-37.07
53.593,-41.95
53.609,-47.74
53.625,-53.62
53.640,-56.92
53.656,-53.92
53.671,-41.8
53.687,-20.32
53.703,7.7
53.718,37.04
53.734,62.22
53.750,79.51
53.765,88.01
53.781,89.38
53.796,86.31
53.812,81.01
53.828,74.22
53.843,65.35
53.859,53.46
53.875,38.49
53.890,21.83
53.906,5.86
53.921,-7.08
53.937,-15.76
53.953,-20.73
53.968,-23.93
53.984,-27.47
54.000,-32.73
54.015,-39.63
54.031,-46.88
54.046,-53.16
54.062,-57.93
54.078,-61.73
54.093,-65.81
54.109,-70.68
54.125,-75.28
54.140,-76.77
54.156,-71.68
54.171,-57.57
54.187,-34.49
54.203,-5.34
54.218,24.96
54.234,51.28
54.250,70.19
54.265,80.8
54.281,84.48
54.296,83.61
54.312,80.3
54.328,75.52
54.343,69.05
54.359,60.31
54.375,49.1
54.390,36.4
54.406,23.94
54.421,13.54
54.437,6.24
54.453,1.74
54.468,-1.38
54.484,-4.92
54.500,-10.02
54.515,-16.73
54.531,-24.0
54.546,-30.6
54.562,-35.95
54.578,-40.61
54.593,-45.93
54.609,-52.74
54.625,-60.4
54.640,-66.38
54.656,-67.03
54.671,-59.26
54.687,-42.13
54.703,-17.6
54.718,10.06
54.734,35.8
54.750,55.9
54.765,68.89
54.781,75.56
54.796,77.76
54.812,77.11
54.828,74.14
54.843,68.34
54.859,59.1
54.875,46.47
54.890,31.91
54.906,17.73
54.921,6.14
54.937,-1.69
54.953,-6.24
54.968,-9.32
54.984,-13.0
55.000,-18.45
55.015,-25.47
55.031,-32.64
55.046,-38.5
55.062,-42.45
55.078,-45.32
55.093,-49.1
55.109,-55.47
55.125,-64.57
55.140,-74.2
55.156,-80.41
55.171,-79.13
55.187,-67.92
55.203,-47.38
55.218,-20.88
55.234,6.6
55.250,30.67
55.265,48.85
55.281,60.99
55.296,68.25
55.312,71.96
55.328,72.51
55.343,69.32
55.359,61.85
55.375,50.37
55.390,36.73
55.406,23.72
55.421,13.84
55.437,8.31
55.453,6.41
55.468,5.88
55.484,4.23
55.515,-6.59
55.531,-13.73
55.546,-19.53
55.562,-22.94
55.578,-24.7
55.593,-26.98
55.609,-32.01
55.625,-40.6
55.640,-51.08
55.656,-59.78
55.671,-62.49
55.687,-56.44
55.703,-41.62
55.718,-20.81
55.734,1.66
55.750,21.92
55.765,37.87
55.781,49.39
55.796,57.43
55.812,62.85
55.828,65.43
55.843,64.23
55.859,58.43
55.875,48.29
55.890,35.51
55.906,22.82
55.921,12.46
55.937,5.45
55.953,1.12
55.968,-2.43
55.984,-7.12
56.000,-13.83
56.015,-22.03
56.031,-30.05
56.046,-36.24
56.062,-39.8
56.078,-41.48
56.093,-43.15
56.109,-46.76
56.125,-53.15
56.140,-61.29
56.156,-68.44
56.171,-71.29
56.187,-67.3
56.203,-55.76
56.218,-38.03
56.234,-16.9
56.250,4.67
56.265,24.63
56.281,42.2
56.296,57.34
56.312,70.09
56.328,79.71
56.343,84.85
56.359,84.27
56.375,77.71
56.390,66.49
56.406,53.18
56.421,40.52
56.437,30.37
56.453,22.85
56.468,16.65
56.484,9.98
56.500,1.73
56.515,-7.74
56.531,-16.93
56.546,-24.12
56.562,-28.42
56.578,-30.45
56.593,-32.01
56.609,-35.29
56.625,-41.52
56.640,-50.28
56.656,-59.56
56.671,-66.56
56.687,-68.74
56.703,-64.88
56.718,-55.19
56.734,-41.09
56.750,-24.38
56.765,-6.59
56.781,11.29
56.796,28.46
56.812,44.05
56.828,56.64
56.843,64.55
56.859,66.52
56.875,62.4
56.890,53.61
56.906,42.65
56.921,32.08
56.937,23.48
56.953,16.91
56.968,11.1
56.984,4.54
57.000,-3.52
57.015,-12.48
57.031,-20.81
57.046,-26.9
57.062,-30.07
57.078,-31.12
57.093,-31.79
57.109,-34.02
57.125,-38.94
57.140,-46.39
57.156,-55.12
57.171,-63.63
57.187,-70.45
57.203,-74.79
57.218,-76.18
57.234,-74.11
57.250,-67.97
57.265,-57.16
57.281,-41.61
57.296,-22.28
57.312,-1.28
57.328,18.49
57.343,34.12
57.359,43.59
57.375,46.43
57.390,43.75
57.406,37.7
57.421,30.44
57.437,23.56
57.453,17.5
57.468,11.83
57.484,5.87
57.500,-0.62
57.515,-7.12
57.531,-12.53
57.546,-15.87
57.562,-16.86
57.578,-16.25
57.593,-15.55
57.609,-16.26
57.625,-19.25
57.640,-24.33
57.656,-30.46
57.671,-36.62
57.687,-42.06
57.703,-46.56
57.718,-49.89
57.734,-51.42
57.750,-49.73
57.765,-43.07
57.781,-30.29
57.796,-11.74
57.812,10.42
57.828,32.62
57.843,51.18
57.859,63.54
57.875,69.02
57.890,68.86
57.906,65.23
57.921,60.16
57.937,54.76
57.953,48.89
57.968,41.7
57.984,32.45
58.000,21.21
58.015,9.13
58.031,-2.17
58.046,-11.41
58.062,-18.31
58.078,-23.77
58.093,-29.3
58.109,-36.21
58.125,-44.73
58.140,-54.0
58.156,-62.67
58.171,-69.68
58.187,-75.02
58.203,-79.57
58.218,-84.17
58.234,-88.57
58.250,-91.01
58.265,-88.55
58.281,-78.59
58.296,-60.28
58.312,-35.17
58.328,-7.08
58.343,19.43
58.359,40.68
58.375,55.01
58.390,62.95
58.406,66.3
58.421,66.83
58.437,65.44
58.453,61.98
58.468,55.79
58.484,46.58
58.500,34.99
58.515,22.58
58.531,11.21
58.546,2.14
58.562,-4.54
58.578,-9.88
58.593,-15.4
58.609,-22.27
58.625,-30.66
58.640,-39.57
58.656,-47.75
58.671,-54.37
58.687,-59.64
58.703,-64.82
58.718,-71.24
58.734,-79.13
58.750,-86.98
58.765,-91.69
58.781,-89.77
58.796,-79.03
58.812,-59.55
58.828,-34.01
58.843,-6.46
58.859,19.03
58.875,39.94
58.890,55.5
58.906,66.31
58.921,73.28
58.937,76.74
58.953,76.45
58.968,71.97
58.984,63.44
59.000,52.0
59.015,39.59
59.031,28.18
59.046,19.07
59.062,12.27
59.078,6.54
59.093,0.24
59.109,-7.8
59.125,-17.63
59.140,-28.04
59.156,-37.38
59.171,-44.49
59.187,-49.36
59.203,-53.45
59.218,-58.8
59.234,-66.83
59.250,-77.25
59.265,-87.73
59.281,-94.69
59.296,-94.56
59.312,-85.42
59.328,-67.77
59.343,-44.27
59.359,-18.68
59.375,5.73
59.390,26.99
59.406,44.52
59.421,58.41
59.437,68.57
59.453,74.2
59.468,74.3
59.484,68.48
59.500,57.7
59.515,44.45
59.531,31.65
59.546,21.57
59.562,14.81
59.578,10.15
59.593,5.46
59.609,-0.98
59.625,-9.42
59.640,-18.57
59.656,-26.35
59.671,-31.27
59.687,-33.22
59.703,-33.81
59.718,-35.5
59.734,-40.3
59.750,-48.59
59.765,-58.63
59.781,-67.3
59.796,-71.06
59.812,-67.49
59.828,-56.02
59.843,-37.9
59.859,-15.62
59.875,8.28
59.890,31.71
59.906,53.26
59.921,71.8
59.937,86.14
59.953,94.87
59.968,96.97
59.984,92.34
