timestamp,value
00.000,145.88
00.015,146.35
00.031,142.83
00.046,135.77
00.062,125.97
00.078,114.34
00.093,101.74
00.109,88.81
00.125,75.91
00.140,63.1
00.156,50.25
00.171,37.29
00.187,24.12
00.203,10.81
00.218,-2.42
00.234,-15.37
00.250,-27.87
00.265,-40.0
00.281,-52.08
00.296,-64.43
00.312,-77.02
00.328,-89.11
00.343,-99.3
00.359,-105.79
00.375,-107.13
00.390,-102.86
00.406,-93.88
00.421,-82.16
00.437,-70.11
00.453,-59.79
00.468,-52.31
00.484,-47.72
00.500,-45.27
00.515,-43.98
00.531,-42.97
00.546,-41.86
00.562,-40.65
00.578,-39.47
00.593,-38.57
00.609,-38.03
00.625,-37.77
00.640,-37.67
00.656,-37.64
00.671,-37.66
00.687,-37.69
00.703,-37.58
00.718,-36.93
00.734,-35.24
00.750,-32.03
00.765,-27.15
00.781,-20.8
00.796,-13.53
00.812,-5.78
00.828,2.36
00.843,11.25
00.859,21.6
00.875,33.96
00.890,48.36
00.906,64.11
00.921,79.88
00.937,94.18
00.953,105.93
00.968,114.72
00.984,120.8
01.000,124.69
01.015,126.62
01.031,126.37
01.046,123.29
01.062,116.83
01.078,107.17
01.093,95.37
01.109,83.31
01.125,72.91
01.140,65.3
01.156,60.41
01.171,57.01
01.187,53.35
01.203,47.96
01.218,40.21
01.234,30.29
01.250,19.0
01.265,7.07
01.281,-5.13
01.296,-17.64
01.312,-30.57
01.328,-43.59
01.343,-55.74
01.359,-65.51
01.375,-71.38
01.390,-72.46
01.406,-68.89
01.421,-61.9
01.437,-53.36
01.453,-45.19
01.468,-38.69
01.484,-34.32
01.500,-31.88
01.515,-30.88
01.531,-31.01
01.546,-32.14
01.562,-34.34
01.578,-37.55
01.593,-41.45
01.609,-45.44
01.625,-48.74
01.640,-50.82
01.656,-51.47
01.671,-50.96
01.687,-49.9
01.703,-48.95
01.718,-48.45
01.734,-48.27
01.750,-47.79
01.765,-46.33
01.781,-43.53
01.796,-39.61
01.812,-35.33
01.828,-31.58
01.843,-28.74
01.859,-26.36
01.875,-23.21
01.890,-17.94
01.906,-9.68
01.921,1.31
01.937,13.94
01.953,26.72
01.968,38.48
01.984,48.87
02.000,58.3
02.015,67.41
02.031,76.49
02.046,85.21
02.062,92.68
02.078,98.02
02.093,100.72
02.109,100.88
02.125,99.08
02.140,95.97
02.156,91.92
02.171,86.94
02.187,80.85
02.203,73.53
02.218,65.18
02.234,56.28
02.250,47.35
02.265,38.65
02.281,30.02
02.296,20.83
02.312,10.31
02.328,-2.02
02.343,-16.17
02.359,-31.47
02.375,-46.75
02.390,-60.69
02.406,-72.07
02.421,-80.15
02.437,-84.71
02.453,-86.07
02.468,-84.8
02.484,-81.79
02.500,-77.93
02.515,-74.12
02.531,-71.26
02.546,-70.08
02.562,-71.19
02.578,-74.75
02.593,-80.34
02.609,-86.86
02.625,-92.71
02.640,-96.3
02.656,-96.52
02.671,-93.24
02.687,-87.27
02.703,-80.08
02.718,-73.13
02.734,-67.21
02.750,-62.23
02.765,-57.47
02.781,-51.95
02.796,-45.06
02.812,-36.98
02.828,-28.27
02.843,-19.85
02.859,-12.36
02.875,-6.0
02.890,-0.42
02.906,5.01
02.921,11.06
02.937,18.39
02.953,27.33
02.968,38.03
02.984,50.32
03.000,63.85
03.015,78.04
03.031,92.22
03.046,105.56
03.062,117.26
03.078,126.66
03.093,133.28
03.109,137.08
03.125,138.34
03.140,137.61
03.156,135.45
03.171,132.28
03.187,128.21
03.203,123.18
03.218,117.08
03.234,109.9
03.250,101.87
03.265,93.15
03.281,83.79
03.296,73.55
03.312,61.93
03.328,48.59
03.343,33.47
03.359,17.07
03.375,0.26
03.390,-15.94
03.406,-30.75
03.421,-43.64
03.437,-54.18
03.453,-62.1
03.468,-67.13
03.484,-69.22
03.500,-68.78
03.515,-66.82
03.531,-64.54
03.546,-63.04
03.562,-62.86
03.578,-63.84
03.593,-65.5
03.609,-67.32
03.625,-69.08
03.640,-70.85
03.656,-72.85
03.671,-75.08
03.687,-77.19
03.703,-78.55
03.718,-78.51
03.734,-76.72
03.750,-73.22
03.765,-68.47
03.781,-62.94
03.796,-57.13
03.812,-51.33
03.828,-45.58
03.843,-39.8
03.859,-33.95
03.875,-28.13
03.890,-22.51
03.906,-17.34
03.921,-12.64
03.937,-8.38
03.953,-4.18
03.968,0.27
03.984,5.33
04.000,11.21
04.015,18.0
04.031,25.73
04.046,34.32
04.062,43.69
04.078,53.68
04.093,64.13
04.109,74.72
04.125,85.05
04.140,94.64
04.156,102.95
04.171,109.44
04.187,113.52
04.203,114.67
04.218,112.51
04.234,107.03
04.250,98.64
04.265,88.15
04.281,76.8
04.296,65.83
04.312,56.2
04.328,48.28
04.343,41.84
04.359,36.07
04.375,30.02
04.390,22.83
04.406,13.87
04.421,3.05
04.437,-9.48
04.453,-23.2
04.468,-37.31
04.484,-50.66
04.500,-61.93
04.515,-69.77
04.531,-73.26
04.546,-72.36
04.562,-67.93
04.578,-61.69
04.593,-55.56
04.609,-51.16
04.625,-49.28
04.640,-49.94
04.656,-52.61
04.671,-56.5
04.687,-60.98
04.703,-65.56
04.718,-69.99
04.734,-74.01
04.750,-77.42
04.765,-80.09
04.781,-82.16
04.796,-83.89
04.812,-85.64
04.828,-87.67
04.843,-89.82
04.859,-91.54
04.875,-92.09
04.890,-90.77
04.906,-87.28
04.921,-81.9
04.937,-75.29
04.953,-68.29
04.968,-61.57
04.984,-55.34
05.000,-49.24
05.015,-42.5
05.031,-34.25
05.046,-23.92
05.062,-11.63
05.078,1.89
05.093,15.48
05.109,27.96
05.125,38.68
05.140,47.57
05.156,55.1
05.171,61.74
05.187,67.77
05.203,73.12
05.218,77.61
05.234,81.26
05.250,84.43
05.265,87.69
05.281,91.31
05.296,95.15
05.312,98.42
05.328,100.05
05.343,99.16
05.359,95.5
05.375,89.55
05.390,82.31
05.406,75.04
05.421,68.71
05.437,63.66
05.453,59.56
05.468,55.51
05.484,50.31
05.500,42.96
05.515,33.04
05.531,21.02
05.546,8.02
05.562,-4.5
05.578,-15.42
05.593,-24.25
05.609,-31.03
05.625,-36.2
05.640,-40.21
05.656,-43.43
05.671,-46.19
05.687,-48.84
05.703,-51.84
05.718,-55.54
05.734,-60.01
05.750,-64.88
05.765,-69.42
05.781,-72.91
05.796,-75.02
05.812,-76.07
05.828,-76.86
05.843,-78.27
05.859,-80.81
05.875,-84.29
05.890,-87.88
05.906,-90.45
05.921,-91.1
05.937,-89.64
05.953,-86.66
05.968,-83.31
05.984,-80.72
06.000,-79.56
06.015,-79.75
06.031,-80.45
06.046,-80.27
06.062,-77.7
06.078,-71.4
06.093,-60.68
06.109,-45.73
06.125,-27.66
06.140,-8.22
06.156,10.72
06.171,27.68
06.187,42.04
06.203,53.88
06.218,63.76
06.234,72.29
06.250,79.74
06.265,86.07
06.281,91.1
06.296,94.64
06.312,96.6
06.328,96.93
06.343,95.51
06.359,92.22
06.375,87.1
06.390,80.45
06.406,72.84
06.421,65.02
06.437,57.55
06.453,50.68
06.468,44.24
06.484,37.7
06.500,30.46
06.515,22.03
06.531,12.23
06.546,1.2
06.562,-10.46
06.578,-21.82
06.593,-31.65
06.609,-38.65
06.625,-41.82
06.640,-40.83
06.656,-36.2
06.671,-29.17
06.687,-21.43
06.703,-14.56
06.718,-9.78
06.734,-7.72
06.750,-8.42
06.765,-11.6
06.781,-16.86
06.796,-23.72
06.812,-31.72
06.828,-40.41
06.843,-49.15
06.859,-57.22
06.875,-63.71
06.890,-67.78
06.906,-68.8
06.921,-66.75
06.937,-62.27
06.953,-56.5
06.968,-50.61
06.984,-45.32
07.000,-40.69
07.015,-36.26
07.031,-31.49
07.046,-26.2
07.062,-20.8
07.078,-15.87
07.093,-11.68
07.109,-7.74
07.125,-2.59
07.140,5.44
07.156,17.45
07.171,33.3
07.187,51.5
07.203,69.64
07.218,85.41
07.234,97.29
07.250,104.95
07.265,109.13
07.281,110.93
07.296,111.33
07.312,110.87
07.328,109.72
07.343,107.89
07.359,105.47
07.375,102.57
07.390,99.18
07.406,95.08
07.421,89.8
07.437,82.91
07.453,74.24
07.468,64.0
07.484,52.86
07.500,41.56
07.515,30.68
07.531,20.35
07.546,10.25
07.562,-0.34
07.578,-12.05
07.593,-25.17
07.609,-39.37
07.625,-53.41
07.640,-65.58
07.656,-74.08
07.671,-77.67
07.687,-76.07
07.703,-70.22
07.718,-61.84
07.734,-53.05
07.750,-45.7
07.765,-41.09
07.781,-39.88
07.796,-42.28
07.812,-48.17
07.828,-57.11
07.843,-68.14
07.859,-79.76
07.875,-90.12
07.890,-97.51
07.906,-100.88
07.921,-100.2
07.937,-96.37
07.953,-90.65
07.968,-84.14
07.984,-77.26
08.000,-69.72
08.015,-60.92
08.031,-50.49
08.046,-38.54
08.062,-25.8
08.078,-13.19
08.093,-1.52
08.109,8.8
08.125,17.9
08.140,26.37
08.156,35.04
08.171,44.83
08.187,56.54
08.203,70.58
08.218,86.88
08.234,104.71
08.250,122.81
08.265,139.62
08.281,153.72
08.296,164.11
08.312,170.46
08.328,172.92
08.343,171.91
08.359,167.75
08.375,160.77
08.390,151.09
08.406,138.94
08.421,124.81
08.437,109.41
08.453,93.7
08.468,78.66
08.484,65.03
08.500,53.09
08.515,42.72
08.531,33.44
08.546,24.62
08.562,15.73
08.578,6.4
08.593,-3.54
08.609,-14.13
08.625,-25.42
08.640,-37.37
08.656,-49.74
08.671,-61.98
08.687,-73.22
08.703,-82.31
08.718,-88.35
08.734,-90.86
08.750,-90.03
08.765,-86.64
08.781,-81.84
08.796,-76.65
08.812,-71.9
08.828,-67.98
08.843,-64.89
08.859,-62.65
08.875,-61.07
08.890,-60.0
08.906,-59.24
08.921,-58.59
08.937,-57.78
08.953,-56.62
08.968,-55.03
08.984,-52.92
09.000,-50.29
09.015,-47.16
09.031,-43.57
09.046,-39.55
09.062,-35.26
09.078,-30.78
09.093,-26.14
09.109,-21.24
09.125,-15.9
09.140,-10.14
09.156,-4.13
09.171,1.74
09.187,7.11
09.203,12.06
09.218,17.18
09.234,23.48
09.250,31.99
09.265,43.26
09.281,56.73
09.296,71.08
09.312,84.53
09.328,95.56
09.343,103.53
09.359,108.51
09.375,111.13
09.390,112.0
09.406,111.47
09.421,109.49
09.437,105.95
09.453,100.84
09.468,94.43
09.484,87.27
09.500,79.94
09.515,72.84
09.531,66.12
09.546,59.67
09.562,53.17
09.578,46.3
09.593,38.77
09.609,30.48
09.625,21.5
09.640,12.05
09.656,2.24
09.671,-7.96
09.687,-18.67
09.703,-30.05
09.718,-41.8
09.734,-53.19
09.750,-63.02
09.765,-70.04
09.781,-73.46
09.796,-73.27
09.812,-70.32
09.828,-66.07
09.843,-61.99
09.859,-59.14
09.875,-57.99
09.890,-58.49
09.906,-60.32
09.921,-63.21
09.937,-66.97
09.953,-71.34
09.968,-75.96
09.984,-80.08
10.000,-82.78
10.015,-83.3
10.031,-81.3
10.046,-77.08
10.062,-71.55
10.078,-65.86
10.093,-60.95
10.109,-57.3
10.125,-54.75
10.140,-52.65
10.156,-50.11
10.171,-46.4
10.187,-41.1
10.203,-34.23
10.218,-26.06
10.234,-16.95
10.250,-7.08
10.265,3.62
10.281,15.3
10.296,27.97
10.312,41.24
10.328,54.4
10.343,66.56
10.359,77.03
10.375,85.56
10.390,92.41
10.406,98.1
10.421,103.18
10.437,107.89
10.453,112.29
10.468,116.21
10.484,119.43
10.500,121.68
10.515,122.62
10.531,121.82
10.546,118.79
10.562,113.14
10.578,104.72
10.593,93.78
10.609,80.93
10.625,67.07
10.640,53.07
10.656,39.62
10.671,27.1
10.687,15.36
10.703,3.85
10.718,-8.06
10.734,-20.93
10.750,-34.68
10.765,-48.6
10.781,-61.46
10.796,-71.91
10.812,-78.94
10.828,-82.27
10.843,-82.43
10.859,-80.35
10.875,-77.08
10.890,-73.41
10.906,-69.82
10.921,-66.58
10.937,-64.06
10.953,-62.78
10.968,-63.27
10.984,-65.81
11.000,-70.02
11.015,-74.92
11.031,-79.09
11.046,-81.34
11.062,-81.23
11.078,-79.21
11.093,-76.45
11.109,-74.17
11.125,-73.08
11.140,-73.07
11.156,-73.37
11.171,-72.9
11.187,-70.73
11.203,-66.49
11.218,-60.14
11.234,-51.93
11.250,-42.13
11.265,-31.15
11.281,-19.46
11.296,-7.74
11.312,3.31
11.328,13.11
11.343,21.28
11.359,27.85
11.375,33.15
11.390,37.88
11.406,42.76
11.421,48.49
11.437,55.47
11.453,63.66
11.468,72.68
11.484,81.91
11.500,90.82
11.515,98.96
11.531,106.19
11.546,112.31
11.562,117.03
11.578,119.84
11.593,120.15
11.609,117.51
11.625,111.84
11.640,103.56
11.656,93.32
11.671,81.96
11.687,70.11
11.703,58.09
11.718,46.05
11.734,33.94
11.750,21.91
11.765,10.12
11.781,-1.18
11.796,-12.05
11.812,-22.71
11.828,-33.5
11.843,-44.53
11.859,-55.4
11.875,-65.2
11.890,-72.79
11.906,-77.55
11.921,-79.58
11.937,-79.96
11.953,-80.25
11.968,-81.9
11.984,-85.76
12.000,-91.81
12.015,-99.34
12.031,-107.17
12.046,-114.22
12.062,-119.42
12.078,-121.96
12.093,-121.41
12.109,-117.68
12.125,-111.4
12.140,-103.68
12.156,-95.9
12.171,-89.07
12.187,-83.61
12.203,-79.04
12.218,-74.47
12.234,-69.13
12.250,-62.62
12.265,-55.25
12.281,-47.67
12.296,-40.63
12.312,-34.57
12.328,-29.71
12.343,-25.87
12.359,-22.81
12.375,-20.13
12.390,-17.2
12.406,-13.25
12.421,-7.44
12.437,0.84
12.453,11.75
12.468,24.78
12.484,39.11
12.500,53.7
12.515,67.72
12.531,80.75
12.546,92.73
12.562,103.89
12.578,114.8
12.593,126.13
12.609,138.56
12.625,152.65
12.640,168.21
12.656,184.18
12.671,198.56
12.687,208.77
12.703,212.39
12.718,208.1
12.734,195.98
12.750,177.46
12.765,154.8
12.781,130.12
12.796,104.88
12.812,79.69
12.828,54.59
12.843,29.75
12.859,5.81
12.875,-16.06
12.890,-34.65
12.906,-49.24
12.921,-60.03
12.937,-68.0
12.953,-74.4
12.968,-80.25
12.984,-85.95
13.000,-91.45
13.015,-96.55
13.031,-101.25
13.046,-105.78
13.062,-110.46
13.078,-115.38
13.093,-120.21
13.109,-124.41
13.125,-127.37
13.140,-128.74
13.156,-128.48
13.171,-126.85
13.187,-124.13
13.203,-120.61
13.218,-116.41
13.234,-111.42
13.250,-105.41
13.265,-98.17
13.281,-89.76
13.296,-80.63
13.312,-71.73
13.328,-64.22
13.343,-59.26
13.359,-57.44
13.375,-58.52
13.390,-61.3
13.406,-63.72
13.421,-63.37
13.437,-58.14
13.453,-47.06
13.468,-30.63
13.484,-10.85
13.500,9.59
13.515,28.15
13.531,43.46
13.546,55.6
13.562,65.81
13.578,75.64
13.593,86.25
13.609,97.82
13.625,109.71
13.640,120.92
13.656,130.53
13.671,138.01
13.687,143.16
13.703,145.83
13.718,145.84
13.734,143.02
13.750,137.51
13.765,129.89
13.781,121.29
13.796,112.94
13.812,105.69
13.828,99.64
13.843,93.99
13.859,87.34
13.875,78.28
13.890,66.05
13.906,50.83
13.921,33.85
13.937,17.06
13.953,2.54
13.968,-8.11
13.984,-14.18
14.000,-15.99
14.015,-14.83
14.031,-12.42
14.046,-10.58
14.062,-10.77
14.078,-13.84
14.093,-19.93
14.109,-28.53
14.125,-38.62
14.140,-48.87
14.156,-58.04
14.171,-65.35
14.187,-70.68
14.203,-74.62
14.218,-78.2
14.234,-82.39
14.250,-87.62
14.265,-93.57
14.281,-99.33
14.296,-103.77
14.312,-106.05
14.328,-106.09
14.343,-104.42
14.359,-102.0
14.375,-99.82
14.390,-98.45
14.406,-97.94
14.421,-97.88
14.437,-97.33
14.453,-95.09
14.468,-89.95
14.484,-80.89
14.500,-67.38
14.515,-49.74
14.531,-29.17
14.546,-7.54
14.562,12.94
14.578,30.35
14.593,43.61
14.609,52.59
14.625,58.09
14.640,61.44
14.656,63.99
14.671,66.69
14.687,69.98
14.703,73.75
14.718,77.51
14.734,80.79
14.750,83.36
14.765,85.32
14.781,87.03
14.796,88.88
14.812,91.17
14.828,93.91
14.843,96.94
14.859,99.85
14.875,102.17
14.890,103.35
14.906,102.82
14.921,100.0
14.937,94.56
14.953,86.69
14.968,77.19
14.984,67.52
15.000,59.33
15.015,53.95
15.031,51.82
15.046,52.3
15.062,53.87
15.078,54.69
15.093,53.22
15.109,48.63
15.125,40.9
15.140,30.62
15.156,18.7
15.171,5.86
15.187,-7.4
15.203,-20.83
15.218,-34.31
15.234,-47.61
15.250,-60.31
15.265,-71.73
15.281,-81.2
15.296,-88.15
15.312,-92.51
15.328,-94.61
15.343,-95.19
15.359,-95.12
15.375,-95.25
15.390,-96.1
15.406,-98.02
15.421,-101.21
15.437,-105.75
15.453,-111.57
15.468,-118.23
15.484,-124.57
15.500,-128.85
15.515,-128.99
15.531,-123.25
15.546,-110.83
15.562,-92.3
15.578,-69.47
15.593,-44.83
15.609,-20.88
15.625,0.55
15.640,18.5
15.656,32.87
15.671,43.9
15.687,51.99
15.703,57.4
15.718,60.32
15.734,61.01
15.750,60.03
15.765,58.27
15.781,56.83
15.796,56.73
15.812,58.43
15.828,61.71
15.843,65.83
15.859,69.78
15.875,72.86
15.890,74.94
15.906,76.21
15.921,76.91
15.937,76.95
15.953,75.76
15.968,72.58
15.984,67.1
16.000,59.78
16.015,52.15
16.031,46.37
16.046,44.35
16.062,47.07
16.078,54.08
16.093,63.61
16.109,73.16
16.125,80.44
16.140,83.89
16.156,83.07
16.171,78.34
16.187,70.46
16.203,60.14
16.218,47.92
16.234,34.11
16.250,19.07
16.265,3.37
16.281,-12.28
16.296,-27.26
16.312,-41.12
16.328,-53.88
16.343,-65.66
16.359,-76.58
16.375,-86.54
16.390,-95.16
16.406,-102.01
16.421,-106.82
16.437,-109.72
16.453,-111.17
16.468,-111.9
16.484,-112.44
16.500,-113.0
16.515,-113.4
16.531,-113.15
16.546,-111.49
16.562,-107.57
16.578,-100.53
16.593,-89.74
16.609,-75.11
16.625,-57.3
16.640,-37.75
16.656,-18.38
16.671,-1.06
16.687,12.9
16.703,23.02
16.718,29.57
16.734,33.19
16.750,34.55
16.765,34.11
16.781,32.18
16.796,29.03
16.812,25.11
16.828,20.99
16.843,17.3
16.859,14.61
16.875,13.36
16.890,13.8
16.906,15.94
16.921,19.65
16.937,24.65
16.953,30.55
16.968,36.8
16.984,42.74
17.000,47.69
17.015,51.21
17.031,53.26
17.046,54.29
17.062,55.28
17.078,57.41
17.093,61.65
17.109,68.44
17.125,77.48
17.140,87.84
17.156,98.21
17.171,107.3
17.187,113.93
17.203,117.27
17.218,116.82
17.234,112.36
17.250,103.99
17.265,92.14
17.281,77.54
17.296,61.13
17.312,44.04
17.328,27.23
17.343,11.61
17.359,-2.25
17.375,-14.11
17.390,-24.13
17.406,-32.67
17.421,-40.26
17.437,-47.38
17.453,-54.4
17.468,-61.54
17.484,-68.98
17.500,-76.78
17.515,-84.98
17.531,-93.61
17.546,-102.57
17.562,-111.49
17.578,-119.57
17.593,-125.66
17.609,-128.27
17.625,-126.16
17.640,-118.73
17.656,-106.41
17.671,-90.63
17.687,-73.47
17.703,-56.97
17.718,-42.51
17.734,-30.65
17.750,-21.16
17.765,-13.49
17.781,-7.14
17.796,-1.93
17.812,2.2
17.828,5.22
17.843,7.24
17.859,8.56
17.875,9.58
17.890,10.73
17.906,12.3
17.921,14.5
17.937,17.39
17.953,20.92
17.968,25.02
17.984,29.45
18.000,34.03
18.015,38.61
18.031,43.05
18.046,47.19
18.062,50.86
18.078,54.03
18.093,56.85
18.109,59.8
18.125,63.45
18.140,68.35
18.156,74.57
18.171,81.39
18.187,87.47
18.203,91.16
18.218,91.17
18.234,87.09
18.250,79.27
18.265,68.62
18.281,56.11
18.296,42.43
18.312,27.84
18.328,12.37
18.343,-4.1
18.359,-21.61
18.375,-39.97
18.390,-58.99
18.406,-78.54
18.421,-98.65
18.437,-119.18
18.453,-139.62
18.468,-158.86
18.484,-175.44
18.500,-187.7
18.515,-194.23
18.531,-194.13
18.546,-187.32
18.562,-174.45
18.578,-156.8
18.593,-135.84
18.609,-112.75
18.625,-88.46
18.640,-63.49
18.656,-38.3
18.671,-13.62
18.687,9.42
18.703,29.32
18.718,44.61
18.734,54.38
18.750,58.58
18.765,58.04
18.781,54.13
18.796,48.32
18.812,41.78
18.828,35.23
18.843,29.09
18.859,23.58
18.875,19.08
18.890,16.15
18.906,15.49
18.921,17.38
18.937,21.42
18.953,26.45
18.968,31.01
18.984,33.86
19.000,34.51
19.015,33.28
19.031,31.06
19.046,28.62
19.062,26.25
19.078,23.7
19.093,20.62
19.109,17.13
19.125,14.1
19.140,12.97
19.156,15.2
19.171,21.58
19.187,31.77
19.203,44.35
19.218,57.4
19.234,69.24
19.250,78.87
19.265,86.04
19.281,90.89
19.296,93.57
19.312,93.91
19.328,91.58
19.343,86.26
19.359,78.09
19.375,67.77
19.390,56.45
19.406,45.33
19.421,35.18
19.437,26.17
19.453,17.84
19.468,9.54
19.484,0.68
19.500,-8.79
19.515,-18.59
19.531,-28.25
19.546,-37.56
19.562,-46.84
19.578,-56.74
19.593,-67.8
19.609,-79.88
19.625,-91.72
19.640,-101.12
19.656,-105.68
19.671,-103.7
19.687,-94.98
19.703,-81.11
19.718,-64.79
19.734,-48.91
19.750,-35.58
19.765,-25.69
19.781,-19.09
19.796,-15.2
19.812,-13.53
19.828,-13.84
19.843,-16.0
19.859,-19.43
19.875,-23.07
19.890,-25.51
19.906,-25.52
19.921,-22.58
19.937,-17.08
19.953,-10.2
19.968,-3.37
19.984,2.18
20.000,5.86
20.015,7.61
20.031,7.83
20.046,7.0
20.062,5.43
20.078,3.42
20.093,1.3
20.109,-0.2
20.125,0.12
20.140,3.87
20.156,12.41
20.171,26.53
20.187,45.79
20.203,68.57
20.218,92.28
20.234,114.17
20.250,131.91
20.265,144.1
20.281,150.47
20.296,151.49
20.312,148.11
20.328,141.29
20.343,131.81
20.359,120.18
20.375,106.74
20.390,91.72
20.406,75.28
20.421,57.63
20.437,38.99
20.453,19.62
20.468,-0.22
20.484,-20.23
20.500,-39.91
20.515,-58.67
20.531,-75.82
20.546,-90.9
20.562,-103.87
20.578,-115.09
20.593,-125.09
20.609,-134.11
20.625,-141.68
20.640,-146.5
20.656,-146.98
20.671,-141.79
20.687,-130.67
20.703,-114.7
20.718,-96.04
20.734,-77.19
20.750,-60.14
20.765,-45.94
20.781,-34.64
20.796,-25.82
20.812,-18.86
20.828,-13.32
20.843,-8.88
20.859,-5.11
20.875,-1.36
20.890,3.07
20.906,8.64
20.921,15.32
20.937,22.4
20.953,28.94
20.968,33.91
20.984,36.74
21.000,37.34
21.015,36.12
21.031,33.64
21.046,30.39
21.062,26.69
21.078,22.67
21.093,18.63
21.109,15.19
21.125,13.43
21.140,14.76
21.156,20.37
21.171,30.8
21.187,45.56
21.203,63.07
21.218,81.14
21.234,97.59
21.250,110.85
21.265,120.19
21.281,125.68
21.296,127.7
21.312,126.48
21.328,122.0
21.343,114.08
21.359,102.61
21.375,88.05
21.390,71.26
21.406,53.44
21.421,35.71
21.437,18.84
21.453,3.05
21.468,-11.93
21.484,-26.52
21.500,-41.02
21.515,-55.36
21.531,-69.06
21.546,-81.43
21.562,-91.82
21.578,-100.09
21.593,-106.53
21.609,-111.93
21.625,-117.04
21.640,-122.13
21.656,-126.63
21.671,-129.23
21.687,-128.37
21.703,-122.9
21.718,-112.68
21.734,-98.6
21.750,-82.27
21.765,-65.6
21.781,-50.3
21.796,-37.52
21.812,-27.87
21.828,-21.53
21.843,-18.21
21.859,-17.29
21.875,-17.78
21.890,-18.49
21.906,-18.28
21.921,-16.58
21.937,-13.37
21.953,-9.16
21.968,-4.7
21.984,-0.58
22.000,2.98
22.015,6.12
22.031,8.99
22.046,11.67
22.062,13.9
22.078,15.23
22.093,15.4
22.109,14.69
22.125,14.05
22.140,15.04
22.156,19.31
22.171,28.02
22.187,41.39
22.203,58.41
22.218,77.19
22.234,95.44
22.250,111.24
22.265,123.36
22.281,131.4
22.296,135.43
22.312,135.63
22.328,131.99
22.343,124.28
22.359,112.38
22.375,96.5
22.390,77.58
22.406,57.08
22.421,36.7
22.437,17.78
22.453,1.05
22.468,-13.42
22.484,-26.16
22.500,-37.62
22.515,-47.99
22.531,-57.08
22.546,-64.52
22.562,-70.14
22.578,-74.18
22.593,-77.3
22.609,-80.06
22.625,-82.78
22.640,-85.14
22.656,-86.39
22.671,-85.7
22.687,-82.62
22.703,-77.29
22.718,-70.28
22.734,-62.35
22.750,-53.92
22.765,-45.04
22.781,-35.46
22.796,-24.97
22.812,-13.68
22.828,-2.09
22.843,9.01
22.859,18.92
22.875,27.16
22.890,33.64
22.906,38.4
22.921,41.51
22.937,42.88
22.953,42.34
22.968,39.82
22.984,35.53
23.000,30.1
23.015,24.38
23.031,19.31
23.046,15.55
23.062,13.3
23.078,12.45
23.093,12.69
23.109,13.92
23.125,16.41
23.140,20.59
23.156,26.8
23.171,35.06
23.187,44.84
23.203,55.37
23.218,66.01
23.234,76.34
23.250,86.3
23.265,95.82
23.281,104.53
23.296,111.58
23.312,115.82
23.328,116.22
23.343,112.24
23.359,104.11
23.375,92.61
23.390,78.78
23.406,63.47
23.421,47.25
23.437,30.33
23.453,12.92
23.468,-4.59
23.484,-21.55
23.500,-37.16
23.515,-50.74
23.531,-62.06
23.546,-71.4
23.562,-79.54
23.578,-87.4
23.593,-95.62
23.609,-104.34
23.625,-113.11
23.640,-121.1
23.656,-127.17
23.671,-130.32
23.687,-129.8
23.703,-125.35
23.718,-117.23
23.734,-106.16
23.750,-93.17
23.765,-79.38
23.781,-65.84
23.796,-53.24
23.812,-41.94
23.828,-31.95
23.843,-23.05
23.859,-14.9
23.875,-7.07
23.890,0.81
23.906,8.9
23.921,17.01
23.937,24.56
23.953,30.71
23.968,34.52
23.984,35.43
24.000,33.44
24.015,29.23
24.031,23.99
24.046,19.11
24.062,15.81
24.078,14.93
24.093,16.9
24.109,21.79
24.125,29.55
24.140,39.78
24.156,52.06
24.171,65.67
24.187,79.88
24.203,93.98
24.218,107.42
24.234,119.85
24.250,130.94
24.265,140.36
24.281,147.49
24.296,151.58
24.312,151.82
24.328,147.59
24.343,138.7
24.359,125.54
24.375,108.98
24.390,90.1
24.406,70.09
24.421,49.79
24.437,29.79
24.453,10.43
24.468,-7.96
24.484,-24.97
24.500,-40.09
24.515,-52.8
24.531,-62.95
24.546,-70.8
24.562,-77.08
24.578,-82.67
24.593,-88.43
24.609,-94.83
24.625,-101.86
24.640,-109.06
24.656,-115.56
24.671,-120.48
24.687,-122.91
24.703,-122.35
24.718,-118.69
24.734,-112.39
24.750,-104.29
24.765,-95.52
24.781,-87.19
24.796,-80.18
24.812,-74.96
24.828,-71.51
24.843,-69.36
24.859,-67.7
24.875,-65.55
24.890,-61.98
24.906,-56.38
24.921,-48.57
24.937,-38.73
24.953,-27.49
24.968,-15.57
24.984,-3.72
25.000,7.47
25.015,17.59
25.031,26.51
25.046,34.17
25.062,40.58
25.078,45.77
25.093,49.69
25.109,52.52
25.125,54.59
25.140,56.54
25.156,59.21
25.171,63.41
25.187,69.57
25.203,77.51
25.218,86.56
25.234,95.62
25.250,103.77
25.265,110.36
25.281,115.24
25.296,118.52
25.312,120.33
25.328,120.64
25.343,119.18
25.359,115.62
25.375,109.56
25.390,100.83
25.406,89.48
25.421,75.8
25.437,60.51
25.453,44.48
25.468,28.59
25.484,13.41
25.500,-0.85
25.515,-14.48
25.531,-27.85
25.546,-41.18
25.562,-54.39
25.578,-67.04
25.593,-78.7
25.609,-89.01
25.625,-97.76
25.640,-104.79
25.656,-109.86
25.671,-112.52
25.687,-112.31
25.703,-108.97
25.718,-102.68
25.734,-94.24
25.750,-84.84
25.765,-75.75
25.781,-67.89
25.796,-61.73
25.812,-57.24
25.828,-54.15
25.843,-52.19
25.859,-51.05
25.875,-50.37
25.890,-49.59
25.906,-47.99
25.921,-44.96
25.937,-40.15
25.953,-33.85
25.968,-26.76
25.984,-19.7
26.000,-13.11
26.015,-7.0
26.031,-1.01
26.046,5.1
26.062,11.05
26.078,16.12
26.093,19.47
26.109,20.74
26.125,20.43
26.140,19.81
26.156,20.49
26.171,23.7
26.187,29.87
26.203,38.52
26.218,48.66
26.234,59.29
26.250,69.66
26.265,79.38
26.281,88.25
26.296,95.91
26.312,101.85
26.328,105.43
26.343,106.12
26.359,103.73
26.375,98.39
26.390,90.47
26.406,80.31
26.421,68.18
26.437,54.25
26.453,38.88
26.468,22.71
26.484,6.67
26.500,-8.14
26.515,-20.88
26.531,-31.19
26.546,-39.28
26.562,-45.83
26.578,-51.67
26.593,-57.36
26.609,-63.03
26.625,-68.4
26.640,-72.77
26.656,-75.44
26.671,-75.95
26.687,-74.17
26.703,-70.37
26.718,-65.24
26.734,-59.65
26.750,-54.57
26.765,-50.92
26.781,-49.35
26.796,-50.33
26.812,-53.94
26.828,-59.82
26.843,-67.13
26.859,-74.52
26.875,-80.41
26.890,-83.25
26.906,-82.05
26.921,-76.65
26.937,-67.83
26.953,-56.96
26.968,-45.55
26.984,-34.9
27.000,-25.75
27.015,-18.47
27.031,-13.17
27.046,-9.81
27.062,-8.14
27.078,-7.55
27.093,-6.89
27.109,-4.69
27.125,0.28
27.140,8.78
27.156,20.66
27.171,34.96
27.187,50.31
27.203,65.44
27.218,79.36
27.234,91.63
27.250,102.17
27.265,110.97
27.281,117.86
27.296,122.34
27.312,123.63
27.328,121.01
27.343,114.14
27.359,103.31
27.375,89.35
27.390,73.48
27.406,56.78
27.421,40.0
27.437,23.45
27.453,7.15
27.468,-8.9
27.484,-24.45
27.500,-39.17
27.515,-52.87
27.531,-65.69
27.546,-78.16
27.562,-90.75
27.578,-103.36
27.593,-115.06
27.609,-124.11
27.625,-128.6
27.640,-127.16
27.656,-119.6
27.671,-107.06
27.687,-91.7
27.703,-75.92
27.718,-61.71
27.734,-50.29
27.750,-42.07
27.765,-37.03
27.781,-34.93
27.796,-35.37
27.812,-37.73
27.828,-41.1
27.843,-44.06
27.859,-45.08
27.875,-42.86
27.890,-36.75
27.906,-27.05
27.921,-15.01
27.937,-2.35
27.953,9.2
27.968,18.22
27.984,24.03
28.000,26.5
28.015,25.93
28.031,22.88
28.046,18.07
28.062,12.25
28.078,6.43
28.093,1.84
28.109,-0.27
28.125,1.33
28.140,7.4
28.156,18.05
28.171,32.64
28.187,50.03
28.203,68.71
28.218,87.32
28.234,104.67
28.250,119.73
28.265,131.62
28.281,139.5
28.296,142.65
28.312,140.7
28.328,133.9
28.343,123.09
28.359,109.55
28.375,94.72
28.390,79.63
28.406,64.89
28.421,50.49
28.437,36.1
28.453,21.38
28.468,6.15
28.484,-9.54
28.500,-25.48
28.515,-41.39
28.531,-57.0
28.546,-71.75
28.562,-84.82
28.578,-94.97
28.593,-100.89
28.609,-101.61
28.625,-97.19
28.640,-88.84
28.656,-78.67
28.671,-69.05
28.687,-61.72
28.703,-57.31
28.718,-55.2
28.734,-54.17
28.750,-53.01
28.765,-51.26
28.781,-49.26
28.796,-47.91
28.812,-48.18
28.828,-50.42
28.843,-54.26
28.859,-58.6
28.875,-62.08
28.890,-63.41
28.906,-61.74
28.921,-56.73
28.937,-48.53
28.953,-37.73
28.968,-25.29
28.984,-12.57
29.000,-1.35
29.015,6.57
29.031,9.96
29.046,8.7
29.062,4.25
29.078,-0.7
29.093,-2.95
29.109,0.11
29.125,9.57
29.140,24.68
29.156,43.2
29.171,62.48
29.187,80.36
29.203,95.78
29.218,108.76
29.234,119.8
29.250,129.34
29.265,137.42
29.281,143.62
29.296,147.35
29.312,148.12
29.328,145.78
29.343,140.44
29.359,132.47
29.375,122.26
29.390,110.28
29.406,97.09
29.421,83.15
29.437,68.9
29.453,54.53
29.468,39.97
29.484,25.05
29.500,9.59
29.515,-6.47
29.531,-22.74
29.546,-38.56
29.562,-52.84
29.578,-64.38
29.593,-72.09
29.609,-75.3
29.625,-73.97
29.640,-68.86
29.656,-61.57
29.671,-54.14
29.687,-48.69
29.703,-46.66
29.718,-48.41
29.734,-53.24
29.750,-59.81
29.765,-66.61
29.781,-72.49
29.796,-76.91
29.812,-79.87
29.828,-81.71
29.843,-82.97
29.859,-84.24
29.875,-86.14
29.890,-89.3
29.906,-93.94
29.921,-99.65
29.937,-105.28
29.953,-109.13
29.968,-109.56
29.984,-105.53
30.000,-96.81
30.015,-83.85
30.031,-67.53
30.046,-48.58
30.062,-27.61
30.078,-5.12
30.093,18.3
30.109,41.77
30.125,64.2
30.140,84.54
30.156,102.03
30.171,116.25
30.187,127.18
30.203,134.9
30.218,139.55
30.234,141.34
30.250,140.44
30.265,137.04
30.281,131.32
30.296,123.48
30.312,113.83
30.328,102.93
30.343,91.51
30.359,80.35
30.375,70.2
30.390,61.52
30.406,54.39
30.421,48.67
30.437,43.98
30.453,39.81
30.468,35.71
30.484,31.21
30.500,25.85
30.515,19.51
30.531,12.36
30.546,5.1
30.562,-1.29
30.578,-5.81
30.593,-7.96
30.609,-7.9
30.625,-6.46
30.640,-4.9
30.656,-4.4
30.671,-5.85
30.687,-9.54
30.703,-15.31
30.718,-22.71
30.734,-31.18
30.750,-40.2
30.765,-49.3
30.781,-58.04
30.796,-65.92
30.812,-72.44
30.828,-77.23
30.843,-80.08
30.859,-81.18
30.875,-81.08
30.890,-80.69
30.906,-81.03
30.921,-82.97
30.937,-86.88
30.953,-92.53
30.968,-99.13
30.984,-105.36
31.000,-109.73
31.015,-110.7
31.031,-106.96
31.046,-97.71
31.062,-82.89
31.078,-63.35
31.093,-40.71
31.109,-17.06
31.125,5.47
31.140,25.23
31.156,41.3
31.171,53.4
31.187,61.6
31.203,66.11
31.218,67.14
31.234,65.03
31.250,60.52
31.265,54.9
31.281,49.84
31.296,46.99
31.312,47.54
31.328,51.65
31.343,58.4
31.359,66.13
31.375,73.11
31.390,78.05
31.406,80.66
31.421,81.44
31.437,81.21
31.453,80.66
31.468,80.03
31.484,79.34
31.500,78.69
31.515,78.49
31.531,79.35
31.546,81.75
31.562,85.63
31.578,90.19
31.593,93.97
31.609,95.35
31.625,93.02
31.640,86.4
31.656,75.75
31.671,62.09
31.687,46.88
31.703,31.55
31.718,17.17
31.734,4.23
31.750,-7.35
31.765,-17.9
31.781,-27.76
31.796,-37.12
31.812,-45.96
31.828,-54.12
31.843,-61.44
31.859,-67.82
31.875,-73.13
31.890,-77.33
31.906,-80.63
31.921,-83.45
31.937,-86.5
31.953,-90.56
31.968,-96.11
31.984,-103.06
32.000,-110.48
32.015,-116.77
32.031,-120.08
32.046,-118.87
32.062,-112.35
32.078,-100.81
32.093,-85.58
32.109,-68.5
32.125,-51.52
32.140,-36.07
32.156,-22.9
32.171,-12.1
32.187,-3.45
32.203,3.38
32.218,8.62
32.234,12.42
32.250,15.01
32.265,16.61
32.281,17.5
32.296,17.8
32.312,17.57
32.328,16.88
32.343,15.99
32.359,15.36
32.375,15.56
32.390,17.0
32.406,19.57
32.421,22.77
32.437,25.89
32.453,28.35
32.468,30.14
32.484,31.87
32.500,34.44
32.515,38.78
32.531,45.4
32.546,54.16
32.562,64.55
32.578,75.83
32.593,87.27
32.609,98.27
32.625,108.23
32.640,116.34
32.656,121.53
32.671,122.75
32.687,119.12
32.703,110.49
32.718,97.33
32.734,80.74
32.750,61.96
32.765,42.11
32.781,22.01
32.796,2.24
32.812,-16.7
32.828,-34.31
32.843,-49.98
32.859,-63.35
32.875,-74.32
32.890,-83.15
32.906,-90.5
32.921,-97.28
32.937,-104.29
32.953,-111.95
32.968,-120.13
32.984,-127.87
33.000,-133.7
33.015,-136.07
33.031,-133.89
33.046,-127.03
33.062,-116.37
33.078,-103.44
33.093,-89.99
33.109,-77.49
33.125,-66.87
33.140,-58.67
33.156,-53.18
33.171,-50.49
33.187,-50.44
33.203,-52.41
33.218,-55.39
33.234,-58.11
33.250,-59.48
33.265,-58.87
33.281,-56.24
33.296,-52.03
33.312,-46.72
33.328,-40.61
33.343,-33.59
33.359,-25.44
33.375,-16.07
33.390,-5.86
33.406,4.36
33.421,13.46
33.437,20.41
33.453,24.9
33.468,27.5
33.484,29.67
33.500,33.29
33.515,39.93
33.531,50.24
33.546,63.66
33.562,78.71
33.578,93.48
33.593,106.38
33.609,116.49
33.625,123.72
33.640,128.35
33.656,130.66
33.671,130.69
33.687,128.37
33.703,123.85
33.718,117.75
33.734,111.07
33.750,104.7
33.765,98.94
33.781,93.14
33.796,86.01
33.812,76.18
33.828,62.93
33.843,46.6
33.859,28.17
33.875,8.9
33.890,-10.41
33.906,-29.52
33.921,-48.58
33.937,-67.51
33.953,-85.74
33.968,-102.08
33.984,-115.1
34.000,-123.7
34.015,-127.41
34.031,-126.6
34.046,-122.24
34.062,-115.53
34.078,-107.51
34.093,-98.86
34.109,-89.97
34.125,-81.07
34.140,-72.54
34.156,-65.03
34.171,-59.33
34.187,-56.15
34.203,-55.78
34.218,-58.01
34.234,-62.19
34.250,-67.54
34.265,-73.26
34.281,-78.76
34.296,-83.46
34.312,-86.65
34.328,-87.56
34.343,-85.52
34.359,-80.34
34.375,-72.56
34.390,-63.55
34.406,-55.0
34.421,-48.45
34.437,-44.57
34.453,-42.89
34.468,-41.94
34.484,-39.86
34.500,-35.13
34.515,-27.06
34.531,-16.09
34.546,-3.28
34.562,10.01
34.578,22.71
34.593,34.19
34.609,44.15
34.625,52.51
34.640,59.21
34.656,64.2
34.671,67.65
34.687,70.19
34.703,72.76
34.718,76.58
34.734,82.65
34.750,91.41
34.765,102.48
34.781,114.75
34.796,126.72
34.812,136.96
34.828,144.74
34.843,149.86
34.859,152.59
34.875,153.2
34.890,151.55
34.906,147.0
34.921,138.67
34.937,126.11
34.953,109.66
34.968,90.72
34.984,71.27
35.000,53.27
35.015,37.95
35.031,25.46
35.046,15.05
35.062,5.64
35.078,-3.67
35.093,-13.13
35.109,-22.44
35.125,-31.06
35.140,-38.58
35.156,-44.98
35.171,-50.6
35.187,-55.87
35.203,-61.18
35.218,-66.7
35.234,-72.43
35.250,-78.27
35.265,-84.12
35.281,-89.85
35.296,-95.22
35.312,-99.85
35.328,-103.2
35.343,-104.68
35.359,-103.94
35.375,-101.04
35.390,-96.49
35.406,-91.17
35.421,-85.99
35.437,-81.39
35.453,-77.01
35.468,-71.87
35.484,-64.6
35.500,-54.24
35.515,-40.72
35.531,-24.92
35.546,-8.43
35.562,7.22
35.578,21.05
35.593,32.91
35.609,43.22
35.625,52.58
35.640,61.26
35.656,69.16
35.671,75.95
35.687,81.32
35.703,85.21
35.718,87.83
35.734,89.41
35.750,90.07
35.765,89.62
35.781,87.58
35.796,83.46
35.812,77.1
35.828,68.83
35.843,59.44
35.859,49.86
35.875,40.62
35.890,31.72
35.906,22.63
35.921,12.77
35.937,2.13
35.953,-8.34
35.968,-16.88
35.984,-21.57
36.000,-21.21
36.015,-16.01
36.031,-7.55
36.046,1.75
36.062,9.53
36.078,14.19
36.093,15.3
36.109,13.26
36.125,8.96
36.140,3.02
36.156,-4.29
36.171,-12.96
36.187,-22.94
36.203,-33.86
36.218,-45.05
36.234,-55.78
36.250,-65.63
36.265,-74.49
36.281,-82.5
36.296,-89.55
36.312,-95.03
36.328,-97.92
36.343,-97.23
36.359,-92.73
36.375,-85.36
36.390,-77.17
36.406,-70.47
36.421,-66.65
36.437,-65.4
36.453,-64.6
36.468,-61.22
36.484,-52.56
36.500,-37.6
36.515,-17.39
36.531,5.36
36.546,27.46
36.562,46.41
36.578,61.09
36.593,71.71
36.609,79.1
36.625,84.09
36.640,86.91
36.656,87.34
36.671,85.25
36.687,81.03
36.703,75.81
36.718,71.18
36.734,68.58
36.750,68.53
36.765,70.57
36.781,73.3
36.796,75.03
36.812,74.51
36.828,71.29
36.843,65.63
36.859,58.27
36.875,49.94
36.890,41.18
36.906,32.48
36.921,24.52
36.937,18.37
36.953,15.39
36.968,16.65
36.984,22.46
37.000,31.92
37.015,42.95
37.031,52.85
37.046,59.21
37.062,60.56
37.078,56.83
37.093,49.09
37.109,38.94
37.125,27.83
37.140,16.8
37.156,6.12
37.171,-4.18
37.187,-14.11
37.203,-23.51
37.218,-32.13
37.234,-39.65
37.250,-45.96
37.265,-51.1
37.281,-55.19
37.296,-58.4
37.312,-60.84
37.328,-62.61
37.343,-64.03
37.359,-65.55
37.375,-67.71
37.390,-70.9
37.406,-75.03
37.421,-79.3
37.437,-82.26
37.453,-82.11
37.468,-77.32
37.484,-67.17
37.500,-52.11
37.515,-33.72
37.531,-14.31
37.546,3.75
37.562,18.72
37.578,29.75
37.593,36.98
37.609,41.1
37.625,42.95
37.640,43.27
37.656,42.55
37.671,41.17
37.687,39.51
37.703,38.14
37.718,37.69
37.734,38.67
37.750,41.15
37.765,44.78
37.781,49.0
37.796,53.15
37.812,56.84
37.828,59.8
37.843,61.75
37.859,62.21
37.875,60.6
37.890,56.49
37.906,50.01
37.921,42.23
37.937,34.91
37.953,30.02
37.968,28.97
37.984,32.02
38.000,38.16
38.015,45.54
38.031,52.18
38.046,56.54
38.062,57.78
38.078,55.64
38.093,50.22
38.109,41.68
38.125,30.28
38.140,16.53
38.156,1.37
38.171,-13.93
38.187,-28.05
38.203,-39.95
38.218,-49.24
38.234,-56.06
38.250,-61.09
38.265,-65.19
38.281,-69.07
38.296,-73.12
38.312,-77.26
38.328,-81.23
38.343,-84.7
38.359,-87.69
38.375,-90.59
38.390,-93.92
38.406,-97.97
38.421,-102.44
38.437,-106.18
38.453,-107.56
38.468,-105.06
38.484,-97.79
38.500,-86.04
38.515,-71.19
38.531,-55.17
38.546,-39.8
38.562,-26.43
38.578,-15.6
38.593,-7.38
38.609,-1.54
38.625,2.2
38.640,4.16
38.656,4.9
38.671,5.24
38.687,6.13
38.703,8.39
38.718,12.35
38.734,17.81
38.750,24.21
38.765,31.06
38.781,38.15
38.796,45.49
38.812,53.21
38.828,61.11
38.843,68.49
38.859,74.54
38.875,78.56
38.890,80.53
38.906,81.22
38.921,82.0
38.937,84.36
38.953,89.35
38.968,97.18
38.984,107.01
39.000,117.26
39.015,125.9
39.031,130.96
39.046,131.03
39.062,125.44
39.078,114.43
39.093,99.04
39.109,80.78
39.125,61.23
39.140,41.68
39.156,22.94
39.171,5.35
39.187,-11.05
39.203,-26.33
39.218,-40.36
39.234,-52.93
39.250,-63.76
39.265,-72.75
39.281,-79.99
39.296,-85.88
39.312,-91.01
39.328,-95.95
39.343,-101.39
39.359,-107.81
39.375,-115.46
39.390,-123.97
39.406,-132.15
39.421,-137.98
39.437,-139.01
39.453,-133.2
39.468,-119.82
39.484,-100.01
39.500,-76.58
39.515,-53.31
39.531,-33.58
39.546,-19.36
39.562,-10.75
39.578,-6.27
39.593,-3.75
39.609,-1.29
39.625,2.07
39.640,6.24
39.656,10.36
39.671,13.41
39.687,14.71
39.703,14.03
39.718,11.7
39.734,8.31
39.750,4.53
39.765,0.97
39.781,-1.89
39.796,-3.56
39.812,-3.61
39.828,-1.56
39.843,2.73
39.859,9.11
39.875,17.0
39.890,25.62
39.906,34.29
39.921,42.83
39.937,51.58
39.953,61.34
39.968,72.91
39.984,86.4
40.000,101.12
40.015,115.5
40.031,127.47
40.046,135.08
40.062,136.98
40.078,132.8
40.093,123.05
40.109,109.06
40.125,92.37
40.140,74.54
40.156,56.7
40.171,39.49
40.187,23.1
40.203,7.39
40.218,-7.84
40.234,-22.83
40.250,-37.66
40.265,-52.27
40.281,-66.37
40.296,-79.43
40.312,-90.86
40.328,-100.08
40.343,-107.0
40.359,-111.92
40.375,-115.73
40.390,-119.23
40.406,-122.77
40.421,-125.72
40.437,-126.61
40.453,-123.68
40.468,-115.43
40.484,-101.57
40.500,-83.06
40.515,-62.07
40.531,-41.15
40.546,-22.63
40.562,-8.09
40.578,1.87
40.593,7.36
40.609,9.09
40.625,7.98
40.640,5.1
40.656,1.49
40.671,-1.98
40.687,-4.75
40.703,-6.66
40.718,-7.78
40.734,-8.32
40.750,-8.38
40.765,-7.91
40.781,-6.8
40.796,-4.85
40.812,-1.87
40.828,2.44
40.843,8.29
40.859,15.91
40.875,25.03
40.890,35.01
40.906,44.92
40.921,54.11
40.937,62.68
40.953,71.57
40.968,82.16
40.984,95.46
41.000,111.6
41.015,129.47
41.031,147.2
41.046,162.83
41.062,174.93
41.078,182.88
41.093,186.56
41.109,186.02
41.125,181.17
41.140,171.77
41.156,157.65
41.171,139.07
41.187,116.81
41.203,92.02
41.218,66.03
41.234,39.84
41.250,13.98
41.265,-11.37
41.281,-36.15
41.296,-60.13
41.312,-82.82
41.328,-103.5
41.343,-121.59
41.359,-136.72
41.375,-148.96
41.390,-158.67
41.406,-166.1
41.421,-171.14
41.437,-173.12
41.453,-171.12
41.468,-164.48
41.484,-153.39
41.500,-139.01
41.515,-123.11
41.531,-107.57
41.546,-93.53
41.562,-81.16
41.578,-69.84
41.593,-58.78
41.609,-47.7
41.625,-37.16
41.640,-28.2
41.656,-21.8
41.671,-18.21
41.687,-16.87
41.703,-16.63
41.718,-16.37
41.734,-15.45
41.750,-13.93
41.765,-12.22
41.781,-10.69
41.796,-9.22
41.812,-7.28
41.828,-4.24
41.843,0.27
41.859,5.94
41.875,12.06
41.890,17.72
41.906,22.48
41.921,26.52
41.937,30.81
41.953,36.61
41.968,45.02
41.984,56.52
42.000,70.71
42.015,86.54
42.031,102.53
42.046,117.28
42.062,129.57
42.078,138.63
42.093,143.99
42.109,145.35
42.125,142.66
42.140,136.09
42.156,126.17
42.171,113.8
42.187,100.18
42.203,86.5
42.218,73.58
42.234,61.61
42.250,49.89
42.265,37.15
42.281,22.01
42.296,3.66
42.312,-17.63
42.328,-40.67
42.343,-63.69
42.359,-85.21
42.375,-104.51
42.390,-121.71
42.406,-137.19
42.421,-151.08
42.437,-162.61
42.453,-170.4
42.468,-173.05
42.484,-169.96
42.500,-161.86
42.515,-150.61
42.531,-138.47
42.546,-126.95
42.562,-116.47
42.578,-106.19
42.593,-94.76
42.609,-81.25
42.625,-65.82
42.640,-49.63
42.656,-34.5
42.671,-22.14
42.687,-13.43
42.703,-8.5
42.718,-6.83
42.734,-7.72
42.750,-10.58
42.765,-14.95
42.781,-20.2
42.796,-25.33
42.812,-29.04
42.828,-29.97
42.843,-27.36
42.859,-21.46
42.875,-13.69
42.890,-6.19
42.906,-0.99
42.921,0.94
42.937,0.22
42.953,-1.03
42.968,0.06
42.984,5.8
43.000,17.27
43.015,33.88
43.031,53.86
43.046,75.23
43.062,96.36
43.078,116.22
43.093,134.07
43.109,149.28
43.125,160.94
43.140,168.3
43.156,171.16
43.171,169.92
43.187,165.67
43.203,159.53
43.218,152.22
43.234,143.64
43.250,133.23
43.265,120.15
43.281,103.9
43.296,84.46
43.312,62.33
43.328,38.42
43.343,13.64
43.359,-11.24
43.375,-35.69
43.390,-59.27
43.406,-81.53
43.421,-101.71
43.437,-118.61
43.453,-130.75
43.468,-136.63
43.484,-135.35
43.500,-127.05
43.515,-113.25
43.531,-96.51
43.546,-79.96
43.562,-66.36
43.578,-57.24
43.593,-52.79
43.609,-51.95
43.625,-53.02
43.640,-54.29
43.656,-54.61
43.671,-53.37
43.687,-50.38
43.703,-45.88
43.718,-40.24
43.734,-34.09
43.750,-28.22
43.765,-23.52
43.781,-20.55
43.796,-19.59
43.812,-20.4
43.828,-22.38
43.843,-24.87
43.859,-27.4
43.875,-29.89
43.890,-32.44
43.906,-35.22
43.921,-38.09
43.937,-40.45
43.953,-41.27
43.968,-39.38
43.984,-33.85
44.000,-24.24
44.015,-10.92
44.031,5.33
44.046,23.55
44.062,42.8
44.078,62.23
44.093,81.02
44.109,98.11
44.125,112.37
44.140,122.93
44.156,129.42
44.171,132.24
44.187,132.46
44.203,131.24
44.218,129.34
44.234,126.75
44.250,122.92
44.265,117.09
44.281,108.84
44.296,98.34
44.312,86.26
44.328,73.27
44.343,59.75
44.359,45.64
44.375,30.53
44.390,14.07
44.406,-3.58
44.421,-21.64
44.437,-38.84
44.453,-53.59
44.468,-64.54
44.484,-70.82
44.500,-72.25
44.515,-69.36
44.531,-63.24
44.546,-55.29
44.562,-46.96
44.578,-39.61
44.593,-34.3
44.609,-31.7
44.625,-32.1
44.640,-35.35
44.656,-40.86
44.671,-47.73
44.687,-54.91
44.703,-61.53
44.718,-67.01
44.734,-71.31
44.750,-74.63
44.765,-77.25
44.781,-79.22
44.796,-80.32
44.812,-80.15
44.828,-78.34
44.843,-74.94
44.859,-70.41
44.875,-65.44
44.890,-60.73
44.906,-56.65
44.921,-53.12
44.937,-49.73
44.953,-45.92
44.968,-41.12
44.984,-34.87
45.000,-26.87
45.015,-16.98
45.031,-5.38
45.046,7.46
45.062,20.82
45.078,33.78
45.093,45.46
45.109,55.2
45.125,62.74
45.140,68.15
45.156,71.84
45.171,74.35
45.187,76.16
45.203,77.51
45.218,78.32
45.234,78.23
45.250,76.77
45.265,73.65
45.281,68.83
45.296,62.57
45.312,55.27
45.328,47.3
45.343,38.88
45.359,29.96
45.375,20.5
45.390,10.53
45.406,0.24
45.421,-9.9
45.437,-19.28
45.453,-27.09
45.468,-32.58
45.484,-35.01
45.500,-34.08
45.515,-29.85
45.531,-23.04
45.546,-15.01
45.562,-7.44
45.578,-2.08
45.593,-0.27
45.609,-2.69
45.625,-9.25
45.640,-19.24
45.656,-31.4
45.671,-44.22
45.687,-56.03
45.703,-65.24
45.718,-70.57
45.734,-71.29
45.750,-67.48
45.765,-60.06
45.781,-50.6
45.796,-40.94
45.812,-32.65
45.828,-26.64
45.843,-23.05
45.859,-21.63
45.875,-22.07
45.890,-24.3
45.906,-28.36
45.921,-34.03
45.937,-40.36
45.953,-45.66
45.968,-48.03
45.984,-45.99
46.000,-39.22
46.015,-28.59
46.031,-15.65
46.046,-2.07
46.062,10.95
46.078,22.69
46.093,32.68
46.109,40.79
46.125,47.2
46.140,52.63
46.156,58.24
46.171,65.28
46.187,74.36
46.203,85.19
46.218,96.75
46.234,107.75
46.250,117.38
46.265,125.48
46.281,132.26
46.296,137.77
46.312,141.47
46.328,142.33
46.343,139.36
46.359,132.16
46.375,121.1
46.390,107.27
46.406,92.08
46.421,76.83
46.437,62.67
46.453,50.43
46.468,40.56
46.484,33.12
46.500,27.62
46.515,23.03
46.531,18.1
46.546,11.61
46.562,2.79
46.578,-8.53
46.593,-21.96
46.609,-36.7
46.625,-51.74
46.640,-66.14
46.656,-79.2
46.671,-90.53
46.687,-100.19
46.703,-108.56
46.718,-116.05
46.734,-122.75
46.750,-128.24
46.765,-131.63
46.781,-132.06
46.796,-129.1
46.812,-123.12
46.828,-115.26
46.843,-107.1
46.859,-100.2
46.875,-95.58
46.890,-93.47
46.906,-92.87
46.921,-91.83
46.937,-87.75
46.953,-78.17
46.968,-61.76
46.984,-38.95
47.000,-11.99
47.015,15.76
47.031,40.91
47.046,61.1
47.062,75.46
47.078,84.39
47.093,88.93
47.109,90.18
47.125,88.98
47.140,86.15
47.156,82.6
47.171,79.46
47.187,77.76
47.203,78.04
47.218,80.01
47.234,82.62
47.250,84.4
47.265,84.08
47.281,81.15
47.296,75.95
47.312,69.47
47.328,62.81
47.343,56.54
47.359,50.47
47.375,43.86
47.390,35.95
47.406,26.63
47.421,16.79
47.437,8.03
47.453,1.98
47.468,-0.38
47.484,0.86
47.500,4.55
47.515,9.0
47.531,12.57
47.546,14.04
47.562,12.78
47.578,8.55
47.593,1.37
47.609,-8.47
47.625,-20.45
47.640,-33.72
47.656,-47.2
47.671,-59.83
47.687,-70.82
47.703,-79.8
47.718,-86.83
47.734,-92.25
47.750,-96.35
47.765,-99.3
47.781,-100.97
47.796,-101.02
47.812,-99.1
47.828,-95.19
47.843,-89.69
47.859,-83.45
47.875,-77.5
47.890,-72.37
47.906,-67.89
47.921,-63.03
47.937,-56.41
47.953,-46.82
47.968,-33.93
47.984,-18.43
48.000,-1.67
48.015,14.82
48.031,30.01
48.046,43.48
48.062,55.38
48.078,65.99
48.093,75.37
48.109,83.27
48.125,89.32
48.140,93.35
48.156,95.52
48.171,96.39
48.187,96.55
48.203,96.52
48.218,96.59
48.234,96.72
48.250,96.76
48.265,96.56
48.281,95.97
48.296,94.74
48.312,92.61
48.328,89.06
48.343,83.55
48.359,75.72
48.375,65.57
48.390,53.72
48.406,41.38
48.421,30.25
48.437,21.89
48.453,17.45
48.468,16.97
48.484,19.46
48.500,23.13
48.515,25.98
48.531,26.56
48.546,24.22
48.562,19.19
48.578,12.01
48.593,3.25
48.609,-6.86
48.625,-18.18
48.640,-30.33
48.656,-42.6
48.671,-53.87
48.687,-63.12
48.703,-69.66
48.718,-73.44
48.734,-75.0
48.750,-75.17
48.765,-74.79
48.781,-74.44
48.796,-74.32
48.812,-74.15
48.828,-73.39
48.843,-71.43
48.859,-67.98
48.875,-63.11
48.890,-57.29
48.906,-51.07
48.921,-44.66
48.937,-37.97
48.953,-30.62
48.968,-22.29
48.984,-13.07
49.000,-3.62
49.015,5.07
49.031,11.89
49.046,15.95
49.062,16.77
49.078,14.35
49.093,9.18
49.109,2.34
49.125,-4.75
49.140,-10.6
49.156,-14.04
49.171,-14.59
49.187,-12.52
49.203,-8.58
49.218,-3.55
49.234,2.05
49.250,8.05
49.265,14.56
49.281,21.63
49.296,29.09
49.312,36.47
49.328,43.09
49.343,48.25
49.359,51.53
49.375,52.98
49.390,53.09
49.406,52.76
49.421,52.98
49.437,54.45
49.453,57.31
49.468,61.1
49.484,65.01
49.500,68.2
49.515,70.02
49.531,70.06
49.546,68.08
49.562,63.86
49.578,57.19
49.593,48.02
49.609,36.61
49.625,23.57
49.640,9.78
49.656,-3.86
49.671,-16.77
49.687,-28.59
49.703,-39.27
49.718,-48.87
49.734,-57.25
49.750,-64.14
49.765,-69.24
49.781,-72.44
49.796,-74.1
49.812,-74.99
49.828,-76.06
49.843,-78.06
49.859,-81.27
49.875,-85.2
49.890,-88.84
49.906,-90.95
49.921,-90.55
49.937,-87.21
49.953,-81.21
49.968,-73.33
49.984,-64.42
50.000,-55.2
50.015,-45.92
50.031,-36.73
50.046,-27.65
50.062,-19.07
50.078,-11.69
50.093,-6.28
50.109,-3.21
50.125,-2.18
50.140,-2.18
50.156,-1.73
50.171,0.3
50.187,4.51
50.203,10.73
50.218,18.19
50.234,25.93
50.250,33.14
50.265,39.38
50.281,44.54
50.296,48.98
50.312,53.16
50.328,57.61
50.343,62.79
50.359,68.93
50.375,76.1
50.390,84.21
50.406,93.14
50.421,102.71
50.437,112.73
50.453,122.73
50.468,131.87
50.484,139.04
50.500,143.02
50.515,142.95
50.531,138.32
50.546,129.17
50.562,115.8
50.578,98.84
50.593,79.03
50.609,57.33
50.625,34.94
50.640,12.99
50.656,-7.5
50.671,-26.04
50.687,-42.62
50.703,-57.49
50.718,-70.86
50.734,-82.65
50.750,-92.57
50.765,-100.34
50.781,-106.21
50.796,-110.97
50.812,-115.9
50.828,-122.17
50.843,-130.08
50.859,-138.72
50.875,-145.99
50.890,-149.19
50.906,-146.01
50.921,-135.55
50.937,-118.64
50.953,-97.83
50.968,-76.39
50.984,-57.25
51.000,-42.17
51.015,-31.41
51.031,-24.26
51.046,-19.58
51.062,-16.62
51.078,-15.05
51.093,-14.75
51.109,-15.42
51.125,-16.42
51.140,-16.83
51.156,-15.91
51.171,-13.47
51.187,-9.92
51.203,-6.18
51.218,-3.15
51.234,-1.26
51.250,-0.32
51.265,0.28
51.281,1.2
51.296,2.85
51.312,5.14
51.328,7.71
51.343,10.16
51.359,12.55
51.375,15.51
51.390,20.23
51.406,28.07
51.421,39.97
51.437,56.1
51.453,75.56
51.468,96.51
51.484,116.59
51.500,133.54
51.515,145.67
51.531,152.08
51.546,152.64
51.562,147.71
51.578,137.86
51.593,123.75
51.609,106.12
51.625,85.93
51.640,64.42
51.656,42.89
51.671,22.44
51.687,3.67
51.703,-13.38
51.718,-28.97
51.734,-43.34
51.750,-56.5
51.765,-68.31
51.781,-78.54
51.796,-87.32
51.812,-95.02
51.828,-102.04
51.843,-108.46
51.859,-113.57
51.875,-116.06
51.890,-114.41
51.906,-107.62
51.921,-95.75
51.937,-80.23
51.953,-63.22
51.968,-47.07
51.984,-33.59
52.000,-23.53
52.015,-16.76
52.031,-12.67
52.046,-10.57
52.062,-9.96
52.078,-10.69
52.093,-12.47
52.109,-14.77
52.125,-16.82
52.140,-17.74
52.156,-17.01
52.171,-14.79
52.187,-11.86
52.203,-9.3
52.218,-8.03
52.234,-8.29
52.250,-9.58
52.265,-11.07
52.281,-11.94
52.296,-11.84
52.312,-10.93
52.328,-9.46
52.343,-7.4
52.359,-4.27
52.375,0.88
52.390,9.02
52.406,20.71
52.421,35.95
52.437,53.99
52.453,73.67
52.468,93.63
52.484,112.43
52.500,128.74
52.515,141.4
52.531,149.38
52.546,151.91
52.562,148.57
52.578,139.41
52.593,124.96
52.609,106.24
52.625,84.62
52.640,61.51
52.656,38.23
52.671,15.82
52.687,-5.03
52.703,-23.94
52.718,-40.75
52.734,-55.59
52.750,-68.59
52.765,-80.0
52.781,-90.13
52.796,-99.23
52.812,-107.48
52.828,-114.7
52.843,-120.32
52.859,-123.19
52.875,-122.01
52.890,-115.6
52.906,-103.48
52.921,-86.26
52.937,-65.71
52.953,-44.32
52.968,-24.57
52.984,-8.33
53.000,3.6
53.015,11.29
53.031,15.31
53.046,16.35
53.062,14.94
53.078,11.61
53.093,6.9
53.109,1.66
53.125,-3.16
53.140,-6.76
53.156,-8.8
53.171,-9.62
53.187,-10.01
53.203,-11.02
53.218,-13.31
53.234,-16.97
53.250,-21.35
53.265,-25.26
53.281,-27.47
53.296,-27.28
53.312,-24.7
53.328,-20.2
53.343,-14.51
53.359,-7.79
53.375,0.34
53.390,10.61
53.406,23.48
53.421,38.74
53.437,55.36
53.453,71.8
53.468,86.56
53.484,98.64
53.500,107.74
53.515,113.84
53.531,116.91
53.546,116.6
53.562,112.25
53.578,103.35
53.593,89.86
53.609,72.37
53.625,52.11
53.640,30.59
53.656,9.23
53.671,-11.0
53.687,-29.56
53.703,-46.5
53.718,-61.89
53.734,-75.87
53.750,-88.44
53.765,-99.68
53.781,-109.71
53.796,-118.89
53.812,-127.41
53.828,-134.8
53.843,-139.93
53.859,-140.86
53.875,-135.66
53.890,-123.13
53.906,-103.56
53.921,-78.78
53.937,-51.77
53.953,-25.58
53.968,-2.55
53.984,15.94
54.000,29.57
54.015,38.57
54.031,43.29
54.046,44.14
54.062,41.58
54.078,36.24
54.093,28.96
54.109,20.76
54.125,12.56
54.140,5.16
54.156,-0.81
54.171,-5.08
54.187,-7.61
54.203,-8.68
54.218,-8.7
54.234,-8.11
54.250,-7.2
54.265,-6.21
54.281,-5.37
54.296,-4.92
54.312,-5.04
54.328,-5.43
54.343,-5.12
54.359,-2.52
54.375,4.02
54.390,15.61
54.406,32.08
54.421,52.06
54.437,73.33
54.453,93.58
54.468,111.06
54.484,124.81
54.500,134.41
54.515,139.69
54.531,140.48
54.546,136.59
54.562,127.9
54.578,114.75
54.593,97.8
54.609,78.07
54.625,56.71
54.640,34.71
54.656,13.0
54.671,-7.65
54.687,-26.51
54.703,-43.02
54.718,-56.67
54.734,-67.25
54.750,-74.86
54.765,-80.05
54.781,-83.92
54.796,-87.74
54.812,-92.71
54.828,-99.39
54.843,-107.34
54.859,-114.97
54.875,-119.98
54.890,-119.92
54.906,-113.02
54.921,-98.96
54.937,-79.0
54.953,-55.69
54.968,-32.27
54.984,-11.64
55.000,4.27
55.015,14.77
55.031,20.43
55.046,22.58
55.062,22.73
55.078,22.01
55.093,20.95
55.109,19.47
55.125,17.22
55.140,13.78
55.156,8.91
55.171,2.57
55.187,-5.01
55.203,-13.39
55.218,-21.89
55.234,-29.55
55.250,-35.26
55.265,-38.1
55.281,-37.71
55.296,-34.42
55.312,-29.2
55.328,-22.9
55.343,-15.78
55.359,-7.21
55.375,4.04
55.390,19.0
55.406,37.73
55.421,58.99
55.437,80.54
55.453,99.89
55.468,115.13
55.484,125.27
55.500,130.22
55.515,130.41
55.531,126.38
55.546,118.65
55.562,107.69
55.578,94.13
55.593,78.76
55.609,62.51
55.625,46.25
55.640,30.6
55.656,15.82
55.671,1.91
55.687,-11.38
55.703,-24.28
55.718,-36.86
55.734,-49.1
55.750,-60.88
55.765,-72.26
55.781,-83.39
55.796,-94.42
55.812,-105.05
55.828,-114.23
55.843,-120.11
55.859,-120.52
55.875,-113.76
55.890,-99.42
55.906,-78.78
55.921,-54.69
55.937,-30.64
55.953,-9.89
55.968,5.46
55.984,14.92
56.000,19.26
56.015,20.06
56.031,18.96
56.046,17.34
56.062,16.05
56.078,15.47
56.093,15.75
56.109,16.76
56.125,18.35
56.140,20.17
56.156,21.74
56.171,22.53
56.187,22.21
56.203,20.79
56.218,18.78
56.234,17.03
56.250,16.25
56.265,16.78
56.281,18.42
56.296,20.68
56.312,23.2
56.328,26.25
56.343,30.7
56.359,37.78
56.375,48.33
56.390,62.19
56.406,78.04
56.421,93.63
56.437,106.5
56.453,114.81
56.468,117.75
56.484,115.71
56.500,109.88
56.515,101.64
56.531,91.94
56.546,81.23
56.562,69.45
56.578,56.36
56.593,42.08
56.609,27.03
56.625,11.96
56.640,-2.44
56.656,-15.79
56.671,-28.27
56.687,-40.27
56.703,-52.22
56.718,-64.2
56.734,-75.92
56.750,-86.92
56.765,-96.86
56.781,-105.62
56.796,-113.19
56.812,-119.29
56.828,-123.02
56.843,-122.95
56.859,-117.52
56.875,-105.82
56.890,-88.25
56.906,-66.61
56.921,-43.65
56.937,-22.32
56.953,-4.83
56.968,7.72
56.984,15.39
57.000,18.92
57.015,19.4
57.031,17.86
57.046,15.14
57.062,11.99
57.078,9.09
57.093,7.02
57.109,6.19
57.125,6.77
57.140,8.57
57.156,11.09
57.171,13.68
57.187,15.7
57.203,16.89
57.218,17.29
57.234,17.2
57.250,16.83
57.265,16.09
57.281,14.66
57.296,12.27
57.312,9.26
57.328,6.66
57.343,6.08
57.359,8.99
57.375,16.07
57.390,26.78
57.406,39.36
57.421,51.54
57.437,61.37
57.453,67.86
57.468,71.2
57.484,72.42
57.500,72.73
57.515,72.94
57.531,73.17
57.546,72.86
57.562,71.24
57.578,67.64
57.593,61.92
57.609,54.34
57.625,45.45
57.640,35.75
57.656,25.58
57.671,15.0
57.687,3.95
57.703,-7.49
57.718,-19.12
57.734,-30.61
57.750,-41.67
57.765,-52.13
57.781,-61.89
57.796,-70.7
57.812,-78.1
57.828,-83.35
57.843,-85.63
57.859,-84.35
57.875,-79.39
57.890,-71.29
57.906,-61.14
57.921,-50.37
57.937,-40.33
57.953,-32.07
57.968,-26.09
57.984,-22.42
58.000,-20.8
58.015,-20.91
58.031,-22.63
58.046,-26.06
58.062,-31.2
58.078,-37.67
58.093,-44.54
58.109,-50.41
58.125,-53.93
58.140,-54.37
58.156,-51.84
58.171,-47.34
58.187,-42.15
58.203,-37.37
58.218,-33.58
58.234,-30.81
58.250,-28.85
58.265,-27.37
58.281,-26.0
58.296,-24.0
58.312,-20.27
58.328,-13.48
58.343,-2.58
58.359,12.63
58.375,31.27
58.390,51.5
58.406,71.04
58.421,87.74
58.437,100.18
58.453,107.87
58.468,111.2
58.484,111.17
58.500,108.79
58.515,104.97
58.531,100.08
58.546,94.07
58.562,86.71
58.578,77.77
58.593,67.23
58.609,55.45
58.625,43.01
58.640,30.62
58.656,19.05
58.671,8.88
58.687,0.39
58.703,-6.54
58.718,-12.44
58.734,-18.16
58.750,-24.51
58.765,-32.03
58.781,-40.75
58.796,-49.99
58.812,-58.73
58.828,-65.77
58.843,-70.14
58.859,-71.48
58.875,-70.15
58.890,-67.16
58.906,-63.82
58.921,-61.32
58.937,-60.22
58.953,-60.45
58.968,-61.35
58.984,-62.07
59.000,-61.98
59.015,-60.8
59.031,-58.67
59.046,-55.88
59.062,-52.7
59.078,-49.17
59.093,-45.26
59.109,-40.95
59.125,-36.39
59.140,-31.99
59.156,-28.23
59.171,-25.55
59.187,-24.13
59.203,-23.89
59.218,-24.49
59.234,-25.53
59.250,-26.52
59.265,-26.98
59.281,-26.45
59.296,-24.3
59.312,-19.94
59.328,-12.81
59.343,-2.62
59.359,10.41
59.375,25.53
59.390,41.54
59.406,57.04
59.421,70.75
59.437,81.83
59.453,89.95
59.468,95.36
59.484,98.65
59.500,100.44
59.515,101.24
59.531,101.14
59.546,99.93
59.562,97.11
59.578,92.3
59.593,85.39
59.609,76.65
59.625,66.62
59.640,55.84
59.656,44.7
59.671,33.37
59.687,21.88
59.703,10.24
59.718,-1.5
59.734,-13.25
59.750,-24.71
59.765,-35.41
59.781,-44.58
59.796,-51.23
59.812,-54.36
59.828,-53.41
59.843,-48.56
59.859,-40.95
59.875,-32.47
59.890,-25.18
59.906,-20.68
59.921,-19.62
59.937,-21.48
59.953,-24.99
59.968,-28.71
59.984,-31.67
