timestamp,value
00.000,81.19
00.015,77.2
00.031,72.4
00.046,66.89
00.062,60.93
00.078,54.81
00.093,48.65
00.109,42.49
00.125,36.18
00.140,29.53
00.156,22.46
00.171,15.07
00.187,7.55
00.203,0.01
00.218,-7.56
00.234,-15.36
00.250,-23.55
00.265,-32.21
00.281,-41.2
00.296,-50.26
00.312,-59.17
00.328,-67.87
00.343,-76.58
00.359,-85.66
00.375,-95.55
00.390,-106.55
00.406,-118.7
00.421,-131.63
00.437,-144.45
00.453,-155.82
00.468,-164.01
00.484,-167.28
00.500,-164.29
00.515,-154.48
00.531,-138.32
00.546,-117.24
00.562,-93.15
00.578,-68.04
00.593,-43.61
00.609,-20.91
00.625,-0.4
00.640,17.93
00.656,34.32
00.671,49.0
00.687,62.11
00.703,73.62
00.718,83.36
00.734,91.08
00.750,96.68
00.765,100.21
00.781,101.93
00.796,102.18
00.812,101.31
00.828,99.65
00.843,97.53
00.859,95.29
00.875,93.22
00.890,91.59
00.906,90.38
00.921,89.38
00.937,88.2
00.953,86.4
00.968,83.66
00.984,79.88
01.000,75.22
01.015,69.96
01.031,64.42
01.046,58.84
01.062,53.3
01.078,47.83
01.093,42.27
01.109,36.41
01.125,30.06
01.140,23.18
01.156,15.83
01.171,8.26
01.187,0.7
01.203,-6.77
01.218,-14.22
01.234,-21.91
01.250,-30.14
01.265,-39.11
01.281,-48.72
01.296,-58.58
01.312,-68.15
01.328,-76.97
01.343,-84.88
01.359,-92.06
01.375,-98.96
01.390,-106.2
01.406,-114.36
01.421,-123.81
01.437,-134.47
01.453,-145.72
01.468,-156.37
01.484,-164.77
01.500,-169.07
01.515,-167.73
01.531,-159.88
01.546,-145.72
01.562,-126.47
01.578,-104.02
01.593,-80.43
01.609,-57.35
01.625,-35.79
01.640,-16.07
01.656,1.94
01.671,18.54
01.687,33.93
01.703,48.05
01.718,60.6
01.734,71.21
01.750,79.61
01.765,85.71
01.781,89.65
01.796,91.75
01.812,92.41
01.828,92.05
01.843,91.04
01.859,89.71
01.875,88.32
01.890,87.07
01.906,86.09
01.921,85.28
01.937,84.38
01.953,83.0
01.968,80.75
01.984,77.4
02.000,72.99
02.015,67.8
02.031,62.26
02.046,56.72
02.062,51.36
02.078,46.11
02.093,40.69
02.109,34.82
02.125,28.4
02.140,21.53
02.156,14.56
02.171,7.8
02.187,1.43
02.203,-4.64
02.218,-10.75
02.234,-17.36
02.250,-24.88
02.265,-33.32
02.281,-42.34
02.296,-51.28
02.312,-59.48
02.328,-66.54
02.343,-72.58
02.359,-78.19
02.375,-84.28
02.390,-91.64
02.406,-100.6
02.421,-110.86
02.437,-121.41
02.453,-130.73
02.468,-137.03
02.484,-138.64
02.500,-134.39
02.515,-123.91
02.531,-107.8
02.546,-87.53
02.562,-65.08
02.578,-42.43
02.593,-21.14
02.609,-2.05
02.625,14.73
02.640,29.51
02.656,42.69
02.671,54.49
02.687,64.76
02.703,73.21
02.718,79.51
02.734,83.55
02.750,85.51
02.765,85.81
02.781,84.98
02.796,83.5
02.812,81.77
02.828,80.1
02.843,78.75
02.859,77.88
02.875,77.53
02.890,77.5
02.906,77.34
02.921,76.52
02.937,74.54
02.953,71.23
02.968,66.7
02.984,61.39
03.000,55.84
03.015,50.47
03.031,45.46
03.046,40.67
03.062,35.83
03.078,30.56
03.093,24.69
03.109,18.25
03.125,11.43
03.140,4.52
03.156,-2.31
03.171,-9.08
03.187,-16.0
03.203,-23.33
03.218,-31.31
03.234,-39.91
03.250,-48.91
03.265,-57.96
03.281,-66.72
03.296,-75.04
03.312,-82.97
03.328,-90.81
03.343,-98.9
03.359,-107.68
03.375,-117.32
03.390,-127.61
03.406,-137.85
03.421,-146.76
03.437,-152.73
03.453,-154.08
03.468,-149.61
03.484,-138.97
03.500,-122.87
03.515,-102.8
03.531,-80.69
03.546,-58.33
03.562,-36.93
03.578,-17.09
03.593,1.16
03.609,17.99
03.625,33.57
03.640,47.9
03.656,60.83
03.671,72.11
03.687,81.52
03.703,88.82
03.718,93.89
03.734,96.72
03.750,97.5
03.765,96.66
03.781,94.86
03.796,92.79
03.812,91.05
03.828,89.99
03.843,89.66
03.859,89.77
03.875,89.83
03.890,89.29
03.906,87.73
03.921,84.95
03.937,80.95
03.953,75.99
03.968,70.45
03.984,64.7
04.000,59.03
04.015,53.55
04.031,48.13
04.046,42.5
04.062,36.39
04.078,29.66
04.093,22.39
04.109,14.92
04.125,7.62
04.140,0.75
04.156,-5.67
04.171,-11.93
04.187,-18.46
04.203,-25.65
04.218,-33.66
04.234,-42.34
04.250,-51.32
04.265,-60.17
04.281,-68.56
04.296,-76.4
04.312,-83.83
04.328,-91.18
04.343,-98.93
04.359,-107.54
04.375,-117.18
04.390,-127.66
04.406,-138.14
04.421,-147.18
04.437,-152.96
04.453,-153.73
04.468,-148.27
04.484,-136.39
04.500,-118.96
04.515,-97.7
04.531,-74.73
04.546,-51.9
04.562,-30.5
04.578,-11.0
04.593,6.66
04.609,22.8
04.625,37.67
04.640,51.29
04.656,63.45
04.671,73.9
04.687,82.49
04.703,89.16
04.718,94.01
04.734,97.14
04.750,98.68
04.765,98.8
04.781,97.81
04.796,96.13
04.812,94.31
04.828,92.8
04.843,91.88
04.859,91.52
04.875,91.38
04.890,90.93
04.906,89.67
04.921,87.24
04.937,83.55
04.953,78.75
04.968,73.17
04.984,67.15
05.000,61.02
05.015,54.96
05.031,48.94
05.046,42.88
05.062,36.63
05.078,30.12
05.093,23.37
05.109,16.55
05.125,9.83
05.140,3.34
05.156,-2.87
05.171,-8.89
05.187,-14.91
05.203,-21.13
05.218,-27.73
05.234,-34.82
05.250,-42.42
05.265,-50.42
05.281,-58.65
05.296,-66.83
05.312,-74.76
05.328,-82.36
05.343,-89.73
05.359,-97.22
05.375,-105.27
05.390,-114.24
05.406,-124.13
05.421,-134.39
05.437,-143.84
05.453,-150.85
05.468,-153.73
05.484,-151.16
05.500,-142.66
05.515,-128.61
05.531,-110.28
05.546,-89.39
05.562,-67.67
05.578,-46.54
05.593,-26.84
05.609,-8.9
05.625,7.41
05.640,22.36
05.656,36.15
05.671,48.8
05.687,60.07
05.703,69.61
05.718,77.07
05.734,82.32
05.750,85.4
05.765,86.6
05.781,86.33
05.796,85.07
05.812,83.26
05.828,81.32
05.843,79.55
05.859,78.19
05.875,77.28
05.890,76.66
05.906,76.05
05.921,75.11
05.937,73.58
05.953,71.29
05.968,68.19
05.984,64.38
06.000,60.03
06.015,55.4
06.031,50.65
06.046,45.83
06.062,40.85
06.078,35.53
06.093,29.74
06.109,23.49
06.125,16.98
06.140,10.49
06.156,4.28
06.171,-1.62
06.187,-7.38
06.203,-13.34
06.218,-19.77
06.234,-26.77
06.250,-34.24
06.265,-41.93
06.281,-49.61
06.296,-57.14
06.312,-64.55
06.328,-72.02
06.343,-79.92
06.359,-88.62
06.375,-98.28
06.390,-108.64
06.406,-118.8
06.421,-127.29
06.437,-132.34
06.453,-132.33
06.468,-126.25
06.484,-114.19
06.500,-97.21
06.515,-77.03
06.531,-55.59
06.546,-34.53
06.562,-14.94
06.578,2.64
06.593,18.18
06.609,31.93
06.625,44.12
06.640,54.84
06.656,64.0
06.671,71.3
06.687,76.51
06.703,79.58
06.718,80.77
06.734,80.55
06.750,79.53
06.765,78.11
06.781,76.55
06.796,74.96
06.812,73.33
06.828,71.79
06.843,70.38
06.859,69.0
06.875,67.42
06.890,65.24
06.906,62.12
06.921,57.95
06.937,52.94
06.953,47.44
06.968,41.87
06.984,36.47
07.000,31.19
07.015,25.88
07.031,20.19
07.046,13.87
07.062,6.84
07.078,-0.85
07.093,-9.04
07.109,-17.53
07.125,-26.2
07.140,-35.12
07.156,-44.45
07.171,-54.42
07.187,-65.23
07.203,-76.79
07.218,-88.82
07.234,-100.93
07.250,-112.74
07.265,-124.17
07.281,-135.46
07.296,-147.04
07.312,-159.41
07.328,-172.86
07.343,-187.11
07.359,-201.29
07.375,-213.93
07.390,-223.18
07.406,-227.37
07.421,-225.43
07.437,-217.35
07.453,-204.18
07.468,-187.84
07.484,-170.43
07.500,-153.81
07.515,-139.05
07.531,-126.35
07.546,-115.26
07.562,-105.02
07.578,-94.99
07.593,-84.77
07.609,-74.37
07.625,-63.93
07.640,-53.71
07.656,-43.82
07.671,-34.25
07.687,-24.83
07.703,-15.15
07.718,-4.62
07.734,7.59
07.750,22.21
07.765,39.58
07.781,59.2
07.796,79.66
07.812,98.84
07.828,114.43
07.843,124.66
07.859,128.75
07.875,127.06
07.890,120.73
07.906,111.24
07.921,100.16
07.937,88.88
07.953,78.33
07.968,68.62
07.984,59.01
08.000,47.97
08.015,34.01
08.031,16.68
08.046,-2.84
08.062,-21.83
08.078,-37.1
08.093,-46.44
08.109,-49.59
08.125,-47.98
08.140,-43.76
08.156,-38.48
08.171,-32.68
08.187,-26.35
08.203,-19.94
08.218,-14.95
08.234,-13.38
08.250,-16.69
08.265,-25.01
08.281,-37.18
08.296,-51.52
08.312,-66.92
08.328,-83.21
08.343,-100.45
08.359,-117.98
08.375,-133.67
08.390,-144.24
08.406,-146.65
08.421,-139.46
08.437,-123.35
08.453,-100.74
08.468,-74.77
08.484,-47.85
08.500,-21.36
08.515,4.4
08.531,29.6
08.546,54.33
08.562,78.23
08.578,100.64
08.593,120.85
08.609,138.29
08.625,152.82
08.640,164.53
08.656,173.61
08.671,180.15
08.687,184.16
08.703,185.65
08.718,184.88
08.734,182.47
08.750,179.19
08.765,175.9
08.781,173.02
08.796,170.52
08.812,167.87
08.828,164.32
08.843,159.2
08.859,152.17
08.875,143.24
08.890,132.67
08.906,120.86
08.921,108.07
08.937,94.58
08.953,80.56
08.968,66.2
08.984,51.73
09.000,37.38
09.015,23.32
09.031,9.64
09.046,-3.63
09.062,-16.5
09.078,-28.87
09.093,-40.48
09.109,-50.92
09.125,-59.6
09.140,-65.91
09.156,-69.24
09.171,-69.22
09.187,-65.75
09.203,-59.2
09.218,-50.39
09.234,-40.54
09.250,-31.08
09.265,-23.37
09.281,-18.49
09.296,-16.91
09.312,-18.45
09.328,-22.35
09.343,-27.37
09.359,-32.12
09.375,-35.37
09.390,-36.35
09.406,-34.78
09.421,-30.98
09.437,-25.56
09.453,-19.19
09.468,-12.22
09.484,-4.57
09.500,4.2
09.515,14.72
09.531,27.48
09.546,42.67
09.562,59.97
09.578,78.61
09.593,97.38
09.609,114.77
09.625,129.18
09.640,139.24
09.656,144.03
09.671,143.41
09.687,138.01
09.703,129.04
09.718,117.99
09.734,106.29
09.750,95.06
09.765,85.06
09.781,76.64
09.796,69.71
09.812,63.81
09.828,58.14
09.843,51.76
09.859,44.02
09.875,34.93
09.890,25.2
09.906,16.03
09.921,8.39
09.937,2.28
09.953,-3.51
09.968,-11.13
09.984,-22.75
10.000,-39.37
10.015,-59.99
10.031,-81.67
10.046,-100.09
10.062,-111.12
10.078,-112.0
10.093,-102.1
10.109,-82.96
10.125,-57.74
10.140,-30.5
10.156,-5.36
10.171,13.97
10.187,24.88
10.203,26.1
10.218,17.99
10.234,2.51
10.250,-17.58
10.265,-39.91
10.281,-63.3
10.296,-87.86
10.312,-113.97
10.328,-140.58
10.343,-163.89
10.359,-177.49
10.375,-174.17
10.390,-149.12
10.406,-102.69
10.421,-41.13
10.437,25.16
10.453,85.45
10.468,132.55
10.484,164.72
10.500,184.71
10.515,197.0
10.531,204.42
10.546,206.93
10.562,202.36
10.578,188.77
10.593,166.47
10.609,138.51
10.625,109.41
10.640,82.92
10.656,60.71
10.671,42.11
10.687,25.55
10.703,10.12
10.718,-3.68
10.734,-14.28
10.750,-19.92
10.765,-19.85
10.781,-14.84
10.796,-6.83
10.812,1.79
10.828,9.05
10.843,13.9
10.859,16.23
10.875,16.53
10.890,15.63
10.906,14.35
10.921,13.27
10.937,12.7
10.953,12.62
10.968,12.85
10.984,13.14
11.000,13.35
11.015,13.55
11.031,14.05
11.046,15.12
11.062,16.79
11.078,18.59
11.093,19.67
11.109,19.17
11.125,16.66
11.140,12.58
11.156,8.2
11.171,5.33
11.187,5.72
11.203,10.47
11.218,19.78
11.234,32.93
11.250,48.56
11.265,64.97
11.281,80.46
11.296,93.54
11.312,103.17
11.328,108.96
11.343,111.18
11.359,110.83
11.375,109.34
11.390,108.14
11.406,108.19
11.421,109.82
11.437,112.66
11.453,116.07
11.468,119.6
11.484,123.19
11.500,127.27
11.515,132.47
11.531,139.41
11.546,148.43
11.562,159.52
11.578,172.19
11.593,185.46
11.609,198.0
11.625,208.19
11.640,214.5
11.656,215.74
11.671,211.33
11.687,201.34
11.703,186.35
11.718,167.24
11.734,144.96
11.750,120.57
11.765,95.04
11.781,69.25
11.796,43.85
11.812,19.26
11.828,-4.28
11.843,-26.54
11.859,-47.16
11.875,-65.63
11.890,-81.44
11.906,-94.42
11.921,-104.84
11.937,-113.49
11.953,-121.55
11.968,-130.19
11.984,-140.26
12.000,-152.02
12.015,-165.01
12.031,-178.1
12.046,-189.75
12.062,-198.35
12.078,-202.54
12.093,-201.56
12.109,-195.28
12.125,-184.19
12.140,-169.23
12.156,-151.57
12.171,-132.41
12.187,-112.87
12.203,-93.82
12.218,-75.99
12.234,-59.92
12.250,-46.04
12.265,-34.66
12.281,-25.89
12.296,-19.53
12.312,-15.09
12.328,-11.91
12.343,-9.26
12.359,-6.64
12.375,-3.84
12.390,-0.99
12.406,1.46
12.421,3.14
12.437,3.79
12.453,3.56
12.468,2.9
12.484,2.5
12.500,2.97
12.515,4.72
12.531,7.69
12.546,11.39
12.562,15.07
12.578,17.92
12.593,19.35
12.609,19.3
12.625,18.26
12.640,17.19
12.656,17.24
12.671,19.14
12.687,22.92
12.703,27.88
12.718,32.57
12.734,35.47
12.750,35.29
12.765,31.31
12.781,23.42
12.796,11.98
12.812,-2.36
12.828,-18.95
12.843,-37.19
12.859,-57.03
12.875,-78.97
12.890,-104.08
12.906,-133.44
12.921,-167.16
12.937,-203.37
12.953,-237.87
12.968,-264.85
12.984,-278.42
13.000,-274.73
13.015,-253.21
13.031,-216.79
13.046,-170.8
13.062,-121.2
13.078,-72.87
13.093,-28.88
13.109,9.51
13.125,42.09
13.140,68.91
13.156,89.91
13.171,104.91
13.187,113.83
13.203,117.25
13.218,116.14
13.234,111.69
13.250,104.69
13.265,95.21
13.281,82.62
13.296,66.31
13.312,46.41
13.328,24.2
13.343,2.03
13.359,-17.52
13.375,-32.6
13.390,-42.81
13.406,-49.11
13.421,-53.24
13.437,-56.74
13.453,-60.35
13.468,-64.0
13.484,-67.12
13.500,-69.26
13.515,-70.09
13.531,-69.38
13.546,-66.84
13.562,-62.2
13.578,-55.57
13.593,-47.84
13.609,-40.67
13.625,-36.04
13.640,-35.47
13.656,-39.19
13.671,-45.97
13.687,-53.49
13.703,-59.32
13.718,-61.74
13.734,-60.16
13.750,-55.05
13.765,-47.44
13.781,-38.55
13.796,-29.6
13.812,-21.85
13.828,-16.63
13.843,-15.22
13.859,-18.46
13.875,-26.31
13.890,-37.69
13.906,-50.59
13.921,-62.52
13.937,-71.11
13.953,-74.91
13.968,-73.61
13.984,-67.94
14.000,-59.44
14.015,-49.81
14.031,-40.52
14.046,-32.43
14.062,-25.8
14.078,-20.35
14.093,-15.59
14.109,-11.0
14.125,-6.23
14.140,-1.19
14.156,3.99
14.171,9.02
14.187,13.65
14.203,17.72
14.218,21.28
14.234,24.46
14.250,27.36
14.265,29.95
14.281,32.08
14.296,33.5
14.312,34.01
14.328,33.57
14.343,32.17
14.359,29.83
14.375,26.53
14.390,22.24
14.406,17.04
14.421,11.15
14.437,4.98
14.453,-0.97
14.468,-6.22
14.484,-10.37
14.500,-13.18
14.515,-14.55
14.531,-14.57
14.546,-13.49
14.562,-11.7
14.578,-9.63
14.593,-7.65
14.609,-6.03
14.625,-4.96
14.640,-4.67
14.656,-5.41
14.671,-7.33
14.687,-10.4
14.703,-14.36
14.718,-18.71
14.734,-22.89
14.750,-26.48
14.765,-29.43
14.781,-31.94
14.796,-34.39
14.812,-36.97
14.828,-39.44
14.843,-41.11
14.859,-40.96
14.875,-37.96
14.890,-31.54
14.906,-21.92
14.921,-10.14
14.937,2.12
14.953,13.02
14.968,21.1
14.984,25.65
15.000,26.82
15.015,25.4
15.031,22.43
15.046,18.72
15.062,14.74
15.078,10.49
15.093,5.7
15.109,0.11
15.125,-6.32
15.140,-13.38
15.156,-20.63
15.171,-27.5
15.187,-33.43
15.203,-37.89
15.218,-40.47
15.234,-40.97
15.250,-39.47
15.265,-36.45
15.281,-32.67
15.296,-29.06
15.312,-26.42
15.328,-25.19
15.343,-25.22
15.359,-25.95
15.375,-26.6
15.390,-26.54
15.406,-25.59
15.421,-24.09
15.437,-22.79
15.453,-22.58
15.468,-24.17
15.484,-27.82
15.500,-33.37
15.515,-40.41
15.531,-48.32
15.546,-56.66
15.562,-65.18
15.578,-73.73
15.593,-82.2
15.609,-90.48
15.625,-98.4
15.640,-105.87
15.656,-112.91
15.671,-119.67
15.687,-126.26
15.703,-132.71
15.718,-138.74
15.734,-143.85
15.750,-147.41
15.765,-148.77
15.781,-147.35
15.796,-142.63
15.812,-134.21
15.828,-121.87
15.843,-105.69
15.859,-86.16
15.875,-64.17
15.890,-40.9
15.906,-17.56
15.921,4.76
15.937,25.28
15.953,43.47
15.968,58.97
15.984,71.65
16.000,81.55
16.015,88.89
16.031,94.03
16.046,97.43
16.062,99.54
16.078,100.8
16.093,101.68
16.109,102.46
16.125,103.3
16.140,104.02
16.156,104.2
16.171,103.28
16.187,100.87
16.203,96.91
16.218,91.71
16.234,85.73
16.250,79.27
16.265,72.52
16.281,65.45
16.296,58.21
16.312,51.2
16.328,45.07
16.343,40.52
16.359,38.02
16.375,37.75
16.390,39.44
16.406,42.52
16.421,46.15
16.437,49.27
16.453,50.7
16.468,49.34
16.484,44.52
16.500,36.14
16.515,24.86
16.531,11.76
16.546,-1.98
16.562,-15.44
16.578,-28.18
16.593,-40.01
16.609,-50.8
16.625,-60.21
16.640,-67.65
16.656,-72.26
16.671,-73.34
16.687,-70.51
16.703,-63.93
16.718,-54.2
16.734,-42.2
16.750,-28.82
16.765,-14.86
16.781,-0.92
16.796,12.6
16.812,25.38
16.828,37.21
16.843,47.91
16.859,57.3
16.875,65.25
16.890,71.64
16.906,76.32
16.921,79.31
16.937,80.75
16.953,80.98
16.968,80.45
16.984,79.53
17.000,78.39
17.015,77.06
17.031,75.52
17.046,73.85
17.062,72.33
17.078,71.27
17.093,70.84
17.109,71.09
17.125,71.79
17.140,72.69
17.156,73.73
17.171,74.97
17.187,76.56
17.203,78.5
17.218,80.55
17.234,82.23
17.250,83.02
17.265,82.44
17.281,80.18
17.296,76.16
17.312,70.46
17.328,63.35
17.343,55.23
17.359,46.61
17.375,38.02
17.390,29.94
17.406,22.58
17.421,15.91
17.437,9.64
17.453,3.41
17.468,-3.04
17.484,-9.67
17.500,-16.13
17.515,-21.66
17.531,-25.33
17.546,-26.19
17.562,-23.63
17.578,-17.5
17.593,-8.26
17.609,3.17
17.625,15.7
17.640,28.31
17.656,40.37
17.671,51.68
17.687,62.35
17.703,72.52
17.718,82.23
17.734,91.24
17.750,99.25
17.765,106.12
17.781,111.95
17.796,117.07
17.812,121.75
17.828,125.93
17.843,128.95
17.859,129.62
17.875,126.44
17.890,118.04
17.906,103.59
17.921,83.18
17.937,57.92
17.953,29.82
17.968,1.42
17.984,-24.64
18.000,-46.25
18.015,-62.09
18.031,-71.92
18.046,-76.44
18.062,-76.87
18.078,-74.64
18.093,-70.99
18.109,-66.91
18.125,-63.17
18.140,-60.47
18.156,-59.38
18.171,-60.34
18.187,-63.48
18.203,-68.55
18.218,-75.01
18.234,-82.2
18.250,-89.62
18.265,-96.94
18.281,-104.04
18.296,-110.86
18.312,-117.3
18.328,-123.2
18.343,-128.44
18.359,-133.05
18.375,-137.13
18.390,-140.67
18.406,-143.34
18.421,-144.37
18.437,-142.71
18.453,-137.39
18.468,-127.89
18.484,-114.39
18.500,-97.8
18.515,-79.45
18.531,-60.68
18.546,-42.54
18.562,-25.56
18.578,-9.91
18.593,4.5
18.609,17.86
18.625,30.3
18.640,41.87
18.656,52.56
18.671,62.28
18.687,70.85
18.703,78.1
18.718,83.83
18.734,87.96
18.750,90.51
18.765,91.57
18.781,91.4
18.796,90.34
18.812,88.92
18.828,87.66
18.843,87.05
18.859,87.26
18.875,88.1
18.890,89.01
18.906,89.34
18.921,88.65
18.937,86.8
18.953,84.01
18.968,80.57
18.984,76.7
19.000,72.39
19.015,67.46
19.031,61.75
19.046,55.23
19.062,48.23
19.078,41.17
19.093,34.52
19.109,28.49
19.125,23.0
19.140,17.76
19.156,12.36
19.171,6.48
19.187,-0.04
19.203,-7.06
19.218,-14.35
19.234,-21.66
19.250,-28.78
19.265,-35.74
19.281,-42.65
19.296,-49.68
19.312,-57.11
19.328,-65.26
19.343,-74.39
19.359,-84.58
19.375,-95.42
19.390,-105.99
19.406,-114.87
19.421,-120.37
19.437,-121.15
19.453,-116.51
19.468,-106.77
19.484,-93.06
19.500,-76.95
19.515,-59.92
19.531,-43.06
19.546,-26.97
19.562,-11.81
19.578,2.32
19.593,15.34
19.609,26.98
19.625,36.92
19.640,45.01
19.656,51.19
19.671,55.61
19.687,58.44
19.703,59.86
19.718,60.03
19.734,59.14
19.750,57.53
19.765,55.61
19.781,53.8
19.796,52.45
19.812,51.7
19.828,51.51
19.843,51.71
19.859,52.06
19.875,52.37
19.890,52.43
19.906,52.08
19.921,51.26
19.937,49.95
19.953,48.32
19.968,46.56
19.984,44.85
20.000,43.21
20.015,41.52
20.031,39.52
20.046,36.9
20.062,33.48
20.078,29.24
20.093,24.29
20.109,18.85
20.125,13.05
20.140,6.84
20.156,0.06
20.171,-7.49
20.187,-15.88
20.203,-25.02
20.218,-34.55
20.234,-44.03
20.250,-53.13
20.265,-61.75
20.281,-70.09
20.296,-78.5
20.312,-87.35
20.328,-96.89
20.343,-107.06
20.359,-117.41
20.375,-127.09
20.390,-135.02
20.406,-140.09
20.421,-141.53
20.437,-139.06
20.453,-133.08
20.468,-124.57
20.484,-114.85
20.500,-105.25
20.515,-96.86
20.531,-90.29
20.546,-85.73
20.562,-82.96
20.578,-81.51
20.593,-80.83
20.609,-80.42
20.625,-79.95
20.640,-79.2
20.656,-78.06
20.671,-76.43
20.687,-74.21
20.703,-71.29
20.718,-67.6
20.734,-63.06
20.750,-57.54
20.765,-50.73
20.781,-42.14
20.796,-31.17
20.812,-17.3
20.828,-0.37
20.843,19.25
20.859,40.69
20.875,62.72
20.890,84.27
20.906,104.64
20.921,123.68
20.937,141.61
20.953,158.66
20.968,174.65
20.984,188.89
21.000,200.38
21.015,208.28
21.031,212.33
21.046,212.99
21.062,211.27
21.078,208.22
21.093,204.52
21.109,200.19
21.125,194.7
21.140,187.13
21.156,176.37
21.171,161.21
21.187,140.42
21.203,113.18
21.218,79.57
21.234,41.09
21.250,0.77
21.265,-37.57
21.281,-70.48
21.296,-96.1
21.312,-114.85
21.328,-129.14
21.343,-142.08
21.359,-156.1
21.375,-171.8
21.390,-187.84
21.406,-201.64
21.421,-210.78
21.437,-214.01
21.453,-211.63
21.468,-204.99
21.484,-195.49
21.500,-183.78
21.515,-169.59
21.531,-152.15
21.546,-131.03
21.562,-106.71
21.578,-80.5
21.593,-54.02
21.609,-28.45
21.625,-4.14
21.640,19.07
21.656,41.42
21.671,62.7
21.687,82.21
21.703,99.13
21.718,112.87
21.734,123.24
21.750,130.31
21.765,134.14
21.781,134.63
21.796,131.63
21.812,125.11
21.828,115.37
21.843,103.1
21.859,89.25
21.875,74.86
21.890,60.75
21.906,47.58
21.921,35.81
21.937,25.77
21.953,17.61
21.968,11.18
21.984,6.06
22.000,1.62
22.015,-2.74
22.031,-7.44
22.046,-12.56
22.062,-17.93
22.078,-23.11
22.093,-27.68
22.109,-31.37
22.125,-34.1
22.140,-36.05
22.156,-37.57
22.171,-39.09
22.187,-40.96
22.203,-43.3
22.218,-46.04
22.234,-48.8
22.250,-51.24
22.265,-53.13
22.281,-54.52
22.296,-55.77
22.312,-57.36
22.328,-59.8
22.343,-63.43
22.359,-68.36
22.375,-74.28
22.390,-80.51
22.406,-86.02
22.421,-89.62
22.437,-90.32
22.453,-87.58
22.468,-81.45
22.484,-72.5
22.500,-61.68
22.515,-49.82
22.531,-37.6
22.546,-25.48
22.562,-13.73
22.578,-2.56
22.593,7.77
22.609,17.02
22.625,24.99
22.640,31.48
22.656,36.4
22.671,39.68
22.687,41.31
22.703,41.37
22.718,40.01
22.734,37.54
22.750,34.34
22.765,30.89
22.781,27.71
22.796,25.25
22.812,23.73
22.828,23.14
22.843,23.27
22.859,23.65
22.875,23.87
22.890,23.54
22.906,22.42
22.921,20.44
22.937,17.63
22.953,14.14
22.968,10.27
22.984,6.46
23.000,3.2
23.015,1.03
23.031,0.28
23.046,1.01
23.062,3.04
23.078,5.97
23.093,9.26
23.109,12.42
23.125,15.05
23.140,16.91
23.156,17.93
23.171,18.16
23.187,17.74
23.203,16.81
23.218,15.49
23.234,13.79
23.250,11.57
23.265,8.62
23.281,4.66
23.296,-0.49
23.312,-6.76
23.328,-13.77
23.343,-20.7
23.359,-26.47
23.375,-29.9
23.390,-30.05
23.406,-26.53
23.421,-19.59
23.437,-10.17
23.453,0.51
23.468,11.11
23.484,20.69
23.500,28.78
23.515,35.42
23.531,40.91
23.546,45.59
23.562,49.58
23.578,52.73
23.593,54.8
23.609,55.47
23.625,54.65
23.640,52.44
23.656,49.23
23.671,45.56
23.687,42.14
23.703,39.71
23.718,38.99
23.734,40.53
23.750,44.4
23.765,50.07
23.781,56.33
23.796,61.52
23.812,64.13
23.828,63.33
23.843,59.51
23.859,54.26
23.875,49.91
23.890,48.61
23.906,51.4
23.921,57.76
23.937,65.71
23.953,72.56
23.968,75.67
23.984,73.35
24.000,65.19
24.015,52.27
24.031,36.97
24.046,22.47
24.062,12.02
24.078,7.76
24.093,9.81
24.109,15.8
24.125,21.48
24.140,22.09
24.156,14.13
24.171,-3.43
24.187,-29.02
24.203,-59.34
24.218,-90.82
24.234,-120.67
24.250,-147.38
24.265,-170.33
24.281,-189.29
24.296,-203.94
24.312,-213.8
24.328,-218.39
24.343,-217.39
24.359,-210.85
24.375,-199.12
24.390,-182.77
24.406,-162.57
24.421,-139.49
24.437,-114.59
24.453,-88.96
24.468,-63.72
24.484,-39.89
24.500,-18.41
24.515,-0.06
24.531,14.63
24.546,25.46
24.562,32.58
24.578,36.54
24.593,38.09
24.609,38.02
24.625,37.03
24.640,35.61
24.656,34.08
24.671,32.69
24.687,31.72
24.703,31.5
24.718,32.36
24.734,34.5
24.750,37.88
24.765,42.16
24.781,46.65
24.796,50.56
24.812,53.16
24.828,54.08
24.843,53.37
24.859,51.52
24.875,49.2
24.890,47.08
24.906,45.58
24.921,44.75
24.937,44.39
24.953,44.12
24.968,43.65
24.984,42.79
25.000,41.47
25.015,39.73
25.031,37.62
25.046,35.19
25.062,32.47
25.078,29.44
25.093,26.0
25.109,22.03
25.125,17.42
25.140,12.17
25.156,6.45
25.171,0.57
25.187,-5.12
25.203,-10.34
25.218,-15.07
25.234,-19.64
25.250,-24.56
25.265,-30.41
25.281,-37.5
25.296,-45.68
25.312,-54.26
25.328,-62.04
25.343,-67.62
25.359,-69.75
25.375,-67.62
25.390,-61.03
25.406,-50.4
25.421,-36.45
25.437,-20.08
25.453,-2.12
25.468,16.73
25.484,35.85
25.500,54.67
25.515,72.68
25.531,89.4
25.546,104.26
25.562,116.73
25.578,126.15
25.593,131.98
25.609,133.79
25.625,131.54
25.640,125.56
25.656,116.53
25.671,105.34
25.687,92.8
25.703,79.7
25.718,66.82
25.734,55.04
25.750,45.38
25.765,38.8
25.781,35.83
25.796,36.39
25.812,39.74
25.828,44.7
25.843,50.07
25.859,54.99
25.875,59.1
25.890,62.45
25.906,65.16
25.921,67.21
25.937,68.26
25.953,67.73
25.968,64.87
25.984,59.01
26.000,49.8
26.015,37.67
26.031,23.96
26.046,10.6
26.062,-0.41
26.078,-8.01
26.093,-12.46
26.109,-15.35
26.125,-18.73
26.140,-24.31
26.156,-32.79
26.171,-44.07
26.187,-57.72
26.203,-73.3
26.218,-90.39
26.234,-108.1
26.250,-124.8
26.265,-138.39
26.281,-147.22
26.296,-151.09
26.312,-151.82
26.328,-152.69
26.343,-157.15
26.359,-167.37
26.375,-183.24
26.390,-202.13
26.406,-219.61
26.421,-230.53
26.437,-230.54
26.453,-217.45
26.468,-192.03
26.484,-158.05
26.500,-121.42
26.515,-88.28
26.531,-63.15
26.546,-47.45
26.562,-39.19
26.578,-34.12
26.593,-27.59
26.609,-16.63
26.625,-0.91
26.640,17.3
26.656,34.48
26.671,47.52
26.687,54.99
26.703,57.52
26.718,57.29
26.734,56.96
26.750,58.69
26.765,63.79
26.781,72.68
26.796,85.23
26.812,100.79
26.828,118.1
26.843,135.16
26.859,149.47
26.875,158.74
26.890,161.72
26.906,158.84
26.921,152.11
26.937,144.38
26.953,138.18
26.968,134.64
26.984,133.08
27.000,131.38
27.015,126.89
27.031,117.5
27.046,102.66
27.062,83.51
27.078,62.61
27.093,43.08
27.109,27.65
27.125,17.93
27.140,14.15
27.156,15.17
27.171,18.78
27.187,22.31
27.203,23.27
27.218,20.07
27.234,12.49
27.250,1.58
27.265,-11.16
27.281,-24.81
27.296,-39.82
27.312,-57.76
27.328,-80.39
27.343,-108.29
27.359,-140.02
27.375,-172.17
27.390,-200.4
27.406,-220.9
27.421,-231.55
27.437,-232.44
27.453,-225.45
27.468,-213.45
27.484,-199.42
27.500,-185.58
27.515,-173.14
27.531,-162.27
27.546,-152.36
27.562,-142.36
27.578,-131.02
27.593,-116.88
27.609,-98.55
27.625,-75.05
27.640,-46.45
27.656,-14.52
27.671,17.27
27.687,44.59
27.703,63.84
27.718,73.42
27.734,74.41
27.750,69.92
27.765,63.68
27.781,58.69
27.796,56.22
27.812,55.96
27.828,56.64
27.843,56.79
27.859,55.4
27.875,52.13
27.890,47.3
27.906,41.66
27.921,36.25
27.937,32.03
27.953,29.78
27.968,30.13
27.984,33.33
28.000,39.27
28.015,47.31
28.031,56.24
28.046,64.45
28.062,70.7
28.078,74.65
28.093,77.38
28.109,81.08
28.125,87.88
28.140,98.46
28.156,111.0
28.171,121.39
28.187,124.55
28.203,116.41
28.218,95.33
28.234,62.86
28.250,23.28
28.265,-17.53
28.281,-53.34
28.296,-78.83
28.312,-90.53
28.328,-87.5
28.343,-71.5
28.359,-46.72
28.375,-18.54
28.390,8.13
28.406,30.31
28.421,47.65
28.437,62.04
28.453,75.93
28.468,91.16
28.484,107.94
28.500,125.0
28.515,140.49
28.531,152.97
28.546,161.98
28.562,168.07
28.578,172.26
28.593,175.4
28.609,177.96
28.625,180.06
28.640,181.6
28.656,182.37
28.671,181.99
28.687,179.67
28.703,174.44
28.718,165.3
28.734,151.79
28.750,134.32
28.765,114.18
28.781,93.24
28.796,73.48
28.812,56.44
28.828,42.67
28.843,31.62
28.859,21.76
28.875,10.86
28.890,-3.47
28.906,-23.21
28.921,-49.32
28.937,-81.05
28.953,-115.76
28.968,-149.2
28.984,-176.43
29.000,-193.25
29.015,-197.67
29.031,-190.69
29.046,-176.08
29.062,-158.97
29.078,-144.05
29.093,-134.04
29.109,-129.23
29.125,-128.21
29.140,-129.37
29.156,-132.11
29.171,-137.15
29.187,-145.79
29.203,-158.44
29.218,-173.73
29.234,-188.43
29.250,-198.48
29.265,-200.77
29.281,-194.59
29.296,-181.85
29.312,-166.27
29.328,-151.71
29.343,-140.44
29.359,-132.41
29.375,-125.54
29.390,-117.05
29.406,-105.12
29.421,-89.94
29.437,-73.8
29.453,-60.24
29.468,-52.38
29.484,-51.58
29.500,-56.72
29.515,-64.54
29.531,-70.73
29.546,-71.45
29.562,-64.5
29.578,-50.05
29.593,-30.72
29.609,-10.95
29.625,4.07
29.640,9.69
29.656,3.56
29.671,-13.05
29.687,-34.88
29.703,-54.01
29.718,-62.54
29.734,-55.79
29.750,-34.25
29.765,-3.61
29.781,27.62
29.796,51.82
29.812,65.39
29.828,69.82
29.843,70.13
29.859,71.73
29.875,77.22
29.890,85.16
29.906,91.08
29.921,90.15
29.937,80.15
29.953,62.75
29.968,42.78
29.984,25.88
30.000,15.75
30.015,12.47
30.031,12.79
30.046,12.01
30.062,6.66
30.078,-3.91
30.093,-17.45
30.109,-30.3
30.125,-39.31
30.140,-43.26
30.156,-43.16
30.171,-41.3
30.187,-39.96
30.203,-40.13
30.218,-41.15
30.234,-41.04
30.250,-37.39
30.265,-28.22
30.281,-12.58
30.296,9.26
30.312,36.06
30.328,65.99
30.343,97.04
30.359,127.37
30.375,155.5
30.390,180.27
30.406,200.83
30.421,216.45
30.437,226.43
30.453,230.33
30.468,227.95
30.484,219.5
30.500,205.74
30.515,187.87
30.531,167.28
30.546,145.24
30.562,122.49
30.578,99.2
30.593,75.22
30.609,50.47
30.625,25.35
30.640,0.89
30.656,-21.53
30.671,-40.62
30.687,-55.71
30.703,-66.87
30.718,-74.8
30.734,-80.37
30.750,-84.21
30.765,-86.53
30.781,-87.17
30.796,-85.94
30.812,-82.91
30.828,-78.62
30.843,-73.93
30.859,-69.77
30.875,-66.8
30.890,-65.24
30.906,-64.9
30.921,-65.47
30.937,-66.78
30.953,-68.87
30.968,-71.97
30.984,-76.24
31.000,-81.59
31.015,-87.58
31.031,-93.58
31.046,-98.95
31.062,-103.31
31.078,-106.76
31.093,-109.75
31.109,-112.86
31.125,-116.28
31.140,-119.49
31.156,-121.16
31.171,-119.43
31.187,-112.5
31.203,-99.1
31.218,-78.88
31.234,-52.39
31.250,-21.06
31.265,13.02
31.281,47.21
31.296,78.59
31.312,104.47
31.328,122.96
31.343,133.48
31.359,136.89
31.375,135.1
31.390,130.31
31.406,124.35
31.421,118.21
31.437,112.06
31.453,105.76
31.468,99.23
31.484,92.66
31.500,86.58
31.515,81.49
31.531,77.75
31.546,75.29
31.562,73.67
31.578,72.23
31.593,70.3
31.609,67.43
31.625,63.5
31.640,58.67
31.656,53.23
31.671,47.48
31.687,41.55
31.703,35.5
31.718,29.38
31.734,23.31
31.750,17.49
31.765,12.17
31.781,7.57
31.796,3.8
31.812,0.87
31.828,-1.3
31.843,-2.76
31.859,-3.58
31.875,-3.89
31.890,-3.88
31.906,-3.83
31.921,-3.99
31.937,-4.64
31.953,-6.03
31.968,-8.27
31.984,-11.47
32.000,-15.63
32.015,-20.63
32.031,-26.25
32.046,-32.15
32.062,-37.88
32.078,-42.8
32.093,-46.16
32.109,-47.1
32.125,-44.83
32.140,-38.85
32.156,-29.07
32.171,-16.0
32.187,-0.62
32.203,15.8
32.218,32.16
32.234,47.67
32.250,62.05
32.265,75.39
32.281,88.05
32.296,100.44
32.312,112.84
32.328,125.29
32.343,137.43
32.359,148.52
32.375,157.52
32.390,163.37
32.406,165.32
32.421,163.28
32.437,157.97
32.453,150.64
32.468,142.75
32.484,135.3
32.500,128.54
32.515,121.91
32.531,114.35
32.546,104.76
32.562,92.45
32.578,77.29
32.593,59.67
32.609,40.46
32.625,20.64
32.640,1.34
32.656,-16.46
32.671,-31.96
32.687,-44.8
32.703,-54.97
32.718,-62.84
32.734,-68.82
32.750,-73.29
32.765,-76.49
32.781,-78.57
32.796,-79.79
32.812,-80.51
32.828,-81.22
32.843,-82.32
32.859,-84.06
32.875,-86.45
32.890,-89.39
32.906,-92.78
32.921,-96.56
32.937,-100.83
32.953,-105.82
32.968,-111.77
32.984,-118.75
33.000,-126.37
33.015,-133.74
33.031,-139.3
33.046,-141.28
33.062,-138.06
33.078,-128.75
33.093,-113.58
33.109,-93.92
33.125,-72.08
33.140,-50.65
33.156,-31.8
33.171,-16.73
33.187,-5.55
33.203,2.54
33.218,8.55
33.234,13.28
33.250,17.03
33.265,19.6
33.281,20.68
33.296,20.15
33.312,18.26
33.328,15.51
33.343,12.46
33.359,9.4
33.375,6.37
33.390,3.1
33.406,-0.77
33.421,-5.35
33.437,-10.43
33.453,-15.37
33.468,-19.58
33.484,-22.68
33.500,-24.58
33.515,-25.51
33.531,-25.9
33.546,-26.1
33.562,-26.3
33.578,-26.49
33.593,-26.72
33.609,-27.43
33.625,-29.3
33.640,-32.81
33.656,-37.91
33.671,-44.09
33.687,-50.35
33.703,-55.57
33.718,-58.9
33.734,-59.85
33.750,-58.91
33.765,-56.95
33.781,-54.83
33.796,-53.21
33.812,-53.16
33.828,-55.6
33.843,-61.05
33.859,-69.22
33.875,-78.56
33.890,-88.17
33.906,-97.43
33.921,-105.85
33.937,-113.23
33.953,-120.91
33.968,-130.24
33.984,-141.68
34.000,-153.95
34.015,-163.01
34.031,-166.28
34.046,-162.03
34.062,-149.3
34.078,-128.4
34.093,-102.9
34.109,-77.35
34.125,-55.52
34.140,-38.83
34.156,-24.43
34.171,-11.5
34.187,0.1
34.203,10.53
34.218,19.58
34.234,24.23
34.250,20.86
34.265,6.57
34.281,-19.69
34.296,-54.54
34.312,-97.49
34.328,-147.65
34.343,-201.71
34.359,-236.2
34.375,-230.41
34.390,-176.13
34.406,-84.54
34.421,4.31
34.437,78.46
34.453,134.77
34.468,173.04
34.484,198.09
34.500,211.92
34.515,215.1
34.531,209.89
34.546,200.84
34.562,194.0
34.578,196.72
34.593,208.33
34.609,223.07
34.625,234.04
34.640,235.92
34.656,225.56
34.671,203.53
34.687,173.3
34.703,140.13
34.718,111.01
34.734,88.33
34.750,72.11
34.765,62.13
34.781,58.0
34.796,58.5
34.812,61.89
34.828,66.29
34.843,70.12
34.859,73.46
34.875,74.56
34.890,71.41
34.906,62.99
34.921,49.51
34.937,32.44
34.953,14.19
34.968,-2.95
34.984,-17.74
35.000,-30.08
35.015,-42.06
35.031,-55.78
35.046,-71.39
35.062,-86.47
35.078,-97.13
35.093,-99.86
35.109,-93.23
35.125,-77.92
35.140,-55.74
35.156,-28.88
35.171,0.92
35.187,31.89
35.203,61.5
35.218,86.01
35.234,101.51
35.250,105.62
35.265,99.04
35.281,85.58
35.296,70.74
35.312,59.6
35.328,55.0
35.343,57.02
35.359,63.66
35.375,72.05
35.390,79.62
35.406,84.6
35.421,85.77
35.437,82.16
35.453,73.1
35.468,58.28
35.484,38.24
35.500,14.67
35.515,-9.68
35.531,-31.44
35.546,-47.6
35.562,-56.33
35.578,-57.51
35.593,-52.58
35.609,-43.96
35.625,-34.18
35.640,-25.15
35.656,-17.92
35.671,-12.6
35.687,-8.85
35.703,-6.27
35.718,-4.51
35.734,-3.45
35.750,-3.04
35.765,-3.27
35.781,-4.09
35.796,-5.5
35.812,-7.53
35.828,-10.25
35.843,-13.6
35.859,-17.4
35.875,-21.42
35.890,-25.46
35.906,-29.5
35.921,-33.82
35.937,-38.89
35.953,-45.19
35.968,-52.89
35.984,-61.81
36.000,-71.26
36.015,-80.23
36.031,-87.45
36.046,-91.68
36.062,-91.99
36.078,-88.02
36.093,-80.08
36.109,-69.16
36.125,-56.7
36.140,-44.29
36.156,-33.26
36.171,-24.4
36.187,-17.84
36.203,-13.25
36.218,-9.93
36.234,-7.26
36.250,-4.76
36.265,-2.33
36.281,-0.06
36.296,1.8
36.312,3.06
36.328,3.64
36.343,3.61
36.359,3.21
36.375,2.72
36.390,2.5
36.406,2.85
36.421,3.94
36.437,5.75
36.453,7.98
36.468,10.18
36.484,11.84
36.500,12.66
36.515,12.64
36.531,12.03
36.546,11.2
36.562,10.4
36.578,9.7
36.593,8.96
36.609,7.92
36.625,6.47
36.640,4.58
36.656,2.41
36.671,0.2
36.687,-1.85
36.703,-3.65
36.718,-5.25
36.734,-6.82
36.750,-8.64
36.765,-10.87
36.781,-13.66
36.796,-17.0
36.812,-20.82
36.828,-25.05
36.843,-29.69
36.859,-34.79
36.875,-40.4
36.890,-46.52
36.906,-53.03
36.921,-59.73
36.937,-66.36
36.953,-72.51
36.968,-77.67
36.984,-81.08
37.000,-81.75
37.015,-78.76
37.031,-71.62
37.046,-60.49
37.062,-46.33
37.078,-30.73
37.093,-15.33
37.109,-1.44
37.125,10.35
37.140,20.11
37.156,28.22
37.171,35.14
37.187,41.17
37.203,46.52
37.218,51.24
37.234,55.36
37.250,58.62
37.265,60.59
37.281,60.77
37.296,58.82
37.312,54.97
37.328,50.06
37.343,45.35
37.359,42.03
37.375,40.87
37.390,41.93
37.406,44.69
37.421,48.44
37.437,52.56
37.453,56.78
37.468,61.21
37.484,66.07
37.500,71.53
37.515,77.49
37.531,83.49
37.546,88.93
37.562,93.16
37.578,95.77
37.593,96.71
37.609,96.27
37.625,94.77
37.640,92.42
37.656,89.08
37.671,84.16
37.687,76.63
37.703,65.06
37.718,47.86
37.734,23.92
37.750,-6.85
37.765,-42.92
37.781,-81.14
37.796,-117.44
37.812,-148.0
37.828,-170.47
37.843,-184.46
37.859,-191.28
37.875,-192.93
37.890,-190.92
37.906,-185.67
37.921,-176.53
37.937,-162.33
37.953,-142.22
37.968,-116.3
37.984,-85.85
38.000,-53.29
38.015,-21.62
38.031,6.13
38.046,27.59
38.062,41.58
38.078,48.23
38.093,48.72
38.109,44.85
38.125,38.52
38.140,31.36
38.156,24.67
38.171,19.35
38.187,16.01
38.203,14.82
38.218,15.52
38.234,17.48
38.250,19.95
38.265,22.29
38.281,24.23
38.296,25.87
38.312,27.52
38.328,29.38
38.343,31.48
38.359,33.61
38.375,35.32
38.390,36.22
38.406,36.05
38.421,34.75
38.437,32.46
38.453,29.44
38.468,25.98
38.484,22.44
38.500,19.21
38.515,16.55
38.531,14.56
38.546,13.03
38.562,11.51
38.578,9.54
38.593,6.84
38.609,3.53
38.625,0.05
38.640,-3.12
38.656,-5.72
38.671,-7.91
38.687,-10.2
38.703,-13.23
38.718,-17.38
38.734,-22.69
38.750,-28.85
38.765,-35.31
38.781,-41.56
38.796,-47.27
38.812,-52.21
38.828,-56.45
38.843,-60.25
38.859,-64.06
38.875,-68.47
38.890,-74.03
38.906,-80.99
38.921,-88.99
38.937,-97.0
38.953,-103.34
38.968,-106.12
38.984,-103.77
39.000,-95.6
39.015,-82.06
39.031,-64.62
39.046,-45.32
39.062,-26.16
39.078,-8.56
39.093,6.87
39.109,20.23
39.125,31.94
39.140,42.43
39.156,51.97
39.171,60.59
39.187,68.26
39.203,74.91
39.218,80.47
39.234,84.79
39.250,87.71
39.265,89.04
39.281,88.81
39.296,87.26
39.312,84.94
39.328,82.5
39.343,80.51
39.359,79.22
39.375,78.58
39.390,78.29
39.406,77.87
39.421,76.95
39.437,75.34
39.453,73.01
39.468,70.13
39.484,66.93
39.500,63.52
39.515,59.93
39.531,56.06
39.546,51.72
39.562,46.79
39.578,41.32
39.593,35.48
39.609,29.58
39.625,23.97
39.640,18.79
39.656,14.09
39.671,9.64
39.687,5.19
39.703,0.45
39.718,-4.69
39.734,-10.16
39.750,-15.75
39.765,-21.15
39.781,-26.11
39.796,-30.49
39.812,-34.33
39.828,-37.86
39.843,-41.49
39.859,-45.72
39.875,-50.97
39.890,-57.31
39.906,-64.27
39.921,-70.84
39.937,-75.54
39.953,-76.91
39.968,-73.88
39.984,-66.17
40.000,-54.43
40.015,-40.02
40.031,-24.6
40.046,-9.74
40.062,3.45
40.078,14.5
40.093,23.46
40.109,30.77
40.125,36.93
40.140,42.29
40.156,47.03
40.171,51.04
40.187,54.12
40.203,56.01
40.218,56.57
40.234,55.87
40.250,54.18
40.265,51.96
40.281,49.68
40.296,47.71
40.312,46.25
40.328,45.28
40.343,44.55
40.359,43.78
40.375,42.65
40.390,40.94
40.406,38.56
40.421,35.52
40.437,31.97
40.453,28.13
40.468,24.25
40.484,20.47
40.500,16.82
40.515,13.2
40.531,9.44
40.546,5.45
40.562,1.23
40.578,-3.15
40.593,-7.6
40.609,-12.07
40.625,-16.56
40.640,-21.12
40.656,-25.73
40.671,-30.33
40.687,-34.8
40.703,-39.04
40.718,-43.02
40.734,-46.77
40.750,-50.49
40.765,-54.35
40.781,-58.6
40.796,-63.43
40.812,-69.09
40.828,-75.58
40.843,-82.58
40.859,-89.32
40.875,-94.5
40.890,-96.67
40.906,-94.58
40.921,-87.76
40.937,-76.65
40.953,-62.65
40.968,-47.52
40.984,-32.81
41.000,-19.48
41.015,-7.75
41.031,2.64
41.046,12.07
41.062,20.72
41.078,28.58
41.093,35.47
41.109,41.28
41.125,46.03
41.140,49.76
41.156,52.52
41.171,54.25
41.187,54.87
41.203,54.37
41.218,52.93
41.234,50.95
41.250,48.88
41.265,47.19
41.281,46.06
41.296,45.51
41.312,45.27
41.328,45.0
41.343,44.39
41.359,43.23
41.375,41.47
41.390,39.22
41.406,36.71
41.421,34.06
41.437,31.33
41.453,28.42
41.468,25.16
41.484,21.43
41.500,17.28
41.515,12.88
41.531,8.51
41.546,4.44
41.562,0.72
41.578,-2.77
41.593,-6.27
41.609,-10.13
41.625,-14.52
41.640,-19.42
41.656,-24.7
41.671,-30.06
41.687,-35.21
41.703,-39.93
41.718,-44.13
41.734,-47.92
41.750,-51.58
41.765,-55.56
41.781,-60.3
41.796,-66.11
41.812,-72.97
41.828,-80.41
41.843,-87.45
41.859,-92.76
41.875,-94.89
41.890,-92.66
41.906,-85.59
41.921,-74.09
41.937,-59.41
41.953,-43.32
41.968,-27.59
41.984,-13.46
42.000,-1.4
42.015,8.82
42.031,17.85
42.046,26.26
42.062,34.36
42.078,42.02
42.093,48.9
42.109,54.57
42.125,58.77
42.140,61.37
42.156,62.43
42.171,62.11
42.187,60.74
42.203,58.73
42.218,56.66
42.234,55.02
42.250,54.1
42.265,53.91
42.281,54.09
42.296,54.11
42.312,53.6
42.328,52.38
42.343,50.59
42.359,48.54
42.375,46.41
42.390,44.15
42.406,41.5
42.421,38.15
42.437,34.01
42.453,29.41
42.468,24.91
42.484,21.04
42.500,18.03
42.515,15.54
42.531,12.83
42.546,9.04
42.562,3.67
42.578,-3.16
42.593,-10.57
42.609,-17.36
42.625,-22.46
42.640,-25.36
42.656,-26.52
42.671,-27.21
42.687,-29.0
42.703,-33.16
42.718,-40.12
42.734,-49.18
42.750,-58.89
42.765,-67.52
42.781,-73.85
42.796,-77.8
42.812,-80.49
42.828,-83.79
42.843,-89.46
42.859,-98.25
42.875,-109.27
42.890,-120.05
42.906,-127.11
42.921,-126.83
42.937,-116.81
42.953,-96.79
42.968,-69.3
42.984,-39.35
43.000,-13.09
43.015,4.25
43.031,10.52
43.046,7.99
43.062,3.08
43.078,3.95
43.093,17.41
43.109,45.97
43.125,86.52
43.140,131.42
43.156,171.17
43.171,197.93
43.187,208.19
43.203,203.6
43.218,189.87
43.234,174.26
43.250,162.79
43.265,158.26
43.281,159.84
43.296,163.95
43.312,166.29
43.328,163.61
43.343,154.82
43.359,141.07
43.375,124.86
43.390,108.8
43.406,94.49
43.421,82.22
43.437,71.25
43.453,60.5
43.468,49.12
43.484,36.86
43.500,24.07
43.515,11.33
43.531,-0.93
43.546,-12.69
43.562,-24.25
43.578,-36.04
43.593,-48.25
43.609,-60.78
43.625,-73.27
43.640,-85.31
43.656,-96.59
43.671,-106.79
43.687,-115.47
43.703,-122.07
43.718,-126.03
43.734,-127.05
43.750,-125.57
43.765,-122.85
43.781,-120.86
43.796,-121.69
43.812,-126.58
43.828,-135.18
43.843,-145.26
43.859,-153.29
43.875,-155.5
43.890,-149.29
43.906,-134.24
43.921,-112.31
43.937,-87.4
43.953,-64.01
43.968,-45.91
43.984,-34.88
44.000,-30.33
44.015,-29.62
44.031,-29.34
44.046,-26.6
44.062,-20.12
44.078,-10.62
44.093,-0.36
44.109,8.02
44.125,12.84
44.140,14.18
44.156,13.93
44.171,14.85
44.187,19.49
44.203,29.16
44.218,43.48
44.234,60.64
44.250,78.01
44.265,93.03
44.281,103.74
44.296,109.01
44.312,108.52
44.328,102.52
44.343,91.78
44.359,77.48
44.375,61.24
44.390,44.89
44.406,30.07
44.421,17.9
44.437,8.52
44.453,1.2
44.468,-5.39
44.484,-12.57
44.500,-21.21
44.515,-31.33
44.531,-42.24
44.546,-52.96
44.562,-62.66
44.578,-70.98
44.593,-78.16
44.609,-84.63
44.625,-90.79
44.640,-96.84
44.656,-102.7
44.671,-108.2
44.687,-113.24
44.703,-117.92
44.718,-122.52
44.734,-127.52
44.750,-133.38
44.765,-140.42
44.781,-148.62
44.796,-157.48
44.812,-165.94
44.828,-172.52
44.843,-175.58
44.859,-173.87
44.875,-166.92
44.890,-155.22
44.906,-140.04
44.921,-123.03
44.937,-105.71
44.953,-89.08
44.968,-73.56
44.984,-59.14
45.000,-45.6
45.015,-32.76
45.031,-20.55
45.046,-8.91
45.062,2.18
45.078,12.73
45.093,22.73
45.109,31.98
45.125,40.15
45.140,46.96
45.156,52.3
45.171,56.31
45.187,59.42
45.203,62.13
45.218,64.78
45.234,67.5
45.250,70.13
45.265,72.46
45.281,74.27
45.296,75.48
45.312,75.99
45.328,75.77
45.343,74.86
45.359,73.44
45.375,71.97
45.390,71.08
45.406,71.42
45.421,73.27
45.437,76.31
45.453,79.57
45.468,81.79
45.484,81.94
45.500,79.68
45.515,75.48
45.531,70.26
45.546,64.92
45.562,59.87
45.578,54.94
45.593,49.64
45.609,43.57
45.625,36.66
45.640,28.87
45.656,19.9
45.671,8.86
45.687,-5.41
45.703,-23.64
45.718,-45.55
45.734,-69.55
45.750,-93.26
45.765,-114.13
45.781,-130.29
45.796,-140.38
45.812,-143.17
45.828,-137.05
45.843,-120.27
45.859,-92.17
45.875,-54.63
45.890,-12.83
45.906,25.65
45.921,53.33
45.937,65.96
45.953,64.33
45.968,53.96
45.984,42.64
46.000,36.99
46.015,40.04
46.031,50.63
46.046,64.91
46.062,78.55
46.078,88.77
46.093,94.71
46.109,96.8
46.125,95.76
46.140,91.98
46.156,85.51
46.171,76.62
46.187,66.21
46.203,55.88
46.218,47.45
46.234,42.32
46.250,40.83
46.265,42.24
46.281,45.02
46.296,47.45
46.312,48.35
46.328,47.4
46.343,45.18
46.359,42.71
46.375,40.97
46.390,40.33
46.406,40.53
46.421,40.87
46.437,40.49
46.453,38.9
46.468,36.0
46.484,32.06
46.500,27.51
46.515,22.65
46.531,17.57
46.546,12.21
46.562,6.53
46.578,0.55
46.593,-5.55
46.609,-11.56
46.625,-17.34
46.640,-22.82
46.656,-28.05
46.671,-33.12
46.687,-38.05
46.703,-42.73
46.718,-46.83
46.734,-49.74
46.750,-50.57
46.765,-48.31
46.781,-41.97
46.796,-31.03
46.812,-15.59
46.828,3.51
46.843,24.88
46.859,46.85
46.875,67.93
46.890,87.16
46.906,104.1
46.921,118.97
46.937,132.23
46.953,144.32
46.968,155.29
46.984,164.69
47.000,171.76
47.015,175.78
47.031,176.76
47.046,175.64
47.062,174.32
47.078,174.74
47.093,177.99
47.109,183.68
47.125,190.17
47.140,195.31
47.156,197.17
47.171,194.8
47.187,188.08
47.203,177.38
47.218,163.01
47.234,145.31
47.250,125.21
47.265,104.64
47.281,86.25
47.296,72.35
47.312,63.5
47.328,57.91
47.343,51.9
47.359,41.5
47.375,24.11
47.390,-0.4
47.406,-30.15
47.421,-62.65
47.437,-96.26
47.453,-130.91
47.468,-167.54
47.484,-206.4
47.500,-245.41
47.515,-279.81
47.531,-303.11
47.546,-309.49
47.562,-296.14
47.578,-264.55
47.593,-220.39
47.609,-172.0
47.625,-127.93
47.640,-94.74
47.656,-75.77
47.671,-70.97
47.687,-77.83
47.703,-92.56
47.718,-111.0
47.734,-129.29
47.750,-144.03
47.765,-152.38
47.781,-152.24
47.796,-142.64
47.812,-124.14
47.828,-98.94
47.843,-70.57
47.859,-42.97
47.875,-19.44
47.890,-1.62
47.906,10.88
47.921,20.04
47.937,28.38
47.953,37.81
47.968,49.04
47.984,61.51
48.000,74.01
48.015,85.5
48.031,95.62
48.046,104.71
48.062,113.16
48.078,121.02
48.093,127.77
48.109,132.4
48.125,133.74
48.140,130.71
48.156,122.53
48.171,109.16
48.187,91.73
48.203,72.64
48.218,55.2
48.234,42.51
48.250,36.41
48.265,36.94
48.281,42.52
48.296,50.57
48.312,58.1
48.328,62.4
48.343,61.13
48.359,52.73
48.375,36.72
48.390,13.98
48.406,-13.23
48.421,-41.97
48.437,-69.77
48.453,-95.61
48.468,-119.7
48.484,-142.48
48.500,-163.44
48.515,-180.69
48.531,-191.83
48.546,-195.31
48.562,-191.82
48.578,-184.46
48.593,-177.88
48.609,-176.63
48.625,-183.61
48.640,-198.99
48.656,-220.04
48.671,-241.81
48.687,-258.34
48.703,-264.35
48.718,-256.38
48.734,-233.48
48.750,-197.04
48.765,-150.18
48.781,-97.09
48.796,-42.5
48.812,8.42
48.828,50.47
48.843,79.39
48.859,93.47
48.875,94.77
48.890,88.85
48.906,83.03
48.921,83.37
48.937,92.28
48.953,107.71
48.968,124.23
48.984,135.5
49.000,136.75
49.015,126.21
49.031,105.22
49.046,77.49
49.062,47.85
49.078,21.24
49.093,1.71
49.109,-8.18
49.125,-7.73
49.140,1.9
49.156,18.1
49.171,37.26
49.187,55.32
49.203,68.36
49.218,73.22
49.234,68.42
49.250,54.81
49.265,35.78
49.281,16.28
49.296,1.09
49.312,-6.91
49.328,-7.67
49.343,-3.71
49.359,1.3
49.375,4.24
49.390,3.57
49.406,-0.37
49.421,-5.94
49.437,-11.32
49.453,-15.18
49.468,-16.9
49.484,-16.47
49.500,-14.03
49.515,-9.7
49.531,-3.69
49.546,3.53
49.562,11.0
49.578,17.31
49.593,21.07
49.609,21.52
49.625,18.98
49.640,14.83
49.656,11.04
49.671,9.33
49.687,10.42
49.703,13.77
49.718,17.93
49.734,21.31
49.750,23.01
49.765,23.45
49.781,24.13
49.796,27.11
49.812,33.88
49.828,44.24
49.843,55.81
49.859,64.23
49.875,64.39
49.890,52.4
49.906,27.69
49.921,-6.04
49.937,-41.29
49.953,-69.15
49.968,-82.39
49.984,-78.03
50.000,-58.13
50.015,-28.6
50.031,3.24
50.046,31.33
50.062,52.45
50.078,66.61
50.093,76.4
50.109,85.56
50.125,97.65
50.140,114.54
50.156,135.77
50.171,158.18
50.187,176.67
50.203,185.81
50.218,181.64
50.234,163.2
50.250,132.65
50.265,94.51
50.281,53.91
50.296,15.21
50.312,-18.58
50.328,-45.68
50.343,-64.85
50.359,-74.9
50.375,-74.8
50.390,-64.53
50.406,-45.75
50.421,-22.27
50.437,0.58
50.453,17.27
50.468,23.88
50.484,19.07
50.500,4.14
50.515,-17.94
50.531,-43.88
50.546,-70.76
50.562,-96.13
50.578,-117.46
50.593,-131.93
50.609,-136.59
50.625,-129.33
50.640,-109.98
50.656,-80.78
50.671,-46.19
50.687,-11.71
50.703,17.5
50.718,37.99
50.734,48.72
50.750,50.89
50.765,47.22
50.781,40.58
50.796,33.12
50.812,25.79
50.828,18.78
50.843,12.35
50.859,7.35
50.875,5.3
50.890,7.64
50.906,15.04
50.921,26.96
50.937,41.93
50.953,57.75
50.968,72.0
50.984,82.0
51.000,85.15
51.015,79.74
51.031,65.77
51.046,45.82
51.062,24.67
51.078,8.17
51.093,1.14
51.109,5.76
51.125,21.01
51.140,43.22
51.156,67.4
51.171,88.66
51.187,103.41
51.203,110.05
51.218,109.45
51.234,104.54
51.250,99.32
51.265,97.31
51.281,99.7
51.296,104.73
51.312,108.07
51.328,104.66
51.343,90.65
51.359,64.93
51.375,29.46
51.390,-11.38
51.406,-52.19
51.421,-88.12
51.437,-116.04
51.453,-135.38
51.468,-148.05
51.484,-157.75
51.500,-168.4
51.515,-182.52
51.531,-200.01
51.546,-218.16
51.562,-232.77
51.578,-239.68
51.593,-236.3
51.609,-222.12
51.625,-198.47
51.640,-167.72
51.656,-132.61
51.671,-95.95
51.687,-60.43
51.703,-28.45
51.718,-1.62
51.734,19.44
51.750,35.15
51.765,46.66
51.781,55.21
51.796,61.81
51.812,67.13
51.828,72.16
51.843,78.6
51.859,88.77
51.875,104.74
51.890,126.93
51.906,153.27
51.921,179.48
51.937,200.42
51.953,211.88
51.968,212.27
51.984,202.71
52.000,186.16
52.015,165.98
52.031,144.81
52.046,124.19
52.062,104.82
52.078,87.35
52.093,72.49
52.109,60.94
52.125,52.43
52.140,45.48
52.156,37.76
52.171,27.1
52.187,12.51
52.203,-5.42
52.218,-25.07
52.234,-45.08
52.250,-65.26
52.265,-86.54
52.281,-109.86
52.296,-134.53
52.312,-157.53
52.328,-174.15
52.343,-179.86
52.359,-172.32
52.375,-152.59
52.390,-124.66
52.406,-94.12
52.421,-66.24
52.437,-44.58
52.453,-30.75
52.468,-24.49
52.484,-24.26
52.500,-27.77
52.515,-32.62
52.531,-36.56
52.546,-37.94
52.562,-36.0
52.578,-30.69
52.593,-22.78
52.609,-13.47
52.625,-4.23
52.640,3.63
52.656,9.19
52.671,12.21
52.687,13.01
52.703,12.15
52.718,10.1
52.734,6.87
52.750,2.15
52.765,-4.45
52.781,-12.96
52.796,-22.75
52.812,-32.63
52.828,-41.11
52.843,-46.89
52.859,-49.06
52.875,-47.22
52.890,-41.25
52.906,-31.23
52.921,-17.48
52.937,-0.69
52.953,17.96
52.968,36.97
52.984,54.77
53.000,70.11
53.015,82.21
53.031,90.83
53.046,96.14
53.062,98.53
53.078,98.51
53.093,96.74
53.109,93.99
53.125,91.18
53.140,89.2
53.156,88.83
53.171,90.66
53.187,95.11
53.203,102.35
53.218,112.31
53.234,124.39
53.250,137.23
53.265,148.59
53.281,155.63
53.296,155.53
53.312,146.35
53.328,127.74
53.343,101.09
53.359,69.11
53.375,35.01
53.390,1.41
53.406,-30.29
53.421,-60.05
53.437,-89.0
53.453,-118.98
53.468,-152.09
53.484,-189.87
53.500,-232.42
53.515,-277.43
53.531,-320.2
53.546,-354.68
53.562,-375.77
53.578,-381.56
53.593,-374.26
53.609,-359.21
53.625,-342.24
53.640,-326.97
53.656,-313.54
53.671,-299.41
53.687,-281.44
53.703,-257.93
53.718,-229.19
53.734,-196.65
53.750,-161.54
53.765,-124.14
53.781,-84.27
53.796,-42.36
53.812,-0.4
53.828,38.41
53.843,70.72
53.859,94.31
53.875,108.86
53.890,115.74
53.906,117.21
53.921,115.33
53.937,111.65
53.953,106.96
53.968,101.76
53.984,96.44
54.000,91.32
54.015,86.47
54.031,81.55
54.046,75.94
54.062,69.05
54.078,60.75
54.093,51.51
54.109,42.25
54.125,33.95
54.140,27.22
54.156,22.12
54.171,18.11
54.187,14.34
54.203,9.98
54.218,4.48
54.234,-2.38
54.250,-10.48
54.265,-19.44
54.281,-28.73
54.296,-37.64
54.312,-45.3
54.328,-50.82
54.343,-53.34
54.359,-52.28
54.375,-47.55
54.390,-39.61
54.406,-29.35
54.421,-17.89
54.437,-6.14
54.453,5.37
54.468,16.5
54.484,27.34
54.500,37.88
54.515,47.93
54.531,57.08
54.546,64.75
54.562,70.48
54.578,74.02
54.593,75.51
54.609,75.38
54.625,74.29
54.640,72.94
54.656,71.86
54.671,71.4
54.687,71.54
54.703,72.06
54.718,72.64
54.734,72.95
54.750,72.77
54.765,71.99
54.781,70.57
54.796,68.49
54.812,65.81
54.828,62.59
54.843,59.03
54.859,55.36
54.875,51.77
54.890,48.37
54.906,45.08
54.921,41.71
54.937,38.04
54.953,33.89
54.968,29.23
54.984,24.09
55.000,18.52
55.015,12.47
55.031,5.9
55.046,-1.19
55.062,-8.64
55.078,-16.17
55.093,-23.44
55.109,-30.29
55.125,-36.8
55.140,-43.33
55.156,-50.37
55.171,-58.24
55.187,-66.96
55.203,-76.13
55.218,-84.97
55.234,-92.3
55.250,-96.85
55.265,-97.48
55.281,-93.51
55.296,-84.92
55.312,-72.4
55.328,-57.28
55.343,-41.13
55.359,-25.4
55.375,-11.02
55.390,1.65
55.406,12.76
55.421,22.65
55.437,31.63
55.453,39.88
55.468,47.26
55.484,53.51
55.500,58.29
55.515,61.32
55.531,62.54
55.546,62.13
55.562,60.56
55.578,58.43
55.593,56.29
55.609,54.53
55.625,53.26
55.640,52.35
55.656,51.46
55.671,50.29
55.687,48.6
55.703,46.39
55.718,43.73
55.734,40.78
55.750,37.6
55.765,34.17
55.781,30.45
55.796,26.35
55.812,22.0
55.828,17.6
55.843,13.43
55.859,9.61
55.875,6.13
55.890,2.67
55.906,-1.1
55.921,-5.46
55.937,-10.51
55.953,-16.06
55.968,-21.79
55.984,-27.39
56.000,-32.72
56.015,-37.74
56.031,-42.63
56.046,-47.66
56.062,-53.08
56.078,-59.11
56.093,-65.8
56.109,-72.98
56.125,-80.11
56.140,-86.31
56.156,-90.45
56.171,-91.38
56.187,-88.3
56.203,-80.98
56.218,-69.88
56.234,-56.09
56.250,-41.01
56.265,-26.0
56.281,-12.02
56.296,0.45
56.312,11.48
56.328,21.37
56.343,30.4
56.359,38.64
56.375,45.88
56.390,51.82
56.406,56.19
56.421,58.97
56.437,60.35
56.453,60.7
56.468,60.38
56.484,59.65
56.500,58.66
56.515,57.48
56.531,56.16
56.546,54.71
56.562,53.13
56.578,51.39
56.593,49.49
56.609,47.31
56.625,44.78
56.640,41.85
56.656,38.5
56.671,34.86
56.687,31.06
56.703,27.2
56.718,23.28
56.734,19.23
56.750,14.84
56.765,9.94
56.781,4.55
56.796,-1.15
56.812,-6.79
56.828,-12.09
56.843,-17.07
56.859,-22.02
56.875,-27.45
56.890,-33.81
56.906,-41.22
56.921,-49.37
56.937,-57.74
56.953,-65.75
56.968,-73.1
56.984,-80.0
57.000,-87.05
57.015,-94.95
57.031,-104.21
57.046,-114.65
57.062,-125.29
57.078,-134.6
57.093,-140.72
57.109,-142.18
57.125,-138.3
57.140,-129.42
57.156,-116.67
57.171,-101.53
57.187,-85.24
57.203,-68.47
57.218,-51.41
57.234,-33.96
57.250,-16.11
57.265,1.78
57.281,18.86
57.296,33.84
57.312,45.05
57.328,50.7
57.343,49.36
57.359,40.55
57.375,25.39
57.390,6.63
57.406,-11.8
57.421,-25.78
57.437,-32.2
57.453,-29.71
57.468,-18.78
57.484,-1.06
57.500,21.45
57.515,47.17
57.531,75.05
57.546,104.39
57.562,134.4
57.578,163.98
57.593,191.84
57.609,216.57
57.625,237.04
57.640,252.38
57.656,262.09
57.671,266.06
57.687,264.62
57.703,258.55
57.718,249.06
57.734,237.48
57.750,224.86
57.765,211.62
57.781,197.38
57.796,181.11
57.812,161.67
57.828,138.28
57.843,110.7
57.859,79.34
57.875,44.95
57.890,8.32
57.906,-29.75
57.921,-68.23
57.937,-105.67
57.953,-140.12
57.968,-169.25
57.984,-190.99
58.000,-204.0
58.015,-207.99
58.031,-203.74
58.046,-192.65
58.062,-176.38
58.078,-156.52
58.093,-134.46
58.109,-111.45
58.125,-88.77
58.140,-67.63
58.156,-48.96
58.171,-33.22
58.187,-20.38
58.203,-10.16
58.218,-2.22
58.234,3.56
58.250,7.21
58.265,8.83
58.281,8.8
58.296,7.73
58.312,6.29
58.328,4.93
58.343,3.7
58.359,2.39
58.375,0.84
58.390,-0.89
58.406,-2.48
58.421,-3.56
58.437,-4.02
58.453,-4.1
58.468,-4.27
58.484,-4.92
58.500,-6.14
58.515,-7.5
58.531,-8.42
58.546,-8.35
58.562,-7.22
58.578,-5.41
58.593,-3.71
58.609,-2.87
58.625,-3.35
58.640,-5.18
58.656,-8.06
58.671,-11.45
58.687,-14.85
58.703,-17.95
58.718,-20.61
58.734,-22.92
58.750,-25.02
58.765,-27.16
58.781,-29.5
58.796,-32.17
58.812,-35.2
58.828,-38.51
58.843,-42.03
58.859,-45.7
58.875,-49.49
58.890,-53.31
58.906,-57.11
58.921,-60.86
58.937,-64.59
58.953,-68.37
58.968,-72.07
58.984,-75.22
59.000,-77.02
59.015,-76.45
59.031,-72.64
59.046,-65.26
59.062,-54.76
59.078,-42.18
59.093,-28.88
59.109,-16.19
59.125,-5.25
59.140,3.05
59.156,8.1
59.171,9.82
59.187,8.9
59.203,6.77
59.218,5.27
59.234,6.04
59.250,9.73
59.265,15.82
59.281,22.91
59.296,29.36
59.312,33.99
59.328,36.47
59.343,37.02
59.359,36.01
59.375,33.58
59.390,29.57
59.406,23.86
59.421,16.52
59.437,7.81
59.453,-2.07
59.468,-13.0
59.484,-24.75
59.500,-36.86
59.515,-48.39
59.531,-58.24
59.546,-65.68
59.562,-70.82
59.578,-74.79
59.593,-79.09
59.609,-84.47
59.625,-89.87
59.640,-92.34
59.656,-87.82
59.671,-72.86
59.687,-46.17
59.703,-9.39
59.718,33.28
59.734,76.38
59.750,114.71
59.765,144.48
59.781,163.72
59.796,172.03
59.812,169.82
59.828,157.99
59.843,137.53
59.859,109.57
59.875,75.5
59.890,37.0
59.906,-3.83
59.921,-44.49
59.937,-82.01
59.953,-113.4
59.968,-136.28
59.984,-149.17
