timestamp,value
00.000,-36.56
00.015,-43.69
00.031,-47.1
00.046,-48.52
00.062,-50.41
00.078,-54.87
00.093,-62.78
00.109,-73.57
00.125,-85.65
00.140,-97.14
00.156,-106.44
00.171,-112.55
00.187,-114.97
00.203,-113.54
00.218,-108.3
00.234,-99.55
00.250,-87.96
00.265,-74.62
00.281,-60.83
00.296,-47.9
00.312,-36.73
00.328,-27.73
00.343,-20.77
00.359,-15.32
00.375,-10.77
00.390,-6.68
00.406,-2.94
00.421,0.27
00.437,2.59
00.453,3.67
00.468,3.35
00.484,1.63
00.500,-1.24
00.515,-4.74
00.531,-7.98
00.546,-9.78
00.562,-8.86
00.578,-4.32
00.593,3.97
00.609,15.09
00.625,27.33
00.640,38.56
00.656,46.92
00.671,51.23
00.687,51.16
00.703,47.12
00.718,39.93
00.734,30.59
00.750,20.02
00.765,8.82
00.781,-2.88
00.796,-15.56
00.812,-29.94
00.828,-46.51
00.843,-64.89
00.859,-83.53
00.875,-99.9
00.890,-111.23
00.906,-115.43
00.921,-111.86
00.937,-101.34
00.953,-85.87
00.968,-67.77
00.984,-49.01
01.000,-30.98
01.015,-14.59
01.031,-0.44
01.046,11.08
01.062,19.94
01.078,26.78
01.093,33.02
01.109,40.44
01.125,50.45
01.140,63.24
01.156,77.43
01.171,90.48
01.187,99.9
01.203,104.31
01.218,103.99
01.234,100.46
01.250,95.56
01.265,90.55
01.281,85.82
01.296,81.38
01.312,77.53
01.328,75.28
01.343,75.96
01.359,80.49
01.375,88.62
01.390,98.71
01.406,108.32
01.421,115.14
01.437,117.88
01.453,116.6
01.468,112.35
01.484,106.59
01.500,100.55
01.515,94.91
01.531,89.83
01.546,85.15
01.562,80.94
01.578,77.54
01.593,75.58
01.609,75.69
01.625,78.0
01.640,82.08
01.656,86.72
01.671,90.31
01.687,91.35
01.703,88.94
01.718,83.1
01.734,74.83
01.750,65.77
01.765,57.82
01.781,52.62
01.796,51.26
01.812,54.32
01.828,61.77
01.843,73.03
01.859,86.88
01.875,101.57
01.890,115.08
01.906,125.61
01.921,132.08
01.937,134.23
01.953,132.49
01.968,127.39
01.984,119.0
02.000,106.68
02.015,89.41
02.031,66.46
02.046,38.02
02.062,5.42
02.078,-28.99
02.093,-62.51
02.109,-92.54
02.125,-117.08
02.140,-134.73
02.156,-144.7
02.171,-146.78
02.187,-141.2
02.203,-128.6
02.218,-109.87
02.234,-86.08
02.250,-58.45
02.265,-28.33
02.281,2.9
02.296,33.9
02.312,63.74
02.328,92.06
02.343,119.02
02.359,144.82
02.375,169.15
02.390,190.76
02.406,207.75
02.421,218.16
02.437,220.85
02.453,215.89
02.468,204.41
02.484,187.85
02.500,167.21
02.515,142.69
02.531,114.19
02.546,82.11
02.562,48.14
02.578,15.25
02.593,-13.16
02.609,-34.66
02.625,-48.93
02.640,-58.22
02.656,-66.66
02.671,-78.74
02.687,-97.49
02.703,-123.25
02.718,-153.51
02.734,-183.79
02.750,-209.36
02.765,-226.87
02.781,-235.33
02.796,-236.15
02.812,-232.23
02.828,-226.76
02.843,-222.18
02.859,-219.66
02.875,-219.17
02.890,-219.82
02.906,-220.38
02.921,-219.49
02.937,-215.7
02.953,-207.53
02.968,-193.77
02.984,-173.94
03.000,-148.8
03.015,-120.55
03.031,-92.5
03.046,-68.2
03.062,-50.31
03.078,-39.75
03.093,-35.47
03.109,-34.99
03.125,-35.5
03.140,-35.03
03.156,-33.03
03.171,-30.2
03.187,-27.68
03.203,-26.17
03.218,-25.54
03.234,-25.05
03.250,-23.92
03.265,-21.98
03.281,-19.69
03.296,-17.89
03.312,-17.17
03.328,-17.44
03.343,-17.96
03.359,-17.66
03.375,-15.62
03.390,-11.55
03.406,-5.88
03.421,0.31
03.437,5.72
03.453,9.17
03.468,10.11
03.484,8.99
03.500,7.23
03.515,6.77
03.531,9.13
03.546,14.74
03.562,22.58
03.578,30.7
03.593,37.11
03.609,40.69
03.625,41.7
03.640,41.45
03.656,41.5
03.671,42.85
03.687,45.63
03.703,49.4
03.718,53.65
03.734,58.17
03.750,62.94
03.765,67.5
03.781,70.53
03.796,69.86
03.812,63.42
03.828,50.34
03.843,31.66
03.859,10.21
03.875,-10.48
03.890,-27.53
03.906,-39.71
03.921,-47.39
03.937,-51.75
03.953,-53.6
03.968,-52.83
03.984,-48.51
04.000,-39.7
04.015,-26.38
04.031,-9.96
04.046,6.93
04.062,21.25
04.078,30.58
04.093,34.08
04.109,32.76
04.125,29.17
04.140,26.44
04.156,27.3
04.171,33.16
04.187,43.89
04.203,58.08
04.218,73.55
04.234,87.91
04.250,99.06
04.265,105.43
04.281,106.16
04.296,101.26
04.312,91.55
04.328,78.51
04.343,63.91
04.359,49.47
04.375,36.58
04.390,26.23
04.406,18.86
04.421,14.28
04.437,11.7
04.453,9.87
04.468,7.63
04.484,4.44
04.500,0.68
04.515,-2.79
04.531,-5.41
04.546,-7.63
04.562,-10.9
04.578,-16.69
04.593,-25.25
04.609,-34.68
04.625,-41.28
04.640,-41.01
04.656,-31.46
04.671,-13.11
04.687,10.77
04.703,35.47
04.718,56.82
04.734,72.58
04.750,82.77
04.765,88.85
04.781,92.44
04.796,94.36
04.812,94.49
04.828,92.32
04.843,87.77
04.859,81.73
04.875,75.76
04.890,71.26
04.906,68.4
04.921,65.64
04.937,60.09
04.953,48.59
04.968,29.04
04.984,1.3
05.000,-32.77
05.015,-70.06
05.031,-107.2
05.046,-141.4
05.062,-170.56
05.078,-193.1
05.093,-207.68
05.109,-213.22
05.125,-209.4
05.140,-197.27
05.156,-179.34
05.171,-159.17
05.187,-140.14
05.203,-124.06
05.218,-110.3
05.234,-95.95
05.250,-77.0
05.265,-50.22
05.281,-14.83
05.296,26.83
05.312,69.92
05.328,108.68
05.343,138.31
05.359,156.36
05.375,163.04
05.390,160.52
05.406,151.65
05.421,138.86
05.437,123.74
05.453,107.26
05.468,90.35
05.484,74.25
05.500,60.43
05.515,49.95
05.531,42.77
05.546,37.47
05.562,31.63
05.578,22.83
05.593,9.64
05.609,-7.72
05.625,-27.47
05.640,-47.15
05.656,-64.55
05.671,-78.38
05.687,-88.28
05.703,-94.35
05.718,-96.43
05.734,-93.85
05.750,-85.73
05.765,-71.76
05.781,-53.24
05.796,-33.33
05.812,-16.48
05.828,-6.94
05.843,-7.21
05.859,-17.19
05.875,-34.6
05.890,-56.27
05.906,-79.59
05.921,-103.11
05.937,-125.86
05.953,-146.23
05.968,-161.17
05.984,-166.7
06.000,-159.55
06.015,-139.15
06.031,-108.62
06.046,-74.08
06.062,-42.34
06.078,-18.25
06.093,-2.95
06.109,6.12
06.125,13.77
06.140,24.87
06.156,42.25
06.171,65.89
06.187,93.08
06.203,119.64
06.218,141.47
06.234,155.82
06.250,161.88
06.265,160.43
06.281,152.98
06.296,140.79
06.312,124.41
06.328,103.94
06.343,79.84
06.359,53.67
06.375,28.24
06.390,6.85
06.406,-8.0
06.421,-15.64
06.437,-17.38
06.453,-15.67
06.468,-12.92
06.484,-10.49
06.500,-8.6
06.515,-6.91
06.531,-5.43
06.546,-5.07
06.562,-7.38
06.578,-13.75
06.593,-24.5
06.609,-38.37
06.625,-52.86
06.640,-64.98
06.656,-72.39
06.671,-74.07
06.687,-70.49
06.703,-63.24
06.718,-54.26
06.734,-45.23
06.750,-37.29
06.765,-31.24
06.781,-27.99
06.796,-28.76
06.812,-34.76
06.828,-46.31
06.843,-61.99
06.859,-78.42
06.875,-90.93
06.890,-95.06
06.906,-88.17
06.921,-70.0
06.937,-42.5
06.953,-8.68
06.968,28.23
06.984,64.97
07.000,98.05
07.015,123.44
07.031,137.16
07.046,136.52
07.062,121.57
07.078,95.7
07.093,64.88
07.109,35.82
07.125,13.79
07.140,1.3
07.156,-2.22
07.171,0.43
07.187,5.59
07.203,9.93
07.218,11.34
07.234,9.21
07.250,4.43
07.265,-0.93
07.281,-4.18
07.296,-2.8
07.312,4.87
07.328,19.18
07.343,39.05
07.359,62.2
07.375,85.84
07.390,107.33
07.406,124.79
07.421,137.48
07.437,145.88
07.453,151.38
07.468,155.79
07.484,160.68
07.500,166.76
07.515,173.7
07.531,180.18
07.546,184.4
07.562,184.98
07.578,181.68
07.593,175.63
07.609,168.76
07.625,162.77
07.640,158.15
07.656,153.78
07.671,147.49
07.687,137.05
07.703,121.42
07.718,101.29
07.734,79.06
07.750,58.0
07.765,41.16
07.781,30.39
07.796,25.72
07.812,25.46
07.828,26.81
07.843,26.95
07.859,24.24
07.875,18.89
07.890,12.9
07.906,8.91
07.921,8.78
07.937,12.44
07.953,17.68
07.968,21.14
07.984,19.94
08.000,12.97
08.015,1.5
08.031,-11.35
08.046,-21.7
08.062,-26.34
08.078,-23.71
08.093,-14.48
08.109,-1.41
08.125,11.26
08.140,18.91
08.156,17.92
08.171,7.27
08.187,-10.74
08.203,-30.66
08.218,-45.6
08.234,-49.81
08.250,-41.15
08.265,-22.35
08.281,-0.18
08.296,17.2
08.312,23.68
08.328,17.66
08.343,2.5
08.359,-15.27
08.375,-29.1
08.390,-35.29
08.406,-34.44
08.421,-30.64
08.437,-29.25
08.453,-34.35
08.468,-46.87
08.484,-64.26
08.500,-81.7
08.515,-94.15
08.531,-98.45
08.546,-94.38
08.562,-84.39
08.578,-72.2
08.593,-61.02
08.609,-52.29
08.625,-45.73
08.640,-40.18
08.656,-35.04
08.671,-30.63
08.687,-27.73
08.703,-26.33
08.718,-24.66
08.734,-19.4
08.750,-7.13
08.765,13.54
08.781,40.67
08.796,69.37
08.812,93.78
08.828,109.53
08.843,115.55
08.859,114.16
08.875,109.63
08.890,105.99
08.906,105.31
08.921,107.47
08.937,110.83
08.953,113.45
08.968,113.8
08.984,110.95
09.000,104.08
09.015,92.43
09.031,75.66
09.046,54.71
09.062,32.2
09.078,11.89
09.093,-2.99
09.109,-11.61
09.125,-16.58
09.140,-23.33
09.156,-37.95
09.171,-64.13
09.187,-100.9
09.203,-142.39
09.218,-179.78
09.234,-204.73
09.250,-212.86
09.265,-205.51
09.281,-189.35
09.296,-173.54
09.312,-166.28
09.328,-171.73
09.343,-188.83
09.359,-212.24
09.375,-234.64
09.390,-249.6
09.406,-253.73
09.421,-247.34
09.437,-233.84
09.453,-218.17
09.468,-204.96
09.484,-197.0
09.500,-194.27
09.515,-193.96
09.531,-191.34
09.546,-181.32
09.562,-160.3
09.578,-127.75
09.593,-86.85
09.609,-43.86
09.625,-6.4
09.640,19.08
09.656,29.52
09.671,26.55
09.687,16.12
09.703,6.54
09.718,5.47
09.734,17.07
09.750,40.22
09.765,68.82
09.781,93.87
09.796,106.86
09.812,103.05
09.828,83.32
09.843,54.07
09.859,24.81
09.875,4.68
09.890,-0.96
09.906,7.65
09.921,25.03
09.937,42.94
09.953,53.57
09.968,52.37
09.984,39.29
10.000,18.23
10.015,-4.9
10.031,-24.5
10.046,-36.99
10.062,-41.6
10.078,-39.99
10.093,-35.25
10.109,-30.8
10.125,-29.4
10.140,-32.49
10.156,-39.74
10.171,-48.87
10.187,-55.97
10.203,-56.66
10.218,-47.71
10.234,-28.67
10.250,-2.74
10.265,23.83
10.281,43.82
10.296,51.91
10.312,47.09
10.328,33.3
10.343,17.9
10.359,8.39
10.375,9.09
10.390,19.16
10.406,33.14
10.421,43.56
10.437,44.49
10.453,34.12
10.468,15.61
10.484,-4.63
10.500,-19.83
10.515,-26.03
10.531,-23.65
10.546,-17.04
10.562,-12.22
10.578,-14.26
10.593,-25.34
10.609,-44.55
10.625,-69.11
10.640,-96.15
10.656,-123.89
10.671,-151.65
10.687,-179.17
10.703,-205.69
10.718,-229.73
10.734,-249.75
10.750,-264.96
10.765,-275.98
10.781,-284.48
10.796,-292.06
10.812,-299.19
10.828,-304.64
10.843,-306.03
10.859,-301.02
10.875,-288.58
10.890,-269.7
10.906,-246.84
10.921,-222.85
10.937,-199.62
10.953,-177.39
10.968,-155.14
10.984,-131.65
11.000,-106.68
11.015,-81.51
11.031,-58.48
11.046,-39.7
11.062,-25.78
11.078,-15.27
11.093,-5.23
11.109,7.24
11.125,23.42
11.140,41.94
11.156,59.24
11.171,71.15
11.187,74.79
11.203,70.12
11.218,60.01
11.234,49.11
11.250,41.94
11.265,41.05
11.281,46.17
11.296,54.53
11.312,62.18
11.328,65.38
11.343,61.84
11.359,51.04
11.375,34.11
11.390,13.27
11.406,-8.69
11.421,-29.02
11.437,-45.54
11.453,-57.14
11.468,-64.03
11.484,-67.61
11.500,-69.8
11.515,-72.29
11.531,-75.74
11.546,-79.55
11.562,-82.1
11.578,-81.43
11.593,-75.85
11.609,-64.55
11.625,-47.78
11.640,-26.95
11.656,-4.43
11.671,16.78
11.687,33.7
11.703,44.22
11.718,47.69
11.734,45.22
11.750,39.18
11.765,32.3
11.781,26.74
11.796,23.48
11.812,22.35
11.828,22.47
11.843,22.76
11.859,22.25
11.875,20.29
11.890,16.52
11.906,11.08
11.921,4.6
11.937,-1.83
11.953,-7.1
11.968,-10.48
11.984,-11.94
12.000,-12.02
12.015,-11.36
12.031,-10.23
12.046,-8.18
12.062,-4.27
12.078,2.39
12.093,12.19
12.109,24.75
12.125,39.09
12.140,54.03
12.156,68.66
12.171,82.39
12.187,95.03
12.203,106.48
12.218,116.63
12.234,125.38
12.250,132.73
12.265,138.93
12.281,144.47
12.296,150.02
12.312,156.16
12.328,163.29
12.343,171.54
12.359,180.92
12.375,191.37
12.390,202.71
12.406,214.49
12.421,225.81
12.437,235.51
12.453,242.37
12.468,245.6
12.484,244.9
12.500,240.4
12.515,232.22
12.531,220.3
12.546,204.52
12.562,185.29
12.578,164.13
12.593,143.75
12.609,127.5
12.625,118.11
12.640,116.52
12.656,121.25
12.671,128.72
12.687,134.42
12.703,134.16
12.718,125.14
12.734,106.37
12.750,78.63
12.765,44.14
12.781,6.12
12.796,-31.65
12.812,-65.42
12.828,-92.11
12.843,-109.98
12.859,-118.97
12.875,-120.59
12.890,-117.29
12.906,-111.56
12.921,-105.14
12.937,-98.56
12.953,-91.24
12.968,-82.0
12.984,-69.81
13.000,-54.25
13.015,-35.83
13.031,-15.72
13.046,4.62
13.062,23.9
13.078,41.26
13.093,56.14
13.109,68.14
13.125,76.75
13.140,81.42
13.156,81.86
13.171,78.39
13.187,72.09
13.203,64.54
13.218,57.4
13.234,51.81
13.250,48.29
13.265,46.83
13.281,47.3
13.296,49.79
13.312,54.59
13.328,61.99
13.343,71.81
13.359,83.27
13.375,94.97
13.390,105.37
13.406,113.28
13.421,118.17
13.437,120.2
13.453,119.82
13.468,117.32
13.484,112.46
13.500,104.48
13.515,92.48
13.531,76.02
13.546,55.57
13.562,32.71
13.578,9.75
13.593,-10.89
13.609,-27.36
13.625,-38.85
13.640,-45.53
13.656,-48.17
13.671,-47.66
13.687,-44.51
13.703,-38.95
13.718,-31.09
13.734,-21.31
13.750,-10.46
13.765,0.21
13.781,9.44
13.796,16.42
13.812,20.97
13.828,23.53
13.843,24.81
13.859,25.38
13.875,25.48
13.890,25.02
13.906,23.87
13.921,22.09
13.937,20.09
13.953,18.45
13.968,17.63
13.984,17.64
14.000,17.96
14.015,17.68
14.031,15.85
14.046,11.99
14.062,6.22
14.078,-0.74
14.093,-7.91
14.109,-14.43
14.125,-19.87
14.140,-24.33
14.156,-28.21
14.171,-32.03
14.187,-36.1
14.203,-40.53
14.218,-45.32
14.234,-50.42
14.250,-55.83
14.265,-61.38
14.281,-66.56
14.296,-70.32
14.312,-71.23
14.328,-67.88
14.343,-59.42
14.359,-46.09
14.375,-29.3
14.390,-11.36
14.406,5.3
14.421,18.79
14.437,28.22
14.453,33.62
14.468,35.48
14.484,34.16
14.500,29.48
14.515,20.96
14.531,8.23
14.546,-8.26
14.562,-27.0
14.578,-45.52
14.593,-61.22
14.609,-72.06
14.625,-77.22
14.640,-77.01
14.656,-72.29
14.671,-63.73
14.687,-51.42
14.703,-35.01
14.718,-14.45
14.734,9.29
14.750,33.95
14.765,56.46
14.781,73.93
14.796,84.69
14.812,88.77
14.828,87.83
14.843,84.28
14.859,80.42
14.875,77.64
14.890,76.22
14.906,75.57
14.921,74.73
14.937,72.86
14.953,69.41
14.968,64.1
14.984,56.9
15.000,47.93
15.015,37.66
15.031,26.93
15.046,16.9
15.062,8.62
15.078,2.73
15.093,-0.89
15.109,-3.02
15.125,-4.62
15.140,-6.23
15.156,-7.56
15.171,-7.53
15.187,-4.7
15.203,2.17
15.218,13.62
15.234,29.23
15.250,47.6
15.265,66.43
15.281,83.01
15.296,94.84
15.312,100.54
15.328,100.52
15.343,96.95
15.359,93.18
15.375,92.48
15.390,96.94
15.406,106.72
15.421,120.19
15.437,134.57
15.453,146.96
15.468,155.11
15.484,157.68
15.500,154.08
15.515,144.02
15.531,127.3
15.546,103.99
15.562,75.08
15.578,43.09
15.593,11.99
15.609,-13.73
15.625,-30.65
15.640,-37.73
15.656,-36.55
15.671,-30.34
15.687,-22.22
15.703,-13.78
15.718,-4.89
15.734,5.36
15.750,17.25
15.765,29.72
15.781,40.72
15.796,48.55
15.812,52.94
15.828,55.41
15.843,58.36
15.859,63.85
15.875,72.63
15.890,83.88
15.906,95.73
15.921,105.97
15.937,112.78
15.953,115.07
15.968,112.6
15.984,105.89
16.000,96.05
16.015,84.44
16.031,72.26
16.046,60.27
16.062,48.65
16.078,37.18
16.093,25.58
16.109,13.82
16.125,2.15
16.140,-9.11
16.156,-19.84
16.171,-30.29
16.187,-40.95
16.203,-52.29
16.218,-64.53
16.234,-77.71
16.250,-91.89
16.265,-107.32
16.281,-124.23
16.296,-142.3
16.312,-160.08
16.328,-175.05
16.343,-184.41
16.359,-186.55
16.375,-182.31
16.390,-175.11
16.406,-169.96
16.421,-171.35
16.437,-181.35
16.453,-198.75
16.468,-219.79
16.484,-239.82
16.500,-255.14
16.515,-263.99
16.531,-266.56
16.546,-264.33
16.562,-259.25
16.578,-253.15
16.593,-247.37
16.609,-242.45
16.625,-237.9
16.640,-232.33
16.656,-223.83
16.671,-210.99
16.687,-193.65
16.703,-173.27
16.718,-152.53
16.734,-134.19
16.750,-120.11
16.765,-110.57
16.781,-104.43
16.796,-99.83
16.812,-94.96
16.828,-88.45
16.843,-79.37
16.859,-66.94
16.875,-50.45
16.890,-29.33
16.906,-3.62
16.921,25.78
16.937,57.07
16.953,87.88
16.968,115.88
16.984,139.28
17.000,157.09
17.015,169.2
17.031,176.17
17.046,178.94
17.062,178.64
17.078,176.25
17.093,172.47
17.109,167.65
17.125,161.75
17.140,154.63
17.156,146.29
17.171,137.17
17.187,128.13
17.203,120.36
17.218,114.98
17.234,112.73
17.250,113.71
17.265,117.35
17.281,122.68
17.296,128.72
17.312,134.81
17.328,140.82
17.343,146.99
17.359,153.62
17.375,160.7
17.390,167.92
17.406,174.64
17.421,180.25
17.437,184.36
17.453,186.64
17.468,186.62
17.484,183.64
17.500,177.03
17.515,166.52
17.531,152.63
17.546,136.44
17.562,119.07
17.578,100.95
17.593,81.55
17.609,59.79
17.625,35.01
17.640,7.76
17.656,-20.19
17.671,-46.61
17.687,-70.06
17.703,-90.69
17.718,-110.13
17.734,-130.58
17.750,-153.66
17.765,-179.7
17.781,-207.89
17.796,-236.97
17.812,-265.81
17.828,-293.67
17.843,-319.96
17.859,-343.89
17.875,-364.32
17.890,-379.94
17.906,-389.58
17.921,-392.33
17.937,-387.58
17.953,-374.89
17.968,-354.12
17.984,-325.68
18.000,-290.85
18.015,-251.81
18.031,-211.25
18.046,-171.6
18.062,-134.46
18.078,-100.23
18.093,-68.25
18.109,-37.2
18.125,-5.6
18.140,27.78
18.156,63.56
18.171,101.39
18.187,139.82
18.203,176.36
18.218,207.89
18.234,231.52
18.250,245.44
18.265,249.56
18.281,245.61
18.296,236.5
18.312,225.41
18.328,214.78
18.343,205.8
18.359,198.35
18.375,191.42
18.390,183.73
18.406,174.17
18.421,162.24
18.437,148.13
18.453,132.64
18.468,117.02
18.484,102.49
18.500,89.84
18.515,79.18
18.531,69.78
18.546,60.35
18.562,49.37
18.578,35.53
18.593,17.99
18.609,-3.59
18.625,-29.09
18.640,-57.94
18.656,-89.15
18.671,-121.28
18.687,-152.58
18.703,-181.19
18.718,-205.59
18.734,-224.85
18.750,-238.73
18.765,-247.41
18.781,-251.25
18.796,-250.56
18.812,-245.68
18.828,-237.24
18.843,-226.31
18.859,-214.28
18.875,-202.37
18.890,-191.17
18.906,-180.2
18.921,-168.08
18.937,-152.98
18.953,-133.55
18.968,-109.57
18.984,-82.36
19.000,-54.58
19.015,-29.44
19.031,-9.74
19.046,2.87
19.062,8.18
19.078,7.07
19.093,0.79
19.109,-9.7
19.125,-24.12
19.140,-42.77
19.156,-66.01
19.171,-93.71
19.187,-124.92
19.203,-157.87
19.218,-190.35
19.234,-220.14
19.250,-245.3
19.265,-264.23
19.281,-275.58
19.296,-278.12
19.312,-270.86
19.328,-253.34
19.343,-226.07
19.359,-190.78
19.375,-150.4
19.390,-108.63
19.406,-69.19
19.421,-34.9
19.437,-6.9
19.453,15.79
19.468,35.85
19.484,56.54
19.500,80.18
19.515,106.92
19.531,134.5
19.546,159.12
19.562,177.12
19.578,186.66
19.593,188.34
19.609,184.85
19.625,179.6
19.640,175.4
19.656,173.61
19.671,174.14
19.687,175.97
19.703,177.5
19.718,176.85
19.734,171.85
19.750,160.51
19.765,141.54
19.781,115.05
19.796,82.75
19.812,47.35
19.828,11.64
19.843,-22.51
19.859,-54.51
19.875,-84.52
19.890,-112.43
19.906,-136.91
19.921,-155.29
19.937,-164.61
19.953,-163.47
19.968,-153.58
19.984,-140.02
20.000,-129.7
20.015,-128.5
20.031,-138.63
20.046,-157.53
20.062,-178.93
20.078,-195.69
20.093,-202.88
20.109,-199.57
20.125,-188.46
20.140,-173.98
20.156,-159.9
20.171,-147.95
20.187,-137.87
20.203,-128.66
20.218,-119.8
20.234,-111.88
20.250,-106.05
20.265,-103.01
20.281,-102.14
20.296,-101.37
20.312,-98.05
20.328,-90.19
20.343,-77.33
20.359,-60.68
20.375,-42.45
20.390,-24.62
20.406,-8.0
20.421,8.04
20.437,25.05
20.453,44.46
20.468,66.69
20.484,90.71
20.500,114.35
20.515,135.07
20.531,150.85
20.546,160.74
20.562,164.9
20.578,164.33
20.593,160.27
20.609,153.66
20.625,145.0
20.640,134.34
20.656,121.72
20.671,107.49
20.687,92.42
20.703,77.47
20.718,63.33
20.734,50.3
20.750,38.43
20.765,28.23
20.781,21.15
20.796,19.53
20.812,25.6
20.828,39.93
20.843,60.31
20.859,81.89
20.875,98.81
20.890,106.53
20.906,103.66
20.921,92.06
20.937,75.44
20.953,57.23
20.968,39.35
20.984,22.4
21.000,7.0
21.015,-5.12
21.031,-11.25
21.046,-9.06
21.062,1.7
21.078,18.7
21.093,38.02
21.109,56.02
21.125,70.85
21.140,82.51
21.156,91.67
21.171,98.28
21.187,101.26
21.203,99.26
21.218,92.09
21.234,81.37
21.250,70.05
21.265,60.92
21.281,55.38
21.296,53.11
21.312,52.94
21.328,54.01
21.343,56.51
21.359,61.45
21.375,69.87
21.390,82.01
21.406,96.97
21.421,112.91
21.437,127.67
21.453,139.15
21.468,145.68
21.484,146.18
21.500,140.45
21.515,129.3
21.531,114.43
21.546,97.94
21.562,81.72
21.578,66.9
21.593,53.87
21.609,42.61
21.625,33.14
21.640,25.66
21.656,20.2
21.671,16.25
21.687,12.58
21.703,7.79
21.718,1.06
21.734,-7.2
21.750,-15.37
21.765,-21.36
21.781,-23.54
21.796,-21.38
21.812,-15.35
21.828,-6.44
21.843,4.28
21.859,15.75
21.875,26.77
21.890,35.97
21.906,42.25
21.921,45.39
21.937,46.39
21.953,47.24
21.968,49.97
21.984,55.71
22.000,64.18
22.015,73.91
22.031,83.09
22.046,90.32
22.062,94.86
22.078,96.4
22.093,94.66
22.109,89.28
22.125,80.18
22.140,67.94
22.156,54.02
22.171,40.25
22.187,28.05
22.203,17.63
22.218,7.96
22.234,-2.46
22.250,-14.39
22.265,-26.77
22.281,-36.76
22.296,-40.84
22.312,-36.47
22.328,-23.71
22.343,-5.54
22.359,12.95
22.375,26.48
22.390,31.43
22.406,26.83
22.421,14.24
22.437,-3.16
22.453,-21.72
22.468,-37.97
22.484,-48.87
22.500,-52.09
22.515,-46.46
22.531,-32.7
22.546,-13.54
22.562,6.77
22.578,23.85
22.593,34.86
22.609,39.48
22.625,39.82
22.640,39.13
22.656,40.3
22.671,44.61
22.687,51.67
22.703,59.93
22.718,67.65
22.734,73.63
22.750,77.43
22.765,79.33
22.781,80.07
22.796,80.61
22.812,81.75
22.828,83.77
22.843,86.2
22.859,87.84
22.875,87.02
22.890,82.07
22.906,71.79
22.921,55.8
22.937,34.96
22.953,11.49
22.968,-11.15
22.984,-28.97
23.000,-38.63
23.015,-38.53
23.031,-29.64
23.046,-15.35
23.062,-0.38
23.078,10.55
23.093,14.03
23.109,8.58
23.125,-5.29
23.140,-25.57
23.156,-49.34
23.171,-73.44
23.187,-95.04
23.203,-112.03
23.218,-123.25
23.234,-128.38
23.250,-127.61
23.265,-121.27
23.281,-109.61
23.296,-92.86
23.312,-71.65
23.328,-47.21
23.343,-21.45
23.359,3.41
23.375,25.42
23.390,43.39
23.406,57.09
23.421,67.09
23.437,74.25
23.453,79.22
23.468,82.14
23.484,82.66
23.500,80.36
23.515,75.4
23.531,68.85
23.546,62.39
23.562,57.64
23.578,55.2
23.593,54.2
23.609,52.65
23.625,48.42
23.640,40.39
23.656,29.11
23.671,16.64
23.687,5.63
23.703,-1.72
23.718,-4.49
23.734,-3.22
23.750,0.37
23.765,3.95
23.781,5.2
23.796,2.21
23.812,-6.03
23.828,-19.35
23.843,-36.24
23.859,-54.15
23.875,-70.11
23.890,-81.63
23.906,-87.29
23.921,-86.95
23.937,-81.47
23.953,-72.09
23.968,-60.11
23.984,-46.66
24.000,-32.84
24.015,-19.85
24.031,-9.0
24.046,-1.43
24.062,2.29
24.078,2.48
24.093,0.4
24.109,-1.94
24.125,-2.22
24.140,1.59
24.156,10.79
24.171,25.49
24.187,44.47
24.203,65.33
24.218,85.08
24.234,100.88
24.250,110.83
24.265,114.32
24.281,112.03
24.296,105.46
24.312,96.41
24.328,86.5
24.343,76.9
24.359,68.19
24.375,60.43
24.390,53.16
24.406,45.59
24.421,36.84
24.437,26.26
24.453,13.75
24.468,-0.22
24.484,-14.77
24.500,-28.99
24.515,-42.33
24.531,-54.73
24.546,-66.48
24.562,-77.92
24.578,-89.07
24.593,-99.54
24.609,-108.61
24.625,-115.51
24.640,-119.59
24.656,-120.48
24.671,-118.04
24.687,-112.29
24.703,-103.38
24.718,-91.7
24.734,-77.99
24.750,-63.4
24.765,-49.4
24.781,-37.27
24.796,-27.73
24.812,-20.68
24.828,-15.28
24.843,-10.48
24.859,-5.42
24.875,0.16
24.890,6.06
24.906,11.86
24.921,17.27
24.937,22.23
24.953,26.78
24.968,30.75
24.984,33.61
25.000,34.7
25.015,33.54
25.031,30.3
25.046,25.81
25.062,21.26
25.078,17.59
25.093,15.03
25.109,13.05
25.125,10.77
25.140,7.55
25.156,3.37
25.171,-1.17
25.187,-5.39
25.203,-9.07
25.218,-12.83
25.234,-17.7
25.250,-24.5
25.265,-33.23
25.281,-42.89
25.296,-51.86
25.312,-58.69
25.328,-62.65
25.343,-63.91
25.359,-63.2
25.375,-61.28
25.390,-58.47
25.406,-54.66
25.421,-49.48
25.437,-42.69
25.453,-34.47
25.468,-25.36
25.484,-16.1
25.500,-7.31
25.515,0.68
25.531,7.85
25.546,14.31
25.562,20.08
25.578,25.09
25.593,29.15
25.609,32.19
25.625,34.32
25.640,35.85
25.656,37.17
25.671,38.53
25.687,39.98
25.703,41.41
25.718,42.55
25.734,43.11
25.750,42.79
25.765,41.33
25.781,38.52
25.796,34.26
25.812,28.64
25.828,21.91
25.843,14.44
25.859,6.66
25.875,-1.06
25.890,-8.37
25.906,-15.02
25.921,-20.83
25.937,-25.84
25.953,-30.32
25.968,-34.82
25.984,-40.09
26.000,-46.8
26.015,-55.35
26.031,-65.58
26.046,-76.76
26.062,-87.61
26.078,-96.63
26.093,-102.48
26.109,-104.29
26.125,-101.93
26.140,-95.99
26.156,-87.62
26.171,-78.12
26.187,-68.58
26.203,-59.6
26.218,-51.11
26.234,-42.62
26.250,-33.5
26.265,-23.4
26.281,-12.48
26.296,-1.41
26.312,8.81
26.328,17.21
26.343,23.02
26.359,25.9
26.375,26.01
26.390,24.02
26.406,21.03
26.421,18.41
26.437,17.36
26.453,18.48
26.468,21.37
26.484,24.55
26.500,25.9
26.515,23.36
26.531,15.88
26.546,3.76
26.562,-11.58
26.578,-28.15
26.593,-44.4
26.609,-59.52
26.625,-73.35
26.640,-85.77
26.656,-96.09
26.671,-102.79
26.687,-103.73
26.703,-96.86
26.718,-81.17
26.734,-57.47
26.750,-28.54
26.765,1.55
26.781,28.56
26.796,49.33
26.812,62.46
26.828,68.12
26.843,67.47
26.859,62.06
26.875,53.53
26.890,43.77
26.906,34.92
26.921,28.88
26.937,26.4
26.953,26.41
26.968,26.04
26.984,21.84
27.000,11.39
27.015,-5.37
27.031,-26.12
27.046,-47.17
27.062,-65.02
27.078,-77.36
27.093,-83.12
27.109,-82.16
27.125,-74.75
27.140,-61.62
27.156,-44.17
27.171,-24.53
27.187,-5.28
27.203,11.33
27.218,23.89
27.234,32.16
27.250,36.64
27.265,38.13
27.281,37.24
27.296,34.3
27.312,29.52
27.328,23.23
27.343,15.93
27.359,8.24
27.375,0.75
27.390,-6.03
27.406,-11.65
27.421,-15.73
27.437,-18.1
27.453,-18.94
27.468,-19.06
27.484,-19.79
27.500,-22.82
27.515,-29.47
27.531,-40.06
27.546,-53.29
27.562,-66.26
27.578,-75.22
27.593,-76.71
27.609,-68.81
27.625,-51.84
27.640,-28.06
27.656,-0.65
27.671,27.47
27.687,54.46
27.703,79.29
27.718,101.1
27.734,118.37
27.750,128.92
27.765,130.8
27.781,123.39
27.796,108.17
27.812,88.4
27.828,68.04
27.843,50.22
27.859,36.36
27.875,26.18
27.890,18.45
27.906,11.93
27.921,6.08
27.937,1.1
27.953,-2.43
27.968,-4.09
27.984,-3.85
28.000,-2.1
28.015,0.63
28.031,3.88
28.046,7.32
28.062,10.74
28.078,14.01
28.093,16.99
28.109,19.54
28.125,21.6
28.140,23.19
28.156,24.33
28.171,25.0
28.187,25.07
28.203,24.32
28.218,22.54
28.234,19.6
28.250,15.54
28.265,10.58
28.281,5.06
28.296,-0.54
28.312,-5.71
28.328,-10.04
28.343,-13.3
28.359,-15.57
28.375,-17.17
28.390,-18.54
28.406,-19.98
28.421,-21.42
28.437,-22.42
28.453,-22.29
28.468,-20.41
28.484,-16.42
28.500,-10.44
28.515,-3.1
28.531,4.6
28.546,11.43
28.562,16.24
28.578,18.12
28.593,16.69
28.609,12.16
28.625,5.4
28.640,-2.18
28.656,-8.79
28.671,-12.72
28.687,-12.9
28.703,-9.39
28.718,-3.55
28.734,2.32
28.750,6.0
28.765,6.33
28.781,4.05
28.796,1.62
28.812,2.37
28.828,9.02
28.843,22.43
28.859,40.95
28.875,60.68
28.890,76.67
28.906,84.33
28.921,80.98
28.937,66.54
28.953,43.5
28.968,15.83
28.984,-12.33
29.000,-37.94
29.015,-59.57
29.031,-77.19
29.046,-91.45
29.062,-102.99
29.078,-112.18
29.093,-119.25
29.109,-124.41
29.125,-127.87
29.140,-129.49
29.156,-128.49
29.171,-123.44
29.187,-112.76
29.203,-95.41
29.218,-71.5
29.234,-42.35
29.250,-10.12
29.265,22.79
29.281,54.09
29.296,81.67
29.312,103.5
29.328,117.5
29.343,121.85
29.359,115.69
29.375,99.74
29.390,76.61
29.406,50.31
29.421,25.15
29.437,4.49
29.453,-10.09
29.468,-18.72
29.484,-22.51
29.500,-22.51
29.515,-19.15
29.531,-12.57
29.546,-3.42
29.562,6.36
29.578,13.61
29.593,14.92
29.609,8.18
29.625,-6.35
29.640,-25.92
29.656,-46.47
29.671,-64.21
29.687,-77.01
29.703,-84.78
29.718,-88.89
29.734,-91.2
29.750,-93.2
29.765,-95.71
29.781,-99.19
29.796,-104.0
29.812,-110.41
29.828,-118.27
29.843,-126.57
29.859,-133.37
29.875,-136.31
29.890,-133.34
29.906,-123.54
29.921,-107.38
29.937,-86.42
29.953,-62.75
29.968,-38.25
29.984,-14.31
30.000,8.27
30.015,29.02
30.031,47.75
30.046,64.51
30.062,79.6
30.078,93.51
30.093,106.65
30.109,119.0
30.125,129.96
30.140,138.52
30.156,143.7
30.171,145.05
30.187,142.89
30.203,138.21
30.218,132.34
30.234,126.47
30.250,121.36
30.265,117.18
30.281,113.58
30.296,109.91
30.312,105.55
30.328,100.18
30.343,94.01
30.359,87.67
30.375,81.99
30.390,77.5
30.406,74.06
30.421,70.73
30.437,66.16
30.453,59.26
30.468,49.9
30.484,39.22
30.500,29.38
30.515,22.76
30.531,21.03
30.546,24.51
30.562,31.89
30.578,40.65
30.593,47.54
30.609,49.34
30.625,43.44
30.640,28.32
30.656,4.07
30.671,-27.4
30.687,-62.4
30.703,-96.27
30.718,-124.57
30.734,-144.51
30.750,-155.76
30.765,-160.23
30.781,-160.86
30.796,-160.09
30.812,-158.85
30.828,-156.46
30.843,-151.51
30.859,-142.9
30.875,-130.56
30.890,-115.38
30.906,-98.66
30.921,-81.62
30.937,-65.12
30.953,-50.0
30.968,-37.23
30.984,-27.78
31.000,-22.05
31.015,-19.16
31.031,-16.83
31.046,-11.85
31.062,-1.32
31.078,16.24
31.093,40.19
31.109,67.93
31.125,95.71
31.140,119.75
31.156,137.27
31.171,147.02
31.187,149.49
31.203,146.53
31.218,140.81
31.234,135.0
31.250,130.95
31.265,129.05
31.281,128.09
31.296,125.61
31.312,118.94
31.328,106.26
31.343,87.49
31.359,64.37
31.375,39.89
31.390,17.19
31.406,-1.57
31.421,-15.74
31.437,-26.11
31.453,-34.09
31.468,-40.83
31.484,-46.56
31.500,-50.61
31.515,-51.9
31.531,-49.63
31.546,-43.83
31.562,-35.32
31.578,-25.33
31.593,-14.95
31.609,-4.8
31.625,4.92
31.640,14.08
31.656,22.38
31.671,29.27
31.687,34.18
31.703,36.86
31.718,37.6
31.734,37.13
31.750,36.34
31.765,35.92
31.781,36.11
31.796,36.81
31.812,37.62
31.828,38.16
31.843,38.17
31.859,37.61
31.875,36.59
31.890,35.43
31.906,34.46
31.921,33.94
31.937,33.89
31.953,34.0
31.968,33.68
31.984,32.34
32.000,29.59
32.015,25.48
32.031,20.47
32.046,15.24
32.062,10.39
32.078,6.19
32.093,2.53
32.109,-1.08
32.125,-5.32
32.140,-10.8
32.156,-17.87
32.171,-26.39
32.187,-35.7
32.203,-44.8
32.218,-52.61
32.234,-58.32
32.250,-61.63
32.265,-62.66
32.281,-61.78
32.296,-59.3
32.312,-55.35
32.328,-49.88
32.343,-42.9
32.359,-34.66
32.375,-25.78
32.390,-17.03
32.406,-9.13
32.421,-2.5
32.437,2.86
32.453,7.23
32.468,10.99
32.484,14.46
32.500,17.88
32.515,21.48
32.531,25.49
32.546,30.05
32.562,34.9
32.578,39.14
32.593,41.16
32.609,39.2
32.625,32.08
32.640,19.97
32.656,4.55
32.671,-11.48
32.687,-25.26
32.703,-34.61
32.718,-38.19
32.734,-35.38
32.750,-25.7
32.765,-8.76
32.781,15.36
32.796,45.17
32.812,77.16
32.828,105.79
32.843,124.87
32.859,129.53
32.875,118.25
32.890,93.7
32.906,61.91
32.921,30.14
32.937,4.26
32.953,-13.03
32.968,-22.45
32.984,-26.98
33.000,-30.01
33.015,-33.77
33.031,-38.86
33.046,-44.73
33.062,-50.52
33.078,-55.62
33.093,-59.68
33.109,-62.22
33.125,-62.3
33.140,-58.68
33.156,-50.46
33.171,-37.68
33.187,-21.69
33.203,-4.89
33.218,10.02
33.234,20.92
33.250,26.89
33.265,28.33
33.281,26.58
33.296,23.38
33.312,20.34
33.328,18.54
33.343,18.36
33.359,19.42
33.375,20.73
33.390,21.04
33.406,19.6
33.421,16.64
33.437,13.6
33.453,12.5
33.468,14.87
33.484,20.85
33.500,28.88
33.515,36.45
33.531,41.19
33.546,41.81
33.562,38.04
33.578,30.03
33.593,17.65
33.609,0.4
33.625,-21.87
33.640,-48.2
33.656,-76.23
33.671,-102.84
33.687,-125.43
33.703,-143.09
33.718,-156.77
33.734,-168.53
33.750,-180.19
33.765,-192.13
33.781,-203.1
33.796,-210.83
33.812,-213.16
33.828,-209.08
33.843,-199.04
33.859,-184.64
33.875,-167.76
33.890,-149.85
33.906,-131.4
33.921,-112.27
33.937,-92.03
33.953,-70.66
33.968,-48.71
33.984,-27.02
34.000,-6.3
34.015,13.28
34.031,32.02
34.046,50.34
34.062,68.19
34.078,84.93
34.093,99.54
34.109,111.08
34.125,119.17
34.140,124.04
34.156,126.22
34.171,126.08
34.187,123.64
34.203,118.66
34.218,111.15
34.234,101.64
34.250,91.31
34.265,81.56
34.281,73.54
34.296,67.66
34.312,63.44
34.328,59.89
34.343,55.92
34.359,50.91
34.375,44.89
34.390,38.47
34.406,32.38
34.421,27.12
34.437,22.76
34.453,19.1
34.468,15.97
34.484,13.53
34.500,12.25
34.515,12.71
34.531,15.19
34.546,19.35
34.562,24.28
34.578,28.68
34.593,31.39
34.609,31.79
34.625,29.96
34.640,26.58
34.656,22.53
34.671,18.39
34.687,14.19
34.703,9.39
34.718,3.27
34.734,-4.5
34.750,-13.55
34.765,-22.89
34.781,-31.57
34.796,-39.44
34.812,-47.42
34.828,-57.14
34.843,-69.96
34.859,-85.86
34.875,-103.16
34.890,-118.85
34.906,-129.81
34.921,-133.75
34.937,-129.9
34.953,-118.93
34.968,-102.47
34.984,-82.59
35.000,-61.44
35.015,-40.99
35.031,-22.87
35.046,-8.09
35.062,3.24
35.078,11.99
35.093,19.62
35.109,27.4
35.125,35.76
35.140,43.92
35.156,50.28
35.171,53.27
35.187,52.2
35.203,47.75
35.218,41.74
35.234,36.25
35.250,32.72
35.265,31.43
35.281,31.6
35.296,32.12
35.312,32.29
35.328,32.16
35.343,32.32
35.359,33.28
35.375,34.92
35.390,36.49
35.406,36.88
35.421,35.33
35.437,31.82
35.453,27.08
35.468,22.18
35.484,18.07
35.500,15.14
35.515,13.25
35.531,11.91
35.546,10.59
35.562,8.95
35.578,6.86
35.593,4.38
35.609,1.78
35.625,-0.54
35.640,-2.08
35.656,-2.32
35.671,-1.02
35.687,1.57
35.703,4.55
35.718,6.6
35.734,6.35
35.750,2.96
35.765,-3.57
35.781,-12.36
35.796,-21.93
35.812,-30.71
35.828,-37.36
35.843,-40.99
35.859,-41.31
35.875,-38.49
35.890,-33.21
35.906,-26.48
35.921,-19.4
35.937,-12.79
35.953,-6.95
35.968,-1.54
35.984,4.22
36.000,11.09
36.015,19.42
36.031,29.0
36.046,39.18
36.062,49.08
36.078,57.77
36.093,64.38
36.109,68.1
36.125,68.39
36.140,65.24
36.156,59.35
36.171,52.02
36.187,44.83
36.203,39.1
36.218,35.48
36.234,33.92
36.250,33.88
36.265,34.69
36.281,35.69
36.296,36.24
36.312,35.66
36.328,33.22
36.343,28.42
36.359,21.34
36.375,12.81
36.390,4.29
36.406,-2.67
36.421,-7.09
36.437,-9.08
36.453,-10.01
36.468,-11.93
36.484,-16.58
36.500,-24.51
36.515,-34.68
36.531,-44.79
36.546,-52.41
36.562,-55.92
36.578,-55.11
36.593,-50.94
36.609,-44.82
36.625,-38.0
36.640,-31.39
36.656,-25.86
36.671,-22.66
36.687,-23.33
36.703,-29.11
36.718,-40.06
36.734,-54.5
36.750,-69.21
36.765,-80.42
36.781,-85.06
36.796,-81.81
36.812,-71.35
36.828,-55.97
36.843,-38.69
36.859,-22.35
36.875,-8.87
36.890,0.98
36.906,7.46
36.921,11.49
36.937,14.19
36.953,16.58
36.968,19.32
36.984,22.76
37.000,26.84
37.015,30.98
37.031,33.98
37.046,34.19
37.062,30.05
37.078,20.78
37.093,6.97
37.109,-9.34
37.125,-25.34
37.140,-38.57
37.156,-47.87
37.171,-53.68
37.187,-57.69
37.203,-61.81
37.218,-67.4
37.234,-74.85
37.250,-83.76
37.265,-93.26
37.281,-102.22
37.296,-109.2
37.312,-112.43
37.328,-110.1
37.343,-101.11
37.359,-85.82
37.375,-66.41
37.390,-46.37
37.406,-29.34
37.421,-17.85
37.437,-12.4
37.453,-11.6
37.468,-13.0
37.484,-14.27
37.500,-14.0
37.515,-11.91
37.531,-8.41
37.546,-4.04
37.562,0.99
37.578,6.88
37.593,13.92
37.609,22.23
37.625,31.52
37.640,41.2
37.656,50.65
37.671,59.44
37.687,67.46
37.703,74.83
37.718,81.8
37.734,88.62
37.750,95.56
37.765,102.85
37.781,110.65
37.796,118.83
37.812,126.79
37.828,133.33
37.843,136.81
37.859,135.6
37.875,128.5
37.890,115.18
37.906,96.28
37.921,73.22
37.937,47.99
37.953,22.68
37.968,-0.8
37.984,-21.19
38.000,-38.2
38.015,-52.57
38.031,-65.78
38.046,-79.56
38.062,-95.14
38.078,-112.67
38.093,-131.03
38.109,-148.1
38.125,-161.54
38.140,-169.53
38.156,-171.35
38.171,-167.35
38.187,-158.6
38.203,-146.42
38.218,-132.03
38.234,-116.41
38.250,-100.39
38.265,-84.62
38.281,-69.61
38.296,-55.54
38.312,-42.17
38.328,-28.99
38.343,-15.53
38.359,-1.75
38.375,11.7
38.390,23.59
38.406,32.56
38.421,37.71
38.437,38.99
38.453,37.3
38.468,34.21
38.484,31.52
38.500,30.63
38.515,32.18
38.531,35.99
38.546,41.3
38.562,47.28
38.578,53.43
38.593,59.72
38.609,66.52
38.625,74.18
38.640,82.75
38.656,91.65
38.671,99.6
38.687,104.75
38.703,105.04
38.718,98.91
38.734,85.89
38.750,67.07
38.765,45.02
38.781,23.09
38.796,4.37
38.812,-9.27
38.828,-17.68
38.843,-22.14
38.859,-24.56
38.875,-26.62
38.890,-29.13
38.906,-31.94
38.921,-34.23
38.937,-35.16
38.953,-34.22
38.968,-31.48
38.984,-27.38
39.000,-22.32
39.015,-16.35
39.031,-9.06
39.046,0.09
39.062,11.33
39.078,24.1
39.093,37.14
39.109,49.03
39.125,58.82
39.140,66.55
39.156,73.16
39.171,79.82
39.187,87.25
39.203,95.28
39.218,102.97
39.234,109.17
39.250,113.0
39.265,114.05
39.281,112.15
39.296,107.0
39.312,98.02
39.328,84.73
39.343,67.29
39.359,47.04
39.375,26.42
39.390,8.41
39.406,-4.35
39.421,-10.34
39.437,-9.55
39.453,-3.27
39.468,6.31
39.484,16.71
39.500,25.54
39.515,30.92
39.531,31.82
39.546,28.27
39.562,21.41
39.578,13.08
39.593,5.18
39.609,-0.96
39.625,-4.83
39.640,-6.61
39.656,-6.61
39.671,-4.9
39.687,-1.38
39.703,3.81
39.718,9.85
39.734,15.17
39.750,18.07
39.765,17.47
39.781,13.54
39.796,7.63
39.812,1.62
39.828,-2.94
39.843,-5.49
39.859,-6.4
39.875,-6.65
39.890,-7.3
39.906,-9.18
39.921,-12.78
39.937,-18.29
39.953,-25.68
39.968,-34.66
39.984,-44.7
40.000,-55.01
40.015,-64.58
40.031,-72.35
40.046,-77.49
40.062,-79.65
40.078,-79.21
40.093,-77.12
40.109,-74.32
40.125,-71.15
40.140,-66.95
40.156,-60.34
40.171,-49.98
40.187,-35.64
40.203,-18.82
40.218,-2.62
40.234,9.39
40.250,14.48
40.265,11.86
40.281,2.78
40.296,-10.16
40.312,-24.25
40.328,-37.58
40.343,-49.33
40.359,-59.3
40.375,-67.13
40.390,-71.9
40.406,-72.35
40.421,-67.68
40.437,-58.42
40.453,-46.59
40.468,-35.09
40.484,-26.46
40.500,-21.93
40.515,-21.19
40.531,-23.04
40.546,-26.29
40.562,-30.28
40.578,-34.79
40.593,-39.47
40.609,-43.46
40.625,-45.65
40.640,-45.14
40.656,-41.86
40.671,-36.5
40.687,-30.12
40.703,-23.52
40.718,-16.84
40.734,-9.6
40.750,-1.04
40.765,9.51
40.781,22.32
40.796,37.04
40.812,52.55
40.828,66.88
40.843,77.5
40.859,82.08
40.875,79.53
40.890,70.77
40.906,58.72
40.921,47.42
40.937,40.47
40.953,39.8
40.968,45.05
40.984,53.82
41.000,62.36
41.015,66.66
41.031,63.44
41.046,51.17
41.062,30.65
41.078,5.16
41.093,-20.33
41.109,-40.63
41.125,-52.14
41.140,-54.16
41.156,-49.09
41.171,-41.44
41.187,-35.95
41.203,-35.97
41.218,-42.49
41.234,-54.26
41.250,-68.55
41.265,-82.12
41.281,-92.08
41.296,-96.48
41.312,-94.56
41.328,-86.77
41.343,-74.5
41.359,-59.55
41.375,-43.62
41.390,-28.01
41.406,-13.58
41.421,-0.97
41.437,9.07
41.453,15.57
41.468,17.42
41.484,13.92
41.500,5.23
41.515,-7.3
41.531,-21.18
41.546,-33.41
41.562,-41.17
41.578,-42.53
41.593,-36.93
41.609,-25.06
41.625,-8.52
41.640,10.64
41.656,30.34
41.671,48.62
41.687,63.75
41.703,74.25
41.718,79.05
41.734,77.91
41.750,71.62
41.765,61.97
41.781,51.38
41.796,42.09
41.812,35.55
41.828,32.08
41.843,30.94
41.859,30.93
41.875,31.02
41.890,30.67
41.906,29.73
41.921,28.21
41.937,25.8
41.953,21.89
41.968,15.81
41.984,7.4
42.000,-2.79
42.015,-13.5
42.031,-23.16
42.046,-30.54
42.062,-35.12
42.078,-37.14
42.093,-37.24
42.109,-35.94
42.125,-33.39
42.140,-29.24
42.156,-22.9
42.171,-13.83
42.187,-1.81
42.203,12.95
42.218,29.78
42.234,47.7
42.250,65.53
42.265,82.12
42.281,96.68
42.296,108.98
42.312,119.59
42.328,129.57
42.343,139.98
42.359,151.1
42.375,161.91
42.390,170.07
42.406,172.49
42.421,166.4
42.437,150.56
42.453,125.99
42.468,95.99
42.484,65.24
42.500,38.34
42.515,18.27
42.531,5.6
42.546,-1.37
42.562,-5.49
42.578,-9.41
42.593,-14.49
42.609,-20.6
42.625,-26.71
42.640,-31.77
42.656,-35.51
42.671,-38.43
42.687,-41.39
42.703,-44.93
42.718,-48.82
42.734,-52.12
42.750,-53.72
42.765,-52.79
42.781,-49.2
42.796,-43.52
42.812,-36.67
42.828,-29.7
42.843,-23.46
42.859,-18.56
42.875,-15.38
42.890,-14.02
42.906,-14.25
42.921,-15.64
42.937,-17.6
42.953,-19.64
42.968,-21.51
42.984,-23.2
43.000,-24.85
43.015,-26.41
43.031,-27.67
43.046,-28.27
43.062,-28.03
43.078,-27.08
43.093,-25.89
43.109,-25.03
43.125,-24.8
43.140,-25.05
43.156,-25.27
43.171,-24.88
43.187,-23.61
43.203,-21.66
43.218,-19.6
43.234,-18.09
43.250,-17.53
43.265,-17.87
43.281,-18.61
43.296,-19.07
43.312,-18.77
43.328,-17.76
43.343,-16.69
43.359,-16.61
43.375,-18.45
43.390,-22.69
43.406,-29.1
43.421,-36.84
43.437,-44.8
43.453,-51.98
43.468,-57.71
43.484,-61.75
43.500,-64.11
43.515,-64.85
43.531,-63.93
43.546,-61.17
43.562,-56.24
43.578,-48.8
43.593,-38.5
43.609,-25.19
43.625,-9.03
43.640,9.38
43.656,28.88
43.671,47.84
43.687,64.33
43.703,76.46
43.718,82.87
43.734,83.24
43.750,78.63
43.765,71.44
43.781,64.64
43.796,60.81
43.812,61.06
43.828,64.7
43.843,69.63
43.859,73.61
43.875,75.48
43.890,75.9
43.906,77.15
43.921,81.87
43.937,91.6
43.953,105.52
43.968,120.38
43.984,131.41
44.000,133.98
44.015,125.45
44.031,106.12
44.046,79.31
44.062,50.25
44.078,24.45
44.093,6.02
44.109,-3.37
44.125,-4.7
44.140,-1.01
44.156,3.6
44.171,5.22
44.187,1.06
44.203,-9.82
44.218,-26.34
44.234,-45.62
44.250,-63.65
44.265,-76.38
44.281,-80.77
44.296,-75.79
44.312,-62.83
44.328,-45.62
44.343,-29.44
44.359,-19.59
44.375,-19.76
44.390,-30.6
44.406,-49.35
44.421,-70.64
44.437,-88.3
44.453,-97.46
44.468,-95.98
44.484,-84.75
44.500,-66.8
44.515,-46.03
44.531,-25.7
44.546,-8.13
44.562,5.49
44.578,14.8
44.593,20.16
44.609,22.64
44.625,24.05
44.640,26.81
44.656,33.29
44.671,45.43
44.687,63.82
44.703,87.45
44.718,113.93
44.734,140.11
44.750,162.76
44.765,179.15
44.781,187.5
44.796,186.91
44.812,178.27
44.828,163.34
44.843,144.9
44.859,126.17
44.875,110.05
44.890,98.41
44.906,91.47
44.921,87.87
44.937,84.56
44.953,79.77
44.968,71.67
44.984,59.68
45.000,44.35
45.015,27.09
45.031,9.64
45.046,-6.36
45.062,-19.47
45.078,-29.88
45.093,-35.35
45.109,-35.76
45.125,-31.79
45.140,-25.25
45.156,-18.83
45.171,-15.57
45.187,-18.21
45.203,-28.46
45.218,-48.92
45.234,-76.47
45.250,-109.36
45.265,-145.09
45.281,-180.82
45.296,-213.81
45.312,-241.89
45.328,-263.75
45.343,-278.72
45.359,-289.03
45.375,-290.84
45.390,-283.09
45.406,-264.95
45.421,-236.77
45.437,-200.9
45.453,-161.69
45.468,-124.36
45.484,-75.57
45.500,-39.16
45.515,-9.37
45.531,17.92
45.546,46.27
45.562,76.68
45.578,107.3
45.593,134.63
45.609,155.67
45.625,169.55
45.640,174.91
45.656,177.29
45.671,178.62
45.687,179.45
45.703,179.25
45.718,177.55
45.734,174.75
45.750,171.98
45.765,170.33
45.781,167.66
45.796,165.12
45.812,160.73
45.828,152.93
45.843,141.05
45.859,125.48
45.875,107.02
45.890,86.35
45.906,63.69
45.921,37.44
45.937,8.48
45.953,-24.03
45.968,-60.69
45.984,-101.08
46.000,-142.93
46.015,-181.76
46.031,-211.67
46.046,-227.22
46.062,-226.48
46.078,-210.54
46.093,-185.49
46.109,-159.43
46.125,-139.45
46.140,-129.02
46.156,-127.45
46.171,-131.22
46.187,-136.34
46.203,-140.74
46.218,-143.97
46.234,-147.22
46.250,-151.64
46.265,-157.47
46.281,-163.97
46.296,-170.17
46.312,-175.5
46.328,-179.88
46.343,-183.38
46.359,-185.26
46.375,-183.52
46.390,-175.22
46.406,-157.56
46.421,-129.32
46.437,-91.85
46.453,-48.97
46.468,-5.94
46.484,32.35
46.500,62.85
46.515,84.84
46.531,99.34
46.546,107.89
46.562,111.48
46.578,110.37
46.593,104.61
46.609,95.0
46.625,83.49
46.640,72.78
46.656,65.28
46.671,62.04
46.687,62.29
46.703,63.89
46.718,64.34
46.734,61.96
46.750,56.49
46.765,49.05
46.781,41.41
46.796,35.07
46.812,30.69
46.828,27.76
46.843,24.99
46.859,20.81
46.875,13.96
46.890,3.73
46.906,-10.03
46.921,-27.06
46.937,-46.88
46.953,-68.49
46.968,-90.21
46.984,-109.62
47.000,-123.93
47.015,-130.98
47.031,-130.09
47.046,-122.65
47.062,-111.63
47.078,-100.5
47.093,-91.7
47.109,-85.73
47.125,-81.07
47.140,-75.2
47.156,-65.9
47.171,-52.44
47.187,-35.81
47.203,-18.13
47.218,-1.6
47.234,12.41
47.250,23.57
47.265,32.21
47.281,38.43
47.296,41.62
47.312,40.37
47.328,33.28
47.343,19.83
47.359,1.11
47.375,-20.24
47.390,-40.73
47.406,-56.99
47.421,-66.55
47.437,-68.07
47.453,-61.24
47.468,-46.5
47.484,-24.89
47.500,1.96
47.515,31.76
47.531,61.78
47.546,89.21
47.562,111.59
47.578,127.18
47.593,135.17
47.609,135.66
47.625,129.65
47.640,119.0
47.656,106.2
47.671,93.97
47.687,84.54
47.703,78.98
47.718,76.77
47.734,75.88
47.750,73.46
47.765,66.82
47.781,54.43
47.796,36.57
47.812,15.25
47.828,-6.33
47.843,-24.81
47.859,-37.65
47.875,-43.66
47.890,-43.17
47.906,-37.62
47.921,-29.02
47.937,-19.32
47.953,-10.14
47.968,-2.62
47.984,2.45
48.000,4.61
48.015,3.7
48.031,0.01
48.046,-5.68
48.062,-12.1
48.078,-17.71
48.093,-21.19
48.109,-21.81
48.125,-19.79
48.140,-16.17
48.156,-12.36
48.171,-9.53
48.187,-8.15
48.203,-7.93
48.218,-8.14
48.234,-8.1
48.250,-7.51
48.265,-6.54
48.281,-5.63
48.296,-5.26
48.312,-5.81
48.328,-7.44
48.343,-10.1
48.359,-13.56
48.375,-17.39
48.390,-21.04
48.406,-24.06
48.421,-26.23
48.437,-27.67
48.453,-28.8
48.468,-30.01
48.484,-31.46
48.500,-32.89
48.515,-33.78
48.531,-33.61
48.546,-32.11
48.562,-29.38
48.578,-25.63
48.593,-21.12
48.609,-15.87
48.625,-9.85
48.640,-3.17
48.656,3.77
48.671,10.26
48.687,15.66
48.703,19.72
48.718,22.79
48.734,25.66
48.750,29.14
48.765,33.57
48.781,38.62
48.796,43.5
48.812,47.33
48.828,49.57
48.843,50.24
48.859,49.82
48.875,48.9
48.890,47.97
48.906,47.24
48.921,46.72
48.937,46.21
48.953,45.36
48.968,43.51
48.984,39.82
49.000,33.52
49.015,24.46
49.031,13.53
49.046,2.74
49.062,-5.28
49.078,-8.24
49.093,-5.21
49.109,2.89
49.125,13.56
49.140,23.6
49.156,30.24
49.171,31.87
49.187,28.19
49.203,19.83
49.218,7.94
49.234,-6.2
49.250,-21.12
49.265,-35.25
49.281,-46.89
49.296,-54.53
49.312,-57.3
49.328,-55.21
49.343,-49.26
49.359,-41.04
49.375,-32.23
49.390,-24.04
49.406,-16.92
49.421,-10.61
49.437,-4.36
49.453,2.68
49.468,11.18
49.484,21.37
49.500,32.9
49.515,44.86
49.531,55.94
49.546,64.75
49.562,70.21
49.578,71.87
49.593,70.11
49.609,65.99
49.625,60.82
49.640,55.74
49.656,51.36
49.671,47.74
49.687,44.68
49.703,41.97
49.718,39.51
49.734,37.21
49.750,34.97
49.765,32.55
49.781,29.83
49.796,26.95
49.812,24.33
49.828,22.49
49.843,21.69
49.859,21.67
49.875,21.64
49.890,20.51
49.906,17.28
49.921,11.36
49.937,2.69
49.953,-8.27
49.968,-20.67
49.984,-33.36
50.000,-44.99
50.015,-54.13
50.031,-59.6
50.046,-60.82
50.062,-58.11
50.078,-52.77
50.093,-46.78
50.109,-42.15
50.125,-40.26
50.140,-41.24
50.156,-43.79
50.171,-45.35
50.187,-42.9
50.203,-33.94
50.218,-17.38
50.234,5.88
50.250,33.09
50.265,60.35
50.281,83.68
50.296,100.06
50.312,108.09
50.328,108.13
50.343,102.06
50.359,92.6
50.375,82.62
50.390,74.54
50.406,69.78
50.421,68.57
50.437,69.93
50.453,71.91
50.468,72.12
50.484,68.38
50.500,59.35
50.515,44.99
50.531,26.62
50.546,6.62
50.562,-12.25
50.578,-27.68
50.593,-38.42
50.609,-44.65
50.625,-47.74
50.640,-49.61
50.656,-52.03
50.671,-56.04
50.687,-61.76
50.703,-68.62
50.718,-75.76
50.734,-82.49
50.750,-88.51
50.765,-93.82
50.781,-98.59
50.796,-102.85
50.812,-106.36
50.828,-108.52
50.843,-108.41
50.859,-105.06
50.875,-97.65
50.890,-85.71
50.906,-69.41
50.921,-49.64
50.937,-27.94
50.953,-6.25
50.968,13.4
50.984,29.37
51.000,40.59
51.015,46.67
51.031,47.92
51.046,45.27
51.062,40.22
51.078,34.75
51.093,30.96
51.109,30.5
51.125,34.05
51.140,40.92
51.156,49.29
51.171,56.81
51.187,61.59
51.203,62.91
51.218,61.46
51.234,58.98
51.250,57.44
51.265,58.18
51.281,61.36
51.296,65.86
51.312,69.63
51.328,70.46
51.343,66.77
51.359,58.32
51.375,46.37
51.390,33.35
51.406,22.03
51.421,14.44
51.437,11.15
51.453,11.13
51.468,12.12
51.484,11.51
51.500,7.14
51.515,-1.98
51.531,-15.45
51.546,-31.45
51.562,-47.24
51.578,-59.8
51.593,-66.54
51.609,-66.1
51.625,-58.73
51.640,-46.21
51.656,-31.2
51.671,-16.4
51.687,-3.7
51.703,6.16
51.718,13.51
51.734,19.26
51.750,24.32
51.765,29.26
51.781,34.13
51.796,38.58
51.812,42.08
51.828,44.18
51.843,44.69
51.859,43.77
51.875,41.82
51.890,39.33
51.906,36.67
51.921,34.02
51.937,31.43
51.953,28.92
51.968,26.63
51.984,24.72
52.000,23.26
52.015,22.06
52.031,20.6
52.046,18.22
52.062,14.35
52.078,8.75
52.093,1.59
52.109,-6.69
52.125,-15.58
52.140,-24.72
52.156,-34.01
52.171,-43.49
52.187,-53.36
52.203,-63.77
52.218,-74.75
52.234,-86.22
52.250,-97.83
52.265,-108.97
52.281,-118.78
52.296,-126.29
52.312,-130.68
52.328,-131.52
52.343,-129.0
52.359,-123.8
52.375,-116.92
52.390,-109.19
52.406,-100.93
52.421,-91.6
52.437,-79.95
52.453,-64.58
52.468,-44.65
52.484,-20.52
52.500,6.03
52.515,32.19
52.531,54.98
52.546,72.0
52.562,82.05
52.578,85.13
52.593,82.12
52.609,74.41
52.625,63.68
52.640,51.93
52.656,41.32
52.671,33.87
52.687,30.94
52.703,32.85
52.718,38.82
52.734,47.18
52.750,55.88
52.765,62.89
52.781,66.69
52.796,66.55
52.812,62.77
52.828,56.61
52.843,50.0
52.859,44.93
52.875,42.92
52.890,44.52
52.906,49.18
52.921,55.35
52.937,60.83
52.953,63.16
52.968,60.02
52.984,49.78
53.000,32.01
53.015,7.88
53.031,-19.84
53.046,-47.36
53.062,-71.0
53.078,-88.11
53.093,-97.67
53.109,-100.06
53.125,-96.49
53.140,-88.28
53.156,-76.4
53.171,-61.48
53.187,-44.17
53.203,-25.31
53.218,-5.98
53.234,12.81
53.250,30.51
53.265,47.35
53.281,64.06
53.296,81.28
53.312,98.72
53.328,114.59
53.343,125.74
53.359,128.67
53.375,120.91
53.390,102.31
53.406,75.53
53.421,45.39
53.437,17.36
53.453,-4.13
53.468,-16.88
53.484,-21.26
53.500,-19.46
53.515,-14.45
53.531,-9.0
53.546,-5.02
53.562,-3.48
53.578,-4.61
53.593,-8.06
53.609,-13.06
53.625,-18.65
53.640,-23.87
53.656,-28.07
53.671,-31.33
53.687,-34.59
53.703,-39.44
53.718,-47.59
53.734,-59.95
53.750,-75.95
53.765,-93.15
53.781,-107.77
53.796,-115.83
53.812,-114.59
53.828,-103.76
53.843,-85.72
53.859,-64.66
53.875,-45.09
53.890,-30.28
53.906,-21.32
53.921,-17.32
53.937,-16.11
53.953,-15.29
53.968,-12.91
53.984,-7.91
54.000,0.04
54.015,10.47
54.031,22.4
54.046,34.43
54.062,45.19
54.078,53.73
54.093,60.01
54.109,64.87
54.125,69.65
54.140,75.52
54.156,82.88
54.171,91.16
54.187,99.03
54.203,104.81
54.218,107.0
54.234,104.54
54.250,97.04
54.265,84.79
54.281,68.74
54.296,50.24
54.312,30.82
54.328,11.84
54.343,-5.68
54.359,-21.14
54.375,-34.2
54.390,-44.69
54.406,-52.54
54.421,-57.87
54.437,-61.15
54.453,-63.15
54.468,-64.73
54.484,-66.62
54.500,-69.15
54.515,-72.26
54.531,-75.74
54.546,-79.41
54.562,-83.09
54.578,-86.46
54.593,-88.76
54.609,-88.86
54.625,-85.55
54.640,-78.22
54.656,-67.35
54.671,-54.52
54.687,-41.97
54.703,-31.61
54.718,-24.24
54.734,-19.22
54.750,-14.87
54.765,-9.41
54.781,-1.93
54.796,7.11
54.812,16.08
54.828,23.08
54.843,26.79
54.859,27.18
54.875,25.45
54.890,23.44
54.906,22.82
54.921,24.34
54.937,27.59
54.953,31.2
54.968,33.36
54.984,32.39
55.000,27.12
55.015,17.25
55.031,3.47
55.046,-12.39
55.062,-27.29
55.078,-37.4
55.093,-38.92
55.109,-29.28
55.125,-8.44
55.140,20.5
55.156,51.6
55.171,77.7
55.187,92.56
55.203,93.04
55.218,80.01
55.234,57.67
55.250,31.6
55.265,6.52
55.281,-15.19
55.296,-33.57
55.312,-50.01
55.328,-65.66
55.343,-80.36
55.359,-92.55
55.375,-99.99
55.390,-100.86
55.406,-94.53
55.421,-81.78
55.437,-64.5
55.453,-45.14
55.468,-26.17
55.484,-9.62
55.500,3.28
55.515,12.29
55.531,18.06
55.546,21.73
55.562,24.42
55.578,26.86
55.593,29.27
55.609,31.69
55.625,34.23
55.640,37.24
55.656,41.14
55.671,45.99
55.687,51.23
55.703,55.76
55.718,58.46
55.734,58.89
55.750,57.55
55.765,55.75
55.781,54.88
55.796,55.7
55.812,57.87
55.828,60.08
55.843,60.71
55.859,58.56
55.875,53.43
55.890,46.21
55.906,38.52
55.921,32.07
55.937,28.08
55.953,26.99
55.968,28.43
55.984,31.39
56.000,34.47
56.015,36.08
56.031,34.54
56.046,28.35
56.062,16.42
56.078,-1.53
56.093,-24.76
56.109,-51.32
56.125,-78.29
56.140,-102.18
56.156,-119.68
56.171,-128.42
56.187,-127.61
56.203,-118.21
56.218,-102.62
56.234,-83.94
56.250,-64.99
56.265,-47.59
56.281,-32.18
56.296,-18.15
56.312,-4.47
56.328,9.57
56.343,23.96
56.359,37.95
56.375,50.43
56.390,60.35
56.406,67.14
56.421,70.78
56.437,71.68
56.453,70.59
56.468,68.29
56.484,65.46
56.500,62.56
56.515,59.75
56.531,56.85
56.546,53.5
56.562,49.2
56.578,43.66
56.593,36.9
56.609,29.32
56.625,21.5
56.640,13.98
56.656,6.95
56.671,0.04
56.687,-7.58
56.703,-16.96
56.718,-29.07
56.734,-44.16
56.750,-61.4
56.765,-78.51
56.781,-92.02
56.796,-98.17
56.812,-94.26
56.828,-79.93
56.843,-57.79
56.859,-32.8
56.875,-10.77
56.890,3.57
56.906,7.99
56.921,3.02
56.937,-8.87
56.953,-24.67
56.968,-41.84
56.984,-58.64
57.000,-73.77
57.015,-85.79
57.031,-93.09
57.046,-94.24
57.062,-88.71
57.078,-77.17
57.093,-61.18
57.109,-42.48
57.125,-22.37
57.140,-1.67
57.156,18.8
57.171,37.59
57.187,52.52
57.203,61.26
57.218,62.4
57.234,56.37
57.250,45.52
57.265,33.34
57.281,23.21
57.296,17.19
57.312,15.59
57.328,17.3
57.343,20.46
57.359,23.32
57.375,24.73
57.390,24.42
57.406,22.96
57.421,21.49
57.437,21.3
57.453,23.42
57.468,28.16
57.484,34.97
57.500,42.65
57.515,49.62
57.531,54.4
57.546,55.79
57.562,53.14
57.578,46.45
57.593,36.52
57.609,24.91
57.625,13.71
57.640,4.9
57.656,-0.42
57.671,-2.61
57.687,-3.47
57.703,-5.46
57.718,-10.43
57.734,-18.59
57.750,-28.23
57.765,-36.48
57.781,-40.68
57.796,-39.67
57.812,-34.27
57.828,-26.67
57.843,-19.1
57.859,-12.62
57.875,-6.67
57.890,0.43
57.906,10.27
57.921,23.28
57.937,38.29
57.953,53.0
57.968,64.98
57.984,72.65
58.000,75.7
58.015,74.86
58.031,71.39
58.046,66.41
58.062,60.71
58.078,54.74
58.093,48.89
58.109,43.66
58.125,39.65
58.140,37.31
58.156,36.68
58.171,37.22
58.187,37.9
58.203,37.51
58.218,35.04
58.234,30.13
58.250,23.16
58.265,15.09
58.281,7.05
58.296,-0.16
58.312,-6.36
58.328,-12.04
58.343,-18.02
58.359,-24.99
58.375,-33.15
58.390,-42.08
58.406,-51.03
58.421,-59.23
58.437,-66.3
58.453,-72.39
58.468,-77.99
58.484,-83.7
58.500,-89.98
58.515,-96.96
58.531,-104.52
58.546,-112.31
58.562,-119.75
58.578,-126.05
58.593,-130.18
58.609,-131.03
58.625,-127.58
58.640,-119.25
58.656,-106.14
58.671,-89.26
58.687,-70.26
58.703,-51.03
58.718,-33.21
58.734,-17.69
58.750,-4.69
58.765,5.85
58.781,13.64
58.796,17.71
58.812,16.79
58.828,10.34
58.843,-0.38
58.859,-12.16
58.875,-20.83
58.890,-23.03
58.906,-17.49
58.921,-5.21
58.937,11.74
58.953,31.63
58.968,53.69
58.984,77.43
59.000,101.39
59.015,122.46
59.031,136.58
59.046,140.46
59.062,133.34
59.078,117.34
59.093,96.44
59.109,74.63
59.125,54.59
59.140,37.52
59.156,23.95
59.171,14.54
59.187,10.17
59.203,11.5
59.218,18.08
59.234,28.17
59.250,39.06
59.265,47.75
59.281,51.66
59.296,49.04
59.312,39.14
59.328,22.49
59.343,0.99
59.359,-22.2
59.375,-43.16
59.390,-58.28
59.406,-65.28
59.421,-63.92
59.437,-55.91
59.453,-44.17
59.468,-31.74
59.484,-20.9
59.500,-12.77
59.515,-7.33
59.531,-3.79
59.546,-0.97
59.562,2.42
59.578,7.46
59.593,14.81
59.609,24.45
59.625,35.62
59.640,46.96
59.656,57.0
59.671,64.52
59.687,68.97
59.703,70.45
59.718,69.56
59.734,67.18
59.750,64.16
59.765,61.17
59.781,58.65
59.796,56.7
59.812,55.13
59.828,53.52
59.843,51.44
59.859,48.62
59.875,45.09
59.890,41.11
59.906,37.03
59.921,33.06
59.937,29.23
59.953,25.35
59.968,21.22
59.984,16.74
