timestamp,value
00.000,4.48
00.015,8.07
00.031,13.0
00.046,16.88
00.062,18.23
00.078,16.96
00.093,14.03
00.109,10.84
00.125,8.24
00.140,6.18
00.156,3.68
00.171,-0.68
00.187,-8.27
00.203,-20.0
00.218,-36.16
00.234,-56.26
00.250,-78.86
00.265,-101.49
00.281,-120.71
00.296,-132.75
00.312,-134.54
00.328,-124.86
00.343,-104.92
00.359,-78.21
00.375,-49.41
00.390,-22.97
00.406,-1.98
00.421,12.34
00.437,20.45
00.453,23.88
00.468,24.69
00.484,25.01
00.500,26.69
00.515,31.01
00.531,38.33
00.546,47.91
00.562,58.03
00.578,66.59
00.593,71.82
00.609,72.8
00.625,69.7
00.640,63.51
00.656,55.64
00.671,47.51
00.687,40.2
00.703,34.29
00.718,29.81
00.734,26.17
00.750,22.39
00.765,17.31
00.781,9.99
00.812,-12.35
00.828,-26.0
00.843,-39.21
00.859,-49.9
00.875,-56.14
00.890,-56.85
00.906,-52.2
00.921,-43.84
00.937,-34.36
00.953,-26.43
00.968,-21.77
00.984,-20.57
01.000,-21.65
01.015,-23.21
01.031,-23.93
01.046,-23.68
01.062,-23.62
01.078,-25.46
01.093,-30.48
01.109,-38.76
01.125,-49.04
01.140,-59.31
01.156,-67.61
01.171,-72.74
01.187,-74.49
01.203,-73.34
01.218,-69.95
01.234,-64.68
01.250,-57.47
01.265,-48.06
01.281,-36.34
01.296,-22.76
01.312,-8.39
01.328,5.17
01.343,16.19
01.359,23.3
01.375,25.86
01.390,24.3
01.406,19.97
01.421,14.76
01.437,10.44
01.453,8.07
01.468,7.84
01.484,9.23
01.500,11.47
01.515,13.97
01.531,16.51
01.546,19.09
01.562,21.65
01.578,23.95
01.593,25.53
01.609,26.01
01.625,25.27
01.640,23.62
01.656,21.65
01.671,19.99
01.687,19.09
01.703,19.08
01.718,19.77
01.734,20.77
01.750,21.66
01.765,22.12
01.781,22.02
01.796,21.4
01.812,20.48
01.828,19.53
01.843,18.69
01.859,17.99
01.875,17.25
01.890,16.18
01.906,14.54
01.921,12.16
01.937,9.12
01.953,5.65
01.968,2.08
01.984,-1.34
02.000,-4.49
02.015,-7.36
02.031,-10.09
02.046,-12.81
02.062,-15.7
02.078,-18.91
02.093,-22.64
02.109,-27.1
02.125,-32.43
02.140,-38.59
02.156,-45.21
02.171,-51.59
02.187,-56.82
02.203,-59.97
02.218,-60.47
02.234,-58.27
02.250,-53.85
02.265,-48.08
02.281,-41.86
02.296,-35.85
02.312,-30.34
02.328,-25.24
02.343,-20.32
02.359,-15.4
02.375,-10.44
02.390,-5.54
02.406,-0.87
02.421,3.47
02.437,7.41
02.453,10.92
02.468,13.89
02.484,16.16
02.500,17.56
02.515,18.03
02.531,17.73
02.546,17.02
02.562,16.34
02.578,16.08
02.593,16.38
02.609,17.23
02.625,18.44
02.640,19.84
02.656,21.34
02.671,22.9
02.687,24.51
02.703,26.01
02.718,27.17
02.734,27.65
02.750,27.22
02.765,25.89
02.781,23.91
02.796,21.74
02.812,19.77
02.828,18.25
02.843,17.06
02.859,15.88
02.875,14.35
02.890,12.26
02.906,9.74
02.921,7.14
02.937,4.89
02.953,3.25
02.968,2.25
02.984,1.58
03.000,0.79
03.015,-0.73
03.031,-3.59
03.046,-8.36
03.062,-15.4
03.078,-24.73
03.093,-35.82
03.109,-47.47
03.125,-58.0
03.140,-65.62
03.156,-68.91
03.171,-67.32
03.187,-61.27
03.203,-52.03
03.218,-41.27
03.234,-30.64
03.250,-21.3
03.265,-13.81
03.281,-8.1
03.296,-3.64
03.312,0.31
03.328,4.41
03.343,9.09
03.359,14.49
03.375,20.42
03.390,26.45
03.406,32.06
03.421,36.74
03.437,40.17
03.453,42.3
03.468,43.39
03.484,43.9
03.500,44.29
03.515,44.8
03.531,45.29
03.546,45.32
03.562,44.33
03.578,41.94
03.593,38.1
03.609,33.14
03.625,27.55
03.640,21.82
03.656,16.27
03.671,11.01
03.687,6.08
03.703,1.49
03.718,-2.77
03.734,-6.68
03.750,-10.26
03.765,-13.61
03.781,-16.84
03.796,-20.0
03.812,-23.02
03.828,-25.7
03.843,-27.73
03.859,-28.9
03.875,-29.16
03.890,-28.7
03.906,-27.91
03.921,-27.24
03.937,-26.98
03.953,-27.18
03.968,-27.71
03.984,-28.35
04.000,-28.94
04.015,-29.49
04.031,-30.02
04.046,-30.51
04.062,-30.74
04.078,-30.34
04.093,-28.93
04.109,-26.36
04.125,-22.72
04.140,-18.41
04.156,-13.86
04.171,-9.32
04.187,-4.78
04.203,0.02
04.218,5.34
04.234,11.26
04.250,17.6
04.265,23.95
04.281,29.82
04.296,34.82
04.312,38.7
04.328,41.31
04.343,42.58
04.359,42.46
04.375,40.92
04.390,38.06
04.406,34.11
04.421,29.41
04.437,24.35
04.453,19.23
04.468,14.23
04.484,9.38
04.500,4.59
04.515,-0.22
04.531,-5.1
04.546,-9.92
04.562,-14.4
04.578,-18.15
04.593,-20.69
04.609,-21.56
04.625,-20.36
04.640,-16.89
04.656,-11.23
04.671,-3.82
04.687,4.53
04.703,12.83
04.718,20.13
04.734,25.71
04.750,29.26
04.765,30.81
04.781,30.62
04.796,29.0
04.812,26.28
04.828,22.7
04.843,18.53
04.859,13.99
04.875,9.24
04.890,4.38
04.906,-0.61
04.921,-5.78
04.937,-11.16
04.953,-16.73
04.968,-22.36
04.984,-27.84
05.000,-32.88
05.015,-37.06
05.031,-39.96
05.046,-41.14
05.062,-40.35
05.078,-37.62
05.093,-33.35
05.109,-28.16
05.125,-22.8
05.140,-17.96
05.156,-14.15
05.171,-11.65
05.187,-10.43
05.203,-10.17
05.218,-10.31
05.234,-10.22
05.250,-9.38
05.265,-7.62
05.281,-5.16
05.296,-2.53
05.312,-0.36
05.328,0.95
05.343,1.29
05.359,0.92
05.375,0.2
05.390,-0.53
05.406,-1.06
05.421,-1.37
05.437,-1.46
05.453,-1.35
05.468,-0.98
05.484,-0.32
05.500,0.65
05.515,1.8
05.531,2.92
05.546,3.73
05.562,3.98
05.578,3.5
05.593,2.31
05.609,0.56
05.625,-1.5
05.640,-3.6
05.656,-5.53
05.671,-7.16
05.687,-8.47
05.703,-9.5
05.718,-10.32
05.734,-11.02
05.750,-11.65
05.765,-12.23
05.781,-12.79
05.796,-13.41
05.812,-14.21
05.828,-15.35
05.843,-16.97
05.859,-19.13
05.875,-21.74
05.890,-24.67
05.906,-27.84
05.921,-31.25
05.937,-35.01
05.953,-39.08
05.968,-43.18
05.984,-46.69
06.000,-48.84
06.015,-48.85
06.031,-46.3
06.046,-41.22
06.062,-34.05
06.078,-25.48
06.093,-16.2
06.109,-6.71
06.125,2.66
06.140,11.81
06.156,20.81
06.171,29.88
06.187,39.49
06.203,50.35
06.218,63.41
06.234,79.72
06.250,100.04
06.265,124.63
06.281,152.96
06.296,183.76
06.312,215.36
06.328,246.01
06.343,274.29
06.359,299.24
06.375,320.29
06.390,337.07
06.406,349.15
06.421,355.99
06.437,357.0
06.453,351.83
06.468,340.53
06.484,323.66
06.500,302.27
06.515,277.67
06.531,251.16
06.546,223.8
06.562,196.26
06.578,168.87
06.593,141.67
06.609,114.56
06.625,87.36
06.640,59.76
06.656,31.29
06.671,1.32
06.687,-30.56
06.703,-64.21
06.718,-98.54
06.734,-131.47
06.750,-160.41
06.765,-183.17
06.781,-198.79
06.796,-207.93
06.812,-212.6
06.828,-215.21
06.843,-217.57
06.859,-220.22
06.875,-222.46
06.890,-222.98
06.906,-220.57
06.921,-214.7
06.937,-205.55
06.953,-193.79
06.968,-180.2
06.984,-165.48
07.000,-150.23
07.015,-134.98
07.031,-120.27
07.046,-106.56
07.062,-94.24
07.078,-83.4
07.093,-73.94
07.109,-65.48
07.125,-57.66
07.140,-50.19
07.156,-43.0
07.171,-36.25
07.187,-30.18
07.203,-24.95
07.218,-20.55
07.234,-16.85
07.250,-13.69
07.265,-11.11
07.281,-9.31
07.296,-8.53
07.312,-8.88
07.328,-10.12
07.343,-11.73
07.359,-12.97
07.375,-13.27
07.390,-12.29
07.406,-10.13
07.421,-7.28
07.437,-4.49
07.453,-2.67
07.468,-2.58
07.484,-4.71
07.500,-9.09
07.515,-15.28
07.531,-22.56
07.546,-30.1
07.562,-37.18
07.578,-43.35
07.593,-48.39
07.609,-52.23
07.625,-54.89
07.640,-56.49
07.656,-57.31
07.671,-57.83
07.687,-58.65
07.703,-60.36
07.718,-63.34
07.734,-67.69
07.750,-73.15
07.765,-79.16
07.781,-84.93
07.796,-89.5
07.812,-91.88
07.828,-91.27
07.843,-87.3
07.859,-80.16
07.875,-70.65
07.890,-59.9
07.906,-49.13
07.921,-39.27
07.937,-30.78
07.953,-23.82
07.968,-18.31
07.984,-14.16
08.000,-11.21
08.015,-9.29
08.031,-8.05
08.046,-7.08
08.062,-5.98
08.078,-4.51
08.093,-2.69
08.109,-0.75
08.125,1.0
08.140,2.35
08.156,3.24
08.171,3.78
08.187,4.19
08.203,4.73
08.218,5.58
08.234,6.79
08.250,8.28
08.265,9.79
08.281,10.97
08.296,11.45
08.312,11.0
08.328,9.56
08.343,7.36
08.359,4.76
08.375,2.16
08.390,-0.16
08.406,-2.14
08.421,-3.92
08.437,-5.77
08.453,-7.91
08.468,-10.42
08.484,-13.2
08.500,-16.09
08.515,-18.93
08.531,-21.73
08.546,-24.68
08.562,-28.08
08.578,-32.3
08.593,-37.68
08.609,-44.43
08.625,-52.53
08.640,-61.7
08.656,-71.3
08.671,-80.39
08.687,-87.91
08.703,-92.96
08.718,-95.08
08.734,-94.41
08.750,-91.62
08.765,-87.65
08.781,-83.43
08.796,-79.52
08.812,-76.19
08.828,-73.48
08.843,-71.34
08.859,-69.86
08.875,-69.16
08.890,-69.45
08.906,-70.93
08.921,-73.8
08.937,-78.27
08.953,-84.46
08.968,-92.21
08.984,-100.73
09.000,-108.53
09.015,-113.48
09.031,-113.3
09.046,-106.17
09.062,-91.19
09.078,-68.44
09.093,-38.82
09.109,-3.77
09.125,34.78
09.140,74.32
09.156,111.72
09.171,143.51
09.187,166.67
09.203,179.48
09.218,182.09
09.234,176.46
09.250,165.56
09.265,152.27
09.281,138.53
09.296,125.03
09.312,111.61
09.328,97.88
09.343,83.73
09.359,69.48
09.375,55.68
09.390,42.73
09.406,30.75
09.421,19.58
09.437,9.01
09.453,-1.05
09.468,-10.44
09.484,-19.0
09.500,-26.71
09.515,-33.84
09.531,-40.84
09.546,-47.97
09.562,-55.13
09.578,-61.63
09.593,-66.43
09.609,-68.57
09.625,-67.47
09.640,-63.24
09.656,-56.55
09.671,-48.39
09.687,-39.69
09.703,-31.09
09.718,-22.77
09.734,-14.61
09.750,-6.31
09.765,2.38
09.781,11.53
09.796,21.0
09.812,30.45
09.828,39.43
09.843,47.5
09.859,54.34
09.875,59.75
09.890,63.75
09.906,66.52
09.921,68.36
09.937,69.64
09.953,70.64
09.968,71.56
09.984,72.43
10.000,73.18
10.015,73.75
10.031,74.11
10.046,74.36
10.062,74.66
10.078,75.19
10.093,76.1
10.109,77.46
10.125,79.26
10.140,81.37
10.156,83.63
10.171,85.83
10.187,87.84
10.203,89.68
10.218,91.58
10.234,94.06
10.250,97.74
10.265,103.16
10.281,110.49
10.296,119.29
10.312,128.44
10.328,136.33
10.343,141.08
10.359,141.07
10.375,135.21
10.390,123.2
10.406,105.52
10.421,83.2
10.437,57.45
10.453,29.39
10.468,-0.04
10.484,-30.0
10.500,-59.49
10.515,-87.18
10.531,-111.61
10.546,-131.51
10.562,-146.32
10.578,-156.52
10.593,-163.62
10.609,-169.81
10.625,-177.33
10.640,-187.85
10.656,-202.02
10.671,-219.16
10.687,-237.29
10.703,-253.43
10.718,-264.16
10.734,-266.5
10.750,-258.78
10.765,-241.18
10.781,-215.67
10.796,-185.34
10.812,-153.43
10.828,-122.3
10.843,-92.97
10.859,-65.07
10.875,-37.2
10.890,-7.54
10.906,25.25
10.921,61.2
10.937,98.5
10.953,133.55
10.968,161.92
10.984,179.74
11.000,185.11
11.015,178.82
11.031,163.96
11.046,144.75
11.062,125.16
11.078,107.88
11.093,94.09
11.109,83.8
11.125,76.4
11.140,71.15
11.156,67.23
11.171,63.77
11.187,59.87
11.203,54.78
11.218,48.12
11.234,40.04
11.250,31.21
11.265,22.65
11.281,15.39
11.296,10.1
11.312,6.78
11.328,4.78
11.343,3.07
11.359,0.63
11.375,-3.08
11.390,-8.1
11.406,-13.99
11.421,-20.28
11.437,-26.65
11.453,-33.05
11.468,-39.48
11.484,-45.79
11.500,-51.43
11.515,-55.47
11.531,-56.9
11.546,-54.99
11.562,-49.57
11.578,-41.18
11.593,-30.88
11.609,-19.89
11.625,-9.18
11.640,0.7
11.656,9.69
11.671,18.03
11.687,26.0
11.703,33.76
11.718,41.28
11.734,48.41
11.750,54.96
11.765,60.8
11.781,65.83
11.796,69.94
11.812,73.0
11.828,74.95
11.843,75.78
11.859,75.68
11.875,75.02
11.890,74.22
11.906,73.69
11.921,73.65
11.937,74.07
11.953,74.71
11.968,75.19
11.984,75.05
12.000,73.85
12.015,71.25
12.031,67.12
12.046,61.64
12.062,55.27
12.078,48.68
12.093,42.51
12.109,37.19
12.125,32.92
12.140,29.67
12.156,27.33
12.171,25.83
12.187,25.14
12.203,25.22
12.218,26.0
12.234,27.28
12.250,28.76
12.265,30.1
12.281,30.97
12.296,31.13
12.312,30.48
12.328,29.07
12.343,27.0
12.359,24.34
12.375,20.98
12.390,16.71
12.406,11.19
12.421,4.28
12.437,-3.93
12.453,-13.02
12.468,-22.29
12.484,-30.97
12.500,-38.38
12.515,-44.01
12.531,-47.66
12.546,-49.31
12.562,-49.06
12.578,-47.05
12.593,-43.38
12.609,-38.14
12.625,-31.44
12.640,-23.55
12.656,-14.93
12.671,-6.17
12.687,2.1
12.703,9.4
12.718,15.45
12.734,20.09
12.750,23.22
12.765,24.64
12.781,24.12
12.796,21.46
12.812,16.68
12.828,10.13
12.843,2.55
12.859,-5.13
12.875,-11.94
12.890,-17.14
12.906,-20.41
12.921,-21.95
12.937,-22.22
12.953,-21.8
12.968,-21.04
12.984,-19.91
13.000,-17.98
13.015,-14.61
13.031,-9.35
13.046,-2.19
13.062,6.35
13.078,15.27
13.093,23.51
13.109,30.19
13.125,34.86
13.140,37.45
13.156,38.15
13.171,37.32
13.187,35.4
13.203,32.96
13.218,30.71
13.234,29.4
13.250,29.67
13.265,31.75
13.281,35.45
13.296,40.14
13.312,44.84
13.328,48.54
13.343,50.24
13.359,49.18
13.375,44.89
13.390,37.38
13.406,27.17
13.421,15.2
13.437,2.67
13.453,-9.24
13.468,-19.51
13.484,-27.41
13.500,-32.47
13.515,-34.44
13.531,-33.35
13.546,-29.47
13.562,-23.45
13.578,-16.18
13.593,-8.79
13.609,-2.5
13.625,1.45
13.640,1.96
13.656,-1.75
13.671,-9.94
13.687,-22.13
13.703,-37.07
13.718,-52.88
13.734,-67.32
13.750,-78.27
13.765,-84.03
13.781,-83.71
13.796,-77.29
13.812,-65.68
13.828,-50.43
13.843,-33.46
13.859,-16.61
13.875,-1.39
13.890,11.23
13.906,20.73
13.921,27.0
13.937,30.18
13.953,30.7
13.968,29.2
13.984,26.57
14.000,23.74
14.015,21.48
14.031,20.2
14.046,19.89
14.062,20.2
14.078,20.64
14.093,20.8
14.109,20.48
14.125,19.67
14.140,18.52
14.156,17.15
14.171,15.6
14.187,13.89
14.203,12.01
14.218,10.07
14.234,8.21
14.250,6.53
14.265,4.95
14.281,3.22
14.296,1.0
14.312,-1.96
14.328,-5.6
14.343,-9.61
14.359,-13.53
14.375,-16.99
14.390,-19.88
14.406,-22.41
14.421,-24.95
14.437,-27.87
14.453,-31.31
14.468,-35.09
14.484,-38.71
14.500,-41.48
14.515,-42.72
14.531,-41.96
14.546,-39.16
14.562,-34.7
14.578,-29.25
14.593,-23.56
14.609,-18.18
14.625,-13.39
14.640,-9.16
14.656,-5.31
14.671,-1.66
14.687,1.93
14.703,5.49
14.718,8.98
14.734,12.28
14.750,15.25
14.765,17.69
14.781,19.45
14.796,20.53
14.812,21.06
14.828,21.35
14.843,21.68
14.859,22.16
14.875,22.7
14.890,23.02
14.906,22.87
14.921,22.14
14.937,20.96
14.953,19.59
14.968,18.29
14.984,17.16
15.000,16.13
15.015,15.1
15.031,14.01
15.046,12.91
15.062,11.94
15.078,11.18
15.093,10.62
15.109,10.1
15.125,9.47
15.140,8.6
15.156,7.51
15.171,6.26
15.187,4.93
15.203,3.58
15.218,2.24
15.234,0.91
15.250,-0.42
15.265,-1.84
15.281,-3.48
15.296,-5.49
15.312,-8.02
15.328,-11.06
15.343,-14.49
15.359,-18.02
15.375,-21.35
15.390,-24.27
15.406,-26.69
15.421,-28.7
15.437,-30.54
15.453,-32.57
15.468,-35.11
15.484,-38.4
15.500,-42.37
15.515,-46.64
15.531,-50.53
15.546,-53.31
15.562,-54.34
15.578,-53.33
15.593,-50.38
15.609,-45.91
15.625,-40.44
15.640,-34.55
15.656,-28.7
15.671,-23.26
15.687,-18.42
15.703,-14.21
15.718,-10.52
15.734,-7.06
15.750,-3.6
15.765,-0.02
15.781,3.54
15.796,6.78
15.812,9.38
15.828,11.15
15.843,12.1
15.859,12.42
15.875,12.36
15.890,12.14
15.906,11.91
15.921,11.75
15.937,11.73
15.953,11.91
15.968,12.31
15.984,12.96
16.000,13.76
16.015,14.6
16.031,15.32
16.046,15.74
16.062,15.74
16.078,15.22
16.093,14.25
16.109,12.97
16.125,11.65
16.140,10.51
16.156,9.7
16.171,9.18
16.187,8.74
16.203,8.15
16.218,7.21
16.234,5.86
16.250,4.19
16.265,2.4
16.281,0.65
16.296,-0.92
16.312,-2.28
16.328,-3.47
16.343,-4.61
16.359,-5.84
16.375,-7.3
16.390,-9.08
16.406,-11.21
16.421,-13.65
16.437,-16.29
16.453,-19.0
16.468,-21.66
16.484,-24.27
16.500,-26.89
16.515,-29.72
16.531,-32.98
16.546,-36.8
16.562,-41.13
16.578,-45.56
16.593,-49.44
16.609,-51.93
16.625,-52.38
16.640,-50.53
16.656,-46.69
16.671,-41.59
16.687,-36.11
16.703,-30.96
16.718,-26.44
16.734,-22.46
16.750,-18.74
16.765,-15.0
16.781,-11.15
16.796,-7.24
16.812,-3.41
16.828,0.23
16.843,3.63
16.859,6.76
16.875,9.55
16.890,11.94
16.906,13.83
16.921,15.26
16.937,16.32
16.953,17.21
16.968,18.1
16.984,19.12
17.000,20.29
17.015,21.53
17.031,22.69
17.046,23.58
17.062,24.05
17.078,23.99
17.093,23.41
17.109,22.42
17.125,21.2
17.140,19.94
17.156,18.78
17.171,17.72
17.187,16.68
17.203,15.56
17.218,14.28
17.234,12.86
17.250,11.35
17.265,9.85
17.281,8.4
17.296,6.94
17.312,5.4
17.328,3.67
17.343,1.73
17.359,-0.41
17.375,-2.65
17.390,-4.85
17.406,-6.86
17.421,-8.53
17.437,-9.81
17.453,-10.74
17.468,-11.49
17.484,-12.3
17.500,-13.43
17.515,-15.09
17.531,-17.29
17.546,-19.9
17.562,-22.58
17.578,-24.8
17.593,-25.99
17.609,-25.67
17.625,-23.59
17.640,-19.86
17.656,-14.95
17.671,-9.59
17.687,-4.45
17.703,-0.01
17.718,3.61
17.734,6.61
17.750,9.32
17.765,12.04
17.781,14.85
17.796,17.62
17.812,20.1
17.828,22.05
17.843,23.38
17.859,24.14
17.875,24.48
17.890,24.55
17.906,24.45
17.921,24.24
17.937,23.92
17.953,23.51
17.968,23.06
17.984,22.6
18.000,22.15
18.015,21.72
18.031,21.31
18.046,20.96
18.062,20.77
18.078,20.81
18.093,21.07
18.109,21.47
18.125,21.84
18.140,22.03
18.156,21.95
18.171,21.66
18.187,21.27
18.203,21.0
18.218,21.03
18.234,21.47
18.250,22.33
18.265,23.55
18.281,24.95
18.296,26.26
18.312,27.16
18.328,27.34
18.343,26.46
18.359,24.19
18.375,20.07
18.390,13.41
18.406,3.34
18.421,-11.13
18.437,-30.76
18.453,-55.74
18.468,-85.28
18.484,-117.49
18.500,-149.52
18.515,-178.06
18.531,-200.08
18.546,-213.39
18.562,-217.04
18.578,-211.31
18.593,-197.38
18.609,-177.04
18.625,-152.3
18.640,-125.27
18.656,-98.08
18.671,-72.78
18.687,-51.2
18.703,-34.56
18.718,-23.23
18.734,-16.64
18.750,-13.47
18.765,-12.01
18.781,-10.72
18.796,-8.66
18.812,-5.68
18.828,-2.35
18.843,0.41
18.859,1.67
18.875,0.94
18.890,-1.73
18.906,-5.73
18.921,-10.09
18.937,-13.7
18.953,-15.51
18.968,-14.7
18.984,-10.86
19.000,-4.09
19.015,4.9
19.031,14.94
19.046,24.59
19.062,32.61
19.078,38.24
19.093,41.4
19.109,42.68
19.125,42.95
19.140,43.14
19.156,43.83
19.171,45.19
19.187,47.04
19.203,49.0
19.218,50.62
19.234,51.55
19.250,51.49
19.265,50.23
19.281,47.68
19.296,43.86
19.312,38.98
19.328,33.45
19.343,27.79
19.359,22.48
19.375,17.77
19.390,13.66
19.406,9.84
19.421,5.94
19.437,1.68
19.453,-2.95
19.468,-7.72
19.484,-12.26
19.500,-16.34
19.515,-19.99
19.531,-23.58
19.546,-27.66
19.562,-32.7
19.578,-38.83
19.593,-45.63
19.609,-52.19
19.625,-57.36
19.640,-60.06
19.656,-59.68
19.671,-56.23
19.687,-50.29
19.703,-42.77
19.718,-34.61
19.734,-26.52
19.750,-18.88
19.765,-11.8
19.781,-5.2
19.796,1.09
19.812,7.25
19.828,13.43
19.843,19.72
19.859,26.05
19.875,32.19
19.890,37.81
19.906,42.49
19.921,45.95
19.937,48.11
19.953,49.18
19.968,49.59
19.984,49.85
20.000,50.4
20.015,51.47
20.031,53.02
20.046,54.82
20.062,56.53
20.078,57.82
20.093,58.46
20.109,58.31
20.125,57.39
20.140,55.77
20.156,53.63
20.171,51.22
20.187,48.77
20.203,46.53
20.218,44.58
20.234,42.88
20.250,41.22
20.265,39.34
20.281,37.03
20.296,34.21
20.312,30.98
20.328,27.55
20.343,24.13
20.359,20.88
20.375,17.83
20.390,14.93
20.406,12.04
20.421,9.02
20.437,5.72
20.453,2.07
20.468,-1.92
20.484,-6.1
20.500,-10.25
20.515,-14.15
20.531,-17.73
20.546,-21.11
20.562,-24.66
20.578,-28.81
20.593,-33.88
20.609,-39.92
20.625,-46.61
20.640,-53.31
20.656,-59.19
20.671,-63.48
20.687,-65.56
20.703,-65.09
20.718,-62.09
20.734,-56.86
20.750,-49.94
20.765,-41.98
20.781,-33.59
20.796,-25.26
20.812,-17.29
20.828,-9.79
20.843,-2.75
20.859,3.93
20.875,10.32
20.890,16.4
20.906,22.01
20.921,26.92
20.937,30.88
20.953,33.75
20.968,35.55
20.984,36.5
21.000,36.89
21.015,37.05
21.031,37.18
21.046,37.41
21.062,37.77
21.078,38.3
21.093,39.07
21.109,40.11
21.125,41.41
21.140,42.82
21.156,44.06
21.171,44.82
21.187,44.88
21.203,44.2
21.218,42.93
21.234,41.33
21.250,39.61
21.265,37.88
21.281,36.1
21.296,34.22
21.312,32.16
21.328,29.95
21.343,27.61
21.359,25.17
21.375,22.59
21.390,19.85
21.406,16.92
21.421,13.82
21.437,10.62
21.453,7.39
21.468,4.19
21.484,1.05
21.500,-2.0
21.515,-4.91
21.531,-7.73
21.546,-10.59
21.562,-13.74
21.578,-17.56
21.593,-22.3
21.609,-28.04
21.625,-34.54
21.640,-41.19
21.656,-47.23
21.671,-51.83
21.687,-54.29
21.703,-54.2
21.718,-51.46
21.734,-46.28
21.750,-39.14
21.765,-30.68
21.781,-21.56
21.796,-12.33
21.812,-3.31
21.828,5.37
21.843,13.76
21.859,21.85
21.875,29.57
21.890,36.67
21.906,42.87
21.921,47.99
21.937,52.02
21.953,55.22
21.968,57.99
21.984,60.78
22.000,63.91
22.015,67.59
22.031,71.88
22.046,76.69
22.062,81.75
22.078,86.47
22.093,89.82
22.109,90.47
22.125,86.97
22.140,78.16
22.156,63.54
22.171,43.46
22.187,19.24
22.203,-6.94
22.218,-32.16
22.234,-53.05
22.250,-66.36
22.265,-69.69
22.281,-62.32
22.296,-45.64
22.312,-22.96
22.328,1.42
22.343,23.51
22.359,40.7
22.375,52.17
22.390,58.55
22.406,61.19
22.421,61.42
22.437,60.2
22.453,58.11
22.468,55.62
22.484,53.09
22.500,50.8
22.515,48.7
22.531,46.35
22.546,43.02
22.562,37.93
22.578,30.56
22.593,20.83
22.609,9.2
22.625,-3.51
22.640,-16.31
22.656,-28.35
22.671,-39.09
22.687,-48.24
22.703,-55.7
22.718,-61.31
22.734,-64.74
22.750,-65.54
22.765,-63.39
22.781,-58.37
22.796,-51.11
22.812,-42.7
22.828,-34.36
22.843,-27.07
22.859,-21.26
22.875,-16.72
22.890,-12.74
22.906,-8.49
22.921,-3.41
22.937,2.59
22.953,9.01
22.968,15.02
22.984,19.76
23.000,22.72
23.015,23.91
23.031,23.95
23.046,23.85
23.062,24.72
23.078,27.61
23.093,33.21
23.109,41.8
23.125,53.07
23.140,66.1
23.156,79.36
23.171,91.02
23.187,99.44
23.203,103.63
23.218,103.46
23.234,99.48
23.250,92.36
23.265,82.2
23.281,68.38
23.296,50.05
23.312,27.13
23.328,1.13
23.343,-24.88
23.359,-47.02
23.375,-61.93
23.390,-67.78
23.406,-64.54
23.421,-53.68
23.437,-37.46
23.453,-18.51
23.468,0.27
23.484,15.81
23.500,25.12
23.515,26.01
23.531,17.82
23.546,1.85
23.562,-18.94
23.578,-40.81
23.593,-60.25
23.609,-74.74
23.625,-82.96
23.640,-84.7
23.656,-80.86
23.671,-73.2
23.687,-64.24
23.703,-56.59
23.718,-52.31
23.734,-52.17
23.750,-55.47
23.765,-60.26
23.781,-64.15
23.796,-65.16
23.812,-62.27
23.828,-55.56
23.843,-45.91
23.859,-34.63
23.875,-23.05
23.890,-12.29
23.906,-3.04
23.921,4.35
23.937,9.86
23.953,13.72
23.968,16.16
23.984,17.34
24.000,17.34
24.015,16.31
24.031,14.57
24.046,12.61
24.062,10.97
24.078,10.03
24.093,9.79
24.109,9.96
24.125,10.12
24.140,9.97
24.156,9.45
24.171,8.81
24.187,8.43
24.203,8.64
24.218,9.58
24.234,11.14
24.250,13.0
24.265,14.87
24.281,16.58
24.296,18.14
24.312,19.7
24.328,21.46
24.343,23.47
24.359,25.59
24.375,27.54
24.390,28.91
24.406,29.44
24.421,29.0
24.437,27.64
24.453,25.52
24.468,22.82
24.484,19.61
24.500,15.81
24.515,11.33
24.531,6.09
24.546,0.13
24.562,-6.34
24.578,-13.1
24.593,-19.98
24.609,-26.92
24.625,-33.96
24.640,-41.09
24.656,-48.22
24.671,-55.1
24.687,-61.37
24.703,-66.65
24.718,-70.54
24.734,-72.65
24.750,-72.59
24.765,-69.99
24.781,-64.71
24.796,-56.95
24.812,-47.41
24.828,-37.13
24.843,-27.21
24.859,-18.5
24.875,-11.29
24.890,-5.38
24.906,-0.3
24.921,4.42
24.937,8.97
24.953,13.34
24.968,17.35
24.984,20.85
25.000,23.8
25.015,26.18
25.031,27.99
25.046,29.14
25.062,29.61
25.078,29.53
25.093,29.18
25.109,29.0
25.125,29.39
25.140,30.55
25.156,32.38
25.171,34.46
25.187,36.25
25.203,37.23
25.218,37.08
25.234,35.76
25.250,33.46
25.265,30.59
25.281,27.55
25.296,24.72
25.312,22.28
25.328,20.31
25.343,18.76
25.359,17.5
25.375,16.39
25.390,15.27
25.406,13.98
25.421,12.41
25.437,10.51
25.453,8.31
25.468,5.96
25.484,3.59
25.500,1.26
25.515,-1.1
25.531,-3.67
25.546,-6.59
25.562,-9.91
25.578,-13.49
25.593,-17.09
25.609,-20.53
25.625,-23.79
25.640,-27.06
25.656,-30.61
25.671,-34.59
25.687,-38.82
25.703,-42.8
25.718,-45.8
25.734,-47.16
25.750,-46.51
25.765,-43.95
25.781,-39.93
25.796,-35.11
25.812,-30.12
25.828,-25.38
25.843,-21.06
25.859,-17.11
25.875,-13.3
25.890,-9.43
25.906,-5.39
25.921,-1.18
25.937,3.06
25.953,7.05
25.968,10.53
25.984,13.29
26.000,15.22
26.015,16.31
26.031,16.68
26.046,16.52
26.062,16.06
26.078,15.63
26.093,15.59
26.109,16.27
26.125,17.85
26.140,20.18
26.156,22.82
26.171,25.15
26.187,26.58
26.203,26.81
26.218,25.87
26.234,24.09
26.250,21.94
26.265,19.72
26.281,17.58
26.296,15.48
26.312,13.34
26.328,11.18
26.343,9.13
26.359,7.37
26.375,5.96
26.390,4.81
26.406,3.65
26.421,2.19
26.437,0.29
26.453,-2.03
26.468,-4.57
26.484,-7.15
26.500,-9.74
26.515,-12.48
26.531,-15.62
26.546,-19.4
26.562,-23.92
26.578,-29.1
26.593,-34.79
26.609,-40.7
26.625,-46.44
26.640,-51.44
26.656,-54.98
26.671,-56.36
26.687,-55.15
26.703,-51.44
26.718,-45.85
26.734,-39.43
26.750,-33.2
26.765,-27.85
26.781,-23.63
26.796,-20.32
26.812,-17.55
26.828,-14.91
26.843,-12.19
26.859,-9.31
26.875,-6.26
26.890,-3.14
26.906,-0.07
26.921,2.74
26.937,5.04
26.953,6.68
26.968,7.64
26.984,8.09
27.000,8.32
27.015,8.65
27.031,9.25
27.046,10.19
27.062,11.41
27.078,12.76
27.093,14.06
27.109,15.12
27.125,15.71
27.140,15.66
27.156,14.86
27.171,13.35
27.187,11.31
27.203,9.03
27.218,6.88
27.234,5.2
27.250,4.16
27.265,3.69
27.281,3.49
27.296,3.08
27.312,1.96
27.328,-0.21
27.343,-3.48
27.359,-7.64
27.375,-12.25
27.390,-16.86
27.406,-21.11
27.421,-24.79
27.437,-27.93
27.453,-30.64
27.468,-33.15
27.484,-35.72
27.500,-38.62
27.515,-42.06
27.531,-46.12
27.546,-50.64
27.562,-55.17
27.578,-58.96
27.593,-61.17
27.609,-61.05
27.625,-58.32
27.640,-53.27
27.656,-46.7
27.671,-39.7
27.687,-33.22
27.703,-27.82
27.718,-23.55
27.734,-20.06
27.750,-16.79
27.765,-13.23
27.781,-9.03
27.796,-4.07
27.812,1.51
27.828,7.37
27.843,13.06
27.859,18.01
27.875,21.77
27.890,24.03
27.906,24.79
27.921,24.31
27.937,23.07
27.953,21.62
27.968,20.4
27.984,19.69
28.000,19.54
28.015,19.85
28.031,20.42
28.046,21.07
28.062,21.65
28.078,22.04
28.093,22.14
28.109,21.84
28.125,21.01
28.140,19.61
28.156,17.69
28.171,15.47
28.187,13.3
28.203,11.49
28.218,10.19
28.234,9.34
28.250,8.63
28.265,7.67
28.281,6.1
28.296,3.73
28.312,0.61
28.328,-3.01
28.343,-6.75
28.359,-10.26
28.375,-13.3
28.390,-15.78
28.406,-17.82
28.421,-19.65
28.437,-21.61
28.453,-24.05
28.468,-27.27
28.484,-31.48
28.500,-36.67
28.515,-42.53
28.531,-48.42
28.546,-53.49
28.562,-56.87
28.578,-57.94
28.593,-56.53
28.609,-52.96
28.625,-47.9
28.640,-42.13
28.656,-36.32
28.671,-30.87
28.687,-25.91
28.703,-21.3
28.718,-16.76
28.734,-11.98
28.750,-6.84
28.765,-1.45
28.781,3.89
28.796,8.71
28.812,12.63
28.828,15.47
28.843,17.31
28.859,18.44
28.875,19.16
28.890,19.69
28.906,20.13
28.921,20.47
28.937,20.66
28.953,20.67
28.968,20.51
28.984,20.22
29.000,19.83
29.015,19.41
29.031,18.99
29.046,18.62
29.062,18.34
29.078,18.19
29.093,18.16
29.109,18.13
29.125,17.88
29.140,17.06
29.156,15.35
29.171,12.62
29.187,9.04
29.203,5.08
29.218,1.33
29.234,-1.79
29.250,-4.21
29.265,-6.18
29.281,-8.13
29.296,-10.33
29.312,-12.81
29.328,-15.36
29.343,-17.69
29.359,-19.62
29.375,-21.22
29.390,-22.71
29.406,-24.38
29.421,-26.49
29.437,-29.3
29.453,-33.08
29.468,-38.09
29.484,-44.39
29.500,-51.66
29.515,-59.08
29.531,-65.55
29.546,-70.03
29.562,-71.98
29.578,-71.52
29.593,-69.19
29.609,-65.53
29.625,-60.62
29.640,-54.11
29.656,-45.56
29.671,-34.97
29.687,-22.97
29.703,-10.68
29.718,0.8
29.734,10.82
29.750,19.33
29.765,26.48
29.781,32.21
29.796,36.06
29.812,37.39
29.828,35.87
29.843,31.96
29.859,26.91
29.875,22.35
29.890,19.64
29.906,19.37
29.921,21.2
29.937,24.15
29.953,27.05
29.968,29.01
29.984,29.63
30.000,28.97
30.015,27.37
30.031,25.16
30.046,22.6
30.062,19.75
30.078,16.59
30.093,13.08
30.109,9.27
30.125,5.35
30.140,1.57
30.156,-1.87
30.171,-4.89
30.187,-7.58
30.203,-10.2
30.218,-12.99
30.234,-16.11
30.250,-19.47
30.265,-22.86
30.281,-25.97
30.296,-28.64
30.312,-30.91
30.328,-33.04
30.343,-35.37
30.359,-38.17
30.375,-41.47
30.390,-45.1
30.406,-48.69
30.421,-51.76
30.437,-53.82
30.453,-54.45
30.468,-53.34
30.484,-50.39
30.500,-45.69
30.515,-39.54
30.531,-32.4
30.546,-24.83
30.562,-17.31
30.578,-10.22
30.593,-3.67
30.609,2.36
30.625,8.06
30.640,13.5
30.656,18.66
30.671,23.39
30.687,27.49
30.703,30.88
30.718,33.64
30.734,35.95
30.750,37.99
30.765,39.83
30.781,41.44
30.796,42.74
30.812,43.7
30.828,44.42
30.843,45.1
30.859,45.85
30.875,46.62
30.890,47.18
30.906,47.23
30.921,46.52
30.937,45.05
30.953,43.0
30.968,40.65
30.984,38.19
31.000,35.69
31.015,33.06
31.031,30.14
31.046,26.88
31.062,23.3
31.078,19.57
31.093,15.85
31.109,12.22
31.125,8.66
31.140,5.09
31.156,1.36
31.171,-2.57
31.187,-6.69
31.203,-10.87
31.218,-14.98
31.234,-18.89
31.250,-22.6
31.265,-26.23
31.281,-30.02
31.296,-34.25
31.312,-39.14
31.328,-44.72
31.343,-50.72
31.359,-56.57
31.375,-61.43
31.390,-64.45
31.406,-64.97
31.421,-62.75
31.437,-58.05
31.453,-51.49
31.468,-43.87
31.484,-35.88
31.500,-27.95
31.515,-20.24
31.531,-12.72
31.546,-5.32
31.562,1.93
31.578,8.88
31.593,15.29
31.609,20.87
31.625,25.4
31.640,28.76
31.656,31.01
31.671,32.36
31.687,33.14
31.703,33.66
31.718,34.22
31.734,34.99
31.750,36.1
31.765,37.61
31.781,39.48
31.796,41.62
31.812,43.85
31.828,45.96
31.843,47.78
31.859,49.17
31.875,50.05
31.890,50.36
31.906,50.05
31.921,49.12
31.937,47.67
31.953,45.85
31.968,43.89
31.984,41.94
32.000,40.02
32.015,38.03
32.031,35.82
32.046,33.32
32.062,30.59
32.078,27.74
32.093,24.82
32.109,21.78
32.125,18.47
32.140,14.74
32.156,10.65
32.171,6.35
32.187,2.14
32.203,-1.78
32.218,-5.34
32.234,-8.7
32.250,-12.12
32.265,-15.93
32.281,-20.34
32.296,-25.43
32.312,-31.03
32.328,-36.72
32.343,-41.91
32.359,-45.89
32.375,-48.01
32.390,-47.88
32.406,-45.47
32.421,-41.15
32.437,-35.51
32.453,-29.24
32.468,-22.84
32.484,-16.59
32.500,-10.6
32.515,-4.84
32.531,0.74
32.546,6.14
32.562,11.35
32.578,16.37
32.593,21.13
32.609,25.56
32.625,29.52
32.640,32.84
32.656,35.33
32.671,36.88
32.687,37.56
32.703,37.59
32.718,37.3
32.734,37.01
32.750,36.93
32.765,37.18
32.781,37.73
32.796,38.47
32.812,39.3
32.828,40.06
32.843,40.65
32.859,40.94
32.875,40.85
32.890,40.34
32.906,39.43
32.921,38.21
32.937,36.8
32.953,35.33
32.968,33.82
32.984,32.27
33.000,30.64
33.015,28.93
33.031,27.19
33.046,25.45
33.062,23.68
33.078,21.77
33.093,19.58
33.109,17.04
33.125,14.18
33.140,11.14
33.156,8.15
33.171,5.37
33.187,2.86
33.203,0.51
33.218,-1.8
33.234,-4.24
33.250,-6.87
33.265,-9.7
33.281,-12.73
33.296,-16.01
33.312,-19.63
33.328,-23.64
33.343,-27.96
33.359,-32.26
33.375,-36.03
33.390,-38.65
33.406,-39.61
33.421,-38.68
33.437,-35.98
33.453,-31.85
33.468,-26.8
33.484,-21.27
33.500,-15.59
33.515,-9.98
33.531,-4.55
33.546,0.63
33.562,5.6
33.578,10.46
33.593,15.34
33.609,20.34
33.625,25.4
33.640,30.35
33.656,34.91
33.671,38.85
33.687,42.05
33.703,44.56
33.718,46.57
33.734,48.3
33.750,49.93
33.765,51.57
33.781,53.2
33.796,54.67
33.812,55.7
33.828,55.89
33.843,54.92
33.859,52.63
33.875,49.16
33.890,45.03
33.906,41.05
33.921,38.06
33.937,36.75
33.953,37.4
33.968,39.86
33.984,43.64
34.000,48.13
34.015,52.79
34.031,57.31
34.046,61.59
34.062,65.69
34.078,69.76
34.093,73.97
34.109,78.46
34.125,83.35
34.140,88.64
34.156,94.23
34.171,99.74
34.187,104.59
34.203,108.03
34.218,109.22
34.234,107.48
34.250,102.4
34.265,93.97
34.281,82.57
34.296,68.85
34.312,53.57
34.328,37.44
34.343,21.05
34.359,4.89
34.375,-10.5
34.390,-24.47
34.406,-36.27
34.421,-45.21
34.437,-50.89
34.453,-53.4
34.468,-53.35
34.484,-51.64
34.500,-49.21
34.515,-46.72
34.531,-44.43
34.546,-42.31
34.562,-40.16
34.578,-37.9
34.593,-35.62
34.609,-33.56
34.625,-31.98
34.640,-31.1
34.656,-30.94
34.671,-31.33
34.687,-31.98
34.703,-32.54
34.718,-32.72
34.734,-32.4
34.750,-31.63
34.765,-30.58
34.781,-29.45
34.796,-28.33
34.812,-27.21
34.828,-26.03
34.843,-24.75
34.859,-23.5
34.875,-22.45
34.890,-21.77
34.906,-21.43
34.921,-21.23
34.937,-20.89
34.953,-20.25
34.968,-19.32
34.984,-18.31
35.000,-17.5
35.015,-17.02
35.031,-16.83
35.046,-16.74
35.062,-16.58
35.078,-16.33
35.093,-16.15
35.109,-16.36
35.125,-17.23
35.140,-18.91
35.156,-21.33
35.171,-24.32
35.187,-27.67
35.203,-31.23
35.218,-34.89
35.234,-38.64
35.250,-42.44
35.265,-46.25
35.281,-49.96
35.296,-53.36
35.312,-56.19
35.328,-58.13
35.343,-58.87
35.359,-58.21
35.375,-56.15
35.390,-52.92
35.406,-48.9
35.421,-44.55
35.437,-40.24
35.453,-36.2
35.468,-32.47
35.484,-29.0
35.500,-25.73
35.515,-22.66
35.531,-19.87
35.546,-17.45
35.562,-15.48
35.578,-13.96
35.593,-12.78
35.609,-11.79
35.625,-10.86
35.640,-9.89
35.656,-8.89
35.671,-7.87
35.687,-6.84
35.703,-5.75
35.718,-4.53
35.734,-3.1
35.750,-1.46
35.765,0.28
35.781,1.94
35.796,3.32
35.812,4.29
35.828,4.79
35.843,4.9
35.859,4.81
35.875,4.76
35.890,4.94
35.906,5.44
35.921,6.19
35.937,6.99
35.953,7.59
35.968,7.72
35.984,7.23
36.000,6.09
36.015,4.38
36.031,2.27
36.046,-0.09
36.062,-2.59
36.078,-5.14
36.093,-7.69
36.109,-10.1
36.125,-12.22
36.140,-13.83
36.156,-14.85
36.171,-15.31
36.187,-15.49
36.203,-15.71
36.218,-16.32
36.234,-17.46
36.250,-19.06
36.265,-20.84
36.281,-22.41
36.296,-23.37
36.312,-23.4
36.328,-22.34
36.343,-20.22
36.359,-17.28
36.375,-13.9
36.390,-10.55
36.406,-7.62
36.421,-5.29
36.437,-3.52
36.453,-2.06
36.468,-0.62
36.484,1.0
36.500,2.86
36.515,4.89
36.531,6.98
36.546,9.01
36.562,10.85
36.578,12.4
36.593,13.51
36.609,14.12
36.625,14.29
36.640,14.19
36.656,14.07
36.671,14.16
36.687,14.48
36.703,14.88
36.718,15.14
36.734,15.03
36.750,14.55
36.765,13.84
36.781,13.13
36.796,12.54
36.812,12.06
36.828,11.56
36.843,10.92
36.859,10.13
36.875,9.28
36.890,8.52
36.906,7.92
36.921,7.45
36.937,6.99
36.953,6.4
36.968,5.63
36.984,4.67
37.000,3.6
37.015,2.49
37.031,1.4
37.046,0.33
37.062,-0.74
37.078,-1.89
37.093,-3.17
37.109,-4.62
37.125,-6.19
37.140,-7.77
37.156,-9.19
37.171,-10.33
37.187,-11.17
37.203,-11.84
37.218,-12.54
37.234,-13.51
37.250,-14.91
37.265,-16.79
37.281,-19.03
37.296,-21.38
37.312,-23.46
37.328,-24.86
37.343,-25.24
37.359,-24.4
37.375,-22.41
37.390,-19.56
37.406,-16.3
37.421,-13.07
37.437,-10.14
37.453,-7.58
37.468,-5.33
37.484,-3.25
37.500,-1.26
37.515,0.67
37.531,2.54
37.546,4.29
37.562,5.91
37.578,7.37
37.593,8.61
37.609,9.53
37.625,10.08
37.640,10.26
37.656,10.16
37.671,9.95
37.687,9.83
37.703,9.93
37.718,10.33
37.734,11.0
37.750,11.86
37.765,12.79
37.781,13.67
37.796,14.39
37.812,14.83
37.828,14.93
37.843,14.67
37.859,14.1
37.875,13.31
37.890,12.41
37.906,11.54
37.921,10.77
37.937,10.1
37.953,9.47
37.968,8.72
37.984,7.7
38.000,6.34
38.015,4.66
38.031,2.84
38.046,1.11
38.062,-0.33
38.078,-1.42
38.093,-2.27
38.109,-3.1
38.125,-4.14
38.140,-5.54
38.156,-7.23
38.171,-9.05
38.187,-10.77
38.203,-12.28
38.218,-13.61
38.234,-14.92
38.250,-16.43
38.265,-18.26
38.281,-20.43
38.296,-22.77
38.312,-25.06
38.328,-27.05
38.343,-28.54
38.359,-29.4
38.375,-29.58
38.390,-29.05
38.406,-27.82
38.421,-25.98
38.437,-23.68
38.453,-21.13
38.468,-18.53
38.484,-16.0
38.500,-13.59
38.515,-11.24
38.531,-8.91
38.546,-6.58
38.562,-4.3
38.578,-2.15
38.593,-0.19
38.609,1.52
38.625,2.97
38.640,4.17
38.656,5.09
38.671,5.73
38.687,6.14
38.703,6.38
38.718,6.57
38.734,6.79
38.750,7.06
38.765,7.36
38.781,7.61
38.796,7.76
38.812,7.76
38.828,7.61
38.843,7.32
38.859,6.89
38.875,6.35
38.890,5.69
38.906,4.87
38.921,3.85
38.937,2.57
38.953,1.04
38.968,-0.66
38.984,-2.41
39.000,-4.09
39.015,-5.68
39.031,-7.24
39.046,-8.94
39.062,-10.94
39.078,-13.38
39.093,-16.3
39.109,-19.69
39.125,-23.42
39.140,-27.23
39.156,-30.75
39.171,-33.55
39.187,-35.26
39.203,-35.72
39.218,-35.15
39.234,-34.02
39.250,-32.95
39.265,-32.39
39.281,-32.49
39.296,-33.02
39.312,-33.49
39.328,-33.43
39.343,-32.49
39.359,-30.61
39.375,-27.96
39.390,-24.81
39.406,-21.44
39.421,-18.02
39.437,-14.65
39.453,-11.32
39.468,-8.05
39.484,-4.79
39.500,-1.57
39.515,1.62
39.531,4.76
39.546,7.77
39.562,10.55
39.578,12.97
39.593,14.95
39.609,16.47
39.625,17.56
39.640,18.34
39.656,18.92
39.671,19.4
39.687,19.85
39.703,20.3
39.718,20.74
39.734,21.15
39.750,21.47
39.765,21.68
39.781,21.73
39.796,21.63
39.812,21.39
39.828,21.01
39.843,20.47
39.859,19.74
39.875,18.81
39.890,17.69
39.906,16.46
39.921,15.2
39.937,14.02
39.953,13.03
39.968,12.26
39.984,11.7
40.000,11.2
40.015,10.59
40.031,9.7
40.046,8.38
40.062,6.64
40.078,4.6
40.093,2.41
40.109,0.24
40.125,-1.8
40.140,-3.72
40.156,-5.58
40.171,-7.48
40.187,-9.57
40.203,-11.95
40.218,-14.78
40.234,-18.15
40.250,-22.03
40.265,-26.25
40.281,-30.41
40.296,-33.95
40.312,-36.32
40.328,-37.1
40.343,-36.12
40.359,-33.51
40.375,-29.59
40.390,-24.8
40.406,-19.58
40.421,-14.29
40.437,-9.16
40.453,-4.32
40.468,0.21
40.484,4.52
40.500,8.71
40.515,12.85
40.531,16.97
40.546,20.95
40.562,24.64
40.578,27.85
40.593,30.46
40.609,32.43
40.625,33.75
40.640,34.49
40.656,34.76
40.671,34.72
40.687,34.55
40.703,34.5
40.718,34.7
40.734,35.2
40.750,35.92
40.765,36.65
40.781,37.17
40.796,37.33
40.812,37.03
40.828,36.28
40.843,35.16
40.859,33.75
40.875,32.12
40.890,30.35
40.906,28.5
40.921,26.61
40.937,24.74
40.953,22.89
40.968,21.06
40.984,19.22
41.000,17.31
41.015,15.31
41.031,13.18
41.046,10.91
41.062,8.5
41.078,5.93
41.093,3.17
41.109,0.25
41.125,-2.76
41.140,-5.76
41.156,-8.64
41.171,-11.38
41.187,-14.01
41.203,-16.6
41.218,-19.27
41.234,-22.14
41.250,-25.3
41.265,-28.77
41.281,-32.47
41.296,-36.16
41.312,-39.45
41.328,-41.81
41.343,-42.71
41.359,-41.75
41.375,-38.78
41.390,-33.93
41.406,-27.59
41.421,-20.22
41.437,-12.34
41.453,-4.33
41.468,3.52
41.484,11.06
41.500,18.3
41.515,25.31
41.531,32.17
41.546,38.87
41.562,45.23
41.578,50.99
41.593,55.88
41.609,59.76
41.625,62.65
41.640,64.73
41.656,66.26
41.671,67.51
41.687,68.79
41.703,70.4
41.718,72.6
41.734,75.55
41.750,79.18
41.765,83.11
41.781,86.84
41.796,89.82
41.812,91.76
41.828,92.69
41.843,92.97
41.859,93.06
41.875,93.35
41.890,93.99
41.906,94.86
41.921,95.63
41.937,95.88
41.953,95.25
41.968,93.47
41.984,90.38
42.000,86.01
42.015,80.49
42.031,74.09
42.046,67.19
42.062,60.13
42.078,53.15
42.093,46.28
42.109,39.31
42.125,31.89
42.140,23.67
42.156,14.45
42.171,4.24
42.187,-6.76
42.203,-18.21
42.218,-29.79
42.234,-41.24
42.250,-52.33
42.265,-62.89
42.281,-72.72
42.296,-81.66
42.312,-89.61
42.328,-96.53
42.343,-102.38
42.359,-107.07
42.375,-110.42
42.390,-112.25
42.406,-112.41
42.421,-110.99
42.437,-108.27
42.453,-104.72
42.468,-100.81
42.484,-96.92
42.500,-93.26
42.515,-89.9
42.531,-86.86
42.546,-84.12
42.562,-81.68
42.578,-79.47
42.593,-77.43
42.609,-75.46
42.625,-73.55
42.640,-71.76
42.656,-70.15
42.671,-68.75
42.687,-67.39
42.703,-65.81
42.718,-63.67
42.734,-60.69
42.750,-56.7
42.765,-51.71
42.781,-45.9
42.796,-39.53
42.812,-32.96
42.828,-26.53
42.843,-20.57
42.859,-15.23
42.875,-10.56
42.890,-6.41
42.906,-2.51
42.921,1.39
42.937,5.43
42.953,9.56
42.968,13.52
42.984,16.84
43.000,18.97
43.015,19.45
43.031,18.11
43.046,15.18
43.062,11.36
43.078,7.64
43.093,4.99
43.109,4.05
43.125,4.97
43.140,7.41
43.156,10.73
43.171,14.24
43.187,17.39
43.203,19.8
43.218,21.32
43.234,21.9
43.250,21.59
43.265,20.53
43.281,18.91
43.296,17.0
43.312,15.04
43.328,13.18
43.343,11.45
43.359,9.76
43.375,8.0
43.390,6.08
43.406,4.07
43.421,2.21
43.437,0.87
43.453,0.47
43.468,1.25
43.484,3.24
43.500,6.15
43.515,9.53
43.531,12.97
43.546,16.23
43.562,19.28
43.578,22.29
43.593,25.45
43.609,28.87
43.625,32.53
43.640,36.27
43.656,39.9
43.671,43.14
43.687,45.72
43.703,47.4
43.718,48.03
43.734,47.61
43.750,46.32
43.765,44.43
43.781,42.17
43.796,39.57
43.812,36.51
43.828,32.79
43.843,28.33
43.859,23.29
43.875,18.06
43.890,13.11
43.906,8.8
43.921,5.26
43.937,2.4
43.953,0.08
43.968,-1.82
43.984,-3.31
44.000,-4.31
44.015,-4.81
44.031,-4.95
44.046,-4.97
44.062,-5.13
44.078,-5.6
44.093,-6.36
44.109,-7.25
44.125,-8.07
44.140,-8.67
44.156,-9.02
44.171,-9.16
44.187,-9.18
44.203,-9.18
44.218,-9.28
44.234,-9.58
44.250,-10.18
44.265,-11.2
44.281,-12.63
44.296,-14.45
44.312,-16.57
44.328,-18.94
44.343,-21.49
44.359,-24.19
44.375,-27.0
44.390,-29.84
44.406,-32.62
44.421,-35.25
44.437,-37.61
44.453,-39.54
44.468,-40.84
44.484,-41.26
44.500,-40.59
44.515,-38.68
44.531,-35.59
44.546,-31.53
44.562,-26.82
44.578,-21.85
44.593,-16.97
44.609,-12.46
44.625,-8.48
44.640,-5.12
44.656,-2.36
44.671,-0.13
44.687,1.71
44.703,3.22
44.718,4.46
44.734,5.39
44.750,5.91
44.765,5.87
44.781,5.19
44.796,3.82
44.812,1.79
44.828,-0.72
44.843,-3.39
44.859,-5.85
44.875,-7.73
44.890,-8.86
44.906,-9.3
44.921,-9.35
44.937,-9.38
44.953,-9.7
44.968,-10.39
44.984,-11.31
45.000,-12.16
45.015,-12.6
45.031,-12.38
45.046,-11.38
45.062,-9.68
45.078,-7.51
45.093,-5.17
45.109,-3.04
45.125,-1.36
45.140,-0.19
45.156,0.66
45.171,1.49
45.187,2.65
45.203,4.29
45.218,6.27
45.234,8.21
45.250,9.52
45.265,9.59
45.281,7.99
45.296,4.58
45.312,-0.28
45.328,-5.82
45.343,-10.98
45.359,-14.67
45.375,-16.15
45.390,-15.26
45.406,-12.51
45.421,-8.86
45.437,-5.3
45.453,-2.53
45.468,-0.7
45.484,0.58
45.500,1.93
45.515,3.9
45.531,6.76
45.546,10.43
45.562,14.62
45.578,19.05
45.593,23.53
45.609,28.04
45.625,32.63
45.640,37.32
45.656,42.06
45.671,46.75
45.687,51.27
45.703,55.56
45.718,59.61
45.734,63.4
45.750,66.8
45.765,69.59
45.781,71.47
45.796,72.17
45.812,71.57
45.828,69.85
45.843,67.45
45.859,64.93
45.875,62.8
45.890,61.3
45.906,60.29
45.921,59.35
45.937,57.99
45.953,55.98
45.968,53.4
45.984,50.67
46.000,48.34
46.015,46.73
46.031,45.82
46.046,45.22
46.062,44.29
46.078,42.39
46.093,39.01
46.109,33.81
46.125,26.77
46.140,18.18
46.156,8.6
46.171,-1.1
46.187,-10.06
46.203,-17.57
46.218,-23.37
46.234,-27.64
46.250,-30.88
46.265,-33.63
46.281,-36.25
46.296,-38.86
46.312,-41.42
46.328,-43.88
46.343,-46.26
46.359,-48.56
46.375,-50.74
46.390,-52.59
46.406,-53.83
46.421,-54.22
46.437,-53.7
46.453,-52.51
46.468,-51.1
46.484,-50.05
46.500,-49.78
46.515,-50.4
46.531,-51.68
46.546,-53.06
46.562,-53.91
46.578,-53.66
46.593,-52.05
46.609,-49.18
46.625,-45.48
46.640,-41.5
46.656,-37.74
46.671,-34.49
46.687,-31.72
46.703,-29.22
46.718,-26.71
46.734,-24.07
46.750,-21.42
46.765,-19.07
46.781,-17.41
46.796,-16.74
46.812,-17.18
46.828,-18.51
46.843,-20.31
46.859,-21.9
46.875,-22.57
46.890,-21.67
46.906,-18.8
46.921,-13.93
46.937,-7.42
46.953,0.08
46.968,7.87
46.984,15.38
47.000,22.29
47.015,28.55
47.031,34.33
47.046,39.92
47.062,45.68
47.078,51.93
47.093,58.97
47.109,66.94
47.125,75.82
47.140,85.33
47.156,95.03
47.171,104.32
47.187,112.65
47.203,119.6
47.218,125.03
47.234,129.0
47.250,131.83
47.265,133.95
47.281,135.77
47.296,137.58
47.312,139.52
47.328,141.62
47.343,143.79
47.359,145.96
47.375,147.99
47.390,149.62
47.406,150.39
47.421,149.58
47.437,146.23
47.453,139.33
47.468,128.04
47.484,112.0
47.500,91.42
47.515,67.15
47.531,40.46
47.546,12.76
47.562,-14.6
47.578,-40.52
47.593,-64.18
47.609,-85.05
47.625,-102.8
47.640,-117.34
47.656,-128.85
47.671,-137.75
47.687,-144.68
47.703,-150.31
47.718,-155.15
47.734,-159.54
47.750,-163.53
47.765,-166.99
47.781,-169.7
47.796,-171.39
47.812,-171.85
47.828,-170.95
47.843,-168.69
47.859,-165.2
47.875,-160.73
47.890,-155.57
47.906,-149.94
47.921,-143.97
47.937,-137.67
47.953,-130.95
47.968,-123.79
47.984,-116.21
48.000,-108.32
48.015,-100.34
48.031,-92.42
48.046,-84.72
48.062,-77.3
48.078,-70.18
48.093,-63.38
48.109,-56.91
48.125,-50.87
48.140,-45.31
48.156,-40.29
48.171,-35.81
48.187,-31.78
48.203,-28.09
48.218,-24.65
48.234,-21.49
48.250,-18.73
48.265,-16.53
48.281,-14.99
48.296,-14.12
48.312,-13.78
48.328,-13.8
48.343,-14.03
48.359,-14.36
48.375,-14.73
48.390,-15.08
48.406,-15.36
48.421,-15.56
48.437,-15.77
48.453,-16.17
48.468,-17.05
48.484,-18.69
48.500,-21.25
48.515,-24.75
48.531,-29.03
48.546,-33.78
48.562,-38.57
48.578,-42.83
48.593,-45.99
48.609,-47.57
48.625,-47.32
48.640,-45.31
48.656,-41.83
48.671,-37.31
48.687,-32.16
48.703,-26.69
48.718,-21.19
48.734,-15.96
48.750,-11.36
48.765,-7.69
48.781,-5.02
48.796,-3.14
48.812,-1.51
48.828,0.41
48.843,2.96
48.859,6.07
48.875,9.34
48.890,12.22
48.906,14.31
48.921,15.5
48.937,15.98
48.953,16.08
48.968,16.14
48.984,16.35
49.000,16.81
49.015,17.54
49.031,18.55
49.046,19.79
49.062,21.13
49.078,22.35
49.093,23.18
49.109,23.44
49.125,23.11
49.140,22.32
49.156,21.32
49.171,20.32
49.187,19.46
49.203,18.8
49.218,18.3
49.234,17.89
49.250,17.47
49.265,16.86
49.281,15.94
49.296,14.64
49.312,13.01
49.328,11.26
49.343,9.63
49.359,8.31
49.375,7.35
49.390,6.66
49.406,6.04
49.421,5.29
49.437,4.24
49.453,2.78
49.468,0.86
49.484,-1.48
49.500,-4.11
49.515,-6.82
49.531,-9.39
49.546,-11.71
49.562,-13.85
49.578,-16.04
49.593,-18.61
49.609,-21.78
49.625,-25.5
49.640,-29.38
49.656,-32.77
49.671,-34.93
49.687,-35.3
49.703,-33.65
49.718,-30.19
49.734,-25.46
49.750,-20.09
49.765,-14.63
49.781,-9.39
49.796,-4.41
49.812,0.36
49.828,5.03
49.843,9.63
49.859,14.14
49.875,18.57
49.890,22.92
49.906,27.23
49.921,31.47
49.937,35.51
49.953,39.17
49.968,42.24
49.984,44.67
50.000,46.57
50.015,48.23
50.031,49.97
50.046,52.05
50.062,54.54
50.078,57.4
50.093,60.41
50.109,63.34
50.125,66.0
50.140,68.27
50.156,70.13
50.171,71.72
50.187,73.24
50.203,74.89
50.218,76.85
50.234,79.17
50.250,81.79
50.265,84.57
50.281,87.34
50.296,89.95
50.312,92.31
50.328,94.46
50.343,96.59
50.359,98.89
50.375,101.53
50.390,104.44
50.406,107.32
50.421,109.71
50.437,111.18
50.453,111.53
50.468,110.96
50.484,109.94
50.500,109.11
50.515,109.03
50.531,110.01
50.546,112.11
50.562,114.96
50.578,117.9
50.593,119.89
50.609,119.71
50.625,116.22
50.640,108.74
50.656,97.3
50.671,82.71
50.687,66.34
50.703,49.64
50.718,33.68
50.734,18.83
50.750,4.72
50.765,-9.54
50.781,-24.88
50.796,-41.75
50.812,-59.74
50.828,-77.6
50.843,-93.51
50.859,-105.7
50.875,-113.01
50.890,-115.2
50.906,-112.87
50.921,-107.11
50.937,-99.09
50.953,-89.78
50.968,-80.0
50.984,-70.55
51.000,-62.24
51.015,-55.91
51.031,-52.06
51.046,-50.73
51.062,-51.36
51.078,-53.03
51.093,-54.78
51.109,-55.96
51.125,-56.35
51.140,-56.17
51.156,-55.88
51.171,-55.89
51.187,-56.4
51.203,-57.32
51.218,-58.37
51.234,-59.22
51.250,-59.67
51.265,-59.67
51.281,-59.32
51.296,-58.74
51.312,-57.95
51.328,-56.86
51.343,-55.36
51.359,-53.36
51.375,-50.95
51.390,-48.34
51.406,-45.79
51.421,-43.52
51.437,-41.7
51.453,-40.45
51.468,-39.94
51.484,-40.31
51.500,-41.6
51.515,-43.64
51.531,-46.01
51.546,-48.16
51.562,-49.64
51.578,-50.3
51.593,-50.33
51.609,-50.2
51.625,-50.4
51.640,-51.22
51.656,-52.72
51.671,-54.72
51.687,-56.99
51.703,-59.34
51.718,-61.65
51.734,-63.91
51.750,-66.18
51.765,-68.48
51.781,-70.77
51.796,-72.93
51.812,-74.69
51.828,-75.67
51.843,-75.48
51.859,-73.7
51.875,-70.03
51.890,-64.39
51.906,-56.87
51.921,-47.82
51.937,-37.8
51.953,-27.52
51.968,-17.73
51.984,-9.1
52.000,-2.04
52.015,3.29
52.031,6.94
52.046,9.15
52.062,10.2
52.078,10.43
52.093,10.18
52.109,9.85
52.125,9.78
52.140,10.17
52.156,11.03
52.171,12.16
52.187,13.32
52.203,14.26
52.218,14.92
52.234,15.37
52.250,15.84
52.265,16.53
52.281,17.62
52.296,19.18
52.312,21.24
52.328,23.77
52.343,26.66
52.359,29.77
52.375,32.92
52.390,35.9
52.406,38.55
52.421,40.7
52.437,42.22
52.453,42.95
52.468,42.78
52.484,41.68
52.500,39.77
52.515,37.33
52.531,34.69
52.546,32.14
52.562,29.83
52.578,27.74
52.593,25.7
52.609,23.47
52.625,20.76
52.640,17.22
52.656,12.48
52.671,6.22
52.687,-1.64
52.703,-10.8
52.718,-20.55
52.734,-29.96
52.750,-38.09
52.765,-44.25
52.781,-48.04
52.796,-49.3
52.812,-48.03
52.828,-44.33
52.843,-38.45
52.859,-30.91
52.875,-22.48
52.890,-13.99
52.906,-6.1
52.921,0.89
52.937,6.99
52.953,12.45
52.968,17.42
52.984,21.87
53.000,25.53
53.015,28.1
53.031,29.46
53.046,29.8
53.062,29.6
53.078,29.54
53.093,30.24
53.109,32.05
53.125,34.92
53.140,38.32
53.156,41.32
53.171,42.77
53.187,41.61
53.203,37.2
53.218,29.6
53.234,19.7
53.250,9.03
53.265,-0.58
53.281,-7.52
53.296,-10.91
53.312,-10.81
53.328,-8.1
53.343,-4.11
53.359,-0.18
53.375,2.76
53.390,4.31
53.406,4.55
53.421,3.87
53.437,2.7
53.453,1.39
53.468,0.13
53.484,-1.06
53.500,-2.26
53.515,-3.59
53.531,-5.12
53.546,-6.95
53.562,-9.11
53.578,-11.57
53.593,-14.25
53.609,-17.06
53.625,-19.93
53.640,-22.89
53.656,-26.03
53.671,-29.52
53.687,-33.38
53.703,-37.36
53.718,-40.91
53.734,-43.29
53.750,-43.79
53.765,-42.01
53.781,-38.02
53.796,-32.31
53.812,-25.6
53.828,-18.65
53.843,-12.01
53.859,-5.99
53.875,-0.67
53.890,4.04
53.906,8.34
53.921,12.42
53.937,16.45
53.953,20.53
53.968,24.62
53.984,28.59
54.000,32.22
54.015,35.24
54.031,37.43
54.046,38.68
54.062,39.05
54.078,38.77
54.093,38.2
54.109,37.78
54.125,37.86
54.140,38.6
54.156,39.94
54.171,41.58
54.187,43.12
54.203,44.22
54.218,44.72
54.234,44.67
54.250,44.33
54.265,43.97
54.281,43.8
54.296,43.81
54.312,43.89
54.328,43.79
54.343,43.31
54.359,42.32
54.375,40.8
54.390,38.76
54.406,36.26
54.421,33.32
54.437,30.01
54.453,26.43
54.468,22.7
54.484,18.93
54.500,15.12
54.515,11.22
54.531,7.08
54.546,2.62
54.562,-2.1
54.578,-6.89
54.593,-11.4
54.609,-15.36
54.625,-18.64
54.640,-21.39
54.656,-24.01
54.671,-26.97
54.687,-30.7
54.703,-35.33
54.718,-40.65
54.734,-46.14
54.750,-51.03
54.765,-54.52
54.781,-56.02
54.796,-55.27
54.812,-52.38
54.828,-47.77
54.843,-42.0
54.859,-35.57
54.875,-28.88
54.890,-22.18
54.906,-15.62
54.921,-9.33
54.937,-3.39
54.953,2.2
54.968,7.45
54.984,12.39
55.000,16.99
55.015,21.1
55.031,24.58
55.046,27.32
55.062,29.39
55.078,30.91
55.093,32.09
55.109,32.97
55.125,33.51
55.140,33.63
55.156,33.37
55.171,32.93
55.187,32.62
55.203,32.68
55.218,33.12
55.234,33.68
55.250,33.96
55.265,33.65
55.281,32.67
55.296,31.23
55.312,29.67
55.328,28.23
55.343,27.02
55.359,25.92
55.375,24.79
55.390,23.52
55.406,22.12
55.421,20.66
55.437,19.24
55.453,17.91
55.468,16.68
55.484,15.52
55.500,14.38
55.515,13.2
55.531,11.92
55.546,10.5
55.562,8.95
55.578,7.28
55.593,5.51
55.609,3.6
55.625,1.48
55.640,-0.93
55.656,-3.7
55.671,-6.79
55.687,-10.14
55.703,-13.71
55.718,-17.46
55.734,-21.41
55.750,-25.53
55.765,-29.66
55.781,-33.46
55.796,-36.55
55.812,-38.56
55.828,-39.28
55.843,-38.62
55.859,-36.64
55.875,-33.45
55.890,-29.23
55.906,-24.21
55.921,-18.64
55.937,-12.8
55.953,-6.9
55.968,-1.06
55.984,4.66
56.000,10.22
56.015,15.54
56.031,20.43
56.046,24.63
56.062,27.94
56.078,30.28
56.093,31.73
56.109,32.48
56.125,32.74
56.140,32.66
56.156,32.34
56.171,31.83
56.187,31.18
56.203,30.45
56.218,29.71
56.234,29.01
56.250,28.4
56.265,27.87
56.281,27.4
56.296,26.97
56.312,26.53
56.328,25.97
56.343,25.14
56.359,23.9
56.375,22.14
56.390,19.87
56.406,17.26
56.421,14.58
56.437,12.15
56.453,10.14
56.468,8.62
56.484,7.45
56.500,6.43
56.515,5.31
56.531,3.92
56.546,2.24
56.562,0.29
56.578,-1.79
56.593,-3.85
56.609,-5.78
56.625,-7.53
56.640,-9.1
56.656,-10.55
56.671,-11.98
56.687,-13.52
56.703,-15.3
56.718,-17.46
56.734,-20.12
56.750,-23.35
56.765,-27.05
56.781,-30.95
56.796,-34.57
56.812,-37.36
56.828,-38.79
56.843,-38.52
56.859,-36.5
56.875,-32.91
56.890,-28.17
56.906,-22.78
56.921,-17.21
56.937,-11.86
56.953,-6.93
56.968,-2.46
56.984,1.59
57.000,5.3
57.015,8.71
57.031,11.76
57.046,14.39
57.062,16.5
57.078,18.05
57.093,19.0
57.109,19.35
57.125,19.14
57.140,18.49
57.156,17.64
57.171,16.88
57.187,16.5
57.203,16.7
57.218,17.45
57.234,18.58
57.250,19.78
57.265,20.8
57.281,21.42
57.296,21.61
57.312,21.4
57.328,20.88
57.343,20.13
57.359,19.21
57.375,18.14
57.390,16.96
57.406,15.71
57.421,14.41
57.437,13.06
57.453,11.57
57.468,9.85
57.484,7.85
57.500,5.63
57.515,3.34
57.531,1.21
57.546,-0.63
57.562,-2.13
57.578,-3.37
57.593,-4.55
57.609,-5.83
57.625,-7.34
57.640,-9.08
57.656,-10.99
57.671,-12.94
57.687,-14.79
57.703,-16.45
57.718,-17.9
57.734,-19.28
57.750,-20.83
57.765,-22.83
57.781,-25.47
57.796,-28.76
57.812,-32.43
57.828,-35.99
57.843,-38.87
57.859,-40.58
57.875,-40.84
57.890,-39.63
57.906,-37.15
57.921,-33.74
57.937,-29.71
57.953,-25.33
57.968,-20.76
57.984,-16.16
58.000,-11.69
58.015,-7.53
58.031,-3.81
58.046,-0.61
58.062,2.12
58.078,4.56
58.093,6.85
58.109,9.13
58.125,11.37
58.140,13.44
58.156,15.15
58.171,16.3
58.187,16.84
58.203,16.87
58.218,16.62
58.234,16.37
58.250,16.3
58.265,16.48
58.281,16.87
58.296,17.35
58.312,17.9
58.328,18.47
58.343,19.09
58.359,19.68
58.375,20.06
58.390,20.01
58.406,19.34
58.421,18.06
58.437,16.37
58.453,14.59
58.468,13.01
58.484,11.71
58.500,10.58
58.515,9.39
58.531,7.98
58.546,6.33
58.562,4.55
58.578,2.74
58.593,0.91
58.609,-1.03
58.625,-3.19
58.640,-5.52
58.656,-7.8
58.671,-9.7
58.687,-10.95
58.703,-11.55
58.718,-11.77
58.734,-12.07
58.750,-12.87
58.765,-14.39
58.781,-16.53
58.796,-19.0
58.812,-21.52
58.828,-23.92
58.843,-26.27
58.859,-28.75
58.875,-31.49
58.890,-34.39
58.906,-37.08
58.921,-38.99
58.937,-39.59
58.953,-38.59
58.968,-36.03
58.984,-32.28
59.000,-27.83
59.015,-23.15
59.031,-18.55
59.046,-14.17
59.062,-10.01
59.078,-6.05
59.093,-2.3
59.109,1.22
59.125,4.55
59.140,7.74
59.156,10.84
59.171,13.88
59.187,16.74
59.203,19.28
59.218,21.27
59.234,22.58
59.250,23.21
59.265,23.33
59.281,23.2
59.296,23.17
59.312,23.46
59.328,24.18
59.343,25.23
59.359,26.41
59.375,27.53
59.390,28.43
59.406,29.1
59.421,29.6
59.437,30.07
59.453,30.61
59.468,31.21
59.484,31.82
59.500,32.36
59.515,32.79
59.531,33.11
59.546,33.37
59.562,33.54
59.578,33.56
59.593,33.36
59.609,32.91
59.625,32.33
59.640,31.79
59.656,31.48
59.671,31.45
59.687,31.61
59.703,31.72
59.718,31.54
59.734,30.93
59.750,29.88
59.765,28.43
59.781,26.64
59.796,24.48
59.812,21.88
59.828,18.83
59.843,15.4
59.859,11.72
59.875,7.87
59.890,3.77
59.906,-0.79
59.921,-6.04
59.937,-11.99
59.953,-18.35
59.968,-24.63
59.984,-30.4
