timestamp,value
00.000,39.57
00.015,56.99
00.031,69.93
00.046,78.64
00.062,83.44
00.078,84.71
00.093,82.79
00.109,77.95
00.125,70.4
00.140,60.65
00.156,49.76
00.171,39.59
00.187,32.49
00.203,30.76
00.218,35.83
00.234,47.71
00.250,64.79
00.265,84.27
00.281,102.83
00.296,117.45
00.312,126.16
00.328,128.15
00.343,123.89
00.359,114.68
00.375,102.15
00.390,87.69
00.406,72.22
00.421,56.19
00.437,39.98
00.453,24.29
00.468,10.08
00.484,-1.72
00.500,-10.86
00.515,-18.09
00.531,-24.86
00.546,-32.74
00.562,-42.85
00.578,-55.73
00.593,-71.39
00.609,-89.49
00.625,-109.09
00.640,-128.36
00.656,-144.68
00.671,-155.13
00.687,-157.64
00.703,-151.95
00.718,-139.74
00.734,-123.7
00.750,-106.23
00.765,-88.33
00.781,-69.54
00.796,-48.84
00.812,-25.61
00.828,-0.26
00.843,25.79
00.859,50.48
00.875,71.55
00.890,86.78
00.906,94.27
00.921,93.08
00.937,83.76
00.953,68.49
00.968,50.33
00.984,32.28
01.000,16.22
01.015,2.6
01.031,-8.98
01.046,-18.93
01.062,-27.03
01.078,-32.46
01.093,-34.29
01.109,-31.97
01.125,-25.45
01.140,-14.85
01.156,-0.35
01.171,17.66
01.187,38.07
01.203,58.51
01.218,75.48
01.234,85.16
01.250,84.64
01.265,73.18
01.281,52.65
01.296,27.15
01.312,2.02
01.328,-17.61
01.343,-27.95
01.359,-27.39
01.375,-16.6
01.390,1.64
01.406,23.19
01.421,43.47
01.437,58.83
01.453,67.55
01.468,70.39
01.484,70.06
01.500,69.97
01.515,72.66
01.531,78.61
01.546,86.2
01.562,92.64
01.578,95.49
01.593,93.9
01.609,88.97
01.625,82.97
01.640,77.97
01.656,74.95
01.671,73.17
01.687,70.9
01.703,66.43
01.718,59.16
01.734,49.97
01.750,40.77
01.765,33.62
01.781,29.8
01.796,29.97
01.812,33.9
01.828,40.91
01.843,49.97
01.859,59.72
01.875,68.41
01.890,73.84
01.906,73.77
01.921,66.6
01.937,53.05
01.953,35.53
01.968,17.13
01.984,0.13
02.000,-14.97
02.015,-29.24
02.031,-44.35
02.046,-61.33
02.062,-79.79
02.078,-96.36
02.093,-106.61
02.109,-106.89
02.125,-95.94
02.140,-75.26
02.156,-48.22
02.171,-18.9
02.187,8.73
02.203,31.27
02.218,48.07
02.234,60.14
02.250,69.72
02.265,79.64
02.281,92.92
02.296,112.55
02.312,140.86
02.328,178.36
02.343,212.35
02.359,229.3
02.375,219.92
02.390,184.77
02.406,132.63
02.421,73.78
02.437,15.4
02.453,-39.06
02.468,-88.59
02.484,-133.0
02.500,-170.07
02.515,-196.8
02.531,-210.99
02.546,-212.51
02.562,-203.3
02.578,-187.06
02.593,-168.32
02.609,-151.72
02.625,-140.77
02.640,-135.74
02.656,-134.59
02.671,-134.05
02.687,-131.24
02.703,-124.65
02.718,-114.68
02.734,-102.44
02.750,-89.65
02.765,-78.1
02.781,-68.48
02.796,-60.84
02.812,-54.96
02.828,-50.69
02.843,-47.92
02.859,-46.27
02.875,-44.86
02.890,-42.92
02.906,-40.0
02.921,-35.83
02.937,-30.43
02.953,-23.94
02.968,-16.56
02.984,-8.41
03.000,0.43
03.015,9.91
03.031,19.59
03.046,28.77
03.062,36.83
03.078,43.47
03.093,49.0
03.109,53.94
03.125,58.89
03.140,64.2
03.156,70.08
03.171,76.34
03.187,82.57
03.203,88.37
03.218,93.53
03.234,98.2
03.250,102.53
03.265,106.71
03.281,110.71
03.296,114.76
03.312,118.82
03.328,122.68
03.343,126.11
03.359,128.96
03.375,131.45
03.390,133.6
03.406,135.36
03.421,136.48
03.437,137.43
03.453,138.78
03.468,141.29
03.484,145.84
03.500,152.86
03.515,162.08
03.531,171.33
03.546,177.37
03.562,176.76
03.578,168.3
03.593,152.79
03.609,132.14
03.625,108.33
03.640,81.92
03.656,52.54
03.671,18.77
03.687,-19.65
03.703,-64.57
03.718,-110.5
03.734,-147.73
03.750,-167.51
03.765,-166.04
03.781,-144.24
03.796,-104.27
03.812,-50.66
03.828,13.91
03.843,84.52
03.859,154.22
03.875,214.6
03.890,258.79
03.906,284.34
03.921,288.54
03.937,275.22
03.953,250.63
03.968,220.74
03.984,188.99
04.000,157.15
04.015,125.59
04.031,94.22
04.046,63.24
04.062,33.08
04.078,4.67
04.093,-22.17
04.109,-48.42
04.125,-75.45
04.140,-103.53
04.156,-132.16
04.171,-160.52
04.187,-188.1
04.203,-214.81
04.218,-240.33
04.234,-264.31
04.250,-285.69
04.265,-302.58
04.281,-312.37
04.296,-312.83
04.312,-303.16
04.328,-284.33
04.343,-258.73
04.359,-228.98
04.375,-197.54
04.390,-166.09
04.406,-135.41
04.421,-105.58
04.437,-76.45
04.453,-48.19
04.468,-21.53
04.484,2.32
04.500,22.23
04.515,37.24
04.531,46.91
04.546,51.55
04.562,52.03
04.578,49.73
04.593,46.17
04.609,42.87
04.625,41.14
04.640,41.99
04.656,45.79
04.671,52.15
04.687,59.99
04.703,67.8
04.718,74.15
04.734,78.13
04.750,79.66
04.765,79.41
04.781,78.58
04.796,78.38
04.812,79.65
04.828,82.56
04.843,86.6
04.859,90.84
04.875,94.2
04.890,95.91
04.906,95.7
04.921,93.84
04.937,90.85
04.953,87.17
04.968,82.74
04.984,76.92
05.000,68.64
05.015,56.83
05.031,40.78
05.046,20.54
05.062,-2.98
05.078,-28.06
05.093,-52.37
05.109,-73.36
05.125,-88.78
05.140,-97.22
05.156,-98.38
05.171,-93.07
05.187,-82.86
05.203,-69.46
05.218,-54.0
05.234,-36.71
05.250,-17.05
05.265,5.85
05.281,32.42
05.296,61.92
05.312,91.88
05.328,118.03
05.343,134.85
05.359,136.79
05.375,119.91
05.390,83.31
05.406,29.7
05.421,-35.32
05.437,-104.94
05.453,-173.03
05.468,-235.38
05.484,-289.7
05.500,-334.97
05.515,-370.5
05.531,-395.58
05.546,-409.73
05.562,-413.04
05.578,-406.41
05.593,-390.99
05.609,-367.84
05.625,-337.49
05.640,-300.46
05.656,-258.0
05.671,-212.56
05.687,-167.74
05.703,-127.43
05.718,-94.74
05.734,-71.07
05.750,-56.0
05.765,-47.58
05.781,-43.17
05.796,-40.21
05.812,-36.75
05.828,-31.76
05.843,-25.09
05.859,-17.34
05.875,-9.39
05.890,-2.1
05.906,4.08
05.921,9.06
05.937,13.1
05.953,16.56
05.968,19.69
05.984,22.78
06.000,26.11
06.015,30.05
06.031,34.79
06.046,40.17
06.062,45.54
06.078,49.9
06.093,52.34
06.109,52.37
06.125,50.22
06.140,46.69
06.156,42.68
06.171,38.72
06.187,34.71
06.203,30.06
06.218,24.18
06.234,16.98
06.250,9.18
06.265,2.11
06.281,-2.64
06.296,-3.86
06.312,-1.14
06.328,5.08
06.343,13.66
06.359,23.27
06.375,32.79
06.390,41.51
06.406,49.18
06.421,55.78
06.437,61.39
06.453,66.03
06.468,69.62
06.484,72.09
06.500,73.37
06.515,73.47
06.531,72.39
06.546,70.16
06.562,66.81
06.578,62.48
06.593,57.55
06.609,52.53
06.625,48.02
06.640,44.47
06.656,42.05
06.671,40.58
06.687,39.63
06.703,38.71
06.718,37.38
06.734,35.42
06.750,32.84
06.765,29.81
06.781,26.62
06.796,23.58
06.812,20.86
06.828,18.49
06.843,16.36
06.859,14.1
06.875,11.35
06.890,7.85
06.906,3.55
06.921,-1.4
06.937,-6.76
06.953,-12.32
06.968,-17.92
06.984,-23.55
07.000,-29.33
07.015,-35.43
07.031,-42.03
07.046,-49.21
07.062,-56.78
07.078,-64.16
07.093,-70.38
07.109,-74.2
07.125,-74.49
07.140,-70.67
07.156,-62.87
07.171,-52.0
07.187,-39.43
07.203,-26.45
07.218,-14.0
07.234,-2.47
07.250,8.13
07.265,18.06
07.281,27.45
07.296,36.33
07.312,44.52
07.328,51.75
07.343,57.72
07.359,62.18
07.375,64.96
07.390,66.16
07.406,66.1
07.421,65.22
07.437,63.99
07.453,62.8
07.468,61.8
07.484,61.07
07.500,60.61
07.515,60.35
07.531,60.21
07.546,60.05
07.562,59.52
07.578,58.28
07.593,56.03
07.609,52.69
07.625,48.42
07.640,43.6
07.656,38.65
07.671,33.92
07.687,29.56
07.703,25.46
07.718,21.39
07.734,17.0
07.750,11.93
07.765,5.95
07.781,-1.01
07.796,-8.73
07.812,-16.78
07.828,-24.64
07.843,-31.86
07.859,-38.22
07.875,-43.85
07.890,-49.24
07.906,-54.97
07.921,-61.56
07.937,-69.07
07.953,-77.0
07.968,-84.25
07.984,-89.35
08.000,-90.85
08.015,-87.76
08.031,-79.95
08.046,-68.05
08.062,-53.4
08.078,-37.5
08.093,-21.63
08.109,-6.57
08.125,7.42
08.140,20.45
08.156,32.69
08.171,44.07
08.187,54.43
08.203,63.42
08.218,70.72
08.234,76.15
08.250,79.67
08.265,81.41
08.281,81.54
08.296,80.31
08.312,78.02
08.328,75.06
08.343,71.83
08.359,68.7
08.375,65.94
08.390,63.56
08.406,61.41
08.421,59.18
08.437,56.52
08.453,53.16
08.468,49.05
08.484,44.33
08.500,39.34
08.515,34.53
08.531,30.27
08.546,26.79
08.562,24.08
08.578,21.82
08.593,19.56
08.609,16.81
08.625,13.22
08.640,8.66
08.656,3.31
08.671,-2.57
08.687,-8.66
08.703,-14.64
08.718,-20.32
08.734,-25.59
08.750,-30.47
08.765,-35.18
08.781,-40.1
08.796,-45.71
08.812,-52.36
08.828,-60.01
08.843,-67.98
08.859,-74.98
08.875,-79.4
08.890,-79.84
08.906,-75.61
08.921,-66.93
08.937,-54.87
08.953,-40.95
08.968,-26.65
08.984,-13.01
09.000,-0.57
09.015,10.62
09.031,20.74
09.046,29.94
09.062,38.3
09.078,45.69
09.093,51.9
09.109,56.7
09.125,59.89
09.140,61.43
09.156,61.4
09.171,60.03
09.187,57.58
09.203,54.43
09.218,50.94
09.234,47.54
09.250,44.61
09.265,42.45
09.281,41.14
09.296,40.48
09.312,40.06
09.328,39.35
09.343,37.9
09.359,35.48
09.375,32.1
09.390,28.04
09.406,23.61
09.421,19.06
09.437,14.47
09.453,9.77
09.468,4.73
09.484,-0.81
09.500,-6.96
09.515,-13.62
09.531,-20.51
09.546,-27.28
09.562,-33.55
09.578,-39.13
09.593,-44.11
09.609,-48.9
09.625,-54.14
09.640,-60.41
09.656,-68.04
09.671,-76.87
09.687,-86.25
09.703,-95.08
09.718,-102.05
09.734,-105.96
09.750,-105.94
09.765,-101.71
09.781,-93.62
09.796,-82.59
09.812,-69.91
09.828,-56.88
09.843,-44.54
09.859,-33.54
09.875,-24.19
09.890,-16.6
09.906,-10.83
09.921,-7.03
09.937,-5.31
09.953,-5.51
09.968,-7.05
09.984,-9.01
10.000,-10.54
10.015,-11.38
10.031,-12.29
10.046,-14.93
10.062,-21.2
10.078,-32.28
10.093,-47.98
10.109,-66.57
10.125,-85.28
10.140,-100.97
10.156,-110.83
10.171,-112.62
10.187,-104.93
10.203,-87.23
10.218,-60.16
10.234,-25.65
10.250,13.3
10.265,53.16
10.281,90.67
10.296,123.17
10.312,148.73
10.328,165.82
10.343,173.35
10.359,170.88
10.375,159.18
10.390,140.51
10.406,118.29
10.421,96.2
10.437,77.01
10.453,61.83
10.468,49.98
10.484,39.67
10.500,28.82
10.515,15.81
10.531,0.07
10.546,-17.64
10.562,-35.33
10.578,-50.21
10.593,-59.41
10.609,-60.78
10.625,-53.35
10.640,-37.29
10.656,-13.69
10.671,15.81
10.687,49.01
10.703,83.26
10.718,115.59
10.734,143.23
10.750,164.3
10.765,178.08
10.781,184.82
10.796,184.85
10.812,178.07
10.828,163.91
10.843,142.18
10.859,113.9
10.875,81.59
10.890,48.44
10.906,16.88
10.921,-12.34
10.937,-40.14
10.953,-67.65
10.968,-94.83
10.984,-119.72
11.000,-139.01
11.015,-149.81
11.031,-151.23
11.046,-144.96
11.062,-134.39
11.078,-123.05
11.093,-113.13
11.109,-105.04
11.125,-97.95
11.140,-90.84
11.156,-83.47
11.171,-76.56
11.187,-71.39
11.203,-69.01
11.218,-69.69
11.234,-72.8
11.250,-77.12
11.265,-81.42
11.281,-84.84
11.296,-87.1
11.312,-88.35
11.328,-88.9
11.343,-89.01
11.359,-88.87
11.375,-88.66
11.390,-88.67
11.406,-89.37
11.421,-91.06
11.437,-93.68
11.453,-96.5
11.468,-98.07
11.484,-96.55
11.500,-90.24
11.515,-78.11
11.531,-60.29
11.546,-38.05
11.562,-13.54
11.578,10.84
11.593,33.08
11.609,51.89
11.625,66.84
11.640,78.07
11.656,86.06
11.671,91.24
11.687,93.99
11.703,94.61
11.718,93.33
11.734,90.48
11.750,86.45
11.765,81.7
11.781,76.76
11.796,72.13
11.812,68.25
11.828,65.4
11.843,63.64
11.859,62.72
11.875,62.22
11.890,61.69
11.906,60.75
11.921,59.16
11.937,56.78
11.953,53.5
11.968,49.22
11.984,43.9
12.000,37.69
12.015,30.95
12.031,24.27
12.046,18.37
12.062,13.82
12.078,10.91
12.093,9.48
12.109,8.95
12.125,8.59
12.140,7.63
12.156,5.63
12.171,2.5
12.187,-1.45
12.203,-5.62
12.218,-9.32
12.234,-11.9
12.250,-12.97
12.265,-12.5
12.281,-10.94
12.296,-9.24
12.312,-8.67
12.328,-10.39
12.343,-14.82
12.359,-21.21
12.375,-27.43
12.390,-30.44
12.406,-27.31
12.421,-16.19
12.437,2.79
12.453,27.59
12.468,54.8
12.484,80.81
12.500,102.78
12.515,119.27
12.531,130.23
12.546,136.58
12.562,139.65
12.578,140.63
12.593,140.22
12.609,138.47
12.625,135.13
12.640,130.0
12.656,123.22
12.671,115.43
12.687,107.41
12.703,99.69
12.718,92.26
12.734,84.82
12.750,77.26
12.765,69.86
12.781,63.06
12.796,56.86
12.812,50.41
12.828,42.12
12.843,30.56
12.859,15.42
12.875,-2.01
12.890,-19.39
12.906,-34.62
12.921,-46.83
12.937,-56.79
12.953,-65.97
12.968,-75.54
12.984,-85.54
13.000,-94.93
13.015,-102.41
13.031,-107.2
13.046,-109.51
13.062,-110.2
13.078,-110.29
13.093,-110.43
13.109,-110.76
13.125,-111.19
13.140,-111.64
13.156,-112.32
13.171,-113.63
13.187,-115.9
13.203,-118.98
13.218,-121.95
13.234,-123.28
13.250,-121.22
13.265,-114.46
13.281,-102.7
13.296,-86.85
13.312,-68.8
13.328,-50.67
13.343,-34.14
13.359,-19.95
13.375,-7.95
13.390,2.53
13.406,12.2
13.421,21.36
13.437,29.83
13.453,37.15
13.468,42.79
13.484,46.5
13.500,48.32
13.515,48.64
13.531,47.95
13.546,46.85
13.562,45.77
13.578,44.97
13.593,44.56
13.609,44.46
13.625,44.56
13.640,44.8
13.656,45.16
13.671,45.57
13.687,45.91
13.703,45.92
13.718,45.28
13.734,43.76
13.750,41.37
13.765,38.31
13.781,34.97
13.796,31.67
13.812,28.54
13.828,25.39
13.843,21.87
13.859,17.61
13.875,12.38
13.890,6.26
13.906,-0.42
13.921,-7.19
13.937,-13.66
13.953,-19.61
13.968,-24.97
13.984,-29.87
14.000,-34.44
14.015,-38.75
14.031,-42.93
14.046,-47.07
14.062,-51.31
14.078,-55.75
14.093,-60.17
14.109,-63.82
14.125,-65.51
14.140,-63.74
14.156,-57.16
14.171,-45.2
14.187,-28.26
14.203,-7.67
14.218,14.8
14.234,37.39
14.250,58.89
14.265,78.68
14.281,96.73
14.296,113.41
14.312,129.4
14.328,145.52
14.343,162.57
14.359,180.95
14.375,200.27
14.390,219.2
14.406,235.58
14.421,247.13
14.437,252.28
14.453,250.6
14.468,242.86
14.484,230.63
14.500,215.69
14.515,199.58
14.531,183.29
14.546,167.19
14.562,151.11
14.578,134.5
14.593,116.64
14.609,96.97
14.625,75.19
14.640,51.33
14.656,25.77
14.671,-0.9
14.687,-27.88
14.703,-54.32
14.718,-79.49
14.734,-102.97
14.750,-124.58
14.765,-144.36
14.781,-162.42
14.796,-178.81
14.812,-193.7
14.828,-207.39
14.843,-220.26
14.859,-232.5
14.875,-243.61
14.890,-252.09
14.906,-255.9
14.921,-253.41
14.937,-244.45
14.953,-230.78
14.968,-215.44
14.984,-201.43
15.000,-190.36
15.015,-181.94
15.031,-174.4
15.046,-165.61
15.062,-154.1
15.078,-139.57
15.093,-122.66
15.109,-104.43
15.125,-85.75
15.140,-67.0
15.156,-48.18
15.171,-29.07
15.187,-9.67
15.203,9.68
15.218,28.28
15.234,45.19
15.250,59.57
15.265,71.01
15.281,79.67
15.296,86.32
15.312,92.06
15.328,97.85
15.343,104.28
15.359,111.36
15.375,118.54
15.390,125.03
15.406,130.11
15.421,133.36
15.437,134.9
15.453,135.49
15.468,136.32
15.484,138.61
15.500,143.01
15.515,149.04
15.531,155.11
15.546,159.04
15.562,158.87
15.578,153.68
15.593,143.67
15.609,129.86
15.625,113.53
15.640,96.0
15.656,78.59
15.671,62.74
15.687,49.78
15.703,40.41
15.718,34.31
15.734,30.12
15.750,25.91
15.765,19.96
15.781,11.24
15.796,-0.68
15.812,-15.89
15.828,-34.48
15.843,-56.52
15.859,-81.79
15.875,-109.55
15.890,-138.31
15.906,-166.1
15.921,-190.57
15.937,-209.49
15.953,-221.21
15.968,-225.19
15.984,-222.35
16.000,-214.86
16.015,-205.22
16.031,-195.13
16.046,-184.63
16.062,-172.37
16.078,-156.68
16.093,-136.86
16.109,-114.0
16.125,-90.54
16.140,-69.15
16.156,-51.48
16.171,-37.76
16.187,-27.04
16.203,-18.1
16.218,-10.05
16.234,-2.47
16.250,4.74
16.265,11.67
16.281,18.44
16.296,25.13
16.312,31.56
16.328,37.53
16.343,42.94
16.359,48.18
16.375,54.17
16.390,61.97
16.406,72.27
16.421,84.83
16.437,98.46
16.453,111.33
16.468,121.64
16.484,128.11
16.500,130.17
16.515,127.96
16.531,122.28
16.546,114.47
16.562,106.13
16.578,98.49
16.593,91.85
16.609,85.22
16.625,76.67
16.640,64.06
16.656,46.07
16.671,22.74
16.687,-4.7
16.703,-34.48
16.718,-64.78
16.734,-93.81
16.750,-119.45
16.765,-139.04
16.781,-149.8
16.796,-149.76
16.812,-138.8
16.828,-118.99
16.843,-93.95
16.859,-67.5
16.875,-42.51
16.890,-20.36
16.906,-1.1
16.921,15.75
16.937,30.83
16.953,44.6
16.968,57.4
16.984,69.57
17.000,81.33
17.015,92.66
17.031,103.11
17.046,111.91
17.062,118.2
17.078,121.35
17.093,121.3
17.109,118.54
17.125,113.99
17.140,108.62
17.156,103.05
17.171,97.32
17.187,90.85
17.203,82.59
17.218,71.32
17.234,56.06
17.250,36.35
17.265,12.54
17.281,-14.09
17.296,-41.44
17.312,-66.9
17.328,-87.79
17.343,-102.09
17.359,-108.99
17.375,-109.05
17.390,-104.13
17.406,-96.67
17.421,-89.01
17.437,-82.76
17.453,-78.51
17.468,-75.9
17.484,-74.02
17.500,-71.85
17.515,-68.69
17.531,-64.4
17.546,-59.42
17.562,-54.58
17.578,-50.8
17.593,-48.73
17.609,-48.53
17.625,-49.84
17.640,-51.86
17.656,-53.58
17.671,-53.97
17.687,-52.14
17.703,-47.48
17.718,-39.85
17.734,-29.63
17.750,-17.68
17.765,-5.2
17.781,6.7
17.796,17.36
17.812,26.61
17.828,34.81
17.843,42.5
17.859,50.19
17.875,58.22
17.890,66.86
17.906,76.34
17.921,87.02
17.937,99.2
17.953,112.83
17.968,127.3
17.984,141.21
18.000,152.6
18.015,159.36
18.031,159.95
18.046,153.87
18.062,141.86
18.078,125.63
18.093,107.21
18.109,88.43
18.125,70.51
18.140,54.13
18.156,39.67
18.171,27.4
18.187,17.39
18.203,9.43
18.218,2.92
18.234,-3.11
18.250,-9.47
18.265,-16.57
18.281,-24.15
18.296,-31.48
18.312,-37.73
18.328,-42.52
18.343,-46.1
18.359,-49.21
18.375,-52.93
18.390,-58.15
18.406,-65.36
18.421,-74.39
18.437,-84.53
18.453,-94.69
18.468,-103.92
18.484,-111.62
18.500,-117.82
18.515,-123.1
18.531,-128.29
18.546,-133.98
18.562,-140.2
18.578,-146.23
18.593,-150.78
18.609,-152.31
18.625,-149.55
18.640,-141.75
18.656,-128.84
18.671,-111.36
18.687,-90.21
18.703,-66.45
18.718,-41.12
18.734,-15.17
18.750,10.49
18.765,34.87
18.781,56.88
18.796,75.37
18.812,89.33
18.828,98.08
18.843,101.26
18.859,98.87
18.875,91.31
18.890,79.37
18.906,64.3
18.921,47.75
18.937,31.65
18.953,17.94
18.968,8.16
18.984,3.19
19.000,3.06
19.015,7.1
19.031,14.11
19.046,22.64
19.062,31.24
19.078,38.61
19.093,43.75
19.109,45.99
19.125,45.08
19.140,41.13
19.156,34.62
19.171,26.27
19.187,16.88
19.203,7.25
19.218,-2.09
19.234,-10.9
19.250,-19.16
19.265,-26.88
19.281,-34.04
19.296,-40.46
19.312,-45.93
19.328,-50.41
19.343,-54.01
19.359,-57.15
19.375,-60.41
19.390,-64.27
19.406,-68.96
19.421,-74.36
19.437,-79.81
19.453,-84.27
19.468,-86.51
19.484,-85.39
19.500,-80.22
19.515,-70.93
19.531,-58.15
19.546,-43.01
19.562,-26.87
19.578,-10.86
19.593,4.1
19.609,17.53
19.625,29.23
19.640,39.13
19.656,47.2
19.671,53.38
19.687,57.58
19.703,59.78
19.718,60.1
19.734,58.83
19.750,56.35
19.765,53.16
19.781,49.72
19.796,46.44
19.812,43.55
19.828,41.17
19.843,39.32
19.859,37.95
19.875,36.93
19.890,36.05
19.906,35.08
19.921,33.78
19.937,31.99
19.953,29.65
19.968,26.79
19.984,23.47
20.000,19.75
20.015,15.6
20.031,10.95
20.046,5.76
20.062,0.01
20.078,-6.16
20.093,-12.56
20.109,-19.0
20.125,-25.3
20.140,-31.48
20.156,-37.71
20.171,-44.15
20.187,-51.04
20.203,-58.46
20.218,-66.21
20.234,-73.7
20.250,-79.99
20.265,-83.86
20.281,-84.14
20.296,-80.09
20.312,-71.62
20.328,-59.49
20.343,-45.03
20.359,-29.77
20.375,-15.09
20.390,-1.83
20.406,9.81
20.421,19.98
20.437,29.01
20.453,37.11
20.468,44.18
20.484,49.91
20.500,54.03
20.515,56.38
20.531,57.07
20.546,56.43
20.562,54.85
20.578,52.67
20.593,50.22
20.609,47.66
20.625,45.17
20.640,42.94
20.656,41.1
20.671,39.63
20.687,38.34
20.703,36.82
20.718,34.6
20.734,31.44
20.750,27.3
20.765,22.47
20.781,17.41
20.796,12.43
20.812,7.61
20.828,2.77
20.843,-2.46
20.859,-8.37
20.875,-14.99
20.890,-22.12
20.906,-29.33
20.921,-36.23
20.937,-42.66
20.953,-48.63
20.968,-54.39
20.984,-60.28
21.000,-66.61
21.015,-73.54
21.031,-80.98
21.046,-88.49
21.062,-95.23
21.078,-100.14
21.093,-102.08
21.109,-100.12
21.125,-93.86
21.140,-83.51
21.156,-69.93
21.171,-54.34
21.187,-38.11
21.203,-22.31
21.218,-7.64
21.234,5.64
21.250,17.52
21.265,28.06
21.281,37.27
21.296,45.0
21.312,51.05
21.328,55.32
21.343,57.84
21.359,58.77
21.375,58.33
21.390,56.76
21.406,54.35
21.421,51.44
21.437,48.46
21.453,45.92
21.468,44.2
21.484,43.47
21.500,43.6
21.515,44.04
21.531,44.18
21.546,43.36
21.562,41.18
21.578,37.58
21.593,32.83
21.609,27.35
21.625,21.58
21.640,15.76
21.656,9.83
21.671,3.68
21.687,-2.81
21.703,-9.61
21.718,-16.46
21.734,-23.06
21.750,-29.17
21.765,-34.68
21.781,-39.76
21.796,-44.76
21.812,-50.07
21.828,-56.11
21.843,-63.14
21.859,-71.11
21.875,-79.65
21.890,-88.02
21.906,-95.12
21.921,-99.81
21.937,-101.05
21.953,-98.24
21.968,-91.35
21.984,-80.92
22.000,-67.89
22.015,-53.38
22.031,-38.46
22.046,-23.9
22.062,-10.19
22.078,2.54
22.093,14.38
22.109,25.41
22.125,35.63
22.140,44.83
22.156,52.58
22.171,58.42
22.187,62.08
22.203,63.6
22.218,63.41
22.234,62.14
22.250,60.43
22.265,58.8
22.281,57.52
22.296,56.66
22.312,56.19
22.328,56.01
22.343,55.97
22.359,55.9
22.375,55.55
22.390,54.62
22.406,52.94
22.421,50.38
22.437,46.93
22.453,42.7
22.468,37.94
22.484,32.9
22.500,27.85
22.515,22.88
22.531,17.85
22.546,12.51
22.562,6.56
22.578,-0.09
22.593,-7.31
22.609,-14.71
22.625,-21.84
22.640,-28.41
22.656,-34.37
22.671,-39.95
22.687,-45.43
22.703,-51.08
22.718,-57.13
22.734,-63.72
22.750,-70.92
22.765,-78.55
22.781,-86.03
22.796,-92.26
22.812,-95.88
22.828,-95.51
22.843,-90.41
22.859,-80.58
22.875,-66.96
22.890,-51.03
22.906,-34.43
22.921,-18.49
22.937,-3.94
22.953,9.01
22.968,20.58
22.984,30.96
23.000,40.3
23.015,48.45
23.031,55.13
23.046,60.0
23.062,62.91
23.078,63.97
23.093,63.56
23.109,62.22
23.125,60.43
23.140,58.62
23.156,57.02
23.171,55.67
23.187,54.57
23.203,53.65
23.218,52.88
23.234,52.15
23.250,51.38
23.265,50.38
23.281,48.93
23.296,46.81
23.312,43.86
23.328,40.13
23.343,35.79
23.359,31.12
23.375,26.44
23.390,21.89
23.406,17.48
23.421,13.12
23.437,8.62
23.453,3.86
23.468,-1.16
23.484,-6.44
23.500,-11.94
23.515,-17.62
23.531,-23.51
23.546,-29.59
23.562,-35.76
23.578,-41.93
23.593,-48.03
23.609,-54.09
23.625,-60.38
23.640,-67.2
23.656,-74.74
23.671,-82.79
23.687,-90.58
23.703,-96.9
23.718,-100.25
23.734,-99.43
23.750,-93.83
23.765,-83.66
23.781,-69.85
23.796,-53.78
23.812,-36.88
23.828,-20.35
23.843,-4.92
23.859,9.03
23.875,21.37
23.890,32.01
23.906,40.78
23.921,47.56
23.937,52.21
23.953,54.83
23.968,55.69
23.984,55.25
24.000,54.02
24.015,52.51
24.031,51.01
24.046,49.7
24.062,48.64
24.078,47.81
24.093,47.19
24.109,46.78
24.125,46.44
24.140,46.0
24.156,45.15
24.171,43.49
24.187,40.79
24.203,36.93
24.218,32.09
24.234,26.59
24.250,20.86
24.265,15.19
24.281,9.79
24.296,4.65
24.312,-0.41
24.328,-5.59
24.343,-11.12
24.359,-17.03
24.375,-23.14
24.390,-29.1
24.406,-34.57
24.421,-39.21
24.437,-43.07
24.453,-46.51
24.468,-50.15
24.484,-54.67
24.500,-60.59
24.515,-67.88
24.531,-76.04
24.546,-84.0
24.562,-90.39
24.578,-93.78
24.593,-93.08
24.609,-87.75
24.625,-77.89
24.640,-64.34
24.656,-48.35
24.671,-31.4
24.687,-14.81
24.703,0.47
24.718,13.98
24.734,25.61
24.750,35.47
24.765,43.69
24.781,50.24
24.796,55.01
24.812,57.82
24.828,58.73
24.843,58.04
24.859,56.35
24.875,54.41
24.890,52.86
24.906,52.08
24.921,52.08
24.937,52.61
24.953,53.35
24.968,53.97
24.984,54.32
25.000,54.22
25.015,53.49
25.031,51.86
25.046,49.01
25.062,44.67
25.078,38.92
25.093,32.14
25.109,24.89
25.125,17.79
25.140,11.25
25.156,5.46
25.171,0.32
25.187,-4.36
25.203,-8.9
25.218,-13.52
25.234,-18.45
25.250,-23.89
25.265,-29.9
25.281,-36.4
25.296,-43.08
25.312,-49.64
25.328,-55.83
25.343,-61.68
25.359,-67.47
25.375,-73.66
25.390,-80.76
25.406,-88.95
25.421,-97.96
25.437,-106.87
25.453,-114.25
25.468,-118.49
25.484,-118.22
25.500,-112.68
25.515,-102.02
25.531,-87.23
25.546,-69.76
25.562,-51.34
25.578,-33.4
25.593,-16.94
25.609,-2.47
25.625,9.86
25.640,20.05
25.656,28.12
25.671,33.96
25.687,37.5
25.703,38.64
25.718,37.47
25.734,34.35
25.750,29.83
25.765,24.55
25.781,19.04
25.796,13.64
25.812,8.52
25.828,3.74
25.843,-0.7
25.859,-4.89
25.875,-9.0
25.890,-13.31
25.906,-18.15
25.921,-23.88
25.937,-30.79
25.953,-39.04
25.968,-48.64
25.984,-59.46
26.000,-71.23
26.015,-83.6
26.031,-96.25
26.046,-108.83
26.062,-121.16
26.078,-133.15
26.093,-144.73
26.109,-155.69
26.125,-165.56
26.140,-173.67
26.156,-179.28
26.171,-181.87
26.187,-181.02
26.203,-176.45
26.218,-167.83
26.234,-154.66
26.250,-136.51
26.265,-113.44
26.281,-86.42
26.296,-57.67
26.312,-30.3
26.328,-7.6
26.343,7.67
26.359,14.05
26.375,11.63
26.390,1.94
26.406,-12.42
26.421,-28.03
26.437,-41.04
26.453,-47.67
26.468,-45.09
26.484,-32.51
26.500,-11.84
26.515,12.51
26.531,34.78
26.546,49.92
26.562,55.33
26.578,51.83
26.593,43.24
26.609,35.06
26.625,32.44
26.640,38.7
26.656,54.48
26.671,77.88
26.687,105.32
26.703,132.73
26.718,156.58
26.734,174.5
26.750,185.62
26.765,190.39
26.781,190.18
26.796,186.6
26.812,180.93
26.828,173.97
26.843,165.85
26.859,156.24
26.875,144.67
26.890,130.89
26.906,115.05
26.921,97.85
26.937,80.24
26.953,63.24
26.968,47.61
26.984,33.81
27.000,21.99
27.015,12.02
27.031,3.52
27.046,-4.08
27.062,-11.57
27.078,-19.77
27.093,-29.39
27.109,-40.8
27.125,-53.85
27.140,-67.77
27.156,-81.22
27.171,-92.39
27.187,-99.38
27.203,-100.59
27.218,-95.23
27.234,-83.51
27.250,-66.56
27.265,-45.97
27.281,-23.32
27.296,0.08
27.312,23.19
27.328,45.02
27.343,64.43
27.359,80.17
27.375,91.29
27.390,97.65
27.406,100.18
27.421,100.75
27.437,101.5
27.453,104.03
27.468,108.86
27.484,115.33
27.500,122.0
27.515,127.32
27.531,130.15
27.546,129.93
27.562,126.65
27.578,120.5
27.593,111.59
27.609,99.89
27.625,85.54
27.640,69.13
27.656,51.85
27.671,35.16
27.687,20.24
27.703,7.54
27.718,-3.45
27.734,-13.7
27.750,-23.92
27.765,-33.91
27.781,-42.42
27.796,-47.71
27.812,-48.73
27.828,-45.76
27.843,-40.5
27.859,-35.47
27.875,-32.9
27.890,-33.9
27.906,-38.28
27.921,-44.93
27.937,-52.55
27.953,-60.14
27.968,-67.26
27.984,-73.71
28.000,-79.34
28.015,-83.67
28.031,-85.86
28.046,-84.93
28.062,-80.03
28.078,-70.82
28.093,-57.67
28.109,-41.68
28.125,-24.43
28.140,-7.61
28.156,7.54
28.171,20.45
28.187,31.27
28.203,40.58
28.218,48.93
28.234,56.59
28.250,63.4
28.265,68.93
28.281,72.8
28.296,74.97
28.312,75.82
28.328,75.91
28.343,75.81
28.359,75.78
28.375,75.79
28.390,75.63
28.406,75.13
28.421,74.28
28.437,73.24
28.453,72.19
28.468,71.13
28.484,69.88
28.500,68.11
28.515,65.47
28.531,61.8
28.546,57.18
28.562,51.91
28.578,46.37
28.593,40.94
28.609,35.82
28.625,30.99
28.640,26.3
28.656,21.58
28.671,16.79
28.687,12.12
28.703,7.96
28.718,4.65
28.734,2.35
28.750,0.91
28.765,-0.04
28.781,-1.02
28.796,-2.52
28.812,-4.85
28.828,-8.1
28.843,-11.95
28.859,-15.73
28.875,-18.42
28.890,-18.87
28.906,-16.01
28.921,-9.25
28.937,1.29
28.953,14.86
28.968,30.14
28.984,45.77
29.000,60.5
29.015,73.48
29.031,84.22
29.046,92.61
29.062,98.75
29.078,103.04
29.093,105.97
29.109,108.01
29.125,109.47
29.140,110.34
29.156,110.48
29.171,109.81
29.187,108.59
29.203,107.47
29.218,107.23
29.234,108.36
29.250,110.72
29.265,113.52
29.281,115.58
29.296,115.76
29.312,113.24
29.328,107.6
29.343,98.63
29.359,86.36
29.375,71.14
29.390,53.9
29.406,36.02
29.421,18.86
29.437,2.94
29.453,-12.63
29.468,-30.0
29.484,-51.61
29.500,-78.59
29.515,-109.89
29.531,-142.21
29.546,-171.19
29.562,-193.16
29.578,-206.44
29.593,-211.77
29.609,-211.59
29.625,-208.8
29.640,-205.48
29.656,-202.41
29.671,-199.17
29.687,-194.8
29.703,-188.4
29.718,-179.43
29.734,-167.81
29.750,-153.65
29.765,-137.19
29.781,-118.75
29.796,-98.83
29.812,-78.2
29.828,-57.81
29.843,-38.6
29.859,-21.2
29.875,-5.74
29.890,8.1
29.906,20.85
29.921,33.01
29.937,44.74
29.953,55.9
29.968,66.21
29.984,75.38
30.000,83.31
30.015,89.99
30.031,95.49
30.046,99.94
30.062,103.52
30.078,106.38
30.093,108.66
30.109,110.38
30.125,111.34
30.140,111.23
30.156,109.62
30.171,106.24
30.187,101.18
30.203,94.81
30.218,87.64
30.234,80.07
30.250,72.17
30.265,63.49
30.281,53.42
30.296,41.31
30.312,26.96
30.328,10.78
30.343,-6.3
30.359,-23.11
30.375,-38.56
30.390,-52.08
30.406,-63.7
30.421,-73.84
30.437,-83.11
30.453,-91.84
30.468,-99.94
30.484,-106.87
30.500,-111.74
30.515,-113.6
30.531,-111.7
30.546,-105.81
30.562,-96.19
30.578,-83.63
30.593,-69.2
30.609,-53.97
30.625,-38.85
30.640,-24.43
30.656,-10.94
30.671,1.47
30.687,12.72
30.703,22.73
30.718,31.33
30.734,38.4
30.750,43.91
30.765,47.83
30.781,50.21
30.796,51.09
30.812,50.53
30.828,48.72
30.843,46.03
30.859,42.95
30.875,40.02
30.890,37.72
30.906,36.24
30.921,35.49
30.937,35.04
30.953,34.34
30.968,32.82
30.984,30.15
31.000,26.24
31.015,21.37
31.031,15.99
31.046,10.63
31.062,5.71
31.078,1.38
31.093,-2.5
31.109,-6.34
31.125,-10.51
31.140,-15.28
31.156,-20.57
31.171,-26.05
31.187,-31.33
31.203,-36.13
31.218,-40.42
31.234,-44.44
31.250,-48.61
31.265,-53.34
31.281,-58.98
31.296,-65.59
31.312,-72.98
31.328,-80.56
31.343,-87.3
31.359,-91.93
31.375,-93.11
31.390,-89.91
31.406,-82.07
31.421,-70.16
31.437,-55.37
31.453,-39.17
31.468,-22.89
31.484,-7.46
31.500,6.68
31.515,19.47
31.531,31.11
31.546,41.9
31.562,52.1
31.578,61.83
31.593,70.94
31.609,79.04
31.625,85.61
31.640,90.1
31.656,92.09
31.671,91.4
31.687,88.08
31.703,82.4
31.718,74.92
31.734,66.45
31.750,57.92
31.765,50.17
31.781,43.67
31.796,38.39
31.812,33.82
31.828,29.22
31.843,23.93
31.859,17.58
31.875,10.15
31.890,1.84
31.906,-7.03
31.921,-16.19
31.937,-25.33
31.953,-34.17
31.968,-42.4
31.984,-49.72
32.000,-55.84
32.015,-60.51
32.031,-63.5
32.046,-64.68
32.062,-64.08
32.078,-61.97
32.093,-58.87
32.109,-55.53
32.125,-52.83
32.140,-51.6
32.156,-52.5
32.171,-55.72
32.187,-60.99
32.203,-67.54
32.218,-74.12
32.234,-79.22
32.250,-81.48
32.265,-79.95
32.281,-74.34
32.296,-65.14
32.312,-53.31
32.328,-40.1
32.343,-26.7
32.359,-13.94
32.375,-2.28
32.390,8.18
32.406,17.59
32.421,26.07
32.437,33.65
32.453,40.27
32.468,45.69
32.484,49.7
32.500,52.11
32.515,52.9
32.531,52.17
32.546,50.17
32.562,47.12
32.578,43.2
32.593,38.61
32.609,33.57
32.625,28.37
32.640,23.38
32.656,18.87
32.671,15.02
32.687,11.84
32.703,9.24
32.718,7.05
32.734,5.21
32.750,3.74
32.765,2.68
32.781,1.99
32.796,1.5
32.812,0.89
32.828,-0.26
32.843,-2.39
32.859,-5.81
32.875,-10.59
32.890,-16.56
32.906,-23.26
32.921,-30.15
32.937,-36.68
32.953,-42.52
32.968,-47.66
32.984,-52.41
33.000,-57.33
33.015,-62.98
33.031,-69.77
33.046,-77.55
33.062,-85.67
33.078,-92.95
33.093,-98.07
33.109,-99.99
33.125,-98.23
33.140,-93.06
33.156,-85.25
33.171,-75.84
33.187,-65.75
33.203,-55.67
33.218,-45.95
33.234,-36.75
33.250,-28.11
33.265,-20.08
33.281,-12.84
33.296,-6.64
33.312,-1.83
33.328,1.3
33.343,2.67
33.359,2.55
33.375,1.52
33.390,0.32
33.406,-0.35
33.421,-0.1
33.437,1.25
33.453,3.64
33.468,6.96
33.484,11.1
33.500,15.9
33.515,21.08
33.531,26.27
33.546,31.11
33.562,35.31
33.578,38.82
33.593,41.64
33.609,43.86
33.625,45.53
33.640,46.66
33.656,47.2
33.671,47.12
33.687,46.37
33.703,44.84
33.718,42.42
33.734,39.0
33.750,34.71
33.765,29.87
33.781,24.92
33.796,20.21
33.812,15.8
33.828,11.3
33.843,5.95
33.859,-1.11
33.875,-10.6
33.890,-22.77
33.906,-37.22
33.921,-52.86
33.937,-67.91
33.953,-80.23
33.968,-87.76
33.984,-89.08
34.000,-83.84
34.015,-72.88
34.031,-57.89
34.046,-40.86
34.062,-23.41
34.078,-6.37
34.093,10.17
34.109,26.53
34.125,42.98
34.140,59.43
34.156,75.29
34.171,89.74
34.187,101.93
34.203,111.33
34.218,117.91
34.234,122.06
34.250,124.42
34.265,125.71
34.281,126.51
34.296,127.24
34.312,128.12
34.328,129.2
34.343,130.31
34.359,131.13
34.375,131.2
34.390,130.14
34.406,127.74
34.421,123.95
34.437,118.79
34.453,112.19
34.468,103.82
34.484,93.38
34.500,80.89
34.515,66.96
34.531,52.89
34.546,40.39
34.562,31.04
34.578,25.78
34.593,24.63
34.609,26.46
34.625,29.4
34.640,31.2
34.656,29.88
34.671,24.19
34.687,13.81
34.703,-0.88
34.718,-19.32
34.734,-41.19
34.750,-66.58
34.765,-95.4
34.781,-126.63
34.796,-157.87
34.812,-185.6
34.828,-206.17
34.843,-217.14
34.859,-217.97
34.875,-209.8
34.890,-194.54
34.906,-173.73
34.921,-148.15
34.937,-118.16
34.953,-84.53
34.968,-49.05
34.984,-14.64
35.000,15.42
35.015,38.44
35.031,53.03
35.046,59.28
35.062,58.5
35.078,52.72
35.093,44.3
35.109,35.68
35.125,29.0
35.140,25.77
35.156,26.56
35.171,30.8
35.187,36.99
35.203,43.22
35.218,47.81
35.234,49.79
35.250,48.98
35.265,45.79
35.281,40.88
35.296,34.85
35.312,28.09
35.328,20.97
35.343,13.88
35.359,7.38
35.375,2.08
35.390,-1.65
35.406,-3.79
35.421,-4.82
35.437,-5.55
35.453,-6.78
35.468,-8.94
35.484,-11.9
35.500,-15.01
35.515,-17.4
35.531,-18.54
35.546,-18.53
35.562,-18.2
35.578,-18.9
35.593,-22.07
35.609,-28.67
35.625,-38.86
35.640,-51.71
35.656,-65.38
35.671,-77.52
35.687,-85.97
35.703,-89.51
35.718,-88.29
35.734,-83.91
35.750,-78.84
35.765,-75.59
35.781,-75.7
35.796,-79.25
35.812,-84.82
35.828,-90.15
35.843,-92.97
35.859,-91.87
35.875,-86.63
35.890,-78.07
35.906,-67.55
35.921,-56.32
35.937,-45.22
35.953,-34.56
35.968,-24.45
35.984,-14.98
36.000,-6.51
36.015,0.51
36.031,5.74
36.046,9.17
36.062,11.21
36.078,12.48
36.093,13.55
36.109,14.79
36.125,16.29
36.140,17.96
36.156,19.74
36.171,21.73
36.187,24.11
36.203,27.08
36.218,30.67
36.234,34.68
36.250,38.72
36.265,42.36
36.281,45.26
36.296,47.23
36.312,48.33
36.328,48.65
36.343,48.33
36.359,47.45
36.375,46.03
36.390,44.04
36.406,41.45
36.421,38.22
36.437,34.34
36.453,29.86
36.468,24.77
36.484,19.14
36.500,13.12
36.515,6.94
36.531,0.85
36.546,-4.89
36.562,-10.17
36.578,-15.0
36.593,-19.58
36.609,-24.19
36.625,-29.1
36.640,-34.51
36.656,-40.5
36.671,-46.92
36.687,-53.36
36.703,-59.12
36.718,-63.24
36.734,-64.81
36.750,-63.13
36.765,-58.0
36.781,-49.83
36.796,-39.53
36.812,-28.17
36.828,-16.7
36.843,-5.7
36.859,4.59
36.875,14.16
36.890,23.0
36.906,31.03
36.921,38.09
36.937,44.0
36.953,48.71
36.968,52.24
36.984,54.68
37.000,56.16
37.015,56.84
37.031,56.95
37.046,56.77
37.062,56.54
37.078,56.43
37.093,56.43
37.109,56.36
37.125,55.94
37.140,54.94
37.156,53.26
37.171,50.9
37.187,47.96
37.203,44.5
37.218,40.59
37.234,36.27
37.250,31.54
37.265,26.51
37.281,21.31
37.296,16.13
37.312,11.17
37.328,6.53
37.343,2.19
37.359,-1.97
37.375,-6.12
37.390,-10.39
37.406,-14.81
37.421,-19.28
37.437,-23.68
37.453,-27.94
37.468,-32.15
37.484,-36.59
37.500,-41.55
37.515,-47.29
37.531,-53.82
37.546,-60.82
37.562,-67.56
37.578,-73.01
37.593,-75.99
37.609,-75.57
37.625,-71.29
37.640,-63.39
37.656,-52.66
37.671,-40.28
37.687,-27.42
37.703,-15.03
37.718,-3.61
37.734,6.65
37.750,15.86
37.765,24.21
37.781,31.78
37.796,38.59
37.812,44.45
37.828,49.17
37.843,52.56
37.859,54.59
37.875,55.41
37.890,55.34
37.906,54.7
37.921,53.74
37.937,52.66
37.953,51.5
37.968,50.38
37.984,49.31
38.000,48.34
38.015,47.42
38.031,46.45
38.046,45.18
38.062,43.34
38.078,40.7
38.093,37.1
38.109,32.68
38.125,27.7
38.140,22.58
38.156,17.74
38.171,13.48
38.187,9.82
38.203,6.57
38.218,3.39
38.234,-0.11
38.250,-4.13
38.265,-8.66
38.281,-13.58
38.296,-18.59
38.312,-23.52
38.328,-28.33
38.343,-33.13
38.359,-38.16
38.375,-43.63
38.390,-49.71
38.406,-56.38
38.421,-63.52
38.437,-70.67
38.453,-77.09
38.468,-81.82
38.484,-83.76
38.500,-82.02
38.515,-76.23
38.531,-66.69
38.546,-54.39
38.562,-40.69
38.578,-26.91
38.593,-14.01
38.609,-2.45
38.625,7.84
38.640,17.04
38.656,25.4
38.671,32.92
38.687,39.49
38.703,44.86
38.718,48.9
38.734,51.58
38.750,53.03
38.765,53.56
38.781,53.47
38.796,53.09
38.812,52.63
38.828,52.24
38.843,51.94
38.859,51.71
38.875,51.46
38.890,51.17
38.906,50.76
38.921,50.15
38.937,49.19
38.953,47.76
38.968,45.67
38.984,42.8
39.000,39.15
39.015,34.77
39.031,29.88
39.046,24.75
39.062,19.6
39.078,14.63
39.093,9.89
39.109,5.23
39.125,0.44
39.140,-4.7
39.156,-10.3
39.171,-16.27
39.187,-22.36
39.203,-28.32
39.218,-33.89
39.234,-38.96
39.250,-43.59
39.265,-47.89
39.281,-52.19
39.296,-56.82
39.312,-62.11
39.328,-68.23
39.343,-75.02
39.359,-81.88
39.375,-87.81
39.390,-91.57
39.406,-92.03
39.421,-88.55
39.437,-81.14
39.453,-70.53
39.468,-57.95
39.484,-44.73
39.500,-31.96
39.515,-20.33
39.531,-9.99
39.546,-0.67
39.562,7.95
39.578,16.09
39.593,23.69
39.609,30.44
39.625,35.96
39.640,40.02
39.656,42.61
39.671,43.95
39.687,44.43
39.703,44.38
39.718,44.11
39.734,43.78
39.750,43.49
39.765,43.27
39.781,43.1
39.796,42.9
39.812,42.54
39.828,41.86
39.843,40.71
39.859,38.95
39.875,36.52
39.890,33.39
39.906,29.66
39.921,25.54
39.937,21.32
39.953,17.29
39.968,13.68
39.984,10.46
40.000,7.48
40.015,4.46
40.031,1.15
40.046,-2.6
40.062,-6.77
40.078,-11.26
40.093,-15.92
40.109,-20.62
40.125,-25.25
40.140,-29.75
40.156,-34.1
40.171,-38.42
40.187,-42.96
40.203,-48.09
40.218,-54.12
40.234,-61.13
40.250,-68.78
40.265,-76.31
40.281,-82.68
40.296,-86.72
40.312,-87.46
40.328,-84.37
40.343,-77.5
40.359,-67.51
40.375,-55.45
40.390,-42.55
40.406,-29.85
40.421,-18.07
40.437,-7.44
40.453,2.14
40.468,10.93
40.484,19.11
40.500,26.56
40.515,32.9
40.531,37.71
40.546,40.74
40.562,42.09
40.578,42.23
40.593,41.83
40.609,41.52
40.625,41.63
40.640,42.21
40.656,43.07
40.671,44.0
40.687,44.87
40.703,45.59
40.718,46.04
40.734,45.93
40.750,44.85
40.765,42.43
40.781,38.46
40.796,33.1
40.812,26.83
40.828,20.31
40.843,14.17
40.859,8.83
40.875,4.42
40.890,0.78
40.906,-2.42
40.921,-5.58
40.937,-9.07
40.953,-13.09
40.968,-17.64
40.984,-22.6
41.000,-27.69
41.015,-32.7
41.031,-37.54
41.046,-42.25
41.062,-47.08
41.078,-52.36
41.093,-58.3
41.109,-64.97
41.125,-72.14
41.140,-79.21
41.156,-85.31
41.171,-89.39
41.187,-90.4
41.203,-87.63
41.218,-80.93
41.234,-70.82
41.250,-58.4
41.265,-45.08
41.281,-32.13
41.296,-20.39
41.312,-10.14
41.328,-1.15
41.343,7.02
41.359,14.73
41.375,22.16
41.390,29.19
41.406,35.54
41.421,40.88
41.437,44.99
41.453,47.83
41.468,49.51
41.484,50.34
41.500,50.66
41.515,50.78
41.531,50.94
41.546,51.21
41.562,51.57
41.578,51.95
41.593,52.22
41.609,52.23
41.625,51.83
41.640,50.8
41.656,48.9
41.671,46.05
41.687,42.24
41.703,37.66
41.718,32.55
41.734,27.16
41.750,21.65
41.765,16.15
41.781,10.74
41.796,5.44
41.812,0.29
41.828,-4.77
41.843,-9.87
41.859,-15.11
41.875,-20.55
41.890,-26.1
41.906,-31.56
41.921,-36.73
41.937,-41.53
41.953,-46.01
41.968,-50.46
41.984,-55.24
42.000,-60.75
42.015,-67.3
42.031,-74.89
42.046,-83.13
42.062,-91.15
42.078,-97.59
42.093,-100.98
42.109,-100.09
42.125,-94.39
42.140,-84.18
42.156,-70.56
42.171,-55.02
42.187,-39.01
42.203,-23.6
42.218,-9.39
42.234,3.43
42.250,14.96
42.265,25.34
42.281,34.7
42.296,43.04
42.312,50.27
42.328,56.25
42.343,60.85
42.359,64.02
42.375,65.89
42.390,66.81
42.406,67.18
42.421,67.38
42.437,67.63
42.453,67.94
42.468,68.2
42.484,68.26
42.500,68.02
42.515,67.46
42.531,66.62
42.546,65.46
42.562,63.88
42.578,61.67
42.593,58.7
42.609,54.89
42.625,50.37
42.640,45.4
42.656,40.32
42.671,35.45
42.687,30.92
42.703,26.79
42.718,22.92
42.734,19.11
42.750,15.07
42.765,10.54
42.781,5.34
42.796,-0.52
42.812,-6.85
42.828,-13.39
42.843,-19.86
42.859,-26.18
42.875,-32.47
42.890,-39.0
42.906,-46.05
42.921,-53.84
42.937,-62.35
42.953,-71.33
42.968,-80.25
42.984,-88.13
43.000,-93.75
43.015,-95.8
43.031,-93.21
43.046,-85.55
43.062,-73.31
43.078,-57.87
43.093,-41.05
43.109,-24.64
43.125,-9.88
43.140,2.73
43.156,13.28
43.171,22.19
43.187,29.93
43.203,36.78
43.218,42.79
43.234,47.93
43.250,52.12
43.265,55.35
43.281,57.63
43.296,59.04
43.312,59.67
43.328,59.63
43.343,59.11
43.359,58.33
43.375,57.52
43.390,56.87
43.406,56.42
43.421,56.07
43.437,55.54
43.453,54.52
43.468,52.72
43.484,49.95
43.500,46.32
43.515,41.98
43.531,37.24
43.546,32.34
43.562,27.48
43.578,22.76
43.593,18.19
43.609,13.73
43.625,9.32
43.640,4.9
43.656,0.34
43.671,-4.46
43.687,-9.57
43.703,-15.04
43.718,-20.74
43.734,-26.5
43.750,-32.11
43.765,-37.35
43.781,-42.16
43.796,-46.72
43.812,-51.38
43.828,-56.65
43.843,-62.98
43.859,-70.43
43.875,-78.61
43.890,-86.57
43.906,-92.88
43.921,-96.03
43.937,-94.91
43.953,-89.09
43.968,-79.02
43.984,-65.92
44.000,-51.29
44.015,-36.59
44.031,-22.82
44.046,-10.43
44.062,0.57
44.078,10.37
44.093,19.2
44.109,27.1
44.125,33.98
44.140,39.65
44.156,44.01
44.171,47.04
44.187,48.88
44.203,49.82
44.218,50.13
44.234,50.08
44.250,49.83
44.265,49.52
44.281,49.22
44.296,49.01
44.312,48.99
44.328,49.13
44.343,49.26
44.359,49.08
44.375,48.23
44.390,46.4
44.406,43.5
44.421,39.73
44.437,35.47
44.453,31.2
44.468,27.31
44.484,23.86
44.500,20.61
44.515,17.1
44.531,12.8
44.546,7.45
44.562,1.14
44.578,-5.78
44.593,-12.77
44.609,-19.38
44.625,-25.33
44.640,-30.69
44.656,-35.69
44.671,-40.7
44.687,-46.15
44.703,-52.29
44.718,-59.25
44.734,-66.77
44.750,-74.15
44.765,-80.29
44.781,-83.82
44.796,-83.47
44.812,-78.49
44.828,-68.95
44.843,-55.79
44.859,-40.55
44.875,-24.9
44.890,-10.15
44.906,2.96
44.921,14.32
44.937,24.17
44.953,32.82
44.968,40.45
44.984,47.03
45.000,52.43
45.015,56.52
45.031,59.18
45.046,60.41
45.062,60.31
45.078,59.14
45.093,57.21
45.109,54.96
45.125,52.74
45.140,50.79
45.156,49.13
45.171,47.69
45.187,46.25
45.203,44.6
45.218,42.61
45.234,40.12
45.250,37.06
45.265,33.33
45.281,28.98
45.296,24.18
45.312,19.19
45.328,14.33
45.343,9.82
45.359,5.78
45.375,2.1
45.390,-1.4
45.406,-5.02
45.421,-9.03
45.437,-13.65
45.453,-18.99
45.468,-24.99
45.484,-31.48
45.500,-38.12
45.515,-44.59
45.531,-50.63
45.546,-56.24
45.562,-61.65
45.578,-67.29
45.593,-73.65
45.609,-80.91
45.625,-88.83
45.640,-96.55
45.656,-102.8
45.671,-106.12
45.687,-105.36
45.703,-99.99
45.718,-90.27
45.734,-77.15
45.750,-61.93
45.765,-45.99
45.781,-30.43
45.796,-15.98
45.812,-2.93
45.828,8.71
45.843,19.09
45.859,28.43
45.875,36.8
45.890,44.18
45.906,50.35
45.921,55.08
45.937,58.24
45.953,59.88
45.968,60.26
45.984,59.8
46.000,58.89
46.015,57.78
46.031,56.64
46.046,55.45
46.062,54.19
46.078,52.87
46.093,51.57
46.109,50.33
46.125,49.11
46.140,47.73
46.156,45.86
46.171,43.21
46.187,39.55
46.203,34.95
46.218,29.68
46.234,24.22
46.250,19.02
46.265,14.29
46.281,9.98
46.296,5.76
46.312,1.19
46.328,-4.01
46.343,-9.88
46.359,-16.22
46.375,-22.6
46.390,-28.63
46.406,-34.13
46.421,-39.12
46.437,-43.9
46.453,-48.83
46.468,-54.33
46.484,-60.66
46.500,-67.86
46.515,-75.71
46.531,-83.59
46.546,-90.54
46.562,-95.3
46.578,-96.66
46.593,-93.7
46.609,-86.21
46.625,-74.69
46.640,-60.39
46.656,-44.79
46.671,-29.3
46.687,-14.96
46.703,-2.18
46.718,9.01
46.734,18.92
46.750,27.84
46.765,35.98
46.781,43.33
46.796,49.74
46.812,54.94
46.828,58.67
46.843,60.82
46.859,61.42
46.875,60.79
46.890,59.4
46.906,57.73
46.921,56.11
46.937,54.69
46.953,53.4
46.968,52.12
46.984,50.84
47.000,49.6
47.015,48.49
47.031,47.5
47.046,46.44
47.062,44.91
47.078,42.52
47.093,39.09
47.109,34.68
47.125,29.76
47.140,24.81
47.156,20.26
47.171,16.17
47.187,12.32
47.203,8.28
47.218,3.65
47.234,-1.69
47.250,-7.59
47.265,-13.62
47.281,-19.36
47.296,-24.56
47.312,-29.24
47.328,-33.66
47.343,-38.23
47.359,-43.32
47.375,-49.17
47.390,-55.92
47.406,-63.52
47.421,-71.73
47.437,-80.04
47.453,-87.53
47.468,-92.97
47.484,-95.07
47.500,-92.81
47.515,-85.77
47.531,-74.46
47.546,-60.06
47.562,-44.25
47.578,-28.62
47.593,-14.21
47.609,-1.41
47.625,9.96
47.640,20.36
47.656,30.13
47.671,39.19
47.687,47.17
47.703,53.49
47.718,57.65
47.734,59.51
47.750,59.28
47.765,57.49
47.781,54.76
47.796,51.69
47.812,48.59
47.828,45.68
47.843,43.03
47.859,40.66
47.875,38.67
47.890,37.11
47.906,35.97
47.921,35.09
47.937,34.13
47.953,32.66
47.968,30.42
47.984,27.34
48.000,23.6
48.015,19.58
48.031,15.58
48.046,11.76
48.062,8.07
48.078,4.3
48.093,0.17
48.109,-4.45
48.125,-9.58
48.140,-15.09
48.156,-20.7
48.171,-26.1
48.187,-31.06
48.203,-35.47
48.218,-39.49
48.234,-43.55
48.250,-48.15
48.265,-53.7
48.281,-60.33
48.296,-67.68
48.312,-74.9
48.328,-80.83
48.343,-84.18
48.359,-83.88
48.375,-79.35
48.390,-70.67
48.406,-58.6
48.421,-44.4
48.437,-29.47
48.453,-15.02
48.468,-1.86
48.484,9.74
48.500,19.89
48.515,28.88
48.531,36.86
48.546,43.81
48.562,49.48
48.578,53.61
48.593,56.09
48.609,57.09
48.625,57.02
48.640,56.41
48.656,55.73
48.671,55.25
48.687,54.97
48.703,54.78
48.718,54.54
48.734,54.2
48.750,53.78
48.765,53.29
48.781,52.62
48.796,51.52
48.812,49.72
48.828,46.95
48.843,43.18
48.859,38.58
48.875,33.51
48.890,28.37
48.906,23.5
48.921,19.06
48.937,14.96
48.953,11.05
48.968,7.07
48.984,2.84
49.000,-1.81
49.015,-6.91
49.031,-12.44
49.046,-18.31
49.062,-24.31
49.078,-30.26
49.093,-35.98
49.109,-41.42
49.125,-46.66
49.140,-51.95
49.156,-57.67
49.171,-64.13
49.187,-71.45
49.203,-79.39
49.218,-87.2
49.234,-93.69
49.250,-97.47
49.265,-97.27
49.281,-92.37
49.296,-82.87
49.312,-69.71
49.328,-54.37
49.343,-38.48
49.359,-23.39
49.375,-9.87
49.390,1.97
49.406,12.46
49.421,22.09
49.437,31.23
49.453,39.9
49.468,47.83
49.484,54.55
49.500,59.63
49.515,62.86
49.531,64.4
49.546,64.58
49.562,63.9
49.578,62.76
49.593,61.41
49.609,59.94
49.625,58.33
49.640,56.52
49.656,54.44
49.671,51.97
49.687,48.95
49.703,45.29
49.718,40.97
49.734,36.16
49.750,31.18
49.765,26.37
49.781,22.0
49.796,18.09
49.812,14.49
49.828,10.92
49.843,7.19
49.859,3.27
49.875,-0.72
49.890,-4.54
49.906,-8.13
49.921,-11.62
49.937,-15.34
49.953,-19.74
49.968,-25.19
49.984,-31.76
50.000,-39.16
50.015,-46.93
50.031,-54.46
50.046,-61.32
50.062,-67.31
50.078,-72.57
50.093,-77.44
50.109,-82.34
50.125,-87.51
50.140,-92.79
50.156,-97.6
50.171,-100.99
50.187,-101.89
50.203,-99.43
50.218,-93.21
50.234,-83.48
50.250,-71.0
50.265,-56.77
50.281,-41.81
50.296,-26.94
50.312,-12.65
50.328,0.83
50.343,13.37
50.359,24.89
50.375,35.26
50.390,44.35
50.406,51.98
50.421,58.04
50.437,62.46
50.453,65.32
50.468,66.88
50.484,67.43
50.500,67.34
50.515,66.91
50.531,66.33
50.546,65.73
50.562,65.12
50.578,64.45
50.593,63.66
50.609,62.67
50.625,61.31
50.640,59.43
50.656,56.89
50.671,53.6
50.687,49.52
50.703,44.73
50.718,39.41
50.734,33.86
50.750,28.38
50.765,23.17
50.781,18.32
50.796,13.7
50.812,9.08
50.828,4.26
50.843,-0.82
50.859,-6.13
50.875,-11.62
50.890,-17.26
50.906,-23.15
50.921,-29.3
50.937,-35.72
50.953,-42.25
50.968,-48.65
50.984,-54.69
51.000,-60.26
51.015,-65.52
51.031,-70.87
51.046,-76.71
51.062,-83.25
51.078,-90.31
51.093,-97.1
51.109,-102.39
51.125,-104.85
51.140,-103.33
51.156,-97.31
51.171,-87.0
51.187,-73.27
51.203,-57.4
51.218,-40.75
51.234,-24.53
51.250,-9.57
51.265,3.66
51.281,15.13
51.296,25.09
51.312,33.83
51.328,41.59
51.343,48.31
51.359,53.76
51.375,57.67
51.390,59.94
51.406,60.75
51.421,60.58
51.437,59.99
51.453,59.48
51.468,59.34
51.484,59.57
51.500,60.04
51.515,60.49
51.531,60.69
51.546,60.4
51.562,59.58
51.578,58.12
51.593,56.04
51.609,53.31
51.625,49.97
51.640,46.09
51.656,41.77
51.671,37.08
51.687,32.16
51.703,27.1
51.718,21.98
51.734,16.9
51.750,11.95
51.765,7.13
51.781,2.38
51.796,-2.44
51.812,-7.48
51.828,-12.85
51.843,-18.46
51.859,-24.13
51.875,-29.65
51.890,-34.85
51.906,-39.86
51.921,-44.97
51.937,-50.51
51.953,-56.76
51.968,-63.74
51.984,-71.12
52.000,-78.24
52.015,-84.13
52.031,-87.64
52.046,-87.78
52.062,-83.94
52.078,-76.12
52.093,-64.97
52.109,-51.64
52.125,-37.42
52.140,-23.42
52.156,-10.35
52.171,1.49
52.187,12.12
52.203,21.72
52.218,30.48
52.234,38.49
52.250,45.77
52.265,52.24
52.281,57.75
52.296,62.17
52.312,65.46
52.328,67.69
52.343,69.0
52.359,69.66
52.375,69.87
52.390,69.8
52.406,69.58
52.421,69.31
52.437,69.03
52.453,68.74
52.468,68.32
52.484,67.64
52.500,66.5
52.515,64.81
52.531,62.5
52.546,59.62
52.562,56.28
52.578,52.63
52.593,48.86
52.609,45.12
52.625,41.46
52.640,37.83
52.656,34.02
52.671,29.78
52.687,24.89
52.703,19.22
52.718,12.78
52.734,5.71
52.750,-1.8
52.765,-9.61
52.781,-17.6
52.796,-25.72
52.812,-33.91
52.828,-42.1
52.843,-50.29
52.859,-58.61
52.875,-67.22
52.890,-76.26
52.906,-85.57
52.921,-94.52
52.937,-101.99
52.953,-106.61
52.968,-107.18
52.984,-103.14
53.000,-94.88
53.015,-83.59
53.031,-70.85
53.046,-58.09
53.062,-46.18
53.078,-35.31
53.093,-25.25
53.109,-15.59
53.125,-6.13
53.140,3.06
53.156,11.69
53.171,19.42
53.187,26.06
53.203,31.6
53.218,36.17
53.234,39.92
53.250,42.98
53.265,45.35
53.281,46.95
53.296,47.75
53.312,47.87
53.328,47.53
53.343,47.05
53.359,46.66
53.375,46.43
53.390,46.19
53.406,45.62
53.421,44.5
53.437,42.7
53.453,40.29
53.468,37.46
53.484,34.39
53.500,31.2
53.515,27.92
53.531,24.57
53.546,21.18
53.562,17.85
53.578,14.63
53.593,11.45
53.609,8.03
53.625,4.05
53.640,-0.73
53.656,-6.31
53.671,-12.4
53.687,-18.51
53.703,-24.17
53.718,-29.16
53.734,-33.51
53.750,-37.57
53.765,-41.78
53.781,-46.53
53.796,-51.95
53.812,-57.83
53.828,-63.53
53.843,-68.06
53.859,-70.23
53.875,-69.0
53.890,-63.79
53.906,-54.84
53.921,-43.14
53.937,-30.18
53.953,-17.51
53.968,-6.19
53.984,3.39
54.000,11.48
54.015,18.69
54.031,25.48
54.046,31.8
54.062,36.97
54.078,39.85
54.093,39.28
54.109,34.57
54.125,25.9
54.140,14.23
54.156,1.15
54.171,-11.68
54.187,-22.89
54.203,-31.69
54.218,-37.86
54.234,-41.56
54.250,-43.14
54.265,-42.98
54.281,-41.55
54.296,-39.31
54.312,-36.8
54.328,-34.5
54.343,-32.82
54.359,-31.95
54.375,-31.84
54.390,-32.21
54.406,-32.66
54.421,-32.87
54.437,-32.66
54.453,-32.21
54.468,-31.95
54.484,-32.38
54.500,-33.86
54.515,-36.44
54.531,-39.84
54.546,-43.55
54.562,-47.1
54.578,-50.3
54.593,-53.34
54.609,-56.78
54.625,-61.23
54.640,-67.12
54.656,-74.45
54.671,-82.68
54.687,-90.68
54.703,-97.05
54.718,-100.34
54.734,-99.46
54.750,-94.03
54.765,-84.5
54.781,-72.12
54.796,-58.58
54.812,-45.61
54.828,-34.41
54.843,-25.58
54.859,-19.0
54.875,-14.04
54.890,-9.99
54.906,-6.19
54.921,-2.4
54.937,1.24
54.953,4.38
54.968,6.75
54.984,8.41
55.000,10.0
55.015,12.59
55.031,17.18
55.046,24.45
55.062,34.35
55.078,46.16
55.093,58.9
55.109,71.73
55.125,84.13
55.140,95.92
55.156,107.02
55.171,117.04
55.187,125.41
55.203,131.39
55.218,134.22
55.234,133.37
55.250,128.62
55.265,120.18
55.281,108.76
55.296,95.72
55.312,82.79
55.328,71.9
55.343,64.51
55.359,61.16
55.375,61.25
55.390,63.17
55.406,64.96
55.421,64.96
55.437,62.19
55.453,56.52
55.468,48.42
55.484,38.46
55.500,27.08
55.515,14.49
55.531,0.81
55.546,-13.44
55.562,-27.17
55.578,-38.76
55.593,-46.53
55.609,-49.21
55.625,-46.48
55.640,-39.02
55.656,-28.15
55.671,-15.52
55.687,-2.6
55.703,9.5
55.718,20.03
55.734,28.54
55.750,34.82
55.765,38.92
55.781,41.12
55.796,42.0
55.812,42.11
55.828,41.93
55.843,41.68
55.859,41.45
55.875,41.3
55.890,41.4
55.906,41.91
55.921,43.05
55.937,44.82
55.953,47.02
55.968,49.33
55.984,51.49
56.000,53.45
56.015,55.45
56.031,57.87
56.046,60.85
56.062,63.93
56.078,65.95
56.093,65.22
56.109,60.16
56.125,50.0
56.140,35.12
56.156,17.09
56.171,-2.0
56.187,-20.19
56.203,-36.09
56.218,-49.11
56.234,-59.14
56.250,-66.43
56.265,-71.42
56.281,-74.86
56.296,-77.75
56.312,-81.15
56.328,-85.83
56.343,-91.93
56.359,-98.85
56.375,-105.42
56.390,-110.38
56.406,-112.75
56.421,-111.97
56.437,-107.84
56.453,-100.36
56.468,-89.6
56.484,-75.73
56.500,-59.22
56.515,-40.86
56.531,-21.73
56.546,-2.95
56.562,14.64
56.578,30.76
56.593,45.55
56.609,59.14
56.625,71.25
56.640,80.94
56.656,86.97
56.671,88.45
56.687,85.44
56.703,79.03
56.718,70.94
56.734,62.7
56.750,55.05
56.765,47.89
56.781,40.67
56.796,33.09
56.812,25.66
56.828,19.81
56.843,17.42
56.859,20.19
56.875,28.94
56.890,43.23
56.906,61.29
56.921,80.36
56.937,97.28
56.953,109.18
56.968,114.18
56.984,111.75
57.000,102.57
57.015,88.24
57.031,70.8
57.046,52.35
57.062,34.81
57.078,19.82
57.093,8.67
57.109,2.18
57.125,0.45
57.140,2.63
57.156,6.89
57.171,10.74
57.187,11.67
57.203,7.9
57.218,-1.19
57.234,-15.15
57.250,-32.93
57.265,-53.18
57.281,-74.51
57.296,-95.05
57.312,-112.25
57.328,-123.23
57.343,-125.6
57.359,-118.78
57.375,-104.78
57.390,-87.82
57.406,-72.78
57.421,-63.25
57.437,-60.07
57.453,-61.41
57.468,-64.1
57.484,-65.42
57.500,-64.53
57.515,-62.45
57.531,-61.16
57.546,-62.3
57.562,-66.5
57.578,-73.49
57.593,-82.75
57.609,-94.06
57.625,-107.27
57.640,-121.7
57.656,-135.46
57.671,-145.4
57.687,-148.16
57.703,-141.55
57.718,-125.62
57.734,-102.77
57.750,-76.85
57.765,-51.48
57.781,-28.98
57.796,-9.98
57.812,6.01
57.828,19.55
57.843,30.71
57.859,38.87
57.875,43.3
57.890,43.57
57.906,39.91
57.921,33.06
57.937,23.9
57.953,13.12
57.968,1.09
57.984,-12.07
58.000,-26.19
58.015,-40.82
58.031,-55.12
58.046,-67.84
58.062,-77.48
58.078,-82.8
58.093,-83.02
58.109,-78.22
58.125,-69.22
58.140,-57.47
58.156,-44.48
58.171,-31.53
58.187,-19.37
58.203,-8.2
58.218,1.96
58.234,11.17
58.250,19.27
58.265,26.01
58.281,31.2
58.296,34.85
58.312,37.24
58.328,38.8
58.343,39.95
58.359,40.96
58.375,41.89
58.390,42.63
58.406,43.06
58.421,43.09
58.437,42.82
58.453,42.47
58.468,42.22
58.484,42.19
58.500,42.23
58.515,42.05
58.531,41.39
58.546,40.08
58.562,38.28
58.578,36.32
58.593,34.56
58.609,33.25
58.625,32.41
58.640,31.77
58.656,30.94
58.671,29.62
58.687,27.73
58.703,25.5
58.718,23.27
58.734,21.33
58.750,19.74
58.765,18.2
58.781,16.13
58.796,12.91
58.812,8.09
58.828,1.66
58.843,-5.81
58.859,-13.29
58.875,-19.45
58.890,-22.99
58.906,-22.93
58.921,-18.84
58.937,-10.94
58.953,-0.02
58.968,12.7
58.984,25.93
59.000,38.54
59.015,49.76
59.031,59.27
59.046,66.98
59.062,73.02
59.078,77.45
59.093,80.26
59.109,81.33
59.125,80.58
59.140,78.11
59.156,74.25
59.171,69.53
59.187,64.53
59.203,59.71
59.218,55.23
59.234,50.87
59.250,46.21
59.265,40.81
59.281,34.54
59.296,27.69
59.312,20.96
59.328,15.1
59.343,10.67
59.359,7.7
59.375,5.55
59.390,3.23
59.406,-0.3
59.421,-5.64
59.437,-12.79
59.453,-21.11
59.468,-29.77
59.484,-38.08
59.500,-45.71
59.515,-52.74
59.531,-59.5
59.546,-66.3
59.562,-73.28
59.578,-80.54
59.593,-88.04
59.609,-95.78
59.625,-103.55
59.640,-110.74
59.656,-116.3
59.671,-118.85
59.687,-117.17
59.703,-110.62
59.718,-99.41
59.734,-84.64
59.750,-67.97
59.765,-51.12
59.781,-35.42
59.796,-21.63
59.812,-9.87
59.828,0.03
59.843,8.38
59.859,15.3
59.875,20.74
59.890,24.49
59.906,26.35
59.921,26.36
59.937,24.78
59.953,22.3
59.968,19.65
59.984,17.56
