timestamp,value
00.000,34.3
00.015,44.79
00.031,53.94
00.046,61.83
00.062,68.54
00.078,74.06
00.093,78.23
00.109,80.8
00.125,81.49
00.140,80.14
00.156,76.85
00.171,72.06
00.187,66.4
00.203,60.56
00.218,55.18
00.234,50.65
00.250,47.14
00.265,44.6
00.281,42.74
00.296,41.13
00.312,39.32
00.328,36.94
00.343,33.77
00.359,29.79
00.375,25.18
00.390,20.2
00.406,15.06
00.421,9.85
00.437,4.51
00.453,-1.07
00.468,-7.05
00.484,-13.49
00.500,-20.29
00.515,-27.29
00.531,-34.21
00.546,-40.78
00.562,-46.89
00.578,-52.64
00.593,-58.4
00.609,-64.64
00.625,-71.78
00.640,-79.9
00.656,-88.65
00.671,-97.09
00.687,-103.86
00.703,-107.53
00.718,-106.84
00.734,-101.21
00.750,-90.78
00.765,-76.46
00.781,-59.68
00.796,-41.99
00.812,-24.79
00.828,-8.94
00.843,5.15
00.859,17.51
00.875,28.4
00.890,38.11
00.906,46.87
00.921,54.8
00.937,61.92
00.953,68.02
00.968,72.85
00.984,76.06
01.000,77.37
01.015,76.67
01.031,74.08
01.046,70.01
01.062,65.04
01.078,59.84
01.093,54.94
01.109,50.74
01.125,47.36
01.140,44.75
01.156,42.75
01.171,41.06
01.187,39.35
01.203,37.33
01.218,34.73
01.234,31.47
01.250,27.59
01.265,23.2
01.281,18.44
01.296,13.46
01.312,8.25
01.328,2.79
01.343,-2.98
01.359,-9.11
01.375,-15.55
01.390,-22.12
01.406,-28.65
01.421,-35.01
01.437,-41.1
01.453,-46.94
01.468,-52.67
01.484,-58.41
01.500,-64.41
01.515,-70.86
01.531,-77.86
01.546,-85.25
01.562,-92.5
01.578,-98.6
01.593,-102.22
01.609,-102.03
01.625,-97.13
01.640,-87.48
01.656,-73.88
01.671,-57.82
01.687,-40.98
01.703,-24.8
01.718,-10.14
01.734,2.68
01.750,13.85
01.765,23.75
01.781,32.73
01.796,41.04
01.812,48.69
01.828,55.59
01.843,61.48
01.859,66.11
01.875,69.19
01.890,70.59
01.906,70.28
01.921,68.4
01.937,65.2
01.953,61.1
01.968,56.58
01.984,52.14
02.000,48.29
02.015,45.21
02.031,42.92
02.046,41.09
02.062,39.29
02.078,37.07
02.093,34.14
02.109,30.43
02.125,26.1
02.140,21.44
02.156,16.69
02.171,12.0
02.187,7.34
02.203,2.54
02.218,-2.62
02.234,-8.3
02.250,-14.5
02.265,-21.1
02.281,-27.83
02.296,-34.41
02.312,-40.67
02.328,-46.59
02.343,-52.32
02.359,-58.15
02.375,-64.4
02.390,-71.34
02.406,-79.01
02.421,-87.16
02.437,-95.03
02.453,-101.55
02.468,-105.41
02.484,-105.4
02.500,-100.74
02.515,-91.44
02.531,-78.21
02.546,-62.31
02.562,-45.24
02.578,-28.23
02.593,-12.14
02.609,2.61
02.625,15.88
02.640,27.69
02.656,38.02
02.671,46.93
02.687,54.56
02.703,61.07
02.718,66.62
02.734,71.28
02.750,74.89
02.765,77.17
02.781,77.81
02.796,76.73
02.812,74.14
02.828,70.47
02.843,66.32
02.859,62.21
02.875,58.56
02.890,55.48
02.906,52.91
02.921,50.61
02.937,48.33
02.953,45.83
02.968,42.95
02.984,39.57
03.000,35.65
03.015,31.24
03.031,26.38
03.046,21.21
03.062,15.9
03.078,10.61
03.093,5.47
03.109,0.41
03.125,-4.75
03.140,-10.24
03.156,-16.24
03.171,-22.76
03.187,-29.6
03.203,-36.41
03.218,-42.93
03.234,-48.97
03.250,-54.66
03.265,-60.28
03.281,-66.22
03.296,-72.78
03.312,-80.11
03.328,-88.11
03.343,-96.31
03.359,-103.91
03.375,-109.78
03.390,-112.62
03.406,-111.28
03.421,-105.09
03.437,-94.15
03.453,-79.4
03.468,-62.32
03.484,-44.49
03.500,-27.23
03.515,-11.3
03.531,3.06
03.546,15.92
03.562,27.49
03.578,37.95
03.593,47.39
03.609,55.88
03.625,63.39
03.640,69.79
03.656,74.91
03.671,78.51
03.687,80.34
03.703,80.29
03.718,78.42
03.734,75.02
03.750,70.55
03.765,65.6
03.781,60.76
03.796,56.55
03.812,53.28
03.828,50.95
03.843,49.44
03.859,48.4
03.875,47.51
03.890,46.46
03.906,45.0
03.921,42.89
03.937,39.98
03.953,36.12
03.968,31.27
03.984,25.54
04.000,19.15
04.015,12.41
04.031,5.55
04.046,-1.24
04.062,-7.91
04.078,-14.5
04.093,-21.07
04.109,-27.66
04.125,-34.21
04.140,-40.64
04.156,-46.8
04.171,-52.67
04.187,-58.27
04.203,-63.77
04.218,-69.46
04.234,-75.7
04.250,-82.77
04.265,-90.57
04.281,-98.53
04.296,-105.48
04.312,-109.93
04.328,-110.42
04.343,-106.04
04.359,-96.69
04.375,-83.14
04.390,-66.85
04.406,-49.35
04.421,-32.07
04.437,-15.91
04.453,-1.28
04.468,11.73
04.484,23.18
04.500,33.23
04.515,42.08
04.531,49.9
04.546,56.87
04.562,62.97
04.578,68.04
04.593,71.78
04.609,73.88
04.625,74.15
04.640,72.74
04.656,70.08
04.671,66.72
04.687,63.22
04.703,59.97
04.718,57.2
04.734,54.97
04.750,53.19
04.765,51.68
04.781,50.16
04.796,48.36
04.812,46.01
04.828,42.95
04.843,39.16
04.859,34.75
04.875,29.85
04.890,24.57
04.906,18.96
04.921,13.07
04.937,6.97
04.953,0.77
04.968,-5.41
04.984,-11.53
05.000,-17.59
05.015,-23.67
05.031,-29.84
05.046,-36.08
05.062,-42.31
05.078,-48.44
05.093,-54.51
05.109,-60.66
05.125,-67.22
05.140,-74.46
05.156,-82.48
05.171,-90.87
05.187,-98.71
05.203,-104.63
05.218,-107.08
05.234,-104.86
05.250,-97.48
05.265,-85.33
05.281,-69.61
05.296,-51.94
05.312,-33.88
05.328,-16.65
05.343,-0.93
05.359,13.05
05.375,25.36
05.390,36.09
05.406,45.4
05.421,53.35
05.437,60.01
05.453,65.46
05.468,69.69
05.484,72.56
05.500,73.88
05.515,73.48
05.531,71.35
05.546,67.74
05.562,63.19
05.578,58.39
05.593,54.05
05.609,50.62
05.625,48.27
05.640,46.88
05.656,46.08
05.671,45.41
05.687,44.45
05.703,42.82
05.718,40.29
05.734,36.79
05.750,32.37
05.765,27.25
05.781,21.69
05.796,15.89
05.812,9.96
05.828,3.87
05.843,-2.53
05.859,-9.37
05.875,-16.66
05.890,-24.3
05.906,-31.96
05.921,-39.35
05.937,-46.22
05.953,-52.48
05.968,-58.2
05.984,-63.61
06.000,-69.05
06.015,-74.91
06.031,-81.52
06.046,-88.87
06.062,-96.49
06.078,-103.31
06.093,-107.81
06.109,-108.43
06.125,-104.09
06.140,-94.58
06.156,-80.61
06.171,-63.65
06.187,-45.43
06.203,-27.48
06.218,-10.83
06.234,4.06
06.250,17.12
06.265,28.55
06.281,38.65
06.296,47.68
06.312,55.86
06.328,63.23
06.343,69.7
06.359,75.02
06.375,78.93
06.390,81.13
06.406,81.39
06.421,79.74
06.437,76.41
06.453,71.86
06.468,66.78
06.484,61.84
06.500,57.65
06.515,54.53
06.531,52.42
06.546,50.9
06.562,49.35
06.578,47.19
06.593,44.0
06.609,39.74
06.625,34.55
06.640,28.79
06.656,22.84
06.671,16.98
06.687,11.34
06.703,5.88
06.718,0.43
06.734,-5.23
06.750,-11.21
06.765,-17.53
06.781,-24.09
06.796,-30.7
06.812,-37.2
06.828,-43.47
06.843,-49.48
06.859,-55.33
06.875,-61.26
06.890,-67.48
06.906,-74.3
06.921,-81.82
06.937,-89.89
06.953,-97.77
06.968,-104.18
06.984,-107.54
07.000,-106.39
07.015,-99.91
07.031,-88.18
07.046,-72.27
07.062,-53.88
07.078,-34.8
07.093,-16.56
07.109,-0.02
07.125,14.44
07.140,26.89
07.156,37.55
07.171,46.76
07.187,54.75
07.203,61.74
07.218,67.85
07.234,73.0
07.250,76.94
07.265,79.33
07.281,79.83
07.296,78.32
07.312,75.0
07.328,70.37
07.343,65.14
07.359,60.06
07.375,55.66
07.390,52.25
07.406,49.82
07.421,48.13
07.437,46.73
07.453,45.12
07.468,42.8
07.484,39.43
07.500,34.92
07.515,29.44
07.531,23.43
07.546,17.31
07.562,11.43
07.578,5.89
07.593,0.49
07.609,-5.1
07.625,-11.19
07.640,-17.89
07.656,-25.09
07.671,-32.46
07.687,-39.68
07.703,-46.45
07.718,-52.69
07.734,-58.53
07.750,-64.3
07.765,-70.44
07.781,-77.41
07.796,-85.38
07.812,-94.03
07.828,-102.47
07.843,-109.19
07.859,-112.53
07.875,-111.09
07.890,-104.17
07.906,-92.03
07.921,-75.85
07.937,-57.29
07.953,-38.05
07.968,-19.55
07.984,-2.65
08.000,12.26
08.015,25.19
08.031,36.39
08.046,46.17
08.062,54.87
08.078,62.73
08.093,69.9
08.109,76.23
08.125,81.46
08.140,85.1
08.156,86.76
08.171,86.22
08.187,83.6
08.203,79.43
08.218,74.47
08.234,69.55
08.250,65.29
08.265,62.04
08.281,59.72
08.296,58.02
08.312,56.56
08.328,54.95
08.343,53.01
08.359,50.59
08.375,47.66
08.390,44.17
08.406,40.14
08.421,35.62
08.437,30.71
08.453,25.54
08.468,20.1
08.484,14.36
08.500,8.23
08.515,1.69
08.531,-5.09
08.546,-11.78
08.562,-18.05
08.578,-23.7
08.593,-28.81
08.609,-33.76
08.625,-39.02
08.640,-44.97
08.656,-51.78
08.671,-59.3
08.687,-67.07
08.703,-74.45
08.718,-80.55
08.734,-84.32
08.750,-84.79
08.765,-81.15
08.781,-73.15
08.796,-61.2
08.812,-46.34
08.828,-30.02
08.843,-13.65
08.859,1.67
08.875,15.4
08.890,27.43
08.906,37.96
08.921,47.25
08.937,55.53
08.953,62.99
08.968,69.76
08.984,75.9
09.000,81.36
09.015,85.94
09.031,89.27
09.046,90.97
09.062,90.79
09.078,88.81
09.093,85.54
09.109,81.74
09.125,78.31
09.140,75.88
09.156,74.71
09.171,74.5
09.187,74.52
09.203,73.9
09.218,71.87
09.234,68.19
09.250,63.02
09.265,56.9
09.281,50.37
09.296,43.68
09.312,36.6
09.328,28.66
09.343,19.46
09.359,8.92
09.375,-2.37
09.390,-13.54
09.406,-23.71
09.421,-32.41
09.437,-39.71
09.453,-46.22
09.468,-52.68
09.484,-59.59
09.500,-67.09
09.515,-74.74
09.531,-81.67
09.546,-86.8
09.562,-89.02
09.578,-87.4
09.593,-81.39
09.609,-71.0
09.625,-56.67
09.640,-39.18
09.656,-19.43
09.671,1.72
09.687,23.42
09.703,44.72
09.718,64.52
09.734,81.68
09.750,95.31
09.765,105.07
09.781,111.33
09.796,115.02
09.812,117.22
09.828,118.66
09.843,119.38
09.859,118.84
09.875,116.21
09.890,110.93
09.906,102.98
09.921,93.0
09.937,82.2
09.953,71.98
09.968,63.61
09.984,57.94
10.000,55.22
10.015,55.09
10.031,56.72
10.046,59.03
10.062,61.03
10.078,61.96
10.093,61.53
10.109,59.82
10.125,57.18
10.140,53.84
10.156,49.58
10.171,43.49
10.187,34.05
10.203,19.71
10.218,-0.33
10.234,-25.3
10.250,-52.62
10.265,-78.53
10.281,-99.36
10.296,-113.04
10.312,-119.89
10.328,-122.36
10.343,-123.83
10.359,-127.11
10.375,-133.4
10.390,-141.97
10.406,-151.03
10.421,-158.83
10.437,-164.55
10.453,-168.45
10.468,-171.38
10.484,-173.98
10.500,-175.82
10.515,-175.27
10.531,-169.91
10.546,-157.72
10.562,-138.08
10.578,-112.45
10.593,-83.88
10.609,-55.79
10.625,-30.73
10.640,-9.71
10.656,7.66
10.671,22.18
10.687,34.13
10.703,42.69
10.718,46.19
10.734,42.8
10.750,31.5
10.765,12.55
10.781,-12.41
10.796,-40.69
10.812,-69.05
10.828,-94.22
10.843,-113.33
10.859,-124.44
10.875,-126.92
10.890,-121.6
10.906,-110.57
10.921,-96.56
10.937,-82.17
10.953,-69.34
10.968,-58.94
10.984,-50.96
11.000,-44.97
11.015,-40.64
11.031,-38.02
11.046,-37.49
11.062,-39.36
11.078,-43.47
11.093,-49.18
11.109,-55.55
11.125,-61.64
11.140,-66.85
11.156,-71.03
11.171,-74.44
11.187,-77.77
11.203,-81.94
11.218,-87.56
11.234,-94.62
11.250,-101.89
11.265,-106.91
11.281,-106.41
11.296,-97.22
11.312,-77.62
11.328,-48.43
11.343,-13.29
11.359,22.14
11.375,52.06
11.390,72.59
11.406,82.99
11.421,85.5
11.437,83.81
11.453,81.15
11.468,78.94
11.484,76.71
11.500,73.17
11.515,67.7
11.531,61.05
11.546,54.97
11.562,50.94
11.578,49.09
11.593,48.02
11.609,45.58
11.625,40.21
11.640,31.78
11.656,21.64
11.671,11.83
11.687,4.05
11.703,-1.2
11.718,-4.69
11.734,-7.9
11.750,-12.25
11.765,-18.33
11.781,-25.79
11.796,-33.62
11.812,-40.8
11.828,-46.8
11.843,-51.86
11.859,-56.75
11.875,-62.31
11.890,-69.02
11.906,-76.77
11.921,-85.0
11.937,-92.92
11.953,-99.74
11.968,-104.8
11.984,-107.49
12.000,-107.3
12.015,-103.86
12.031,-97.13
12.046,-87.45
12.062,-75.59
12.078,-62.48
12.093,-49.02
12.109,-35.87
12.125,-23.33
12.140,-11.53
12.156,-0.54
12.171,9.5
12.187,18.44
12.203,26.17
12.218,32.75
12.234,38.3
12.250,42.85
12.265,46.31
12.281,48.47
12.296,49.12
12.312,48.14
12.328,45.77
12.343,42.41
12.359,38.58
12.375,34.81
12.390,31.48
12.406,28.74
12.421,26.61
12.437,24.91
12.453,23.43
12.468,21.93
12.484,20.2
12.500,18.13
12.515,15.69
12.531,12.95
12.546,10.05
12.562,7.07
12.578,4.11
12.593,1.18
12.609,-1.71
12.625,-4.57
12.640,-7.31
12.656,-9.76
12.671,-11.76
12.687,-13.24
12.703,-14.27
12.718,-15.05
12.734,-15.66
12.750,-15.91
12.765,-15.11
12.781,-12.17
12.796,-5.83
12.812,4.75
12.828,19.65
12.843,37.82
12.859,57.19
12.875,75.29
12.890,89.91
12.906,100.02
12.921,106.05
12.937,109.79
12.953,113.51
12.968,119.09
12.984,127.11
13.000,136.73
13.015,146.1
13.031,153.26
13.046,156.86
13.062,156.49
13.078,152.72
13.093,146.9
13.109,141.36
13.125,139.52
13.140,145.5
13.156,162.82
13.171,192.11
13.187,229.46
13.203,266.15
13.218,290.87
13.234,293.49
13.250,268.76
13.265,217.9
13.281,147.46
13.296,66.49
13.312,-16.47
13.328,-94.52
13.343,-161.84
13.359,-212.43
13.375,-239.99
13.390,-239.68
13.406,-210.95
13.421,-159.49
13.437,-96.61
13.453,-36.18
13.468,10.03
13.484,35.89
13.500,42.08
13.515,34.3
13.531,20.01
13.546,5.17
13.562,-7.42
13.578,-17.66
13.593,-26.78
13.609,-35.77
13.625,-44.58
13.640,-52.46
13.656,-58.66
13.671,-63.22
13.687,-66.85
13.703,-70.44
13.718,-74.28
13.734,-77.8
13.750,-79.8
13.765,-79.18
13.781,-75.65
13.796,-69.86
13.812,-63.09
13.828,-56.5
13.843,-50.56
13.859,-44.81
13.875,-38.22
13.890,-29.7
13.906,-18.69
13.921,-5.47
13.937,8.89
13.953,22.76
13.968,34.38
13.984,42.17
14.000,45.15
14.015,43.04
14.031,36.38
14.046,26.37
14.062,14.73
14.078,3.32
14.093,-6.17
14.109,-12.56
14.125,-15.41
14.140,-15.03
14.156,-12.28
14.171,-8.27
14.187,-4.23
14.203,-1.44
14.218,-1.04
14.234,-3.83
14.250,-9.75
14.265,-17.62
14.281,-25.07
14.296,-29.12
14.312,-27.13
14.328,-17.84
14.343,-1.92
14.359,18.21
14.375,39.13
14.390,57.42
14.406,70.43
14.421,76.75
14.437,76.08
14.453,69.1
14.468,57.1
14.484,41.67
14.500,24.5
14.515,7.03
14.531,-9.68
14.546,-25.07
14.562,-38.91
14.578,-51.16
14.593,-61.75
14.609,-70.54
14.625,-77.47
14.640,-82.67
14.656,-86.61
14.671,-90.03
14.687,-93.68
14.703,-98.14
14.718,-103.64
14.734,-110.02
14.750,-116.85
14.765,-123.63
14.781,-129.84
14.796,-135.1
14.812,-139.05
14.828,-141.41
14.843,-141.93
14.859,-140.53
14.875,-137.29
14.890,-132.5
14.906,-126.68
14.921,-120.35
14.937,-114.1
14.953,-108.32
14.968,-103.19
14.984,-98.57
15.000,-94.15
15.015,-89.51
15.031,-84.36
15.046,-78.73
15.062,-72.78
15.078,-66.77
15.093,-60.82
15.109,-54.9
15.125,-48.8
15.140,-42.4
15.156,-35.81
15.171,-29.33
15.187,-23.42
15.203,-18.3
15.218,-13.79
15.234,-9.4
15.250,-4.48
15.265,1.47
15.281,8.81
15.296,17.83
15.312,28.92
15.328,42.49
15.343,58.76
15.359,77.33
15.375,97.1
15.390,116.38
15.406,133.54
15.421,147.42
15.437,157.69
15.453,164.62
15.468,168.65
15.484,170.07
15.500,168.92
15.515,165.26
15.531,159.47
15.546,152.33
15.562,144.58
15.578,136.72
15.593,128.7
15.609,120.01
15.625,110.16
15.640,98.96
15.656,86.7
15.671,73.93
15.687,61.05
15.703,48.01
15.718,34.32
15.734,19.38
15.750,2.86
15.765,-14.82
15.781,-32.53
15.796,-48.52
15.812,-60.9
15.828,-68.12
15.843,-69.3
15.859,-64.46
15.875,-54.45
15.890,-40.75
15.906,-25.11
15.921,-9.31
15.937,5.04
15.953,16.74
15.968,25.12
15.984,30.21
16.000,32.78
16.015,34.2
16.031,35.96
16.046,39.27
16.062,44.44
16.078,50.8
16.093,56.88
16.109,60.93
16.125,61.6
16.140,58.38
16.156,51.83
16.171,43.3
16.187,34.48
16.203,26.76
16.218,20.87
16.234,16.72
16.250,13.57
16.265,10.48
16.281,6.72
16.296,1.96
16.312,-3.73
16.328,-10.1
16.343,-16.95
16.359,-24.2
16.375,-31.86
16.390,-39.86
16.406,-47.92
16.421,-55.56
16.437,-62.23
16.453,-67.48
16.468,-71.17
16.484,-73.5
16.500,-74.76
16.515,-75.25
16.531,-75.08
16.546,-73.96
16.562,-71.14
16.578,-65.55
16.593,-55.93
16.609,-41.34
16.625,-21.59
16.640,2.52
16.656,29.1
16.671,55.59
16.687,79.35
16.703,98.39
16.718,111.9
16.734,120.54
16.750,126.09
16.765,130.88
16.781,137.16
16.796,146.53
16.812,159.75
16.828,176.88
16.843,197.37
16.859,219.83
16.875,241.61
16.890,258.75
16.906,266.39
16.921,260.42
16.937,239.09
16.953,204.24
16.968,160.71
16.984,114.64
17.000,71.74
17.015,36.48
17.031,12.42
17.046,2.61
17.062,9.05
17.078,30.89
17.093,62.79
17.109,94.99
17.125,115.95
17.140,116.89
17.156,95.24
17.171,55.18
17.187,4.79
17.203,-48.05
17.218,-98.63
17.234,-145.39
17.250,-187.64
17.265,-223.26
17.281,-248.33
17.296,-259.07
17.312,-254.74
17.328,-239.17
17.343,-219.46
17.359,-202.83
17.375,-193.47
17.390,-190.85
17.406,-190.63
17.421,-187.29
17.437,-176.79
17.453,-157.9
17.468,-132.19
17.484,-102.38
17.500,-70.41
17.515,-36.21
17.531,2.14
17.546,46.94
17.562,99.03
17.578,156.11
17.593,212.52
17.609,260.29
17.625,291.57
17.640,301.16
17.656,288.16
17.671,255.94
17.687,210.63
17.703,158.92
17.718,106.23
17.734,55.98
17.750,9.6
17.765,-32.58
17.781,-70.49
17.796,-103.95
17.812,-132.7
17.828,-156.8
17.843,-176.58
17.859,-192.27
17.875,-203.42
17.890,-208.61
17.906,-205.89
17.921,-193.69
17.937,-172.52
17.953,-145.59
17.968,-118.39
17.984,-96.43
18.000,-82.35
18.015,-74.23
18.031,-66.52
18.046,-53.26
18.062,-31.91
18.078,-5.87
18.093,16.29
18.109,24.8
18.125,13.83
18.140,-14.5
18.156,-50.48
18.171,-81.13
18.187,-95.34
18.203,-87.4
18.218,-57.72
18.234,-10.85
18.250,47.04
18.265,109.5
18.281,170.72
18.296,225.22
18.312,266.54
18.328,288.59
18.343,287.91
18.359,265.22
18.375,225.37
18.390,175.61
18.406,122.52
18.421,71.19
18.437,24.22
18.453,-19.59
18.468,-63.85
18.484,-112.12
18.500,-165.42
18.515,-221.15
18.531,-273.18
18.546,-314.29
18.562,-337.37
18.578,-331.37
18.593,-292.12
18.609,-227.19
18.625,-155.26
18.640,-95.75
18.656,-59.47
18.671,-40.21
18.687,-27.03
18.703,-10.62
18.718,13.3
18.734,41.19
18.750,65.16
18.765,77.09
18.781,73.47
18.796,57.2
18.812,36.47
18.828,20.41
18.843,16.45
18.859,27.57
18.875,51.04
18.890,81.12
18.906,112.41
18.921,141.67
18.937,166.96
18.953,185.81
18.968,193.88
18.984,186.91
19.000,162.78
19.015,122.47
19.031,70.86
19.046,15.66
19.062,-34.32
19.078,-71.59
19.093,-91.7
19.109,-94.45
19.125,-82.92
19.140,-62.49
19.156,-39.5
19.171,-18.9
19.187,-2.53
19.203,11.62
19.218,27.7
19.234,48.81
19.250,74.07
19.265,98.3
19.281,114.33
19.296,116.7
19.312,104.89
19.328,83.58
19.343,60.48
19.359,42.3
19.375,31.41
19.390,25.35
19.406,19.14
19.421,8.78
19.437,-6.32
19.453,-23.14
19.468,-37.08
19.484,-44.45
19.500,-44.34
19.515,-38.93
19.531,-31.89
19.546,-26.61
19.562,-24.95
19.578,-27.14
19.593,-32.19
19.609,-38.75
19.625,-45.53
19.640,-51.83
19.656,-57.88
19.671,-63.86
19.687,-69.36
19.703,-73.2
19.718,-74.07
19.734,-71.1
19.750,-64.49
19.765,-55.6
19.781,-46.76
19.796,-41.02
19.812,-40.46
19.828,-45.2
19.843,-53.12
19.859,-60.81
19.875,-64.39
19.890,-60.47
19.906,-47.05
19.921,-21.99
19.937,12.31
19.953,48.73
19.968,77.98
19.984,93.87
20.000,96.39
20.015,91.22
20.031,86.09
20.046,87.15
20.062,96.35
20.078,111.29
20.093,127.57
20.109,141.25
20.125,151.21
20.140,157.64
20.156,161.44
20.171,163.32
20.187,163.33
20.203,160.34
20.218,152.25
20.234,137.13
20.250,114.12
20.265,83.98
20.281,48.83
20.296,11.65
20.312,-24.77
20.328,-55.58
20.343,-77.92
20.359,-91.32
20.375,-97.17
20.390,-97.85
20.406,-95.62
20.421,-92.43
20.437,-89.62
20.453,-88.01
20.468,-87.83
20.484,-88.95
20.500,-90.28
20.515,-89.75
20.531,-85.25
20.546,-75.92
20.562,-63.69
20.578,-53.02
20.593,-48.96
20.609,-54.24
20.625,-67.16
20.640,-81.32
20.656,-88.08
20.671,-80.62
20.687,-57.34
20.703,-22.81
20.718,14.73
20.734,47.23
20.750,70.23
20.765,83.49
20.781,89.42
20.796,90.37
20.812,86.81
20.828,77.51
20.843,61.2
20.859,38.52
20.875,12.63
20.890,-11.9
20.906,-31.15
20.921,-43.9
20.937,-52.34
20.953,-61.33
20.968,-76.43
20.984,-101.5
21.000,-136.62
21.015,-177.38
21.031,-216.02
21.046,-244.13
21.062,-255.85
21.078,-250.22
21.093,-231.04
21.109,-204.81
21.125,-177.36
21.140,-151.46
21.156,-126.6
21.171,-100.91
21.187,-73.66
21.203,-46.74
21.218,-23.74
21.234,-7.83
21.250,0.61
21.265,4.75
21.281,10.06
21.296,21.9
21.312,43.31
21.328,74.09
21.343,111.08
21.359,149.57
21.375,184.57
21.390,212.05
21.406,229.76
21.421,237.38
21.437,236.41
21.453,229.47
21.468,219.52
21.484,208.9
21.500,198.7
21.515,188.71
21.531,178.15
21.546,166.28
21.562,153.01
21.578,138.97
21.593,125.22
21.609,113.01
21.625,103.51
21.640,97.99
21.656,97.71
21.671,103.62
21.687,115.56
21.703,131.49
21.718,147.65
21.734,159.42
21.750,163.05
21.765,157.03
21.781,142.58
21.796,122.65
21.812,100.33
21.828,77.3
21.843,53.19
21.859,26.31
21.875,-5.1
21.890,-41.68
21.906,-82.4
21.921,-124.88
21.937,-166.08
21.953,-203.05
21.968,-233.36
21.984,-255.37
22.000,-268.23
22.015,-272.19
22.031,-268.57
22.046,-259.66
22.062,-248.15
22.078,-236.47
22.093,-226.2
22.109,-217.87
22.125,-211.26
22.140,-205.69
22.156,-200.59
22.171,-195.52
22.187,-190.25
22.203,-184.53
22.218,-178.08
22.234,-170.65
22.250,-162.21
22.265,-152.91
22.281,-143.07
22.296,-132.92
22.312,-122.47
22.328,-111.61
22.343,-100.27
22.359,-88.65
22.375,-77.26
22.390,-66.69
22.406,-57.26
22.421,-48.87
22.437,-41.01
22.453,-32.94
22.468,-24.18
22.484,-14.62
22.500,-4.56
22.515,5.38
22.531,14.52
22.546,22.32
22.562,28.45
22.578,32.75
22.593,35.33
22.609,36.36
22.625,36.11
22.640,34.93
22.656,33.13
22.671,31.02
22.687,28.82
22.703,26.6
22.718,24.28
22.734,21.58
22.750,18.0
22.765,13.08
22.781,6.47
22.796,-1.78
22.812,-11.24
22.828,-21.07
22.843,-30.25
22.859,-37.71
22.875,-42.59
22.890,-44.38
22.906,-42.96
22.921,-38.67
22.937,-32.11
22.953,-23.95
22.968,-14.81
22.984,-5.11
23.000,4.87
23.015,14.94
23.031,24.86
23.046,34.32
23.062,42.97
23.078,50.52
23.093,56.8
23.109,61.76
23.125,65.44
23.140,67.84
23.156,68.98
23.171,68.9
23.187,67.73
23.203,65.64
23.218,62.92
23.234,59.89
23.250,56.83
23.265,53.98
23.281,51.38
23.296,49.03
23.312,46.8
23.328,44.51
23.343,41.98
23.359,39.05
23.375,35.61
23.390,31.64
23.406,27.19
23.421,22.35
23.437,17.26
23.453,12.0
23.468,6.64
23.484,1.17
23.500,-4.5
23.515,-10.5
23.531,-16.96
23.546,-24.02
23.562,-31.77
23.578,-40.19
23.593,-49.1
23.609,-58.08
23.625,-66.4
23.640,-73.16
23.656,-77.35
23.671,-78.13
23.687,-75.01
23.703,-68.11
23.718,-58.01
23.734,-45.75
23.750,-32.56
23.765,-19.56
23.781,-7.53
23.796,3.06
23.812,12.17
23.828,19.97
23.843,26.7
23.859,32.63
23.875,37.94
23.890,42.79
23.906,47.35
23.921,51.75
23.937,56.06
23.953,60.16
23.968,63.8
23.984,66.66
24.000,68.43
24.015,69.01
24.031,68.55
24.046,67.39
24.062,65.92
24.078,64.45
24.093,63.04
24.109,61.59
24.125,59.84
24.140,57.49
24.156,54.25
24.171,50.05
24.187,45.02
24.203,39.48
24.218,33.95
24.234,28.9
24.250,24.48
24.265,20.41
24.281,15.88
24.296,9.88
24.312,1.68
24.328,-8.58
24.343,-20.0
24.359,-31.12
24.375,-40.41
24.390,-47.15
24.406,-51.47
24.421,-54.16
24.437,-55.9
24.453,-56.88
24.468,-56.81
24.484,-55.33
24.500,-52.33
24.515,-47.82
24.531,-41.47
24.546,-32.31
24.562,-19.14
24.578,-1.65
24.593,18.43
24.609,37.06
24.625,49.25
24.640,51.29
24.656,42.71
24.671,26.72
24.687,8.79
24.703,-5.83
24.718,-14.09
24.734,-15.59
24.750,-11.7
24.765,-3.78
24.781,7.77
24.796,23.29
24.812,42.85
24.828,65.5
24.843,88.97
24.859,110.28
24.875,127.16
24.890,138.89
24.906,146.54
24.921,152.49
24.937,159.16
24.953,168.04
24.968,179.0
24.984,190.31
25.000,199.24
25.015,203.07
25.031,199.96
25.046,189.45
25.062,172.26
25.078,149.83
25.093,124.02
25.109,96.83
25.125,70.45
25.140,46.87
25.156,27.39
25.171,11.95
25.187,-1.08
25.203,-14.33
25.218,-30.31
25.234,-50.18
25.250,-73.22
25.265,-97.13
25.281,-118.98
25.296,-136.48
25.312,-148.6
25.328,-155.63
25.343,-158.72
25.359,-159.26
25.375,-158.51
25.390,-157.27
25.406,-155.66
25.421,-153.06
25.437,-148.15
25.453,-139.37
25.468,-125.7
25.484,-107.18
25.500,-85.51
25.515,-63.88
25.531,-46.38
25.546,-36.37
25.562,-35.09
25.578,-40.54
25.593,-47.44
25.609,-49.23
25.625,-41.13
25.640,-23.13
25.656,-1.18
25.671,14.29
25.687,12.56
25.703,-12.68
25.718,-59.57
25.734,-117.66
25.750,-171.0
25.765,-203.36
25.781,-203.46
25.796,-168.56
25.812,-104.73
25.828,-24.45
25.843,57.41
25.859,127.73
25.875,178.0
25.890,204.93
25.906,209.49
25.921,194.93
25.937,165.14
25.953,123.89
25.968,75.05
25.984,23.53
26.000,-24.94
26.015,-64.14
26.031,-89.38
26.046,-98.61
26.062,-93.18
26.078,-77.4
26.093,-56.65
26.109,-35.32
26.125,-15.27
26.140,4.3
26.156,25.91
26.171,51.79
26.187,82.23
26.203,114.85
26.218,145.23
26.234,168.56
26.250,181.6
26.265,184.02
26.281,178.52
26.296,169.75
26.312,162.18
26.328,158.47
26.343,158.49
26.359,159.87
26.375,159.48
26.390,155.12
26.406,146.46
26.421,134.85
26.437,122.27
26.453,110.03
26.468,98.04
26.484,85.29
26.500,70.63
26.515,53.86
26.531,36.02
26.546,18.98
26.562,4.56
26.578,-6.23
26.593,-13.54
26.609,-18.52
26.625,-22.72
26.640,-27.47
26.656,-33.4
26.671,-40.51
26.687,-48.16
26.703,-55.66
26.718,-62.46
26.734,-68.45
26.750,-73.9
26.765,-79.33
26.781,-85.21
26.796,-91.75
26.812,-98.82
26.828,-105.94
26.843,-112.4
26.859,-117.3
26.875,-119.7
26.890,-118.77
26.906,-113.93
26.921,-105.06
26.937,-92.55
26.953,-77.22
26.968,-60.12
26.984,-42.38
27.000,-24.86
27.015,-8.18
27.031,7.28
27.046,21.3
27.062,33.66
27.078,44.15
27.093,52.53
27.109,58.74
27.125,62.73
27.140,64.67
27.156,64.78
27.171,63.33
27.187,60.61
27.203,56.86
27.218,52.36
27.234,47.42
27.250,42.48
27.265,37.98
27.281,34.28
27.296,31.63
27.312,29.98
27.328,29.04
27.343,28.34
27.359,27.39
27.375,25.8
27.390,23.47
27.406,20.46
27.421,16.98
27.437,13.17
27.453,8.98
27.468,4.27
27.484,-1.17
27.500,-7.4
27.515,-14.25
27.531,-21.35
27.546,-28.3
27.562,-34.73
27.578,-40.58
27.593,-46.04
27.609,-51.43
27.625,-57.15
27.640,-63.37
27.656,-69.93
27.671,-76.21
27.687,-81.23
27.703,-83.89
27.718,-83.28
27.734,-79.0
27.750,-71.21
27.765,-60.58
27.781,-48.08
27.796,-34.72
27.812,-21.32
27.828,-8.41
27.843,3.71
27.859,14.86
27.875,24.91
27.890,33.8
27.906,41.47
27.921,47.92
27.937,53.2
27.953,57.27
27.968,60.1
27.984,61.63
28.000,61.78
28.015,60.57
28.031,58.19
28.046,54.94
28.062,51.28
28.078,47.65
28.093,44.32
28.109,41.42
28.125,38.85
28.140,36.38
28.156,33.81
28.171,31.07
28.187,28.19
28.203,25.32
28.218,22.59
28.234,19.94
28.250,17.17
28.265,13.95
28.281,9.95
28.296,4.99
28.312,-0.87
28.328,-7.41
28.343,-14.24
28.359,-20.99
28.375,-27.4
28.390,-33.36
28.406,-38.92
28.421,-44.28
28.437,-49.73
28.453,-55.5
28.468,-61.7
28.484,-68.09
28.500,-74.12
28.515,-78.85
28.531,-81.26
28.546,-80.52
28.562,-76.26
28.578,-68.73
28.593,-58.68
28.609,-47.14
28.625,-35.14
28.640,-23.48
28.656,-12.68
28.671,-3.01
28.687,5.47
28.703,12.79
28.718,19.08
28.734,24.53
28.750,29.33
28.765,33.62
28.781,37.38
28.796,40.41
28.812,42.46
28.828,43.23
28.843,42.64
28.859,40.78
28.875,38.03
28.890,34.86
28.906,31.76
28.921,29.08
28.937,26.99
28.953,25.38
28.968,24.01
28.984,22.61
29.000,20.92
29.015,18.82
29.031,16.28
29.046,13.41
29.062,10.29
29.078,6.96
29.093,3.33
29.109,-0.73
29.125,-5.33
29.140,-10.44
29.156,-15.84
29.171,-21.23
29.187,-26.25
29.203,-30.75
29.218,-34.76
29.234,-38.54
29.250,-42.5
29.265,-47.0
29.281,-52.27
29.296,-58.28
29.312,-64.62
29.328,-70.6
29.343,-75.24
29.359,-77.51
29.375,-76.58
29.390,-72.06
29.406,-64.09
29.421,-53.4
29.437,-41.02
29.453,-28.08
29.468,-15.51
29.484,-3.92
29.500,6.39
29.515,15.4
29.531,23.17
29.546,29.81
29.562,35.42
29.578,40.14
29.593,44.06
29.609,47.26
29.625,49.68
29.640,51.17
29.656,51.52
29.671,50.54
29.687,48.27
29.703,44.98
29.718,41.14
29.734,37.27
29.750,33.76
29.765,30.7
29.781,28.0
29.796,25.43
29.812,22.76
29.828,19.89
29.843,16.83
29.859,13.68
29.875,10.49
29.890,7.25
29.906,3.83
29.921,0.11
29.937,-4.05
29.953,-8.67
29.968,-13.71
29.984,-19.06
30.000,-24.57
30.015,-30.11
30.031,-35.53
30.046,-40.84
30.062,-46.0
30.078,-51.13
30.093,-56.37
30.109,-61.95
30.125,-67.98
30.140,-74.33
30.156,-80.53
30.171,-85.7
30.187,-88.78
30.203,-88.77
30.218,-85.1
30.234,-77.77
30.250,-67.42
30.265,-55.04
30.281,-41.75
30.296,-28.5
30.312,-15.95
30.328,-4.48
30.343,5.75
30.359,14.67
30.375,22.27
30.390,28.66
30.406,34.02
30.421,38.6
30.437,42.57
30.453,45.93
30.468,48.46
30.484,49.82
30.500,49.76
30.515,48.26
30.531,45.71
30.546,42.7
30.562,39.88
30.578,37.71
30.593,36.3
30.609,35.47
30.625,34.89
30.640,34.15
30.656,32.91
30.671,31.01
30.687,28.43
30.703,25.25
30.718,21.65
30.734,17.79
30.750,13.75
30.765,9.56
30.781,5.15
30.796,0.45
30.812,-4.58
30.828,-9.88
30.843,-15.33
30.859,-20.77
30.875,-26.16
30.890,-31.52
30.906,-37.01
30.921,-42.87
30.937,-49.36
30.953,-56.53
30.968,-64.25
30.984,-71.95
31.000,-78.73
31.015,-83.47
31.031,-85.05
31.046,-82.7
31.062,-76.23
31.078,-66.07
31.093,-53.17
31.109,-38.8
31.125,-24.13
31.140,-10.07
31.156,2.79
31.171,14.14
31.187,23.87
31.203,31.91
31.218,38.38
31.234,43.5
31.250,47.49
31.265,50.61
31.281,52.96
31.296,54.45
31.312,54.81
31.328,53.85
31.343,51.49
31.359,48.0
31.375,43.99
31.390,40.12
31.406,36.98
31.421,34.87
31.437,33.71
31.453,33.09
31.468,32.53
31.484,31.56
31.500,29.94
31.515,27.61
31.531,24.65
31.546,21.16
31.562,17.19
31.578,12.76
31.593,7.82
31.609,2.4
31.625,-3.45
31.640,-9.57
31.656,-15.84
31.671,-22.16
31.687,-28.43
31.703,-34.62
31.718,-40.77
31.734,-47.0
31.750,-53.48
31.765,-60.44
31.781,-67.99
31.796,-76.06
31.812,-84.27
31.828,-91.7
31.843,-97.18
31.859,-99.44
31.875,-97.5
31.890,-90.96
31.906,-80.23
31.921,-66.36
31.937,-50.73
31.953,-34.69
31.968,-19.22
31.984,-4.88
32.000,8.11
32.015,19.74
32.031,30.01
32.046,38.92
32.062,46.48
32.078,52.78
32.093,57.93
32.109,61.99
32.125,64.86
32.140,66.31
32.156,66.09
32.171,64.09
32.187,60.51
32.203,55.89
32.218,51.01
32.234,46.58
32.250,43.14
32.265,40.78
32.281,39.28
32.296,38.17
32.312,36.9
32.328,35.02
32.343,32.3
32.359,28.73
32.375,24.48
32.390,19.83
32.406,14.98
32.421,10.01
32.437,4.78
32.453,-0.89
32.468,-7.12
32.484,-13.85
32.500,-20.81
32.515,-27.66
32.531,-34.12
32.546,-40.11
32.562,-45.79
32.578,-51.49
32.593,-57.58
32.609,-64.35
32.625,-71.93
32.640,-80.15
32.656,-88.45
32.671,-95.84
32.687,-101.05
32.703,-102.69
32.718,-99.74
32.734,-91.82
32.750,-79.35
32.765,-63.49
32.781,-45.76
32.796,-27.7
32.812,-10.54
32.828,4.95
32.843,18.43
32.859,29.88
32.875,39.45
32.890,47.43
32.906,54.08
32.921,59.67
32.937,64.33
32.953,68.06
32.968,70.67
32.984,71.91
33.000,71.53
33.015,69.45
33.031,65.76
33.046,60.89
33.062,55.43
33.078,50.06
33.093,45.41
33.109,41.81
33.125,39.3
33.140,37.52
33.156,35.89
33.171,33.8
33.187,30.85
33.203,26.94
33.218,22.26
33.234,17.11
33.250,11.72
33.265,6.15
33.281,0.26
33.296,-6.08
33.312,-12.91
33.328,-20.09
33.343,-27.34
33.359,-34.36
33.375,-40.93
33.390,-47.01
33.406,-52.66
33.421,-58.13
33.437,-63.68
33.453,-69.6
33.468,-76.0
33.484,-82.7
33.500,-89.07
33.515,-94.06
33.531,-96.37
33.546,-94.77
33.562,-88.51
33.578,-77.51
33.593,-62.45
33.609,-44.6
33.625,-25.44
33.640,-6.43
33.656,11.31
33.671,27.08
33.687,40.63
33.703,52.0
33.718,61.49
33.734,69.56
33.750,76.66
33.765,83.16
33.781,89.15
33.796,94.48
33.812,98.78
33.828,101.7
33.843,103.12
33.859,103.26
33.875,102.61
33.890,101.81
33.906,101.4
33.921,101.72
33.937,103.11
33.953,106.11
33.968,111.37
33.984,119.56
34.000,130.64
34.015,143.41
34.031,155.94
34.046,166.05
34.062,172.21
34.078,173.78
34.093,170.41
34.109,161.25
34.125,144.48
34.140,117.89
34.156,80.21
34.171,32.56
34.187,-21.33
34.203,-76.21
34.218,-127.15
34.234,-170.91
34.250,-206.1
34.265,-232.34
34.281,-249.11
34.296,-255.58
34.312,-251.34
34.328,-237.54
34.343,-217.23
34.359,-194.51
34.375,-173.08
34.390,-154.73
34.406,-139.11
34.421,-124.55
34.437,-109.39
34.453,-92.96
34.468,-75.99
34.484,-59.87
34.500,-45.98
34.515,-35.3
34.531,-28.22
34.546,-24.85
34.562,-25.27
34.578,-29.68
34.593,-38.39
34.609,-51.72
34.625,-69.91
34.640,-92.91
34.656,-120.21
34.671,-150.63
34.687,-182.39
34.703,-213.25
34.718,-240.79
34.734,-262.92
34.750,-277.97
34.765,-284.87
34.781,-283.18
34.796,-273.05
34.812,-255.22
34.828,-231.18
34.843,-202.93
34.859,-172.67
34.875,-142.02
34.890,-111.21
34.906,-78.74
34.921,-41.71
34.937,3.06
34.953,57.8
34.968,122.81
34.984,196.28
35.000,274.5
35.015,352.24
35.031,423.19
35.046,480.31
35.062,516.73
35.078,527.06
35.093,509.17
35.109,465.22
35.125,401.48
35.140,326.9
35.156,250.84
35.171,181.11
35.187,122.9
35.203,78.74
35.218,49.06
35.234,32.71
35.250,27.21
35.265,29.07
35.281,34.36
35.296,39.59
35.312,42.83
35.328,44.05
35.343,44.92
35.359,47.76
35.375,54.33
35.390,64.9
35.406,78.02
35.421,91.01
35.437,101.19
35.453,106.99
35.468,108.73
35.484,108.48
35.500,109.12
35.515,113.02
35.531,121.0
35.546,132.17
35.562,144.28
35.578,154.75
35.593,161.46
35.609,163.23
35.625,160.33
35.640,154.72
35.656,150.4
35.671,152.6
35.687,165.78
35.703,190.95
35.718,223.6
35.734,254.21
35.750,271.15
35.765,265.5
35.781,234.79
35.796,183.99
35.812,123.16
35.828,63.07
35.843,11.2
35.859,-29.8
35.875,-61.14
35.890,-85.53
35.906,-105.21
35.921,-121.79
35.937,-137.05
35.953,-154.1
35.968,-177.38
35.984,-211.04
36.000,-256.62
36.015,-311.26
36.031,-367.84
36.046,-416.6
36.062,-448.78
36.078,-459.61
36.093,-449.63
36.109,-424.01
36.125,-389.82
36.140,-353.18
36.156,-317.41
36.171,-282.97
36.187,-248.72
36.203,-213.66
36.218,-178.08
36.234,-143.36
36.250,-111.32
36.265,-83.22
36.281,-59.37
36.296,-39.22
36.312,-21.96
36.328,-6.79
36.343,6.71
36.359,18.64
36.375,29.15
36.390,38.29
36.406,46.09
36.421,52.2
36.437,55.99
36.453,56.78
36.468,54.47
36.484,49.94
36.500,45.03
36.515,42.02
36.531,42.64
36.546,47.29
36.562,54.77
36.578,62.84
36.593,69.1
36.609,71.87
36.625,70.49
36.640,65.17
36.656,56.48
36.671,44.9
36.687,30.73
36.703,14.33
36.718,-3.62
36.734,-21.91
36.750,-38.93
36.765,-52.91
36.781,-62.38
36.796,-66.78
36.812,-66.75
36.828,-64.15
36.843,-61.39
36.859,-60.51
36.875,-62.24
36.890,-65.61
36.906,-68.29
36.921,-67.71
36.937,-62.11
36.953,-51.44
36.968,-37.39
36.984,-22.73
37.000,-10.33
37.015,-2.35
37.031,0.37
37.046,-1.63
37.062,-6.83
37.078,-13.28
37.093,-19.37
37.109,-24.47
37.125,-29.03
37.140,-34.22
37.156,-41.16
37.171,-50.04
37.187,-59.58
37.203,-66.99
37.218,-68.57
37.234,-60.74
37.250,-41.13
37.265,-9.28
37.281,33.07
37.296,82.24
37.312,133.52
37.328,182.2
37.343,224.77
37.359,259.33
37.375,285.35
37.390,303.09
37.406,313.01
37.421,315.37
37.437,309.91
37.453,296.36
37.468,274.64
37.484,245.28
37.500,209.24
37.515,167.61
37.531,121.54
37.546,72.4
37.562,21.84
37.578,-28.35
37.593,-75.59
37.609,-116.58
37.625,-147.45
37.640,-164.9
37.656,-167.53
37.671,-156.66
37.687,-135.59
37.703,-108.37
37.718,-78.66
37.734,-48.3
37.750,-20.74
37.765,-0.24
37.781,9.39
37.796,5.19
37.812,-14.75
37.828,-49.74
37.843,-94.87
37.859,-142.62
37.875,-183.64
37.890,-209.39
37.906,-214.77
37.921,-199.9
37.937,-170.43
37.953,-135.76
37.968,-105.88
37.984,-86.5
38.000,-80.69
38.015,-85.37
38.031,-90.91
38.046,-83.54
38.062,-51.18
38.078,10.47
38.093,94.52
38.109,184.11
38.125,258.39
38.140,300.63
38.156,305.51
38.171,280.67
38.187,242.63
38.203,208.4
38.218,188.07
38.234,181.49
38.250,179.63
38.265,169.68
38.281,141.16
38.296,91.21
38.312,25.23
38.328,-45.46
38.343,-108.08
38.359,-152.98
38.375,-175.39
38.390,-175.67
38.406,-157.59
38.421,-125.51
38.437,-82.94
38.453,-33.54
38.468,16.76
38.484,58.84
38.500,82.33
38.515,80.42
38.531,53.11
38.546,7.82
38.562,-43.63
38.578,-90.57
38.593,-128.18
38.609,-158.89
38.625,-189.61
38.640,-226.67
38.656,-271.17
38.671,-311.09
38.687,-330.54
38.703,-317.56
38.718,-272.23
38.734,-206.13
38.750,-134.18
38.765,-67.26
38.781,-13.36
38.796,30.58
38.812,66.5
38.828,92.63
38.843,104.8
38.859,98.51
38.875,72.12
38.890,28.2
38.906,-25.21
38.921,-77.02
38.937,-115.68
38.953,-134.08
38.968,-131.65
38.984,-114.08
39.000,-91.28
39.015,-73.85
39.031,-69.75
39.046,-82.59
39.062,-111.6
39.078,-151.79
39.093,-195.93
39.109,-235.41
39.125,-261.27
39.140,-265.83
39.156,-244.44
39.171,-197.09
39.187,-129.01
39.203,-49.63
39.218,30.09
39.234,99.72
39.250,151.81
39.265,182.51
39.281,190.99
39.296,178.55
39.312,147.53
39.328,101.27
39.343,44.52
39.359,-16.46
39.375,-74.95
39.390,-124.97
39.406,-162.7
39.421,-187.09
39.437,-199.19
39.453,-200.82
39.468,-193.41
39.484,-177.59
39.500,-153.67
39.515,-122.63
39.531,-86.51
39.546,-48.17
39.562,-10.37
39.578,25.09
39.593,57.68
39.609,87.72
39.625,115.59
39.640,141.1
39.656,163.47
39.671,181.63
39.687,194.95
39.703,203.91
39.718,210.36
39.734,217.01
39.750,226.38
39.765,239.55
39.781,255.12
39.796,269.29
39.812,276.8
39.828,272.79
39.843,255.06
39.859,225.61
39.875,190.66
39.890,159.11
39.906,139.73
39.921,138.05
39.937,154.22
39.953,182.88
39.968,214.85
39.984,240.76
40.000,254.62
40.015,255.89
40.031,249.08
40.046,240.88
40.062,236.72
40.078,238.6
40.093,245.23
40.109,254.09
40.125,263.61
40.140,273.78
40.156,285.14
40.171,297.05
40.187,307.01
40.203,311.8
40.218,309.63
40.234,301.64
40.250,291.42
40.265,282.66
40.281,276.7
40.296,271.33
40.312,262.14
40.328,244.95
40.343,217.82
40.359,181.86
40.375,139.77
40.390,93.91
40.406,45.02
40.421,-7.27
40.437,-62.5
40.453,-116.79
40.468,-161.98
40.484,-187.15
40.500,-182.8
40.515,-145.79
40.531,-82.34
40.546,-7.27
40.562,60.78
40.578,106.21
40.593,121.96
40.609,110.94
40.625,83.07
40.640,49.78
40.656,19.07
40.671,-6.5
40.687,-28.57
40.703,-49.81
40.718,-71.34
40.734,-91.92
40.750,-109.01
40.765,-120.93
40.781,-127.8
40.796,-131.89
40.812,-136.32
40.828,-143.79
40.843,-155.8
40.859,-172.73
40.875,-194.74
40.890,-222.44
40.906,-256.65
40.921,-297.11
40.937,-341.02
40.953,-382.3
40.968,-412.59
40.984,-423.96
41.000,-412.25
41.015,-379.53
41.031,-333.95
41.046,-287.01
41.062,-249.43
41.078,-227.6
41.093,-221.97
41.109,-228.01
41.125,-238.67
41.140,-246.97
41.156,-247.81
41.171,-238.15
41.187,-216.7
41.203,-183.36
41.218,-139.39
41.234,-87.78
41.250,-33.51
41.265,16.99
41.281,57.25
41.296,82.52
41.312,91.05
41.328,84.34
41.343,66.76
41.359,44.21
41.375,23.32
41.390,9.99
41.406,8.95
41.421,23.17
41.437,53.14
41.453,95.36
41.468,141.7
41.484,180.64
41.500,200.19
41.515,191.77
41.531,152.75
41.546,87.08
41.562,3.31
41.578,-88.68
41.593,-180.48
41.609,-266.02
41.625,-340.56
41.640,-399.44
41.656,-438.09
41.671,-454.04
41.687,-449.8
41.703,-434.1
41.718,-420.03
41.734,-419.81
41.750,-439.11
41.765,-474.01
41.781,-512.28
41.796,-538.19
41.812,-538.51
41.828,-507.0
41.843,-445.02
41.859,-358.97
41.875,-256.34
41.890,-143.97
41.906,-29.32
41.921,78.03
41.937,167.17
41.953,229.0
41.968,260.35
41.984,266.3
42.000,258.69
42.015,251.31
42.031,254.44
42.046,270.15
42.062,293.35
42.078,315.67
42.093,329.88
42.109,332.82
42.125,325.21
42.140,310.64
42.156,293.84
42.171,280.07
42.187,272.25
42.203,270.47
42.218,272.45
42.234,274.79
42.250,274.82
42.265,271.44
42.281,265.99
42.296,261.29
42.312,260.37
42.328,262.44
42.343,262.14
42.359,251.65
42.375,224.58
42.390,179.21
42.406,118.67
42.421,50.47
42.437,-20.7
42.453,-85.0
42.468,-132.54
42.484,-159.03
42.500,-169.56
42.515,-174.03
42.531,-178.54
42.546,-184.74
42.562,-191.1
42.578,-194.57
42.593,-190.82
42.609,-176.73
42.625,-151.4
42.640,-116.28
42.656,-74.63
42.671,-30.38
42.687,12.02
42.703,49.21
42.718,79.78
42.734,104.55
42.750,124.09
42.765,137.77
42.781,144.11
42.796,142.28
42.812,132.97
42.828,117.99
42.843,99.97
42.859,81.6
42.875,65.2
42.890,51.47
42.906,39.59
42.921,28.1
42.937,16.34
42.953,4.94
42.968,-4.87
42.984,-11.72
43.000,-14.78
43.015,-14.15
43.031,-11.14
43.046,-7.86
43.062,-6.22
43.078,-6.9
43.093,-9.26
43.109,-11.88
43.125,-13.24
43.140,-12.4
43.156,-9.37
43.171,-5.11
43.187,-1.06
43.203,1.52
43.218,2.2
43.234,1.47
43.250,0.29
43.265,-0.23
43.281,0.74
43.296,3.46
43.312,7.61
43.328,12.48
43.343,17.08
43.359,20.61
43.375,22.76
43.390,23.88
43.406,25.12
43.421,28.0
43.437,33.89
43.453,43.43
43.468,56.19
43.484,70.56
43.500,84.13
43.515,94.36
43.531,99.17
43.546,97.58
43.562,89.94
43.578,77.85
43.593,63.69
43.609,49.98
43.625,38.65
43.640,30.74
43.656,26.23
43.671,24.34
43.687,24.01
43.703,24.23
43.718,24.3
43.734,23.8
43.750,22.44
43.765,19.83
43.781,15.51
43.796,9.05
43.812,0.16
43.828,-11.03
43.843,-24.05
43.859,-38.25
43.875,-52.96
43.890,-67.67
43.906,-82.05
43.921,-95.67
43.937,-107.84
43.953,-117.6
43.968,-123.71
43.984,-125.0
44.000,-120.66
44.015,-110.32
44.031,-94.15
44.046,-72.96
44.062,-48.18
44.078,-21.89
44.093,3.21
44.109,24.36
44.125,39.2
44.140,46.41
44.156,46.04
44.171,39.38
44.187,28.58
44.203,15.97
44.218,3.66
44.234,-6.86
44.250,-14.61
44.265,-19.2
44.281,-20.63
44.296,-19.27
44.312,-15.76
44.328,-10.95
44.343,-5.75
44.359,-0.99
44.375,2.64
44.390,4.78
44.406,5.21
44.421,3.96
44.437,1.19
44.453,-2.86
44.468,-7.89
44.484,-13.61
44.500,-19.61
44.515,-25.4
44.531,-30.16
44.546,-32.97
44.562,-32.91
44.578,-29.45
44.593,-22.72
44.609,-13.65
44.625,-3.81
44.640,4.98
44.656,11.25
44.671,14.27
44.687,14.15
44.703,11.7
44.718,8.04
44.734,4.24
44.750,1.04
44.765,-1.25
44.781,-2.75
44.796,-3.87
44.812,-5.2
44.828,-7.28
44.843,-10.43
44.859,-14.54
44.875,-19.1
44.890,-23.35
44.906,-26.43
44.921,-27.82
44.937,-27.45
44.953,-25.84
44.968,-24.01
44.984,-23.19
45.000,-24.42
45.015,-28.14
45.031,-33.87
45.046,-40.06
45.062,-44.5
45.078,-45.02
45.093,-40.18
45.109,-29.88
45.125,-15.42
45.140,1.05
45.156,17.22
45.171,31.41
45.187,42.76
45.203,51.08
45.218,56.46
45.234,59.03
45.250,58.83
45.265,56.06
45.281,51.28
45.296,45.38
45.312,39.35
45.328,33.86
45.343,29.04
45.359,24.38
45.375,19.09
45.390,12.44
45.406,4.07
45.421,-5.79
45.437,-16.49
45.453,-27.22
45.468,-37.27
45.484,-46.3
45.500,-54.29
45.515,-61.41
45.531,-67.78
45.546,-73.24
45.562,-77.2
45.578,-78.73
45.593,-76.77
45.609,-70.31
45.625,-58.71
45.640,-41.88
45.656,-20.51
45.671,3.93
45.687,29.15
45.703,52.51
45.718,71.42
45.734,83.91
45.750,89.02
45.765,86.82
45.781,78.21
45.796,64.57
45.812,47.46
45.828,28.38
45.843,8.83
45.859,-9.82
45.875,-26.36
45.890,-39.83
45.906,-49.58
45.921,-55.23
45.937,-56.55
45.953,-53.44
45.968,-46.01
45.984,-34.64
46.000,-20.15
46.015,-3.68
46.031,13.46
46.046,30.05
46.062,45.21
46.078,58.52
46.093,70.07
46.109,80.3
46.125,89.88
46.140,99.44
46.156,109.4
46.171,119.98
46.187,131.22
46.203,143.06
46.218,155.39
46.234,168.0
46.250,180.38
46.265,191.78
46.281,201.46
46.296,209.07
46.312,214.94
46.328,219.89
46.343,224.74
46.359,229.75
46.375,234.26
46.390,236.94
46.406,236.53
46.421,232.44
46.437,225.03
46.453,215.2
46.468,203.79
46.484,190.88
46.500,175.73
46.515,157.32
46.531,134.95
46.546,108.86
46.562,80.29
46.578,51.06
46.593,23.02
46.609,-2.29
46.625,-23.76
46.640,-40.48
46.656,-51.67
46.671,-56.7
46.687,-55.42
46.703,-48.5
46.718,-37.62
46.734,-25.09
46.750,-13.42
46.765,-4.61
46.781,0.15
46.796,0.72
46.812,-2.31
46.828,-7.8
46.843,-14.47
46.859,-21.16
46.875,-26.97
46.890,-31.46
46.906,-34.62
46.921,-36.78
46.937,-38.31
46.953,-39.42
46.968,-40.05
46.984,-39.99
47.000,-39.08
47.015,-37.38
47.031,-35.08
47.046,-32.45
47.062,-29.61
47.078,-26.56
47.093,-23.34
47.109,-20.2
47.125,-17.71
47.140,-16.53
47.156,-17.18
47.171,-19.7
47.187,-23.6
47.203,-28.15
47.218,-32.75
47.234,-37.25
47.250,-42.07
47.265,-47.84
47.281,-55.03
47.296,-63.55
47.312,-72.7
47.328,-81.39
47.343,-88.54
47.359,-93.4
47.375,-95.67
47.390,-95.42
47.406,-92.94
47.421,-88.69
47.437,-83.31
47.453,-77.68
47.468,-72.86
47.484,-69.86
47.500,-69.35
47.515,-71.54
47.531,-76.07
47.546,-82.31
47.562,-89.53
47.578,-96.99
47.593,-103.97
47.609,-109.68
47.625,-113.31
47.640,-114.15
47.656,-111.98
47.671,-107.22
47.687,-100.87
47.703,-94.29
47.718,-88.71
47.734,-84.88
47.750,-82.87
47.765,-82.23
47.781,-82.19
47.796,-81.93
47.812,-80.78
47.828,-78.25
47.843,-74.11
47.859,-68.35
47.875,-61.22
47.890,-53.05
47.906,-44.19
47.921,-34.9
47.937,-25.31
47.953,-15.47
47.968,-5.51
47.984,4.23
48.000,13.34
48.015,21.5
48.031,28.75
48.046,35.61
48.062,42.97
48.078,51.79
48.093,62.72
48.109,75.8
48.125,90.32
48.140,105.13
48.156,118.94
48.171,130.79
48.187,140.39
48.203,148.18
48.218,155.19
48.234,162.79
48.250,172.16
48.265,183.77
48.281,197.07
48.296,210.48
48.312,221.7
48.328,228.58
48.343,229.89
48.359,225.85
48.375,217.99
48.390,208.57
48.406,199.54
48.421,191.8
48.437,184.93
48.453,177.6
48.468,168.17
48.484,155.39
48.500,138.62
48.515,117.7
48.531,92.75
48.546,64.06
48.562,32.26
48.578,-1.42
48.593,-34.96
48.609,-65.72
48.625,-91.05
48.640,-109.01
48.656,-119.0
48.671,-122.02
48.687,-120.31
48.703,-116.65
48.718,-113.6
48.734,-112.73
48.750,-114.44
48.765,-118.11
48.781,-122.44
48.796,-125.87
48.812,-126.94
48.828,-124.53
48.843,-118.1
48.859,-107.9
48.875,-95.06
48.890,-81.66
48.906,-70.29
48.921,-63.52
48.937,-63.05
48.953,-69.18
48.968,-80.62
48.984,-95.0
49.000,-109.68
49.015,-122.7
49.031,-133.4
49.046,-142.44
49.062,-151.23
49.078,-161.12
49.093,-172.57
49.109,-184.95
49.125,-196.66
49.140,-205.76
49.156,-210.57
49.171,-210.05
49.187,-203.92
49.203,-192.59
49.218,-176.96
49.234,-158.28
49.250,-138.02
49.265,-117.72
49.281,-98.87
49.296,-82.54
49.312,-69.21
49.328,-58.67
49.343,-50.24
49.359,-43.07
49.375,-36.56
49.390,-30.52
49.406,-25.18
49.421,-20.9
49.437,-17.94
49.453,-16.18
49.468,-15.17
49.484,-14.24
49.500,-12.8
49.515,-10.5
49.531,-7.3
49.546,-3.47
49.562,0.57
49.578,4.31
49.593,7.27
49.609,9.07
49.625,9.68
49.640,9.34
49.656,8.48
49.671,7.57
49.687,6.8
49.703,6.03
49.718,4.79
49.734,2.53
49.750,-1.17
49.765,-6.44
49.781,-13.08
49.796,-20.72
49.812,-28.81
49.828,-36.74
49.843,-43.72
49.859,-48.88
49.875,-51.38
49.890,-50.66
49.906,-46.8
49.921,-40.57
49.937,-33.28
49.953,-26.42
49.968,-21.23
49.984,-18.44
50.000,-18.28
50.015,-20.62
50.031,-25.14
50.046,-31.44
50.062,-38.92
50.078,-46.84
50.093,-54.27
50.109,-60.32
50.125,-64.38
50.140,-66.32
50.156,-66.46
50.171,-65.48
50.187,-64.15
50.203,-62.92
50.218,-61.84
50.234,-60.42
50.250,-57.78
50.265,-52.91
50.281,-45.03
50.296,-33.65
50.312,-18.85
50.328,-1.23
50.343,18.14
50.359,37.87
50.375,56.53
50.390,73.01
50.406,86.89
50.421,98.59
50.437,109.21
50.453,120.09
50.468,132.14
50.484,145.52
50.500,159.58
50.515,173.24
50.531,185.42
50.546,195.49
50.562,203.31
50.578,209.16
50.593,213.55
50.609,216.97
50.625,220.0
50.640,223.04
50.656,226.34
50.671,229.86
50.687,233.31
50.703,236.34
50.718,238.71
50.734,240.54
50.750,242.34
50.765,244.93
50.781,249.05
50.796,255.23
50.812,263.43
50.828,273.06
50.843,282.84
50.859,291.0
50.875,295.47
50.890,294.3
50.906,286.22
50.921,270.95
50.937,249.4
50.953,223.4
50.968,195.22
50.984,166.94
51.000,140.08
51.015,115.55
51.031,93.59
51.046,74.21
51.062,57.21
51.078,42.37
51.093,29.4
51.109,17.97
51.125,7.73
51.140,-1.6
51.156,-10.19
51.171,-18.23
51.187,-25.88
51.203,-33.4
51.218,-41.14
51.234,-49.47
51.250,-58.56
51.265,-68.34
51.281,-78.5
51.296,-88.5
51.312,-97.9
51.328,-106.4
51.343,-114.08
51.359,-121.27
51.375,-128.41
51.390,-135.82
51.406,-143.53
51.421,-151.37
51.437,-159.0
51.453,-166.23
51.468,-173.08
51.484,-179.85
51.500,-187.13
51.515,-195.66
51.531,-206.15
51.546,-219.09
51.562,-234.47
51.578,-251.38
51.593,-268.05
51.609,-282.1
51.625,-291.16
51.640,-293.79
51.656,-289.95
51.671,-280.94
51.687,-268.91
51.703,-255.91
51.718,-243.2
51.734,-231.19
51.750,-219.61
51.765,-208.06
51.781,-196.45
51.796,-184.97
51.812,-173.93
51.828,-163.59
51.843,-153.96
51.859,-144.85
51.875,-136.05
51.890,-127.35
51.906,-118.63
51.921,-110.03
51.937,-101.76
51.953,-94.16
51.968,-87.63
51.984,-82.38
52.000,-78.38
52.015,-75.33
52.031,-72.79
52.046,-70.4
52.062,-68.07
52.078,-65.93
52.093,-64.29
52.109,-63.47
52.125,-63.59
52.140,-64.51
52.156,-65.94
52.171,-67.47
52.187,-68.73
52.203,-69.52
52.218,-69.76
52.234,-69.59
52.250,-69.21
52.265,-68.73
52.281,-68.07
52.296,-67.06
52.312,-65.43
52.328,-63.04
52.343,-59.94
52.359,-56.28
52.375,-52.18
52.390,-47.44
52.406,-41.55
52.421,-33.92
52.437,-24.25
52.453,-12.74
52.468,-0.27
52.484,11.91
52.500,22.53
52.515,30.72
52.531,36.19
52.546,39.15
52.562,40.17
52.578,39.78
52.593,38.47
52.609,36.57
52.625,34.41
52.640,32.32
52.656,30.64
52.671,29.65
52.687,29.45
52.703,30.0
52.718,31.07
52.734,32.37
52.750,33.66
52.765,34.72
52.781,35.37
52.796,35.44
52.812,34.76
52.828,33.25
52.843,31.01
52.859,28.31
52.875,25.6
52.890,23.33
52.906,21.81
52.921,21.18
52.937,21.28
52.953,21.84
52.968,22.51
52.984,22.96
53.000,22.95
53.015,22.34
53.031,21.07
53.046,19.14
53.062,16.66
53.078,13.77
53.093,10.77
53.109,8.01
53.125,5.83
53.140,4.41
53.156,3.6
53.171,3.02
53.187,2.0
53.203,-0.11
53.218,-3.68
53.234,-8.56
53.250,-14.06
53.265,-19.03
53.281,-22.23
53.296,-22.73
53.312,-20.15
53.328,-14.74
53.343,-7.2
53.359,1.51
53.375,10.61
53.390,19.56
53.406,28.12
53.421,36.37
53.437,44.5
53.453,52.69
53.468,61.07
53.484,69.58
53.500,77.95
53.515,85.72
53.531,92.28
53.546,97.0
53.562,99.35
53.578,99.01
53.593,95.89
53.609,90.24
53.625,82.6
53.640,73.83
53.656,64.96
53.671,56.9
53.687,50.27
53.703,45.2
53.718,41.21
53.734,37.52
53.750,33.21
53.765,27.49
53.781,19.83
53.796,10.04
53.812,-1.67
53.828,-14.72
53.843,-27.94
53.859,-39.88
53.875,-48.98
53.890,-54.18
53.906,-55.34
53.921,-53.3
53.937,-49.6
53.953,-45.79
53.968,-42.87
53.984,-40.98
54.000,-39.67
54.015,-38.21
54.031,-36.16
54.046,-33.51
54.062,-30.65
54.078,-28.06
54.093,-26.15
54.109,-25.13
54.125,-25.05
54.140,-25.87
54.156,-27.42
54.171,-29.61
54.187,-32.22
54.203,-35.02
54.218,-37.75
54.234,-40.19
54.250,-42.15
54.265,-43.49
54.281,-44.27
54.296,-44.69
54.312,-45.07
54.328,-45.82
54.343,-47.1
54.359,-48.92
54.375,-51.07
54.390,-53.29
54.406,-55.44
54.421,-57.59
54.437,-59.97
54.453,-62.76
54.468,-65.9
54.484,-69.11
54.500,-72.03
54.515,-74.4
54.531,-76.25
54.546,-77.89
54.562,-79.74
54.578,-82.05
54.593,-84.74
54.609,-87.31
54.625,-89.04
54.640,-89.28
54.656,-87.57
54.671,-83.79
54.687,-78.04
54.703,-70.43
54.718,-60.96
54.734,-49.53
54.750,-36.19
54.765,-21.15
54.781,-5.11
54.796,10.93
54.812,25.83
54.828,38.55
54.843,48.4
54.859,55.24
54.875,59.69
54.890,63.31
54.906,68.68
54.921,78.89
54.937,96.71
54.953,123.41
54.968,157.63
54.984,195.2
55.000,229.93
55.015,255.2
55.031,265.97
55.046,260.31
55.062,239.6
55.078,207.9
55.093,170.52
55.109,132.44
55.125,97.21
55.140,66.59
55.156,40.78
55.171,19.08
55.187,0.73
55.203,-14.61
55.218,-26.69
55.234,-34.9
55.250,-38.84
55.265,-38.82
55.281,-35.87
55.296,-31.47
55.312,-26.97
55.328,-23.09
55.343,-20.0
55.359,-17.27
55.375,-14.15
55.390,-9.63
55.406,-2.54
55.421,8.12
55.437,22.48
55.453,38.99
55.468,54.16
55.484,63.05
55.500,60.98
55.515,45.45
55.531,17.49
55.546,-18.23
55.562,-54.78
55.578,-85.25
55.593,-104.82
55.609,-111.76
55.625,-107.36
55.640,-94.85
55.656,-78.08
55.671,-60.41
55.687,-44.22
55.703,-30.81
55.718,-20.58
55.734,-13.31
55.750,-8.21
55.765,-4.23
55.781,-0.15
55.796,4.96
55.812,11.41
55.828,18.85
55.843,26.17
55.859,31.99
55.875,35.05
55.890,34.66
55.906,30.92
55.921,24.81
55.937,17.85
55.953,11.55
55.968,6.98
55.984,4.44
56.000,3.48
56.015,3.11
56.031,2.18
56.046,-0.26
56.062,-4.62
56.078,-10.6
56.093,-17.28
56.109,-23.33
56.125,-27.52
56.140,-29.08
56.156,-28.05
56.171,-25.19
56.187,-21.71
56.203,-18.79
56.218,-17.11
56.234,-16.7
56.250,-17.08
56.265,-17.76
56.281,-18.48
56.296,-19.43
56.312,-21.24
56.328,-24.55
56.343,-29.75
56.359,-36.84
56.375,-45.37
56.390,-54.49
56.406,-63.17
56.421,-70.17
56.437,-74.13
56.453,-73.93
56.468,-69.02
56.484,-60.04
56.500,-49.12
56.515,-39.69
56.531,-35.52
56.546,-39.45
56.562,-52.13
56.578,-71.54
56.593,-93.72
56.609,-114.05
56.625,-128.88
56.640,-136.64
56.656,-137.76
56.671,-134.13
56.687,-128.13
56.703,-121.74
56.718,-116.24
56.734,-112.21
56.750,-109.7
56.765,-108.37
56.781,-107.53
56.796,-106.17
56.812,-103.2
56.828,-97.96
56.843,-90.51
56.859,-81.7
56.875,-72.83
56.890,-65.01
56.906,-58.63
56.921,-53.18
56.937,-47.56
56.953,-40.66
56.968,-32.03
56.984,-22.09
57.000,-11.98
57.015,-3.07
57.031,3.51
57.046,7.37
57.062,8.76
57.078,8.46
57.093,7.48
57.109,6.8
57.125,7.25
57.140,9.42
57.156,13.73
57.171,20.4
57.187,29.43
57.203,40.48
57.218,52.91
57.234,65.79
57.250,78.18
57.265,89.4
57.281,99.17
57.296,107.64
57.312,115.21
57.328,122.29
57.343,129.19
57.359,136.05
57.375,142.98
57.390,150.02
57.406,157.2
57.421,164.38
57.437,171.24
57.453,177.33
57.468,182.19
57.484,185.48
57.500,186.99
57.515,186.66
57.531,184.42
57.546,180.22
57.562,174.09
57.578,166.32
57.593,157.48
57.609,148.36
57.625,139.74
57.640,132.15
57.656,125.78
57.671,120.41
57.687,115.69
57.703,111.28
57.718,106.98
57.734,102.82
57.750,98.9
57.765,95.42
57.781,92.55
57.796,90.4
57.812,89.0
57.828,88.29
57.843,88.13
57.859,88.36
57.875,88.81
57.890,89.32
57.906,89.84
57.921,90.34
57.937,90.87
57.953,91.49
57.968,92.22
57.984,93.09
58.000,94.05
58.015,95.05
58.031,96.1
58.046,97.27
58.062,98.71
58.078,100.56
58.093,102.92
58.109,105.76
58.125,108.94
58.140,112.18
58.156,115.21
58.171,117.72
58.187,119.41
58.203,119.94
58.218,118.89
58.234,115.78
58.250,110.01
58.265,101.19
58.281,89.13
58.296,74.13
58.312,56.99
58.328,38.82
58.343,20.69
58.359,3.31
58.375,-13.05
58.390,-28.52
58.406,-43.18
58.421,-56.92
58.437,-69.35
58.453,-80.1
58.468,-89.08
58.484,-96.67
58.500,-103.5
58.515,-110.12
58.531,-116.65
58.546,-122.69
58.562,-127.47
58.578,-130.17
58.593,-130.26
58.609,-127.62
58.625,-122.53
58.640,-115.62
58.656,-107.7
58.671,-99.64
58.687,-92.14
58.703,-85.56
58.718,-79.89
58.734,-74.86
58.750,-70.22
58.765,-65.84
58.781,-61.82
58.796,-58.37
58.812,-55.59
58.828,-53.39
58.843,-51.47
58.859,-49.61
58.875,-47.73
58.890,-46.06
58.906,-44.97
58.921,-44.66
58.937,-45.01
58.953,-45.48
58.968,-45.25
58.984,-43.64
59.000,-40.46
59.015,-36.14
59.031,-31.6
59.046,-27.97
59.062,-26.05
59.078,-26.04
59.093,-27.46
59.109,-29.29
59.125,-30.39
59.140,-29.91
59.156,-27.44
59.171,-23.21
59.187,-17.86
59.203,-12.3
59.218,-7.38
59.234,-3.68
59.250,-1.44
59.265,-0.56
59.281,-0.73
59.296,-1.5
59.312,-2.49
59.328,-3.42
59.343,-4.07
59.359,-4.42
59.375,-4.53
59.390,-4.61
59.406,-4.87
59.421,-5.58
59.437,-6.81
59.453,-8.61
59.468,-10.83
59.484,-13.15
59.500,-15.25
59.515,-16.82
59.531,-17.71
59.546,-17.9
59.562,-17.48
59.578,-16.48
59.593,-14.83
59.609,-12.38
59.625,-8.96
59.640,-4.6
59.656,0.41
59.671,5.62
59.687,10.51
59.703,14.73
59.718,18.15
59.734,20.85
59.750,22.95
59.765,24.55
59.781,25.68
59.796,26.47
59.812,27.08
59.828,27.7
59.843,28.46
59.859,29.33
59.875,30.15
59.890,30.73
59.906,30.95
59.921,30.84
59.937,30.6
59.953,30.42
59.968,30.43
59.984,30.72
