timestamp,value
00.000,9.04
00.015,16.18
00.031,22.13
00.046,26.41
00.062,28.8
00.078,29.36
00.093,28.37
00.109,26.31
00.125,23.68
00.140,20.83
00.156,18.05
00.171,15.45
00.187,13.12
00.203,11.19
00.218,9.83
00.234,9.21
00.250,9.46
00.265,10.49
00.281,12.04
00.296,13.8
00.312,15.48
00.328,16.89
00.343,17.92
00.359,18.57
00.375,18.78
00.390,18.55
00.406,17.75
00.421,16.24
00.437,13.92
00.453,10.83
00.468,7.09
00.484,2.91
00.500,-1.55
00.515,-6.08
00.531,-10.49
00.546,-14.69
00.562,-18.59
00.578,-22.06
00.593,-25.09
00.609,-27.66
00.625,-29.69
00.640,-31.21
00.656,-32.14
00.671,-32.34
00.687,-31.69
00.703,-29.96
00.718,-26.97
00.734,-22.67
00.750,-17.21
00.765,-10.92
00.781,-4.4
00.796,1.71
00.812,6.87
00.828,10.77
00.843,13.33
00.859,14.77
00.875,15.28
00.890,15.16
00.906,14.64
00.921,13.86
00.937,12.96
00.953,12.03
00.968,11.16
00.984,10.33
01.000,9.5
01.015,8.61
01.031,7.67
01.046,6.76
01.062,6.0
01.078,5.46
01.093,5.17
01.109,5.03
01.125,4.91
01.140,4.66
01.156,4.12
01.171,3.25
01.187,2.04
01.203,0.51
01.218,-1.25
01.234,-3.12
01.250,-5.05
01.265,-6.97
01.281,-8.8
01.296,-10.53
01.312,-12.13
01.328,-13.51
01.343,-14.66
01.359,-15.55
01.375,-16.23
01.390,-16.84
01.406,-17.49
01.421,-18.22
01.437,-18.87
01.453,-19.18
01.468,-18.73
01.484,-17.21
01.500,-14.51
01.515,-10.79
01.531,-6.43
01.546,-1.95
01.562,2.22
01.578,5.75
01.593,8.56
01.609,10.68
01.625,12.18
01.640,13.15
01.656,13.66
01.671,13.73
01.687,13.43
01.703,12.78
01.718,11.88
01.734,10.82
01.750,9.71
01.765,8.56
01.781,7.41
01.796,6.29
01.812,5.19
01.828,4.15
01.843,3.17
01.859,2.25
01.875,1.42
01.890,0.66
01.906,-0.06
01.921,-0.78
01.937,-1.5
01.953,-2.3
01.968,-3.26
01.984,-4.46
02.000,-5.94
02.015,-7.68
02.031,-9.55
02.046,-11.4
02.062,-13.13
02.078,-14.65
02.093,-15.95
02.109,-17.02
02.125,-17.9
02.140,-18.61
02.156,-19.21
02.171,-19.73
02.187,-20.15
02.203,-20.48
02.218,-20.61
02.234,-20.35
02.250,-19.42
02.265,-17.63
02.281,-14.9
02.296,-11.35
02.312,-7.35
02.328,-3.32
02.343,0.33
02.359,3.35
02.375,5.71
02.390,7.55
02.406,8.98
02.421,10.03
02.437,10.66
02.453,10.72
02.468,10.26
02.484,9.46
02.500,8.62
02.515,8.1
02.531,8.08
02.546,8.48
02.562,9.11
02.578,9.71
02.593,10.08
02.609,10.2
02.625,10.11
02.640,9.81
02.656,9.23
02.671,8.16
02.687,6.46
02.703,4.14
02.718,1.43
02.734,-1.4
02.750,-4.05
02.765,-6.36
02.781,-8.36
02.796,-10.1
02.812,-11.76
02.828,-13.49
02.843,-15.37
02.859,-17.35
02.875,-19.37
02.890,-21.24
02.906,-22.75
02.921,-23.89
02.937,-24.6
02.953,-24.96
02.968,-24.97
02.984,-24.44
03.000,-23.14
03.015,-20.87
03.031,-17.56
03.046,-13.4
03.062,-8.84
03.078,-4.25
03.093,0.01
03.109,3.81
03.125,7.17
03.140,10.1
03.156,12.55
03.171,14.41
03.187,15.49
03.203,15.6
03.218,14.81
03.234,13.25
03.250,11.2
03.265,9.05
03.281,7.1
03.296,5.54
03.312,4.52
03.328,4.01
03.343,3.89
03.359,4.11
03.375,4.57
03.390,5.15
03.406,5.74
03.421,6.16
03.437,6.21
03.453,5.82
03.468,4.94
03.484,3.64
03.500,2.03
03.515,0.19
03.531,-1.88
03.546,-4.12
03.562,-6.49
03.578,-8.91
03.593,-11.13
03.609,-13.03
03.625,-14.54
03.640,-15.69
03.656,-16.74
03.671,-17.91
03.687,-19.33
03.703,-20.92
03.718,-22.3
03.734,-22.96
03.750,-22.46
03.765,-20.51
03.781,-17.12
03.796,-12.69
03.812,-7.73
03.828,-2.75
03.843,1.85
03.859,5.91
03.875,9.47
03.890,12.62
03.906,15.47
03.921,18.24
03.937,20.94
03.953,23.53
03.968,25.83
03.984,27.44
04.000,27.95
04.015,27.03
04.031,24.61
04.046,21.07
04.062,17.08
04.078,13.37
04.093,10.49
04.109,8.59
04.125,7.41
04.140,6.57
04.156,5.7
04.171,4.59
04.187,3.3
04.203,1.91
04.218,0.46
04.234,-1.18
04.250,-3.17
04.265,-5.69
04.281,-8.72
04.296,-12.05
04.312,-15.45
04.328,-18.57
04.343,-21.31
04.359,-23.73
04.375,-25.96
04.390,-28.18
04.406,-30.46
04.421,-32.69
04.437,-34.53
04.453,-35.65
04.468,-35.71
04.484,-34.49
04.500,-31.88
04.515,-27.85
04.531,-22.42
04.546,-15.83
04.562,-8.45
04.578,-0.77
04.593,6.68
04.609,13.53
04.625,19.54
04.640,24.68
04.656,28.99
04.671,32.53
04.687,35.34
04.703,37.38
04.718,38.65
04.734,39.24
04.750,39.36
04.765,39.25
04.781,39.17
04.796,39.36
04.812,39.95
04.828,40.98
04.843,42.39
04.859,44.0
04.875,45.51
04.890,46.6
04.906,46.94
04.921,46.39
04.937,45.05
04.953,43.16
04.968,41.04
04.984,38.97
05.000,37.03
05.015,35.05
05.031,32.94
05.046,30.63
05.062,28.31
05.078,26.27
05.093,24.81
05.109,24.09
05.125,24.0
05.140,24.21
05.156,24.13
05.171,23.28
05.187,21.31
05.203,18.25
05.218,14.41
05.234,10.35
05.250,6.8
05.265,4.34
05.281,3.33
05.296,3.76
05.312,5.27
05.328,7.32
05.343,9.28
05.359,10.56
05.375,10.77
05.390,9.67
05.406,7.27
05.421,3.78
05.437,-0.43
05.453,-4.92
05.468,-9.21
05.484,-12.85
05.500,-15.55
05.515,-17.19
05.531,-17.93
05.546,-18.09
05.562,-17.95
05.578,-17.69
05.593,-17.32
05.609,-16.78
05.625,-16.01
05.640,-15.08
05.656,-14.17
05.671,-13.55
05.687,-13.48
05.703,-14.04
05.718,-15.2
05.734,-16.87
05.750,-18.96
05.765,-21.32
05.781,-23.79
05.796,-26.08
05.812,-27.85
05.828,-28.86
05.843,-28.93
05.859,-28.16
05.875,-26.8
05.890,-25.2
05.906,-23.74
05.921,-22.69
05.937,-22.14
05.953,-21.97
05.968,-21.93
05.984,-21.69
06.000,-20.93
06.015,-19.38
06.031,-16.92
06.046,-13.6
06.062,-9.62
06.078,-5.27
06.093,-0.85
06.109,3.36
06.125,7.12
06.140,10.21
06.156,12.47
06.171,13.83
06.187,14.26
06.203,13.85
06.218,12.83
06.234,11.52
06.250,10.26
06.265,9.36
06.281,8.98
06.296,9.02
06.312,9.23
06.328,9.29
06.343,8.87
06.359,7.81
06.375,6.15
06.390,4.22
06.406,2.45
06.421,1.47
06.437,1.73
06.453,3.59
06.468,7.18
06.484,12.28
06.500,18.34
06.515,24.47
06.531,29.73
06.546,33.26
06.562,34.65
06.578,33.9
06.593,31.4
06.609,27.76
06.625,23.57
06.640,19.22
06.656,14.86
06.671,10.54
06.687,6.37
06.703,2.59
06.718,-0.53
06.734,-2.77
06.750,-4.13
06.765,-4.83
06.781,-5.23
06.796,-5.74
06.812,-6.66
06.828,-8.08
06.843,-9.86
06.859,-11.82
06.875,-13.8
06.890,-15.78
06.906,-17.91
06.921,-20.43
06.937,-23.57
06.953,-27.25
06.968,-31.17
06.984,-34.78
07.000,-37.52
07.015,-39.08
07.031,-39.51
07.046,-39.18
07.062,-38.65
07.078,-38.37
07.093,-38.6
07.109,-39.49
07.125,-41.09
07.140,-43.48
07.156,-46.75
07.171,-50.77
07.187,-55.22
07.203,-59.44
07.218,-62.75
07.234,-64.61
07.250,-64.9
07.265,-63.78
07.281,-61.65
07.296,-58.87
07.312,-55.57
07.328,-51.8
07.343,-47.52
07.359,-42.88
07.375,-38.19
07.390,-34.04
07.406,-30.98
07.421,-29.52
07.437,-29.93
07.453,-32.16
07.468,-35.87
07.484,-40.44
07.500,-45.08
07.515,-49.02
07.531,-51.61
07.546,-52.49
07.562,-51.64
07.578,-49.37
07.593,-46.24
07.609,-42.83
07.625,-39.64
07.640,-36.78
07.656,-34.13
07.671,-31.28
07.687,-27.81
07.703,-23.47
07.718,-18.24
07.734,-12.33
07.750,-6.1
07.765,0.17
07.781,6.48
07.796,12.96
07.812,19.92
07.828,27.8
07.843,36.94
07.859,47.55
07.875,59.67
07.890,73.04
07.906,87.14
07.921,101.3
07.937,114.92
07.953,127.66
07.968,139.64
07.984,151.33
08.000,163.26
08.015,175.72
08.031,188.44
08.046,200.56
08.062,210.95
08.078,218.43
08.093,222.37
08.109,222.8
08.125,220.4
08.140,216.25
08.156,211.4
08.171,206.61
08.187,202.27
08.203,198.45
08.218,195.04
08.234,191.98
08.250,189.27
08.265,186.86
08.281,184.54
08.296,181.85
08.312,177.97
08.328,171.89
08.343,162.54
08.359,148.96
08.375,130.48
08.390,106.84
08.406,78.39
08.421,46.15
08.437,11.81
08.453,-22.63
08.468,-54.97
08.484,-83.28
08.500,-106.26
08.515,-123.47
08.531,-135.26
08.546,-142.5
08.562,-145.84
08.578,-145.42
08.593,-140.77
08.609,-131.13
08.625,-116.05
08.640,-96.0
08.656,-72.49
08.671,-47.91
08.687,-24.85
08.703,-5.48
08.718,8.64
08.734,16.83
08.750,18.91
08.765,15.26
08.781,6.55
08.796,-6.15
08.812,-21.7
08.828,-39.12
08.843,-57.88
08.859,-77.93
08.875,-99.37
08.890,-122.25
08.906,-146.01
08.921,-169.59
08.937,-191.54
08.953,-210.4
08.968,-225.11
08.984,-234.96
09.000,-239.59
09.015,-238.79
09.031,-232.73
09.046,-222.06
09.062,-208.03
09.078,-192.45
09.093,-177.24
09.109,-163.96
09.125,-153.43
09.140,-145.86
09.156,-140.91
09.171,-138.12
09.187,-137.22
09.203,-137.94
09.218,-139.91
09.234,-142.38
09.250,-144.25
09.265,-144.14
09.281,-141.02
09.296,-134.44
09.312,-124.73
09.328,-113.03
09.343,-100.87
09.359,-89.82
09.375,-80.89
09.390,-74.46
09.406,-70.11
09.421,-66.99
09.437,-64.03
09.453,-60.4
09.468,-55.73
09.484,-50.12
09.500,-44.14
09.515,-38.38
09.531,-33.3
09.546,-29.07
09.562,-25.63
09.578,-22.73
09.593,-20.23
09.609,-18.07
09.625,-16.19
09.640,-14.64
09.656,-13.29
09.671,-12.01
09.687,-10.55
09.703,-8.7
09.718,-6.32
09.734,-3.34
09.750,0.2
09.765,4.27
09.781,8.74
09.796,13.46
09.812,18.24
09.828,22.85
09.843,27.12
09.859,30.81
09.875,33.69
09.890,35.67
09.906,36.72
09.921,36.89
09.937,36.41
09.953,35.59
09.968,34.75
09.984,34.18
10.000,33.94
10.015,34.03
10.031,34.27
10.046,34.52
10.062,34.59
10.078,34.52
10.093,34.34
10.109,34.21
10.125,34.17
10.140,34.13
10.156,33.94
10.171,33.36
10.187,32.23
10.203,30.45
10.218,28.12
10.234,25.34
10.250,22.22
10.265,18.89
10.281,15.41
10.296,11.87
10.312,8.32
10.328,4.73
10.343,1.0
10.359,-2.98
10.375,-7.23
10.390,-11.5
10.406,-15.25
10.421,-17.77
10.437,-18.31
10.453,-16.47
10.468,-12.16
10.484,-5.8
10.500,1.82
10.515,9.74
10.531,17.2
10.546,23.63
10.562,28.76
10.578,32.63
10.593,35.3
10.609,36.97
10.625,37.79
10.640,37.94
10.656,37.63
10.671,37.14
10.687,36.63
10.703,36.2
10.718,35.84
10.734,35.42
10.750,34.84
10.765,34.09
10.781,33.26
10.796,32.5
10.812,31.91
10.828,31.44
10.843,30.93
10.859,30.15
10.875,28.85
10.890,26.9
10.906,24.25
10.921,20.91
10.937,16.98
10.953,12.6
10.968,8.06
10.984,3.72
11.000,-0.05
11.015,-3.1
11.031,-5.5
11.046,-7.58
11.062,-9.84
11.078,-12.61
11.093,-15.93
11.109,-19.38
11.125,-22.16
11.140,-23.36
11.156,-22.18
11.171,-18.15
11.187,-11.35
11.203,-2.3
11.218,8.22
11.234,19.29
11.250,30.14
11.265,40.2
11.281,49.14
11.296,56.87
11.312,63.51
11.328,69.14
11.343,74.03
11.359,78.43
11.375,82.55
11.390,86.58
11.406,90.54
11.421,94.38
11.437,98.0
11.453,101.41
11.468,104.72
11.484,108.18
11.500,111.98
11.515,116.16
11.531,120.56
11.546,124.89
11.562,128.85
11.578,132.27
11.593,135.11
11.609,137.35
11.625,138.89
11.640,139.53
11.656,139.0
11.671,137.21
11.687,134.34
11.703,130.65
11.718,126.33
11.734,121.33
11.750,115.24
11.765,107.53
11.781,98.03
11.796,87.02
11.812,75.55
11.828,64.84
11.843,56.09
11.859,49.95
11.875,46.51
11.890,45.26
11.906,45.37
11.921,45.84
11.937,45.39
11.953,42.69
11.968,36.31
11.984,25.26
12.000,9.36
12.015,-10.54
12.031,-32.6
12.046,-54.43
12.062,-73.64
12.078,-88.3
12.093,-97.29
12.109,-100.37
12.125,-98.03
12.140,-91.28
12.156,-81.57
12.171,-70.39
12.187,-59.18
12.203,-49.18
12.218,-41.32
12.234,-36.14
12.250,-33.84
12.265,-34.32
12.281,-37.27
12.296,-42.39
12.312,-49.27
12.328,-57.43
12.343,-66.21
12.359,-74.66
12.375,-81.59
12.390,-85.95
12.406,-87.21
12.421,-85.75
12.437,-83.1
12.453,-81.5
12.468,-83.5
12.484,-91.19
12.500,-105.65
12.515,-126.71
12.531,-153.0
12.546,-182.23
12.562,-211.66
12.578,-238.6
12.593,-260.62
12.609,-276.08
12.625,-284.05
12.640,-284.17
12.656,-276.39
12.671,-260.68
12.687,-236.94
12.703,-205.14
12.718,-165.92
12.734,-121.01
12.750,-73.49
12.765,-27.65
12.781,12.12
12.796,42.16
12.812,60.69
12.828,68.21
12.843,67.2
12.859,61.07
12.875,53.23
12.890,46.17
12.906,41.13
12.921,38.51
12.937,38.0
12.953,39.14
12.968,41.34
12.984,43.78
13.000,45.37
13.015,45.11
13.031,42.39
13.046,37.34
13.062,31.22
13.078,25.74
13.093,22.64
13.109,22.88
13.125,26.15
13.140,30.86
13.156,34.78
13.171,35.73
13.187,32.25
13.203,24.22
13.218,12.44
13.234,-1.57
13.250,-16.09
13.265,-29.53
13.281,-40.5
13.296,-47.81
13.312,-50.62
13.328,-48.65
13.343,-42.2
13.359,-32.36
13.375,-20.65
13.390,-8.56
13.406,2.73
13.421,12.65
13.437,21.07
13.453,28.1
13.468,33.68
13.484,37.67
13.500,39.74
13.515,39.64
13.531,37.36
13.546,33.07
13.562,27.24
13.578,20.46
13.593,13.33
13.609,6.42
13.625,0.32
13.640,-4.46
13.656,-7.52
13.671,-8.56
13.687,-7.67
13.703,-5.1
13.718,-1.35
13.734,2.95
13.750,7.1
13.765,10.57
13.781,12.96
13.796,14.04
13.812,13.86
13.828,12.57
13.843,10.48
13.859,7.93
13.875,5.21
13.890,2.45
13.906,-0.19
13.921,-2.77
13.937,-5.38
13.953,-8.11
13.968,-11.02
13.984,-13.95
14.000,-16.56
14.015,-18.33
14.031,-18.68
14.046,-17.15
14.062,-13.69
14.078,-8.56
14.093,-2.36
14.109,4.22
14.125,10.53
14.140,16.18
14.156,21.01
14.171,25.07
14.187,28.5
14.203,31.4
14.218,33.86
14.234,35.89
14.250,37.52
14.265,38.72
14.281,39.53
14.296,39.99
14.312,40.15
14.328,40.03
14.343,39.51
14.359,38.52
14.375,37.0
14.390,34.96
14.406,32.51
14.421,29.81
14.437,27.06
14.453,24.34
14.468,21.64
14.484,18.83
14.500,15.81
14.515,12.52
14.531,8.97
14.546,5.3
14.562,1.68
14.578,-1.58
14.593,-4.28
14.609,-6.33
14.625,-7.78
14.640,-8.87
14.656,-9.97
14.671,-11.44
14.687,-13.51
14.703,-16.17
14.718,-19.17
14.734,-22.05
14.750,-24.24
14.765,-25.27
14.781,-24.77
14.796,-22.57
14.812,-18.76
14.828,-13.6
14.843,-7.54
14.859,-1.13
14.875,5.05
14.890,10.54
14.906,15.01
14.921,18.34
14.937,20.63
14.953,22.09
14.968,22.99
14.984,23.52
15.000,23.8
15.015,23.78
15.031,23.48
15.046,22.94
15.062,22.4
15.078,22.23
15.093,22.77
15.109,24.13
15.125,26.14
15.140,28.3
15.156,30.05
15.171,30.96
15.187,30.83
15.203,29.84
15.218,28.3
15.234,26.42
15.250,24.26
15.265,21.74
15.281,18.72
15.296,15.27
15.312,11.63
15.328,8.19
15.343,5.33
15.359,3.19
15.375,1.66
15.390,0.47
15.406,-0.7
15.421,-2.19
15.437,-4.14
15.453,-6.61
15.468,-9.48
15.484,-12.48
15.500,-15.24
15.515,-17.25
15.531,-17.95
15.546,-16.89
15.562,-13.78
15.578,-8.67
15.593,-1.98
15.609,5.65
15.625,13.45
15.640,20.63
15.656,26.74
15.671,31.58
15.687,35.2
15.703,37.79
15.718,39.65
15.734,41.0
15.750,41.91
15.765,42.29
15.781,42.02
15.796,41.02
15.812,39.37
15.828,37.31
15.843,35.2
15.859,33.45
15.875,32.28
15.890,31.66
15.906,31.32
15.921,30.9
15.937,30.08
15.953,28.66
15.968,26.56
15.984,23.81
16.000,20.53
16.015,16.83
16.031,12.83
16.046,8.7
16.062,4.6
16.078,0.67
16.093,-2.94
16.109,-6.2
16.125,-9.05
16.140,-11.53
16.156,-13.7
16.171,-15.58
16.187,-17.16
16.203,-18.45
16.218,-19.5
16.234,-20.43
16.250,-21.35
16.265,-22.24
16.281,-22.9
16.296,-22.88
16.312,-21.56
16.328,-18.36
16.343,-12.96
16.359,-5.53
16.375,3.33
16.390,12.69
16.406,21.61
16.421,29.33
16.437,35.49
16.453,39.98
16.468,42.92
16.484,44.46
16.500,44.81
16.515,44.22
16.531,42.92
16.546,41.21
16.562,39.38
16.578,37.57
16.593,35.81
16.609,34.06
16.625,32.25
16.640,30.37
16.656,28.54
16.671,26.87
16.687,25.39
16.703,24.05
16.718,22.72
16.734,21.2
16.750,19.35
16.765,17.1
16.781,14.44
16.796,11.45
16.812,8.14
16.828,4.57
16.843,0.73
16.859,-3.29
16.875,-7.41
16.890,-11.49
16.906,-15.37
16.921,-18.95
16.937,-22.22
16.953,-25.21
16.968,-27.86
16.984,-30.12
17.000,-32.04
17.015,-33.65
17.031,-35.08
17.046,-36.5
17.062,-37.91
17.078,-39.1
17.093,-39.65
17.109,-38.9
17.125,-36.33
17.140,-31.71
17.156,-25.27
17.171,-17.65
17.187,-9.68
17.203,-2.1
17.218,4.68
17.234,10.44
17.250,15.28
17.265,19.28
17.281,22.49
17.296,24.95
17.312,26.62
17.328,27.57
17.343,27.94
17.359,27.89
17.375,27.58
17.390,27.12
17.406,26.48
17.421,25.66
17.437,24.59
17.453,23.22
17.468,21.5
17.484,19.47
17.500,17.14
17.515,14.56
17.531,11.83
17.546,8.9
17.562,5.81
17.578,2.6
17.593,-0.73
17.609,-4.07
17.625,-7.29
17.640,-10.23
17.656,-12.82
17.671,-15.01
17.687,-16.94
17.703,-18.74
17.718,-20.53
17.734,-22.38
17.750,-24.21
17.765,-25.88
17.781,-27.23
17.796,-28.21
17.812,-28.84
17.828,-29.3
17.843,-29.75
17.859,-30.26
17.875,-30.77
17.890,-30.97
17.906,-30.46
17.921,-28.7
17.937,-25.33
17.953,-20.16
17.968,-13.44
17.984,-5.68
18.000,2.42
18.015,10.07
18.031,16.66
18.046,21.75
18.062,25.19
18.078,27.06
18.093,27.66
18.109,27.36
18.125,26.56
18.140,25.63
18.156,24.71
18.171,23.86
18.187,23.01
18.203,22.09
18.218,21.08
18.234,20.03
18.250,18.94
18.265,17.76
18.281,16.48
18.296,15.02
18.312,13.39
18.328,11.64
18.343,9.84
18.359,7.97
18.375,6.05
18.390,4.08
18.406,2.08
18.421,0.17
18.437,-1.63
18.453,-3.24
18.468,-4.8
18.484,-6.44
18.500,-8.36
18.515,-10.55
18.531,-12.9
18.546,-15.28
18.562,-17.49
18.578,-19.51
18.593,-21.34
18.609,-23.1
18.625,-24.88
18.640,-26.7
18.656,-28.5
18.671,-30.19
18.687,-31.59
18.703,-32.4
18.718,-32.3
18.734,-30.85
18.750,-27.75
18.765,-22.86
18.781,-16.38
18.796,-8.79
18.812,-0.89
18.828,6.54
18.843,12.9
18.859,17.76
18.875,21.12
18.890,23.16
18.906,24.2
18.921,24.59
18.937,24.52
18.953,24.16
18.968,23.63
18.984,22.99
19.000,22.18
19.015,21.19
19.031,19.93
19.046,18.39
19.062,16.62
19.078,14.7
19.093,12.79
19.109,11.02
19.125,9.46
19.140,8.1
19.156,6.9
19.171,5.79
19.187,4.65
19.203,3.38
19.218,1.87
19.234,0.04
19.250,-2.18
19.265,-4.73
19.281,-7.51
19.296,-10.33
19.312,-13.08
19.328,-15.68
19.343,-18.09
19.359,-20.29
19.375,-22.25
19.390,-23.96
19.406,-25.32
19.421,-26.3
19.437,-26.9
19.453,-27.33
19.468,-27.79
19.484,-28.53
19.500,-29.6
19.515,-30.84
19.531,-31.88
19.546,-32.15
19.562,-31.15
19.578,-28.51
19.593,-24.19
19.609,-18.45
19.625,-11.76
19.640,-4.82
19.656,1.73
19.671,7.33
19.687,11.67
19.703,14.63
19.718,16.42
19.734,17.34
19.750,17.73
19.765,17.88
19.781,17.88
19.796,17.77
19.812,17.4
19.828,16.74
19.843,15.73
19.859,14.52
19.875,13.37
19.890,12.5
19.906,12.08
19.921,12.1
19.937,12.44
19.953,12.79
19.968,12.93
19.984,12.6
20.000,11.73
20.015,10.29
20.031,8.34
20.046,5.95
20.062,3.14
20.078,0.1
20.093,-2.98
20.109,-5.87
20.125,-8.37
20.140,-10.4
20.156,-12.1
20.171,-13.6
20.187,-15.05
20.203,-16.62
20.218,-18.2
20.234,-19.7
20.250,-21.05
20.265,-22.24
20.281,-23.37
20.296,-24.59
20.312,-26.0
20.328,-27.55
20.343,-29.03
20.359,-30.06
20.375,-30.14
20.390,-28.72
20.406,-25.48
20.421,-20.32
20.437,-13.51
20.453,-5.62
20.468,2.6
20.484,10.41
20.500,17.22
20.515,22.62
20.531,26.47
20.546,28.8
20.562,29.78
20.578,29.69
20.593,28.85
20.609,27.61
20.625,26.22
20.640,24.86
20.656,23.47
20.671,22.0
20.687,20.44
20.703,18.87
20.718,17.43
20.734,16.22
20.750,15.34
20.765,14.6
20.781,13.87
20.796,12.92
20.812,11.67
20.828,10.07
20.843,8.17
20.859,6.0
20.875,3.56
20.890,0.89
20.906,-1.97
20.921,-4.89
20.937,-7.74
20.953,-10.38
20.968,-12.77
20.984,-14.92
21.000,-16.95
21.015,-18.94
21.031,-20.9
21.046,-22.72
21.062,-24.23
21.078,-25.2
21.093,-25.55
21.109,-25.3
21.125,-24.63
21.140,-23.84
21.156,-23.04
21.171,-22.21
21.187,-21.18
21.203,-19.58
21.218,-17.06
21.234,-13.39
21.250,-8.54
21.265,-2.72
21.281,3.62
21.296,9.97
21.312,15.88
21.328,20.95
21.343,25.05
21.359,28.2
21.375,30.54
21.390,32.21
21.406,33.38
21.421,34.15
21.437,34.6
21.453,34.78
21.468,34.73
21.484,34.44
21.500,33.9
21.515,33.12
21.531,32.14
21.546,31.05
21.562,29.95
21.578,28.93
21.593,27.97
21.609,26.97
21.625,25.81
21.640,24.34
21.656,22.49
21.671,20.25
21.687,17.67
21.703,14.78
21.718,11.66
21.734,8.42
21.750,5.17
21.765,2.07
21.781,-0.73
21.796,-3.17
21.812,-5.22
21.828,-6.98
21.843,-8.53
21.859,-9.92
21.875,-11.12
21.890,-12.08
21.906,-12.82
21.921,-13.43
21.937,-14.1
21.953,-14.99
21.968,-16.14
21.984,-17.4
22.000,-18.55
22.015,-19.21
22.031,-19.0
22.046,-17.56
22.062,-14.65
22.078,-10.17
22.093,-4.21
22.109,2.88
22.125,10.62
22.140,18.28
22.156,25.19
22.171,30.9
22.187,35.17
22.203,38.02
22.218,39.58
22.234,40.08
22.250,39.71
22.265,38.67
22.281,37.1
22.296,35.16
22.312,33.02
22.328,30.83
22.343,28.65
22.359,26.53
22.375,24.49
22.390,22.57
22.406,20.78
22.421,19.09
22.437,17.32
22.453,15.28
22.468,12.69
22.484,9.42
22.500,5.44
22.515,0.89
22.531,-4.02
22.546,-9.07
22.562,-14.08
22.578,-18.96
22.593,-23.6
22.609,-27.96
22.625,-31.94
22.640,-35.49
22.656,-38.57
22.671,-41.28
22.687,-43.75
22.703,-46.08
22.718,-48.27
22.734,-50.25
22.750,-51.89
22.765,-53.09
22.781,-53.84
22.796,-54.17
22.812,-54.19
22.828,-54.0
22.843,-53.58
22.859,-52.72
22.875,-51.11
22.890,-48.38
22.906,-44.25
22.921,-38.61
22.937,-31.58
22.953,-23.44
22.968,-14.6
22.984,-5.47
23.000,3.67
23.015,12.64
23.031,21.31
23.046,29.61
23.062,37.41
23.078,44.55
23.093,50.89
23.109,56.22
23.125,60.36
23.140,63.19
23.156,64.75
23.171,65.26
23.187,65.12
23.203,64.77
23.218,64.53
23.234,64.46
23.250,64.3
23.265,63.53
23.281,61.58
23.296,58.07
23.312,52.94
23.328,46.57
23.343,39.46
23.359,32.21
23.375,25.32
23.390,19.04
23.406,13.43
23.421,8.4
23.437,3.77
23.453,-0.59
23.468,-4.67
23.484,-8.43
23.500,-11.79
23.515,-14.6
23.531,-16.83
23.546,-18.52
23.562,-19.81
23.578,-20.87
23.593,-21.86
23.609,-22.87
23.625,-24.02
23.640,-25.44
23.656,-27.33
23.671,-29.93
23.687,-33.41
23.703,-37.61
23.718,-42.12
23.734,-46.15
23.750,-48.89
23.765,-49.71
23.781,-48.35
23.796,-45.11
23.812,-40.56
23.828,-35.47
23.843,-30.34
23.859,-25.51
23.875,-20.94
23.890,-16.46
23.906,-11.97
23.921,-7.47
23.937,-3.06
23.953,1.13
23.968,5.01
23.984,8.73
24.000,12.38
24.015,16.17
24.031,20.19
24.046,24.38
24.062,28.63
24.078,32.76
24.093,36.58
24.109,39.87
24.125,42.4
24.140,43.93
24.156,44.26
24.171,43.32
24.187,41.28
24.203,38.64
24.218,36.0
24.234,33.91
24.250,32.73
24.265,32.44
24.281,32.75
24.296,33.17
24.312,33.23
24.328,32.56
24.343,31.05
24.359,28.67
24.375,25.39
24.390,21.27
24.406,16.31
24.421,10.66
24.437,4.57
24.453,-1.66
24.468,-7.76
24.484,-13.63
24.500,-19.37
24.515,-25.26
24.531,-31.44
24.546,-37.79
24.562,-43.81
24.578,-48.75
24.593,-51.92
24.609,-52.94
24.625,-51.96
24.640,-49.57
24.656,-46.68
24.671,-44.15
24.687,-42.59
24.703,-42.19
24.718,-42.77
24.734,-44.01
24.750,-45.54
24.765,-47.23
24.781,-49.09
24.796,-51.21
24.812,-53.66
24.828,-56.24
24.843,-58.64
24.859,-60.38
24.875,-61.22
24.890,-60.99
24.906,-59.86
24.921,-58.06
24.937,-55.73
24.953,-52.99
24.968,-49.78
24.984,-46.22
25.000,-42.51
25.015,-39.07
25.031,-36.37
25.046,-34.87
25.062,-34.7
25.078,-35.69
25.093,-37.35
25.109,-39.08
25.125,-40.39
25.140,-40.91
25.156,-40.59
25.171,-39.58
25.187,-38.21
25.203,-36.78
25.218,-35.52
25.234,-34.54
25.250,-33.83
25.265,-33.48
25.281,-33.52
25.296,-34.08
25.312,-35.26
25.328,-37.09
25.343,-39.45
25.359,-42.04
25.375,-44.55
25.390,-46.55
25.406,-47.7
25.421,-47.65
25.437,-46.11
25.453,-42.93
25.468,-38.15
25.484,-32.04
25.500,-25.17
25.515,-18.26
25.531,-11.92
25.546,-6.66
25.562,-2.58
25.578,0.55
25.593,3.09
25.609,5.5
25.625,8.05
25.640,10.76
25.656,13.51
25.671,16.09
25.687,18.18
25.703,19.65
25.718,20.4
25.734,20.48
25.750,20.06
25.765,19.39
25.781,18.74
25.796,18.47
25.812,18.82
25.828,19.8
25.843,21.25
25.859,22.82
25.875,24.06
25.890,24.61
25.906,24.36
25.921,23.24
25.937,21.4
25.953,18.83
25.968,15.38
25.984,10.78
26.000,4.81
26.015,-2.7
26.031,-11.69
26.046,-21.86
26.062,-32.81
26.078,-43.94
26.093,-54.73
26.109,-64.65
26.125,-73.28
26.140,-80.45
26.156,-86.16
26.171,-90.46
26.187,-93.41
26.203,-94.9
26.218,-94.62
26.234,-92.37
26.250,-88.08
26.265,-82.03
26.281,-74.93
26.296,-67.55
26.312,-60.62
26.328,-54.58
26.343,-49.59
26.359,-45.44
26.375,-41.82
26.390,-38.29
26.406,-34.41
26.421,-29.85
26.437,-24.37
26.453,-17.98
26.468,-11.02
26.484,-4.15
26.500,1.94
26.515,6.59
26.531,9.41
26.546,10.38
26.562,9.79
26.578,8.18
26.593,6.05
26.609,3.92
26.625,2.09
26.640,0.86
26.656,0.34
26.671,0.64
26.687,1.82
26.703,3.86
26.718,6.82
26.734,10.49
26.750,14.59
26.765,18.59
26.781,21.89
26.796,23.95
26.812,24.41
26.828,23.24
26.843,20.54
26.859,16.71
26.875,12.06
26.890,6.96
26.906,1.68
26.921,-3.64
26.937,-8.92
26.953,-14.1
26.968,-19.19
26.984,-24.26
27.000,-29.1
27.015,-33.35
27.031,-36.45
27.046,-37.78
27.062,-36.76
27.078,-33.07
27.093,-26.68
27.109,-17.98
27.125,-7.71
27.140,3.3
27.156,14.17
27.171,24.28
27.187,33.26
27.203,41.0
27.218,47.6
27.234,53.26
27.250,58.12
27.265,62.28
27.281,65.74
27.296,68.51
27.312,70.62
27.328,72.1
27.343,73.03
27.359,73.5
27.375,73.56
27.390,73.19
27.406,72.37
27.421,70.99
27.437,68.9
27.453,66.07
27.468,62.49
27.484,58.17
27.500,53.21
27.515,47.7
27.531,41.85
27.546,35.82
27.562,29.83
27.578,23.94
27.593,18.25
27.609,12.72
27.625,7.35
27.640,2.13
27.656,-2.91
27.671,-7.67
27.687,-12.11
27.703,-16.16
27.718,-19.9
27.734,-23.28
27.750,-26.36
27.765,-29.12
27.781,-31.59
27.796,-33.77
27.812,-35.71
27.828,-37.41
27.843,-38.8
27.859,-39.7
27.875,-39.82
27.890,-38.68
27.906,-35.84
27.921,-30.93
27.937,-23.88
27.953,-14.9
27.968,-4.5
27.984,6.64
28.000,17.87
28.015,28.73
28.031,38.97
28.046,48.46
28.062,57.18
28.078,65.2
28.093,72.62
28.109,79.64
28.125,86.41
28.140,92.95
28.156,99.12
28.171,104.7
28.187,109.5
28.203,113.39
28.218,116.41
28.234,118.65
28.250,120.18
28.265,120.95
28.281,120.87
28.296,119.87
28.312,118.03
28.328,115.65
28.343,113.09
28.359,110.73
28.375,108.77
28.390,107.23
28.406,106.0
28.421,104.8
28.437,103.41
28.453,101.5
28.468,98.73
28.484,94.68
28.500,89.04
28.515,81.69
28.531,72.95
28.546,63.54
28.562,54.35
28.578,46.23
28.593,39.49
28.609,33.82
28.625,28.42
28.640,22.51
28.656,15.53
28.671,7.45
28.687,-1.37
28.703,-10.28
28.718,-18.67
28.734,-26.13
28.750,-32.43
28.765,-37.62
28.781,-41.84
28.796,-45.37
28.812,-48.6
28.828,-51.95
28.843,-55.72
28.859,-60.16
28.875,-65.26
28.890,-70.78
28.906,-76.28
28.921,-81.3
28.937,-85.43
28.953,-88.42
28.968,-90.29
28.984,-91.2
29.000,-91.35
29.015,-90.88
29.031,-89.8
29.046,-88.11
29.062,-86.0
29.078,-83.7
29.093,-81.41
29.109,-79.14
29.125,-76.53
29.140,-72.9
29.156,-67.56
29.171,-59.98
29.187,-50.07
29.203,-38.16
29.218,-24.85
29.234,-10.84
29.250,3.16
29.265,16.48
29.281,28.65
29.296,39.22
29.312,47.97
29.328,54.92
29.343,60.26
29.359,64.34
29.375,67.37
29.390,69.49
29.406,70.64
29.421,70.72
29.437,69.66
29.453,67.46
29.468,64.26
29.484,60.23
29.500,55.64
29.515,50.78
29.531,46.02
29.546,41.81
29.562,38.52
29.578,36.38
29.593,35.29
29.609,34.96
29.625,34.84
29.640,34.36
29.656,33.03
29.671,30.4
29.687,26.23
29.703,20.45
29.718,13.21
29.734,4.82
29.750,-4.14
29.765,-13.14
29.781,-21.64
29.796,-29.26
29.812,-35.83
29.828,-41.31
29.843,-45.7
29.859,-48.97
29.875,-51.11
29.890,-52.03
29.906,-51.73
29.921,-50.33
29.937,-47.92
29.953,-44.76
29.968,-41.07
29.984,-37.04
30.000,-32.83
30.015,-28.66
30.031,-24.74
30.046,-21.31
30.062,-18.55
30.078,-16.47
30.093,-14.88
30.109,-13.49
30.125,-11.99
30.140,-10.17
30.156,-8.0
30.171,-5.5
30.187,-2.72
30.203,0.36
30.218,3.79
30.234,7.49
30.250,11.24
30.265,14.6
30.281,17.04
30.296,18.15
30.312,17.61
30.328,15.35
30.343,11.46
30.359,6.27
30.375,0.23
30.390,-5.93
30.406,-11.35
30.421,-15.2
30.437,-16.84
30.453,-16.09
30.468,-13.19
30.484,-8.77
30.500,-3.55
30.515,1.81
30.531,7.02
30.546,11.96
30.562,16.64
30.578,21.09
30.593,25.18
30.609,28.72
30.625,31.38
30.640,32.98
30.656,33.44
30.671,32.95
30.687,31.79
30.703,30.33
30.718,28.89
30.734,27.65
30.750,26.63
30.765,25.65
30.781,24.48
30.796,22.85
30.812,20.58
30.828,17.48
30.843,13.56
30.859,8.88
30.875,3.57
30.890,-2.17
30.906,-8.15
30.921,-14.14
30.937,-19.88
30.953,-25.05
30.968,-29.41
30.984,-32.79
31.000,-35.18
31.015,-36.8
31.031,-37.94
31.046,-38.97
31.062,-40.14
31.078,-41.57
31.093,-43.23
31.109,-45.03
31.125,-46.9
31.140,-48.9
31.156,-51.17
31.171,-53.69
31.187,-56.3
31.203,-58.49
31.218,-59.58
31.234,-58.91
31.250,-55.95
31.265,-50.58
31.281,-43.05
31.296,-33.99
31.312,-24.15
31.328,-14.44
31.343,-5.51
31.359,2.19
31.375,8.61
31.390,13.96
31.406,18.67
31.421,23.04
31.437,27.08
31.453,30.57
31.468,32.99
31.484,33.85
31.500,32.78
31.515,29.7
31.531,24.88
31.546,18.79
31.562,12.04
31.578,5.13
31.593,-1.41
31.609,-7.21
31.625,-11.91
31.640,-15.13
31.656,-16.59
31.671,-16.06
31.687,-13.66
31.703,-9.79
31.718,-5.14
31.734,-0.51
31.750,3.38
31.765,6.15
31.781,7.73
31.796,8.35
31.812,8.34
31.828,8.03
31.843,7.57
31.859,6.98
31.875,6.29
31.890,5.59
31.906,5.1
31.921,5.08
31.937,5.76
31.953,7.22
31.968,9.42
31.984,12.02
32.000,14.5
32.015,16.23
32.031,16.68
32.046,15.48
32.062,12.61
32.078,8.31
32.093,3.08
32.109,-2.42
32.125,-7.56
32.140,-11.86
32.156,-15.15
32.171,-17.48
32.187,-19.19
32.203,-20.61
32.218,-22.02
32.234,-23.38
32.250,-24.46
32.265,-24.82
32.281,-24.24
32.296,-22.75
32.312,-20.66
32.328,-18.42
32.343,-16.26
32.359,-14.28
32.375,-12.33
32.390,-10.34
32.406,-8.34
32.421,-6.57
32.437,-5.34
32.453,-4.79
32.468,-4.85
32.484,-5.22
32.500,-5.61
32.515,-5.78
32.531,-5.67
32.546,-5.31
32.562,-4.78
32.578,-4.09
32.593,-3.22
32.609,-2.17
32.625,-0.91
32.640,0.56
32.656,2.16
32.671,3.82
32.687,5.38
32.703,6.62
32.718,7.28
32.734,7.08
32.750,5.7
32.765,2.94
32.781,-1.35
32.796,-7.15
32.812,-14.06
32.828,-21.35
32.843,-27.91
32.859,-32.57
32.875,-34.27
32.890,-32.57
32.906,-27.6
32.921,-20.05
32.937,-10.84
32.953,-0.82
32.968,9.43
32.984,19.51
33.000,29.22
33.015,38.25
33.031,46.23
33.046,52.76
33.062,57.54
33.078,60.65
33.093,62.44
33.109,63.44
33.125,64.09
33.140,64.69
33.156,65.19
33.171,65.29
33.187,64.74
33.203,63.38
33.218,61.23
33.234,58.45
33.250,55.28
33.265,51.8
33.281,48.15
33.296,44.3
33.312,40.08
33.328,35.34
33.343,29.74
33.359,23.09
33.375,15.32
33.390,6.62
33.406,-2.56
33.421,-11.71
33.437,-20.2
33.453,-27.59
33.468,-33.41
33.484,-37.39
33.500,-39.42
33.515,-39.56
33.531,-38.19
33.546,-35.94
33.562,-33.62
33.578,-31.78
33.593,-30.76
33.609,-30.18
33.625,-29.33
33.640,-27.22
33.656,-23.01
33.671,-16.16
33.687,-6.75
33.703,4.6
33.718,16.99
33.734,29.27
33.750,40.68
33.765,50.96
33.781,60.28
33.796,69.06
33.812,77.55
33.828,85.6
33.843,92.61
33.859,97.62
33.875,99.56
33.890,97.36
33.906,90.18
33.921,77.59
33.937,59.91
33.953,38.46
33.968,15.43
33.984,-6.62
34.000,-25.46
34.015,-39.91
34.031,-50.05
34.046,-56.96
34.062,-62.13
34.078,-66.67
34.093,-71.19
34.109,-75.75
34.125,-80.2
34.140,-84.28
34.156,-87.84
34.171,-90.31
34.187,-90.99
34.203,-88.93
34.218,-83.19
34.234,-73.36
34.250,-59.93
34.265,-44.21
34.281,-28.14
34.296,-13.85
34.312,-3.03
34.328,3.31
34.343,5.1
34.359,3.01
34.375,-1.83
34.390,-8.09
34.406,-14.46
34.421,-19.73
34.437,-23.06
34.453,-23.87
34.468,-22.11
34.484,-18.03
34.500,-12.25
34.515,-5.44
34.531,1.85
34.546,9.22
34.562,16.44
34.578,23.3
34.593,29.47
34.609,34.66
34.625,38.62
34.640,41.29
34.656,42.76
34.671,43.34
34.687,43.48
34.703,43.66
34.718,44.4
34.734,46.02
34.750,48.47
34.765,51.19
34.781,53.05
34.796,52.58
34.812,48.49
34.828,40.08
34.843,27.6
34.859,12.17
34.875,-4.64
34.890,-21.34
34.906,-36.91
34.921,-50.76
34.937,-62.48
34.953,-71.47
34.968,-76.97
34.984,-78.15
35.000,-74.43
35.015,-66.02
35.031,-53.86
35.046,-39.54
35.062,-24.9
35.078,-11.57
35.093,-0.72
35.109,7.16
35.125,12.21
35.140,15.13
35.156,16.76
35.171,17.78
35.187,18.31
35.203,17.85
35.218,15.44
35.234,10.11
35.250,1.51
35.265,-9.78
35.281,-22.19
35.296,-33.65
35.312,-42.21
35.328,-46.61
35.343,-46.44
35.359,-42.19
35.375,-34.9
35.390,-25.86
35.406,-16.55
35.421,-8.2
35.437,-1.83
35.453,2.13
35.468,3.9
35.484,4.14
35.500,3.76
35.515,3.26
35.531,2.66
35.546,1.41
35.562,-1.15
35.578,-5.53
35.593,-11.82
35.609,-19.57
35.625,-27.95
35.640,-35.87
35.656,-42.28
35.671,-46.5
35.687,-48.35
35.703,-48.14
35.718,-46.62
35.734,-44.75
35.750,-43.46
35.765,-43.53
35.781,-45.41
35.796,-49.26
35.812,-54.93
35.828,-62.02
35.843,-69.93
35.859,-78.01
35.875,-85.67
35.890,-92.45
35.906,-98.09
35.921,-102.42
35.937,-105.38
35.953,-106.99
35.968,-107.51
35.984,-107.32
36.000,-106.84
36.015,-106.36
36.031,-105.9
36.046,-105.23
36.062,-104.09
36.078,-102.35
36.093,-100.19
36.109,-97.87
36.125,-95.57
36.140,-93.07
36.156,-89.61
36.171,-84.03
36.187,-75.08
36.203,-61.86
36.218,-44.12
36.234,-22.32
36.250,2.31
36.265,28.09
36.281,53.19
36.296,76.16
36.312,96.02
36.328,112.51
36.343,125.9
36.359,136.76
36.375,145.67
36.390,152.92
36.406,158.51
36.421,162.21
36.437,163.83
36.453,163.29
36.468,160.65
36.484,156.13
36.500,150.13
36.515,143.15
36.531,135.86
36.546,128.94
36.562,122.91
36.578,118.01
36.593,114.01
36.609,110.38
36.625,106.57
36.640,102.21
36.656,97.26
36.671,91.84
36.687,86.18
36.703,80.38
36.718,74.51
36.734,68.59
36.750,62.75
36.765,57.31
36.781,52.58
36.796,48.86
36.812,46.37
36.828,45.46
36.843,46.58
36.859,50.3
36.875,57.04
36.890,66.87
36.906,79.4
36.921,93.65
36.937,108.38
36.953,122.2
36.968,134.0
36.984,142.9
37.000,148.42
37.015,150.4
37.031,149.0
37.046,144.69
37.062,138.0
37.078,129.47
37.093,119.4
37.109,107.76
37.125,94.28
37.140,78.71
37.156,60.98
37.171,41.39
37.187,20.67
37.203,-0.3
37.218,-20.47
37.234,-38.93
37.250,-55.03
37.265,-68.48
37.281,-79.32
37.296,-87.79
37.312,-94.13
37.328,-98.38
37.343,-100.13
37.359,-98.56
37.375,-92.89
37.390,-83.05
37.406,-70.11
37.421,-56.46
37.437,-45.15
37.453,-38.93
37.468,-39.49
37.484,-46.79
37.500,-59.41
37.515,-75.24
37.531,-92.37
37.546,-109.53
37.562,-126.21
37.578,-142.27
37.593,-157.48
37.609,-171.46
37.625,-183.55
37.640,-193.17
37.656,-199.93
37.671,-203.72
37.687,-204.56
37.703,-202.79
37.718,-198.9
37.734,-193.45
37.750,-187.04
37.765,-179.83
37.781,-171.41
37.796,-160.83
37.812,-146.79
37.828,-128.07
37.843,-103.98
37.859,-74.21
37.875,-38.62
37.890,2.67
37.906,49.12
37.921,99.03
37.937,149.18
37.953,195.3
37.968,233.08
37.984,259.36
38.000,272.91
38.015,274.1
38.031,263.88
38.046,243.03
38.062,212.02
38.078,171.61
38.093,123.84
38.109,72.19
38.125,20.89
38.140,-26.25
38.156,-66.97
38.171,-100.78
38.187,-128.32
38.203,-150.3
38.218,-167.14
38.234,-178.65
38.250,-184.66
38.265,-185.4
38.281,-181.54
38.296,-174.04
38.312,-163.83
38.328,-151.61
38.343,-137.73
38.359,-122.45
38.375,-105.93
38.390,-88.49
38.406,-70.62
38.421,-52.97
38.437,-36.3
38.453,-21.26
38.468,-8.33
38.484,2.25
38.500,10.46
38.515,16.52
38.531,20.68
38.546,23.09
38.562,23.98
38.578,23.4
38.593,21.47
38.609,18.4
38.625,14.6
38.640,10.65
38.656,7.29
38.671,5.23
38.687,4.9
38.703,6.49
38.718,9.71
38.734,14.08
38.750,19.06
38.765,24.18
38.781,29.09
38.796,33.5
38.812,37.14
38.828,39.57
38.843,40.33
38.859,38.88
38.875,34.86
38.890,28.13
38.906,18.85
38.921,7.5
38.937,-5.13
38.953,-17.68
38.968,-28.59
38.984,-36.25
39.000,-39.61
39.015,-38.53
39.031,-33.99
39.046,-27.97
39.062,-22.76
39.078,-20.3
39.093,-21.38
39.109,-25.63
39.125,-31.61
39.140,-37.59
39.156,-42.05
39.171,-44.28
39.187,-44.54
39.203,-43.75
39.218,-43.17
39.234,-43.81
39.250,-46.27
39.265,-50.39
39.281,-55.41
39.296,-60.21
39.312,-63.38
39.328,-63.83
39.343,-60.79
39.359,-54.27
39.375,-44.97
39.390,-34.29
39.406,-23.8
39.421,-14.78
39.437,-7.91
39.453,-3.06
39.468,0.16
39.484,2.1
39.500,2.62
39.515,1.24
39.531,-2.54
39.546,-8.66
39.562,-16.24
39.578,-23.72
39.593,-29.18
39.609,-31.24
39.625,-29.48
39.640,-24.78
39.656,-18.83
39.671,-13.79
39.687,-11.57
39.703,-13.43
39.718,-19.88
39.734,-30.37
39.750,-43.4
39.765,-56.5
39.781,-66.65
39.796,-71.01
39.812,-67.8
39.828,-57.11
39.843,-40.94
39.859,-22.71
39.875,-5.64
39.890,8.19
39.906,18.51
39.921,26.38
39.937,33.24
39.953,39.99
39.968,46.6
39.984,52.36
40.000,56.38
40.015,58.29
40.031,58.22
40.046,56.86
40.062,55.07
40.078,53.55
40.093,52.64
40.109,52.39
40.125,52.6
40.140,52.94
40.156,53.28
40.171,53.54
40.187,53.86
40.203,54.49
40.218,55.47
40.234,56.55
40.250,57.21
40.265,56.8
40.281,54.86
40.296,51.4
40.312,46.75
40.328,41.49
40.343,36.02
40.359,30.3
40.375,24.05
40.390,17.09
40.406,9.66
40.421,2.57
40.437,-3.02
40.453,-6.18
40.468,-6.56
40.484,-4.69
40.500,-1.67
40.515,1.37
40.531,3.8
40.546,5.54
40.562,7.02
40.578,8.77
40.593,10.92
40.609,13.24
40.625,15.26
40.640,16.72
40.656,17.78
40.671,18.98
40.687,20.91
40.703,23.79
40.718,27.3
40.734,30.55
40.750,32.52
40.765,32.56
40.781,30.59
40.796,27.26
40.812,23.54
40.828,20.41
40.843,18.53
40.859,18.14
40.875,19.09
40.890,21.17
40.906,24.21
40.921,28.16
40.937,33.0
40.953,38.45
40.968,44.04
40.984,49.02
41.000,52.69
41.015,54.54
41.031,54.64
41.046,53.38
41.062,51.48
41.078,49.63
41.093,48.26
41.109,47.48
41.125,47.12
41.140,46.9
41.156,46.5
41.171,45.57
41.187,43.66
41.203,40.32
41.218,35.12
41.234,27.79
41.250,18.36
41.265,7.07
41.281,-5.62
41.296,-19.13
41.312,-32.9
41.328,-46.38
41.343,-58.69
41.359,-68.86
41.375,-75.84
41.390,-78.73
41.406,-77.14
41.421,-71.29
41.437,-61.9
41.453,-49.97
41.468,-36.52
41.484,-22.33
41.500,-8.12
41.515,5.43
41.531,17.59
41.546,27.51
41.562,34.32
41.578,37.25
41.593,35.77
41.609,29.65
41.625,19.17
41.640,5.08
41.656,-11.21
41.671,-27.76
41.687,-42.42
41.703,-53.2
41.718,-58.67
41.734,-58.26
41.750,-52.37
41.765,-42.12
41.781,-29.17
41.796,-15.29
41.812,-1.97
41.828,9.63
41.843,18.89
41.859,25.68
41.875,30.11
41.890,32.45
41.906,33.01
41.921,32.17
41.937,30.35
41.953,28.02
41.968,25.43
41.984,22.56
42.000,19.13
42.015,14.66
42.031,9.08
42.046,2.73
42.062,-3.54
42.078,-8.85
42.093,-12.72
42.109,-15.41
42.125,-17.65
42.140,-20.19
42.156,-23.22
42.171,-26.14
42.187,-27.74
42.203,-26.78
42.218,-22.63
42.234,-15.41
42.250,-5.93
42.265,4.77
42.281,15.72
42.296,26.31
42.312,36.29
42.328,45.51
42.343,53.87
42.359,61.16
42.375,67.14
42.390,71.5
42.406,73.93
42.421,74.03
42.437,71.39
42.453,65.73
42.468,57.01
42.484,45.74
42.500,32.86
42.515,19.82
42.531,8.06
42.546,-1.19
42.562,-7.34
42.578,-10.54
42.593,-11.48
42.609,-11.05
42.625,-10.04
42.640,-8.9
42.656,-7.68
42.671,-6.35
42.687,-4.83
42.703,-3.09
42.718,-1.27
42.734,0.43
42.750,1.82
42.765,2.79
42.781,3.35
42.796,3.6
42.812,3.65
42.828,3.62
42.843,3.49
42.859,3.22
42.875,2.68
42.890,1.66
42.906,-0.06
42.921,-2.68
42.937,-6.1
42.953,-9.84
42.968,-12.98
42.984,-14.35
43.000,-12.89
43.015,-7.98
43.031,0.21
43.046,10.85
43.062,22.66
43.078,34.4
43.093,45.07
43.109,54.13
43.125,61.37
43.140,66.85
43.156,70.7
43.171,73.1
43.187,74.2
43.203,74.03
43.218,72.5
43.234,69.55
43.250,65.26
43.265,59.99
43.281,54.38
43.296,49.13
43.312,44.79
43.328,41.69
43.343,39.74
43.359,38.47
43.375,37.11
43.390,34.62
43.406,29.91
43.421,22.07
43.437,10.67
43.453,-4.18
43.468,-21.54
43.484,-39.91
43.500,-57.57
43.515,-72.9
43.531,-84.83
43.546,-92.84
43.562,-96.93
43.578,-97.41
43.593,-94.77
43.609,-89.73
43.625,-83.03
43.640,-75.62
43.656,-68.47
43.671,-62.51
43.687,-58.33
43.703,-55.95
43.718,-54.84
43.734,-54.05
43.750,-52.67
43.765,-50.1
43.781,-46.27
43.796,-41.5
43.812,-36.26
43.828,-30.88
43.843,-25.35
43.859,-19.52
43.875,-13.09
43.890,-6.11
43.906,1.2
43.921,8.3
43.937,14.76
43.953,20.29
43.968,24.73
43.984,28.23
44.000,30.86
44.015,32.83
44.031,34.26
44.046,35.31
44.062,36.06
44.078,36.68
44.093,37.34
44.109,38.08
44.125,38.95
44.140,39.79
44.156,40.43
44.171,40.65
44.187,40.34
44.203,39.5
44.218,38.16
44.234,36.44
44.250,34.34
44.265,31.82
44.281,28.83
44.296,25.35
44.312,21.49
44.328,17.44
44.343,13.52
44.359,9.96
44.375,7.08
44.390,5.0
44.406,3.82
44.421,3.34
44.437,3.4
44.453,3.68
44.468,3.87
44.484,3.8
44.500,3.39
44.515,2.78
44.531,2.21
44.546,2.07
44.562,2.67
44.578,4.2
44.593,6.65
44.609,9.77
44.625,13.09
44.640,16.01
44.656,17.94
44.671,18.5
44.687,17.55
44.703,15.37
44.718,12.52
44.734,9.62
44.750,7.28
44.765,5.79
44.781,5.16
44.796,5.09
44.812,5.19
44.828,5.12
44.843,4.79
44.859,4.32
44.875,3.98
44.890,4.04
44.906,4.66
44.921,5.77
44.937,7.26
44.953,8.92
44.968,10.63
44.984,12.33
45.000,14.01
45.015,15.65
45.031,17.22
45.046,18.59
45.062,19.61
45.078,20.24
45.093,20.41
45.109,20.2
45.125,19.65
45.140,18.93
45.156,18.14
45.171,17.46
45.187,17.04
45.203,16.98
45.218,17.4
45.234,18.29
45.250,19.55
45.265,20.97
45.281,22.37
45.296,23.51
45.312,24.35
45.328,24.98
45.343,25.63
45.359,26.55
45.375,27.89
45.390,29.55
45.406,31.21
45.421,32.47
45.437,33.02
45.453,32.86
45.468,32.23
45.484,31.41
45.500,30.64
45.515,29.96
45.531,29.25
45.546,28.48
45.562,27.72
45.578,27.3
45.593,27.62
45.609,28.98
45.625,31.47
45.640,34.74
45.656,38.25
45.671,41.24
45.687,43.04
45.703,43.11
45.718,41.28
45.734,37.69
45.750,32.85
45.765,27.53
45.781,22.56
45.796,18.67
45.812,16.31
45.828,15.51
45.843,15.85
45.859,16.71
45.875,17.42
45.890,17.47
45.906,16.75
45.921,15.21
45.937,12.89
45.953,9.61
45.968,4.97
45.984,-1.64
46.000,-10.72
46.015,-22.41
46.031,-36.48
46.046,-52.21
46.062,-68.7
46.078,-84.78
46.093,-99.24
46.109,-111.02
46.125,-119.21
46.140,-123.47
46.156,-123.87
46.171,-120.92
46.187,-115.23
46.203,-107.39
46.218,-97.87
46.234,-87.09
46.250,-75.63
46.265,-64.05
46.281,-52.96
46.296,-42.58
46.312,-32.76
46.328,-23.02
46.343,-12.93
46.359,-2.34
46.375,8.53
46.390,19.24
46.406,29.48
46.421,39.1
46.437,48.16
46.453,56.66
46.468,64.48
46.484,71.29
46.500,76.76
46.515,80.67
46.531,83.03
46.546,84.12
46.562,84.34
46.578,84.11
46.593,83.79
46.609,83.7
46.625,84.0
46.640,84.57
46.656,84.85
46.671,83.82
46.687,80.14
46.703,72.54
46.718,60.49
46.734,44.54
46.750,26.38
46.765,8.42
46.781,-7.01
46.796,-18.39
46.812,-25.41
46.828,-28.81
46.843,-29.81
46.859,-29.41
46.875,-27.96
46.890,-25.19
46.906,-20.42
46.921,-13.16
46.937,-3.35
46.953,8.37
46.968,20.85
46.984,32.7
47.000,42.65
47.015,49.87
47.031,54.03
47.046,55.56
47.062,55.42
47.078,55.01
47.093,55.76
47.109,58.85
47.125,64.73
47.140,72.79
47.156,81.24
47.171,87.25
47.187,87.83
47.203,80.69
47.218,65.31
47.234,43.2
47.250,17.59
47.265,-7.65
47.281,-29.29
47.296,-45.63
47.312,-56.65
47.328,-63.5
47.343,-67.67
47.359,-70.34
47.375,-72.18
47.390,-73.61
47.406,-75.02
47.421,-76.87
47.437,-79.5
47.453,-82.88
47.468,-86.54
47.484,-89.66
47.500,-91.42
47.515,-91.16
47.531,-88.9
47.546,-85.12
47.562,-80.64
47.578,-76.3
47.593,-72.74
47.609,-70.18
47.625,-68.62
47.640,-68.1
47.656,-68.76
47.671,-71.0
47.687,-75.2
47.703,-81.48
47.718,-89.36
47.734,-97.91
47.750,-105.78
47.765,-111.81
47.781,-115.1
47.796,-115.28
47.812,-112.35
47.828,-106.6
47.843,-98.6
47.859,-89.15
47.875,-79.18
47.890,-69.46
47.906,-60.47
47.921,-52.1
47.937,-43.81
47.953,-34.9
47.968,-24.97
47.984,-14.21
48.000,-3.54
48.015,5.66
48.031,12.06
48.046,14.84
48.062,13.98
48.078,10.23
48.093,4.89
48.109,-0.68
48.125,-5.37
48.140,-8.49
48.156,-10.01
48.171,-10.3
48.187,-9.95
48.203,-9.59
48.218,-9.53
48.234,-9.72
48.250,-9.75
48.265,-9.17
48.281,-7.54
48.296,-4.93
48.312,-1.71
48.328,1.53
48.343,4.18
48.359,5.89
48.375,6.51
48.390,6.05
48.406,4.6
48.421,2.31
48.437,-0.52
48.453,-3.36
48.468,-5.48
48.484,-6.1
48.500,-4.59
48.515,-0.87
48.531,4.47
48.546,10.26
48.562,15.09
48.578,17.63
48.593,17.15
48.609,13.62
48.625,7.65
48.640,0.32
48.656,-7.28
48.671,-14.32
48.687,-20.27
48.703,-24.92
48.718,-28.21
48.734,-30.1
48.750,-30.61
48.765,-29.95
48.781,-28.39
48.796,-26.34
48.812,-24.25
48.828,-22.26
48.843,-20.35
48.859,-18.17
48.875,-15.34
48.890,-11.52
48.906,-6.68
48.921,-1.01
48.937,5.15
48.953,11.36
48.968,17.28
48.984,22.53
49.000,26.82
49.015,29.82
49.031,31.36
49.046,31.48
49.062,30.59
49.078,29.34
49.093,28.57
49.109,29.07
49.125,31.14
49.140,34.5
49.156,38.18
49.171,40.62
49.187,40.21
49.203,35.9
49.218,27.63
49.234,16.62
49.250,4.99
49.265,-5.03
49.281,-11.84
49.296,-15.01
49.312,-15.35
49.328,-14.28
49.343,-13.26
49.359,-13.3
49.375,-14.83
49.390,-17.78
49.406,-21.92
49.421,-26.85
49.437,-32.1
49.453,-37.02
49.468,-40.81
49.484,-42.72
49.500,-42.33
49.515,-39.6
49.531,-34.82
49.546,-28.41
49.562,-20.73
49.578,-12.18
49.593,-3.17
49.609,5.69
49.625,13.69
49.640,20.12
49.656,24.64
49.671,27.51
49.687,29.45
49.703,31.42
49.718,34.18
49.734,37.98
49.750,42.61
49.765,47.58
49.781,52.61
49.796,57.74
49.812,63.23
49.828,69.11
49.843,74.93
49.859,79.77
49.875,82.55
49.890,82.63
49.906,80.09
49.921,75.81
49.937,70.93
49.953,66.54
49.968,63.27
49.984,61.46
50.000,61.4
50.015,63.47
50.031,67.92
50.046,74.17
50.062,80.69
50.078,84.9
50.093,84.27
50.109,77.35
50.125,64.55
50.140,48.16
50.156,31.36
50.171,17.05
50.187,6.76
50.203,0.6
50.218,-2.51
50.234,-3.75
50.250,-3.81
50.265,-2.8
50.281,-0.53
50.296,2.9
50.312,6.75
50.328,9.82
50.343,10.85
50.359,9.12
50.375,4.74
50.390,-1.48
50.406,-8.44
50.421,-15.35
50.437,-22.03
50.453,-28.83
50.468,-36.19
50.484,-44.16
50.500,-52.25
50.515,-59.59
50.531,-65.35
50.546,-69.15
50.562,-71.07
50.578,-71.63
50.593,-71.36
50.609,-70.5
50.625,-69.05
50.640,-66.75
50.656,-63.42
50.671,-58.98
50.687,-53.7
50.703,-48.06
50.718,-42.81
50.734,-38.6
50.750,-35.71
50.765,-33.9
50.781,-32.4
50.796,-30.07
50.812,-26.01
50.828,-19.78
50.843,-11.72
50.859,-2.78
50.875,5.87
50.890,13.17
50.906,18.36
50.921,21.18
50.937,21.81
50.953,20.75
50.968,18.69
50.984,16.29
51.000,13.99
51.015,11.93
51.031,9.94
51.046,7.77
51.062,5.26
51.078,2.54
51.093,-0.01
51.109,-1.78
51.125,-2.19
51.140,-0.92
51.156,1.84
51.171,5.33
51.187,8.44
51.203,10.01
51.218,9.25
51.234,6.01
51.250,0.98
51.265,-4.71
51.281,-9.83
51.296,-13.49
51.312,-15.46
51.328,-16.01
51.343,-15.74
51.359,-15.28
51.375,-14.98
51.390,-14.83
51.406,-14.6
51.421,-14.04
51.437,-13.15
51.453,-12.23
51.468,-11.87
51.484,-12.76
51.500,-15.49
51.515,-20.21
51.531,-26.84
51.546,-35.09
51.562,-44.42
51.578,-54.22
51.593,-63.72
51.609,-72.05
51.625,-78.35
51.640,-81.96
51.656,-82.45
51.671,-79.71
51.687,-73.75
51.703,-64.62
51.718,-52.33
51.734,-37.06
51.750,-19.27
51.765,0.07
51.781,19.57
51.796,37.42
51.812,51.95
51.828,61.8
51.843,66.23
51.859,65.16
51.875,59.2
51.890,49.35
51.906,36.66
51.921,22.09
51.937,6.39
51.953,-9.64
51.968,-25.0
51.984,-38.36
52.000,-48.48
52.015,-54.37
52.031,-55.89
52.046,-53.77
52.062,-49.23
52.078,-43.31
52.093,-36.41
52.109,-28.33
52.125,-18.61
52.140,-7.18
52.156,5.34
52.171,17.52
52.187,27.62
52.203,34.03
52.218,35.84
52.234,33.14
52.250,27.04
52.265,19.42
52.281,12.51
52.296,8.08
52.312,6.87
52.328,8.44
52.343,11.39
52.359,14.21
52.375,15.95
52.390,16.62
52.406,16.9
52.421,17.61
52.437,19.09
52.453,20.99
52.468,22.68
52.484,23.65
52.500,23.88
52.515,23.78
52.531,23.95
52.546,24.77
52.562,26.15
52.578,27.63
52.593,28.59
52.609,28.54
52.625,27.36
52.640,25.11
52.656,21.97
52.671,18.07
52.687,13.62
52.703,8.87
52.718,4.26
52.734,0.34
52.750,-2.39
52.765,-3.72
52.781,-3.76
52.796,-2.9
52.812,-1.56
52.828,-0.11
52.843,1.15
52.859,2.02
52.875,2.33
52.890,1.94
52.906,0.8
52.921,-0.98
52.937,-3.28
52.953,-5.96
52.968,-9.01
52.984,-12.49
53.000,-16.4
53.015,-20.58
53.031,-24.79
53.046,-28.8
53.062,-32.49
53.078,-36.03
53.093,-39.54
53.109,-43.07
53.125,-46.38
53.140,-48.99
53.156,-50.2
53.171,-49.48
53.187,-46.53
53.203,-41.31
53.218,-34.08
53.234,-25.16
53.250,-14.99
53.265,-4.02
53.281,7.21
53.296,18.17
53.312,28.31
53.328,37.27
53.343,44.82
53.359,50.93
53.375,55.63
53.390,58.83
53.406,60.33
53.421,59.93
53.437,57.56
53.453,53.5
53.468,48.35
53.484,42.88
53.500,37.78
53.515,33.52
53.531,30.23
53.546,27.73
53.562,25.65
53.578,23.37
53.593,20.23
53.609,15.77
53.625,10.02
53.640,3.61
53.656,-2.22
53.671,-6.08
53.687,-6.96
53.703,-4.64
53.718,0.17
53.734,6.07
53.750,11.56
53.765,15.33
53.781,16.55
53.796,14.83
53.812,10.15
53.828,2.75
53.843,-6.84
53.859,-17.81
53.875,-29.06
53.890,-39.47
53.906,-48.13
53.921,-54.54
53.937,-58.63
53.953,-60.58
53.968,-60.57
53.984,-58.65
54.000,-54.64
54.015,-48.4
54.031,-40.0
54.046,-29.99
54.062,-19.22
54.078,-8.76
54.093,0.36
54.109,7.55
54.125,12.59
54.140,15.66
54.156,17.06
54.171,17.23
54.187,16.54
54.203,15.5
54.218,14.59
54.234,14.1
54.250,14.11
54.265,14.37
54.281,14.31
54.296,13.26
54.312,10.9
54.328,7.25
54.343,2.79
54.359,-1.7
54.375,-5.54
54.390,-8.24
54.406,-9.63
54.421,-9.79
54.437,-9.19
54.453,-8.39
54.468,-7.96
54.484,-8.44
54.500,-9.98
54.515,-12.39
54.531,-15.27
54.546,-18.16
54.562,-20.78
54.578,-23.18
54.593,-25.75
54.609,-28.95
54.625,-33.2
54.640,-38.58
54.656,-44.87
54.671,-51.59
54.687,-58.18
54.703,-64.14
54.718,-69.17
54.734,-73.17
54.750,-76.17
54.765,-78.28
54.781,-79.5
54.796,-79.75
54.812,-78.79
54.828,-76.3
54.843,-72.02
54.859,-65.83
54.875,-57.77
54.890,-48.15
54.906,-37.45
54.921,-26.28
54.937,-15.3
54.953,-5.12
54.968,3.83
54.984,11.29
55.000,17.22
55.015,21.82
55.031,25.34
55.046,28.09
55.062,30.31
55.078,32.29
55.093,34.23
55.109,36.3
55.125,38.55
55.140,40.86
55.156,43.06
55.171,44.91
55.187,46.25
55.203,47.08
55.218,47.55
55.234,47.85
55.250,48.14
55.265,48.48
55.281,48.8
55.296,49.0
55.312,48.92
55.328,48.51
55.343,47.69
55.359,46.4
55.375,44.67
55.390,42.47
55.406,39.96
55.421,37.22
55.437,34.34
55.453,31.26
55.468,27.91
55.484,24.1
55.500,19.7
55.515,14.82
55.531,9.69
55.546,4.76
55.562,0.38
55.578,-3.2
55.593,-6.0
55.609,-8.08
55.625,-9.54
55.640,-10.44
55.656,-10.66
55.671,-10.1
55.687,-8.67
55.703,-6.37
55.718,-3.29
55.734,0.3
55.750,4.13
55.765,7.99
55.781,11.68
55.796,15.18
55.812,18.46
55.828,21.61
55.843,24.68
55.859,27.7
55.875,30.59
55.890,33.2
55.906,35.37
55.921,37.0
55.937,38.08
55.953,38.62
55.968,38.75
55.984,38.48
56.000,37.68
56.015,36.02
56.031,33.09
56.046,28.53
56.062,22.19
56.078,14.22
56.093,4.96
56.109,-4.91
56.125,-14.43
56.140,-22.47
56.156,-27.94
56.171,-30.1
56.187,-28.93
56.203,-25.23
56.218,-20.26
56.234,-15.51
56.250,-12.07
56.265,-10.44
56.281,-10.48
56.296,-11.68
56.312,-13.41
56.328,-15.15
56.343,-16.52
56.359,-17.24
56.375,-17.14
56.390,-16.21
56.406,-14.68
56.421,-12.94
56.437,-11.46
56.453,-10.5
56.468,-10.21
56.484,-10.53
56.500,-11.15
56.515,-11.72
56.531,-11.82
56.546,-11.14
56.562,-9.55
56.578,-7.18
56.593,-4.34
56.609,-1.45
56.625,1.17
56.640,3.46
56.656,5.46
56.671,7.34
56.687,9.03
56.703,10.36
56.718,10.98
56.734,10.72
56.750,9.63
56.765,8.07
56.781,6.51
56.796,5.33
56.812,4.79
56.828,4.88
56.843,5.51
56.859,6.58
56.875,7.98
56.890,9.49
56.906,10.82
56.921,11.59
56.937,11.44
56.953,10.34
56.968,8.43
56.984,6.05
57.000,3.51
57.015,1.01
57.031,-1.34
57.046,-3.52
57.062,-5.41
57.078,-6.9
57.093,-7.85
57.109,-8.29
57.125,-8.4
57.140,-8.43
57.156,-8.53
57.171,-8.68
57.187,-8.77
57.203,-8.58
57.218,-8.06
57.234,-7.33
57.250,-6.71
57.265,-6.58
57.281,-7.19
57.296,-8.55
57.312,-10.31
57.328,-12.0
57.343,-13.1
57.359,-13.18
57.375,-12.09
57.390,-9.95
57.406,-7.06
57.421,-3.8
57.437,-0.52
57.453,2.56
57.468,5.35
57.484,7.84
57.500,10.03
57.515,11.88
57.531,13.35
57.546,14.41
57.562,15.06
57.578,15.32
57.593,15.25
57.609,14.91
57.625,14.33
57.640,13.46
57.656,12.29
57.671,10.83
57.687,9.19
57.703,7.59
57.718,6.27
57.734,5.36
57.750,4.9
57.765,4.73
57.781,4.5
57.796,3.94
57.812,2.88
57.828,1.44
57.843,-0.17
57.859,-1.67
57.875,-2.86
57.890,-3.72
57.906,-4.35
57.921,-4.96
57.937,-5.67
57.953,-6.55
57.968,-7.57
57.984,-8.65
58.000,-9.77
58.015,-10.98
58.031,-12.35
58.046,-13.99
58.062,-15.97
58.078,-18.26
58.093,-20.84
58.109,-23.45
58.125,-25.75
58.140,-27.28
58.156,-27.62
58.171,-26.46
58.187,-23.79
58.203,-19.93
58.218,-15.44
58.234,-10.96
58.250,-7.01
58.265,-3.82
58.281,-1.35
58.296,0.58
58.312,2.23
58.328,3.75
58.343,5.27
58.359,6.77
58.375,8.26
58.390,9.68
58.406,10.98
58.421,12.12
58.437,13.05
58.453,13.73
58.468,14.15
58.484,14.36
58.500,14.36
58.515,14.25
58.531,14.06
58.546,13.73
58.562,13.17
58.578,12.25
58.593,10.89
58.609,9.16
58.625,7.21
58.640,5.25
58.656,3.42
58.671,1.8
58.687,0.22
58.703,-1.49
58.718,-3.5
58.734,-5.78
58.750,-8.17
58.765,-10.47
58.781,-12.55
58.796,-14.35
58.812,-15.86
58.828,-17.13
58.843,-18.16
58.859,-19.02
58.875,-19.7
58.890,-20.37
58.906,-21.2
58.921,-22.38
58.937,-23.94
58.953,-25.6
58.968,-26.86
58.984,-26.99
59.000,-25.46
59.015,-22.05
59.031,-17.04
59.046,-11.14
59.062,-5.13
59.078,0.34
59.093,5.05
59.109,9.05
59.125,12.6
59.140,15.88
59.156,18.85
59.171,21.43
59.187,23.52
59.203,25.08
59.218,26.18
59.234,26.93
59.250,27.32
59.265,27.34
59.281,26.93
59.296,26.15
59.312,25.13
59.328,24.14
59.343,23.45
59.359,23.12
59.375,23.08
59.390,23.07
59.406,22.7
59.421,21.73
59.437,20.04
59.453,17.76
59.468,15.13
59.484,12.49
59.500,10.03
59.515,7.86
59.531,5.9
59.546,4.02
59.562,2.09
59.578,-0.03
59.593,-2.33
59.609,-4.75
59.625,-7.13
59.640,-9.34
59.656,-11.2
59.671,-12.71
59.687,-13.91
59.703,-14.9
59.718,-15.86
59.734,-16.91
59.750,-18.1
59.765,-19.31
59.781,-20.26
59.796,-20.39
59.812,-19.09
59.828,-15.82
59.843,-10.36
59.859,-3.02
59.875,5.44
59.890,13.9
59.906,21.3
59.921,26.94
59.937,30.67
59.953,32.75
59.968,33.74
59.984,34.16
