timestamp,value
00.000,38.7
00.015,24.9
00.031,12.49
00.046,2.72
00.062,-3.23
00.078,-4.39
00.093,-0.22
00.109,9.0
00.125,22.05
00.140,37.1
00.156,52.12
00.171,65.62
00.187,77.1
00.203,86.99
00.218,96.28
00.234,105.88
00.250,115.75
00.265,124.43
00.281,129.13
00.296,126.1
00.312,111.72
00.328,83.74
00.343,42.13
00.359,-10.3
00.375,-68.04
00.390,-124.04
00.406,-171.06
00.421,-203.34
00.437,-217.82
00.453,-214.44
00.468,-195.76
00.484,-166.09
00.500,-130.31
00.515,-93.02
00.531,-58.28
00.546,-29.26
00.562,-8.53
00.578,2.31
00.593,3.03
00.609,-4.63
00.625,-17.1
00.640,-29.75
00.656,-38.49
00.671,-41.39
00.687,-39.09
00.703,-34.2
00.718,-29.59
00.734,-26.93
00.750,-26.18
00.765,-26.41
00.781,-27.03
00.796,-28.46
00.812,-31.82
00.828,-37.53
00.843,-44.38
00.859,-49.43
00.875,-49.2
00.890,-41.5
00.906,-26.51
00.921,-6.73
00.937,14.21
00.953,32.97
00.968,47.56
00.984,57.27
01.000,62.16
01.015,62.54
01.031,58.58
01.046,50.68
01.062,39.75
01.078,27.41
01.093,15.87
01.109,7.43
01.125,3.82
01.140,5.66
01.156,12.29
01.171,22.05
01.187,33.09
01.203,44.04
01.218,54.5
01.234,64.94
01.250,76.04
01.265,87.87
01.281,99.34
01.296,108.17
01.312,111.64
01.328,107.71
01.343,95.79
01.359,76.96
01.375,53.33
01.390,27.07
01.406,-0.2
01.421,-27.5
01.437,-53.93
01.453,-78.24
01.468,-98.71
01.484,-113.71
01.500,-122.27
01.515,-124.53
01.531,-121.45
01.546,-114.29
01.562,-103.75
01.578,-89.85
01.593,-72.37
01.609,-51.73
01.625,-29.55
01.640,-8.19
01.656,10.03
01.671,24.12
01.687,34.71
01.703,43.65
01.718,52.57
01.734,61.52
01.750,68.45
01.765,70.0
01.781,63.29
01.796,47.54
01.812,24.75
01.828,-1.03
01.843,-25.16
01.859,-43.99
01.875,-55.46
01.890,-58.97
01.906,-54.7
01.921,-43.07
01.937,-24.86
01.953,-1.51
01.968,24.52
01.984,49.93
02.000,71.21
02.015,85.59
02.031,91.75
02.046,89.92
02.062,81.47
02.078,68.22
02.093,52.05
02.109,34.69
02.125,17.75
02.140,2.76
02.156,-8.78
02.171,-15.54
02.187,-16.72
02.203,-12.3
02.218,-3.14
02.234,9.19
02.250,22.91
02.265,36.56
02.281,49.27
02.296,60.78
02.312,71.27
02.328,80.66
02.343,88.26
02.359,92.45
02.375,91.08
02.390,82.05
02.406,64.19
02.421,37.77
02.437,4.63
02.453,-32.29
02.468,-69.58
02.484,-104.01
02.500,-132.98
02.515,-154.64
02.531,-168.09
02.546,-173.31
02.562,-171.0
02.578,-162.35
02.593,-148.69
02.609,-131.06
02.625,-110.19
02.640,-86.65
02.656,-61.49
02.671,-36.69
02.687,-15.11
02.703,0.29
02.718,7.72
02.734,7.59
02.750,2.75
02.765,-2.5
02.781,-4.31
02.796,-0.99
02.812,6.33
02.828,14.68
02.843,20.95
02.859,23.56
02.875,22.9
02.890,20.57
02.906,18.02
02.921,15.75
02.937,13.49
02.953,11.17
02.968,9.82
02.984,11.46
03.000,18.04
03.015,30.25
03.031,46.76
03.046,64.67
03.062,80.47
03.078,91.34
03.093,95.76
03.109,93.58
03.125,85.62
03.140,73.17
03.156,57.96
03.171,41.77
03.187,26.42
03.203,13.45
03.218,3.9
03.234,-1.78
03.250,-3.68
03.265,-2.28
03.281,1.7
03.296,7.64
03.312,15.02
03.328,23.63
03.343,33.54
03.359,44.94
03.375,57.77
03.390,71.26
03.406,83.51
03.421,91.47
03.437,91.8
03.453,81.68
03.468,60.14
03.484,28.65
03.500,-9.1
03.515,-48.14
03.531,-83.43
03.546,-111.02
03.562,-128.9
03.578,-136.86
03.593,-136.29
03.609,-129.34
03.625,-118.14
03.640,-104.39
03.656,-89.13
03.671,-72.91
03.687,-56.05
03.703,-39.08
03.718,-22.99
03.734,-9.34
03.750,0.17
03.765,4.36
03.781,3.26
03.796,-1.49
03.812,-6.89
03.828,-9.71
03.843,-8.11
03.859,-2.75
03.875,3.1
03.890,5.15
03.906,0.31
03.921,-11.61
03.937,-27.5
03.953,-42.38
03.968,-51.61
03.984,-52.74
04.000,-46.01
04.015,-33.62
04.031,-18.22
04.046,-1.83
04.062,14.42
04.078,29.87
04.093,43.72
04.109,54.88
04.125,62.31
04.140,65.59
04.156,65.32
04.171,62.94
04.187,60.22
04.203,58.62
04.218,58.87
04.234,60.68
04.250,63.13
04.265,65.1
04.281,65.86
04.296,65.47
04.312,64.73
04.328,64.87
04.343,66.97
04.359,71.43
04.375,77.89
04.390,85.6
04.406,93.82
04.421,101.93
04.437,109.22
04.453,114.38
04.468,115.33
04.484,109.6
04.500,95.17
04.515,71.4
04.531,39.51
04.546,2.25
04.562,-36.88
04.578,-74.46
04.593,-107.85
04.609,-135.23
04.625,-155.4
04.640,-167.76
04.656,-172.31
04.671,-169.66
04.687,-160.98
04.703,-147.69
04.718,-130.87
04.734,-111.3
04.750,-89.43
04.765,-65.77
04.781,-41.54
04.796,-18.64
04.812,0.43
04.828,13.29
04.843,18.59
04.859,16.83
04.875,10.26
04.890,2.18
04.906,-4.46
04.921,-8.53
04.937,-11.09
04.953,-14.75
04.968,-22.06
04.984,-33.97
05.000,-49.11
05.015,-64.33
05.031,-76.01
05.046,-81.55
05.062,-80.01
05.078,-71.73
05.093,-57.55
05.109,-38.13
05.125,-13.92
05.140,14.14
05.156,44.04
05.171,72.48
05.187,95.38
05.203,109.01
05.218,111.17
05.234,101.88
05.250,83.48
05.265,60.05
05.281,36.11
05.296,15.59
05.312,0.86
05.328,-7.31
05.343,-9.42
05.359,-6.53
05.375,0.32
05.390,10.26
05.406,22.51
05.421,35.92
05.437,48.99
05.453,60.03
05.468,67.8
05.484,71.99
05.500,73.28
05.515,72.73
05.531,70.87
05.546,67.02
05.562,59.15
05.578,44.72
05.593,21.92
05.609,-9.11
05.625,-45.96
05.640,-84.66
05.656,-120.96
05.671,-151.84
05.687,-175.93
05.703,-193.17
05.718,-203.84
05.734,-207.58
05.750,-203.23
05.765,-189.32
05.781,-165.08
05.796,-131.2
05.812,-89.91
05.828,-44.28
05.843,2.48
05.859,47.43
05.875,87.9
05.890,121.31
05.906,145.39
05.921,158.78
05.937,161.65
05.953,155.83
05.968,144.37
05.984,130.33
06.000,115.56
06.015,100.26
06.031,83.42
06.046,63.87
06.062,41.29
06.078,16.75
06.093,-7.6
06.109,-28.98
06.125,-44.72
06.140,-52.84
06.156,-52.53
06.171,-44.6
06.187,-31.31
06.203,-15.93
06.218,-1.74
06.234,8.92
06.250,15.21
06.265,17.65
06.281,17.47
06.296,16.03
06.312,14.24
06.328,12.69
06.343,11.87
06.359,12.35
06.375,14.53
06.390,18.48
06.406,23.72
06.421,29.63
06.437,35.88
06.453,42.64
06.468,50.47
06.484,59.98
06.500,71.13
06.515,82.89
06.531,93.58
06.546,101.32
06.562,104.91
06.578,104.35
06.593,100.73
06.609,95.7
06.625,90.6
06.640,85.49
06.656,79.03
06.671,68.8
06.687,52.17
06.703,27.32
06.718,-6.04
06.734,-46.35
06.750,-90.15
06.765,-132.49
06.781,-168.06
06.796,-192.48
06.812,-203.56
06.828,-202.07
06.843,-191.13
06.859,-174.8
06.875,-156.51
06.890,-137.81
06.906,-118.34
06.921,-96.66
06.937,-71.58
06.953,-42.97
06.968,-12.31
06.984,17.75
07.000,44.05
07.015,63.48
07.031,74.01
07.046,75.11
07.062,68.17
07.078,56.23
07.093,42.93
07.109,30.85
07.125,20.56
07.140,10.48
07.156,-1.84
07.171,-17.76
07.187,-36.48
07.203,-55.22
07.218,-70.69
07.234,-80.74
07.250,-85.44
07.265,-86.38
07.281,-85.25
07.296,-82.46
07.312,-76.61
07.328,-65.61
07.343,-48.2
07.359,-25.27
07.375,0.23
07.390,24.39
07.406,43.96
07.421,57.56
07.437,65.53
07.453,69.32
07.468,70.36
07.484,69.42
07.500,66.66
07.515,61.96
07.531,55.57
07.546,48.42
07.562,42.01
07.578,37.73
07.593,36.41
07.609,37.98
07.625,41.53
07.640,45.8
07.656,49.65
07.671,52.4
07.687,54.06
07.703,55.14
07.718,56.19
07.734,57.37
07.750,57.96
07.765,56.37
07.781,50.42
07.796,38.19
07.812,18.91
07.828,-6.64
07.843,-36.19
07.859,-66.8
07.875,-95.82
07.890,-121.41
07.906,-142.52
07.921,-158.45
07.937,-168.38
07.953,-171.41
07.968,-167.04
07.984,-155.72
08.000,-138.81
08.015,-118.03
08.031,-94.57
08.046,-68.88
08.062,-41.14
08.078,-12.21
08.093,15.71
08.109,39.59
08.125,56.92
08.140,67.08
08.156,71.68
08.171,73.33
08.187,73.69
08.203,72.11
08.218,66.2
08.234,53.77
08.250,34.76
08.265,12.2
08.281,-9.09
08.296,-24.76
08.312,-32.84
08.328,-34.18
08.343,-31.32
08.359,-26.46
08.375,-20.35
08.390,-12.33
08.406,-1.45
08.421,12.29
08.437,27.41
08.453,41.42
08.468,51.94
08.484,57.59
08.500,58.53
08.515,56.03
08.531,52.04
08.546,48.41
08.562,46.31
08.578,46.04
08.593,47.3
08.609,49.45
08.625,51.98
08.640,54.71
08.656,57.72
08.671,61.22
08.687,65.38
08.703,70.1
08.718,75.01
08.734,79.67
08.750,83.65
08.765,86.59
08.781,88.06
08.796,87.36
08.812,83.6
08.828,75.85
08.843,63.36
08.859,45.78
08.875,23.17
08.890,-4.17
08.906,-35.94
08.921,-71.61
08.937,-110.13
08.953,-149.32
08.968,-185.7
08.984,-214.82
09.000,-232.47
09.015,-235.8
09.031,-224.37
09.046,-200.3
09.062,-167.48
09.078,-130.45
09.093,-93.31
09.109,-59.17
09.125,-29.79
09.140,-5.98
09.156,12.36
09.171,26.17
09.187,36.89
09.203,46.12
09.218,54.61
09.234,61.81
09.250,65.93
09.265,65.12
09.281,58.52
09.296,47.08
09.312,33.2
09.328,19.54
09.343,8.07
09.359,-0.53
09.375,-6.31
09.390,-9.29
09.406,-8.98
09.421,-4.57
09.437,4.19
09.453,16.45
09.468,30.21
09.484,43.06
09.500,53.07
09.515,59.35
09.531,62.05
09.546,61.85
09.562,59.54
09.578,55.79
09.593,51.11
09.609,45.86
09.625,40.45
09.640,35.35
09.656,31.11
09.671,28.33
09.687,27.59
09.703,29.19
09.718,32.96
09.734,38.09
09.750,43.26
09.765,47.13
09.781,48.94
09.796,48.92
09.812,48.27
09.828,48.24
09.843,49.26
09.859,50.01
09.875,47.49
09.890,38.17
09.906,19.65
09.921,-7.88
09.937,-41.34
09.953,-75.61
09.968,-105.41
09.984,-126.93
10.000,-138.73
10.015,-141.45
10.031,-136.75
10.046,-126.43
10.062,-111.85
10.078,-94.1
10.093,-74.45
10.109,-54.45
10.125,-35.53
10.140,-18.39
10.156,-2.73
10.171,12.53
10.187,28.2
10.203,43.94
10.218,57.93
10.234,67.54
10.250,70.75
10.265,67.47
10.281,60.11
10.296,52.71
10.312,49.06
10.328,50.73
10.343,56.04
10.359,60.73
10.375,59.85
10.390,50.07
10.406,31.31
10.421,6.61
10.437,-19.1
10.453,-40.96
10.468,-55.68
10.484,-62.1
10.500,-60.71
10.515,-52.71
10.531,-39.37
10.546,-21.87
10.562,-1.68
10.578,19.1
10.593,37.74
10.609,51.43
10.625,58.13
10.640,57.31
10.656,50.04
10.671,38.68
10.687,26.08
10.703,14.85
10.718,6.94
10.734,3.4
10.750,4.48
10.765,9.88
10.781,18.77
10.796,29.99
10.812,42.09
10.828,53.59
10.843,63.41
10.859,71.17
10.875,77.35
10.890,82.86
10.906,88.53
10.921,94.16
10.937,98.13
10.953,97.55
10.968,88.96
10.984,69.65
11.000,38.81
11.015,-2.01
11.031,-48.95
11.046,-96.67
11.062,-139.66
11.078,-173.39
11.093,-195.1
11.109,-204.28
11.125,-202.37
11.140,-192.12
11.156,-176.72
11.171,-158.82
11.187,-139.87
11.203,-120.1
11.218,-98.87
11.234,-75.54
11.250,-50.55
11.265,-25.68
11.281,-3.77
11.296,12.42
11.312,21.59
11.328,24.64
11.343,24.27
11.359,23.66
11.375,24.7
11.390,27.22
11.406,29.56
11.421,30.14
11.437,28.65
11.453,26.21
11.468,24.17
11.484,22.73
11.500,20.54
11.515,15.75
11.531,7.82
11.546,-1.22
11.562,-7.15
11.578,-5.73
11.593,5.06
11.609,23.63
11.625,45.33
11.640,64.63
11.656,77.35
11.671,82.07
11.687,79.88
11.703,73.22
11.718,64.38
11.734,54.75
11.750,44.75
11.765,34.16
11.781,22.91
11.796,11.31
11.812,0.26
11.828,-8.9
11.843,-14.74
11.859,-15.67
11.875,-10.1
11.890,3.32
11.906,24.88
11.921,53.07
11.937,84.06
11.953,112.36
11.968,132.6
11.984,141.43
12.000,138.86
12.015,127.83
12.031,112.31
12.046,94.94
12.062,75.93
12.078,53.35
12.093,25.14
12.109,-8.99
12.125,-46.72
12.140,-83.95
12.156,-116.73
12.171,-142.81
12.187,-162.02
12.203,-175.15
12.218,-182.56
12.234,-183.39
12.250,-175.91
12.265,-159.03
12.281,-133.73
12.296,-103.53
12.312,-73.7
12.328,-49.44
12.343,-33.87
12.359,-27.07
12.375,-26.45
12.390,-28.31
12.406,-29.63
12.421,-29.2
12.437,-27.32
12.453,-25.04
12.468,-23.15
12.484,-21.72
12.500,-20.37
12.515,-18.66
12.531,-16.23
12.546,-12.92
12.562,-8.47
12.578,-2.53
12.593,5.12
12.609,14.18
12.625,23.67
12.640,32.14
12.656,38.15
12.671,41.26
12.687,42.34
12.703,43.58
12.718,47.72
12.734,56.76
12.750,70.79
12.765,87.38
12.781,102.14
12.796,110.48
12.812,109.77
12.828,100.68
12.843,86.96
12.859,73.68
12.875,64.72
12.890,61.18
12.906,61.61
12.921,63.59
12.937,65.88
12.953,69.32
12.968,75.8
12.984,86.08
13.000,98.01
13.015,106.29
13.031,104.4
13.046,87.67
13.062,55.66
13.078,12.5
13.093,-34.73
13.109,-79.01
13.125,-115.9
13.140,-144.12
13.156,-164.67
13.171,-179.13
13.187,-188.17
13.203,-191.34
13.218,-187.95
13.234,-177.8
13.250,-161.57
13.265,-140.54
13.281,-115.99
13.296,-88.89
13.312,-60.14
13.328,-31.13
13.343,-3.91
13.359,19.02
13.375,35.6
13.390,45.18
13.406,48.95
13.421,49.7
13.437,50.84
13.453,54.78
13.468,61.53
13.484,68.16
13.500,69.91
13.515,62.4
13.531,43.92
13.546,16.5
13.562,-14.5
13.578,-42.37
13.593,-61.19
13.609,-67.36
13.625,-60.27
13.640,-42.08
13.656,-16.9
13.671,9.87
13.687,32.49
13.703,46.24
13.718,48.76
13.734,41.1
13.750,27.65
13.765,14.49
13.781,6.84
13.796,7.04
13.812,13.96
13.828,24.14
13.843,33.92
13.859,40.97
13.875,44.81
13.890,46.49
13.906,47.56
13.921,49.54
13.937,53.96
13.953,62.79
13.968,78.25
13.984,102.06
14.000,133.6
14.015,168.58
14.031,199.37
14.046,217.16
14.062,215.59
14.078,193.33
14.093,154.77
14.109,107.94
14.125,60.94
14.140,18.77
14.156,-18.04
14.171,-52.23
14.187,-87.3
14.203,-124.69
14.218,-162.7
14.234,-196.96
14.250,-222.19
14.265,-234.15
14.281,-230.91
14.296,-212.92
14.312,-182.58
14.328,-143.62
14.343,-100.49
14.359,-58.04
14.375,-20.91
14.390,7.03
14.406,23.37
14.421,27.81
14.437,22.42
14.453,11.19
14.468,-1.63
14.484,-13.35
14.500,-24.04
14.515,-36.01
14.531,-51.98
14.546,-73.05
14.562,-97.32
14.578,-120.2
14.593,-136.12
14.609,-140.62
14.625,-131.79
14.640,-110.83
14.656,-81.15
14.671,-47.57
14.687,-15.22
14.703,11.02
14.718,27.22
14.734,31.32
14.750,24.0
14.765,9.03
14.781,-7.8
14.796,-20.75
14.812,-26.38
14.828,-24.91
14.843,-19.71
14.859,-15.66
14.875,-16.6
14.890,-23.4
14.906,-33.47
14.921,-41.89
14.937,-43.75
14.953,-36.26
14.968,-19.72
14.984,3.23
15.000,28.59
15.015,52.36
15.031,70.66
15.046,79.71
15.062,76.4
15.078,59.82
15.093,33.19
15.109,4.21
15.125,-17.22
15.140,-23.76
15.156,-15.3
15.171,0.04
15.187,9.79
15.203,4.2
15.218,-17.59
15.234,-45.86
15.250,-64.9
15.265,-61.02
15.281,-29.6
15.296,22.73
15.312,81.67
15.328,131.96
15.343,163.85
15.359,175.32
15.375,171.02
15.390,158.34
15.406,143.6
15.421,130.0
15.437,117.39
15.453,103.75
15.468,86.82
15.484,65.66
15.500,40.87
15.515,14.24
15.531,-12.43
15.546,-38.22
15.562,-62.88
15.578,-86.06
15.593,-105.94
15.609,-118.95
15.625,-120.74
15.640,-108.09
15.656,-80.99
15.671,-43.6
15.687,-3.19
15.703,32.39
15.718,57.36
15.734,70.02
15.750,72.52
15.765,69.31
15.781,64.82
15.796,61.82
15.812,60.8
15.828,60.53
15.843,59.25
15.859,55.56
15.875,49.35
15.890,41.93
15.906,35.64
15.921,32.96
15.937,35.44
15.953,42.85
15.968,53.05
15.984,62.94
16.000,69.56
16.015,71.44
16.031,69.03
16.046,64.23
16.062,59.12
16.078,54.66
16.093,50.3
16.109,44.35
16.125,35.34
16.140,22.91
16.156,8.2
16.171,-6.93
16.187,-20.94
16.203,-33.47
16.218,-45.53
16.234,-58.58
16.250,-73.63
16.265,-90.37
16.281,-107.36
16.296,-122.47
16.312,-133.86
16.328,-140.4
16.343,-141.67
16.359,-137.78
16.375,-129.08
16.390,-116.18
16.406,-100.16
16.421,-82.73
16.437,-65.88
16.453,-51.34
16.468,-39.85
16.484,-30.74
16.500,-22.16
16.515,-12.04
16.531,0.77
16.546,15.44
16.562,29.14
16.578,38.03
16.593,38.93
16.609,30.74
16.625,15.25
16.640,-3.68
16.656,-21.35
16.671,-33.87
16.687,-39.08
16.703,-36.61
16.718,-27.32
16.734,-12.53
16.750,6.19
16.765,27.19
16.781,48.32
16.796,67.23
16.812,81.6
16.828,89.82
16.843,91.44
16.859,87.17
16.875,78.62
16.890,67.66
16.906,55.97
16.921,44.75
16.937,34.78
16.953,26.66
16.968,21.02
16.984,18.58
17.000,19.83
17.015,24.71
17.031,32.34
17.046,41.22
17.062,49.77
17.078,56.91
17.093,62.45
17.109,66.9
17.125,70.94
17.140,74.5
17.156,76.3
17.171,74.05
17.187,65.32
17.203,48.75
17.218,24.77
17.234,-4.31
17.250,-35.25
17.265,-64.89
17.281,-90.91
17.296,-112.08
17.312,-127.59
17.328,-136.8
17.343,-139.03
17.359,-134.14
17.375,-123.01
17.390,-107.65
17.406,-90.58
17.421,-73.73
17.437,-57.87
17.453,-42.72
17.468,-28.1
17.484,-14.73
17.500,-4.4
17.515,0.95
17.531,0.84
17.546,-3.07
17.562,-7.21
17.578,-7.87
17.593,-3.03
17.609,6.36
17.625,16.8
17.640,23.89
17.656,24.22
17.671,16.73
17.687,2.77
17.703,-14.62
17.718,-31.89
17.734,-45.79
17.750,-53.89
17.765,-54.82
17.781,-48.06
17.796,-34.04
17.812,-13.94
17.828,10.36
17.843,36.37
17.859,61.29
17.875,82.26
17.890,96.89
17.906,103.57
17.921,102.06
17.937,93.31
17.953,79.43
17.968,62.86
17.984,45.87
18.000,30.12
18.015,16.61
18.031,5.98
18.046,-1.41
18.062,-5.34
18.078,-5.77
18.093,-2.91
18.109,2.87
18.125,11.11
18.140,21.53
18.156,33.88
18.171,47.75
18.187,61.94
18.203,74.17
18.218,81.3
18.234,80.23
18.250,69.3
18.265,49.04
18.281,22.29
18.296,-7.06
18.312,-35.34
18.328,-60.28
18.343,-81.09
18.359,-97.57
18.375,-109.26
18.390,-115.07
18.406,-113.91
18.421,-105.6
18.437,-91.7
18.453,-75.21
18.468,-59.53
18.484,-47.14
18.500,-38.93
18.515,-34.41
18.531,-32.5
18.546,-32.39
18.562,-33.76
18.578,-36.35
18.593,-39.55
18.609,-42.29
18.625,-43.56
18.640,-43.23
18.656,-42.22
18.671,-42.05
18.687,-43.64
18.703,-46.69
18.718,-49.67
18.734,-50.8
18.750,-49.1
18.765,-44.86
18.781,-39.08
18.796,-32.44
18.812,-24.52
18.828,-13.92
18.843,0.74
18.859,19.69
18.875,41.47
18.890,63.31
18.906,82.26
18.921,96.15
18.937,104.21
18.953,106.83
18.968,105.16
18.984,100.63
19.000,94.66
19.015,88.34
19.031,82.29
19.046,76.73
19.062,71.45
19.078,66.21
19.093,61.06
19.109,56.22
19.125,51.93
19.140,48.11
19.156,44.27
19.171,39.7
19.187,34.16
19.203,28.24
19.218,23.22
19.234,20.2
19.250,18.92
19.265,17.21
19.281,11.42
19.296,-2.11
19.312,-25.25
19.328,-56.99
19.343,-93.43
19.359,-129.03
19.375,-158.2
19.390,-176.73
19.406,-182.43
19.421,-175.13
19.437,-156.33
19.453,-128.87
19.468,-96.48
19.484,-63.14
19.500,-32.43
19.515,-6.69
19.531,13.37
19.546,28.58
19.562,40.46
19.578,50.25
19.593,57.98
19.609,62.46
19.625,62.03
19.640,55.81
19.656,44.72
19.671,31.39
19.687,18.99
19.703,9.4
19.718,2.11
19.734,-5.58
19.750,-16.72
19.765,-32.58
19.781,-51.55
19.796,-69.67
19.812,-82.7
19.828,-88.15
19.843,-86.11
19.859,-78.39
19.875,-66.91
19.890,-52.31
19.906,-34.01
19.921,-11.23
19.937,15.69
19.953,44.66
19.968,72.28
19.984,95.2
20.000,111.18
20.015,119.7
20.031,121.64
20.046,118.62
20.062,112.13
20.078,103.22
20.093,92.46
20.109,80.09
20.125,66.58
20.140,52.88
20.156,40.56
20.171,31.35
20.187,26.65
20.203,26.6
20.218,30.07
20.234,34.94
20.250,38.96
20.265,40.84
20.281,40.56
20.296,39.06
20.312,37.07
20.328,34.19
20.343,28.59
20.359,17.83
20.375,0.36
20.390,-23.47
20.406,-51.11
20.421,-78.86
20.437,-103.14
20.453,-121.45
20.468,-132.56
20.484,-135.9
20.500,-131.09
20.515,-117.99
20.531,-97.4
20.546,-71.47
20.562,-43.92
20.578,-18.87
20.593,0.57
20.609,13.41
20.625,21.04
20.640,26.06
20.656,30.85
20.671,36.13
20.687,40.86
20.703,42.86
20.718,40.22
20.734,32.58
20.750,21.36
20.765,9.35
20.781,-0.51
20.796,-6.42
20.812,-8.65
20.828,-9.32
20.843,-11.61
20.859,-18.3
20.875,-30.39
20.890,-46.68
20.906,-64.14
20.921,-79.19
20.937,-88.94
20.953,-91.95
20.968,-88.08
20.984,-77.94
21.000,-62.13
21.015,-41.15
21.031,-15.83
21.046,12.29
21.062,40.62
21.078,66.08
21.093,85.98
21.109,98.86
21.125,104.68
21.140,104.8
21.156,101.18
21.171,95.83
21.187,90.45
21.203,85.95
21.218,82.53
21.234,79.73
21.250,76.81
21.265,73.13
21.281,68.54
21.296,63.42
21.312,58.42
21.328,54.21
21.343,51.25
21.359,49.76
21.375,49.56
21.390,49.82
21.406,48.8
21.421,43.96
21.437,32.72
21.453,13.35
21.468,-14.04
21.484,-47.36
21.500,-83.17
21.515,-117.71
21.531,-147.81
21.546,-171.1
21.562,-185.71
21.578,-190.03
21.593,-182.98
21.609,-164.76
21.625,-137.59
21.640,-105.49
21.656,-73.09
21.671,-44.15
21.687,-20.35
21.703,-1.14
21.718,15.29
21.734,30.7
21.750,45.65
21.765,59.01
21.781,68.41
21.796,71.31
21.812,66.24
21.828,53.59
21.843,35.67
21.859,16.02
21.875,-1.84
21.890,-15.49
21.906,-24.13
21.921,-28.26
21.937,-29.06
21.953,-27.82
21.968,-25.85
21.984,-24.59
22.000,-25.51
22.015,-29.4
22.031,-35.61
22.046,-41.65
22.062,-43.73
22.078,-38.41
22.093,-24.17
22.109,-2.3
22.125,23.64
22.140,49.18
22.156,70.73
22.171,86.34
22.187,95.63
22.203,98.97
22.218,96.7
22.234,88.99
22.250,76.3
22.265,59.88
22.281,41.9
22.296,25.22
22.312,12.48
22.328,5.38
22.343,4.32
22.359,8.26
22.375,15.34
22.390,23.41
22.406,30.57
22.421,35.56
22.437,37.89
22.453,37.71
22.468,35.87
22.484,33.65
22.500,32.18
22.515,31.98
22.531,32.29
22.546,30.94
22.562,25.14
22.578,12.37
22.593,-8.55
22.609,-36.88
22.625,-70.04
22.640,-104.21
22.656,-135.05
22.671,-158.4
22.687,-171.11
22.703,-171.54
22.718,-160.07
22.734,-139.18
22.750,-112.9
22.765,-85.7
22.781,-61.14
22.796,-40.88
22.812,-24.45
22.828,-10.2
22.843,3.49
22.859,17.15
22.875,29.95
22.890,40.34
22.906,46.82
22.921,48.75
22.937,46.49
22.953,41.17
22.968,34.15
22.984,26.83
23.000,20.52
23.015,16.61
23.031,16.45
23.046,20.57
23.062,28.16
23.078,36.81
23.093,43.4
23.109,45.37
23.125,42.23
23.140,35.87
23.156,29.66
23.171,26.92
23.187,29.16
23.203,35.72
23.218,44.28
23.234,52.44
23.250,58.8
23.265,63.41
23.281,67.05
23.296,70.26
23.312,72.56
23.328,72.55
23.343,68.57
23.359,59.55
23.375,45.82
23.390,29.12
23.406,12.25
23.421,-2.01
23.437,-11.77
23.453,-16.7
23.468,-17.89
23.484,-17.09
23.500,-15.84
23.515,-14.76
23.531,-13.52
23.546,-11.17
23.562,-7.0
23.578,-0.97
23.593,5.95
23.609,11.78
23.625,13.88
23.640,9.17
23.656,-5.12
23.671,-30.73
23.687,-67.31
23.703,-111.64
23.718,-157.56
23.734,-196.95
23.750,-221.97
23.765,-227.37
23.781,-212.56
23.796,-181.6
23.812,-141.56
23.828,-99.61
23.843,-60.42
23.859,-25.02
23.875,8.32
23.890,41.76
23.906,75.81
23.921,108.15
23.937,134.67
23.953,151.32
23.968,156.13
23.984,150.06
24.000,136.32
24.015,118.85
24.031,100.67
24.046,83.25
24.062,66.49
24.078,49.49
24.093,31.09
24.109,10.46
24.125,-12.51
24.140,-36.79
24.156,-59.98
24.171,-78.85
24.187,-90.37
24.203,-92.85
24.218,-86.68
24.234,-74.04
24.250,-57.87
24.265,-40.73
24.281,-24.13
24.296,-8.6
24.312,5.46
24.328,17.33
24.343,25.87
24.359,30.33
24.375,31.21
24.390,30.58
24.406,31.51
24.421,36.75
24.437,47.72
24.453,63.8
24.468,82.59
24.484,100.68
24.500,114.78
24.515,122.67
24.531,123.84
24.546,119.51
24.562,112.14
24.578,104.81
24.593,100.31
24.609,100.31
24.625,104.81
24.640,111.97
24.656,118.68
24.671,121.54
24.687,117.98
24.703,107.08
24.718,89.75
24.734,68.24
24.750,45.36
24.765,23.58
24.781,4.53
24.796,-11.26
24.812,-24.12
24.828,-35.1
24.843,-45.47
24.859,-56.53
24.875,-69.45
24.890,-85.06
24.906,-103.65
24.921,-124.75
24.937,-146.67
24.953,-166.37
24.968,-179.81
24.984,-182.97
25.000,-173.48
25.015,-151.94
25.031,-122.29
25.046,-90.71
25.062,-63.44
25.078,-44.42
25.093,-33.99
25.109,-29.19
25.125,-25.78
25.140,-20.53
25.156,-12.84
25.171,-4.57
25.187,1.39
25.203,2.85
25.218,-0.51
25.234,-7.27
25.250,-15.29
25.265,-23.03
25.281,-30.08
25.296,-36.74
25.312,-43.01
25.328,-47.85
25.343,-49.19
25.359,-44.87
25.375,-33.88
25.390,-17.4
25.406,1.45
25.421,18.53
25.437,30.66
25.453,36.95
25.468,39.3
25.484,41.31
25.500,46.45
25.515,56.14
25.531,68.9
25.546,81.25
25.562,89.51
25.578,91.73
25.593,88.42
25.609,82.04
25.625,75.45
25.640,70.72
25.656,68.54
25.671,68.52
25.687,69.88
25.703,71.49
25.718,71.67
25.734,67.78
25.750,56.68
25.765,35.79
25.781,4.4
25.796,-35.68
25.812,-80.31
25.828,-124.21
25.843,-162.22
25.859,-190.41
25.875,-206.51
25.890,-210.03
25.906,-202.1
25.921,-185.32
25.937,-163.5
25.953,-141.0
25.968,-121.55
25.984,-107.39
26.000,-98.75
26.015,-94.0
26.031,-90.73
26.046,-86.73
26.062,-80.74
26.078,-72.88
26.093,-64.25
26.109,-56.04
26.125,-48.71
26.140,-41.77
26.156,-33.96
26.171,-24.28
26.187,-12.95
26.203,-1.76
26.218,6.3
26.234,8.33
26.250,2.93
26.265,-8.91
26.281,-24.02
26.296,-38.27
26.312,-48.11
26.328,-51.8
26.343,-49.83
26.359,-44.68
26.375,-39.81
26.390,-38.47
26.406,-42.56
26.421,-51.94
26.437,-64.43
26.453,-76.59
26.468,-84.87
26.484,-86.48
26.500,-80.17
26.515,-66.28
26.531,-46.45
26.546,-23.11
26.562,1.0
26.578,23.4
26.593,42.14
26.609,56.1
26.625,65.32
26.640,70.68
26.656,73.51
26.671,74.91
26.687,75.29
26.703,74.18
26.718,70.45
26.734,62.6
26.750,49.15
26.765,29.3
26.781,3.36
26.796,-27.08
26.812,-59.12
26.828,-89.22
26.843,-113.97
26.859,-130.72
26.875,-138.04
26.890,-135.62
26.906,-123.99
26.921,-104.12
26.937,-77.13
26.953,-44.16
26.968,-6.66
26.984,33.57
27.000,74.32
27.015,113.18
27.031,147.99
27.046,177.26
27.062,200.54
27.078,218.17
27.093,231.15
27.109,240.65
27.125,247.62
27.140,252.75
27.156,256.49
27.171,259.02
27.187,260.22
27.203,259.58
27.218,256.16
27.234,249.16
27.250,238.22
27.265,223.99
27.281,208.23
27.296,193.38
27.312,181.69
27.328,174.45
27.343,171.49
27.359,171.13
27.375,170.98
27.390,168.69
27.406,162.73
27.421,152.84
27.437,139.92
27.453,125.49
27.468,111.11
27.484,97.91
27.500,86.3
27.515,76.11
27.531,66.81
27.546,57.79
27.562,48.79
27.578,39.96
27.593,31.98
27.609,25.92
27.625,23.15
27.640,25.05
27.656,32.54
27.671,45.72
27.687,63.24
27.703,82.58
27.718,100.42
27.734,113.54
27.750,119.69
27.765,117.96
27.781,108.88
27.796,94.14
27.812,76.13
27.828,57.26
27.843,39.77
27.859,25.35
27.875,15.24
27.890,10.56
27.906,12.42
27.921,22.04
27.937,40.19
27.953,66.34
27.968,97.77
27.984,129.57
28.000,155.5
28.015,169.72
28.031,168.66
28.046,151.75
28.062,121.25
28.078,80.97
28.093,35.14
28.109,-12.49
28.125,-58.73
28.140,-100.95
28.156,-137.17
28.171,-166.15
28.187,-187.89
28.203,-203.58
28.218,-215.3
28.234,-225.17
28.250,-234.6
28.265,-243.83
28.281,-252.23
28.296,-258.86
28.312,-263.18
28.328,-265.4
28.343,-266.54
28.359,-268.1
28.375,-272.0
28.390,-280.18
28.406,-294.15
28.421,-313.82
28.437,-336.45
28.453,-356.21
28.468,-365.42
28.484,-357.06
28.500,-327.58
28.515,-278.77
28.531,-216.85
28.546,-149.83
28.562,-84.22
28.578,-23.13
28.593,33.03
28.609,84.35
28.625,128.99
28.640,162.68
28.656,180.36
28.671,179.05
28.687,160.05
28.703,128.75
28.718,92.43
28.734,56.95
28.750,24.71
28.765,-5.09
28.781,-34.55
28.796,-65.04
28.812,-96.3
28.828,-127.19
28.843,-157.24
28.859,-187.69
28.875,-220.86
28.890,-258.1
28.906,-297.28
28.921,-332.13
28.937,-353.91
28.953,-354.98
28.968,-332.07
28.984,-288.04
29.000,-230.88
29.015,-171.35
29.031,-119.77
29.046,-82.71
29.062,-61.59
29.078,-53.17
29.093,-51.47
29.109,-50.07
29.125,-44.22
29.140,-31.55
29.156,-12.84
29.171,8.05
29.187,27.49
29.203,43.91
29.218,57.85
29.234,71.12
29.250,85.89
29.265,104.1
29.281,127.67
29.296,156.22
29.312,183.88
29.328,202.59
29.343,204.9
29.359,186.02
29.375,146.54
29.390,93.53
29.406,38.56
29.421,-5.21
29.437,-29.64
29.453,-37.53
29.468,-35.87
29.484,-30.21
29.500,-23.44
29.515,-14.76
29.531,-1.29
29.546,19.22
29.562,48.84
29.578,87.06
29.593,127.5
29.609,166.19
29.625,204.07
29.640,242.73
29.656,282.31
29.671,320.4
29.687,336.99
29.703,316.44
29.718,279.79
29.734,239.21
29.750,193.97
29.765,149.82
29.781,113.45
29.796,90.09
29.812,81.96
29.828,88.03
29.843,106.88
29.859,135.17
29.875,163.74
29.890,185.0
29.906,195.72
29.921,194.96
29.937,184.36
29.953,167.47
29.968,148.09
29.984,130.14
30.000,114.18
30.015,93.74
30.031,62.72
30.046,20.07
30.062,-30.22
30.078,-79.67
30.093,-118.45
30.109,-139.91
30.125,-142.0
30.140,-128.23
30.156,-107.03
30.171,-84.85
30.187,-63.22
30.203,-41.08
30.218,-17.65
30.234,5.45
30.250,24.22
30.265,34.94
30.281,36.28
30.296,29.53
30.312,18.86
30.328,9.13
30.343,2.85
30.359,-0.42
30.375,-2.57
30.390,-4.79
30.406,-6.31
30.421,-5.04
30.437,0.33
30.453,9.35
30.468,19.53
30.484,27.23
30.500,29.33
30.515,24.66
30.531,14.53
30.546,1.72
30.562,-10.67
30.578,-20.38
30.593,-26.6
30.609,-29.73
30.625,-31.3
30.640,-33.68
30.656,-40.0
30.671,-53.07
30.687,-73.9
30.703,-99.71
30.718,-123.12
30.734,-133.88
30.750,-122.99
30.765,-87.6
30.781,-33.94
30.796,23.8
30.812,68.7
30.828,87.71
30.843,76.93
30.859,42.47
30.875,-2.9
30.890,-45.44
30.906,-75.43
30.921,-89.34
30.937,-89.1
30.953,-79.32
30.968,-64.84
30.984,-49.12
31.000,-34.0
31.015,-20.34
31.031,-8.59
31.046,0.46
31.062,5.69
31.078,5.94
31.093,0.72
31.109,-9.1
31.125,-21.29
31.140,-32.8
31.156,-41.22
31.171,-45.53
31.187,-46.39
31.203,-45.42
31.218,-44.25
31.234,-43.8
31.250,-44.17
31.265,-44.99
31.281,-45.85
31.296,-46.45
31.312,-46.62
31.328,-46.36
31.343,-45.92
31.359,-45.83
31.375,-46.82
31.390,-49.21
31.406,-52.7
31.421,-56.28
31.437,-58.81
31.453,-59.84
31.468,-60.14
31.484,-61.34
31.500,-64.97
31.515,-71.23
31.531,-78.42
31.546,-83.54
31.562,-83.55
31.578,-76.62
31.593,-62.89
31.609,-44.2
31.625,-23.41
31.640,-3.45
31.656,13.62
31.671,26.9
31.687,36.56
31.703,43.67
31.718,49.55
31.734,55.36
31.750,61.74
31.765,68.78
31.781,76.05
31.796,83.03
31.812,89.38
31.828,95.03
31.843,100.27
31.859,105.48
31.875,110.8
31.890,116.01
31.906,120.49
31.921,123.4
31.937,124.03
31.953,122.14
31.968,118.12
31.984,112.92
32.000,107.58
32.015,102.67
32.031,98.04
32.046,92.82
32.062,85.79
32.078,76.02
32.093,63.28
32.109,48.21
32.125,32.15
32.140,16.65
32.156,2.86
32.171,-8.57
32.187,-17.61
32.203,-24.48
32.218,-29.59
32.234,-33.62
32.250,-37.64
32.265,-43.08
32.281,-51.5
32.296,-64.0
32.312,-80.71
32.328,-100.98
32.343,-123.64
32.359,-147.74
32.375,-172.88
32.390,-199.03
32.406,-225.68
32.421,-251.37
32.437,-273.7
32.453,-289.84
32.468,-297.92
32.484,-297.57
32.500,-290.11
32.515,-277.98
32.531,-263.89
32.546,-250.03
32.562,-237.8
32.578,-227.71
32.593,-219.3
32.609,-211.2
32.625,-201.3
32.640,-187.34
32.656,-167.9
32.671,-143.14
32.687,-115.05
32.703,-86.9
32.718,-61.98
32.734,-42.31
32.750,-28.12
32.765,-17.96
32.781,-9.7
32.796,-1.6
32.812,7.32
32.828,17.26
32.843,28.31
32.859,40.85
32.875,55.61
32.890,73.14
32.906,93.42
32.921,115.71
32.937,138.57
32.953,160.57
32.968,180.47
32.984,197.45
33.000,210.78
33.015,219.62
33.031,223.01
33.046,220.2
33.062,211.15
33.078,196.93
33.093,179.5
33.109,161.2
33.125,143.97
33.140,128.65
33.156,115.01
33.171,102.12
33.187,89.12
33.203,75.81
33.218,62.84
33.234,51.33
33.250,42.2
33.265,35.65
33.281,30.85
33.296,26.31
33.312,20.58
33.328,12.89
33.343,3.46
33.359,-6.63
33.375,-15.9
33.390,-23.22
33.406,-28.26
33.421,-31.54
33.437,-34.09
33.453,-36.79
33.468,-39.83
33.484,-42.57
33.500,-43.93
33.515,-42.94
33.531,-39.4
33.546,-33.96
33.562,-27.9
33.578,-22.43
33.593,-18.32
33.609,-15.58
33.625,-13.5
33.640,-11.26
33.656,-8.31
33.671,-4.59
33.687,-0.42
33.703,3.84
33.718,8.1
33.734,12.75
33.750,18.24
33.765,24.96
33.781,32.69
33.796,40.59
33.812,47.38
33.828,51.86
33.843,53.36
33.859,51.88
33.875,47.96
33.890,42.26
33.906,35.21
33.921,26.92
33.937,17.42
33.953,6.85
33.968,-4.37
33.984,-15.52
34.000,-25.75
34.015,-34.46
34.031,-41.35
34.046,-46.6
34.062,-50.69
34.078,-54.11
34.093,-57.21
34.109,-60.22
34.125,-63.19
34.140,-66.04
34.156,-68.63
34.171,-70.68
34.187,-71.83
34.203,-71.6
34.218,-69.22
34.234,-63.77
34.250,-54.62
34.265,-41.75
34.281,-26.25
34.296,-10.17
34.312,4.12
34.328,14.86
34.343,21.61
34.359,25.41
34.375,28.1
34.390,31.29
34.406,35.63
34.421,40.27
34.437,43.61
34.453,44.16
34.468,41.37
34.484,35.92
34.500,29.28
34.515,22.98
34.531,18.01
34.546,14.57
34.562,11.99
34.578,9.2
34.593,5.21
34.609,-0.37
34.625,-7.16
34.640,-13.93
34.656,-19.04
34.671,-20.95
34.687,-18.76
34.703,-12.72
34.718,-4.22
34.734,4.47
34.750,10.75
34.765,12.64
34.781,9.35
34.796,1.69
34.812,-8.19
34.828,-17.23
34.843,-22.49
34.859,-21.8
34.875,-14.5
34.890,-1.48
34.906,15.43
34.921,34.14
34.937,53.16
34.953,71.98
34.968,90.77
34.984,109.71
35.000,128.43
35.015,145.62
35.031,159.5
35.046,168.62
35.062,172.37
35.078,171.1
35.093,165.68
35.109,156.81
35.125,144.49
35.140,128.09
35.156,106.59
35.171,79.22
35.187,46.03
35.203,7.99
35.218,-32.98
35.234,-74.39
35.250,-113.61
35.265,-148.1
35.281,-175.77
35.296,-195.23
35.312,-205.89
35.328,-207.73
35.343,-201.3
35.359,-187.26
35.375,-166.37
35.390,-139.48
35.406,-107.43
35.421,-71.1
35.437,-31.66
35.453,9.28
35.468,49.54
35.484,86.32
35.500,116.84
35.515,138.75
35.531,150.84
35.546,153.24
35.562,147.38
35.578,135.37
35.593,119.53
35.609,102.0
35.625,84.58
35.640,68.87
35.656,56.0
35.671,46.51
35.687,40.19
35.703,36.23
35.718,33.47
35.734,30.89
35.750,27.73
35.765,23.5
35.781,17.98
35.796,11.17
35.812,3.27
35.828,-5.3
35.843,-14.17
35.859,-23.06
35.875,-32.12
35.890,-41.7
35.906,-52.07
35.921,-62.99
35.937,-73.42
35.953,-81.54
35.968,-85.3
35.984,-83.23
36.000,-74.81
36.015,-60.91
36.031,-43.46
36.046,-24.91
36.062,-7.56
36.078,6.84
36.093,17.46
36.109,24.31
36.125,27.92
36.140,29.26
36.156,29.32
36.171,28.83
36.187,28.27
36.203,27.89
36.218,27.78
36.234,27.89
36.250,28.12
36.265,28.27
36.281,28.25
36.296,28.1
36.312,28.03
36.328,28.45
36.343,29.65
36.359,31.7
36.375,34.27
36.390,36.75
36.406,38.34
36.421,38.42
36.437,36.54
36.453,32.46
36.468,26.28
36.484,18.33
36.500,9.14
36.515,-0.57
36.531,-10.11
36.546,-19.13
36.562,-27.59
36.578,-35.78
36.593,-44.16
36.609,-52.9
36.625,-61.92
36.640,-70.73
36.656,-78.67
36.671,-85.17
36.687,-90.08
36.703,-93.62
36.718,-96.29
36.734,-98.57
36.750,-100.59
36.765,-102.29
36.781,-103.35
36.796,-103.49
36.812,-102.55
36.828,-100.56
36.843,-97.51
36.859,-93.23
36.875,-87.38
36.890,-79.5
36.906,-69.34
36.921,-57.1
36.937,-43.39
36.953,-29.2
36.968,-15.5
36.984,-3.03
37.000,7.99
37.015,17.7
37.031,26.41
37.046,34.18
37.062,40.64
37.078,45.28
37.093,47.67
37.109,47.82
37.125,46.08
37.140,43.05
37.156,39.11
37.171,34.34
37.187,28.56
37.203,21.64
37.218,13.79
37.234,5.59
37.250,-2.07
37.265,-8.34
37.281,-12.48
37.296,-14.08
37.312,-12.98
37.328,-9.19
37.343,-2.8
37.359,5.99
37.375,16.77
37.390,28.93
37.406,41.63
37.421,53.91
37.437,64.82
37.453,73.89
37.468,81.43
37.484,88.63
37.500,96.96
37.515,107.56
37.531,120.4
37.546,134.07
37.562,146.08
37.578,153.71
37.593,154.94
37.609,149.12
37.625,137.0
37.640,120.19
37.656,100.58
37.671,79.58
37.687,57.79
37.703,34.98
37.718,10.45
37.734,-16.56
37.750,-46.26
37.765,-78.03
37.781,-110.21
37.796,-140.35
37.812,-165.7
37.828,-184.02
37.843,-193.9
37.859,-194.84
37.875,-187.18
37.890,-171.9
37.906,-150.43
37.921,-124.63
37.937,-96.67
37.953,-68.82
37.968,-43.25
37.984,-21.54
38.000,-4.54
38.015,7.83
38.031,16.29
38.046,21.95
38.062,25.98
38.078,29.19
38.093,31.98
38.109,34.19
38.125,35.5
38.140,35.66
38.156,34.82
38.171,33.55
38.187,32.6
38.203,32.62
38.218,33.88
38.234,36.26
38.250,39.35
38.265,42.65
38.281,45.64
38.296,47.91
38.312,49.1
38.328,48.86
38.343,46.86
38.359,42.84
38.375,36.68
38.390,28.56
38.406,18.97
38.421,8.73
38.437,-1.17
38.453,-9.69
38.468,-16.01
38.484,-19.71
38.500,-20.79
38.515,-19.69
38.531,-17.11
38.546,-13.79
38.562,-10.3
38.578,-6.81
38.593,-3.17
38.609,0.84
38.625,5.29
38.640,9.89
38.656,14.14
38.671,17.48
38.687,19.49
38.703,20.1
38.718,19.62
38.734,18.72
38.750,18.21
38.765,18.8
38.781,20.84
38.796,24.22
38.812,28.3
38.828,32.15
38.843,34.8
38.859,35.61
38.875,34.46
38.890,31.62
38.906,27.51
38.921,22.54
38.937,16.99
38.953,11.26
38.968,5.97
38.984,1.78
39.000,-0.81
39.015,-1.86
39.031,-1.9
39.046,-1.76
39.062,-1.95
39.078,-2.37
39.093,-2.31
39.109,-0.94
39.125,2.04
39.140,6.13
39.156,10.14
39.171,12.82
39.187,13.35
39.203,11.66
39.218,8.23
39.234,3.68
39.250,-1.56
39.265,-7.37
39.281,-13.74
39.296,-20.44
39.312,-26.86
39.328,-32.17
39.343,-35.52
39.359,-36.55
39.375,-35.51
39.390,-33.11
39.406,-30.32
39.421,-27.92
39.437,-26.25
39.453,-25.22
39.468,-24.43
39.484,-23.52
39.500,-22.43
39.515,-21.42
39.531,-20.86
39.546,-21.14
39.562,-22.49
39.578,-24.86
39.593,-28.0
39.609,-31.34
39.625,-34.16
39.640,-35.85
39.656,-36.02
39.671,-34.71
39.687,-32.4
39.703,-29.83
39.718,-27.69
39.734,-26.28
39.750,-25.37
39.765,-24.32
39.781,-22.38
39.796,-19.05
39.812,-14.24
39.828,-8.16
39.843,-1.11
39.859,6.49
39.875,14.12
39.890,21.02
39.906,26.19
39.921,28.57
39.937,27.51
39.953,23.08
39.968,16.35
39.984,9.18
40.000,3.66
40.015,1.3
40.031,2.54
40.046,6.63
40.062,11.95
40.078,16.59
40.093,19.08
40.109,18.76
40.125,15.88
40.140,11.29
40.156,5.99
40.171,0.63
40.187,-4.48
40.203,-9.21
40.218,-13.49
40.234,-17.11
40.250,-19.86
40.265,-21.72
40.281,-22.9
40.296,-23.76
40.312,-24.58
40.328,-25.37
40.343,-25.66
40.359,-24.93
40.375,-22.94
40.390,-19.95
40.406,-16.81
40.421,-14.5
40.437,-13.63
40.453,-14.21
40.468,-15.57
40.484,-16.73
40.500,-16.72
40.515,-14.93
40.531,-11.12
40.546,-5.44
40.562,1.79
40.578,10.02
40.593,18.45
40.609,25.99
40.625,31.25
40.640,32.99
40.656,30.62
40.671,24.62
40.687,16.48
40.703,8.56
40.718,3.14
40.734,1.71
40.750,4.42
40.765,10.04
40.781,16.5
40.796,21.7
40.812,24.29
40.828,23.82
40.843,20.81
40.859,16.28
40.875,11.36
40.890,6.91
40.906,3.48
40.921,1.39
40.937,0.61
40.953,1.07
40.968,2.4
40.984,4.13
41.000,5.69
41.015,6.58
41.031,6.42
41.046,5.06
41.062,2.67
41.078,-0.44
41.093,-3.76
41.109,-6.89
41.125,-9.54
41.140,-11.72
41.156,-13.7
41.171,-15.8
41.187,-18.24
41.203,-20.86
41.218,-23.27
41.234,-24.86
41.250,-25.25
41.265,-24.33
41.281,-22.39
41.296,-19.87
41.312,-17.15
41.328,-14.38
41.343,-11.47
41.359,-8.37
41.375,-4.97
41.390,-1.29
41.406,2.62
41.421,6.81
41.437,11.32
41.453,16.11
41.468,20.76
41.484,24.6
41.500,26.73
41.515,26.56
41.531,24.04
41.546,19.7
41.562,14.59
41.578,9.76
41.593,6.05
41.609,3.69
41.625,2.51
41.640,2.01
41.656,1.75
41.671,1.44
41.687,0.94
41.703,0.28
41.718,-0.59
41.734,-1.69
41.750,-3.06
41.765,-4.7
41.781,-6.49
41.796,-8.22
41.812,-9.59
41.828,-10.41
41.843,-10.68
41.859,-10.6
41.875,-10.51
41.890,-10.57
41.906,-10.85
41.921,-11.22
41.937,-11.52
41.953,-11.82
41.968,-12.43
41.984,-13.77
42.000,-16.13
42.015,-19.3
42.031,-22.54
42.046,-24.84
42.062,-25.26
42.078,-23.21
42.093,-18.71
42.109,-12.18
42.125,-4.23
42.140,4.63
42.156,14.21
42.171,24.51
42.187,35.61
42.203,47.47
42.218,59.9
42.234,72.55
42.250,85.12
42.265,97.42
42.281,109.37
42.296,120.96
42.312,132.07
42.328,142.42
42.343,151.53
42.359,158.74
42.375,163.37
42.390,164.92
42.406,163.32
42.421,159.14
42.437,153.71
42.453,148.99
42.468,147.07
42.484,149.37
42.500,155.83
42.515,164.75
42.531,173.27
42.546,178.31
42.562,177.57
42.578,170.38
42.593,157.49
42.609,140.51
42.625,120.91
42.640,99.21
42.656,74.94
42.671,47.28
42.687,15.72
42.703,-18.98
42.718,-54.86
42.734,-89.26
42.750,-119.51
42.765,-143.41
42.781,-160.01
42.796,-169.85
42.812,-175.12
42.828,-179.51
42.843,-187.26
42.859,-202.07
42.875,-225.83
42.890,-257.21
42.906,-290.77
42.921,-318.12
42.937,-330.76
42.953,-323.95
42.968,-299.59
42.984,-266.02
43.000,-234.62
43.015,-214.52
43.031,-208.07
43.046,-209.91
43.062,-210.2
43.078,-200.1
43.093,-176.54
43.109,-143.72
43.125,-110.3
43.140,-84.62
43.156,-70.82
43.171,-67.42
43.187,-69.42
43.203,-71.5
43.218,-70.27
43.234,-64.92
43.250,-56.57
43.265,-46.3
43.281,-34.31
43.296,-19.8
43.312,-1.84
43.328,19.4
43.343,41.77
43.359,61.78
43.375,75.85
43.390,81.79
43.406,79.94
43.421,73.1
43.437,65.46
43.453,60.77
43.468,61.0
43.484,65.73
43.500,72.58
43.515,78.56
43.531,81.23
43.546,79.75
43.562,74.84
43.578,68.24
43.593,61.64
43.609,55.97
43.625,51.07
43.640,45.93
43.656,39.3
43.671,30.07
43.687,17.75
43.703,2.43
43.718,-15.3
43.734,-34.4
43.750,-53.64
43.765,-71.72
43.781,-87.54
43.796,-100.36
43.812,-110.06
43.828,-116.84
43.843,-120.92
43.859,-121.99
43.875,-119.17
43.890,-111.44
43.906,-98.09
43.921,-79.58
43.937,-57.42
43.953,-34.05
43.968,-12.0
43.984,6.68
44.000,20.83
44.015,30.2
44.031,35.07
44.046,36.3
44.062,35.04
44.078,32.71
44.093,30.64
44.109,29.73
44.125,30.05
44.140,30.98
44.156,31.59
44.171,31.05
44.187,29.02
44.203,25.71
44.218,21.62
44.234,17.33
44.250,13.32
44.265,9.9
44.281,7.15
44.296,5.0
44.312,3.25
44.328,1.83
44.343,0.77
44.359,0.42
44.375,1.21
44.390,3.41
44.406,7.07
44.421,11.98
44.437,17.95
44.453,25.02
44.468,33.53
44.484,43.84
44.500,55.99
44.515,69.58
44.531,83.87
44.546,98.02
44.562,111.33
44.578,123.23
44.593,132.97
44.609,139.62
44.625,142.19
44.640,140.07
44.656,133.64
44.671,124.22
44.687,113.84
44.703,104.41
44.718,97.11
44.734,91.88
44.750,87.71
44.765,83.09
44.781,76.73
44.796,68.07
44.812,57.27
44.828,45.03
44.843,32.27
44.859,19.85
44.875,8.49
44.890,-1.15
44.906,-8.6
44.921,-13.55
44.937,-15.98
44.953,-16.29
44.968,-15.24
44.984,-13.76
45.000,-12.6
45.015,-12.1
45.031,-11.93
45.046,-11.28
45.062,-9.24
45.078,-5.16
45.093,0.78
45.109,7.76
45.125,14.56
45.140,20.27
45.156,24.58
45.171,27.69
45.187,29.95
45.203,31.31
45.218,31.2
45.234,28.72
45.250,23.38
45.265,15.43
45.281,5.77
45.296,-4.62
45.312,-15.28
45.328,-26.17
45.343,-37.11
45.359,-46.97
45.375,-53.67
45.390,-55.11
45.406,-50.49
45.421,-41.41
45.437,-31.35
45.453,-24.26
45.468,-22.42
45.484,-25.45
45.500,-30.67
45.515,-34.83
45.531,-35.99
45.546,-34.22
45.562,-31.23
45.578,-28.72
45.593,-27.28
45.609,-25.9
45.625,-22.71
45.640,-16.25
45.656,-6.4
45.671,5.13
45.687,15.5
45.703,21.7
45.718,21.94
45.734,16.38
45.750,7.23
45.765,-1.98
45.781,-7.72
45.796,-7.62
45.812,-1.25
45.828,10.04
45.843,23.86
45.859,37.8
45.875,50.15
45.890,60.12
45.906,67.56
45.921,72.63
45.937,75.58
45.953,76.61
45.968,76.12
45.984,74.64
46.000,72.74
46.015,70.73
46.031,68.42
46.046,65.08
46.062,59.73
46.078,51.65
46.093,40.74
46.109,27.78
46.125,14.24
46.140,1.89
46.156,-7.9
46.171,-14.5
46.187,-18.28
46.203,-20.24
46.218,-21.51
46.234,-22.82
46.250,-24.25
46.265,-25.34
46.281,-25.51
46.296,-24.45
46.312,-22.16
46.328,-19.02
46.343,-15.4
46.359,-11.45
46.375,-7.08
46.390,-1.99
46.406,4.05
46.421,11.0
46.437,18.47
46.453,25.81
46.468,32.3
46.484,37.41
46.500,40.9
46.515,42.83
46.531,43.41
46.546,42.86
46.562,41.24
46.578,38.64
46.593,35.19
46.609,31.15
46.625,26.9
46.640,22.85
46.656,19.26
46.671,16.2
46.687,13.54
46.703,11.1
46.718,8.75
46.734,6.46
46.750,4.29
46.765,2.28
46.781,0.38
46.796,-1.6
46.812,-3.92
46.828,-6.87
46.843,-10.6
46.859,-15.01
46.875,-19.8
46.890,-24.5
46.906,-28.67
46.921,-32.14
46.937,-35.04
46.953,-37.65
46.968,-40.26
46.984,-42.79
47.000,-44.7
47.015,-45.14
47.031,-43.22
47.046,-38.48
47.062,-31.14
47.078,-22.13
47.093,-12.78
47.109,-4.38
47.125,2.24
47.140,6.92
47.156,9.99
47.171,12.11
47.187,13.77
47.203,15.18
47.218,16.15
47.234,16.35
47.250,15.47
47.265,13.27
47.281,9.6
47.296,4.26
47.312,-2.77
47.328,-11.31
47.343,-20.73
47.359,-29.95
47.375,-37.77
47.390,-43.44
47.406,-46.97
47.421,-49.18
47.437,-51.16
47.453,-53.46
47.468,-55.76
47.484,-57.06
47.500,-56.36
47.515,-53.43
47.531,-49.28
47.546,-45.79
47.562,-44.82
47.578,-47.37
47.593,-53.04
47.609,-60.23
47.625,-66.93
47.640,-71.28
47.656,-72.12
47.671,-68.78
47.687,-60.96
47.703,-48.68
47.718,-32.58
47.734,-14.25
47.750,3.82
47.765,18.8
47.781,28.74
47.796,33.33
47.812,34.26
47.828,34.5
47.843,36.96
47.859,43.21
47.875,52.82
47.890,63.77
47.906,73.49
47.921,80.1
47.937,83.01
47.953,82.95
47.968,81.22
47.984,79.01
48.000,76.84
48.015,74.56
48.031,71.74
48.046,68.02
48.062,63.47
48.078,58.46
48.093,53.54
48.109,49.1
48.125,45.25
48.140,41.81
48.156,38.32
48.171,34.13
48.187,28.25
48.203,19.6
48.218,7.22
48.234,-9.15
48.250,-28.59
48.265,-48.84
48.281,-66.65
48.296,-78.78
48.312,-82.88
48.328,-78.37
48.343,-66.51
48.359,-50.04
48.375,-32.28
48.390,-16.3
48.406,-4.27
48.421,2.88
48.437,5.27
48.453,3.98
48.468,0.41
48.484,-3.83
48.500,-7.26
48.515,-8.73
48.531,-7.43
48.546,-3.06
48.562,4.1
48.578,13.16
48.593,22.76
48.609,31.29
48.625,37.35
48.640,40.32
48.656,40.44
48.671,38.6
48.687,35.94
48.703,33.22
48.718,30.59
48.734,27.61
48.750,23.68
48.765,18.43
48.781,12.11
48.796,5.45
48.812,-0.57
48.828,-5.24
48.843,-8.22
48.859,-9.76
48.875,-10.55
48.890,-11.4
48.906,-12.95
48.921,-15.36
48.937,-18.24
48.953,-20.82
48.968,-22.26
48.984,-22.03
49.000,-20.11
49.015,-16.98
49.031,-13.46
49.046,-10.57
49.062,-9.36
49.078,-10.77
49.093,-15.51
49.109,-23.8
49.125,-35.07
49.140,-47.88
49.156,-60.02
49.171,-69.12
49.187,-73.35
49.203,-71.99
49.218,-65.6
49.234,-55.76
49.250,-44.58
49.265,-34.12
49.281,-26.05
49.296,-21.35
49.312,-20.39
49.328,-23.02
49.343,-28.55
49.359,-35.82
49.375,-43.07
49.390,-48.12
49.406,-48.56
49.421,-42.49
49.437,-29.14
49.453,-9.63
49.468,13.05
49.484,34.6
49.500,50.74
49.515,58.71
49.531,58.22
49.546,51.58
49.562,42.6
49.578,35.06
49.593,31.3
49.609,31.48
49.625,34.09
49.640,37.01
49.656,38.78
49.671,39.21
49.687,39.38
49.703,40.67
49.718,43.8
49.734,48.31
49.750,52.53
49.765,54.44
49.781,52.54
49.796,46.79
49.812,38.57
49.828,30.12
49.843,23.46
49.859,19.47
49.875,17.64
49.890,16.41
49.906,14.14
49.921,9.78
49.937,3.05
49.953,-5.87
49.968,-16.48
49.984,-27.84
50.000,-37.94
50.015,-43.43
50.031,-40.59
50.046,-27.2
50.062,-4.69
50.078,21.19
50.093,42.07
50.109,50.58
50.125,43.78
50.140,24.57
50.156,0.29
50.171,-20.93
50.187,-33.54
50.203,-36.19
50.218,-30.85
50.234,-20.64
50.250,-7.9
50.265,6.16
50.281,20.68
50.296,34.15
50.312,44.27
50.328,48.77
50.343,46.54
50.359,38.35
50.375,26.59
50.390,14.29
50.406,3.92
50.421,-3.13
50.437,-6.81
50.453,-7.97
50.468,-8.05
50.484,-8.64
50.500,-11.15
50.515,-16.53
50.531,-24.76
50.546,-34.77
50.562,-44.73
50.578,-52.74
50.593,-57.68
50.609,-59.64
50.625,-59.7
50.640,-59.07
50.656,-58.38
50.671,-57.12
50.687,-54.0
50.703,-47.6
50.718,-37.05
50.734,-22.41
50.750,-4.8
50.765,13.88
50.781,31.27
50.796,45.02
50.812,53.32
50.828,55.45
50.843,51.96
50.859,44.5
50.875,35.25
50.890,25.95
50.906,17.33
50.921,9.12
50.937,0.36
50.953,-9.82
50.968,-21.67
50.984,-34.63
51.000,-47.5
51.015,-58.66
51.031,-66.35
51.046,-69.01
51.062,-65.62
51.078,-56.17
51.093,-41.89
51.109,-25.07
51.125,-8.59
51.140,4.82
51.156,13.25
51.171,16.05
51.187,13.82
51.203,8.02
51.218,0.55
51.234,-6.73
51.250,-12.24
51.265,-15.04
51.281,-14.97
51.296,-12.62
51.312,-9.18
51.328,-5.83
51.343,-3.41
51.359,-2.17
51.375,-1.93
51.390,-2.44
51.406,-3.67
51.421,-5.98
51.437,-9.76
51.453,-15.28
51.468,-22.47
51.484,-30.94
51.500,-40.03
51.515,-48.9
51.531,-56.43
51.546,-61.29
51.562,-62.3
51.578,-58.78
51.593,-51.12
51.609,-40.62
51.625,-29.23
51.640,-18.73
51.656,-10.23
51.671,-4.05
51.687,0.21
51.703,3.07
51.718,5.05
51.734,6.53
51.750,8.01
51.765,10.05
51.781,13.25
51.796,17.85
51.812,23.5
51.828,29.54
51.843,35.15
51.859,39.85
51.875,43.5
51.890,46.23
51.906,48.08
51.921,48.83
51.937,48.11
51.953,45.52
51.968,41.02
51.984,34.91
52.000,27.91
52.015,20.86
52.031,14.46
52.046,9.07
52.062,4.67
52.078,0.97
52.093,-2.54
52.109,-6.2
52.125,-10.22
52.140,-14.38
52.156,-18.22
52.171,-21.17
52.187,-22.85
52.203,-23.32
52.218,-23.15
52.234,-23.38
52.250,-25.02
52.265,-29.0
52.281,-35.74
52.296,-45.12
52.312,-56.32
52.328,-67.79
52.343,-77.4
52.359,-82.89
52.375,-82.68
52.390,-76.47
52.406,-65.7
52.421,-53.19
52.437,-42.1
52.453,-34.8
52.468,-32.01
52.484,-32.78
52.500,-35.17
52.515,-37.27
52.531,-37.88
52.546,-36.66
52.562,-33.56
52.578,-28.23
52.593,-19.87
52.609,-7.67
52.625,8.45
52.640,27.33
52.656,46.51
52.671,63.15
52.687,74.94
52.703,81.0
52.718,82.06
52.734,79.93
52.750,76.65
52.765,73.86
52.781,72.55
52.796,73.07
52.812,75.36
52.828,78.84
52.843,82.46
52.859,84.9
52.875,84.99
52.890,82.16
52.906,76.54
52.921,68.68
52.937,58.92
52.953,47.15
52.968,32.94
52.984,16.24
53.000,-2.23
53.015,-21.28
53.031,-40.03
53.046,-58.55
53.062,-77.41
53.078,-96.56
53.093,-113.84
53.109,-125.01
53.125,-125.3
53.140,-112.22
53.156,-87.87
53.171,-59.03
53.187,-34.74
53.203,-22.25
53.218,-23.82
53.234,-35.97
53.250,-51.71
53.265,-64.14
53.281,-69.51
53.296,-68.2
53.312,-63.15
53.328,-57.38
53.343,-52.15
53.359,-46.57
53.375,-38.61
53.390,-26.76
53.406,-10.84
53.421,8.16
53.437,28.82
53.453,50.14
53.468,71.59
53.484,92.72
53.500,112.47
53.515,128.96
53.531,139.74
53.546,142.67
53.562,136.82
53.578,122.99
53.593,103.63
53.609,82.03
53.625,61.32
53.640,43.5
53.656,28.97
53.671,16.71
53.687,4.91
53.703,-8.17
53.718,-23.74
53.734,-42.09
53.750,-62.68
53.765,-83.78
53.781,-102.49
53.796,-114.91
53.812,-117.53
53.828,-108.93
53.843,-91.37
53.859,-70.81
53.875,-54.74
53.890,-49.05
53.906,-55.13
53.921,-69.12
53.937,-83.69
53.953,-91.51
53.968,-88.48
53.984,-75.0
54.000,-55.05
54.015,-33.68
54.031,-14.79
54.046,0.08
54.062,11.49
54.078,21.02
54.093,30.34
54.109,40.55
54.125,52.04
54.140,64.59
54.156,77.59
54.171,90.1
54.187,101.06
54.203,109.51
54.218,114.74
54.234,116.48
54.250,114.86
54.265,110.38
54.281,103.82
54.296,95.91
54.312,87.2
54.328,77.92
54.343,68.04
54.359,57.45
54.375,46.09
54.390,34.06
54.406,21.47
54.421,8.4
54.437,-5.28
54.453,-19.68
54.468,-34.78
54.484,-50.47
54.500,-66.84
54.515,-84.27
54.531,-103.03
54.546,-122.38
54.562,-139.61
54.578,-150.21
54.593,-149.38
54.609,-134.52
54.625,-107.49
54.640,-74.75
54.656,-45.42
54.671,-27.44
54.687,-24.12
54.703,-32.9
54.718,-46.85
54.734,-58.18
54.750,-61.59
54.765,-56.02
54.781,-43.69
54.796,-28.06
54.812,-11.71
54.828,4.42
54.843,20.42
54.859,36.32
54.875,51.28
54.890,63.8
54.906,72.55
54.921,77.51
54.937,80.09
54.953,82.65
54.968,87.22
54.984,94.34
55.000,102.62
55.015,109.14
55.031,110.5
55.046,104.0
55.062,88.77
55.078,66.27
55.093,39.86
55.109,13.74
55.125,-8.34
55.140,-24.37
55.156,-34.42
55.171,-40.38
55.187,-44.73
55.203,-49.61
55.218,-56.27
55.234,-65.01
55.250,-75.33
55.265,-86.01
55.281,-94.87
55.296,-99.12
55.312,-96.23
55.328,-85.35
55.343,-68.33
55.359,-49.57
55.375,-34.51
55.390,-27.18
55.406,-28.38
55.421,-35.42
55.437,-43.66
55.453,-48.93
55.468,-49.45
55.484,-46.05
55.500,-40.88
55.515,-35.42
55.531,-29.38
55.546,-20.99
55.562,-8.51
55.578,8.37
55.593,27.92
55.609,46.93
55.625,62.29
55.640,72.22
55.656,76.9
55.671,78.02
55.687,77.46
55.703,76.47
55.718,75.22
55.734,73.38
55.750,70.75
55.765,67.89
55.781,65.88
55.796,65.84
55.812,68.25
55.828,72.48
55.843,77.03
55.859,80.02
55.875,79.8
55.890,75.38
55.906,66.53
55.921,53.74
55.937,38.0
55.953,20.65
55.968,2.99
55.984,-14.26
56.000,-31.39
56.015,-49.64
56.031,-70.54
56.046,-94.35
56.062,-118.94
56.078,-139.49
56.093,-149.95
56.109,-145.9
56.125,-126.98
56.140,-98.1
56.156,-67.78
56.171,-44.84
56.187,-34.62
56.203,-37.11
56.218,-47.69
56.234,-59.66
56.250,-67.55
56.265,-68.65
56.281,-62.9
56.296,-51.38
56.312,-34.87
56.328,-13.5
56.343,12.57
56.359,42.02
56.375,71.93
56.390,98.4
56.406,117.9
56.421,128.59
56.437,131.03
56.453,127.69
56.468,121.93
56.484,116.6
56.500,112.86
56.515,110.0
56.531,105.92
56.546,98.36
56.562,86.13
56.578,69.94
56.593,52.01
56.609,34.97
56.625,20.64
56.640,9.09
56.656,-1.01
56.671,-11.61
56.687,-24.06
56.703,-38.44
56.718,-53.92
56.734,-69.43
56.750,-84.12
56.765,-97.19
56.781,-107.48
56.796,-113.21
56.812,-112.59
56.828,-104.89
56.843,-91.21
56.859,-74.61
56.875,-59.04
56.890,-47.81
56.906,-42.3
56.921,-41.75
56.937,-43.87
56.953,-46.08
56.968,-46.57
56.984,-44.53
57.000,-39.94
57.015,-32.79
57.031,-22.69
57.046,-8.93
57.062,8.75
57.078,29.65
57.093,51.82
57.109,72.32
57.125,88.3
57.140,97.95
57.156,101.37
57.171,100.38
57.187,97.64
57.203,95.56
57.218,95.47
57.234,97.39
57.250,100.3
57.265,102.94
57.281,104.21
57.296,103.65
57.312,101.32
57.328,97.68
57.343,93.37
57.359,88.95
57.375,84.51
57.390,79.62
57.406,73.45
57.421,65.06
57.437,53.92
57.453,40.07
57.468,24.04
57.484,6.61
57.500,-11.52
57.515,-29.84
57.531,-47.96
57.546,-65.52
57.562,-82.2
57.578,-97.68
57.593,-111.75
57.609,-124.19
57.625,-134.6
57.640,-142.18
57.656,-145.81
57.671,-144.2
57.687,-136.46
57.703,-122.69
57.718,-104.09
57.734,-82.88
57.750,-61.72
57.765,-42.87
57.781,-27.63
57.796,-16.0
57.812,-6.82
57.828,1.58
57.843,10.76
57.859,21.71
57.875,34.62
57.890,49.12
57.906,64.54
57.921,80.03
57.937,94.57
57.953,107.14
57.968,116.6
57.984,122.16
58.000,123.48
58.015,120.82
58.031,114.83
58.046,106.32
58.062,96.07
58.078,84.65
58.093,72.65
58.109,60.55
58.125,48.52
58.140,36.37
58.156,23.59
58.171,9.79
58.187,-4.99
58.203,-19.91
58.218,-33.8
58.234,-45.87
58.250,-56.25
58.265,-66.14
58.281,-77.02
58.296,-89.73
58.312,-103.55
58.328,-116.43
58.343,-125.66
58.359,-129.1
58.375,-126.23
58.390,-118.3
58.406,-107.67
58.421,-96.6
58.437,-86.21
58.453,-75.93
58.468,-64.11
58.484,-49.17
58.500,-30.89
58.515,-11.07
58.531,7.05
58.546,20.1
58.562,26.39
58.578,26.75
58.593,24.36
58.609,23.3
58.625,26.67
58.640,35.35
58.656,47.71
58.671,60.51
58.687,70.18
58.703,74.25
58.718,72.09
58.734,65.02
58.750,55.65
58.765,46.92
58.781,41.0
58.796,38.5
58.812,38.5
58.828,39.1
58.843,38.54
58.859,36.39
58.875,33.75
58.890,32.74
58.906,35.24
58.921,41.92
58.937,51.63
58.953,61.71
58.968,68.95
58.984,70.43
59.000,64.36
59.015,50.17
59.031,28.48
59.046,1.24
59.062,-27.87
59.078,-53.92
59.093,-72.0
59.109,-79.01
59.125,-75.44
59.140,-65.41
59.156,-55.0
59.171,-49.52
59.187,-51.28
59.203,-59.04
59.218,-69.61
59.234,-79.88
59.250,-88.43
59.265,-95.56
59.281,-101.93
59.296,-107.46
59.312,-110.88
59.328,-110.71
59.343,-106.7
59.359,-100.51
59.375,-94.93
59.390,-92.43
59.406,-93.98
59.421,-98.38
59.437,-102.91
59.453,-104.28
59.468,-99.76
59.484,-87.87
59.500,-68.67
59.515,-43.32
59.531,-13.86
59.546,17.18
59.562,47.26
59.578,74.22
59.593,96.69
59.609,114.35
59.625,127.86
59.640,138.62
59.656,148.29
59.671,158.18
59.687,168.63
59.703,178.73
59.718,186.39
59.734,189.09
59.750,184.85
59.765,173.12
59.781,155.18
59.796,133.6
59.812,111.28
59.828,90.11
59.843,70.47
59.859,51.36
59.875,31.39
59.890,9.71
59.906,-13.4
59.921,-36.83
59.937,-59.43
59.953,-80.41
59.968,-99.51
59.984,-116.51
