timestamp,value
00.000,0.05
00.015,-0.42
00.031,-0.23
00.046,-0.35
00.062,-1.63
00.078,-4.27
00.093,-7.66
00.109,-10.72
00.125,-12.53
00.140,-12.94
00.156,-12.77
00.171,-13.25
00.187,-15.38
00.203,-19.19
00.218,-23.69
00.234,-27.28
00.250,-28.59
00.265,-27.18
00.281,-23.69
00.296,-19.45
00.312,-15.74
00.328,-13.12
00.343,-11.19
00.359,-9.03
00.375,-5.88
00.390,-1.58
00.406,3.12
00.421,7.13
00.437,9.59
00.453,10.36
00.468,10.07
00.484,9.78
00.500,10.37
00.515,12.01
00.531,14.16
00.546,15.86
00.562,16.21
00.578,15.02
00.593,12.81
00.609,10.57
00.625,9.26
00.640,9.36
00.656,10.49
00.671,11.83
00.687,12.47
00.703,11.98
00.718,10.65
00.734,9.31
00.750,8.82
00.765,9.55
00.781,11.06
00.796,12.31
00.812,12.25
00.828,10.44
00.843,7.31
00.859,3.92
00.875,1.4
00.890,0.26
00.906,0.12
00.921,-0.04
00.937,-1.25
00.953,-3.89
00.968,-7.47
00.984,-10.97
01.000,-13.36
01.015,-14.34
01.031,-14.51
01.046,-14.93
01.062,-16.59
01.078,-19.7
01.093,-23.51
01.109,-26.69
01.125,-27.97
01.140,-26.7
01.156,-23.31
01.171,-18.89
01.187,-14.68
01.203,-11.43
01.218,-9.05
01.234,-6.83
01.250,-3.94
01.265,-0.08
01.281,4.34
01.296,8.35
01.312,11.01
01.328,12.0
01.343,11.76
01.359,11.3
01.375,11.55
01.390,12.86
01.406,14.71
01.421,16.12
01.437,16.22
01.453,14.74
01.468,12.29
01.484,9.93
01.500,8.64
01.515,8.79
01.531,9.91
01.546,11.04
01.562,11.28
01.578,10.3
01.593,8.55
01.609,6.96
01.625,6.35
01.640,6.99
01.656,8.31
01.671,9.32
01.687,9.13
01.703,7.49
01.718,4.88
01.734,2.33
01.750,0.7
01.765,0.26
01.781,0.49
01.796,0.44
01.812,-0.74
01.828,-3.24
01.843,-6.44
01.859,-9.35
01.875,-11.07
01.890,-11.42
01.906,-11.11
01.921,-11.33
01.937,-13.09
01.953,-16.59
01.968,-21.06
01.984,-25.04
02.000,-27.17
02.015,-26.77
02.031,-24.24
02.046,-20.72
02.062,-17.39
02.078,-14.83
02.093,-12.74
02.109,-10.3
02.125,-6.73
02.140,-1.92
02.156,3.37
02.171,7.94
02.187,10.71
02.203,11.41
02.218,10.68
02.234,9.74
02.250,9.66
02.265,10.86
02.281,12.8
02.296,14.41
02.312,14.73
02.328,13.4
02.343,10.95
02.359,8.41
02.375,6.87
02.390,6.76
02.406,7.71
02.421,8.79
02.437,9.03
02.453,8.07
02.468,6.24
02.484,4.46
02.500,3.58
02.515,4.01
02.531,5.4
02.546,6.89
02.562,7.53
02.578,6.82
02.593,5.03
02.609,2.86
02.625,1.09
02.640,0.14
02.656,-0.27
02.671,-0.8
02.687,-2.06
02.703,-4.31
02.718,-7.15
02.734,-9.88
02.750,-11.89
02.765,-13.06
02.781,-13.91
02.796,-15.23
02.812,-17.64
02.828,-21.0
02.843,-24.45
02.859,-26.74
02.875,-26.78
02.890,-24.3
02.906,-19.89
02.921,-14.77
02.937,-10.15
02.953,-6.66
02.968,-4.12
02.984,-1.77
03.000,1.09
03.015,4.75
03.031,8.65
03.046,11.92
03.062,13.81
03.078,14.18
03.093,13.65
03.109,13.2
03.125,13.59
03.140,14.9
03.156,16.52
03.171,17.4
03.187,16.79
03.203,14.62
03.218,11.64
03.234,9.04
03.250,7.77
03.265,8.06
03.281,9.24
03.296,10.3
03.312,10.25
03.328,8.84
03.343,6.59
03.359,4.46
03.375,3.28
03.390,3.31
03.406,4.02
03.421,4.47
03.437,3.85
03.453,1.88
03.468,-1.01
03.484,-3.99
03.500,-6.32
03.515,-7.68
03.531,-8.36
03.546,-9.12
03.562,-10.63
03.578,-13.24
03.593,-16.65
03.609,-20.15
03.625,-22.94
03.640,-24.63
03.656,-25.29
03.671,-25.41
03.687,-25.47
03.703,-25.49
03.718,-25.05
03.734,-23.44
03.750,-20.14
03.765,-15.22
03.781,-9.53
03.796,-4.21
03.812,-0.27
03.828,1.88
03.843,2.74
03.859,3.23
03.875,4.32
03.890,6.47
03.906,9.41
03.921,12.27
03.937,14.15
03.953,14.67
03.968,14.05
03.984,13.12
04.000,12.7
04.015,13.14
04.031,14.11
04.046,14.82
04.062,14.52
04.078,13.02
04.093,10.86
04.109,8.92
04.125,8.06
04.140,8.48
04.156,9.63
04.171,10.51
04.187,10.24
04.203,8.59
04.218,6.11
04.234,3.84
04.250,2.58
04.265,2.57
04.281,3.16
04.296,3.23
04.312,1.91
04.328,-1.05
04.343,-4.97
04.359,-8.74
04.375,-11.32
04.390,-12.38
04.406,-12.43
04.421,-12.52
04.437,-13.73
04.453,-16.42
04.468,-20.23
04.484,-24.12
04.500,-26.99
04.515,-28.11
04.531,-27.53
04.546,-25.75
04.562,-23.52
04.578,-21.26
04.593,-18.83
04.609,-15.76
04.625,-11.57
04.640,-6.27
04.656,-0.49
04.671,4.65
04.687,8.23
04.703,9.9
04.718,10.16
04.734,10.09
04.750,10.74
04.765,12.61
04.781,15.34
04.796,17.93
04.812,19.3
04.828,18.97
04.843,17.27
04.859,15.08
04.875,13.44
04.890,12.89
04.906,13.26
04.921,13.82
04.937,13.77
04.953,12.66
04.968,10.79
04.984,8.89
05.000,7.74
05.015,7.71
05.031,8.43
05.046,9.13
05.062,8.99
05.078,7.7
05.093,5.55
05.109,3.26
05.125,1.56
05.140,0.79
05.156,0.59
05.171,0.19
05.187,-1.16
05.203,-3.71
05.218,-6.98
05.234,-10.03
05.250,-12.05
05.265,-12.88
05.281,-13.17
05.296,-14.03
05.312,-16.38
05.328,-20.35
05.343,-25.0
05.359,-28.83
05.375,-30.44
05.390,-29.2
05.406,-25.6
05.421,-20.89
05.437,-16.35
05.453,-12.66
05.468,-9.72
05.484,-6.78
05.500,-3.16
05.515,1.3
05.531,6.01
05.546,9.96
05.562,12.27
05.578,12.8
05.593,12.22
05.609,11.62
05.625,11.91
05.640,13.34
05.656,15.27
05.671,16.72
05.687,16.83
05.703,15.46
05.718,13.28
05.734,11.4
05.750,10.76
05.765,11.59
05.781,13.34
05.796,14.92
05.812,15.41
05.828,14.45
05.843,12.48
05.859,10.41
05.875,9.12
05.890,8.93
05.906,9.39
05.921,9.56
05.937,8.5
05.953,5.88
05.968,2.12
05.984,-1.79
06.000,-4.82
06.015,-6.48
06.031,-7.09
06.046,-7.56
06.062,-8.87
06.078,-11.52
06.093,-15.28
06.109,-19.37
06.125,-22.92
06.140,-25.44
06.156,-27.0
06.171,-28.06
06.187,-29.08
06.203,-30.06
06.218,-30.5
06.234,-29.64
06.250,-26.86
06.265,-22.13
06.281,-16.18
06.296,-10.11
06.312,-4.98
06.328,-1.19
06.343,1.63
06.359,4.31
06.375,7.66
06.390,11.98
06.406,16.7
06.421,20.77
06.437,23.19
06.453,23.55
06.468,22.3
06.484,20.52
06.500,19.31
06.515,19.17
06.531,19.81
06.546,20.21
06.562,19.47
06.578,17.24
06.593,14.09
06.609,11.12
06.625,9.4
06.640,9.33
06.656,10.35
06.671,11.39
06.687,11.37
06.703,9.91
06.718,7.52
06.734,5.23
06.750,3.93
06.765,3.89
06.781,4.46
06.796,4.52
06.812,3.13
06.828,0.03
06.843,-4.12
06.859,-8.16
06.875,-11.09
06.890,-12.57
06.906,-13.19
06.921,-14.1
06.937,-16.29
06.953,-20.01
06.968,-24.59
06.984,-28.72
07.000,-31.06
07.015,-30.9
07.031,-28.39
07.046,-24.51
07.062,-20.38
07.078,-16.76
07.093,-13.67
07.109,-10.6
07.125,-6.82
07.140,-2.01
07.156,3.45
07.171,8.73
07.187,12.8
07.203,15.17
07.218,16.09
07.234,16.44
07.250,17.18
07.265,18.87
07.281,21.2
07.296,23.24
07.312,24.02
07.328,23.05
07.343,20.76
07.359,18.22
07.375,16.56
07.390,16.41
07.406,17.45
07.421,18.71
07.437,19.07
07.453,18.01
07.468,15.82
07.484,13.45
07.500,11.88
07.515,11.57
07.531,12.12
07.546,12.57
07.562,11.89
07.578,9.62
07.593,6.12
07.609,2.3
07.625,-0.78
07.640,-2.6
07.656,-3.42
07.671,-4.04
07.687,-5.36
07.703,-7.82
07.718,-11.13
07.734,-14.52
07.750,-17.22
07.765,-18.96
07.781,-20.16
07.796,-21.67
07.812,-24.11
07.828,-27.43
07.843,-30.69
07.859,-32.57
07.875,-31.91
07.890,-28.41
07.906,-22.87
07.921,-16.71
07.937,-11.34
07.953,-7.48
07.968,-4.86
07.984,-2.57
08.000,0.35
08.015,4.37
08.031,9.05
08.046,13.44
08.062,16.55
08.078,17.99
08.093,18.15
08.109,17.99
08.125,18.43
08.140,19.84
08.156,21.79
08.171,23.31
08.187,23.48
08.203,22.04
08.218,19.58
08.234,17.2
08.250,15.98
08.265,16.32
08.281,17.73
08.296,19.16
08.312,19.56
08.328,18.49
08.343,16.41
08.359,14.25
08.375,12.94
08.390,12.84
08.406,13.42
08.421,13.58
08.437,12.28
08.453,9.04
08.468,4.29
08.484,-0.82
08.500,-5.08
08.515,-7.78
08.531,-9.06
08.546,-9.77
08.562,-10.88
08.578,-12.95
08.593,-15.88
08.609,-19.01
08.625,-21.56
08.640,-23.15
08.656,-24.08
08.671,-25.0
08.687,-26.5
08.703,-28.63
08.718,-30.64
08.734,-31.34
08.750,-29.72
08.765,-25.47
08.781,-19.24
08.796,-12.43
08.812,-6.45
08.828,-2.1
08.843,0.68
08.859,2.8
08.875,5.24
08.890,8.53
08.906,12.4
08.921,15.92
08.937,18.14
08.953,18.67
08.968,17.86
08.984,16.63
09.000,15.94
09.015,16.22
09.031,17.13
09.046,17.8
09.062,17.43
09.078,15.78
09.093,13.38
09.109,11.2
09.125,10.13
09.140,10.49
09.156,11.81
09.171,13.12
09.187,13.48
09.203,12.48
09.218,10.48
09.234,8.35
09.250,6.94
09.265,6.62
09.281,6.99
09.296,7.16
09.312,6.19
09.328,3.71
09.343,0.06
09.359,-3.82
09.375,-6.87
09.390,-8.57
09.406,-9.18
09.421,-9.61
09.437,-10.84
09.453,-13.42
09.468,-17.07
09.484,-20.95
09.500,-24.09
09.515,-25.93
09.531,-26.63
09.546,-26.76
09.562,-26.88
09.578,-27.03
09.593,-26.61
09.609,-24.85
09.625,-21.15
09.640,-15.63
09.656,-9.18
09.671,-3.07
09.687,1.64
09.703,4.53
09.718,6.0
09.734,7.01
09.750,8.52
09.765,11.01
09.781,14.18
09.796,17.16
09.812,18.96
09.828,19.05
09.843,17.63
09.859,15.53
09.875,13.74
09.890,12.92
09.906,13.06
09.921,13.42
09.937,13.12
09.953,11.66
09.968,9.19
09.984,6.52
10.000,4.57
10.015,3.92
10.031,4.34
10.046,5.0
10.062,4.92
10.078,3.49
10.093,1.06
10.109,-1.53
10.125,-3.26
10.140,-3.62
10.156,-2.91
10.171,-2.11
10.187,-2.27
10.203,-3.95
10.218,-6.89
10.234,-10.17
10.250,-12.82
10.265,-14.32
10.281,-14.98
10.296,-15.71
10.312,-17.56
10.328,-21.03
10.343,-25.71
10.359,-30.42
10.375,-33.63
10.390,-34.24
10.406,-31.96
10.421,-27.51
10.437,-22.13
10.453,-16.94
10.468,-12.44
10.484,-8.33
10.500,-4.02
10.515,0.99
10.531,6.46
10.546,11.5
10.562,15.04
10.578,16.49
10.593,16.12
10.609,15.03
10.625,14.5
10.640,15.3
10.656,17.3
10.671,19.49
10.687,20.68
10.703,20.15
10.718,18.1
10.734,15.54
10.750,13.71
10.765,13.37
10.781,14.34
10.796,15.75
10.812,16.46
10.828,15.75
10.843,13.79
10.859,11.46
10.875,9.79
10.890,9.39
10.906,10.11
10.921,11.0
10.937,11.01
10.953,9.47
10.968,6.53
10.984,3.02
11.000,0.07
11.015,-1.56
11.031,-1.89
11.046,-1.71
11.062,-2.16
11.078,-4.04
11.093,-7.39
11.109,-11.44
11.125,-15.11
11.140,-17.62
11.156,-18.98
11.171,-19.95
11.187,-21.49
11.203,-24.03
11.218,-27.1
11.234,-29.37
11.250,-29.45
11.265,-26.53
11.281,-21.0
11.296,-14.22
11.312,-7.82
11.328,-2.95
11.343,0.26
11.359,2.55
11.375,4.97
11.390,8.21
11.406,12.17
11.421,15.92
11.437,18.46
11.453,19.14
11.468,18.23
11.484,16.72
11.500,15.81
11.515,16.23
11.531,17.86
11.546,19.76
11.562,20.78
11.578,20.19
11.593,18.17
11.609,15.7
11.625,13.96
11.640,13.75
11.656,15.0
11.671,16.79
11.687,17.88
11.703,17.41
11.718,15.33
11.734,12.41
11.750,9.78
11.765,8.24
11.781,7.86
11.796,7.94
11.812,7.52
11.828,5.87
11.843,3.01
11.859,-0.39
11.875,-3.44
11.890,-5.48
11.906,-6.5
11.921,-7.18
11.937,-8.35
11.953,-10.53
11.968,-13.62
11.984,-16.95
12.000,-19.66
12.015,-21.25
12.031,-21.8
12.046,-21.95
12.062,-22.47
12.078,-23.7
12.093,-25.23
12.109,-26.03
12.125,-24.95
12.140,-21.36
12.156,-15.61
12.171,-8.94
12.187,-2.87
12.203,1.46
12.218,3.83
12.234,4.97
12.250,6.09
12.265,8.11
12.281,11.26
12.296,14.83
12.312,17.74
12.328,19.12
12.343,18.81
12.359,17.48
12.375,16.12
12.390,15.58
12.406,15.99
12.421,16.78
12.437,17.04
12.453,16.16
12.468,14.22
12.484,11.98
12.500,10.55
12.515,10.65
12.531,12.27
12.546,14.53
12.562,16.2
12.578,16.24
12.593,14.44
12.609,11.48
12.625,8.49
12.640,6.49
12.656,5.8
12.671,5.79
12.687,5.33
12.703,3.46
12.718,-0.05
12.734,-4.51
12.750,-8.68
12.765,-11.55
12.781,-12.81
12.796,-13.11
12.812,-13.61
12.828,-15.29
12.843,-18.39
12.859,-22.19
12.875,-25.43
12.890,-26.91
12.906,-26.13
12.921,-23.48
12.937,-20.01
12.953,-16.75
12.968,-14.15
12.984,-11.9
13.000,-9.24
13.015,-5.54
13.031,-0.79
13.046,4.23
13.062,8.35
13.078,10.64
13.093,10.98
13.109,10.17
13.125,9.49
13.140,9.88
13.156,11.48
13.171,13.49
13.187,14.71
13.203,14.28
13.218,12.17
13.234,9.28
13.250,6.89
13.265,6.06
13.281,6.95
13.296,8.88
13.312,10.65
13.328,11.25
13.343,10.36
13.359,8.49
13.375,6.67
13.390,5.81
13.406,6.16
13.421,7.15
13.437,7.74
13.453,7.01
13.468,4.72
13.484,1.45
13.500,-1.75
13.515,-3.99
13.531,-5.06
13.546,-5.57
13.562,-6.54
13.578,-8.72
13.593,-12.19
13.609,-16.21
13.625,-19.68
13.640,-21.73
13.656,-22.23
13.671,-21.87
13.687,-21.64
13.703,-22.24
13.718,-23.55
13.734,-24.59
13.750,-24.08
13.765,-21.14
13.781,-15.78
13.796,-9.05
13.812,-2.5
13.828,2.55
13.843,5.67
13.859,7.35
13.875,8.64
13.890,10.51
13.906,13.28
13.921,16.41
13.937,19.0
13.953,20.21
13.968,19.89
13.984,18.64
14.000,17.47
14.015,17.17
14.031,17.89
14.046,19.02
14.062,19.49
14.078,18.58
14.093,16.25
14.109,13.29
14.125,10.83
14.140,9.77
14.156,10.22
14.171,11.37
14.187,12.09
14.203,11.44
14.218,9.25
14.234,6.19
14.250,3.37
14.265,1.68
14.281,1.38
14.296,1.85
14.312,2.08
14.328,1.09
14.343,-1.36
14.359,-4.71
14.375,-7.96
14.390,-10.11
14.406,-10.86
14.421,-10.78
14.437,-10.98
14.453,-12.42
14.468,-15.51
14.484,-19.72
14.500,-24.0
14.515,-27.24
14.531,-28.83
14.546,-28.86
14.562,-27.92
14.578,-26.59
14.593,-25.02
14.609,-22.86
14.625,-19.55
14.640,-14.71
14.656,-8.57
14.671,-2.04
14.687,3.64
14.703,7.5
14.718,9.3
14.734,9.66
14.750,9.68
14.765,10.42
14.781,12.32
14.796,14.92
14.812,17.33
14.828,18.56
14.843,18.18
14.859,16.56
14.875,14.58
14.890,13.13
14.906,12.66
14.921,12.92
14.937,13.12
14.953,12.55
14.968,10.98
14.984,8.83
15.000,6.96
15.015,6.16
15.031,6.61
15.046,7.8
15.062,8.67
15.078,8.32
15.093,6.51
15.109,3.77
15.125,1.18
15.140,-0.33
15.156,-0.44
15.171,0.3
15.187,0.83
15.203,0.12
15.218,-2.23
15.234,-5.67
15.250,-9.16
15.265,-11.67
15.281,-12.74
15.296,-12.83
15.312,-12.98
15.328,-14.26
15.343,-17.12
15.359,-21.15
15.375,-25.13
15.390,-27.75
15.406,-28.13
15.421,-26.27
15.437,-23.0
15.453,-19.42
15.468,-16.33
15.484,-13.77
15.500,-11.18
15.515,-7.87
15.531,-3.53
15.546,1.4
15.562,5.94
15.578,9.1
15.593,10.43
15.609,10.33
15.625,9.82
15.640,9.93
15.656,11.16
15.671,13.14
15.687,14.98
15.703,15.79
15.718,15.21
15.734,13.63
15.750,11.92
15.765,10.9
15.781,10.95
15.796,11.74
15.812,12.52
15.828,12.55
15.843,11.56
15.859,9.92
15.875,8.45
15.890,7.95
15.906,8.74
15.921,10.39
15.937,11.88
15.953,12.05
15.968,10.22
15.984,6.63
16.000,2.33
16.015,-1.4
16.031,-3.65
16.046,-4.4
16.062,-4.46
16.078,-4.92
16.093,-6.53
16.109,-9.21
16.125,-12.24
16.140,-14.65
16.156,-15.95
16.171,-16.42
16.187,-16.88
16.203,-18.17
16.218,-20.53
16.234,-23.31
16.250,-25.27
16.265,-25.15
16.281,-22.39
16.296,-17.46
16.312,-11.7
16.328,-6.57
16.343,-3.04
16.359,-1.09
16.375,0.13
16.390,1.71
16.406,4.29
16.421,7.63
16.437,10.82
16.453,12.75
16.468,12.92
16.484,11.6
16.500,9.8
16.515,8.63
16.531,8.68
16.546,9.72
16.562,10.82
16.578,11.0
16.593,9.74
16.609,7.42
16.625,5.04
16.640,3.73
16.656,4.16
16.671,6.0
16.687,8.23
16.703,9.58
16.718,9.29
16.734,7.45
16.750,4.94
16.765,2.82
16.781,1.77
16.796,1.63
16.812,1.48
16.828,0.27
16.843,-2.52
16.859,-6.57
16.875,-10.79
16.890,-13.92
16.906,-15.27
16.921,-15.05
16.937,-14.22
16.953,-14.05
16.968,-15.33
16.984,-17.98
17.000,-21.22
17.015,-23.96
17.031,-25.33
17.046,-25.17
17.062,-23.95
17.078,-22.3
17.093,-20.66
17.109,-18.87
17.125,-16.39
17.140,-12.6
17.156,-7.36
17.171,-1.27
17.187,4.54
17.203,8.94
17.218,11.33
17.234,12.0
17.250,11.9
17.265,12.16
17.281,13.44
17.296,15.7
17.312,18.08
17.328,19.47
17.343,19.25
17.359,17.52
17.375,15.11
17.390,13.1
17.406,12.2
17.421,12.31
17.437,12.68
17.453,12.39
17.468,10.88
17.484,8.4
17.500,5.85
17.515,4.19
17.531,3.94
17.546,4.74
17.562,5.66
17.578,5.66
17.593,4.25
17.609,1.69
17.625,-1.11
17.640,-3.2
17.656,-4.02
17.671,-3.81
17.687,-3.42
17.703,-3.74
17.718,-5.24
17.734,-7.68
17.750,-10.31
17.765,-12.21
17.781,-13.02
17.796,-13.09
17.812,-13.37
17.828,-14.89
17.843,-18.04
17.859,-22.25
17.875,-26.16
17.890,-28.28
17.906,-27.63
17.921,-24.34
17.937,-19.58
17.953,-14.88
17.968,-11.38
17.984,-9.24
18.000,-7.72
18.015,-5.69
18.031,-2.42
18.046,1.86
18.062,6.11
18.078,9.15
18.093,10.32
18.109,9.97
18.125,9.16
18.140,9.05
18.156,10.23
18.171,12.29
18.187,14.18
18.203,14.75
18.218,13.54
18.234,11.14
18.250,8.73
18.265,7.55
18.281,8.15
18.296,10.06
18.312,12.13
18.328,13.15
18.343,12.51
18.359,10.54
18.375,8.29
18.390,6.9
18.406,6.91
18.421,8.04
18.437,9.23
18.453,9.38
18.468,7.97
18.484,5.29
18.500,2.29
18.515,0.04
18.531,-0.89
18.546,-0.8
18.562,-0.61
18.578,-1.35
18.593,-3.47
18.609,-6.62
18.625,-9.83
18.640,-12.22
18.656,-13.4
18.671,-13.84
18.687,-14.48
18.703,-16.14
18.718,-18.96
18.734,-22.16
18.750,-24.39
18.765,-24.44
18.781,-21.89
18.796,-17.35
18.812,-12.2
18.828,-7.75
18.843,-4.67
18.859,-2.69
18.875,-0.86
18.890,1.71
18.906,5.28
18.921,9.32
18.937,12.79
18.953,14.75
18.968,15.0
18.984,14.08
19.000,13.02
19.015,12.69
19.031,13.41
19.046,14.71
19.062,15.72
19.078,15.67
19.093,14.33
19.109,12.15
19.125,10.09
19.140,9.02
19.156,9.33
19.171,10.6
19.187,11.83
19.203,12.03
19.218,10.68
19.234,8.11
19.250,5.27
19.265,3.22
19.281,2.52
19.296,2.96
19.312,3.61
19.328,3.39
19.343,1.77
19.359,-1.02
19.375,-4.04
19.390,-6.27
19.406,-7.19
19.421,-7.22
19.437,-7.34
19.453,-8.64
19.468,-11.66
19.484,-15.99
19.500,-20.56
19.515,-24.12
19.531,-25.81
19.546,-25.57
19.562,-24.01
19.578,-21.91
19.593,-19.77
19.609,-17.56
19.625,-14.78
19.640,-10.93
19.656,-5.99
19.671,-0.54
19.687,4.36
19.703,7.73
19.718,9.15
19.734,9.03
19.750,8.35
19.765,8.15
19.781,8.95
19.796,10.4
19.812,11.62
19.828,11.68
19.843,10.27
19.859,7.86
19.875,5.5
19.890,4.19
19.906,4.39
19.921,5.65
19.937,6.98
19.953,7.35
19.968,6.29
19.984,4.17
20.000,1.91
20.015,0.5
20.031,0.4
20.046,1.27
20.062,2.14
20.078,2.0
20.093,0.42
20.109,-2.28
20.125,-5.16
20.140,-7.2
20.156,-7.93
20.171,-7.64
20.187,-7.22
20.203,-7.68
20.218,-9.48
20.234,-12.35
20.250,-15.43
20.265,-17.87
20.281,-19.24
20.296,-19.79
20.312,-20.16
20.328,-20.95
20.343,-22.24
20.359,-23.38
20.375,-23.36
20.390,-21.37
20.406,-17.24
20.421,-11.7
20.437,-6.01
20.453,-1.32
20.468,1.9
20.484,3.94
20.500,5.72
20.515,8.01
20.531,11.16
20.546,14.71
20.562,17.76
20.578,19.53
20.593,19.73
20.609,18.82
20.625,17.66
20.640,17.1
20.656,17.37
20.671,18.0
20.687,18.12
20.703,16.92
20.718,14.26
20.734,10.72
20.750,7.38
20.765,5.25
20.781,4.73
20.796,5.33
20.812,6.01
20.828,5.79
20.843,4.16
20.859,1.5
20.875,-1.27
20.890,-3.26
20.906,-4.07
20.921,-4.02
20.937,-4.04
20.953,-5.03
20.968,-7.26
20.984,-10.35
21.000,-13.39
21.015,-15.6
21.031,-16.73
21.046,-17.33
21.062,-18.24
21.078,-20.1
21.093,-22.81
21.109,-25.44
21.125,-26.69
21.140,-25.53
21.156,-21.75
21.171,-16.16
21.187,-10.13
21.203,-4.94
21.218,-1.24
21.234,1.26
21.250,3.41
21.265,6.03
21.281,9.44
21.296,13.19
21.312,16.35
21.328,18.09
21.343,18.17
21.359,17.09
21.375,15.82
21.390,15.26
21.406,15.7
21.421,16.67
21.437,17.24
21.453,16.52
21.468,14.29
21.484,11.15
21.500,8.19
21.515,6.41
21.531,6.19
21.546,7.0
21.562,7.84
21.578,7.67
21.593,6.03
21.609,3.22
21.625,0.16
21.640,-2.27
21.656,-3.58
21.671,-4.0
21.687,-4.28
21.703,-5.19
21.718,-7.13
21.734,-9.86
21.750,-12.65
21.765,-14.75
21.781,-15.87
21.796,-16.36
21.812,-17.06
21.828,-18.73
21.843,-21.55
21.859,-24.86
21.875,-27.43
21.890,-28.06
21.906,-26.17
21.921,-22.14
21.937,-16.99
21.953,-11.94
21.968,-7.78
21.984,-4.53
22.000,-1.67
22.015,1.41
22.031,4.97
22.046,8.59
22.062,11.55
22.078,13.13
22.093,13.19
22.109,12.24
22.125,11.25
22.140,11.06
22.156,12.0
22.171,13.62
22.187,14.94
22.203,15.05
22.218,13.63
22.234,11.2
22.250,8.78
22.265,7.37
22.281,7.33
22.296,8.2
22.312,8.97
22.328,8.7
22.343,7.09
22.359,4.65
22.375,2.41
22.390,1.23
22.406,1.39
22.421,2.27
22.437,2.89
22.453,2.34
22.468,0.38
22.484,-2.42
22.500,-5.07
22.515,-6.73
22.531,-7.16
22.546,-6.95
22.562,-7.14
22.578,-8.58
22.593,-11.61
22.609,-15.69
22.625,-19.76
22.640,-22.78
22.656,-24.17
22.671,-24.03
22.687,-22.92
22.703,-21.45
22.718,-19.82
22.734,-17.7
22.750,-14.53
22.765,-9.91
22.781,-4.03
22.796,2.28
22.812,7.82
22.828,11.66
22.843,13.47
22.859,13.79
22.875,13.62
22.890,13.97
22.906,15.24
22.921,17.13
22.937,18.79
22.953,19.44
22.968,18.79
22.984,17.24
23.000,15.64
23.015,14.73
23.031,14.8
23.046,15.34
23.062,15.47
23.078,14.43
23.093,12.07
23.109,9.04
23.125,6.35
23.140,4.96
23.156,5.12
23.171,6.27
23.187,7.3
23.203,7.16
23.218,5.42
23.234,2.53
23.250,-0.46
23.265,-2.59
23.281,-3.41
23.296,-3.35
23.312,-3.36
23.328,-4.33
23.343,-6.57
23.359,-9.68
23.375,-12.85
23.390,-15.32
23.406,-16.91
23.421,-17.99
23.437,-19.21
23.453,-20.87
23.468,-22.63
23.484,-23.58
23.500,-22.63
23.515,-19.26
23.531,-13.69
23.546,-7.06
23.562,-0.82
23.578,3.84
23.593,6.61
23.609,8.02
23.625,9.17
23.640,11.06
23.656,13.99
23.671,17.43
23.687,20.36
23.703,21.76
23.718,21.3
23.734,19.47
23.750,17.33
23.765,15.91
23.781,15.75
23.796,16.48
23.812,17.24
23.828,17.1
23.843,15.72
23.859,13.54
23.875,11.48
23.890,10.38
23.906,10.48
23.921,11.2
23.937,11.56
23.953,10.7
23.968,8.45
23.984,5.42
24.000,2.64
24.015,0.95
24.031,0.5
24.046,0.65
24.062,0.35
24.078,-1.27
24.093,-4.35
24.109,-8.23
24.125,-11.87
24.140,-14.3
24.156,-15.29
24.171,-15.45
24.187,-15.85
24.203,-17.45
24.218,-20.41
24.234,-23.89
24.250,-26.41
24.265,-26.64
24.281,-24.0
24.296,-19.07
24.312,-13.2
24.328,-7.86
24.343,-3.88
24.359,-1.17
24.375,1.05
24.390,3.72
24.406,7.21
24.421,11.13
24.437,14.59
24.453,16.72
24.468,17.29
24.484,16.81
24.500,16.26
24.515,16.47
24.531,17.67
24.546,19.3
24.562,20.3
24.578,19.8
24.593,17.65
24.609,14.55
24.625,11.72
24.640,10.19
24.656,10.28
24.671,11.37
24.687,12.32
24.703,12.1
24.718,10.36
24.734,7.64
24.750,5.03
24.765,3.55
24.781,3.57
24.796,4.56
24.812,5.4
24.828,4.99
24.843,2.91
24.859,-0.4
24.875,-3.85
24.890,-6.33
24.906,-7.35
24.921,-7.24
24.937,-7.05
24.953,-7.89
24.968,-10.33
24.984,-14.11
25.000,-18.35
25.015,-21.99
25.031,-24.32
25.046,-25.29
25.062,-25.33
25.078,-25.01
25.093,-24.49
25.109,-23.44
25.125,-21.19
25.140,-17.18
25.156,-11.41
25.171,-4.61
25.187,1.94
25.203,7.02
25.218,9.96
25.234,11.01
25.250,11.16
25.265,11.61
25.281,13.16
25.296,15.7
25.312,18.39
25.328,20.15
25.343,20.33
25.359,19.09
25.375,17.25
25.390,15.85
25.406,15.43
25.421,15.81
25.437,16.15
25.453,15.59
25.468,13.77
25.484,11.16
25.500,8.74
25.515,7.45
25.531,7.69
25.546,8.98
25.562,10.27
25.578,10.49
25.593,9.17
25.609,6.67
25.625,3.99
25.640,2.16
25.656,1.66
25.671,2.14
25.687,2.63
25.703,2.18
25.718,0.31
25.734,-2.64
25.750,-5.78
25.765,-8.15
25.781,-9.29
25.796,-9.49
25.812,-9.66
25.828,-10.78
25.843,-13.4
25.859,-17.29
25.875,-21.58
25.890,-25.09
25.906,-26.87
25.921,-26.61
25.937,-24.67
25.953,-21.82
25.968,-18.76
25.984,-15.73
26.000,-12.47
26.015,-8.56
26.031,-3.8
26.046,1.45
26.062,6.29
26.078,9.81
26.093,11.48
26.109,11.61
26.125,11.11
26.140,11.12
26.156,12.26
26.171,14.35
26.187,16.42
26.203,17.39
26.218,16.68
26.234,14.56
26.250,12.06
26.265,10.31
26.281,10.01
26.296,11.0
26.312,12.36
26.328,13.01
26.343,12.28
26.359,10.3
26.375,7.88
26.390,5.99
26.406,5.25
26.421,5.48
26.437,5.93
26.453,5.68
26.468,4.2
26.484,1.66
26.500,-1.1
26.515,-3.17
26.531,-3.96
26.546,-3.63
26.562,-3.0
26.578,-3.04
26.593,-4.35
26.609,-6.82
26.625,-9.74
26.640,-12.19
26.656,-13.63
26.671,-14.2
26.687,-14.69
26.703,-15.99
26.718,-18.53
26.734,-21.86
26.750,-24.8
26.765,-25.94
26.781,-24.34
26.796,-20.09
26.812,-14.26
26.828,-8.36
26.843,-3.66
26.859,-0.58
26.875,1.29
26.890,2.89
26.906,5.0
26.921,7.84
26.937,10.91
26.953,13.4
26.968,14.61
26.984,14.47
27.000,13.57
27.015,12.75
27.031,12.64
27.046,13.18
27.062,13.72
27.078,13.31
27.093,11.43
27.109,8.3
27.125,4.88
27.140,2.41
27.156,1.7
27.171,2.7
27.187,4.46
27.203,5.74
27.218,5.6
27.234,4.05
27.250,1.84
27.265,0.04
27.281,-0.64
27.296,-0.26
27.312,0.33
27.328,0.03
27.343,-1.88
27.359,-5.3
27.375,-9.35
27.390,-12.79
27.406,-14.75
27.421,-15.15
27.437,-14.81
27.453,-14.88
27.468,-16.31
27.484,-19.23
27.500,-22.85
27.515,-25.94
27.531,-27.29
27.546,-26.41
27.562,-23.7
27.578,-20.12
27.593,-16.62
27.609,-13.67
27.625,-11.01
27.640,-8.0
27.656,-4.15
27.671,0.5
27.687,5.2
27.703,8.96
27.718,10.98
27.734,11.23
27.750,10.46
27.765,9.85
27.781,10.36
27.796,12.15
27.812,14.51
27.828,16.21
27.843,16.27
27.859,14.52
27.875,11.7
27.890,9.03
27.906,7.59
27.921,7.68
27.937,8.64
27.953,9.36
27.968,8.84
27.984,6.85
28.000,4.05
28.015,1.54
28.031,0.29
28.046,0.57
28.062,1.76
28.078,2.79
28.093,2.76
28.109,1.4
28.125,-0.75
28.140,-2.68
28.156,-3.66
28.171,-3.5
28.187,-2.86
28.203,-2.73
28.218,-3.9
28.234,-6.38
28.250,-9.54
28.265,-12.37
28.281,-14.13
28.296,-14.87
28.312,-15.34
28.328,-16.56
28.343,-19.05
28.359,-22.51
28.375,-25.77
28.390,-27.38
28.406,-26.34
28.421,-22.58
28.437,-17.05
28.453,-11.25
28.468,-6.47
28.484,-3.19
28.500,-1.02
28.515,0.93
28.531,3.44
28.546,6.69
28.562,10.15
28.578,12.91
28.593,14.29
28.609,14.2
28.625,13.29
28.640,12.52
28.656,12.6
28.671,13.65
28.687,14.99
28.703,15.73
28.718,15.19
28.734,13.35
28.750,10.94
28.765,9.0
28.781,8.36
28.796,9.11
28.812,10.59
28.828,11.64
28.843,11.39
28.859,9.66
28.875,7.12
28.890,4.9
28.906,3.91
28.921,4.28
28.937,5.25
28.953,5.68
28.968,4.57
28.984,1.78
29.000,-1.95
29.015,-5.44
29.031,-7.61
29.046,-8.21
29.062,-7.81
29.078,-7.52
29.093,-8.23
29.109,-10.27
29.125,-13.16
29.140,-16.05
29.156,-18.21
29.171,-19.45
29.187,-20.24
29.203,-21.23
29.218,-22.84
29.234,-24.8
29.250,-26.25
29.265,-26.11
29.281,-23.7
29.296,-19.11
29.312,-13.32
29.328,-7.66
29.343,-3.22
29.359,-0.31
29.375,1.56
29.390,3.36
29.406,5.84
29.421,9.11
29.437,12.54
29.453,15.13
29.468,16.11
29.484,15.35
29.500,13.56
29.515,11.76
29.531,10.86
29.546,11.08
29.562,11.91
29.578,12.43
29.593,11.9
29.609,10.21
29.625,8.02
29.640,6.41
29.656,6.22
29.671,7.6
29.687,9.77
29.703,11.47
29.718,11.63
29.734,9.99
29.750,7.24
29.765,4.6
29.781,3.19
29.796,3.4
29.812,4.63
29.828,5.74
29.843,5.67
29.859,4.04
29.875,1.34
29.890,-1.38
29.906,-3.12
29.921,-3.52
29.937,-3.09
29.953,-2.83
29.968,-3.73
29.984,-6.17
30.000,-9.74
30.015,-13.48
30.031,-16.45
30.046,-18.23
30.062,-19.03
30.078,-19.56
30.093,-20.38
30.109,-21.51
30.125,-22.32
30.140,-21.85
30.156,-19.34
30.171,-14.77
30.187,-8.95
30.203,-3.12
30.218,1.54
30.234,4.52
30.250,6.15
30.265,7.34
30.281,8.89
30.296,11.12
30.312,13.52
30.328,15.17
30.343,15.29
30.359,13.76
30.375,11.29
30.390,8.97
30.406,7.77
30.421,7.88
30.437,8.71
30.453,9.25
30.468,8.67
30.484,6.96
30.500,4.81
30.515,3.26
30.531,3.12
30.546,4.44
30.562,6.45
30.578,8.03
30.593,8.26
30.609,6.85
30.625,4.36
30.640,1.77
30.671,-0.61
30.687,-0.47
30.703,-0.51
30.718,-1.58
30.734,-3.93
30.750,-7.06
30.765,-9.93
30.781,-11.58
30.796,-11.71
30.812,-10.91
30.828,-10.4
30.843,-11.32
30.859,-14.05
30.875,-17.95
30.890,-21.79
30.906,-24.19
30.921,-24.42
30.937,-22.71
30.953,-19.96
30.968,-17.19
30.984,-14.98
31.000,-13.16
31.015,-11.05
31.031,-8.06
31.046,-4.02
31.062,0.44
31.078,4.3
31.093,6.68
31.109,7.35
31.125,6.87
31.140,6.35
31.156,6.83
31.171,8.62
31.187,11.23
31.203,13.59
31.218,14.64
31.234,14.03
31.250,12.2
31.265,10.17
31.281,8.93
31.296,8.98
31.312,9.94
31.328,10.99
31.343,11.25
31.359,10.36
31.375,8.7
31.390,7.1
31.406,6.31
31.421,6.62
31.437,7.59
31.453,8.3
31.468,7.97
31.484,6.33
31.500,3.81
31.515,1.31
31.531,-0.36
31.546,-0.88
31.562,-0.72
31.578,-0.73
31.593,-1.79
31.609,-4.14
31.625,-7.32
31.640,-10.33
31.656,-12.29
31.671,-12.87
31.687,-12.64
31.703,-12.67
31.718,-13.99
31.734,-16.99
31.750,-20.98
31.765,-24.66
31.781,-26.59
31.796,-25.93
31.812,-22.86
31.828,-18.4
31.843,-13.82
31.859,-10.01
31.875,-7.12
31.890,-4.61
31.906,-1.9
31.921,1.3
31.937,4.6
31.953,7.25
31.968,8.56
31.984,8.47
32.000,7.71
32.015,7.37
32.031,8.4
32.046,10.96
32.062,14.28
32.078,17.03
32.093,18.06
32.109,16.96
32.125,14.33
32.140,11.49
32.156,9.7
32.171,9.61
32.187,10.85
32.203,12.33
32.218,12.96
32.234,12.18
32.250,10.37
32.265,8.46
32.281,7.39
32.296,7.49
32.312,8.27
32.328,8.71
32.343,7.84
32.359,5.38
32.375,1.81
32.390,-1.73
32.406,-4.23
32.421,-5.23
32.437,-5.12
32.453,-4.87
32.468,-5.46
32.484,-7.37
32.500,-10.2
32.515,-13.04
32.531,-14.92
32.546,-15.43
32.562,-15.05
32.578,-14.88
32.593,-15.99
32.609,-18.83
32.625,-22.81
32.640,-26.51
32.656,-28.42
32.671,-27.58
32.687,-24.2
32.703,-19.34
32.718,-14.43
32.734,-10.42
32.750,-7.42
32.765,-4.87
32.781,-1.94
32.796,1.83
32.812,6.1
32.828,9.98
32.843,12.51
32.859,13.25
32.875,12.59
32.890,11.58
32.906,11.3
32.921,12.29
32.937,14.26
32.953,16.19
32.968,17.02
32.984,16.21
33.000,14.19
33.015,12.02
33.031,10.89
33.046,11.39
33.062,13.11
33.078,14.88
33.093,15.46
33.109,14.18
33.125,11.35
33.140,8.03
33.156,5.43
33.171,4.28
33.187,4.5
33.203,5.31
33.218,5.73
33.234,5.13
33.250,3.55
33.265,1.62
33.281,0.11
33.296,-0.55
33.312,-0.53
33.328,-0.54
33.343,-1.36
33.359,-3.37
33.375,-6.33
33.390,-9.4
33.406,-11.68
33.421,-12.61
33.437,-12.47
33.453,-12.21
33.468,-12.9
33.484,-15.23
33.500,-18.88
33.515,-22.8
33.531,-25.51
33.546,-25.96
33.562,-23.94
33.578,-20.2
33.593,-15.96
33.609,-12.18
33.625,-9.17
33.640,-6.47
33.656,-3.39
33.671,0.48
33.687,4.85
33.703,8.84
33.718,11.5
33.734,12.36
33.750,11.79
33.765,10.77
33.781,10.38
33.796,11.21
33.812,13.02
33.828,14.9
33.843,15.79
33.859,15.12
33.875,13.13
33.890,10.74
33.906,8.98
33.921,8.49
33.937,9.11
33.953,9.96
33.968,10.08
33.984,8.89
34.000,6.67
34.015,4.33
34.031,2.87
34.046,2.87
34.062,4.06
34.078,5.52
34.093,6.13
34.109,5.21
34.125,2.89
34.156,-2.5
34.171,-3.93
34.187,-4.4
34.203,-4.69
34.218,-5.77
34.234,-8.17
34.250,-11.71
34.265,-15.56
34.281,-18.73
34.296,-20.64
34.312,-21.47
34.328,-21.9
34.343,-22.66
34.359,-23.98
34.375,-25.22
34.390,-25.31
34.406,-23.27
34.421,-18.8
34.437,-12.54
34.453,-5.85
34.468,-0.13
34.484,3.83
34.500,6.11
34.515,7.55
34.531,9.08
34.546,11.24
34.562,13.82
34.578,16.06
34.593,17.16
34.609,16.76
34.625,15.26
34.640,13.63
34.656,12.86
34.671,13.44
34.687,15.03
34.703,16.68
34.718,17.36
34.734,16.55
34.750,14.59
34.765,12.39
34.781,10.99
34.796,10.87
34.812,11.73
34.828,12.56
34.843,12.35
34.859,10.56
34.875,7.5
34.890,4.18
34.906,1.71
34.921,0.73
34.937,1.06
34.953,1.82
34.968,1.89
34.984,0.54
35.000,-2.16
35.015,-5.47
35.031,-8.39
35.046,-10.15
35.062,-10.78
35.078,-11.02
35.093,-11.86
35.109,-14.1
35.125,-17.82
35.140,-22.32
35.156,-26.5
35.171,-29.31
35.187,-30.28
35.203,-29.57
35.218,-27.76
35.234,-25.42
35.250,-22.73
35.265,-19.48
35.281,-15.25
35.296,-9.91
35.312,-3.84
35.328,1.99
35.343,6.5
35.359,9.06
35.375,9.87
35.390,9.87
35.406,10.29
35.421,11.99
35.437,14.97
35.453,18.37
35.468,20.98
35.484,21.87
35.500,20.98
35.515,19.12
35.531,17.41
35.546,16.76
35.562,17.27
35.578,18.23
35.593,18.6
35.609,17.68
35.625,15.52
35.640,12.91
35.656,10.96
35.671,10.38
35.687,11.1
35.703,12.21
35.718,12.58
35.734,11.43
35.750,8.84
35.765,5.66
35.781,2.93
35.796,1.33
35.812,0.66
35.828,0.12
35.843,-1.28
35.859,-4.05
35.875,-7.92
35.890,-11.99
35.906,-15.25
35.921,-17.13
35.937,-17.86
35.953,-18.42
35.968,-19.82
35.984,-22.63
36.000,-26.52
36.015,-30.36
36.031,-32.75
36.046,-32.64
36.062,-29.86
36.078,-25.14
36.093,-19.69
36.109,-14.57
36.125,-10.18
36.140,-6.22
36.156,-2.06
36.171,2.72
36.187,7.91
36.203,12.71
36.218,16.19
36.234,17.79
36.250,17.7
36.265,16.81
36.281,16.19
36.296,16.58
36.312,17.92
36.328,19.47
36.343,20.27
36.359,19.71
36.375,17.99
36.390,15.9
36.406,14.37
36.421,14.03
36.437,14.78
36.453,15.89
36.468,16.46
36.484,15.89
36.500,14.22
36.515,12.09
36.531,10.33
36.546,9.51
36.562,9.61
36.578,9.98
36.593,9.71
36.609,8.17
36.625,5.38
36.640,2.05
36.656,-0.81
36.671,-2.43
36.687,-2.8
36.703,-2.63
36.718,-3.08
36.734,-4.97
36.750,-8.38
36.765,-12.6
36.781,-16.58
36.796,-19.6
36.812,-21.63
36.828,-23.27
36.843,-25.17
36.859,-27.5
36.875,-29.59
36.890,-30.23
36.906,-28.37
36.921,-23.67
36.937,-16.91
36.953,-9.59
36.968,-3.29
36.984,1.09
37.000,3.69
37.015,5.41
37.031,7.38
37.046,10.21
37.062,13.73
37.078,17.01
37.093,18.98
37.109,19.01
37.125,17.38
37.140,15.1
37.156,13.38
37.171,13.02
37.187,13.89
37.203,15.12
37.218,15.57
37.234,14.57
37.250,12.24
37.265,9.51
37.281,7.52
37.296,6.98
37.312,7.77
37.328,9.01
37.343,9.6
37.359,8.84
37.375,6.86
37.390,4.44
37.406,2.56
37.421,1.81
37.437,1.96
37.453,2.1
37.468,1.18
37.484,-1.42
37.500,-5.45
37.515,-9.9
37.531,-13.6
37.546,-15.81
37.562,-16.71
37.578,-17.3
37.593,-18.82
37.609,-21.97
37.625,-26.42
37.640,-30.87
37.656,-33.65
37.671,-33.51
37.687,-30.31
37.703,-25.0
37.718,-19.05
37.734,-13.72
37.750,-9.37
37.765,-5.54
37.781,-1.39
37.796,3.6
37.812,9.21
37.828,14.51
37.843,18.39
37.859,20.24
37.875,20.29
37.890,19.51
37.906,19.03
37.921,19.57
37.937,20.96
37.953,22.36
37.968,22.77
37.984,21.64
38.000,19.22
38.015,16.41
38.031,14.26
38.046,13.34
38.062,13.46
38.078,13.73
38.093,13.17
38.109,11.28
38.125,8.36
38.140,5.38
38.156,3.37
38.171,2.87
38.187,3.61
38.203,4.55
38.218,4.54
38.234,2.9
38.250,-0.13
38.265,-3.62
38.281,-6.43
38.296,-7.89
38.312,-8.22
38.328,-8.37
38.343,-9.5
38.359,-12.25
38.375,-16.47
38.390,-21.23
38.406,-25.41
38.421,-28.24
38.437,-29.63
38.453,-30.1
38.468,-30.29
38.484,-30.43
38.500,-30.07
38.515,-28.34
38.531,-24.44
38.546,-18.25
38.562,-10.57
38.578,-2.88
38.593,3.36
38.609,7.34
38.625,9.25
38.640,10.16
38.656,11.3
38.671,13.48
38.687,16.7
38.703,20.11
38.718,22.61
38.734,23.49
38.750,22.73
38.765,21.07
38.781,19.56
38.796,18.88
38.812,19.07
38.828,19.45
38.843,19.16
38.859,17.66
38.875,15.14
38.890,12.44
38.906,10.53
38.921,10.06
38.937,10.75
38.953,11.72
38.968,11.88
38.984,10.62
39.000,8.1
39.015,5.22
39.031,3.0
39.046,2.01
39.062,1.99
39.078,1.99
39.093,1.03
39.109,-1.41
39.125,-5.0
39.140,-8.76
39.156,-11.63
39.171,-13.11
39.187,-13.55
39.203,-13.95
39.218,-15.44
39.234,-18.59
39.250,-23.1
39.265,-27.87
39.281,-31.43
39.296,-32.66
39.312,-31.22
39.328,-27.67
39.343,-23.1
39.359,-18.54
39.375,-14.46
39.390,-10.63
39.406,-6.54
39.421,-1.72
39.437,3.62
39.453,8.69
39.468,12.44
39.484,14.33
39.500,14.55
39.515,14.07
39.531,14.07
39.546,15.31
39.562,17.68
39.578,20.25
39.593,21.8
39.609,21.57
39.625,19.64
39.640,16.96
39.656,14.71
39.671,13.81
39.687,14.33
39.703,15.51
39.718,16.32
39.734,15.96
39.750,14.42
39.765,12.33
39.781,10.63
39.796,9.91
39.812,10.09
39.828,10.39
39.843,9.85
39.859,7.89
39.875,4.72
39.890,1.27
39.906,-1.43
39.921,-2.75
39.937,-2.89
39.953,-2.75
39.968,-3.42
39.984,-5.57
40.000,-9.03
40.015,-12.93
40.031,-16.28
40.046,-18.41
40.062,-19.5
40.078,-20.24
40.093,-21.39
40.109,-23.14
40.125,-24.9
40.140,-25.46
40.156,-23.74
40.171,-19.3
40.187,-12.8
40.203,-5.69
40.218,0.48
40.234,4.71
40.250,7.09
40.265,8.53
40.281,10.16
40.296,12.63
40.312,15.75
40.328,18.59
40.343,20.12
40.359,19.88
40.375,18.24
40.390,16.18
40.406,14.81
40.421,14.64
40.437,15.32
40.453,15.92
40.468,15.46
40.484,13.53
40.500,10.61
40.515,7.8
40.531,6.14
40.546,6.15
40.562,7.43
40.578,8.85
40.593,9.25
40.609,8.04
40.625,5.53
40.640,2.72
40.656,0.71
40.671,0.06
40.687,0.41
40.703,0.74
40.718,-0.07
40.734,-2.51
40.750,-6.2
40.765,-9.99
40.781,-12.72
40.796,-13.88
40.812,-13.89
40.828,-13.94
40.843,-15.19
40.859,-18.14
40.875,-22.12
40.890,-25.75
40.906,-27.43
40.921,-26.25
40.937,-22.42
40.953,-17.1
40.968,-11.77
40.984,-7.51
41.000,-4.53
41.015,-2.22
41.031,0.2
41.046,3.24
41.062,6.63
41.078,9.59
41.093,11.3
41.109,11.48
41.125,10.69
41.140,9.95
41.156,10.22
41.171,11.82
41.187,14.16
41.203,16.16
41.218,16.8
41.234,15.73
41.250,13.45
41.265,11.1
41.281,9.76
41.296,9.86
41.312,10.97
41.328,12.0
41.343,11.87
41.359,10.15
41.375,7.26
41.390,4.24
41.406,2.11
41.421,1.39
41.437,1.72
41.453,2.13
41.468,1.64
41.484,-0.24
41.500,-3.18
41.515,-6.28
41.531,-8.65
41.546,-9.84
41.562,-10.2
41.578,-10.58
41.593,-11.85
41.609,-14.42
41.625,-17.96
41.640,-21.6
41.656,-24.42
41.671,-25.86
41.687,-25.97
41.703,-25.35
41.718,-24.5
41.734,-23.55
41.750,-22.18
41.765,-19.73
41.781,-15.75
41.796,-10.37
41.812,-4.43
41.828,0.94
41.843,4.74
41.859,6.78
41.875,7.61
41.890,8.23
41.906,9.51
41.921,11.7
41.937,14.3
41.953,16.41
41.968,17.32
41.984,16.79
42.000,15.34
42.015,13.78
42.031,12.84
42.046,12.74
42.062,13.09
42.078,13.19
42.093,12.43
42.109,10.78
42.125,8.76
42.140,7.24
42.156,6.86
42.171,7.65
42.187,8.95
42.203,9.69
42.218,9.0
42.234,6.76
42.250,3.63
42.265,0.65
42.281,-1.33
42.296,-2.13
42.312,-2.36
42.328,-2.97
42.343,-4.65
42.359,-7.47
42.375,-10.71
42.390,-13.46
42.406,-15.04
42.421,-15.42
42.437,-15.34
42.453,-15.79
42.468,-17.53
42.484,-20.6
42.500,-24.26
42.515,-27.31
42.531,-28.65
42.546,-27.77
42.562,-24.96
42.578,-21.12
42.593,-17.24
42.609,-13.85
42.625,-10.88
42.640,-7.79
42.656,-3.99
42.671,0.56
42.687,5.28
42.703,9.21
42.718,11.54
42.734,12.09
42.750,11.53
42.765,10.96
42.781,11.31
42.796,12.86
42.812,15.05
42.828,16.77
42.843,17.09
42.859,15.75
42.875,13.33
42.890,10.9
42.906,9.46
42.921,9.39
42.937,10.25
42.953,11.19
42.968,11.29
42.984,10.27
43.000,8.49
43.015,6.8
43.031,5.92
43.046,6.1
43.062,6.82
43.078,7.19
43.093,6.49
43.109,4.54
43.125,1.91
43.140,-0.44
43.156,-1.68
43.171,-1.66
43.187,-1.01
43.203,-0.8
43.218,-1.87
43.234,-4.37
43.250,-7.62
43.265,-10.52
43.281,-12.21
43.296,-12.58
43.312,-12.4
43.328,-12.8
43.343,-14.63
43.359,-17.77
43.375,-21.15
43.390,-23.2
43.406,-22.65
43.421,-19.26
43.437,-13.89
43.453,-8.03
43.468,-3.05
43.484,0.47
43.500,2.83
43.515,4.88
43.531,7.38
43.546,10.48
43.562,13.51
43.578,15.5
43.593,15.75
43.609,14.36
43.625,12.14
43.640,10.29
43.656,9.63
43.671,10.29
43.687,11.53
43.703,12.3
43.718,11.76
43.734,9.85
43.750,7.34
43.765,5.38
43.781,4.97
43.796,6.3
43.812,8.69
43.828,10.97
43.843,12.03
43.859,11.52
43.875,9.86
43.890,8.06
43.906,6.96
43.921,6.84
43.937,7.09
43.953,6.74
43.968,5.02
43.984,1.87
44.000,-1.97
44.015,-5.33
44.031,-7.27
44.046,-7.63
44.062,-7.11
44.078,-6.95
44.093,-8.18
44.109,-11.05
44.125,-14.96
44.140,-18.72
44.156,-21.24
44.171,-22.01
44.187,-21.36
44.203,-20.07
44.218,-18.8
44.234,-17.74
44.250,-16.33
44.265,-13.85
44.281,-9.79
44.296,-4.42
44.312,1.28
44.328,6.02
44.343,8.91
44.359,9.92
44.375,9.85
44.390,9.92
44.406,11.01
44.421,13.24
44.437,15.83
44.453,17.61
44.468,17.75
44.484,16.24
44.500,13.88
44.515,11.82
44.531,10.88
44.546,11.09
44.562,11.75
44.578,11.89
44.593,10.83
44.609,8.7
44.625,6.28
44.640,4.61
44.656,4.31
44.671,5.27
44.687,6.63
44.703,7.27
44.718,6.45
44.734,4.2
44.750,1.23
44.765,-1.38
44.781,-2.84
44.796,-3.15
44.812,-3.0
44.828,-3.38
44.843,-5.06
44.859,-8.04
44.875,-11.61
44.890,-14.73
44.906,-16.63
44.921,-17.26
44.937,-17.35
44.953,-17.95
44.968,-19.79
44.984,-22.74
45.000,-25.78
45.015,-27.53
45.031,-26.89
45.046,-23.7
45.062,-18.85
45.078,-13.73
45.093,-9.47
45.109,-6.44
45.125,-4.12
45.140,-1.54
45.156,1.99
45.171,6.37
45.187,10.68
45.203,13.8
45.218,14.98
45.234,14.48
45.250,13.27
45.265,12.6
45.281,13.24
45.296,14.98
45.312,16.79
45.328,17.46
45.343,16.35
45.359,13.89
45.375,11.25
45.390,9.73
45.406,10.01
45.421,11.7
45.437,13.66
45.453,14.62
45.468,13.93
45.484,11.84
45.500,9.29
45.515,7.29
45.531,6.29
45.546,5.95
45.562,5.39
45.578,3.76
45.593,0.79
45.609,-3.0
45.625,-6.56
45.640,-8.88
45.656,-9.58
45.671,-9.03
45.687,-8.25
45.703,-8.27
45.718,-9.63
45.734,-12.05
45.750,-14.66
45.765,-16.57
45.781,-17.42
45.796,-17.66
45.812,-18.18
45.828,-19.74
45.843,-22.41
45.859,-25.32
45.875,-27.1
45.890,-26.52
45.906,-23.16
45.921,-17.7
45.937,-11.59
45.953,-6.3
45.968,-2.64
45.984,-0.51
46.000,0.93
46.015,2.63
46.031,5.11
46.046,8.21
46.062,11.2
46.078,13.28
46.093,14.05
46.109,13.82
46.125,13.32
46.140,13.3
46.156,14.03
46.171,15.08
46.187,15.59
46.203,14.76
46.218,12.41
46.234,9.13
46.250,6.05
46.265,4.18
46.281,4.02
46.296,5.14
46.312,6.52
46.328,7.06
46.343,6.17
46.359,4.11
46.375,1.81
46.390,0.28
46.406,0.03
46.421,0.79
46.437,1.7
46.453,1.78
46.468,0.6
46.484,-1.5
46.500,-3.58
46.515,-4.75
46.531,-4.66
46.546,-3.85
46.562,-3.38
46.578,-4.25
46.593,-6.81
46.609,-10.49
46.625,-14.23
46.640,-17.01
46.656,-18.41
46.671,-18.77
46.687,-18.88
46.703,-19.37
46.718,-20.26
46.734,-20.88
46.750,-20.21
46.765,-17.58
46.781,-13.0
46.796,-7.45
46.812,-2.28
46.828,1.36
46.843,3.1
46.859,3.46
46.875,3.57
46.890,4.5
46.906,6.73
46.921,9.83
46.937,12.77
46.953,14.5
46.968,14.5
46.984,13.12
47.000,11.32
47.015,10.13
47.031,10.14
47.046,11.11
47.062,12.22
47.078,12.58
47.093,11.73
47.109,9.98
47.125,8.18
47.140,7.24
47.156,7.49
47.171,8.55
47.187,9.43
47.203,9.22
47.218,7.63
47.234,5.14
47.250,2.78
47.265,1.43
47.281,1.31
47.296,1.71
47.312,1.55
47.328,-0.13
47.343,-3.43
47.359,-7.63
47.375,-11.49
47.390,-14.0
47.406,-14.98
47.421,-15.17
47.437,-15.82
47.453,-17.87
47.468,-21.4
47.484,-25.43
47.500,-28.44
47.515,-29.07
47.531,-26.79
47.546,-22.21
47.562,-16.68
47.578,-11.56
47.593,-7.62
47.609,-4.68
47.625,-1.94
47.640,1.38
47.656,5.52
47.671,9.9
47.687,13.51
47.703,15.43
47.718,15.54
47.734,14.41
47.750,13.12
47.765,12.59
47.781,13.11
47.796,14.11
47.812,14.7
47.828,14.09
47.843,12.19
47.859,9.66
47.875,7.54
47.890,6.65
47.906,7.12
47.921,8.31
47.937,9.15
47.953,8.74
47.968,6.88
47.984,4.19
48.000,1.78
48.015,0.58
48.031,0.87
48.046,2.07
48.062,3.06
48.078,2.89
48.093,1.24
48.109,-1.36
48.125,-3.9
48.140,-5.46
48.156,-5.77
48.171,-5.44
48.187,-5.47
48.203,-6.77
48.218,-9.6
48.234,-13.42
48.250,-17.25
48.265,-20.21
48.281,-21.92
48.296,-22.64
48.312,-22.96
48.328,-23.32
48.343,-23.61
48.359,-23.21
48.375,-21.38
48.390,-17.65
48.406,-12.3
48.421,-6.26
48.437,-0.79
48.453,3.16
48.468,5.36
48.484,6.34
48.500,7.14
48.515,8.63
48.531,11.07
48.546,13.92
48.562,16.21
48.578,17.11
48.593,16.43
48.609,14.73
48.625,12.98
48.640,12.03
48.656,12.14
48.671,12.83
48.687,13.25
48.703,12.7
48.718,11.07
48.734,8.87
48.750,7.02
48.765,6.24
48.781,6.66
48.796,7.68
48.812,8.36
48.828,7.89
48.843,6.11
48.859,3.66
48.875,1.45
48.890,0.32
48.906,0.31
48.921,0.71
48.937,0.43
48.953,-1.3
48.968,-4.45
48.984,-8.17
49.000,-11.26
49.015,-12.85
49.031,-13.0
49.046,-12.71
49.062,-13.29
49.078,-15.61
49.093,-19.58
49.109,-24.06
49.125,-27.51
49.140,-28.7
49.156,-27.28
49.171,-23.89
49.187,-19.75
49.203,-15.93
49.218,-12.86
49.234,-10.24
49.250,-7.35
49.265,-3.64
49.281,0.84
49.296,5.32
49.312,8.82
49.328,10.62
49.343,10.82
49.359,10.33
49.375,10.3
49.390,11.58
49.406,14.17
49.421,17.14
49.437,19.29
49.453,19.69
49.468,18.32
49.484,15.98
49.500,13.86
49.515,12.85
49.531,13.08
49.546,13.9
49.562,14.22
49.578,13.34
49.593,11.15
49.609,8.37
49.625,6.07
49.640,5.11
49.656,5.66
49.671,7.0
49.687,7.99
49.703,7.56
49.718,5.45
49.734,2.24
49.750,-0.95
49.765,-3.08
49.781,-3.86
49.796,-3.89
49.812,-4.25
49.828,-5.85
49.843,-8.9
49.859,-12.73
49.875,-16.31
49.890,-18.86
49.906,-20.26
49.921,-21.15
49.937,-22.32
49.953,-24.11
49.968,-26.07
49.984,-27.11
50.000,-26.12
50.015,-22.57
50.031,-16.93
50.046,-10.46
50.062,-4.72
50.078,-0.72
50.093,1.42
50.109,2.51
50.125,3.7
50.140,5.84
50.156,8.98
50.171,12.35
50.187,14.89
50.203,15.82
50.218,15.14
50.234,13.6
50.250,12.27
50.265,12.01
50.281,12.89
50.296,14.21
50.312,14.95
50.328,14.37
50.343,12.48
50.359,10.11
50.375,8.33
50.390,7.91
50.406,8.85
50.421,10.32
50.437,11.19
50.453,10.68
50.468,8.83
50.484,6.39
50.500,4.45
50.515,3.64
50.531,3.82
50.546,4.15
50.562,3.61
50.578,1.6
50.593,-1.68
50.609,-5.35
50.625,-8.33
50.640,-9.98
50.656,-10.44
50.671,-10.65
50.687,-11.73
50.703,-14.42
50.718,-18.57
50.734,-23.2
50.750,-26.93
50.765,-28.62
50.781,-27.88
50.796,-25.24
50.812,-21.79
50.828,-18.53
50.843,-15.85
50.859,-13.38
50.875,-10.41
50.890,-6.35
50.906,-1.31
50.921,3.88
50.937,8.06
50.953,10.39
50.968,10.91
50.984,10.45
51.000,10.2
51.015,11.0
51.031,12.9
51.046,15.02
51.062,16.27
51.078,15.91
51.093,14.04
51.109,11.57
51.125,9.67
51.140,9.14
51.156,9.98
51.171,11.42
51.187,12.39
51.203,12.16
51.218,10.74
51.234,8.81
51.250,7.31
51.265,6.89
51.281,7.47
51.296,8.35
51.312,8.6
51.328,7.55
51.343,5.28
51.359,2.51
51.375,0.1
51.390,-1.32
51.406,-1.88
51.421,-2.29
51.437,-3.47
51.453,-6.0
51.468,-9.72
51.484,-13.83
51.500,-17.38
51.515,-19.78
51.531,-21.1
51.546,-22.01
51.562,-23.25
51.578,-25.03
51.593,-26.81
51.609,-27.49
51.625,-26.0
51.640,-21.88
51.656,-15.7
51.671,-8.82
51.687,-2.78
51.703,1.43
51.718,3.82
51.734,5.32
51.750,7.07
51.765,9.85
51.781,13.53
51.796,17.13
51.812,19.48
51.828,19.88
51.843,18.54
51.859,16.5
51.875,15.01
51.890,14.85
51.906,15.8
51.921,16.96
51.937,17.22
51.953,16.07
51.968,13.92
51.984,11.73
52.000,10.57
52.015,10.88
52.031,12.23
52.046,13.52
52.062,13.71
52.078,12.29
52.093,9.69
52.109,6.89
52.125,4.89
52.140,4.14
52.156,4.27
52.171,4.34
52.187,3.37
52.203,0.99
52.218,-2.39
52.234,-5.82
52.250,-8.35
52.265,-9.57
52.281,-9.91
52.296,-10.4
52.312,-12.08
52.328,-15.42
52.343,-20.02
52.359,-24.83
52.375,-28.6
52.390,-30.54
52.406,-30.57
52.421,-29.24
52.437,-27.28
52.453,-25.12
52.468,-22.6
52.484,-19.17
52.500,-14.35
52.515,-8.14
52.531,-1.26
52.546,5.11
52.562,9.92
52.578,12.77
52.593,14.04
52.609,14.78
52.625,15.96
52.640,18.03
52.656,20.65
52.671,22.89
52.687,23.8
52.703,22.96
52.718,20.82
52.734,18.33
52.750,16.61
52.765,16.2
52.781,16.82
52.796,17.61
52.812,17.64
52.828,16.46
52.843,14.4
52.859,12.4
52.875,11.37
52.890,11.69
52.906,12.89
52.921,13.96
52.937,13.95
52.953,12.51
52.968,10.1
52.984,7.66
53.000,6.08
53.015,5.6
53.031,5.68
53.046,5.33
53.062,3.68
53.078,0.55
53.093,-3.47
53.109,-7.28
53.125,-9.97
53.140,-11.28
53.156,-11.8
53.171,-12.6
53.187,-14.62
53.203,-18.11
53.218,-22.35
53.234,-26.09
53.250,-28.05
53.265,-27.6
53.281,-25.02
53.296,-21.22
53.312,-17.27
53.328,-13.76
53.343,-10.66
53.359,-7.46
53.375,-3.6
53.390,1.0
53.406,5.79
53.421,9.88
53.437,12.49
53.453,13.43
53.468,13.31
53.484,13.09
53.500,13.63
53.515,15.19
53.531,17.22
53.546,18.72
53.562,18.83
53.578,17.35
53.593,14.87
53.609,12.51
53.625,11.21
53.640,11.29
53.656,12.21
53.671,13.0
53.687,12.77
53.703,11.27
53.718,9.09
53.734,7.17
53.750,6.35
53.765,6.8
53.781,7.82
53.796,8.32
53.812,7.41
53.828,4.91
53.843,1.49
53.859,-1.76
53.875,-3.98
53.890,-4.92
53.906,-5.21
53.921,-5.83
53.937,-7.55
53.953,-10.5
53.968,-14.08
53.984,-17.33
54.000,-19.59
54.015,-20.75
54.031,-21.42
54.046,-22.35
54.062,-24.01
54.078,-26.04
54.093,-27.43
54.109,-26.99
54.125,-23.94
54.140,-18.42
54.156,-11.55
54.171,-4.87
54.187,0.39
54.203,3.81
54.218,5.91
54.234,7.67
54.250,9.93
54.265,12.88
54.281,15.92
54.296,18.13
54.312,18.83
54.328,18.04
54.343,16.52
54.359,15.26
54.375,14.89
54.390,15.43
54.406,16.22
54.421,16.37
54.437,15.33
54.453,13.18
54.468,10.68
54.484,8.81
54.500,8.28
54.515,9.06
54.531,10.41
54.546,11.32
54.562,11.02
54.578,9.43
54.593,7.13
54.609,5.02
54.625,3.78
54.640,3.46
54.656,3.45
54.671,2.81
54.687,0.87
54.703,-2.36
54.718,-6.15
54.734,-9.5
54.750,-11.59
54.765,-12.4
54.781,-12.61
54.796,-13.33
54.812,-15.42
54.828,-19.04
54.843,-23.48
54.859,-27.49
54.875,-29.96
54.890,-30.4
54.906,-29.19
54.921,-27.14
54.937,-25.0
54.953,-22.9
54.968,-20.41
54.984,-16.76
55.000,-11.56
55.015,-5.12
55.031,1.52
55.046,7.05
55.062,10.56
55.078,12.02
55.093,12.27
55.109,12.52
55.125,13.71
55.140,15.96
55.156,18.53
55.171,20.38
55.187,20.74
55.203,19.58
55.218,17.6
55.234,15.79
55.250,14.96
55.265,15.21
55.281,15.97
55.296,16.38
55.312,15.81
55.328,14.24
55.343,12.26
55.359,10.76
55.375,10.35
55.390,11.03
55.406,12.1
55.421,12.61
55.437,11.83
55.453,9.79
55.468,7.19
55.484,5.03
55.500,4.02
55.515,4.07
55.531,4.33
55.546,3.63
55.562,1.25
55.578,-2.71
55.593,-7.23
55.609,-10.99
55.625,-13.03
55.640,-13.26
55.656,-12.61
55.671,-12.4
55.687,-13.7
55.703,-16.67
55.718,-20.62
55.734,-24.3
55.750,-26.55
55.765,-26.9
55.781,-25.7
55.796,-23.7
55.812,-21.55
55.828,-19.34
55.843,-16.65
55.859,-12.95
55.875,-8.02
55.890,-2.3
55.906,3.2
55.921,7.39
55.937,9.71
55.953,10.43
55.968,10.46
55.984,10.92
56.000,12.51
56.015,15.06
56.031,17.73
56.046,19.43
56.062,19.47
56.078,17.97
56.093,15.75
56.109,13.9
56.125,13.16
56.140,13.54
56.156,14.36
56.171,14.72
56.187,14.04
56.203,12.43
56.218,10.6
56.234,9.35
56.250,9.14
56.265,9.71
56.281,10.26
56.296,9.86
56.312,8.08
56.328,5.17
56.343,1.99
56.359,-0.48
56.375,-1.75
56.390,-2.07
56.406,-2.31
56.421,-3.43
56.437,-5.91
56.453,-9.37
56.468,-12.82
56.484,-15.21
56.500,-15.94
56.515,-15.4
56.531,-14.66
56.546,-14.94
56.562,-16.95
56.578,-20.5
56.593,-24.45
56.609,-27.43
56.625,-28.34
56.640,-26.94
56.656,-23.85
56.671,-20.04
56.687,-16.3
56.703,-12.83
56.718,-9.3
56.734,-5.16
56.750,-0.17
56.765,5.18
56.781,9.96
56.796,13.12
56.812,14.19
56.828,13.6
56.843,12.43
56.859,11.95
56.875,12.88
56.890,15.04
56.906,17.42
56.921,18.88
56.937,18.67
56.953,16.96
56.968,14.69
56.984,12.9
57.000,12.31
57.015,12.72
57.031,13.3
57.046,13.11
57.062,11.74
57.078,9.49
57.093,7.26
57.109,5.94
57.125,5.82
57.140,6.43
57.156,6.77
57.171,5.96
57.187,3.72
57.203,0.65
57.218,-2.22
57.234,-3.95
57.250,-4.26
57.265,-3.81
57.281,-3.65
57.296,-4.79
57.312,-7.51
57.328,-11.29
57.343,-15.13
57.359,-18.11
57.375,-19.89
57.390,-20.9
57.406,-21.93
57.421,-23.56
57.437,-25.72
57.453,-27.61
57.468,-28.08
57.484,-26.28
57.500,-22.16
57.515,-16.5
57.531,-10.58
57.546,-5.59
57.562,-1.95
57.578,0.67
57.593,3.06
57.609,5.94
57.625,9.47
57.640,13.06
57.656,15.78
57.671,16.96
57.687,16.5
57.703,15.08
57.718,13.7
57.734,13.18
57.750,13.7
57.765,14.69
57.781,15.19
57.796,14.41
57.812,12.25
57.828,9.34
57.843,6.77
57.859,5.37
57.875,5.4
57.890,6.28
57.906,7.0
57.921,6.68
57.937,5.1
57.953,2.82
57.968,0.84
57.984,0.04
58.000,0.51
58.015,1.51
58.031,1.92
58.046,0.84
58.062,-1.86
58.078,-5.35
58.093,-8.49
58.109,-10.39
58.125,-10.92
58.140,-10.9
58.156,-11.52
58.171,-13.62
58.187,-17.24
58.203,-21.55
58.218,-25.33
58.234,-27.5
58.250,-27.71
58.265,-26.33
58.281,-24.16
58.296,-21.89
58.312,-19.69
58.328,-17.24
58.343,-13.95
58.359,-9.54
58.375,-4.23
58.390,1.18
58.406,5.71
58.421,8.63
58.437,9.94
58.453,10.27
58.468,10.58
58.484,11.66
58.500,13.63
58.515,15.91
58.531,17.59
58.546,17.92
58.562,16.8
58.578,14.87
58.593,13.17
58.609,12.57
58.625,13.28
58.640,14.69
58.656,15.77
58.671,15.68
58.687,14.22
58.703,12.0
58.718,9.97
58.734,8.89
58.750,8.87
58.765,9.24
58.781,9.04
58.796,7.62
58.812,5.08
58.828,2.23
58.843,0.1
58.859,-0.69
58.875,-0.35
58.890,0.19
58.906,-0.17
58.921,-2.1
58.937,-5.36
58.953,-9.04
58.968,-12.01
58.984,-13.66
59.000,-14.24
59.015,-14.81
59.031,-16.51
59.046,-19.89
59.062,-24.54
59.078,-29.24
59.093,-32.5
59.109,-33.31
59.125,-31.57
59.140,-28.04
59.156,-23.92
59.171,-20.14
59.187,-16.94
59.203,-13.89
59.218,-10.36
59.234,-5.98
59.250,-1.02
59.265,3.7
59.281,7.23
59.296,9.09
59.312,9.54
59.328,9.5
59.343,10.04
59.359,11.82
59.375,14.64
59.390,17.6
59.406,19.58
59.421,19.83
59.437,18.47
59.453,16.37
59.468,14.64
59.484,14.08
59.500,14.67
59.515,15.66
59.531,16.0
59.546,14.98
59.562,12.68
59.578,9.88
59.593,7.61
59.609,6.58
59.625,6.78
59.640,7.49
59.656,7.77
59.671,7.04
59.687,5.38
59.703,3.49
59.718,2.14
59.734,1.67
59.750,1.74
59.765,1.49
59.781,0.06
59.796,-2.84
59.812,-6.66
59.828,-10.29
59.843,-12.71
59.859,-13.49
59.875,-13.28
59.890,-13.33
59.906,-14.76
59.921,-18.0
59.937,-22.31
59.953,-26.2
59.968,-28.14
59.984,-27.36
