timestamp,value
00.000,-9.31
00.015,-9.4
00.031,-8.03
00.046,-5.37
00.062,-1.74
00.078,2.52
00.093,7.01
00.109,11.37
00.125,15.19
00.140,18.16
00.156,20.04
00.171,20.67
00.187,20.01
00.203,18.11
00.218,15.14
00.234,11.34
00.250,6.95
00.265,2.18
00.281,-2.87
00.296,-8.15
00.312,-13.66
00.328,-19.39
00.343,-25.2
00.359,-30.8
00.375,-35.73
00.390,-39.54
00.406,-41.73
00.421,-42.0
00.437,-40.31
00.453,-36.82
00.468,-31.94
00.484,-26.15
00.500,-19.91
00.515,-13.61
00.531,-7.5
00.546,-1.7
00.562,3.66
00.578,8.48
00.593,12.57
00.609,15.75
00.625,17.82
00.640,18.6
00.656,18.0
00.671,16.04
00.687,12.83
00.703,8.64
00.718,3.79
00.734,-1.29
00.750,-6.18
00.765,-10.47
00.781,-13.76
00.796,-15.85
00.812,-16.6
00.828,-16.12
00.843,-14.61
00.859,-12.4
00.875,-9.78
00.890,-6.98
00.906,-4.08
00.921,-1.08
00.937,2.03
00.953,5.21
00.968,8.39
00.984,11.4
01.000,14.11
01.015,16.41
01.031,18.18
01.046,19.38
01.062,19.96
01.078,19.85
01.093,19.01
01.109,17.4
01.125,14.98
01.140,11.74
01.156,7.79
01.171,3.32
01.187,-1.37
01.203,-5.87
01.218,-9.81
01.234,-12.9
01.250,-15.03
01.265,-16.26
01.281,-16.73
01.296,-16.52
01.312,-15.68
01.328,-14.11
01.343,-11.69
01.359,-8.43
01.375,-4.58
01.390,-0.57
01.406,3.02
01.421,5.63
01.437,6.92
01.453,6.76
01.468,5.32
01.484,2.95
01.500,0.07
01.515,-2.89
01.531,-5.52
01.546,-7.43
01.562,-8.29
01.578,-7.95
01.593,-6.43
01.609,-3.97
01.625,-0.95
01.640,2.19
01.656,5.0
01.671,7.23
01.687,8.73
01.703,9.55
01.718,9.92
01.734,10.01
01.750,10.0
01.765,9.92
01.781,9.76
01.796,9.47
01.812,9.01
01.828,8.37
01.843,7.55
01.859,6.6
01.875,5.52
01.890,4.37
01.906,3.19
01.921,2.11
01.937,1.23
01.953,0.63
01.968,0.26
01.984,-0.04
02.000,-0.4
02.015,-1.0
02.031,-1.82
02.046,-2.81
02.062,-3.86
02.078,-4.94
02.093,-6.12
02.109,-7.5
02.125,-9.19
02.140,-11.08
02.156,-12.94
02.171,-14.45
02.187,-15.29
02.203,-15.37
02.218,-14.86
02.234,-14.04
02.250,-13.28
02.265,-12.89
02.281,-12.97
02.296,-13.48
02.312,-14.19
02.328,-14.72
02.343,-14.7
02.359,-13.83
02.375,-12.01
02.390,-9.34
02.406,-6.13
02.421,-2.73
02.437,0.55
02.453,3.48
02.468,6.06
02.484,8.38
02.500,10.59
02.515,12.72
02.531,14.78
02.546,16.59
02.562,17.94
02.578,18.51
02.593,17.96
02.609,16.17
02.625,13.28
02.640,9.85
02.656,6.75
02.671,4.98
02.687,5.2
02.703,7.76
02.718,12.36
02.734,18.18
02.750,24.07
02.765,28.66
02.781,30.79
02.796,29.62
02.812,24.92
02.828,17.12
02.843,7.33
02.859,-2.93
02.875,-12.05
02.890,-18.72
02.906,-22.23
02.921,-22.47
02.937,-19.82
02.953,-15.03
02.968,-8.93
02.984,-2.4
03.000,3.72
03.015,8.66
03.031,11.7
03.046,12.24
03.062,9.98
03.078,5.08
03.093,-1.85
03.109,-9.67
03.125,-17.1
03.140,-22.98
03.156,-26.51
03.171,-27.44
03.187,-26.01
03.203,-22.79
03.218,-18.45
03.234,-13.63
03.250,-8.93
03.265,-4.89
03.281,-2.1
03.296,-1.12
03.312,-2.31
03.328,-5.61
03.343,-10.47
03.359,-15.85
03.375,-20.52
03.390,-23.33
03.406,-23.65
03.421,-21.38
03.437,-16.92
03.453,-11.05
03.468,-4.52
03.484,1.98
03.500,7.94
03.515,13.06
03.531,17.17
03.546,20.17
03.562,22.01
03.578,22.69
03.593,22.29
03.609,21.06
03.625,19.37
03.640,17.62
03.656,16.11
03.671,14.97
03.687,14.16
03.703,13.51
03.718,12.79
03.734,11.88
03.750,10.8
03.765,9.73
03.781,8.85
03.796,8.27
03.812,7.9
03.828,7.6
03.843,7.21
03.859,6.65
03.875,5.98
03.890,5.37
03.906,4.98
03.921,4.87
03.937,4.94
03.953,4.93
03.968,4.57
03.984,3.73
04.000,2.41
04.015,0.8
04.031,-0.83
04.046,-2.24
04.062,-3.33
04.078,-4.14
04.093,-4.87
04.109,-5.71
04.125,-6.77
04.140,-8.01
04.156,-9.26
04.171,-10.26
04.187,-10.76
04.203,-10.61
04.218,-9.79
04.234,-8.4
04.250,-6.78
04.265,-5.39
04.281,-4.78
04.296,-5.38
04.312,-7.4
04.328,-10.63
04.343,-14.5
04.359,-18.09
04.375,-20.36
04.390,-20.49
04.406,-18.03
04.421,-13.05
04.437,-6.14
04.453,1.67
04.468,9.21
04.484,15.27
04.500,18.87
04.515,19.43
04.531,16.95
04.546,12.01
04.562,5.75
04.578,-0.33
04.593,-4.84
04.609,-6.75
04.625,-5.72
04.640,-2.22
04.656,2.68
04.671,7.61
04.687,11.36
04.703,13.07
04.718,12.44
04.734,9.68
04.750,5.45
04.765,0.64
04.781,-3.75
04.796,-6.87
04.812,-8.16
04.828,-7.42
04.843,-4.92
04.859,-1.31
04.875,2.59
04.890,5.89
04.906,7.82
04.921,7.88
04.937,5.89
04.953,1.98
04.968,-3.31
04.984,-9.28
05.000,-15.16
05.015,-20.29
05.031,-24.26
05.046,-26.87
05.062,-28.18
05.078,-28.38
05.093,-27.86
05.109,-27.05
05.125,-26.34
05.140,-26.03
05.156,-26.21
05.171,-26.81
05.187,-27.66
05.203,-28.52
05.218,-29.17
05.234,-29.47
05.250,-29.34
05.265,-28.82
05.281,-27.99
05.296,-27.0
05.312,-26.03
05.328,-25.17
05.343,-24.38
05.359,-23.52
05.375,-22.38
05.390,-20.79
05.406,-18.7
05.421,-16.23
05.437,-13.52
05.453,-10.77
05.468,-8.1
05.484,-5.56
05.500,-3.22
05.515,-1.12
05.531,0.68
05.546,2.17
05.562,3.37
05.578,4.43
05.593,5.47
05.609,6.51
05.625,7.56
05.640,8.52
05.656,9.32
05.671,10.01
05.687,10.68
05.703,11.49
05.718,12.59
05.734,14.02
05.750,15.7
05.765,17.45
05.781,19.04
05.796,20.3
05.812,21.08
05.828,21.31
05.843,20.99
05.859,20.2
05.875,19.04
05.890,17.68
05.906,16.34
05.921,15.15
05.937,14.25
05.953,13.71
05.968,13.53
05.984,13.58
06.000,13.75
06.015,13.88
06.031,13.9
06.046,13.84
06.062,13.71
06.078,13.55
06.093,13.42
06.109,13.23
06.125,12.86
06.140,12.18
06.156,11.14
06.171,9.82
06.187,8.4
06.203,7.06
06.218,5.9
06.234,4.94
06.250,4.07
06.265,3.21
06.281,2.29
06.296,1.3
06.312,0.27
06.328,-0.82
06.343,-1.98
06.359,-3.13
06.375,-4.09
06.390,-4.59
06.406,-4.27
06.421,-2.97
06.437,-0.78
06.453,2.01
06.468,5.0
06.484,7.77
06.500,10.1
06.515,11.94
06.531,13.29
06.546,14.24
06.562,14.83
06.578,15.07
06.593,15.02
06.609,14.81
06.625,14.47
06.640,14.08
06.656,13.67
06.671,13.2
06.687,12.7
06.703,12.27
06.718,11.99
06.734,11.99
06.750,12.34
06.765,12.98
06.781,13.72
06.796,14.32
06.812,14.55
06.828,14.33
06.843,13.7
06.859,12.75
06.875,11.65
06.890,10.54
06.906,9.45
06.921,8.4
06.937,7.37
06.953,6.35
06.968,5.41
06.984,4.52
07.000,3.64
07.015,2.69
07.031,1.55
07.046,0.13
07.062,-1.53
07.078,-3.32
07.093,-5.08
07.109,-6.56
07.125,-7.63
07.140,-8.31
07.156,-8.73
07.171,-9.1
07.187,-9.66
07.203,-10.46
07.218,-11.45
07.234,-12.49
07.250,-13.39
07.265,-13.97
07.281,-14.26
07.296,-14.35
07.312,-14.4
07.328,-14.56
07.343,-14.76
07.359,-14.8
07.375,-14.3
07.390,-12.89
07.406,-10.24
07.421,-6.28
07.437,-1.16
07.453,4.75
07.468,10.85
07.484,16.47
07.500,20.94
07.515,23.66
07.531,24.3
07.546,22.84
07.562,19.64
07.578,15.45
07.593,11.21
07.609,7.92
07.625,6.3
07.640,6.75
07.656,9.25
07.671,13.47
07.687,18.98
07.703,25.3
07.718,31.98
07.734,38.44
07.750,43.88
07.765,47.39
07.781,48.1
07.796,45.48
07.812,39.49
07.828,30.72
07.843,20.14
07.859,8.98
07.875,-1.46
07.890,-10.13
07.906,-16.24
07.921,-19.37
07.937,-19.56
07.953,-17.17
07.968,-12.83
07.984,-7.21
08.000,-0.87
08.015,5.8
08.031,12.43
08.046,18.51
08.062,23.23
08.078,25.61
08.093,24.8
08.109,20.45
08.125,12.82
08.140,2.85
08.156,-8.23
08.171,-19.17
08.187,-28.89
08.203,-36.66
08.218,-41.98
08.234,-44.6
08.250,-44.48
08.265,-41.86
08.281,-37.25
08.296,-31.29
08.312,-24.7
08.328,-18.17
08.343,-12.31
08.359,-7.76
08.375,-5.05
08.390,-4.62
08.406,-6.58
08.421,-10.66
08.437,-16.12
08.453,-21.93
08.468,-26.98
08.484,-30.38
08.500,-31.64
08.515,-30.71
08.531,-27.96
08.546,-23.95
08.562,-19.19
08.578,-13.98
08.593,-8.42
08.609,-2.52
08.625,3.47
08.640,9.01
08.656,13.23
08.671,15.27
08.687,14.61
08.703,11.33
08.718,6.2
08.734,0.37
08.750,-4.93
08.765,-8.75
08.781,-10.59
08.796,-10.45
08.812,-8.61
08.828,-5.48
08.843,-1.51
08.859,2.79
08.875,6.83
08.890,9.94
08.906,11.48
08.921,11.02
08.937,8.51
08.953,4.39
08.968,-0.45
08.984,-5.04
09.000,-8.52
09.015,-10.53
09.031,-11.07
09.046,-10.45
09.062,-9.03
09.078,-7.05
09.093,-4.61
09.109,-1.74
09.125,1.45
09.140,4.67
09.156,7.34
09.171,8.84
09.187,8.66
09.203,6.49
09.218,2.42
09.234,-3.08
09.250,-9.3
09.265,-15.3
09.281,-20.13
09.296,-23.04
09.312,-23.63
09.328,-21.97
09.343,-18.42
09.359,-13.6
09.375,-8.01
09.390,-2.04
09.406,4.14
09.421,10.35
09.437,16.27
09.453,21.32
09.468,24.76
09.484,25.95
09.500,24.61
09.515,20.92
09.531,15.51
09.546,9.36
09.562,3.55
09.578,-1.0
09.593,-3.66
09.609,-4.26
09.625,-2.97
09.640,-0.19
09.656,3.72
09.671,8.4
09.687,13.6
09.703,18.93
09.718,23.63
09.734,26.65
09.750,26.9
09.765,23.65
09.781,16.96
09.796,7.82
09.812,-2.12
09.828,-11.08
09.843,-17.63
09.859,-21.12
09.875,-21.64
09.890,-19.82
09.906,-16.41
09.921,-12.03
09.937,-7.09
09.953,-2.01
09.968,2.67
09.984,6.18
10.000,7.71
10.015,6.74
10.031,3.25
10.046,-2.03
10.062,-7.95
10.078,-13.27
10.093,-17.14
10.109,-19.29
10.125,-19.96
10.140,-19.67
10.156,-18.84
10.171,-17.74
10.187,-16.36
10.203,-14.61
10.218,-12.39
10.234,-9.8
10.250,-7.07
10.265,-4.45
10.281,-2.19
10.296,-0.36
10.312,1.12
10.328,2.41
10.343,3.68
10.359,5.06
10.375,6.53
10.390,8.01
10.406,9.41
10.421,10.58
10.437,11.46
10.453,11.99
10.468,12.14
10.484,11.88
10.500,11.23
10.515,10.25
10.531,9.06
10.546,7.73
10.562,6.32
10.578,4.94
10.593,3.65
10.609,2.54
10.625,1.65
10.640,1.01
10.656,0.56
10.671,0.22
10.687,-0.14
10.703,-0.62
10.718,-1.23
10.734,-1.99
10.750,-2.85
10.765,-3.75
10.781,-4.64
10.796,-5.51
10.812,-6.38
10.828,-7.25
10.843,-8.22
10.859,-9.24
10.875,-10.31
10.890,-11.3
10.906,-12.03
10.921,-12.37
10.937,-12.28
10.953,-11.79
10.968,-11.06
10.984,-10.36
11.000,-9.9
11.015,-9.9
11.031,-10.45
11.046,-11.45
11.062,-12.74
11.078,-13.97
11.093,-14.8
11.109,-14.89
11.125,-14.03
11.140,-12.14
11.156,-9.35
11.171,-5.94
11.187,-2.2
11.203,1.43
11.218,4.63
11.234,7.15
11.250,8.94
11.265,10.06
11.281,10.72
11.296,11.11
11.312,11.32
11.328,11.4
11.343,11.34
11.359,11.1
11.375,10.78
11.390,10.48
11.406,10.38
11.421,10.66
11.437,11.41
11.453,12.62
11.468,14.18
11.484,15.87
11.500,17.42
11.515,18.65
11.531,19.36
11.546,19.52
11.562,19.19
11.578,18.47
11.593,17.44
11.609,16.26
11.625,15.07
11.640,14.05
11.656,13.37
11.671,13.08
11.687,13.07
11.703,13.13
11.718,12.99
11.734,12.49
11.750,11.63
11.765,10.52
11.781,9.23
11.796,7.84
11.812,6.24
11.828,4.34
11.843,2.18
11.859,-0.13
11.875,-2.41
11.890,-4.47
11.906,-6.32
11.921,-8.12
11.937,-10.02
11.953,-12.17
11.968,-14.59
11.984,-17.15
12.000,-19.68
12.015,-21.93
12.031,-23.63
12.046,-24.52
12.062,-24.33
12.078,-22.92
12.093,-20.38
12.109,-17.09
12.125,-13.53
12.140,-10.24
12.156,-7.52
12.171,-5.37
12.187,-3.65
12.203,-2.17
12.218,-0.81
12.234,0.31
12.250,1.04
12.265,1.25
12.281,0.98
12.296,0.44
12.312,-0.02
12.328,-0.1
12.343,0.32
12.359,1.15
12.375,2.09
12.390,2.81
12.406,2.96
12.421,2.29
12.437,0.7
12.453,-1.78
12.468,-5.02
12.484,-8.73
12.500,-12.55
12.515,-15.95
12.531,-18.38
12.546,-19.4
12.562,-18.86
12.578,-16.93
12.593,-14.05
12.609,-10.79
12.625,-7.68
12.640,-5.06
12.656,-3.01
12.671,-1.41
12.687,-0.03
12.703,1.29
12.718,2.59
12.734,3.75
12.750,4.5
12.765,4.51
12.781,3.5
12.796,1.34
12.812,-1.95
12.828,-6.05
12.843,-10.5
12.859,-14.75
12.875,-18.25
12.890,-20.6
12.906,-21.63
12.921,-21.46
12.937,-20.43
12.953,-19.06
12.968,-17.74
12.984,-16.68
13.000,-15.81
13.015,-14.78
13.031,-13.17
13.046,-10.66
13.062,-7.23
13.078,-3.16
13.093,1.1
13.109,5.09
13.125,8.46
13.140,11.05
13.156,12.77
13.171,13.68
13.187,13.86
13.203,13.5
13.218,12.79
13.234,12.0
13.250,11.39
13.265,11.14
13.281,11.33
13.296,11.96
13.312,12.87
13.328,13.93
13.343,14.97
13.359,15.92
13.375,16.74
13.390,17.45
13.406,18.04
13.421,18.48
13.437,18.69
13.453,18.57
13.468,18.12
13.484,17.36
13.500,16.37
13.515,15.21
13.531,13.9
13.546,12.41
13.562,10.74
13.578,8.89
13.593,6.93
13.609,4.95
13.625,2.98
13.640,1.08
13.656,-0.64
13.671,-2.09
13.687,-3.12
13.703,-3.65
13.718,-3.7
13.734,-3.42
13.750,-3.02
13.765,-2.72
13.781,-2.67
13.796,-2.87
13.812,-3.3
13.828,-3.89
13.843,-4.6
13.859,-5.47
13.875,-6.58
13.890,-7.95
13.906,-9.58
13.921,-11.36
13.937,-13.07
13.953,-14.46
13.968,-15.2
13.984,-14.98
14.000,-13.66
14.015,-11.28
14.031,-8.08
14.046,-4.47
14.062,-0.86
14.078,2.44
14.093,5.24
14.109,7.56
14.125,9.46
14.140,10.99
14.156,12.22
14.171,13.19
14.187,13.9
14.203,14.39
14.218,14.64
14.234,14.52
14.250,13.98
14.265,13.03
14.281,11.81
14.296,10.56
14.312,9.49
14.328,8.65
14.343,7.98
14.359,7.34
14.375,6.64
14.390,5.83
14.406,4.96
14.421,4.09
14.437,3.34
14.453,2.7
14.468,2.17
14.484,1.74
14.500,1.39
14.515,1.09
14.531,0.8
14.546,0.46
14.578,-0.58
14.593,-1.23
14.609,-1.93
14.625,-2.61
14.640,-3.24
14.656,-3.82
14.671,-4.34
14.687,-4.8
14.703,-5.16
14.718,-5.4
14.734,-5.51
14.750,-5.55
14.765,-5.64
14.781,-5.86
14.796,-6.36
14.812,-7.17
14.828,-8.29
14.843,-9.58
14.859,-10.88
14.875,-11.96
14.890,-12.6
14.906,-12.63
14.921,-11.92
14.937,-10.49
14.953,-8.36
14.968,-5.73
14.984,-2.79
15.000,0.19
15.015,3.0
15.031,5.49
15.046,7.64
15.062,9.5
15.078,11.08
15.093,12.36
15.109,13.16
15.125,13.23
15.140,12.45
15.156,10.85
15.171,8.74
15.187,6.61
15.203,5.06
15.218,4.57
15.234,5.51
15.250,7.92
15.265,11.56
15.281,15.93
15.296,20.31
15.312,23.83
15.328,25.69
15.343,25.28
15.359,22.36
15.375,17.18
15.390,10.42
15.406,3.08
15.421,-3.75
15.437,-9.14
15.453,-12.42
15.468,-13.38
15.484,-12.17
15.500,-9.26
15.515,-5.22
15.531,-0.68
15.546,3.76
15.562,7.49
15.578,9.85
15.593,10.24
15.609,8.29
15.625,4.0
15.640,-2.1
15.656,-9.01
15.671,-15.47
15.687,-20.3
15.703,-22.73
15.718,-22.62
15.734,-20.35
15.750,-16.65
15.765,-12.37
15.781,-8.21
15.796,-4.7
15.812,-2.24
15.828,-1.13
15.843,-1.52
15.859,-3.45
15.875,-6.64
15.890,-10.53
15.906,-14.29
15.921,-17.06
15.937,-18.17
15.953,-17.33
15.968,-14.65
15.984,-10.5
16.000,-5.39
16.015,0.19
16.031,5.68
16.046,10.61
16.062,14.39
16.078,16.46
16.093,16.32
16.109,13.82
16.125,9.23
16.140,3.3
16.156,-2.87
16.171,-8.15
16.187,-11.58
16.203,-12.71
16.218,-11.56
16.234,-8.66
16.250,-4.75
16.265,-0.6
16.281,3.15
16.296,6.07
16.312,7.88
16.328,8.52
16.343,8.0
16.359,6.57
16.375,4.57
16.390,2.48
16.406,0.78
16.421,-0.16
16.437,-0.25
16.453,0.33
16.468,1.23
16.484,2.03
16.500,2.41
16.515,2.23
16.531,1.45
16.546,0.2
16.562,-1.38
16.578,-3.16
16.593,-5.0
16.609,-6.71
16.625,-8.13
16.640,-9.18
16.656,-9.82
16.671,-10.14
16.687,-10.28
16.703,-10.41
16.718,-10.65
16.734,-11.11
16.750,-11.81
16.765,-12.69
16.781,-13.57
16.796,-14.23
16.812,-14.4
16.828,-13.85
16.843,-12.52
16.859,-10.48
16.875,-7.94
16.890,-5.16
16.906,-2.42
16.921,0.1
16.937,2.26
16.953,4.01
16.968,5.35
16.984,6.24
17.000,6.72
17.015,6.87
17.031,6.78
17.046,6.52
17.062,6.15
17.078,5.67
17.093,5.01
17.109,4.13
17.125,3.01
17.140,1.7
17.156,0.32
17.171,-1.0
17.187,-2.18
17.203,-3.17
17.218,-3.98
17.234,-4.71
17.250,-5.43
17.265,-6.15
17.281,-6.79
17.296,-7.2
17.312,-7.18
17.328,-6.56
17.343,-5.33
17.359,-3.62
17.375,-1.72
17.390,0.06
17.406,1.44
17.421,2.28
17.437,2.61
17.453,2.46
17.468,2.04
17.484,1.5
17.500,0.97
17.515,0.48
17.531,0.12
17.546,-0.09
17.562,-0.11
17.578,0.11
17.593,0.52
17.609,1.09
17.625,1.76
17.640,2.4
17.656,2.89
17.671,3.18
17.687,3.22
17.703,3.04
17.718,2.72
17.734,2.42
17.750,2.31
17.765,2.59
17.781,3.43
17.796,4.95
17.812,7.14
17.828,9.89
17.843,12.97
17.859,16.08
17.875,18.89
17.890,21.09
17.906,22.43
17.921,22.75
17.937,22.05
17.953,20.4
17.968,17.99
17.984,15.09
18.000,12.01
18.015,9.02
18.031,6.28
18.046,3.89
18.062,1.84
18.078,0.09
18.093,-1.49
18.109,-3.06
18.125,-4.77
18.140,-6.7
18.156,-8.88
18.171,-11.22
18.187,-13.58
18.203,-15.86
18.218,-17.92
18.234,-19.75
18.250,-21.36
18.265,-22.68
18.281,-23.6
18.296,-23.94
18.312,-23.53
18.328,-22.34
18.343,-20.46
18.359,-18.09
18.375,-15.5
18.390,-12.89
18.406,-10.47
18.421,-8.35
18.437,-6.6
18.453,-5.27
18.468,-4.47
18.484,-4.27
18.500,-4.75
18.515,-5.81
18.531,-7.26
18.546,-8.81
18.562,-10.21
18.578,-11.22
18.593,-11.86
18.609,-12.22
18.625,-12.54
18.640,-13.04
18.656,-13.82
18.671,-14.86
18.687,-15.98
18.703,-17.01
18.718,-17.58
18.734,-17.42
18.750,-16.28
18.765,-14.01
18.781,-10.65
18.796,-6.38
18.812,-1.41
18.828,4.0
18.843,9.49
18.859,14.75
18.875,19.32
18.890,22.76
18.906,24.67
18.921,24.76
18.937,23.08
18.953,19.97
18.968,16.05
18.984,12.05
19.000,8.7
19.015,6.53
19.031,5.82
19.046,6.51
19.062,8.11
19.078,10.06
19.093,11.73
19.109,12.64
19.125,12.63
19.140,11.86
19.156,10.74
19.171,9.76
19.187,9.4
19.203,9.8
19.218,10.92
19.234,12.51
19.250,14.24
19.265,15.8
19.281,16.96
19.296,17.57
19.312,17.54
19.328,16.86
19.343,15.5
19.359,13.52
19.375,10.99
19.390,8.04
19.406,4.86
19.421,1.71
19.437,-1.23
19.453,-3.8
19.468,-6.02
19.484,-7.96
19.500,-9.69
19.515,-11.28
19.531,-12.64
19.546,-13.58
19.562,-13.98
19.578,-13.82
19.593,-13.29
19.609,-12.64
19.625,-12.13
19.640,-11.79
19.656,-11.47
19.671,-10.92
19.687,-9.87
19.703,-8.25
19.718,-6.12
19.734,-3.75
19.750,-1.34
19.765,0.87
19.781,2.75
19.796,4.23
19.812,5.2
19.828,5.61
19.843,5.43
19.859,4.8
19.875,3.87
19.890,2.93
19.906,2.16
19.921,1.69
19.937,1.5
19.953,1.58
19.968,1.89
19.984,2.37
20.000,3.04
20.015,3.85
20.031,4.75
20.046,5.66
20.062,6.53
20.078,7.3
20.093,8.01
20.109,8.71
20.125,9.34
20.140,9.84
20.156,10.1
20.171,10.0
20.187,9.5
20.203,8.69
20.218,7.77
20.234,6.97
20.250,6.49
20.265,6.41
20.281,6.65
20.296,7.03
20.312,7.25
20.328,7.06
20.343,6.28
20.359,4.93
20.375,3.18
20.390,1.39
20.421,-0.66
20.437,-0.45
20.453,0.35
20.468,1.21
20.484,1.4
20.500,0.29
20.515,-2.38
20.531,-6.43
20.546,-11.2
20.562,-15.72
20.578,-19.03
20.593,-20.42
20.609,-19.59
20.625,-16.71
20.640,-12.28
20.656,-6.9
20.671,-1.12
20.687,4.7
20.703,10.26
20.718,15.34
20.734,19.63
20.750,22.84
20.765,24.74
20.781,25.29
20.796,24.69
20.812,23.27
20.828,21.39
20.843,19.27
20.859,17.02
20.875,14.64
20.890,12.12
20.906,9.55
20.921,7.06
20.937,4.91
20.953,3.33
20.968,2.49
20.984,2.47
21.000,3.28
21.015,4.83
21.031,6.97
21.046,9.44
21.062,11.9
21.078,13.96
21.093,15.21
21.109,15.32
21.125,14.15
21.140,11.76
21.156,8.32
21.171,4.07
21.187,-0.78
21.203,-6.07
21.218,-11.65
21.234,-17.39
21.250,-23.15
21.265,-28.81
21.281,-34.2
21.296,-39.13
21.312,-43.26
21.328,-46.15
21.343,-47.39
21.359,-46.67
21.375,-44.0
21.390,-39.61
21.406,-33.92
21.421,-27.42
21.437,-20.5
21.453,-13.44
21.468,-6.55
21.484,-0.19
21.500,5.22
21.515,9.35
21.531,12.17
21.546,13.93
21.562,15.07
21.578,16.01
21.593,16.98
21.609,17.91
21.625,18.55
21.640,18.67
21.656,18.2
21.671,17.34
21.687,16.47
21.703,15.95
21.718,15.99
21.734,16.59
21.750,17.62
21.765,18.82
21.781,20.06
21.796,21.26
21.812,22.35
21.828,23.28
21.843,23.93
21.859,24.05
21.875,23.37
21.890,21.69
21.906,18.87
21.921,14.95
21.937,10.06
21.953,4.42
21.968,-1.64
21.984,-7.77
22.000,-13.51
22.015,-18.43
22.031,-22.14
22.046,-24.49
22.062,-25.6
22.078,-25.87
22.093,-25.88
22.109,-26.2
22.125,-27.17
22.140,-28.84
22.156,-30.98
22.171,-33.12
22.187,-34.76
22.203,-35.34
22.218,-34.46
22.234,-31.85
22.250,-27.53
22.265,-21.76
22.281,-15.11
22.296,-8.23
22.312,-1.75
22.328,3.78
22.343,8.11
22.359,11.18
22.375,13.13
22.390,14.22
22.406,14.74
22.421,14.94
22.437,15.03
22.453,15.14
22.468,15.28
22.484,15.43
22.500,15.46
22.515,15.32
22.531,15.0
22.546,14.59
22.562,14.24
22.578,14.06
22.593,14.13
22.609,14.27
22.625,14.24
22.640,13.62
22.656,12.05
22.671,9.36
22.687,5.64
22.703,1.31
22.718,-3.04
22.734,-6.74
22.750,-9.35
22.765,-10.61
22.781,-10.75
22.796,-10.31
22.812,-9.96
22.828,-10.39
22.843,-12.06
22.859,-15.11
22.875,-19.27
22.890,-24.0
22.906,-28.52
22.921,-32.05
22.937,-34.03
22.953,-34.11
22.968,-32.32
22.984,-28.99
23.000,-24.76
23.015,-20.27
23.031,-16.09
23.046,-12.53
23.062,-9.6
23.078,-7.12
23.093,-4.8
23.109,-2.46
23.140,2.49
23.156,4.89
23.171,7.12
23.187,9.15
23.203,10.99
23.218,12.68
23.234,14.28
23.250,15.78
23.265,17.3
23.281,18.92
23.296,20.71
23.312,22.64
23.328,24.52
23.343,26.13
23.359,27.17
23.375,27.46
23.390,26.89
23.406,25.51
23.421,23.45
23.437,20.87
23.453,17.98
23.468,14.92
23.484,11.88
23.500,8.98
23.515,6.33
23.531,4.02
23.546,2.15
23.562,0.79
23.578,-0.09
23.593,-0.5
23.609,-0.62
23.625,-0.56
23.640,-0.46
23.656,-0.36
23.671,-0.29
23.687,-0.17
23.718,0.2
23.734,0.38
23.750,0.45
23.765,0.35
23.781,0.09
23.796,-0.23
23.812,-0.5
23.828,-0.64
23.843,-0.71
23.859,-0.9
23.875,-1.43
23.890,-2.46
23.906,-3.99
23.921,-5.8
23.937,-7.53
23.953,-8.76
23.968,-9.18
23.984,-8.62
24.000,-7.18
24.015,-5.07
24.031,-2.67
24.046,-0.34
24.062,1.67
24.078,3.24
24.093,4.42
24.109,5.3
24.125,5.95
24.140,6.39
24.156,6.56
24.171,6.39
24.187,5.82
24.203,4.87
24.218,3.61
24.234,2.14
24.250,0.58
24.265,-1.07
24.281,-2.84
24.296,-4.82
24.312,-7.06
24.328,-9.57
24.343,-12.24
24.359,-14.98
24.375,-17.6
24.390,-20.03
24.406,-22.19
24.421,-24.07
24.437,-25.75
24.453,-27.34
24.468,-28.95
24.484,-30.63
24.500,-32.39
24.515,-34.07
24.531,-35.46
24.546,-36.41
24.562,-36.87
24.578,-36.98
24.593,-36.98
24.609,-37.08
24.625,-37.36
24.640,-37.74
24.656,-37.96
24.671,-37.68
24.687,-36.58
24.703,-34.4
24.718,-31.01
24.734,-26.36
24.750,-20.63
24.765,-14.2
24.781,-7.59
24.796,-1.34
24.812,4.1
24.828,8.57
24.843,12.19
24.859,15.31
24.875,18.29
24.890,21.35
24.906,24.46
24.921,27.33
24.937,29.55
24.953,30.72
24.968,30.6
24.984,29.33
25.000,27.44
25.015,25.71
25.031,25.04
25.046,26.09
25.062,29.05
25.078,33.75
25.093,39.73
25.109,46.53
25.125,53.85
25.140,61.46
25.156,69.11
25.171,76.27
25.187,82.17
25.203,85.88
25.218,86.55
25.234,83.71
25.250,77.44
25.265,68.34
25.281,57.41
25.296,45.8
25.312,34.74
25.328,25.32
25.343,18.42
25.359,14.61
25.375,14.09
25.390,16.7
25.406,21.94
25.421,29.0
25.437,36.81
25.453,44.19
25.468,49.9
25.484,52.85
25.500,52.26
25.515,47.84
25.531,39.78
25.546,28.79
25.562,15.78
25.578,1.84
25.593,-11.98
25.609,-24.62
25.625,-35.15
25.640,-42.78
25.656,-47.0
25.671,-47.77
25.687,-45.47
25.703,-40.77
25.718,-34.46
25.734,-27.32
25.750,-20.1
25.765,-13.52
25.781,-8.3
25.796,-5.12
25.812,-4.5
25.828,-6.61
25.843,-11.07
25.859,-17.02
25.875,-23.25
25.890,-28.41
25.906,-31.38
25.921,-31.4
25.937,-28.28
25.953,-22.44
25.968,-14.83
25.984,-6.65
26.000,0.73
26.015,6.17
26.031,8.85
26.046,8.42
26.062,5.15
26.078,-0.16
26.093,-6.35
26.109,-12.15
26.125,-16.34
26.140,-18.09
26.156,-16.98
26.171,-13.06
26.187,-6.88
26.203,0.76
26.218,8.82
26.234,16.18
26.250,21.76
26.265,24.69
26.281,24.43
26.296,20.92
26.312,14.61
26.328,6.35
26.343,-2.82
26.359,-11.8
26.375,-19.73
26.390,-25.97
26.406,-30.16
26.421,-32.15
26.437,-31.93
26.453,-29.64
26.468,-25.61
26.484,-20.31
26.500,-14.43
26.515,-8.73
26.531,-4.05
26.546,-1.07
26.562,-0.33
26.578,-1.97
26.593,-5.72
26.609,-11.04
26.625,-17.11
26.640,-23.13
26.656,-28.42
26.671,-32.43
26.687,-34.81
26.703,-35.32
26.718,-33.8
26.734,-30.3
26.750,-25.15
26.765,-18.9
26.781,-12.24
26.796,-5.88
26.812,-0.3
26.828,4.18
26.843,7.32
26.859,9.02
26.875,9.27
26.890,8.14
26.906,6.03
26.921,3.49
26.937,1.17
26.953,-0.4
26.968,-1.0
26.984,-0.76
27.000,-0.07
27.015,0.7
27.031,1.23
27.046,1.43
27.062,1.29
27.078,0.82
27.093,-0.02
27.109,-1.23
27.125,-2.82
27.140,-4.63
27.156,-6.38
27.171,-7.79
27.187,-8.63
27.203,-8.88
27.218,-8.76
27.234,-8.57
27.250,-8.58
27.265,-8.98
27.281,-9.73
27.296,-10.64
27.312,-11.51
27.328,-12.1
27.343,-12.32
27.359,-12.28
27.375,-12.09
27.390,-11.9
27.406,-11.76
27.421,-11.6
27.437,-11.3
27.453,-10.75
27.468,-9.86
27.484,-8.53
27.500,-6.78
27.515,-4.56
27.531,-1.89
27.546,1.17
27.562,4.55
27.578,8.05
27.593,11.4
27.609,14.33
27.625,16.69
27.640,18.32
27.656,19.31
27.671,19.77
27.687,19.87
27.703,19.86
27.718,19.88
27.734,19.94
27.750,19.96
27.765,19.83
27.781,19.32
27.796,18.35
27.812,16.84
27.828,14.8
27.843,12.38
27.859,9.78
27.875,7.25
27.890,5.08
27.906,3.53
27.921,2.75
27.937,2.77
27.953,3.34
27.968,4.02
27.984,4.32
28.000,3.76
28.015,2.09
28.031,-0.64
28.046,-4.14
28.062,-7.92
28.078,-11.41
28.093,-14.11
28.109,-15.75
28.125,-16.22
28.140,-15.55
28.156,-13.89
28.171,-11.46
28.187,-8.56
28.203,-5.54
28.218,-2.77
28.234,-0.5
28.250,1.07
28.265,1.91
28.281,2.13
28.296,1.89
28.312,1.4
28.328,0.73
28.343,-0.03
28.359,-0.83
28.375,-1.57
28.390,-2.14
28.406,-2.46
28.421,-2.48
28.437,-2.32
28.453,-2.13
28.468,-2.13
28.484,-2.53
28.500,-3.42
28.515,-4.77
28.531,-6.4
28.546,-8.07
28.562,-9.51
28.578,-10.49
28.593,-10.89
28.609,-10.64
28.625,-9.84
28.640,-8.67
28.656,-7.35
28.671,-5.99
28.687,-4.72
28.703,-3.45
28.718,-2.12
28.734,-0.61
28.750,1.17
28.765,3.2
28.781,5.4
28.796,7.65
28.812,9.82
28.828,11.77
28.843,13.42
28.859,14.67
28.875,15.47
28.890,15.76
28.906,15.57
28.921,15.0
28.937,14.2
28.953,13.27
28.968,12.2
28.984,10.84
29.000,8.86
29.015,6.0
29.031,2.17
29.046,-2.47
29.062,-7.5
29.078,-12.48
29.093,-17.09
29.109,-21.28
29.125,-25.01
29.140,-28.32
29.156,-31.03
29.171,-32.8
29.187,-33.35
29.203,-32.5
29.218,-30.39
29.234,-27.34
29.250,-23.71
29.265,-19.75
29.281,-15.54
29.296,-11.11
29.312,-6.49
29.328,-1.97
29.343,2.1
29.359,5.31
29.375,7.45
29.390,8.55
29.406,8.88
29.421,8.84
29.437,8.8
29.453,9.02
29.468,9.53
29.484,10.34
29.500,11.36
29.515,12.44
29.531,13.44
29.546,14.15
29.562,14.38
29.578,14.02
29.593,13.05
29.609,11.56
29.625,9.79
29.640,8.0
29.656,6.46
29.671,5.41
29.687,4.92
29.703,4.98
29.718,5.48
29.734,6.27
29.750,7.2
29.765,8.21
29.781,9.28
29.796,10.38
29.812,11.45
29.828,12.29
29.843,12.65
29.859,12.24
29.875,10.88
29.890,8.53
29.906,5.35
29.921,1.7
29.937,-1.98
29.953,-5.29
29.968,-8.04
29.984,-10.27
30.000,-12.25
30.015,-14.39
30.031,-17.0
30.046,-20.22
30.062,-23.91
30.078,-27.59
30.093,-30.63
30.109,-32.45
30.125,-32.62
30.140,-30.98
30.156,-27.71
30.171,-23.13
30.187,-17.69
30.203,-11.86
30.218,-6.02
30.234,-0.55
30.250,4.2
30.265,7.98
30.281,10.69
30.296,12.35
30.312,13.19
30.328,13.48
30.343,13.47
30.359,13.32
30.375,13.01
30.390,12.42
30.406,11.42
30.421,9.87
30.437,7.74
30.453,5.15
30.468,2.22
30.484,-0.81
30.500,-3.75
30.515,-6.39
30.531,-8.55
30.546,-10.08
30.562,-10.93
30.578,-11.05
30.593,-10.5
30.609,-9.37
30.625,-7.82
30.640,-5.99
30.656,-4.03
30.671,-2.03
30.687,-0.07
30.703,1.73
30.718,3.25
30.734,4.29
30.750,4.7
30.765,4.36
30.781,3.31
30.796,1.68
30.812,-0.33
30.828,-2.48
30.843,-4.61
30.859,-6.58
30.875,-8.26
30.890,-9.64
30.906,-10.61
30.921,-11.08
30.937,-10.89
30.953,-9.89
30.968,-7.99
30.984,-5.12
31.000,-1.44
31.015,2.8
31.031,7.19
31.046,11.41
31.062,15.24
31.078,18.64
31.093,21.68
31.109,24.43
31.125,26.92
31.140,29.09
31.156,30.83
31.171,32.04
31.187,32.72
31.203,32.88
31.218,32.54
31.234,31.73
31.250,30.33
31.265,28.18
31.281,25.08
31.296,20.92
31.312,15.76
31.328,9.92
31.343,3.93
31.359,-1.67
31.375,-6.28
31.390,-9.6
31.406,-11.54
31.421,-12.28
31.437,-12.06
31.453,-11.21
31.468,-9.99
31.484,-8.67
31.500,-7.51
31.515,-6.67
31.531,-6.34
31.546,-6.49
31.562,-7.02
31.578,-7.7
31.593,-8.21
31.609,-8.27
31.625,-7.66
31.640,-6.29
31.656,-4.22
31.671,-1.75
31.687,0.74
31.703,2.76
31.718,3.93
31.734,4.14
31.750,3.52
31.765,2.59
31.781,2.04
31.796,2.52
31.812,4.4
31.828,7.72
31.843,12.2
31.859,17.36
31.875,22.73
31.890,27.78
31.906,32.12
31.921,35.27
31.937,36.86
31.953,36.54
31.968,34.15
31.984,29.76
32.000,23.66
32.015,16.3
32.031,8.19
32.046,-0.14
32.062,-8.09
32.078,-15.04
32.093,-20.48
32.109,-24.15
32.125,-26.08
32.140,-26.65
32.156,-26.39
32.171,-25.83
32.187,-25.28
32.203,-24.79
32.218,-24.27
32.234,-23.59
32.250,-22.75
32.265,-21.82
32.281,-20.85
32.296,-19.78
32.312,-18.42
32.328,-16.46
32.343,-13.78
32.359,-10.46
32.375,-6.84
32.390,-3.44
32.406,-0.72
32.421,0.98
32.437,1.66
32.453,1.49
32.468,0.83
32.484,0.02
32.500,-0.69
32.515,-1.2
32.531,-1.53
32.546,-1.83
32.562,-2.28
32.578,-3.02
32.593,-4.11
32.609,-5.46
32.625,-6.87
32.640,-8.08
32.656,-8.84
32.671,-8.9
32.687,-8.16
32.703,-6.61
32.718,-4.41
32.734,-1.83
32.750,0.79
32.765,3.22
32.781,5.37
32.796,7.27
32.812,9.03
32.828,10.67
32.843,12.02
32.859,12.79
32.875,12.64
32.890,11.32
32.906,8.89
32.921,5.65
32.937,2.14
32.953,-1.1
32.968,-3.58
32.984,-5.04
33.000,-5.32
33.015,-4.41
33.031,-2.36
33.046,0.66
33.062,4.32
33.078,8.19
33.093,11.73
33.109,14.42
33.125,15.94
33.140,16.15
33.156,15.19
33.171,13.34
33.187,10.97
33.203,8.38
33.218,5.86
33.234,3.63
33.250,1.81
33.265,0.47
33.281,-0.44
33.296,-1.03
33.312,-1.4
33.328,-1.69
33.343,-2.03
33.359,-2.56
33.375,-3.37
33.390,-4.64
33.406,-6.44
33.421,-8.81
33.437,-11.55
33.453,-14.32
33.468,-16.61
33.484,-17.88
33.500,-17.81
33.515,-16.34
33.531,-13.76
33.546,-10.57
33.562,-7.34
33.578,-4.56
33.593,-2.5
33.609,-1.21
33.625,-0.47
33.640,0.02
33.656,0.61
33.671,1.61
33.687,3.24
33.703,5.61
33.718,8.67
33.734,12.2
33.750,15.78
33.765,18.99
33.781,21.45
33.796,22.92
33.812,23.4
33.828,23.06
33.843,22.16
33.859,20.99
33.875,19.76
33.890,18.49
33.906,17.23
33.921,15.91
33.937,14.52
33.953,13.08
33.968,11.62
33.984,10.2
34.000,8.88
34.015,7.7
34.031,6.61
34.046,5.53
34.062,4.25
34.078,2.58
34.093,0.45
34.109,-2.12
34.125,-4.95
34.140,-7.76
34.156,-10.31
34.171,-12.59
34.187,-14.75
34.203,-17.18
34.218,-20.23
34.234,-24.03
34.250,-28.42
34.265,-32.89
34.281,-36.79
34.296,-39.45
34.312,-40.37
34.328,-39.23
34.343,-36.05
34.359,-31.03
34.375,-24.61
34.390,-17.47
34.406,-10.31
34.421,-3.81
34.437,1.59
34.453,5.75
34.468,8.84
34.484,11.14
34.500,12.96
34.515,14.4
34.531,15.44
34.546,15.99
34.562,16.05
34.578,15.69
34.593,15.07
34.609,14.36
34.625,13.64
34.640,12.91
34.656,12.13
34.671,11.31
34.687,10.45
34.703,9.56
34.718,8.52
34.734,7.19
34.750,5.37
34.765,3.0
34.781,0.26
34.796,-2.52
34.812,-4.87
34.828,-6.36
34.843,-6.84
34.859,-6.51
34.875,-5.82
34.890,-5.35
34.906,-5.64
34.921,-6.97
34.937,-9.26
34.953,-12.15
34.968,-15.15
34.984,-17.71
35.000,-19.36
35.015,-19.89
35.031,-19.25
35.046,-17.59
35.062,-15.23
35.078,-12.57
35.093,-9.93
35.109,-7.58
35.125,-5.58
35.140,-3.81
35.156,-2.11
35.171,-0.31
35.187,1.72
35.203,4.02
35.218,6.45
35.234,8.85
35.250,10.95
35.265,12.51
35.281,13.38
35.296,13.58
35.312,13.27
35.328,12.67
35.343,12.0
35.359,11.34
35.375,10.6
35.390,9.66
35.406,8.45
35.421,7.06
35.437,5.71
35.453,4.62
35.468,3.84
35.484,3.25
35.500,2.61
35.515,1.65
35.531,0.3
35.546,-1.34
35.562,-2.97
35.578,-4.33
35.593,-5.14
35.609,-5.35
35.625,-4.94
35.640,-3.97
35.656,-2.53
35.671,-0.69
35.687,1.43
35.703,3.65
35.718,5.79
35.734,7.64
35.750,8.99
35.765,9.73
35.781,9.78
35.796,9.14
35.812,7.9
35.828,6.17
35.843,4.09
35.859,1.79
35.875,-0.68
35.890,-3.33
35.906,-6.12
35.921,-8.95
35.937,-11.57
35.953,-13.66
35.968,-14.98
35.984,-15.47
36.000,-15.25
36.015,-14.58
36.031,-13.7
36.046,-12.69
36.062,-11.45
36.078,-9.9
36.093,-7.97
36.109,-5.89
36.125,-4.11
36.140,-3.14
36.156,-3.36
36.171,-4.86
36.187,-7.37
36.203,-10.47
36.218,-13.68
36.234,-16.62
36.250,-19.02
36.265,-20.7
36.281,-21.47
36.296,-21.15
36.312,-19.67
36.328,-17.06
36.343,-13.62
36.359,-9.82
36.375,-6.09
36.390,-2.86
36.406,-0.42
36.421,1.11
36.437,1.75
36.453,1.58
36.468,0.82
36.484,-0.26
36.500,-1.4
36.515,-2.31
36.531,-2.82
36.546,-2.9
36.562,-2.59
36.578,-2.0
36.593,-1.28
36.609,-0.5
36.625,0.27
36.640,0.99
36.656,1.69
36.671,2.39
36.687,3.13
36.703,4.0
36.718,5.04
36.734,6.29
36.750,7.76
36.765,9.48
36.781,11.47
36.796,13.89
36.812,16.84
36.828,20.38
36.843,24.46
36.859,28.81
36.875,33.03
36.890,36.68
36.906,39.32
36.921,40.67
36.937,40.69
36.953,39.44
36.968,37.14
36.984,34.02
37.000,30.28
37.015,26.11
37.031,21.77
37.046,17.55
37.062,13.71
37.078,10.51
37.093,8.06
37.109,6.31
37.125,5.06
37.140,4.03
37.156,2.92
37.171,1.5
37.187,-0.25
37.203,-2.28
37.218,-4.42
37.234,-6.52
37.250,-8.38
37.265,-9.84
37.281,-10.87
37.296,-11.47
37.312,-11.79
37.328,-12.08
37.343,-12.74
37.359,-14.12
37.375,-16.56
37.390,-20.04
37.406,-24.18
37.421,-28.41
37.437,-32.02
37.453,-34.42
37.468,-35.26
37.484,-34.57
37.500,-32.5
37.515,-29.41
37.531,-25.7
37.546,-21.71
37.562,-17.88
37.578,-14.55
37.593,-11.88
37.609,-9.67
37.625,-7.5
37.640,-4.75
37.656,-1.04
37.671,3.65
37.687,8.98
37.703,14.24
37.718,18.75
37.734,21.91
37.750,23.37
37.765,22.95
37.781,20.68
37.796,16.73
37.812,11.58
37.828,6.07
37.843,1.25
37.859,-1.88
37.875,-2.64
37.890,-0.92
37.906,2.9
37.921,8.14
37.937,14.05
37.953,19.91
37.968,25.21
37.984,29.46
38.000,32.18
38.015,32.99
38.031,31.59
38.046,27.99
38.062,22.44
38.078,15.42
38.093,7.45
38.109,-0.96
38.125,-9.4
38.140,-17.45
38.156,-24.63
38.171,-30.47
38.187,-34.48
38.203,-36.34
38.218,-35.98
38.234,-33.69
38.250,-29.91
38.265,-25.18
38.281,-20.01
38.296,-14.69
38.312,-9.43
38.328,-4.39
38.343,0.23
38.359,4.18
38.375,7.16
38.390,8.96
38.406,9.52
38.421,8.98
38.437,7.61
38.453,5.71
38.468,3.51
38.484,1.17
38.500,-1.33
38.515,-4.04
38.531,-6.96
38.546,-9.94
38.562,-12.62
38.578,-14.53
38.593,-15.28
38.609,-14.66
38.625,-12.7
38.640,-9.65
38.656,-5.78
38.671,-1.28
38.687,3.82
38.703,9.48
38.718,15.51
38.734,21.48
38.750,26.62
38.765,30.2
38.781,31.55
38.796,30.38
38.812,26.82
38.828,21.37
38.843,14.67
38.859,7.41
38.875,0.25
38.890,-6.25
38.906,-11.56
38.921,-15.21
38.937,-16.91
38.953,-16.58
38.968,-14.44
38.984,-10.97
39.000,-6.8
39.015,-2.48
39.031,1.55
39.046,5.09
39.062,8.06
39.078,10.43
39.093,12.19
39.109,13.22
39.125,13.45
39.140,12.81
39.156,11.3
39.171,8.94
39.187,5.8
39.203,1.92
39.218,-2.62
39.234,-7.72
39.250,-13.12
39.265,-18.45
39.281,-23.16
39.296,-26.76
39.312,-28.86
39.328,-29.24
39.343,-27.91
39.359,-25.1
39.375,-21.14
39.390,-16.38
39.406,-11.2
39.421,-5.88
39.437,-0.61
39.453,4.46
39.468,9.2
39.484,13.41
39.500,16.78
39.515,18.94
39.531,19.61
39.546,18.61
39.562,16.01
39.578,12.12
39.593,7.45
39.609,2.57
39.625,-1.96
39.640,-5.72
39.656,-8.36
39.671,-9.66
39.687,-9.49
39.703,-7.9
39.718,-5.11
39.734,-1.48
39.750,2.6
39.765,6.67
39.781,10.41
39.796,13.56
39.812,15.99
39.828,17.63
39.843,18.46
39.859,18.37
39.875,17.26
39.890,15.05
39.906,11.73
39.921,7.45
39.937,2.45
39.953,-2.86
39.968,-8.16
39.984,-13.08
40.000,-17.43
40.015,-21.12
40.031,-24.03
40.046,-25.96
40.062,-26.6
40.078,-25.66
40.093,-22.9
40.109,-18.4
40.125,-12.52
40.140,-5.82
40.156,0.96
40.171,7.11
40.187,12.1
40.203,15.63
40.218,17.65
40.234,18.31
40.250,17.91
40.265,16.78
40.281,15.36
40.296,14.01
40.312,13.12
40.328,12.93
40.343,13.57
40.359,14.98
40.375,16.91
40.390,18.97
40.406,20.69
40.421,21.78
40.437,22.01
40.453,21.41
40.468,20.1
40.484,18.33
40.500,16.38
40.515,14.53
40.531,12.99
40.546,11.91
40.562,11.4
40.578,11.45
40.593,12.0
40.609,12.91
40.625,13.97
40.640,14.92
40.656,15.47
40.671,15.39
40.687,14.54
40.703,12.9
40.718,10.58
40.734,7.8
40.750,4.82
40.765,1.91
40.781,-0.8
40.796,-3.34
40.812,-5.8
40.828,-8.33
40.843,-11.01
40.859,-13.79
40.875,-16.51
40.890,-18.97
40.906,-20.95
40.921,-22.3
40.937,-22.96
40.953,-22.82
40.968,-21.79
40.984,-19.8
41.000,-16.86
41.015,-13.08
41.031,-8.77
41.046,-4.3
41.062,-0.07
41.078,3.54
41.093,6.22
41.109,7.77
41.125,8.06
41.140,7.16
41.156,5.32
41.171,2.95
41.187,0.51
41.203,-1.54
41.218,-2.94
41.234,-3.64
41.250,-3.79
41.265,-3.66
41.281,-3.43
41.296,-3.3
41.312,-3.32
41.328,-3.46
41.343,-3.7
41.359,-4.06
41.375,-4.51
41.390,-5.12
41.406,-5.91
41.421,-6.8
41.437,-7.72
41.453,-8.56
41.468,-9.23
41.484,-9.73
41.500,-10.17
41.515,-10.59
41.531,-11.09
41.546,-11.69
41.562,-12.38
41.578,-13.14
41.593,-13.96
41.609,-14.76
41.625,-15.35
41.640,-15.53
41.656,-15.01
41.671,-13.64
41.687,-11.41
41.703,-8.53
41.718,-5.32
41.734,-2.18
41.750,0.63
41.765,2.93
41.781,4.74
41.796,6.18
41.812,7.4
41.828,8.57
41.843,9.76
41.859,10.94
41.875,11.99
41.890,12.75
41.906,13.05
41.921,12.78
41.937,12.02
41.953,10.86
41.968,9.53
41.984,8.26
42.000,7.22
42.015,6.56
42.031,6.26
42.046,6.24
42.062,6.32
42.078,6.33
42.093,6.12
42.109,5.62
42.125,4.91
42.140,4.09
42.156,3.32
42.171,2.69
42.187,2.2
42.203,1.79
42.218,1.35
42.234,0.73
42.250,-0.14
42.265,-1.24
42.281,-2.54
42.296,-3.9
42.312,-5.26
42.328,-6.61
42.343,-8.04
42.359,-9.71
42.375,-11.71
42.390,-14.07
42.406,-16.62
42.421,-19.09
42.437,-21.06
42.453,-22.05
42.468,-21.68
42.484,-19.73
42.500,-16.24
42.515,-11.47
42.531,-5.9
42.546,-0.15
42.562,5.16
42.578,9.42
42.593,12.12
42.609,12.95
42.625,11.77
42.640,8.77
42.656,4.43
42.671,-0.51
42.687,-5.2
42.703,-8.82
42.718,-10.74
42.734,-10.71
42.750,-8.77
42.765,-5.28
42.781,-0.72
42.796,4.36
42.812,9.49
42.828,14.22
42.843,18.16
42.859,20.82
42.875,21.78
42.890,20.71
42.906,17.6
42.921,12.74
42.937,6.7
42.953,0.19
42.968,-6.22
42.984,-12.12
43.000,-17.4
43.015,-22.08
43.031,-26.13
43.046,-29.38
43.062,-31.51
43.078,-32.17
43.093,-31.12
43.109,-28.35
43.125,-24.16
43.140,-19.1
43.156,-13.83
43.171,-8.96
43.187,-4.96
43.203,-1.94
43.218,0.21
43.234,1.75
43.250,2.95
43.265,3.97
43.281,4.8
43.296,5.32
43.312,5.33
43.328,4.65
43.343,3.14
43.359,0.85
43.375,-2.07
43.390,-5.33
43.406,-8.47
43.421,-10.97
43.437,-12.34
43.453,-12.17
43.468,-10.32
43.484,-6.96
43.500,-2.42
43.515,2.76
43.531,7.96
43.546,12.61
43.562,16.22
43.578,18.52
43.593,19.36
43.609,18.71
43.625,16.64
43.640,13.33
43.656,9.01
43.671,4.11
43.687,-0.88
43.703,-5.43
43.718,-9.04
43.734,-11.46
43.750,-12.7
43.765,-12.98
43.781,-12.6
43.796,-11.84
43.812,-10.84
43.828,-9.64
43.843,-8.33
43.859,-7.04
43.875,-6.03
43.890,-5.61
43.906,-6.02
43.921,-7.4
43.937,-9.73
43.953,-12.81
43.968,-16.33
43.984,-19.91
44.000,-23.13
44.015,-25.52
44.031,-26.64
44.046,-26.09
44.062,-23.7
44.078,-19.61
44.093,-14.28
44.109,-8.42
44.125,-2.83
44.140,1.8
44.156,5.02
44.171,6.69
44.187,6.94
44.203,6.09
44.218,4.55
44.234,2.76
44.250,1.18
44.265,0.17
44.281,-0.02
44.296,0.64
44.312,1.96
44.328,3.72
44.343,5.59
44.359,7.4
44.375,9.0
44.390,10.29
44.406,11.18
44.421,11.58
44.437,11.47
44.453,10.91
44.468,10.07
44.484,9.16
44.500,8.34
44.515,7.68
44.531,7.07
44.546,6.31
44.562,5.21
44.578,3.61
44.593,1.42
44.609,-1.39
44.625,-4.71
44.640,-8.35
44.656,-11.92
44.671,-14.9
44.687,-16.73
44.703,-17.0
44.718,-15.56
44.734,-12.57
44.750,-8.4
44.765,-3.5
44.781,1.83
44.796,7.42
44.812,13.25
44.828,19.32
44.843,25.46
44.859,31.26
44.875,36.28
44.890,40.09
44.906,42.49
44.921,43.56
44.937,43.62
44.953,42.96
44.968,41.79
44.984,40.09
45.000,37.74
45.015,34.61
45.031,30.7
45.046,26.24
45.062,21.59
45.078,17.17
45.093,13.32
45.109,10.26
45.125,8.15
45.140,7.11
45.156,7.27
45.171,8.65
45.187,11.18
45.203,14.58
45.218,18.4
45.234,22.12
45.250,25.26
45.265,27.52
45.281,28.82
45.296,29.22
45.312,28.79
45.328,27.62
45.343,25.74
45.359,23.19
45.375,20.0
45.390,16.22
45.406,11.96
45.421,7.38
45.437,2.72
45.453,-1.74
45.468,-5.7
45.484,-9.01
45.500,-11.72
45.515,-14.11
45.531,-16.57
45.546,-19.42
45.562,-22.76
45.578,-26.34
45.593,-29.7
45.609,-32.26
45.625,-33.62
45.640,-33.51
45.656,-31.97
45.671,-29.19
45.687,-25.57
45.703,-21.54
45.718,-17.62
45.734,-14.22
45.750,-11.66
45.765,-10.13
45.781,-9.57
45.796,-9.8
45.812,-10.51
45.828,-11.34
45.843,-11.95
45.859,-12.06
45.875,-11.45
45.890,-10.02
45.906,-7.77
45.921,-4.86
45.937,-1.58
45.953,1.71
45.968,4.67
45.984,7.09
46.000,8.84
46.015,9.95
46.031,10.42
46.046,10.22
46.062,9.31
46.078,7.64
46.093,5.24
46.109,2.29
46.125,-1.0
46.140,-4.3
46.156,-7.32
46.171,-9.85
46.187,-11.73
46.203,-12.86
46.218,-13.24
46.234,-12.97
46.250,-12.2
46.265,-11.24
46.281,-10.35
46.296,-9.81
46.312,-9.76
46.328,-10.2
46.343,-10.92
46.359,-11.67
46.375,-12.17
46.390,-12.24
46.406,-11.78
46.421,-10.82
46.437,-9.48
46.453,-7.94
46.468,-6.4
46.484,-4.99
46.500,-3.82
46.515,-2.84
46.531,-1.96
46.546,-1.05
46.562,0.06
46.578,1.48
46.593,3.2
46.609,5.17
46.625,7.24
46.640,9.3
46.656,11.27
46.671,13.16
46.687,15.01
46.703,16.84
46.718,18.55
46.734,19.99
46.750,21.06
46.765,21.68
46.781,21.85
46.796,21.63
46.812,21.12
46.828,20.32
46.843,19.26
46.859,17.9
46.875,16.23
46.890,14.24
46.906,11.97
46.921,9.51
46.937,7.0
46.953,4.56
46.968,2.27
46.984,0.11
47.000,-2.06
47.015,-4.4
47.031,-7.07
47.046,-10.16
47.062,-13.64
47.078,-17.33
47.093,-21.03
47.109,-24.47
47.125,-27.41
47.140,-29.57
47.156,-30.62
47.171,-30.31
47.187,-28.5
47.203,-25.25
47.218,-20.85
47.234,-15.78
47.250,-10.57
47.265,-5.69
47.281,-1.47
47.296,1.95
47.312,4.51
47.328,6.24
47.343,7.25
47.359,7.72
47.375,7.96
47.390,8.31
47.406,9.04
47.421,10.36
47.437,12.28
47.453,14.66
47.468,17.23
47.484,19.62
47.500,21.47
47.515,22.63
47.531,23.01
47.546,22.73
47.562,22.0
47.578,20.89
47.593,19.43
47.609,17.49
47.625,14.89
47.640,11.51
47.656,7.47
47.671,3.07
47.687,-1.26
47.703,-5.04
47.718,-8.04
47.734,-10.2
47.750,-11.66
47.765,-12.65
47.781,-13.37
47.796,-13.95
47.812,-14.54
47.828,-15.24
47.843,-16.14
47.859,-17.37
47.875,-18.92
47.890,-20.65
47.906,-22.35
47.921,-23.68
47.937,-24.36
47.953,-24.19
47.968,-23.13
47.984,-21.22
48.000,-18.64
48.015,-15.59
48.031,-12.35
48.046,-9.26
48.062,-6.65
48.078,-4.79
48.093,-3.81
48.109,-3.61
48.125,-3.84
48.140,-4.03
48.156,-3.61
48.171,-2.11
48.187,0.67
48.203,4.67
48.218,9.52
48.234,14.62
48.250,19.33
48.265,23.09
48.281,25.6
48.296,26.81
48.312,26.92
48.328,26.16
48.343,24.8
48.359,23.04
48.375,20.98
48.390,18.67
48.406,16.13
48.421,13.36
48.437,10.43
48.453,7.49
48.468,4.71
48.484,2.29
48.500,0.36
48.515,-1.06
48.531,-2.09
48.546,-2.98
48.562,-4.02
48.578,-5.6
48.593,-7.98
48.609,-11.28
48.625,-15.46
48.640,-20.22
48.656,-25.01
48.671,-29.24
48.687,-32.36
48.703,-34.02
48.718,-34.12
48.734,-32.77
48.750,-30.17
48.765,-26.5
48.781,-22.02
48.796,-16.96
48.812,-11.59
48.828,-6.31
48.843,-1.55
48.859,2.24
48.875,4.68
48.890,5.53
48.906,4.8
48.921,2.75
48.937,-0.11
48.953,-3.1
48.968,-5.5
48.984,-6.7
49.000,-6.36
49.015,-4.46
49.031,-1.27
49.046,2.75
49.062,7.1
49.078,11.27
49.093,14.84
49.109,17.5
49.125,19.07
49.140,19.48
49.156,18.88
49.171,17.49
49.187,15.66
49.203,13.71
49.218,11.94
49.234,10.55
49.250,9.67
49.265,9.43
49.281,9.86
49.296,10.97
49.312,12.6
49.328,14.57
49.343,16.55
49.359,18.19
49.375,19.1
49.390,18.94
49.406,17.52
49.421,14.83
49.437,11.03
49.453,6.42
49.468,1.51
49.484,-3.18
49.500,-7.08
49.515,-9.66
49.531,-10.56
49.546,-9.61
49.562,-6.92
49.578,-2.89
49.593,1.89
49.609,6.74
49.625,10.96
49.640,13.89
49.656,15.09
49.671,14.37
49.687,11.83
49.703,7.89
49.718,3.21
49.734,-1.48
49.750,-5.5
49.765,-8.4
49.781,-10.03
49.796,-10.55
49.812,-10.3
49.828,-9.72
49.843,-9.2
49.859,-8.99
49.875,-9.24
49.890,-10.01
49.906,-11.22
49.921,-12.7
49.937,-14.17
49.953,-15.31
49.968,-15.86
49.984,-15.65
50.000,-14.73
50.015,-13.31
50.031,-11.7
50.046,-10.15
50.062,-8.86
50.078,-7.91
50.093,-7.28
50.109,-7.06
50.125,-7.24
50.140,-7.78
50.156,-8.59
50.171,-9.49
50.187,-10.21
50.203,-10.49
50.218,-10.2
50.234,-9.32
50.250,-8.04
50.265,-6.64
50.281,-5.35
50.296,-4.34
50.312,-3.67
50.328,-3.25
50.343,-2.93
50.359,-2.49
50.375,-1.62
50.390,-0.03
50.406,2.56
50.421,6.37
50.437,11.32
50.453,17.09
50.468,23.15
50.484,28.93
50.500,33.92
50.515,37.97
50.531,41.11
50.546,43.58
50.562,45.54
50.578,46.95
50.593,47.49
50.609,46.72
50.625,44.2
50.640,39.74
50.656,33.57
50.671,26.1
50.687,17.97
50.703,9.75
50.718,1.89
50.734,-5.39
50.750,-11.97
50.765,-17.98
50.781,-23.61
50.796,-29.01
50.812,-34.33
50.828,-39.47
50.843,-44.11
50.859,-47.75
50.875,-49.89
50.890,-50.18
50.906,-48.67
50.921,-45.66
50.937,-41.63
50.953,-37.01
50.968,-32.08
50.984,-26.95
51.000,-21.61
51.015,-16.08
51.031,-10.42
51.046,-4.81
51.062,0.47
51.078,5.11
51.093,8.79
51.109,11.32
51.125,12.62
51.140,12.76
51.156,11.9
51.171,10.32
51.187,8.29
51.203,6.04
51.218,3.75
51.234,1.53
51.250,-0.55
51.265,-2.4
51.281,-3.95
51.296,-5.06
51.312,-5.56
51.328,-5.33
51.343,-4.31
51.359,-2.5
51.375,0.04
51.390,3.23
51.406,7.02
51.421,11.31
51.437,15.96
51.453,20.78
51.468,25.49
51.484,29.76
51.500,33.39
51.515,36.18
51.531,37.97
51.546,38.66
51.562,38.07
51.578,36.03
51.593,32.38
51.609,27.06
51.625,20.19
51.640,12.14
51.656,3.36
51.671,-5.65
51.687,-14.4
51.703,-22.48
51.718,-29.5
51.734,-35.05
51.750,-38.66
51.765,-39.99
51.781,-38.85
51.796,-35.31
51.812,-29.68
51.828,-22.47
51.843,-14.25
51.859,-5.69
51.875,2.61
51.890,10.16
51.906,16.6
51.921,21.8
51.937,25.76
51.953,28.66
51.968,30.62
51.984,31.67
52.000,31.62
52.015,30.23
52.031,27.27
52.046,22.75
52.062,17.03
52.078,10.65
52.093,4.42
52.109,-0.93
52.125,-4.82
52.140,-6.91
52.156,-7.09
52.171,-5.48
52.187,-2.29
52.203,2.18
52.218,7.56
52.234,13.41
52.250,19.25
52.265,24.56
52.281,28.83
52.296,31.65
52.312,32.73
52.328,31.9
52.343,29.16
52.359,24.64
52.375,18.61
52.390,11.48
52.406,3.75
52.421,-4.04
52.437,-11.41
52.453,-17.88
52.468,-23.16
52.484,-26.99
52.500,-29.34
52.515,-30.18
52.531,-29.56
52.546,-27.53
52.562,-24.17
52.578,-19.69
52.593,-14.35
52.609,-8.61
52.625,-3.02
52.640,1.87
52.656,5.67
52.671,8.16
52.687,9.41
52.703,9.66
52.718,9.2
52.734,8.29
52.750,7.11
52.765,5.74
52.781,4.22
52.796,2.64
52.812,1.04
52.828,-0.42
52.843,-1.63
52.859,-2.46
52.875,-2.89
52.890,-3.02
52.906,-3.02
52.921,-3.03
52.937,-3.13
52.953,-3.31
52.968,-3.5
52.984,-3.65
53.000,-3.76
53.015,-3.92
53.031,-4.28
53.046,-5.0
53.062,-6.13
53.078,-7.63
53.093,-9.39
53.109,-11.26
53.125,-13.06
53.140,-14.64
53.156,-15.86
53.171,-16.61
53.187,-16.86
53.203,-16.67
53.218,-16.18
53.234,-15.61
53.250,-15.04
53.265,-14.48
53.281,-13.82
53.296,-12.85
53.312,-11.34
53.328,-9.26
53.343,-6.71
53.359,-3.94
53.375,-1.23
53.390,1.17
53.406,3.09
53.421,4.46
53.437,5.29
53.453,5.68
53.468,5.76
53.484,5.68
53.500,5.59
53.515,5.49
53.531,5.4
53.546,5.22
53.562,4.87
53.578,4.33
53.593,3.6
53.609,2.73
53.625,1.82
53.640,0.98
53.656,0.31
53.671,-0.08
53.687,-0.12
53.703,0.14
53.718,0.62
53.734,1.18
53.750,1.66
53.765,1.97
53.781,2.08
53.796,1.96
53.812,1.62
53.828,1.06
53.843,0.27
53.859,-0.71
53.875,-1.77
53.890,-2.8
53.906,-3.68
53.921,-4.36
53.937,-4.95
53.953,-5.58
53.968,-6.44
53.984,-7.65
54.000,-9.21
54.015,-10.95
54.031,-12.54
54.046,-13.58
54.062,-13.73
54.078,-12.84
54.093,-10.92
54.109,-8.3
54.125,-5.33
54.140,-2.41
54.156,0.18
54.171,2.35
54.187,4.11
54.203,5.55
54.218,6.69
54.234,7.52
54.250,7.9
54.265,7.75
54.281,7.03
54.296,5.82
54.312,4.24
54.328,2.47
54.343,0.63
54.359,-1.15
54.375,-2.8
54.390,-4.23
54.406,-5.35
54.421,-6.06
54.437,-6.23
54.453,-5.85
54.468,-4.98
54.484,-3.76
54.500,-2.4
54.515,-1.1
54.531,-0.03
54.546,0.71
54.562,1.06
54.578,1.0
54.593,0.54
54.609,-0.28
54.625,-1.34
54.640,-2.46
54.656,-3.45
54.671,-4.14
54.687,-4.46
54.703,-4.53
54.718,-4.6
54.734,-4.89
54.750,-5.51
54.765,-6.42
54.781,-7.39
54.796,-8.2
54.812,-8.6
54.828,-8.41
54.843,-7.61
54.859,-6.16
54.875,-4.16
54.890,-1.81
54.906,0.67
54.921,3.05
54.937,5.1
54.953,6.73
54.968,7.96
54.984,8.81
55.000,9.4
55.015,9.8
55.031,10.01
55.046,10.05
55.062,9.87
55.078,9.46
55.093,8.81
55.109,7.94
55.125,6.92
55.140,5.84
55.156,4.81
55.171,3.91
55.187,3.23
55.203,2.82
55.218,2.7
55.234,2.83
55.250,3.06
55.265,3.22
55.281,3.19
55.296,2.93
55.312,2.47
55.328,1.94
55.343,1.4
55.359,0.91
55.375,0.5
55.390,0.18
55.406,-0.03
55.437,0.33
55.453,0.99
55.468,1.94
55.484,3.0
55.500,3.88
55.515,4.3
55.531,3.93
55.546,2.53
55.562,0.02
55.578,-3.46
55.593,-7.52
55.609,-11.58
55.625,-14.99
55.640,-17.18
55.656,-17.83
55.671,-16.96
55.687,-14.88
55.703,-12.08
55.718,-9.05
55.734,-6.14
55.750,-3.52
55.765,-1.23
55.781,0.75
55.796,2.39
55.812,3.64
55.828,4.44
55.843,4.77
55.859,4.59
55.875,3.91
55.890,2.77
55.906,1.24
55.921,-0.52
55.937,-2.24
55.953,-3.72
55.968,-4.73
55.984,-5.21
56.000,-5.25
56.015,-4.94
56.031,-4.43
56.046,-3.76
56.062,-2.97
56.078,-2.14
56.093,-1.42
56.109,-1.03
56.125,-1.09
56.140,-1.56
56.156,-2.23
56.171,-2.76
56.187,-2.92
56.203,-2.68
56.218,-2.18
56.234,-1.67
56.250,-1.35
56.265,-1.31
56.281,-1.54
56.296,-2.0
56.312,-2.67
56.328,-3.63
56.343,-4.97
56.359,-6.7
56.375,-8.69
56.390,-10.75
56.406,-12.53
56.421,-13.8
56.437,-14.36
56.453,-14.11
56.468,-13.11
56.484,-11.45
56.500,-9.33
56.515,-6.91
56.531,-4.45
56.546,-2.13
56.562,-0.18
56.578,1.28
56.593,2.29
56.609,2.93
56.625,3.36
56.640,3.7
56.656,4.04
56.671,4.34
56.687,4.51
56.703,4.43
56.718,4.07
56.734,3.44
56.750,2.63
56.765,1.81
56.781,1.14
56.796,0.72
56.812,0.57
56.828,0.67
56.843,0.88
56.859,1.1
56.875,1.23
56.890,1.2
56.906,0.99
56.921,0.64
56.937,0.17
56.953,-0.32
56.968,-0.79
56.984,-1.21
57.000,-1.61
57.015,-1.99
57.031,-2.39
57.046,-2.78
57.062,-3.07
57.078,-3.13
57.093,-2.89
57.109,-2.29
57.125,-1.42
57.140,-0.44
57.156,0.5
57.171,1.23
57.187,1.72
57.203,1.96
57.218,2.0
57.234,1.9
57.250,1.75
57.265,1.69
57.281,1.86
57.296,2.44
57.312,3.51
57.328,5.11
57.343,7.12
57.359,9.3
57.375,11.35
57.390,13.03
57.406,14.21
57.421,14.9
57.437,15.25
57.453,15.45
57.468,15.7
57.484,16.04
57.500,16.39
57.515,16.54
57.531,16.26
57.546,15.44
57.562,14.11
57.578,12.38
57.593,10.44
57.609,8.45
57.625,6.52
57.640,4.69
57.656,3.0
57.671,1.49
57.687,0.28
57.703,-0.55
57.718,-0.96
57.734,-1.05
57.750,-1.03
57.765,-1.11
57.781,-1.4
57.796,-1.89
57.812,-2.42
57.828,-2.85
57.843,-3.1
57.859,-3.2
57.875,-3.27
57.890,-3.43
57.906,-3.68
57.921,-3.89
57.937,-3.97
57.953,-3.88
57.968,-3.77
57.984,-3.87
58.000,-4.32
58.015,-5.16
58.031,-6.21
58.046,-7.23
58.062,-7.98
58.078,-8.32
58.093,-8.19
58.109,-7.58
58.125,-6.41
58.140,-4.61
58.156,-2.23
58.171,0.56
58.187,3.38
58.203,5.83
58.218,7.59
58.234,8.56
58.250,8.8
58.265,8.51
58.281,7.93
58.296,7.19
58.312,6.41
58.328,5.64
58.343,4.9
58.359,4.25
58.375,3.64
58.390,3.03
58.406,2.35
58.421,1.54
58.437,0.59
58.453,-0.4
58.468,-1.31
58.484,-2.07
58.500,-2.64
58.515,-3.12
58.531,-3.6
58.546,-4.16
58.562,-4.8
58.578,-5.49
58.593,-6.19
58.609,-6.97
58.625,-7.88
58.640,-8.98
58.656,-10.22
58.671,-11.48
58.687,-12.6
58.703,-13.39
58.718,-13.71
58.734,-13.57
58.750,-13.11
58.765,-12.5
58.781,-11.94
58.796,-11.62
58.812,-11.68
58.828,-12.14
58.843,-12.91
58.859,-13.69
58.875,-14.13
58.890,-13.9
58.906,-12.82
58.921,-10.92
58.937,-8.48
58.953,-5.91
58.968,-3.6
58.984,-1.76
59.000,-0.39
59.015,0.63
59.031,1.63
59.046,2.89
59.062,4.65
59.078,7.03
59.093,10.01
59.109,13.36
59.125,16.78
59.140,19.88
59.156,22.3
59.171,23.79
59.187,24.22
59.203,23.57
59.218,21.99
59.234,19.77
59.250,17.29
59.265,14.97
59.281,13.16
59.296,12.07
59.312,11.68
59.328,11.73
59.343,11.82
59.359,11.57
59.375,10.72
59.390,9.27
59.406,7.35
59.421,5.27
59.437,3.26
59.453,1.53
59.468,0.12
59.484,-0.97
59.500,-1.77
59.515,-2.33
59.531,-2.74
59.546,-3.11
59.562,-3.66
59.578,-4.59
59.593,-6.06
59.609,-8.06
59.625,-10.49
59.640,-13.16
59.656,-15.86
59.671,-18.5
59.687,-20.98
59.703,-23.33
59.718,-25.55
59.734,-27.58
59.750,-29.22
59.765,-30.25
59.781,-30.37
59.796,-29.4
59.812,-27.27
59.828,-24.09
59.843,-20.13
59.859,-15.8
59.875,-11.53
59.890,-7.67
59.906,-4.51
59.921,-2.19
59.937,-0.8
59.953,-0.33
59.968,-0.67
59.984,-1.57
