timestamp,value
00.000,-11.25
00.015,-10.58
00.031,-6.69
00.046,0.76
00.062,12.25
00.078,28.16
00.093,48.29
00.109,71.14
00.125,93.56
00.140,111.31
00.156,120.25
00.171,117.96
00.187,104.52
00.203,82.57
00.218,56.1
00.234,29.14
00.250,4.46
00.265,-16.72
00.281,-34.25
00.296,-48.32
00.312,-58.94
00.328,-65.79
00.343,-68.23
00.359,-65.65
00.375,-58.01
00.390,-46.7
00.406,-34.95
00.421,-27.08
00.437,-26.8
00.453,-35.07
00.468,-48.53
00.484,-59.64
00.500,-59.39
00.515,-41.22
00.531,-4.37
00.546,45.18
00.562,97.07
00.578,141.0
00.593,170.6
00.609,185.04
00.625,187.72
00.640,183.18
00.656,174.04
00.671,160.16
00.687,139.56
00.703,110.87
00.718,75.08
00.734,35.93
00.750,-1.12
00.765,-30.73
00.781,-49.14
00.796,-54.95
00.812,-49.13
00.828,-34.73
00.843,-16.12
00.859,1.92
00.875,15.18
00.890,20.63
00.906,16.89
00.921,4.36
00.937,-14.66
00.953,-36.44
00.968,-56.69
00.984,-71.59
01.000,-78.58
01.015,-76.66
01.031,-66.32
01.046,-49.18
01.062,-27.64
01.078,-4.68
01.093,16.16
01.109,31.23
01.125,37.4
01.140,33.14
01.156,19.52
01.171,0.16
01.187,-19.73
01.203,-35.23
01.218,-43.27
01.234,-43.57
01.250,-38.25
01.265,-30.71
01.281,-24.02
01.296,-19.85
01.312,-18.07
01.328,-17.26
01.343,-15.71
01.359,-12.19
01.375,-6.2
01.390,1.99
01.406,11.43
01.421,20.61
01.437,27.43
01.453,29.74
01.468,26.17
01.484,16.99
01.500,4.21
01.515,-9.09
01.531,-20.43
01.546,-29.23
01.562,-36.84
01.578,-45.41
01.593,-56.36
01.609,-69.29
01.625,-82.17
01.640,-92.76
01.656,-99.85
01.671,-103.93
01.687,-106.68
01.703,-109.79
01.718,-114.18
01.734,-120.17
01.750,-127.94
01.765,-138.28
01.781,-152.48
01.796,-171.64
01.812,-196.19
01.828,-225.63
01.843,-258.69
01.859,-293.63
01.875,-328.15
01.890,-358.97
01.906,-382.06
01.921,-393.01
01.937,-388.07
01.953,-365.31
01.968,-324.94
01.984,-268.92
02.000,-199.98
02.015,-120.91
02.031,-34.55
02.046,55.09
02.062,142.09
02.078,218.78
02.093,277.31
02.109,312.04
02.125,321.42
02.140,308.55
02.156,279.69
02.171,242.02
02.187,201.28
02.203,160.79
02.218,121.83
02.234,84.7
02.250,49.92
02.265,18.71
02.281,-7.14
02.296,-25.58
02.312,-34.81
02.328,-33.65
02.343,-21.91
02.359,-0.49
02.375,28.36
02.390,61.29
02.406,94.21
02.421,122.85
02.437,143.55
02.453,154.0
02.468,153.84
02.484,144.7
02.500,129.83
02.515,113.1
02.531,97.86
02.546,86.1
02.562,78.27
02.578,73.63
02.593,71.08
02.609,69.98
02.625,70.35
02.640,72.58
02.656,76.7
02.671,81.74
02.687,85.59
02.703,85.58
02.718,79.46
02.734,66.44
02.750,47.67
02.765,25.86
02.781,4.26
02.796,-14.53
02.812,-29.21
02.828,-39.59
02.843,-45.91
02.859,-48.2
02.875,-46.11
02.890,-39.5
02.906,-29.27
02.921,-17.55
02.937,-7.51
02.953,-2.34
02.968,-4.11
02.984,-13.26
03.000,-28.64
03.015,-48.19
03.031,-69.57
03.046,-90.62
03.062,-109.32
03.078,-123.83
03.093,-132.69
03.109,-135.15
03.125,-131.54
03.140,-123.2
03.156,-112.02
03.171,-99.76
03.187,-87.37
03.203,-74.89
03.218,-61.77
03.234,-47.46
03.250,-31.74
03.265,-14.76
03.281,3.33
03.296,22.73
03.312,43.64
03.328,65.78
03.343,87.78
03.359,107.14
03.375,120.81
03.390,126.35
03.406,122.74
03.421,110.77
03.437,92.72
03.453,71.43
03.468,49.43
03.484,28.38
03.500,9.14
03.515,-7.89
03.531,-22.13
03.546,-32.75
03.562,-38.66
03.578,-38.96
03.593,-33.41
03.609,-22.61
03.625,-8.1
03.640,8.11
03.656,23.78
03.671,36.75
03.687,45.09
03.703,47.43
03.718,43.36
03.734,33.76
03.750,20.81
03.765,7.52
03.781,-3.29
03.796,-9.76
03.812,-11.61
03.828,-9.97
03.843,-6.51
03.859,-2.71
03.875,0.65
03.890,3.26
03.906,4.83
03.921,4.82
03.937,2.66
03.953,-1.75
03.968,-7.59
03.984,-12.99
04.000,-15.63
04.015,-13.73
04.031,-7.0
04.046,2.7
04.062,11.75
04.078,15.66
04.093,10.4
04.109,-6.23
04.125,-33.73
04.140,-68.68
04.156,-105.53
04.171,-137.94
04.187,-160.55
04.203,-170.21
04.218,-166.47
04.234,-151.2
04.250,-127.69
04.265,-99.65
04.281,-70.39
04.296,-42.35
04.312,-16.62
04.328,7.05
04.343,30.14
04.359,54.48
04.375,81.06
04.390,108.71
04.406,133.68
04.421,150.73
04.437,155.22
04.453,145.5
04.468,123.83
04.484,95.58
04.500,66.88
04.515,42.22
04.531,23.3
04.546,9.37
04.562,-1.25
04.578,-9.76
04.593,-16.25
04.609,-20.29
04.625,-21.8
04.640,-21.57
04.656,-20.98
04.671,-21.18
04.687,-22.42
04.703,-23.8
04.718,-23.69
04.734,-20.35
04.750,-12.8
04.765,-1.13
04.781,13.67
04.796,30.28
04.812,47.67
04.828,65.54
04.843,84.05
04.859,103.24
04.875,122.31
04.890,139.3
04.906,151.43
04.921,156.0
04.937,151.49
04.953,138.01
04.968,117.12
04.984,90.94
05.000,61.33
05.015,29.54
05.031,-3.34
05.046,-35.63
05.062,-64.53
05.078,-86.49
05.093,-98.28
05.109,-98.16
05.125,-86.63
05.140,-66.28
05.156,-40.87
05.171,-14.2
05.187,10.8
05.203,32.39
05.218,49.87
05.234,63.4
05.250,73.93
05.265,83.03
05.281,92.59
05.296,104.36
05.312,119.21
05.328,136.69
05.343,154.96
05.359,171.36
05.375,183.36
05.390,189.59
05.406,190.3
05.421,187.14
05.437,182.55
05.453,178.64
05.468,176.38
05.484,175.2
05.500,173.23
05.515,168.0
05.531,157.48
05.546,140.96
05.562,119.49
05.578,95.57
05.593,72.16
05.609,51.34
05.625,33.05
05.640,14.6
05.656,-8.41
05.671,-40.1
05.687,-81.93
05.703,-131.33
05.718,-181.97
05.734,-226.25
05.750,-258.07
05.765,-274.92
05.781,-278.47
05.796,-272.83
05.812,-262.35
05.828,-249.39
05.843,-234.1
05.859,-215.31
05.875,-192.59
05.890,-167.1
05.906,-140.67
05.921,-114.42
05.937,-87.68
05.953,-58.77
05.968,-26.95
05.984,5.61
06.000,33.7
06.015,51.01
06.031,53.13
06.046,39.69
06.062,14.6
06.078,-15.86
06.093,-45.66
06.109,-70.85
06.125,-90.0
06.140,-103.38
06.156,-111.85
06.171,-116.14
06.187,-116.74
06.203,-114.14
06.218,-108.64
06.234,-100.45
06.250,-90.01
06.265,-78.18
06.281,-66.25
06.296,-55.58
06.312,-46.79
06.328,-38.94
06.343,-30.17
06.359,-18.28
06.375,-2.03
06.390,18.2
06.406,41.04
06.421,64.73
06.437,87.34
06.453,106.02
06.468,116.71
06.484,114.53
06.500,95.74
06.515,60.21
06.531,12.85
06.546,-37.13
06.562,-79.5
06.578,-106.85
06.593,-117.28
06.609,-114.26
06.625,-104.02
06.640,-92.11
06.656,-81.06
06.671,-70.27
06.687,-57.67
06.703,-41.96
06.718,-23.62
06.734,-4.85
06.750,11.46
06.765,22.79
06.781,27.83
06.796,26.73
06.812,20.74
06.828,11.93
06.843,2.42
06.859,-6.04
06.875,-12.45
06.890,-16.74
06.906,-19.43
06.921,-21.17
06.937,-22.1
06.953,-21.71
06.968,-18.98
06.984,-12.91
07.000,-3.1
07.015,9.65
07.031,23.44
07.046,35.59
07.062,43.18
07.078,43.86
07.093,36.44
07.109,21.42
07.125,1.05
07.140,-21.3
07.156,-42.23
07.171,-59.33
07.187,-71.68
07.203,-79.66
07.218,-84.07
07.234,-85.43
07.250,-83.71
07.265,-78.73
07.281,-70.85
07.296,-61.16
07.312,-51.08
07.328,-41.3
07.343,-31.28
07.359,-19.38
07.375,-3.9
07.390,15.58
07.406,37.92
07.421,60.83
07.437,82.02
07.453,100.35
07.468,115.99
07.484,129.75
07.500,142.24
07.515,153.11
07.531,161.03
07.546,164.36
07.562,161.88
07.578,153.31
07.593,139.3
07.609,121.16
07.625,100.55
07.640,79.46
07.656,60.24
07.671,45.48
07.687,37.53
07.703,37.36
07.718,43.73
07.734,52.77
07.750,59.11
07.765,57.47
07.781,44.89
07.796,22.19
07.812,-5.58
07.828,-30.26
07.843,-43.25
07.859,-38.56
07.875,-15.47
07.890,20.66
07.906,60.14
07.921,92.5
07.937,110.52
07.953,112.82
07.968,103.58
07.984,89.56
08.000,76.25
08.015,64.88
08.031,52.17
08.046,32.92
08.062,3.72
08.078,-34.47
08.093,-76.29
08.109,-114.52
08.125,-143.44
08.140,-161.17
08.156,-169.87
08.171,-173.81
08.187,-176.62
08.203,-179.71
08.218,-182.3
08.234,-183.14
08.250,-182.26
08.265,-181.62
08.281,-183.96
08.296,-190.94
08.312,-201.64
08.328,-212.37
08.343,-218.13
08.359,-214.63
08.375,-199.6
08.390,-173.5
08.406,-138.71
08.421,-98.53
08.437,-56.1
08.453,-13.84
08.468,26.77
08.484,65.03
08.500,100.61
08.515,133.21
08.531,161.79
08.546,184.33
08.562,198.45
08.578,202.19
08.593,195.33
08.609,179.81
08.625,159.27
08.640,137.77
08.656,118.45
08.671,102.68
08.687,90.15
08.703,79.72
08.718,70.23
08.734,61.02
08.750,51.88
08.765,42.82
08.781,33.95
08.796,25.88
08.812,19.86
08.828,17.64
08.843,20.59
08.859,28.6
08.875,39.65
08.890,50.32
08.906,57.19
08.921,58.42
08.937,54.46
08.953,47.67
08.968,40.87
08.984,35.75
09.000,31.81
09.015,26.64
09.031,17.04
09.046,0.49
09.062,-23.44
09.078,-52.67
09.093,-83.02
09.109,-109.22
09.125,-126.37
09.140,-131.34
09.156,-123.51
09.171,-104.86
09.187,-79.21
09.203,-50.92
09.218,-23.7
09.234,0.19
09.250,20.06
09.265,36.29
09.281,49.58
09.296,60.42
09.312,68.89
09.328,74.78
09.343,77.99
09.359,78.82
09.375,77.88
09.390,75.75
09.406,72.38
09.421,67.0
09.437,58.39
09.453,45.77
09.468,29.59
09.484,11.82
09.500,-4.93
09.515,-18.62
09.531,-29.07
09.546,-38.06
09.562,-48.34
09.578,-61.67
09.593,-77.51
09.609,-93.04
09.625,-104.33
09.640,-108.55
09.656,-105.51
09.671,-97.75
09.687,-89.33
09.703,-83.66
09.718,-82.12
09.734,-84.14
09.750,-88.27
09.765,-92.88
09.781,-96.21
09.796,-95.66
09.812,-87.7
09.828,-69.26
09.843,-39.7
09.859,-2.79
09.875,33.12
09.890,57.65
09.906,62.6
09.921,45.75
09.937,12.38
09.953,-26.51
09.968,-58.45
09.984,-73.66
10.000,-67.89
10.015,-42.68
10.031,-3.72
10.046,41.47
10.062,85.38
10.078,121.75
10.093,146.26
10.109,156.52
10.125,152.22
10.140,135.0
10.156,108.29
10.171,76.97
10.187,46.32
10.203,20.62
10.218,2.32
10.234,-8.06
10.250,-11.33
10.265,-8.59
10.281,-0.63
10.296,12.04
10.312,28.86
10.328,48.24
10.343,67.25
10.359,82.13
10.375,89.26
10.390,86.39
10.406,73.43
10.421,52.46
10.437,27.15
10.453,1.89
10.468,-19.53
10.484,-34.6
10.500,-42.69
10.515,-44.94
10.531,-43.68
10.546,-41.47
10.562,-40.16
10.578,-40.45
10.593,-42.16
10.609,-44.97
10.625,-48.9
10.640,-54.41
10.656,-61.83
10.671,-70.65
10.687,-78.91
10.703,-83.6
10.718,-81.61
10.734,-70.94
10.750,-51.75
10.765,-26.41
10.781,1.31
10.796,27.46
10.812,48.93
10.828,64.26
10.843,73.78
10.859,79.68
10.875,85.99
10.890,98.14
10.906,121.62
10.921,159.66
10.937,211.05
10.953,268.98
10.968,322.13
10.984,358.14
11.000,367.95
11.015,348.74
11.031,304.19
11.046,242.06
11.062,170.69
11.078,96.58
11.093,24.0
11.109,-43.79
11.125,-103.26
11.140,-150.55
11.156,-182.88
11.171,-200.23
11.187,-205.69
11.203,-204.16
11.218,-199.8
11.234,-194.03
11.250,-185.34
11.265,-170.99
11.281,-149.67
11.296,-123.12
11.312,-96.02
11.328,-73.78
11.343,-59.67
11.359,-53.02
11.375,-49.52
11.390,-43.23
11.406,-29.65
11.421,-8.08
11.437,18.08
11.453,42.81
11.468,59.74
11.484,64.38
11.500,54.96
11.515,32.44
11.531,-0.23
11.546,-39.12
11.562,-80.03
11.578,-119.03
11.593,-152.74
11.609,-178.7
11.625,-195.42
11.640,-202.67
11.656,-201.27
11.671,-192.94
11.687,-180.05
11.703,-165.06
11.718,-150.01
11.734,-136.08
11.750,-123.25
11.765,-110.2
11.781,-95.28
11.796,-77.46
11.812,-57.04
11.828,-35.58
11.843,-15.07
11.859,3.05
11.875,18.35
11.890,31.2
11.906,42.23
11.921,51.74
11.937,59.69
11.953,66.18
11.968,71.66
11.984,76.76
12.000,81.34
12.015,83.68
12.031,80.43
12.046,67.97
12.062,44.39
12.078,10.86
12.093,-28.46
12.109,-68.25
12.125,-104.1
12.140,-133.74
12.156,-156.76
12.171,-173.22
12.187,-182.39
12.203,-182.32
12.218,-170.66
12.234,-146.12
12.250,-109.57
12.265,-63.82
12.281,-12.46
12.296,41.27
12.312,94.89
12.328,146.3
12.343,193.08
12.359,232.24
12.375,260.79
12.390,276.55
12.406,278.93
12.421,269.29
12.437,250.65
12.453,226.83
12.468,201.3
12.484,176.42
12.500,153.07
12.515,130.99
12.531,109.43
12.546,87.67
12.562,65.45
12.578,42.9
12.593,20.31
12.609,-2.16
12.625,-24.65
12.640,-47.15
12.656,-69.2
12.671,-89.77
12.687,-107.58
12.703,-121.25
12.718,-129.46
12.734,-130.86
12.750,-124.11
12.765,-108.4
12.781,-83.89
12.796,-52.28
12.812,-16.67
12.828,19.2
12.843,52.55
12.859,82.52
12.875,110.14
12.890,137.09
12.906,163.8
12.921,188.19
12.937,205.95
12.953,212.12
12.968,203.03
12.984,177.99
13.000,139.5
13.015,92.14
13.031,41.1
13.046,-9.61
13.062,-58.21
13.078,-105.05
13.093,-151.37
13.109,-197.55
13.125,-241.82
13.140,-279.68
13.156,-305.18
13.171,-312.91
13.187,-300.33
13.203,-268.71
13.218,-222.63
13.234,-167.98
13.250,-109.84
13.265,-51.47
13.281,5.55
13.296,60.18
13.312,110.83
13.328,154.83
13.343,188.87
13.359,209.97
13.375,216.41
13.390,208.3
13.406,187.45
13.421,156.87
13.437,119.91
13.453,79.88
13.468,39.37
13.484,0.2
13.500,-36.28
13.515,-68.87
13.531,-96.21
13.546,-116.59
13.562,-128.11
13.578,-129.01
13.593,-118.22
13.609,-95.94
13.625,-64.14
13.640,-26.45
13.656,12.49
13.671,47.85
13.687,75.54
13.703,92.94
13.718,99.33
13.734,95.67
13.750,84.07
13.765,67.11
13.781,47.36
13.796,26.95
13.812,7.33
13.828,-10.99
13.843,-28.26
13.859,-45.18
13.875,-61.99
13.890,-77.97
13.906,-91.46
13.921,-100.5
13.937,-103.72
13.953,-100.9
13.968,-92.66
13.984,-79.74
14.000,-62.42
14.015,-40.51
14.031,-14.14
14.046,15.41
14.062,45.4
14.078,72.61
14.093,94.65
14.109,110.94
14.125,122.57
14.140,130.98
14.156,136.67
14.171,138.67
14.187,135.11
14.203,124.4
14.218,106.66
14.234,84.02
14.250,60.07
14.265,38.76
14.281,23.14
14.296,14.75
14.312,13.6
14.328,18.47
14.343,27.17
14.359,36.79
14.375,44.1
14.390,46.04
14.406,40.62
14.421,27.47
14.437,7.99
14.453,-15.06
14.468,-38.56
14.484,-60.05
14.500,-78.05
14.515,-91.75
14.531,-100.47
14.546,-103.13
14.562,-98.42
14.578,-85.45
14.593,-64.29
14.609,-36.12
14.625,-3.02
14.640,32.53
14.656,67.82
14.671,100.14
14.687,126.81
14.703,145.3
14.718,153.46
14.734,150.08
14.750,135.27
14.765,110.63
14.781,79.13
14.796,44.23
14.812,9.17
14.828,-23.43
14.843,-51.9
14.859,-75.41
14.875,-93.76
14.890,-107.29
14.906,-116.73
14.921,-123.1
14.937,-127.55
14.953,-130.88
14.968,-133.22
14.984,-133.82
15.000,-131.35
15.015,-124.41
15.031,-112.14
15.046,-94.62
15.062,-72.85
15.078,-48.43
15.093,-23.14
15.109,1.36
15.125,23.7
15.140,43.06
15.156,58.98
15.171,71.2
15.187,79.3
15.203,82.5
15.218,79.84
15.234,70.6
15.250,54.9
15.265,34.14
15.281,11.31
15.296,-9.5
15.312,-24.15
15.328,-29.64
15.343,-25.1
15.359,-11.92
15.375,6.81
15.390,27.21
15.406,45.65
15.421,59.34
15.437,66.53
15.453,66.32
15.468,58.65
15.484,44.29
15.500,25.11
15.515,4.14
15.531,-14.74
15.546,-27.55
15.562,-31.17
15.578,-24.43
15.593,-8.41
15.609,13.81
15.625,38.02
15.640,60.28
15.656,77.78
15.671,88.97
15.687,93.46
15.703,91.28
15.718,82.32
15.734,66.3
15.750,43.09
15.765,13.22
15.781,-21.59
15.796,-58.28
15.812,-92.98
15.828,-121.65
15.843,-141.14
15.859,-150.06
15.875,-148.95
15.890,-140.16
15.906,-127.04
15.921,-112.69
15.937,-98.93
15.953,-85.7
15.968,-71.32
15.984,-53.58
16.000,-31.2
16.015,-4.3
16.031,25.6
16.046,56.36
16.062,86.22
16.078,114.27
16.093,140.35
16.109,164.49
16.125,185.87
16.140,202.41
16.156,211.34
16.171,210.13
16.187,197.79
16.203,175.88
16.218,148.39
16.234,120.45
16.250,96.58
16.265,79.04
16.281,67.24
16.296,58.85
16.312,51.29
16.328,43.23
16.343,34.87
16.359,27.04
16.375,20.25
16.390,14.36
16.406,9.23
16.421,5.43
16.437,4.22
16.453,6.23
16.468,9.93
16.484,11.3
16.500,4.75
16.515,-13.85
16.531,-44.55
16.546,-82.17
16.562,-118.29
16.578,-144.51
16.593,-156.09
16.609,-153.26
16.625,-139.88
16.640,-121.01
16.656,-100.3
16.671,-79.55
16.687,-59.48
16.703,-41.44
16.718,-27.83
16.734,-21.51
16.750,-24.07
16.765,-34.47
16.781,-49.09
16.796,-63.03
16.812,-72.54
16.828,-76.67
16.843,-77.58
16.859,-79.17
16.875,-84.77
16.890,-95.35
16.906,-108.82
16.921,-121.18
16.937,-128.29
16.953,-127.87
16.968,-120.12
16.984,-107.14
17.000,-91.74
17.015,-76.04
17.031,-61.22
17.046,-47.61
17.062,-35.36
17.078,-24.64
17.093,-15.44
17.109,-7.33
17.125,0.81
17.140,10.19
17.156,21.54
17.171,34.36
17.187,47.0
17.203,57.3
17.218,63.69
17.234,65.97
17.250,65.23
17.265,63.38
17.281,61.91
17.296,61.32
17.312,60.94
17.328,59.43
17.343,55.52
17.359,48.44
17.375,38.18
17.390,25.07
17.406,9.71
17.421,-7.48
17.437,-25.81
17.453,-44.13
17.468,-60.57
17.484,-72.8
17.500,-78.86
17.515,-77.98
17.531,-71.15
17.546,-60.88
17.562,-50.47
17.578,-42.6
17.593,-38.28
17.609,-36.64
17.625,-35.28
17.640,-31.32
17.656,-22.37
17.671,-7.24
17.687,13.82
17.703,39.01
17.718,65.27
17.734,88.89
17.750,106.35
17.765,115.47
17.781,116.18
17.796,110.48
17.812,101.56
17.828,92.62
17.843,85.69
17.859,81.37
17.875,79.09
17.890,77.84
17.906,76.74
17.921,75.18
17.937,72.74
17.953,69.05
17.968,63.99
17.984,57.79
18.000,51.2
18.015,45.13
18.031,40.45
18.046,37.83
18.062,37.44
18.078,39.2
18.093,42.79
18.109,47.81
18.125,53.91
18.140,60.96
18.156,68.87
18.171,77.39
18.187,86.0
18.203,93.69
18.218,99.19
18.234,101.22
18.250,98.76
18.265,91.05
18.281,77.98
18.296,60.07
18.312,38.7
18.328,16.08
18.343,-5.11
18.359,-22.17
18.375,-33.46
18.390,-38.94
18.406,-40.36
18.421,-40.28
18.437,-40.64
18.453,-41.66
18.468,-41.94
18.484,-39.81
18.500,-34.58
18.515,-27.34
18.531,-20.31
18.546,-15.39
18.562,-13.06
18.578,-12.41
18.593,-12.13
18.609,-11.97
18.625,-13.45
18.640,-19.01
18.656,-30.37
18.671,-47.23
18.687,-66.87
18.703,-85.51
18.718,-100.37
18.734,-110.73
18.750,-117.95
18.765,-124.37
18.781,-131.7
18.796,-139.85
18.812,-146.52
18.828,-147.82
18.843,-139.87
18.859,-120.5
18.875,-90.43
18.890,-53.35
18.906,-14.89
18.921,19.26
18.937,44.81
18.953,59.78
18.968,64.27
18.984,59.67
19.000,48.0
19.015,31.59
19.031,12.87
19.046,-5.83
19.062,-22.46
19.078,-35.4
19.093,-43.24
19.109,-44.69
19.125,-38.4
19.140,-23.58
19.156,-0.75
19.171,27.53
19.187,56.68
19.203,81.22
19.218,96.51
19.234,100.35
19.250,93.6
19.265,79.51
19.281,62.2
19.296,45.12
19.312,30.03
19.328,16.71
19.343,3.84
19.359,-10.0
19.375,-24.96
19.390,-39.25
19.406,-49.43
19.421,-51.41
19.437,-41.8
19.453,-19.01
19.468,16.03
19.484,59.77
19.500,106.44
19.515,149.24
19.531,182.15
19.546,201.87
19.562,208.92
19.578,207.24
19.593,202.41
19.609,198.95
19.625,197.97
19.640,196.53
19.656,189.2
19.671,171.08
19.687,140.63
19.703,100.87
19.718,58.12
19.734,19.43
19.750,-10.1
19.765,-29.04
19.781,-39.65
19.796,-46.5
19.812,-54.21
19.828,-65.33
19.843,-78.77
19.859,-89.91
19.875,-92.13
19.890,-79.71
19.906,-51.05
19.921,-10.67
19.937,31.36
19.953,62.31
19.968,71.29
19.984,53.07
20.000,9.68
20.015,-50.31
20.031,-114.59
20.046,-170.51
20.062,-208.11
20.078,-222.16
20.093,-213.18
20.109,-186.78
20.125,-151.43
20.140,-115.53
20.156,-84.16
20.171,-57.7
20.187,-33.14
20.203,-6.93
20.218,21.78
20.234,49.61
20.250,70.12
20.265,76.6
20.281,64.77
20.296,34.56
20.312,-10.1
20.328,-62.94
20.343,-116.76
20.359,-164.92
20.375,-202.33
20.390,-225.67
20.406,-234.08
20.421,-229.08
20.437,-213.78
20.453,-191.59
20.468,-165.14
20.484,-135.48
20.500,-102.08
20.515,-63.45
20.531,-17.84
20.546,35.45
20.562,94.71
20.578,155.03
20.593,208.73
20.609,246.98
20.625,262.56
20.640,252.36
20.656,218.67
20.671,168.67
20.687,112.01
20.703,57.65
20.718,11.27
20.734,-25.46
20.750,-53.72
20.765,-75.24
20.781,-90.77
20.796,-99.82
20.812,-101.42
20.828,-95.48
20.843,-83.61
20.859,-69.27
20.875,-56.83
20.890,-50.07
20.906,-50.94
20.921,-59.45
20.937,-74.42
20.953,-94.08
20.968,-116.3
20.984,-138.13
21.000,-155.74
21.015,-165.11
21.031,-163.74
21.046,-152.28
21.062,-134.83
21.078,-117.65
21.093,-106.02
21.109,-101.63
21.125,-101.52
21.140,-99.08
21.156,-86.82
21.171,-59.49
21.187,-16.0
21.203,40.36
21.218,102.69
21.234,162.29
21.250,210.72
21.265,241.53
21.281,251.73
21.296,242.23
21.312,216.9
21.328,180.86
21.343,138.92
21.359,94.56
21.375,50.36
21.390,8.94
21.406,-26.55
21.421,-52.96
21.437,-68.5
21.453,-73.87
21.468,-72.4
21.484,-68.49
21.500,-65.82
21.515,-65.87
21.531,-67.76
21.546,-69.3
21.562,-68.45
21.578,-64.75
21.593,-59.07
21.609,-52.92
21.625,-47.25
21.640,-42.33
21.656,-38.39
21.671,-36.24
21.687,-36.88
21.703,-40.22
21.718,-44.07
21.734,-44.2
21.750,-35.88
21.765,-16.26
21.781,13.56
21.796,48.34
21.812,80.22
21.828,101.83
21.843,108.83
21.859,101.27
21.875,82.81
21.890,58.93
21.906,34.84
21.921,13.81
21.937,-3.12
21.953,-16.91
21.968,-29.33
21.984,-41.65
22.000,-53.67
22.015,-63.86
22.031,-70.34
22.046,-71.56
22.062,-66.72
22.078,-55.84
22.093,-39.74
22.109,-20.08
22.125,0.62
22.140,19.6
22.156,34.68
22.171,45.06
22.187,51.29
22.203,54.72
22.218,56.62
22.234,56.73
22.250,53.27
22.265,43.75
22.281,26.26
22.296,1.01
22.312,-28.63
22.328,-56.77
22.343,-76.58
22.359,-82.02
22.375,-69.78
22.390,-40.39
22.406,1.92
22.421,49.93
22.437,95.22
22.453,130.05
22.468,149.02
22.484,150.41
22.500,136.29
22.515,111.22
22.531,80.2
22.546,46.96
22.562,13.19
22.578,-20.21
22.593,-51.59
22.609,-77.36
22.625,-92.69
22.640,-93.8
22.656,-80.73
22.671,-57.82
22.687,-31.92
22.703,-9.68
22.718,5.6
22.734,14.27
22.750,18.49
22.765,19.84
22.781,17.67
22.796,9.06
22.812,-8.73
22.828,-35.74
22.843,-69.03
22.859,-103.24
22.875,-132.16
22.890,-150.7
22.906,-155.58
22.921,-145.69
22.937,-122.63
22.953,-90.4
22.968,-55.03
22.984,-23.46
23.000,-1.22
23.015,9.95
23.031,13.06
23.046,15.66
23.062,26.39
23.078,51.11
23.093,89.83
23.109,136.48
23.125,181.09
23.140,213.81
23.156,228.08
23.171,221.87
23.187,197.55
23.203,159.89
23.218,113.96
23.234,64.06
23.250,13.85
23.265,-32.64
23.281,-69.95
23.296,-91.42
23.312,-91.32
23.328,-67.42
23.343,-23.49
23.359,30.43
23.375,80.84
23.390,115.28
23.406,127.38
23.421,119.22
23.437,99.6
23.453,79.01
23.468,64.1
23.484,54.66
23.500,44.66
23.515,26.54
23.531,-4.51
23.546,-47.29
23.562,-95.13
23.578,-138.35
23.593,-167.97
23.609,-178.47
23.625,-169.48
23.640,-145.75
23.656,-115.85
23.671,-89.79
23.687,-75.56
23.703,-75.96
23.718,-87.25
23.734,-100.63
23.750,-106.2
23.765,-97.23
23.781,-72.98
23.796,-38.5
23.812,-2.13
23.828,28.12
23.843,47.17
23.859,53.79
23.875,49.9
23.890,38.88
23.906,24.71
23.921,11.92
23.937,5.61
23.953,10.92
23.968,31.32
23.984,66.16
24.000,109.28
24.015,150.04
24.031,176.61
24.046,180.48
24.062,159.59
24.078,118.41
24.093,65.11
24.109,7.47
24.125,-50.05
24.140,-106.85
24.156,-163.63
24.171,-219.16
24.187,-268.25
24.203,-302.55
24.218,-313.87
24.234,-298.45
24.250,-259.28
24.265,-205.55
24.281,-149.21
24.296,-100.31
24.312,-63.47
24.328,-36.98
24.343,-14.76
24.359,10.33
24.375,42.92
24.390,83.54
24.406,128.54
24.421,171.6
24.437,205.76
24.453,225.1
24.468,226.07
24.484,208.18
24.500,173.87
24.515,127.52
24.531,75.05
24.546,23.06
24.562,-21.67
24.578,-52.11
24.593,-61.77
24.609,-46.38
24.625,-6.32
24.640,51.76
24.656,115.25
24.671,168.82
24.687,199.33
24.703,200.37
24.718,174.27
24.734,130.21
24.750,79.87
24.765,32.44
24.781,-8.79
24.796,-46.16
24.812,-84.95
24.828,-129.58
24.843,-180.39
24.859,-232.15
24.875,-275.74
24.890,-301.52
24.906,-303.38
24.921,-281.55
24.937,-242.86
24.953,-197.39
24.968,-154.06
24.984,-116.89
25.000,-83.94
25.015,-50.59
25.031,-13.37
25.046,27.4
25.062,68.26
25.078,105.22
25.093,136.74
25.109,164.47
25.125,190.6
25.140,214.33
25.156,229.95
25.171,228.96
25.187,204.95
25.203,158.06
25.218,96.36
25.234,32.92
25.250,-19.36
25.265,-51.95
25.281,-62.18
25.296,-52.1
25.312,-26.11
25.328,10.59
25.343,52.24
25.359,91.81
25.375,121.72
25.390,135.86
25.406,131.72
25.421,111.68
25.437,81.12
25.453,45.74
25.468,9.1
25.484,-27.69
25.500,-65.07
25.515,-103.79
25.531,-143.6
25.546,-182.75
25.562,-217.04
25.578,-240.43
25.593,-246.44
25.609,-230.65
25.625,-193.25
25.640,-139.91
25.656,-80.4
25.671,-24.75
25.687,21.14
25.703,58.21
25.718,92.81
25.734,132.6
25.750,181.21
25.765,234.94
25.781,283.7
25.796,315.09
25.812,319.6
25.828,294.22
25.843,243.4
25.859,176.21
25.875,102.33
25.890,28.98
25.906,-39.88
25.921,-101.82
25.937,-153.65
25.953,-190.45
25.968,-207.37
25.984,-201.99
26.000,-176.34
26.015,-136.83
26.031,-91.86
26.046,-49.07
26.062,-13.33
26.078,12.96
26.093,28.64
26.109,32.3
26.125,22.1
26.140,-3.32
26.156,-42.84
26.171,-91.48
26.187,-140.8
26.203,-180.41
26.218,-200.93
26.234,-197.08
26.250,-169.33
26.265,-123.71
26.281,-70.09
26.296,-19.32
26.312,19.72
26.328,42.18
26.343,48.58
26.359,44.78
26.375,40.04
26.390,43.68
26.406,61.3
26.421,91.7
26.437,126.47
26.453,153.1
26.468,160.32
26.484,143.67
26.500,107.5
26.515,62.76
26.531,21.38
26.546,-9.24
26.562,-28.13
26.578,-38.36
26.593,-42.76
26.609,-40.84
26.625,-29.02
26.640,-4.59
26.656,30.65
26.671,69.52
26.687,102.03
26.703,120.08
26.718,121.08
26.734,107.91
26.750,86.09
26.765,59.71
26.781,28.72
26.796,-10.08
26.812,-59.56
26.828,-118.91
26.843,-181.58
26.859,-236.17
26.875,-270.27
26.890,-275.26
26.906,-250.12
26.921,-202.35
26.937,-145.31
26.953,-92.69
26.968,-53.19
26.984,-28.01
27.000,-11.92
27.015,3.28
27.031,24.17
27.046,53.3
27.062,89.01
27.078,126.81
27.093,160.91
27.109,185.4
27.125,195.35
27.140,187.73
27.156,162.24
27.171,121.72
27.187,72.1
27.203,21.5
27.218,-21.46
27.234,-49.36
27.250,-57.55
27.265,-45.31
27.281,-16.32
27.296,21.5
27.312,58.12
27.328,84.28
27.343,94.7
27.359,89.56
27.375,73.67
27.390,53.54
27.406,33.82
27.421,15.19
27.437,-5.59
27.453,-32.75
27.468,-68.29
27.484,-109.53
27.500,-149.3
27.515,-178.06
27.531,-188.02
27.546,-176.68
27.562,-148.1
27.578,-111.12
27.593,-75.13
27.609,-45.94
27.625,-23.99
27.640,-5.47
27.656,14.49
27.671,38.51
27.687,65.26
27.703,90.44
27.718,109.26
27.734,119.01
27.750,120.1
27.765,115.2
27.781,107.4
27.796,98.35
27.812,87.82
27.828,74.56
27.843,58.0
27.859,39.57
27.875,23.2
27.890,14.06
27.906,16.09
27.921,29.6
27.937,49.75
27.953,68.01
27.968,75.67
27.984,67.98
28.000,46.63
28.015,18.99
28.031,-5.78
28.046,-21.04
28.062,-25.46
28.078,-23.02
28.093,-20.37
28.109,-23.26
28.125,-33.98
28.140,-50.58
28.156,-68.15
28.171,-80.97
28.187,-84.8
28.203,-78.24
28.218,-63.08
28.234,-43.39
28.250,-23.95
28.265,-8.38
28.281,2.15
28.296,8.63
28.312,12.93
28.328,16.49
28.343,19.79
28.359,23.04
28.375,27.4
28.390,35.02
28.406,47.72
28.421,65.14
28.437,83.46
28.453,96.04
28.468,96.25
28.484,80.78
28.500,52.01
28.515,17.82
28.531,-11.46
28.546,-27.06
28.562,-25.14
28.578,-8.22
28.593,16.04
28.609,38.02
28.625,49.35
28.640,45.68
28.656,27.69
28.671,0.14
28.687,-30.63
28.703,-58.98
28.718,-81.86
28.734,-99.15
28.750,-112.67
28.765,-125.04
28.781,-138.11
28.796,-151.67
28.812,-163.0
28.828,-167.52
28.843,-160.35
28.859,-138.76
28.875,-103.94
28.890,-61.25
28.906,-18.73
28.921,15.79
28.937,37.92
28.953,48.31
28.968,51.93
28.984,55.27
29.000,62.96
29.015,76.15
29.031,92.64
29.046,108.44
29.062,119.93
29.078,125.37
29.093,125.12
29.109,120.86
29.125,114.43
29.140,106.65
29.156,97.51
29.171,86.84
29.187,74.83
29.203,62.67
29.218,52.82
29.234,48.11
29.250,50.78
29.265,61.36
29.281,77.65
29.296,95.07
29.312,108.21
29.328,112.61
29.343,106.06
29.359,89.44
29.375,65.94
29.390,39.28
29.406,12.39
29.421,-13.75
29.437,-40.17
29.453,-68.42
29.468,-98.95
29.484,-130.5
29.500,-160.34
29.515,-184.9
29.531,-200.84
29.546,-206.07
29.562,-200.8
29.578,-188.02
29.593,-172.88
29.609,-160.88
29.625,-155.23
29.640,-155.41
29.656,-157.1
29.671,-154.07
29.687,-141.19
29.703,-117.06
29.718,-84.37
29.734,-48.15
29.750,-12.85
29.765,19.64
29.781,49.81
29.796,78.85
29.812,106.83
29.828,132.3
29.843,152.94
29.859,167.12
29.875,174.89
29.890,177.84
29.906,178.07
29.921,176.91
29.937,174.24
29.953,168.74
29.968,159.17
29.984,144.95
30.000,126.32
30.015,103.69
30.031,76.69
30.046,44.03
30.062,3.82
30.078,-45.11
30.093,-101.65
30.109,-161.37
30.125,-216.59
30.140,-258.36
30.156,-279.44
30.171,-277.26
30.187,-254.97
30.203,-220.46
30.218,-183.03
30.234,-149.84
30.250,-123.77
30.265,-103.42
30.281,-85.09
30.296,-65.14
30.312,-41.63
30.328,-14.3
30.343,16.1
30.359,48.66
30.375,82.04
30.390,113.43
30.406,138.68
30.421,153.18
30.437,154.04
30.453,141.65
30.468,120.27
30.484,96.54
30.500,77.24
30.515,67.27
30.531,68.26
30.546,79.12
30.562,96.44
30.578,115.63
30.593,131.57
30.609,139.87
30.625,138.11
30.640,126.59
30.656,108.08
30.671,86.17
30.687,63.4
30.703,39.24
30.718,10.34
30.734,-27.07
30.750,-73.73
30.765,-125.38
30.781,-173.05
30.796,-205.87
30.812,-215.54
30.828,-199.84
30.843,-164.11
30.859,-119.49
30.875,-78.4
30.890,-49.67
30.906,-35.87
30.921,-33.17
30.937,-33.53
30.953,-28.52
30.968,-12.57
30.984,15.66
31.000,53.25
31.015,94.46
31.031,132.03
31.046,158.52
31.062,167.84
31.078,157.06
31.093,127.65
31.109,85.69
31.125,40.79
31.140,3.29
31.156,-18.83
31.171,-22.39
31.187,-9.08
31.203,15.9
31.218,45.71
31.234,73.59
31.250,93.9
31.265,102.89
31.281,99.03
31.296,83.47
31.312,59.49
31.328,31.63
31.343,4.32
31.359,-20.04
31.375,-41.66
31.390,-62.14
31.406,-82.41
31.421,-101.36
31.437,-115.3
31.453,-119.84
31.468,-112.36
31.484,-93.48
31.500,-67.38
31.515,-40.03
31.531,-16.68
31.546,-0.55
31.562,7.3
31.578,7.42
31.593,1.26
31.609,-8.85
31.625,-19.42
31.640,-25.91
31.656,-23.84
31.671,-10.73
31.687,11.87
31.703,38.3
31.718,60.99
31.734,73.52
31.750,73.11
31.765,61.42
31.781,43.47
31.796,25.9
31.812,15.02
31.828,15.21
31.843,28.16
31.859,52.31
31.875,82.52
31.890,110.8
31.906,128.63
31.921,129.94
31.937,113.97
31.953,85.65
31.968,53.4
31.984,25.31
32.000,5.68
32.015,-6.31
32.031,-15.26
32.046,-26.46
32.062,-43.22
32.078,-65.25
32.093,-89.08
32.109,-109.58
32.125,-122.36
32.140,-125.46
32.156,-119.75
32.171,-108.16
32.187,-94.13
32.203,-80.48
32.218,-68.83
32.234,-59.82
32.250,-53.46
32.265,-49.32
32.281,-46.31
32.296,-42.57
32.312,-35.38
32.328,-21.83
32.343,-0.21
32.359,28.92
32.375,62.3
32.390,95.04
32.406,122.54
32.421,142.09
32.437,153.59
32.453,158.81
32.468,160.36
32.484,160.4
32.500,159.78
32.515,158.29
32.531,155.25
32.546,149.87
32.562,141.37
32.578,128.74
32.593,110.34
32.609,84.83
32.625,52.4
32.640,15.29
32.656,-22.45
32.671,-56.15
32.687,-82.6
32.703,-101.52
32.718,-115.21
32.734,-127.52
32.750,-141.63
32.765,-158.08
32.781,-174.37
32.796,-186.1
32.812,-188.96
32.828,-180.86
32.843,-162.74
32.859,-137.96
32.875,-111.1
32.890,-85.92
32.906,-64.91
32.921,-49.02
32.937,-38.37
32.953,-32.4
32.968,-30.16
32.984,-30.01
33.000,-29.56
33.015,-26.73
33.031,-19.87
33.046,-8.51
33.062,7.4
33.078,27.84
33.093,52.53
33.109,80.06
33.125,107.97
33.140,133.54
33.156,154.73
33.171,171.34
33.187,184.29
33.203,193.56
33.218,196.6
33.234,188.25
33.250,162.88
33.265,118.77
33.281,60.71
33.296,-0.66
33.312,-52.6
33.328,-85.98
33.343,-99.01
33.359,-97.0
33.375,-89.46
33.390,-85.38
33.406,-89.98
33.421,-103.67
33.437,-123.49
33.453,-144.37
33.468,-160.75
33.484,-167.82
33.500,-161.93
33.515,-142.19
33.531,-111.01
33.546,-74.53
33.562,-40.94
33.578,-18.05
33.593,-10.22
33.609,-16.57
33.625,-31.4
33.640,-46.21
33.656,-52.81
33.671,-45.96
33.687,-24.82
33.703,7.29
33.718,44.44
33.734,80.54
33.750,110.41
33.765,130.31
33.781,138.32
33.796,134.4
33.812,120.84
33.828,102.12
33.843,83.8
33.859,70.38
33.875,63.8
33.890,62.22
33.906,61.09
33.921,55.72
33.937,43.95
33.953,27.21
33.968,9.6
33.984,-4.73
34.000,-14.15
34.015,-20.49
34.031,-28.01
34.046,-40.88
34.062,-60.63
34.078,-85.13
34.093,-108.98
34.109,-125.48
34.125,-129.17
34.140,-118.03
34.156,-94.4
34.171,-64.28
34.187,-35.11
34.203,-13.26
34.218,-2.31
34.234,-2.51
34.250,-11.28
34.265,-24.61
34.281,-38.18
34.296,-48.17
34.312,-51.58
34.328,-46.47
34.343,-32.37
34.359,-10.64
34.375,15.81
34.390,43.27
34.406,68.12
34.421,87.69
34.437,101.07
34.453,108.96
34.468,113.22
34.484,116.15
34.500,119.38
34.515,123.25
34.531,126.66
34.546,127.43
34.562,123.21
34.578,112.85
34.593,97.31
34.609,79.5
34.625,62.77
34.640,49.28
34.656,38.87
34.671,29.03
34.687,15.97
34.703,-3.95
34.718,-32.54
34.734,-68.85
34.750,-108.92
34.765,-146.31
34.781,-173.55
34.796,-184.36
34.812,-175.99
34.828,-150.81
34.843,-115.88
34.859,-80.52
34.875,-52.88
34.890,-36.91
34.906,-31.66
34.921,-32.68
34.937,-34.42
34.953,-32.49
34.968,-24.62
34.984,-10.24
35.000,10.36
35.015,36.12
35.031,65.0
35.046,93.56
35.062,116.72
35.078,128.47
35.093,124.25
35.109,103.52
35.125,71.34
35.140,37.59
35.156,13.56
35.171,7.06
35.187,19.01
35.203,42.86
35.218,67.35
35.234,82.04
35.250,81.6
35.265,67.66
35.281,46.63
35.296,25.58
35.312,8.64
35.328,-4.21
35.343,-16.23
35.359,-31.59
35.375,-52.98
35.390,-80.42
35.406,-110.69
35.421,-138.04
35.437,-155.62
35.453,-157.76
35.468,-142.64
35.484,-114.24
35.500,-81.39
35.515,-54.42
35.531,-40.84
35.546,-41.81
35.562,-51.87
35.578,-62.26
35.593,-65.36
35.609,-58.09
35.625,-42.67
35.640,-23.89
35.656,-5.48
35.671,11.56
35.687,28.45
35.703,46.67
35.718,66.24
35.734,85.75
35.750,103.53
35.765,118.86
35.781,132.05
35.796,143.13
35.812,150.35
35.828,150.27
35.843,139.78
35.859,118.19
35.875,88.28
35.890,55.32
35.906,24.65
35.921,-0.21
35.937,-18.07
35.953,-29.39
35.968,-35.15
35.984,-36.3
36.000,-34.31
36.015,-32.21
36.031,-34.29
36.046,-44.37
36.062,-63.37
36.078,-87.94
36.093,-111.32
36.109,-126.31
36.125,-128.56
36.140,-118.38
36.156,-100.0
36.171,-78.98
36.187,-59.77
36.203,-44.75
36.218,-34.37
36.234,-28.07
36.250,-24.71
36.265,-22.58
36.281,-19.06
36.296,-11.19
36.312,3.38
36.328,24.67
36.343,49.76
36.359,74.4
36.375,95.15
36.390,110.75
36.406,121.83
36.421,129.28
36.437,132.4
36.453,129.72
36.468,119.84
36.484,103.04
36.500,82.1
36.515,60.75
36.531,41.58
36.546,24.94
36.562,9.63
36.578,-6.32
36.593,-23.44
36.609,-41.64
36.625,-61.43
36.640,-85.16
36.656,-116.89
36.671,-160.23
36.687,-215.21
36.703,-276.36
36.718,-333.71
36.734,-375.32
36.750,-391.75
36.765,-379.55
36.781,-342.05
36.796,-287.88
36.812,-227.31
36.828,-168.53
36.843,-115.98
36.859,-71.14
36.875,-33.75
36.890,-4.2
36.906,16.02
36.921,26.03
36.937,27.21
36.953,24.58
36.968,25.65
36.984,37.13
37.000,61.87
37.015,98.28
37.031,141.44
37.046,185.27
37.062,225.13
37.078,257.6
37.093,280.37
37.109,291.39
37.125,288.88
37.140,271.87
37.156,241.12
37.171,199.58
37.187,152.16
37.203,105.32
37.218,65.16
37.234,36.11
37.250,19.54
37.265,13.6
37.281,14.2
37.296,16.87
37.312,18.33
37.328,17.28
37.343,14.5
37.359,11.63
37.375,10.16
37.390,10.8
37.406,13.47
37.421,17.21
37.437,20.43
37.453,20.93
37.468,16.12
37.484,3.82
37.500,-16.88
37.515,-44.88
37.531,-76.78
37.546,-107.42
37.562,-131.13
37.578,-143.16
37.593,-140.8
37.609,-123.82
37.625,-94.69
37.640,-58.02
37.656,-19.38
37.671,16.51
37.687,47.49
37.703,74.57
37.718,100.73
37.734,128.17
37.750,155.66
37.765,177.32
37.781,184.46
37.796,169.64
37.812,131.5
37.828,76.67
37.843,18.5
37.859,-27.5
37.875,-48.95
37.890,-40.55
37.906,-4.71
37.921,50.13
37.937,112.07
37.953,168.07
37.968,205.55
37.984,214.19
38.000,188.53
38.015,130.27
38.031,48.93
38.046,-40.03
38.062,-119.78
38.078,-177.43
38.093,-207.9
38.109,-214.19
38.125,-204.63
38.140,-188.54
38.156,-172.82
38.171,-160.56
38.187,-151.74
38.203,-145.02
38.218,-138.76
38.234,-131.51
38.250,-121.52
38.265,-106.5
38.281,-84.07
38.296,-53.19
38.312,-15.23
38.328,25.89
38.343,64.7
38.359,96.07
38.375,116.86
38.390,126.59
38.406,127.11
38.421,121.45
38.437,112.64
38.453,102.65
38.468,92.35
38.484,81.99
38.500,72.04
38.515,63.75
38.531,58.79
38.546,58.52
38.562,63.07
38.578,70.69
38.593,77.8
38.609,80.12
38.625,74.46
38.640,59.8
38.656,37.71
38.671,11.32
38.687,-16.33
38.703,-43.53
38.718,-70.28
38.734,-97.74
38.750,-126.63
38.765,-155.81
38.781,-181.84
38.796,-199.77
38.812,-205.5
38.828,-197.94
38.843,-180.0
38.859,-157.47
38.875,-135.98
38.890,-118.17
38.906,-102.52
38.921,-85.06
38.937,-62.11
38.953,-33.04
38.968,-0.79
38.984,29.93
39.000,55.13
39.015,73.42
39.031,85.67
39.046,93.55
39.062,98.08
39.078,99.55
39.093,97.86
39.109,93.32
39.125,87.0
39.140,80.17
39.156,73.96
39.171,69.53
39.187,68.22
39.203,71.37
39.218,79.85
39.234,92.45
39.250,105.64
39.265,114.59
39.281,115.11
39.296,105.31
39.312,85.92
39.328,59.47
39.343,28.16
39.359,-7.12
39.375,-46.76
39.390,-90.97
39.406,-137.94
39.421,-183.03
39.437,-219.34
39.453,-240.15
39.468,-241.6
39.484,-224.66
39.500,-195.18
39.515,-161.57
39.531,-131.29
39.546,-107.86
39.562,-89.7
39.578,-71.3
39.593,-46.96
39.609,-14.31
39.625,24.02
39.640,62.01
39.656,93.75
39.671,116.97
39.687,133.72
39.703,148.02
39.718,162.59
39.734,175.99
39.750,183.05
39.765,177.68
39.781,156.82
39.796,122.84
39.812,83.07
39.828,47.12
39.843,22.61
39.859,12.89
39.875,16.34
39.890,28.4
39.906,43.87
39.921,58.34
39.937,68.92
39.953,73.66
39.968,70.8
39.984,58.66
40.000,36.2
40.015,4.03
40.031,-34.48
40.046,-73.11
40.062,-104.31
40.078,-121.63
40.093,-122.52
40.109,-109.66
40.125,-90.39
40.140,-73.65
40.156,-66.15
40.171,-69.42
40.187,-79.47
40.203,-89.23
40.218,-92.02
40.234,-84.56
40.250,-67.66
40.265,-44.97
40.281,-20.58
40.296,2.8
40.312,24.57
40.328,45.23
40.343,65.12
40.359,83.78
40.375,99.9
40.390,112.04
40.406,119.49
40.421,122.25
40.437,120.5
40.453,114.26
40.468,103.04
40.484,86.51
40.500,65.36
40.515,41.49
40.531,17.36
40.546,-4.96
40.562,-24.38
40.578,-40.84
40.593,-54.49
40.609,-65.12
40.625,-72.17
40.640,-75.66
40.656,-76.71
40.671,-77.33
40.687,-79.19
40.703,-82.17
40.718,-84.26
40.734,-82.52
40.750,-74.98
40.765,-62.02
40.781,-46.75
40.796,-33.52
40.812,-25.88
40.828,-25.21
40.843,-30.44
40.859,-38.7
40.875,-46.44
40.890,-50.27
40.906,-47.38
40.921,-36.15
40.937,-16.18
40.953,11.21
40.968,42.83
40.984,74.01
41.000,99.93
41.015,117.29
41.031,125.34
41.046,125.88
41.062,121.78
41.078,115.32
41.093,107.33
41.109,97.32
41.125,84.98
41.140,71.41
41.156,59.53
41.171,52.78
41.187,53.34
41.203,60.49
41.218,70.8
41.234,79.52
41.250,82.83
41.265,79.47
41.281,70.68
41.296,58.86
41.312,45.96
41.328,32.59
41.343,18.28
41.359,2.76
41.375,-13.27
41.390,-28.45
41.406,-41.55
41.421,-52.8
41.437,-63.74
41.453,-76.08
41.468,-90.0
41.484,-103.36
41.500,-112.42
41.515,-113.8
41.531,-106.68
41.546,-93.34
41.562,-78.27
41.578,-65.96
41.593,-58.89
41.609,-56.98
41.625,-58.38
41.640,-60.87
41.656,-62.79
41.671,-63.51
41.687,-63.11
41.703,-62.32
41.718,-61.74
41.734,-61.31
41.750,-60.03
41.765,-55.96
41.781,-47.01
41.796,-32.0
41.812,-11.79
41.828,10.74
41.843,31.61
41.859,47.96
41.875,59.51
41.890,68.64
41.906,79.02
41.921,93.58
41.937,113.33
41.953,137.1
41.968,162.56
41.984,186.89
42.000,207.29
42.015,220.82
42.031,224.67
42.046,216.77
42.062,196.89
42.078,167.29
42.093,132.12
42.109,96.02
42.125,62.33
42.140,32.27
42.156,5.38
42.171,-19.45
42.187,-43.16
42.203,-66.36
42.218,-89.54
42.234,-113.05
42.250,-136.51
42.265,-158.26
42.281,-175.62
42.296,-185.77
42.312,-187.24
42.328,-180.83
42.343,-169.23
42.359,-155.6
42.375,-141.9
42.390,-128.16
42.406,-113.29
42.421,-96.56
42.437,-78.65
42.453,-61.64
42.468,-47.73
42.484,-37.92
42.500,-31.48
42.515,-26.57
42.531,-21.59
42.546,-16.24
42.562,-11.69
42.578,-9.55
42.593,-10.74
42.609,-14.6
42.625,-18.88
42.640,-20.92
42.656,-18.77
42.671,-12.07
42.687,-2.22
42.703,8.45
42.718,17.78
42.734,24.72
42.750,29.54
42.765,33.47
42.781,37.7
42.796,42.69
42.812,47.93
42.828,52.26
42.843,54.69
42.859,54.9
42.875,53.55
42.890,51.9
42.906,51.22
42.921,51.76
42.937,52.41
42.953,51.1
42.968,45.63
42.984,35.16
43.000,20.75
43.015,5.32
43.031,-7.79
43.046,-16.19
43.062,-19.36
43.078,-18.59
43.093,-15.8
43.109,-12.62
43.125,-9.8
43.140,-7.56
43.156,-6.07
43.171,-5.88
43.187,-7.41
43.203,-10.42
43.218,-13.7
43.234,-15.54
43.250,-14.79
43.265,-11.65
43.281,-7.68
43.296,-5.05
43.312,-5.3
43.328,-8.87
43.343,-15.21
43.359,-23.55
43.375,-33.4
43.390,-44.52
43.406,-56.28
43.421,-66.97
43.437,-73.99
43.453,-74.73
43.468,-67.93
43.484,-54.41
43.500,-36.74
43.515,-17.74
43.531,0.8
43.546,18.82
43.562,37.54
43.578,58.23
43.593,81.03
43.609,104.61
43.625,126.59
43.640,144.38
43.656,156.04
43.671,160.57
43.687,157.86
43.703,148.37
43.718,132.88
43.734,112.42
43.750,88.37
43.765,62.51
43.781,36.99
43.796,14.03
43.812,-4.76
43.828,-18.74
43.843,-28.85
43.859,-37.2
43.875,-46.13
43.890,-57.02
43.906,-69.28
43.921,-80.55
43.937,-87.71
43.953,-88.48
43.968,-82.42
43.984,-71.19
44.000,-57.58
44.015,-44.33
44.031,-33.07
44.046,-24.11
44.062,-16.87
44.078,-10.62
44.093,-4.99
44.109,0.03
44.125,4.32
44.140,8.11
44.156,11.94
44.171,16.43
44.187,21.83
44.203,27.76
44.218,33.21
44.234,36.79
44.250,37.3
44.265,34.24
44.281,28.17
44.296,20.76
44.312,14.0
44.328,9.56
44.343,8.15
44.359,9.32
44.375,11.87
44.390,14.43
44.406,16.02
44.421,16.21
44.437,15.07
44.453,13.07
44.468,11.13
44.484,10.65
44.500,13.2
44.515,19.9
44.531,30.45
44.546,42.56
44.562,52.15
44.578,54.48
44.593,46.03
44.609,26.13
44.625,-2.62
44.640,-34.91
44.656,-64.35
44.671,-85.01
44.687,-92.83
44.703,-86.56
44.718,-68.11
44.734,-42.31
44.750,-15.95
44.765,3.81
44.781,11.48
44.796,4.73
44.812,-14.76
44.828,-41.86
44.843,-69.73
44.859,-91.98
44.875,-104.43
44.890,-105.9
44.906,-97.63
44.921,-82.37
44.937,-63.35
44.953,-43.39
44.968,-24.5
44.984,-7.5
45.000,8.11
45.015,23.77
45.031,40.79
45.046,59.39
45.062,78.22
45.078,94.6
45.093,105.78
45.109,109.95
45.125,106.8
45.140,97.43
45.156,83.48
45.171,66.54
45.187,48.13
45.203,30.07
45.218,14.31
45.234,2.33
45.250,-5.95
45.265,-12.62
45.281,-20.71
45.296,-32.31
45.312,-46.69
45.328,-60.24
45.343,-67.95
45.359,-66.52
45.375,-56.35
45.390,-41.86
45.406,-29.2
45.421,-23.1
45.437,-24.54
45.453,-30.11
45.468,-34.06
45.484,-31.15
45.500,-19.16
45.515,0.55
45.531,24.15
45.546,47.34
45.562,67.16
45.578,82.34
45.593,92.92
45.609,99.02
45.625,100.15
45.640,95.2
45.656,83.28
45.671,64.62
45.687,40.86
45.703,14.85
45.718,-10.39
45.734,-32.66
45.750,-51.3
45.765,-67.03
45.781,-81.37
45.796,-95.78
45.812,-110.7
45.828,-125.21
45.843,-137.0
45.859,-143.15
45.875,-140.83
45.890,-128.47
45.906,-106.29
45.921,-76.51
45.937,-42.91
45.953,-9.69
45.968,19.63
45.984,43.29
46.000,61.45
46.015,75.62
46.031,87.43
46.046,97.48
46.062,104.89
46.078,107.57
46.093,103.46
46.109,91.63
46.125,72.78
46.140,48.73
46.156,21.71
46.171,-6.43
46.187,-34.06
46.203,-59.5
46.218,-80.54
46.234,-94.56
46.250,-99.48
46.265,-94.52
46.281,-80.47
46.296,-59.26
46.312,-33.2
46.328,-4.51
46.343,24.36
46.359,50.33
46.375,70.02
46.390,80.79
46.406,82.23
46.421,77.01
46.437,70.53
46.453,68.83
46.468,75.74
46.484,90.81
46.500,108.88
46.515,122.02
46.531,122.83
46.546,107.46
46.562,77.05
46.578,37.29
46.593,-3.71
46.609,-38.17
46.625,-61.29
46.640,-72.71
46.656,-76.38
46.671,-78.41
46.687,-83.97
46.703,-94.8
46.718,-108.18
46.734,-118.72
46.750,-121.52
46.765,-115.15
46.781,-102.71
46.796,-90.26
46.812,-83.47
46.828,-84.21
46.843,-89.54
46.859,-93.19
46.875,-89.13
46.890,-74.86
46.906,-52.57
46.921,-27.83
46.937,-6.42
46.953,8.39
46.968,17.32
46.984,24.08
47.000,33.23
47.015,47.36
47.031,65.56
47.046,83.86
47.062,97.12
47.078,101.63
47.093,96.56
47.109,83.98
47.125,67.29
47.140,49.5
47.156,31.96
47.171,14.51
47.187,-2.93
47.203,-19.16
47.218,-31.23
47.234,-36.03
47.250,-32.71
47.265,-24.59
47.281,-18.47
47.296,-21.6
47.312,-37.43
47.328,-62.74
47.343,-88.63
47.359,-104.36
47.375,-102.3
47.390,-81.05
47.406,-45.28
47.421,-2.55
47.437,40.41
47.453,79.75
47.468,114.12
47.484,142.57
47.500,162.96
47.515,172.26
47.531,168.16
47.546,150.95
47.562,124.08
47.578,93.06
47.593,63.18
47.609,37.5
47.625,16.15
47.640,-2.77
47.656,-21.28
47.671,-40.19
47.687,-58.44
47.703,-73.78
47.718,-83.89
47.734,-87.6
47.750,-85.34
47.765,-78.91
47.781,-70.83
47.796,-63.26
47.812,-57.33
47.828,-52.71
47.843,-48.07
47.859,-41.56
47.875,-31.85
47.890,-18.86
47.906,-4.12
47.921,9.3
47.937,17.66
47.953,17.73
47.968,8.27
47.984,-9.18
48.000,-30.26
48.015,-49.01
48.031,-60.0
48.046,-60.5
48.062,-51.41
48.078,-36.51
48.093,-20.33
48.109,-6.23
48.125,4.36
48.140,11.74
48.156,16.9
48.171,20.82
48.187,24.29
48.203,28.25
48.218,33.97
48.234,42.78
48.250,55.32
48.265,70.81
48.281,87.22
48.296,101.97
48.312,113.11
48.328,120.0
48.343,123.14
48.359,123.08
48.375,119.35
48.390,110.14
48.406,92.99
48.421,66.33
48.437,30.99
48.453,-9.01
48.468,-47.09
48.484,-76.01
48.500,-90.58
48.515,-89.58
48.531,-76.07
48.546,-56.03
48.562,-35.9
48.578,-20.51
48.593,-11.94
48.609,-9.66
48.625,-11.58
48.640,-15.19
48.656,-18.58
48.671,-20.49
48.687,-20.2
48.703,-17.28
48.718,-11.56
48.734,-3.28
48.750,6.74
48.765,17.07
48.781,25.97
48.796,31.65
48.812,32.72
48.828,28.51
48.843,19.33
48.859,6.59
48.875,-7.47
48.890,-20.38
48.906,-30.31
48.921,-36.76
48.937,-40.83
48.953,-44.55
48.968,-49.76
48.984,-56.71
49.000,-63.6
49.015,-67.1
49.031,-64.08
49.046,-53.15
49.062,-35.36
49.078,-13.77
49.093,8.06
49.109,27.36
49.125,42.62
49.140,53.24
49.156,59.01
49.171,60.05
49.187,57.24
49.203,52.48
49.218,48.17
49.234,46.44
49.250,48.28
49.265,53.5
49.281,61.44
49.296,71.93
49.312,85.29
49.328,101.66
49.343,119.69
49.359,136.07
49.375,146.42
49.390,146.97
49.406,136.16
49.421,115.07
49.437,86.7
49.453,54.43
49.468,21.0
49.484,-11.94
49.500,-43.48
49.515,-72.84
49.531,-99.09
49.546,-121.16
49.562,-138.0
49.578,-149.02
49.593,-154.42
49.609,-154.99
49.625,-151.83
49.640,-145.95
49.656,-137.93
49.671,-127.87
49.687,-115.72
49.703,-101.26
49.718,-83.98
49.734,-62.84
49.750,-36.44
49.765,-4.17
49.781,32.34
49.796,68.15
49.812,95.86
49.828,108.37
49.843,102.42
49.859,80.88
49.875,52.12
49.890,26.25
49.906,10.19
49.921,4.6
49.937,4.33
49.953,1.94
49.968,-7.46
49.984,-23.49
50.000,-41.16
50.015,-54.13
50.031,-58.27
50.046,-53.53
50.062,-42.93
50.078,-29.79
50.093,-15.24
50.109,2.36
50.125,25.71
50.140,55.89
50.156,90.15
50.171,122.18
50.187,144.07
50.203,149.41
50.218,135.91
50.234,106.52
50.250,68.94
50.265,33.18
50.281,8.59
50.296,0.68
50.312,9.42
50.328,29.33
50.343,51.52
50.359,66.9
50.375,69.55
50.390,58.54
50.406,37.58
50.421,12.73
50.437,-10.73
50.453,-30.45
50.468,-47.08
50.484,-62.76
50.500,-78.84
50.515,-94.53
50.531,-106.98
50.546,-112.53
50.562,-108.47
50.578,-94.37
50.593,-72.56
50.609,-47.61
50.625,-24.89
50.640,-8.58
50.656,-0.19
50.671,2.2
50.687,2.88
50.703,6.46
50.718,15.55
50.734,29.89
50.750,47.15
50.765,64.48
50.781,79.81
50.796,91.58
50.812,97.72
50.828,95.02
50.843,80.11
50.859,51.62
50.875,12.59
50.890,-29.3
50.906,-64.6
50.921,-86.23
50.937,-92.92
50.953,-89.68
50.968,-84.75
50.984,-84.93
51.000,-92.26
51.015,-103.54
51.031,-112.54
51.046,-113.61
51.062,-104.29
51.078,-85.9
51.093,-61.96
51.109,-35.92
51.125,-9.54
51.140,17.11
51.156,44.06
51.171,69.72
51.187,90.41
51.203,101.79
51.218,101.53
51.234,91.48
51.250,77.6
51.265,67.64
51.281,67.62
51.296,78.96
51.312,97.8
51.328,117.01
51.343,129.33
51.359,130.24
51.375,119.42
51.390,100.26
51.406,78.25
51.421,58.73
51.437,44.97
51.453,37.24
51.468,33.16
51.484,29.32
51.500,22.76
51.515,11.98
51.531,-3.37
51.546,-23.19
51.562,-47.57
51.578,-76.05
51.593,-106.46
51.609,-134.37
51.625,-153.83
51.640,-159.98
51.656,-152.1
51.671,-134.91
51.687,-117.15
51.703,-107.42
51.718,-109.42
51.734,-119.33
51.750,-127.34
51.765,-122.28
51.781,-96.93
51.796,-51.45
51.812,6.78
51.828,66.29
51.843,115.55
51.859,146.28
51.875,154.89
51.890,142.37
51.906,113.18
51.921,73.89
51.937,31.61
51.953,-7.77
51.968,-40.92
51.984,-67.45
52.000,-89.13
52.015,-107.99
52.031,-124.62
52.046,-137.6
52.062,-144.57
52.078,-143.77
52.093,-134.87
52.109,-119.12
52.125,-98.21
52.140,-73.71
52.156,-47.1
52.171,-20.11
52.187,5.05
52.203,26.27
52.218,42.5
52.234,54.6
52.250,65.04
52.265,76.6
52.281,90.82
52.296,107.1
52.312,122.97
52.328,135.26
52.343,141.28
52.359,139.81
52.375,130.97
52.390,115.99
52.406,96.76
52.421,75.48
52.437,54.62
52.453,36.81
52.468,24.36
52.484,18.62
52.500,19.31
52.515,23.76
52.531,27.76
52.546,26.79
52.562,17.77
52.578,-0.11
52.593,-25.13
52.609,-53.8
52.625,-81.92
52.640,-105.73
52.656,-122.91
52.671,-133.17
52.687,-138.39
52.703,-141.54
52.718,-144.76
52.734,-147.43
52.750,-145.54
52.765,-133.32
52.781,-106.5
52.796,-65.46
52.812,-15.76
52.828,34.04
52.843,76.19
52.859,106.72
52.875,125.57
52.890,134.47
52.906,134.27
52.921,124.11
52.937,102.7
52.953,70.87
52.968,32.88
52.984,-4.45
53.000,-34.51
53.015,-53.88
53.031,-63.2
53.046,-65.88
53.062,-65.54
53.078,-64.17
53.093,-61.48
53.109,-55.65
53.125,-44.89
53.140,-28.7
53.156,-8.47
53.171,12.81
53.187,31.73
53.203,45.79
53.218,53.97
53.234,56.65
53.250,54.71
53.265,48.63
53.281,38.37
53.296,23.88
53.312,6.08
53.328,-12.73
53.343,-29.21
53.359,-40.45
53.375,-45.32
53.390,-44.85
53.406,-41.6
53.421,-37.86
53.437,-34.29
53.453,-29.75
53.468,-22.55
53.484,-12.14
53.500,-0.34
53.515,9.08
53.531,12.11
53.546,6.58
53.562,-6.32
53.578,-22.29
53.593,-35.57
53.609,-41.61
53.625,-39.13
53.640,-31.16
53.656,-23.64
53.671,-22.64
53.687,-31.3
53.703,-47.82
53.718,-66.19
53.734,-78.72
53.750,-79.64
53.765,-67.48
53.781,-45.49
53.796,-19.79
53.812,3.68
53.828,21.31
53.843,32.59
53.859,39.01
53.875,42.28
53.890,43.18
53.906,41.56
53.921,37.12
53.937,30.21
53.953,22.25
53.968,15.12
53.984,10.35
54.000,8.22
54.015,7.3
54.031,5.28
54.046,0.45
54.062,-7.14
54.078,-15.4
54.093,-21.11
54.109,-21.62
54.125,-16.23
54.140,-6.84
54.156,2.82
54.171,8.96
54.187,9.71
54.203,6.14
54.218,1.77
54.234,0.9
54.250,6.46
54.265,18.71
54.281,35.18
54.296,51.74
54.312,64.38
54.328,70.62
54.343,69.95
54.359,63.57
54.375,53.42
54.390,41.36
54.406,28.9
54.421,17.55
54.437,8.95
54.453,4.5
54.468,4.84
54.484,8.89
54.500,14.01
54.515,16.66
54.531,13.74
54.546,4.07
54.562,-10.78
54.578,-27.03
54.593,-40.02
54.609,-46.18
54.625,-44.56
54.640,-37.36
54.656,-29.09
54.671,-24.52
54.687,-26.45
54.703,-34.23
54.718,-43.98
54.734,-50.2
54.750,-48.41
54.765,-37.08
54.781,-18.32
54.796,3.32
54.812,22.96
54.828,37.4
54.843,45.94
54.859,49.6
54.875,49.85
54.890,47.2
54.906,41.18
54.921,31.03
54.937,16.96
54.953,0.39
54.968,-16.47
54.984,-31.79
55.000,-44.98
55.015,-56.69
55.031,-68.1
55.046,-79.81
55.062,-91.28
55.078,-101.07
55.093,-107.52
55.109,-109.6
55.125,-107.01
55.140,-99.6
55.156,-86.81
55.171,-67.41
55.187,-40.36
55.203,-6.01
55.218,33.0
55.234,71.96
55.250,105.63
55.265,130.01
55.281,143.68
55.296,147.76
55.312,144.82
55.328,137.44
55.343,127.19
55.359,114.43
55.375,98.76
55.390,79.77
55.406,57.62
55.421,33.1
55.437,7.55
55.453,-17.35
55.468,-39.83
55.484,-58.29
55.500,-71.68
55.515,-79.87
55.531,-83.75
55.546,-84.99
55.562,-85.4
55.578,-86.15
55.593,-87.3
55.609,-87.67
55.625,-85.27
55.640,-78.0
55.656,-64.49
55.671,-44.8
55.687,-20.54
55.703,5.51
55.718,30.32
55.734,51.59
55.750,68.34
55.765,80.87
55.781,90.24
55.796,97.32
55.812,102.26
55.828,104.48
55.843,103.36
55.859,98.83
55.875,91.68
55.890,83.17
55.906,74.45
55.921,65.78
55.937,56.44
55.953,45.25
55.968,31.27
55.984,14.35
56.000,-4.69
56.015,-24.3
56.031,-42.82
56.046,-58.83
56.062,-71.57
56.078,-81.02
56.093,-87.73
56.109,-92.42
56.125,-95.52
56.140,-96.85
56.156,-95.54
56.171,-90.58
56.187,-81.24
56.203,-67.71
56.218,-51.13
56.234,-33.19
56.250,-15.48
56.265,1.13
56.281,16.7
56.296,31.83
56.312,46.97
56.328,61.76
56.343,74.81
56.359,84.17
56.375,88.22
56.390,86.47
56.406,79.99
56.421,71.23
56.437,63.04
56.453,57.48
56.468,55.01
56.484,54.11
56.500,52.06
56.515,46.29
56.531,35.41
56.546,19.85
56.562,1.55
56.578,-17.02
56.593,-34.05
56.609,-48.79
56.625,-61.51
56.640,-72.75
56.656,-82.78
56.671,-91.68
56.687,-99.64
56.703,-107.15
56.718,-114.2
56.734,-119.06
56.750,-117.64
56.765,-104.64
56.781,-76.07
56.796,-32.27
56.812,20.73
56.828,72.68
56.843,112.7
56.859,133.67
56.875,134.61
56.890,120.22
56.906,97.9
56.921,74.38
56.937,53.56
56.953,36.26
56.968,21.65
56.984,8.55
57.000,-3.4
57.015,-13.84
57.031,-22.23
57.046,-28.5
57.062,-33.05
57.078,-36.57
57.093,-39.53
57.109,-41.91
57.125,-43.57
57.140,-44.82
57.156,-46.9
57.171,-51.77
57.187,-60.92
57.203,-73.79
57.218,-86.82
57.234,-94.25
57.250,-90.17
57.265,-71.41
57.281,-39.23
57.296,0.74
57.312,40.63
57.328,73.21
57.343,94.17
57.359,102.84
57.375,101.31
57.390,92.8
57.406,80.3
57.421,66.16
57.437,52.19
57.453,39.94
57.468,30.96
57.484,26.32
57.500,26.32
57.515,30.26
57.531,36.44
57.546,42.59
57.562,46.49
57.578,46.78
57.593,43.27
57.609,37.18
57.625,30.43
57.640,24.68
57.656,20.48
57.671,17.09
57.687,12.84
57.703,6.02
57.718,-4.19
57.734,-17.38
57.750,-32.06
57.765,-46.26
57.781,-58.12
57.796,-66.38
57.812,-70.52
57.828,-70.84
57.843,-68.45
57.859,-64.96
57.875,-61.94
57.890,-60.12
57.906,-58.97
57.921,-56.69
57.937,-51.01
57.953,-40.34
57.968,-24.74
57.984,-6.05
58.000,12.7
58.015,28.41
58.031,39.04
58.046,43.91
58.062,43.75
58.078,40.19
58.093,35.08
58.109,29.97
58.125,25.81
58.140,22.83
58.156,20.63
58.171,18.57
58.187,15.98
58.203,12.28
58.218,7.35
58.234,1.42
58.250,-4.91
58.265,-10.69
58.281,-14.87
58.296,-16.86
58.312,-17.04
58.328,-17.05
58.343,-19.22
58.359,-25.15
58.375,-34.44
58.390,-44.31
58.406,-50.5
58.421,-49.13
58.437,-38.4
58.453,-19.36
58.468,4.55
58.484,28.69
58.500,48.85
58.515,61.86
58.531,66.18
58.546,61.63
58.562,49.3
58.578,31.43
58.593,11.24
58.609,-7.57
58.625,-21.67
58.640,-28.57
58.656,-27.16
58.671,-17.59
58.687,-1.39
58.703,18.27
58.718,36.79
58.734,49.23
58.750,51.76
58.765,43.31
58.781,26.22
58.796,5.29
58.812,-13.93
58.828,-27.37
58.843,-33.85
58.859,-35.15
58.875,-34.66
58.890,-35.46
58.906,-38.71
58.921,-43.12
58.937,-46.0
58.953,-44.76
58.968,-38.39
58.984,-27.98
59.000,-15.98
59.015,-4.94
59.031,3.82
59.046,10.57
59.062,16.56
59.078,22.75
59.093,28.95
59.109,33.79
59.125,35.61
59.140,33.68
59.156,28.83
59.171,23.16
59.187,19.07
59.203,18.15
59.218,20.46
59.234,24.64
59.250,28.57
59.265,30.36
59.281,29.24
59.296,25.96
59.312,22.52
59.328,21.29
59.343,24.0
59.359,31.0
59.375,41.2
59.390,52.65
59.406,63.23
59.421,71.29
59.437,75.9
59.453,76.65
59.468,73.52
59.484,67.13
59.500,59.02
59.515,51.82
59.531,48.42
59.546,50.69
59.562,58.12
59.578,67.78
59.593,75.55
59.609,78.1
59.625,74.33
59.640,65.34
59.656,53.11
59.671,38.9
59.687,22.56
59.703,3.33
59.718,-18.64
59.734,-41.28
59.750,-60.82
59.765,-73.47
59.781,-77.34
59.796,-73.37
59.812,-64.71
59.828,-54.91
59.843,-46.34
59.859,-39.47
59.875,-33.15
59.890,-25.69
59.906,-16.13
59.921,-5.12
59.937,5.08
59.953,11.5
59.968,11.81
59.984,5.43
