timestamp,value
00.000,87.49
00.015,84.25
00.031,80.55
00.046,77.06
00.062,74.15
00.078,71.9
00.093,70.05
00.109,68.24
00.125,66.14
00.140,63.54
00.156,60.35
00.171,56.54
00.187,52.13
00.203,47.13
00.218,41.56
00.234,35.48
00.250,29.0
00.265,22.34
00.281,15.72
00.296,9.34
00.312,3.25
00.328,-2.62
00.343,-8.5
00.359,-14.65
00.375,-21.25
00.390,-28.3
00.406,-35.62
00.421,-42.94
00.437,-50.03
00.453,-56.76
00.468,-63.17
00.484,-69.46
00.500,-75.89
00.515,-82.81
00.531,-90.49
00.546,-98.96
00.562,-107.85
00.578,-116.24
00.593,-122.71
00.609,-125.66
00.625,-123.75
00.640,-116.3
00.656,-103.57
00.671,-86.68
00.687,-67.25
00.703,-46.98
00.718,-27.18
00.734,-8.69
00.750,8.1
00.765,23.1
00.781,36.38
00.796,48.03
00.812,58.24
00.828,67.19
00.843,75.0
00.859,81.64
00.875,86.92
00.890,90.53
00.906,92.2
00.921,91.86
00.937,89.71
00.953,86.27
00.968,82.2
00.984,78.15
01.000,74.61
01.015,71.82
01.031,69.75
01.046,68.12
01.062,66.57
01.078,64.72
01.093,62.33
01.109,59.3
01.125,55.66
01.140,51.44
01.156,46.71
01.171,41.48
01.187,35.74
01.203,29.56
01.218,23.06
01.234,16.47
01.250,9.99
01.265,3.71
01.281,-2.43
01.296,-8.58
01.312,-14.91
01.328,-21.53
01.343,-28.4
01.359,-35.4
01.375,-42.34
01.390,-49.08
01.406,-55.55
01.421,-61.79
01.437,-68.0
01.453,-74.47
01.468,-81.59
01.484,-89.62
01.500,-98.49
01.515,-107.58
01.531,-115.66
01.546,-121.08
01.562,-122.2
01.578,-117.87
01.593,-107.85
01.609,-92.89
01.625,-74.48
01.640,-54.44
01.656,-34.47
01.671,-15.78
01.687,0.99
01.703,15.64
01.718,28.32
01.734,39.3
01.750,48.92
01.765,57.5
01.781,65.25
01.796,72.16
01.812,78.1
01.828,82.7
01.843,85.54
01.859,86.33
01.875,85.07
01.890,82.07
01.906,77.94
01.921,73.36
01.937,68.94
01.953,65.11
01.968,62.04
01.984,59.73
02.000,58.04
02.015,56.75
02.031,55.53
02.046,54.0
02.062,51.72
02.078,48.42
02.093,43.97
02.109,38.56
02.125,32.5
02.140,26.16
02.156,19.76
02.171,13.36
02.187,6.87
02.203,0.13
02.218,-6.95
02.234,-14.37
02.250,-22.02
02.265,-29.7
02.281,-37.21
02.296,-44.37
02.312,-51.09
02.328,-57.36
02.343,-63.31
02.359,-69.22
02.375,-75.46
02.390,-82.43
02.406,-90.27
02.421,-98.74
02.437,-107.04
02.453,-113.84
02.468,-117.56
02.484,-116.75
02.500,-110.6
02.515,-99.2
02.531,-83.51
02.546,-65.11
02.562,-45.75
02.578,-26.92
02.593,-9.62
02.609,5.72
02.625,19.05
02.640,30.56
02.656,40.52
02.671,49.24
02.687,56.96
02.703,63.84
02.718,69.83
02.734,74.62
02.750,77.81
02.765,79.02
02.781,78.13
02.796,75.42
02.812,71.51
02.828,67.19
02.843,63.12
02.859,59.7
02.875,56.98
02.890,54.8
02.906,52.9
02.921,51.12
02.937,49.32
02.953,47.34
02.968,44.98
02.984,41.96
03.000,38.09
03.015,33.3
03.031,27.76
03.046,21.76
03.062,15.66
03.078,9.72
03.093,3.95
03.109,-1.84
03.125,-7.92
03.140,-14.54
03.156,-21.73
03.171,-29.32
03.187,-37.0
03.203,-44.42
03.218,-51.31
03.234,-57.64
03.250,-63.6
03.265,-69.51
03.281,-75.77
03.296,-82.71
03.312,-90.47
03.328,-98.75
03.343,-106.73
03.359,-113.06
03.375,-116.16
03.390,-114.68
03.406,-107.86
03.421,-95.96
03.437,-80.01
03.453,-61.66
03.468,-42.59
03.484,-24.19
03.500,-7.28
03.515,7.77
03.531,20.95
03.546,32.44
03.562,42.4
03.578,51.06
03.593,58.6
03.609,65.14
03.625,70.7
03.640,75.12
03.656,78.12
03.671,79.44
03.687,78.93
03.703,76.7
03.718,73.25
03.734,69.25
03.750,65.36
03.765,62.1
03.781,59.63
03.796,57.84
03.812,56.44
03.828,55.09
03.843,53.49
03.859,51.53
03.875,49.07
03.890,46.02
03.906,42.31
03.921,37.87
03.937,32.71
03.953,27.0
03.968,20.95
03.984,14.77
04.000,8.66
04.015,2.64
04.031,-3.37
04.046,-9.49
04.062,-15.85
04.078,-22.53
04.093,-29.48
04.109,-36.55
04.125,-43.57
04.140,-50.34
04.156,-56.77
04.171,-62.88
04.187,-68.92
04.203,-75.27
04.218,-82.3
04.234,-90.21
04.250,-98.73
04.265,-107.07
04.281,-113.89
04.296,-117.6
04.312,-116.72
04.328,-110.44
04.343,-98.87
04.359,-83.01
04.375,-64.51
04.390,-45.17
04.406,-26.47
04.421,-9.36
04.437,5.79
04.453,19.02
04.468,30.61
04.484,40.89
04.500,50.16
04.515,58.64
04.531,66.38
04.546,73.22
04.562,78.85
04.578,82.82
04.593,84.7
04.609,84.4
04.625,82.13
04.640,78.47
04.656,74.19
04.671,70.05
04.687,66.58
04.703,63.96
04.718,62.07
04.734,60.53
04.750,58.98
04.765,57.06
04.781,54.54
04.796,51.28
04.812,47.29
04.828,42.65
04.843,37.56
04.859,32.24
04.875,26.88
04.890,21.6
04.906,16.39
04.921,11.13
04.937,5.67
04.953,-0.1
04.968,-6.27
04.984,-12.85
05.000,-19.78
05.015,-26.99
05.031,-34.32
05.046,-41.61
05.062,-48.66
05.078,-55.32
05.093,-61.57
05.109,-67.54
05.125,-73.53
05.140,-79.92
05.156,-87.06
05.171,-95.03
05.187,-103.44
05.203,-111.33
05.218,-117.24
05.234,-119.58
05.250,-117.04
05.265,-109.07
05.281,-96.05
05.296,-79.25
05.312,-60.37
05.328,-41.08
05.343,-22.62
05.359,-5.7
05.375,9.4
05.390,22.66
05.406,34.19
05.421,44.18
05.437,52.93
05.453,60.74
05.468,67.82
05.484,74.08
05.500,79.15
05.515,82.49
05.531,83.68
05.546,82.64
05.562,79.77
05.578,75.79
05.593,71.55
05.609,67.71
05.625,64.59
05.640,62.22
05.656,60.44
05.671,59.02
05.687,57.69
05.703,56.22
05.718,54.4
05.734,52.04
05.750,49.01
05.765,45.29
05.781,40.95
05.796,36.13
05.812,30.9
05.828,25.3
05.843,19.37
05.859,13.15
05.875,6.73
05.890,0.17
05.906,-6.49
05.921,-13.27
05.937,-20.2
05.953,-27.3
05.968,-34.46
05.984,-41.46
06.000,-48.13
06.015,-54.37
06.031,-60.27
06.046,-66.1
06.062,-72.17
06.078,-78.75
06.093,-86.01
06.109,-93.89
06.125,-102.04
06.140,-109.68
06.156,-115.66
06.171,-118.56
06.187,-117.11
06.203,-110.52
06.218,-98.87
06.234,-83.13
06.250,-64.87
06.265,-45.84
06.281,-27.47
06.296,-10.61
06.312,4.49
06.328,17.9
06.343,29.81
06.359,40.37
06.375,49.58
06.390,57.46
06.406,64.08
06.421,69.53
06.437,73.86
06.453,76.97
06.468,78.65
06.484,78.72
06.500,77.14
06.515,74.21
06.531,70.46
06.546,66.59
06.562,63.18
06.578,60.56
06.593,58.76
06.609,57.53
06.625,56.52
06.640,55.37
06.656,53.74
06.671,51.38
06.687,48.15
06.703,44.01
06.718,39.06
06.734,33.51
06.750,27.56
06.765,21.43
06.781,15.2
06.796,8.83
06.812,2.25
06.828,-4.6
06.843,-11.72
06.859,-18.98
06.875,-26.21
06.890,-33.3
06.906,-40.17
06.921,-46.84
06.937,-53.34
06.953,-59.67
06.968,-65.93
06.984,-72.28
07.000,-79.01
07.015,-86.4
07.031,-94.47
07.046,-102.74
07.062,-110.09
07.078,-114.96
07.093,-115.72
07.109,-111.31
07.125,-101.58
07.140,-87.42
07.156,-70.34
07.171,-52.11
07.187,-34.12
07.203,-17.27
07.218,-1.94
07.234,11.82
07.250,24.02
07.265,34.66
07.281,43.77
07.296,51.43
07.312,57.8
07.328,63.02
07.343,67.15
07.359,70.08
07.375,71.62
07.390,71.64
07.406,70.17
07.421,67.53
07.437,64.18
07.453,60.71
07.468,57.6
07.484,55.15
07.500,53.44
07.515,52.33
07.531,51.53
07.546,50.65
07.562,49.33
07.578,47.2
07.593,44.07
07.609,39.89
07.625,34.82
07.640,29.15
07.656,23.21
07.671,17.24
07.687,11.33
07.703,5.4
07.718,-0.76
07.734,-7.27
07.750,-14.19
07.765,-21.35
07.781,-28.47
07.796,-35.34
07.812,-41.85
07.828,-48.07
07.843,-54.2
07.859,-60.46
07.875,-67.08
07.890,-74.27
07.906,-82.2
07.921,-90.87
07.937,-99.95
07.953,-108.56
07.968,-115.31
07.984,-118.58
08.000,-116.97
08.015,-109.78
08.031,-97.36
08.046,-80.96
08.062,-62.32
08.078,-43.23
08.093,-24.96
08.109,-8.22
08.125,6.84
08.140,20.34
08.156,32.45
08.171,43.25
08.187,52.79
08.203,61.11
08.218,68.2
08.234,74.06
08.250,78.57
08.265,81.53
08.281,82.76
08.296,82.2
08.312,79.98
08.328,76.51
08.343,72.34
08.359,68.07
08.375,64.15
08.390,60.88
08.406,58.28
08.421,56.26
08.437,54.63
08.453,53.1
08.468,51.39
08.484,49.22
08.500,46.37
08.515,42.67
08.531,38.09
08.546,32.69
08.562,26.67
08.578,20.28
08.593,13.78
08.609,7.33
08.625,0.95
08.640,-5.47
08.656,-12.02
08.671,-18.81
08.687,-25.81
08.703,-32.89
08.718,-39.89
08.734,-46.67
08.750,-53.17
08.765,-59.4
08.781,-65.49
08.796,-71.66
08.812,-78.24
08.828,-85.52
08.843,-93.63
08.859,-102.33
08.875,-110.77
08.890,-117.6
08.906,-121.15
08.921,-120.01
08.937,-113.42
08.953,-101.6
08.968,-85.67
08.984,-67.32
09.000,-48.27
09.015,-29.86
09.031,-12.82
09.046,2.58
09.062,16.43
09.078,28.86
09.093,40.02
09.109,50.0
09.125,58.93
09.140,66.81
09.156,73.54
09.171,78.8
09.187,82.17
09.203,83.39
09.218,82.46
09.234,79.86
09.250,76.28
09.265,72.48
09.281,68.96
09.296,65.95
09.312,63.42
09.328,61.2
09.343,59.2
09.359,57.24
09.375,55.24
09.390,53.0
09.406,50.36
09.421,47.14
09.437,43.3
09.453,38.85
09.468,33.84
09.484,28.34
09.500,22.44
09.515,16.25
09.531,9.93
09.546,3.65
09.562,-2.54
09.578,-8.69
09.593,-14.91
09.609,-21.37
09.625,-28.12
09.640,-35.07
09.656,-42.02
09.671,-48.76
09.687,-55.21
09.703,-61.45
09.718,-67.78
09.734,-74.56
09.750,-82.09
09.765,-90.42
09.781,-99.11
09.796,-107.22
09.812,-113.33
09.828,-115.87
09.843,-113.56
09.859,-105.87
09.875,-93.18
09.890,-76.71
09.906,-58.12
09.921,-39.05
09.937,-20.72
09.953,-3.84
09.968,11.34
09.984,24.81
10.000,36.69
10.015,47.18
10.031,56.5
10.046,64.86
10.062,72.32
10.078,78.71
10.093,83.62
10.109,86.57
10.125,87.29
10.140,85.84
10.156,82.68
10.171,78.55
10.187,74.25
10.203,70.42
10.218,67.36
10.234,65.07
10.250,63.35
10.265,61.86
10.281,60.29
10.296,58.41
10.312,56.06
10.328,53.16
10.343,49.67
10.359,45.58
10.375,40.9
10.390,35.66
10.406,29.98
10.421,23.96
10.437,17.75
10.453,11.4
10.468,4.9
10.484,-1.82
10.500,-8.85
10.515,-16.23
10.531,-23.91
10.546,-31.76
10.562,-39.49
10.578,-46.85
10.593,-53.61
10.609,-59.71
10.625,-65.3
10.640,-70.77
10.656,-76.6
10.671,-83.27
10.687,-91.02
10.703,-99.68
10.718,-108.45
10.734,-116.02
10.750,-120.79
10.765,-121.22
10.781,-116.43
10.796,-106.39
10.812,-91.98
10.828,-74.68
10.843,-56.1
10.859,-37.59
10.875,-20.05
10.890,-3.91
10.906,10.71
10.921,23.78
10.937,35.36
10.953,45.59
10.968,54.65
10.984,62.74
11.000,69.9
11.015,75.97
11.031,80.56
11.046,83.22
11.062,83.64
11.078,81.86
11.093,78.33
11.109,73.76
11.125,69.0
11.140,64.71
11.156,61.3
11.171,58.85
11.187,57.13
11.203,55.75
11.218,54.28
11.234,52.32
11.250,49.58
11.265,45.95
11.281,41.49
11.296,36.39
11.312,30.95
11.328,25.36
11.343,19.75
11.359,14.09
11.375,8.17
11.390,1.78
11.406,-5.24
11.421,-12.94
11.437,-21.16
11.453,-29.53
11.468,-37.64
11.484,-45.13
11.500,-51.85
11.515,-57.97
11.531,-63.91
11.546,-70.22
11.562,-77.45
11.578,-85.82
11.593,-94.99
11.609,-104.05
11.625,-111.55
11.640,-115.76
11.656,-115.21
11.671,-109.11
11.687,-97.61
11.703,-81.79
11.718,-63.35
11.734,-44.07
11.750,-25.45
11.765,-8.38
11.781,6.79
11.796,20.08
11.812,31.71
11.828,41.88
11.843,50.71
11.859,58.33
11.875,64.77
11.890,70.0
11.906,73.9
11.921,76.27
11.937,76.93
11.953,75.86
11.968,73.22
11.984,69.46
12.000,65.15
12.015,60.93
12.031,57.33
12.046,54.62
12.062,52.82
12.078,51.64
12.093,50.57
12.109,49.08
12.125,46.69
12.140,43.14
12.156,38.48
12.171,32.99
12.187,27.06
12.203,21.02
12.218,15.01
12.234,8.99
12.250,2.79
12.265,-3.74
12.281,-10.66
12.296,-17.9
12.312,-25.29
12.328,-32.68
12.343,-39.96
12.359,-47.08
12.375,-54.08
12.390,-61.07
12.406,-68.19
12.421,-75.69
12.437,-83.71
12.453,-92.17
12.468,-100.55
12.484,-107.78
12.500,-112.39
12.515,-112.89
12.531,-108.25
12.546,-98.29
12.562,-83.8
12.578,-66.2
12.593,-47.19
12.609,-28.28
12.625,-10.49
12.640,5.64
12.656,19.92
12.671,32.29
12.687,42.89
12.703,51.85
12.718,59.41
12.734,65.88
12.750,71.44
12.765,76.16
12.781,79.87
12.796,82.32
12.812,83.23
12.828,82.55
12.843,80.42
12.859,77.27
12.875,73.65
12.890,70.11
12.906,67.04
12.921,64.6
12.937,62.66
12.953,60.86
12.968,58.78
12.984,56.0
13.000,52.23
13.015,47.39
13.031,41.58
13.046,35.05
13.062,28.09
13.078,20.93
13.093,13.78
13.109,6.7
13.125,-0.33
13.140,-7.36
13.156,-14.46
13.171,-21.69
13.187,-28.97
13.203,-36.19
13.218,-43.14
13.234,-49.69
13.250,-55.8
13.265,-61.58
13.281,-67.35
13.296,-73.48
13.312,-80.4
13.328,-88.33
13.343,-97.08
13.359,-105.85
13.375,-113.34
13.390,-117.86
13.406,-117.89
13.421,-112.51
13.437,-101.67
13.453,-86.3
13.468,-67.95
13.484,-48.38
13.500,-29.03
13.515,-10.92
13.531,5.44
13.546,19.91
13.562,32.53
13.578,43.44
13.593,52.85
13.609,61.0
13.625,68.04
13.640,74.04
13.656,78.87
13.671,82.25
13.687,83.92
13.703,83.74
13.718,81.84
13.734,78.56
13.750,74.46
13.765,70.08
13.781,65.95
13.796,62.41
13.812,59.59
13.828,57.43
13.843,55.62
13.859,53.68
13.875,51.15
13.890,47.65
13.906,43.04
13.921,37.45
13.937,31.23
13.953,24.79
13.968,18.45
13.984,12.33
14.000,6.32
14.015,0.24
14.031,-6.14
14.046,-12.93
14.062,-20.14
14.078,-27.62
14.093,-35.14
14.109,-42.46
14.125,-49.39
14.140,-55.88
14.156,-62.06
14.171,-68.24
14.187,-74.81
14.203,-82.13
14.218,-90.31
14.234,-99.0
14.250,-107.24
14.265,-113.63
14.281,-116.6
14.296,-114.77
14.312,-107.61
14.328,-95.37
14.343,-79.18
14.359,-60.66
14.375,-41.41
14.390,-22.68
14.406,-5.22
14.421,10.61
14.437,24.76
14.453,37.22
14.468,48.08
14.484,57.48
14.500,65.6
14.515,72.6
14.531,78.47
14.546,83.03
14.562,85.95
14.578,86.94
14.593,85.87
14.609,82.92
14.625,78.58
14.640,73.54
14.656,68.54
14.671,64.16
14.687,60.77
14.703,58.41
14.718,56.85
14.734,55.62
14.750,54.16
14.765,52.01
14.781,48.88
14.796,44.75
14.812,39.72
14.828,34.03
14.843,27.91
14.859,21.54
14.875,15.04
14.890,8.41
14.906,1.65
14.921,-5.35
14.937,-12.61
14.953,-20.18
14.968,-27.97
14.984,-35.8
15.000,-43.48
15.015,-50.82
15.031,-57.8
15.046,-64.53
15.062,-71.32
15.078,-78.45
15.093,-86.16
15.109,-94.38
15.125,-102.58
15.140,-109.79
15.156,-114.65
15.171,-115.76
15.187,-112.06
15.203,-103.2
15.218,-89.67
15.234,-72.71
15.250,-53.88
15.265,-34.73
15.281,-16.48
15.296,0.15
15.312,14.79
15.328,27.4
15.343,38.06
15.359,47.02
15.375,54.61
15.390,61.13
15.406,66.74
15.421,71.33
15.437,74.6
15.453,76.13
15.468,75.7
15.484,73.37
15.500,69.59
15.515,65.02
15.531,60.39
15.546,56.27
15.562,52.97
15.578,50.56
15.593,48.84
15.609,47.5
15.625,46.09
15.640,44.17
15.656,41.35
15.671,37.43
15.687,32.41
15.703,26.53
15.718,20.16
15.734,13.62
15.750,7.13
15.765,0.76
15.781,-5.62
15.796,-12.11
15.812,-18.83
15.828,-25.74
15.843,-32.75
15.859,-39.68
15.875,-46.41
15.890,-52.95
15.906,-59.45
15.921,-66.19
15.937,-73.46
15.953,-81.48
15.968,-90.2
15.984,-99.15
16.000,-107.35
16.015,-113.47
16.031,-116.01
16.046,-113.77
16.062,-106.2
16.078,-93.62
16.093,-77.23
16.109,-58.67
16.125,-39.62
16.140,-21.34
16.156,-4.62
16.171,10.29
16.187,23.38
16.203,34.74
16.218,44.53
16.234,52.88
16.250,59.96
16.265,65.92
16.281,70.77
16.296,74.37
16.312,76.52
16.328,77.04
16.343,75.88
16.359,73.28
16.375,69.73
16.390,65.8
16.406,62.09
16.421,59.0
16.437,56.71
16.453,55.12
16.468,53.89
16.484,52.55
16.500,50.61
16.515,47.73
16.531,43.78
16.546,38.83
16.562,33.1
16.578,26.87
16.593,20.37
16.609,13.77
16.625,7.1
16.640,0.33
16.656,-6.62
16.671,-13.86
16.687,-21.44
16.703,-29.27
16.718,-37.16
16.734,-44.81
16.750,-51.95
16.765,-58.46
16.781,-64.48
16.796,-70.39
16.812,-76.73
16.828,-83.9
16.843,-91.84
16.859,-99.92
16.875,-106.89
16.890,-111.12
16.906,-111.12
16.921,-105.99
16.937,-95.72
16.953,-81.24
16.968,-64.06
16.984,-45.87
17.000,-28.04
17.015,-11.47
17.031,3.46
17.046,16.75
17.062,28.54
17.078,39.08
17.093,48.56
17.109,57.1
17.125,64.73
17.140,71.31
17.156,76.57
17.171,80.16
17.187,81.79
17.203,81.41
17.218,79.28
17.234,75.88
17.250,71.87
17.265,67.82
17.281,64.1
17.296,60.94
17.312,58.37
17.328,56.3
17.343,54.55
17.359,52.84
17.375,50.84
17.390,48.24
17.406,44.81
17.421,40.48
17.437,35.34
17.453,29.57
17.468,23.41
17.484,16.98
17.500,10.34
17.515,3.49
17.531,-3.59
17.546,-10.92
17.562,-18.46
17.578,-26.08
17.593,-33.61
17.609,-40.8
17.625,-47.45
17.640,-53.49
17.656,-59.06
17.671,-64.51
17.687,-70.35
17.703,-77.06
17.718,-84.85
17.734,-93.54
17.750,-102.34
17.765,-110.01
17.781,-115.06
17.796,-116.06
17.812,-112.1
17.828,-103.06
17.843,-89.58
17.859,-72.9
17.875,-54.53
17.890,-35.87
17.906,-18.02
17.921,-1.65
17.937,12.94
17.953,25.73
17.968,36.87
17.984,46.64
18.000,55.28
18.015,62.99
18.031,69.79
18.046,75.51
18.062,79.78
18.078,82.3
18.093,82.77
18.109,81.2
18.125,77.93
18.140,73.59
18.156,68.95
18.171,64.74
18.187,61.46
18.203,59.21
18.218,57.83
18.234,56.88
18.250,55.81
18.265,54.2
18.281,51.7
18.296,48.18
18.312,43.67
18.328,38.33
18.343,32.39
18.359,26.15
18.375,19.89
18.390,13.78
18.406,7.9
18.421,2.19
18.437,-3.47
18.453,-9.25
18.468,-15.27
18.484,-21.55
18.500,-28.04
18.515,-34.63
18.531,-41.19
18.546,-47.66
18.562,-54.07
18.578,-60.52
18.593,-67.23
18.609,-74.43
18.625,-82.29
18.640,-90.73
18.656,-99.19
18.671,-106.64
18.687,-111.68
18.703,-112.94
18.718,-109.48
18.734,-101.14
18.750,-88.56
18.765,-73.02
18.781,-56.01
18.796,-38.82
18.812,-22.31
18.828,-6.98
18.843,7.03
18.859,19.69
18.875,31.04
18.890,41.18
18.906,50.2
18.921,58.18
18.937,65.14
18.953,70.94
18.968,75.31
18.984,77.94
19.000,78.64
19.015,77.39
19.031,74.5
19.046,70.49
19.062,66.0
19.078,61.7
19.093,58.09
19.109,55.42
19.125,53.69
19.140,52.59
19.156,51.62
19.171,50.26
19.187,48.03
19.203,44.65
19.218,40.12
19.234,34.64
19.250,28.59
19.265,22.35
19.281,16.21
19.296,10.3
19.312,4.6
19.328,-1.08
19.343,-6.99
19.359,-13.3
19.375,-20.06
19.390,-27.12
19.406,-34.23
19.421,-41.11
19.437,-47.62
19.453,-53.8
19.468,-59.9
19.484,-66.38
19.500,-73.63
19.515,-81.93
19.531,-91.16
19.546,-100.71
19.562,-109.48
19.578,-115.97
19.593,-118.7
19.609,-116.59
19.625,-109.27
19.640,-97.2
19.656,-81.53
19.671,-63.74
19.687,-45.21
19.703,-27.11
19.718,-10.1
19.734,5.45
19.750,19.42
19.765,31.8
19.781,42.71
19.796,52.21
19.812,60.37
19.828,67.19
19.843,72.46
19.859,76.0
19.875,77.6
19.890,77.22
19.906,75.02
19.921,71.44
19.937,67.07
19.953,62.49
19.968,58.26
19.984,54.72
20.000,52.08
20.015,50.31
20.031,49.23
20.046,48.47
20.062,47.55
20.078,45.94
20.093,43.21
20.109,39.15
20.125,33.79
20.140,27.41
20.156,20.36
20.171,13.02
20.187,5.71
20.203,-1.4
20.218,-8.27
20.234,-14.86
20.250,-21.16
20.265,-27.23
20.281,-33.14
20.296,-38.98
20.312,-44.86
20.328,-50.79
20.343,-56.79
20.359,-62.85
20.375,-69.04
20.390,-75.52
20.406,-82.54
20.421,-90.27
20.437,-98.52
20.453,-106.57
20.468,-113.15
20.484,-116.68
20.500,-115.78
20.515,-109.66
20.531,-98.5
20.546,-83.31
20.562,-65.6
20.578,-46.93
20.593,-28.55
20.609,-11.2
20.625,4.78
20.640,19.32
20.656,32.41
20.671,44.1
20.687,54.43
20.703,63.5
20.718,71.36
20.734,77.91
20.750,82.92
20.765,86.12
20.781,87.26
20.796,86.38
20.812,83.77
20.828,80.02
20.843,75.87
20.859,71.98
20.875,68.79
20.890,66.43
20.906,64.77
20.921,63.48
20.937,62.21
20.953,60.59
20.968,58.36
20.984,55.28
21.000,51.24
21.015,46.23
21.031,40.37
21.046,33.97
21.062,27.38
21.078,20.9
21.093,14.69
21.109,8.62
21.125,2.42
21.140,-4.25
21.156,-11.62
21.171,-19.64
21.187,-28.01
21.203,-36.29
21.218,-44.07
21.234,-51.1
21.250,-57.41
21.265,-63.24
21.281,-68.98
21.296,-75.05
21.312,-81.88
21.328,-89.7
21.343,-98.39
21.359,-107.38
21.375,-115.45
21.390,-120.98
21.406,-122.33
21.421,-118.37
21.437,-108.87
21.453,-94.58
21.468,-77.02
21.484,-57.9
21.500,-38.75
21.515,-20.52
21.531,-3.67
21.546,11.7
21.562,25.64
21.578,38.25
21.593,49.61
21.609,59.79
21.625,68.79
21.640,76.56
21.656,82.89
21.671,87.5
21.687,90.11
21.703,90.62
21.718,89.16
21.734,86.16
21.750,82.22
21.765,78.0
21.781,74.05
21.796,70.63
21.812,67.82
21.828,65.47
21.843,63.33
21.859,61.19
21.875,58.91
21.890,56.41
21.906,53.63
21.921,50.52
21.937,46.97
21.953,42.85
21.968,38.05
21.984,32.54
22.000,26.4
22.015,19.82
22.031,12.99
22.046,6.06
22.062,-0.89
22.078,-7.87
22.093,-14.91
22.109,-22.02
22.125,-29.14
22.140,-36.13
22.156,-42.93
22.171,-49.46
22.187,-55.75
22.203,-61.85
22.218,-67.87
22.234,-73.99
22.250,-80.46
22.265,-87.6
22.281,-95.56
22.296,-104.15
22.312,-112.55
22.328,-119.32
22.343,-122.7
22.359,-121.11
22.375,-113.74
22.390,-100.84
22.406,-83.74
22.421,-64.26
22.437,-44.2
22.453,-24.87
22.468,-6.94
22.484,9.36
22.500,23.95
22.515,36.82
22.531,47.95
22.546,57.47
22.562,65.65
22.578,72.82
22.593,79.11
22.609,84.32
22.625,87.97
22.640,89.56
22.656,88.83
22.671,86.05
22.687,81.91
22.703,77.29
22.718,73.04
22.734,69.64
22.750,67.15
22.765,65.33
22.781,63.76
22.796,62.07
22.812,60.01
22.828,57.41
22.843,54.21
22.859,50.37
22.875,45.85
22.890,40.63
22.906,34.81
22.921,28.56
22.937,22.14
22.953,15.76
22.968,9.56
22.984,3.49
23.000,-2.59
23.015,-8.88
23.031,-15.48
23.046,-22.3
23.062,-29.17
23.078,-35.84
23.093,-42.17
23.109,-48.1
23.125,-53.75
23.140,-59.26
23.156,-64.91
23.171,-70.97
23.187,-77.68
23.203,-85.25
23.218,-93.68
23.234,-102.55
23.250,-110.9
23.265,-117.43
23.281,-120.57
23.296,-119.08
23.312,-112.36
23.328,-100.67
23.343,-85.05
23.359,-66.95
23.375,-47.85
23.390,-28.93
23.406,-10.99
23.421,5.52
23.437,20.37
23.453,33.42
23.468,44.64
23.484,54.14
23.500,62.12
23.515,68.72
23.531,74.0
23.546,77.83
23.562,80.0
23.578,80.37
23.593,78.99
23.609,76.23
23.625,72.65
23.640,68.92
23.656,65.57
23.671,62.89
23.687,60.86
23.703,59.26
23.718,57.75
23.734,55.98
23.750,53.72
23.765,50.84
23.781,47.34
23.796,43.17
23.812,38.33
23.828,32.83
23.843,26.74
23.859,20.28
23.875,13.74
23.890,7.38
23.906,1.25
23.921,-4.77
23.937,-10.98
23.953,-17.6
23.968,-24.71
23.984,-32.09
24.000,-39.38
24.015,-46.28
24.031,-52.68
24.046,-58.74
24.062,-64.73
24.078,-71.01
24.093,-77.8
24.109,-85.25
24.125,-93.33
24.140,-101.73
24.156,-109.8
24.171,-116.38
24.187,-120.05
24.203,-119.35
24.218,-113.34
24.234,-101.93
24.250,-86.03
24.265,-67.24
24.281,-47.33
24.296,-27.86
24.312,-9.74
24.328,6.65
24.343,21.26
24.359,34.25
24.375,45.74
24.390,55.84
24.406,64.57
24.421,71.97
24.437,78.01
24.453,82.62
24.468,85.62
24.484,86.78
24.500,86.02
24.515,83.49
24.531,79.61
24.546,74.96
24.562,70.22
24.578,65.95
24.593,62.47
24.609,59.8
24.625,57.71
24.640,55.91
24.656,54.07
24.671,51.95
24.687,49.38
24.703,46.28
24.718,42.55
24.734,38.18
24.750,33.23
24.765,27.8
24.781,22.13
24.796,16.36
24.812,10.55
24.828,4.63
24.843,-1.59
24.859,-8.33
24.875,-15.7
24.890,-23.58
24.906,-31.73
24.921,-39.79
24.937,-47.47
24.953,-54.56
24.968,-61.01
24.984,-66.96
25.000,-72.67
25.015,-78.55
25.031,-84.98
25.046,-92.27
25.062,-100.29
25.078,-108.48
25.093,-115.64
25.109,-120.17
25.125,-120.52
25.140,-115.64
25.156,-105.33
25.171,-90.31
25.187,-72.02
25.203,-52.13
25.218,-32.14
25.234,-13.15
25.250,4.22
25.265,19.68
25.281,33.19
25.296,44.86
25.312,54.97
25.328,63.83
25.343,71.7
25.359,78.64
25.375,84.37
25.390,88.4
25.406,90.24
25.421,89.74
25.437,87.15
25.453,83.15
25.468,78.58
25.484,74.17
25.500,70.32
25.515,67.16
25.531,64.56
25.546,62.33
25.562,60.3
25.578,58.32
25.593,56.26
25.609,53.94
25.625,51.12
25.640,47.59
25.656,43.24
25.671,38.08
25.687,32.25
25.703,26.02
25.718,19.69
25.734,13.48
25.750,7.47
25.765,1.55
25.781,-4.5
25.796,-10.88
25.812,-17.65
25.828,-24.68
25.843,-31.73
25.859,-38.55
25.875,-45.03
25.890,-51.19
25.906,-57.2
25.921,-63.27
25.937,-69.62
25.953,-76.52
25.968,-84.17
25.984,-92.67
26.000,-101.79
26.015,-110.81
26.031,-118.43
26.046,-123.02
26.062,-123.03
26.078,-117.44
26.093,-106.25
26.109,-90.4
26.125,-71.46
26.140,-51.26
26.156,-31.31
26.171,-12.57
26.187,4.48
26.203,19.73
26.218,33.26
26.234,45.16
26.250,55.56
26.265,64.62
26.281,72.48
26.296,79.19
26.312,84.67
26.328,88.65
26.343,90.8
26.359,90.95
26.375,89.18
26.390,85.93
26.406,81.85
26.421,77.64
26.437,73.84
26.453,70.77
26.468,68.41
26.484,66.56
26.500,64.89
26.515,63.02
26.531,60.7
26.546,57.7
26.562,53.94
26.578,49.43
26.593,44.31
26.609,38.69
26.625,32.72
26.640,26.53
26.656,20.18
26.671,13.8
26.687,7.45
26.703,1.15
26.718,-5.12
26.734,-11.46
26.750,-17.96
26.765,-24.64
26.781,-31.46
26.796,-38.26
26.812,-44.86
26.828,-51.16
26.843,-57.14
26.859,-62.95
26.875,-68.83
26.890,-75.05
26.906,-81.9
26.921,-89.55
26.937,-97.93
26.953,-106.56
26.968,-114.47
26.984,-120.27
27.000,-122.49
27.015,-119.98
27.031,-112.29
27.046,-99.83
27.062,-83.8
27.078,-65.77
27.093,-47.23
27.109,-29.31
27.125,-12.6
27.140,2.7
27.156,16.59
27.171,29.12
27.187,40.27
27.203,50.01
27.218,58.26
27.234,65.05
27.250,70.36
27.265,74.21
27.281,76.57
27.296,77.42
27.312,76.78
27.328,74.79
27.343,71.77
27.359,68.17
27.375,64.51
27.390,61.21
27.406,58.54
27.421,56.61
27.437,55.28
27.453,54.26
27.468,53.12
27.484,51.46
27.500,48.96
27.515,45.43
27.531,40.86
27.546,35.39
27.562,29.26
27.578,22.7
27.593,15.98
27.609,9.24
27.625,2.6
27.640,-3.88
27.656,-10.24
27.671,-16.61
27.687,-23.14
27.703,-29.93
27.718,-36.98
27.734,-44.17
27.750,-51.34
27.765,-58.34
27.781,-65.08
27.796,-71.64
27.812,-78.14
27.828,-84.8
27.843,-91.78
27.859,-99.11
27.875,-106.46
27.890,-113.12
27.906,-117.94
27.921,-119.56
27.937,-116.8
27.953,-109.01
27.968,-96.4
27.984,-80.0
28.000,-61.33
28.015,-41.98
28.031,-23.26
28.046,-5.99
28.062,9.49
28.078,23.11
28.093,34.98
28.109,45.24
28.125,54.11
28.140,61.81
28.156,68.5
28.171,74.19
28.187,78.67
28.203,81.64
28.218,82.81
28.234,82.1
28.250,79.71
28.265,76.18
28.281,72.18
28.296,68.38
28.312,65.21
28.328,62.84
28.343,61.14
28.359,59.77
28.375,58.34
28.390,56.47
28.406,53.92
28.421,50.62
28.437,46.62
28.453,42.0
28.468,36.87
28.484,31.32
28.500,25.44
28.515,19.38
28.531,13.28
28.546,7.2
28.562,1.13
28.578,-5.09
28.593,-11.62
28.609,-18.55
28.625,-25.81
28.640,-33.24
28.656,-40.55
28.671,-47.57
28.687,-54.24
28.703,-60.67
28.718,-67.08
28.734,-73.75
28.750,-80.93
28.765,-88.76
28.781,-97.16
28.796,-105.58
28.812,-113.04
28.828,-118.18
28.843,-119.57
28.859,-116.18
28.875,-107.66
28.890,-94.53
28.906,-78.01
28.921,-59.61
28.937,-40.76
28.953,-22.57
28.968,-5.69
28.984,9.59
29.000,23.23
29.015,35.35
29.031,46.21
29.046,56.05
29.062,65.05
29.078,73.23
29.093,80.3
29.109,85.85
29.125,89.46
29.140,90.83
29.156,90.0
29.171,87.4
29.187,83.62
29.203,79.36
29.218,75.19
29.234,71.47
29.250,68.34
29.265,65.72
29.281,63.41
29.296,61.15
29.312,58.66
29.328,55.73
29.343,52.19
29.359,48.01
29.375,43.19
29.390,37.83
29.406,32.02
29.421,25.89
29.437,19.56
29.453,13.14
29.468,6.68
29.484,0.15
29.500,-6.48
29.515,-13.28
29.531,-20.28
29.546,-27.41
29.562,-34.57
29.578,-41.57
29.593,-48.23
29.609,-54.49
29.625,-60.36
29.640,-66.02
29.656,-71.8
29.671,-78.16
29.687,-85.46
29.703,-93.82
29.718,-102.83
29.734,-111.46
29.750,-118.2
29.765,-121.39
29.781,-119.66
29.796,-112.5
29.812,-100.27
29.828,-84.16
29.843,-65.75
29.859,-46.59
29.875,-27.82
29.890,-10.12
29.906,6.16
29.921,20.92
29.937,34.14
29.953,45.92
29.968,56.41
29.984,65.83
30.000,74.25
30.015,81.57
30.031,87.44
30.046,91.44
30.062,93.23
30.078,92.8
30.093,90.46
30.109,86.82
30.125,82.56
30.140,78.23
30.156,74.22
30.171,70.71
30.187,67.68
30.203,65.03
30.218,62.58
30.234,60.05
30.250,57.18
30.265,53.77
30.281,49.69
30.296,44.95
30.312,39.67
30.328,33.93
30.343,27.86
30.359,21.57
30.375,15.13
30.390,8.62
30.406,2.06
30.421,-4.57
30.437,-11.26
30.453,-18.07
30.468,-24.94
30.484,-31.76
30.500,-38.37
30.515,-44.63
30.531,-50.54
30.546,-56.22
30.562,-61.97
30.578,-68.1
30.593,-74.93
30.609,-82.63
30.625,-91.2
30.640,-100.28
30.656,-109.1
30.671,-116.51
30.687,-121.1
30.703,-121.55
30.718,-116.99
30.734,-107.28
30.750,-93.09
30.765,-75.68
30.781,-56.66
30.796,-37.49
30.812,-19.26
30.828,-2.62
30.843,12.2
30.859,25.25
30.875,36.74
30.890,46.9
30.906,55.93
30.921,63.9
30.937,70.69
30.953,76.07
30.968,79.73
30.984,81.42
31.000,81.09
31.015,78.98
31.031,75.57
31.046,71.5
31.062,67.35
31.078,63.55
31.093,60.3
31.109,57.56
31.125,55.17
31.140,52.91
31.156,50.58
31.171,48.0
31.187,45.04
31.203,41.55
31.218,37.42
31.234,32.64
31.250,27.27
31.265,21.44
31.281,15.26
31.296,8.83
31.312,2.23
31.328,-4.49
31.343,-11.27
31.359,-18.01
31.375,-24.61
31.390,-30.98
31.406,-37.11
31.421,-43.06
31.437,-48.94
31.453,-54.88
31.468,-61.1
31.484,-67.88
31.500,-75.51
31.515,-84.2
31.531,-93.76
31.546,-103.5
31.562,-112.15
31.578,-118.06
31.593,-119.58
31.609,-115.62
31.625,-106.0
31.640,-91.49
31.656,-73.59
31.671,-54.04
31.687,-34.43
31.703,-15.82
31.718,1.15
31.734,16.33
31.750,29.69
31.765,41.38
31.781,51.53
31.796,60.31
31.812,67.84
31.828,74.08
31.843,78.93
31.859,82.16
31.875,83.59
31.890,83.17
31.906,81.09
31.921,77.74
31.937,73.62
31.953,69.23
31.968,65.01
31.984,61.29
32.000,58.27
32.015,55.98
32.031,54.3
32.046,52.86
32.062,51.23
32.078,48.91
32.093,45.56
32.109,41.09
32.125,35.66
32.140,29.56
32.156,23.17
32.171,16.84
32.187,10.76
32.203,4.96
32.218,-0.69
32.234,-6.38
32.250,-12.27
32.265,-18.5
32.281,-25.07
32.296,-31.82
32.312,-38.47
32.328,-44.8
32.343,-50.76
32.359,-56.48
32.375,-62.27
32.390,-68.47
32.406,-75.4
32.421,-83.16
32.437,-91.49
32.453,-99.68
32.468,-106.63
32.484,-110.89
32.500,-111.12
32.515,-106.41
32.531,-96.65
32.546,-82.62
32.562,-65.7
32.578,-47.53
32.593,-29.47
32.609,-12.43
32.625,3.24
32.640,17.51
32.656,30.46
32.671,42.13
32.687,52.52
32.703,61.7
32.718,69.66
32.734,76.39
32.750,81.75
32.765,85.45
32.781,87.2
32.796,86.81
32.812,84.39
32.828,80.42
32.843,75.59
32.859,70.67
32.875,66.26
32.890,62.74
32.906,60.19
32.921,58.47
32.937,57.29
32.953,56.31
32.968,55.22
32.984,53.69
33.000,51.46
33.015,48.32
33.031,44.23
33.046,39.2
33.062,33.38
33.078,26.97
33.093,20.22
33.109,13.34
33.125,6.49
33.140,-0.29
33.156,-7.06
33.171,-13.79
33.187,-20.56
33.203,-27.34
33.218,-34.06
33.234,-40.66
33.250,-47.1
33.265,-53.38
33.281,-59.52
33.296,-65.65
33.312,-71.86
33.328,-78.36
33.343,-85.32
33.359,-92.86
33.375,-100.88
33.390,-108.93
33.406,-115.98
33.421,-120.7
33.437,-121.72
33.453,-118.0
33.468,-109.27
33.484,-96.03
33.500,-79.4
33.515,-60.85
33.531,-41.75
33.546,-23.19
33.562,-5.87
33.578,9.78
33.593,23.59
33.609,35.57
33.625,45.92
33.640,55.0
33.656,63.1
33.671,70.35
33.687,76.63
33.703,81.57
33.718,84.76
33.734,85.92
33.750,85.1
33.765,82.66
33.781,79.2
33.796,75.36
33.812,71.68
33.828,68.57
33.843,66.2
33.859,64.56
33.875,63.4
33.890,62.3
33.906,60.8
33.921,58.56
33.937,55.42
33.953,51.48
33.968,47.02
33.984,42.3
34.000,37.48
34.015,32.61
34.031,27.59
34.046,22.37
34.062,16.98
34.078,11.55
34.093,6.26
34.109,1.24
34.125,-3.57
34.140,-8.31
34.156,-13.23
34.171,-18.53
34.187,-24.32
34.203,-30.54
34.218,-37.07
34.234,-43.8
34.250,-50.65
34.265,-57.62
34.281,-64.62
34.296,-71.58
34.312,-78.45
34.328,-85.33
34.343,-92.44
34.359,-99.95
34.375,-107.73
34.390,-115.02
34.406,-120.57
34.421,-122.82
34.437,-120.48
34.453,-113.01
34.468,-100.8
34.484,-84.98
34.500,-67.04
34.515,-48.42
34.531,-30.09
34.546,-12.69
34.562,3.43
34.578,18.06
34.593,31.04
34.609,42.3
34.625,51.93
34.640,60.18
34.656,67.25
34.671,73.32
34.687,78.24
34.703,81.7
34.718,83.35
34.734,82.98
34.750,80.76
34.765,77.2
34.781,72.98
34.796,68.79
34.812,65.15
34.828,62.26
34.843,60.07
34.859,58.38
34.875,56.89
34.890,55.33
34.906,53.45
34.921,51.11
34.937,48.19
34.953,44.66
34.968,40.52
34.984,35.84
35.000,30.73
35.015,25.3
35.031,19.71
35.046,14.09
35.062,8.54
35.078,3.08
35.093,-2.35
35.109,-7.85
35.125,-13.55
35.140,-19.41
35.156,-25.37
35.171,-31.33
35.187,-37.22
35.203,-43.04
35.218,-48.83
35.234,-54.6
35.250,-60.32
35.265,-66.0
35.281,-71.74
35.296,-77.81
35.312,-84.61
35.328,-92.31
35.343,-100.65
35.359,-108.7
35.375,-115.01
35.390,-117.93
35.406,-116.16
35.421,-109.2
35.437,-97.49
35.453,-82.22
35.468,-64.9
35.484,-46.97
35.500,-29.5
35.515,-13.16
35.531,1.72
35.546,14.93
35.562,26.45
35.578,36.3
35.593,44.65
35.609,51.78
35.625,57.88
35.640,63.0
35.656,66.93
35.671,69.38
35.687,70.11
35.703,69.14
35.718,66.84
35.734,63.84
35.750,60.8
35.765,58.26
35.781,56.5
35.796,55.51
35.812,55.01
35.828,54.65
35.843,54.06
35.859,52.93
35.875,51.05
35.890,48.35
35.906,44.89
35.921,40.81
35.937,36.31
35.953,31.5
35.968,26.48
35.984,21.25
36.000,15.82
36.015,10.15
36.031,4.26
36.046,-1.87
36.062,-8.2
36.078,-14.63
36.093,-21.1
36.109,-27.51
36.125,-33.81
36.140,-39.95
36.156,-45.98
36.171,-51.94
36.187,-57.9
36.203,-63.91
36.218,-70.02
36.234,-76.37
36.250,-83.17
36.265,-90.64
36.281,-98.7
36.296,-106.82
36.312,-113.91
36.328,-118.5
36.343,-119.11
36.359,-114.77
36.375,-105.29
36.390,-91.37
36.406,-74.35
36.421,-55.79
36.437,-37.06
36.453,-19.11
36.468,-2.52
36.484,12.48
36.500,25.85
36.515,37.69
36.531,48.13
36.546,57.31
36.562,65.3
36.578,72.05
36.593,77.37
36.609,81.03
36.625,82.84
36.640,82.79
36.656,81.07
36.671,78.14
36.687,74.54
36.703,70.92
36.718,67.76
36.734,65.42
36.750,63.99
36.765,63.33
36.781,63.07
36.796,62.76
36.812,61.92
36.828,60.23
36.843,57.58
36.859,53.98
36.875,49.61
36.890,44.6
36.906,39.05
36.921,33.01
36.937,26.55
36.953,19.8
36.968,12.93
36.984,6.2
37.000,-0.24
37.015,-6.32
37.031,-12.06
37.046,-17.63
37.062,-23.11
37.078,-28.6
37.093,-34.15
37.109,-39.82
37.125,-45.7
37.140,-51.82
37.156,-58.27
37.171,-65.01
37.187,-72.09
37.203,-79.56
37.218,-87.55
37.234,-96.12
37.250,-105.1
37.265,-113.94
37.281,-121.53
37.296,-126.47
37.312,-127.28
37.328,-122.93
37.343,-113.19
37.359,-98.72
37.375,-80.86
37.390,-61.28
37.406,-41.54
37.421,-22.77
37.437,-5.66
37.453,9.54
37.468,22.75
37.484,34.1
37.500,43.84
37.515,52.37
37.531,60.1
37.546,67.32
37.562,74.03
37.578,79.89
37.593,84.31
37.609,86.75
37.625,86.95
37.640,85.11
37.656,81.87
37.671,78.02
37.687,74.29
37.703,71.15
37.718,68.74
37.734,66.91
37.750,65.39
37.765,63.84
37.781,61.98
37.796,59.66
37.812,56.83
37.828,53.6
37.843,50.1
37.859,46.41
37.875,42.53
37.890,38.34
37.906,33.67
37.921,28.47
37.937,22.76
37.953,16.68
37.968,10.43
37.984,4.08
38.000,-2.31
38.015,-8.78
38.031,-15.35
38.046,-21.98
38.062,-28.61
38.078,-35.13
38.093,-41.48
38.109,-47.66
38.125,-53.71
38.140,-59.67
38.156,-65.58
38.171,-71.56
38.187,-77.76
38.203,-84.45
38.218,-91.84
38.234,-99.95
38.250,-108.33
38.265,-116.03
38.281,-121.61
38.296,-123.59
38.312,-120.82
38.328,-112.88
38.343,-100.19
38.359,-83.84
38.375,-65.25
38.390,-45.78
38.406,-26.57
38.421,-8.41
38.437,8.2
38.453,22.99
38.468,35.95
38.484,47.27
38.500,57.31
38.515,66.44
38.531,74.86
38.546,82.43
38.562,88.71
38.578,93.18
38.593,95.38
38.609,95.23
38.625,93.0
38.640,89.32
38.656,84.92
38.671,80.51
38.687,76.54
38.703,73.24
38.718,70.51
38.734,68.1
38.750,65.65
38.765,62.9
38.781,59.74
38.796,56.2
38.812,52.43
38.828,48.54
38.843,44.56
38.859,40.39
38.875,35.85
38.890,30.81
38.906,25.31
38.921,19.51
38.937,13.64
38.953,7.85
38.968,2.1
38.984,-3.77
39.000,-9.98
39.015,-16.68
39.031,-23.85
39.046,-31.31
39.062,-38.82
39.078,-46.14
39.093,-53.13
39.109,-59.79
39.125,-66.23
39.140,-72.56
39.156,-79.0
39.171,-85.75
39.187,-93.03
39.203,-100.84
39.218,-108.82
39.234,-116.05
39.250,-121.19
39.265,-122.75
39.281,-119.52
39.296,-111.02
39.312,-97.73
39.328,-80.87
39.343,-62.0
39.359,-42.68
39.375,-23.96
39.390,-6.49
39.406,9.51
39.421,23.94
39.437,36.75
39.453,47.94
39.468,57.53
39.484,65.63
39.500,72.33
39.515,77.66
39.531,81.49
39.546,83.61
39.562,83.86
39.578,82.32
39.593,79.37
39.609,75.64
39.625,71.8
39.640,68.41
39.656,65.76
39.671,63.82
39.687,62.31
39.703,60.89
39.718,59.23
39.734,57.13
39.750,54.53
39.765,51.41
39.781,47.74
39.796,43.52
39.812,38.74
39.828,33.37
39.843,27.5
39.859,21.34
39.875,15.06
39.890,8.86
39.906,2.82
39.921,-3.13
39.937,-9.14
39.953,-15.38
39.968,-21.99
39.984,-29.02
40.000,-36.33
40.015,-43.72
40.031,-50.91
40.046,-57.69
40.062,-64.02
40.078,-70.07
40.093,-76.24
40.109,-82.96
40.125,-90.56
40.140,-98.93
40.156,-107.42
40.171,-114.83
40.187,-119.64
40.203,-120.36
40.218,-116.03
40.234,-106.4
40.250,-92.14
40.265,-74.58
40.281,-55.35
40.296,-36.05
40.312,-17.82
40.328,-1.31
40.343,13.32
40.359,26.19
40.375,37.55
40.390,47.66
40.406,56.74
40.421,64.83
40.437,71.77
40.453,77.29
40.468,81.02
40.484,82.66
40.500,82.19
40.515,79.89
40.531,76.31
40.546,72.2
40.562,68.27
40.578,65.03
40.593,62.71
40.609,61.25
40.625,60.38
40.640,59.68
40.656,58.76
40.671,57.35
40.687,55.29
40.703,52.57
40.718,49.17
40.734,45.08
40.750,40.19
40.765,34.47
40.781,27.99
40.796,21.03
40.812,14.03
40.828,7.36
40.843,1.2
40.859,-4.58
40.875,-10.36
40.890,-16.53
40.906,-23.28
40.921,-30.52
40.937,-37.89
40.953,-44.99
40.968,-51.55
40.984,-57.59
41.000,-63.34
41.015,-69.16
41.031,-75.42
41.046,-82.35
41.062,-90.04
41.078,-98.32
41.093,-106.63
41.109,-114.01
41.125,-119.1
41.140,-120.43
41.156,-116.83
41.171,-107.86
41.187,-93.96
41.203,-76.41
41.218,-56.93
41.234,-37.23
41.250,-18.59
41.265,-1.7
41.281,13.26
41.296,26.46
41.312,38.1
41.328,48.43
41.343,57.57
41.359,65.63
41.375,72.59
41.390,78.34
41.406,82.63
41.421,85.15
41.437,85.67
41.453,84.14
41.468,80.9
41.484,76.58
41.500,72.03
41.515,68.0
41.531,64.98
41.546,63.04
41.562,61.95
41.578,61.25
41.593,60.42
41.609,59.13
41.625,57.18
41.640,54.55
41.656,51.27
41.671,47.41
41.687,43.0
41.703,38.06
41.718,32.63
41.734,26.78
41.750,20.64
41.765,14.36
41.781,8.11
41.796,1.97
41.812,-4.02
41.828,-9.95
41.843,-16.02
41.859,-22.39
41.875,-29.16
41.890,-36.27
41.906,-43.54
41.921,-50.7
41.937,-57.47
41.953,-63.72
41.968,-69.53
41.984,-75.24
42.000,-81.27
42.015,-88.04
42.031,-95.72
42.046,-104.05
42.062,-112.26
42.078,-118.99
42.093,-122.71
42.109,-122.04
42.125,-116.27
42.140,-105.5
42.156,-90.66
42.171,-73.22
42.187,-54.7
42.203,-36.38
42.218,-19.0
42.234,-2.89
42.250,11.92
42.265,25.49
42.281,37.82
42.296,48.83
42.312,58.49
42.328,66.77
42.343,73.6
42.359,78.89
42.375,82.47
42.390,84.19
42.406,84.0
42.421,82.05
42.437,78.8
42.453,74.92
42.468,71.17
42.484,68.15
42.500,66.14
42.515,65.08
42.531,64.61
42.546,64.22
42.562,63.42
42.578,61.91
42.593,59.61
42.609,56.61
42.625,53.09
42.640,49.18
42.656,44.9
42.671,40.21
42.687,35.06
42.703,29.45
42.718,23.54
42.734,17.51
42.750,11.57
42.765,5.86
42.781,0.3
42.796,-5.31
42.812,-11.21
42.828,-17.55
42.843,-24.3
42.859,-31.32
42.875,-38.36
42.890,-45.25
42.906,-51.84
42.921,-58.13
42.937,-64.27
42.953,-70.51
42.968,-77.2
42.984,-84.63
43.000,-92.86
43.015,-101.56
43.031,-109.87
43.046,-116.51
43.062,-120.03
43.078,-119.24
43.093,-113.52
43.109,-103.05
43.125,-88.71
43.140,-71.8
43.156,-53.75
43.171,-35.74
43.187,-18.61
43.203,-2.79
43.218,11.57
43.234,24.48
43.250,36.02
43.265,46.3
43.281,55.4
43.296,63.41
43.312,70.32
43.328,75.98
43.343,80.18
43.359,82.65
43.375,83.3
43.390,82.23
43.406,79.86
43.421,76.77
43.437,73.57
43.453,70.65
43.468,68.16
43.484,66.02
43.500,64.02
43.515,62.0
43.531,59.83
43.546,57.45
43.562,54.81
43.578,51.74
43.593,48.03
43.609,43.52
43.625,38.17
43.640,32.14
43.656,25.74
43.671,19.32
43.687,13.14
43.703,7.28
43.718,1.57
43.734,-4.22
43.750,-10.3
43.765,-16.76
43.781,-23.52
43.796,-30.41
43.812,-37.24
43.828,-43.91
43.843,-50.33
43.859,-56.54
43.875,-62.58
43.890,-68.56
43.906,-74.69
43.921,-81.26
43.937,-88.53
43.953,-96.51
43.968,-104.75
43.984,-112.17
44.000,-117.27
44.015,-118.41
44.031,-114.45
44.046,-105.16
44.062,-91.23
44.078,-74.16
44.093,-55.67
44.109,-37.25
44.125,-19.89
44.140,-4.02
44.156,10.26
44.171,22.97
44.187,34.15
44.203,43.93
44.218,52.47
44.234,59.94
44.250,66.43
44.265,71.77
44.281,75.6
44.296,77.55
44.312,77.41
44.328,75.3
44.343,71.75
44.359,67.47
44.375,63.16
44.390,59.37
44.406,56.37
44.421,54.17
44.437,52.61
44.453,51.44
44.468,50.35
44.484,49.08
44.500,47.42
44.515,45.21
44.531,42.4
44.546,38.93
44.562,34.79
44.578,30.02
44.593,24.65
44.609,18.79
44.625,12.56
44.640,6.07
44.656,-0.58
44.671,-7.34
44.687,-14.25
44.703,-21.38
44.718,-28.68
44.734,-36.03
44.750,-43.21
44.765,-49.99
44.781,-56.27
44.796,-62.07
44.812,-67.65
44.828,-73.37
44.843,-79.61
44.859,-86.58
44.875,-94.25
44.890,-102.16
44.906,-109.38
44.921,-114.68
44.937,-116.62
44.953,-114.05
44.968,-106.43
44.984,-94.08
45.000,-78.11
45.015,-60.13
45.031,-41.79
45.046,-24.31
45.062,-8.4
45.078,5.85
45.093,18.6
45.109,30.09
45.125,40.58
45.140,50.18
45.156,58.95
45.171,66.87
45.187,73.79
45.203,79.43
45.218,83.42
45.234,85.47
45.250,85.42
45.265,83.5
45.281,80.18
45.296,76.2
45.312,72.24
45.328,68.87
45.343,66.29
45.359,64.36
45.375,62.74
45.390,60.96
45.406,58.75
45.421,55.94
45.437,52.63
45.453,48.96
45.468,45.06
45.484,40.9
45.500,36.36
45.515,31.34
45.531,25.76
45.546,19.72
45.562,13.35
45.578,6.83
45.593,0.28
45.609,-6.26
45.625,-12.84
45.640,-19.46
45.656,-26.17
45.671,-32.96
45.687,-39.77
45.703,-46.54
45.718,-53.21
45.734,-59.71
45.750,-66.07
45.765,-72.44
45.781,-79.05
45.796,-86.23
45.812,-94.15
45.828,-102.59
45.843,-110.75
45.859,-117.28
45.875,-120.5
45.890,-119.0
45.906,-112.05
45.921,-99.95
45.937,-83.93
45.953,-65.74
45.968,-47.07
45.984,-29.12
46.000,-12.5
46.015,2.7
46.031,16.53
46.046,29.03
46.062,40.19
46.078,49.99
46.093,58.52
46.109,65.92
46.125,72.31
46.140,77.58
46.156,81.4
46.171,83.39
46.187,83.32
46.203,81.36
46.218,78.11
46.234,74.46
46.250,71.26
46.265,69.08
46.281,68.02
46.296,67.74
46.312,67.64
46.328,67.07
46.343,65.57
46.359,62.93
46.375,59.18
46.390,54.49
46.406,49.12
46.421,43.31
46.437,37.26
46.453,31.12
46.468,24.95
46.484,18.83
46.500,12.79
46.515,6.85
46.531,1.02
46.546,-4.73
46.562,-10.51
46.578,-16.45
46.593,-22.67
46.609,-29.22
46.625,-36.01
46.640,-42.81
46.656,-49.39
46.671,-55.58
46.687,-61.35
46.703,-66.87
46.718,-72.33
46.734,-77.96
46.750,-84.01
46.765,-90.66
46.781,-97.9
46.796,-105.4
46.812,-112.36
46.828,-117.52
46.843,-119.4
46.859,-116.77
46.875,-108.99
46.890,-96.36
46.906,-79.98
46.921,-61.37
46.937,-42.08
46.953,-23.35
46.968,-5.99
46.984,9.57
47.000,23.18
47.015,34.89
47.031,44.92
47.046,53.58
47.062,61.21
47.078,68.07
47.093,74.18
47.109,79.37
47.125,83.27
47.140,85.53
47.156,85.89
47.171,84.43
47.187,81.47
47.203,77.55
47.218,73.36
47.234,69.49
47.250,66.39
47.265,64.25
47.281,62.94
47.296,62.22
47.312,61.74
47.328,61.16
47.343,60.19
47.359,58.68
47.375,56.48
47.390,53.5
47.406,49.69
47.421,45.05
47.437,39.62
47.453,33.54
47.468,26.92
47.484,19.85
47.500,12.43
47.515,4.74
47.531,-3.12
47.546,-11.01
47.562,-18.85
47.578,-26.63
47.593,-34.36
47.609,-41.99
47.625,-49.42
47.640,-56.44
47.656,-62.84
47.671,-68.53
47.687,-73.66
47.703,-78.61
47.718,-83.91
47.734,-90.0
47.750,-97.05
47.765,-104.69
47.781,-111.98
47.796,-117.54
47.812,-119.79
47.828,-117.41
47.843,-109.76
47.859,-97.08
47.875,-80.47
47.890,-61.56
47.906,-42.08
47.921,-23.38
47.937,-6.29
47.953,8.88
47.968,22.29
47.984,34.19
48.000,44.86
48.015,54.5
48.031,63.17
48.046,70.79
48.062,77.16
48.078,82.0
48.093,85.01
48.109,85.98
48.125,84.93
48.140,82.07
48.156,77.89
48.171,73.04
48.187,68.16
48.203,63.79
48.218,60.22
48.234,57.45
48.250,55.28
48.265,53.33
48.281,51.25
48.296,48.69
48.312,45.47
48.328,41.47
48.343,36.73
48.359,31.39
48.375,25.63
48.390,19.71
48.406,13.77
48.421,7.92
48.437,2.16
48.453,-3.58
48.468,-9.42
48.484,-15.41
48.500,-21.54
48.515,-27.73
48.531,-33.89
48.546,-39.92
48.562,-45.84
48.578,-51.69
48.593,-57.68
48.609,-64.08
48.625,-71.19
48.640,-79.17
48.656,-87.86
48.671,-96.55
48.687,-103.96
48.703,-108.41
48.718,-108.3
48.734,-102.64
48.750,-91.39
48.765,-75.66
48.781,-57.3
48.796,-38.37
48.812,-20.54
48.828,-4.71
48.843,8.99
48.859,20.91
48.875,31.5
48.890,41.03
48.906,49.48
48.921,56.57
48.937,62.03
48.953,65.6
48.968,67.16
48.984,66.65
49.000,64.25
49.015,60.43
49.031,56.02
49.046,52.0
49.062,49.12
49.078,47.67
49.093,47.26
49.109,47.04
49.125,46.13
49.140,44.11
49.156,41.08
49.171,37.56
49.187,34.02
49.203,30.57
49.218,26.91
49.234,22.52
49.250,17.09
49.265,10.77
49.281,4.09
49.296,-2.31
49.312,-7.92
49.328,-12.64
49.343,-16.7
49.359,-20.55
49.375,-24.56
49.390,-28.86
49.406,-33.28
49.421,-37.47
49.437,-41.22
49.453,-44.56
49.468,-47.92
49.484,-52.04
49.500,-57.69
49.515,-65.31
49.531,-74.62
49.546,-84.51
49.562,-93.24
49.578,-98.93
49.593,-100.07
49.609,-96.0
49.625,-87.01
49.640,-74.23
49.656,-59.15
49.671,-43.26
49.687,-27.64
49.703,-12.92
49.718,0.73
49.734,13.44
49.750,25.45
49.765,37.02
49.781,48.3
49.796,59.27
49.812,69.61
49.828,78.72
49.843,85.82
49.859,90.15
49.875,91.3
49.890,89.31
49.906,84.81
49.921,78.92
49.937,72.94
49.953,68.02
49.968,64.87
49.984,63.63
50.000,63.9
50.015,65.03
50.031,66.28
50.046,67.03
50.062,66.86
50.078,65.48
50.093,62.78
50.109,58.89
50.125,54.26
50.140,49.48
50.156,45.13
50.171,41.36
50.187,37.72
50.203,33.31
50.218,27.02
50.234,18.19
50.250,6.85
50.265,-6.13
50.281,-19.56
50.296,-32.29
50.312,-43.78
50.328,-54.13
50.343,-63.89
50.359,-73.84
50.375,-84.59
50.390,-96.41
50.406,-108.98
50.421,-121.45
50.437,-132.44
50.453,-140.34
50.468,-143.67
50.484,-141.52
50.500,-133.83
50.515,-121.44
50.531,-105.78
50.546,-88.47
50.562,-70.92
50.578,-54.1
50.593,-38.53
50.609,-24.52
50.625,-12.21
50.640,-1.77
50.656,6.83
50.671,13.82
50.687,19.72
50.703,25.13
50.718,30.42
50.734,35.57
50.750,40.13
50.765,43.51
50.781,45.23
50.796,45.29
50.812,44.21
50.828,42.77
50.843,41.81
50.859,41.82
50.875,42.83
50.890,44.48
50.906,46.26
50.921,47.68
50.937,48.46
50.953,48.54
50.968,47.88
50.984,46.6
51.000,44.68
51.015,42.13
51.031,38.84
51.046,34.7
51.062,29.66
51.078,23.72
51.093,17.03
51.109,9.71
51.125,1.98
51.140,-6.04
51.156,-14.27
51.171,-22.78
51.187,-31.62
51.203,-40.84
51.218,-50.5
51.234,-60.62
51.250,-71.16
51.265,-81.78
51.281,-91.78
51.296,-99.95
51.312,-104.8
51.328,-104.98
51.343,-99.68
51.359,-89.03
51.375,-73.98
51.390,-56.12
51.406,-37.08
51.421,-18.19
51.437,-0.31
51.453,16.14
51.468,30.87
51.484,43.76
51.500,54.73
51.515,63.85
51.531,71.34
51.546,77.47
51.562,82.38
51.578,85.99
51.593,87.99
51.609,87.98
51.625,85.82
51.640,81.74
51.656,76.41
51.671,70.73
51.687,65.49
51.703,61.14
51.718,57.7
51.734,54.84
51.750,52.12
51.765,49.19
51.781,45.87
51.796,42.14
51.812,38.1
51.828,33.77
51.843,29.1
51.859,24.0
51.875,18.29
51.890,11.87
51.906,4.71
51.921,-3.08
51.937,-11.3
51.953,-19.64
51.968,-27.9
51.984,-35.97
52.000,-43.86
52.015,-51.74
52.031,-59.82
52.046,-68.24
52.062,-77.05
52.078,-86.01
52.093,-94.58
52.109,-101.93
52.125,-106.94
52.140,-108.49
52.156,-105.71
52.171,-98.3
52.187,-86.6
52.203,-71.56
52.218,-54.43
52.234,-36.48
52.250,-18.74
52.265,-1.91
52.281,13.57
52.296,27.41
52.312,39.37
52.328,49.37
52.343,57.39
52.359,63.57
52.375,68.17
52.390,71.36
52.406,73.27
52.421,73.86
52.437,73.13
52.453,71.08
52.468,67.97
52.484,64.16
52.500,60.11
52.515,56.23
52.531,52.75
52.546,49.64
52.562,46.71
52.578,43.6
52.593,40.02
52.609,35.77
52.625,30.81
52.640,25.16
52.656,18.89
52.671,12.07
52.687,4.67
52.703,-3.31
52.718,-11.8
52.734,-20.6
52.750,-29.37
52.765,-37.79
52.781,-45.67
52.796,-52.99
52.812,-59.96
52.828,-66.9
52.843,-74.11
52.859,-81.83
52.875,-90.18
52.890,-99.16
52.906,-108.56
52.921,-117.84
52.937,-125.92
52.953,-131.42
52.968,-132.83
52.984,-128.98
53.000,-119.44
53.015,-104.67
53.031,-85.92
53.046,-64.78
53.062,-42.8
53.078,-21.2
53.093,-0.78
53.109,17.91
53.125,34.57
53.140,48.99
53.156,61.12
53.171,71.1
53.187,79.23
53.203,85.85
53.218,91.18
53.234,95.19
53.250,97.69
53.265,98.45
53.281,97.34
53.296,94.58
53.312,90.62
53.328,86.1
53.343,81.61
53.359,77.52
53.375,73.91
53.390,70.62
53.406,67.37
53.421,63.84
53.437,59.84
53.453,55.28
53.468,50.14
53.484,44.51
53.500,38.5
53.515,32.25
53.531,25.85
53.546,19.38
53.562,12.76
53.578,5.88
53.593,-1.44
53.609,-9.28
53.625,-17.65
53.640,-26.33
53.656,-35.08
53.671,-43.67
53.687,-51.97
53.703,-60.06
53.718,-68.12
53.734,-76.4
53.750,-85.04
53.765,-93.95
53.781,-102.62
53.796,-110.1
53.812,-115.13
53.828,-116.47
53.843,-113.15
53.859,-104.85
53.875,-91.96
53.890,-75.49
53.906,-56.79
53.921,-37.22
53.937,-17.87
53.953,0.46
53.968,17.24
53.984,32.13
54.000,44.95
54.015,55.63
54.031,64.23
54.046,70.96
54.062,76.07
54.078,79.77
54.093,82.15
54.109,83.15
54.125,82.65
54.140,80.69
54.156,77.42
54.171,73.26
54.187,68.76
54.203,64.41
54.218,60.61
54.234,57.47
54.250,54.88
54.265,52.56
54.281,50.2
54.296,47.48
54.312,44.18
54.328,40.22
54.343,35.66
54.359,30.63
54.375,25.32
54.390,19.82
54.406,14.11
54.421,8.08
54.437,1.55
54.453,-5.53
54.468,-13.12
54.484,-20.97
54.500,-28.81
54.515,-36.44
54.531,-43.83
54.546,-51.1
54.562,-58.44
54.578,-66.1
54.593,-74.21
54.609,-82.74
54.625,-91.41
54.640,-99.54
54.656,-106.11
54.671,-109.84
54.687,-109.51
54.703,-104.34
54.718,-94.23
54.734,-79.88
54.750,-62.54
54.765,-43.72
54.781,-24.78
54.796,-6.82
54.812,9.49
54.828,23.75
54.843,35.8
54.859,45.72
54.875,53.79
54.890,60.36
54.906,65.84
54.921,70.44
54.937,74.17
54.953,76.8
54.968,78.04
54.984,77.66
55.000,75.71
55.015,72.53
55.031,68.65
55.046,64.62
55.062,60.87
55.078,57.6
55.093,54.78
55.109,52.24
55.125,49.75
55.140,47.1
55.156,44.16
55.171,40.79
55.187,36.92
55.203,32.55
55.218,27.71
55.234,22.56
55.250,17.22
55.265,11.73
55.281,6.0
55.296,-0.18
55.312,-6.95
55.328,-14.32
55.343,-22.02
55.359,-29.63
55.375,-36.73
55.390,-43.07
55.406,-48.79
55.421,-54.2
55.437,-59.76
55.453,-65.85
55.468,-72.65
55.484,-80.1
55.500,-87.91
55.515,-95.39
55.531,-101.55
55.546,-105.17
55.562,-105.07
55.578,-100.43
55.593,-91.15
55.609,-77.87
55.625,-61.79
55.640,-44.38
55.656,-26.95
55.671,-10.45
55.687,4.53
55.703,17.76
55.718,29.1
55.734,38.54
55.750,46.17
55.765,52.12
55.781,56.59
55.796,59.75
55.812,61.72
55.828,62.54
55.843,62.23
55.859,60.79
55.875,58.28
55.890,54.88
55.906,50.96
55.921,46.94
55.937,43.32
55.953,40.45
55.968,38.38
55.984,36.86
56.000,35.41
56.015,33.45
56.031,30.58
56.046,26.7
56.062,21.97
56.078,16.75
56.093,11.41
56.109,6.2
56.125,1.3
56.140,-3.32
56.156,-7.8
56.171,-12.37
56.187,-17.3
56.203,-22.71
56.218,-28.63
56.234,-34.9
56.250,-41.3
56.265,-47.59
56.281,-53.74
56.296,-59.92
56.312,-66.41
56.328,-73.5
56.343,-81.2
56.359,-89.12
56.375,-96.42
56.390,-101.95
56.406,-104.44
56.421,-102.93
56.437,-96.92
56.453,-86.57
56.468,-72.69
56.484,-56.49
56.500,-39.33
56.515,-22.38
56.531,-6.54
56.546,7.71
56.562,20.18
56.578,30.89
56.593,39.97
56.609,47.62
56.625,54.02
56.640,59.3
56.656,63.48
56.671,66.45
56.687,67.99
56.703,67.96
56.718,66.4
56.734,63.61
56.750,60.13
56.765,56.53
56.781,53.26
56.796,50.53
56.812,48.35
56.828,46.57
56.843,45.04
56.859,43.6
56.875,42.06
56.890,40.15
56.906,37.6
56.921,34.2
56.937,29.91
56.953,24.92
56.968,19.54
56.984,14.08
57.000,8.65
57.015,3.23
57.031,-2.42
57.046,-8.47
57.062,-14.94
57.078,-21.71
57.093,-28.56
57.109,-35.33
57.125,-41.91
57.140,-48.31
57.156,-54.64
57.171,-61.05
57.187,-67.76
57.203,-74.97
57.218,-82.8
57.234,-91.15
57.250,-99.5
57.265,-106.91
57.281,-112.08
57.296,-113.74
57.312,-110.93
57.328,-103.41
57.343,-91.62
57.359,-76.64
57.375,-59.8
57.390,-42.34
57.406,-25.26
57.421,-9.16
57.437,5.63
57.453,18.93
57.468,30.65
57.484,40.77
57.500,49.42
57.515,56.82
57.531,63.13
57.546,68.36
57.562,72.3
57.578,74.65
57.593,75.21
57.609,73.95
57.625,71.19
57.640,67.47
57.656,63.46
57.671,59.7
57.687,56.5
57.703,54.02
57.718,52.2
57.734,50.96
57.750,50.07
57.765,49.26
57.781,48.18
57.796,46.5
57.812,43.95
57.828,40.46
57.843,36.18
57.859,31.36
57.875,26.23
57.890,20.93
57.906,15.45
57.921,9.64
57.937,3.41
57.953,-3.29
57.968,-10.37
57.984,-17.66
58.000,-25.0
58.015,-32.28
58.031,-39.39
58.046,-46.28
58.062,-52.96
58.078,-59.49
58.093,-65.93
58.109,-72.43
58.125,-79.12
58.140,-86.18
58.156,-93.66
58.171,-101.41
58.187,-108.94
58.203,-115.35
58.218,-119.44
58.234,-119.91
58.250,-115.82
58.265,-106.83
58.281,-93.44
58.296,-76.79
58.312,-58.34
58.328,-39.43
58.343,-21.08
58.359,-3.88
58.375,11.82
58.390,25.82
58.406,38.05
58.421,48.53
58.437,57.4
58.453,64.89
58.468,71.16
58.484,76.2
58.500,79.89
58.515,82.02
58.531,82.46
58.546,81.29
58.562,78.85
58.578,75.57
58.593,71.97
58.609,68.5
58.625,65.45
58.640,62.99
58.656,61.16
58.671,59.84
58.687,58.84
58.703,57.96
58.718,56.89
58.734,55.39
58.750,53.2
58.765,50.08
58.781,45.87
58.796,40.57
58.812,34.32
58.828,27.39
58.843,20.16
58.859,12.92
58.875,5.86
58.890,-1.04
58.906,-7.93
58.921,-15.01
58.937,-22.39
58.953,-30.05
58.968,-37.78
58.984,-45.32
59.000,-52.46
59.015,-59.11
59.031,-65.44
59.046,-71.78
59.062,-78.57
59.078,-86.15
59.093,-94.56
59.109,-103.39
59.125,-111.7
59.140,-118.16
59.156,-121.34
59.171,-120.1
59.187,-113.86
59.203,-102.8
59.218,-87.69
59.234,-69.73
59.250,-50.27
59.265,-30.51
59.281,-11.44
59.296,6.23
59.312,22.02
59.328,35.68
59.343,47.12
59.359,56.4
59.375,63.74
59.390,69.33
59.406,73.39
59.421,76.05
59.437,77.37
59.453,77.32
59.468,75.94
59.484,73.35
59.500,69.85
59.515,65.93
59.531,62.12
59.546,58.94
59.562,56.58
59.578,55.0
59.593,53.89
59.609,52.74
59.625,51.09
59.640,48.58
59.656,45.05
59.671,40.54
59.687,35.26
59.703,29.44
59.718,23.38
59.734,17.26
59.750,11.16
59.765,5.03
59.781,-1.25
59.796,-7.8
59.812,-14.65
59.828,-21.74
59.843,-28.99
59.859,-36.29
59.875,-43.62
59.890,-51.0
59.906,-58.47
59.921,-66.07
59.937,-73.85
59.953,-81.91
59.968,-90.32
59.984,-98.94
