timestamp,value
00.000,24.32
00.015,22.7
00.031,21.47
00.046,20.46
00.062,19.7
00.078,19.17
00.093,18.87
00.109,18.75
00.125,18.62
00.140,18.1
00.156,16.81
00.171,14.42
00.187,10.81
00.203,6.21
00.218,1.15
00.234,-3.71
00.250,-7.86
00.265,-11.12
00.281,-13.68
00.296,-16.04
00.312,-18.73
00.328,-22.14
00.343,-26.4
00.359,-31.33
00.375,-36.47
00.390,-41.1
00.406,-44.42
00.421,-45.53
00.437,-43.77
00.453,-38.9
00.468,-31.22
00.484,-21.53
00.500,-10.97
00.515,-0.73
00.531,8.26
00.546,15.41
00.562,20.54
00.578,23.87
00.593,25.72
00.609,26.47
00.625,26.46
00.640,25.79
00.656,24.5
00.671,22.58
00.687,20.2
00.703,17.65
00.718,15.44
00.734,13.96
00.750,13.34
00.765,13.34
00.781,13.46
00.796,13.09
00.812,11.75
00.828,9.24
00.843,5.5
00.859,0.6
00.875,-5.48
00.890,-12.7
00.906,-20.97
00.921,-29.93
00.937,-38.99
00.953,-47.48
00.968,-54.7
00.984,-60.11
01.000,-63.42
01.015,-64.56
01.031,-63.65
01.046,-61.03
01.062,-57.36
01.078,-53.49
01.093,-50.47
01.109,-49.26
01.125,-50.43
01.140,-53.93
01.156,-59.03
01.171,-64.49
01.187,-68.86
01.203,-70.9
01.218,-69.81
01.234,-65.46
01.250,-58.26
01.265,-49.02
01.281,-38.59
01.296,-27.78
01.312,-17.23
01.328,-7.43
01.343,1.27
01.359,8.54
01.375,14.18
01.390,18.1
01.406,20.34
01.421,21.09
01.437,20.69
01.453,19.58
01.468,18.21
01.484,17.04
01.500,16.37
01.515,16.35
01.531,16.94
01.546,17.91
01.562,18.86
01.578,19.42
01.593,19.35
01.609,18.57
01.625,17.13
01.640,15.17
01.656,12.81
01.671,10.17
01.687,7.34
01.703,4.49
01.718,1.89
01.734,-0.21
01.750,-1.56
01.765,-2.13
01.781,-2.05
01.796,-1.64
01.812,-1.21
01.828,-0.99
01.843,-1.06
01.859,-1.38
01.875,-1.92
01.890,-2.66
01.906,-3.57
01.921,-4.42
01.937,-4.66
01.953,-3.41
01.968,0.38
01.984,7.56
02.000,18.38
02.015,32.36
02.031,48.25
02.046,64.45
02.062,79.48
02.078,92.37
02.093,102.9
02.109,111.59
02.125,119.46
02.140,127.77
02.156,137.72
02.171,150.12
02.187,165.03
02.203,181.43
02.218,197.09
02.234,208.75
02.250,212.96
02.265,207.03
02.281,190.04
02.296,163.12
02.312,128.99
02.328,90.88
02.343,51.57
02.359,12.77
02.375,-24.7
02.390,-60.28
02.406,-93.1
02.421,-121.76
02.437,-144.69
02.453,-160.78
02.468,-169.9
02.484,-172.95
02.500,-171.45
02.515,-166.93
02.531,-160.56
02.546,-152.98
02.562,-144.38
02.578,-134.72
02.593,-123.99
02.609,-112.27
02.625,-99.86
02.640,-87.34
02.656,-75.61
02.671,-66.11
02.687,-60.43
02.703,-59.58
02.718,-63.2
02.734,-69.11
02.750,-73.63
02.765,-72.81
02.781,-63.88
02.796,-46.6
02.812,-23.95
02.828,-1.39
02.843,14.72
02.859,19.34
02.875,10.48
02.890,-10.0
02.906,-37.06
02.921,-64.16
02.937,-85.2
02.953,-96.49
02.968,-97.29
02.984,-89.35
03.000,-75.42
03.015,-57.72
03.031,-37.23
03.046,-13.99
03.062,12.0
03.078,40.5
03.093,69.87
03.109,97.57
03.125,121.01
03.140,138.42
03.156,149.07
03.171,152.78
03.187,149.49
03.203,139.63
03.218,125.99
03.234,112.91
03.250,105.7
03.265,108.93
03.281,124.31
03.296,149.04
03.312,175.89
03.328,195.71
03.343,201.5
03.359,193.42
03.375,176.82
03.390,159.83
03.406,149.84
03.421,151.04
03.437,163.63
03.453,184.74
03.468,210.16
03.484,235.75
03.500,260.0
03.515,280.14
03.531,291.47
03.546,288.41
03.562,267.1
03.578,227.78
03.593,175.27
03.609,117.71
03.625,50.75
03.640,-21.89
03.656,-91.84
03.671,-149.72
03.687,-190.4
03.703,-214.57
03.718,-226.19
03.734,-229.4
03.750,-226.87
03.765,-220.26
03.781,-208.71
03.796,-192.27
03.812,-172.34
03.828,-151.16
03.843,-130.81
03.859,-112.27
03.875,-95.78
03.890,-80.77
03.906,-66.74
03.921,-51.95
03.937,-35.86
03.953,-19.32
03.968,-3.37
03.984,9.76
04.000,17.99
04.015,20.11
04.031,15.75
04.046,4.84
04.062,-10.98
04.078,-30.15
04.093,-51.5
04.109,-73.47
04.125,-94.54
04.140,-114.41
04.156,-133.21
04.171,-150.96
04.187,-167.72
04.203,-182.4
04.218,-193.49
04.234,-199.84
04.250,-203.99
04.265,-204.52
04.281,-201.43
04.296,-195.34
04.312,-186.8
04.328,-176.15
04.343,-162.58
04.359,-144.62
04.375,-121.3
04.390,-92.75
04.406,-60.25
04.421,-27.12
04.437,2.33
04.453,23.83
04.468,33.39
04.484,29.07
04.500,11.73
04.515,-14.64
04.531,-43.45
04.546,-67.01
04.562,-79.83
04.578,-80.21
04.593,-66.82
04.609,-43.04
04.625,-14.22
04.640,14.64
04.656,40.66
04.671,63.52
04.687,84.76
04.703,105.44
04.718,125.46
04.734,143.57
04.750,157.79
04.765,166.44
04.781,168.1
04.796,161.62
04.812,146.38
04.828,123.15
04.843,93.52
04.859,59.72
04.875,24.53
04.890,-9.4
04.906,-39.66
04.921,-63.57
04.937,-77.96
04.953,-79.03
04.968,-63.0
04.984,-29.58
05.000,16.15
05.015,64.28
05.031,102.74
05.046,121.34
05.062,115.68
05.078,88.92
05.093,48.09
05.109,7.16
05.125,-18.77
05.140,-21.8
05.156,-4.96
05.171,22.33
05.187,51.42
05.203,78.55
05.218,104.14
05.234,129.56
05.250,155.07
05.265,177.98
05.281,194.24
05.296,201.03
05.312,200.37
05.328,194.57
05.343,187.21
05.359,180.95
05.375,176.62
05.390,173.34
05.406,168.05
05.421,157.64
05.437,140.75
05.453,118.58
05.468,93.88
05.484,69.62
05.500,46.89
05.515,23.87
05.531,0.85
05.546,-23.84
05.562,-51.73
05.578,-82.79
05.593,-115.33
05.609,-146.72
05.625,-174.59
05.640,-197.89
05.656,-217.29
05.671,-234.79
05.687,-253.8
05.703,-278.03
05.718,-310.62
05.734,-352.82
05.750,-402.9
05.765,-455.41
05.781,-502.08
05.796,-534.22
05.812,-545.86
05.828,-536.45
05.843,-510.61
05.859,-476.29
05.875,-441.52
05.890,-411.52
05.906,-387.75
05.921,-368.82
05.937,-352.34
05.953,-336.61
05.968,-321.28
05.984,-305.98
06.000,-289.88
06.015,-271.63
06.031,-249.89
06.046,-223.95
06.062,-194.4
06.078,-162.49
06.093,-130.06
06.109,-98.6
06.125,-67.72
06.140,-36.28
06.156,-3.26
06.171,31.67
06.187,68.22
06.203,105.19
06.218,141.69
06.234,176.68
06.250,209.22
06.265,240.83
06.281,272.76
06.296,305.0
06.312,336.19
06.328,364.78
06.343,388.86
06.359,408.47
06.375,423.82
06.390,435.2
06.406,446.43
06.421,460.81
06.437,480.04
06.453,504.15
06.468,532.08
06.484,560.37
06.500,586.1
06.515,604.76
06.531,611.64
06.546,607.94
06.562,596.31
06.578,578.91
06.593,556.58
06.609,529.41
06.625,495.91
06.640,457.81
06.656,417.54
06.671,350.72
06.687,249.9
06.703,125.98
06.718,2.1
06.734,-101.73
06.750,-167.61
06.765,-205.65
06.781,-226.07
06.796,-236.24
06.812,-241.02
06.828,-242.23
06.843,-241.27
06.859,-241.39
06.875,-246.6
06.890,-258.65
06.906,-276.83
06.921,-294.44
06.937,-304.38
06.953,-300.43
06.968,-278.33
06.984,-243.5
07.000,-208.63
07.015,-185.21
07.031,-176.85
07.046,-180.33
07.062,-187.08
07.078,-191.28
07.093,-191.5
07.109,-187.0
07.125,-178.14
07.140,-165.08
07.156,-146.65
07.171,-120.78
07.187,-86.8
07.203,-45.2
07.218,-0.73
07.234,40.14
07.250,72.34
07.265,92.74
07.281,100.92
07.296,99.1
07.312,90.93
07.328,79.42
07.343,66.57
07.359,52.41
07.375,37.82
07.390,25.15
07.406,17.07
07.421,15.35
07.437,20.15
07.453,29.96
07.468,42.23
07.484,54.86
07.500,66.66
07.515,79.57
07.531,96.57
07.546,118.94
07.562,141.66
07.578,155.84
07.593,153.64
07.609,134.65
07.625,110.54
07.640,87.96
07.656,69.9
07.671,55.29
07.687,39.41
07.703,16.73
07.718,-16.51
07.734,-60.05
07.750,-109.37
07.765,-158.39
07.781,-203.21
07.796,-242.45
07.812,-277.86
07.828,-312.21
07.843,-346.23
07.859,-376.25
07.875,-394.72
07.890,-393.94
07.906,-370.89
07.921,-330.03
07.937,-280.5
07.953,-232.31
07.968,-191.98
07.984,-159.93
08.000,-131.08
08.015,-98.49
08.031,-58.2
08.046,-12.23
08.062,32.1
08.078,67.35
08.093,90.7
08.109,106.02
08.125,121.83
08.140,146.48
08.156,183.76
08.171,231.07
08.187,281.35
08.203,327.1
08.218,363.85
08.234,390.28
08.250,406.26
08.265,410.56
08.281,400.6
08.296,374.69
08.312,334.32
08.328,285.02
08.343,234.46
08.359,188.82
08.375,149.73
08.390,114.46
08.406,78.4
08.421,38.3
08.437,-5.62
08.453,-50.69
08.468,-94.38
08.484,-136.48
08.500,-179.93
08.515,-228.87
08.531,-284.77
08.546,-343.4
08.562,-394.88
08.578,-426.52
08.593,-428.01
08.609,-395.44
08.625,-332.05
08.640,-248.29
08.656,-159.32
08.671,-81.35
08.687,-28.03
08.703,-8.39
08.718,-24.33
08.734,-71.2
08.750,-138.43
08.765,-209.66
08.781,-268.75
08.796,-304.79
08.812,-314.81
08.828,-302.69
08.843,-276.5
08.859,-243.01
08.875,-206.99
08.890,-170.58
08.906,-130.79
08.921,-84.7
08.937,-32.34
08.953,22.97
08.968,77.51
08.984,128.57
09.000,177.82
09.015,227.75
09.031,280.11
09.046,339.77
09.062,409.86
09.078,488.6
09.093,568.89
09.109,640.98
09.125,694.23
09.140,723.46
09.156,727.83
09.171,685.5
09.187,591.78
09.203,464.55
09.218,336.3
09.234,233.43
09.250,173.57
09.265,142.02
09.281,123.89
09.296,109.45
09.312,92.76
09.328,71.05
09.343,45.22
09.359,16.43
09.375,-13.95
09.390,-42.94
09.406,-67.86
09.421,-85.41
09.437,-96.73
09.453,-109.15
09.468,-127.62
09.484,-152.9
09.500,-181.68
09.515,-208.39
09.531,-227.52
09.546,-236.84
09.562,-235.75
09.578,-226.86
09.593,-217.06
09.609,-209.85
09.625,-204.63
09.640,-198.78
09.656,-190.73
09.671,-181.15
09.687,-172.97
09.703,-168.19
09.718,-167.57
09.734,-174.29
09.750,-189.28
09.765,-211.18
09.781,-237.92
09.796,-268.43
09.812,-302.56
09.828,-339.6
09.843,-375.81
09.859,-385.16
09.875,-350.08
09.890,-271.44
09.906,-170.07
09.921,-72.09
09.937,5.97
09.953,61.03
09.968,98.85
09.984,124.91
10.000,145.71
10.015,158.82
10.031,158.94
10.046,143.54
10.062,115.77
10.078,82.87
10.093,52.45
10.109,31.81
10.125,23.98
10.140,28.48
10.156,38.9
10.171,48.43
10.187,53.24
10.203,53.51
10.218,51.48
10.234,49.47
10.250,48.83
10.265,49.95
10.281,53.83
10.296,60.28
10.312,69.75
10.328,83.3
10.343,101.33
10.359,121.56
10.375,139.22
10.390,148.39
10.406,144.21
10.421,125.34
10.437,93.62
10.453,54.27
10.468,14.21
10.484,-19.88
10.500,-44.09
10.515,-57.08
10.531,-59.73
10.546,-54.27
10.562,-43.49
10.578,-31.12
10.593,-20.74
10.609,-15.0
10.625,-10.73
10.640,-3.89
10.656,9.74
10.671,32.37
10.687,63.13
10.703,98.35
10.718,132.9
10.734,162.02
10.750,184.21
10.765,199.08
10.781,206.62
10.796,207.38
10.812,202.15
10.828,191.92
10.843,177.08
10.859,158.73
10.875,138.49
10.890,118.25
10.906,99.79
10.921,84.01
10.937,71.36
10.953,61.81
10.968,54.99
10.984,50.26
11.000,45.97
11.015,41.13
11.031,35.93
11.046,31.62
11.062,29.49
11.078,30.38
11.093,34.58
11.109,41.67
11.125,50.44
11.140,56.97
11.156,58.5
11.171,54.47
11.187,46.14
11.203,34.97
11.218,21.14
11.234,3.47
11.250,-20.23
11.265,-52.4
11.281,-98.48
11.296,-160.54
11.312,-236.32
11.328,-320.45
11.343,-407.46
11.359,-493.02
11.375,-572.95
11.390,-641.8
11.406,-692.79
11.421,-724.69
11.437,-736.83
11.453,-729.92
11.468,-706.49
11.484,-671.63
11.500,-631.13
11.515,-588.86
11.531,-545.99
11.546,-470.25
11.562,-352.93
11.578,-211.44
11.593,-79.01
11.609,18.86
11.625,75.51
11.640,98.71
11.656,101.28
11.671,94.47
11.687,85.33
11.703,71.13
11.718,52.67
11.734,33.88
11.750,20.69
11.765,18.1
11.781,28.09
11.796,49.59
11.812,79.5
11.828,113.8
11.843,148.64
11.859,179.68
11.875,203.52
11.890,217.63
11.906,219.99
11.921,209.21
11.937,185.2
11.953,149.53
11.968,105.43
11.984,60.87
12.000,24.57
12.015,3.22
12.031,0.03
12.046,15.34
12.062,48.16
12.078,96.99
12.093,159.98
12.109,235.0
12.125,326.13
12.140,435.47
12.156,559.81
12.171,689.9
12.187,813.54
12.203,919.66
12.218,1000.41
12.234,1051.5
12.250,1028.58
12.265,911.72
12.281,714.88
12.296,480.68
12.312,253.81
12.328,60.53
12.343,-92.43
12.359,-209.4
12.375,-295.35
12.390,-361.09
12.406,-403.97
12.421,-419.06
12.437,-405.28
12.453,-367.68
12.468,-314.55
12.484,-254.12
12.500,-192.82
12.515,-137.52
12.531,-94.76
12.546,-67.59
12.562,-58.73
12.578,-67.16
12.593,-86.41
12.609,-106.43
12.625,-119.32
12.640,-121.21
12.656,-118.18
12.671,-117.41
12.687,-119.77
12.703,-122.97
12.718,-123.48
12.734,-121.0
12.750,-115.03
12.765,-105.29
12.781,-93.96
12.796,-84.39
12.812,-81.83
12.828,-90.06
12.843,-109.43
12.859,-135.76
12.875,-162.45
12.890,-183.47
12.906,-196.36
12.921,-203.49
12.937,-209.45
12.953,-217.1
12.968,-225.72
12.984,-231.87
13.000,-231.27
13.015,-221.25
13.031,-201.46
13.046,-174.05
13.062,-143.16
13.078,-113.26
13.093,-87.41
13.109,-66.61
13.125,-49.55
13.140,-33.61
13.156,-16.23
13.171,4.67
13.187,30.2
13.203,60.45
13.218,94.67
13.234,130.3
13.250,161.67
13.265,180.55
13.281,177.99
13.296,147.87
13.312,91.41
13.328,18.54
13.343,-54.83
13.359,-112.16
13.375,-142.35
13.390,-143.55
13.406,-121.87
13.421,-87.55
13.437,-50.49
13.453,-15.5
13.468,18.12
13.484,53.06
13.500,90.64
13.515,129.37
13.531,165.71
13.546,197.57
13.562,224.92
13.578,248.3
13.593,269.73
13.609,291.17
13.625,312.09
13.640,329.59
13.656,339.68
13.671,339.11
13.687,327.97
13.703,307.28
13.718,275.24
13.734,231.03
13.750,176.51
13.765,115.37
13.781,53.56
13.796,-1.83
13.812,-44.76
13.828,-70.11
13.843,-77.34
13.859,-73.42
13.875,-65.14
13.890,-55.49
13.906,-44.9
13.921,-31.57
13.937,-12.37
13.953,1.37
13.968,1.94
13.984,6.54
14.000,18.58
14.015,25.34
14.031,18.69
14.046,-4.29
14.062,-39.73
14.078,-78.25
14.093,-109.47
14.109,-125.42
14.125,-125.69
14.140,-119.7
14.156,-116.37
14.171,-117.41
14.187,-117.78
14.203,-108.54
14.218,-82.84
14.234,-41.18
14.250,9.08
14.265,55.56
14.281,84.28
14.296,88.96
14.312,73.09
14.328,44.96
14.343,12.62
14.359,-19.34
14.375,-50.08
14.390,-79.22
14.406,-104.88
14.421,-124.18
14.437,-131.85
14.453,-122.55
14.468,-95.17
14.484,-53.52
14.500,-4.3
14.515,46.12
14.531,94.15
14.546,138.35
14.562,176.89
14.578,207.09
14.593,225.46
14.609,227.37
14.625,209.54
14.640,172.61
14.656,122.09
14.671,67.23
14.687,18.11
14.703,-17.41
14.718,-35.29
14.734,-35.5
14.750,-22.8
14.765,-4.48
14.781,12.82
14.796,25.48
14.812,33.17
14.828,37.25
14.843,39.14
14.859,39.4
14.875,38.45
14.890,35.03
14.906,27.56
14.921,16.5
14.937,5.39
14.953,0.42
14.968,8.3
14.984,33.92
15.000,78.09
15.015,137.41
15.031,201.49
15.046,255.03
15.062,283.27
15.078,277.4
15.093,237.35
15.109,171.02
15.125,91.21
15.140,3.8
15.156,-77.12
15.171,-136.45
15.187,-166.22
15.203,-168.29
15.218,-150.37
15.234,-120.28
15.250,-84.04
15.265,-46.43
15.281,-12.11
15.296,15.85
15.312,35.73
15.328,46.1
15.343,47.99
15.359,44.82
15.375,41.06
15.390,39.86
15.406,41.98
15.421,46.27
15.437,51.37
15.453,55.06
15.468,55.03
15.484,52.08
15.500,48.5
15.515,47.05
15.531,49.49
15.546,55.76
15.562,64.36
15.578,73.68
15.593,81.72
15.609,86.69
15.625,88.17
15.640,87.09
15.656,85.21
15.671,84.27
15.687,85.26
15.703,88.53
15.718,94.02
15.734,101.19
15.750,109.06
15.765,116.85
15.781,124.0
15.796,130.15
15.812,134.98
15.828,138.04
15.843,139.01
15.859,137.71
15.875,134.16
15.890,128.6
15.906,121.56
15.921,113.57
15.937,105.16
15.953,96.68
15.968,88.22
15.984,79.73
16.000,70.9
16.015,61.4
16.031,51.01
16.046,39.64
16.062,27.39
16.078,14.6
16.093,1.85
16.109,-9.94
16.125,-19.62
16.140,-25.94
16.156,-27.64
16.171,-23.63
16.187,-13.36
16.203,2.91
16.218,24.05
16.234,47.98
16.250,71.93
16.265,92.84
16.281,107.61
16.296,113.67
16.312,109.37
16.328,94.01
16.343,67.94
16.359,32.45
16.375,-10.47
16.390,-58.15
16.406,-107.36
16.421,-154.66
16.437,-196.68
16.453,-230.55
16.468,-254.97
16.484,-269.84
16.500,-276.14
16.515,-275.84
16.531,-271.54
16.546,-265.95
16.562,-261.25
16.578,-258.82
16.593,-259.32
16.609,-263.19
16.625,-270.12
16.640,-279.08
16.656,-288.52
16.671,-296.84
16.687,-303.02
16.703,-306.75
16.718,-308.17
16.734,-307.63
16.750,-306.18
16.765,-303.78
16.781,-299.39
16.796,-291.88
16.812,-281.28
16.828,-269.39
16.843,-259.28
16.859,-253.88
16.875,-254.69
16.890,-263.77
16.906,-279.62
16.921,-297.07
16.937,-309.55
16.953,-312.65
16.968,-306.2
16.984,-293.61
17.000,-279.74
17.015,-268.79
17.031,-269.07
17.046,-284.46
17.062,-313.07
17.078,-349.18
17.093,-387.48
17.109,-424.66
17.125,-457.66
17.140,-481.92
17.156,-491.69
17.171,-490.99
17.187,-482.14
17.203,-463.28
17.218,-430.63
17.234,-384.36
17.250,-331.46
17.265,-282.93
17.281,-249.39
17.296,-237.81
17.312,-262.09
17.328,-325.39
17.343,-416.57
17.359,-514.71
17.375,-599.6
17.390,-659.4
17.406,-690.43
17.421,-695.09
17.437,-603.56
17.453,-396.31
17.468,-113.83
17.484,168.21
17.500,392.57
17.515,543.01
17.531,629.78
17.546,671.09
17.562,682.73
17.578,676.4
17.593,647.78
17.609,596.29
17.625,530.77
17.640,464.28
17.656,411.19
17.671,377.9
17.687,363.88
17.703,365.17
17.718,378.3
17.734,391.32
17.750,397.86
17.765,400.32
17.781,407.45
17.796,427.96
17.812,465.79
17.828,522.01
17.843,589.27
17.859,660.06
17.875,719.78
17.890,756.09
17.906,762.81
17.921,740.99
17.937,696.62
17.953,637.3
17.968,571.03
17.984,504.54
18.000,442.71
18.015,384.13
18.031,326.16
18.046,267.82
18.062,210.66
18.078,157.36
18.093,109.52
18.109,66.94
18.125,27.83
18.140,-9.8
18.156,-48.91
18.171,-91.01
18.187,-135.13
18.203,-178.1
18.218,-215.98
18.234,-245.79
18.250,-266.17
18.265,-277.58
18.281,-281.53
18.296,-280.38
18.312,-276.63
18.328,-272.84
18.343,-271.72
18.359,-276.03
18.375,-288.03
18.390,-308.04
18.406,-333.49
18.421,-358.74
18.437,-377.17
18.453,-383.68
18.468,-377.18
18.484,-361.17
18.500,-342.07
18.515,-326.31
18.531,-317.66
18.546,-316.32
18.562,-319.72
18.578,-324.62
18.593,-328.74
18.609,-331.11
18.625,-331.52
18.640,-329.56
18.656,-324.19
18.671,-314.28
18.687,-299.34
18.703,-279.96
18.718,-257.68
18.734,-234.52
18.750,-211.93
18.765,-190.38
18.781,-169.21
18.796,-147.15
18.812,-123.06
18.828,-96.63
18.843,-68.54
18.859,-40.36
18.875,-13.93
18.890,9.45
18.906,29.37
18.921,46.45
18.937,61.75
18.953,76.26
18.968,90.42
18.984,104.1
19.000,116.78
19.015,127.98
19.031,137.72
19.046,146.55
19.062,155.28
19.078,164.39
19.093,173.69
19.109,182.25
19.125,188.76
19.140,192.23
19.156,192.46
19.171,190.45
19.187,188.09
19.203,187.45
19.218,189.99
19.234,195.94
19.250,204.5
19.265,214.34
19.281,224.4
19.296,234.42
19.312,245.09
19.328,257.66
19.343,273.46
19.359,293.61
19.375,318.97
19.390,349.87
19.406,385.5
19.421,423.37
19.437,458.42
19.453,483.97
19.468,493.66
19.484,483.87
19.500,455.33
19.515,412.55
19.531,361.43
19.546,306.6
19.562,250.23
19.578,192.5
19.593,133.94
19.609,77.7
19.625,29.58
19.640,-3.75
19.656,-17.92
19.671,-13.28
19.687,5.11
19.703,30.22
19.718,55.19
19.734,75.18
19.750,88.09
19.765,93.64
19.781,92.11
19.796,83.36
19.812,66.59
19.828,41.42
19.843,10.57
19.859,-21.93
19.875,-51.89
19.890,-75.92
19.906,-91.64
19.921,-97.63
19.937,-93.51
19.953,-79.83
19.968,-57.8
19.984,-25.43
20.000,17.75
20.015,69.1
20.031,122.9
20.046,172.82
20.062,214.2
20.078,244.69
20.093,263.52
20.109,270.6
20.125,271.63
20.140,270.82
20.156,269.33
20.171,266.0
20.187,260.34
20.203,254.33
20.218,251.2
20.234,252.91
20.250,258.72
20.265,272.92
20.281,296.44
20.296,325.96
20.312,355.63
20.328,381.43
20.343,403.99
20.359,427.42
20.375,455.54
20.390,442.23
20.406,360.59
20.421,212.54
20.437,28.35
20.453,-155.6
20.468,-315.53
20.484,-442.38
20.500,-536.5
20.515,-603.7
20.531,-652.09
20.546,-681.76
20.562,-692.57
20.578,-686.65
20.593,-668.84
20.609,-644.89
20.625,-620.74
20.640,-598.7
20.656,-580.05
20.671,-565.43
20.687,-548.9
20.703,-525.42
20.718,-493.65
20.734,-456.04
20.750,-416.93
20.765,-380.11
20.781,-347.67
20.796,-320.69
20.812,-299.09
20.828,-277.89
20.843,-251.93
20.859,-221.26
20.875,-187.58
20.890,-153.63
20.906,-121.83
20.921,-93.69
20.937,-70.47
20.953,-53.1
20.968,-40.31
20.984,-30.98
21.000,-24.97
21.015,-22.71
21.031,-24.91
21.046,-31.72
21.062,-42.34
21.078,-55.6
21.093,-70.12
21.109,-83.81
21.125,-94.9
21.140,-102.37
21.156,-105.61
21.171,-104.53
21.187,-99.22
21.203,-89.83
21.218,-76.63
21.234,-60.44
21.250,-42.32
21.265,-23.72
21.281,-6.27
21.296,8.72
21.312,20.28
21.328,28.08
21.343,32.36
21.359,33.94
21.375,33.67
21.390,32.47
21.406,31.02
21.421,29.81
21.437,29.35
21.453,30.22
21.468,33.04
21.484,38.34
21.500,46.32
21.515,56.56
21.531,68.0
21.546,79.09
21.562,88.24
21.578,94.28
21.593,96.91
21.609,96.79
21.625,95.32
21.640,94.46
21.656,96.26
21.671,102.62
21.687,114.52
21.703,131.28
21.718,150.37
21.734,167.64
21.750,178.55
21.765,179.98
21.781,171.64
21.796,156.48
21.812,139.67
21.828,126.72
21.843,121.57
21.859,125.92
21.875,139.5
21.890,160.73
21.906,187.54
21.921,217.3
21.937,246.52
21.953,270.78
21.968,285.45
21.984,286.9
22.000,273.64
22.015,247.21
22.031,211.64
22.046,172.52
22.062,135.68
22.078,105.71
22.093,85.24
22.109,74.65
22.125,72.2
22.140,74.59
22.156,77.57
22.171,76.79
22.187,69.14
22.203,53.87
22.218,33.23
22.234,12.14
22.250,-3.5
22.265,-9.2
22.281,-3.92
22.296,9.12
22.312,23.7
22.328,33.14
22.343,32.92
22.359,22.19
22.375,3.48
22.390,-18.92
22.406,-41.0
22.421,-60.13
22.437,-75.15
22.453,-85.61
22.468,-91.08
22.484,-90.91
22.500,-84.87
22.515,-73.69
22.531,-59.4
22.546,-45.1
22.562,-33.93
22.578,-28.03
22.593,-27.6
22.609,-30.85
22.625,-34.98
22.640,-37.29
22.656,-36.4
22.671,-32.55
22.687,-26.99
22.703,-21.05
22.718,-15.37
22.734,-9.71
22.750,-3.33
22.765,4.26
22.781,12.84
22.796,21.46
22.812,28.93
22.828,34.25
22.843,37.03
22.859,37.48
22.875,36.16
22.890,33.78
22.906,30.85
22.921,27.57
22.937,23.95
22.953,20.02
22.968,15.95
22.984,12.07
23.000,8.79
23.015,6.44
23.031,5.1
23.046,4.48
23.062,4.1
23.078,3.43
23.093,2.22
23.109,0.57
23.125,-1.32
23.140,-3.13
23.156,-4.6
23.171,-5.47
23.187,-5.51
23.203,-4.47
23.218,-2.28
23.234,1.39
23.250,6.66
23.265,13.54
23.281,21.72
23.296,30.78
23.312,40.25
23.328,49.62
23.343,58.61
23.359,67.16
23.375,76.25
23.390,86.71
23.406,98.69
23.421,111.16
23.437,122.56
23.453,131.49
23.468,137.19
23.484,139.81
23.500,139.83
23.515,139.22
23.531,139.06
23.546,138.94
23.562,137.21
23.578,132.26
23.593,123.7
23.609,112.65
23.625,101.31
23.640,91.58
23.656,87.03
23.671,89.57
23.687,98.59
23.703,111.25
23.718,124.19
23.734,135.29
23.750,144.18
23.765,152.49
23.781,161.61
23.796,175.22
23.812,194.94
23.828,219.08
23.843,242.98
23.859,261.47
23.875,271.14
23.890,271.09
23.906,263.59
23.921,228.84
23.937,156.72
23.953,51.04
23.968,-69.6
23.984,-181.92
24.000,-269.95
24.015,-329.65
24.031,-365.4
24.046,-382.38
24.062,-382.17
24.078,-363.17
24.093,-322.47
24.109,-259.93
24.125,-180.92
24.140,-96.0
24.156,-17.64
24.171,34.27
24.187,48.28
24.203,23.76
24.218,-27.15
24.234,-87.14
24.250,-142.3
24.265,-186.62
24.281,-221.42
24.296,-250.83
24.312,-279.02
24.328,-304.68
24.343,-323.69
24.359,-331.48
24.375,-326.3
24.390,-310.72
24.406,-290.43
24.421,-271.26
24.437,-256.67
24.453,-247.02
24.468,-239.17
24.484,-227.11
24.500,-207.93
24.515,-181.76
24.531,-151.38
24.546,-120.67
24.562,-92.81
24.578,-69.11
24.593,-49.08
24.609,-30.42
24.625,-11.27
24.640,8.74
24.656,28.86
24.671,47.71
24.687,63.97
24.703,76.99
24.718,86.79
24.734,93.64
24.750,98.02
24.765,100.01
24.781,99.07
24.796,94.9
24.812,87.74
24.828,78.21
24.843,67.08
24.859,54.92
24.875,41.9
24.890,28.03
24.906,13.36
24.921,-2.0
24.937,-17.24
24.953,-30.95
24.968,-41.43
24.984,-47.19
25.000,-47.45
25.015,-42.4
25.031,-33.28
25.046,-22.06
25.062,-11.08
25.078,-2.4
25.093,2.46
25.109,2.72
25.125,-1.6
25.140,-9.68
25.156,-20.09
25.171,-31.11
25.187,-41.13
25.203,-48.86
25.218,-53.47
25.234,-54.53
25.250,-52.17
25.265,-46.98
25.281,-40.04
25.296,-32.59
25.312,-25.67
25.328,-19.69
25.343,-14.43
25.359,-9.41
25.375,-4.37
25.390,0.33
25.406,3.87
25.421,5.5
25.437,5.37
25.453,4.55
25.468,4.71
25.484,7.21
25.500,12.34
25.515,19.25
25.531,26.32
25.546,31.94
25.562,35.05
25.578,35.44
25.593,33.57
25.609,30.23
25.625,26.2
25.640,22.25
25.656,18.9
25.671,16.51
25.687,15.12
25.703,14.37
25.718,13.7
25.734,12.37
25.750,9.72
25.765,5.39
25.781,-0.32
25.796,-6.51
25.812,-11.7
25.828,-14.12
25.843,-12.18
25.859,-4.83
25.875,8.28
25.890,26.84
25.906,49.68
25.921,74.67
25.937,98.69
25.953,117.97
25.968,128.95
25.984,129.37
26.000,118.94
26.015,99.14
26.031,72.4
26.046,40.93
26.062,6.23
26.078,-30.5
26.093,-67.44
26.109,-101.66
26.125,-129.76
26.140,-149.14
26.156,-159.4
26.171,-162.54
26.187,-161.84
26.203,-160.22
26.218,-158.9
26.234,-157.25
26.250,-153.84
26.265,-147.79
26.281,-139.24
26.296,-129.06
26.312,-117.81
26.328,-104.8
26.343,-88.26
26.359,-66.33
26.375,-38.31
26.390,-5.39
26.406,29.25
26.421,61.64
26.437,88.18
26.453,106.63
26.468,116.43
26.484,118.37
26.500,114.09
26.515,105.4
26.531,94.17
26.546,82.25
26.562,71.53
26.578,63.62
26.593,59.53
26.609,59.28
26.625,61.91
26.640,65.98
26.656,69.94
26.671,72.65
26.687,73.5
26.703,72.45
26.718,69.87
26.734,66.52
26.750,63.56
26.765,62.28
26.781,63.9
26.796,69.04
26.812,77.44
26.828,87.92
26.843,98.8
26.859,108.39
26.875,115.47
26.890,119.56
26.906,120.7
26.921,119.19
26.937,115.18
26.953,108.53
26.968,98.88
26.984,86.07
27.000,70.43
27.015,53.01
27.031,35.33
27.046,19.03
27.062,5.22
27.078,-5.75
27.093,-14.3
27.109,-21.19
27.125,-27.09
27.140,-32.23
27.156,-36.29
27.171,-38.7
27.187,-38.74
27.203,-35.83
27.218,-29.58
27.234,-19.84
27.250,-6.89
27.265,8.45
27.281,24.7
27.296,39.71
27.312,50.89
27.328,55.64
27.343,52.03
27.359,39.5
27.375,19.19
27.390,-6.22
27.406,-33.28
27.421,-58.62
27.437,-79.83
27.453,-95.84
27.468,-106.81
27.484,-113.62
27.500,-117.17
27.515,-117.89
27.531,-115.73
27.546,-110.43
27.562,-102.0
27.578,-91.27
27.593,-80.1
27.609,-71.23
27.625,-67.65
27.640,-71.6
27.656,-83.61
27.671,-102.1
27.687,-123.43
27.703,-143.0
27.718,-156.5
27.734,-161.25
27.750,-157.02
27.765,-146.1
27.781,-132.63
27.796,-121.3
27.812,-115.77
27.828,-117.11
27.843,-123.13
27.859,-128.61
27.875,-126.6
27.890,-110.69
27.906,-77.28
27.921,-27.13
27.937,34.3
27.953,98.1
27.968,154.65
27.984,196.54
28.000,220.86
28.015,229.68
28.031,228.62
28.046,224.25
28.062,221.69
28.078,223.37
28.093,229.36
28.109,238.49
28.125,249.43
28.140,261.11
28.156,272.28
28.171,280.89
28.187,283.89
28.203,277.69
28.218,259.48
28.234,228.37
28.250,185.83
28.265,135.49
28.281,82.01
28.296,29.48
28.312,-19.8
28.328,-65.88
28.343,-110.6
28.359,-156.23
28.375,-203.61
28.390,-250.85
28.406,-292.97
28.421,-323.0
28.437,-334.01
28.453,-321.27
28.468,-284.15
28.484,-226.71
28.500,-156.92
28.515,-84.53
28.531,-18.12
28.546,37.56
28.562,82.74
28.578,121.83
28.593,160.67
28.609,203.79
28.625,252.64
28.640,305.27
28.656,357.35
28.671,403.8
28.687,440.02
28.703,462.38
28.718,468.39
28.734,456.57
28.750,426.89
28.765,381.48
28.781,324.74
28.796,262.71
28.812,201.64
28.828,146.63
28.843,100.58
28.859,64.14
28.875,35.6
28.890,12.46
28.906,-7.47
28.921,-25.4
28.937,-41.27
28.953,-53.94
28.968,-61.52
28.984,-62.17
29.000,-54.72
29.015,-41.21
29.031,-25.03
29.046,-9.72
29.062,2.18
29.078,9.81
29.093,13.86
29.109,16.02
29.125,18.33
29.140,22.36
29.156,24.54
29.171,20.21
29.187,5.48
29.203,-21.06
29.218,-57.88
29.234,-101.4
29.250,-147.11
29.265,-190.56
29.281,-228.29
29.296,-264.91
29.312,-306.46
29.328,-357.29
29.343,-418.09
29.359,-486.41
29.375,-559.14
29.390,-634.39
29.406,-710.64
29.421,-784.94
29.437,-859.15
29.453,-931.19
29.468,-994.37
29.484,-1040.16
29.500,-1063.6
29.515,-1067.6
29.531,-1062.68
29.546,-1060.43
29.562,-1017.77
29.578,-903.74
29.593,-709.3
29.609,-456.98
29.625,-188.69
29.640,57.56
29.656,261.21
29.671,418.21
29.687,536.03
29.703,626.54
29.718,692.42
29.734,731.49
29.750,742.39
29.765,727.37
29.781,692.65
29.796,646.73
29.812,596.95
29.828,548.95
29.843,505.28
29.859,459.39
29.875,401.15
29.890,323.15
29.906,223.75
29.921,107.05
29.937,-14.05
29.953,-126.5
29.968,-218.56
29.984,-283.1
30.000,-307.67
30.015,-289.67
30.031,-236.35
30.046,-163.59
30.062,-88.37
30.078,-21.6
30.093,32.66
30.109,77.0
30.125,114.21
30.140,143.32
30.156,160.16
30.171,160.36
30.187,140.89
30.203,102.75
30.218,50.41
30.234,-10.43
30.250,-70.76
30.265,-124.13
30.281,-164.85
30.296,-189.01
30.312,-186.1
30.328,-149.08
30.343,-80.66
30.359,5.08
30.375,91.38
30.390,177.55
30.406,266.83
30.421,363.69
30.437,459.52
30.453,547.17
30.468,619.67
30.484,672.28
30.500,703.49
30.515,689.58
30.531,623.49
30.546,515.35
30.562,388.15
30.578,263.59
30.593,155.66
30.609,67.76
30.625,-2.37
30.640,-58.47
30.656,-103.79
30.671,-136.58
30.687,-157.04
30.703,-167.77
30.718,-173.64
30.734,-177.04
30.750,-178.26
30.765,-177.04
30.781,-171.78
30.796,-162.5
30.812,-148.69
30.828,-133.74
30.843,-123.41
30.859,-123.48
30.875,-134.84
30.890,-153.39
30.906,-171.77
30.921,-182.04
30.937,-178.78
30.953,-158.69
30.968,-123.62
30.984,-77.45
31.000,-32.24
31.015,-0.01
31.031,12.75
31.046,6.86
31.062,-11.48
31.078,-34.45
31.093,-54.44
31.109,-68.71
31.125,-76.52
31.140,-78.4
31.156,-74.12
31.171,-62.34
31.187,-42.12
31.203,-13.99
31.218,20.06
31.234,56.99
31.250,93.5
31.265,127.55
31.281,157.87
31.296,179.99
31.312,190.42
31.328,187.69
31.343,172.59
31.359,147.7
31.375,116.1
31.390,80.52
31.406,43.25
31.421,6.02
31.437,-29.49
31.453,-61.3
31.468,-87.62
31.484,-107.92
31.500,-123.06
31.515,-134.74
31.531,-144.58
31.546,-154.54
31.562,-164.62
31.578,-173.38
31.593,-177.91
31.609,-174.89
31.625,-161.73
31.640,-137.22
31.656,-101.93
31.671,-58.03
31.687,-8.94
31.703,40.07
31.718,84.05
31.734,119.98
31.750,146.8
31.765,164.87
31.781,175.55
31.796,181.0
31.812,183.67
31.828,185.91
31.843,188.43
31.859,188.97
31.875,182.59
31.890,163.5
31.906,128.29
31.921,78.76
31.937,22.48
31.953,-30.05
31.968,-69.44
31.984,-91.14
32.000,-97.07
32.015,-93.47
32.031,-87.28
32.046,-82.99
32.062,-81.78
32.078,-82.67
32.093,-84.29
32.109,-85.28
32.125,-83.99
32.140,-78.06
32.156,-64.5
32.171,-41.22
32.187,-8.81
32.203,28.89
32.218,65.75
32.234,95.65
32.250,115.23
32.265,124.57
32.281,126.22
32.296,123.92
32.312,120.62
32.328,117.21
32.343,112.15
32.359,103.22
32.375,86.46
32.390,59.63
32.406,25.72
32.421,-10.19
32.437,-42.03
32.453,-64.99
32.468,-77.5
32.484,-81.41
32.500,-80.2
32.515,-76.41
32.531,-69.36
32.546,-55.96
32.562,-34.6
32.578,-7.58
32.593,18.37
32.609,35.31
32.625,38.33
32.640,28.62
32.656,12.59
32.671,-1.49
32.687,-8.15
32.703,-7.98
32.718,-6.31
32.734,-9.46
32.750,-20.37
32.765,-36.88
32.781,-53.19
32.796,-63.01
32.812,-63.48
32.828,-55.44
32.843,-42.18
32.859,-26.93
32.875,-11.72
32.890,3.35
32.906,19.19
32.921,36.51
32.937,54.93
32.953,72.76
32.968,87.74
32.984,97.61
33.000,101.22
33.015,98.45
33.031,90.24
33.046,78.01
33.062,63.11
33.078,46.65
33.093,29.37
33.109,11.94
33.125,-5.07
33.140,-20.9
33.156,-34.6
33.171,-45.23
33.187,-52.22
33.203,-55.61
33.218,-55.96
33.234,-54.38
33.250,-51.98
33.265,-49.52
33.281,-47.41
33.296,-45.62
33.312,-43.95
33.328,-42.11
33.343,-40.17
33.359,-38.04
33.375,-36.09
33.390,-34.53
33.406,-33.38
33.421,-32.7
33.437,-32.38
33.453,-32.84
33.468,-33.81
33.484,-35.35
33.500,-37.22
33.515,-39.31
33.531,-41.31
33.546,-42.72
33.562,-43.13
33.578,-41.92
33.593,-39.46
33.609,-35.58
33.625,-30.68
33.640,-25.38
33.656,-20.5
33.671,-16.83
33.687,-14.46
33.703,-14.75
33.718,-18.04
33.734,-24.55
33.750,-33.97
33.765,-46.48
33.781,-60.38
33.796,-73.66
33.812,-84.08
33.828,-89.45
33.843,-88.16
33.859,-78.93
33.875,-61.76
33.890,-37.63
33.906,-7.73
33.921,24.7
33.937,57.13
33.953,87.68
33.968,114.95
33.984,137.45
34.000,154.35
34.015,164.3
34.031,165.93
34.046,158.37
34.062,141.39
34.078,116.42
34.093,86.0
34.109,53.41
34.125,21.71
34.140,-6.7
34.156,-30.91
34.171,-51.18
34.187,-67.95
34.203,-82.28
34.218,-95.08
34.234,-107.29
34.250,-119.38
34.265,-130.97
34.281,-139.74
34.296,-141.91
34.312,-134.4
34.328,-115.04
34.343,-85.57
34.359,-51.23
34.375,-19.01
34.390,5.46
34.406,19.68
34.421,24.86
34.437,24.49
34.453,21.79
34.468,18.53
34.484,14.46
34.500,8.69
34.515,0.76
34.531,-8.84
34.546,-19.14
34.562,-29.56
34.578,-40.12
34.593,-51.63
34.609,-64.47
34.625,-78.49
34.640,-92.08
34.656,-102.91
34.671,-108.45
34.687,-106.97
34.703,-98.06
34.718,-82.45
34.734,-61.61
34.750,-36.91
34.765,-9.53
34.781,19.67
34.796,49.75
34.812,79.16
34.828,106.07
34.843,128.35
34.859,144.51
34.875,153.85
34.890,157.08
34.906,155.79
34.921,151.7
34.937,147.02
34.953,142.64
34.968,139.46
34.984,137.88
35.000,137.34
35.015,135.63
35.031,129.14
35.046,114.12
35.062,88.39
35.078,53.28
35.093,13.6
35.109,-23.87
35.125,-53.17
35.140,-71.3
35.156,-78.86
35.171,-79.0
35.187,-75.34
35.203,-70.42
35.218,-65.45
35.234,-60.84
35.250,-57.19
35.265,-55.81
35.281,-58.26
35.296,-65.01
35.312,-74.21
35.328,-81.47
35.343,-81.1
35.359,-68.43
35.375,-42.39
35.390,-6.61
35.406,31.53
35.421,63.83
35.437,84.76
35.453,93.6
35.468,93.92
35.484,91.22
35.500,89.59
35.515,90.38
35.531,92.45
35.546,94.04
35.562,94.59
35.578,95.42
35.593,99.01
35.609,107.11
35.625,120.01
35.640,134.58
35.656,146.98
35.671,153.78
35.687,153.18
35.703,145.54
35.718,132.8
35.734,117.45
35.750,100.66
35.765,84.82
35.781,70.65
35.796,58.35
35.812,47.34
35.828,35.91
35.843,21.45
35.859,1.37
35.875,-25.17
35.890,-56.48
35.906,-87.98
35.921,-114.29
35.937,-131.31
35.953,-137.97
35.968,-136.27
35.984,-129.9
36.000,-122.54
36.015,-116.33
36.031,-112.1
36.046,-109.77
36.062,-109.4
36.078,-111.15
36.093,-114.96
36.109,-119.87
36.125,-123.73
36.140,-124.89
36.156,-121.76
36.171,-114.3
36.187,-103.9
36.203,-92.4
36.218,-81.54
36.234,-71.76
36.250,-63.02
36.265,-54.54
36.281,-46.05
36.296,-37.98
36.312,-31.44
36.328,-27.8
36.343,-27.93
36.359,-32.54
36.375,-41.11
36.390,-51.56
36.406,-60.17
36.421,-62.02
36.437,-52.05
36.453,-27.32
36.468,11.15
36.484,57.4
36.500,101.43
36.515,132.24
36.531,141.58
36.546,127.08
36.562,93.24
36.578,50.03
36.593,9.08
36.609,-20.2
36.625,-33.27
36.640,-30.83
36.656,-17.53
36.671,0.32
36.687,16.51
36.703,26.69
36.718,27.85
36.734,18.35
36.750,-2.09
36.765,-31.34
36.781,-64.02
36.796,-91.65
36.812,-104.86
36.828,-97.24
36.843,-68.26
36.859,-25.36
36.875,18.35
36.890,49.0
36.906,57.49
36.921,43.07
36.937,12.96
36.953,-21.65
36.968,-50.68
36.984,-68.94
37.000,-76.79
37.015,-78.06
37.031,-76.71
37.046,-75.07
37.062,-73.74
37.078,-72.67
37.093,-72.89
37.109,-77.23
37.125,-89.79
37.140,-113.64
37.156,-148.8
37.171,-190.79
37.187,-230.97
37.203,-258.52
37.218,-263.39
37.234,-240.47
37.250,-191.84
37.265,-125.97
37.281,-54.47
37.296,12.21
37.312,67.71
37.328,110.09
37.343,140.21
37.359,160.71
37.375,172.76
37.390,175.57
37.406,167.63
37.421,148.8
37.437,121.63
37.453,90.66
37.468,60.65
37.484,34.96
37.500,17.36
37.515,9.36
37.531,10.14
37.546,17.03
37.562,27.09
37.578,38.45
37.593,50.58
37.609,63.44
37.625,76.85
37.640,93.6
37.656,116.02
37.671,145.01
37.687,179.64
37.703,218.44
37.718,260.81
37.734,307.18
37.750,358.4
37.765,393.87
37.781,398.12
37.796,366.77
37.812,309.66
37.828,242.79
37.843,178.72
37.859,123.28
37.875,77.33
37.890,39.29
37.906,6.94
37.921,-18.53
37.937,-35.88
37.953,-45.21
37.968,-48.81
37.984,-49.97
38.000,-51.41
38.015,-54.51
38.031,-59.61
38.046,-66.52
38.062,-72.38
38.078,-74.73
38.093,-72.69
38.109,-67.48
38.125,-61.37
38.140,-56.31
38.156,-53.2
38.171,-52.05
38.187,-52.47
38.203,-52.37
38.218,-50.08
38.234,-45.12
38.250,-38.53
38.265,-32.05
38.281,-27.01
38.296,-23.79
38.312,-21.91
38.328,-20.46
38.343,-17.88
38.359,-13.12
38.375,-6.36
38.390,0.95
38.406,6.89
38.421,10.13
38.437,10.68
38.453,10.13
38.468,10.87
38.484,15.18
38.500,23.39
38.515,33.35
38.531,40.74
38.546,41.19
38.562,32.22
38.578,14.54
38.593,-8.17
38.609,-30.97
38.625,-49.38
38.640,-60.55
38.656,-63.08
38.671,-57.04
38.687,-43.73
38.703,-25.89
38.718,-7.76
38.734,5.72
38.750,10.33
38.765,4.97
38.781,-7.12
38.796,-19.02
38.812,-23.58
38.828,-17.18
38.843,-2.11
38.859,14.34
38.875,23.32
38.890,19.05
38.906,1.66
38.921,-23.21
38.937,-47.49
38.953,-64.77
38.968,-72.61
38.984,-72.51
39.000,-67.89
39.015,-61.58
39.031,-54.48
39.046,-45.95
39.062,-35.55
39.078,-24.07
39.093,-13.84
39.109,-7.29
39.125,-5.86
39.140,-9.33
39.156,-15.87
39.171,-22.84
39.187,-28.0
39.203,-30.5
39.218,-30.67
39.234,-29.79
39.250,-29.03
39.265,-28.72
39.281,-28.31
39.296,-26.99
39.312,-23.95
39.328,-19.2
39.343,-13.51
39.359,-8.09
39.375,-4.11
39.390,-2.19
39.406,-2.22
39.421,-3.57
39.437,-6.19
39.453,-10.31
39.468,-16.64
39.484,-26.02
39.500,-38.63
39.515,-53.65
39.531,-69.32
39.546,-83.27
39.562,-93.48
39.578,-99.69
39.593,-102.86
39.609,-105.01
39.625,-108.91
39.640,-117.42
39.656,-132.64
39.671,-155.24
39.687,-184.39
39.703,-212.29
39.718,-232.35
39.734,-238.76
39.750,-228.44
39.765,-202.55
39.781,-166.18
39.796,-126.2
39.812,-88.42
39.828,-55.58
39.843,-27.27
39.859,-2.33
39.875,20.1
39.890,39.52
39.906,54.38
39.921,63.53
39.937,67.71
39.953,69.59
39.968,72.88
39.984,80.73
40.000,94.21
40.015,112.77
40.031,134.37
40.046,155.66
40.062,172.24
40.078,179.15
40.093,172.1
40.109,149.12
40.125,111.77
40.140,64.77
40.156,14.83
40.171,-32.06
40.187,-72.81
40.203,-107.86
40.218,-139.62
40.234,-169.64
40.250,-196.4
40.265,-215.0
40.281,-219.44
40.296,-205.75
40.312,-174.44
40.328,-130.82
40.343,-82.92
40.359,-38.26
40.375,-1.07
40.390,28.62
40.406,53.63
40.421,76.96
40.437,99.74
40.453,120.78
40.468,137.89
40.484,150.01
40.500,158.61
40.515,167.75
40.531,181.97
40.546,203.69
40.562,231.1
40.578,257.49
40.593,273.39
40.609,270.12
40.625,243.18
40.640,193.89
40.656,128.69
40.671,56.5
40.687,-13.71
40.703,-74.37
40.718,-119.72
40.734,-145.23
40.750,-147.62
40.765,-125.92
40.781,-82.7
40.796,-24.65
40.812,38.58
40.828,96.8
40.843,142.47
40.859,171.83
40.875,185.29
40.890,186.2
40.906,179.32
40.921,169.74
40.937,162.47
40.953,162.13
40.968,172.43
40.984,194.88
41.000,227.23
41.015,263.05
41.031,292.84
41.046,306.81
41.062,298.56
41.078,267.46
41.093,218.75
41.109,161.23
41.125,103.59
41.140,51.41
41.156,6.11
41.171,-34.05
41.187,-71.96
41.203,-109.62
41.218,-147.31
41.234,-183.58
41.250,-215.8
41.265,-240.82
41.281,-255.33
41.296,-256.29
41.312,-241.6
41.328,-210.45
41.343,-163.14
41.359,-100.99
41.375,-26.33
41.390,57.22
41.406,143.69
41.421,224.41
41.437,288.96
41.453,327.83
41.468,335.89
41.484,314.79
41.500,272.84
41.515,221.93
41.531,173.36
41.546,134.22
41.562,106.22
41.578,86.61
41.593,70.93
41.609,55.08
41.625,35.89
41.640,10.66
41.656,-23.11
41.671,-67.06
41.687,-120.08
41.703,-176.84
41.718,-228.27
41.734,-264.18
41.750,-277.47
41.765,-267.83
41.781,-242.55
41.796,-214.2
41.812,-195.93
41.828,-196.7
41.843,-218.51
41.859,-257.0
41.875,-304.33
41.890,-352.52
41.906,-395.42
41.921,-428.83
41.937,-449.63
41.953,-455.02
41.968,-442.89
41.984,-413.19
42.000,-368.53
42.015,-313.9
42.031,-255.19
42.046,-196.98
42.062,-141.25
42.078,-88.03
42.093,-36.54
42.109,13.19
42.125,59.25
42.140,98.26
42.156,126.43
42.171,141.17
42.187,142.58
42.203,134.36
42.218,123.14
42.234,116.82
42.250,122.29
42.265,142.92
42.281,177.23
42.296,219.21
42.312,260.24
42.328,291.97
42.343,308.88
42.359,309.84
42.375,297.57
42.390,276.9
42.406,252.51
42.421,227.1
42.437,200.96
42.453,172.84
42.468,141.63
42.484,107.4
42.500,72.31
42.515,40.18
42.531,15.09
42.546,0.11
42.562,-3.45
42.578,3.87
42.593,20.03
42.609,41.97
42.625,65.96
42.640,88.23
42.656,105.38
42.671,114.63
42.687,114.19
42.703,103.67
42.718,84.32
42.734,58.64
42.750,30.08
42.765,2.55
42.781,-19.9
42.796,-33.23
42.812,-33.48
42.828,-17.31
42.843,16.69
42.859,66.45
42.875,125.85
42.890,185.6
42.906,235.93
42.921,269.77
42.937,284.85
42.953,283.53
42.968,270.78
42.984,251.03
43.000,226.28
43.015,196.28
43.031,160.46
43.046,119.68
43.062,76.92
43.078,36.27
43.093,1.0
43.109,-27.92
43.125,-52.01
43.140,-74.15
43.156,-96.9
43.171,-121.42
43.187,-147.51
43.203,-174.04
43.218,-199.94
43.234,-224.77
43.250,-248.91
43.265,-272.92
43.281,-297.04
43.296,-320.83
43.312,-343.39
43.328,-363.64
43.343,-380.94
43.359,-395.39
43.375,-408.07
43.390,-420.2
43.406,-431.76
43.421,-440.25
43.437,-440.84
43.453,-428.03
43.468,-398.2
43.484,-351.57
43.500,-292.54
43.515,-228.95
43.531,-169.66
43.546,-121.66
43.562,-88.19
43.578,-68.62
43.593,-59.76
43.609,-57.61
43.625,-57.92
43.640,-56.16
43.656,-48.74
43.671,-34.08
43.687,-12.2
43.703,16.08
43.718,49.41
43.734,85.33
43.750,119.77
43.765,148.18
43.781,168.01
43.796,178.7
43.812,181.33
43.828,178.44
43.843,172.92
43.859,165.69
43.875,154.19
43.890,133.75
43.906,101.88
43.921,62.87
43.937,26.56
43.953,4.06
43.968,3.98
43.984,29.42
44.000,76.69
44.015,136.37
44.031,193.48
44.046,226.26
44.062,224.12
44.078,196.4
44.093,160.5
44.109,128.14
44.125,102.47
44.140,81.4
44.156,61.74
44.171,41.95
44.187,23.44
44.203,10.35
44.218,5.49
44.234,7.48
44.250,11.86
44.265,13.85
44.281,10.42
44.296,1.0
44.312,-12.94
44.328,-28.35
44.343,-41.1
44.359,-48.5
44.375,-51.21
44.390,-52.05
44.406,-53.81
44.421,-57.94
44.437,-64.09
44.453,-70.54
44.468,-74.68
44.484,-73.83
44.500,-66.74
44.515,-54.77
44.531,-40.86
44.546,-27.74
44.562,-17.17
44.578,-8.95
44.593,-2.24
44.609,4.46
44.625,12.61
44.640,22.84
44.656,34.32
44.671,45.43
44.687,54.67
44.703,61.04
44.718,65.14
44.734,67.94
44.750,70.78
44.765,75.22
44.781,82.75
44.796,94.19
44.812,109.84
44.828,129.68
44.843,147.76
44.859,160.34
44.875,164.59
44.890,159.52
44.906,146.34
44.921,128.13
44.937,108.51
44.953,90.17
44.968,74.09
44.984,59.6
45.000,46.17
45.015,33.29
45.031,20.93
45.046,9.44
45.062,-0.99
45.078,-10.59
45.093,-20.15
45.109,-30.58
45.125,-42.49
45.140,-55.25
45.156,-67.88
45.171,-79.25
45.187,-88.45
45.203,-95.08
45.218,-99.36
45.234,-101.84
45.250,-103.11
45.265,-103.59
45.281,-102.86
45.296,-100.35
45.312,-95.49
45.328,-87.89
45.343,-77.53
45.359,-64.79
45.375,-50.32
45.390,-34.9
45.406,-19.39
45.421,-4.48
45.437,9.16
45.453,20.92
45.468,30.42
45.484,37.52
45.500,42.38
45.515,45.38
45.531,47.11
45.546,48.18
45.562,49.17
45.578,50.41
45.593,51.99
45.609,53.67
45.625,55.04
45.640,55.59
45.656,54.86
45.671,52.58
45.687,48.72
45.703,43.56
45.718,37.47
45.734,30.91
45.750,24.27
45.765,17.87
45.781,11.88
45.796,6.36
45.812,1.29
45.828,-3.4
45.843,-7.74
45.859,-11.77
45.875,-15.56
45.890,-19.26
45.906,-22.96
45.921,-26.74
45.937,-30.43
45.953,-33.72
45.968,-36.21
45.984,-37.51
46.000,-37.43
46.015,-36.01
46.031,-33.48
46.046,-30.13
46.062,-26.21
46.078,-21.96
46.093,-17.54
46.109,-13.22
46.125,-9.25
46.140,-5.89
46.156,-3.29
46.171,-1.5
46.187,-0.45
46.218,-0.05
46.234,-0.5
46.250,-1.28
46.265,-2.28
46.281,-3.38
46.296,-4.47
46.312,-5.43
46.328,-6.25
46.343,-7.05
46.359,-8.04
46.375,-9.52
46.390,-11.79
46.406,-15.01
46.421,-19.13
46.437,-24.01
46.453,-29.31
46.468,-34.76
46.484,-40.12
46.500,-45.22
46.515,-49.92
46.531,-53.98
46.546,-57.04
46.562,-58.65
46.578,-58.43
46.593,-56.11
46.609,-51.71
46.625,-45.51
46.640,-37.95
46.656,-29.52
46.671,-20.59
46.687,-11.45
46.703,-2.42
46.718,6.09
46.734,13.5
46.750,19.11
46.765,22.31
46.781,22.8
46.796,20.59
46.812,16.13
46.828,10.06
46.843,2.91
46.859,-4.84
46.875,-12.86
46.890,-20.85
46.906,-28.37
46.921,-34.77
46.937,-39.41
46.953,-41.75
46.968,-41.66
46.984,-39.48
47.000,-35.83
47.015,-31.52
47.031,-27.21
47.046,-23.37
47.062,-20.12
47.078,-17.53
47.093,-15.53
47.109,-14.24
47.125,-13.85
47.140,-14.51
47.156,-16.25
47.171,-18.83
47.187,-21.78
47.203,-24.51
47.218,-26.47
47.234,-27.29
47.250,-26.85
47.265,-25.2
47.281,-22.38
47.296,-18.39
47.312,-13.15
47.328,-6.67
47.343,0.78
47.359,8.7
47.375,16.31
47.390,22.87
47.406,27.85
47.421,31.11
47.437,32.76
47.453,33.14
47.468,32.56
47.484,31.22
47.500,29.29
47.515,26.89
47.531,24.35
47.546,22.17
47.562,20.93
47.578,20.98
47.593,22.46
47.609,25.1
47.625,28.33
47.640,31.51
47.656,34.08
47.671,35.8
47.687,36.76
47.703,37.24
47.718,37.53
47.734,37.71
47.750,37.71
47.765,37.29
47.781,36.27
47.796,34.53
47.812,32.15
47.828,29.26
47.843,25.98
47.859,22.43
47.875,18.63
47.890,14.76
47.906,11.01
47.921,7.71
47.937,5.16
47.953,3.57
47.968,2.86
47.984,2.73
48.000,2.76
48.015,2.41
48.031,1.4
48.046,-0.3
48.062,-2.35
48.078,-4.18
48.093,-5.22
48.109,-5.14
48.125,-3.96
48.140,-1.96
48.156,0.4
48.171,2.82
48.187,5.17
48.203,7.49
48.218,9.86
48.234,12.14
48.250,14.02
48.265,14.99
48.281,14.59
48.296,12.56
48.312,8.97
48.328,4.06
48.343,-1.77
48.359,-8.08
48.375,-14.5
48.390,-20.7
48.406,-26.26
48.421,-30.77
48.437,-33.73
48.453,-34.74
48.468,-33.66
48.484,-30.74
48.500,-26.55
48.515,-21.94
48.531,-17.71
48.546,-14.38
48.562,-12.0
48.578,-10.23
48.593,-8.53
48.609,-6.47
48.625,-3.89
48.640,-0.97
48.656,1.84
48.671,4.06
48.687,5.3
48.703,5.34
48.718,4.06
48.734,1.45
48.750,-2.46
48.765,-7.59
48.781,-13.66
48.796,-20.19
48.812,-26.51
48.828,-31.91
48.843,-35.78
48.859,-37.78
48.875,-37.91
48.890,-36.39
48.906,-33.48
48.921,-29.34
48.937,-23.9
48.953,-16.96
48.968,-8.42
48.984,1.49
49.000,12.19
49.015,22.76
49.031,32.28
49.046,39.94
49.062,45.24
49.078,47.98
49.093,48.15
49.109,45.85
49.125,41.24
49.140,34.59
49.156,26.35
49.171,17.15
49.187,7.81
49.203,-0.83
49.218,-7.97
49.234,-13.05
49.250,-15.74
49.265,-16.02
49.281,-14.1
49.296,-10.37
49.312,-5.29
49.328,0.68
49.343,7.07
49.359,13.45
49.375,19.3
49.390,24.16
49.406,27.61
49.421,29.43
49.437,29.65
49.453,28.49
49.468,26.38
49.484,23.68
49.500,20.65
49.515,17.37
49.531,13.93
49.546,10.54
49.562,7.5
49.578,5.14
49.593,3.62
49.609,2.89
49.625,2.58
49.640,2.23
49.656,1.41
49.671,-0.16
49.687,-2.54
49.703,-5.63
49.718,-9.24
49.734,-13.12
49.750,-17.02
49.765,-20.74
49.781,-24.08
49.796,-26.98
49.812,-29.44
49.828,-31.5
49.843,-33.19
49.859,-34.5
49.875,-35.37
49.890,-35.75
49.906,-35.59
49.921,-34.88
49.937,-33.56
49.953,-31.65
49.968,-29.1
49.984,-25.97
50.000,-22.37
50.015,-18.47
50.031,-14.46
50.046,-10.46
50.062,-6.5
50.078,-2.55
50.093,1.4
50.109,5.31
50.125,9.03
50.140,12.33
50.156,15.06
50.171,17.13
50.187,18.58
50.203,19.56
50.218,20.2
50.234,20.56
50.250,20.71
50.265,20.6
50.281,20.22
50.296,19.6
50.312,18.8
50.328,17.86
50.343,16.75
50.359,15.32
50.375,13.33
50.390,10.62
50.406,7.11
50.421,2.9
50.437,-1.73
50.453,-6.43
50.468,-10.86
50.484,-14.72
50.500,-17.82
50.515,-20.03
50.531,-21.24
50.546,-21.34
50.562,-20.24
50.578,-17.8
50.593,-14.06
50.609,-9.14
50.625,-3.28
50.640,3.12
50.656,9.66
50.671,15.89
50.687,21.39
50.703,25.79
50.718,28.88
50.734,30.5
50.750,30.63
50.765,29.39
50.781,27.05
50.796,23.97
50.812,20.63
50.828,17.45
50.843,14.75
50.859,12.64
50.875,10.93
50.890,9.2
50.906,6.98
50.921,3.88
50.937,-0.1
50.953,-4.6
50.968,-8.94
50.984,-12.4
51.000,-14.44
51.015,-14.82
51.031,-13.58
51.046,-10.9
51.062,-7.09
51.078,-2.48
51.093,2.46
51.109,7.06
51.125,10.52
51.140,12.07
51.156,11.42
51.171,8.82
51.187,5.23
51.203,1.88
51.218,-0.09
51.234,0.03
51.250,2.3
51.265,6.27
51.281,11.14
51.296,16.24
51.312,20.98
51.328,25.07
51.343,28.32
51.359,30.63
51.375,31.88
51.390,31.92
51.406,30.72
51.421,28.28
51.437,24.82
51.453,20.74
51.468,16.56
51.484,12.75
51.500,9.54
51.515,6.91
51.531,4.55
51.546,2.23
51.562,-0.1
51.578,-2.24
51.593,-3.84
51.609,-4.63
51.625,-4.65
51.640,-4.27
51.656,-3.99
51.671,-4.22
51.687,-5.02
51.703,-6.14
51.718,-7.17
51.734,-7.87
51.750,-8.31
51.765,-8.86
51.781,-10.0
51.796,-12.01
51.812,-14.75
51.828,-17.68
51.843,-20.09
51.859,-21.35
51.875,-21.2
51.890,-19.83
51.906,-17.78
51.921,-15.71
51.937,-14.2
51.953,-13.67
51.968,-14.22
51.984,-15.81
52.000,-18.2
52.015,-21.09
52.031,-24.2
52.046,-27.35
52.062,-30.26
52.078,-32.78
52.093,-34.64
52.109,-35.57
52.125,-35.38
52.140,-34.04
52.156,-31.58
52.171,-28.2
52.187,-24.08
52.203,-19.34
52.218,-14.19
52.234,-8.86
52.250,-3.63
52.265,1.1
52.281,5.07
52.296,8.24
52.312,10.85
52.328,13.45
52.343,16.6
52.359,20.61
52.375,25.41
52.390,30.51
52.406,35.18
52.421,38.81
52.437,40.98
52.453,41.64
52.468,40.95
52.484,39.2
52.500,36.52
52.515,32.94
52.531,28.41
52.546,22.9
52.562,16.52
52.578,9.52
52.593,2.23
52.609,-4.93
52.625,-11.5
52.640,-17.12
52.656,-21.47
52.671,-24.28
52.687,-25.28
52.703,-24.23
52.718,-20.9
52.734,-15.23
52.750,-7.33
52.765,2.47
52.781,13.6
52.796,25.44
52.812,37.4
52.828,48.98
52.843,59.71
52.859,69.06
52.875,76.49
52.890,81.52
52.906,83.94
52.921,83.82
52.937,81.42
52.953,77.09
52.968,71.14
52.984,63.65
53.000,54.43
53.015,43.27
53.031,30.18
53.046,15.61
53.062,0.31
53.078,-14.73
53.093,-28.48
53.109,-40.03
53.125,-49.03
53.140,-55.57
53.156,-60.11
53.171,-63.07
53.187,-64.53
53.203,-64.66
53.218,-63.39
53.234,-60.05
53.250,-53.64
53.265,-43.48
53.281,-29.65
53.296,-13.06
53.312,4.84
53.328,22.53
53.343,37.72
53.359,48.66
53.375,55.16
53.390,58.52
53.406,60.51
53.421,62.5
53.437,65.28
53.453,69.25
53.468,74.84
53.484,80.62
53.500,84.92
53.515,87.17
53.531,88.29
53.546,89.27
53.562,90.33
53.578,90.73
53.593,88.98
53.609,83.68
53.625,71.17
53.640,48.32
53.656,14.71
53.671,-26.89
53.687,-72.54
53.703,-118.85
53.718,-163.49
53.734,-205.12
53.750,-229.85
53.765,-225.94
53.781,-193.19
53.796,-143.9
53.812,-91.88
53.828,-44.92
53.843,-5.23
53.859,27.48
53.875,52.18
53.890,71.61
53.906,84.98
53.921,90.61
53.937,88.37
53.953,80.3
53.968,68.92
53.984,55.86
54.000,43.54
54.015,33.63
54.031,27.65
54.046,24.13
54.062,20.38
54.078,14.18
54.093,4.68
54.109,-8.21
54.125,-24.4
54.140,-43.74
54.156,-66.09
54.171,-90.86
54.187,-118.45
54.203,-148.46
54.218,-178.3
54.234,-203.09
54.250,-217.25
54.265,-216.41
54.281,-198.87
54.296,-166.37
54.312,-123.3
54.328,-76.69
54.343,-33.64
54.359,0.38
54.375,22.41
54.390,31.39
54.406,27.55
54.421,11.84
54.437,-14.29
54.453,-48.37
54.468,-87.28
54.484,-126.96
54.500,-162.81
54.515,-190.34
54.531,-205.92
54.546,-207.28
54.562,-193.66
54.578,-165.95
54.593,-126.26
54.609,-77.65
54.625,-23.55
54.640,32.76
54.656,88.38
54.671,140.73
54.687,187.19
54.703,225.07
54.718,251.57
54.734,264.53
54.750,263.04
54.765,247.81
54.781,221.09
54.796,185.91
54.812,145.58
54.828,102.88
54.843,60.04
54.859,18.93
54.875,-18.7
54.890,-51.24
54.906,-77.36
54.921,-96.39
54.937,-108.54
54.953,-114.69
54.968,-116.24
54.984,-114.45
55.000,-110.26
55.015,-104.14
55.031,-96.24
55.046,-86.71
55.062,-75.78
55.078,-63.94
55.093,-51.77
55.109,-40.04
55.125,-29.57
55.140,-21.17
55.156,-15.43
55.171,-12.27
55.187,-10.87
55.203,-9.55
55.218,-6.45
55.234,-0.12
55.250,9.65
55.265,21.75
55.281,34.12
55.296,44.42
55.312,50.88
55.328,52.55
55.343,49.31
55.359,41.64
55.375,30.35
55.390,16.54
55.406,1.67
55.421,-12.42
55.437,-23.72
55.453,-30.28
55.468,-30.7
55.484,-24.5
55.500,-12.38
55.515,3.79
55.531,21.35
55.546,37.5
55.562,49.94
55.578,57.34
55.593,59.69
55.609,57.85
55.625,53.03
55.640,46.01
55.656,36.73
55.671,24.45
55.687,8.53
55.703,-10.7
55.718,-31.44
55.734,-50.5
55.750,-64.42
55.765,-70.63
55.781,-68.42
55.796,-59.11
55.812,-45.32
55.828,-29.98
55.843,-15.39
55.859,-2.77
55.875,7.57
55.890,15.82
55.906,22.29
55.921,27.33
55.937,31.39
55.953,35.13
55.968,39.37
55.984,44.9
56.000,52.33
56.015,61.9
56.031,73.5
56.046,86.7
56.062,100.95
56.078,115.59
56.093,130.02
56.109,143.64
56.125,155.76
56.140,165.49
56.156,171.7
56.171,173.18
56.187,168.98
56.203,158.78
56.218,143.18
56.234,123.62
56.250,102.03
56.265,80.32
56.281,59.76
56.296,40.9
56.312,23.51
56.328,7.02
56.343,-9.08
56.359,-24.83
56.375,-39.67
56.390,-52.51
56.406,-62.05
56.421,-67.32
56.437,-68.01
56.453,-64.8
56.468,-59.08
56.484,-52.55
56.500,-46.53
56.515,-41.63
56.531,-37.58
56.546,-33.56
56.562,-28.71
56.578,-22.65
56.593,-15.75
56.609,-9.05
56.625,-3.99
56.640,-1.83
56.656,-3.26
56.671,-8.08
56.687,-15.08
56.703,-22.66
56.718,-29.17
56.734,-33.61
56.750,-35.96
56.765,-37.15
56.781,-38.66
56.796,-41.83
56.812,-47.19
56.828,-53.92
56.843,-60.07
56.859,-63.18
56.875,-61.3
56.890,-54.09
56.906,-43.23
56.921,-32.01
56.937,-23.97
56.953,-21.25
56.968,-23.19
56.984,-26.18
57.000,-24.82
57.015,-13.93
57.031,9.6
57.046,45.66
57.062,90.87
57.078,139.51
57.093,184.7
57.109,219.85
57.125,239.57
57.140,240.26
57.156,220.63
57.171,181.81
57.187,127.26
57.203,62.33
57.218,-6.65
57.234,-73.65
57.250,-133.93
57.265,-184.84
57.281,-225.58
57.296,-256.2
57.312,-276.19
57.328,-283.54
57.343,-275.04
57.359,-247.66
57.375,-200.75
57.390,-137.4
57.406,-64.19
57.421,10.75
57.437,80.53
57.453,141.01
57.468,190.88
57.484,229.92
57.500,257.08
57.515,269.7
57.531,264.59
57.546,240.18
57.562,198.17
57.578,143.75
57.593,83.73
57.609,24.28
57.625,-30.85
57.640,-80.46
57.656,-124.44
57.671,-161.82
57.687,-189.64
57.703,-203.52
57.718,-199.57
57.734,-176.53
57.750,-136.8
57.765,-85.86
57.781,-30.2
57.796,24.73
57.812,75.93
57.828,122.62
57.843,164.82
57.859,201.74
57.875,230.85
57.890,248.31
57.906,250.21
57.921,234.22
57.937,200.87
57.953,153.53
57.968,97.57
57.984,38.87
58.000,-17.54
58.015,-68.66
58.031,-113.86
58.046,-154.26
58.062,-191.37
58.078,-225.27
58.093,-253.51
58.109,-271.16
58.125,-272.58
58.140,-253.88
58.156,-215.16
58.171,-161.42
58.187,-101.41
58.203,-45.0
58.218,-0.39
58.234,27.71
58.250,38.54
58.265,33.97
58.281,17.08
58.296,-8.95
58.312,-41.13
58.328,-76.05
58.343,-109.49
58.359,-136.51
58.375,-152.46
58.390,-154.2
58.406,-141.37
58.421,-116.51
58.437,-84.14
58.453,-49.03
58.468,-14.69
58.484,17.44
58.500,47.42
58.515,75.76
58.531,102.27
58.546,125.63
58.562,143.91
58.578,155.56
58.593,160.15
58.609,158.52
58.625,152.24
58.640,142.82
58.656,131.24
58.671,117.85
58.687,102.67
58.703,85.86
58.718,67.98
58.734,49.94
58.750,32.92
58.765,17.99
58.781,6.0
58.796,-2.53
58.812,-7.44
58.828,-8.87
58.843,-7.36
58.859,-3.76
58.875,0.74
58.890,4.97
58.906,7.93
58.921,9.08
58.937,8.51
58.953,6.76
58.968,4.48
58.984,2.08
59.000,-0.57
59.015,-4.08
59.031,-9.08
59.046,-15.87
59.062,-23.96
59.078,-32.12
59.093,-38.66
59.109,-42.08
59.125,-41.55
59.140,-37.3
59.156,-30.45
59.171,-22.58
59.187,-15.13
59.203,-8.98
59.218,-4.3
59.234,-0.73
59.250,2.32
59.265,5.35
59.281,8.65
59.296,12.28
59.312,16.12
59.328,19.92
59.343,23.25
59.359,25.7
59.375,26.75
59.390,26.01
59.406,23.37
59.421,19.09
59.437,13.86
59.453,8.69
59.468,4.51
59.484,1.88
59.500,0.76
59.515,0.42
59.531,-0.23
59.546,-2.05
59.562,-5.27
59.578,-9.17
59.593,-12.35
59.609,-13.38
59.625,-11.51
59.640,-6.95
59.656,-0.84
59.671,5.32
59.687,10.43
59.703,14.06
59.718,16.49
59.734,18.26
59.750,19.56
59.765,20.12
59.781,19.26
59.796,16.36
59.812,11.34
59.828,4.97
59.843,-1.5
59.859,-6.7
59.875,-9.67
59.890,-10.36
59.906,-9.38
59.921,-7.7
59.937,-6.09
59.953,-4.86
59.968,-3.86
59.984,-2.83
