timestamp,value
00.000,31.12
00.015,29.84
00.031,28.47
00.046,27.38
00.062,26.79
00.078,26.73
00.093,27.09
00.109,27.68
00.125,28.2
00.140,28.46
00.156,28.31
00.171,27.76
00.187,26.91
00.203,25.92
00.218,24.9
00.234,23.86
00.250,22.7
00.265,21.26
00.281,19.44
00.296,17.16
00.312,14.45
00.328,11.42
00.343,8.22
00.359,5.04
00.375,2.07
00.390,-0.55
00.406,-2.76
00.421,-4.67
00.437,-6.46
00.453,-8.31
00.468,-10.28
00.484,-12.35
00.500,-14.39
00.515,-16.35
00.531,-18.3
00.546,-20.4
00.562,-22.76
00.578,-25.43
00.593,-28.25
00.609,-30.99
00.625,-33.46
00.640,-35.58
00.656,-37.41
00.671,-39.12
00.687,-40.92
00.703,-43.03
00.718,-45.61
00.734,-48.66
00.750,-51.99
00.765,-55.09
00.781,-57.23
00.796,-57.6
00.812,-55.57
00.828,-50.94
00.843,-44.01
00.859,-35.5
00.875,-26.28
00.890,-17.11
00.906,-8.5
00.921,-0.7
00.937,6.16
00.953,12.02
00.968,16.78
00.984,20.41
01.000,22.96
01.015,24.68
01.031,25.88
01.046,26.9
01.062,27.97
01.078,29.07
01.093,30.07
01.109,30.72
01.125,30.83
01.140,30.36
01.156,29.46
01.171,28.47
01.187,27.76
01.203,27.57
01.218,27.89
01.234,28.48
01.250,28.95
01.265,28.93
01.281,28.26
01.296,27.0
01.312,25.42
01.328,23.78
01.343,22.31
01.359,21.0
01.375,19.75
01.390,18.43
01.406,16.94
01.421,15.29
01.437,13.57
01.453,11.91
01.468,10.43
01.484,9.18
01.500,8.13
01.515,7.22
01.531,6.34
01.546,5.38
01.562,4.3
01.578,3.1
01.593,1.82
01.609,0.56
01.625,-0.67
01.640,-1.94
01.656,-3.45
01.671,-5.44
01.687,-8.09
01.703,-11.36
01.718,-15.05
01.734,-18.87
01.750,-22.53
01.765,-25.87
01.781,-28.94
01.796,-31.91
01.812,-35.06
01.828,-38.61
01.843,-42.65
01.859,-47.1
01.875,-51.59
01.890,-55.51
01.906,-58.07
01.921,-58.5
01.937,-56.31
01.953,-51.47
01.968,-44.46
01.984,-36.12
02.000,-27.39
02.015,-19.07
02.031,-11.54
02.046,-4.91
02.062,1.02
02.078,6.49
02.093,11.63
02.109,16.45
02.125,20.84
02.140,24.61
02.156,27.66
02.171,29.98
02.187,31.6
02.203,32.69
02.218,33.34
02.234,33.68
02.250,33.76
02.265,33.68
02.281,33.55
02.296,33.47
02.312,33.49
02.328,33.58
02.343,33.61
02.359,33.48
02.375,33.1
02.390,32.48
02.406,31.69
02.421,30.74
02.437,29.62
02.453,28.23
02.468,26.47
02.484,24.32
02.500,21.83
02.515,19.14
02.531,16.4
02.546,13.69
02.562,11.04
02.578,8.45
02.593,5.97
02.609,3.67
02.625,1.64
02.640,-0.08
02.656,-1.51
02.671,-2.81
02.687,-4.15
02.703,-5.65
02.718,-7.36
02.734,-9.19
02.750,-11.04
02.765,-12.81
02.781,-14.49
02.796,-16.16
02.812,-17.88
02.828,-19.71
02.843,-21.64
02.859,-23.67
02.875,-25.81
02.890,-28.09
02.906,-30.48
02.921,-32.91
02.937,-35.27
02.953,-37.46
02.968,-39.53
02.984,-41.65
03.000,-44.12
03.015,-47.16
03.031,-50.8
03.046,-54.73
03.062,-58.38
03.078,-61.03
03.093,-61.98
03.109,-60.79
03.125,-57.31
03.140,-51.77
03.156,-44.66
03.171,-36.64
03.187,-28.36
03.203,-20.34
03.218,-12.84
03.234,-5.92
03.250,0.46
03.265,6.42
03.281,12.02
03.296,17.25
03.312,22.02
03.328,26.23
03.343,29.77
03.359,32.64
03.375,34.87
03.390,36.53
03.406,37.69
03.421,38.44
03.437,38.8
03.453,38.79
03.468,38.5
03.484,38.05
03.500,37.61
03.515,37.29
03.531,37.15
03.546,37.1
03.562,36.98
03.578,36.55
03.593,35.64
03.609,34.26
03.625,32.57
03.640,30.84
03.656,29.3
03.671,28.09
03.687,27.12
03.703,26.21
03.718,25.07
03.734,23.53
03.750,21.58
03.765,19.38
03.781,17.18
03.796,15.21
03.812,13.56
03.828,12.19
03.843,10.95
03.859,9.66
03.875,8.2
03.890,6.55
03.906,4.75
03.921,2.9
03.937,1.07
03.953,-0.85
03.968,-2.98
03.984,-5.48
04.000,-8.42
04.015,-11.72
04.031,-15.1
04.046,-18.29
04.062,-21.1
04.078,-23.55
04.093,-25.91
04.109,-28.56
04.125,-31.87
04.140,-35.99
04.156,-40.92
04.171,-46.31
04.187,-51.62
04.203,-56.11
04.218,-58.92
04.234,-59.3
04.250,-56.76
04.265,-51.31
04.281,-43.52
04.296,-34.46
04.312,-25.35
04.328,-17.21
04.343,-10.58
04.359,-5.36
04.375,-1.06
04.390,2.96
04.406,7.09
04.421,11.36
04.437,15.47
04.453,18.95
04.468,21.51
04.484,23.05
04.500,23.7
04.515,23.65
04.531,23.06
04.546,22.02
04.562,20.65
04.578,19.23
04.593,18.12
04.609,17.7
04.625,18.13
04.640,19.3
04.656,20.82
04.671,22.23
04.687,23.2
04.703,23.62
04.718,23.61
04.734,23.43
04.750,23.31
04.765,23.31
04.781,23.39
04.796,23.43
04.812,23.29
04.828,22.94
04.843,22.4
04.859,21.7
04.875,20.83
04.890,19.68
04.906,18.14
04.921,16.15
04.937,13.79
04.953,11.28
04.968,8.91
04.984,6.8
05.000,4.91
05.015,3.02
05.031,0.9
05.046,-1.54
05.062,-4.2
05.078,-6.83
05.093,-9.2
05.109,-11.21
05.125,-12.99
05.140,-14.81
05.156,-17.01
05.171,-19.87
05.187,-23.51
05.203,-27.91
05.218,-32.82
05.234,-37.85
05.250,-42.39
05.265,-45.76
05.281,-47.27
05.296,-46.48
05.312,-43.29
05.328,-38.0
05.343,-31.22
05.359,-23.66
05.375,-16.01
05.390,-8.75
05.406,-2.17
05.421,3.64
05.437,8.67
05.453,12.99
05.468,16.64
05.484,19.64
05.500,21.99
05.515,23.75
05.531,24.91
05.546,25.56
05.562,25.73
05.578,25.51
05.593,25.0
05.609,24.35
05.625,23.66
05.640,23.08
05.656,22.67
05.671,22.35
05.687,22.04
05.703,21.61
05.718,21.02
05.734,20.31
05.750,19.57
05.765,18.8
05.781,17.95
05.796,16.91
05.812,15.6
05.828,14.12
05.843,12.69
05.859,11.6
05.875,11.02
05.890,10.86
05.906,10.84
05.921,10.58
05.937,9.78
05.953,8.32
05.968,6.3
05.984,3.9
06.000,1.31
06.015,-1.36
06.031,-4.14
06.046,-7.1
06.062,-10.28
06.078,-13.6
06.093,-16.9
06.109,-19.95
06.125,-22.64
06.140,-25.02
06.156,-27.26
06.171,-29.55
06.187,-32.06
06.203,-34.79
06.218,-37.74
06.234,-40.93
06.250,-44.5
06.265,-48.58
06.281,-53.06
06.296,-57.41
06.312,-60.71
06.328,-61.92
06.343,-60.29
06.359,-55.7
06.375,-48.66
06.390,-40.13
06.406,-31.14
06.421,-22.49
06.437,-14.58
06.453,-7.48
06.468,-1.02
06.484,4.95
06.500,10.55
06.515,15.77
06.531,20.59
06.546,24.92
06.562,28.66
06.578,31.7
06.593,34.0
06.609,35.47
06.625,36.12
06.640,35.98
06.656,35.14
06.671,33.8
06.687,32.28
06.703,30.92
06.718,30.05
06.734,29.81
06.750,30.09
06.765,30.62
06.781,30.98
06.796,30.82
06.812,30.02
06.828,28.68
06.843,27.07
06.859,25.49
06.875,24.11
06.890,22.92
06.906,21.75
06.921,20.4
06.937,18.77
06.953,16.85
06.968,14.74
06.984,12.49
07.000,10.11
07.015,7.62
07.031,5.05
07.046,2.54
07.062,0.27
07.078,-1.61
07.093,-3.14
07.109,-4.48
07.125,-5.9
07.140,-7.57
07.156,-9.57
07.171,-11.84
07.187,-14.31
07.203,-16.94
07.218,-19.76
07.234,-22.72
07.250,-25.71
07.265,-28.52
07.281,-30.99
07.296,-33.18
07.312,-35.38
07.328,-37.99
07.343,-41.32
07.359,-45.33
07.375,-49.62
07.390,-53.51
07.406,-56.19
07.421,-56.99
07.437,-55.52
07.453,-51.7
07.468,-45.8
07.484,-38.41
07.500,-30.23
07.515,-21.97
07.531,-14.15
07.546,-7.02
07.562,-0.58
07.578,5.27
07.593,10.7
07.609,15.71
07.625,20.26
07.640,24.22
07.656,27.51
07.671,30.08
07.687,31.92
07.703,33.05
07.718,33.5
07.734,33.34
07.750,32.71
07.765,31.78
07.781,30.74
07.796,29.7
07.812,28.77
07.828,27.97
07.843,27.27
07.859,26.62
07.875,25.97
07.890,25.29
07.906,24.62
07.921,24.0
07.937,23.42
07.953,22.81
07.968,22.08
07.984,21.09
08.000,19.79
08.015,18.22
08.031,16.56
08.046,14.97
08.062,13.56
08.078,12.26
08.093,10.96
08.109,9.51
08.125,7.89
08.140,6.13
08.156,4.36
08.171,2.64
08.187,1.02
08.203,-0.58
08.218,-2.28
08.234,-4.15
08.250,-6.25
08.265,-8.57
08.281,-11.04
08.296,-13.53
08.312,-15.91
08.328,-18.01
08.343,-19.78
08.359,-21.34
08.375,-22.92
08.390,-24.81
08.406,-27.29
08.421,-30.44
08.437,-34.11
08.453,-37.99
08.468,-41.56
08.484,-44.2
08.500,-45.31
08.515,-44.35
08.531,-41.0
08.546,-35.24
08.562,-27.39
08.578,-18.08
08.593,-8.14
08.609,1.58
08.625,10.51
08.640,18.37
08.656,25.31
08.671,31.68
08.687,37.8
08.703,43.76
08.718,49.38
08.734,54.22
08.750,57.85
08.765,59.97
08.781,60.46
08.796,59.4
08.812,56.89
08.828,53.08
08.843,48.19
08.859,42.53
08.875,36.52
08.890,30.61
08.906,25.09
08.921,20.05
08.937,15.4
08.953,10.95
08.968,6.66
08.984,2.63
09.000,-0.88
09.015,-3.62
09.031,-5.47
09.046,-6.53
09.062,-7.18
09.078,-7.92
09.093,-9.19
09.109,-11.21
09.125,-13.82
09.140,-16.45
09.156,-18.3
09.171,-18.61
09.187,-16.99
09.203,-13.6
09.218,-9.1
09.234,-4.53
09.250,-0.92
09.265,0.95
09.281,0.66
09.296,-1.78
09.312,-6.05
09.328,-11.62
09.343,-17.9
09.359,-24.25
09.375,-30.11
09.390,-35.02
09.406,-38.72
09.421,-41.17
09.437,-42.59
09.453,-43.34
09.468,-43.76
09.484,-44.01
09.500,-43.93
09.515,-43.07
09.531,-40.87
09.546,-36.91
09.562,-31.07
09.578,-23.62
09.593,-15.16
09.609,-6.45
09.625,1.76
09.640,8.79
09.656,14.13
09.671,17.39
09.687,18.43
09.703,17.32
09.718,14.38
09.734,10.12
09.750,5.14
09.765,0.08
09.781,-4.48
09.796,-8.07
09.812,-10.3
09.828,-11.02
09.843,-10.28
09.859,-8.32
09.875,-5.46
09.890,-2.01
09.906,1.85
09.921,6.01
09.937,10.33
09.953,14.62
09.968,18.57
09.984,21.92
10.000,24.48
10.015,26.25
10.031,27.35
10.046,27.98
10.062,28.23
10.078,28.12
10.093,27.56
10.109,26.45
10.125,24.76
10.140,22.51
10.156,19.8
10.171,16.78
10.187,13.59
10.203,10.39
10.218,7.33
10.234,4.58
10.250,2.21
10.265,0.17
10.281,-1.71
10.296,-3.66
10.312,-5.89
10.328,-8.47
10.343,-11.3
10.359,-14.14
10.375,-16.75
10.390,-19.01
10.406,-20.99
10.421,-22.85
10.437,-24.84
10.453,-27.13
10.468,-29.89
10.484,-33.26
10.500,-37.35
10.515,-42.25
10.531,-47.91
10.546,-53.97
10.562,-59.76
10.578,-64.36
10.593,-66.84
10.609,-66.52
10.625,-63.18
10.640,-57.11
10.656,-48.97
10.671,-39.55
10.687,-29.56
10.703,-19.48
10.718,-9.73
10.734,-0.57
10.750,7.68
10.765,14.8
10.781,20.7
10.796,25.4
10.812,29.08
10.828,31.93
10.843,34.07
10.859,35.49
10.875,36.16
10.890,36.08
10.906,35.31
10.921,34.07
10.937,32.6
10.953,31.18
10.968,30.02
10.984,29.27
11.000,28.93
11.015,28.91
11.031,29.03
11.046,29.08
11.062,28.93
11.078,28.55
11.093,28.06
11.109,27.66
11.125,27.54
11.140,27.8
11.156,28.38
11.171,29.03
11.187,29.4
11.203,29.19
11.218,28.2
11.234,26.46
11.250,24.18
11.265,21.61
11.281,18.97
11.296,16.4
11.312,13.89
11.328,11.38
11.343,8.84
11.359,6.28
11.375,3.73
11.390,1.25
11.406,-1.22
11.421,-3.78
11.437,-6.55
11.453,-9.6
11.468,-12.91
11.484,-16.29
11.500,-19.54
11.515,-22.52
11.531,-25.17
11.546,-27.54
11.562,-29.79
11.578,-32.09
11.593,-34.58
11.609,-37.42
11.625,-40.61
11.640,-43.94
11.656,-46.93
11.671,-48.83
11.687,-48.79
11.703,-46.25
11.718,-41.17
11.734,-34.12
11.750,-26.11
11.765,-18.18
11.781,-11.06
11.796,-4.96
11.812,0.28
11.828,4.99
11.843,9.41
11.859,13.57
11.875,17.37
11.890,20.64
11.906,23.33
11.921,25.47
11.937,27.17
11.953,28.46
11.968,29.31
11.984,29.65
12.000,29.46
12.015,28.77
12.031,27.68
12.046,26.35
12.062,24.89
12.078,23.39
12.093,21.93
12.109,20.53
12.125,19.24
12.140,18.02
12.156,16.77
12.171,15.39
12.187,13.74
12.203,11.8
12.218,9.64
12.234,7.42
12.250,5.32
12.265,3.49
12.281,1.95
12.296,0.6
12.312,-0.74
12.328,-2.26
12.343,-4.04
12.359,-6.07
12.375,-8.23
12.390,-10.4
12.406,-12.49
12.421,-14.58
12.437,-16.76
12.453,-19.14
12.468,-21.79
12.484,-24.71
12.500,-27.78
12.515,-30.91
12.531,-34.04
12.546,-37.14
12.562,-40.21
12.578,-43.21
12.593,-46.1
12.609,-48.86
12.625,-51.59
12.640,-54.45
12.656,-57.54
12.671,-60.81
12.687,-63.82
12.703,-65.9
12.718,-66.16
12.734,-63.86
12.750,-58.66
12.765,-50.76
12.781,-40.86
12.796,-29.92
12.812,-18.94
12.828,-8.68
12.843,0.36
12.859,8.06
12.875,14.57
12.890,20.21
12.906,25.4
12.921,30.47
12.937,35.56
12.953,40.61
12.968,45.38
12.984,49.52
13.000,52.79
13.015,55.07
13.031,56.41
13.046,56.93
13.062,56.79
13.078,56.12
13.093,55.0
13.109,53.56
13.125,51.95
13.140,50.29
13.156,48.7
13.171,47.18
13.187,45.67
13.203,44.06
13.218,42.27
13.234,40.26
13.250,38.04
13.265,35.7
13.281,33.32
13.296,30.94
13.312,28.53
13.328,25.99
13.343,23.21
13.359,20.13
13.375,16.73
13.390,13.15
13.406,9.56
13.421,6.14
13.437,3.04
13.453,0.32
13.468,-2.03
13.484,-4.12
13.500,-6.12
13.515,-8.22
13.531,-10.55
13.546,-13.16
13.562,-16.04
13.578,-19.06
13.593,-22.05
13.609,-24.88
13.625,-27.52
13.640,-30.05
13.656,-32.69
13.671,-35.66
13.687,-39.11
13.703,-43.12
13.718,-47.59
13.734,-52.25
13.750,-56.69
13.765,-60.33
13.781,-62.46
13.796,-62.41
13.812,-59.7
13.828,-54.24
13.843,-46.44
13.859,-37.1
13.875,-27.24
13.890,-17.73
13.906,-9.16
13.921,-1.76
13.937,4.48
13.953,9.72
13.968,14.17
13.984,18.05
14.000,21.62
14.015,25.01
14.031,28.26
14.046,31.23
14.062,33.65
14.078,35.26
14.093,35.93
14.109,35.78
14.125,35.08
14.140,34.17
14.156,33.25
14.171,32.4
14.187,31.63
14.203,30.95
14.218,30.34
14.234,29.81
14.250,29.29
14.265,28.69
14.281,27.99
14.296,27.19
14.312,26.41
14.328,25.75
14.343,25.14
14.359,24.34
14.375,22.91
14.390,20.47
14.406,16.89
14.421,12.45
14.437,7.75
14.453,3.49
14.468,0.2
14.484,-1.93
14.500,-3.09
14.515,-3.67
14.531,-4.13
14.546,-4.79
14.562,-5.81
14.578,-7.26
14.593,-9.16
14.609,-11.52
14.625,-14.3
14.640,-17.34
14.656,-20.42
14.671,-23.35
14.687,-26.0
14.703,-28.41
14.718,-30.69
14.734,-32.96
14.750,-35.28
14.765,-37.55
14.781,-39.63
14.796,-41.45
14.812,-43.11
14.828,-44.86
14.843,-46.97
14.859,-49.53
14.875,-52.23
14.890,-54.44
14.906,-55.35
14.921,-54.24
14.937,-50.69
14.953,-44.7
14.968,-36.76
14.984,-27.59
15.000,-18.05
15.015,-8.85
15.031,-0.55
15.046,6.55
15.062,12.42
15.078,17.18
15.093,21.1
15.109,24.41
15.125,27.32
15.140,29.95
15.156,32.29
15.171,34.29
15.187,35.83
15.203,36.78
15.218,37.04
15.234,36.58
15.250,35.45
15.265,33.88
15.281,32.19
15.296,30.73
15.312,29.76
15.328,29.36
15.343,29.37
15.359,29.52
15.375,29.48
15.390,28.98
15.406,27.89
15.421,26.19
15.437,24.01
15.453,21.55
15.468,19.0
15.484,16.55
15.500,14.29
15.515,12.22
15.531,10.26
15.546,8.24
15.562,5.97
15.578,3.33
15.593,0.35
15.609,-2.81
15.625,-5.86
15.640,-8.51
15.656,-10.53
15.671,-11.92
15.687,-12.82
15.703,-13.58
15.718,-14.53
15.734,-15.82
15.750,-17.48
15.765,-19.35
15.781,-21.28
15.796,-23.16
15.812,-25.07
15.828,-27.16
15.843,-29.62
15.859,-32.57
15.875,-36.04
15.890,-39.91
15.906,-43.91
15.921,-47.6
15.937,-50.41
15.953,-51.65
15.968,-50.72
15.984,-47.29
16.000,-41.47
16.015,-33.86
16.031,-25.37
16.046,-17.0
16.062,-9.51
16.078,-3.3
16.093,1.69
16.109,5.82
16.125,9.51
16.140,13.08
16.156,16.64
16.171,20.08
16.187,23.2
16.203,25.77
16.218,27.62
16.234,28.67
16.250,28.98
16.265,28.7
16.281,28.08
16.296,27.42
16.312,26.96
16.328,26.84
16.343,27.08
16.359,27.55
16.375,28.06
16.390,28.48
16.406,28.68
16.421,28.62
16.437,28.25
16.453,27.55
16.468,26.48
16.484,25.08
16.500,23.41
16.515,21.56
16.531,19.63
16.546,17.65
16.562,15.6
16.578,13.42
16.593,11.08
16.609,8.62
16.625,6.16
16.640,3.85
16.656,1.85
16.671,0.13
16.687,-1.5
16.703,-3.36
16.718,-5.78
16.734,-8.97
16.750,-12.81
16.765,-16.99
16.781,-21.07
16.796,-24.62
16.812,-27.4
16.828,-29.41
16.843,-30.83
16.859,-31.95
16.875,-33.13
16.890,-34.73
16.906,-37.12
16.921,-40.56
16.937,-45.01
16.953,-49.99
16.968,-54.55
16.984,-57.43
17.000,-57.51
17.015,-54.15
17.031,-47.51
17.046,-38.49
17.062,-28.42
17.078,-18.59
17.093,-9.87
17.109,-2.53
17.125,3.64
17.140,9.01
17.156,13.93
17.171,18.53
17.187,22.71
17.203,26.27
17.218,29.05
17.234,31.0
17.250,32.18
17.265,32.75
17.281,32.84
17.296,32.57
17.312,32.02
17.328,31.35
17.343,30.78
17.359,30.55
17.375,30.86
17.390,31.71
17.406,32.88
17.421,33.95
17.437,34.49
17.453,34.21
17.468,33.1
17.484,31.39
17.500,29.44
17.515,27.52
17.531,25.69
17.546,23.88
17.562,21.9
17.578,19.63
17.593,17.11
17.609,14.5
17.625,11.96
17.640,9.59
17.656,7.37
17.671,5.18
17.687,2.94
17.703,0.68
17.718,-1.48
17.734,-3.37
17.750,-4.92
17.765,-6.27
17.781,-7.71
17.796,-9.59
17.812,-12.26
17.828,-15.77
17.843,-19.92
17.859,-24.35
17.875,-28.53
17.890,-32.09
17.906,-34.92
17.921,-37.14
17.937,-39.11
17.953,-41.23
17.968,-43.77
17.984,-46.78
18.000,-50.12
18.015,-53.45
18.031,-56.35
18.046,-58.29
18.062,-58.64
18.078,-56.83
18.093,-52.49
18.109,-45.66
18.125,-36.87
18.140,-27.05
18.156,-17.26
18.171,-8.34
18.187,-0.77
18.203,5.5
18.218,10.75
18.234,15.36
18.250,19.68
18.265,23.87
18.281,27.97
18.296,31.87
18.312,35.34
18.328,38.07
18.343,39.81
18.359,40.4
18.375,39.9
18.390,38.6
18.406,36.87
18.421,35.12
18.437,33.67
18.453,32.68
18.468,32.2
18.484,32.12
18.500,32.24
18.515,32.22
18.531,31.69
18.546,30.34
18.562,28.12
18.578,25.2
18.593,21.99
18.609,18.9
18.625,16.21
18.640,13.95
18.656,12.01
18.671,10.23
18.687,8.54
18.703,7.02
18.718,5.8
18.734,4.9
18.750,4.14
18.765,3.21
18.781,1.79
18.796,-0.19
18.812,-2.56
18.828,-4.99
18.843,-7.21
18.859,-9.14
18.875,-10.93
18.890,-12.83
18.906,-15.0
18.921,-17.43
18.937,-19.98
18.953,-22.48
18.968,-24.89
18.984,-27.22
19.000,-29.51
19.015,-31.75
19.031,-33.93
19.046,-36.05
19.062,-38.3
19.078,-40.84
19.093,-43.68
19.109,-46.47
19.125,-48.41
19.140,-48.59
19.156,-46.17
19.171,-40.93
19.187,-33.24
19.203,-24.01
19.218,-14.31
19.234,-5.02
19.250,3.31
19.265,10.57
19.281,16.77
19.296,22.03
19.312,26.37
19.328,29.79
19.343,32.32
19.359,33.98
19.375,34.86
19.390,34.98
19.406,34.43
19.421,33.35
19.437,31.98
19.453,30.66
19.468,29.66
19.484,29.13
19.500,28.99
19.515,29.08
19.531,29.14
19.546,29.08
19.562,28.81
19.578,28.35
19.593,27.63
19.609,26.55
19.625,25.02
19.640,23.08
19.656,20.98
19.671,19.01
19.687,17.42
19.703,16.2
19.718,15.08
19.734,13.66
19.750,11.57
19.765,8.75
19.781,5.36
19.796,1.84
19.812,-1.42
19.828,-4.2
19.843,-6.6
19.859,-8.87
19.875,-11.28
19.890,-13.96
19.906,-16.85
19.921,-19.81
19.937,-22.69
19.953,-25.39
19.968,-27.92
19.984,-30.33
20.000,-32.7
20.015,-35.18
20.031,-37.93
20.046,-41.16
20.062,-45.03
20.078,-49.48
20.093,-54.12
20.109,-58.28
20.125,-61.12
20.140,-61.83
20.156,-59.87
20.171,-55.05
20.187,-47.67
20.203,-38.42
20.218,-28.23
20.234,-18.04
20.250,-8.59
20.265,-0.3
20.281,6.83
20.296,12.98
20.312,18.47
20.328,23.54
20.343,28.18
20.359,32.25
20.375,35.55
20.390,37.96
20.406,39.46
20.421,40.21
20.437,40.36
20.453,40.1
20.468,39.57
20.484,38.86
20.500,38.04
20.515,37.13
20.531,36.2
20.546,35.35
20.562,34.69
20.578,34.23
20.593,33.89
20.609,33.48
20.625,32.74
20.640,31.51
20.656,29.68
20.671,27.31
20.687,24.59
20.703,21.75
20.718,18.99
20.734,16.51
20.750,14.44
20.765,12.79
20.781,11.49
20.796,10.36
20.812,9.15
20.828,7.72
20.843,5.99
20.859,3.98
20.875,1.79
20.890,-0.53
20.906,-2.97
20.921,-5.56
20.937,-8.39
20.953,-11.51
20.968,-14.91
20.984,-18.52
21.000,-22.15
21.015,-25.68
21.031,-29.04
21.046,-32.22
21.062,-35.37
21.078,-38.69
21.093,-42.41
21.109,-46.6
21.125,-51.23
21.140,-55.97
21.156,-60.28
21.171,-63.4
21.187,-64.5
21.203,-62.87
21.218,-58.21
21.234,-50.77
21.250,-41.34
21.265,-31.03
21.281,-20.92
21.296,-11.76
21.312,-3.88
21.328,2.83
21.343,8.66
21.359,13.93
21.375,18.84
21.390,23.45
21.406,27.75
21.421,31.64
21.437,34.94
21.453,37.41
21.468,38.82
21.484,39.09
21.500,38.39
21.515,37.06
21.531,35.56
21.546,34.29
21.562,33.5
21.578,33.26
21.593,33.5
21.609,34.07
21.625,34.77
21.640,35.42
21.656,35.79
21.671,35.7
21.687,35.05
21.703,33.85
21.718,32.23
21.734,30.29
21.750,28.14
21.765,25.87
21.781,23.52
21.796,21.2
21.812,19.05
21.828,17.14
21.843,15.45
21.859,13.88
21.875,12.26
21.890,10.4
21.906,8.21
21.921,5.67
21.937,2.84
21.953,-0.16
21.968,-3.21
21.984,-6.19
22.000,-9.01
22.015,-11.66
22.031,-14.24
22.046,-16.97
22.062,-20.06
22.078,-23.53
22.093,-27.19
22.109,-30.69
22.125,-33.68
22.140,-36.05
22.156,-37.98
22.171,-39.9
22.187,-42.35
22.203,-45.66
22.218,-49.78
22.234,-54.22
22.250,-58.12
22.265,-60.53
22.281,-60.66
22.296,-58.09
22.312,-52.92
22.328,-45.68
22.343,-37.13
22.359,-28.13
22.375,-19.34
22.390,-11.19
22.406,-3.9
22.421,2.51
22.437,8.16
22.453,13.2
22.468,17.85
22.484,22.23
22.500,26.34
22.515,29.98
22.531,32.8
22.546,34.48
22.562,34.88
22.578,34.14
22.593,32.64
22.609,30.91
22.625,29.34
22.640,28.17
22.656,27.4
22.671,26.89
22.687,26.51
22.703,26.14
22.718,25.77
22.734,25.32
22.750,24.71
22.765,23.85
22.781,22.61
22.796,20.94
22.812,18.9
22.828,16.67
22.843,14.47
22.859,12.47
22.875,10.71
22.890,9.07
22.906,7.38
22.921,5.49
22.937,3.37
22.953,1.15
22.968,-0.96
22.984,-2.73
23.000,-4.12
23.015,-5.15
23.031,-6.05
23.046,-7.09
23.062,-8.58
23.078,-10.69
23.093,-13.51
23.109,-16.9
23.125,-20.58
23.140,-24.21
23.156,-27.44
23.171,-30.13
23.187,-32.41
23.203,-34.63
23.218,-37.2
23.234,-40.42
23.250,-44.36
23.265,-48.7
23.281,-52.86
23.296,-56.08
23.312,-57.56
23.328,-56.64
23.343,-52.97
23.359,-46.63
23.375,-38.21
23.390,-28.66
23.406,-19.04
23.421,-10.23
23.437,-2.7
23.453,3.5
23.468,8.69
23.484,13.22
23.500,17.35
23.515,21.14
23.531,24.53
23.546,27.41
23.562,29.69
23.578,31.29
23.593,32.15
23.609,32.27
23.625,31.78
23.640,30.94
23.656,30.05
23.671,29.37
23.687,29.07
23.703,29.08
23.718,29.27
23.734,29.44
23.750,29.45
23.765,29.16
23.781,28.53
23.796,27.55
23.812,26.26
23.828,24.75
23.843,23.2
23.859,21.76
23.875,20.48
23.890,19.32
23.906,18.07
23.921,16.57
23.937,14.7
23.953,12.48
23.968,9.98
23.984,7.34
24.000,4.68
24.015,2.1
24.031,-0.37
24.046,-2.69
24.062,-4.87
24.078,-6.94
24.093,-8.95
24.109,-10.96
24.125,-13.03
24.140,-15.23
24.156,-17.58
24.171,-20.06
24.187,-22.61
24.203,-25.1
24.218,-27.44
24.234,-29.62
24.250,-31.78
24.265,-34.16
24.281,-37.0
24.296,-40.42
24.312,-44.26
24.328,-48.08
24.343,-51.19
24.359,-52.76
24.375,-52.1
24.390,-48.79
24.406,-42.92
24.421,-35.0
24.437,-25.85
24.453,-16.38
24.468,-7.38
24.484,0.66
24.500,7.55
24.515,13.33
24.531,18.16
24.546,22.21
24.562,25.64
24.578,28.59
24.593,31.13
24.609,33.34
24.625,35.22
24.640,36.7
24.656,37.68
24.671,38.09
24.687,37.87
24.703,37.12
24.718,36.0
24.734,34.75
24.750,33.64
24.765,32.88
24.781,32.58
24.796,32.6
24.812,32.67
24.828,32.44
24.843,31.57
24.859,29.94
24.875,27.72
24.890,25.28
24.906,23.06
24.921,21.33
24.937,20.06
24.953,19.02
24.968,17.92
24.984,16.61
25.000,15.15
25.015,13.74
25.031,12.5
25.046,11.36
25.062,10.04
25.078,8.29
25.093,5.98
25.109,3.23
25.125,0.3
25.140,-2.56
25.156,-5.28
25.171,-7.95
25.187,-10.68
25.203,-13.55
25.218,-16.48
25.234,-19.36
25.250,-22.12
25.265,-24.84
25.281,-27.63
25.296,-30.52
25.312,-33.38
25.328,-36.06
25.343,-38.46
25.359,-40.72
25.375,-43.15
25.390,-46.12
25.406,-49.86
25.421,-54.27
25.437,-58.89
25.453,-62.99
25.468,-65.72
25.484,-66.33
25.500,-64.31
25.515,-59.55
25.531,-52.4
25.546,-43.64
25.562,-34.28
25.578,-25.28
25.593,-17.34
25.609,-10.73
25.625,-5.31
25.640,-0.69
25.656,3.57
25.671,7.8
25.687,12.12
25.703,16.46
25.718,20.57
25.734,24.13
25.750,26.87
25.765,28.6
25.781,29.32
25.796,29.13
25.812,28.25
25.828,26.99
25.843,25.68
25.859,24.56
25.875,23.79
25.890,23.39
25.906,23.17
25.921,22.88
25.937,22.33
25.953,21.5
25.968,20.69
25.984,20.27
26.000,20.56
26.015,21.52
26.031,22.82
26.046,23.91
26.062,24.3
26.078,23.81
26.093,22.61
26.109,21.08
26.125,19.6
26.140,18.37
26.156,17.35
26.171,16.4
26.187,15.38
26.203,14.24
26.218,13.05
26.234,11.86
26.250,10.66
26.265,9.29
26.281,7.56
26.296,5.34
26.312,2.63
26.328,-0.4
26.343,-3.47
26.359,-6.37
26.375,-9.05
26.390,-11.62
26.406,-14.31
26.421,-17.31
26.437,-20.7
26.453,-24.43
26.468,-28.34
26.484,-32.33
26.500,-36.28
26.515,-40.04
26.531,-43.22
26.546,-45.18
26.562,-45.2
26.578,-42.66
26.593,-37.43
26.609,-29.95
26.625,-21.13
26.640,-12.12
26.656,-3.89
26.671,3.04
26.687,8.58
26.703,12.99
26.718,16.58
26.734,19.61
26.750,22.22
26.765,24.46
26.781,26.34
26.796,27.81
26.812,28.82
26.828,29.33
26.843,29.36
26.859,29.02
26.875,28.45
26.890,27.79
26.906,27.17
26.921,26.66
26.937,26.27
26.953,26.03
26.968,25.93
26.984,25.99
27.000,26.18
27.015,26.35
27.031,26.33
27.046,25.99
27.062,25.24
27.078,24.12
27.093,22.73
27.109,21.21
27.125,19.65
27.140,18.06
27.156,16.38
27.171,14.48
27.187,12.35
27.203,10.01
27.218,7.55
27.234,5.07
27.250,2.62
27.265,0.16
27.281,-2.4
27.296,-5.12
27.312,-7.97
27.328,-10.94
27.343,-13.98
27.359,-17.07
27.375,-20.26
27.390,-23.53
27.406,-26.79
27.421,-29.86
27.437,-32.57
27.453,-34.79
27.468,-36.62
27.484,-38.38
27.500,-40.45
27.515,-43.14
27.531,-46.42
27.546,-49.88
27.562,-52.72
27.578,-53.99
27.593,-52.89
27.609,-49.1
27.625,-42.9
27.640,-35.07
27.656,-26.57
27.671,-18.28
27.687,-10.69
27.703,-3.93
27.718,2.1
27.734,7.54
27.750,12.44
27.765,16.75
27.781,20.41
27.796,23.39
27.812,25.77
27.828,27.65
27.843,29.06
27.859,29.91
27.875,30.07
27.890,29.44
27.906,28.12
27.921,26.41
27.937,24.64
27.953,23.2
27.968,22.3
27.984,21.94
28.000,21.92
28.015,21.97
28.031,21.84
28.046,21.41
28.062,20.64
28.078,19.56
28.093,18.25
28.109,16.8
28.125,15.26
28.140,13.7
28.156,12.13
28.171,10.53
28.187,8.9
28.203,7.23
28.218,5.59
28.234,4.11
28.250,2.89
28.265,1.93
28.281,1.16
28.296,0.43
28.312,-0.43
28.328,-1.53
28.343,-2.95
28.359,-4.75
28.375,-6.95
28.390,-9.6
28.406,-12.72
28.421,-16.23
28.437,-19.95
28.453,-23.67
28.468,-27.13
28.484,-30.14
28.500,-32.67
28.515,-34.8
28.531,-36.73
28.546,-38.72
28.562,-41.04
28.578,-43.84
28.593,-47.12
28.609,-50.59
28.625,-53.72
28.640,-55.81
28.656,-56.13
28.671,-54.12
28.687,-49.61
28.703,-42.93
28.718,-34.77
28.734,-26.06
28.750,-17.65
28.765,-10.11
28.781,-3.65
28.796,1.96
28.812,7.07
28.828,12.09
28.843,17.21
28.859,22.46
28.875,27.55
28.890,32.18
28.906,36.03
28.921,38.84
28.937,40.47
28.953,40.81
28.968,39.83
28.984,37.65
29.000,34.59
29.015,31.13
29.031,27.9
29.046,25.43
29.062,23.97
29.078,23.46
29.093,23.56
29.109,23.84
29.125,23.98
29.140,23.83
29.156,23.45
29.171,22.98
29.187,22.53
29.203,22.13
29.218,21.72
29.234,21.19
29.250,20.43
29.265,19.33
29.281,17.81
29.296,15.86
29.312,13.52
29.328,10.89
29.343,8.12
29.359,5.37
29.375,2.75
29.390,0.34
29.406,-1.9
29.421,-3.98
29.437,-5.93
29.453,-7.76
29.468,-9.48
29.484,-11.19
29.500,-13.0
29.515,-15.08
29.531,-17.44
29.546,-20.06
29.562,-22.79
29.578,-25.4
29.593,-27.72
29.609,-29.59
29.625,-31.04
29.640,-32.2
29.656,-33.36
29.671,-34.84
29.687,-36.96
29.703,-39.81
29.718,-43.14
29.734,-46.35
29.750,-48.56
29.765,-48.95
29.781,-46.9
29.796,-42.26
29.812,-35.36
29.828,-26.94
29.843,-17.89
29.859,-9.08
29.875,-1.15
29.890,5.62
29.906,11.24
29.921,15.95
29.937,20.01
29.953,23.59
29.968,26.66
29.984,29.15
30.000,30.99
30.015,32.16
30.031,32.81
30.046,33.1
30.062,33.11
30.078,32.91
30.093,32.49
30.109,31.94
30.125,31.34
30.140,30.83
30.156,30.42
30.171,30.1
30.187,29.77
30.203,29.37
30.218,28.89
30.234,28.33
30.250,27.67
30.265,26.78
30.281,25.52
30.296,23.79
30.312,21.64
30.328,19.28
30.343,16.96
30.359,14.94
30.375,13.28
30.390,11.9
30.406,10.67
30.421,9.47
30.437,8.22
30.453,6.95
30.468,5.64
30.484,4.22
30.500,2.63
30.515,0.8
30.531,-1.27
30.546,-3.48
30.562,-5.79
30.578,-8.19
30.593,-10.75
30.609,-13.57
30.625,-16.68
30.640,-19.97
30.656,-23.23
30.671,-26.25
30.687,-28.94
30.703,-31.41
30.718,-33.92
30.734,-36.71
30.750,-39.89
30.765,-43.34
30.781,-46.71
30.796,-49.51
30.812,-51.14
30.828,-51.05
30.843,-48.83
30.859,-44.34
30.875,-37.8
30.890,-29.83
30.906,-21.27
30.921,-13.01
30.937,-5.67
30.953,0.45
30.968,5.39
30.984,9.39
31.000,12.68
31.015,15.48
31.031,17.87
31.046,19.88
31.062,21.52
31.078,22.74
31.093,23.52
31.109,23.77
31.125,23.56
31.140,23.0
31.156,22.33
31.171,21.82
31.187,21.59
31.203,21.65
31.218,21.84
31.234,22.01
31.250,22.08
31.265,22.04
31.281,21.89
31.296,21.6
31.312,21.04
31.328,20.12
31.343,18.81
31.359,17.18
31.375,15.39
31.390,13.58
31.406,11.83
31.421,10.13
31.437,8.44
31.453,6.73
31.468,4.99
31.484,3.2
31.500,1.37
31.515,-0.51
31.531,-2.43
31.546,-4.32
31.562,-6.2
31.578,-8.08
31.593,-10.05
31.609,-12.26
31.625,-14.79
31.640,-17.64
31.656,-20.72
31.671,-23.84
31.687,-26.87
31.703,-29.79
31.718,-32.67
31.734,-35.66
31.750,-38.9
31.765,-42.45
31.781,-46.27
31.796,-50.08
31.812,-53.41
31.828,-55.6
31.843,-55.99
31.859,-54.04
31.875,-49.57
31.890,-42.9
31.906,-34.75
31.921,-26.15
31.937,-18.03
31.953,-10.98
31.968,-5.08
31.984,0.02
32.000,4.9
32.015,10.09
32.031,15.89
32.046,22.35
32.062,29.24
32.078,36.23
32.093,42.96
32.109,49.1
32.125,54.45
32.140,58.87
32.156,62.4
32.171,65.15
32.187,67.4
32.203,69.35
32.218,71.15
32.234,72.77
32.250,74.04
32.265,74.71
32.281,74.49
32.296,73.06
32.312,70.2
32.328,65.83
32.343,60.09
32.359,53.43
32.375,46.52
32.390,40.01
32.406,34.39
32.421,29.84
32.437,26.15
32.453,22.93
32.468,19.73
32.484,16.21
32.500,12.21
32.515,7.69
32.531,2.7
32.546,-2.7
32.562,-8.34
32.578,-14.1
32.593,-19.82
32.609,-25.41
32.625,-30.81
32.640,-36.02
32.656,-41.01
32.671,-45.75
32.687,-50.2
32.703,-54.34
32.718,-58.12
32.734,-61.43
32.750,-64.18
32.765,-66.3
32.781,-67.87
32.796,-69.17
32.812,-70.64
32.828,-72.76
32.843,-75.86
32.859,-79.94
32.875,-84.56
32.890,-88.99
32.906,-92.29
32.921,-93.61
32.937,-92.35
32.953,-88.36
32.968,-81.88
32.984,-73.54
33.000,-64.13
33.015,-54.49
33.031,-45.24
33.046,-36.78
33.062,-29.16
33.078,-22.22
33.093,-15.67
33.109,-9.23
33.125,-2.8
33.140,3.52
33.156,9.43
33.171,14.57
33.187,18.63
33.203,21.51
33.218,23.2
33.234,23.87
33.250,23.76
33.265,23.13
33.281,22.21
33.296,21.27
33.312,20.5
33.328,20.02
33.343,19.96
33.359,20.34
33.375,21.18
33.390,22.44
33.406,23.94
33.421,25.48
33.437,26.79
33.453,27.7
33.468,28.18
33.484,28.3
33.500,28.23
33.515,28.1
33.531,27.96
33.546,27.76
33.562,27.41
33.578,26.81
33.593,25.95
33.609,24.87
33.625,23.67
33.640,22.45
33.656,21.3
33.671,20.18
33.687,19.03
33.703,17.72
33.718,16.12
33.734,14.16
33.750,11.88
33.765,9.38
33.781,6.81
33.796,4.3
33.812,1.87
33.828,-0.52
33.843,-2.98
33.859,-5.68
33.875,-8.82
33.890,-12.54
33.906,-16.94
33.921,-21.95
33.937,-27.26
33.953,-32.33
33.968,-36.44
33.984,-38.77
34.000,-38.76
34.015,-36.17
34.031,-31.21
34.046,-24.55
34.062,-17.04
34.078,-9.51
34.093,-2.56
34.109,3.53
34.125,8.78
34.140,13.27
34.156,17.17
34.171,20.56
34.187,23.44
34.203,25.81
34.218,27.61
34.234,28.84
34.250,29.52
34.265,29.79
34.281,29.82
34.296,29.78
34.312,29.76
34.328,29.7
34.343,29.46
34.359,28.95
34.375,28.18
34.390,27.34
34.406,26.71
34.421,26.45
34.437,26.48
34.453,26.5
34.468,26.13
34.484,25.13
34.500,23.51
34.515,21.49
34.531,19.39
34.546,17.45
34.562,15.72
34.578,14.2
34.593,12.77
34.609,11.35
34.625,9.91
34.640,8.42
34.656,6.84
34.671,5.08
34.687,3.12
34.703,0.92
34.718,-1.47
34.734,-3.99
34.750,-6.6
34.765,-9.3
34.781,-12.06
34.796,-14.87
34.812,-17.67
34.828,-20.41
34.843,-23.12
34.859,-25.87
34.875,-28.8
34.890,-32.09
34.906,-35.89
34.921,-40.2
34.937,-44.83
34.953,-49.3
34.968,-52.95
34.984,-55.06
35.000,-55.05
35.015,-52.61
35.031,-47.84
35.046,-41.22
35.062,-33.41
35.078,-25.05
35.093,-16.61
35.109,-8.4
35.125,-0.61
35.140,6.61
35.156,13.17
35.171,18.99
35.187,24.1
35.203,28.56
35.218,32.44
35.234,35.71
35.250,38.18
35.265,39.58
35.281,39.79
35.296,38.9
35.312,37.3
35.328,35.47
35.343,33.86
35.359,32.68
35.375,31.91
35.390,31.46
35.406,31.2
35.421,31.08
35.437,31.05
35.453,30.99
35.468,30.69
35.484,29.96
35.500,28.71
35.515,27.07
35.531,25.39
35.546,24.1
35.562,23.48
35.578,23.45
35.593,23.59
35.609,23.24
35.625,21.85
35.640,19.14
35.656,15.23
35.671,10.63
35.687,5.96
35.703,1.78
35.718,-1.65
35.734,-4.32
35.750,-6.45
35.765,-8.35
35.781,-10.31
35.796,-12.54
35.812,-15.13
35.828,-18.08
35.843,-21.34
35.859,-24.83
35.875,-28.49
35.890,-32.34
35.906,-36.4
35.921,-40.74
35.937,-45.45
35.953,-50.64
35.968,-56.36
35.984,-62.47
36.000,-68.5
36.015,-73.65
36.031,-76.95
36.046,-77.5
36.062,-74.86
36.078,-69.23
36.093,-61.38
36.109,-52.35
36.125,-43.14
36.140,-34.38
36.156,-26.31
36.171,-18.93
36.187,-12.16
36.203,-5.92
36.218,-0.24
36.234,4.88
36.250,9.48
36.265,13.56
36.281,17.06
36.296,19.86
36.312,21.79
36.328,22.8
36.343,23.0
36.359,22.7
36.375,22.29
36.390,22.17
36.406,22.53
36.421,23.4
36.437,24.64
36.453,26.02
36.468,27.32
36.484,28.33
36.500,28.95
36.515,29.05
36.531,28.63
36.546,27.75
36.562,26.62
36.578,25.59
36.593,24.96
36.609,24.95
36.625,25.42
36.640,26.01
36.656,26.19
36.671,25.61
36.687,24.2
36.703,22.21
36.718,20.08
36.734,18.16
36.750,16.59
36.765,15.19
36.781,13.67
36.796,11.75
36.812,9.3
36.828,6.38
36.843,3.17
36.859,-0.09
36.875,-3.23
36.890,-6.14
36.906,-8.83
36.921,-11.43
36.937,-14.19
36.953,-17.37
36.968,-21.17
36.984,-25.59
37.000,-30.45
37.015,-35.32
37.031,-39.69
37.046,-42.92
37.062,-44.5
37.078,-44.08
37.093,-41.56
37.109,-37.07
37.125,-30.93
37.140,-23.67
37.156,-15.8
37.171,-7.89
37.187,-0.38
37.203,6.37
37.218,12.17
37.234,16.94
37.250,20.74
37.265,23.67
37.281,25.86
37.296,27.43
37.312,28.47
37.328,29.05
37.343,29.18
37.359,28.82
37.375,27.89
37.390,26.35
37.406,24.3
37.421,22.02
37.437,19.9
37.453,18.39
37.468,17.75
37.484,17.98
37.500,18.81
37.515,19.86
37.531,20.72
37.546,21.19
37.562,21.24
37.578,21.03
37.593,20.75
37.609,20.47
37.625,20.17
37.640,19.64
37.656,18.71
37.671,17.23
37.687,15.25
37.703,12.92
37.718,10.42
37.734,7.86
37.750,5.26
37.765,2.57
37.781,-0.25
37.796,-3.15
37.812,-6.02
37.828,-8.73
37.843,-11.2
37.859,-13.45
37.875,-15.54
37.890,-17.52
37.906,-19.44
37.921,-21.35
37.937,-23.37
37.953,-25.7
37.968,-28.55
37.984,-31.95
38.000,-35.72
38.015,-39.32
38.031,-42.01
38.046,-43.02
38.062,-41.84
38.078,-38.29
38.093,-32.61
38.109,-25.38
38.125,-17.21
38.140,-8.74
38.156,-0.47
38.171,7.25
38.187,14.18
38.203,20.14
38.218,25.06
38.234,28.9
38.250,31.72
38.265,33.67
38.281,34.89
38.296,35.53
38.312,35.7
38.328,35.48
38.343,34.92
38.359,34.1
38.375,33.04
38.390,31.84
38.406,30.64
38.421,29.67
38.437,29.1
38.453,29.01
38.468,29.25
38.484,29.48
38.500,29.3
38.515,28.32
38.531,26.4
38.546,23.68
38.562,20.53
38.578,17.35
38.593,14.48
38.609,12.08
38.625,10.08
38.640,8.36
38.656,6.75
38.671,5.12
38.687,3.34
38.703,1.35
38.718,-0.93
38.734,-3.46
38.750,-6.08
38.765,-8.6
38.781,-10.79
38.796,-12.62
38.812,-14.24
38.828,-15.88
38.843,-17.76
38.859,-19.98
38.875,-22.42
38.890,-24.9
38.906,-27.29
38.921,-29.6
38.937,-31.97
38.953,-34.56
38.968,-37.43
38.984,-40.59
39.000,-43.94
39.015,-47.39
39.031,-50.71
39.046,-53.48
39.062,-55.05
39.078,-54.66
39.093,-51.69
39.109,-46.02
39.125,-38.13
39.140,-29.01
39.156,-19.78
39.171,-11.29
39.187,-3.94
39.203,2.36
39.218,7.87
39.234,12.84
39.250,17.3
39.265,21.15
39.281,24.24
39.296,26.58
39.312,28.26
39.328,29.37
39.343,29.98
39.359,30.05
39.375,29.55
39.390,28.54
39.406,27.2
39.421,25.8
39.437,24.55
39.453,23.5
39.468,22.6
39.484,21.76
39.500,20.91
39.515,20.07
39.531,19.23
39.546,18.32
39.562,17.22
39.578,15.75
39.593,13.88
39.609,11.7
39.625,9.39
39.640,7.06
39.656,4.7
39.671,2.19
39.687,-0.62
39.703,-3.7
39.718,-6.86
39.734,-9.79
39.750,-12.19
39.765,-13.96
39.781,-15.15
39.796,-15.88
39.812,-16.15
39.828,-15.77
39.843,-14.43
39.859,-11.91
39.875,-8.25
39.890,-3.85
39.906,0.62
39.921,4.48
39.937,7.3
39.953,8.99
39.968,9.67
39.984,9.51
40.000,8.56
40.015,6.76
40.031,3.98
40.046,0.21
40.062,-4.41
40.078,-9.59
40.093,-15.01
40.109,-20.38
40.125,-25.41
40.140,-29.82
40.156,-33.27
40.171,-35.37
40.187,-35.84
40.203,-34.54
40.218,-31.66
40.234,-27.61
40.250,-22.96
40.265,-18.21
40.281,-13.59
40.296,-9.06
40.312,-4.33
40.328,0.85
40.343,6.61
40.359,12.75
40.375,18.85
40.390,24.44
40.406,29.18
40.421,32.92
40.437,35.67
40.453,37.53
40.468,38.54
40.484,38.76
40.500,38.32
40.515,37.38
40.531,36.2
40.546,34.99
40.562,33.81
40.578,32.65
40.593,31.4
40.609,29.95
40.625,28.26
40.640,26.38
40.656,24.4
40.671,22.48
40.687,20.71
40.703,19.14
40.718,17.76
40.734,16.51
40.750,15.23
40.765,13.79
40.781,12.1
40.796,10.05
40.812,7.64
40.828,4.98
40.843,2.24
40.859,-0.35
40.875,-2.67
40.890,-4.72
40.906,-6.66
40.921,-8.71
40.937,-11.09
40.953,-13.85
40.968,-16.88
40.984,-19.95
41.000,-22.8
41.015,-25.32
41.031,-27.52
41.046,-29.5
41.062,-31.4
41.078,-33.33
41.093,-35.42
41.109,-37.77
41.125,-40.59
41.140,-44.03
41.156,-47.97
41.171,-51.97
41.187,-55.17
41.203,-56.6
41.218,-55.42
41.234,-51.3
41.250,-44.61
41.265,-36.25
41.281,-27.35
41.296,-18.93
41.312,-11.59
41.328,-5.49
41.343,-0.48
41.359,3.72
41.375,7.32
41.390,10.38
41.406,12.83
41.421,14.59
41.437,15.6
41.453,15.96
41.468,15.85
41.484,15.51
41.500,15.16
41.515,14.95
41.531,14.94
41.546,15.1
41.562,15.38
41.578,15.7
41.593,15.97
41.609,16.2
41.625,16.4
41.640,16.55
41.656,16.64
41.671,16.59
41.687,16.3
41.703,15.72
41.718,14.94
41.734,14.11
41.750,13.4
41.765,12.83
41.781,12.26
41.796,11.44
41.812,10.16
41.828,8.35
41.843,6.17
41.859,3.91
41.875,1.82
41.890,-0.03
41.906,-1.71
41.921,-3.4
41.937,-5.26
41.953,-7.35
41.968,-9.62
41.984,-12.04
42.000,-14.53
42.015,-17.04
42.031,-19.55
42.046,-22.06
42.062,-24.55
42.078,-27.02
42.093,-29.49
42.109,-31.99
42.125,-34.57
42.140,-37.29
42.156,-40.19
42.171,-43.17
42.187,-45.95
42.203,-48.08
42.218,-48.91
42.234,-47.92
42.250,-44.78
42.265,-39.62
42.281,-32.98
42.296,-25.65
42.312,-18.36
42.328,-11.63
42.343,-5.7
42.359,-0.48
42.375,4.15
42.390,8.35
42.406,12.15
42.421,15.57
42.437,18.61
42.453,21.2
42.468,23.3
42.484,24.76
42.500,25.5
42.515,25.46
42.531,24.75
42.546,23.58
42.562,22.29
42.578,21.23
42.593,20.61
42.609,20.47
42.625,20.7
42.640,21.13
42.656,21.54
42.671,21.81
42.687,21.83
42.703,21.52
42.718,20.82
42.734,19.67
42.750,18.13
42.765,16.37
42.781,14.66
42.796,13.22
42.812,12.14
42.828,11.3
42.843,10.42
42.859,9.26
42.875,7.69
42.890,5.82
42.906,3.87
42.921,2.04
42.937,0.39
42.953,-1.13
42.968,-2.66
42.984,-4.3
43.000,-6.1
43.015,-8.06
43.031,-10.17
43.046,-12.51
43.062,-15.15
43.078,-18.11
43.093,-21.3
43.109,-24.58
43.125,-27.82
43.140,-30.97
43.156,-34.07
43.171,-37.28
43.187,-40.74
43.203,-44.55
43.218,-48.59
43.234,-52.51
43.250,-55.73
43.265,-57.55
43.281,-57.33
43.296,-54.68
43.312,-49.65
43.328,-42.67
43.343,-34.44
43.359,-25.7
43.375,-17.11
43.390,-9.11
43.406,-1.93
43.421,4.38
43.437,9.91
43.453,14.84
43.468,19.42
43.484,23.88
43.500,28.25
43.515,32.36
43.531,35.9
43.546,38.61
43.562,40.35
43.578,41.21
43.593,41.45
43.609,41.33
43.625,41.06
43.640,40.7
43.656,40.31
43.671,39.86
43.687,39.37
43.703,38.86
43.718,38.3
43.734,37.63
43.750,36.78
43.765,35.64
43.781,34.16
43.796,32.28
43.812,30.0
43.828,27.38
43.843,24.61
43.859,21.95
43.875,19.62
43.890,17.75
43.906,16.24
43.921,14.81
43.937,13.11
43.953,10.88
43.968,7.97
43.984,4.5
44.000,0.57
44.015,-3.67
44.031,-8.17
44.046,-12.84
44.062,-17.58
44.078,-22.23
44.093,-26.65
44.109,-30.74
44.125,-34.49
44.140,-37.99
44.156,-41.29
44.171,-44.44
44.187,-47.53
44.203,-50.66
44.218,-54.02
44.234,-57.86
44.250,-62.24
44.265,-66.99
44.281,-71.59
44.296,-75.22
44.312,-77.0
44.328,-76.22
44.343,-72.55
44.359,-66.12
44.375,-57.52
44.390,-47.64
44.406,-37.43
44.421,-27.67
44.437,-18.84
44.453,-11.08
44.468,-4.33
44.484,1.64
44.500,7.01
44.515,11.88
44.531,16.31
44.546,20.32
44.562,23.87
44.578,26.87
44.593,29.16
44.609,30.58
44.625,31.1
44.640,30.88
44.656,30.28
44.671,29.71
44.687,29.54
44.703,29.84
44.718,30.46
44.734,31.12
44.750,31.56
44.765,31.67
44.781,31.42
44.796,30.81
44.812,29.85
44.828,28.53
44.843,26.87
44.859,24.98
44.875,23.05
44.890,21.28
44.906,19.77
44.921,18.46
44.937,17.17
44.953,15.65
44.968,13.74
44.984,11.49
45.000,9.07
45.015,6.73
45.031,4.6
45.046,2.64
45.062,0.65
45.078,-1.54
45.093,-3.95
45.109,-6.45
45.125,-8.76
45.140,-10.69
45.156,-12.26
45.171,-13.73
45.187,-15.42
45.203,-17.6
45.218,-20.36
45.234,-23.62
45.250,-27.26
45.265,-31.11
45.281,-34.96
45.296,-38.42
45.312,-40.88
45.328,-41.62
45.343,-40.02
45.359,-35.86
45.375,-29.35
45.390,-21.19
45.406,-12.33
45.421,-3.67
45.437,4.1
45.453,10.64
45.468,15.94
45.484,20.19
45.500,23.68
45.515,26.67
45.531,29.32
45.546,31.58
45.562,33.4
45.578,34.66
45.593,35.28
45.609,35.28
45.625,34.78
45.640,34.0
45.656,33.19
45.671,32.6
45.687,32.39
45.703,32.6
45.718,33.12
45.734,33.65
45.750,33.92
45.765,33.69
45.781,32.9
45.796,31.67
45.812,30.17
45.828,28.57
45.843,26.88
45.859,24.97
45.875,22.67
45.890,19.9
45.906,16.75
45.921,13.44
45.937,10.18
45.953,7.06
45.968,4.03
45.984,0.86
46.000,-2.61
46.015,-6.44
46.031,-10.51
46.046,-14.59
46.062,-18.47
46.078,-21.98
46.093,-25.08
46.109,-27.79
46.125,-30.29
46.140,-32.8
46.156,-35.62
46.171,-39.0
46.187,-43.03
46.203,-47.41
46.218,-51.46
46.234,-54.24
46.250,-54.85
46.265,-52.73
46.281,-47.85
46.296,-40.7
46.312,-32.07
46.328,-22.89
46.343,-13.88
46.359,-5.54
46.375,1.88
46.390,8.33
46.406,13.81
46.421,18.32
46.437,21.85
46.453,24.37
46.468,25.89
46.484,26.52
46.500,26.46
46.515,25.94
46.531,25.27
46.546,24.61
46.562,24.15
46.578,23.98
46.593,24.14
46.609,24.58
46.625,25.18
46.640,25.71
46.656,25.95
46.671,25.76
46.687,25.06
46.703,23.91
46.718,22.43
46.734,20.72
46.750,18.91
46.765,17.16
46.781,15.58
46.796,14.21
46.812,12.97
46.828,11.63
46.843,9.87
46.859,7.53
46.875,4.65
46.890,1.55
46.906,-1.36
46.921,-3.87
46.937,-6.04
46.953,-8.18
46.968,-10.57
46.984,-13.3
47.000,-16.18
47.015,-18.88
47.031,-21.24
47.046,-23.35
47.062,-25.57
47.078,-28.23
47.093,-31.52
47.109,-35.39
47.125,-39.6
47.140,-43.87
47.156,-47.94
47.171,-51.45
47.187,-53.86
47.203,-54.48
47.218,-52.65
47.234,-48.1
47.250,-41.14
47.265,-32.61
47.281,-23.6
47.296,-15.03
47.312,-7.43
47.328,-0.9
47.343,4.74
47.359,9.78
47.375,14.39
47.390,18.63
47.406,22.48
47.421,25.89
47.437,28.77
47.453,31.02
47.468,32.5
47.484,33.1
47.500,32.84
47.515,31.87
47.531,30.48
47.546,29.03
47.562,27.8
47.578,27.0
47.593,26.7
47.609,26.76
47.625,26.93
47.640,26.92
47.656,26.47
47.671,25.41
47.687,23.71
47.703,21.39
47.718,18.65
47.734,15.75
47.750,13.01
47.765,10.75
47.781,9.18
47.796,8.35
47.812,8.09
47.828,8.13
47.843,8.11
47.859,7.84
47.875,7.23
47.890,6.33
47.906,5.21
47.921,3.87
47.937,2.26
47.953,0.3
47.968,-2.05
47.984,-4.82
48.000,-8.02
48.015,-11.6
48.031,-15.49
48.046,-19.47
48.062,-23.35
48.078,-26.92
48.093,-30.16
48.109,-33.19
48.125,-36.28
48.140,-39.68
48.156,-43.54
48.171,-47.81
48.187,-52.15
48.203,-56.06
48.218,-58.81
48.234,-59.63
48.250,-57.82
48.265,-53.01
48.281,-45.39
48.296,-35.64
48.312,-24.87
48.328,-14.16
48.343,-4.36
48.359,4.14
48.375,11.33
48.390,17.45
48.406,22.78
48.421,27.54
48.437,31.88
48.453,35.79
48.468,39.18
48.484,41.84
48.500,43.5
48.515,44.02
48.531,43.46
48.546,42.13
48.562,40.49
48.578,39.04
48.593,38.06
48.609,37.6
48.625,37.46
48.640,37.32
48.656,36.95
48.671,36.23
48.687,35.22
48.703,34.0
48.718,32.68
48.734,31.23
48.750,29.59
48.765,27.65
48.781,25.3
48.796,22.56
48.812,19.53
48.828,16.39
48.843,13.32
48.859,10.46
48.875,7.85
48.890,5.49
48.906,3.36
48.921,1.46
48.937,-0.2
48.953,-1.6
48.968,-2.79
48.984,-3.84
49.000,-4.9
49.015,-6.16
49.031,-7.82
49.046,-10.03
49.062,-12.8
49.078,-16.04
49.093,-19.51
49.109,-22.91
49.125,-26.01
49.140,-28.77
49.156,-31.27
49.171,-33.76
49.187,-36.48
49.203,-39.52
49.218,-42.81
49.234,-46.17
49.250,-49.19
49.265,-51.37
49.281,-52.2
49.296,-51.16
49.312,-47.88
49.328,-42.34
49.343,-34.9
49.359,-26.25
49.375,-17.29
49.390,-8.85
49.406,-1.48
49.421,4.67
49.437,9.74
49.453,14.02
49.468,17.66
49.484,20.75
49.500,23.18
49.515,24.94
49.531,26.15
49.546,27.06
49.562,27.98
49.578,29.05
49.593,30.18
49.609,31.04
49.625,31.33
49.640,30.93
49.656,30.11
49.671,29.38
49.687,29.22
49.703,29.84
49.718,31.03
49.734,32.2
49.750,32.7
49.765,32.07
49.781,30.2
49.796,27.41
49.812,24.23
49.828,21.14
49.843,18.39
49.859,15.94
49.875,13.61
49.890,11.12
49.906,8.39
49.921,5.49
49.937,2.69
49.953,0.27
49.968,-1.65
49.984,-3.11
50.000,-4.41
50.015,-5.91
50.031,-7.97
50.046,-10.67
50.062,-13.87
50.078,-17.22
50.093,-20.3
50.109,-22.84
50.125,-24.87
50.140,-26.64
50.156,-28.61
50.171,-31.2
50.187,-34.63
50.203,-38.89
50.218,-43.68
50.234,-48.51
50.250,-52.78
50.265,-55.86
50.281,-57.12
50.296,-56.15
50.312,-52.72
50.328,-46.97
50.343,-39.43
50.359,-30.84
50.375,-21.95
50.390,-13.38
50.406,-5.49
50.421,1.59
50.437,7.88
50.453,13.42
50.468,18.18
50.484,22.14
50.500,25.35
50.515,27.95
50.531,30.06
50.546,31.71
50.562,32.83
50.578,33.24
50.593,32.91
50.609,31.93
50.625,30.68
50.640,29.59
50.656,28.94
50.671,28.82
50.687,29.05
50.703,29.38
50.718,29.55
50.734,29.51
50.750,29.25
50.765,28.8
50.781,28.11
50.796,27.07
50.812,25.59
50.828,23.7
50.843,21.56
50.859,19.34
50.875,17.2
50.890,15.18
50.906,13.16
50.921,10.97
50.937,8.5
50.953,5.77
50.968,2.92
50.984,0.15
51.000,-2.43
51.015,-4.8
51.031,-7.05
51.046,-9.33
51.062,-11.78
51.078,-14.53
51.093,-17.65
51.109,-21.12
51.125,-24.85
51.140,-28.61
51.156,-32.16
51.171,-35.32
51.187,-38.07
51.203,-40.64
51.218,-43.35
51.234,-46.47
51.250,-50.01
51.265,-53.66
51.281,-56.81
51.296,-58.78
51.312,-58.96
51.328,-57.01
51.343,-52.9
51.359,-46.93
51.375,-39.57
51.390,-31.48
51.406,-23.31
51.421,-15.57
51.437,-8.57
51.453,-2.36
51.468,3.22
51.484,8.42
51.500,13.44
51.515,18.31
51.531,22.91
51.546,26.97
51.562,30.24
51.578,32.55
51.593,33.88
51.609,34.41
51.625,34.32
51.640,33.87
51.656,33.25
51.671,32.62
51.687,32.18
51.703,32.13
51.718,32.52
51.734,33.3
51.750,34.23
51.765,34.96
51.781,35.18
51.796,34.71
51.812,33.52
51.828,31.73
51.843,29.52
51.859,27.05
51.875,24.43
51.890,21.73
51.906,18.98
51.921,16.2
51.937,13.47
51.953,10.87
51.968,8.52
51.984,6.5
52.000,4.8
52.015,3.32
52.031,1.93
52.046,0.45
52.062,-1.23
52.078,-3.17
52.093,-5.42
52.109,-8.0
52.125,-10.93
52.140,-14.2
52.156,-17.69
52.171,-21.17
52.187,-24.39
52.203,-27.24
52.218,-29.8
52.234,-32.41
52.250,-35.45
52.265,-39.23
52.281,-43.82
52.296,-48.97
52.312,-54.19
52.328,-58.83
52.343,-62.21
52.359,-63.64
52.375,-62.6
52.390,-58.75
52.406,-52.14
52.421,-43.26
52.437,-33.01
52.453,-22.53
52.468,-12.82
52.484,-4.5
52.500,2.36
52.515,8.03
52.531,13.01
52.546,17.65
52.562,22.1
52.578,26.22
52.593,29.79
52.609,32.59
52.625,34.52
52.640,35.6
52.656,35.91
52.671,35.6
52.687,34.89
52.703,34.02
52.718,33.25
52.734,32.82
52.750,32.84
52.765,33.27
52.781,33.94
52.796,34.56
52.812,34.87
52.828,34.65
52.843,33.84
52.859,32.49
52.875,30.75
52.890,28.78
52.906,26.66
52.921,24.45
52.937,22.11
52.953,19.63
52.968,16.96
52.984,14.08
53.000,11.05
53.015,7.94
53.031,4.82
53.046,1.68
53.062,-1.45
53.078,-4.58
53.093,-7.66
53.109,-10.56
53.125,-13.16
53.140,-15.39
53.156,-17.28
53.171,-19.0
53.187,-20.8
53.203,-22.83
53.218,-25.15
53.234,-27.76
53.250,-30.62
53.265,-33.84
53.281,-37.53
53.296,-41.77
53.312,-46.35
53.328,-50.76
53.343,-54.18
53.359,-55.77
53.375,-54.89
53.390,-51.25
53.406,-45.06
53.421,-36.87
53.437,-27.56
53.453,-18.06
53.468,-9.15
53.484,-1.37
53.500,5.14
53.515,10.54
53.531,15.14
53.546,19.2
53.562,22.84
53.578,25.98
53.593,28.44
53.609,30.16
53.625,31.12
53.640,31.4
53.656,31.18
53.671,30.61
53.687,29.83
53.703,29.02
53.718,28.31
53.734,27.82
53.750,27.59
53.765,27.56
53.781,27.63
53.796,27.59
53.812,27.28
53.828,26.57
53.843,25.4
53.859,23.84
53.875,22.01
53.890,20.04
53.906,18.04
53.921,16.05
53.937,14.02
53.953,11.82
53.968,9.35
53.984,6.59
54.000,3.65
54.015,0.64
54.031,-2.26
54.046,-5.01
54.062,-7.69
54.078,-10.46
54.093,-13.55
54.109,-17.05
54.125,-20.88
54.140,-24.79
54.156,-28.48
54.171,-31.68
54.187,-34.34
54.203,-36.67
54.218,-38.99
54.234,-41.64
54.250,-44.77
54.265,-48.31
54.281,-51.88
54.296,-54.96
54.312,-56.94
54.328,-57.26
54.343,-55.5
54.359,-51.48
54.375,-45.36
54.390,-37.58
54.406,-28.87
54.421,-19.99
54.437,-11.56
54.453,-3.96
54.468,2.78
54.484,8.79
54.500,14.29
54.515,19.4
54.531,24.07
54.546,28.15
54.562,31.45
54.578,33.84
54.593,35.31
54.609,35.92
54.625,35.78
54.640,35.09
54.656,34.04
54.671,32.85
54.687,31.76
54.703,30.92
54.718,30.37
54.734,30.04
54.750,29.74
54.765,29.24
54.781,28.44
54.796,27.26
54.812,25.79
54.828,24.13
54.843,22.45
54.859,20.84
54.875,19.43
54.890,18.29
54.906,17.37
54.921,16.57
54.937,15.65
54.953,14.33
54.968,12.46
54.984,10.08
55.000,7.4
55.015,4.8
55.031,2.62
55.046,0.99
55.062,-0.18
55.078,-1.28
55.093,-2.71
55.109,-4.74
55.125,-7.49
55.140,-10.86
55.156,-14.63
55.171,-18.54
55.187,-22.35
55.203,-25.89
55.218,-29.1
55.234,-32.06
55.250,-34.94
55.265,-37.97
55.281,-41.42
55.296,-45.43
55.312,-49.95
55.328,-54.66
55.343,-58.93
55.359,-61.95
55.375,-62.91
55.390,-61.18
55.406,-56.58
55.421,-49.41
55.437,-40.42
55.453,-30.62
55.468,-20.94
55.484,-12.04
55.500,-4.12
55.515,3.0
55.531,9.61
55.546,15.93
55.562,21.91
55.578,27.3
55.593,31.78
55.609,35.14
55.625,37.41
55.640,38.74
55.656,39.36
55.671,39.43
55.687,39.02
55.703,38.28
55.718,37.4
55.734,36.63
55.750,36.18
55.765,36.14
55.781,36.39
55.796,36.71
55.812,36.86
55.828,36.69
55.843,36.16
55.859,35.27
55.875,34.08
55.890,32.59
55.906,30.85
55.921,28.9
55.937,26.77
55.953,24.48
55.968,22.06
55.984,19.41
56.000,16.51
56.015,13.33
56.031,9.97
56.046,6.52
56.062,3.18
56.078,0.06
56.093,-2.75
56.109,-5.24
56.125,-7.52
56.140,-9.8
56.156,-12.35
56.171,-15.39
56.187,-19.03
56.203,-23.16
56.218,-27.5
56.234,-31.73
56.250,-35.61
56.265,-39.1
56.281,-42.41
56.296,-45.93
56.312,-50.05
56.328,-55.13
56.343,-61.3
56.359,-68.51
56.375,-76.46
56.390,-84.63
56.406,-92.29
56.421,-98.45
56.437,-102.11
56.453,-102.32
56.468,-98.58
56.484,-90.94
56.500,-80.12
56.515,-67.28
56.531,-53.66
56.546,-40.33
56.562,-27.92
56.578,-16.69
56.593,-6.67
56.609,2.14
56.625,9.67
56.640,15.83
56.656,20.52
56.671,23.85
56.687,26.06
56.703,27.5
56.718,28.48
56.734,29.17
56.750,29.63
56.765,29.88
56.781,29.96
56.796,29.99
56.812,30.18
56.828,30.7
56.843,31.58
56.859,32.65
56.875,33.6
56.890,34.12
56.906,34.01
56.921,33.28
56.937,32.13
56.953,30.82
56.968,29.54
56.984,28.32
57.000,27.09
57.015,25.76
57.031,24.32
57.046,22.86
57.062,21.51
57.078,20.28
57.093,19.1
57.109,17.87
57.125,16.54
57.140,15.25
57.156,14.22
57.171,13.63
57.187,13.41
57.203,13.23
57.218,12.6
57.234,11.15
57.250,8.75
57.265,5.65
57.281,2.31
57.296,-0.82
57.312,-3.49
57.328,-5.66
57.343,-7.53
57.359,-9.32
57.375,-11.28
57.390,-13.64
57.406,-16.55
57.421,-20.06
57.437,-24.1
57.453,-28.32
57.468,-32.13
57.484,-34.8
57.500,-35.55
57.515,-33.9
57.531,-29.75
57.546,-23.44
57.562,-15.67
57.578,-7.3
57.593,0.86
57.609,8.25
57.625,14.53
57.640,19.69
57.656,23.81
57.671,27.06
57.687,29.55
57.703,31.35
57.718,32.53
57.734,33.2
57.750,33.51
57.765,33.56
57.781,33.42
57.796,33.1
57.812,32.57
57.828,31.91
57.843,31.21
57.859,30.66
57.875,30.38
57.890,30.41
57.906,30.63
57.921,30.86
57.937,30.89
57.953,30.53
57.968,29.7
57.984,28.32
58.000,26.43
58.015,24.12
58.031,21.58
58.046,19.06
58.062,16.75
58.078,14.74
58.093,12.94
58.109,11.25
58.125,9.51
58.140,7.7
58.156,5.81
58.171,3.88
58.187,1.99
58.203,0.11
58.218,-1.78
58.234,-3.73
58.250,-5.79
58.265,-8.04
58.281,-10.57
58.296,-13.41
58.312,-16.51
58.328,-19.71
58.343,-22.8
58.359,-25.56
58.375,-27.95
58.390,-30.05
58.406,-32.15
58.421,-34.49
58.437,-37.26
58.453,-40.4
58.468,-43.63
58.484,-46.54
58.500,-48.55
58.515,-49.15
58.531,-47.92
58.546,-44.65
58.562,-39.44
58.578,-32.7
58.593,-25.09
58.609,-17.31
58.625,-9.95
58.640,-3.29
58.656,2.63
58.671,7.9
58.687,12.66
58.703,16.95
58.718,20.72
58.734,23.93
58.750,26.57
58.765,28.67
58.781,30.25
58.796,31.26
58.812,31.67
58.828,31.49
58.843,30.85
58.859,30.04
58.875,29.35
58.890,29.05
58.906,29.19
58.921,29.72
58.937,30.45
58.953,31.18
58.968,31.8
58.984,32.24
59.000,32.47
59.015,32.44
59.031,32.05
59.046,31.17
59.062,29.74
59.078,27.81
59.093,25.6
59.109,23.46
59.125,21.67
59.140,20.35
59.156,19.37
59.171,18.36
59.187,16.92
59.203,14.8
59.218,12.06
59.234,8.98
59.250,5.9
59.265,3.05
59.281,0.4
59.296,-2.21
59.312,-5.04
59.328,-8.2
59.343,-11.7
59.359,-15.44
59.375,-19.32
59.390,-23.22
59.406,-26.99
59.421,-30.38
59.437,-33.05
59.453,-34.71
59.468,-35.26
59.484,-34.92
59.500,-34.23
59.515,-33.9
59.531,-34.59
59.546,-36.59
59.562,-39.78
59.578,-43.53
59.593,-46.95
59.609,-49.11
59.625,-49.25
59.640,-47.02
59.656,-42.48
59.671,-36.07
59.687,-28.42
59.703,-20.24
59.718,-12.12
59.734,-4.47
59.750,2.48
59.765,8.67
59.781,14.15
59.796,19.03
59.812,23.47
59.828,27.59
59.843,31.44
59.859,34.9
59.875,37.74
59.890,39.63
59.906,40.34
59.921,39.82
59.937,38.29
59.953,36.21
59.968,34.07
59.984,32.27
