timestamp,value
00.000,32.14
00.015,30.94
00.031,29.47
00.046,27.64
00.062,25.35
00.078,22.47
00.093,18.93
00.109,14.77
00.125,10.25
00.140,5.66
00.156,1.28
00.171,-2.79
00.187,-6.66
00.203,-10.5
00.218,-14.43
00.234,-18.39
00.250,-22.17
00.265,-25.55
00.281,-28.59
00.296,-31.59
00.312,-35.02
00.328,-39.25
00.343,-44.2
00.359,-49.29
00.375,-53.57
00.390,-56.02
00.406,-55.91
00.421,-53.08
00.437,-47.92
00.453,-41.08
00.468,-33.3
00.484,-25.15
00.500,-17.0
00.515,-9.06
00.531,-1.48
00.546,5.56
00.562,11.87
00.578,17.37
00.593,22.1
00.609,26.16
00.625,29.64
00.640,32.56
00.656,34.79
00.671,36.2
00.687,36.61
00.703,36.02
00.718,34.58
00.734,32.67
00.750,30.64
00.765,28.91
00.781,27.73
00.796,27.15
00.812,27.05
00.828,27.15
00.843,27.14
00.859,26.79
00.875,25.97
00.890,24.69
00.906,23.03
00.921,21.08
00.937,18.89
00.953,16.57
00.968,14.23
00.984,12.04
01.000,10.13
01.015,8.53
01.031,7.12
01.046,5.63
01.062,3.75
01.078,1.3
01.093,-1.61
01.109,-4.64
01.125,-7.33
01.140,-9.33
01.156,-10.63
01.171,-11.59
01.187,-12.71
01.203,-14.43
01.218,-16.9
01.234,-19.84
01.250,-22.78
01.265,-25.36
01.281,-27.49
01.296,-29.47
01.312,-31.85
01.328,-35.09
01.343,-39.33
01.359,-44.23
01.375,-49.07
01.390,-52.92
01.406,-54.95
01.421,-54.6
01.437,-51.67
01.453,-46.32
01.468,-38.93
01.484,-30.1
01.500,-20.58
01.515,-11.14
01.531,-2.45
01.546,5.03
01.562,11.2
01.578,16.24
01.593,20.57
01.609,24.67
01.625,28.8
01.640,32.93
01.656,36.73
01.671,39.75
01.687,41.61
01.703,42.26
01.718,41.95
01.734,41.13
01.750,40.26
01.765,39.67
01.781,39.38
01.796,39.23
01.812,39.03
01.828,38.66
01.843,38.15
01.859,37.66
01.875,37.35
01.890,37.2
01.906,37.05
01.921,36.62
01.937,35.71
01.953,34.26
01.968,32.44
01.984,30.54
02.000,28.86
02.015,27.54
02.031,26.48
02.046,25.38
02.062,23.84
02.078,21.51
02.093,18.26
02.109,14.22
02.125,9.76
02.140,5.32
02.156,1.17
02.171,-2.62
02.187,-6.21
02.203,-9.8
02.218,-13.54
02.234,-17.35
02.250,-21.05
02.265,-24.41
02.281,-27.32
02.296,-29.93
02.312,-32.49
02.328,-35.29
02.343,-38.5
02.359,-42.14
02.375,-46.06
02.390,-50.13
02.406,-54.1
02.421,-57.65
02.437,-60.31
02.453,-61.41
02.468,-60.24
02.484,-56.34
02.500,-49.76
02.515,-41.09
02.531,-31.43
02.546,-21.96
02.562,-13.54
02.578,-6.51
02.593,-0.7
02.609,4.35
02.625,9.02
02.640,13.49
02.656,17.64
02.671,21.23
02.687,24.02
02.703,25.99
02.718,27.24
02.734,27.99
02.750,28.43
02.765,28.63
02.781,28.55
02.796,28.07
02.812,27.12
02.828,25.8
02.843,24.4
02.859,23.26
02.875,22.68
02.890,22.71
02.906,23.11
02.921,23.49
02.937,23.48
02.953,22.91
02.968,21.91
02.984,20.8
03.000,19.82
03.015,19.12
03.031,18.53
03.046,17.73
03.062,16.35
03.078,14.2
03.093,11.3
03.109,7.97
03.125,4.57
03.140,1.3
03.156,-1.84
03.171,-5.06
03.187,-8.61
03.203,-12.59
03.218,-16.85
03.234,-21.08
03.250,-24.92
03.265,-28.16
03.281,-30.88
03.296,-33.35
03.312,-35.89
03.328,-38.76
03.343,-42.08
03.359,-45.78
03.375,-49.68
03.390,-53.43
03.406,-56.53
03.421,-58.37
03.437,-58.35
03.453,-56.0
03.468,-51.24
03.484,-44.31
03.500,-35.89
03.515,-26.89
03.531,-18.22
03.546,-10.57
03.562,-4.25
03.578,0.83
03.593,5.13
03.609,9.15
03.625,13.22
03.640,17.45
03.656,21.58
03.671,25.26
03.687,28.17
03.703,30.16
03.718,31.27
03.734,31.66
03.750,31.47
03.765,30.81
03.781,29.82
03.796,28.62
03.812,27.42
03.828,26.41
03.843,25.67
03.859,25.24
03.875,25.02
03.890,24.81
03.906,24.43
03.921,23.71
03.937,22.57
03.953,21.04
03.968,19.31
03.984,17.6
04.000,16.09
04.015,14.85
04.031,13.69
04.046,12.3
04.062,10.4
04.078,7.75
04.093,4.41
04.109,0.74
04.125,-2.84
04.140,-5.96
04.156,-8.47
04.171,-10.53
04.187,-12.45
04.203,-14.52
04.218,-16.9
04.234,-19.53
04.250,-22.19
04.265,-24.66
04.281,-26.92
04.296,-29.09
04.312,-31.44
04.328,-34.15
04.343,-37.32
04.359,-40.89
04.375,-44.73
04.390,-48.66
04.406,-52.4
04.421,-55.52
04.437,-57.37
04.453,-57.26
04.468,-54.6
04.484,-49.21
04.500,-41.47
04.515,-32.25
04.531,-22.67
04.546,-13.77
04.562,-6.1
04.578,0.29
04.593,5.79
04.609,10.96
04.625,16.2
04.640,21.55
04.656,26.77
04.671,31.44
04.687,35.21
04.703,37.94
04.718,39.71
04.734,40.7
04.750,41.11
04.765,41.13
04.781,40.83
04.796,40.33
04.812,39.78
04.828,39.37
04.843,39.25
04.859,39.53
04.875,40.12
04.890,40.78
04.906,41.19
04.921,41.0
04.937,40.05
04.953,38.4
04.968,36.32
04.984,34.18
05.000,32.22
05.015,30.48
05.031,28.76
05.046,26.8
05.062,24.41
05.078,21.62
05.093,18.64
05.109,15.71
05.125,12.94
05.140,10.24
05.156,7.4
05.171,4.23
05.187,0.71
05.203,-2.98
05.218,-6.54
05.234,-9.72
05.250,-12.48
05.265,-14.98
05.281,-17.46
05.296,-20.13
05.312,-23.03
05.328,-26.05
05.343,-29.03
05.359,-31.81
05.375,-34.41
05.390,-36.98
05.406,-39.76
05.421,-42.95
05.437,-46.54
05.453,-50.25
05.468,-53.49
05.484,-55.51
05.500,-55.56
05.515,-53.19
05.531,-48.39
05.546,-41.58
05.562,-33.55
05.578,-25.2
05.593,-17.28
05.609,-10.26
05.625,-4.26
05.640,0.91
05.656,5.53
05.671,9.84
05.687,13.93
05.703,17.73
05.718,21.08
05.734,23.87
05.750,26.05
05.765,27.62
05.781,28.62
05.796,29.06
05.812,28.96
05.828,28.39
05.843,27.57
05.859,26.8
05.875,26.38
05.890,26.42
05.906,26.74
05.921,26.94
05.937,26.57
05.953,25.35
05.968,23.32
05.984,20.78
06.000,18.18
06.015,15.82
06.031,13.69
06.046,11.62
06.062,9.34
06.078,6.73
06.093,3.89
06.109,1.05
06.125,-1.54
06.140,-3.78
06.156,-5.75
06.171,-7.71
06.187,-9.84
06.203,-12.16
06.218,-14.56
06.234,-16.82
06.250,-18.87
06.265,-20.79
06.281,-22.88
06.296,-25.45
06.312,-28.62
06.328,-32.25
06.343,-35.93
06.359,-39.24
06.375,-41.99
06.390,-44.39
06.406,-46.87
06.421,-49.83
06.437,-53.2
06.453,-56.31
06.468,-58.07
06.484,-57.38
06.500,-53.63
06.515,-46.98
06.531,-38.33
06.546,-28.88
06.562,-19.75
06.578,-11.55
06.593,-4.43
06.609,1.8
06.625,7.37
06.640,12.39
06.656,16.83
06.671,20.62
06.687,23.74
06.703,26.28
06.718,28.39
06.734,30.19
06.750,31.62
06.765,32.57
06.781,32.87
06.796,32.45
06.812,31.43
06.828,30.09
06.843,28.79
06.859,27.84
06.875,27.47
06.890,27.65
06.906,28.18
06.921,28.76
06.937,29.04
06.953,28.8
06.968,28.03
06.984,26.82
07.000,25.38
07.015,23.81
07.031,22.12
07.046,20.24
07.062,18.11
07.078,15.8
07.093,13.46
07.109,11.23
07.125,9.14
07.140,7.05
07.156,4.75
07.171,2.08
07.187,-0.91
07.203,-4.01
07.218,-6.95
07.234,-9.57
07.250,-11.93
07.265,-14.3
07.281,-16.95
07.296,-20.02
07.312,-23.47
07.328,-27.01
07.343,-30.32
07.359,-33.18
07.375,-35.59
07.390,-37.81
07.406,-40.26
07.421,-43.28
07.437,-46.99
07.453,-51.07
07.468,-54.88
07.484,-57.5
07.500,-58.06
07.515,-56.05
07.531,-51.43
07.546,-44.67
07.562,-36.53
07.578,-27.85
07.593,-19.23
07.609,-11.02
07.625,-3.34
07.640,3.75
07.656,10.22
07.671,16.02
07.687,21.13
07.703,25.69
07.718,29.87
07.734,33.83
07.750,37.6
07.765,40.94
07.781,43.53
07.796,45.09
07.812,45.57
07.828,45.2
07.843,44.42
07.859,43.71
07.875,43.37
07.890,43.44
07.906,43.73
07.921,43.92
07.937,43.77
07.953,43.2
07.968,42.2
07.984,40.89
08.000,39.35
08.015,37.6
08.031,35.61
08.046,33.37
08.062,30.94
08.078,28.37
08.093,25.79
08.109,23.23
08.125,20.74
08.140,18.26
08.156,15.74
08.171,13.14
08.187,10.5
08.203,7.97
08.218,5.72
08.234,3.84
08.250,2.25
08.265,0.77
08.281,-0.97
08.296,-3.18
08.312,-5.84
08.328,-8.71
08.343,-11.4
08.359,-13.64
08.375,-15.45
08.390,-17.11
08.406,-19.03
08.421,-21.53
08.437,-24.76
08.453,-28.57
08.468,-32.72
08.484,-36.87
08.500,-40.6
08.515,-43.43
08.531,-44.78
08.546,-44.06
08.562,-40.86
08.578,-35.16
08.593,-27.47
08.609,-18.75
08.625,-10.08
08.640,-2.47
08.656,3.55
08.671,7.97
08.687,11.19
08.703,13.79
08.718,16.26
08.734,18.88
08.750,21.62
08.765,24.31
08.781,26.58
08.796,28.09
08.812,28.55
08.828,27.88
08.843,26.23
08.859,23.99
08.875,21.67
08.890,19.66
08.906,18.18
08.921,17.14
08.937,16.33
08.953,15.56
08.968,14.81
08.984,14.18
09.000,13.81
09.015,13.69
09.031,13.56
09.046,13.07
09.062,11.9
09.078,10.03
09.093,7.68
09.109,5.3
09.125,3.27
09.140,1.7
09.156,0.46
09.171,-0.78
09.187,-2.28
09.203,-4.18
09.218,-6.34
09.234,-8.55
09.250,-10.65
09.265,-12.59
09.281,-14.47
09.296,-16.44
09.312,-18.61
09.328,-21.0
09.343,-23.58
09.359,-26.26
09.375,-29.0
09.390,-31.83
09.406,-34.79
09.421,-37.96
09.437,-41.36
09.453,-44.94
09.468,-48.52
09.484,-51.84
09.500,-54.64
09.515,-56.73
09.531,-58.08
09.546,-58.68
09.562,-58.48
09.578,-57.24
09.593,-54.57
09.609,-50.11
09.625,-43.79
09.640,-35.94
09.656,-27.28
09.671,-18.7
09.687,-10.87
09.703,-4.16
09.718,1.47
09.734,6.3
09.750,10.6
09.765,14.5
09.781,17.95
09.796,20.82
09.812,22.99
09.828,24.47
09.843,25.4
09.859,25.95
09.875,26.35
09.890,26.69
09.906,27.01
09.921,27.2
09.937,27.21
09.953,26.98
09.968,26.64
09.984,26.33
10.000,26.23
10.015,26.43
10.031,26.83
10.046,27.23
10.062,27.32
10.078,26.89
10.093,25.84
10.109,24.29
10.125,22.49
10.140,20.65
10.156,18.93
10.171,17.29
10.187,15.63
10.203,13.77
10.218,11.64
10.234,9.27
10.250,6.79
10.265,4.32
10.281,1.91
10.296,-0.55
10.312,-3.22
10.328,-6.27
10.343,-9.7
10.359,-13.36
10.375,-16.98
10.390,-20.31
10.406,-23.25
10.421,-25.93
10.437,-28.61
10.453,-31.53
10.468,-34.87
10.484,-38.6
10.500,-42.65
10.515,-46.91
10.531,-51.28
10.546,-55.63
10.562,-59.63
10.578,-62.74
10.593,-64.23
10.609,-63.52
10.625,-60.31
10.640,-54.8
10.656,-47.66
10.671,-39.76
10.687,-31.82
10.703,-24.3
10.718,-17.25
10.734,-10.51
10.750,-3.97
10.765,2.34
10.781,8.23
10.796,13.38
10.812,17.58
10.828,20.76
10.843,23.0
10.859,24.44
10.875,25.24
10.890,25.53
10.906,25.37
10.921,24.89
10.937,24.16
10.953,23.37
10.968,22.63
10.984,22.01
11.000,21.48
11.015,20.98
11.031,20.37
11.046,19.57
11.062,18.57
11.078,17.36
11.093,16.05
11.109,14.67
11.125,13.29
11.140,11.9
11.156,10.47
11.171,8.95
11.187,7.3
11.203,5.5
11.218,3.59
11.234,1.62
11.250,-0.34
11.265,-2.22
11.281,-4.05
11.296,-5.89
11.312,-7.83
11.328,-9.95
11.343,-12.24
11.359,-14.67
11.375,-17.2
11.390,-19.84
11.406,-22.7
11.421,-25.95
11.437,-29.65
11.453,-33.66
11.468,-37.48
11.484,-40.32
11.500,-41.31
11.515,-39.84
11.531,-35.75
11.546,-29.46
11.562,-21.72
11.578,-13.36
11.593,-4.95
11.609,3.23
11.625,11.15
11.640,18.75
11.656,25.84
11.671,32.12
11.687,37.4
11.703,41.66
11.718,45.13
11.734,48.07
11.750,50.61
11.765,52.64
11.781,53.84
11.796,53.97
11.812,53.0
11.828,51.24
11.843,49.17
11.859,47.28
11.875,45.83
11.890,44.82
11.906,44.01
11.921,43.03
11.937,41.57
11.953,39.5
11.968,36.9
11.984,34.01
12.000,31.14
12.015,28.5
12.031,26.09
12.046,23.73
12.062,21.18
12.078,18.22
12.093,14.86
12.109,11.35
12.125,7.98
12.140,5.0
12.156,2.4
12.171,-0.07
12.187,-2.78
12.203,-5.96
12.218,-9.63
12.234,-13.51
12.250,-17.16
12.265,-20.26
12.281,-22.76
12.296,-24.92
12.312,-27.2
12.328,-30.03
12.343,-33.58
12.359,-37.78
12.375,-42.36
12.390,-46.91
12.406,-51.03
12.421,-54.26
12.437,-56.09
12.453,-55.97
12.468,-53.45
12.484,-48.38
12.500,-41.02
12.515,-32.09
12.531,-22.54
12.546,-13.29
12.562,-4.94
12.578,2.28
12.593,8.49
12.609,14.03
12.625,19.21
12.640,24.19
12.656,28.92
12.671,33.13
12.687,36.52
12.703,38.81
12.718,39.89
12.734,39.86
12.750,39.05
12.765,37.82
12.781,36.51
12.796,35.29
12.812,34.19
12.828,33.2
12.843,32.32
12.859,31.61
12.875,31.16
12.890,30.89
12.906,30.6
12.921,29.94
12.937,28.65
12.953,26.65
12.968,24.21
12.984,21.72
13.000,19.58
13.015,17.94
13.031,16.58
13.046,15.11
13.062,13.15
13.078,10.58
13.093,7.56
13.109,4.49
13.125,1.71
13.140,-0.67
13.156,-2.84
13.171,-5.18
13.187,-7.99
13.203,-11.35
13.218,-15.01
13.234,-18.58
13.250,-21.74
13.265,-24.41
13.281,-26.89
13.296,-29.6
13.312,-32.99
13.328,-37.24
13.343,-42.18
13.359,-47.33
13.375,-52.02
13.390,-55.48
13.406,-57.11
13.421,-56.52
13.437,-53.62
13.453,-48.66
13.468,-42.03
13.484,-34.27
13.500,-25.95
13.515,-17.59
13.531,-9.69
13.546,-2.58
13.562,3.55
13.578,8.77
13.593,13.34
13.609,17.6
13.625,21.76
13.640,25.74
13.656,29.15
13.671,31.46
13.687,32.27
13.703,31.55
13.718,29.7
13.734,27.37
13.750,25.22
13.765,23.67
13.781,22.82
13.796,22.46
13.812,22.29
13.828,22.06
13.843,21.64
13.859,21.06
13.875,20.33
13.890,19.45
13.906,18.33
13.921,16.86
13.937,14.99
13.953,12.74
13.968,10.29
13.984,7.82
14.000,5.5
14.015,3.35
14.031,1.21
14.046,-1.12
14.062,-3.86
14.078,-7.05
14.093,-10.58
14.109,-14.08
14.125,-17.22
14.140,-19.8
14.156,-21.88
14.171,-23.8
14.187,-25.94
14.203,-28.64
14.218,-31.92
14.234,-35.66
14.250,-39.65
14.265,-43.8
14.281,-48.11
14.296,-52.55
14.312,-56.81
14.328,-60.2
14.343,-61.8
14.359,-60.72
14.375,-56.49
14.390,-49.32
14.406,-40.01
14.421,-29.73
14.437,-19.55
14.453,-10.25
14.468,-2.11
14.484,4.94
14.500,11.14
14.515,16.72
14.531,21.76
14.546,26.17
14.562,29.8
14.578,32.56
14.593,34.4
14.609,35.44
14.625,35.81
14.640,35.62
14.656,34.89
14.671,33.61
14.687,31.81
14.703,29.65
14.718,27.39
14.734,25.32
14.750,23.6
14.765,22.23
14.781,21.09
14.796,20.01
14.812,18.87
14.828,17.67
14.843,16.46
14.859,15.36
14.875,14.47
14.890,13.85
14.906,13.53
14.921,13.42
14.937,13.35
14.953,13.11
14.968,12.57
14.984,11.67
15.000,10.52
15.015,9.28
15.031,8.05
15.046,6.77
15.062,5.33
15.078,3.56
15.093,1.43
15.109,-0.91
15.125,-3.24
15.140,-5.35
15.156,-7.2
15.171,-8.93
15.187,-10.81
15.203,-12.98
15.218,-15.4
15.234,-17.79
15.250,-19.81
15.265,-21.33
15.281,-22.53
15.296,-23.9
15.312,-25.96
15.328,-28.98
15.343,-32.7
15.359,-36.34
15.375,-38.83
15.390,-39.25
15.406,-37.1
15.421,-32.54
15.437,-26.15
15.453,-18.79
15.468,-11.19
15.484,-3.79
15.500,3.22
15.515,9.78
15.531,15.79
15.546,20.98
15.562,25.15
15.578,28.21
15.593,30.35
15.609,32.05
15.625,33.76
15.640,35.66
15.656,37.55
15.671,38.94
15.687,39.33
15.703,38.52
15.718,36.76
15.734,34.56
15.750,32.46
15.765,30.8
15.781,29.66
15.796,28.85
15.812,28.18
15.828,27.46
15.843,26.53
15.859,25.34
15.875,23.86
15.890,22.16
15.906,20.31
15.921,18.4
15.937,16.48
15.953,14.53
15.968,12.49
15.984,10.42
16.000,8.44
16.015,6.73
16.031,5.38
16.046,4.21
16.062,2.92
16.078,1.17
16.093,-1.19
16.109,-3.97
16.125,-6.78
16.140,-9.3
16.156,-11.44
16.171,-13.42
16.187,-15.62
16.203,-18.22
16.218,-21.12
16.234,-23.91
16.250,-26.17
16.265,-27.78
16.281,-28.97
16.296,-30.31
16.312,-32.33
16.328,-35.27
16.343,-38.98
16.359,-42.94
16.375,-46.48
16.390,-48.96
16.406,-49.87
16.421,-48.89
16.437,-45.89
16.453,-40.97
16.468,-34.41
16.484,-26.82
16.500,-18.88
16.515,-11.28
16.531,-4.52
16.546,1.22
16.562,6.03
16.578,10.15
16.593,13.83
16.609,17.19
16.625,20.24
16.640,22.91
16.656,25.09
16.671,26.75
16.687,27.86
16.703,28.41
16.718,28.37
16.734,27.69
16.750,26.5
16.765,25.03
16.781,23.65
16.796,22.71
16.812,22.34
16.828,22.44
16.843,22.7
16.859,22.76
16.875,22.4
16.890,21.61
16.906,20.51
16.921,19.16
16.937,17.55
16.953,15.6
16.968,13.3
16.984,10.77
17.000,8.27
17.015,6.03
17.031,4.1
17.046,2.28
17.062,0.21
17.078,-2.4
17.093,-5.59
17.109,-9.1
17.125,-12.58
17.140,-15.71
17.156,-18.43
17.171,-20.84
17.187,-23.14
17.203,-25.45
17.218,-27.71
17.234,-29.77
17.250,-31.48
17.265,-32.83
17.281,-34.01
17.296,-35.34
17.312,-37.19
17.328,-39.87
17.343,-43.39
17.359,-47.51
17.375,-51.69
17.390,-55.19
17.406,-57.23
17.421,-57.14
17.437,-54.53
17.453,-49.38
17.468,-42.11
17.484,-33.39
17.500,-24.04
17.515,-14.86
17.531,-6.48
17.546,0.74
17.562,6.64
17.578,11.33
17.593,15.07
17.609,18.16
17.625,20.92
17.640,23.55
17.656,26.05
17.671,28.26
17.687,29.88
17.703,30.61
17.718,30.35
17.734,29.27
17.750,27.86
17.765,26.71
17.781,26.28
17.796,26.75
17.812,27.89
17.828,29.24
17.843,30.25
17.859,30.53
17.875,29.93
17.890,28.52
17.906,26.51
17.921,24.13
17.937,21.54
17.953,18.92
17.968,16.38
17.984,14.08
18.000,12.16
18.015,10.68
18.031,9.51
18.046,8.35
18.062,6.83
18.078,4.68
18.093,1.87
18.109,-1.28
18.125,-4.22
18.140,-6.51
18.156,-8.0
18.171,-9.03
18.187,-10.22
18.203,-12.21
18.218,-15.32
18.234,-19.36
18.250,-23.8
18.265,-27.9
18.281,-31.2
18.296,-33.55
18.312,-35.15
18.328,-36.41
18.343,-37.68
18.359,-39.2
18.375,-41.06
18.390,-43.25
18.406,-45.72
18.421,-48.23
18.437,-50.37
18.453,-51.5
18.468,-50.97
18.484,-48.24
18.500,-43.16
18.515,-36.06
18.531,-27.63
18.546,-18.83
18.562,-10.58
18.578,-3.43
18.593,2.45
18.609,7.23
18.625,11.37
18.640,15.27
18.656,19.15
18.671,23.01
18.687,26.6
18.703,29.58
18.718,31.76
18.734,33.09
18.750,33.69
18.765,33.78
18.781,33.5
18.796,32.98
18.812,32.34
18.828,31.74
18.843,31.4
18.859,31.53
18.875,32.23
18.890,33.38
18.906,34.71
18.921,35.75
18.937,36.05
18.953,35.39
18.968,33.8
18.984,31.6
19.000,29.24
19.015,27.06
19.031,25.27
19.046,23.85
19.062,22.58
19.078,21.22
19.093,19.64
19.109,17.81
19.125,15.78
19.140,13.62
19.156,11.32
19.171,8.88
19.187,6.27
19.203,3.47
19.218,0.59
19.234,-2.3
19.250,-5.13
19.265,-7.86
19.281,-10.49
19.296,-13.06
19.312,-15.6
19.328,-18.16
19.343,-20.79
19.359,-23.47
19.375,-26.19
19.390,-28.97
19.406,-31.82
19.421,-34.83
19.437,-38.13
19.453,-41.75
19.468,-45.55
19.484,-49.12
19.500,-51.8
19.515,-52.88
19.531,-51.78
19.546,-48.22
19.562,-42.39
19.578,-34.88
19.593,-26.49
19.609,-18.08
19.625,-10.26
19.640,-3.35
19.656,2.61
19.671,7.82
19.687,12.54
19.703,16.92
19.718,20.96
19.734,24.5
19.750,27.32
19.765,29.26
19.781,30.34
19.796,30.7
19.812,30.46
19.828,29.74
19.843,28.56
19.859,26.95
19.875,25.02
19.890,23.11
19.906,21.61
19.921,20.85
19.937,20.89
19.953,21.48
19.968,22.13
19.984,22.39
20.000,21.98
20.015,20.91
20.031,19.42
20.046,17.7
20.062,15.87
20.078,13.83
20.093,11.47
20.109,8.72
20.125,5.7
20.140,2.66
20.156,-0.14
20.171,-2.56
20.187,-4.65
20.203,-6.58
20.218,-8.54
20.234,-10.66
20.250,-13.02
20.265,-15.59
20.281,-18.4
20.296,-21.46
20.312,-24.74
20.328,-28.17
20.343,-31.53
20.359,-34.52
20.375,-36.98
20.390,-38.92
20.406,-40.6
20.421,-42.46
20.437,-44.87
20.453,-47.94
20.468,-51.43
20.484,-54.72
20.500,-56.93
20.515,-57.25
20.531,-55.12
20.546,-50.47
20.562,-43.67
20.578,-35.48
20.593,-26.71
20.609,-18.0
20.625,-9.75
20.640,-2.01
20.656,5.23
20.671,11.94
20.687,18.01
20.703,23.3
20.718,27.76
20.734,31.5
20.750,34.67
20.765,37.35
20.781,39.49
20.796,40.88
20.812,41.28
20.828,40.59
20.843,38.91
20.859,36.56
20.875,33.99
20.890,31.63
20.906,29.83
20.921,28.76
20.937,28.35
20.953,28.35
20.968,28.41
20.984,28.22
21.000,27.66
21.015,26.79
21.031,25.78
21.046,24.75
21.062,23.69
21.078,22.47
21.093,20.91
21.109,18.94
21.125,16.63
21.140,14.13
21.156,11.66
21.171,9.31
21.187,7.07
21.203,4.85
21.218,2.56
21.234,0.19
21.250,-2.24
21.265,-4.67
21.281,-7.09
21.296,-9.6
21.312,-12.34
21.328,-15.43
21.343,-18.88
21.359,-22.52
21.375,-26.08
21.390,-29.27
21.406,-31.97
21.421,-34.31
21.437,-36.62
21.453,-39.36
21.468,-42.88
21.484,-47.2
21.500,-52.0
21.515,-56.62
21.531,-60.24
21.546,-62.01
21.562,-61.38
21.578,-58.12
21.593,-52.45
21.609,-44.95
21.625,-36.33
21.640,-27.29
21.656,-18.34
21.671,-9.8
21.687,-1.86
21.703,5.32
21.718,11.59
21.734,16.89
21.750,21.3
21.765,25.15
21.781,28.81
21.796,32.54
21.812,36.28
21.828,39.67
21.843,42.24
21.859,43.61
21.875,43.81
21.890,43.23
21.906,42.41
21.921,41.82
21.937,41.63
21.953,41.7
21.968,41.78
21.984,41.65
22.000,41.26
22.015,40.76
22.031,40.26
22.046,39.77
22.062,39.13
22.078,38.13
22.093,36.6
22.109,34.61
22.125,32.37
22.140,30.24
22.156,28.47
22.171,27.09
22.187,25.86
22.203,24.39
22.218,22.33
22.234,19.5
22.250,16.01
22.265,12.13
22.281,8.25
22.296,4.67
22.312,1.45
22.328,-1.53
22.343,-4.47
22.359,-7.53
22.375,-10.75
22.390,-14.0
22.406,-17.16
22.421,-20.18
22.437,-23.11
22.453,-26.16
22.468,-29.48
22.484,-33.13
22.500,-37.0
22.515,-40.93
22.531,-44.8
22.546,-48.64
22.562,-52.51
22.578,-56.26
22.593,-59.49
22.609,-61.45
22.625,-61.33
22.640,-58.56
22.656,-53.08
22.671,-45.37
22.687,-36.38
22.703,-27.14
22.718,-18.47
22.734,-10.81
22.750,-4.19
22.765,1.59
22.781,6.83
22.796,11.67
22.812,16.17
22.828,20.15
22.843,23.41
22.859,25.85
22.875,27.49
22.890,28.57
22.906,29.4
22.921,30.26
22.937,31.17
22.953,32.07
22.968,32.73
22.984,33.01
23.000,32.96
23.015,32.78
23.031,32.77
23.046,33.05
23.062,33.54
23.078,33.87
23.093,33.66
23.109,32.61
23.125,30.72
23.140,28.27
23.156,25.63
23.171,23.14
23.187,20.88
23.203,18.79
23.218,16.7
23.234,14.48
23.250,12.1
23.265,9.65
23.281,7.26
23.296,5.0
23.312,2.9
23.328,0.87
23.343,-1.21
23.359,-3.47
23.375,-6.03
23.390,-8.98
23.406,-12.4
23.421,-16.31
23.437,-20.74
23.453,-25.66
23.468,-31.01
23.484,-36.64
23.500,-42.33
23.515,-47.82
23.531,-52.86
23.546,-57.24
23.562,-60.69
23.578,-62.83
23.593,-63.14
23.609,-61.09
23.625,-56.32
23.640,-48.96
23.656,-39.63
23.671,-29.29
23.687,-19.0
23.703,-9.55
23.718,-1.25
23.734,5.95
23.750,12.36
23.765,18.22
23.781,23.57
23.796,28.3
23.812,32.17
23.828,34.95
23.843,36.47
23.859,36.66
23.875,35.59
23.890,33.4
23.906,30.43
23.921,27.1
23.937,23.9
23.953,21.27
23.968,19.47
23.984,18.59
24.000,18.49
24.015,18.9
24.031,19.53
24.046,20.06
24.062,20.25
24.078,19.91
24.093,18.95
24.109,17.45
24.125,15.66
24.140,13.94
24.156,12.61
24.171,11.79
24.187,11.3
24.203,10.74
24.218,9.67
24.234,7.81
24.250,5.24
24.265,2.28
24.281,-0.59
24.296,-3.03
24.312,-4.93
24.328,-6.54
24.343,-8.21
24.359,-10.26
24.375,-12.77
24.390,-15.58
24.406,-18.48
24.421,-21.3
24.437,-24.08
24.453,-27.0
24.468,-30.24
24.484,-33.87
24.500,-37.84
24.515,-41.98
24.531,-46.09
24.546,-50.09
24.562,-53.87
24.578,-57.21
24.593,-59.62
24.609,-60.44
24.625,-58.95
24.640,-54.77
24.656,-47.94
24.671,-39.03
24.687,-28.95
24.703,-18.67
24.718,-9.01
24.734,-0.45
24.750,6.92
24.765,13.25
24.781,18.84
24.796,23.95
24.812,28.74
24.828,33.16
24.843,37.05
24.859,40.14
24.875,42.22
24.890,43.16
24.906,43.02
24.921,42.0
24.937,40.4
24.953,38.54
24.968,36.73
24.984,35.22
25.000,34.19
25.015,33.73
25.031,33.88
25.046,34.55
25.062,35.56
25.078,36.59
25.093,37.27
25.109,37.23
25.125,36.34
25.140,34.62
25.156,32.36
25.171,29.9
25.187,27.54
25.203,25.4
25.218,23.4
25.234,21.29
25.250,18.83
25.265,15.97
25.281,12.82
25.296,9.66
25.312,6.78
25.328,4.32
25.343,2.23
25.359,0.29
25.375,-1.77
25.390,-4.13
25.406,-6.78
25.421,-9.63
25.437,-12.55
25.453,-15.51
25.468,-18.61
25.484,-21.92
25.500,-25.42
25.515,-28.94
25.531,-32.18
25.546,-35.01
25.562,-37.52
25.578,-40.1
25.593,-43.2
25.609,-47.08
25.625,-51.57
25.640,-56.04
25.656,-59.57
25.671,-61.23
25.687,-60.39
25.703,-56.88
25.718,-50.95
25.734,-43.17
25.750,-34.25
25.765,-24.9
25.781,-15.7
25.796,-7.05
25.812,0.84
25.828,7.92
25.843,14.17
25.859,19.66
25.875,24.41
25.890,28.38
25.906,31.59
25.921,34.02
25.937,35.68
25.953,36.62
25.968,36.84
25.984,36.38
26.000,35.33
26.015,33.84
26.031,32.15
26.046,30.52
26.062,29.15
26.078,28.06
26.093,27.18
26.109,26.36
26.125,25.47
26.140,24.51
26.156,23.58
26.171,22.82
26.187,22.29
26.203,21.9
26.218,21.45
26.234,20.73
26.250,19.64
26.265,18.22
26.281,16.57
26.296,14.83
26.312,13.03
26.328,11.05
26.343,8.75
26.359,6.05
26.375,3.06
26.390,0.01
26.406,-2.81
26.421,-5.3
26.437,-7.6
26.453,-9.94
26.468,-12.62
26.484,-15.72
26.500,-19.15
26.515,-22.62
26.531,-25.89
26.546,-28.85
26.562,-31.57
26.578,-34.28
26.593,-37.16
26.609,-40.35
26.625,-43.85
26.640,-47.49
26.656,-50.91
26.671,-53.54
26.687,-54.69
26.703,-53.75
26.718,-50.44
26.734,-44.89
26.750,-37.7
26.765,-29.64
26.781,-21.5
26.796,-13.88
26.812,-7.09
26.828,-1.24
26.843,3.74
26.859,7.94
26.875,11.5
26.890,14.53
26.906,17.15
26.921,19.41
26.937,21.25
26.953,22.53
26.968,23.07
26.984,22.8
27.000,21.81
27.015,20.39
27.031,18.94
27.046,17.87
27.062,17.45
27.078,17.71
27.093,18.47
27.109,19.39
27.125,20.13
27.140,20.4
27.156,20.11
27.171,19.28
27.187,18.07
27.203,16.68
27.218,15.29
27.234,14.05
27.250,12.98
27.265,12.05
27.281,11.12
27.296,10.06
27.312,8.69
27.328,6.93
27.343,4.76
27.359,2.2
27.375,-0.59
27.390,-3.4
27.406,-5.96
27.421,-8.16
27.437,-10.03
27.453,-11.79
27.468,-13.77
27.484,-16.25
27.500,-19.32
27.515,-22.79
27.531,-26.28
27.546,-29.38
27.562,-31.84
27.578,-33.67
27.593,-35.16
27.609,-36.7
27.625,-38.61
27.640,-41.07
27.656,-44.0
27.671,-47.17
27.687,-50.15
27.703,-52.45
27.718,-53.58
27.734,-53.09
27.750,-50.73
27.765,-46.39
27.781,-40.22
27.796,-32.63
27.812,-24.23
27.828,-15.73
27.843,-7.81
27.859,-0.91
27.875,4.87
27.890,9.79
27.906,14.36
27.921,18.98
27.937,23.82
27.953,28.66
27.968,33.02
27.984,36.45
28.000,38.72
28.015,39.93
28.031,40.37
28.046,40.41
28.062,40.26
28.078,39.93
28.093,39.31
28.109,38.29
28.125,36.91
28.140,35.45
28.156,34.27
28.171,33.68
28.187,33.71
28.203,34.08
28.218,34.35
28.234,34.09
28.250,33.12
28.265,31.55
28.281,29.72
28.296,27.89
28.312,26.15
28.328,24.37
28.343,22.33
28.359,19.95
28.375,17.35
28.390,14.76
28.406,12.45
28.421,10.53
28.437,8.9
28.453,7.37
28.468,5.72
28.484,3.85
28.500,1.79
28.515,-0.37
28.531,-2.56
28.546,-4.78
28.562,-7.18
28.578,-9.97
28.593,-13.29
28.609,-17.1
28.625,-21.09
28.640,-24.83
28.656,-27.93
28.671,-30.29
28.687,-32.1
28.703,-33.85
28.718,-36.1
28.734,-39.12
28.750,-42.84
28.765,-46.72
28.781,-50.02
28.796,-51.94
28.812,-51.95
28.828,-49.83
28.843,-45.76
28.859,-40.19
28.875,-33.66
28.890,-26.7
28.906,-19.67
28.921,-12.81
28.937,-6.23
28.953,-0.02
28.968,5.79
28.984,11.15
29.000,16.1
29.015,20.73
29.031,25.11
29.046,29.22
29.062,32.92
29.078,35.91
29.093,37.92
29.109,38.8
29.125,38.62
29.140,37.71
29.156,36.53
29.171,35.44
29.187,34.59
29.203,33.92
29.218,33.2
29.234,32.27
29.250,31.11
29.265,29.8
29.281,28.51
29.296,27.34
29.312,26.24
29.328,25.03
29.343,23.52
29.359,21.59
29.375,19.32
29.390,16.88
29.406,14.52
29.421,12.41
29.437,10.6
29.453,8.96
29.468,7.31
29.484,5.41
29.500,3.16
29.515,0.63
29.531,-1.96
29.546,-4.35
29.562,-6.33
29.578,-7.97
29.593,-9.51
29.609,-11.34
29.625,-13.77
29.640,-16.91
29.656,-20.57
29.671,-24.38
29.687,-27.95
29.703,-31.05
29.718,-33.75
29.734,-36.29
29.750,-38.97
29.765,-42.01
29.781,-45.42
29.796,-49.04
29.812,-52.56
29.828,-55.59
29.843,-57.68
29.859,-58.39
29.875,-57.25
29.890,-53.96
29.906,-48.44
29.921,-40.97
29.937,-32.2
29.953,-23.01
29.968,-14.27
29.984,-6.51
30.000,0.07
30.015,5.67
30.031,10.63
30.046,15.13
30.062,19.21
30.078,22.64
30.093,25.18
30.109,26.68
30.125,27.21
30.140,27.02
30.156,26.45
30.171,25.77
30.187,25.08
30.203,24.44
30.218,23.79
30.234,23.12
30.250,22.47
30.265,21.97
30.281,21.67
30.296,21.61
30.312,21.72
30.328,21.8
30.343,21.63
30.359,21.05
30.375,20.03
30.390,18.67
30.406,17.19
30.421,15.76
30.437,14.5
30.453,13.36
30.468,12.17
30.484,10.75
30.500,8.91
30.515,6.62
30.531,3.97
30.546,1.25
30.562,-1.29
30.578,-3.45
30.593,-5.23
30.609,-6.81
30.625,-8.38
30.640,-10.16
30.656,-12.2
30.671,-14.5
30.687,-16.99
30.703,-19.67
30.718,-22.65
30.734,-26.1
30.750,-30.21
30.765,-35.02
30.781,-40.43
30.796,-46.16
30.812,-51.8
30.828,-56.88
30.843,-60.91
30.859,-63.4
30.875,-63.92
30.890,-62.11
30.906,-57.8
30.921,-51.08
30.937,-42.35
30.953,-32.39
30.968,-22.11
30.984,-12.41
31.000,-3.91
31.015,3.22
31.031,9.15
31.046,14.34
31.062,19.17
31.078,23.88
31.093,28.44
31.109,32.62
31.125,36.16
31.140,38.87
31.156,40.72
31.171,41.81
31.187,42.32
31.203,42.43
31.218,42.3
31.234,42.02
31.250,41.6
31.265,41.02
31.281,40.25
31.296,39.33
31.312,38.35
31.328,37.41
31.343,36.52
31.359,35.58
31.375,34.39
31.390,32.82
31.406,30.81
31.421,28.48
31.437,26.07
31.453,23.73
31.468,21.52
31.484,19.39
31.500,17.29
31.515,15.18
31.531,13.15
31.546,11.28
31.562,9.53
31.578,7.76
31.593,5.76
31.609,3.39
31.625,0.76
31.640,-1.82
31.656,-4.01
31.671,-5.6
31.687,-6.68
31.703,-7.64
31.718,-8.99
31.734,-11.15
31.750,-14.21
31.765,-17.9
31.781,-21.74
31.796,-25.29
31.812,-28.35
31.828,-31.07
31.843,-33.87
31.859,-37.21
31.875,-41.32
31.890,-46.1
31.906,-51.1
31.921,-55.65
31.937,-59.02
31.953,-60.58
31.968,-59.91
31.984,-56.82
32.000,-51.36
32.015,-43.87
32.031,-34.94
32.046,-25.35
32.062,-15.86
32.078,-7.09
32.093,0.66
32.109,7.4
32.125,13.41
32.140,19.01
32.156,24.48
32.171,29.81
32.187,34.88
32.203,39.41
32.218,43.11
32.234,45.7
32.250,47.01
32.265,47.0
32.281,45.82
32.296,43.8
32.312,41.42
32.328,39.12
32.343,37.24
32.359,35.85
32.375,34.79
32.390,33.91
32.406,33.04
32.421,32.18
32.437,31.37
32.453,30.55
32.468,29.56
32.484,28.16
32.500,26.23
32.515,23.83
32.531,21.23
32.546,18.74
32.562,16.61
32.578,14.89
32.593,13.47
32.609,12.14
32.625,10.72
32.640,9.09
32.656,7.21
32.671,5.07
32.687,2.71
32.703,0.2
32.718,-2.4
32.734,-4.98
32.750,-7.44
32.765,-9.72
32.781,-11.81
32.796,-13.8
32.812,-15.84
32.828,-18.16
32.843,-20.98
32.859,-24.42
32.875,-28.38
32.890,-32.53
32.906,-36.48
32.921,-39.95
32.937,-42.92
32.953,-45.69
32.968,-48.67
32.984,-52.1
33.000,-55.83
33.015,-59.21
33.031,-61.3
33.046,-61.14
33.062,-58.13
33.078,-52.27
33.093,-44.15
33.109,-34.75
33.125,-25.1
33.140,-16.02
33.156,-7.91
33.171,-0.82
33.187,5.4
33.203,10.96
33.218,15.88
33.234,20.07
33.250,23.35
33.265,25.59
33.281,26.86
33.296,27.33
33.312,27.26
33.328,26.86
33.343,26.23
33.359,25.4
33.375,24.37
33.390,23.28
33.406,22.28
33.421,21.54
33.437,21.16
33.453,21.06
33.468,21.08
33.484,20.96
33.500,20.56
33.515,19.84
33.531,18.93
33.546,17.97
33.562,17.04
33.578,16.17
33.593,15.27
33.609,14.25
33.625,13.05
33.640,11.65
33.656,10.01
33.671,8.09
33.687,5.85
33.703,3.24
33.718,0.27
33.734,-2.97
33.750,-6.32
33.765,-9.51
33.781,-12.3
33.796,-14.57
33.812,-16.34
33.828,-17.87
33.843,-19.49
33.859,-21.47
33.875,-23.94
33.890,-26.8
33.906,-29.79
33.921,-32.67
33.937,-35.37
33.953,-38.04
33.968,-40.97
33.984,-44.38
34.000,-48.11
34.015,-51.55
34.031,-53.75
34.046,-53.74
34.062,-50.91
34.078,-45.3
34.093,-37.59
34.109,-28.85
34.125,-20.1
34.140,-12.04
34.156,-4.9
34.171,1.38
34.187,6.96
34.203,11.92
34.218,16.27
34.234,20.04
34.250,23.37
34.265,26.49
34.281,29.6
34.296,32.66
34.312,35.39
34.328,37.36
34.343,38.23
34.359,37.95
34.375,36.84
34.390,35.4
34.406,34.14
34.421,33.33
34.437,32.93
34.453,32.7
34.468,32.35
34.484,31.68
34.500,30.71
34.515,29.63
34.531,28.68
34.546,27.99
34.562,27.53
34.578,27.07
34.593,26.3
34.609,25.03
34.625,23.2
34.640,20.94
34.656,18.47
34.671,15.95
34.687,13.48
34.703,11.02
34.718,8.55
34.734,6.1
34.750,3.81
34.765,1.8
34.781,0.15
34.796,-1.2
34.812,-2.51
34.828,-4.1
34.843,-6.32
34.859,-9.35
34.875,-13.13
34.890,-17.36
34.906,-21.61
34.921,-25.41
34.937,-28.43
34.953,-30.69
34.968,-32.45
34.984,-34.21
35.000,-36.42
35.015,-39.38
35.031,-43.12
35.046,-47.49
35.062,-52.18
35.078,-56.75
35.093,-60.7
35.109,-63.37
35.125,-64.09
35.140,-62.33
35.156,-57.87
35.171,-50.96
35.187,-42.22
35.203,-32.52
35.218,-22.71
35.234,-13.32
35.250,-4.55
35.265,3.69
35.281,11.56
35.296,19.14
35.312,26.31
35.328,32.86
35.343,38.49
35.359,42.99
35.375,46.31
35.390,48.54
35.406,49.83
35.421,50.36
35.437,50.25
35.453,49.58
35.468,48.45
35.484,47.01
35.500,45.48
35.515,44.07
35.531,42.93
35.546,42.06
35.562,41.34
35.578,40.56
35.593,39.52
35.609,38.15
35.625,36.5
35.640,34.78
35.656,33.17
35.671,31.71
35.687,30.31
35.703,28.78
35.718,26.98
35.734,24.82
35.750,22.37
35.765,19.7
35.781,16.88
35.796,13.9
35.812,10.74
35.828,7.38
35.843,3.93
35.859,0.52
35.875,-2.7
35.890,-5.65
35.906,-8.3
35.921,-10.74
35.937,-13.06
35.953,-15.36
35.968,-17.8
35.984,-20.48
36.000,-23.46
36.015,-26.64
36.031,-29.83
36.046,-32.79
36.062,-35.42
36.078,-37.77
36.093,-40.11
36.109,-42.77
36.125,-45.97
36.140,-49.69
36.156,-53.61
36.171,-57.22
36.187,-59.89
36.203,-61.0
36.218,-60.11
36.234,-56.99
36.250,-51.68
36.265,-44.51
36.281,-36.04
36.296,-26.98
36.312,-18.08
36.328,-9.96
36.343,-2.98
36.359,2.76
36.375,7.45
36.390,11.42
36.406,14.99
36.421,18.34
36.437,21.41
36.453,24.06
36.468,26.07
36.484,27.37
36.500,28.02
36.515,28.27
36.531,28.4
36.546,28.57
36.562,28.77
36.578,28.81
36.593,28.55
36.609,27.88
36.625,26.93
36.640,25.89
36.656,25.0
36.671,24.33
36.687,23.72
36.703,22.89
36.718,21.56
36.734,19.65
36.750,17.28
36.765,14.76
36.781,12.32
36.796,10.05
36.812,7.83
36.828,5.43
36.843,2.79
36.859,0.04
36.875,-2.46
36.890,-4.38
36.906,-5.6
36.921,-6.33
36.937,-7.1
36.953,-8.44
36.968,-10.69
36.984,-13.82
37.000,-17.43
37.015,-20.99
37.031,-24.11
37.046,-26.66
37.062,-28.83
37.078,-30.99
37.093,-33.49
37.109,-36.57
37.125,-40.29
37.140,-44.53
37.156,-49.04
37.171,-53.34
37.187,-56.79
37.203,-58.67
37.218,-58.35
37.234,-55.46
37.250,-50.02
37.265,-42.49
37.281,-33.65
37.296,-24.4
37.312,-15.56
37.328,-7.7
37.343,-1.09
37.359,4.28
37.375,8.71
37.390,12.61
37.406,16.42
37.421,20.37
37.437,24.42
37.453,28.24
37.468,31.39
37.484,33.5
37.500,34.48
37.515,34.54
37.531,34.14
37.546,33.71
37.562,33.49
37.578,33.48
37.593,33.5
37.609,33.38
37.625,33.06
37.640,32.66
37.656,32.3
37.671,32.1
37.687,31.94
37.703,31.64
37.718,30.93
37.734,29.72
37.750,28.08
37.765,26.2
37.781,24.36
37.796,22.71
37.812,21.26
37.828,19.8
37.843,18.09
37.859,15.98
37.875,13.5
37.890,10.92
37.906,8.56
37.921,6.65
37.937,5.19
37.953,3.94
37.968,2.54
37.984,0.66
38.000,-1.85
38.015,-4.87
38.031,-8.18
38.046,-11.51
38.062,-14.68
38.078,-17.66
38.093,-20.51
38.109,-23.3
38.125,-26.08
38.140,-28.88
38.156,-31.69
38.171,-34.57
38.187,-37.61
38.203,-40.95
38.218,-44.68
38.234,-48.63
38.250,-52.31
38.265,-54.88
38.281,-55.43
38.296,-53.23
38.312,-48.1
38.328,-40.51
38.343,-31.43
38.359,-21.94
38.375,-12.92
38.390,-4.77
38.406,2.51
38.421,9.09
38.437,15.1
38.453,20.52
38.468,25.21
38.484,29.17
38.500,32.49
38.515,35.46
38.531,38.28
38.546,40.94
38.562,43.17
38.578,44.55
38.593,44.77
38.609,43.82
38.625,42.09
38.640,40.14
38.656,38.51
38.671,37.44
38.687,36.81
38.703,36.26
38.718,35.42
38.734,34.08
38.750,32.32
38.765,30.46
38.781,28.77
38.796,27.38
38.812,26.17
38.828,24.82
38.843,23.01
38.859,20.61
38.875,17.76
38.890,14.78
38.906,12.08
38.921,9.89
38.937,8.17
38.953,6.66
38.968,5.02
38.984,3.03
39.000,0.71
39.015,-1.73
39.031,-4.0
39.046,-5.92
39.062,-7.51
39.078,-9.01
39.093,-10.75
39.109,-13.0
39.125,-15.84
39.140,-19.08
39.156,-22.4
39.171,-25.49
39.187,-28.15
39.203,-30.41
39.218,-32.51
39.234,-34.72
39.250,-37.26
39.265,-40.14
39.281,-43.16
39.296,-45.98
39.312,-48.25
39.328,-49.6
39.343,-49.75
39.359,-48.39
39.375,-45.21
39.390,-40.0
39.406,-32.76
39.421,-23.89
39.437,-14.18
39.453,-4.72
39.468,3.54
39.484,9.96
39.500,14.54
39.515,17.76
39.531,20.27
39.546,22.58
39.562,24.79
39.578,26.67
39.593,27.86
39.609,28.17
39.625,27.67
39.640,26.64
39.656,25.39
39.671,24.04
39.687,22.55
39.703,20.79
39.718,18.8
39.734,16.77
39.750,15.08
39.765,14.0
39.781,13.59
39.796,13.65
39.812,13.76
39.828,13.53
39.843,12.73
39.859,11.35
39.875,9.56
39.890,7.65
39.906,5.87
39.921,4.42
39.937,3.34
39.953,2.5
39.968,1.7
39.984,0.67
40.000,-0.78
40.015,-2.67
40.031,-4.85
40.046,-7.06
40.062,-9.19
40.078,-11.27
40.093,-13.49
40.109,-16.04
40.125,-18.98
40.140,-22.14
40.156,-25.23
40.171,-28.0
40.187,-30.38
40.203,-32.5
40.218,-34.6
40.234,-36.88
40.250,-39.5
40.265,-42.49
40.281,-45.78
40.296,-49.15
40.312,-52.2
40.328,-54.39
40.343,-55.07
40.359,-53.72
40.375,-50.11
40.390,-44.41
40.406,-37.15
40.421,-29.11
40.437,-21.0
40.453,-13.4
40.468,-6.58
40.484,-0.54
40.500,4.89
40.515,9.93
40.531,14.67
40.546,19.09
40.562,22.97
40.578,26.07
40.593,28.25
40.609,29.55
40.625,30.21
40.640,30.59
40.656,31.01
40.671,31.63
40.687,32.41
40.703,33.18
40.718,33.75
40.734,33.97
40.750,33.84
40.765,33.38
40.781,32.68
40.796,31.78
40.812,30.68
40.828,29.36
40.843,27.8
40.859,25.97
40.875,23.91
40.890,21.71
40.906,19.5
40.921,17.41
40.937,15.51
40.953,13.74
40.968,11.91
40.984,9.89
41.000,7.61
41.015,5.22
41.031,2.97
41.046,1.08
41.062,-0.4
41.078,-1.68
41.093,-3.12
41.109,-5.0
41.125,-7.4
41.140,-10.12
41.156,-12.83
41.171,-15.29
41.187,-17.46
41.203,-19.53
41.218,-21.74
41.234,-24.22
41.250,-26.91
41.265,-29.67
41.281,-32.34
41.296,-34.95
41.312,-37.64
41.328,-40.54
41.343,-43.52
41.359,-46.06
41.375,-47.34
41.390,-46.53
41.406,-43.18
41.421,-37.31
41.437,-29.53
41.453,-20.74
41.468,-11.9
41.484,-3.71
41.500,3.49
41.515,9.68
41.531,15.08
41.546,19.98
41.562,24.58
41.578,28.89
41.593,32.77
41.609,35.98
41.625,38.35
41.640,39.84
41.656,40.55
41.671,40.7
41.687,40.44
41.703,39.87
41.718,38.97
41.734,37.71
41.750,36.21
41.765,34.62
41.781,33.12
41.796,31.81
41.812,30.66
41.828,29.53
41.843,28.3
41.859,26.95
41.875,25.55
41.890,24.24
41.906,23.14
41.921,22.2
41.937,21.26
41.953,20.09
41.968,18.54
41.984,16.58
42.000,14.36
42.015,12.11
42.031,10.03
42.046,8.21
42.062,6.55
42.078,4.88
42.093,3.03
42.109,0.92
42.125,-1.41
42.140,-3.77
42.156,-6.03
42.171,-8.14
42.187,-10.26
42.203,-12.65
42.218,-15.49
42.234,-18.81
42.250,-22.39
42.265,-25.83
42.281,-28.68
42.296,-30.71
42.312,-32.01
42.328,-33.01
42.343,-34.34
42.359,-36.46
42.375,-39.57
42.390,-43.38
42.406,-47.27
42.421,-50.35
42.437,-51.86
42.453,-51.22
42.468,-48.25
42.484,-43.15
42.500,-36.4
42.515,-28.64
42.531,-20.57
42.546,-12.76
42.562,-5.63
42.578,0.63
42.593,6.02
42.609,10.67
42.625,14.79
42.640,18.52
42.656,21.93
42.671,24.96
42.687,27.46
42.703,29.21
42.718,30.0
42.734,29.74
42.750,28.52
42.765,26.65
42.781,24.57
42.796,22.76
42.812,21.59
42.828,21.17
42.843,21.44
42.859,22.15
42.875,23.06
42.890,23.99
42.906,24.73
42.921,25.07
42.937,24.73
42.953,23.51
42.968,21.39
42.984,18.59
43.000,15.55
43.015,12.7
43.031,10.27
43.046,8.22
43.062,6.32
43.078,4.27
43.093,1.95
43.109,-0.61
43.125,-3.23
43.140,-5.73
43.156,-8.02
43.171,-10.13
43.187,-12.21
43.203,-14.36
43.218,-16.66
43.234,-19.08
43.250,-21.58
43.265,-24.06
43.281,-26.5
43.296,-28.94
43.312,-31.52
43.328,-34.45
43.343,-37.93
43.359,-41.98
43.375,-46.4
43.390,-50.7
43.406,-54.22
43.421,-56.26
43.437,-56.29
43.453,-54.05
43.468,-49.61
43.484,-43.31
43.500,-35.69
43.515,-27.33
43.531,-18.91
43.546,-11.0
43.562,-4.06
43.578,1.68
43.593,6.29
43.609,10.06
43.625,13.37
43.640,16.53
43.656,19.61
43.671,22.49
43.687,24.89
43.703,26.55
43.718,27.36
43.734,27.4
43.750,26.98
43.765,26.41
43.781,25.96
43.796,25.71
43.812,25.61
43.828,25.52
43.843,25.44
43.859,25.46
43.875,25.83
43.890,26.68
43.906,27.9
43.921,29.17
43.937,29.97
43.953,29.88
43.968,28.79
43.984,26.9
44.000,24.58
44.015,22.28
44.031,20.17
44.046,18.24
44.062,16.31
44.078,14.11
44.093,11.49
44.109,8.5
44.125,5.34
44.140,2.27
44.156,-0.38
44.171,-2.5
44.187,-4.2
44.203,-5.79
44.218,-7.65
44.234,-10.0
44.250,-12.8
44.265,-15.74
44.281,-18.42
44.296,-20.64
44.312,-22.46
44.328,-24.23
44.343,-26.38
44.359,-29.15
44.375,-32.54
44.390,-36.33
44.406,-40.23
44.421,-43.96
44.437,-47.31
44.453,-50.0
44.468,-51.62
44.484,-51.64
44.500,-49.6
44.515,-45.26
44.531,-38.82
44.546,-30.91
44.562,-22.46
44.578,-14.4
44.593,-7.39
44.609,-1.63
44.625,3.19
44.640,7.55
44.656,11.91
44.671,16.42
44.687,20.88
44.703,24.98
44.718,28.44
44.734,31.18
44.750,33.33
44.765,35.02
44.781,36.27
44.796,36.95
44.812,36.87
44.828,36.04
44.843,34.7
44.859,33.41
44.875,32.68
44.890,32.8
44.906,33.7
44.921,34.92
44.937,35.91
44.953,36.18
44.968,35.51
44.984,33.94
45.000,31.68
45.015,29.06
45.031,26.32
45.046,23.62
45.062,21.01
45.078,18.5
45.093,16.07
45.109,13.68
45.125,11.3
45.140,8.86
45.156,6.34
45.171,3.71
45.187,0.97
45.203,-1.81
45.218,-4.52
45.234,-7.02
45.250,-9.26
45.265,-11.23
45.281,-13.07
45.296,-14.87
45.312,-16.75
45.328,-18.74
45.343,-20.8
45.359,-22.87
45.375,-24.86
45.390,-26.74
45.406,-28.46
45.421,-30.11
45.437,-31.92
45.453,-34.17
45.468,-37.07
45.484,-40.6
45.500,-44.28
45.515,-47.31
45.531,-48.83
45.546,-48.14
45.562,-45.1
45.578,-40.02
45.593,-33.53
45.609,-26.31
45.625,-18.88
45.640,-11.62
45.656,-4.85
45.671,1.09
45.687,5.95
45.703,9.63
45.718,12.38
45.734,14.66
45.750,16.98
45.765,19.58
45.781,22.35
45.796,24.86
45.812,26.62
45.828,27.29
45.843,26.85
45.859,25.56
45.875,23.87
45.890,22.2
45.906,20.83
45.921,19.81
45.937,19.06
45.953,18.39
45.968,17.63
45.984,16.73
46.000,15.73
46.015,14.75
46.031,13.87
46.046,13.07
46.062,12.26
46.078,11.31
46.093,10.16
46.109,8.84
46.125,7.43
46.140,5.99
46.156,4.52
46.171,2.95
46.187,1.23
46.203,-0.63
46.218,-2.52
46.234,-4.36
46.250,-6.09
46.265,-7.8
46.281,-9.6
46.296,-11.64
46.312,-13.93
46.328,-16.37
46.343,-18.82
46.359,-21.16
46.375,-23.4
46.390,-25.6
46.406,-27.9
46.421,-30.41
46.437,-33.22
46.453,-36.35
46.468,-39.74
46.484,-43.18
46.500,-46.27
46.515,-48.44
46.531,-49.05
46.546,-47.55
46.562,-43.76
46.578,-37.89
46.593,-30.47
46.609,-22.28
46.625,-14.02
46.640,-6.19
46.656,0.99
46.671,7.45
46.687,13.17
46.703,18.08
46.718,22.14
46.734,25.36
46.750,27.83
46.765,29.77
46.781,31.35
46.796,32.62
46.812,33.42
46.828,33.55
46.843,32.84
46.859,31.33
46.875,29.32
46.890,27.24
46.906,25.54
46.921,24.51
46.937,24.15
46.953,24.29
46.968,24.59
46.984,24.79
47.000,24.68
47.015,24.17
47.031,23.27
47.046,22.04
47.062,20.52
47.078,18.76
47.093,16.82
47.109,14.78
47.125,12.78
47.140,10.93
47.156,9.28
47.171,7.76
47.187,6.27
47.203,4.66
47.218,2.84
47.234,0.83
47.250,-1.28
47.265,-3.35
47.281,-5.29
47.296,-7.12
47.312,-9.0
47.328,-11.14
47.343,-13.66
47.359,-16.56
47.375,-19.66
47.390,-22.73
47.406,-25.53
47.421,-27.99
47.437,-30.22
47.453,-32.42
47.468,-34.85
47.484,-37.71
47.500,-41.1
47.515,-44.89
47.531,-48.77
47.546,-52.15
47.562,-54.29
47.578,-54.5
47.593,-52.27
47.609,-47.55
47.625,-40.73
47.640,-32.52
47.656,-23.73
47.671,-15.03
47.687,-6.86
47.703,0.55
47.718,7.13
47.734,12.97
47.750,18.19
47.765,23.04
47.781,27.72
47.796,32.37
47.812,36.9
47.828,41.04
47.843,44.44
47.859,46.81
47.875,48.1
47.890,48.42
47.906,48.04
47.921,47.19
47.937,46.01
47.953,44.53
47.968,42.74
47.984,40.74
48.000,38.68
48.015,36.75
48.031,35.08
48.046,33.61
48.062,32.2
48.078,30.63
48.093,28.8
48.109,26.73
48.125,24.57
48.140,22.45
48.156,20.45
48.171,18.53
48.187,16.59
48.203,14.6
48.218,12.59
48.234,10.68
48.250,9.01
48.265,7.6
48.281,6.38
48.296,5.1
48.312,3.53
48.328,1.5
48.343,-1.0
48.359,-3.86
48.375,-6.84
48.390,-9.73
48.406,-12.43
48.421,-15.01
48.437,-17.65
48.453,-20.5
48.468,-23.6
48.484,-26.82
48.500,-29.92
48.515,-32.73
48.531,-35.2
48.546,-37.52
48.562,-40.01
48.578,-42.96
48.593,-46.56
48.609,-50.79
48.625,-55.38
48.640,-59.83
48.656,-63.45
48.671,-65.48
48.687,-65.19
48.703,-62.09
48.718,-56.14
48.734,-47.75
48.750,-37.76
48.765,-27.17
48.781,-16.89
48.796,-7.6
48.812,0.33
48.828,6.88
48.843,12.26
48.859,16.88
48.875,21.08
48.890,25.11
48.906,28.94
48.921,32.3
48.937,34.79
48.953,36.07
48.968,36.03
48.984,34.89
49.000,33.09
49.015,31.12
49.031,29.33
49.046,27.85
49.062,26.6
49.078,25.5
49.093,24.52
49.109,23.79
49.125,23.43
49.140,23.47
49.156,23.74
49.171,23.87
49.187,23.57
49.203,22.65
49.218,21.22
49.234,19.59
49.250,18.13
49.265,17.05
49.281,16.34
49.296,15.68
49.312,14.66
49.328,12.93
49.343,10.42
49.359,7.39
49.375,4.32
49.390,1.66
49.406,-0.38
49.421,-2.0
49.437,-3.65
49.453,-5.76
49.468,-8.51
49.484,-11.71
49.500,-14.99
49.515,-18.0
49.531,-20.65
49.546,-23.1
49.562,-25.65
49.578,-28.52
49.593,-31.75
49.609,-35.24
49.625,-38.81
49.640,-42.4
49.656,-45.96
49.671,-49.43
49.687,-52.52
49.703,-54.76
49.718,-55.5
49.734,-54.19
49.750,-50.62
49.765,-45.0
49.781,-37.95
49.796,-30.23
49.812,-22.56
49.828,-15.41
49.843,-8.9
49.859,-2.95
49.875,2.65
49.890,7.96
49.906,12.96
49.921,17.42
49.937,21.12
49.953,23.9
49.968,25.78
49.984,26.9
50.000,27.5
50.015,27.76
50.031,27.8
50.046,27.63
50.062,27.2
50.078,26.54
50.093,25.79
50.109,25.15
50.125,24.83
50.140,24.84
50.156,25.12
50.171,25.38
50.187,25.38
50.203,24.98
50.218,24.19
50.234,23.17
50.250,22.15
50.265,21.28
50.281,20.57
50.296,19.9
50.312,19.01
50.328,17.69
50.343,15.8
50.359,13.39
50.375,10.65
50.390,7.84
50.406,5.2
50.421,2.79
50.437,0.47
50.453,-1.96
50.468,-4.68
50.484,-7.69
50.500,-10.81
50.515,-13.76
50.531,-16.37
50.546,-18.67
50.562,-20.9
50.578,-23.35
50.593,-26.23
50.609,-29.54
50.625,-33.13
50.640,-36.89
50.656,-40.74
50.671,-44.72
50.687,-48.72
50.703,-52.38
50.718,-55.03
50.734,-55.77
50.750,-53.83
50.765,-48.86
50.781,-41.17
50.796,-31.64
50.812,-21.51
50.828,-11.89
50.843,-3.46
50.859,3.68
50.875,9.85
50.890,15.5
50.906,20.89
50.921,25.93
50.937,30.28
50.953,33.59
50.968,35.64
50.984,36.52
51.000,36.47
51.015,35.83
51.031,34.83
51.046,33.58
51.062,32.16
51.078,30.6
51.093,28.99
51.109,27.49
51.125,26.26
51.140,25.42
51.156,25.04
51.171,24.97
51.187,24.95
51.203,24.66
51.218,23.85
51.234,22.53
51.250,20.93
51.265,19.44
51.281,18.32
51.296,17.6
51.312,16.96
51.328,15.99
51.343,14.41
51.359,12.28
51.375,9.93
51.390,7.78
51.406,5.98
51.421,4.38
51.437,2.61
51.453,0.4
51.468,-2.21
51.484,-4.89
51.500,-7.19
51.515,-8.84
51.531,-9.93
51.546,-10.92
51.562,-12.38
51.578,-14.68
51.593,-17.87
51.609,-21.63
51.625,-25.5
51.640,-29.06
51.656,-32.13
51.671,-34.75
51.687,-37.16
51.703,-39.63
51.718,-42.41
51.734,-45.63
51.750,-49.23
51.765,-52.92
51.781,-56.17
51.796,-58.29
51.812,-58.54
51.828,-56.35
51.843,-51.46
51.859,-44.05
51.875,-34.72
51.890,-24.33
51.906,-13.8
51.921,-3.88
51.937,4.95
51.953,12.53
51.968,18.94
51.984,24.43
52.000,29.26
52.015,33.63
52.031,37.59
52.046,41.11
52.062,44.04
52.078,46.25
52.093,47.62
52.109,48.08
52.125,47.63
52.140,46.36
52.156,44.43
52.171,42.13
52.187,39.82
52.203,37.88
52.218,36.63
52.234,36.18
52.250,36.34
52.265,36.77
52.281,37.03
52.296,36.75
52.312,35.74
52.328,34.05
52.343,31.85
52.359,29.37
52.375,26.77
52.390,24.1
52.406,21.36
52.421,18.6
52.437,15.89
52.453,13.36
52.468,11.16
52.484,9.36
52.500,7.89
52.515,6.58
52.531,5.22
52.546,3.62
52.562,1.66
52.578,-0.66
52.593,-3.21
52.609,-5.93
52.625,-8.79
52.640,-11.84
52.656,-15.17
52.671,-18.82
52.687,-22.69
52.703,-26.57
52.718,-30.21
52.734,-33.44
52.750,-36.31
52.765,-39.01
52.781,-41.84
52.796,-45.1
52.812,-48.89
52.828,-53.1
52.843,-57.36
52.859,-61.03
52.875,-63.31
52.890,-63.43
52.906,-60.84
52.921,-55.46
52.937,-47.68
52.953,-38.34
52.968,-28.37
52.984,-18.6
53.000,-9.54
53.015,-1.46
53.031,5.56
53.046,11.49
53.062,16.36
53.078,20.2
53.093,23.14
53.109,25.32
53.125,26.85
53.140,27.77
53.156,28.02
53.171,27.56
53.187,26.45
53.203,24.93
53.218,23.38
53.234,22.21
53.250,21.67
53.265,21.84
53.281,22.55
53.296,23.49
53.312,24.29
53.328,24.73
53.343,24.68
53.359,24.16
53.375,23.24
53.390,21.97
53.406,20.36
53.421,18.45
53.437,16.3
53.453,14.04
53.468,11.86
53.484,9.89
53.500,8.18
53.515,6.64
53.531,5.05
53.546,3.13
53.562,0.75
53.578,-2.1
53.593,-5.25
53.609,-8.41
53.625,-11.36
53.640,-14.01
53.656,-16.47
53.671,-18.94
53.687,-21.59
53.703,-24.44
53.718,-27.34
53.734,-30.05
53.750,-32.39
53.765,-34.36
53.781,-36.27
53.796,-38.52
53.812,-41.51
53.828,-45.39
53.843,-49.83
53.859,-54.19
53.875,-57.47
53.890,-58.69
53.906,-57.16
53.921,-52.68
53.937,-45.57
53.953,-36.59
53.968,-26.71
53.984,-16.85
54.000,-7.75
54.015,0.15
54.031,6.7
54.046,11.99
54.062,16.28
54.078,19.89
54.093,23.16
54.109,26.26
54.125,29.26
54.140,32.07
54.156,34.48
54.171,36.28
54.187,37.33
54.203,37.61
54.218,37.26
54.234,36.56
54.250,35.81
54.265,35.3
54.281,35.13
54.296,35.19
54.312,35.22
54.328,34.9
54.343,34.04
54.359,32.6
54.375,30.74
54.390,28.63
54.406,26.48
54.421,24.38
54.437,22.38
54.453,20.5
54.468,18.76
54.484,17.23
54.500,15.93
54.515,14.83
54.531,13.76
54.546,12.53
54.562,10.95
54.578,8.92
54.593,6.53
54.609,3.97
54.625,1.49
54.640,-0.76
54.656,-2.85
54.671,-5.04
54.687,-7.6
54.703,-10.74
54.718,-14.41
54.734,-18.36
54.750,-22.29
54.765,-25.95
54.781,-29.27
54.796,-32.34
54.812,-35.26
54.828,-38.04
54.843,-40.58
54.859,-42.82
54.875,-44.86
54.890,-46.97
54.906,-49.57
54.921,-52.88
54.937,-56.73
54.953,-60.41
54.968,-62.86
54.984,-62.94
55.000,-59.78
55.015,-53.14
55.031,-43.47
55.046,-31.77
55.062,-19.24
55.078,-6.97
55.093,4.37
55.109,14.55
55.125,23.67
55.140,31.9
55.156,39.29
55.171,45.72
55.187,51.02
55.203,55.12
55.218,58.22
55.234,60.68
55.250,62.82
55.265,64.68
55.281,66.06
55.296,66.61
55.312,66.15
55.328,64.84
55.343,63.16
55.359,61.74
55.375,61.05
55.390,61.18
55.406,61.85
55.421,62.56
55.437,62.86
55.453,62.56
55.468,61.73
55.484,60.67
55.500,59.6
55.515,58.59
55.531,57.45
55.546,55.91
55.562,53.77
55.578,51.05
55.593,48.03
55.609,45.12
55.625,42.64
55.640,40.61
55.656,38.7
55.671,36.44
55.687,33.4
55.703,29.42
55.718,24.7
55.734,19.64
55.750,14.67
55.765,10.06
55.781,5.76
55.796,1.47
55.812,-3.33
55.828,-9.06
55.843,-16.03
55.859,-24.27
55.875,-33.54
55.890,-43.42
55.906,-53.32
55.921,-62.64
55.937,-70.86
55.953,-77.72
55.968,-83.3
55.984,-87.91
56.000,-91.89
56.015,-95.49
56.031,-98.58
56.046,-100.71
56.062,-101.24
56.078,-99.45
56.093,-94.75
56.109,-86.77
56.125,-75.5
56.140,-61.37
56.156,-45.35
56.171,-28.86
56.187,-13.6
56.203,-1.11
56.218,7.64
56.234,12.46
56.250,13.95
56.265,13.13
56.281,11.09
56.296,8.66
56.312,6.28
56.328,4.11
56.343,2.2
56.359,0.65
56.375,-0.41
56.390,-0.89
56.406,-0.92
56.421,-0.81
56.437,-0.89
56.453,-1.3
56.468,-1.81
56.484,-1.93
56.500,-1.12
56.515,0.73
56.531,3.22
56.546,5.49
56.562,6.69
56.578,6.39
56.593,4.75
56.609,2.43
56.625,0.13
56.640,-1.73
56.656,-3.2
56.671,-4.66
56.687,-6.46
56.703,-8.65
56.718,-10.9
56.734,-12.71
56.750,-13.65
56.765,-13.65
56.781,-12.97
56.796,-12.09
56.812,-11.43
56.828,-11.16
56.843,-11.18
56.859,-11.27
56.875,-11.21
56.890,-11.04
56.906,-11.07
56.921,-11.75
56.937,-13.46
56.953,-16.25
56.968,-19.79
56.984,-23.5
57.000,-26.85
57.015,-29.54
57.031,-31.74
57.046,-33.93
57.062,-36.65
57.078,-40.18
57.093,-44.37
57.109,-48.59
57.125,-52.0
57.140,-53.77
57.156,-53.29
57.171,-50.33
57.187,-45.06
57.203,-37.86
57.218,-29.33
57.234,-20.09
57.250,-10.77
57.265,-1.95
57.281,5.85
57.296,12.31
57.312,17.32
57.328,21.03
57.343,23.85
57.359,26.22
57.375,28.47
57.390,30.7
57.406,32.71
57.421,34.15
57.437,34.79
57.453,34.62
57.468,33.85
57.484,32.89
57.500,32.03
57.515,31.45
57.531,31.1
57.546,30.85
57.562,30.62
57.578,30.45
57.593,30.4
57.609,30.54
57.625,30.78
57.640,30.88
57.656,30.56
57.671,29.63
57.687,28.12
57.703,26.28
57.718,24.44
57.734,22.9
57.750,21.77
57.765,20.92
57.781,20.02
57.796,18.73
57.812,16.82
57.828,14.28
57.843,11.3
57.859,8.17
57.875,5.09
57.890,2.12
57.906,-0.84
57.921,-3.96
57.937,-7.34
57.953,-10.95
57.968,-14.6
57.984,-18.12
58.000,-21.42
58.015,-24.55
58.031,-27.67
58.046,-31.01
58.062,-34.66
58.078,-38.59
58.093,-42.57
58.109,-46.36
58.125,-49.72
58.140,-52.62
58.156,-55.26
58.171,-57.97
58.187,-60.96
58.203,-64.17
58.218,-67.03
58.234,-68.6
58.250,-67.9
58.265,-64.3
58.281,-57.86
58.296,-49.27
58.312,-39.68
58.328,-30.2
58.343,-21.6
58.359,-14.16
58.375,-7.72
58.390,-1.94
58.406,3.5
58.421,8.76
58.437,13.85
58.453,18.67
58.468,23.17
58.484,27.29
58.500,31.03
58.515,34.38
58.531,37.21
58.546,39.39
58.562,40.73
58.578,41.18
58.593,40.91
58.609,40.33
58.625,39.95
58.640,40.15
58.656,40.97
58.671,42.05
58.687,42.82
58.703,42.79
58.718,41.82
58.734,40.16
58.750,38.27
58.765,36.53
58.781,35.04
58.796,33.67
58.812,32.19
58.828,30.49
58.843,28.66
58.859,26.87
58.875,25.25
58.890,23.75
58.906,22.2
58.921,20.44
58.937,18.39
58.953,16.16
58.968,13.87
58.984,11.62
59.000,9.39
59.015,7.12
59.031,4.74
59.046,2.24
59.062,-0.32
59.078,-2.92
59.093,-5.5
59.109,-8.06
59.125,-10.55
59.140,-12.98
59.156,-15.43
59.171,-17.98
59.187,-20.73
59.203,-23.75
59.218,-27.01
59.234,-30.43
59.250,-33.94
59.265,-37.58
59.281,-41.38
59.296,-45.33
59.312,-49.17
59.328,-52.25
59.343,-53.79
59.359,-53.01
59.375,-49.51
59.390,-43.41
59.406,-35.38
59.421,-26.33
59.437,-17.18
59.453,-8.54
59.468,-0.69
59.484,6.37
59.500,12.71
59.515,18.35
59.531,23.15
59.546,26.97
59.562,29.79
59.578,31.78
59.593,33.3
59.609,34.75
59.625,36.37
59.640,38.11
59.656,39.64
59.671,40.54
59.687,40.56
59.703,39.73
59.718,38.39
59.734,36.99
59.750,35.87
59.765,35.14
59.781,34.65
59.796,34.13
59.812,33.3
59.828,32.09
59.843,30.5
59.859,28.68
59.875,26.74
59.890,24.77
59.906,22.81
59.921,20.84
59.937,18.8
59.953,16.65
59.968,14.43
59.984,12.27
