timestamp,value
00.000,-68.42
00.015,-74.37
00.031,-79.57
00.046,-83.76
00.062,-86.76
00.078,-88.59
00.093,-89.46
00.109,-89.62
00.125,-89.17
00.140,-88.15
00.156,-86.52
00.171,-84.34
00.187,-81.81
00.203,-79.24
00.218,-76.93
00.234,-75.1
00.250,-73.81
00.265,-73.01
00.281,-72.49
00.296,-72.03
00.312,-71.35
00.328,-70.31
00.343,-68.94
00.359,-67.48
00.375,-66.36
00.390,-65.99
00.406,-66.6
00.421,-68.1
00.437,-70.17
00.453,-72.41
00.468,-74.56
00.484,-76.57
00.500,-78.57
00.515,-80.67
00.531,-82.89
00.546,-85.01
00.562,-86.68
00.578,-87.39
00.593,-86.5
00.609,-83.4
00.625,-77.56
00.640,-68.75
00.656,-57.23
00.671,-43.68
00.687,-29.16
00.703,-14.75
00.718,-1.31
00.734,10.68
00.750,20.99
00.765,29.5
00.781,36.01
00.796,40.2
00.812,41.92
00.828,41.29
00.843,38.92
00.859,35.75
00.875,32.79
00.890,30.73
00.906,29.75
00.921,29.5
00.937,29.41
00.953,28.96
00.968,28.01
00.984,26.77
01.000,25.7
01.015,25.24
01.031,25.61
01.046,26.71
01.062,28.18
01.078,29.5
01.093,30.15
01.109,29.75
01.125,28.17
01.140,25.66
01.156,22.84
01.171,20.47
01.187,19.22
01.203,19.34
01.218,20.46
01.234,21.76
01.250,22.29
01.265,21.4
01.281,19.01
01.296,15.71
01.312,12.39
01.328,9.95
01.343,8.93
01.359,9.36
01.375,10.83
01.390,12.66
01.406,14.11
01.421,14.46
01.437,13.21
01.453,10.11
01.468,5.24
01.484,-0.96
01.500,-7.78
01.515,-14.32
01.531,-19.63
01.546,-22.92
01.562,-23.79
01.578,-22.39
01.593,-19.54
01.609,-16.44
01.625,-14.48
01.640,-14.7
01.656,-17.53
01.671,-22.7
01.687,-29.37
01.703,-36.47
01.718,-42.98
01.734,-48.1
01.750,-51.32
01.765,-52.46
01.781,-51.59
01.796,-49.09
01.812,-45.53
01.828,-41.54
01.843,-37.62
01.859,-33.96
01.875,-30.53
01.890,-27.16
01.906,-23.77
01.921,-20.5
01.937,-17.72
01.953,-15.81
01.968,-14.99
01.984,-15.15
02.000,-15.85
02.015,-16.52
02.031,-16.62
02.046,-15.8
02.062,-13.95
02.078,-11.17
02.093,-7.67
02.109,-3.68
02.125,0.46
02.140,4.37
02.156,7.63
02.171,9.83
02.187,10.85
02.203,10.79
02.218,10.05
02.234,9.14
02.250,8.57
02.265,8.66
02.281,9.67
02.296,11.75
02.312,14.99
02.328,19.31
02.343,24.32
02.359,29.3
02.375,33.31
02.390,35.58
02.406,35.8
02.421,34.34
02.437,32.08
02.453,30.03
02.468,28.92
02.484,28.97
02.500,29.9
02.515,31.21
02.531,32.54
02.546,33.74
02.562,34.9
02.578,36.05
02.593,37.03
02.609,37.49
02.625,37.05
02.640,35.56
02.656,33.22
02.671,30.57
02.687,28.2
02.703,26.53
02.718,25.76
02.734,25.75
02.750,26.24
02.765,26.95
02.781,27.68
02.796,28.29
02.812,28.66
02.828,28.62
02.843,27.97
02.859,26.52
02.875,24.04
02.890,20.41
02.906,15.61
02.921,9.76
02.937,3.25
02.953,-3.44
02.968,-9.73
02.984,-15.17
03.000,-19.46
03.015,-22.56
03.031,-24.56
03.046,-25.58
03.062,-25.79
03.078,-25.29
03.093,-24.26
03.109,-22.86
03.125,-21.29
03.140,-19.71
03.156,-18.17
03.171,-16.61
03.187,-14.89
03.203,-12.97
03.218,-10.8
03.234,-8.44
03.250,-5.93
03.265,-3.29
03.281,-0.51
03.296,2.35
03.312,5.21
03.328,7.93
03.343,10.34
03.359,12.37
03.375,14.03
03.390,15.35
03.406,16.33
03.421,16.85
03.437,16.76
03.453,16.01
03.468,14.72
03.484,13.24
03.500,11.99
03.515,11.26
03.531,11.05
03.546,11.1
03.562,10.93
03.578,10.16
03.593,8.59
03.609,6.2
03.625,3.16
03.640,-0.26
03.656,-3.71
03.671,-6.75
03.687,-8.83
03.703,-9.46
03.718,-8.33
03.734,-5.53
03.750,-1.61
03.765,2.51
03.781,5.83
03.796,7.62
03.812,7.72
03.828,6.56
03.843,5.04
03.859,4.17
03.875,4.62
03.890,6.58
03.906,9.68
03.921,13.17
03.937,16.21
03.953,18.12
03.968,18.48
03.984,17.12
04.000,14.1
04.015,9.53
04.031,3.7
04.046,-3.05
04.062,-10.34
04.078,-17.81
04.093,-25.1
04.109,-31.9
04.125,-38.0
04.140,-43.19
04.156,-47.34
04.171,-50.37
04.187,-52.26
04.203,-53.03
04.218,-52.78
04.234,-51.63
04.250,-49.76
04.265,-47.37
04.281,-44.67
04.296,-41.8
04.312,-38.8
04.328,-35.62
04.343,-32.18
04.359,-28.5
04.375,-24.7
04.390,-21.05
04.406,-17.83
04.421,-15.28
04.437,-13.55
04.453,-12.68
04.468,-12.54
04.484,-12.89
04.500,-13.38
04.515,-13.62
04.531,-13.29
04.546,-12.28
04.562,-10.69
04.578,-8.81
04.593,-7.02
04.609,-5.59
04.625,-4.56
04.640,-3.79
04.656,-3.07
04.671,-2.26
04.687,-1.29
04.703,-0.21
04.718,0.91
04.734,2.03
04.750,3.15
04.765,4.18
04.781,4.98
04.796,5.37
04.812,5.27
04.828,4.77
04.843,4.15
04.859,3.68
04.875,3.51
04.890,3.62
04.906,3.82
04.921,4.04
04.937,4.39
04.953,5.12
04.968,6.52
04.984,8.72
05.000,11.6
05.015,14.89
05.031,18.35
05.046,21.78
05.062,25.11
05.078,28.23
05.093,30.85
05.109,32.57
05.125,32.98
05.140,31.93
05.156,29.65
05.171,26.62
05.187,23.41
05.203,20.35
05.218,17.45
05.234,14.43
05.250,10.89
05.265,6.58
05.281,1.56
05.296,-3.87
05.312,-9.3
05.328,-14.33
05.343,-18.65
05.359,-22.05
05.375,-24.32
05.390,-25.26
05.406,-24.69
05.421,-22.59
05.437,-19.1
05.453,-14.54
05.468,-9.25
05.484,-3.48
05.500,2.69
05.515,9.25
05.531,16.19
05.546,23.4
05.562,30.61
05.578,37.44
05.593,43.43
05.609,48.2
05.625,51.4
05.640,52.79
05.656,52.25
05.671,49.78
05.687,45.59
05.703,40.04
05.718,33.63
05.734,26.9
05.750,20.36
05.765,14.31
05.781,8.82
05.796,3.64
05.812,-1.66
05.828,-7.52
05.843,-14.14
05.859,-21.31
05.875,-28.5
05.890,-35.0
05.906,-40.21
05.921,-43.7
05.937,-45.32
05.953,-45.11
05.968,-43.27
05.984,-40.05
06.000,-35.83
06.015,-31.12
06.031,-26.54
06.046,-22.7
06.062,-19.96
06.078,-18.3
06.093,-17.39
06.109,-16.68
06.125,-15.6
06.140,-13.8
06.156,-11.2
06.171,-8.05
06.187,-4.68
06.203,-1.35
06.218,1.83
06.234,4.88
06.250,7.83
06.265,10.6
06.281,13.0
06.296,14.78
06.312,15.78
06.328,16.02
06.343,15.63
06.359,14.8
06.375,13.66
06.390,12.25
06.406,10.55
06.421,8.58
06.437,6.45
06.453,4.35
06.468,2.46
06.484,0.95
06.500,-0.16
06.515,-0.87
06.531,-1.17
06.546,-1.03
06.562,-0.36
06.578,0.93
06.593,2.87
06.609,5.36
06.625,8.19
06.640,11.1
06.656,13.82
06.671,16.14
06.687,17.93
06.703,19.15
06.718,19.79
06.734,19.85
06.750,19.37
06.765,18.41
06.781,17.05
06.796,15.4
06.812,13.51
06.828,11.37
06.843,8.94
06.859,6.2
06.875,3.24
06.890,0.28
06.906,-2.31
06.921,-4.16
06.937,-4.93
06.953,-4.51
06.968,-2.97
06.984,-0.59
07.000,2.32
07.015,5.48
07.031,8.76
07.046,12.2
07.062,15.84
07.078,19.72
07.093,23.69
07.109,27.44
07.125,30.64
07.140,33.07
07.156,34.69
07.171,35.64
07.187,36.14
07.203,36.33
07.218,36.21
07.234,35.57
07.250,34.11
07.265,31.58
07.281,27.86
07.296,23.08
07.312,17.58
07.328,11.84
07.343,6.29
07.359,1.09
07.375,-3.84
07.390,-8.86
07.406,-14.37
07.421,-20.57
07.437,-27.25
07.453,-33.74
07.468,-39.05
07.484,-42.14
07.500,-42.28
07.515,-39.25
07.531,-33.46
07.546,-25.81
07.562,-17.46
07.578,-9.54
07.593,-2.98
07.609,1.58
07.625,3.82
07.640,3.65
07.656,1.29
07.671,-2.82
07.687,-8.01
07.703,-13.45
07.718,-18.28
07.734,-21.79
07.750,-23.6
07.765,-23.62
07.781,-22.12
07.796,-19.46
07.812,-16.04
07.828,-12.15
07.843,-7.96
07.859,-3.6
07.875,0.76
07.890,4.86
07.906,8.39
07.921,11.08
07.937,12.85
07.953,13.83
07.968,14.3
07.984,14.66
08.000,15.16
08.015,15.87
08.031,16.71
08.046,17.45
08.062,17.84
08.078,17.69
08.093,16.95
08.109,15.62
08.125,13.85
08.140,11.79
08.156,9.65
08.171,7.59
08.187,5.72
08.203,4.11
08.218,2.7
08.234,1.42
08.250,0.19
08.265,-1.01
08.281,-2.13
08.296,-3.0
08.312,-3.47
08.328,-3.46
08.343,-3.09
08.359,-2.69
08.375,-2.77
08.390,-3.89
08.406,-6.47
08.421,-10.64
08.437,-16.16
08.453,-22.42
08.468,-28.65
08.484,-34.05
08.500,-37.95
08.515,-39.91
08.531,-39.79
08.546,-37.63
08.562,-33.62
08.578,-28.02
08.593,-21.22
08.609,-13.71
08.625,-6.13
08.640,0.79
08.656,6.31
08.671,9.78
08.687,10.79
08.703,9.13
08.718,4.95
08.734,-1.32
08.750,-8.97
08.765,-17.12
08.781,-24.86
08.796,-31.37
08.812,-36.07
08.828,-38.65
08.843,-39.1
08.859,-37.72
08.875,-35.01
08.890,-31.57
08.906,-27.93
08.921,-24.49
08.937,-21.36
08.953,-18.47
08.968,-15.63
08.984,-12.7
09.000,-9.64
09.015,-6.56
09.031,-3.56
09.046,-0.73
09.062,1.85
09.078,4.08
09.093,5.83
09.109,6.96
09.125,7.48
09.140,7.57
09.156,7.6
09.171,7.88
09.187,8.55
09.203,9.51
09.218,10.47
09.234,11.22
09.250,11.71
09.265,12.07
09.281,12.49
09.296,13.08
09.312,13.75
09.328,14.31
09.343,14.61
09.359,14.65
09.375,14.66
09.390,14.95
09.406,15.73
09.421,17.01
09.437,18.59
09.453,20.27
09.468,21.94
09.484,23.66
09.500,25.61
09.515,27.91
09.531,30.42
09.546,32.8
09.562,34.63
09.578,35.59
09.593,35.7
09.609,35.29
09.625,34.71
09.640,34.18
09.656,33.62
09.671,32.59
09.687,30.55
09.703,27.1
09.718,22.04
09.734,15.48
09.750,7.8
09.765,-0.47
09.781,-8.7
09.796,-16.29
09.812,-22.79
09.828,-27.94
09.843,-31.67
09.859,-34.12
09.875,-35.51
09.890,-36.07
09.906,-36.04
09.921,-35.6
09.937,-34.86
09.953,-33.86
09.968,-32.55
09.984,-30.73
10.000,-28.24
10.015,-25.01
10.031,-21.18
10.046,-17.04
10.062,-12.88
10.078,-8.84
10.093,-4.88
10.109,-0.8
10.125,3.55
10.140,8.15
10.156,12.88
10.171,17.45
10.187,21.72
10.203,25.68
10.218,29.48
10.234,33.26
10.250,36.99
10.265,40.4
10.281,43.02
10.296,44.41
10.312,44.32
10.328,42.83
10.343,40.24
10.359,36.96
10.375,33.31
10.390,29.45
10.406,25.47
10.421,21.46
10.437,17.69
10.453,14.6
10.468,12.59
10.484,11.9
10.500,12.48
10.515,14.02
10.531,16.05
10.546,18.2
10.562,20.21
10.578,21.94
10.593,23.25
10.609,23.94
10.625,23.73
10.640,22.4
10.656,19.95
10.671,16.57
10.687,12.72
10.703,8.95
10.718,5.79
10.734,3.62
10.750,2.6
10.765,2.67
10.781,3.51
10.796,4.69
10.812,5.72
10.828,6.22
10.843,5.94
10.859,4.84
10.875,3.1
10.890,1.01
10.906,-1.1
10.921,-3.01
10.937,-4.57
10.953,-5.81
10.968,-6.84
10.984,-7.82
11.000,-8.88
11.015,-10.1
11.031,-11.54
11.046,-13.25
11.062,-15.24
11.078,-17.45
11.093,-19.78
11.109,-21.95
11.125,-23.73
11.140,-24.91
11.156,-25.45
11.171,-25.41
11.187,-24.95
11.203,-24.16
11.218,-23.0
11.234,-21.38
11.250,-19.13
11.265,-16.15
11.281,-12.45
11.296,-8.2
11.312,-3.61
11.328,1.09
11.343,5.69
11.359,10.09
11.375,14.19
11.390,18.0
11.406,21.51
11.421,24.68
11.437,27.49
11.453,29.95
11.468,32.15
11.484,34.26
11.500,36.49
11.515,38.93
11.531,41.53
11.546,44.0
11.562,45.85
11.578,46.61
11.593,45.99
11.609,43.96
11.625,40.78
11.640,36.83
11.656,32.43
11.671,27.77
11.687,22.98
11.703,18.26
11.718,13.93
11.734,10.44
11.750,8.13
11.765,7.03
11.781,6.57
11.796,5.68
11.812,3.11
11.828,-2.12
11.843,-10.26
11.859,-20.7
11.875,-32.09
11.890,-42.84
11.906,-51.52
11.921,-57.39
11.937,-60.42
11.953,-61.06
11.968,-60.01
11.984,-57.86
12.000,-54.97
12.015,-51.55
12.031,-47.79
12.046,-43.92
12.062,-40.19
12.078,-36.78
12.093,-33.64
12.109,-30.48
12.125,-26.87
12.140,-22.4
12.156,-16.9
12.171,-10.47
12.187,-3.55
12.203,3.38
12.218,9.98
12.234,16.2
12.250,22.3
12.265,28.59
12.281,35.23
12.296,42.09
12.312,48.76
12.328,54.89
12.343,60.5
12.359,66.15
12.375,72.76
12.390,81.12
12.406,91.46
12.421,103.33
12.437,115.66
12.453,127.42
12.468,138.16
12.484,148.17
12.500,158.25
12.515,169.07
12.531,180.51
12.546,191.59
12.562,200.88
12.578,207.26
12.593,210.42
12.609,210.78
12.625,208.92
12.640,204.95
12.656,198.27
12.671,187.93
12.687,173.42
12.703,155.26
12.718,134.98
12.734,114.46
12.750,95.16
12.765,77.44
12.781,60.72
12.796,44.04
12.812,26.7
12.828,8.64
12.843,-9.81
12.859,-28.46
12.875,-47.77
12.890,-68.7
12.906,-91.77
12.921,-115.74
12.937,-136.78
12.953,-149.16
12.968,-147.4
12.984,-129.36
13.000,-98.21
13.015,-62.3
13.031,-32.17
13.046,-16.3
13.062,-17.56
13.078,-32.18
13.093,-51.74
13.109,-67.07
13.125,-71.93
13.140,-64.72
13.156,-48.08
13.171,-26.74
13.187,-5.59
13.203,11.65
13.218,22.62
13.234,26.24
13.250,22.66
13.265,13.29
13.281,0.85
13.296,-11.08
13.312,-19.09
13.328,-21.21
13.343,-17.78
13.359,-11.53
13.375,-6.72
13.390,-7.57
13.406,-16.79
13.421,-34.64
13.437,-58.91
13.453,-85.86
13.468,-111.39
13.484,-132.21
13.500,-146.4
13.515,-153.66
13.531,-155.03
13.546,-152.44
13.562,-148.07
13.578,-143.68
13.593,-140.02
13.609,-136.64
13.625,-132.14
13.640,-124.89
13.656,-113.95
13.671,-99.65
13.687,-83.49
13.703,-67.56
13.718,-53.62
13.734,-42.35
13.750,-33.25
13.765,-25.14
13.781,-17.07
13.796,-8.99
13.812,-1.99
13.828,2.14
13.843,1.64
13.859,-4.42
13.875,-15.74
13.890,-30.91
13.906,-47.86
13.921,-64.4
13.937,-78.47
13.953,-88.32
13.968,-92.61
13.984,-90.6
14.000,-82.5
14.015,-69.58
14.031,-54.14
14.046,-38.87
14.062,-26.14
14.078,-17.2
14.093,-11.95
14.109,-9.14
14.125,-7.23
14.140,-5.25
14.156,-3.46
14.171,-3.38
14.187,-7.09
14.203,-16.12
14.218,-30.58
14.234,-48.75
14.250,-67.51
14.265,-83.28
14.281,-93.16
14.296,-95.58
14.312,-90.37
14.328,-78.43
14.343,-61.16
14.359,-40.38
14.375,-18.29
14.390,2.54
14.406,19.42
14.421,30.26
14.437,34.34
14.453,32.67
14.468,27.63
14.484,22.09
14.500,18.31
14.515,17.15
14.531,18.06
14.546,19.5
14.562,19.61
14.578,17.01
14.593,11.19
14.609,2.71
14.625,-6.94
14.640,-15.85
14.656,-22.37
14.671,-25.68
14.687,-25.98
14.703,-24.33
14.718,-21.97
14.734,-19.86
14.750,-18.41
14.765,-17.67
14.781,-17.68
14.796,-18.66
14.812,-20.87
14.828,-24.36
14.843,-28.79
14.859,-33.37
14.875,-37.23
14.890,-39.62
14.906,-40.11
14.921,-38.82
14.937,-36.31
14.953,-33.49
14.968,-31.31
14.984,-30.32
15.000,-30.49
15.015,-31.26
15.031,-32.02
15.046,-32.57
15.062,-33.17
15.078,-34.2
15.093,-35.62
15.109,-36.76
15.125,-36.67
15.140,-34.78
15.156,-31.4
15.171,-27.52
15.187,-24.07
15.203,-21.2
15.218,-17.97
15.234,-12.99
15.250,-5.3
15.265,4.96
15.281,16.47
15.296,27.31
15.312,35.87
15.328,41.47
15.343,44.42
15.359,45.75
15.375,46.48
15.390,47.1
15.406,47.4
15.421,46.61
15.437,43.97
15.453,39.26
15.468,33.14
15.484,26.87
15.500,21.88
15.515,19.12
15.531,18.68
15.546,19.87
15.562,21.7
15.578,23.24
15.593,23.85
15.609,23.14
15.625,20.81
15.640,16.59
15.656,10.46
15.671,2.76
15.687,-5.67
15.703,-13.64
15.718,-20.03
15.734,-24.07
15.750,-25.61
15.765,-25.06
15.781,-23.22
15.796,-21.06
15.812,-19.53
15.828,-19.36
15.843,-21.01
15.859,-24.53
15.875,-29.6
15.890,-35.62
15.906,-41.89
15.921,-47.76
15.937,-52.76
15.953,-56.61
15.968,-59.07
15.984,-59.96
16.000,-59.19
16.015,-56.78
16.031,-53.02
16.046,-48.4
16.062,-43.49
16.078,-38.71
16.093,-34.24
16.109,-29.88
16.125,-25.34
16.140,-20.45
16.156,-15.38
16.171,-10.66
16.187,-7.03
16.203,-4.99
16.218,-4.7
16.234,-5.85
16.250,-7.85
16.265,-10.17
16.281,-12.5
16.296,-14.8
16.312,-17.14
16.328,-19.42
16.343,-21.17
16.359,-21.48
16.375,-19.22
16.390,-13.29
16.406,-3.01
16.421,11.62
16.437,29.87
16.453,50.27
16.468,70.91
16.484,89.71
16.500,104.94
16.515,115.48
16.531,121.11
16.546,122.31
16.562,120.11
16.578,115.71
16.593,110.19
16.609,104.55
16.625,99.64
16.640,96.39
16.656,95.6
16.671,97.58
16.687,101.75
16.703,106.57
16.718,109.99
16.734,110.11
16.750,105.94
16.765,97.57
16.781,85.97
16.796,72.19
16.812,56.97
16.828,40.75
16.843,24.06
16.859,8.12
16.875,-5.24
16.890,-13.98
16.906,-16.8
16.921,-13.76
16.937,-6.24
16.953,3.76
16.968,14.36
16.984,24.24
17.000,32.4
17.015,37.7
17.031,38.6
17.046,33.32
17.062,20.64
17.078,0.87
17.093,-23.66
17.109,-48.83
17.125,-69.86
17.140,-82.65
17.156,-85.03
17.171,-77.15
17.187,-61.25
17.203,-40.67
17.218,-18.88
17.234,1.52
17.250,19.2
17.265,34.16
17.281,47.52
17.296,60.83
17.312,75.38
17.328,91.53
17.343,108.2
17.359,122.94
17.375,132.46
17.390,133.68
17.406,124.64
17.421,104.99
17.437,75.7
17.453,38.69
17.468,-3.76
17.484,-49.17
17.500,-94.88
17.515,-138.24
17.531,-176.88
17.546,-209.21
17.562,-234.8
17.578,-254.19
17.593,-268.19
17.609,-277.09
17.625,-280.33
17.640,-276.89
17.656,-266.01
17.671,-248.03
17.687,-224.6
17.703,-198.15
17.718,-171.09
17.734,-145.01
17.750,-120.36
17.765,-96.83
17.781,-73.97
17.796,-51.75
17.812,-30.79
17.828,-11.93
17.843,4.4
17.859,18.67
17.875,32.15
17.890,46.33
17.906,62.04
17.921,78.98
17.937,95.57
17.953,109.77
17.968,120.04
17.984,126.06
18.000,128.91
18.015,130.48
18.031,132.4
18.046,135.14
18.062,137.67
18.078,137.89
18.093,133.65
18.109,123.85
18.125,109.05
18.140,91.21
18.156,72.92
18.171,56.28
18.187,42.1
18.203,30.11
18.218,19.64
18.234,10.63
18.250,3.99
18.265,1.23
18.281,3.45
18.296,10.44
18.312,20.42
18.328,30.78
18.343,39.21
18.359,44.7
18.375,47.77
18.390,49.72
18.406,51.58
18.421,53.16
18.437,53.02
18.453,49.22
18.468,40.54
18.484,27.41
18.500,12.08
18.515,-2.15
18.531,-12.2
18.546,-16.47
18.562,-15.52
18.578,-11.68
18.593,-8.07
18.609,-7.22
18.625,-10.16
18.640,-16.27
18.656,-23.87
18.671,-31.21
18.687,-37.25
18.703,-41.87
18.718,-45.6
18.734,-48.93
18.750,-51.85
18.765,-53.83
18.781,-54.26
18.796,-52.92
18.812,-50.35
18.828,-47.61
18.843,-45.81
18.859,-45.37
18.875,-45.76
18.890,-45.66
18.906,-43.63
18.921,-38.85
18.937,-31.65
18.953,-23.38
18.968,-15.84
18.984,-10.49
19.000,-7.85
19.015,-7.4
19.031,-8.06
19.046,-8.86
19.062,-9.37
19.078,-9.8
19.093,-10.63
19.109,-12.09
19.125,-13.96
19.140,-15.69
19.156,-16.87
19.171,-17.61
19.187,-18.61
19.203,-20.82
19.218,-24.85
19.234,-30.49
19.250,-36.73
19.265,-42.16
19.281,-45.52
19.296,-46.22
19.312,-44.46
19.328,-40.95
19.343,-36.59
19.359,-32.04
19.375,-27.65
19.390,-23.41
19.406,-19.22
19.421,-15.13
19.437,-11.53
19.453,-9.09
19.468,-8.4
19.484,-9.72
19.500,-12.61
19.515,-16.11
19.531,-19.04
19.546,-20.58
19.562,-20.61
19.578,-19.66
19.593,-18.43
19.609,-17.27
19.625,-15.92
19.640,-13.8
19.656,-10.68
19.671,-7.06
19.687,-4.3
19.703,-3.98
19.718,-7.0
19.734,-12.93
19.750,-19.93
19.765,-25.49
19.781,-27.31
19.796,-24.27
19.812,-16.64
19.828,-5.73
19.843,6.88
19.859,19.93
19.875,32.71
19.890,44.92
19.906,56.4
19.921,66.94
19.937,76.27
19.953,84.12
19.968,90.27
19.984,94.48
20.000,96.45
20.015,95.96
20.031,93.17
20.046,88.88
20.062,84.46
20.078,81.43
20.093,80.93
20.109,83.41
20.125,88.63
20.140,96.16
20.156,105.68
20.171,117.11
20.187,130.19
20.203,144.14
20.218,157.54
20.234,168.83
20.250,177.02
20.265,182.3
20.281,185.87
20.296,189.13
20.312,192.68
20.328,195.56
20.343,195.62
20.359,190.38
20.375,178.26
20.390,159.27
20.406,135.04
20.421,108.09
20.437,80.86
20.453,55.04
20.468,31.35
20.484,9.78
20.500,-9.98
20.515,-28.2
20.531,-45.05
20.546,-60.75
20.562,-75.8
20.578,-91.02
20.593,-107.32
20.609,-125.18
20.625,-144.22
20.640,-163.03
20.656,-179.44
20.671,-191.32
20.687,-197.36
20.703,-197.72
20.718,-193.78
20.734,-187.5
20.750,-180.51
20.765,-173.57
20.781,-166.5
20.796,-158.8
20.812,-150.26
20.828,-141.46
20.843,-133.46
20.859,-127.36
20.875,-123.52
20.890,-121.35
20.906,-119.48
20.921,-116.4
20.937,-111.13
20.953,-103.61
20.968,-94.5
20.984,-84.75
21.000,-75.11
21.015,-65.91
21.031,-57.09
21.046,-48.58
21.062,-40.56
21.078,-33.52
21.093,-28.03
21.109,-24.37
21.125,-22.27
21.140,-20.87
21.156,-18.96
21.171,-15.43
21.187,-9.75
21.203,-2.27
21.218,5.91
21.234,13.39
21.250,19.09
21.265,22.7
21.281,24.78
21.296,26.41
21.312,28.65
21.328,31.9
21.343,35.9
21.359,39.9
21.375,43.19
21.390,45.46
21.406,46.89
21.421,47.72
21.437,48.0
21.453,47.3
21.468,44.86
21.484,40.16
21.500,33.18
21.515,24.62
21.531,15.67
21.546,7.51
21.562,0.83
21.578,-4.32
21.593,-8.36
21.609,-11.83
21.625,-15.03
21.640,-17.79
21.656,-19.54
21.671,-19.49
21.687,-17.09
21.703,-12.41
21.718,-6.33
21.734,-0.46
21.750,3.34
21.765,3.7
21.781,0.31
21.796,-5.95
21.812,-13.29
21.828,-19.83
21.843,-24.32
21.859,-26.44
21.875,-26.56
21.890,-25.31
21.906,-22.99
21.921,-19.53
21.937,-14.8
21.953,-9.01
21.968,-3.09
21.984,1.6
22.000,3.72
22.015,2.7
22.031,-1.0
22.046,-6.02
22.062,-10.63
22.078,-13.66
22.093,-14.73
22.109,-14.26
22.125,-12.95
22.140,-11.28
22.156,-9.16
22.171,-6.19
22.187,-2.15
22.203,2.59
22.218,6.98
22.234,9.75
22.250,9.94
22.265,7.41
22.281,2.81
22.296,-2.76
22.312,-8.23
22.328,-12.96
22.343,-16.64
22.359,-19.14
22.375,-20.18
22.390,-19.46
22.406,-16.77
22.421,-12.46
22.437,-7.53
22.453,-3.47
22.468,-1.95
22.484,-4.03
22.500,-9.98
22.515,-19.05
22.531,-29.8
22.546,-40.47
22.562,-49.26
22.578,-54.64
22.593,-55.53
22.609,-51.39
22.625,-42.29
22.640,-28.92
22.656,-12.4
22.671,5.84
22.687,24.27
22.703,41.38
22.718,55.78
22.734,66.34
22.750,72.44
22.765,74.25
22.781,72.64
22.796,68.97
22.812,64.58
22.828,60.39
22.843,56.62
22.859,53.05
22.875,49.48
22.890,46.09
22.906,43.58
22.921,42.74
22.937,43.99
22.953,46.98
22.968,50.6
22.984,53.48
23.000,54.6
23.015,53.71
23.031,51.31
23.046,48.16
23.062,44.66
23.078,40.46
23.093,34.63
23.109,26.25
23.125,15.19
23.140,2.51
23.156,-9.7
23.171,-19.19
23.187,-24.45
23.203,-25.52
23.218,-24.03
23.234,-22.31
23.250,-22.43
23.265,-25.21
23.281,-30.04
23.296,-35.32
23.312,-39.49
23.328,-41.79
23.343,-42.61
23.359,-43.03
23.375,-43.98
23.390,-45.77
23.406,-47.98
23.421,-49.92
23.437,-51.12
23.453,-51.5
23.468,-51.16
23.484,-49.85
23.500,-46.72
23.515,-40.45
23.531,-29.93
23.546,-15.09
23.562,2.79
23.578,21.33
23.593,37.96
23.609,51.05
23.625,60.43
23.640,67.26
23.656,73.29
23.671,79.87
23.687,87.36
23.703,95.11
23.718,101.76
23.734,105.93
23.750,106.66
23.765,103.6
23.781,96.95
23.796,87.42
23.812,76.12
23.828,64.48
23.843,53.92
23.859,45.51
23.875,39.8
23.890,36.67
23.906,35.47
23.921,35.21
23.937,35.02
23.953,34.38
23.968,32.97
23.984,30.6
24.000,27.05
24.015,22.63
24.031,18.22
24.046,15.21
24.062,15.08
24.078,19.14
24.093,28.32
24.109,42.63
24.125,60.96
24.140,80.95
24.156,99.99
24.171,115.59
24.187,125.79
24.203,129.47
24.218,126.47
24.234,117.71
24.250,104.4
24.265,87.79
24.281,68.77
24.296,49.04
24.312,30.8
24.328,16.2
24.343,6.27
24.359,-1.81
24.375,-10.68
24.390,-21.96
24.406,-32.58
24.421,-39.85
24.437,-40.81
24.453,-33.7
24.468,-18.43
24.484,2.16
24.500,22.85
24.515,38.09
24.531,43.57
24.546,37.43
24.562,19.94
24.578,-6.64
24.593,-39.25
24.609,-74.87
24.625,-110.88
24.640,-144.8
24.656,-173.75
24.671,-194.98
24.687,-206.56
24.703,-208.47
24.718,-202.31
24.734,-191.07
24.750,-178.05
24.765,-165.82
24.781,-155.51
24.796,-146.62
24.812,-137.96
24.828,-128.63
24.843,-118.66
24.859,-108.59
24.875,-99.08
24.890,-90.49
24.906,-82.83
24.921,-75.8
24.937,-68.99
24.953,-62.1
24.968,-55.07
24.984,-48.04
25.000,-41.01
25.015,-33.84
25.031,-26.25
25.046,-18.02
25.062,-9.06
25.078,0.51
25.093,10.34
25.109,19.82
25.125,28.23
25.140,35.03
25.156,40.0
25.171,43.38
25.187,45.7
25.203,47.38
25.218,48.41
25.234,48.31
25.250,46.36
25.265,42.17
25.281,36.08
25.296,29.24
25.312,23.22
25.328,19.38
25.343,18.26
25.359,19.29
25.375,21.18
25.390,22.49
25.406,22.23
25.421,20.23
25.437,17.07
25.453,13.74
25.468,11.17
25.484,9.96
25.500,10.24
25.515,11.84
25.531,14.36
25.546,17.38
25.562,20.42
25.578,22.96
25.593,24.36
25.609,23.97
25.625,21.39
25.640,16.66
25.656,10.41
25.671,3.6
25.687,-2.77
25.703,-8.08
25.718,-12.32
25.734,-16.0
25.750,-19.78
25.765,-24.03
25.781,-28.68
25.796,-33.05
25.812,-36.3
25.828,-37.67
25.843,-36.72
25.859,-33.53
25.875,-28.5
25.890,-22.17
25.906,-15.03
25.921,-7.44
25.937,0.41
25.953,8.43
25.968,16.48
25.984,24.36
26.000,31.79
26.015,38.53
26.031,44.46
26.046,49.57
26.062,53.82
26.078,57.18
26.093,59.44
26.109,60.28
26.125,59.46
26.140,57.0
26.156,53.27
26.171,48.98
26.187,44.85
26.203,41.35
26.218,38.55
26.234,36.09
26.250,33.47
26.265,30.4
26.281,26.94
26.296,23.6
26.312,21.04
26.328,19.75
26.343,19.84
26.359,20.93
26.375,22.31
26.390,23.32
26.406,23.62
26.421,23.24
26.437,22.49
26.453,21.68
26.468,20.93
26.484,19.96
26.500,18.34
26.515,15.55
26.531,11.4
26.546,6.17
26.562,0.45
26.578,-4.97
26.593,-9.28
26.609,-11.85
26.625,-12.27
26.640,-10.24
26.656,-5.73
26.671,1.1
26.687,9.81
26.703,19.65
26.718,29.73
26.734,39.2
26.750,47.48
26.765,54.36
26.781,60.0
26.796,64.79
26.812,69.09
26.828,73.03
26.843,76.42
26.859,78.83
26.875,79.7
26.890,78.69
26.906,75.74
26.921,71.17
26.937,65.6
26.953,59.73
26.968,54.07
26.984,48.86
27.000,44.05
27.015,39.41
27.031,34.76
27.046,30.11
27.062,25.65
27.078,21.6
27.093,18.1
27.109,15.09
27.125,12.31
27.140,9.52
27.156,6.57
27.171,3.59
27.187,0.9
27.203,-1.25
27.218,-2.75
27.234,-3.86
27.250,-5.13
27.265,-7.15
27.281,-10.34
27.296,-14.69
27.312,-19.72
27.328,-24.69
27.343,-28.9
27.359,-31.95
27.375,-33.94
27.390,-35.31
27.406,-36.67
27.421,-38.48
27.437,-40.95
27.453,-44.03
27.468,-47.51
27.484,-51.17
27.500,-54.79
27.515,-58.17
27.531,-61.03
27.546,-63.13
27.562,-64.3
27.578,-64.62
27.593,-64.42
27.609,-64.15
27.625,-64.23
27.640,-64.86
27.656,-65.96
27.671,-67.28
27.687,-68.51
27.703,-69.44
27.718,-69.93
27.734,-69.81
27.750,-68.78
27.765,-66.3
27.781,-61.7
27.796,-54.37
27.812,-43.89
27.828,-30.26
27.843,-13.92
27.859,4.11
27.875,22.43
27.890,39.48
27.906,53.98
27.921,65.3
27.937,73.66
27.953,79.84
27.968,84.85
27.984,89.32
28.000,93.25
28.015,96.07
28.031,97.03
28.046,95.63
28.062,91.86
28.078,86.14
28.093,79.04
28.109,71.03
28.125,62.38
28.140,53.32
28.156,44.21
28.171,35.65
28.187,28.33
28.203,22.92
28.218,19.72
28.234,18.6
28.250,18.92
28.265,19.71
28.281,20.03
28.296,19.22
28.312,17.09
28.328,13.93
28.343,10.34
28.359,6.83
28.375,3.69
28.390,0.85
28.406,-1.92
28.421,-4.82
28.437,-7.83
28.453,-10.72
28.468,-13.19
28.484,-15.06
28.500,-16.52
28.515,-17.96
28.531,-19.88
28.546,-22.55
28.562,-25.84
28.578,-29.31
28.593,-32.42
28.609,-34.91
28.625,-36.86
28.640,-38.7
28.656,-40.92
28.671,-43.8
28.687,-47.24
28.703,-50.84
28.718,-54.13
28.734,-56.74
28.750,-58.51
28.765,-59.39
28.781,-59.33
28.796,-58.15
28.812,-55.58
28.828,-51.39
28.843,-45.44
28.859,-37.82
28.875,-28.83
28.890,-18.98
28.906,-8.76
28.921,1.3
28.937,10.86
28.953,19.74
28.968,27.94
28.984,35.54
29.000,42.73
29.015,49.83
29.031,57.28
29.046,65.66
29.062,75.44
29.078,86.68
29.093,98.76
29.109,110.31
29.125,119.53
29.140,124.76
29.156,125.03
29.171,120.32
29.187,111.43
29.203,99.43
29.218,85.29
29.234,69.58
29.250,52.62
29.265,34.86
29.281,17.15
29.296,0.81
29.312,-12.71
29.328,-22.29
29.343,-27.57
29.359,-29.11
29.375,-28.16
29.390,-26.23
29.406,-24.38
29.421,-22.8
29.437,-20.56
29.453,-15.92
29.468,-6.84
29.484,7.91
29.500,28.14
29.515,51.77
29.531,75.16
29.546,94.07
29.562,104.89
29.578,105.66
29.593,96.5
29.609,79.19
29.625,56.36
29.640,30.66
29.656,4.23
29.671,-21.28
29.687,-44.52
29.703,-64.41
29.718,-80.14
29.734,-91.54
29.750,-99.17
29.765,-104.24
29.781,-108.01
29.796,-111.29
29.812,-114.08
29.828,-115.66
29.843,-114.99
29.859,-111.31
29.875,-104.47
29.890,-94.99
29.906,-83.83
29.921,-72.04
29.937,-60.45
29.953,-49.56
29.968,-39.33
29.984,-29.43
30.000,-19.41
30.015,-8.97
30.031,1.83
30.046,12.36
30.062,21.68
30.078,28.71
30.093,32.63
30.109,33.39
30.125,31.8
30.140,29.42
30.156,27.99
30.171,28.8
30.187,32.05
30.203,36.86
30.218,41.53
30.234,44.27
30.250,43.93
30.265,40.21
30.281,33.58
30.296,24.79
30.312,14.62
30.328,3.8
30.343,-6.65
30.359,-15.31
30.375,-20.52
30.390,-21.02
30.406,-16.65
30.421,-8.74
30.437,0.15
30.453,7.09
30.468,9.78
30.484,7.34
30.500,0.29
30.515,-9.9
30.531,-21.46
30.546,-32.93
30.562,-43.29
30.578,-51.93
30.593,-58.44
30.609,-62.53
30.625,-63.99
30.640,-62.97
30.656,-59.97
30.671,-55.7
30.687,-50.87
30.703,-45.72
30.718,-39.89
30.734,-32.53
30.750,-22.84
30.765,-10.72
30.781,2.83
30.796,15.77
30.812,25.73
30.828,30.83
30.843,30.42
30.859,25.17
30.875,16.64
30.890,6.49
30.906,-4.0
30.921,-14.02
30.937,-22.96
30.953,-30.03
30.968,-34.21
30.984,-34.6
31.000,-30.81
31.015,-23.46
31.031,-14.01
31.046,-4.33
31.062,3.9
31.078,9.64
31.093,12.65
31.109,13.15
31.125,11.64
31.140,8.53
31.156,4.13
31.171,-1.18
31.187,-6.81
31.203,-11.89
31.218,-15.4
31.234,-16.44
31.250,-14.62
31.265,-10.21
31.281,-4.14
31.296,2.3
31.312,7.9
31.328,11.91
31.343,14.22
31.359,15.29
31.375,15.86
31.390,16.64
31.406,17.99
31.421,19.81
31.437,21.62
31.453,22.74
31.468,22.5
31.484,20.43
31.500,16.41
31.515,10.66
31.531,3.63
31.546,-4.02
31.562,-11.62
31.578,-18.55
31.593,-24.36
31.609,-28.74
31.625,-31.57
31.640,-32.9
31.656,-32.94
31.671,-32.09
31.687,-30.75
31.703,-29.28
31.718,-27.93
31.734,-26.83
31.750,-26.05
31.765,-25.65
31.781,-25.72
31.796,-26.33
31.812,-27.54
31.828,-29.3
31.843,-31.44
31.859,-33.7
31.875,-35.76
31.890,-37.29
31.906,-38.01
31.921,-37.79
31.937,-36.62
31.953,-34.61
31.968,-31.86
31.984,-28.36
32.000,-24.01
32.015,-18.71
32.031,-12.52
32.046,-5.79
32.062,0.87
32.078,6.85
32.093,11.72
32.109,15.48
32.125,18.41
32.140,20.99
32.156,23.62
32.171,26.44
32.187,29.41
32.203,32.38
32.218,35.24
32.234,37.96
32.250,40.56
32.265,43.01
32.281,45.15
32.296,46.75
32.312,47.61
32.328,47.67
32.343,47.16
32.359,46.45
32.375,46.01
32.390,46.19
32.406,47.14
32.421,48.71
32.437,50.61
32.453,52.52
32.468,54.16
32.484,55.49
32.500,56.55
32.515,57.5
32.531,58.54
32.546,59.88
32.562,61.63
32.578,63.85
32.593,66.38
32.609,68.88
32.625,70.85
32.640,71.75
32.656,71.1
32.671,68.57
32.687,64.1
32.703,57.88
32.718,50.27
32.734,41.75
32.750,32.78
32.765,23.74
32.781,14.77
32.796,5.76
32.812,-3.5
32.828,-13.24
32.843,-23.46
32.859,-33.97
32.875,-44.42
32.890,-54.46
32.906,-63.89
32.921,-72.63
32.937,-80.72
32.953,-88.03
32.968,-94.42
32.984,-99.57
33.000,-103.19
33.015,-105.08
33.031,-105.14
33.046,-103.36
33.062,-99.74
33.078,-94.3
33.093,-87.04
33.109,-78.12
33.125,-67.64
33.140,-55.62
33.156,-42.0
33.171,-26.64
33.187,-9.51
33.203,9.14
33.218,28.66
33.234,48.04
33.250,66.03
33.265,81.31
33.281,92.67
33.296,99.16
33.312,100.21
33.328,95.78
33.343,86.41
33.359,73.24
33.375,57.78
33.390,41.53
33.406,25.74
33.421,11.26
33.437,-1.42
33.453,-11.97
33.468,-20.07
33.484,-25.4
33.500,-27.83
33.515,-27.49
33.531,-24.95
33.546,-21.03
33.562,-16.53
33.578,-12.0
33.593,-7.61
33.609,-3.31
33.625,0.87
33.640,4.71
33.656,7.75
33.671,9.47
33.687,9.67
33.703,8.57
33.718,6.67
33.734,4.64
33.750,2.94
33.765,1.63
33.781,0.4
33.796,-1.29
33.812,-3.91
33.828,-7.54
33.843,-11.8
33.859,-16.05
33.875,-19.56
33.890,-21.92
33.906,-23.23
33.921,-24.18
33.937,-25.78
33.953,-29.04
33.968,-34.39
33.984,-41.69
34.000,-50.38
34.015,-59.64
34.031,-68.59
34.046,-76.62
34.062,-83.25
34.078,-88.19
34.093,-91.13
34.109,-91.32
34.125,-87.95
34.140,-80.64
34.156,-69.48
34.171,-55.13
34.187,-38.81
34.203,-21.95
34.218,-6.07
34.234,7.71
34.250,19.6
34.265,30.48
34.281,41.07
34.296,51.95
34.312,63.16
34.328,74.19
34.343,84.24
34.359,92.2
34.375,97.14
34.390,99.68
34.406,100.9
34.421,101.3
34.437,101.16
34.453,100.52
34.468,99.24
34.484,97.04
34.500,92.79
34.515,84.35
34.531,70.3
34.546,49.39
34.562,20.85
34.578,-13.87
34.593,-51.07
34.609,-85.99
34.625,-111.67
34.640,-122.32
34.656,-123.34
34.671,-121.04
34.687,-116.62
34.703,-110.46
34.718,-101.61
34.734,-88.88
34.750,-71.79
34.765,-50.86
34.781,-27.66
34.796,-3.84
34.812,20.84
34.828,47.22
34.843,75.52
34.859,105.61
34.875,136.8
34.890,167.74
34.906,196.5
34.921,220.37
34.937,236.58
34.953,244.09
34.968,243.19
34.984,234.81
35.000,220.5
35.015,201.51
35.031,178.26
35.046,150.42
35.062,117.52
35.078,79.93
35.093,39.98
35.109,1.1
35.125,-33.62
35.140,-61.85
35.156,-82.51
35.171,-95.84
35.187,-103.0
35.203,-105.77
35.218,-106.1
35.234,-105.47
35.250,-104.99
35.265,-105.52
35.281,-107.34
35.296,-110.22
35.312,-113.58
35.328,-116.78
35.343,-119.38
35.359,-121.12
35.375,-121.56
35.390,-120.1
35.406,-116.07
35.421,-109.08
35.437,-99.44
35.453,-88.18
35.468,-76.78
35.484,-66.52
35.500,-57.99
35.515,-50.98
35.531,-44.89
35.546,-39.4
35.562,-34.75
35.578,-31.66
35.593,-30.65
35.609,-31.54
35.625,-33.41
35.640,-35.19
35.656,-36.43
35.671,-37.73
35.687,-40.53
35.703,-46.17
35.718,-54.93
35.734,-65.59
35.750,-75.74
35.765,-82.73
35.781,-84.68
35.796,-81.03
35.812,-72.53
35.828,-60.69
35.843,-47.07
35.859,-32.8
35.875,-18.41
35.890,-3.98
35.906,10.58
35.921,25.24
35.937,39.58
35.953,52.91
35.968,64.44
35.984,73.57
36.000,79.97
36.015,83.42
36.031,83.65
36.046,80.25
36.062,72.91
36.078,61.89
36.093,48.37
36.109,34.37
36.125,22.26
36.140,13.86
36.156,9.73
36.171,9.04
36.187,10.02
36.203,10.92
36.218,10.8
36.234,9.87
36.250,9.21
36.265,10.1
36.281,13.33
36.296,18.78
36.312,25.29
36.328,31.08
36.343,34.22
36.359,33.24
36.375,27.43
36.390,17.09
36.406,3.57
36.421,-10.89
36.437,-23.65
36.453,-32.18
36.468,-34.73
36.484,-30.72
36.500,-20.86
36.515,-6.93
36.531,8.61
36.546,23.12
36.562,34.16
36.578,39.98
36.593,39.85
36.609,34.26
36.625,24.81
36.640,13.73
36.656,3.18
36.671,-5.34
36.687,-11.27
36.703,-14.79
36.718,-16.33
36.734,-16.13
36.750,-14.2
36.765,-10.58
36.781,-5.79
36.796,-0.96
36.812,2.26
36.828,2.44
36.843,-1.03
36.859,-7.5
36.875,-15.12
36.890,-21.48
36.906,-24.51
36.921,-23.3
36.937,-18.47
36.953,-11.88
36.968,-5.73
36.984,-1.61
37.000,0.08
37.015,0.13
37.031,-0.16
37.046,0.25
37.062,1.5
37.078,2.84
37.093,3.22
37.109,1.89
37.125,-1.02
37.140,-4.77
37.156,-8.48
37.171,-11.8
37.187,-15.18
37.203,-19.58
37.218,-25.69
37.234,-33.26
37.250,-40.9
37.265,-46.49
37.281,-48.18
37.296,-45.29
37.312,-38.73
37.328,-30.61
37.343,-23.24
37.359,-18.13
37.375,-15.48
37.390,-14.35
37.406,-13.37
37.421,-11.64
37.437,-9.18
37.453,-6.82
37.468,-5.6
37.484,-6.11
37.500,-8.12
37.515,-10.82
37.531,-13.35
37.546,-15.29
37.562,-16.88
37.578,-18.73
37.593,-21.23
37.609,-24.11
37.625,-26.37
37.640,-26.75
37.656,-24.47
37.671,-19.66
37.687,-13.49
37.703,-7.63
37.718,-3.43
37.734,-1.3
37.750,-0.6
37.765,0.02
37.781,1.82
37.796,5.31
37.812,9.88
37.828,14.11
37.843,16.52
37.859,16.2
37.875,13.37
37.890,9.1
37.906,4.73
37.921,1.11
37.937,-1.76
37.953,-4.6
37.968,-8.29
37.984,-13.21
38.000,-18.96
38.015,-24.58
38.031,-29.12
38.046,-32.12
38.062,-33.82
38.078,-34.95
38.093,-36.16
38.109,-37.58
38.125,-38.59
38.140,-38.21
38.156,-35.54
38.171,-30.38
38.187,-23.46
38.203,-16.29
38.218,-10.61
38.234,-7.66
38.250,-7.66
38.265,-9.77
38.281,-12.5
38.296,-14.38
38.312,-14.57
38.328,-13.12
38.343,-10.67
38.359,-8.01
38.375,-5.63
38.390,-3.53
38.406,-1.4
38.421,1.14
38.437,4.31
38.453,8.08
38.468,12.24
38.484,16.5
38.500,20.56
38.515,24.26
38.531,27.53
38.546,30.5
38.562,33.42
38.578,36.41
38.593,39.42
38.609,42.14
38.625,44.2
38.640,45.34
38.656,45.59
38.671,45.25
38.687,44.72
38.703,44.26
38.718,43.88
38.734,43.48
38.750,42.96
38.765,42.45
38.781,42.19
38.796,42.47
38.812,43.47
38.828,45.23
38.843,47.76
38.859,51.12
38.875,55.48
38.890,60.96
38.906,67.54
38.921,74.96
38.937,82.75
38.953,90.4
38.968,97.57
38.984,104.23
39.000,110.59
39.015,117.04
39.031,123.83
39.046,130.85
39.062,137.46
39.078,142.44
39.093,144.13
39.109,140.86
39.125,131.45
39.140,115.76
39.156,94.88
39.171,70.84
39.187,45.96
39.203,21.95
39.218,-0.75
39.234,-22.89
39.250,-45.67
39.265,-69.74
39.281,-94.33
39.296,-117.23
39.312,-135.54
39.328,-146.76
39.343,-149.63
39.359,-144.56
39.375,-133.15
39.390,-117.64
39.406,-100.32
39.421,-83.48
39.437,-69.21
39.453,-59.37
39.468,-55.11
39.484,-56.54
39.500,-62.64
39.515,-71.72
39.531,-82.05
39.546,-92.56
39.562,-102.99
39.578,-113.59
39.593,-124.45
39.609,-134.93
39.625,-143.46
39.640,-147.96
39.656,-146.42
39.671,-137.64
39.687,-121.65
39.703,-99.55
39.718,-73.08
39.734,-43.95
39.750,-13.47
39.765,17.47
39.781,48.1
39.796,77.37
39.812,103.73
39.828,125.38
39.843,140.89
39.859,149.76
39.875,152.63
39.890,151.02
39.906,146.74
39.921,141.18
39.937,134.98
39.953,128.03
39.968,119.8
39.984,109.88
40.000,98.32
40.015,85.77
40.031,73.18
40.046,61.51
40.062,51.28
40.078,42.47
40.093,34.58
40.109,26.95
40.125,19.11
40.140,10.92
40.156,2.63
40.171,-5.35
40.187,-12.58
40.203,-18.86
40.218,-24.13
40.234,-28.43
40.250,-31.69
40.265,-33.61
40.281,-33.78
40.296,-31.9
40.312,-28.21
40.328,-23.55
40.343,-19.28
40.359,-16.76
40.375,-16.66
40.390,-18.61
40.406,-21.23
40.421,-22.75
40.437,-21.79
40.453,-18.03
40.468,-12.3
40.484,-6.15
40.500,-1.11
40.515,1.99
40.531,3.16
40.546,3.05
40.562,2.42
40.578,1.64
40.593,0.69
40.609,-0.68
40.625,-2.52
40.640,-4.51
40.656,-6.0
40.671,-6.41
40.687,-5.61
40.703,-4.15
40.718,-3.01
40.734,-3.1
40.750,-4.8
40.765,-7.77
40.781,-11.14
40.796,-14.05
40.812,-16.07
40.828,-17.48
40.843,-18.91
40.859,-20.99
40.875,-23.75
40.890,-26.63
40.906,-28.75
40.921,-29.38
40.937,-28.45
40.953,-26.66
40.968,-25.14
40.984,-24.95
41.000,-26.56
41.015,-29.59
41.031,-33.12
41.046,-36.13
41.062,-38.01
41.078,-38.85
41.093,-39.24
41.109,-39.93
41.125,-41.33
41.140,-43.29
41.156,-45.26
41.171,-46.64
41.187,-47.13
41.203,-46.96
41.218,-46.76
41.234,-47.25
41.250,-48.82
41.265,-51.37
41.281,-54.47
41.296,-57.54
41.312,-60.19
41.328,-62.45
41.343,-64.59
41.359,-66.9
41.375,-69.34
41.390,-71.37
41.406,-72.18
41.421,-70.97
41.437,-67.35
41.453,-61.54
41.468,-54.14
41.484,-45.79
41.500,-36.9
41.515,-27.44
41.531,-17.16
41.546,-5.95
41.562,5.87
41.578,17.54
41.593,28.12
41.609,36.9
41.625,43.72
41.640,48.99
41.656,53.42
41.671,57.66
41.687,61.93
41.703,65.94
41.718,69.14
41.734,71.13
41.750,72.05
41.765,72.64
41.781,73.93
41.796,76.7
41.812,81.05
41.828,86.22
41.843,90.91
41.859,93.86
41.875,94.35
41.890,92.45
41.906,88.79
41.921,83.99
41.937,78.16
41.953,70.62
41.968,60.28
41.984,46.22
42.000,28.38
42.015,7.91
42.031,-13.07
42.046,-32.07
42.062,-47.11
42.078,-57.17
42.093,-62.3
42.109,-63.21
42.125,-60.72
42.140,-55.49
42.156,-48.01
42.171,-38.88
42.187,-28.83
42.203,-18.64
42.218,-8.64
42.234,1.49
42.250,12.74
42.265,26.19
42.281,42.34
42.296,60.63
42.312,79.45
42.328,96.66
42.343,110.42
42.359,119.82
42.375,125.18
42.390,127.93
42.406,130.05
42.421,133.53
42.437,139.77
42.453,149.0
42.468,160.2
42.484,171.23
42.500,179.43
42.515,182.39
42.531,178.78
42.546,168.63
42.562,153.33
42.578,135.01
42.593,115.81
42.609,97.37
42.625,80.53
42.640,65.35
42.656,51.47
42.671,38.29
42.687,25.27
42.703,11.97
42.718,-1.76
42.734,-15.83
42.750,-29.92
42.765,-43.69
42.781,-56.81
42.796,-68.99
42.812,-79.87
42.828,-88.98
42.843,-95.82
42.859,-100.09
42.875,-102.1
42.890,-102.73
42.906,-103.32
42.921,-105.12
42.937,-108.84
42.953,-114.52
42.968,-121.72
42.984,-129.9
43.000,-138.67
43.015,-147.63
43.031,-156.1
43.046,-162.81
43.062,-166.06
43.078,-164.19
43.093,-156.24
43.109,-142.25
43.125,-123.16
43.140,-100.37
43.156,-75.17
43.171,-48.56
43.187,-21.41
43.203,5.04
43.218,29.04
43.234,48.35
43.250,61.03
43.265,66.31
43.281,65.09
43.296,59.91
43.312,54.02
43.328,50.1
43.343,49.38
43.359,51.52
43.375,55.29
43.390,59.55
43.406,63.85
43.421,68.35
43.437,73.08
43.453,77.34
43.468,79.61
43.484,78.22
43.500,72.33
43.515,62.67
43.531,51.35
43.546,40.87
43.562,32.84
43.578,27.28
43.593,22.67
43.609,16.9
43.625,8.33
43.640,-3.52
43.656,-18.1
43.671,-34.38
43.687,-51.47
43.703,-68.86
43.718,-86.06
43.734,-102.04
43.750,-115.01
43.765,-122.75
43.781,-123.54
43.796,-117.13
43.812,-105.07
43.828,-90.29
43.843,-75.91
43.859,-64.17
43.875,-55.77
43.890,-50.02
43.906,-45.58
43.921,-41.39
43.937,-37.16
43.953,-33.33
43.968,-30.64
43.984,-29.49
44.000,-29.74
44.015,-30.81
44.031,-32.0
44.046,-32.9
44.062,-33.65
44.078,-34.76
44.093,-36.88
44.109,-40.34
44.125,-44.9
44.140,-49.75
44.156,-53.83
44.171,-56.24
44.187,-56.64
44.203,-55.39
44.218,-53.38
44.234,-51.6
44.250,-50.68
44.265,-50.66
44.281,-51.04
44.296,-51.08
44.312,-50.23
44.328,-48.42
44.343,-46.05
44.359,-43.76
44.375,-42.14
44.390,-41.45
44.406,-41.67
44.421,-42.55
44.437,-43.73
44.453,-44.68
44.468,-44.67
44.484,-42.58
44.500,-37.16
44.515,-27.4
44.531,-13.22
44.546,4.19
44.562,22.51
44.578,38.89
44.593,50.96
44.609,57.69
44.625,59.61
44.640,58.44
44.656,56.21
44.671,54.3
44.687,52.99
44.703,51.53
44.718,48.59
44.734,43.03
44.750,34.45
44.765,23.33
44.781,10.83
44.796,-1.68
44.812,-13.01
44.828,-22.47
44.843,-30.04
44.859,-36.08
44.875,-41.14
44.890,-45.59
44.906,-49.5
44.921,-52.56
44.937,-54.24
44.953,-53.85
44.968,-50.74
44.984,-44.29
45.000,-34.09
45.015,-19.99
45.031,-2.27
45.046,18.16
45.062,39.68
45.078,60.11
45.093,77.08
45.109,88.69
45.125,94.19
45.140,94.23
45.156,90.6
45.171,85.4
45.187,80.2
45.203,75.38
45.218,70.26
45.234,63.75
45.250,55.16
45.265,44.7
45.281,33.44
45.296,22.62
45.312,13.11
45.328,4.93
45.343,-2.36
45.359,-9.18
45.375,-15.39
45.390,-20.23
45.406,-22.71
45.421,-22.31
45.437,-19.43
45.453,-15.4
45.468,-11.97
45.484,-10.4
45.500,-10.76
45.515,-11.77
45.531,-11.36
45.546,-7.61
45.562,0.3
45.578,11.69
45.593,24.7
45.609,37.2
45.625,47.74
45.640,56.08
45.656,63.08
45.671,70.05
45.687,78.11
45.703,87.7
45.718,98.67
45.734,110.69
45.750,123.62
45.765,137.57
45.781,152.8
45.796,169.17
45.812,185.9
45.828,201.51
45.843,214.17
45.859,222.19
45.875,224.58
45.890,221.26
45.906,213.0
45.921,201.0
45.937,186.32
45.953,169.58
45.968,150.8
45.984,129.69
46.000,106.09
46.015,80.4
46.031,53.85
46.046,28.29
46.062,5.7
46.078,-12.48
46.093,-25.89
46.109,-35.37
46.125,-42.59
46.140,-49.3
46.156,-56.65
46.171,-64.83
46.187,-73.37
46.203,-81.74
46.218,-89.99
46.234,-98.87
46.250,-109.33
46.265,-121.92
46.281,-136.21
46.296,-150.87
46.312,-164.12
46.328,-174.51
46.343,-181.15
46.359,-183.66
46.375,-181.62
46.390,-174.37
46.406,-161.29
46.421,-142.35
46.437,-119.01
46.453,-94.27
46.468,-72.18
46.484,-56.47
46.500,-49.28
46.515,-50.15
46.531,-56.16
46.546,-62.79
46.562,-65.53
46.578,-61.44
46.593,-50.11
46.609,-33.61
46.625,-15.46
46.640,0.79
46.656,12.92
46.671,20.62
46.687,25.18
46.703,28.49
46.718,31.92
46.734,35.83
46.750,39.61
46.765,42.24
46.781,42.8
46.796,40.8
46.812,36.12
46.828,28.84
46.843,19.16
46.859,7.48
46.875,-5.29
46.890,-17.73
46.906,-28.18
46.921,-35.1
46.937,-37.61
46.953,-35.81
46.968,-30.69
46.984,-23.75
47.000,-16.5
47.015,-9.85
47.031,-3.91
47.046,2.0
47.062,8.98
47.078,17.95
47.093,29.15
47.109,41.98
47.125,55.17
47.140,67.21
47.156,76.8
47.171,83.2
47.187,86.28
47.203,86.36
47.218,83.91
47.234,79.36
47.250,73.01
47.265,65.15
47.281,56.22
47.296,46.77
47.312,37.39
47.328,28.41
47.343,19.76
47.359,10.97
47.375,1.54
47.390,-8.68
47.406,-19.21
47.421,-29.06
47.437,-37.27
47.453,-43.48
47.468,-48.26
47.484,-52.86
47.500,-58.52
47.515,-65.69
47.531,-73.75
47.546,-81.23
47.562,-86.46
47.578,-88.34
47.593,-86.71
47.609,-82.09
47.625,-75.3
47.640,-66.97
47.656,-57.45
47.671,-47.05
47.687,-36.42
47.703,-26.76
47.718,-19.67
47.734,-16.6
47.750,-18.3
47.765,-24.47
47.781,-33.87
47.796,-44.76
47.812,-55.49
47.828,-65.11
47.843,-73.47
47.859,-80.82
47.875,-87.48
47.890,-93.28
47.906,-97.59
47.921,-99.41
47.937,-97.61
47.953,-91.14
47.968,-79.18
47.984,-60.98
48.000,-36.03
48.015,-4.36
48.031,33.01
48.046,73.72
48.062,114.17
48.078,150.05
48.093,177.27
48.109,192.9
48.125,195.74
48.140,186.43
48.156,166.85
48.171,139.55
48.187,106.9
48.203,70.76
48.218,32.38
48.234,-7.23
48.250,-46.77
48.265,-84.36
48.281,-117.7
48.296,-144.74
48.312,-164.6
48.328,-178.31
48.343,-188.67
48.359,-199.03
48.375,-211.68
48.390,-226.39
48.406,-240.33
48.421,-249.37
48.437,-250.05
48.453,-241.3
48.468,-224.73
48.484,-203.32
48.500,-179.42
48.515,-153.44
48.531,-123.61
48.546,-87.5
48.562,-43.76
48.578,6.6
48.593,59.96
48.609,111.1
48.625,154.58
48.640,186.05
48.656,202.87
48.671,204.37
48.687,191.76
48.703,167.81
48.718,136.39
48.734,101.85
48.750,68.2
48.765,38.59
48.781,14.95
48.796,-2.2
48.812,-13.33
48.828,-19.75
48.843,-23.18
48.859,-25.2
48.875,-26.98
48.890,-28.97
48.906,-30.9
48.921,-32.18
48.937,-32.31
48.953,-31.18
48.968,-29.14
48.984,-26.76
49.000,-24.2
49.015,-21.09
49.031,-16.28
49.046,-8.28
49.062,4.14
49.078,21.33
49.093,42.35
49.109,65.11
49.125,86.86
49.140,105.29
49.156,119.18
49.171,128.64
49.187,134.63
49.203,138.03
49.218,138.94
49.234,136.69
49.250,130.43
49.265,119.97
49.281,106.22
49.296,90.94
49.312,76.03
49.328,62.66
49.343,51.0
49.359,40.46
49.375,30.39
49.390,20.51
49.406,11.08
49.421,2.67
49.437,-4.38
49.453,-10.13
49.468,-15.08
49.484,-19.85
49.500,-24.74
49.515,-29.57
49.531,-33.78
49.546,-36.65
49.562,-37.68
49.578,-36.97
49.593,-35.15
49.609,-33.18
49.625,-31.9
49.640,-31.67
49.656,-32.18
49.671,-32.57
49.687,-31.88
49.703,-29.37
49.718,-24.93
49.734,-19.02
49.750,-12.56
49.765,-6.56
49.781,-1.89
49.796,0.94
49.812,1.76
49.828,0.66
49.843,-1.99
49.859,-5.62
49.875,-9.38
49.890,-12.28
49.906,-13.44
49.921,-12.37
49.937,-9.18
49.953,-4.48
49.968,0.79
49.984,5.87
50.000,10.32
50.015,14.16
50.031,17.59
50.046,20.65
50.062,22.95
50.078,23.8
50.093,22.49
50.109,18.8
50.125,13.32
50.140,7.24
50.156,2.06
50.171,-1.04
50.187,-1.5
50.203,0.57
50.218,4.67
50.234,10.44
50.250,17.88
50.265,27.24
50.281,38.39
50.296,50.36
50.312,61.08
50.328,67.9
50.343,68.59
50.359,62.47
50.375,51.0
50.390,37.45
50.406,25.92
50.421,19.71
50.437,20.07
50.453,25.86
50.468,33.94
50.484,40.73
50.500,43.72
50.515,42.53
50.531,38.97
50.546,36.13
50.562,36.99
50.578,43.16
50.593,54.17
50.609,67.73
50.625,80.62
50.640,89.81
50.656,93.29
50.671,90.46
50.687,81.96
50.703,69.16
50.718,53.77
50.734,37.52
50.750,22.05
50.765,8.78
50.781,-1.23
50.796,-7.9
50.812,-12.28
50.828,-16.44
50.843,-22.8
50.859,-32.85
50.875,-46.04
50.890,-59.46
50.906,-68.48
50.921,-68.25
50.937,-55.48
50.953,-29.39
50.968,8.17
50.984,53.49
51.000,102.2
51.015,150.08
51.031,193.37
51.046,228.69
51.062,253.08
51.078,264.25
51.093,261.16
51.109,244.74
51.125,217.87
51.140,184.94
51.156,150.69
51.171,119.04
51.187,92.17
51.203,70.22
51.218,51.56
51.234,33.53
51.250,13.6
51.265,-9.7
51.281,-35.97
51.296,-62.93
51.312,-87.09
51.328,-105.0
51.343,-114.7
51.359,-116.37
51.375,-112.13
51.390,-104.86
51.406,-96.8
51.421,-88.76
51.437,-80.37
51.453,-71.03
51.468,-60.94
51.484,-51.31
51.500,-43.94
51.515,-40.03
51.531,-39.48
51.546,-40.8
51.562,-41.88
51.578,-41.09
51.593,-38.24
51.609,-34.53
51.625,-31.97
51.640,-32.31
51.656,-36.35
51.671,-43.8
51.687,-53.92
51.703,-66.16
51.718,-80.46
51.734,-96.85
51.750,-114.75
51.765,-132.2
51.781,-145.75
51.796,-151.27
51.812,-145.27
51.828,-126.47
51.843,-96.79
51.859,-61.15
51.875,-26.25
51.890,1.17
51.906,16.45
51.921,18.13
51.937,7.99
51.953,-10.11
51.968,-32.2
51.984,-55.55
52.000,-79.16
52.015,-103.05
52.031,-127.1
52.046,-150.25
52.062,-170.51
52.078,-185.81
52.093,-195.09
52.109,-198.6
52.125,-197.42
52.140,-192.6
52.156,-184.51
52.171,-172.87
52.187,-157.37
52.203,-138.13
52.218,-115.88
52.234,-91.2
52.250,-63.86
52.265,-32.54
52.281,4.53
52.296,48.36
52.312,98.0
52.328,150.18
52.343,199.86
52.359,241.78
52.375,272.05
52.390,289.31
52.406,294.88
52.421,291.98
52.437,284.32
52.453,274.96
52.468,265.17
52.484,254.54
52.500,241.54
52.515,224.68
52.531,203.38
52.546,178.34
52.562,151.08
52.578,123.2
52.593,95.58
52.609,68.45
52.625,41.88
52.640,16.4
52.656,-6.71
52.671,-25.95
52.687,-40.45
52.703,-50.72
52.718,-58.63
52.734,-66.71
52.750,-76.9
52.765,-89.66
52.781,-103.74
52.796,-116.71
52.812,-126.03
52.828,-130.12
52.843,-129.1
52.859,-124.66
52.875,-119.4
52.890,-115.79
52.906,-115.25
52.921,-117.89
52.937,-122.65
52.953,-127.88
52.968,-131.94
52.984,-133.6
53.000,-132.02
53.015,-126.66
53.031,-117.33
53.046,-104.25
53.062,-88.31
53.078,-70.98
53.093,-54.08
53.109,-39.21
53.125,-27.23
53.140,-18.09
53.156,-11.08
53.171,-5.37
53.187,-0.51
53.203,3.36
53.218,5.74
53.234,6.03
53.250,3.91
53.265,-0.53
53.281,-6.78
53.296,-14.21
53.312,-22.17
53.328,-30.13
53.343,-37.88
53.359,-45.37
53.375,-52.58
53.390,-59.23
53.406,-64.5
53.421,-67.09
53.437,-65.59
53.453,-59.1
53.468,-47.89
53.484,-33.59
53.500,-18.84
53.515,-6.32
53.531,2.05
53.546,5.65
53.562,4.94
53.578,0.95
53.593,-5.37
53.609,-13.36
53.625,-22.37
53.640,-31.4
53.656,-38.81
53.671,-42.68
53.687,-41.41
53.703,-34.44
53.718,-22.59
53.734,-7.85
53.750,7.41
53.765,21.23
53.781,32.68
53.796,41.86
53.812,49.37
53.828,55.85
53.843,61.39
53.859,65.53
53.875,67.7
53.890,67.7
53.906,65.96
53.921,63.49
53.937,61.25
53.953,59.76
53.968,58.82
53.984,57.73
54.000,55.83
54.015,53.06
54.031,50.19
54.046,48.61
54.062,49.67
54.078,54.08
54.093,61.5
54.109,70.63
54.125,79.67
54.140,87.0
54.156,91.69
54.171,93.68
54.187,93.51
54.203,91.83
54.218,89.06
54.234,85.18
54.250,80.0
54.265,73.53
54.281,66.23
54.296,58.88
54.312,52.27
54.328,46.75
54.343,42.15
54.359,37.89
54.375,33.4
54.390,28.44
54.406,23.22
54.421,18.21
54.437,13.79
54.453,9.97
54.468,6.24
54.484,1.85
54.500,-3.89
54.515,-11.18
54.531,-19.59
54.546,-28.16
54.562,-35.72
54.578,-41.31
54.593,-44.42
54.609,-45.21
54.625,-44.25
54.640,-42.28
54.656,-39.88
54.671,-37.22
54.687,-34.19
54.703,-30.5
54.718,-26.09
54.734,-21.25
54.750,-16.68
54.765,-13.21
54.781,-11.58
54.796,-12.16
54.812,-14.86
54.828,-19.23
54.843,-24.51
54.859,-29.82
54.875,-34.15
54.890,-36.42
54.906,-35.53
54.921,-30.76
54.937,-22.09
54.953,-10.36
54.968,2.75
54.984,15.25
55.000,25.26
55.015,31.46
55.031,33.25
55.046,30.7
55.062,24.41
55.078,15.32
55.093,4.68
55.109,-6.16
55.125,-15.93
55.140,-23.7
55.156,-29.1
55.171,-32.34
55.187,-34.08
55.203,-35.17
55.218,-36.42
55.234,-38.34
55.250,-40.99
55.265,-43.87
55.281,-45.94
55.296,-45.84
55.312,-42.41
55.328,-35.27
55.343,-25.05
55.359,-13.4
55.375,-2.3
55.390,6.62
55.406,12.7
55.421,16.28
55.437,18.43
55.453,20.31
55.468,22.65
55.484,25.46
55.500,28.06
55.515,29.3
55.531,27.99
55.546,23.3
55.562,15.18
55.578,4.66
55.593,-6.45
55.609,-16.06
55.625,-22.53
55.640,-25.29
55.656,-24.93
55.671,-22.65
55.687,-19.61
55.703,-16.33
55.718,-12.57
55.734,-7.84
55.750,-1.82
55.765,5.23
55.781,12.56
55.796,19.31
55.812,24.87
55.828,29.1
55.843,32.15
55.859,34.2
55.875,35.16
55.890,34.72
55.906,32.56
55.921,28.62
55.937,23.32
55.953,17.36
55.968,11.48
55.984,6.01
56.000,0.81
56.015,-4.6
56.031,-10.59
56.046,-17.05
56.062,-23.28
56.078,-28.28
56.093,-31.3
56.109,-32.33
56.125,-32.18
56.140,-32.07
56.156,-33.05
56.171,-35.37
56.187,-38.44
56.203,-41.21
56.218,-42.8
56.234,-43.02
56.250,-42.4
56.265,-41.71
56.281,-41.35
56.296,-40.92
56.312,-39.29
56.328,-35.05
56.343,-27.23
56.359,-15.81
56.375,-1.69
56.390,13.71
56.406,29.03
56.421,43.41
56.437,56.63
56.453,68.84
56.468,80.36
56.484,91.26
56.500,101.55
56.515,111.26
56.531,120.72
56.546,130.51
56.562,141.13
56.578,152.51
56.593,163.68
56.609,172.83
56.625,177.83
56.640,177.02
56.656,169.86
56.671,157.13
56.687,140.6
56.703,122.33
56.718,104.0
56.734,86.36
56.750,69.35
56.765,52.41
56.781,34.98
56.796,17.06
56.812,-0.77
56.828,-17.56
56.843,-32.6
56.859,-45.92
56.875,-58.4
56.890,-71.23
56.906,-85.11
56.921,-99.55
56.937,-113.09
56.953,-124.0
56.968,-131.36
56.984,-135.54
57.000,-137.93
57.015,-139.87
57.031,-141.84
57.046,-143.18
57.062,-142.56
57.078,-139.14
57.093,-133.19
57.109,-126.14
57.125,-119.88
57.140,-115.91
57.156,-114.74
57.171,-115.93
57.187,-118.49
57.203,-121.32
57.218,-123.43
57.234,-124.0
57.250,-122.24
57.265,-117.29
57.281,-108.28
57.296,-94.39
57.312,-75.16
57.328,-50.79
57.343,-22.27
57.359,8.56
57.375,39.23
57.390,67.12
57.406,89.95
57.421,106.1
57.437,114.85
57.453,116.28
57.468,111.19
57.484,100.95
57.500,87.15
57.515,71.43
57.531,55.32
57.546,40.06
57.562,26.77
57.578,16.35
57.593,9.35
57.609,5.83
57.625,5.14
57.640,6.1
57.656,7.4
57.671,8.18
57.687,8.39
57.703,8.57
57.718,9.38
57.734,10.94
57.750,12.69
57.765,13.72
57.781,13.45
57.796,12.15
57.812,10.84
57.828,10.63
57.843,12.05
57.859,14.7
57.875,17.54
57.890,19.61
57.906,20.63
57.921,21.1
57.937,21.96
57.953,23.85
57.968,26.72
57.984,29.85
58.000,32.26
58.015,33.25
58.031,32.68
58.046,30.95
58.062,28.6
58.078,26.12
58.093,23.58
58.109,20.7
58.125,17.04
58.140,12.19
58.156,5.95
58.171,-1.53
58.187,-9.92
58.203,-18.86
58.218,-28.01
58.234,-37.1
58.250,-45.77
58.265,-53.44
58.281,-59.33
58.296,-62.74
58.312,-63.29
58.328,-61.25
58.343,-57.43
58.359,-52.79
58.375,-47.93
58.390,-42.82
58.406,-36.87
58.421,-29.32
58.437,-19.76
58.453,-8.47
58.468,3.55
58.484,14.82
58.500,23.81
58.515,29.4
58.531,31.2
58.546,29.74
58.562,26.23
58.578,22.22
58.593,19.19
58.609,18.05
58.625,19.09
58.640,22.05
58.656,26.42
58.671,31.78
58.687,37.95
58.703,44.94
58.718,52.79
58.734,61.48
58.750,70.83
58.765,80.66
58.781,90.76
58.796,100.89
58.812,110.75
58.828,119.91
58.843,127.95
58.859,134.46
58.875,139.28
58.890,142.47
58.906,144.23
58.921,144.69
58.937,143.65
58.953,140.53
58.968,134.4
58.984,124.26
59.000,109.37
59.015,89.49
59.031,64.98
59.046,36.77
59.062,6.13
59.078,-25.52
59.093,-56.73
59.109,-86.12
59.125,-112.27
59.140,-133.69
59.156,-149.05
59.171,-157.35
59.187,-158.32
59.203,-152.64
59.218,-141.94
59.234,-128.36
59.250,-114.13
59.265,-100.97
59.281,-89.78
59.296,-80.74
59.312,-73.56
59.328,-67.89
59.343,-63.44
59.359,-60.14
59.375,-57.91
59.390,-56.55
59.406,-55.78
59.421,-55.26
59.437,-54.68
59.453,-53.85
59.468,-52.63
59.484,-51.04
59.500,-49.21
59.515,-47.26
59.531,-45.17
59.546,-42.61
59.562,-38.99
59.578,-33.77
59.593,-26.87
59.609,-19.03
59.625,-11.75
59.640,-6.65
59.656,-4.57
59.671,-4.92
59.687,-5.77
59.703,-4.69
59.718,0.04
59.734,8.44
59.750,18.78
59.765,28.14
59.781,33.63
59.796,33.34
59.812,26.89
59.828,15.4
59.843,1.19
59.859,-12.9
59.875,-24.08
59.890,-30.21
59.906,-30.25
59.921,-24.37
59.937,-13.75
59.953,-0.07
59.968,15.19
59.984,30.85
