timestamp,value
00.000,-68.56
00.015,-55.61
00.031,-45.4
00.046,-38.38
00.062,-34.25
00.078,-31.9
00.093,-29.93
00.109,-27.22
00.125,-23.52
00.140,-19.49
00.156,-16.21
00.171,-14.51
00.187,-14.56
00.203,-15.88
00.218,-17.85
00.234,-20.25
00.250,-23.43
00.265,-28.08
00.281,-34.68
00.296,-43.2
00.312,-53.19
00.328,-64.24
00.343,-76.53
00.359,-90.96
00.375,-108.66
00.390,-130.17
00.406,-154.61
00.421,-179.52
00.437,-201.35
00.453,-216.7
00.468,-223.59
00.484,-222.27
00.500,-215.05
00.515,-205.18
00.531,-195.31
00.546,-186.46
00.562,-177.88
00.578,-167.73
00.593,-154.25
00.609,-136.52
00.625,-114.77
00.640,-90.11
00.656,-64.16
00.671,-38.63
00.687,-15.16
00.703,4.8
00.718,20.01
00.734,29.58
00.750,33.23
00.765,31.35
00.781,25.09
00.796,16.1
00.812,6.15
00.828,-3.25
00.843,-11.18
00.859,-17.29
00.875,-21.6
00.890,-24.29
00.906,-25.54
00.921,-25.54
00.937,-24.64
00.953,-23.4
00.968,-22.45
00.984,-22.25
01.000,-22.98
01.015,-24.53
01.031,-26.75
01.046,-29.73
01.062,-33.83
01.078,-39.52
01.093,-47.07
01.109,-56.39
01.125,-67.04
01.140,-78.42
01.156,-89.89
01.171,-100.85
01.187,-110.62
01.203,-118.34
01.218,-123.02
01.234,-123.84
01.250,-120.38
01.265,-112.8
01.281,-101.86
01.296,-88.59
01.312,-73.92
01.328,-58.51
01.343,-42.63
01.359,-26.44
01.375,-10.2
01.390,5.49
01.406,19.8
01.421,31.88
01.437,41.1
01.453,47.27
01.468,50.55
01.484,51.31
01.500,49.98
01.515,47.08
01.531,43.27
01.546,39.29
01.562,35.8
01.578,33.07
01.593,30.77
01.609,28.12
01.625,24.24
01.640,18.65
01.656,11.54
01.671,3.75
01.687,-3.67
01.703,-10.04
01.718,-15.46
01.734,-20.79
01.750,-27.28
01.765,-35.98
01.781,-47.31
01.796,-60.91
01.812,-75.86
01.828,-90.99
01.843,-105.05
01.859,-116.86
01.875,-125.34
01.890,-129.58
01.906,-129.04
01.921,-123.67
01.937,-114.01
01.953,-101.03
01.968,-85.79
01.984,-69.17
02.000,-51.67
02.015,-33.44
02.031,-14.38
02.046,5.69
02.062,26.93
02.078,49.39
02.093,72.93
02.109,97.12
02.125,121.17
02.140,143.99
02.156,164.31
02.171,180.73
02.187,191.83
02.203,196.39
02.218,193.65
02.234,183.75
02.250,168.21
02.265,149.88
02.281,132.3
02.296,118.64
02.312,110.52
02.328,107.53
02.343,107.46
02.359,107.44
02.375,105.0
02.390,98.77
02.406,88.46
02.421,74.3
02.437,56.65
02.453,35.94
02.468,13.13
02.484,-10.06
02.500,-31.2
02.515,-47.98
02.531,-59.09
02.546,-64.95
02.562,-67.56
02.578,-69.82
02.593,-74.51
02.609,-83.34
02.625,-96.45
02.640,-112.26
02.656,-127.88
02.671,-139.99
02.687,-146.22
02.703,-146.19
02.718,-141.95
02.734,-136.9
02.750,-133.81
02.765,-132.93
02.781,-131.49
02.796,-125.12
02.812,-110.55
02.828,-87.73
02.843,-60.09
02.859,-32.64
02.875,-9.25
02.890,9.26
02.906,24.85
02.921,40.4
02.937,57.48
02.953,75.42
02.968,92.02
02.984,105.26
03.000,114.52
03.015,120.73
03.031,125.5
03.046,130.06
03.062,134.82
03.078,139.79
03.093,145.14
03.109,151.55
03.125,160.18
03.140,171.97
03.156,187.23
03.171,205.4
03.187,225.11
03.203,244.52
03.218,261.61
03.234,274.48
03.250,281.63
03.265,282.25
03.281,276.31
03.296,264.66
03.312,248.78
03.328,230.41
03.343,211.16
03.359,192.17
03.375,173.98
03.390,156.64
03.406,139.94
03.421,123.61
03.437,107.41
03.453,91.17
03.468,74.66
03.484,57.68
03.500,40.15
03.515,22.29
03.531,4.64
03.546,-12.0
03.562,-26.89
03.578,-39.52
03.593,-49.8
03.609,-58.05
03.625,-64.85
03.640,-70.94
03.656,-76.89
03.671,-83.03
03.687,-89.19
03.703,-94.81
03.718,-98.97
03.734,-100.78
03.750,-99.74
03.765,-95.92
03.781,-89.91
03.796,-82.6
03.812,-74.91
03.828,-67.55
03.843,-61.0
03.859,-55.57
03.875,-51.44
03.890,-48.68
03.906,-47.17
03.921,-46.53
03.937,-46.22
03.953,-45.7
03.968,-44.67
03.984,-43.19
04.000,-41.68
04.015,-40.78
04.031,-41.08
04.046,-42.89
04.062,-46.16
04.078,-50.51
04.093,-55.39
04.109,-60.27
04.125,-64.81
04.140,-68.97
04.156,-72.96
04.171,-77.25
04.187,-82.35
04.203,-88.67
04.218,-96.26
04.234,-104.77
04.250,-113.35
04.265,-120.83
04.281,-125.92
04.296,-127.53
04.312,-125.08
04.328,-118.53
04.343,-108.52
04.359,-96.06
04.375,-82.29
04.390,-68.28
04.406,-54.83
04.421,-42.53
04.437,-31.74
04.453,-22.77
04.468,-15.79
04.484,-10.87
04.500,-7.74
04.515,-5.85
04.531,-4.42
04.546,-2.61
04.562,0.24
04.578,4.48
04.593,9.95
04.609,16.23
04.625,22.64
04.640,28.54
04.656,33.51
04.671,37.25
04.687,39.58
04.703,40.26
04.718,39.1
04.734,35.93
04.750,30.79
04.765,23.9
04.781,15.67
04.796,6.68
04.812,-2.41
04.828,-10.93
04.843,-18.3
04.859,-24.1
04.875,-28.11
04.890,-30.15
04.906,-30.08
04.921,-27.76
04.937,-23.28
04.953,-17.2
04.968,-10.7
04.984,-5.46
05.000,-3.18
05.015,-4.79
05.031,-10.05
05.046,-17.45
05.062,-24.83
05.078,-30.27
05.093,-32.88
05.109,-32.94
05.125,-31.69
05.140,-30.68
05.156,-31.2
05.171,-33.94
05.187,-38.76
05.203,-44.66
05.218,-49.94
05.234,-52.47
05.250,-50.11
05.265,-41.45
05.281,-26.48
05.296,-6.98
05.312,13.85
05.328,32.31
05.343,45.41
05.359,51.69
05.375,51.46
05.390,46.37
05.406,38.71
05.421,30.67
05.437,24.01
05.453,19.92
05.468,18.99
05.484,21.11
05.500,25.37
05.515,30.24
05.531,34.03
05.546,35.46
05.562,34.22
05.578,31.02
05.593,27.19
05.609,24.02
05.625,22.21
05.640,21.88
05.656,22.86
05.671,24.99
05.687,28.25
05.703,32.66
05.718,38.0
05.734,43.56
05.750,48.25
05.765,50.92
05.781,50.88
05.796,48.34
05.812,44.33
05.828,40.23
05.843,37.07
05.859,34.9
05.875,32.76
05.890,29.33
05.906,23.86
05.921,16.82
05.937,9.71
05.953,4.16
05.968,0.84
05.984,-1.27
06.000,-4.44
06.015,-10.8
06.031,-20.86
06.046,-32.64
06.062,-42.48
06.078,-46.52
06.093,-42.55
06.109,-30.78
06.125,-13.67
06.140,5.24
06.156,22.6
06.171,35.96
06.187,43.9
06.203,45.95
06.218,42.53
06.234,35.06
06.250,25.84
06.265,17.6
06.281,12.55
06.296,11.55
06.312,13.63
06.328,16.42
06.343,17.27
06.359,14.5
06.375,7.99
06.390,-0.93
06.406,-10.42
06.421,-19.2
06.437,-27.0
06.453,-34.41
06.468,-42.2
06.484,-50.64
06.500,-59.28
06.515,-67.27
06.531,-74.08
06.546,-80.0
06.562,-86.07
06.578,-92.83
06.593,-99.67
06.609,-104.69
06.625,-105.39
06.640,-99.72
06.656,-86.85
06.671,-67.52
06.687,-43.51
06.703,-16.88
06.718,10.82
06.734,38.12
06.750,62.89
06.765,82.1
06.781,92.45
06.796,92.34
06.812,82.53
06.828,66.31
06.843,48.04
06.859,32.58
06.875,23.28
06.890,20.94
06.906,23.68
06.921,27.95
06.937,31.08
06.953,30.92
06.968,26.41
06.984,16.81
07.000,4.69
07.015,-5.75
07.031,-10.48
07.046,-7.79
07.062,1.59
07.078,17.91
07.093,40.26
07.109,66.25
07.125,89.63
07.140,106.94
07.156,116.64
07.171,119.67
07.187,118.74
07.203,118.61
07.218,128.87
07.234,155.97
07.250,199.57
07.265,248.5
07.281,293.62
07.296,329.09
07.312,354.17
07.328,370.86
07.343,382.54
07.359,397.17
07.375,418.58
07.390,444.45
07.406,462.82
07.421,468.29
07.437,460.88
07.453,445.22
07.468,425.95
07.484,373.25
07.500,273.14
07.515,132.45
07.531,8.08
07.546,-87.73
07.562,-157.33
07.578,-215.18
07.593,-265.32
07.609,-308.51
07.625,-343.65
07.640,-363.92
07.656,-365.32
07.671,-349.66
07.687,-329.49
07.703,-312.78
07.718,-303.62
07.734,-301.55
07.750,-304.85
07.765,-310.73
07.781,-312.36
07.796,-305.31
07.812,-289.36
07.828,-271.67
07.843,-255.03
07.859,-239.13
07.875,-221.47
07.890,-200.95
07.906,-178.21
07.921,-153.01
07.937,-126.91
07.953,-103.16
07.968,-87.74
07.984,-81.78
08.000,-82.57
08.015,-84.6
08.031,-82.78
08.046,-73.77
08.062,-55.91
08.078,-30.93
08.093,-3.46
08.109,19.84
08.125,35.51
08.140,43.65
08.156,47.08
08.171,48.9
08.187,50.88
08.203,53.13
08.218,54.17
08.234,52.06
08.250,45.05
08.265,32.9
08.281,16.24
08.296,-3.79
08.312,-25.77
08.328,-47.36
08.343,-65.21
08.359,-75.76
08.375,-76.76
08.390,-68.51
08.406,-54.13
08.421,-38.3
08.437,-25.26
08.453,-17.19
08.468,-13.67
08.484,-12.49
08.500,-11.07
08.515,-7.59
08.531,-1.34
08.546,7.61
08.562,18.86
08.578,32.02
08.593,46.54
08.609,61.53
08.625,75.71
08.640,87.58
08.656,95.57
08.671,98.6
08.687,96.48
08.703,89.96
08.718,80.53
08.734,69.94
08.750,59.51
08.765,49.78
08.781,40.38
08.796,30.45
08.812,19.19
08.828,6.38
08.843,-7.48
08.859,-21.31
08.875,-34.03
08.890,-44.92
08.906,-53.74
08.921,-60.48
08.937,-64.96
08.953,-66.64
08.968,-64.76
08.984,-58.81
09.000,-48.87
09.015,-35.76
09.031,-20.78
09.046,-5.19
09.062,10.04
09.078,24.52
09.093,38.36
09.109,52.01
09.125,66.06
09.140,80.92
09.156,96.28
09.171,110.9
09.187,122.67
09.203,129.27
09.218,129.18
09.234,122.52
09.250,111.29
09.265,98.61
09.281,87.54
09.296,80.04
09.312,76.42
09.328,75.73
09.343,76.27
09.359,76.27
09.375,74.13
09.390,68.53
09.406,58.53
09.421,43.93
09.437,25.7
09.453,5.93
09.468,-12.69
09.484,-27.85
09.500,-38.46
09.515,-44.92
09.531,-48.61
09.546,-51.03
09.562,-52.94
09.578,-54.13
09.593,-53.85
09.609,-51.45
09.625,-47.02
09.640,-41.33
09.656,-35.46
09.671,-30.13
09.687,-25.26
09.703,-20.17
09.718,-14.14
09.734,-7.15
09.750,0.06
09.765,6.38
09.781,11.06
09.796,14.27
09.812,16.87
09.828,19.79
09.843,23.06
09.859,25.68
09.875,25.98
09.890,22.88
09.906,16.71
09.921,9.33
09.937,3.25
09.953,0.16
09.968,-0.22
09.984,-0.19
10.000,-2.99
10.015,-11.25
10.031,-25.73
10.046,-45.02
10.062,-66.3
10.078,-86.49
10.093,-103.32
10.109,-115.75
10.125,-123.8
10.140,-127.91
10.156,-128.62
10.171,-126.28
10.187,-121.2
10.203,-113.81
10.218,-104.73
10.234,-94.72
10.250,-84.43
10.265,-74.41
10.281,-65.04
10.296,-56.65
10.312,-49.49
10.328,-43.68
10.343,-39.09
10.359,-35.37
10.375,-32.06
10.390,-28.73
10.406,-25.2
10.421,-21.55
10.437,-18.18
10.453,-15.57
10.468,-14.16
10.484,-14.2
10.500,-15.7
10.515,-18.53
10.531,-22.52
10.546,-27.47
10.562,-33.1
10.578,-39.01
10.593,-44.73
10.609,-49.84
10.625,-54.16
10.640,-57.78
10.656,-60.99
10.671,-64.08
10.687,-67.3
10.703,-70.86
10.718,-75.03
10.734,-80.22
10.750,-86.72
10.765,-94.37
10.781,-102.23
10.796,-108.52
10.812,-111.15
10.828,-108.27
10.843,-98.82
10.859,-82.67
10.875,-60.38
10.890,-32.89
10.906,-1.39
10.921,32.64
10.937,67.28
10.953,100.23
10.968,129.27
10.984,152.8
11.000,170.31
11.015,182.58
11.031,191.24
11.046,198.09
11.062,204.46
11.078,210.92
11.093,217.38
11.109,223.4
11.125,228.52
11.140,232.4
11.156,234.79
11.171,235.53
11.187,234.51
11.203,231.75
11.218,227.37
11.234,221.49
11.250,214.17
11.265,205.37
11.281,195.01
11.296,182.96
11.312,169.18
11.328,153.63
11.343,136.34
11.359,117.5
11.375,97.6
11.390,77.45
11.406,58.09
11.421,40.48
11.437,25.22
11.453,12.54
11.468,2.49
11.484,-4.73
11.500,-8.74
11.515,-9.21
11.531,-6.25
11.546,-0.67
11.562,6.21
11.578,13.14
11.593,19.41
11.609,25.12
11.625,30.88
11.640,37.15
11.656,43.85
11.671,50.29
11.687,55.51
11.703,58.69
11.718,59.41
11.734,57.53
11.750,53.0
11.765,45.56
11.781,34.71
11.796,19.87
11.812,0.65
11.828,-22.87
11.843,-49.91
11.859,-79.03
11.875,-108.19
11.890,-134.98
11.906,-156.98
11.921,-172.18
11.937,-179.35
11.953,-178.46
11.968,-170.82
11.984,-158.98
12.000,-146.52
12.015,-137.44
12.031,-135.41
12.046,-142.74
12.062,-159.39
12.078,-182.61
12.093,-207.63
12.109,-229.27
12.125,-243.91
12.140,-250.87
12.156,-252.22
12.171,-251.22
12.187,-250.03
12.203,-248.16
12.218,-242.51
12.234,-228.94
12.250,-204.59
12.265,-169.43
12.281,-126.62
12.296,-81.38
12.312,-39.24
12.328,-4.68
12.343,19.52
12.359,32.21
12.375,33.37
12.390,23.85
12.406,5.2
12.421,-20.13
12.437,-48.8
12.453,-76.79
12.468,-100.07
12.484,-115.5
12.500,-121.68
12.515,-119.12
12.531,-109.73
12.546,-95.7
12.562,-78.28
12.578,-57.51
12.593,-32.8
12.609,-4.27
12.625,26.38
12.640,55.8
12.656,80.12
12.671,96.43
12.687,103.92
12.703,104.17
12.718,100.19
12.734,95.26
12.750,91.63
12.765,90.18
12.781,90.54
12.796,91.85
12.812,93.31
12.828,94.62
12.843,95.92
12.859,97.4
12.875,98.87
12.890,99.6
12.906,98.55
12.921,94.98
12.937,89.1
12.953,82.28
12.968,76.59
12.984,73.71
13.000,73.98
13.015,76.03
13.031,77.15
13.046,74.57
13.062,66.65
13.078,53.75
13.093,38.05
13.109,22.56
13.125,9.94
13.140,1.36
13.156,-3.77
13.171,-7.5
13.187,-12.48
13.203,-21.02
13.218,-34.28
13.234,-51.92
13.250,-72.15
13.265,-92.19
13.281,-109.02
13.296,-120.34
13.312,-125.35
13.328,-125.11
13.343,-122.34
13.359,-120.56
13.375,-122.86
13.390,-131.02
13.406,-145.0
13.421,-163.28
13.437,-183.52
13.453,-203.32
13.468,-220.72
13.484,-234.44
13.500,-243.85
13.515,-248.85
13.531,-249.83
13.546,-247.42
13.562,-242.38
13.578,-235.49
13.593,-227.38
13.609,-218.54
13.625,-209.31
13.640,-199.97
13.656,-190.84
13.671,-182.43
13.687,-175.24
13.703,-169.56
13.718,-165.17
13.734,-161.12
13.750,-155.97
13.765,-148.14
13.781,-136.55
13.796,-120.94
13.812,-101.99
13.828,-80.98
13.843,-59.34
13.859,-38.34
13.875,-19.11
13.890,-2.78
13.906,9.37
13.921,16.0
13.937,16.16
13.953,9.86
13.968,-1.4
13.984,-14.6
14.000,-25.82
14.015,-31.66
14.031,-30.75
14.046,-24.71
14.062,-17.89
14.078,-15.75
14.093,-22.46
14.109,-38.83
14.125,-61.65
14.140,-84.62
14.156,-100.66
14.171,-104.36
14.187,-93.69
14.203,-70.39
14.218,-39.34
14.234,-7.1
14.250,19.85
14.265,36.67
14.281,41.49
14.296,35.87
14.312,24.27
14.328,12.49
14.343,5.7
14.359,6.98
14.375,16.58
14.390,32.62
14.406,52.37
14.421,73.64
14.437,95.38
14.453,117.5
14.468,140.06
14.484,162.06
14.500,181.07
14.515,193.45
14.531,195.65
14.546,185.91
14.562,165.6
14.578,139.42
14.593,114.25
14.609,97.04
14.625,92.52
14.640,101.79
14.656,122.28
14.671,149.17
14.687,177.14
14.703,202.02
14.718,221.5
14.734,234.96
14.750,243.0
14.765,247.23
14.781,250.29
14.796,255.53
14.812,265.99
14.828,282.6
14.843,302.72
14.859,320.13
14.875,326.82
14.890,316.27
14.906,286.49
14.921,241.28
14.937,188.82
14.953,138.46
14.968,97.17
14.984,67.35
15.000,46.98
15.015,31.5
15.031,16.38
15.046,-1.0
15.062,-20.69
15.078,-40.8
15.093,-58.7
15.109,-71.94
15.125,-78.79
15.140,-78.26
15.156,-69.98
15.171,-54.06
15.187,-31.51
15.203,-4.7
15.218,22.52
15.234,45.36
15.250,59.51
15.265,62.61
15.281,55.27
15.296,40.85
15.312,24.11
15.328,9.46
15.343,-0.49
15.359,-5.41
15.375,-6.66
15.390,-6.17
15.406,-5.51
15.421,-5.38
15.437,-5.74
15.453,-6.25
15.468,-6.66
15.484,-7.02
15.500,-7.64
15.515,-8.8
15.531,-10.58
15.546,-12.8
15.562,-15.07
15.578,-17.03
15.593,-18.53
15.609,-19.77
15.625,-21.22
15.640,-23.48
15.656,-26.89
15.671,-31.34
15.687,-36.17
15.703,-40.39
15.718,-42.87
15.734,-42.63
15.750,-38.79
15.765,-30.53
15.781,-17.11
15.796,1.84
15.812,25.98
15.828,54.04
15.843,83.94
15.859,113.2
15.875,139.3
15.890,159.91
15.906,172.76
15.921,175.57
15.937,166.28
15.953,143.55
15.968,107.44
15.984,59.83
16.000,4.28
16.015,-54.59
16.031,-112.09
16.046,-164.32
16.062,-208.78
16.078,-244.35
16.093,-271.04
16.109,-289.31
16.125,-299.63
16.140,-302.23
16.156,-297.35
16.171,-285.78
16.187,-269.41
16.203,-251.29
16.218,-234.98
16.234,-223.5
16.250,-218.23
16.265,-218.4
16.281,-221.48
16.296,-224.47
16.312,-225.21
16.328,-223.14
16.343,-218.96
16.359,-213.46
16.375,-206.23
16.390,-195.1
16.406,-176.84
16.421,-148.72
16.437,-110.08
16.453,-63.02
16.468,-11.58
16.484,39.99
16.500,88.75
16.515,133.41
16.531,173.45
16.546,207.72
16.562,233.88
16.578,249.07
16.593,251.62
16.609,242.54
16.625,225.72
16.640,206.71
16.656,190.57
16.671,180.09
16.687,175.31
16.703,174.34
16.718,174.87
16.734,175.38
16.750,175.3
16.765,174.49
16.781,172.42
16.796,168.01
16.812,160.08
16.828,148.17
16.843,133.02
16.859,116.62
16.875,101.42
16.890,89.22
16.906,80.48
16.921,74.23
16.937,68.8
16.953,62.69
16.968,55.35
16.984,47.31
17.000,39.85
17.015,34.29
17.031,31.29
17.046,30.48
17.062,30.62
17.078,30.16
17.093,28.06
17.109,24.46
17.125,20.87
17.140,19.7
17.156,23.26
17.171,32.71
17.187,47.39
17.203,64.98
17.218,82.34
17.234,96.66
17.250,106.32
17.265,111.03
17.281,111.39
17.296,108.14
17.312,101.79
17.328,92.55
17.343,80.56
17.359,66.2
17.375,50.09
17.390,32.99
17.406,15.62
17.421,-1.36
17.437,-17.36
17.453,-31.82
17.468,-44.24
17.484,-54.45
17.500,-62.66
17.515,-69.24
17.531,-74.52
17.546,-78.47
17.562,-80.71
17.578,-80.88
17.593,-79.12
17.609,-76.33
17.625,-74.18
17.640,-74.44
17.656,-78.22
17.671,-85.32
17.687,-93.95
17.703,-101.05
17.718,-103.12
17.734,-97.18
17.750,-81.47
17.765,-55.78
17.781,-21.35
17.796,19.24
17.812,62.37
17.828,103.59
17.843,138.09
17.859,161.55
17.875,171.16
17.890,166.57
17.906,150.07
17.921,125.76
17.937,98.12
17.953,70.32
17.968,43.19
17.984,15.34
18.000,-15.79
18.015,-51.83
18.031,-91.94
18.046,-132.23
18.062,-166.21
18.078,-186.64
18.093,-187.89
18.109,-167.7
18.125,-128.04
18.140,-74.47
18.156,-14.34
18.171,44.94
18.187,97.36
18.203,139.23
18.218,169.29
18.234,187.96
18.250,196.52
18.265,196.55
18.281,189.48
18.296,177.03
18.312,161.15
18.328,144.03
18.343,127.99
18.359,115.41
18.375,106.9
18.390,100.94
18.406,94.3
18.421,83.07
18.437,65.03
18.453,39.95
18.468,9.33
18.484,-23.76
18.500,-53.99
18.515,-76.13
18.531,-85.68
18.546,-79.64
18.562,-57.65
18.578,-20.51
18.593,28.41
18.609,83.15
18.625,136.81
18.640,185.35
18.656,226.12
18.671,257.92
18.687,280.64
18.703,293.86
18.718,299.59
18.734,299.88
18.750,295.73
18.765,287.6
18.781,278.21
18.796,268.98
18.812,259.24
18.828,246.25
18.843,225.23
18.859,195.41
18.875,158.7
18.890,118.86
18.906,63.5
18.921,-9.29
18.937,-92.3
18.953,-172.29
18.968,-227.89
18.984,-262.16
19.000,-282.39
19.015,-293.75
19.031,-300.48
19.046,-302.39
19.062,-295.7
19.078,-278.54
19.093,-252.24
19.109,-220.9
19.125,-191.11
19.140,-166.32
19.156,-148.71
19.171,-140.34
19.187,-141.75
19.203,-149.85
19.218,-160.8
19.234,-171.3
19.250,-179.79
19.265,-188.01
19.281,-197.17
19.296,-208.31
19.312,-221.73
19.328,-234.69
19.343,-241.03
19.359,-235.01
19.375,-214.06
19.390,-179.98
19.406,-138.46
19.421,-94.79
19.437,-51.17
19.453,-11.87
19.468,18.99
19.484,39.6
19.500,50.64
19.515,54.28
19.531,53.07
19.546,48.9
19.562,43.56
19.578,37.71
19.593,30.24
19.609,19.84
19.625,5.97
19.640,-10.76
19.656,-28.76
19.671,-45.43
19.687,-58.05
19.703,-64.48
19.718,-64.27
19.734,-58.82
19.750,-49.93
19.765,-39.23
19.781,-27.87
19.796,-16.76
19.812,-6.85
19.828,0.76
19.843,5.72
19.859,7.64
19.875,6.73
19.890,4.43
19.906,2.63
19.921,2.88
19.937,5.43
19.953,9.17
19.968,12.2
19.984,12.56
20.000,8.99
20.015,1.16
20.031,-8.85
20.046,-18.0
20.062,-23.32
20.078,-23.04
20.093,-17.11
20.109,-6.73
20.125,6.35
20.140,20.44
20.156,33.99
20.171,46.2
20.187,56.83
20.203,66.03
20.218,73.99
20.234,80.71
20.250,85.92
20.265,89.25
20.281,90.34
20.296,88.87
20.312,84.79
20.328,78.41
20.343,70.21
20.359,60.66
20.375,50.02
20.390,38.47
20.406,26.22
20.421,13.55
20.437,-0.01
20.453,-14.87
20.468,-31.29
20.484,-49.12
20.500,-67.45
20.515,-84.62
20.531,-98.73
20.546,-108.7
20.562,-110.02
20.578,-102.2
20.593,-87.09
20.609,-67.79
20.625,-47.42
20.640,-28.21
20.656,-11.28
20.671,2.92
20.687,13.93
20.703,21.12
20.718,23.26
20.734,20.12
20.750,12.92
20.765,4.03
20.781,-3.92
20.796,-9.01
20.812,-10.63
20.828,-9.37
20.843,-6.46
20.859,-3.57
20.875,-1.7
20.890,-1.27
20.906,-2.54
20.921,-5.85
20.937,-11.58
20.953,-19.81
20.968,-30.0
20.984,-40.86
21.000,-51.17
21.015,-59.97
21.031,-67.0
21.046,-72.96
21.062,-79.15
21.078,-87.04
21.093,-97.8
21.109,-111.94
21.125,-129.1
21.140,-148.13
21.156,-166.85
21.171,-182.32
21.187,-191.52
21.203,-192.34
21.218,-184.43
21.234,-169.56
21.250,-151.11
21.265,-132.86
21.281,-117.8
21.296,-107.26
21.312,-100.88
21.328,-97.34
21.343,-95.21
21.359,-93.43
21.375,-91.28
21.390,-88.12
21.406,-83.26
21.421,-76.03
21.437,-66.11
21.453,-53.59
21.468,-38.72
21.484,-21.42
21.500,-0.96
21.515,23.68
21.531,52.74
21.546,84.79
21.562,116.47
21.578,143.63
21.593,163.11
21.609,174.38
21.625,179.9
21.640,183.85
21.656,189.9
21.671,199.19
21.687,209.56
21.703,216.64
21.718,215.91
21.734,204.92
21.750,184.23
21.765,157.0
21.781,127.42
21.796,99.03
21.812,73.68
21.828,51.55
21.843,31.81
21.859,13.43
21.875,-4.13
21.890,-20.53
21.906,-34.58
21.921,-44.38
21.937,-47.64
21.953,-42.25
21.968,-27.22
21.984,-3.44
22.000,25.98
22.015,56.18
22.031,81.75
22.046,98.32
22.062,103.8
22.078,98.88
22.093,86.88
22.109,73.12
22.125,63.97
22.140,65.35
22.156,80.99
22.171,110.87
22.187,150.68
22.203,192.93
22.218,229.63
22.234,255.43
22.250,269.75
22.265,276.63
22.281,282.29
22.296,291.69
22.312,306.02
22.328,322.24
22.343,334.88
22.359,338.76
22.375,331.31
22.390,313.06
22.406,286.61
22.421,254.84
22.437,219.65
22.453,181.76
22.468,141.46
22.484,99.67
22.500,58.31
22.515,19.93
22.531,-13.57
22.546,-42.04
22.562,-67.37
22.578,-92.67
22.593,-120.95
22.609,-153.92
22.625,-191.35
22.640,-231.34
22.656,-271.01
22.671,-307.22
22.687,-337.29
22.703,-359.35
22.718,-372.78
22.734,-378.26
22.750,-377.53
22.765,-372.81
22.781,-365.83
22.796,-357.17
22.812,-346.23
22.828,-331.81
22.843,-313.18
22.859,-290.8
22.875,-266.27
22.890,-241.37
22.906,-216.86
22.921,-191.98
22.937,-164.87
22.953,-133.79
22.968,-98.24
22.984,-59.35
23.000,-19.44
23.015,19.05
23.031,54.56
23.046,86.98
23.062,117.58
23.078,148.53
23.093,182.3
23.109,220.71
23.125,264.16
23.140,310.77
23.156,356.15
23.171,394.14
23.187,418.52
23.203,425.21
23.218,413.7
23.234,387.2
23.250,351.11
23.265,310.71
23.281,269.26
23.296,227.58
23.312,185.07
23.328,141.62
23.343,99.0
23.359,60.9
23.375,31.36
23.390,12.59
23.406,3.54
23.421,0.04
23.437,-3.45
23.453,-11.53
23.468,-26.43
23.484,-48.12
23.500,-75.59
23.515,-108.24
23.531,-146.07
23.546,-188.5
23.562,-232.88
23.578,-273.78
23.593,-304.22
23.609,-318.39
23.625,-314.31
23.640,-295.04
23.656,-267.33
23.671,-238.76
23.687,-214.59
23.703,-195.98
23.718,-180.63
23.734,-164.73
23.750,-145.43
23.765,-122.25
23.781,-97.1
23.796,-73.12
23.812,-53.17
23.828,-38.97
23.843,-31.09
23.859,-29.4
23.875,-33.56
23.890,-42.87
23.906,-55.74
23.921,-69.36
23.937,-79.94
23.953,-83.82
23.968,-78.79
23.984,-65.05
24.000,-45.09
24.015,-22.62
24.031,-1.16
24.046,17.16
24.062,31.8
24.078,43.41
24.093,53.23
24.109,62.6
24.125,72.95
24.140,85.55
24.156,101.14
24.171,119.21
24.187,137.73
24.203,153.61
24.218,163.89
24.234,167.02
24.250,163.45
24.265,155.09
24.281,144.07
24.296,131.29
24.312,115.84
24.328,95.53
24.343,68.23
24.359,33.28
24.375,-7.89
24.390,-52.22
24.406,-96.05
24.421,-136.31
24.437,-171.05
24.453,-199.55
24.468,-221.82
24.484,-238.39
24.500,-249.95
24.515,-257.26
24.531,-261.07
24.546,-261.96
24.562,-260.24
24.578,-255.92
24.593,-248.82
24.609,-238.95
24.625,-226.72
24.640,-213.1
24.656,-199.16
24.671,-185.63
24.687,-172.41
24.703,-158.58
24.718,-142.83
24.734,-124.13
24.750,-102.2
24.765,-77.89
24.781,-53.06
24.796,-30.19
24.812,-11.85
24.828,-0.07
24.843,4.19
24.859,1.54
24.875,-5.74
24.890,-13.87
24.906,-18.4
24.921,-15.24
24.937,-1.89
24.953,21.81
24.968,53.61
24.984,89.58
25.000,125.32
25.015,157.11
25.031,182.77
25.046,201.68
25.062,214.49
25.078,222.44
25.093,226.9
25.109,229.24
25.125,230.71
25.140,232.31
25.156,234.46
25.171,236.78
25.187,238.07
25.203,236.89
25.218,232.38
25.234,224.82
25.250,215.7
25.265,206.83
25.281,199.21
25.296,192.16
25.312,183.39
25.328,169.9
25.343,149.37
25.359,121.21
25.375,86.79
25.390,48.91
25.406,10.77
25.421,-24.96
25.437,-56.52
25.453,-83.12
25.468,-104.52
25.484,-120.81
25.500,-132.32
25.515,-139.66
25.531,-143.83
25.546,-146.11
25.562,-147.87
25.578,-150.26
25.593,-153.88
25.609,-158.61
25.625,-163.67
25.640,-167.92
25.656,-170.27
25.671,-170.0
25.687,-166.92
25.703,-161.27
25.718,-153.53
25.734,-144.13
25.750,-133.43
25.765,-121.76
25.781,-109.6
25.796,-97.56
25.812,-86.28
25.828,-76.26
25.843,-67.65
25.859,-60.18
25.875,-53.4
25.890,-46.8
25.906,-40.02
25.921,-32.89
25.937,-25.31
25.953,-17.23
25.968,-8.68
25.984,0.19
26.000,8.93
26.015,16.95
26.031,23.66
26.046,28.8
26.062,32.56
26.078,35.47
26.093,38.11
26.109,40.78
26.125,43.24
26.140,44.79
26.156,44.5
26.171,41.54
26.187,35.42
26.203,26.11
26.218,14.08
26.234,0.06
26.250,-15.06
26.265,-30.44
26.281,-45.32
26.296,-59.08
26.312,-71.16
26.328,-81.08
26.343,-88.46
26.359,-93.03
26.375,-94.78
26.390,-93.76
26.406,-90.04
26.421,-83.56
26.437,-74.15
26.453,-61.7
26.468,-46.37
26.484,-28.87
26.500,-10.27
26.515,8.07
26.531,24.93
26.546,39.41
26.562,51.12
26.578,60.13
26.593,66.83
26.609,71.78
26.625,75.53
26.640,78.48
26.656,80.76
26.671,82.29
26.687,82.75
26.703,81.82
26.718,79.39
26.734,75.62
26.750,70.95
26.765,65.83
26.781,60.54
26.796,54.99
26.812,48.83
26.828,41.7
26.843,33.46
26.859,24.4
26.875,15.16
26.890,6.54
26.906,-0.75
26.921,-6.37
26.937,-10.32
26.953,-12.89
26.968,-14.54
26.984,-15.82
27.000,-17.32
27.015,-19.56
27.031,-22.9
27.046,-27.54
27.062,-33.44
27.078,-40.31
27.093,-47.73
27.109,-55.15
27.125,-61.96
27.140,-67.48
27.156,-71.03
27.171,-71.96
27.187,-69.76
27.203,-64.28
27.218,-55.61
27.234,-44.19
27.250,-30.64
27.265,-15.72
27.281,-0.26
27.296,14.9
27.312,28.88
27.328,41.0
27.343,50.79
27.359,58.21
27.375,63.59
27.390,67.49
27.406,70.45
27.421,72.78
27.437,74.41
27.453,75.04
27.468,74.29
27.484,71.92
27.500,67.93
27.515,62.59
27.531,56.33
27.546,49.57
27.562,42.7
27.578,35.94
27.593,29.44
27.609,23.27
27.625,17.42
27.640,11.88
27.656,6.63
27.671,1.63
27.687,-3.14
27.703,-7.74
27.718,-12.23
27.734,-16.72
27.750,-21.33
27.765,-26.21
27.781,-31.44
27.796,-37.01
27.812,-42.86
27.828,-48.79
27.843,-54.5
27.859,-59.52
27.875,-63.31
27.890,-65.25
27.906,-64.78
27.921,-61.47
27.937,-55.1
27.953,-45.71
27.968,-33.68
27.984,-19.64
28.000,-4.52
28.015,10.65
28.031,24.92
28.046,37.52
28.062,48.09
28.078,56.62
28.093,63.34
28.109,68.6
28.125,72.67
28.140,75.74
28.156,77.89
28.171,79.17
28.187,79.72
28.203,79.69
28.218,79.26
28.234,78.51
28.250,77.48
28.265,76.16
28.281,74.52
28.296,72.61
28.312,70.53
28.328,68.41
28.343,66.35
28.359,64.37
28.375,62.4
28.390,60.34
28.406,58.13
28.421,55.74
28.437,53.16
28.453,50.48
28.468,47.72
28.484,44.93
28.500,42.16
28.515,39.5
28.531,37.08
28.546,35.01
28.562,33.35
28.578,32.09
28.593,31.16
28.609,30.37
28.625,29.52
28.640,28.38
28.656,26.77
28.671,24.58
28.687,21.88
28.703,18.89
28.718,15.96
28.734,13.47
28.750,11.64
28.765,10.5
28.781,9.88
28.796,9.52
28.812,9.23
28.828,8.87
28.843,8.47
28.859,8.08
28.875,7.74
28.890,7.41
28.906,7.02
28.921,6.54
28.937,5.95
28.953,5.33
28.968,4.74
28.984,4.23
29.000,3.76
29.015,3.27
29.031,2.72
29.046,2.17
29.062,1.79
29.078,1.73
29.093,2.09
29.109,2.8
29.125,3.64
29.140,4.33
29.156,4.66
29.171,4.6
29.187,4.32
29.203,4.04
29.218,3.98
29.234,4.29
29.250,5.08
29.265,6.43
29.281,8.44
29.296,11.19
29.312,14.76
29.328,19.13
29.343,24.17
29.359,29.64
29.375,35.13
29.390,40.18
29.406,44.29
29.421,47.09
29.437,48.34
29.453,48.08
29.468,46.59
29.484,44.39
29.500,42.06
29.515,40.08
29.531,38.61
29.546,37.28
29.562,35.24
29.578,31.3
29.593,24.35
29.609,13.73
29.625,-0.43
29.640,-17.34
29.656,-35.77
29.671,-54.5
29.687,-72.49
29.703,-88.97
29.718,-103.28
29.734,-114.81
29.750,-122.99
29.765,-127.43
29.781,-128.06
29.796,-125.18
29.812,-119.32
29.828,-111.08
29.843,-100.99
29.859,-89.5
29.875,-77.11
29.890,-64.45
29.906,-52.37
29.921,-41.76
29.937,-33.31
29.953,-27.43
29.968,-24.05
29.984,-22.79
30.000,-23.13
30.015,-24.53
30.031,-26.59
30.046,-29.02
30.062,-31.67
30.078,-34.49
30.093,-37.49
30.109,-40.77
30.125,-44.34
30.140,-48.03
30.156,-51.34
30.171,-53.54
30.187,-53.76
30.203,-51.39
30.218,-46.34
30.234,-39.16
30.250,-30.8
30.265,-22.3
30.281,-14.38
30.296,-7.21
30.312,-0.51
30.328,6.3
30.343,13.73
30.359,22.01
30.375,30.98
30.390,40.25
30.406,49.34
30.421,57.85
30.437,65.5
30.453,71.91
30.468,76.54
30.484,78.56
30.500,76.93
30.515,70.79
30.531,59.8
30.546,44.53
30.562,26.4
30.578,7.46
30.593,-10.25
30.609,-25.2
30.625,-36.7
30.640,-44.82
30.656,-50.12
30.671,-53.12
30.687,-54.2
30.703,-53.6
30.718,-51.59
30.734,-48.77
30.750,-46.02
30.765,-44.16
30.781,-43.67
30.796,-44.34
30.812,-45.4
30.828,-45.84
30.843,-44.88
30.859,-42.36
30.875,-38.78
30.890,-34.99
30.906,-31.68
30.921,-29.16
30.937,-27.25
30.953,-25.58
30.968,-23.86
30.984,-22.09
31.000,-20.47
31.015,-19.15
31.031,-17.99
31.046,-16.56
31.062,-14.27
31.078,-10.67
31.093,-5.67
31.109,0.39
31.125,6.94
31.140,13.43
31.156,19.44
31.171,24.79
31.187,29.48
31.203,33.53
31.218,36.92
31.234,39.58
31.250,41.44
31.265,42.5
31.281,42.89
31.296,42.84
31.312,42.65
31.328,42.57
31.343,42.73
31.359,43.07
31.375,43.4
31.390,43.42
31.406,42.89
31.421,41.66
31.437,39.74
31.453,37.26
31.468,34.39
31.484,31.25
31.500,27.91
31.515,24.37
31.531,20.69
31.546,16.93
31.562,13.24
31.578,9.67
31.593,6.17
31.609,2.57
31.625,-1.4
31.640,-5.93
31.656,-11.07
31.671,-16.65
31.687,-22.33
31.703,-27.59
31.718,-31.95
31.734,-34.96
31.750,-36.26
31.765,-35.7
31.781,-33.25
31.796,-29.05
31.812,-23.35
31.828,-16.44
31.843,-8.57
31.859,-0.03
31.875,8.82
31.890,17.5
31.906,25.36
31.921,31.81
31.937,36.49
31.953,39.39
31.968,40.84
31.984,41.34
32.000,41.33
32.015,40.99
32.031,40.33
32.046,39.24
32.062,37.65
32.078,35.64
32.093,33.33
32.109,30.83
32.125,28.22
32.140,25.5
32.156,22.7
32.171,19.86
32.187,17.02
32.203,14.21
32.218,11.38
32.234,8.44
32.250,5.32
32.265,2.0
32.281,-1.44
32.296,-4.9
32.312,-8.31
32.328,-11.67
32.343,-15.05
32.359,-18.6
32.375,-22.46
32.390,-26.75
32.406,-31.51
32.421,-36.64
32.437,-41.85
32.453,-46.72
32.468,-50.61
32.484,-52.86
32.500,-52.9
32.515,-50.4
32.531,-45.38
32.546,-38.26
32.562,-29.67
32.578,-20.32
32.593,-10.77
32.609,-1.37
32.625,7.78
32.640,16.66
32.656,25.15
32.671,32.94
32.687,39.53
32.703,44.4
32.718,47.26
32.734,48.14
32.750,47.45
32.765,45.77
32.781,43.64
32.796,41.33
32.812,38.86
32.828,36.13
32.843,33.05
32.859,29.75
32.875,26.46
32.890,23.53
32.906,21.17
32.921,19.36
32.937,17.89
32.953,16.42
32.968,14.65
32.984,12.4
33.000,9.68
33.015,6.61
33.031,3.35
33.046,0.01
33.062,-3.4
33.078,-6.9
33.093,-10.52
33.109,-14.34
33.125,-18.41
33.140,-22.8
33.156,-27.6
33.171,-32.76
33.187,-38.06
33.203,-42.97
33.218,-46.71
33.234,-48.46
33.250,-47.6
33.265,-43.89
33.281,-37.6
33.296,-29.43
33.312,-20.31
33.328,-11.13
33.343,-2.63
33.359,4.84
33.375,11.19
33.390,16.53
33.406,21.01
33.421,24.76
33.437,27.8
33.453,30.09
33.468,31.59
33.484,32.31
33.500,32.33
33.515,31.8
33.531,30.9
33.546,29.81
33.562,28.65
33.578,27.51
33.593,26.42
33.609,25.37
33.625,24.33
33.640,23.28
33.656,22.23
33.671,21.16
33.687,20.02
33.703,18.67
33.718,16.95
33.734,14.69
33.750,11.9
33.765,8.69
33.781,5.37
33.796,2.21
33.812,-0.59
33.828,-3.02
33.843,-5.24
33.859,-7.5
33.875,-10.05
33.890,-13.09
33.906,-16.68
33.921,-20.75
33.937,-25.05
33.953,-29.12
33.968,-32.34
33.984,-34.04
34.000,-33.66
34.015,-30.93
34.031,-25.93
34.046,-19.1
34.062,-11.06
34.078,-2.47
34.093,6.14
34.109,14.4
34.125,22.08
34.140,29.02
34.156,35.07
34.171,40.06
34.187,43.87
34.203,46.47
34.218,48.0
34.234,48.68
34.250,48.83
34.265,48.67
34.281,48.33
34.296,47.81
34.312,47.01
34.328,45.85
34.343,44.31
34.359,42.51
34.375,40.57
34.390,38.64
34.406,36.79
34.421,35.0
34.437,33.19
34.453,31.22
34.468,29.04
34.484,26.6
34.500,23.96
34.515,21.2
34.531,18.43
34.546,15.79
34.562,13.35
34.578,11.12
34.593,9.0
34.609,6.85
34.625,4.47
34.640,1.72
34.656,-1.55
34.671,-5.37
34.687,-9.6
34.703,-13.91
34.718,-17.74
34.734,-20.43
34.750,-21.4
34.765,-20.35
34.781,-17.38
34.796,-12.93
34.812,-7.6
34.828,-1.97
34.843,3.61
34.859,8.96
34.875,14.07
34.890,19.01
34.906,23.85
34.921,28.59
34.937,33.17
34.953,37.44
34.968,41.15
34.984,44.04
35.000,45.91
35.015,46.66
35.031,46.36
35.046,45.22
35.062,43.44
35.078,41.21
35.093,38.61
35.109,35.65
35.125,32.32
35.140,28.68
35.156,24.81
35.171,20.84
35.187,16.88
35.203,12.98
35.218,9.12
35.234,5.25
35.250,1.33
35.265,-2.62
35.281,-6.56
35.296,-10.4
35.312,-14.11
35.328,-17.72
35.343,-21.29
35.359,-24.91
35.375,-28.7
35.390,-32.68
35.406,-36.81
35.421,-41.01
35.437,-45.08
35.453,-48.71
35.468,-51.5
35.484,-52.94
35.500,-52.54
35.515,-49.98
35.531,-45.16
35.546,-38.34
35.562,-30.11
35.578,-21.19
35.593,-12.32
35.609,-4.07
35.625,3.21
35.640,9.38
35.656,14.39
35.671,18.28
35.687,21.06
35.703,22.78
35.718,23.55
35.734,23.51
35.750,22.87
35.765,21.83
35.781,20.51
35.796,18.99
35.812,17.31
35.828,15.51
35.843,13.59
35.859,11.63
35.875,9.72
35.890,7.94
35.906,6.39
35.921,5.06
35.937,3.88
35.953,2.68
35.968,1.25
35.984,-0.58
36.000,-2.86
36.015,-5.48
36.031,-8.26
36.046,-11.01
36.062,-13.64
36.078,-16.15
36.093,-18.67
36.109,-21.37
36.125,-24.33
36.140,-27.54
36.156,-30.87
36.171,-34.17
36.187,-37.3
36.203,-40.1
36.218,-42.39
36.234,-43.9
36.250,-44.31
36.265,-43.23
36.281,-40.46
36.296,-35.99
36.312,-30.11
36.328,-23.27
36.343,-16.0
36.359,-8.75
36.375,-1.8
36.390,4.7
36.406,10.63
36.421,15.84
36.437,20.14
36.453,23.36
36.468,25.43
36.484,26.35
36.500,26.22
36.515,25.19
36.531,23.45
36.546,21.26
36.562,18.94
36.578,16.83
36.593,15.19
36.609,14.09
36.625,13.35
36.640,12.58
36.656,11.37
36.671,9.42
36.687,6.68
36.703,3.31
36.718,-0.39
36.734,-4.12
36.750,-7.63
36.765,-10.74
36.781,-13.36
36.796,-15.48
36.812,-17.19
36.828,-18.69
36.843,-20.18
36.859,-21.84
36.875,-23.72
36.890,-25.76
36.906,-27.87
36.921,-29.97
36.937,-32.11
36.953,-34.42
36.968,-36.99
36.984,-39.75
37.000,-42.41
37.015,-44.43
37.031,-45.18
37.046,-44.1
37.062,-40.9
37.078,-35.64
37.093,-28.8
37.109,-21.08
37.125,-13.18
37.140,-5.61
37.156,1.48
37.171,8.11
37.187,14.41
37.203,20.35
37.218,25.7
37.234,30.11
37.250,33.19
37.265,34.82
37.281,35.08
37.296,34.32
37.312,32.95
37.328,31.32
37.343,29.71
37.359,28.25
37.375,26.99
37.390,25.92
37.406,24.95
37.421,23.98
37.437,22.87
37.453,21.5
37.468,19.79
37.484,17.75
37.500,15.41
37.515,12.87
37.531,10.22
37.546,7.53
37.562,4.83
37.578,2.11
37.593,-0.65
37.609,-3.45
37.625,-6.25
37.640,-8.98
37.656,-11.57
37.671,-13.97
37.687,-16.26
37.703,-18.55
37.718,-21.01
37.734,-23.77
37.750,-26.8
37.765,-29.89
37.781,-32.69
37.796,-34.76
37.812,-35.68
37.828,-35.13
37.843,-32.96
37.859,-29.17
37.875,-23.95
37.890,-17.61
37.906,-10.59
37.921,-3.36
37.937,3.64
37.953,10.08
37.968,15.71
37.984,20.38
38.000,23.95
38.015,26.32
38.031,27.45
38.046,27.5
38.062,26.74
38.078,25.61
38.093,24.48
38.109,23.51
38.125,22.72
38.140,21.94
38.156,21.1
38.171,20.19
38.187,19.35
38.203,18.65
38.218,18.1
38.234,17.52
38.250,16.73
38.265,15.61
38.281,14.14
38.296,12.46
38.312,10.74
38.328,9.09
38.343,7.5
38.359,5.9
38.375,4.18
38.390,2.22
38.406,-0.1
38.421,-2.93
38.437,-6.49
38.453,-11.06
38.468,-16.88
38.484,-24.01
38.500,-32.23
38.515,-41.02
38.531,-49.74
38.546,-57.72
38.562,-64.46
38.578,-69.63
38.593,-72.92
38.609,-74.05
38.625,-72.67
38.640,-68.55
38.656,-61.75
38.671,-52.74
38.687,-42.33
38.703,-31.51
38.718,-21.06
38.734,-11.44
38.750,-2.74
38.765,5.14
38.781,12.27
38.796,18.53
38.812,23.65
38.828,27.33
38.843,29.42
38.859,30.06
38.875,29.61
38.890,28.48
38.906,26.98
38.921,25.23
38.937,23.23
38.953,20.93
38.968,18.46
38.984,16.02
39.000,13.85
39.015,12.09
39.031,10.67
39.046,9.34
39.062,7.85
39.078,6.08
39.093,4.04
39.109,1.93
39.125,-0.05
39.140,-1.85
39.156,-3.54
39.171,-5.34
39.187,-7.44
39.203,-9.97
39.218,-12.85
39.234,-15.92
39.250,-18.96
39.265,-21.8
39.281,-24.45
39.296,-27.04
39.312,-29.82
39.328,-33.0
39.343,-36.76
39.359,-41.13
39.375,-45.95
39.390,-50.88
39.406,-55.4
39.421,-58.91
39.437,-60.74
39.453,-60.3
39.468,-57.21
39.484,-51.41
39.500,-43.26
39.515,-33.4
39.531,-22.7
39.546,-11.94
39.562,-1.7
39.578,7.7
39.593,16.14
39.609,23.63
39.625,30.12
39.640,35.48
39.656,39.6
39.671,42.38
39.687,43.88
39.703,44.27
39.718,43.81
39.734,42.71
39.750,41.2
39.765,39.4
39.781,37.44
39.796,35.41
39.812,33.39
39.828,31.43
39.843,29.52
39.859,27.58
39.875,25.46
39.890,23.04
39.906,20.3
39.921,17.25
39.937,14.05
39.953,10.79
39.968,7.57
39.984,4.41
40.000,1.31
40.015,-1.74
40.031,-4.72
40.046,-7.56
40.062,-10.25
40.078,-12.78
40.093,-15.22
40.109,-17.64
40.125,-20.15
40.140,-22.84
40.156,-25.76
40.171,-28.9
40.187,-32.08
40.203,-34.91
40.218,-36.8
40.234,-37.15
40.250,-35.48
40.265,-31.6
40.281,-25.75
40.296,-18.43
40.312,-10.31
40.328,-2.02
40.343,5.96
40.359,13.36
40.375,20.09
40.390,26.11
40.406,31.42
40.421,35.91
40.437,39.39
40.453,41.67
40.468,42.56
40.484,42.03
40.500,40.24
40.515,37.57
40.531,34.51
40.546,31.54
40.562,28.96
40.578,26.9
40.593,25.24
40.609,23.75
40.625,22.19
40.640,20.38
40.656,18.23
40.671,15.77
40.687,13.03
40.703,10.08
40.718,6.92
40.734,3.61
40.750,0.23
40.765,-3.08
40.781,-6.23
40.796,-9.22
40.812,-12.23
40.828,-15.52
40.843,-19.32
40.859,-23.59
40.875,-28.1
40.890,-32.46
40.906,-36.33
40.921,-39.6
40.937,-42.43
40.953,-45.11
40.968,-47.97
40.984,-51.09
41.000,-54.3
41.015,-57.22
41.031,-59.29
41.046,-59.89
41.062,-58.52
41.078,-54.85
41.093,-48.87
41.109,-40.93
41.125,-31.59
41.140,-21.53
41.156,-11.33
41.171,-1.38
41.187,8.1
41.203,16.95
41.218,25.0
41.234,31.99
41.250,37.64
41.265,41.71
41.281,44.1
41.296,44.82
41.312,44.0
41.328,41.91
41.343,38.89
41.359,35.37
41.375,31.78
41.390,28.49
41.406,25.74
41.421,23.58
41.437,21.9
41.453,20.53
41.468,19.25
41.484,17.86
41.500,16.23
41.515,14.24
41.531,11.9
41.546,9.36
41.562,6.83
41.578,4.49
41.593,2.39
41.609,0.36
41.625,-1.89
41.640,-4.62
41.656,-7.97
41.671,-11.78
41.687,-15.74
41.703,-19.44
41.718,-22.64
41.734,-25.26
41.750,-27.41
41.765,-29.34
41.781,-31.31
41.796,-33.57
41.812,-36.29
41.828,-39.48
41.843,-42.92
41.859,-46.12
41.875,-48.43
41.890,-49.23
41.906,-48.14
41.921,-45.13
41.937,-40.51
41.953,-34.71
41.968,-28.14
41.984,-21.04
42.000,-13.5
42.015,-5.61
42.031,2.39
42.046,10.08
42.062,16.92
42.078,22.48
42.093,26.54
42.109,29.15
42.125,30.54
42.140,30.98
42.156,30.69
42.171,29.79
42.187,28.41
42.203,26.75
42.218,25.08
42.234,23.72
42.250,22.91
42.265,22.69
42.281,22.95
42.296,23.44
42.312,23.78
42.328,23.62
42.343,22.67
42.359,20.8
42.375,18.1
42.390,14.89
42.406,11.52
42.421,8.31
42.437,5.31
42.453,2.35
42.468,-0.86
42.484,-4.52
42.500,-8.59
42.515,-12.75
42.531,-16.58
42.546,-19.75
42.562,-22.18
42.578,-24.08
42.593,-25.81
42.609,-27.68
42.625,-29.91
42.640,-32.56
42.656,-35.57
42.671,-38.78
42.687,-41.88
42.703,-44.32
42.718,-45.43
42.734,-44.48
42.750,-40.99
42.765,-34.9
42.781,-26.66
42.796,-17.05
42.812,-7.02
42.828,2.68
42.843,11.6
42.859,19.57
42.875,26.58
42.890,32.65
42.906,37.75
42.921,41.72
42.937,44.41
42.953,45.67
42.968,45.48
42.984,43.99
43.000,41.5
43.015,38.48
43.031,35.4
43.046,32.68
43.062,30.57
43.078,29.08
43.093,28.02
43.109,27.12
43.125,26.11
43.140,24.83
43.156,23.2
43.171,21.23
43.187,19.01
43.203,16.6
43.218,14.07
43.234,11.45
43.250,8.7
43.265,5.76
43.281,2.51
43.296,-1.16
43.312,-5.29
43.328,-9.78
43.343,-14.42
43.359,-18.89
43.375,-22.92
43.390,-26.35
43.406,-29.21
43.421,-31.76
43.437,-34.34
43.453,-37.27
43.468,-40.68
43.484,-44.37
43.500,-47.83
43.515,-50.27
43.531,-50.93
43.546,-49.24
43.562,-45.05
43.578,-38.61
43.593,-30.48
43.609,-21.3
43.625,-11.68
43.640,-2.09
43.656,7.16
43.671,15.78
43.687,23.57
43.703,30.29
43.718,35.72
43.734,39.73
43.750,42.26
43.765,43.35
43.781,43.18
43.796,42.02
43.812,40.21
43.828,38.05
43.843,35.77
43.859,33.54
43.875,31.46
43.890,29.62
43.906,28.1
43.921,26.91
43.937,25.93
43.953,24.85
43.968,23.29
43.984,20.93
44.000,17.68
44.015,13.73
44.031,9.45
44.046,5.31
44.062,1.59
44.078,-1.62
44.093,-4.5
44.109,-7.31
44.125,-10.32
44.140,-13.62
44.156,-17.15
44.171,-20.7
44.187,-23.99
44.203,-26.82
44.218,-29.16
44.234,-31.2
44.250,-33.31
44.265,-35.89
44.281,-39.24
44.296,-43.41
44.312,-48.14
44.328,-52.85
44.343,-56.75
44.359,-58.99
44.375,-58.84
44.390,-55.89
44.406,-50.18
44.421,-42.17
44.437,-32.63
44.453,-22.43
44.468,-12.29
44.484,-2.69
44.500,6.15
44.515,14.14
44.531,21.23
44.546,27.29
44.562,32.17
44.578,35.83
44.593,38.29
44.609,39.71
44.625,40.22
44.640,39.91
44.656,38.78
44.671,36.8
44.687,34.04
44.703,30.67
44.718,27.06
44.734,23.66
44.750,20.86
44.765,18.89
44.781,17.71
44.796,17.07
44.812,16.52
44.828,15.62
44.843,14.04
44.859,11.71
44.875,8.8
44.890,5.62
44.906,2.44
44.921,-0.64
44.937,-3.72
44.953,-7.02
44.968,-10.66
44.984,-14.5
45.000,-18.16
45.015,-21.23
45.031,-23.38
45.046,-24.65
45.062,-25.38
45.078,-26.06
45.093,-27.14
45.109,-28.89
45.125,-31.4
45.140,-34.55
45.156,-38.1
45.171,-41.62
45.187,-44.49
45.203,-45.96
45.218,-45.32
45.234,-42.14
45.250,-36.44
45.265,-28.72
45.281,-19.79
45.296,-10.4
45.312,-1.13
45.328,7.81
45.343,16.38
45.359,24.58
45.375,32.27
45.390,39.13
45.406,44.77
45.421,48.89
45.437,51.38
45.453,52.33
45.468,51.99
45.484,50.65
45.500,48.57
45.515,46.0
45.531,43.16
45.546,40.29
45.562,37.6
45.578,35.28
45.593,33.45
45.609,32.08
45.625,31.11
45.640,30.4
45.656,29.78
45.671,29.04
45.687,27.96
45.703,26.31
45.718,23.93
45.734,20.77
45.750,16.97
45.765,12.79
45.781,8.55
45.796,4.54
45.812,0.93
45.828,-2.22
45.843,-4.91
45.859,-7.17
45.875,-9.02
45.890,-10.49
45.906,-11.65
45.921,-12.64
45.937,-13.66
45.953,-14.88
45.968,-16.28
45.984,-17.63
46.000,-18.4
46.015,-17.85
46.031,-15.28
46.046,-10.18
46.062,-2.41
46.078,7.73
46.093,19.65
46.109,32.64
46.125,46.06
46.140,59.48
46.156,72.68
46.171,85.58
46.187,98.17
46.203,110.3
46.218,121.69
46.234,131.91
46.250,140.5
46.265,147.18
46.281,152.01
46.296,155.38
46.312,157.86
46.328,159.97
46.343,161.86
46.359,163.27
46.375,163.62
46.390,162.2
46.406,158.37
46.421,151.61
46.437,141.45
46.453,127.5
46.468,109.53
46.484,87.67
46.500,62.43
46.515,34.72
46.531,5.6
46.546,-23.96
46.562,-53.15
46.578,-81.29
46.593,-107.7
46.609,-131.64
46.625,-152.38
46.640,-169.44
46.656,-182.92
46.671,-193.5
46.687,-202.37
46.703,-210.73
46.718,-219.41
46.734,-228.44
46.750,-237.19
46.765,-244.5
46.781,-249.33
46.796,-251.13
46.812,-250.01
46.828,-246.55
46.843,-241.38
46.859,-234.71
46.875,-226.21
46.890,-215.21
46.906,-201.23
46.921,-184.37
46.937,-165.5
46.953,-145.93
46.968,-127.07
46.984,-109.91
47.000,-94.84
47.015,-81.66
47.031,-69.85
47.046,-58.75
47.062,-47.82
47.078,-36.78
47.093,-25.68
47.109,-14.94
47.125,-5.2
47.140,2.84
47.156,8.73
47.171,12.43
47.187,14.32
47.203,15.04
47.218,15.26
47.234,15.64
47.250,16.74
47.265,19.13
47.281,23.35
47.296,29.84
47.312,38.73
47.328,49.77
47.343,62.44
47.359,76.24
47.375,90.94
47.390,106.51
47.406,122.91
47.421,139.34
47.437,154.06
47.453,164.4
47.468,167.58
47.484,161.65
47.500,146.34
47.515,123.3
47.531,95.61
47.546,66.9
47.562,40.41
47.578,18.42
47.593,2.16
47.609,-8.06
47.625,-12.75
47.640,-13.28
47.656,-11.89
47.671,-11.41
47.687,-14.58
47.703,-22.98
47.718,-36.28
47.734,-52.06
47.750,-66.52
47.765,-75.8
47.781,-77.48
47.796,-71.31
47.812,-59.15
47.828,-43.99
47.843,-28.6
47.859,-14.35
47.875,-0.94
47.890,13.17
47.906,29.79
47.921,49.92
47.937,73.2
47.953,97.91
47.968,121.46
47.984,141.2
48.000,155.17
48.015,162.59
48.031,163.89
48.046,160.47
48.062,154.08
48.078,146.26
48.093,137.98
48.109,129.58
48.125,121.15
48.140,112.86
48.156,105.27
48.171,99.24
48.187,95.6
48.203,94.74
48.218,96.3
48.234,99.08
48.250,101.12
48.265,100.04
48.281,93.43
48.296,79.59
48.312,58.14
48.328,30.44
48.343,-0.65
48.359,-31.63
48.375,-59.45
48.390,-82.5
48.406,-100.79
48.421,-115.42
48.437,-127.6
48.453,-137.85
48.468,-145.78
48.484,-150.54
48.500,-151.45
48.515,-148.56
48.531,-142.6
48.546,-134.63
48.562,-125.59
48.578,-115.91
48.593,-105.61
48.609,-94.47
48.625,-82.37
48.640,-69.51
48.656,-56.44
48.671,-43.87
48.687,-32.51
48.703,-22.74
48.718,-14.53
48.734,-7.51
48.750,-1.15
48.765,4.98
48.781,11.03
48.796,16.83
48.812,22.0
48.828,26.22
48.843,29.42
48.859,31.9
48.875,34.22
48.890,37.06
48.906,40.92
48.921,45.94
48.937,51.87
48.953,58.12
48.968,63.91
48.984,68.44
49.000,70.99
49.015,70.99
49.031,68.19
49.046,62.72
49.062,55.16
49.078,46.49
49.093,37.88
49.109,30.32
49.125,24.37
49.140,20.05
49.156,17.06
49.171,15.12
49.187,14.32
49.203,15.15
49.218,18.28
49.234,23.99
49.250,31.83
49.265,40.62
49.281,48.92
49.296,55.68
49.312,60.86
49.328,65.54
49.343,71.64
49.359,81.23
49.375,95.78
49.390,115.53
49.406,139.15
49.421,163.85
49.437,185.77
49.453,200.96
49.468,206.24
49.484,200.2
49.500,183.44
49.515,158.28
49.531,127.89
49.546,95.2
49.562,62.3
49.578,30.19
49.593,-0.81
49.609,-30.7
49.625,-59.44
49.640,-87.19
49.656,-114.48
49.671,-142.27
49.687,-171.54
49.703,-202.62
49.718,-234.59
49.734,-265.22
49.750,-291.59
49.765,-311.06
49.781,-322.17
49.796,-325.07
49.812,-321.2
49.828,-312.51
49.843,-300.71
49.859,-286.72
49.875,-270.8
49.890,-252.97
49.906,-233.54
49.921,-213.38
49.937,-193.88
49.953,-176.47
49.968,-162.17
49.984,-151.16
50.000,-142.68
50.015,-135.38
50.031,-127.84
50.046,-119.11
50.062,-109.04
50.078,-97.98
50.093,-86.29
50.109,-73.77
50.125,-59.49
50.140,-42.11
50.156,-20.49
50.171,5.83
50.187,36.59
50.203,71.12
50.218,108.87
50.234,149.34
50.250,191.93
50.265,235.46
50.281,277.9
50.296,316.67
50.312,349.36
50.328,374.42
50.343,391.37
50.359,400.47
50.375,401.96
50.390,395.54
50.406,380.55
50.421,356.72
50.437,325.04
50.453,288.1
50.468,249.51
50.484,212.85
50.500,180.49
50.515,152.98
50.531,129.41
50.546,108.15
50.562,87.79
50.578,67.58
50.593,47.3
50.609,26.81
50.625,5.63
50.640,-17.12
50.656,-42.47
50.671,-71.31
50.687,-104.16
50.703,-140.91
50.718,-180.44
50.734,-220.52
50.750,-257.85
50.765,-288.72
50.781,-310.11
50.796,-320.7
50.812,-321.34
50.828,-314.65
50.843,-303.95
50.859,-292.1
50.875,-280.78
50.890,-270.6
50.906,-261.54
50.921,-253.44
50.937,-246.11
50.953,-239.02
50.968,-231.08
50.984,-220.68
51.000,-206.25
51.015,-186.97
51.031,-163.15
51.046,-136.23
51.062,-108.2
51.078,-81.02
51.093,-55.98
51.109,-33.56
51.125,-13.58
51.140,4.43
51.156,20.78
51.171,35.41
51.187,47.78
51.203,57.17
51.218,63.01
51.234,65.18
51.250,64.16
51.265,60.96
51.281,56.79
51.296,52.64
51.312,49.05
51.328,45.95
51.343,42.87
51.359,39.27
51.375,34.83
51.390,29.62
51.406,24.05
51.421,18.61
51.437,13.7
51.453,9.53
51.468,6.12
51.484,3.52
51.500,1.75
51.515,0.85
51.531,0.79
51.546,1.37
51.562,2.35
51.578,3.52
51.593,4.86
51.609,6.45
51.625,8.32
51.640,10.23
51.656,11.54
51.671,11.32
51.687,8.61
51.703,2.8
51.718,-6.08
51.734,-17.32
51.750,-29.64
51.765,-41.41
51.781,-50.96
51.796,-56.91
51.812,-58.36
51.828,-55.04
51.843,-47.38
51.859,-36.3
51.875,-22.99
51.890,-8.63
51.906,5.84
51.921,19.82
51.937,32.95
51.953,44.98
51.968,55.63
51.984,64.59
52.000,71.65
52.015,76.82
52.031,80.33
52.046,82.5
52.062,83.61
52.078,83.85
52.093,83.23
52.109,81.82
52.125,79.8
52.140,77.43
52.156,75.02
52.171,72.76
52.187,70.69
52.203,68.58
52.218,66.16
52.234,63.11
52.250,59.31
52.265,54.77
52.281,49.76
52.296,44.67
52.312,39.87
52.328,35.55
52.343,31.64
52.359,27.79
52.375,23.61
52.390,18.92
52.406,13.78
52.421,8.46
52.437,3.3
52.453,-1.56
52.468,-6.11
52.484,-10.55
52.500,-15.02
52.515,-19.68
52.531,-24.77
52.546,-30.69
52.562,-37.89
52.578,-46.57
52.593,-56.29
52.609,-65.81
52.625,-73.29
52.640,-76.89
52.656,-75.48
52.671,-69.07
52.687,-58.85
52.703,-46.75
52.718,-34.75
52.734,-24.27
52.750,-15.89
52.765,-9.46
52.781,-4.49
52.796,-0.42
52.812,3.12
52.828,6.32
52.843,9.37
52.859,12.56
52.875,16.39
52.890,21.45
52.906,28.19
52.921,36.77
52.937,46.91
52.953,57.98
52.968,68.96
52.984,78.52
53.000,85.18
53.015,87.53
53.031,84.74
53.046,76.98
53.062,65.68
53.078,53.33
53.093,42.73
53.109,35.99
53.125,33.75
53.140,34.81
53.156,36.54
53.171,35.89
53.187,30.57
53.203,19.85
53.218,4.72
53.234,-12.54
53.250,-29.25
53.265,-43.13
53.281,-52.9
53.296,-58.49
53.312,-60.98
53.328,-62.29
53.343,-64.66
53.359,-69.93
53.375,-78.83
53.390,-90.53
53.406,-102.78
53.421,-112.66
53.437,-117.56
53.453,-116.1
53.468,-108.43
53.484,-95.82
53.500,-79.84
53.515,-61.72
53.531,-42.16
53.546,-21.55
53.562,-0.53
53.578,20.03
53.593,39.06
53.609,55.84
53.625,70.21
53.640,82.62
53.656,93.74
53.671,104.07
53.687,113.71
53.703,122.4
53.718,129.8
53.734,135.69
53.750,140.23
53.765,143.84
53.781,147.07
53.796,150.43
53.812,154.1
53.828,157.92
53.843,161.35
53.859,163.72
53.875,164.36
53.890,162.61
53.906,157.79
53.921,149.07
53.937,135.71
53.953,117.41
53.968,94.79
53.984,69.41
54.000,43.42
54.015,18.64
54.031,-4.16
54.046,-25.71
54.062,-47.84
54.078,-72.58
54.093,-101.17
54.109,-133.5
54.125,-168.19
54.140,-203.17
54.156,-236.38
54.171,-266.16
54.187,-291.19
54.203,-310.15
54.218,-321.53
54.234,-323.66
54.250,-315.25
54.265,-296.03
54.281,-267.37
54.296,-232.12
54.312,-193.99
54.328,-156.42
54.343,-121.65
54.359,-90.36
54.375,-62.03
54.390,-35.82
54.406,-11.28
54.421,11.29
54.437,31.05
54.453,47.23
54.468,59.47
54.484,68.0
54.500,73.53
54.515,76.98
54.531,79.23
54.546,81.04
54.562,82.86
54.578,84.86
54.593,86.77
54.609,87.97
54.625,87.6
54.640,84.89
54.656,79.47
54.671,71.55
54.687,61.87
54.703,51.6
54.718,42.02
54.734,34.25
54.750,28.98
54.765,26.26
54.781,25.39
54.796,25.08
54.812,23.74
54.828,20.04
54.843,13.34
54.859,3.97
54.875,-6.97
54.890,-17.98
54.906,-27.76
54.921,-35.56
54.937,-41.3
54.953,-45.43
54.968,-48.62
54.984,-51.48
55.000,-54.37
55.015,-57.4
55.031,-60.4
55.046,-62.99
55.062,-64.57
55.078,-64.45
55.093,-61.96
55.109,-56.62
55.125,-48.41
55.140,-37.76
55.156,-25.46
55.171,-12.37
55.187,0.86
55.203,14.04
55.218,27.3
55.234,40.95
55.250,55.14
55.265,69.65
55.281,83.85
55.296,96.89
55.312,107.93
55.328,116.39
55.343,122.07
55.359,125.19
55.375,126.27
55.390,126.15
55.406,125.74
55.421,125.91
55.437,127.34
55.453,130.36
55.468,134.89
55.484,140.42
55.500,146.16
55.515,151.19
55.531,154.68
55.546,156.15
55.562,155.54
55.578,153.28
55.593,150.05
55.609,146.55
55.625,143.12
55.640,139.65
55.656,135.63
55.671,130.62
55.687,124.68
55.703,118.74
55.718,114.34
55.734,112.85
55.750,114.58
55.765,118.11
55.781,120.56
55.796,118.58
55.812,109.92
55.828,94.49
55.843,74.5
55.859,53.6
55.875,35.29
55.890,21.66
55.906,12.85
55.921,7.39
55.937,3.13
55.953,-1.84
55.968,-9.05
55.984,-19.71
56.000,-34.9
56.015,-55.27
56.031,-80.31
56.046,-107.85
56.062,-134.37
56.078,-156.31
56.093,-171.67
56.109,-181.11
56.125,-187.68
56.140,-195.17
56.156,-206.22
56.171,-220.99
56.187,-237.27
56.203,-251.69
56.218,-261.4
56.234,-264.87
56.250,-261.91
56.265,-252.73
56.281,-237.3
56.296,-215.28
56.312,-186.51
56.328,-151.76
56.343,-112.86
56.359,-72.48
56.375,-33.35
56.390,2.33
56.406,33.12
56.421,58.21
56.437,77.03
56.453,89.1
56.468,94.0
56.484,91.8
56.500,83.23
56.515,69.81
56.531,53.57
56.546,36.63
56.562,20.69
56.578,6.54
56.593,-5.9
56.609,-17.41
56.625,-28.94
56.640,-41.11
56.656,-53.96
56.671,-67.06
56.687,-79.95
56.703,-92.6
56.718,-105.5
56.734,-119.23
56.750,-133.85
56.765,-148.36
56.781,-160.76
56.796,-168.63
56.812,-169.94
56.828,-163.66
56.843,-149.73
56.859,-128.87
56.875,-102.11
56.890,-70.69
56.906,-36.06
56.921,0.01
56.937,35.66
56.953,69.49
56.968,100.83
56.984,130.02
57.000,158.02
57.015,185.89
57.031,214.08
57.046,242.14
57.062,268.84
57.078,292.35
57.093,310.72
57.109,322.1
57.125,325.0
57.140,318.37
57.156,301.74
57.171,275.28
57.187,239.7
57.203,196.15
57.218,146.17
57.234,91.66
57.250,35.0
57.265,-20.72
57.281,-71.83
57.296,-114.47
57.312,-145.55
57.328,-163.85
57.343,-170.73
57.359,-170.03
57.375,-167.01
57.390,-166.71
57.406,-172.21
57.421,-183.91
57.437,-199.6
57.453,-215.58
57.468,-227.95
57.484,-233.77
57.500,-231.52
57.515,-221.06
57.531,-203.16
57.546,-179.16
57.562,-150.62
57.578,-119.24
57.593,-86.85
57.609,-55.22
57.625,-25.8
57.640,0.46
57.656,23.36
57.671,43.31
57.687,61.01
57.703,76.93
57.718,91.1
57.734,102.83
57.750,111.2
57.765,115.36
57.781,115.07
57.796,110.82
57.812,103.69
57.828,94.99
57.843,85.91
57.859,77.34
57.875,69.76
57.890,63.33
57.906,57.84
57.921,52.8
57.937,47.56
57.953,41.48
57.968,34.15
57.984,25.55
58.000,16.06
58.015,6.26
58.031,-3.3
58.046,-12.48
58.062,-21.48
58.078,-30.77
58.093,-40.69
58.109,-51.27
58.125,-62.05
58.140,-72.24
58.156,-80.9
58.171,-87.28
58.187,-91.06
58.203,-92.52
58.218,-92.59
58.234,-92.75
58.250,-94.81
58.265,-100.48
58.281,-110.81
58.296,-125.76
58.312,-143.9
58.328,-162.53
58.343,-178.3
58.359,-188.26
58.375,-190.94
58.390,-187.12
58.406,-179.79
58.421,-173.2
58.437,-171.37
58.453,-176.37
58.468,-187.48
58.484,-201.39
58.500,-213.41
58.515,-219.2
58.531,-216.07
58.546,-203.53
58.562,-182.79
58.578,-155.92
58.593,-124.9
58.609,-91.21
58.625,-55.96
58.640,-20.03
58.656,15.72
58.671,50.62
58.687,84.37
58.703,116.96
58.718,148.41
58.734,178.28
58.750,205.42
58.765,228.04
58.781,244.35
58.796,253.28
58.812,255.05
58.828,251.22
58.843,244.28
58.859,236.68
58.875,229.88
58.890,223.81
58.906,216.89
58.921,206.83
58.937,191.79
58.953,171.36
58.968,146.99
58.984,121.57
59.000,98.31
59.015,79.53
59.031,65.88
59.046,56.3
59.062,48.8
59.078,41.37
59.093,32.77
59.109,22.69
59.125,11.47
59.140,-0.28
59.156,-11.93
59.171,-22.85
59.187,-32.19
59.203,-38.89
59.218,-41.81
59.234,-40.1
59.250,-33.5
59.265,-22.48
59.281,-8.07
59.296,8.5
59.312,26.12
59.328,44.01
59.343,61.59
59.359,78.28
59.375,93.32
59.390,105.86
59.406,115.28
59.421,121.64
59.437,125.85
59.453,129.51
59.468,134.25
59.484,140.93
59.500,149.04
59.515,156.68
59.531,161.18
59.546,160.08
59.562,152.07
59.578,137.47
59.593,118.02
59.609,96.24
59.625,74.36
59.640,53.53
59.656,33.55
59.671,13.08
59.687,-9.51
59.703,-35.19
59.718,-63.57
59.734,-92.72
59.750,-119.62
59.765,-141.18
59.781,-155.16
59.796,-160.81
59.812,-158.97
59.828,-151.54
59.843,-140.73
59.859,-128.47
59.875,-116.17
59.890,-104.71
59.906,-94.68
59.921,-86.53
59.937,-80.6
59.953,-77.06
59.968,-75.78
59.984,-76.22
