timestamp,value
00.000,-20.66
00.015,-11.23
00.031,-3.11
00.046,3.66
00.062,9.37
00.078,14.4
00.093,19.06
00.109,23.52
00.125,27.73
00.140,31.58
00.156,34.87
00.171,37.48
00.187,39.41
00.203,40.71
00.218,41.5
00.234,41.81
00.250,41.65
00.265,40.97
00.281,39.83
00.296,38.37
00.312,36.87
00.328,35.64
00.343,34.86
00.359,34.51
00.375,34.33
00.390,34.0
00.406,33.21
00.421,31.89
00.437,30.15
00.453,28.24
00.468,26.44
00.484,24.95
00.500,23.8
00.515,22.82
00.531,21.76
00.546,20.37
00.562,18.56
00.578,16.39
00.593,14.11
00.609,11.95
00.625,9.96
00.640,8.04
00.656,5.94
00.671,3.46
00.687,0.61
00.703,-2.43
00.718,-5.44
00.734,-8.29
00.750,-11.08
00.765,-14.1
00.781,-17.65
00.796,-21.74
00.812,-26.11
00.828,-30.27
00.843,-33.7
00.859,-36.18
00.875,-37.77
00.890,-38.89
00.906,-40.08
00.921,-41.84
00.937,-44.46
00.953,-47.99
00.968,-52.16
00.984,-56.47
01.000,-60.22
01.015,-62.58
01.031,-62.83
01.046,-60.47
01.062,-55.42
01.078,-48.06
01.093,-39.1
01.109,-29.44
01.125,-19.93
01.140,-11.23
01.156,-3.7
01.171,2.61
01.187,7.99
01.203,12.88
01.218,17.69
01.234,22.52
01.250,27.13
01.265,31.05
01.281,33.82
01.296,35.27
01.312,35.59
01.328,35.24
01.343,34.68
01.359,34.17
01.375,33.71
01.390,33.17
01.406,32.5
01.421,31.81
01.437,31.26
01.453,31.0
01.468,30.97
01.484,30.93
01.500,30.52
01.515,29.49
01.531,27.71
01.546,25.31
01.562,22.54
01.578,19.82
01.593,17.51
01.609,15.85
01.625,14.85
01.640,14.24
01.656,13.55
01.671,12.37
01.687,10.48
01.703,8.0
01.718,5.36
01.734,3.0
01.750,1.12
01.765,-0.45
01.781,-2.16
01.796,-4.46
01.812,-7.59
01.828,-11.4
01.843,-15.49
01.859,-19.37
01.875,-22.75
01.890,-25.55
01.906,-27.91
01.921,-30.0
01.937,-32.02
01.953,-34.18
01.968,-36.76
01.984,-40.01
02.000,-44.02
02.015,-48.55
02.031,-52.96
02.046,-56.26
02.062,-57.43
02.078,-55.72
02.093,-50.97
02.109,-43.59
02.125,-34.49
02.140,-24.76
02.156,-15.3
02.171,-6.68
02.187,0.97
02.203,7.8
02.218,14.1
02.234,20.05
02.250,25.63
02.265,30.66
02.281,34.88
02.296,38.04
02.312,40.11
02.328,41.23
02.343,41.65
02.359,41.62
02.375,41.24
02.390,40.53
02.406,39.44
02.421,37.99
02.437,36.33
02.453,34.74
02.468,33.56
02.484,32.93
02.500,32.8
02.515,32.81
02.531,32.54
02.546,31.67
02.562,30.12
02.578,28.05
02.593,25.75
02.609,23.47
02.625,21.27
02.640,19.11
02.656,16.91
02.671,14.67
02.687,12.54
02.703,10.69
02.718,9.19
02.734,7.95
02.750,6.66
02.765,5.01
02.781,2.79
02.796,0.04
02.812,-3.11
02.828,-6.38
02.843,-9.6
02.859,-12.76
02.875,-15.97
02.890,-19.4
02.906,-23.07
02.921,-26.85
02.937,-30.48
02.953,-33.73
02.968,-36.44
02.984,-38.66
03.000,-40.64
03.015,-42.76
03.031,-45.4
03.046,-48.75
03.062,-52.72
03.078,-56.89
03.093,-60.55
03.109,-62.92
03.125,-63.3
03.140,-61.27
03.156,-56.74
03.171,-49.97
03.187,-41.43
03.203,-31.69
03.218,-21.43
03.234,-11.32
03.250,-2.03
03.265,5.96
03.281,12.42
03.296,17.49
03.312,21.54
03.328,25.04
03.343,28.35
03.359,31.61
03.375,34.67
03.390,37.22
03.406,39.0
03.421,39.87
03.437,39.95
03.453,39.54
03.468,39.0
03.484,38.62
03.500,38.49
03.515,38.49
03.531,38.4
03.546,38.02
03.562,37.25
03.578,36.11
03.593,34.7
03.609,33.09
03.625,31.33
03.640,29.41
03.656,27.34
03.671,25.15
03.687,22.94
03.703,20.84
03.718,18.95
03.734,17.34
03.750,15.96
03.765,14.66
03.781,13.23
03.796,11.48
03.812,9.32
03.828,6.82
03.843,4.14
03.859,1.51
03.875,-0.97
03.890,-3.27
03.906,-5.45
03.921,-7.59
03.937,-9.76
03.953,-12.02
03.968,-14.5
03.984,-17.31
04.000,-20.56
04.015,-24.2
04.031,-28.03
04.046,-31.71
04.062,-34.98
04.078,-37.78
04.093,-40.22
04.109,-42.62
04.125,-45.31
04.140,-48.53
04.156,-52.34
04.171,-56.54
04.187,-60.66
04.203,-63.99
04.218,-65.69
04.234,-64.98
04.250,-61.37
04.265,-54.94
04.281,-46.28
04.296,-36.32
04.312,-26.06
04.328,-16.25
04.343,-7.37
04.359,0.41
04.375,7.03
04.390,12.45
04.406,16.72
04.421,19.94
04.437,22.34
04.453,24.27
04.468,26.02
04.484,27.77
04.500,29.47
04.515,30.94
04.531,31.89
04.546,32.19
04.562,31.87
04.578,31.09
04.593,30.2
04.609,29.48
04.625,29.11
04.640,29.07
04.656,29.21
04.671,29.2
04.687,28.86
04.703,28.07
04.718,26.88
04.734,25.46
04.750,23.9
04.765,22.22
04.781,20.34
04.796,18.29
04.812,16.16
04.828,14.24
04.843,12.8
04.859,11.99
04.875,11.67
04.890,11.45
04.906,10.9
04.921,9.69
04.937,7.81
04.953,5.48
04.968,3.09
04.984,0.89
05.000,-1.16
05.015,-3.3
05.031,-5.93
05.046,-9.24
05.062,-13.17
05.078,-17.37
05.093,-21.41
05.109,-24.95
05.125,-27.89
05.140,-30.45
05.156,-32.97
05.171,-35.78
05.187,-39.01
05.203,-42.6
05.218,-46.26
05.234,-49.5
05.250,-51.73
05.265,-52.29
05.281,-50.65
05.296,-46.54
05.312,-40.04
05.328,-31.69
05.343,-22.3
05.359,-12.81
05.375,-4.1
05.390,3.23
05.406,9.0
05.421,13.33
05.437,16.67
05.453,19.57
05.468,22.54
05.484,25.8
05.500,29.24
05.515,32.43
05.531,34.81
05.546,36.04
05.562,36.05
05.578,35.14
05.593,33.78
05.609,32.4
05.625,31.23
05.640,30.28
05.656,29.4
05.671,28.52
05.687,27.7
05.703,27.05
05.718,26.7
05.734,26.63
05.750,26.55
05.765,26.11
05.781,24.98
05.796,23.06
05.812,20.48
05.828,17.59
05.843,14.71
05.859,12.08
05.875,9.78
05.890,7.64
05.906,5.55
05.921,3.37
05.937,1.12
05.953,-1.14
05.968,-3.33
05.984,-5.47
06.000,-7.66
06.015,-9.97
06.031,-12.5
06.046,-15.24
06.062,-18.14
06.078,-21.09
06.093,-23.95
06.109,-26.66
06.125,-29.27
06.140,-31.94
06.156,-34.88
06.171,-38.31
06.187,-42.22
06.203,-46.47
06.218,-50.84
06.234,-55.17
06.250,-59.4
06.265,-63.5
06.281,-67.27
06.296,-70.08
06.312,-71.06
06.328,-69.18
06.343,-63.94
06.359,-55.56
06.375,-45.06
06.390,-33.86
06.406,-23.26
06.421,-14.01
06.437,-6.15
06.453,0.72
06.468,7.17
06.484,13.62
06.500,20.24
06.515,27.01
06.531,33.72
06.546,40.08
06.562,45.62
06.578,49.82
06.593,52.21
06.609,52.64
06.625,51.31
06.640,48.82
06.656,45.95
06.671,43.35
06.687,41.38
06.703,40.02
06.718,39.04
06.734,38.17
06.750,37.26
06.765,36.3
06.781,35.29
06.796,34.22
06.812,32.99
06.828,31.57
06.843,29.96
06.859,28.21
06.875,26.39
06.890,24.48
06.906,22.38
06.921,19.97
06.937,17.27
06.953,14.44
06.968,11.86
06.984,9.86
07.000,8.55
07.015,7.79
07.031,7.19
07.046,6.37
07.062,5.05
07.078,3.15
07.093,0.68
07.109,-2.25
07.125,-5.61
07.140,-9.32
07.156,-13.24
07.171,-17.2
07.187,-20.95
07.203,-24.33
07.218,-27.26
07.234,-29.81
07.250,-32.08
07.265,-34.36
07.281,-36.92
07.296,-40.05
07.312,-43.97
07.328,-48.62
07.343,-53.65
07.359,-58.49
07.375,-62.43
07.390,-64.82
07.406,-65.27
07.421,-63.56
07.437,-59.67
07.453,-53.72
07.468,-45.93
07.484,-36.67
07.500,-26.55
07.515,-16.35
07.531,-6.88
07.546,1.23
07.562,7.79
07.578,12.98
07.593,17.23
07.609,21.02
07.625,24.62
07.640,27.98
07.656,30.89
07.671,33.05
07.687,34.32
07.703,34.78
07.718,34.61
07.734,33.95
07.750,32.97
07.765,31.68
07.781,30.2
07.796,28.79
07.812,27.78
07.828,27.57
07.843,28.27
07.859,29.68
07.875,31.21
07.890,32.15
07.906,31.93
07.921,30.39
07.937,27.84
07.953,24.93
07.968,22.33
07.984,20.44
08.000,19.29
08.015,18.44
08.031,17.38
08.046,15.71
08.062,13.39
08.078,10.71
08.093,8.06
08.109,5.74
08.125,3.77
08.140,1.94
08.156,-0.12
08.171,-2.67
08.187,-5.77
08.203,-9.31
08.218,-13.05
08.234,-16.74
08.250,-20.21
08.265,-23.37
08.281,-26.19
08.296,-28.76
08.312,-31.19
08.328,-33.59
08.343,-36.08
08.359,-38.71
08.375,-41.56
08.390,-44.63
08.406,-47.76
08.421,-50.57
08.437,-52.4
08.453,-52.47
08.468,-50.01
08.484,-44.77
08.500,-37.05
08.515,-27.76
08.531,-18.08
08.546,-9.05
08.562,-1.26
08.578,5.2
08.593,10.64
08.609,15.46
08.625,19.87
08.640,23.88
08.656,27.26
08.671,29.74
08.687,31.11
08.703,31.38
08.718,30.74
08.734,29.57
08.750,28.25
08.765,27.05
08.781,26.09
08.796,25.34
08.812,24.74
08.828,24.28
08.843,24.04
08.859,24.11
08.875,24.48
08.890,25.01
08.906,25.36
08.921,25.22
08.937,24.44
08.953,23.07
08.968,21.39
08.984,19.65
09.000,18.03
09.015,16.5
09.031,14.92
09.046,13.06
09.062,10.82
09.078,8.26
09.093,5.63
09.109,3.22
09.125,1.24
09.140,-0.28
09.156,-1.6
09.171,-3.08
09.187,-5.08
09.203,-7.74
09.218,-11.01
09.234,-14.63
09.250,-18.29
09.265,-21.78
09.281,-24.97
09.296,-27.87
09.312,-30.52
09.328,-32.98
09.343,-35.31
09.359,-37.67
09.375,-40.32
09.390,-43.57
09.406,-47.53
09.421,-51.99
09.437,-56.27
09.453,-59.36
09.468,-60.15
09.484,-57.84
09.500,-52.22
09.515,-43.81
09.531,-33.65
09.546,-22.94
09.562,-12.71
09.578,-3.53
09.593,4.44
09.609,11.32
09.625,17.29
09.640,22.48
09.656,26.98
09.671,30.87
09.687,34.29
09.703,37.34
09.718,40.0
09.734,42.06
09.750,43.23
09.765,43.25
09.781,42.07
09.796,39.97
09.812,37.48
09.828,35.19
09.843,33.54
09.859,32.73
09.875,32.55
09.890,32.62
09.906,32.49
09.921,31.87
09.937,30.7
09.953,29.23
09.968,27.75
09.984,26.49
10.000,25.55
10.015,24.71
10.031,23.69
10.046,22.23
10.062,20.25
10.078,17.86
10.093,15.32
10.109,12.79
10.125,10.27
10.140,7.6
10.156,4.62
10.171,1.3
10.187,-2.12
10.203,-5.22
10.218,-7.64
10.234,-9.33
10.250,-10.61
10.265,-12.09
10.281,-14.33
10.296,-17.53
10.312,-21.42
10.328,-25.4
10.343,-28.88
10.359,-31.57
10.375,-33.61
10.390,-35.4
10.406,-37.44
10.421,-40.02
10.437,-43.24
10.453,-46.91
10.468,-50.83
10.484,-54.74
10.500,-58.26
10.515,-60.8
10.531,-61.62
10.546,-60.0
10.562,-55.49
10.578,-48.18
10.593,-38.67
10.609,-27.97
10.625,-17.12
10.640,-7.07
10.656,1.67
10.671,8.93
10.687,14.79
10.703,19.55
10.718,23.55
10.734,27.07
10.750,30.3
10.765,33.3
10.781,35.96
10.796,38.08
10.812,39.46
10.828,40.01
10.843,39.77
10.859,38.87
10.875,37.53
10.890,35.95
10.906,34.36
10.921,32.99
10.937,32.03
10.953,31.57
10.968,31.59
10.984,31.93
11.000,32.26
11.015,32.25
11.031,31.62
11.046,30.26
11.062,28.28
11.078,25.99
11.093,23.72
11.109,21.69
11.125,20.01
11.140,18.5
11.156,16.9
11.171,14.99
11.187,12.68
11.203,10.03
11.218,7.26
11.234,4.59
11.250,2.17
11.265,0.08
11.281,-1.72
11.296,-3.34
11.312,-4.92
11.328,-6.63
11.343,-8.65
11.359,-11.02
11.375,-13.71
11.390,-16.61
11.406,-19.59
11.421,-22.61
11.437,-25.68
11.453,-28.82
11.468,-32.04
11.484,-35.4
11.500,-38.91
11.515,-42.59
11.531,-46.29
11.546,-49.62
11.562,-51.87
11.578,-52.18
11.593,-49.85
11.609,-44.67
11.625,-37.08
11.640,-28.05
11.656,-18.75
11.671,-10.15
11.687,-2.74
11.703,3.4
11.718,8.44
11.734,12.54
11.750,15.77
11.765,18.1
11.781,19.57
11.796,20.39
11.812,20.91
11.828,21.57
11.843,22.51
11.859,23.71
11.875,24.83
11.890,25.51
11.906,25.49
11.921,24.79
11.937,23.66
11.953,22.46
11.968,21.56
11.984,21.07
12.000,20.87
12.015,20.68
12.031,20.16
12.046,19.06
12.062,17.36
12.078,15.26
12.093,13.13
12.109,11.25
12.125,9.71
12.140,8.36
12.156,6.9
12.171,5.06
12.187,2.8
12.203,0.25
12.218,-2.29
12.234,-4.58
12.250,-6.57
12.265,-8.41
12.281,-10.4
12.296,-12.73
12.312,-15.5
12.328,-18.6
12.343,-21.82
12.359,-24.96
12.375,-27.9
12.390,-30.65
12.406,-33.29
12.421,-35.93
12.437,-38.67
12.453,-41.57
12.468,-44.66
12.484,-48.02
12.500,-51.69
12.515,-55.62
12.531,-59.52
12.546,-62.77
12.562,-64.51
12.578,-63.84
12.593,-60.14
12.609,-53.27
12.625,-43.71
12.640,-32.48
12.656,-20.81
12.671,-9.84
12.687,-0.3
12.703,7.56
12.718,13.92
12.734,19.17
12.750,23.66
12.765,27.57
12.781,30.88
12.796,33.48
12.812,35.34
12.828,36.55
12.843,37.29
12.859,37.68
12.875,37.78
12.890,37.5
12.906,36.76
12.921,35.6
12.937,34.21
12.953,32.93
12.968,32.03
12.984,31.58
13.000,31.4
13.015,31.13
13.031,30.4
13.046,29.01
13.062,27.0
13.078,24.66
13.093,22.38
13.109,20.43
13.125,18.96
13.140,17.83
13.156,16.8
13.171,15.59
13.187,14.01
13.203,12.03
13.218,9.79
13.234,7.43
13.250,5.07
13.265,2.74
13.281,0.39
13.296,-1.97
13.312,-4.29
13.328,-6.4
13.343,-8.19
13.359,-9.64
13.375,-10.98
13.390,-12.61
13.406,-14.94
13.421,-18.21
13.437,-22.28
13.453,-26.67
13.468,-30.76
13.484,-34.06
13.500,-36.51
13.515,-38.42
13.531,-40.43
13.546,-43.12
13.562,-46.76
13.578,-51.15
13.593,-55.56
13.609,-59.02
13.625,-60.49
13.640,-59.22
13.656,-54.99
13.671,-48.14
13.687,-39.41
13.703,-29.76
13.718,-20.11
13.734,-11.09
13.750,-3.03
13.765,3.89
13.781,9.67
13.796,14.38
13.812,18.21
13.828,21.5
13.843,24.67
13.859,28.07
13.875,31.83
13.890,35.71
13.906,39.19
13.921,41.66
13.937,42.75
13.953,42.47
13.968,41.16
13.984,39.38
14.000,37.64
14.015,36.27
14.031,35.28
14.046,34.53
14.062,33.87
14.078,33.29
14.093,32.85
14.109,32.59
14.125,32.38
14.140,31.95
14.156,30.98
14.171,29.26
14.187,26.82
14.203,24.03
14.218,21.36
14.234,19.24
14.250,17.81
14.265,16.93
14.281,16.16
14.296,15.06
14.312,13.29
14.328,10.79
14.343,7.7
14.359,4.33
14.375,0.9
14.390,-2.45
14.406,-5.7
14.421,-8.9
14.437,-12.05
14.453,-15.11
14.468,-18.0
14.484,-20.7
14.500,-23.29
14.515,-25.91
14.531,-28.68
14.546,-31.6
14.562,-34.67
14.578,-37.83
14.593,-41.04
14.609,-44.38
14.625,-47.93
14.640,-51.59
14.656,-55.01
14.671,-57.55
14.687,-58.38
14.703,-56.8
14.718,-52.45
14.734,-45.51
14.750,-36.71
14.765,-27.09
14.781,-17.72
14.796,-9.35
14.812,-2.3
14.828,3.59
14.843,8.67
14.859,13.28
14.875,17.58
14.890,21.44
14.906,24.62
14.921,26.89
14.937,28.21
14.953,28.74
14.968,28.76
14.984,28.51
15.000,28.17
15.015,27.78
15.031,27.28
15.046,26.62
15.062,25.84
15.078,25.02
15.093,24.31
15.109,23.83
15.125,23.52
15.140,23.21
15.156,22.68
15.171,21.65
15.187,20.02
15.203,17.91
15.218,15.51
15.234,13.13
15.250,10.91
15.265,8.77
15.281,6.43
15.296,3.67
15.312,0.41
15.328,-3.17
15.343,-6.66
15.359,-9.73
15.375,-12.16
15.390,-14.05
15.406,-15.66
15.421,-17.34
15.437,-19.36
15.453,-21.84
15.468,-24.71
15.484,-27.79
15.500,-30.86
15.515,-33.63
15.531,-36.02
15.546,-38.03
15.562,-39.95
15.578,-42.13
15.593,-44.9
15.609,-48.4
15.625,-52.45
15.640,-56.59
15.656,-60.1
15.671,-62.24
15.687,-62.31
15.703,-59.88
15.718,-54.81
15.734,-47.41
15.750,-38.32
15.765,-28.38
15.781,-18.5
15.796,-9.34
15.812,-1.29
15.828,5.63
15.843,11.66
15.859,17.06
15.875,22.08
15.890,26.82
15.906,31.22
15.921,35.11
15.937,38.3
15.953,40.62
15.968,42.01
15.984,42.58
16.000,42.52
16.015,42.13
16.031,41.62
16.046,41.17
16.062,40.75
16.078,40.31
16.093,39.8
16.109,39.16
16.125,38.45
16.140,37.73
16.156,37.04
16.171,36.28
16.187,35.38
16.203,34.19
16.218,32.68
16.234,30.94
16.250,29.14
16.265,27.36
16.281,25.58
16.296,23.65
16.312,21.33
16.328,18.57
16.343,15.48
16.359,12.32
16.375,9.37
16.390,6.76
16.406,4.42
16.421,2.13
16.437,-0.34
16.453,-3.06
16.468,-5.93
16.484,-8.76
16.500,-11.42
16.515,-13.93
16.531,-16.47
16.546,-19.23
16.562,-22.33
16.578,-25.7
16.593,-29.1
16.609,-32.29
16.625,-35.19
16.640,-38.0
16.656,-41.14
16.671,-45.09
16.687,-50.05
16.703,-55.72
16.718,-61.29
16.734,-65.57
16.750,-67.43
16.765,-66.12
16.781,-61.48
16.796,-53.97
16.812,-44.49
16.828,-34.1
16.843,-23.76
16.859,-14.13
16.875,-5.54
16.890,2.05
16.906,8.82
16.921,15.05
16.937,20.9
16.953,26.38
16.968,31.43
16.984,35.91
17.000,39.71
17.015,42.78
17.031,45.03
17.046,46.37
17.062,46.74
17.078,46.18
17.093,44.97
17.109,43.5
17.125,42.23
17.140,41.5
17.156,41.32
17.171,41.48
17.187,41.6
17.203,41.38
17.218,40.73
17.234,39.82
17.250,38.93
17.265,38.17
17.281,37.44
17.296,36.34
17.312,34.48
17.328,31.75
17.343,28.33
17.359,24.73
17.375,21.45
17.390,18.8
17.406,16.62
17.421,14.6
17.437,12.34
17.453,9.68
17.468,6.79
17.484,3.94
17.500,1.38
17.515,-0.89
17.531,-3.11
17.546,-5.6
17.562,-8.59
17.578,-12.08
17.593,-15.81
17.609,-19.45
17.625,-22.7
17.640,-25.5
17.656,-27.97
17.671,-30.48
17.687,-33.34
17.703,-36.77
17.718,-40.73
17.734,-44.98
17.750,-49.25
17.765,-53.44
17.781,-57.57
17.796,-61.6
17.812,-65.3
17.828,-67.95
17.843,-68.57
17.859,-66.23
17.875,-60.51
17.890,-51.75
17.906,-41.07
17.921,-29.93
17.937,-19.6
17.953,-10.81
17.968,-3.56
17.984,2.49
18.000,7.74
18.015,12.38
18.031,16.33
18.046,19.45
18.062,21.68
18.078,23.23
18.093,24.46
18.109,25.68
18.125,27.0
18.140,28.21
18.156,28.97
18.171,29.06
18.187,28.62
18.203,28.04
18.218,27.91
18.234,28.6
18.250,30.07
18.265,31.88
18.281,33.38
18.296,34.05
18.312,33.67
18.328,32.4
18.343,30.55
18.359,28.45
18.375,26.32
18.390,24.25
18.406,22.25
18.421,20.34
18.437,18.53
18.453,16.77
18.468,14.95
18.484,12.92
18.500,10.59
18.515,7.96
18.531,5.1
18.546,2.12
18.562,-0.93
18.578,-4.12
18.593,-7.57
18.609,-11.3
18.625,-15.25
18.640,-19.22
18.656,-22.98
18.671,-26.41
18.687,-29.59
18.703,-32.76
18.718,-36.19
18.734,-40.06
18.750,-44.32
18.765,-48.79
18.781,-53.13
18.796,-56.91
18.812,-59.64
18.828,-60.74
18.843,-59.65
18.859,-56.0
18.875,-49.76
18.890,-41.37
18.906,-31.64
18.921,-21.64
18.937,-12.27
18.953,-4.13
18.968,2.62
18.984,8.18
19.000,12.88
19.015,17.04
19.031,20.83
19.046,24.27
19.062,27.26
19.078,29.71
19.093,31.54
19.109,32.75
19.125,33.39
19.140,33.61
19.156,33.57
19.171,33.4
19.187,33.19
19.203,32.94
19.218,32.64
19.234,32.33
19.250,32.13
19.265,32.21
19.281,32.62
19.296,33.22
19.312,33.65
19.328,33.56
19.343,32.72
19.359,31.23
19.375,29.48
19.390,27.85
19.406,26.53
19.421,25.4
19.437,24.09
19.453,22.28
19.468,19.91
19.484,17.19
19.500,14.47
19.515,12.0
19.531,9.82
19.546,7.77
19.562,5.64
19.578,3.27
19.593,0.72
19.609,-1.86
19.625,-4.41
19.640,-6.93
19.656,-9.57
19.671,-12.5
19.687,-15.84
19.703,-19.55
19.718,-23.52
19.734,-27.55
19.750,-31.51
19.765,-35.4
19.781,-39.44
19.796,-43.88
19.812,-48.94
19.828,-54.58
19.843,-60.46
19.859,-65.91
19.875,-70.09
19.890,-72.17
19.906,-71.57
19.921,-68.1
19.937,-62.03
19.953,-54.01
19.968,-44.86
19.984,-35.38
20.000,-26.11
20.015,-17.34
20.031,-9.12
20.046,-1.38
20.062,5.93
20.078,12.79
20.093,19.2
20.109,25.13
20.125,30.63
20.140,35.71
20.156,40.31
20.171,44.18
20.187,46.99
20.203,48.52
20.218,48.72
20.234,47.85
20.250,46.38
20.265,44.81
20.281,43.44
20.296,42.36
20.312,41.42
20.328,40.39
20.343,39.18
20.359,37.86
20.375,36.6
20.390,35.62
20.406,35.01
20.421,34.74
20.437,34.58
20.453,34.25
20.468,33.44
20.484,32.02
20.500,29.95
20.515,27.4
20.531,24.55
20.546,21.58
20.562,18.59
20.578,15.57
20.593,12.51
20.609,9.47
20.625,6.62
20.640,4.12
20.656,2.1
20.671,0.49
20.687,-0.98
20.703,-2.59
20.718,-4.54
20.734,-6.88
20.750,-9.47
20.765,-12.23
20.781,-15.31
20.796,-18.97
20.812,-23.5
20.828,-28.94
20.843,-34.94
20.859,-40.82
20.875,-46.01
20.890,-50.28
20.906,-53.99
20.921,-57.84
20.937,-62.37
20.953,-67.54
20.968,-72.48
20.984,-75.81
21.000,-76.06
21.015,-72.3
21.031,-64.49
21.046,-53.52
21.062,-40.82
21.078,-27.92
21.093,-16.06
21.109,-5.89
21.125,2.44
21.140,9.1
21.156,14.36
21.171,18.42
21.187,21.32
21.203,23.11
21.218,23.91
21.234,24.03
21.250,23.93
21.265,24.12
21.281,24.85
21.296,26.15
21.312,27.75
21.328,29.31
21.343,30.55
21.359,31.4
21.375,31.95
21.390,32.38
21.406,32.83
21.421,33.27
21.437,33.65
21.453,33.91
21.468,34.11
21.484,34.37
21.500,34.79
21.515,35.36
21.531,35.85
21.546,35.88
21.562,35.1
21.578,33.31
21.593,30.54
21.609,27.03
21.625,23.1
21.640,19.08
21.656,15.22
21.671,11.63
21.687,8.3
21.703,5.11
21.718,1.96
21.734,-1.28
21.750,-4.66
21.765,-8.17
21.781,-11.81
21.796,-15.62
21.812,-19.65
21.828,-23.9
21.843,-28.24
21.859,-32.52
21.875,-36.62
21.890,-40.61
21.906,-44.76
21.921,-49.35
21.937,-54.39
21.953,-59.34
21.968,-63.19
21.984,-64.67
22.000,-62.84
22.015,-57.53
22.031,-49.41
22.046,-39.72
22.062,-29.81
22.078,-20.67
22.093,-12.71
22.109,-5.89
22.125,0.1
22.140,5.55
22.156,10.61
22.171,15.31
22.187,19.54
22.203,23.16
22.218,26.09
22.234,28.39
22.250,30.24
22.265,31.84
22.281,33.34
22.296,34.66
22.312,35.57
22.328,35.79
22.343,35.24
22.359,34.09
22.375,32.7
22.390,31.35
22.406,30.12
22.421,28.88
22.437,27.4
22.453,25.68
22.468,23.92
22.484,22.47
22.500,21.56
22.515,21.12
22.531,20.81
22.546,20.15
22.562,18.87
22.578,16.98
22.593,14.72
22.609,12.43
22.625,10.29
22.640,8.31
22.656,6.4
22.671,4.48
22.687,2.57
22.703,0.79
22.718,-0.73
22.734,-1.93
22.750,-2.9
22.765,-3.95
22.781,-5.44
22.796,-7.75
22.812,-11.1
22.828,-15.49
22.843,-20.67
22.859,-26.23
22.875,-31.65
22.890,-36.52
22.906,-40.6
22.921,-43.89
22.937,-46.61
22.953,-49.07
22.968,-51.61
22.984,-54.42
23.000,-57.47
23.015,-60.5
23.031,-63.01
23.046,-64.41
23.062,-64.04
23.078,-61.38
23.093,-56.15
23.109,-48.49
23.125,-38.9
23.140,-28.24
23.156,-17.45
23.171,-7.38
23.187,1.4
23.203,8.69
23.218,14.64
23.234,19.6
23.250,23.95
23.265,28.01
23.281,31.86
23.296,35.38
23.312,38.33
23.328,40.47
23.343,41.68
23.359,42.01
23.375,41.66
23.390,40.9
23.406,40.02
23.421,39.15
23.437,38.38
23.453,37.74
23.468,37.2
23.484,36.71
23.500,36.23
23.515,35.72
23.531,35.13
23.546,34.42
23.562,33.48
23.578,32.21
23.593,30.47
23.609,28.24
23.625,25.59
23.640,22.73
23.656,19.89
23.671,17.32
23.687,15.1
23.703,13.24
23.718,11.62
23.734,10.17
23.750,8.81
23.765,7.49
23.781,6.07
23.796,4.35
23.812,2.19
23.828,-0.4
23.843,-3.22
23.859,-5.95
23.875,-8.39
23.890,-10.53
23.906,-12.67
23.921,-15.12
23.937,-18.09
23.953,-21.45
23.968,-24.89
23.984,-28.03
24.000,-30.69
24.015,-32.94
24.031,-35.15
24.046,-37.75
24.062,-41.14
24.078,-45.54
24.093,-50.8
24.109,-56.41
24.125,-61.47
24.140,-64.81
24.156,-65.34
24.171,-62.42
24.187,-56.13
24.203,-47.26
24.218,-37.03
24.234,-26.65
24.250,-17.0
24.265,-8.5
24.281,-1.25
24.296,4.81
24.312,9.76
24.328,13.7
24.343,16.81
24.359,19.38
24.375,21.74
24.390,24.08
24.406,26.36
24.421,28.3
24.437,29.6
24.453,30.11
24.468,29.85
24.484,29.12
24.500,28.31
24.515,27.81
24.531,27.78
24.546,28.18
24.562,28.79
24.578,29.28
24.593,29.41
24.609,29.07
24.625,28.33
24.640,27.37
24.656,26.34
24.671,25.28
24.687,24.15
24.703,22.8
24.718,21.15
24.734,19.18
24.750,16.97
24.765,14.66
24.781,12.29
24.796,9.86
24.812,7.26
24.828,4.46
24.843,1.48
24.859,-1.56
24.875,-4.42
24.890,-7.02
24.906,-9.4
24.921,-11.84
24.937,-14.71
24.953,-18.25
24.968,-22.43
24.984,-26.96
25.000,-31.41
25.015,-35.37
25.031,-38.79
25.046,-41.88
25.062,-45.0
25.078,-48.42
25.093,-52.01
25.109,-55.2
25.125,-57.15
25.140,-57.04
25.156,-54.33
25.171,-49.06
25.187,-41.79
25.203,-33.31
25.218,-24.47
25.234,-15.86
25.250,-7.76
25.265,-0.29
25.281,6.42
25.296,12.19
25.312,16.78
25.328,20.1
25.343,22.32
25.359,23.81
25.375,25.06
25.390,26.46
25.406,28.05
25.421,29.59
25.437,30.72
25.453,31.17
25.468,30.95
25.484,30.36
25.500,29.78
25.515,29.53
25.531,29.71
25.546,30.09
25.562,30.29
25.578,29.97
25.593,28.98
25.609,27.5
25.625,25.84
25.640,24.28
25.656,22.85
25.671,21.37
25.687,19.43
25.703,16.73
25.718,13.25
25.734,9.29
25.750,5.41
25.765,2.07
25.781,-0.5
25.796,-2.46
25.812,-4.26
25.828,-6.41
25.843,-9.21
25.859,-12.68
25.875,-16.55
25.890,-20.34
25.906,-23.74
25.921,-26.6
25.937,-29.06
25.953,-31.44
25.968,-34.16
25.984,-37.51
26.000,-41.6
26.015,-46.27
26.031,-51.04
26.046,-55.2
26.062,-57.9
26.078,-58.38
26.093,-56.13
26.109,-51.02
26.125,-43.4
26.140,-34.01
26.156,-23.87
26.171,-13.98
26.187,-5.13
26.203,2.3
26.218,8.32
26.234,13.23
26.250,17.48
26.265,21.41
26.281,25.19
26.296,28.79
26.312,32.02
26.328,34.66
26.343,36.51
26.359,37.47
26.375,37.58
26.390,37.03
26.406,36.1
26.421,35.04
26.437,34.07
26.453,33.2
26.468,32.38
26.484,31.49
26.500,30.48
26.515,29.34
26.531,28.11
26.546,26.73
26.562,25.07
26.578,22.95
26.593,20.3
26.609,17.23
26.625,14.06
26.640,11.09
26.656,8.5
26.671,6.18
26.687,3.78
26.703,0.92
26.718,-2.58
26.734,-6.59
26.750,-10.76
26.765,-14.67
26.781,-18.11
26.796,-21.13
26.812,-23.98
26.828,-26.97
26.843,-30.23
26.859,-33.69
26.875,-37.25
26.890,-40.82
26.906,-44.51
26.921,-48.51
26.937,-52.86
26.953,-57.26
26.968,-60.98
26.984,-63.03
27.000,-62.44
27.015,-58.73
27.031,-52.06
27.046,-43.22
27.062,-33.31
27.078,-23.33
27.093,-13.86
27.109,-5.03
27.125,3.27
27.140,11.19
27.156,18.63
27.171,25.37
27.187,31.1
27.203,35.67
27.218,39.19
27.234,41.98
27.250,44.32
27.265,46.32
27.281,47.84
27.296,48.58
27.312,48.3
27.328,46.95
27.343,44.73
27.359,42.06
27.375,39.45
27.390,37.29
27.406,35.71
27.421,34.59
27.437,33.59
27.453,32.38
27.468,30.72
27.484,28.57
27.500,26.12
27.515,23.67
27.531,21.49
27.546,19.73
27.562,18.36
27.578,17.1
27.593,15.71
27.609,14.01
27.625,11.93
27.640,9.55
27.656,7.01
27.671,4.43
27.687,1.88
27.703,-0.64
27.718,-3.18
27.734,-5.83
27.750,-8.59
27.765,-11.49
27.781,-14.51
27.796,-17.64
27.812,-20.82
27.828,-23.97
27.843,-27.01
27.859,-29.81
27.875,-32.3
27.890,-34.5
27.906,-36.63
27.921,-39.06
27.937,-42.14
27.953,-45.99
27.968,-50.23
27.984,-54.04
28.000,-56.31
28.015,-56.02
28.031,-52.56
28.046,-46.03
28.062,-37.1
28.078,-26.8
28.093,-16.23
28.109,-6.24
28.125,2.68
28.140,10.36
28.156,16.86
28.171,22.41
28.187,27.23
28.203,31.48
28.218,35.26
28.234,38.49
28.250,41.1
28.265,42.95
28.281,43.91
28.296,43.87
28.312,42.85
28.328,41.0
28.343,38.6
28.359,36.09
28.375,33.88
28.390,32.35
28.406,31.66
28.421,31.74
28.437,32.26
28.453,32.77
28.468,32.85
28.484,32.25
28.500,30.89
28.515,28.89
28.531,26.48
28.546,23.81
28.562,20.9
28.578,17.7
28.593,14.17
28.609,10.36
28.625,6.61
28.640,3.3
28.656,0.72
28.671,-1.15
28.687,-2.71
28.703,-4.59
28.718,-7.38
28.734,-11.34
28.750,-16.29
28.765,-21.68
28.781,-26.94
28.796,-31.65
28.812,-35.71
28.828,-39.23
28.843,-42.37
28.859,-45.24
28.875,-47.8
28.890,-50.03
28.906,-52.01
28.921,-53.87
28.937,-55.7
28.953,-57.3
28.968,-58.1
28.984,-57.24
29.000,-53.92
29.015,-47.81
29.031,-39.26
29.046,-29.31
29.062,-19.28
29.078,-10.35
29.093,-3.05
29.109,2.75
29.125,7.7
29.140,12.49
29.156,17.48
29.171,22.57
29.187,27.31
29.203,31.23
29.218,34.04
29.234,35.8
29.250,36.77
29.265,37.23
29.281,37.35
29.296,37.09
29.312,36.28
29.328,34.83
29.343,32.85
29.359,30.68
29.375,28.79
29.390,27.58
29.406,27.15
29.421,27.27
29.437,27.47
29.453,27.23
29.468,26.24
29.484,24.54
29.500,22.45
29.515,20.38
29.531,18.55
29.546,16.97
29.562,15.43
29.578,13.64
29.593,11.43
29.609,8.83
29.625,6.05
29.640,3.36
29.656,0.9
29.671,-1.33
29.687,-3.48
29.703,-5.77
29.718,-8.33
29.734,-11.13
29.750,-14.07
29.765,-16.96
29.781,-19.69
29.796,-22.3
29.812,-24.99
29.828,-27.96
29.843,-31.32
29.859,-35.03
29.875,-38.91
29.890,-42.8
29.906,-46.66
29.921,-50.6
29.937,-54.83
29.953,-59.41
29.968,-63.99
29.984,-67.77
30.000,-69.68
30.015,-68.72
30.031,-64.45
30.046,-57.08
30.062,-47.41
30.078,-36.58
30.093,-25.61
30.109,-15.18
30.125,-5.64
30.140,2.95
30.156,10.56
30.171,17.11
30.187,22.53
30.203,26.89
30.218,30.41
30.234,33.56
30.250,36.72
30.265,40.07
30.281,43.4
30.296,46.18
30.312,47.82
30.328,47.97
30.343,46.75
30.359,44.73
30.375,42.68
30.390,41.18
30.406,40.39
30.421,40.07
30.437,39.7
30.453,38.92
30.468,37.63
30.484,36.0
30.500,34.33
30.515,32.76
30.531,31.23
30.546,29.5
30.562,27.39
30.578,24.81
30.593,21.89
30.609,18.91
30.625,16.14
30.640,13.74
30.656,11.71
30.671,9.89
30.687,8.07
30.703,6.14
30.718,4.04
30.734,1.89
30.750,-0.21
30.765,-2.18
30.781,-4.05
30.796,-5.97
30.812,-8.19
30.828,-10.94
30.843,-14.32
30.859,-18.24
30.875,-22.39
30.890,-26.4
30.906,-29.9
30.921,-32.72
30.937,-34.9
30.953,-36.73
30.968,-38.52
30.984,-40.57
31.000,-43.04
31.015,-45.85
31.031,-48.83
31.046,-51.62
31.062,-53.73
31.078,-54.52
31.093,-53.25
31.109,-49.38
31.125,-42.75
31.140,-33.78
31.156,-23.43
31.171,-12.97
31.187,-3.54
31.203,4.11
31.218,9.83
31.234,13.96
31.250,17.11
31.265,19.81
31.281,22.33
31.296,24.62
31.312,26.48
31.328,27.8
31.343,28.66
31.359,29.36
31.375,30.11
31.390,30.93
31.406,31.52
31.421,31.34
31.437,30.06
31.453,27.73
31.468,24.9
31.484,22.38
31.500,20.82
31.515,20.41
31.531,20.78
31.546,21.3
31.562,21.38
31.578,20.79
31.593,19.69
31.609,18.49
31.625,17.55
31.640,17.05
31.656,16.83
31.671,16.55
31.687,15.89
31.703,14.64
31.718,12.81
31.734,10.59
31.750,8.25
31.765,6.0
31.781,3.89
31.796,1.8
31.812,-0.47
31.828,-3.05
31.843,-5.92
31.859,-8.96
31.875,-12.02
31.890,-15.08
31.906,-18.22
31.921,-21.6
31.937,-25.28
31.953,-29.18
31.968,-33.09
31.984,-36.76
32.000,-40.08
32.015,-43.08
32.031,-45.94
32.046,-48.69
32.062,-51.13
32.078,-52.75
32.093,-52.88
32.109,-50.9
32.125,-46.48
32.140,-39.75
32.156,-31.3
32.171,-22.02
32.187,-12.84
32.203,-4.48
32.218,2.73
32.234,8.8
32.250,13.94
32.265,18.35
32.281,22.06
32.296,24.98
32.312,27.0
32.328,28.08
32.343,28.36
32.359,28.18
32.375,27.88
32.390,27.71
32.406,27.73
32.421,27.75
32.437,27.58
32.453,27.06
32.468,26.18
32.484,25.16
32.500,24.33
32.515,23.96
32.531,24.03
32.546,24.31
32.562,24.32
32.578,23.69
32.593,22.31
32.609,20.36
32.625,18.29
32.640,16.6
32.656,15.54
32.671,14.97
32.687,14.55
32.703,13.81
32.718,12.33
32.734,10.03
32.750,7.02
32.765,3.6
32.781,0.13
32.796,-3.16
32.812,-6.17
32.828,-9.0
32.843,-11.83
32.859,-14.84
32.875,-18.05
32.890,-21.41
32.906,-24.76
32.921,-27.99
32.937,-31.01
32.953,-33.82
32.968,-36.43
32.984,-38.88
33.000,-41.27
33.015,-43.73
33.031,-46.51
33.046,-49.83
33.062,-53.76
33.078,-58.02
33.093,-61.96
33.109,-64.61
33.125,-65.01
33.140,-62.52
33.156,-57.09
33.171,-49.27
33.187,-40.04
33.203,-30.46
33.218,-21.36
33.234,-13.21
33.250,-6.09
33.265,0.17
33.281,5.82
33.296,11.0
33.312,15.79
33.328,20.26
33.343,24.46
33.359,28.44
33.375,32.19
33.390,35.61
33.406,38.45
33.421,40.4
33.437,41.21
33.453,40.85
33.468,39.59
33.484,37.91
33.500,36.35
33.515,35.29
33.531,34.83
33.546,34.78
33.562,34.78
33.578,34.5
33.593,33.79
33.609,32.6
33.625,31.01
33.640,29.07
33.656,26.82
33.671,24.23
33.687,21.34
33.703,18.32
33.718,15.42
33.734,12.95
33.750,11.09
33.765,9.78
33.781,8.8
33.796,7.75
33.812,6.3
33.828,4.31
33.843,1.9
33.859,-0.62
33.875,-2.92
33.890,-4.81
33.906,-6.38
33.921,-7.98
33.937,-10.04
33.953,-12.85
33.968,-16.41
33.984,-20.43
34.000,-24.48
34.015,-28.2
34.031,-31.42
34.046,-34.24
34.062,-36.92
34.078,-39.73
34.093,-42.87
34.109,-46.41
34.125,-50.32
34.140,-54.53
34.156,-58.82
34.171,-62.81
34.187,-65.85
34.203,-67.12
34.218,-65.83
34.234,-61.49
34.250,-54.2
34.265,-44.61
34.281,-33.89
34.296,-23.32
34.312,-13.95
34.328,-6.27
34.343,-0.19
34.359,4.86
34.375,9.58
34.390,14.47
34.406,19.67
34.421,24.9
34.437,29.69
34.453,33.62
34.468,36.45
34.484,38.26
34.500,39.2
34.515,39.43
34.531,39.05
34.546,38.13
34.562,36.79
34.578,35.28
34.593,33.94
34.609,33.06
34.625,32.82
34.640,33.16
34.656,33.74
34.671,34.14
34.687,33.95
34.703,32.93
34.718,31.08
34.734,28.63
34.750,25.98
34.765,23.51
34.781,21.44
34.796,19.68
34.812,17.94
34.828,15.9
34.843,13.34
34.859,10.24
34.875,6.84
34.890,3.45
34.906,0.42
34.921,-2.13
34.937,-4.2
34.953,-6.01
34.968,-7.86
34.984,-10.01
35.000,-12.58
35.015,-15.52
35.031,-18.63
35.046,-21.61
35.062,-24.28
35.078,-26.56
35.093,-28.61
35.109,-30.74
35.125,-33.25
35.140,-36.36
35.156,-40.16
35.171,-44.52
35.187,-49.09
35.203,-53.28
35.218,-56.31
35.234,-57.29
35.250,-55.48
35.265,-50.58
35.281,-42.86
35.296,-33.24
35.312,-22.93
35.328,-13.08
35.343,-4.47
35.359,2.67
35.375,8.48
35.390,13.23
35.406,17.16
35.421,20.38
35.437,23.03
35.453,25.19
35.468,27.1
35.484,28.86
35.500,30.51
35.515,31.83
35.531,32.64
35.546,32.8
35.562,32.31
35.578,31.37
35.593,30.27
35.609,29.33
35.625,28.73
35.640,28.56
35.656,28.68
35.671,28.82
35.687,28.67
35.703,27.96
35.718,26.53
35.734,24.46
35.750,21.95
35.765,19.3
35.781,16.78
35.796,14.54
35.812,12.65
35.828,11.07
35.843,9.67
35.859,8.32
35.875,6.87
35.890,5.2
35.906,3.2
35.921,0.81
35.937,-1.96
35.953,-5.1
35.968,-8.51
35.984,-12.04
36.000,-15.53
36.015,-18.85
36.031,-21.98
36.046,-24.99
36.062,-28.03
36.078,-31.22
36.093,-34.62
36.109,-38.22
36.125,-41.97
36.140,-45.82
36.156,-49.79
36.171,-53.91
36.187,-58.02
36.203,-61.76
36.218,-64.43
36.234,-65.19
36.250,-63.33
36.265,-58.51
36.281,-50.94
36.296,-41.34
36.312,-30.73
36.328,-20.18
36.343,-10.43
36.359,-1.85
36.375,5.59
36.390,12.16
36.406,18.11
36.421,23.63
36.437,28.75
36.453,33.33
36.468,37.2
36.484,40.26
36.500,42.49
36.515,43.92
36.531,44.65
36.546,44.77
36.562,44.37
36.578,43.68
36.593,42.91
36.609,42.27
36.625,41.85
36.640,41.56
36.656,41.18
36.671,40.47
36.687,39.25
36.703,37.48
36.718,35.26
36.734,32.79
36.750,30.28
36.765,27.9
36.781,25.76
36.796,23.92
36.812,22.41
36.828,21.1
36.843,19.88
36.859,18.59
36.875,17.17
36.890,15.62
36.906,13.96
36.921,12.18
36.937,10.17
36.953,7.82
36.968,5.0
36.984,1.78
37.000,-1.62
37.015,-4.96
37.031,-8.02
37.046,-10.84
37.062,-13.66
37.078,-16.74
37.093,-20.18
37.109,-23.85
37.125,-27.42
37.140,-30.59
37.156,-33.31
37.171,-35.74
37.187,-38.28
37.203,-41.35
37.218,-45.15
37.234,-49.62
37.250,-54.46
37.265,-59.18
37.281,-63.23
37.296,-66.04
37.312,-66.98
37.328,-65.57
37.343,-61.57
37.359,-55.06
37.375,-46.45
37.390,-36.38
37.406,-25.48
37.421,-14.37
37.437,-3.57
37.453,6.45
37.468,15.23
37.484,22.39
37.500,27.8
37.515,31.66
37.531,34.39
37.546,36.52
37.562,38.35
37.578,39.94
37.593,41.14
37.609,41.78
37.625,41.86
37.640,41.53
37.656,41.02
37.671,40.44
37.687,39.76
37.703,38.89
37.718,37.78
37.734,36.53
37.750,35.31
37.765,34.22
37.781,33.24
37.796,32.17
37.812,30.8
37.828,29.07
37.843,27.08
37.859,25.01
37.875,23.1
37.890,21.45
37.906,20.02
37.921,18.72
37.937,17.39
37.953,15.88
37.968,14.09
37.984,11.99
38.000,9.59
38.015,6.96
38.031,4.22
38.046,1.49
38.062,-1.2
38.078,-3.88
38.093,-6.62
38.109,-9.48
38.125,-12.38
38.140,-15.22
38.156,-17.87
38.171,-20.38
38.187,-22.93
38.203,-25.75
38.218,-29.02
38.234,-32.78
38.250,-36.83
38.265,-40.91
38.281,-44.85
38.296,-48.57
38.312,-52.07
38.328,-55.2
38.343,-57.55
38.359,-58.5
38.375,-57.32
38.390,-53.53
38.406,-47.15
38.421,-38.79
38.437,-29.36
38.453,-19.87
38.468,-11.07
38.484,-3.29
38.500,3.48
38.515,9.44
38.531,14.76
38.546,19.52
38.562,23.62
38.578,26.99
38.593,29.59
38.609,31.45
38.625,32.71
38.640,33.45
38.656,33.71
38.671,33.45
38.687,32.63
38.703,31.33
38.718,29.75
38.734,28.2
38.750,27.01
38.765,26.45
38.781,26.66
38.796,27.49
38.812,28.63
38.828,29.62
38.843,30.02
38.859,29.6
38.875,28.33
38.890,26.41
38.906,24.2
38.921,21.91
38.937,19.59
38.953,17.12
38.968,14.3
38.984,11.07
39.000,7.59
39.015,4.19
39.031,1.17
39.046,-1.34
39.062,-3.51
39.078,-5.66
39.093,-8.05
39.109,-10.77
39.125,-13.68
39.140,-16.59
39.156,-19.38
39.171,-22.12
39.187,-24.92
39.203,-27.89
39.218,-31.0
39.234,-34.06
39.250,-37.07
39.265,-40.17
39.281,-43.69
39.296,-47.96
39.312,-52.89
39.328,-57.79
39.343,-61.56
39.359,-62.87
39.375,-60.75
39.390,-54.98
39.406,-46.17
39.421,-35.53
39.437,-24.48
39.453,-14.24
39.468,-5.42
39.484,1.91
39.500,8.12
39.515,13.75
39.531,19.15
39.546,24.4
39.562,29.31
39.578,33.54
39.593,36.81
39.609,39.09
39.625,40.44
39.640,41.07
39.656,41.08
39.671,40.52
39.687,39.49
39.703,38.2
39.718,36.99
39.734,36.24
39.750,36.16
39.765,36.61
39.781,37.21
39.796,37.49
39.812,37.14
39.828,36.16
39.843,34.73
39.859,33.12
39.875,31.53
39.890,29.95
39.906,28.3
39.921,26.49
39.937,24.54
39.953,22.48
39.968,20.34
39.984,18.09
40.000,15.67
40.015,13.06
40.031,10.28
40.046,7.41
40.062,4.46
40.078,1.49
40.093,-1.51
40.109,-4.5
40.125,-7.45
40.140,-10.33
40.156,-13.22
40.171,-16.21
40.187,-19.4
40.203,-22.82
40.218,-26.33
40.234,-29.7
40.250,-32.7
40.265,-35.24
40.281,-37.43
40.296,-39.51
40.312,-41.83
40.328,-44.71
40.343,-48.34
40.359,-52.68
40.375,-57.39
40.390,-61.8
40.406,-65.03
40.421,-66.21
40.437,-64.78
40.453,-60.59
40.468,-53.95
40.484,-45.53
40.500,-36.06
40.515,-26.28
40.531,-16.73
40.546,-7.82
40.562,0.17
40.578,7.12
40.593,13.11
40.609,18.38
40.625,23.25
40.640,28.0
40.656,32.68
40.671,37.03
40.687,40.63
40.703,43.02
40.718,43.91
40.734,43.38
40.750,41.87
40.765,39.98
40.781,38.37
40.796,37.42
40.812,37.18
40.828,37.44
40.843,37.81
40.859,37.94
40.875,37.64
40.890,36.87
40.906,35.73
40.921,34.29
40.937,32.5
40.953,30.28
40.968,27.62
40.984,24.68
41.000,21.79
41.015,19.31
41.031,17.41
41.046,15.98
41.062,14.66
41.078,12.97
41.093,10.61
41.109,7.55
41.125,4.0
41.140,0.35
41.156,-3.13
41.171,-6.32
41.187,-9.25
41.203,-11.99
41.218,-14.57
41.234,-16.96
41.250,-19.09
41.265,-20.97
41.281,-22.68
41.296,-24.34
41.312,-26.07
41.328,-27.95
41.343,-29.97
41.359,-32.14
41.375,-34.44
41.390,-36.97
41.406,-39.82
41.421,-43.13
41.437,-46.91
41.453,-50.88
41.468,-54.47
41.484,-56.83
41.500,-57.07
41.515,-54.54
41.531,-49.13
41.546,-41.38
41.562,-32.23
41.578,-22.87
41.593,-14.22
41.609,-6.79
41.625,-0.53
41.640,4.97
41.656,10.19
41.671,15.43
41.687,20.71
41.703,25.74
41.718,30.08
41.734,33.34
41.750,35.25
41.765,35.85
41.781,35.35
41.796,34.07
41.812,32.32
41.828,30.31
41.843,28.18
41.859,26.07
41.875,24.2
41.890,22.76
41.906,21.97
41.921,21.85
41.937,22.19
41.953,22.62
41.968,22.72
41.984,22.23
42.000,21.1
42.015,19.52
42.031,17.77
42.046,16.03
42.062,14.35
42.078,12.59
42.093,10.57
42.109,8.22
42.125,5.6
42.140,2.91
42.156,0.42
42.171,-1.63
42.187,-3.15
42.203,-4.19
42.218,-4.94
42.234,-5.67
42.250,-6.6
42.265,-7.91
42.281,-9.59
42.296,-11.58
42.312,-13.79
42.328,-16.21
42.343,-18.9
42.359,-22.07
42.375,-25.92
42.390,-30.59
42.406,-36.1
42.421,-42.3
42.437,-48.74
42.453,-54.8
42.468,-59.64
42.484,-62.38
42.500,-62.35
42.515,-59.2
42.531,-53.07
42.546,-44.52
42.562,-34.48
42.578,-24.03
42.593,-14.16
42.609,-5.57
42.625,1.52
42.640,7.29
42.656,12.27
42.671,17.05
42.687,22.05
42.703,27.22
42.718,32.12
42.734,36.13
42.750,38.75
42.765,39.86
42.781,39.68
42.796,38.69
42.812,37.36
42.828,35.9
42.843,34.39
42.859,32.82
42.875,31.33
42.890,30.21
42.906,29.76
42.921,30.08
42.937,30.95
42.953,31.86
42.968,32.2
42.984,31.59
43.000,30.05
43.015,27.88
43.031,25.53
43.046,23.38
43.062,21.52
43.078,19.81
43.093,18.01
43.109,16.0
43.125,13.86
43.140,11.81
43.156,10.08
43.171,8.68
43.187,7.45
43.203,6.09
43.218,4.28
43.234,1.88
43.250,-1.01
43.265,-4.09
43.281,-7.06
43.296,-9.69
43.312,-12.03
43.328,-14.29
43.343,-16.76
43.359,-19.69
43.375,-23.11
43.390,-26.82
43.406,-30.52
43.421,-33.88
43.437,-36.75
43.453,-39.13
43.468,-41.22
43.484,-43.29
43.500,-45.57
43.515,-48.28
43.531,-51.46
43.546,-55.03
43.562,-58.62
43.578,-61.61
43.593,-63.21
43.609,-62.69
43.625,-59.6
43.640,-53.96
43.656,-46.27
43.671,-37.32
43.687,-27.92
43.703,-18.77
43.718,-10.31
43.734,-2.78
43.750,3.76
43.765,9.4
43.781,14.33
43.796,18.86
43.812,23.22
43.828,27.45
43.843,31.37
43.859,34.65
43.875,37.02
43.890,38.42
43.906,39.03
43.921,39.1
43.937,38.84
43.953,38.27
43.968,37.35
43.984,36.07
44.000,34.62
44.015,33.33
44.031,32.58
44.046,32.48
44.062,32.89
44.078,33.4
44.093,33.49
44.109,32.77
44.125,31.09
44.140,28.62
44.156,25.62
44.171,22.49
44.187,19.52
44.203,16.86
44.218,14.61
44.234,12.78
44.250,11.33
44.265,10.22
44.281,9.33
44.296,8.52
44.312,7.59
44.328,6.4
44.343,4.84
44.359,2.92
44.375,0.72
44.390,-1.63
44.406,-3.99
44.421,-6.33
44.437,-8.71
44.453,-11.24
44.468,-14.11
44.484,-17.37
44.500,-20.97
44.515,-24.73
44.531,-28.45
44.546,-31.92
44.562,-35.09
44.578,-38.1
44.593,-41.15
44.609,-44.48
44.625,-48.21
44.640,-52.22
44.656,-56.17
44.671,-59.54
44.687,-61.65
44.703,-61.92
44.718,-59.92
44.734,-55.5
44.750,-48.89
44.765,-40.53
44.781,-31.06
44.796,-21.15
44.812,-11.49
44.828,-2.67
44.843,4.82
44.859,10.77
44.875,15.27
44.890,18.69
44.906,21.6
44.921,24.44
44.937,27.37
44.953,30.19
44.968,32.5
44.984,33.92
45.000,34.36
45.015,34.04
45.031,33.33
45.046,32.62
45.062,32.12
45.078,31.86
45.093,31.78
45.109,31.8
45.125,31.82
45.140,31.74
45.156,31.41
45.171,30.68
45.187,29.41
45.203,27.57
45.218,25.23
45.234,22.53
45.250,19.66
45.265,16.74
45.281,13.82
45.296,10.91
45.312,7.99
45.328,5.04
45.343,2.0
45.359,-1.06
45.375,-4.02
45.390,-6.75
45.406,-9.08
45.421,-11.07
45.437,-12.93
45.453,-15.0
45.468,-17.54
45.484,-20.67
45.500,-24.23
45.515,-27.86
45.531,-31.24
45.546,-34.13
45.562,-36.55
45.578,-38.75
45.593,-41.08
45.609,-43.86
45.625,-47.32
45.640,-51.41
45.656,-55.76
45.671,-59.67
45.687,-62.2
45.703,-62.49
45.718,-59.96
45.734,-54.57
45.750,-46.78
45.765,-37.35
45.781,-27.19
45.796,-17.0
45.812,-7.31
45.828,1.57
45.843,9.43
45.859,16.16
45.875,21.8
45.890,26.51
45.906,30.62
45.921,34.38
45.937,37.86
45.953,40.89
45.968,43.13
45.984,44.3
46.000,44.29
46.015,43.27
46.031,41.57
46.046,39.58
46.062,37.61
46.078,35.85
46.093,34.37
46.109,33.28
46.125,32.66
46.140,32.53
46.156,32.82
46.171,33.26
46.187,33.52
46.203,33.21
46.218,32.12
46.234,30.19
46.250,27.59
46.265,24.64
46.281,21.61
46.296,18.76
46.312,16.06
46.328,13.41
46.343,10.6
46.359,7.5
46.375,4.09
46.390,0.53
46.406,-2.88
46.421,-5.86
46.437,-8.18
46.453,-9.88
46.468,-11.12
46.484,-12.17
46.500,-13.29
46.515,-14.67
46.531,-16.41
46.546,-18.56
46.562,-21.11
46.578,-24.06
46.593,-27.32
46.609,-30.74
46.625,-34.16
46.640,-37.55
46.656,-41.07
46.671,-45.1
46.687,-50.07
46.703,-56.16
46.718,-63.03
46.734,-69.7
46.750,-74.73
46.765,-76.67
46.781,-74.49
46.796,-68.02
46.812,-57.95
46.828,-45.64
46.843,-32.65
46.859,-20.33
46.875,-9.5
46.890,-0.37
46.906,7.24
46.921,13.76
46.937,19.56
46.953,24.88
46.968,29.81
46.984,34.38
47.000,38.51
47.015,42.1
47.031,44.93
47.046,46.75
47.062,47.42
47.078,46.95
47.093,45.58
47.109,43.77
47.125,42.03
47.140,40.78
47.156,40.12
47.171,39.9
47.187,39.76
47.203,39.41
47.218,38.69
47.234,37.64
47.250,36.38
47.265,35.05
47.281,33.73
47.296,32.44
47.312,31.16
47.328,29.77
47.343,28.22
47.359,26.44
47.375,24.43
47.390,22.24
47.406,19.98
47.421,17.75
47.437,15.65
47.453,13.66
47.468,11.66
47.484,9.47
47.500,6.93
47.515,3.99
47.531,0.74
47.546,-2.6
47.562,-5.82
47.578,-8.75
47.593,-11.38
47.609,-13.85
47.625,-16.41
47.640,-19.19
47.656,-22.17
47.671,-25.18
47.687,-27.99
47.703,-30.54
47.718,-32.96
47.734,-35.52
47.750,-38.49
47.765,-41.98
47.781,-45.91
47.796,-49.98
47.812,-53.76
47.828,-56.8
47.843,-58.58
47.859,-58.6
47.875,-56.42
47.890,-51.78
47.906,-44.74
47.921,-35.81
47.937,-25.85
47.953,-15.87
47.968,-6.76
47.984,0.98
48.000,7.25
48.015,12.3
48.031,16.55
48.046,20.33
48.062,23.81
48.078,26.92
48.093,29.52
48.109,31.49
48.125,32.81
48.140,33.6
48.156,34.0
48.171,34.11
48.187,33.96
48.203,33.58
48.218,33.08
48.234,32.58
48.250,32.3
48.265,32.36
48.281,32.72
48.296,33.22
48.312,33.65
48.328,33.8
48.343,33.55
48.359,32.86
48.375,31.73
48.390,30.19
48.406,28.34
48.421,26.29
48.437,24.13
48.453,21.85
48.468,19.39
48.484,16.61
48.500,13.45
48.515,10.02
48.531,6.63
48.546,3.6
48.562,1.09
48.578,-1.04
48.593,-3.18
48.609,-5.8
48.625,-9.2
48.640,-13.35
48.656,-17.92
48.671,-22.4
48.687,-26.35
48.703,-29.57
48.718,-32.17
48.734,-34.5
48.750,-37.02
48.765,-40.12
48.781,-43.98
48.796,-48.46
48.812,-53.16
48.828,-57.44
48.843,-60.55
48.859,-61.67
48.875,-60.16
48.890,-55.63
48.906,-48.23
48.921,-38.57
48.937,-27.66
48.953,-16.65
48.968,-6.54
48.984,2.09
49.000,9.19
49.015,15.1
49.031,20.36
49.046,25.38
49.062,30.32
49.078,35.0
49.093,39.07
49.109,42.18
49.125,44.09
49.140,44.81
49.156,44.47
49.171,43.31
49.187,41.54
49.203,39.38
49.218,36.99
49.234,34.63
49.250,32.59
49.265,31.13
49.281,30.3
49.296,29.94
49.312,29.69
49.328,29.13
49.343,27.97
49.359,26.19
49.375,23.95
49.390,21.6
49.406,19.4
49.421,17.43
49.437,15.58
49.453,13.66
49.468,11.55
49.484,9.26
49.500,6.98
49.515,4.94
49.531,3.26
49.546,1.95
49.562,0.78
49.578,-0.55
49.593,-2.31
49.609,-4.59
49.625,-7.34
49.640,-10.27
49.656,-13.13
49.671,-15.84
49.687,-18.44
49.703,-21.19
49.718,-24.34
49.734,-27.93
49.750,-31.79
49.765,-35.53
49.781,-38.8
49.796,-41.4
49.812,-43.42
49.828,-45.08
49.843,-46.73
49.859,-48.59
49.875,-50.81
49.890,-53.41
49.906,-56.23
49.921,-58.83
49.937,-60.55
49.953,-60.63
49.968,-58.35
49.984,-53.45
50.000,-46.17
50.015,-37.26
50.031,-27.75
50.046,-18.57
50.062,-10.34
50.078,-3.32
50.093,2.54
50.109,7.48
50.125,11.79
50.140,15.73
50.156,19.51
50.171,23.27
50.187,27.01
50.203,30.63
50.218,33.9
50.234,36.62
50.250,38.62
50.265,39.84
50.281,40.32
50.296,40.15
50.312,39.45
50.328,38.36
50.343,37.1
50.359,35.88
50.375,34.92
50.390,34.34
50.406,34.08
50.421,33.95
50.437,33.67
50.453,33.0
50.468,31.83
50.484,30.21
50.500,28.23
50.515,26.08
50.531,23.93
50.546,21.91
50.562,20.07
50.578,18.39
50.593,16.72
50.609,14.9
50.625,12.75
50.640,10.23
50.656,7.42
50.671,4.55
50.687,1.8
50.703,-0.68
50.718,-2.87
50.734,-4.88
50.750,-6.79
50.765,-8.66
50.781,-10.51
50.796,-12.37
50.812,-14.33
50.828,-16.52
50.843,-19.05
50.859,-21.94
50.875,-25.08
50.890,-28.27
50.906,-31.38
50.921,-34.42
50.937,-37.58
50.953,-41.14
50.968,-45.32
50.984,-49.95
51.000,-54.5
51.015,-57.99
51.031,-59.35
51.046,-57.73
51.062,-52.8
51.078,-44.97
51.093,-35.17
51.109,-24.62
51.125,-14.41
51.140,-5.3
51.156,2.36
51.171,8.6
51.187,13.57
51.203,17.5
51.218,20.58
51.234,23.02
51.250,24.98
51.265,26.63
51.281,28.09
51.296,29.4
51.312,30.5
51.328,31.35
51.343,31.85
51.359,31.94
51.375,31.67
51.390,31.13
51.406,30.53
51.421,30.0
51.437,29.53
51.453,28.96
51.468,28.07
51.484,26.69
51.500,24.84
51.515,22.83
51.531,21.05
51.546,19.78
51.562,19.02
51.578,18.42
51.593,17.51
51.609,15.86
51.625,13.39
51.640,10.27
51.656,6.94
51.671,3.77
51.687,0.96
51.703,-1.61
51.718,-4.23
51.734,-7.18
51.750,-10.52
51.765,-14.05
51.781,-17.47
51.796,-20.48
51.812,-23.04
51.828,-25.33
51.843,-27.64
51.859,-30.17
51.875,-32.91
51.890,-35.7
51.906,-38.43
51.921,-41.11
51.937,-43.95
51.953,-47.19
51.968,-50.75
51.984,-54.12
52.000,-56.37
52.015,-56.48
52.031,-53.79
52.046,-48.3
52.062,-40.67
52.078,-31.98
52.093,-23.36
52.109,-15.55
52.125,-8.76
52.140,-2.81
52.156,2.67
52.171,7.93
52.187,12.98
52.203,17.71
52.218,21.87
52.234,25.29
52.250,27.91
52.265,29.79
52.281,30.97
52.296,31.49
52.312,31.27
52.328,30.22
52.343,28.35
52.359,25.91
52.375,23.36
52.390,21.3
52.406,20.29
52.421,20.55
52.437,21.94
52.453,23.95
52.468,25.94
52.484,27.36
52.500,27.9
52.515,27.54
52.531,26.41
52.546,24.81
52.562,22.98
52.578,21.19
52.593,19.6
52.609,18.31
52.625,17.28
52.640,16.38
52.656,15.37
52.671,13.94
52.687,11.86
52.703,9.03
52.718,5.52
52.734,1.62
52.750,-2.29
52.765,-5.88
52.781,-8.98
52.796,-11.68
52.812,-14.28
52.828,-17.14
52.843,-20.52
52.859,-24.44
52.875,-28.64
52.890,-32.76
52.906,-36.53
52.921,-39.86
52.937,-42.91
52.953,-46.0
52.968,-49.42
52.984,-53.28
53.000,-57.45
53.015,-61.43
53.031,-64.45
53.046,-65.75
53.062,-64.72
53.078,-61.09
53.093,-55.04
53.109,-47.07
53.125,-37.91
53.140,-28.29
53.156,-18.85
53.171,-10.03
53.187,-2.11
53.203,4.88
53.218,11.02
53.234,16.53
53.250,21.65
53.265,26.49
53.281,30.99
53.296,34.86
53.312,37.77
53.328,39.44
53.343,39.86
53.359,39.29
53.375,38.15
53.390,36.96
53.406,36.08
53.421,35.63
53.437,35.49
53.453,35.47
53.468,35.33
53.484,35.02
53.500,34.67
53.515,34.4
53.531,34.3
53.546,34.27
53.562,34.02
53.578,33.15
53.593,31.4
53.609,28.67
53.625,25.21
53.640,21.46
53.656,17.89
53.671,14.82
53.687,12.22
53.703,9.89
53.718,7.53
53.734,5.02
53.750,2.48
53.765,0.29
53.781,-1.27
53.796,-2.19
53.812,-2.82
53.828,-3.75
53.843,-5.5
53.859,-8.24
53.875,-11.74
53.890,-15.51
53.906,-19.02
53.921,-22.0
53.937,-24.61
53.953,-27.14
53.968,-29.94
53.984,-33.15
54.000,-36.69
54.015,-40.41
54.031,-44.16
54.046,-47.9
54.062,-51.58
54.078,-55.07
54.093,-57.88
54.109,-59.29
54.125,-58.53
54.140,-55.08
54.156,-48.91
54.171,-40.61
54.187,-31.13
54.203,-21.52
54.218,-12.63
54.234,-4.87
54.250,1.69
54.265,7.21
54.281,11.93
54.296,16.08
54.312,19.79
54.328,23.1
54.343,25.99
54.359,28.34
54.375,30.1
54.390,31.21
54.406,31.69
54.421,31.67
54.437,31.26
54.453,30.58
54.468,29.78
54.484,29.01
54.500,28.43
54.515,28.27
54.531,28.61
54.546,29.35
54.562,30.16
54.578,30.52
54.593,30.02
54.609,28.55
54.625,26.37
54.640,23.93
54.656,21.67
54.671,19.79
54.687,18.11
54.703,16.33
54.718,14.1
54.734,11.3
54.750,8.1
54.765,4.87
54.781,1.92
54.796,-0.62
54.812,-2.84
54.828,-4.99
54.843,-7.2
54.859,-9.54
54.875,-11.97
54.890,-14.34
54.906,-16.54
54.921,-18.59
54.937,-20.56
54.953,-22.59
54.968,-24.84
54.984,-27.34
55.000,-30.18
55.015,-33.44
55.031,-37.26
55.046,-41.71
55.062,-46.62
55.078,-51.48
55.093,-55.43
55.109,-57.48
55.125,-56.71
55.140,-52.77
55.156,-45.88
55.171,-36.87
55.187,-26.86
55.203,-16.87
55.218,-7.61
55.234,0.66
55.250,7.99
55.265,14.57
55.281,20.61
55.296,26.16
55.312,31.16
55.328,35.39
55.343,38.69
55.359,40.98
55.375,42.34
55.390,42.96
55.406,43.12
55.421,42.97
55.437,42.53
55.453,41.71
55.468,40.38
55.484,38.58
55.500,36.47
55.515,34.39
55.531,32.65
55.546,31.43
55.562,30.64
55.578,30.09
55.593,29.39
55.609,28.23
55.625,26.48
55.640,24.22
55.656,21.71
55.671,19.26
55.687,17.06
55.703,15.1
55.718,13.26
55.734,11.38
55.750,9.47
55.765,7.59
55.781,5.83
55.796,4.15
55.812,2.37
55.828,0.17
55.843,-2.54
55.859,-5.6
55.875,-8.65
55.890,-11.28
55.906,-13.39
55.921,-15.24
55.937,-17.35
55.953,-20.2
55.968,-23.97
55.984,-28.35
56.000,-32.75
56.015,-36.58
56.031,-39.58
56.046,-41.91
56.062,-44.12
56.078,-46.78
56.093,-50.34
56.109,-54.82
56.125,-59.77
56.140,-64.39
56.156,-67.76
56.171,-68.95
56.187,-67.36
56.203,-62.75
56.218,-55.32
56.234,-45.74
56.250,-34.9
56.265,-23.83
56.281,-13.41
56.296,-4.29
56.312,3.31
56.328,9.5
56.343,14.68
56.359,19.39
56.375,24.02
56.390,28.8
56.406,33.64
56.421,38.24
56.437,42.14
56.453,44.96
56.468,46.45
56.484,46.63
56.500,45.77
56.515,44.32
56.531,42.75
56.546,41.39
56.562,40.38
56.578,39.66
56.593,39.06
56.609,38.41
56.625,37.63
56.640,36.7
56.656,35.67
56.671,34.59
56.687,33.39
56.703,32.0
56.718,30.29
56.734,28.25
56.750,25.99
56.765,23.68
56.781,21.56
56.796,19.67
56.812,17.9
56.828,16.0
56.843,13.71
56.859,10.87
56.875,7.65
56.890,4.39
56.906,1.48
56.921,-0.85
56.937,-2.71
56.953,-4.46
56.968,-6.51
56.984,-9.12
57.000,-12.31
57.015,-15.84
57.031,-19.37
57.046,-22.63
57.062,-25.51
57.078,-28.04
57.093,-30.35
57.109,-32.61
57.125,-34.98
57.140,-37.6
57.156,-40.68
57.171,-44.34
57.187,-48.61
57.203,-53.17
57.218,-57.32
57.234,-60.07
57.250,-60.4
57.265,-57.64
57.281,-51.65
57.296,-43.03
57.312,-32.85
57.328,-22.35
57.343,-12.55
57.359,-4.05
57.375,3.06
57.390,8.96
57.406,14.0
57.421,18.48
57.437,22.59
57.453,26.43
57.468,29.97
57.484,33.12
57.500,35.72
57.515,37.57
57.531,38.49
57.546,38.43
57.562,37.46
57.578,35.77
57.593,33.63
57.609,31.38
57.625,29.31
57.640,27.65
57.656,26.48
57.671,25.65
57.687,24.84
57.703,23.73
57.718,22.12
57.734,20.03
57.750,17.74
57.765,15.64
57.781,14.03
57.796,12.96
57.812,12.18
57.828,11.41
57.843,10.41
57.859,9.12
57.875,7.6
57.890,5.88
57.906,4.0
57.921,1.84
57.937,-0.68
57.953,-3.63
57.968,-6.97
57.984,-10.59
58.000,-14.33
58.015,-18.09
58.031,-21.76
58.046,-25.24
58.062,-28.47
58.078,-31.46
58.093,-34.29
58.109,-37.13
58.125,-40.16
58.140,-43.46
58.156,-46.92
58.171,-50.22
58.187,-52.85
58.203,-54.21
58.218,-53.78
58.234,-51.13
58.250,-46.18
58.265,-39.14
58.281,-30.6
58.296,-21.36
58.312,-12.32
58.328,-4.18
58.343,2.67
58.359,8.28
58.375,13.04
58.390,17.33
58.406,21.49
58.421,25.51
58.437,29.15
58.453,32.09
58.468,34.08
58.484,35.11
58.500,35.4
58.515,35.24
58.531,34.83
58.546,34.29
58.562,33.61
58.578,32.71
58.593,31.52
58.609,30.04
58.625,28.31
58.640,26.5
58.656,24.84
58.671,23.54
58.687,22.78
58.703,22.53
58.718,22.55
58.734,22.5
58.750,22.06
58.765,21.04
58.781,19.46
58.796,17.5
58.812,15.4
58.828,13.37
58.843,11.51
58.859,9.88
58.875,8.5
58.890,7.29
58.906,6.11
58.921,4.78
58.937,3.09
58.953,0.95
58.968,-1.64
58.984,-4.63
59.000,-7.9
59.015,-11.4
59.031,-15.08
59.046,-18.86
59.062,-22.64
59.078,-26.28
59.093,-29.72
59.109,-32.93
59.125,-35.98
59.140,-38.95
59.156,-41.96
59.171,-45.14
59.187,-48.65
59.203,-52.52
59.218,-56.67
59.234,-60.78
59.250,-64.23
59.265,-66.25
59.281,-66.1
59.296,-63.33
59.312,-57.96
59.328,-50.42
59.343,-41.47
59.359,-31.94
59.375,-22.51
59.390,-13.61
59.406,-5.39
59.421,2.17
59.437,9.2
59.453,15.75
59.468,21.85
59.484,27.4
59.500,32.29
59.515,36.35
59.531,39.42
59.546,41.37
59.562,42.16
59.578,41.91
59.593,40.87
59.609,39.42
59.625,37.91
59.640,36.67
59.656,35.85
59.671,35.48
59.687,35.49
59.703,35.69
59.718,35.88
59.734,35.86
59.750,35.51
59.765,34.77
59.781,33.7
59.796,32.35
59.812,30.73
59.828,28.82
59.843,26.57
59.859,23.96
59.875,21.12
59.890,18.26
59.906,15.61
59.921,13.25
59.937,11.13
59.953,9.06
59.968,6.9
59.984,4.68
