timestamp,value
00.000,-27.44
00.015,-19.9
00.031,-12.84
00.046,-6.69
00.062,-1.46
00.078,2.95
00.093,6.62
00.109,9.65
00.125,12.25
00.140,14.85
00.156,17.95
00.171,21.79
00.187,26.2
00.203,30.72
00.218,34.72
00.234,37.78
00.250,39.79
00.265,40.72
00.281,40.7
00.296,39.74
00.312,37.89
00.328,35.4
00.343,32.78
00.359,30.59
00.375,29.13
00.390,28.43
00.406,28.13
00.421,27.96
00.437,27.67
00.453,27.23
00.468,26.71
00.484,26.18
00.500,25.63
00.515,24.99
00.531,24.35
00.546,23.66
00.562,23.01
00.578,22.34
00.593,21.38
00.609,19.82
00.625,17.46
00.640,14.27
00.656,10.5
00.671,6.55
00.687,2.65
00.703,-0.91
00.718,-3.94
00.734,-6.28
00.750,-7.85
00.765,-8.65
00.781,-9.07
00.796,-9.59
00.812,-10.84
00.828,-13.28
00.843,-16.81
00.859,-21.05
00.875,-25.47
00.890,-29.64
00.906,-33.37
00.921,-36.68
00.937,-39.49
00.953,-41.49
00.968,-42.21
00.984,-41.23
01.000,-38.42
01.015,-34.35
01.031,-29.66
01.046,-24.96
01.062,-20.53
01.078,-16.17
01.093,-11.48
01.109,-6.3
01.125,-0.78
01.140,4.73
01.156,9.91
01.171,14.72
01.187,19.29
01.203,23.84
01.218,28.37
01.234,32.56
01.250,35.85
01.265,37.72
01.281,37.98
01.296,36.99
01.312,35.38
01.328,33.73
01.343,32.44
01.359,31.55
01.375,30.89
01.390,30.23
01.406,29.55
01.421,28.96
01.437,28.62
01.453,28.55
01.468,28.57
01.484,28.42
01.500,27.89
01.515,26.96
01.531,25.7
01.546,24.27
01.562,22.68
01.578,20.88
01.593,18.67
01.609,15.9
01.625,12.52
01.640,8.66
01.656,4.79
01.671,1.37
01.687,-1.21
01.703,-2.84
01.718,-3.59
01.734,-3.81
01.750,-4.08
01.765,-4.93
01.781,-6.82
01.796,-9.9
01.812,-13.98
01.828,-18.66
01.843,-23.41
01.859,-27.83
01.875,-31.87
01.890,-35.99
01.906,-40.71
01.921,-46.23
01.937,-52.04
01.953,-57.09
01.968,-60.24
01.984,-60.79
02.000,-58.79
02.015,-54.91
02.031,-50.03
02.046,-44.78
02.062,-39.46
02.078,-33.86
02.093,-27.83
02.109,-21.5
02.125,-15.22
02.140,-9.41
02.156,-4.34
02.171,-0.1
02.187,3.51
02.203,6.49
02.218,8.86
02.234,10.54
02.250,11.49
02.265,11.82
02.281,11.94
02.296,12.31
02.312,13.46
02.328,15.57
02.343,18.26
02.359,20.8
02.375,22.35
02.390,22.45
02.406,21.11
02.421,18.9
02.437,16.48
02.453,14.45
02.468,13.13
02.484,12.74
02.500,13.45
02.515,15.43
02.531,18.61
02.546,22.43
02.562,25.95
02.578,28.24
02.593,28.98
02.609,29.0
02.625,29.89
02.640,33.18
02.656,39.09
02.671,45.98
02.687,50.8
02.703,50.22
02.718,42.29
02.734,27.47
02.750,8.28
02.765,-11.88
02.781,-29.91
02.796,-44.15
02.812,-54.41
02.828,-61.21
02.843,-65.14
02.859,-66.47
02.875,-65.37
02.890,-62.6
02.906,-60.06
02.921,-59.89
02.937,-63.59
02.953,-70.75
02.968,-78.83
02.984,-83.83
03.000,-82.05
03.015,-71.86
03.031,-54.49
03.046,-33.58
03.062,-13.41
03.078,2.82
03.093,14.19
03.109,21.75
03.125,27.3
03.140,32.26
03.156,36.98
03.171,40.79
03.187,42.9
03.203,42.96
03.218,41.23
03.234,38.47
03.250,35.55
03.265,32.93
03.281,30.74
03.296,28.91
03.312,27.35
03.328,26.27
03.343,26.1
03.359,27.01
03.375,28.94
03.390,31.34
03.406,33.18
03.421,33.77
03.437,32.7
03.453,30.28
03.468,27.24
03.484,24.51
03.500,22.65
03.515,21.66
03.531,21.1
03.546,20.38
03.562,19.26
03.578,17.86
03.593,16.52
03.609,15.53
03.625,14.97
03.640,14.47
03.656,13.65
03.671,12.12
03.687,9.92
03.703,7.3
03.718,4.78
03.734,2.69
03.750,1.03
03.765,-0.41
03.781,-2.27
03.796,-4.8
03.812,-8.17
03.828,-12.17
03.843,-16.35
03.859,-20.34
03.875,-23.85
03.890,-26.93
03.906,-29.66
03.921,-32.17
03.937,-34.27
03.953,-35.65
03.968,-36.24
03.984,-36.34
04.000,-36.57
04.015,-37.67
04.031,-40.08
04.046,-43.39
04.062,-46.62
04.078,-48.47
04.093,-48.0
04.109,-45.1
04.125,-40.46
04.140,-35.05
04.156,-29.56
04.171,-24.22
04.187,-18.63
04.203,-12.36
04.218,-5.22
04.234,2.58
04.250,10.38
04.265,17.57
04.281,23.55
04.296,28.28
04.312,31.79
04.328,34.22
04.343,35.61
04.359,35.77
04.375,34.7
04.390,32.53
04.406,29.94
04.421,27.83
04.437,27.11
04.453,28.06
04.468,30.27
04.484,32.82
04.500,34.58
04.515,34.8
04.531,33.39
04.546,30.93
04.562,28.15
04.578,25.67
04.593,23.5
04.609,21.24
04.625,18.39
04.640,14.94
04.656,11.49
04.671,9.07
04.687,8.38
04.703,9.34
04.718,11.03
04.734,12.17
04.750,11.96
04.765,10.34
04.781,8.05
04.796,6.15
04.812,5.11
04.828,4.6
04.843,3.65
04.859,1.41
04.875,-2.39
04.890,-7.16
04.906,-12.0
04.921,-16.08
04.937,-18.87
04.953,-20.31
04.968,-20.71
04.984,-20.6
05.000,-20.63
05.015,-21.51
05.031,-23.61
05.046,-27.0
05.062,-31.28
05.078,-35.75
05.093,-39.69
05.109,-42.65
05.125,-44.48
05.140,-45.17
05.156,-44.72
05.171,-42.92
05.187,-39.63
05.203,-34.8
05.218,-28.73
05.234,-22.0
05.250,-15.24
05.265,-8.93
05.281,-3.21
05.296,2.05
05.312,7.05
05.328,11.96
05.343,16.8
05.359,21.39
05.375,25.46
05.390,28.73
05.406,30.95
05.421,32.01
05.437,32.18
05.453,31.74
05.468,31.07
05.484,30.4
05.500,29.63
05.515,28.65
05.531,27.48
05.546,26.43
05.562,25.96
05.578,26.52
05.593,28.07
05.609,29.92
05.625,31.13
05.640,30.82
05.656,28.78
05.671,25.52
05.687,21.85
05.703,18.65
05.718,16.3
05.734,14.52
05.750,12.63
05.765,10.09
05.781,6.62
05.796,2.74
05.812,-0.81
05.828,-3.37
05.843,-4.67
05.859,-5.11
05.875,-5.41
05.890,-6.33
05.906,-8.12
05.921,-10.73
05.937,-13.7
05.953,-16.62
05.968,-19.17
05.984,-21.14
06.000,-22.5
06.015,-23.34
06.031,-24.19
06.046,-25.72
06.062,-28.7
06.078,-33.51
06.093,-39.7
06.109,-46.09
06.125,-51.27
06.140,-54.23
06.156,-54.6
06.171,-52.8
06.187,-49.44
06.203,-45.16
06.218,-40.09
06.234,-34.33
06.250,-28.16
06.265,-21.95
06.281,-16.28
06.296,-11.28
06.312,-6.69
06.328,-2.11
06.343,2.46
06.359,6.77
06.375,10.4
06.390,13.08
06.406,15.03
06.421,16.75
06.437,18.79
06.453,21.2
06.468,23.51
06.484,24.99
06.500,25.01
06.515,23.65
06.531,21.23
06.546,18.4
06.562,15.58
06.578,13.1
06.593,11.06
06.609,9.43
06.625,8.2
06.640,7.47
06.656,7.65
06.671,8.99
06.687,11.82
06.703,15.71
06.718,19.76
06.734,22.68
06.750,23.28
06.765,21.3
06.781,17.36
06.796,12.86
06.812,9.17
06.828,6.94
06.843,5.94
06.859,5.23
06.875,3.86
06.890,1.59
06.906,-1.14
06.921,-3.81
06.937,-6.04
06.953,-7.94
06.968,-10.09
06.984,-12.99
07.000,-16.87
07.015,-21.57
07.031,-26.7
07.046,-31.66
07.062,-36.18
07.078,-40.03
07.093,-42.96
07.109,-44.84
07.125,-45.49
07.140,-44.89
07.156,-42.96
07.171,-39.84
07.187,-35.65
07.203,-30.88
07.218,-26.21
07.234,-22.52
07.250,-20.59
07.265,-20.41
07.281,-21.22
07.296,-21.65
07.312,-20.18
07.328,-16.13
07.343,-9.95
07.359,-2.81
07.375,3.68
07.390,8.47
07.406,11.67
07.421,13.73
07.437,15.35
07.453,16.8
07.468,17.89
07.484,18.16
07.500,17.61
07.515,16.75
07.531,16.29
07.546,17.03
07.562,18.73
07.578,20.77
07.593,22.22
07.609,22.8
07.625,22.77
07.640,22.89
07.656,23.86
07.671,25.52
07.687,27.46
07.703,28.96
07.718,29.71
07.734,29.8
07.750,29.4
07.765,28.42
07.781,26.51
07.796,23.24
07.812,18.43
07.828,12.8
07.843,7.32
07.859,3.07
07.875,0.35
07.890,-1.49
07.906,-3.34
07.921,-6.12
07.937,-10.04
07.953,-14.79
07.968,-19.65
07.984,-23.94
08.000,-27.15
08.015,-29.21
08.031,-30.49
08.046,-31.28
08.062,-32.08
08.078,-33.19
08.093,-34.95
08.109,-37.52
08.125,-40.87
08.140,-44.4
08.156,-46.9
08.171,-47.03
08.187,-43.75
08.203,-36.99
08.218,-27.85
08.234,-18.2
08.250,-9.91
08.265,-4.03
08.281,-0.32
08.296,2.45
08.312,5.63
08.328,9.91
08.343,14.93
08.359,19.82
08.375,23.77
08.390,26.44
08.406,28.24
08.421,29.79
08.437,31.48
08.453,33.31
08.468,34.79
08.484,35.22
08.500,34.21
08.515,31.99
08.531,29.24
08.546,26.95
08.562,25.84
08.578,26.07
08.593,27.3
08.609,28.87
08.625,29.87
08.640,29.81
08.656,28.64
08.671,26.74
08.687,24.68
08.703,22.82
08.718,21.15
08.734,19.28
08.750,16.92
08.765,13.86
08.781,10.46
08.796,7.21
08.812,4.7
08.828,3.17
08.843,2.55
08.859,2.4
08.875,2.16
08.890,1.57
08.906,0.57
08.921,-0.51
08.937,-1.4
08.953,-2.02
08.968,-2.62
08.984,-3.57
09.000,-5.26
09.015,-7.94
09.031,-11.49
09.046,-15.73
09.062,-20.32
09.078,-24.96
09.093,-29.41
09.109,-33.29
09.125,-36.3
09.140,-38.13
09.156,-38.69
09.171,-38.16
09.187,-37.07
09.203,-35.82
09.218,-34.47
09.234,-32.98
09.250,-30.89
09.265,-28.12
09.281,-24.81
09.296,-21.44
09.312,-18.36
09.328,-15.86
09.343,-13.75
09.359,-11.46
09.375,-8.6
09.390,-4.92
09.406,-0.6
09.421,4.0
09.437,8.43
09.453,12.64
09.468,16.71
09.484,20.51
09.500,23.85
09.515,26.18
09.531,27.12
09.546,26.56
09.562,24.87
09.578,22.78
09.593,21.07
09.609,20.29
09.625,20.35
09.640,20.99
09.656,21.77
09.671,22.62
09.687,23.53
09.703,24.52
09.718,25.59
09.734,26.37
09.750,26.48
09.765,25.65
09.781,23.79
09.796,21.02
09.812,17.7
09.828,14.21
09.843,10.78
09.859,7.56
09.875,4.57
09.890,1.71
09.906,-0.98
09.921,-3.52
09.937,-6.0
09.953,-8.58
09.968,-11.28
09.984,-14.26
10.000,-17.5
10.015,-20.73
10.031,-23.67
10.046,-25.76
10.062,-26.66
10.078,-26.38
10.093,-25.29
10.109,-24.09
10.125,-23.85
10.140,-25.35
10.156,-28.83
10.171,-33.79
10.187,-39.07
10.203,-43.4
10.218,-45.71
10.234,-45.37
10.250,-42.32
10.265,-37.21
10.281,-30.97
10.296,-24.6
10.312,-19.02
10.328,-14.71
10.343,-11.61
10.359,-9.28
10.375,-7.02
10.390,-4.39
10.406,-1.4
10.421,1.65
10.437,4.42
10.453,6.73
10.468,8.88
10.484,11.3
10.500,14.38
10.515,18.07
10.531,21.88
10.546,25.0
10.562,26.83
10.578,27.26
10.593,26.59
10.609,25.58
10.625,25.0
10.640,25.29
10.656,26.22
10.671,27.32
10.687,28.0
10.703,27.8
10.718,26.76
10.734,25.02
10.750,23.08
10.765,21.37
10.781,20.28
10.796,19.89
10.812,19.96
10.828,19.93
10.843,19.11
10.859,17.14
10.875,14.05
10.890,10.52
10.906,7.28
10.921,4.9
10.937,3.25
10.953,1.73
10.968,-0.47
10.984,-3.97
11.000,-8.58
11.015,-13.71
11.031,-18.49
11.046,-22.32
11.062,-25.15
11.078,-27.35
11.093,-29.35
11.109,-31.52
11.125,-33.92
11.140,-35.94
11.156,-36.96
11.171,-36.33
11.187,-33.76
11.203,-29.58
11.218,-24.49
11.234,-19.28
11.250,-14.65
11.265,-10.94
11.281,-7.99
11.296,-5.37
11.312,-2.39
11.328,1.43
11.343,6.14
11.359,11.53
11.375,17.07
11.390,22.38
11.406,27.1
11.421,31.21
11.437,34.54
11.453,37.17
11.468,39.02
11.484,40.03
11.500,40.4
11.515,40.44
11.531,40.5
11.546,40.73
11.562,41.05
11.578,41.01
11.593,40.21
11.609,38.43
11.625,35.7
11.640,32.45
11.656,29.08
11.671,26.03
11.687,23.45
11.703,21.45
11.718,19.95
11.734,18.87
11.750,18.0
11.765,17.03
11.781,15.65
11.796,13.43
11.812,10.24
11.828,6.19
11.843,1.66
11.859,-2.88
11.875,-7.03
11.890,-10.55
11.906,-13.45
11.921,-15.74
11.937,-17.61
11.953,-19.29
11.968,-21.02
11.984,-23.09
12.000,-25.77
12.015,-29.17
12.031,-33.23
12.046,-37.64
12.062,-41.88
12.078,-45.48
12.093,-48.06
12.109,-49.52
12.125,-49.98
12.140,-49.48
12.156,-48.08
12.171,-45.77
12.187,-42.54
12.203,-38.51
12.218,-33.98
12.234,-29.23
12.250,-24.43
12.265,-19.65
12.281,-14.65
12.296,-9.25
12.312,-3.42
12.328,2.61
12.343,8.53
12.359,13.97
12.375,18.69
12.390,22.72
12.406,26.07
12.421,28.87
12.437,31.34
12.453,33.61
12.468,35.61
12.484,37.15
12.500,37.88
12.515,37.34
12.531,35.37
12.546,32.16
12.562,28.3
12.578,24.59
12.593,21.62
12.609,19.64
12.625,18.39
12.640,17.47
12.656,16.49
12.671,15.33
12.687,14.16
12.703,13.26
12.718,12.84
12.734,12.77
12.750,12.77
12.765,12.35
12.781,11.27
12.796,9.4
12.812,7.06
12.828,4.62
12.843,2.28
12.859,-0.01
12.875,-2.6
12.890,-5.78
12.906,-9.59
12.921,-13.76
12.937,-17.82
12.953,-21.42
12.968,-24.4
12.984,-26.95
13.000,-29.08
13.015,-30.91
13.031,-32.46
13.046,-33.85
13.062,-35.48
13.078,-37.72
13.093,-40.93
13.109,-45.1
13.125,-49.9
13.140,-54.5
13.156,-58.07
13.171,-59.79
13.187,-59.13
13.203,-55.95
13.218,-50.56
13.234,-43.48
13.250,-35.23
13.265,-26.34
13.281,-16.97
13.296,-7.41
13.312,1.88
13.328,10.2
13.343,16.79
13.359,21.21
13.375,23.68
13.390,25.04
13.406,26.09
13.421,27.25
13.437,28.28
13.453,28.48
13.468,27.44
13.484,25.2
13.500,22.51
13.515,20.3
13.531,19.29
13.546,19.58
13.562,20.73
13.578,22.08
13.593,23.08
13.609,23.71
13.625,24.05
13.640,24.47
13.656,25.03
13.671,25.48
13.687,25.41
13.703,24.4
13.718,22.29
13.734,19.23
13.750,15.73
13.765,12.33
13.781,9.6
13.796,7.74
13.812,6.75
13.828,6.39
13.843,6.32
13.859,6.13
13.875,5.39
13.890,3.92
13.906,1.54
13.921,-1.6
13.937,-5.3
13.953,-9.27
13.968,-13.08
13.984,-16.31
14.000,-18.74
14.015,-20.47
14.031,-21.84
14.046,-23.4
14.062,-25.44
14.078,-27.97
14.093,-30.82
14.109,-33.69
14.125,-36.44
14.140,-39.12
14.156,-41.69
14.171,-43.93
14.187,-45.19
14.203,-44.65
14.218,-41.55
14.234,-35.7
14.250,-27.6
14.265,-18.3
14.281,-9.12
14.296,-1.14
14.312,4.94
14.328,9.0
14.343,11.47
14.359,13.11
14.375,14.63
14.390,16.52
14.406,18.82
14.421,21.35
14.437,23.75
14.453,25.83
14.468,27.56
14.484,29.11
14.500,30.54
14.515,31.72
14.531,32.33
14.546,32.08
14.562,30.92
14.578,29.14
14.593,27.41
14.609,26.3
14.625,26.18
14.640,26.79
14.656,27.55
14.671,27.68
14.687,26.69
14.703,24.47
14.718,21.34
14.734,17.95
14.750,14.81
14.765,12.34
14.781,10.49
14.796,9.0
14.812,7.56
14.828,5.96
14.843,4.12
14.859,2.07
14.875,-0.16
14.890,-2.76
14.906,-6.0
14.921,-10.12
14.937,-15.02
14.953,-20.16
14.968,-24.74
14.984,-27.93
15.000,-29.18
15.015,-28.64
15.031,-27.08
15.046,-25.45
15.062,-24.5
15.078,-24.6
15.093,-25.59
15.109,-27.16
15.125,-28.89
15.140,-30.37
15.156,-31.31
15.171,-31.55
15.187,-30.86
15.203,-28.96
15.218,-25.75
15.234,-21.23
15.250,-15.59
15.265,-9.15
15.281,-2.29
15.296,4.6
15.312,11.18
15.328,17.23
15.343,22.59
15.359,27.16
15.375,30.75
15.390,33.21
15.406,34.52
15.421,34.77
15.437,34.25
15.453,33.42
15.468,32.65
15.484,31.94
15.500,31.18
15.515,30.26
15.531,29.11
15.546,27.96
15.562,26.95
15.578,26.1
15.593,25.2
15.609,23.9
15.625,22.17
15.640,20.31
15.656,18.92
15.671,18.34
15.687,18.33
15.703,18.01
15.718,16.48
15.734,13.21
15.750,8.64
15.765,3.95
15.781,0.4
15.796,-1.28
15.812,-1.52
15.828,-1.39
15.843,-2.11
15.859,-4.26
15.875,-7.66
15.890,-11.62
15.906,-15.27
15.921,-18.08
15.937,-20.04
15.953,-21.44
15.968,-22.74
15.984,-24.36
16.000,-26.61
16.015,-29.63
16.031,-33.61
16.046,-38.37
16.062,-43.74
16.078,-49.01
16.093,-53.16
16.109,-55.15
16.125,-54.16
16.140,-50.04
16.156,-43.43
16.171,-35.57
16.187,-27.58
16.203,-20.46
16.218,-14.3
16.234,-8.77
16.250,-3.26
16.265,2.59
16.281,8.84
16.296,15.41
16.312,21.95
16.328,28.25
16.343,33.93
16.359,38.62
16.375,41.88
16.390,43.45
16.406,43.39
16.421,42.04
16.437,40.09
16.453,38.02
16.468,36.16
16.484,34.59
16.500,33.38
16.515,32.59
16.531,32.2
16.546,32.18
16.562,32.25
16.578,32.06
16.593,31.26
16.609,29.57
16.625,26.97
16.640,23.81
16.656,20.59
16.671,17.67
16.687,15.27
16.703,13.14
16.718,10.9
16.734,8.24
16.750,5.12
16.765,1.91
16.781,-0.86
16.796,-2.7
16.812,-3.48
16.828,-3.26
16.843,-2.59
16.859,-2.1
16.875,-2.16
16.890,-2.88
16.906,-4.06
16.921,-5.5
16.937,-7.05
16.953,-8.78
16.968,-10.75
16.984,-13.18
17.000,-16.2
17.015,-19.72
17.031,-23.64
17.046,-27.77
17.062,-32.01
17.078,-36.4
17.093,-40.87
17.109,-45.07
17.125,-48.4
17.140,-49.9
17.156,-48.69
17.171,-44.51
17.187,-37.82
17.203,-29.82
17.218,-22.01
17.234,-15.43
17.250,-10.27
17.265,-5.93
17.281,-1.37
17.296,4.33
17.312,11.26
17.328,19.05
17.343,26.99
17.359,34.36
17.375,40.76
17.390,46.0
17.406,50.05
17.421,52.8
17.437,54.2
17.453,54.0
17.468,52.21
17.484,49.01
17.500,44.79
17.515,40.1
17.531,35.38
17.546,31.09
17.562,27.45
17.578,24.56
17.593,22.48
17.609,21.35
17.625,21.09
17.640,21.52
17.656,22.2
17.671,22.5
17.687,22.0
17.703,20.54
17.718,18.28
17.734,15.6
17.750,12.98
17.765,10.65
17.781,8.58
17.796,6.75
17.812,5.04
17.828,3.43
17.843,1.91
17.859,0.46
17.875,-1.02
17.890,-2.75
17.906,-4.8
17.921,-7.32
17.937,-10.24
17.953,-13.59
17.968,-17.28
17.984,-21.3
18.000,-25.47
18.015,-29.46
18.031,-32.97
18.046,-35.89
18.062,-38.34
18.078,-40.78
18.093,-43.8
18.109,-47.59
18.125,-52.09
18.140,-56.64
18.156,-60.32
18.171,-62.32
18.187,-62.15
18.203,-59.72
18.218,-55.24
18.234,-49.14
18.250,-41.76
18.265,-33.62
18.281,-25.15
18.296,-16.94
18.312,-9.58
18.328,-3.52
18.343,1.25
18.359,5.19
18.375,9.02
18.390,13.48
18.406,18.87
18.421,24.92
18.437,30.84
18.453,35.61
18.468,38.46
18.484,39.28
18.500,38.42
18.515,36.63
18.531,34.68
18.546,32.91
18.562,31.36
18.578,29.91
18.593,28.65
18.609,27.91
18.625,28.07
18.640,29.1
18.656,30.42
18.671,31.17
18.687,30.51
18.703,28.24
18.718,24.76
18.734,20.93
18.750,17.4
18.765,14.26
18.781,11.09
18.796,7.48
18.812,3.53
18.828,-0.3
18.843,-3.36
18.859,-5.28
18.875,-6.22
18.890,-6.73
18.906,-7.37
18.921,-8.4
18.937,-9.73
18.953,-11.08
18.968,-12.14
18.984,-12.73
19.000,-12.79
19.015,-12.48
19.031,-12.31
19.046,-13.0
19.062,-15.42
19.078,-20.04
19.093,-26.65
19.109,-34.34
19.125,-41.68
19.140,-47.68
19.156,-52.07
19.171,-55.25
19.187,-58.02
19.203,-60.94
19.218,-63.8
19.234,-65.73
19.250,-65.79
19.265,-63.24
19.281,-58.22
19.296,-51.43
19.312,-43.77
19.328,-35.78
19.343,-27.55
19.359,-18.84
19.375,-9.41
19.390,0.42
19.406,9.9
19.421,18.04
19.437,24.08
19.453,27.82
19.468,29.79
19.484,30.78
19.500,31.5
19.515,32.49
19.531,33.84
19.546,35.67
19.562,37.68
19.578,39.47
19.593,40.65
19.609,40.63
19.625,39.5
19.640,37.96
19.656,36.94
19.671,37.12
19.687,38.59
19.703,40.23
19.718,40.79
19.734,39.55
19.750,36.67
19.765,33.31
19.781,30.86
19.796,30.1
19.812,30.73
19.828,31.59
19.843,31.18
19.859,28.81
19.875,24.7
19.890,19.63
19.906,14.36
19.921,9.13
19.937,3.61
19.953,-2.51
19.968,-9.18
19.984,-15.92
20.000,-21.61
20.015,-25.26
20.031,-26.54
20.046,-25.66
20.062,-23.51
20.078,-21.41
20.093,-20.39
20.109,-21.27
20.125,-24.61
20.140,-30.29
20.156,-37.63
20.171,-45.54
20.187,-52.28
20.203,-56.35
20.218,-56.92
20.234,-54.01
20.250,-48.44
20.265,-41.54
20.281,-34.24
20.296,-27.24
20.312,-20.77
20.328,-14.71
20.343,-9.09
20.359,-3.91
20.375,0.95
20.390,5.81
20.406,11.0
20.421,16.82
20.437,23.06
20.453,29.19
20.468,34.59
20.484,38.57
20.500,40.92
20.515,41.75
20.531,41.5
20.546,40.55
20.562,39.19
20.578,37.46
20.593,35.37
20.609,33.09
20.625,30.79
20.640,28.67
20.656,26.92
20.671,25.68
20.687,24.83
20.703,24.17
20.718,23.46
20.734,22.52
20.750,21.4
20.765,20.2
20.781,19.09
20.796,17.94
20.812,16.54
20.828,14.55
20.843,11.93
20.859,8.99
20.875,6.24
20.890,4.15
20.906,2.77
20.921,1.68
20.937,-0.01
20.953,-3.04
20.968,-7.71
20.984,-13.59
21.000,-19.78
21.015,-25.46
21.031,-30.22
21.046,-33.97
21.062,-37.04
21.078,-39.83
21.093,-42.51
21.109,-45.13
21.125,-47.67
21.140,-50.23
21.156,-53.02
21.171,-56.09
21.187,-59.02
21.203,-61.15
21.218,-61.48
21.234,-59.2
21.250,-54.18
21.265,-46.92
21.281,-38.34
21.296,-29.54
21.312,-21.2
21.328,-13.54
21.343,-6.45
21.359,0.28
21.375,6.86
21.390,13.28
21.406,19.35
21.421,24.89
21.437,29.63
21.453,33.29
21.468,35.78
21.484,37.01
21.500,37.11
21.515,36.41
21.531,35.23
21.546,33.95
21.562,32.94
21.578,32.44
21.593,32.47
21.609,32.96
21.625,33.49
21.640,33.58
21.656,32.89
21.671,31.3
21.687,29.02
21.703,26.42
21.718,23.87
21.734,21.62
21.750,19.94
21.765,18.96
21.781,18.79
21.796,19.28
21.812,19.93
21.828,20.09
21.843,19.27
21.859,17.27
21.875,14.21
21.890,10.44
21.906,6.3
21.921,2.04
21.937,-2.23
21.953,-6.47
21.968,-10.54
21.984,-14.22
22.000,-17.35
22.015,-19.97
22.031,-22.2
22.046,-24.3
22.062,-26.39
22.078,-28.48
22.093,-30.49
22.109,-32.25
22.125,-33.64
22.140,-34.67
22.156,-35.68
22.171,-37.15
22.187,-39.67
22.203,-43.65
22.218,-48.95
22.234,-54.88
22.250,-60.29
22.265,-64.03
22.281,-65.13
22.296,-63.2
22.312,-58.42
22.328,-51.33
22.343,-42.77
22.359,-33.61
22.375,-24.62
22.390,-16.3
22.406,-8.83
22.421,-1.94
22.437,4.88
22.453,12.0
22.468,19.41
22.484,26.67
22.500,33.11
22.515,38.04
22.531,41.24
22.546,42.96
22.562,43.83
22.578,44.37
22.593,44.79
22.609,44.95
22.625,44.68
22.640,43.94
22.656,42.9
22.671,41.76
22.687,40.66
22.703,39.57
22.718,38.21
22.734,36.54
22.750,34.86
22.765,33.67
22.781,33.21
22.796,33.29
22.812,32.93
22.828,30.85
22.843,26.23
22.859,19.16
22.875,10.8
22.890,3.14
22.906,-2.2
22.921,-4.72
22.937,-4.99
22.953,-4.39
22.968,-4.35
22.984,-5.5
23.000,-7.32
23.015,-9.03
23.031,-9.84
23.046,-9.83
23.062,-9.81
23.078,-10.84
23.093,-13.5
23.109,-17.67
23.125,-22.42
23.140,-26.5
23.156,-29.16
23.171,-30.32
23.187,-30.71
23.203,-31.3
23.218,-33.02
23.234,-36.37
23.250,-41.4
23.265,-47.5
23.281,-53.72
23.296,-59.02
23.312,-62.27
23.328,-62.92
23.343,-60.83
23.359,-56.3
23.375,-50.18
23.390,-43.18
23.406,-35.89
23.421,-28.64
23.437,-21.62
23.453,-14.85
23.468,-8.38
23.484,-2.16
23.500,4.22
23.515,10.89
23.531,17.67
23.546,23.99
23.562,29.09
23.578,32.19
23.593,33.1
23.609,32.22
23.625,30.38
23.640,28.56
23.656,27.34
23.671,26.82
23.687,26.78
23.703,27.0
23.718,27.27
23.734,27.82
23.750,28.79
23.765,30.37
23.781,32.46
23.796,34.56
23.812,36.08
23.828,36.41
23.843,35.28
23.859,32.85
23.875,29.79
23.890,26.84
23.906,24.55
23.921,22.98
23.937,21.66
23.953,19.95
23.968,17.34
23.984,13.75
24.000,9.48
24.015,5.22
24.031,1.34
24.046,-2.06
24.062,-5.13
24.078,-8.26
24.093,-11.76
24.109,-15.79
24.125,-20.18
24.140,-24.77
24.156,-29.13
24.171,-33.22
24.187,-37.14
24.203,-41.0
24.218,-45.09
24.234,-49.47
24.250,-54.21
24.265,-58.99
24.281,-63.34
24.296,-66.45
24.312,-67.59
24.328,-66.14
24.343,-61.65
24.359,-54.3
24.375,-44.48
24.390,-33.15
24.406,-21.51
24.421,-10.75
24.437,-1.76
24.453,5.19
24.468,10.41
24.484,14.78
24.500,18.83
24.515,22.95
24.531,27.02
24.546,30.65
24.562,33.69
24.578,36.1
24.593,37.89
24.609,38.89
24.625,38.81
24.640,37.15
24.656,33.94
24.671,29.7
24.687,25.13
24.703,21.17
24.718,18.33
24.734,16.86
24.750,16.62
24.765,17.41
24.781,18.82
24.796,20.44
24.812,21.69
24.828,21.92
24.843,20.93
24.859,18.8
24.875,16.13
24.890,13.57
24.906,11.45
24.921,9.67
24.937,7.84
24.953,5.58
24.968,2.78
24.984,-0.08
25.000,-2.39
25.015,-3.65
25.031,-3.76
25.046,-3.2
25.062,-2.89
25.078,-3.74
25.093,-6.27
25.109,-10.52
25.125,-15.89
25.140,-21.58
25.156,-26.83
25.171,-31.24
25.187,-34.96
25.203,-38.28
25.218,-41.65
25.234,-45.26
25.250,-49.02
25.265,-52.65
25.281,-55.87
25.296,-58.49
25.312,-60.44
25.328,-61.77
25.343,-62.17
25.359,-61.16
25.375,-58.29
25.390,-53.49
25.406,-47.21
25.421,-40.35
25.437,-33.82
25.453,-28.15
25.468,-23.3
25.484,-18.72
25.500,-13.78
25.515,-8.06
25.531,-1.63
25.546,5.2
25.562,11.95
25.578,18.29
25.593,24.01
25.609,29.01
25.625,33.17
25.640,36.31
25.656,38.4
25.671,39.57
25.687,40.07
25.703,40.32
25.718,40.65
25.734,41.27
25.750,42.29
25.765,43.74
25.781,45.52
25.796,47.47
25.812,49.42
25.828,51.0
25.843,51.84
25.859,51.67
25.875,50.29
25.890,47.63
25.906,43.78
25.921,39.0
25.937,33.65
25.953,28.23
25.968,23.33
25.984,19.46
26.000,17.04
26.015,16.13
26.031,16.39
26.046,17.13
26.062,17.54
26.078,17.06
26.093,15.48
26.109,12.97
26.125,9.9
26.140,6.65
26.156,3.37
26.171,0.13
26.187,-3.08
26.203,-6.25
26.218,-9.35
26.234,-12.39
26.250,-15.37
26.265,-18.28
26.281,-20.87
26.296,-22.96
26.312,-24.28
26.328,-24.74
26.343,-24.72
26.359,-24.68
26.375,-25.17
26.390,-26.5
26.406,-28.68
26.421,-31.34
26.437,-33.96
26.453,-35.94
26.468,-36.61
26.484,-35.61
26.500,-32.68
26.515,-27.96
26.531,-21.89
26.546,-15.05
26.562,-8.08
26.578,-1.22
26.593,5.46
26.609,12.15
26.625,18.83
26.640,25.41
26.656,31.53
26.671,36.68
26.687,40.4
26.703,42.35
26.718,42.61
26.734,41.45
26.750,39.42
26.765,36.91
26.781,34.35
26.796,32.0
26.812,29.97
26.828,28.37
26.843,27.25
26.859,26.64
26.875,26.38
26.890,26.27
26.906,25.96
26.921,25.3
26.937,24.35
26.953,23.41
26.968,22.81
26.984,22.57
27.000,22.5
27.015,22.05
27.031,20.78
27.046,18.45
27.062,15.11
27.078,11.16
27.093,7.1
27.109,3.44
27.125,0.44
27.140,-1.82
27.156,-3.56
27.171,-5.11
27.187,-6.75
27.203,-8.69
27.218,-11.02
27.234,-13.69
27.250,-16.54
27.265,-19.47
27.281,-22.43
27.296,-25.57
27.312,-29.14
27.328,-33.29
27.343,-38.04
27.359,-43.16
27.375,-48.32
27.390,-53.04
27.406,-56.88
27.421,-59.4
27.437,-60.37
27.453,-59.47
27.468,-56.56
27.484,-51.77
27.500,-45.46
27.515,-38.33
27.531,-31.08
27.546,-24.35
27.562,-18.31
27.578,-12.91
27.593,-7.83
27.609,-2.95
27.625,1.61
27.640,5.68
27.656,9.26
27.671,12.6
27.687,15.96
27.703,19.5
27.718,23.02
27.734,25.92
27.750,27.61
27.765,27.72
27.781,26.48
27.796,24.68
27.812,23.05
27.828,22.09
27.843,21.77
27.859,21.78
27.875,21.74
27.890,21.54
27.906,21.18
27.921,20.88
27.937,20.77
27.953,20.72
27.968,20.43
27.984,19.51
28.000,17.63
28.015,14.54
28.031,10.47
28.046,5.71
28.062,0.91
28.078,-3.24
28.093,-6.31
28.109,-8.18
28.125,-9.2
28.140,-10.04
28.156,-11.34
28.171,-13.44
28.187,-16.31
28.203,-19.7
28.218,-23.11
28.234,-26.21
28.250,-28.73
28.265,-30.62
28.281,-32.06
28.296,-33.41
28.312,-35.06
28.328,-37.36
28.343,-40.52
28.359,-44.44
28.375,-48.78
28.390,-52.88
28.406,-55.85
28.421,-56.92
28.437,-55.57
28.453,-51.59
28.468,-45.3
28.484,-37.31
28.500,-28.5
28.515,-19.8
28.531,-11.74
28.546,-4.46
28.562,2.16
28.578,8.49
28.593,14.62
28.609,20.44
28.625,25.52
28.640,29.51
28.656,32.27
28.671,34.04
28.687,35.29
28.703,36.27
28.718,37.13
28.734,37.69
28.750,37.82
28.765,37.63
28.781,37.52
28.796,38.0
28.812,39.38
28.828,41.56
28.843,43.86
28.859,45.6
28.875,46.07
28.890,44.89
28.906,42.12
28.921,38.21
28.937,33.66
28.953,29.17
28.968,25.07
28.984,21.29
29.000,17.51
29.015,13.25
29.031,8.3
29.046,3.07
29.062,-1.59
29.078,-4.76
29.093,-5.85
29.109,-5.06
29.125,-3.22
29.140,-1.4
29.156,-0.4
29.171,-0.53
29.187,-1.56
29.203,-3.11
29.218,-4.99
29.234,-7.12
29.250,-9.69
29.265,-12.78
29.281,-16.56
29.296,-21.18
29.312,-26.65
29.328,-32.85
29.343,-39.33
29.359,-45.28
29.375,-49.7
29.390,-51.8
29.406,-51.33
29.421,-48.53
29.437,-44.11
29.453,-38.77
29.468,-33.16
29.484,-27.74
29.500,-22.89
29.515,-18.84
29.531,-15.62
29.546,-12.89
29.562,-9.87
29.578,-5.71
29.593,0.07
29.609,7.18
29.625,14.74
29.640,21.62
29.656,27.15
29.671,31.42
29.687,34.94
29.703,38.38
29.718,41.68
29.734,44.25
29.750,45.25
29.765,44.28
29.781,41.61
29.796,37.98
29.812,34.57
29.828,31.97
29.843,30.44
29.859,29.62
29.875,28.99
29.890,28.33
29.906,27.71
29.921,27.35
29.937,27.48
29.953,28.14
29.968,28.91
29.984,29.3
30.000,28.79
30.015,27.16
30.031,24.65
30.046,21.64
30.062,18.6
30.078,15.99
30.093,14.17
30.109,12.89
30.125,11.54
30.140,9.28
30.156,5.38
30.171,-0.13
30.187,-6.63
30.203,-12.89
30.218,-17.91
30.234,-21.22
30.250,-23.18
30.265,-24.57
30.281,-25.91
30.296,-27.28
30.312,-28.38
30.328,-29.09
30.343,-29.76
30.359,-31.35
30.375,-34.88
30.390,-40.64
30.406,-47.87
30.421,-55.07
30.437,-60.66
30.453,-63.47
30.468,-63.19
30.484,-60.06
30.500,-54.74
30.515,-48.06
30.531,-40.62
30.546,-32.97
30.562,-25.54
30.578,-18.74
30.593,-12.66
30.609,-7.12
30.625,-1.78
30.640,3.85
30.656,9.82
30.671,15.77
30.687,21.07
30.703,25.13
30.718,27.43
30.734,28.02
30.750,27.31
30.765,25.78
30.781,24.04
30.796,22.53
30.812,21.53
30.828,21.25
30.843,21.64
30.859,22.43
30.875,23.07
30.890,23.08
30.906,22.12
30.921,20.3
30.937,18.07
30.953,16.0
30.968,14.55
30.984,13.73
31.000,13.36
31.015,13.19
31.031,13.0
31.046,12.67
31.062,12.19
31.078,11.51
31.093,10.38
31.109,8.76
31.125,6.59
31.140,4.13
31.156,1.87
31.171,0.05
31.187,-1.28
31.203,-2.26
31.218,-3.2
31.234,-4.63
31.250,-7.05
31.265,-10.95
31.281,-16.39
31.296,-22.86
31.312,-29.58
31.328,-35.42
31.343,-39.69
31.359,-42.32
31.375,-43.87
31.390,-45.28
31.406,-47.19
31.421,-49.65
31.437,-51.88
31.453,-52.92
31.468,-51.82
31.484,-48.2
31.500,-42.42
31.515,-35.22
31.531,-27.57
31.546,-20.38
31.562,-14.35
31.578,-9.62
31.593,-6.03
31.609,-2.85
31.625,0.76
31.640,5.37
31.656,11.16
31.671,17.67
31.687,24.0
31.703,29.05
31.718,32.03
31.734,32.7
31.750,31.35
31.765,28.83
31.781,26.0
31.796,23.65
31.812,22.09
31.828,21.44
31.843,21.38
31.859,21.53
31.875,21.55
31.890,21.12
31.906,20.16
31.921,18.68
31.937,16.8
31.953,14.54
31.968,11.92
31.984,8.87
32.000,5.37
32.015,1.6
32.031,-2.19
32.046,-5.77
32.062,-9.03
32.078,-11.95
32.093,-14.68
32.109,-17.28
32.125,-19.83
32.140,-22.42
32.156,-25.08
32.171,-27.98
32.187,-31.23
32.203,-34.78
32.218,-38.41
32.234,-41.79
32.250,-44.74
32.265,-47.33
32.281,-49.78
32.296,-52.4
32.312,-55.25
32.328,-57.97
32.343,-59.99
32.359,-60.66
32.375,-59.46
32.390,-56.22
32.406,-51.03
32.421,-44.39
32.437,-37.11
32.453,-30.03
32.468,-23.83
32.484,-18.73
32.500,-14.6
32.515,-10.88
32.531,-6.88
32.546,-1.93
32.562,4.21
32.578,11.42
32.593,19.21
32.609,26.97
32.625,34.08
32.640,39.92
32.656,44.04
32.671,46.22
32.687,46.6
32.703,45.74
32.718,44.47
32.734,43.53
32.750,43.19
32.765,43.17
32.781,42.86
32.796,41.76
32.812,39.84
32.828,37.53
32.843,35.42
32.859,33.84
32.875,32.7
32.890,31.41
32.906,29.48
32.921,26.8
32.937,23.59
32.953,20.4
32.968,17.68
32.984,15.66
33.000,14.16
33.015,12.88
33.031,11.28
33.046,9.08
33.062,6.2
33.078,2.78
33.093,-0.82
33.109,-4.25
33.125,-7.19
33.140,-9.73
33.156,-12.04
33.171,-14.45
33.187,-17.07
33.203,-19.95
33.218,-23.04
33.234,-26.18
33.250,-29.48
33.265,-33.09
33.281,-37.25
33.296,-41.93
33.312,-46.9
33.328,-51.39
33.343,-54.47
33.359,-55.18
33.375,-52.94
33.390,-48.08
33.406,-41.67
33.421,-35.06
33.437,-29.23
33.453,-24.35
33.468,-19.73
33.484,-14.35
33.500,-7.56
33.515,0.63
33.531,9.52
33.546,18.05
33.562,25.36
33.578,31.14
33.593,35.47
33.609,38.59
33.625,40.91
33.640,42.59
33.656,43.83
33.671,44.92
33.687,46.03
33.703,47.19
33.718,48.27
33.734,49.05
33.750,49.32
33.765,49.09
33.781,48.3
33.796,47.0
33.812,45.05
33.828,42.19
33.843,38.19
33.859,33.01
33.875,27.09
33.890,21.28
33.906,16.52
33.921,13.39
33.937,11.86
33.953,11.34
33.968,10.96
33.984,10.0
34.000,8.18
34.015,5.63
34.031,2.69
34.046,-0.31
34.062,-3.3
34.078,-6.34
34.093,-9.52
34.109,-12.86
34.125,-16.44
34.140,-20.29
34.156,-24.43
34.171,-28.8
34.187,-33.13
34.203,-37.22
34.218,-40.87
34.234,-44.05
34.250,-46.76
34.265,-48.95
34.281,-50.23
34.296,-50.02
34.312,-47.79
34.328,-43.37
34.343,-37.19
34.359,-30.18
34.375,-23.27
34.390,-17.03
34.406,-11.49
34.421,-6.16
34.437,-0.46
34.453,5.97
34.468,13.15
34.484,20.79
34.500,28.31
34.515,35.31
34.531,41.32
34.546,46.03
34.562,49.2
34.578,50.74
34.593,50.7
34.609,49.51
34.625,47.86
34.640,46.33
34.656,45.38
34.671,44.91
34.687,44.45
34.703,43.28
34.718,40.89
34.734,37.07
34.750,32.25
34.765,27.14
34.781,22.37
34.796,18.43
34.812,15.31
34.828,12.76
34.843,10.48
34.859,8.24
34.875,6.08
34.890,4.26
34.906,3.02
34.921,2.27
34.937,1.81
34.953,1.18
34.968,0.02
34.984,-1.65
35.000,-3.5
35.015,-4.96
35.031,-5.72
35.046,-5.96
35.062,-6.66
35.078,-8.82
35.093,-13.19
35.109,-19.77
35.125,-27.65
35.140,-35.57
35.156,-42.37
35.171,-47.54
35.187,-51.03
35.203,-53.34
35.218,-54.7
35.234,-55.19
35.250,-54.56
35.265,-52.35
35.281,-48.25
35.296,-42.31
35.312,-35.1
35.328,-27.37
35.343,-20.01
35.359,-13.43
35.375,-7.74
35.390,-2.57
35.406,2.61
35.421,8.13
35.437,14.0
35.453,19.9
35.468,25.42
35.484,30.14
35.500,33.87
35.515,36.5
35.531,37.92
35.546,38.2
35.562,37.39
35.578,35.78
35.593,33.87
35.609,32.25
35.625,31.3
35.640,31.17
35.656,31.5
35.671,31.76
35.687,31.62
35.703,30.86
35.718,29.68
35.734,28.28
35.750,26.76
35.765,24.97
35.781,22.98
35.796,20.8
35.812,18.66
35.828,16.76
35.843,15.1
35.859,13.35
35.875,11.02
35.890,7.9
35.906,4.08
35.921,0.15
35.937,-3.34
35.953,-6.0
35.968,-7.77
35.984,-8.73
36.000,-9.01
36.015,-8.81
36.031,-8.39
36.046,-8.09
36.062,-8.33
36.078,-9.49
36.093,-11.61
36.109,-14.29
36.125,-17.05
36.140,-19.3
36.156,-20.86
36.171,-22.04
36.187,-23.31
36.203,-25.19
36.218,-28.01
36.234,-31.6
36.250,-35.31
36.265,-38.34
36.281,-39.7
36.296,-38.68
36.312,-35.02
36.328,-29.17
36.343,-21.91
36.359,-14.26
36.375,-7.09
36.390,-0.9
36.406,4.12
36.421,8.21
36.437,11.71
36.453,15.07
36.468,18.34
36.484,21.32
36.500,23.65
36.515,24.87
36.531,24.67
36.546,23.14
36.562,20.76
36.578,18.19
36.593,16.04
36.609,14.74
36.625,14.41
36.640,15.09
36.656,16.64
36.671,18.76
36.687,21.13
36.703,23.25
36.718,24.64
36.734,24.84
36.750,23.72
36.765,21.52
36.781,18.74
36.796,15.78
36.812,12.88
36.828,10.08
36.843,7.39
36.859,4.84
36.875,2.49
36.890,0.41
36.906,-1.41
36.921,-3.03
36.937,-4.7
36.953,-6.62
36.968,-8.93
36.984,-11.67
37.000,-14.83
37.015,-18.42
37.031,-22.39
37.046,-26.64
37.062,-30.91
37.078,-34.78
37.093,-37.98
37.109,-40.4
37.125,-42.44
37.140,-44.61
37.156,-47.31
37.171,-50.58
37.187,-53.85
37.203,-56.08
37.218,-56.08
37.234,-53.16
37.250,-47.18
37.265,-38.9
37.281,-29.35
37.296,-19.57
37.312,-10.36
37.328,-2.15
37.343,4.81
37.359,10.48
37.375,14.68
37.390,17.46
37.406,19.2
37.421,20.6
37.437,22.45
37.453,25.21
37.468,28.77
37.484,32.5
37.500,35.64
37.515,37.51
37.531,37.98
37.546,37.35
37.562,35.95
37.578,34.07
37.593,31.43
37.609,27.84
37.625,23.39
37.640,18.7
37.656,14.71
37.671,12.34
37.687,11.95
37.703,13.26
37.718,15.66
37.734,18.37
37.750,20.97
37.765,23.16
37.781,24.8
37.796,25.72
37.812,25.58
37.828,24.28
37.843,21.76
37.859,18.44
37.875,14.89
37.890,11.55
37.906,8.63
37.921,6.08
37.937,3.74
37.953,1.39
37.968,-1.16
37.984,-4.36
38.000,-8.34
38.015,-13.11
38.031,-18.28
38.046,-23.29
38.062,-27.73
38.078,-31.49
38.093,-34.94
38.109,-38.67
38.125,-43.1
38.140,-48.19
38.156,-53.39
38.171,-58.06
38.187,-61.59
38.203,-63.73
38.218,-64.39
38.234,-63.28
38.250,-59.91
38.265,-53.7
38.281,-44.58
38.296,-33.11
38.312,-20.59
38.328,-8.58
38.343,1.76
38.359,10.01
38.375,16.45
38.390,21.7
38.406,26.34
38.421,30.55
38.437,34.11
38.453,36.68
38.468,38.07
38.484,38.39
38.500,37.93
38.515,36.97
38.531,35.6
38.546,33.9
38.562,32.1
38.578,30.59
38.593,29.82
38.609,30.09
38.625,31.27
38.640,32.67
38.656,33.63
38.671,33.44
38.687,32.09
38.703,29.96
38.718,27.69
38.734,25.84
38.750,24.56
38.765,23.7
38.781,22.88
38.796,21.9
38.812,20.61
38.828,18.88
38.843,16.42
38.859,12.87
38.875,8.13
38.890,2.39
38.906,-3.73
38.921,-9.31
38.937,-13.61
38.953,-16.39
38.968,-17.81
38.984,-18.46
39.000,-19.06
39.015,-20.01
39.031,-21.63
39.046,-24.1
39.062,-27.45
39.078,-31.69
39.093,-36.76
39.109,-42.25
39.125,-47.64
39.140,-52.47
39.156,-56.2
39.171,-58.74
39.187,-60.14
39.203,-60.32
39.218,-59.27
39.234,-56.86
39.250,-52.92
39.265,-47.51
39.281,-40.91
39.296,-33.3
39.312,-24.93
39.328,-16.0
39.343,-6.72
39.359,2.33
39.375,10.56
39.390,17.46
39.406,22.81
39.421,26.76
39.437,29.75
39.453,31.98
39.468,33.46
39.484,34.11
39.500,33.77
39.515,32.64
39.531,31.26
39.546,30.15
39.562,29.69
39.578,30.0
39.593,30.82
39.609,31.92
39.625,33.12
39.640,34.2
39.656,35.01
39.671,35.28
39.687,34.73
39.703,33.33
39.718,31.34
39.734,29.08
39.750,26.87
39.765,24.83
39.781,22.83
39.796,20.68
39.812,18.29
39.828,15.59
39.843,12.65
39.859,9.56
39.875,6.39
39.890,3.23
39.906,0.25
39.921,-2.39
39.937,-4.67
39.953,-6.64
39.968,-8.67
39.984,-11.17
40.000,-14.4
40.015,-18.33
40.031,-22.72
40.046,-27.05
40.062,-30.88
40.078,-33.95
40.093,-36.12
40.109,-37.65
40.125,-38.9
40.140,-40.4
40.156,-42.66
40.171,-45.93
40.187,-49.84
40.203,-53.48
40.218,-55.4
40.234,-54.28
40.250,-49.51
40.265,-41.49
40.281,-31.66
40.296,-21.83
40.312,-13.55
40.328,-7.52
40.343,-3.52
40.359,-0.72
40.375,2.0
40.390,5.35
40.406,9.57
40.421,14.44
40.437,19.33
40.453,23.64
40.468,26.77
40.484,28.41
40.500,28.39
40.515,26.9
40.531,24.29
40.546,21.15
40.562,18.26
40.578,16.3
40.593,15.94
40.609,17.46
40.625,20.58
40.640,24.69
40.656,28.69
40.671,31.51
40.687,32.51
40.703,31.68
40.718,29.58
40.734,27.05
40.750,24.75
40.765,22.82
40.781,21.06
40.796,19.02
40.812,16.32
40.828,12.84
40.843,8.87
40.859,4.82
40.875,1.08
40.890,-2.05
40.906,-4.48
40.921,-6.31
40.937,-7.87
40.953,-9.47
40.968,-11.59
40.984,-14.53
41.000,-18.4
41.015,-22.94
41.031,-27.67
41.046,-31.97
41.062,-35.41
41.078,-38.03
41.093,-40.09
41.109,-42.01
41.125,-44.31
41.140,-47.08
41.156,-49.95
41.171,-52.01
41.187,-52.34
41.203,-50.26
41.218,-45.76
41.234,-39.44
41.250,-32.12
41.265,-24.7
41.281,-17.87
41.296,-12.12
41.312,-7.63
41.328,-4.42
41.343,-2.15
41.359,-0.18
41.375,2.23
41.390,5.81
41.406,10.71
41.421,16.57
41.437,22.23
41.453,26.74
41.468,29.45
41.484,30.6
41.500,31.02
41.515,31.66
41.531,32.94
41.546,34.67
41.562,36.21
41.578,36.83
41.593,36.25
41.609,34.72
41.625,32.77
41.640,30.97
41.656,29.5
41.671,28.2
41.687,26.74
41.703,25.09
41.718,23.39
41.734,21.99
41.750,20.98
41.765,20.29
41.781,19.72
41.796,18.87
41.812,17.42
41.828,15.14
41.843,12.12
41.859,8.45
41.875,4.42
41.890,0.34
41.906,-3.58
41.921,-7.02
41.937,-10.05
41.953,-12.81
41.968,-15.65
41.984,-18.72
42.000,-22.08
42.015,-25.51
42.031,-28.67
42.046,-31.48
42.062,-34.03
42.078,-36.68
42.093,-39.77
42.109,-43.41
42.125,-47.31
42.140,-50.84
42.156,-53.01
42.171,-52.91
42.187,-50.18
42.203,-44.94
42.218,-38.01
42.234,-30.46
42.250,-23.26
42.265,-16.96
42.281,-11.52
42.296,-6.47
42.312,-1.15
42.328,4.61
42.343,10.75
42.359,16.86
42.375,22.4
42.390,27.07
42.406,30.65
42.421,33.13
42.437,34.46
42.453,34.67
42.468,33.62
42.484,31.46
42.500,28.6
42.515,25.68
42.531,23.55
42.546,22.81
42.562,23.39
42.578,24.59
42.593,25.4
42.609,24.95
42.625,23.26
42.640,21.16
42.656,19.71
42.671,19.62
42.687,20.66
42.703,21.76
42.718,21.69
42.734,19.79
42.750,16.29
42.765,12.08
42.781,8.23
42.796,5.09
42.812,2.33
42.828,-0.88
42.843,-5.13
42.859,-10.3
42.875,-15.4
42.890,-19.04
42.906,-20.24
42.921,-18.84
42.937,-15.81
42.953,-12.7
42.968,-11.06
42.984,-11.76
43.000,-14.63
43.015,-18.62
43.031,-22.44
43.046,-25.31
43.062,-27.32
43.078,-29.35
43.093,-32.38
43.109,-36.83
43.125,-42.21
43.140,-47.19
43.156,-50.16
43.171,-49.93
43.187,-46.2
43.203,-39.69
43.218,-31.57
43.234,-23.02
43.250,-14.65
43.265,-6.75
43.281,0.6
43.296,7.2
43.312,12.81
43.328,17.31
43.343,20.82
43.359,23.75
43.375,26.41
43.390,28.92
43.406,31.11
43.421,32.6
43.437,33.14
43.453,32.68
43.468,31.45
43.484,29.87
43.500,28.22
43.515,26.7
43.531,25.51
43.546,24.8
43.562,24.82
43.578,25.78
43.593,27.46
43.609,29.43
43.625,31.19
43.640,32.35
43.656,32.68
43.671,32.25
43.687,31.13
43.703,29.37
43.718,27.04
43.734,23.91
43.750,20.0
43.765,15.56
43.781,11.05
43.796,6.97
43.812,3.69
43.828,1.35
43.843,-0.09
43.859,-0.65
43.875,-0.58
43.890,-0.23
43.906,0.02
43.921,-0.32
43.937,-1.5
43.953,-3.61
43.968,-6.49
43.984,-9.82
44.000,-13.24
44.015,-16.52
44.031,-19.5
44.046,-22.17
44.062,-24.81
44.078,-27.53
44.093,-30.71
44.109,-34.72
44.125,-39.8
44.140,-45.76
44.156,-51.98
44.171,-57.33
44.187,-60.54
44.203,-60.87
44.218,-57.89
44.234,-52.14
44.250,-44.64
44.265,-36.66
44.281,-29.32
44.296,-23.27
44.312,-18.6
44.328,-14.85
44.343,-11.31
44.359,-7.15
44.375,-1.93
44.390,4.25
44.406,10.73
44.421,16.55
44.437,20.99
44.453,23.7
44.468,24.93
44.484,25.35
44.500,25.54
44.515,25.9
44.531,26.5
44.546,27.26
44.562,28.03
44.578,28.82
44.593,29.53
44.609,29.98
44.625,29.92
44.640,29.12
44.656,27.47
44.671,25.13
44.687,22.56
44.703,20.32
44.718,18.99
44.734,18.79
44.750,19.52
44.765,20.53
44.781,21.05
44.796,20.53
44.812,18.88
44.828,16.43
44.843,13.7
44.859,11.2
44.875,9.26
44.890,8.0
44.906,7.33
44.921,6.93
44.937,6.41
44.953,5.21
44.968,2.89
44.984,-0.62
45.000,-4.91
45.015,-9.27
45.031,-13.01
45.046,-15.88
45.062,-18.31
45.078,-21.01
45.093,-24.71
45.109,-29.54
45.125,-34.95
45.140,-39.78
45.156,-42.88
45.171,-43.46
45.187,-41.3
45.203,-36.7
45.218,-30.33
45.234,-22.97
45.250,-15.38
45.265,-8.29
45.281,-2.05
45.296,3.1
45.312,7.29
45.328,10.83
45.343,14.1
45.359,17.27
45.375,20.27
45.390,22.8
45.406,24.5
45.421,25.3
45.437,25.4
45.453,25.25
45.468,25.37
45.484,25.99
45.500,26.99
45.515,28.02
45.531,28.76
45.546,29.06
45.562,29.09
45.578,29.25
45.593,29.78
45.609,30.68
45.625,31.47
45.640,31.57
45.656,30.53
45.671,28.28
45.687,25.17
45.703,21.81
45.718,18.87
45.734,16.68
45.750,15.26
45.765,14.19
45.781,12.95
45.796,11.15
45.812,8.76
45.828,6.13
45.843,3.81
45.859,2.16
45.875,1.11
45.890,0.25
45.906,-1.04
45.921,-3.09
45.937,-5.82
45.953,-8.75
45.968,-11.25
45.984,-12.92
46.000,-13.74
46.015,-14.11
46.031,-14.58
46.046,-15.54
46.062,-17.07
46.078,-19.09
46.093,-21.48
46.109,-24.21
46.125,-27.44
46.140,-31.29
46.156,-35.79
46.171,-40.64
46.187,-45.23
46.203,-48.95
46.218,-51.16
46.234,-51.58
46.250,-50.27
46.265,-47.42
46.281,-43.19
46.296,-37.78
46.312,-31.38
46.328,-24.35
46.343,-17.22
46.359,-10.57
46.375,-4.56
46.390,0.82
46.406,5.93
46.421,11.06
46.437,16.17
46.453,20.84
46.468,24.45
46.484,26.63
46.500,27.39
46.515,27.39
46.531,27.24
46.546,27.32
46.562,27.56
46.578,27.56
46.593,26.96
46.609,25.76
46.625,24.25
46.640,22.84
46.656,21.84
46.671,21.13
46.687,20.5
46.703,19.71
46.718,18.81
46.734,18.11
46.750,17.86
46.765,18.01
46.781,18.29
46.796,18.28
46.812,17.67
46.828,16.45
46.843,14.9
46.859,13.24
46.875,11.7
46.890,10.33
46.906,9.13
46.921,8.18
46.937,7.62
46.953,7.43
46.968,7.28
46.984,6.78
47.000,5.29
47.015,2.65
47.031,-0.99
47.046,-4.93
47.062,-8.52
47.078,-11.29
47.093,-13.26
47.109,-14.81
47.125,-16.32
47.140,-18.07
47.156,-20.06
47.171,-22.25
47.187,-24.65
47.203,-27.42
47.218,-30.7
47.234,-34.52
47.250,-38.65
47.265,-42.85
47.281,-46.8
47.296,-50.3
47.312,-53.08
47.328,-54.86
47.343,-55.24
47.359,-53.93
47.375,-50.78
47.390,-46.0
47.406,-40.08
47.421,-33.53
47.437,-26.78
47.453,-19.88
47.468,-12.81
47.484,-5.46
47.500,2.01
47.515,9.42
47.531,16.22
47.546,22.11
47.562,26.82
47.578,30.23
47.593,32.5
47.609,33.82
47.625,34.47
47.640,34.77
47.656,35.05
47.671,35.46
47.687,36.23
47.703,37.24
47.718,38.11
47.734,38.48
47.750,38.02
47.765,36.71
47.781,34.78
47.796,32.8
47.812,31.23
47.828,30.35
47.843,30.12
47.859,30.1
47.875,29.78
47.890,28.83
47.906,27.12
47.921,24.92
47.937,22.67
47.953,20.78
47.968,19.36
47.984,18.21
48.000,16.81
48.015,14.72
48.031,11.65
48.046,7.69
48.062,3.26
48.078,-1.07
48.093,-4.75
48.109,-7.5
48.125,-9.24
48.140,-10.26
48.156,-10.84
48.171,-11.52
48.187,-12.65
48.203,-14.47
48.218,-16.92
48.234,-19.77
48.250,-22.82
48.265,-25.88
48.281,-29.0
48.296,-32.29
48.312,-35.87
48.328,-39.65
48.343,-43.5
48.359,-47.17
48.375,-50.55
48.390,-53.58
48.406,-56.06
48.421,-57.72
48.437,-58.11
48.453,-56.78
48.468,-53.5
48.484,-48.35
48.500,-41.74
48.515,-34.25
48.531,-26.55
48.546,-19.06
48.562,-12.16
48.578,-5.97
48.593,-0.59
48.609,4.02
48.625,7.93
48.640,11.22
48.656,14.07
48.671,16.53
48.687,18.82
48.703,20.92
48.718,22.71
48.734,24.02
48.750,24.72
48.765,24.93
48.781,25.08
48.796,25.77
48.812,27.29
48.828,29.73
48.843,32.53
48.859,34.96
48.875,36.33
48.890,36.12
48.906,34.22
48.921,30.86
48.937,26.59
48.953,21.99
48.968,17.81
48.984,14.59
49.000,12.72
49.015,12.22
49.031,12.7
49.046,13.46
49.062,13.8
49.078,13.29
49.093,11.66
49.109,9.1
49.125,5.89
49.140,2.44
49.156,-0.9
49.171,-3.93
49.187,-6.74
49.203,-9.47
49.218,-12.36
49.234,-15.53
49.250,-18.75
49.265,-21.74
49.281,-24.2
49.296,-26.08
49.312,-27.59
49.328,-29.13
49.343,-31.11
49.359,-33.85
49.375,-37.42
49.390,-41.62
49.406,-45.99
49.421,-49.95
49.437,-52.76
49.453,-53.68
49.468,-52.01
49.484,-47.48
49.500,-40.35
49.515,-31.46
49.531,-21.88
49.546,-12.61
49.562,-4.34
49.578,2.81
49.593,8.97
49.609,14.45
49.625,19.46
49.640,24.1
49.656,28.24
49.671,31.75
49.687,34.29
49.703,35.61
49.718,35.52
49.734,34.11
49.750,31.7
49.765,28.88
49.781,26.46
49.796,25.04
49.812,24.96
49.828,26.15
49.843,28.18
49.859,30.6
49.875,33.06
49.890,35.22
49.906,36.93
49.921,38.19
49.937,38.84
49.953,38.69
49.968,37.42
49.984,34.86
50.000,31.04
50.015,26.27
50.031,20.97
50.046,15.59
50.062,10.47
50.078,5.66
50.093,1.18
50.109,-2.82
50.125,-6.02
50.140,-7.99
50.156,-8.57
50.171,-8.03
50.187,-7.23
50.203,-7.21
50.218,-8.74
50.234,-12.0
50.250,-16.49
50.265,-21.31
50.281,-25.73
50.296,-29.57
50.312,-33.11
50.328,-36.78
50.343,-41.09
50.359,-45.69
50.375,-49.8
50.390,-52.62
50.406,-53.77
50.421,-53.61
50.437,-53.18
50.453,-53.49
50.468,-54.84
50.484,-56.91
50.500,-58.52
50.515,-58.47
50.531,-56.08
50.546,-51.53
50.562,-45.61
50.578,-39.47
50.593,-33.9
50.609,-29.18
50.625,-25.2
50.640,-21.57
50.656,-18.02
50.671,-14.31
50.687,-10.19
50.703,-5.46
50.718,-0.04
50.734,6.08
50.750,12.63
50.765,19.16
50.781,25.28
50.796,30.6
50.812,34.75
50.828,37.83
50.843,39.87
50.859,41.0
50.875,41.66
50.890,42.06
50.906,42.45
50.921,42.79
50.937,43.01
50.953,42.76
50.968,41.96
50.984,40.66
51.000,39.09
51.015,37.63
51.031,36.47
51.046,35.66
51.062,34.91
51.078,33.86
51.093,32.26
51.109,30.04
51.125,27.23
51.140,23.97
51.156,20.44
51.171,16.67
51.187,12.79
51.203,9.03
51.218,5.74
51.234,3.31
51.250,2.11
51.265,2.03
51.281,2.82
51.296,3.91
51.312,4.49
51.328,3.94
51.343,1.92
51.359,-1.5
51.375,-5.78
51.390,-9.98
51.406,-13.13
51.421,-14.59
51.437,-14.33
51.453,-12.99
51.468,-11.63
51.484,-11.32
51.500,-12.74
51.515,-16.03
51.531,-20.76
51.546,-26.09
51.562,-31.18
51.578,-35.51
51.593,-38.76
51.609,-40.83
51.625,-41.84
51.640,-41.95
51.656,-41.15
51.671,-39.23
51.687,-35.86
51.703,-30.85
51.718,-24.42
51.734,-17.07
51.750,-9.47
51.765,-2.16
51.781,4.68
51.796,11.13
51.812,17.22
51.828,22.84
51.843,27.5
51.859,30.72
51.875,32.27
51.890,32.35
51.906,31.46
51.921,30.22
51.937,29.03
51.953,28.07
51.968,27.34
51.984,26.7
52.000,26.08
52.015,25.39
52.031,24.62
52.046,23.97
52.062,23.65
52.078,23.79
52.093,24.44
52.109,25.36
52.125,26.05
52.140,26.07
52.156,25.06
52.171,22.99
52.187,20.16
52.203,17.07
52.218,14.18
52.234,11.9
52.250,10.41
52.265,9.75
52.281,9.94
52.296,10.83
52.312,12.12
52.328,13.24
52.343,13.62
52.359,12.68
52.375,10.27
52.390,6.48
52.406,1.84
52.421,-2.89
52.437,-7.28
52.453,-11.14
52.468,-14.76
52.484,-18.48
52.500,-22.56
52.515,-26.9
52.531,-31.31
52.546,-35.55
52.562,-39.6
52.578,-43.65
52.593,-47.92
52.609,-52.35
52.625,-56.32
52.640,-58.97
52.656,-59.4
52.671,-57.25
52.687,-52.71
52.703,-46.51
52.718,-39.4
52.734,-32.06
52.750,-24.9
52.765,-18.03
52.781,-11.76
52.796,-6.22
52.812,-1.46
52.828,2.59
52.843,6.13
52.859,9.36
52.875,12.33
52.890,15.01
52.906,17.38
52.921,19.61
52.937,21.92
52.953,24.56
52.968,27.33
52.984,29.78
53.000,31.44
53.015,32.08
53.031,31.95
53.046,31.61
53.062,31.58
53.078,32.1
53.093,33.14
53.109,34.33
53.125,35.34
53.140,35.8
53.156,35.39
53.171,33.75
53.187,30.75
53.203,26.31
53.218,20.81
53.234,14.97
53.250,9.58
53.265,5.37
53.281,2.53
53.296,0.89
53.312,0.07
53.328,-0.28
53.343,-0.39
53.359,-0.25
53.375,0.25
53.390,1.17
53.406,2.4
53.421,3.68
53.437,4.47
53.453,4.3
53.468,2.9
53.484,0.34
53.500,-2.96
53.515,-6.48
53.531,-9.81
53.546,-12.88
53.562,-15.85
53.578,-19.19
53.593,-23.22
53.609,-27.98
53.625,-33.18
53.640,-38.11
53.656,-41.92
53.671,-43.76
53.687,-42.97
53.703,-39.23
53.718,-32.93
53.734,-25.02
53.750,-16.88
53.765,-9.77
53.781,-4.38
53.796,-0.74
53.812,1.82
53.828,4.04
53.843,6.55
53.859,9.57
53.875,12.93
53.890,16.31
53.906,19.41
53.921,22.11
53.937,24.33
53.953,26.09
53.968,27.36
53.984,28.17
54.000,28.6
54.015,28.84
54.031,29.07
54.046,29.42
54.062,29.84
54.078,30.07
54.093,29.75
54.109,28.65
54.125,26.66
54.140,23.95
54.156,20.88
54.171,17.78
54.187,14.91
54.203,12.24
54.218,9.65
54.234,7.03
54.250,4.48
54.265,2.22
54.281,0.55
54.296,-0.47
54.312,-0.96
54.328,-1.33
54.343,-1.97
54.359,-3.03
54.375,-4.46
54.390,-5.93
54.406,-7.06
54.421,-7.72
54.437,-8.02
54.453,-8.36
54.468,-9.16
54.484,-10.71
54.500,-13.03
54.515,-15.84
54.531,-18.68
54.546,-20.99
54.562,-22.49
54.578,-23.31
54.593,-23.91
54.609,-24.89
54.625,-26.7
54.640,-29.4
54.656,-32.59
54.671,-35.73
54.687,-38.13
54.703,-39.35
54.718,-39.05
54.734,-37.02
54.750,-33.25
54.765,-27.9
54.781,-21.42
54.796,-14.5
54.812,-7.8
54.828,-1.8
54.843,3.33
54.859,7.78
54.875,11.92
54.890,15.98
54.906,20.12
54.921,24.24
54.937,28.28
54.953,32.04
54.968,35.38
54.984,38.11
55.000,39.96
55.015,40.72
55.031,40.47
55.046,39.58
55.062,38.56
55.078,37.77
55.093,37.12
55.109,36.34
55.125,34.95
55.140,32.76
55.156,29.86
55.171,26.62
55.187,23.55
55.203,20.87
55.218,18.75
55.234,17.18
55.250,16.29
55.265,16.09
55.281,16.34
55.296,16.5
55.312,15.8
55.328,13.79
55.343,10.56
55.359,6.81
55.375,3.48
55.390,1.27
55.406,0.17
55.421,-0.44
55.437,-1.34
55.453,-3.07
55.468,-5.49
55.484,-8.01
55.500,-9.92
55.515,-11.02
55.531,-11.52
55.546,-11.97
55.562,-12.86
55.578,-14.39
55.593,-16.57
55.609,-19.13
55.625,-21.87
55.640,-24.58
55.656,-27.27
55.671,-30.01
55.687,-32.93
55.703,-36.27
55.718,-40.22
55.734,-44.98
55.750,-50.44
55.765,-56.14
55.781,-61.21
55.796,-64.53
55.812,-65.0
55.828,-61.93
55.843,-55.3
55.859,-45.85
55.875,-34.96
55.890,-24.27
55.906,-15.28
55.921,-8.91
55.937,-5.19
55.953,-3.55
55.968,-2.95
55.984,-2.44
56.000,-1.46
56.031,1.66
56.046,3.03
56.062,3.77
56.078,3.82
56.093,3.28
56.109,2.46
56.125,1.78
56.140,1.69
56.156,2.61
56.171,4.88
56.187,8.61
56.203,13.66
56.218,19.59
56.234,25.64
56.250,31.1
56.265,35.39
56.281,38.29
56.296,39.93
56.312,40.65
56.328,40.8
56.343,40.55
56.359,39.74
56.375,38.09
56.390,35.49
56.406,31.93
56.421,27.81
56.437,23.74
56.453,20.29
56.468,17.78
56.484,16.14
56.500,14.86
56.515,13.3
56.531,10.81
56.546,6.97
56.562,1.76
56.578,-4.46
56.593,-11.02
56.609,-17.15
56.625,-22.2
56.640,-25.82
56.656,-28.06
56.671,-29.4
56.687,-30.63
56.703,-32.53
56.718,-35.7
56.734,-40.25
56.750,-45.79
56.765,-51.5
56.781,-56.46
56.796,-59.86
56.812,-61.27
56.828,-60.63
56.843,-58.1
56.859,-54.03
56.875,-48.78
56.890,-42.71
56.906,-36.24
56.921,-29.82
56.937,-23.78
56.953,-18.36
56.968,-13.49
56.984,-8.83
57.000,-3.93
57.015,1.55
57.031,7.61
57.046,13.92
57.062,19.87
57.078,24.93
57.093,28.78
57.109,31.39
57.125,33.03
57.140,34.02
57.156,34.66
57.171,35.04
57.187,35.11
57.203,34.73
57.218,33.83
57.234,32.41
57.250,30.71
57.265,29.13
57.281,28.0
57.296,27.58
57.312,27.86
57.328,28.54
57.343,29.17
57.359,29.3
57.375,28.66
57.390,27.33
57.406,25.55
57.421,23.7
57.437,22.16
57.453,21.08
57.468,20.38
57.484,19.84
57.500,19.15
57.515,18.2
57.531,17.06
57.546,15.95
57.562,15.17
57.578,14.88
57.593,15.05
57.609,15.42
57.625,15.59
57.640,15.15
57.656,13.87
57.671,11.69
57.687,8.7
57.703,5.08
57.718,0.99
57.734,-3.51
57.750,-8.42
57.765,-13.74
57.781,-19.42
57.796,-25.29
57.812,-31.12
57.828,-36.78
57.843,-42.16
57.859,-47.22
57.875,-51.89
57.890,-55.93
57.906,-58.95
57.921,-60.45
57.937,-59.99
57.953,-57.33
57.968,-52.64
57.984,-46.42
58.000,-39.5
58.015,-32.77
58.031,-26.91
58.046,-22.19
58.062,-18.38
58.078,-14.82
58.093,-10.69
58.109,-5.35
58.125,1.37
58.140,9.0
58.156,16.61
58.171,23.16
58.187,27.83
58.203,30.31
58.218,30.91
58.234,30.29
58.250,29.25
58.265,28.39
58.281,28.03
58.296,28.17
58.312,28.69
58.328,29.36
58.343,30.03
58.359,30.57
58.375,30.9
58.390,31.02
58.406,30.94
58.421,30.75
58.437,30.48
58.453,30.14
58.468,29.57
58.484,28.57
58.500,27.0
58.515,24.85
58.531,22.31
58.546,19.72
58.562,17.36
58.578,15.35
58.593,13.58
58.609,11.81
58.625,9.75
58.640,7.35
58.656,4.71
58.671,2.05
58.687,-0.45
58.703,-2.81
58.718,-5.14
58.734,-7.61
58.750,-10.25
58.765,-12.94
58.781,-15.44
58.796,-17.55
58.812,-19.23
58.828,-20.58
58.843,-21.81
58.859,-23.22
58.875,-25.14
58.890,-27.82
58.906,-31.38
58.921,-35.62
58.937,-40.19
58.953,-44.46
58.968,-47.83
58.984,-49.91
59.000,-50.48
59.015,-49.58
59.031,-47.29
59.046,-43.68
59.062,-38.77
59.078,-32.73
59.093,-25.88
59.109,-18.78
59.125,-12.06
59.140,-6.09
59.156,-0.89
59.171,3.81
59.187,8.37
59.203,13.06
59.218,17.85
59.234,22.46
59.250,26.54
59.265,29.77
59.281,32.06
59.296,33.61
59.312,34.73
59.328,35.73
59.343,36.81
59.359,37.88
59.375,38.74
59.390,39.09
59.406,38.74
59.421,37.63
59.437,35.88
59.453,33.73
59.468,31.46
59.484,29.19
59.500,26.95
59.515,24.64
59.531,22.28
59.546,19.95
59.562,17.91
59.578,16.41
59.593,15.52
59.609,15.16
59.625,14.95
59.640,14.47
59.656,13.2
59.671,10.96
59.687,7.78
59.703,3.98
59.718,0.01
59.734,-3.81
59.750,-7.18
59.765,-9.97
59.781,-12.09
59.796,-13.55
59.812,-14.39
59.828,-14.8
59.843,-15.08
59.859,-15.57
59.875,-16.74
59.890,-18.79
59.906,-21.74
59.921,-25.37
59.937,-29.35
59.953,-33.39
59.968,-37.35
59.984,-41.24
