timestamp,value
00.000,20.48
00.015,13.83
00.031,3.92
00.046,-9.33
00.062,-25.26
00.078,-42.69
00.093,-59.96
00.109,-75.4
00.125,-87.64
00.140,-95.79
00.156,-99.65
00.171,-100.15
00.187,-99.19
00.203,-99.09
00.218,-102.44
00.234,-111.48
00.250,-127.59
00.265,-151.0
00.281,-180.68
00.296,-214.45
00.312,-249.25
00.328,-281.6
00.343,-307.99
00.359,-325.6
00.375,-332.37
00.390,-327.2
00.406,-310.02
00.421,-281.65
00.437,-243.48
00.453,-197.11
00.468,-144.28
00.484,-86.73
00.500,-26.55
00.515,34.28
00.531,93.75
00.546,149.55
00.562,199.16
00.578,240.19
00.593,270.67
00.609,289.25
00.625,295.37
00.640,289.17
00.656,271.56
00.671,244.19
00.687,209.02
00.703,168.23
00.718,124.37
00.734,79.72
00.750,36.24
00.765,-4.62
00.781,-42.19
00.796,-76.66
00.812,-108.91
00.828,-140.28
00.843,-172.05
00.859,-204.77
00.875,-238.37
00.890,-272.25
00.906,-305.85
00.921,-339.16
00.937,-372.75
00.953,-407.1
00.968,-441.95
00.984,-475.47
01.000,-504.11
01.015,-523.63
01.031,-530.4
01.046,-522.86
01.062,-501.99
01.078,-470.68
01.093,-432.07
01.109,-388.55
01.125,-341.58
01.140,-292.23
01.156,-242.22
01.171,-193.98
01.187,-149.66
01.203,-110.12
01.218,-74.49
01.234,-40.96
01.250,-9.2
01.265,18.51
01.281,37.7
01.296,43.45
01.312,33.38
01.328,9.12
01.343,-24.83
01.359,-63.23
01.375,-102.14
01.390,-140.99
01.406,-181.54
01.421,-225.62
01.437,-272.61
01.453,-318.03
01.468,-353.63
01.484,-369.87
01.500,-359.5
01.515,-320.48
01.531,-258.62
01.546,-186.54
01.562,-118.72
01.578,-66.55
01.593,-34.59
01.609,-20.74
01.625,-19.64
01.640,-26.54
01.656,-38.93
01.671,-56.11
01.687,-76.61
01.703,-96.45
01.718,-110.88
01.734,-117.16
01.750,-117.55
01.765,-119.21
01.781,-131.02
01.796,-159.23
01.812,-204.43
01.828,-260.95
01.843,-319.37
01.859,-371.12
01.875,-410.23
01.890,-434.32
01.906,-443.85
01.921,-440.93
01.937,-428.07
01.953,-407.8
01.968,-382.16
01.984,-352.47
02.000,-320.56
02.015,-287.86
02.031,-255.28
02.046,-223.64
02.062,-193.41
02.078,-164.85
02.093,-138.0
02.109,-112.83
02.125,-89.41
02.140,-68.23
02.156,-49.4
02.171,-32.83
02.187,-18.16
02.203,-4.64
02.218,8.61
02.234,22.57
02.250,37.87
02.265,54.79
02.281,73.21
02.296,92.9
02.312,113.55
02.328,134.78
02.343,156.21
02.359,177.46
02.375,197.98
02.390,216.94
02.406,233.52
02.421,246.81
02.437,256.11
02.453,261.12
02.468,261.81
02.484,258.73
02.500,252.54
02.515,243.99
02.531,233.97
02.546,223.18
02.562,212.26
02.578,201.59
02.593,191.44
02.609,181.99
02.625,173.29
02.640,165.26
02.656,157.79
02.671,150.76
02.687,143.95
02.703,137.18
02.718,130.19
02.734,122.92
02.750,115.27
02.765,107.15
02.781,98.76
02.796,90.31
02.812,82.1
02.828,74.4
02.843,67.45
02.859,61.54
02.875,56.89
02.890,53.46
02.906,51.22
02.921,50.07
02.937,49.78
02.953,50.0
02.968,50.33
02.984,50.58
03.000,50.52
03.015,50.02
03.031,49.09
03.046,47.77
03.062,46.23
03.078,44.59
03.093,42.88
03.109,41.17
03.125,39.49
03.140,37.72
03.156,35.83
03.171,33.86
03.187,31.7
03.203,29.34
03.218,26.77
03.234,24.04
03.250,21.36
03.265,18.8
03.281,16.55
03.296,14.84
03.312,13.84
03.328,13.65
03.343,14.31
03.359,15.78
03.375,18.03
03.390,20.87
03.406,24.21
03.421,27.83
03.437,31.54
03.453,35.14
03.468,38.37
03.484,41.1
03.500,43.18
03.515,44.5
03.531,45.12
03.546,45.26
03.562,45.05
03.578,44.78
03.593,44.65
03.609,44.9
03.625,45.79
03.640,47.3
03.656,49.35
03.671,51.83
03.687,54.55
03.703,57.18
03.718,59.42
03.734,60.97
03.750,61.6
03.765,61.09
03.781,59.4
03.796,56.58
03.812,52.78
03.828,48.29
03.843,43.47
03.859,38.81
03.875,34.75
03.890,31.55
03.906,29.35
03.921,28.12
03.937,27.68
03.953,27.8
03.968,28.34
03.984,29.35
04.000,31.1
04.015,33.78
04.031,37.54
04.046,42.41
04.062,48.07
04.078,54.12
04.093,60.11
04.109,65.92
04.125,71.82
04.140,78.35
04.156,86.12
04.171,95.5
04.187,106.44
04.203,118.24
04.218,129.95
04.234,140.73
04.250,150.37
04.265,159.2
04.281,168.25
04.296,178.69
04.312,191.28
04.328,205.92
04.343,221.65
04.359,237.07
04.375,250.93
04.390,262.74
04.406,273.02
04.421,283.15
04.437,294.89
04.453,309.92
04.468,329.09
04.484,352.28
04.500,377.83
04.515,402.66
04.531,422.68
04.546,433.75
04.562,432.7
04.578,418.58
04.593,392.87
04.609,359.44
04.625,323.44
04.640,289.6
04.656,261.02
04.671,238.43
04.687,220.47
04.703,204.65
04.718,188.94
04.734,172.62
04.750,156.67
04.765,142.91
04.781,132.61
04.796,125.81
04.812,120.91
04.828,115.57
04.843,108.11
04.859,98.59
04.875,88.89
04.890,81.56
04.906,78.53
04.921,79.79
04.937,83.38
04.953,86.56
04.968,87.08
04.984,84.77
05.000,81.54
05.015,80.21
05.031,82.96
05.046,90.02
05.062,99.21
05.078,107.32
05.093,111.6
05.109,111.29
05.125,108.07
05.140,104.88
05.156,104.1
05.171,106.11
05.187,108.8
05.203,108.21
05.218,100.69
05.234,84.52
05.250,60.5
05.265,31.43
05.281,0.4
05.296,-30.67
05.312,-61.89
05.328,-94.82
05.343,-131.39
05.359,-172.22
05.375,-215.63
05.390,-258.1
05.406,-295.64
05.421,-325.12
05.437,-345.8
05.453,-359.06
05.468,-367.27
05.484,-371.83
05.500,-371.63
05.515,-363.63
05.531,-344.56
05.546,-313.36
05.562,-272.6
05.578,-227.57
05.593,-183.57
05.609,-143.23
05.625,-105.15
05.640,-65.62
05.656,-21.87
05.671,25.42
05.687,71.39
05.703,109.08
05.718,133.06
05.734,142.03
05.750,139.3
05.765,130.62
05.781,121.43
05.796,114.42
05.812,109.06
05.828,102.92
05.843,93.53
05.859,80.12
05.875,64.25
05.890,48.97
05.906,36.89
05.921,29.15
05.937,24.44
05.953,19.76
05.968,12.25
05.984,0.98
06.000,-12.18
06.015,-23.53
06.031,-29.39
06.046,-28.27
06.062,-21.9
06.078,-14.36
06.093,-9.84
06.109,-10.56
06.125,-15.53
06.140,-21.27
06.156,-24.01
06.171,-21.47
06.187,-14.32
06.203,-5.7
06.218,0.47
06.234,1.81
06.250,-1.26
06.265,-5.96
06.281,-8.6
06.296,-6.74
06.312,-0.61
06.328,6.85
06.343,11.74
06.359,11.43
06.375,6.36
06.390,-0.04
06.406,-3.47
06.421,-0.97
06.437,7.16
06.453,17.55
06.468,25.73
06.484,28.66
06.500,26.58
06.515,22.54
06.531,20.55
06.546,23.27
06.562,30.3
06.578,38.3
06.593,43.25
06.609,42.5
06.625,36.34
06.640,27.89
06.656,21.1
06.671,18.73
06.687,20.69
06.703,24.22
06.718,25.42
06.734,21.54
06.750,12.54
06.765,0.93
06.781,-9.79
06.796,-17.13
06.812,-21.05
06.828,-24.01
06.843,-29.03
06.859,-37.91
06.875,-49.94
06.890,-62.19
06.906,-71.55
06.921,-76.13
06.937,-76.63
06.953,-75.81
06.968,-76.83
06.984,-81.5
07.000,-89.35
07.015,-98.18
07.031,-105.43
07.046,-109.72
07.062,-111.43
07.078,-112.59
07.093,-115.13
07.109,-119.6
07.125,-124.26
07.140,-126.0
07.156,-121.92
07.171,-110.69
07.187,-93.63
07.203,-73.95
07.218,-55.43
07.234,-40.6
07.250,-29.81
07.265,-21.28
07.281,-12.53
07.296,-1.55
07.312,12.32
07.328,28.0
07.343,43.84
07.359,58.34
07.375,71.13
07.390,83.08
07.406,95.52
07.421,109.61
07.437,125.64
07.453,142.89
07.468,160.03
07.484,176.23
07.500,191.32
07.515,205.37
07.531,217.65
07.546,225.51
07.562,224.34
07.578,208.64
07.593,174.58
07.609,122.24
07.625,56.94
07.640,-12.09
07.656,-74.77
07.671,-123.19
07.687,-153.98
07.703,-168.22
07.718,-169.54
07.734,-161.77
07.750,-147.19
07.765,-126.41
07.781,-99.73
07.796,-68.3
07.812,-34.64
07.828,-2.82
07.843,23.03
07.859,39.59
07.875,45.58
07.890,41.93
07.906,31.47
07.921,17.99
07.937,4.86
07.953,-6.15
07.968,-15.54
07.984,-25.08
08.000,-36.48
08.015,-49.79
08.031,-63.49
08.046,-75.79
08.062,-86.66
08.078,-99.02
08.093,-117.71
08.109,-146.91
08.125,-186.86
08.140,-232.79
08.156,-276.41
08.171,-309.3
08.187,-326.19
08.203,-326.81
08.218,-314.25
08.234,-292.35
08.250,-263.19
08.265,-226.48
08.281,-181.15
08.296,-127.22
08.312,-66.97
08.328,-4.68
08.343,55.15
08.359,109.42
08.375,157.16
08.390,199.15
08.406,236.81
08.421,271.1
08.437,301.78
08.453,326.8
08.468,342.75
08.484,345.44
08.500,331.44
08.515,299.54
08.531,252.07
08.546,194.82
08.562,135.34
08.578,80.39
08.593,33.92
08.609,-3.17
08.625,-32.09
08.640,-54.24
08.656,-70.32
08.671,-80.87
08.687,-87.1
08.703,-91.94
08.718,-99.21
08.734,-111.81
08.750,-130.09
08.765,-152.07
08.781,-174.92
08.796,-196.57
08.812,-216.6
08.828,-235.42
08.843,-252.8
08.859,-266.89
08.875,-274.78
08.890,-273.77
08.906,-263.31
08.921,-245.12
08.937,-222.13
08.953,-197.13
08.968,-171.15
08.984,-143.45
09.000,-111.91
09.015,-74.39
09.031,-29.82
09.046,20.93
09.062,74.92
09.078,127.28
09.093,172.52
09.109,206.45
09.125,227.66
09.140,238.26
09.156,242.91
09.171,246.56
09.187,252.36
09.203,260.36
09.218,268.03
09.234,272.01
09.250,270.17
09.265,262.37
09.281,249.81
09.296,233.67
09.312,213.84
09.328,188.58
09.343,155.95
09.359,115.27
09.375,68.44
09.390,20.17
09.406,-23.94
09.421,-59.38
09.437,-84.31
09.453,-99.99
09.468,-109.67
09.484,-116.85
09.500,-123.72
09.515,-130.91
09.531,-138.11
09.546,-145.01
09.562,-151.61
09.578,-158.59
09.593,-166.47
09.609,-175.15
09.625,-183.85
09.640,-191.44
09.656,-197.38
09.671,-202.49
09.687,-209.14
09.703,-220.6
09.718,-239.75
09.734,-267.55
09.750,-301.48
09.765,-335.55
09.781,-361.81
09.796,-372.97
09.812,-365.26
09.828,-340.34
09.843,-303.74
09.859,-261.67
09.875,-217.41
09.890,-169.36
09.906,-113.02
09.921,-45.03
09.937,33.43
09.953,115.64
09.968,191.34
09.984,250.98
10.000,289.76
10.015,308.71
10.031,312.91
10.046,308.5
10.062,300.66
10.078,292.12
10.093,283.13
10.109,271.98
10.125,255.42
10.140,229.83
10.156,193.1
10.171,146.74
10.187,96.64
10.203,51.25
10.218,18.33
10.234,1.21
10.250,-2.25
10.265,2.34
10.281,8.85
10.296,13.74
10.312,17.27
10.328,22.05
10.343,30.32
10.359,42.6
10.375,57.67
10.390,74.46
10.406,93.73
10.421,117.03
10.437,144.86
10.453,175.19
10.468,203.34
10.484,222.95
10.500,229.06
10.515,220.23
10.531,199.0
10.546,171.89
10.562,145.3
10.578,122.57
10.593,103.77
10.609,87.29
10.625,70.7
10.640,52.36
10.656,31.4
10.671,7.58
10.687,-15.46
10.703,-34.65
10.718,-48.27
10.734,-55.72
10.750,-57.08
10.765,-53.36
10.781,-45.89
10.796,-35.11
10.812,-18.79
10.828,12.77
10.843,67.68
10.859,148.46
10.875,250.74
10.890,365.72
10.906,483.05
10.921,593.6
10.937,690.79
10.953,769.68
10.968,830.9
10.984,869.18
11.000,873.78
11.015,833.82
11.031,745.33
11.046,614.99
11.062,459.02
11.078,297.86
11.093,113.52
11.109,-86.82
11.125,-280.38
11.140,-440.6
11.156,-553.18
11.171,-619.96
11.187,-651.39
11.203,-658.49
11.218,-650.02
11.234,-632.89
11.250,-606.0
11.265,-570.37
11.281,-529.78
11.296,-488.63
11.312,-449.06
11.328,-411.01
11.343,-373.29
11.359,-335.53
11.375,-298.08
11.390,-257.76
11.406,-215.12
11.421,-173.99
11.437,-138.45
11.453,-110.12
11.468,-87.95
11.484,-69.33
11.500,-51.43
11.515,-32.67
11.531,-9.48
11.546,18.18
11.562,46.88
11.578,72.59
11.593,92.12
11.609,103.81
11.625,105.53
11.640,97.61
11.656,82.1
11.671,64.49
11.687,48.43
11.703,34.55
11.718,22.72
11.734,12.6
11.750,4.23
11.765,-1.74
11.781,-4.22
11.796,-8.38
11.812,-11.71
11.828,-12.18
11.843,-9.99
11.859,-5.19
11.875,2.15
11.890,11.67
11.906,22.75
11.921,34.27
11.937,44.03
11.953,49.39
11.968,55.35
11.984,61.59
12.000,67.36
12.015,71.92
12.031,74.93
12.046,76.31
12.062,76.55
12.078,76.2
12.093,76.62
12.109,78.35
12.125,80.29
12.140,81.99
12.156,83.23
12.171,83.93
12.187,84.12
12.203,83.84
12.218,83.17
12.234,82.73
12.250,82.6
12.265,81.77
12.281,79.82
12.296,76.56
12.312,72.1
12.328,66.75
12.343,60.76
12.359,54.49
12.375,48.6
12.390,43.49
12.406,38.81
12.421,34.43
12.437,30.35
12.453,26.6
12.468,23.25
12.484,20.24
12.500,17.52
12.515,15.23
12.531,13.33
12.546,11.46
12.562,9.41
12.578,6.97
12.593,4.01
12.609,0.45
12.625,-3.83
12.640,-8.9
12.656,-14.58
12.671,-20.75
12.687,-27.08
12.703,-33.27
12.718,-38.98
12.734,-43.88
12.750,-47.7
12.765,-50.33
12.781,-51.84
12.796,-52.47
12.812,-52.74
12.828,-52.99
12.843,-53.77
12.859,-55.57
12.875,-58.69
12.890,-63.22
12.906,-68.96
12.921,-75.47
12.937,-82.06
12.953,-88.01
12.968,-92.46
12.984,-94.7
13.000,-94.3
13.015,-90.93
13.031,-84.74
13.046,-76.07
13.062,-65.52
13.078,-53.87
13.093,-42.0
13.109,-30.65
13.125,-20.38
13.140,-11.6
13.156,-4.27
13.171,1.6
13.187,6.26
13.203,9.87
13.218,12.44
13.234,13.81
13.250,13.66
13.265,11.53
13.281,6.9
13.296,-0.71
13.312,-11.65
13.328,-26.13
13.343,-44.13
13.359,-65.49
13.375,-89.66
13.390,-115.81
13.406,-142.69
13.421,-168.8
13.437,-192.47
13.453,-212.0
13.468,-225.99
13.484,-233.58
13.500,-234.62
13.515,-229.5
13.531,-219.27
13.546,-205.03
13.562,-187.82
13.578,-168.73
13.593,-149.05
13.609,-130.18
13.625,-113.82
13.640,-101.94
13.656,-96.42
13.671,-98.89
13.687,-109.91
13.703,-128.66
13.718,-153.34
13.734,-181.49
13.750,-210.69
13.765,-238.93
13.781,-265.0
13.796,-288.41
13.812,-308.65
13.828,-324.9
13.843,-335.65
13.859,-339.36
13.875,-334.63
13.890,-321.12
13.906,-299.82
13.921,-273.13
13.937,-244.39
13.953,-217.53
13.968,-196.65
13.984,-185.57
14.000,-186.9
14.015,-200.42
14.031,-222.57
14.046,-246.64
14.062,-264.51
14.078,-269.62
14.093,-259.72
14.109,-237.64
14.125,-210.02
14.140,-184.32
14.156,-165.63
14.171,-155.54
14.187,-152.73
14.203,-154.57
14.218,-158.9
14.234,-164.72
14.250,-171.81
14.265,-179.56
14.281,-186.74
14.296,-191.78
14.312,-193.59
14.328,-192.1
14.343,-188.45
14.359,-184.74
14.375,-182.99
14.390,-184.31
14.406,-188.39
14.421,-193.94
14.437,-199.21
14.453,-202.79
14.468,-203.88
14.484,-202.69
14.500,-200.19
14.515,-197.6
14.531,-195.81
14.546,-195.15
14.562,-195.78
14.578,-197.63
14.593,-200.75
14.609,-205.18
14.625,-211.19
14.640,-218.59
14.656,-226.68
14.671,-233.97
14.687,-238.08
14.703,-236.54
14.718,-227.15
14.734,-208.34
14.750,-179.5
14.765,-141.06
14.781,-94.21
14.796,-40.65
14.812,17.49
14.828,78.03
14.843,138.76
14.859,197.54
14.875,252.31
14.890,301.28
14.906,343.28
14.921,377.52
14.937,403.89
14.953,422.43
14.968,433.45
14.984,437.26
15.000,434.13
15.015,424.15
15.031,407.54
15.046,385.3
15.062,359.12
15.078,331.28
15.093,304.07
15.109,279.55
15.125,258.84
15.140,242.2
15.156,228.92
15.171,217.83
15.187,208.37
15.203,200.86
15.218,196.55
15.234,196.8
15.250,202.82
15.265,214.71
15.281,231.63
15.296,252.0
15.312,273.78
15.328,295.09
15.343,314.1
15.359,329.32
15.375,339.34
15.390,343.17
15.406,340.35
15.421,330.53
15.437,313.02
15.453,286.63
15.468,250.34
15.484,204.24
15.500,150.59
15.515,93.75
15.531,39.17
15.546,-7.77
15.562,-42.78
15.578,-62.99
15.593,-67.64
15.609,-58.64
15.625,-41.36
15.640,-23.46
15.656,-12.32
15.671,-11.7
15.687,-19.53
15.703,-29.01
15.718,-32.54
15.734,-26.79
15.750,-14.69
15.765,-3.82
15.781,-0.73
15.796,-6.39
15.812,-15.69
15.828,-20.96
15.843,-17.41
15.859,-5.92
15.875,7.95
15.890,18.41
15.906,23.1
15.921,23.97
15.937,25.02
15.953,28.91
15.968,35.19
15.984,40.42
16.000,40.4
16.015,32.4
16.031,16.71
16.046,-3.66
16.062,-23.73
16.078,-38.27
16.093,-43.67
16.109,-38.78
16.125,-25.23
16.140,-6.16
16.156,15.57
16.171,39.32
16.187,66.43
16.203,98.26
16.218,133.42
16.234,166.44
16.250,189.14
16.265,194.4
16.281,179.91
16.296,149.73
16.312,112.73
16.328,78.63
16.343,54.18
16.359,41.16
16.375,36.75
16.390,36.02
16.406,34.61
16.421,30.17
16.437,22.59
16.453,13.09
16.468,2.99
16.484,-6.66
16.500,-15.11
16.515,-21.72
16.531,-25.64
16.546,-26.03
16.562,-22.46
16.578,-14.77
16.593,-3.47
16.609,10.36
16.625,25.21
16.640,39.36
16.656,51.06
16.671,58.74
16.687,61.63
16.703,60.28
16.718,56.41
16.734,52.57
16.750,50.74
16.765,51.64
16.781,54.61
16.796,58.2
16.812,61.52
16.828,64.75
16.843,69.28
16.859,76.39
16.875,86.2
16.890,96.88
16.906,105.51
16.921,108.9
16.937,105.27
16.953,94.75
16.968,78.58
16.984,58.59
17.000,35.97
17.015,11.5
17.031,-13.76
17.046,-37.08
17.062,-54.39
17.078,-61.34
17.093,-55.79
17.109,-39.61
17.125,-18.49
17.140,-0.24
17.156,9.17
17.171,8.34
17.187,1.04
17.203,-5.98
17.218,-6.93
17.234,-0.24
17.250,10.58
17.265,19.55
17.281,21.7
17.296,16.26
17.312,6.91
17.328,-0.86
17.343,-3.28
17.359,-0.5
17.375,3.83
17.390,5.14
17.406,1.52
17.421,-5.32
17.437,-10.66
17.453,-9.67
17.468,-0.98
17.484,12.37
17.500,24.33
17.515,28.82
17.531,22.78
17.546,7.77
17.562,-11.3
17.578,-28.27
17.593,-38.72
17.609,-41.41
17.625,-37.7
17.640,-30.19
17.656,-21.34
17.671,-13.08
17.687,-6.8
17.703,-3.94
17.718,-5.91
17.734,-13.16
17.750,-24.42
17.765,-36.0
17.781,-42.72
17.796,-40.22
17.812,-27.36
17.828,-7.34
17.843,13.17
17.859,26.76
17.875,28.64
17.890,18.61
17.906,1.33
17.921,-16.12
17.937,-27.73
17.953,-30.43
17.968,-24.48
17.984,-12.51
18.000,2.16
18.015,16.56
18.031,28.18
18.046,35.12
18.062,35.98
18.078,30.64
18.093,20.53
18.109,8.38
18.125,-2.99
18.140,-11.64
18.156,-17.21
18.171,-20.84
18.187,-23.95
18.203,-27.48
18.218,-31.71
18.234,-36.28
18.250,-40.63
18.265,-44.56
18.281,-47.83
18.296,-50.03
18.312,-50.63
18.328,-49.39
18.343,-46.62
18.359,-43.26
18.375,-40.64
18.390,-40.03
18.406,-41.97
18.421,-45.92
18.437,-50.46
18.453,-53.77
18.468,-54.56
18.484,-52.71
18.500,-49.17
18.515,-45.48
18.531,-42.89
18.546,-41.58
18.562,-40.63
18.578,-38.39
18.593,-33.4
18.609,-25.05
18.625,-13.78
18.640,-0.64
18.656,12.71
18.671,24.51
18.687,33.24
18.703,37.83
18.718,37.92
18.734,33.88
18.750,26.97
18.765,19.14
18.781,12.77
18.796,9.83
18.812,11.23
18.828,16.28
18.843,22.72
18.859,27.74
18.875,29.12
18.890,26.28
18.906,20.69
18.921,15.11
18.937,12.36
18.953,14.15
18.968,20.18
18.984,28.36
19.000,35.94
19.015,40.51
19.031,40.94
19.046,37.67
19.062,32.12
19.078,26.1
19.093,21.14
19.109,17.92
19.125,16.07
19.140,14.72
19.156,12.78
19.171,9.51
19.187,4.64
19.203,-1.57
19.218,-8.65
19.234,-16.12
19.250,-23.5
19.265,-30.06
19.281,-34.69
19.296,-36.4
19.312,-34.7
19.328,-30.14
19.343,-24.47
19.359,-19.9
19.375,-18.17
19.390,-19.66
19.406,-22.95
19.421,-25.86
19.437,-26.6
19.453,-24.79
19.468,-21.73
19.484,-19.59
19.500,-19.87
19.515,-22.3
19.531,-24.84
19.546,-24.59
19.562,-19.56
19.578,-9.6
19.593,3.79
19.609,18.34
19.625,32.05
19.640,44.01
19.656,54.16
19.671,62.67
19.687,69.44
19.703,74.03
19.718,76.0
19.734,75.53
19.750,73.37
19.765,70.67
19.781,68.63
19.796,67.73
19.812,67.47
19.828,66.57
19.843,63.41
19.859,56.63
19.875,45.91
19.890,32.14
19.906,17.61
19.921,4.98
19.937,-3.7
19.953,-7.69
19.968,-7.85
19.984,-6.01
20.000,-4.16
20.015,-3.54
20.031,-4.57
20.046,-6.78
20.062,-9.28
20.078,-11.02
20.093,-10.91
20.109,-7.99
20.125,-1.96
20.140,6.49
20.156,15.81
20.171,23.81
20.187,28.42
20.203,28.57
20.218,24.42
20.234,17.24
20.250,8.9
20.265,1.19
20.281,-4.4
20.296,-6.71
20.312,-5.14
20.328,-0.24
20.343,5.97
20.359,10.29
20.375,9.43
20.390,1.44
20.406,-12.88
20.421,-29.52
20.437,-42.63
20.453,-46.37
20.468,-38.1
20.484,-20.21
20.500,-0.17
20.515,12.29
20.531,9.49
20.546,-10.11
20.562,-40.72
20.578,-71.95
20.593,-93.66
20.609,-100.78
20.625,-94.52
20.640,-80.25
20.656,-63.17
20.671,-44.96
20.687,-23.99
20.703,1.67
20.718,30.71
20.734,57.55
20.750,75.01
20.765,78.8
20.781,70.37
20.796,56.6
20.812,46.25
20.828,45.25
20.843,53.98
20.859,67.71
20.875,79.68
20.890,84.67
20.906,81.6
20.921,73.75
20.937,66.76
20.953,66.03
20.968,74.34
20.984,90.84
21.000,111.68
21.015,132.03
21.031,148.08
21.046,158.57
21.062,165.1
21.078,170.81
21.093,178.56
21.109,189.43
21.125,202.7
21.140,216.54
21.156,229.37
21.171,240.63
21.187,251.05
21.203,261.39
21.218,270.89
21.234,276.61
21.250,274.34
21.265,260.31
21.281,233.27
21.296,195.39
21.312,151.14
21.328,105.92
21.343,64.29
21.359,28.89
21.375,0.75
21.390,-19.69
21.406,-32.26
21.421,-36.85
21.437,-33.86
21.453,-25.03
21.468,-13.53
21.484,-3.19
21.500,2.28
21.515,0.44
21.531,-9.39
21.546,-26.35
21.562,-48.39
21.578,-72.46
21.593,-95.28
21.609,-114.02
21.625,-126.33
21.640,-130.71
21.656,-126.33
21.671,-113.22
21.687,-92.21
21.703,-64.69
21.718,-32.44
21.734,2.35
21.750,37.46
21.765,70.71
21.781,100.27
21.796,124.97
21.812,143.93
21.828,156.75
21.843,163.5
21.859,164.52
21.875,160.31
21.890,151.65
21.906,139.49
21.921,124.97
21.937,109.27
21.953,93.65
21.968,79.16
21.984,66.62
22.000,56.47
22.015,48.86
22.031,43.76
22.046,41.07
22.062,40.53
22.078,41.96
22.093,45.22
22.109,49.98
22.125,55.67
22.140,61.29
22.156,65.69
22.171,67.57
22.187,65.8
22.203,59.72
22.218,49.29
22.234,35.05
22.250,17.77
22.265,-1.82
22.281,-23.29
22.296,-46.59
22.312,-71.95
22.328,-99.41
22.343,-128.63
22.359,-158.57
22.375,-187.79
22.390,-214.86
22.406,-238.97
22.421,-260.19
22.437,-279.63
22.453,-298.9
22.468,-319.25
22.484,-341.02
22.500,-363.35
22.515,-384.61
22.531,-402.81
22.546,-416.52
22.562,-425.25
22.578,-429.55
22.593,-430.79
22.609,-431.1
22.625,-433.04
22.640,-439.3
22.656,-451.59
22.671,-469.28
22.687,-488.57
22.703,-502.9
22.718,-505.09
22.734,-490.27
22.750,-458.37
22.765,-414.5
22.781,-366.93
22.796,-323.85
22.812,-290.63
22.828,-268.63
22.843,-256.16
22.859,-250.52
22.875,-249.67
22.890,-252.57
22.906,-258.64
22.921,-266.73
22.937,-274.86
22.953,-280.82
22.968,-283.03
22.984,-281.26
23.000,-276.57
23.015,-270.82
23.031,-265.55
23.046,-261.32
23.062,-257.51
23.078,-252.65
23.093,-245.22
23.109,-234.26
23.125,-219.95
23.140,-203.49
23.156,-186.52
23.171,-170.48
23.187,-156.01
23.203,-142.85
23.218,-130.05
23.234,-116.68
23.250,-102.07
23.265,-86.26
23.281,-69.9
23.296,-53.74
23.312,-38.39
23.328,-23.97
23.343,-10.07
23.359,3.93
23.375,18.41
23.390,33.33
23.406,48.19
23.421,62.29
23.437,75.12
23.453,86.72
23.468,97.75
23.484,109.37
23.500,122.64
23.515,138.12
23.531,155.69
23.546,174.55
23.562,193.72
23.578,212.58
23.593,230.93
23.609,248.95
23.625,267.2
23.640,286.02
23.656,305.77
23.671,326.9
23.687,349.71
23.703,374.17
23.718,399.09
23.734,421.4
23.750,436.73
23.765,441.14
23.781,432.68
23.796,412.99
23.812,386.55
23.828,358.64
23.843,332.89
23.859,310.03
23.875,288.21
23.890,264.94
23.906,239.11
23.921,211.61
23.937,184.95
23.953,161.69
23.968,143.46
23.984,130.49
24.000,122.3
24.015,118.2
24.031,117.5
24.046,119.52
24.062,122.9
24.078,125.84
24.093,126.17
24.109,121.64
24.125,111.08
24.140,94.84
24.156,75.45
24.171,57.09
24.187,44.12
24.203,39.11
24.218,41.63
24.234,47.98
24.250,52.81
24.265,52.04
24.281,44.38
24.296,31.98
24.312,18.93
24.328,9.06
24.343,3.95
24.359,2.7
24.375,2.97
24.390,2.66
24.406,1.23
24.421,-0.5
24.437,-1.39
24.453,-1.21
24.468,-1.17
24.484,-3.69
24.500,-10.82
24.515,-22.77
24.531,-37.48
24.546,-51.05
24.562,-59.98
24.578,-62.66
24.593,-60.06
24.609,-54.99
24.625,-50.31
24.640,-47.46
24.656,-46.02
24.671,-44.47
24.687,-41.33
24.703,-36.26
24.718,-29.88
24.734,-23.43
24.750,-17.89
24.765,-13.83
24.781,-11.34
24.796,-10.19
24.812,-10.17
24.828,-10.82
24.843,-11.4
24.859,-11.04
24.875,-9.06
24.890,-5.16
24.906,0.46
24.921,7.26
24.937,14.35
24.953,20.67
24.968,25.19
24.984,27.13
25.000,26.38
25.015,23.73
25.031,20.83
25.046,19.37
25.062,20.39
25.078,24.0
25.093,29.7
25.109,36.67
25.125,43.71
25.140,49.11
25.156,50.48
25.171,45.73
25.187,34.27
25.203,18.18
25.218,1.34
25.234,-12.27
25.250,-20.38
25.265,-23.82
25.281,-25.27
25.296,-27.2
25.312,-30.08
25.328,-32.17
25.343,-30.74
25.359,-24.52
25.375,-14.76
25.390,-4.54
25.406,3.09
25.421,6.89
25.437,7.5
25.453,6.35
25.468,4.3
25.484,1.2
25.500,-3.86
25.515,-11.58
25.531,-21.25
25.546,-30.72
25.562,-37.06
25.578,-37.75
25.593,-32.2
25.609,-22.21
25.625,-11.4
25.640,-3.44
25.656,-0.44
25.671,-1.91
25.687,-5.3
25.703,-7.5
25.718,-6.67
25.734,-3.11
25.750,1.68
25.765,5.94
25.781,9.25
25.796,12.54
25.812,17.05
25.828,23.04
25.843,29.39
25.859,34.19
25.875,36.11
25.890,35.38
25.906,33.71
25.921,33.2
25.937,34.93
25.953,38.37
25.968,41.46
25.984,41.93
26.000,38.59
26.015,31.91
26.031,23.94
26.046,17.37
26.062,14.57
26.078,16.55
26.093,22.68
26.109,30.89
26.125,38.64
26.140,43.93
26.156,45.84
26.171,44.81
26.187,42.28
26.203,39.74
26.218,37.94
26.234,36.47
26.250,34.25
26.265,30.24
26.281,24.28
26.296,17.4
26.312,11.41
26.328,7.99
26.343,7.71
26.359,9.45
26.375,10.87
26.390,9.68
26.406,5.09
26.421,-1.68
26.437,-8.15
26.453,-11.98
26.468,-12.8
26.484,-12.47
26.500,-13.89
26.515,-19.09
26.531,-27.67
26.546,-36.83
26.562,-43.05
26.578,-44.34
26.593,-41.57
26.609,-38.08
26.625,-37.43
26.640,-41.24
26.656,-48.22
26.671,-55.25
26.687,-59.28
26.703,-59.16
26.718,-55.86
26.734,-51.49
26.750,-47.56
26.765,-43.89
26.781,-38.89
26.796,-31.07
26.812,-20.82
26.828,-10.57
26.843,-3.37
26.859,-1.17
26.875,-3.78
26.890,-9.09
26.906,-14.26
26.921,-17.16
26.937,-17.65
26.953,-17.64
26.968,-19.73
26.984,-24.8
27.000,-31.85
27.015,-38.74
27.031,-43.81
27.046,-46.66
27.062,-48.19
27.078,-50.09
27.093,-54.37
27.109,-62.03
27.125,-71.28
27.140,-79.27
27.156,-83.8
27.171,-85.21
27.187,-86.12
27.203,-89.69
27.218,-97.5
27.234,-108.99
27.250,-119.89
27.265,-121.97
27.281,-106.73
27.296,-68.67
27.312,-7.9
27.328,70.37
27.343,158.11
27.359,246.91
27.375,328.82
27.390,385.72
27.406,401.03
27.421,368.4
27.437,297.36
27.453,206.34
27.468,111.89
27.484,23.62
27.500,-50.69
27.515,-114.08
27.531,-167.54
27.546,-207.53
27.562,-230.19
27.578,-234.68
27.593,-224.77
27.609,-205.8
27.625,-183.42
27.640,-161.07
27.656,-140.23
27.671,-119.21
27.687,-93.03
27.703,-57.57
27.718,-12.28
27.734,38.52
27.750,87.96
27.765,129.63
27.781,160.15
27.796,178.8
27.812,187.8
27.828,193.04
27.843,200.26
27.859,213.13
27.875,232.07
27.890,255.07
27.906,278.65
27.921,298.3
27.937,308.31
27.953,293.13
27.968,244.81
27.984,167.83
28.000,79.76
28.015,1.88
28.031,-51.6
28.046,-77.84
28.062,-82.56
28.078,-74.84
28.093,-62.01
28.109,-45.88
28.125,-25.44
28.140,0.05
28.156,28.7
28.171,56.61
28.187,79.87
28.203,96.72
28.218,108.4
28.234,116.74
28.250,125.28
28.265,136.57
28.281,150.68
28.296,165.2
28.312,176.65
28.328,182.37
28.343,181.66
28.359,175.3
28.375,165.19
28.390,154.49
28.406,145.83
28.421,139.95
28.437,135.67
28.453,130.65
28.468,121.95
28.484,111.09
28.500,99.18
28.515,87.29
28.531,76.85
28.546,68.7
28.562,62.64
28.578,57.65
28.593,52.77
28.609,47.41
28.625,41.75
28.640,36.03
28.656,30.77
28.671,26.83
28.687,24.85
28.703,24.81
28.718,26.15
28.734,28.19
28.750,30.09
28.765,31.32
28.781,31.25
28.796,29.43
28.812,25.84
28.828,20.65
28.843,14.14
28.859,6.65
28.875,-1.22
28.890,-8.98
28.906,-16.09
28.921,-22.23
28.937,-27.29
28.953,-31.06
28.968,-33.59
28.984,-35.14
29.000,-36.23
29.015,-37.38
29.031,-39.23
29.046,-42.19
29.062,-46.73
29.078,-53.17
29.093,-61.51
29.109,-71.75
29.125,-83.97
29.140,-98.31
29.156,-115.04
29.171,-134.43
29.187,-156.43
29.203,-180.59
29.218,-206.18
29.234,-231.81
29.250,-255.75
29.265,-276.12
29.281,-290.83
29.296,-297.9
29.312,-295.61
29.328,-282.47
29.343,-257.35
29.359,-220.17
29.375,-171.8
29.390,-114.56
29.406,-52.25
29.421,10.24
29.437,67.55
29.453,115.0
29.468,149.36
29.484,169.53
29.500,176.22
29.515,171.58
29.531,158.04
29.546,137.49
29.562,110.79
29.578,77.95
29.593,38.88
29.609,-5.87
29.625,-54.63
29.640,-104.85
29.656,-153.63
29.671,-198.94
29.687,-240.16
29.703,-277.8
29.718,-313.34
29.734,-348.51
29.750,-384.82
29.765,-423.39
29.781,-464.25
29.796,-505.48
29.812,-542.62
29.828,-568.97
29.843,-577.32
29.859,-562.85
29.875,-525.64
29.890,-471.31
29.906,-409.11
29.921,-348.58
29.937,-295.95
29.953,-252.26
29.968,-214.27
29.984,-177.35
30.000,-138.59
30.015,-98.53
30.031,-60.84
30.046,-30.25
30.062,-10.23
30.078,-1.26
30.093,-0.89
30.109,-5.01
30.125,-9.93
30.140,-14.01
30.156,-17.77
30.171,-22.52
30.187,-28.42
30.203,-33.5
30.218,-34.39
30.234,-28.33
30.250,-15.04
30.265,2.95
30.281,21.84
30.296,38.94
30.312,54.11
30.328,69.44
30.343,86.67
30.359,105.14
30.375,121.18
30.390,130.16
30.406,129.8
30.421,122.32
30.437,114.17
30.453,113.16
30.468,124.82
30.484,150.02
30.500,185.22
30.515,224.28
30.531,260.5
30.546,287.76
30.562,301.0
30.578,296.75
30.593,273.89
30.609,235.04
30.625,187.37
30.640,141.36
30.656,107.49
30.671,92.22
30.687,95.26
30.703,110.02
30.718,126.43
30.734,135.33
30.750,131.46
30.765,114.42
30.781,87.29
30.796,54.36
30.812,19.77
30.828,-13.21
30.843,-41.92
30.859,-64.01
30.875,-77.71
30.890,-82.25
30.906,-78.42
30.921,-68.85
30.937,-57.27
30.953,-47.44
30.968,-42.36
30.984,-43.57
31.000,-50.77
31.015,-61.58
31.031,-71.43
31.046,-74.42
31.062,-64.83
31.078,-39.24
31.093,1.38
31.109,50.62
31.125,98.31
31.140,133.79
31.156,149.97
31.171,146.09
31.187,127.7
31.203,103.82
31.218,82.8
31.234,69.25
31.250,62.97
31.265,60.62
31.281,58.38
31.296,53.94
31.312,46.85
31.328,37.56
31.343,26.14
31.359,11.88
31.375,-5.9
31.390,-26.54
31.406,-47.6
31.421,-65.8
31.437,-78.51
31.453,-85.35
31.468,-88.67
31.484,-92.3
31.500,-99.51
31.515,-111.14
31.531,-125.03
31.546,-137.01
31.562,-143.33
31.578,-142.68
31.593,-137.0
31.609,-130.51
31.625,-127.36
31.640,-129.11
31.656,-133.54
31.671,-135.69
31.687,-130.03
31.703,-113.47
31.718,-87.27
31.734,-56.28
31.750,-26.68
31.765,-2.99
31.781,13.84
31.796,26.58
31.812,39.75
31.828,57.15
31.843,79.9
31.859,106.2
31.875,132.43
31.890,155.24
31.906,173.01
31.921,185.6
31.937,193.22
31.953,195.24
31.968,189.76
31.984,175.08
32.000,151.68
32.015,123.34
32.031,96.32
32.046,76.95
32.062,68.46
32.078,69.38
32.093,74.46
32.109,77.75
32.125,75.75
32.140,68.87
32.156,60.29
32.171,53.06
32.187,47.98
32.203,43.21
32.218,35.61
32.234,23.3
32.250,7.08
32.265,-9.79
32.281,-23.52
32.296,-31.86
32.312,-35.3
32.328,-36.23
32.343,-37.45
32.359,-40.3
32.375,-43.85
32.390,-45.51
32.406,-42.63
32.421,-34.29
32.437,-21.97
32.453,-9.3
32.468,-0.41
32.484,1.91
32.500,-2.39
32.515,-10.63
32.531,-19.06
32.546,-24.7
32.562,-26.98
32.578,-27.97
32.593,-31.14
32.609,-38.89
32.625,-50.64
32.640,-62.08
32.656,-66.81
32.671,-59.37
32.687,-38.24
32.703,-7.18
32.718,26.01
32.734,52.76
32.750,67.63
32.765,70.32
32.781,65.29
32.796,58.83
32.812,55.21
32.828,54.91
32.843,54.74
32.859,50.39
32.875,39.43
32.890,23.1
32.906,5.33
32.921,-9.65
32.937,-19.43
32.953,-24.65
32.968,-27.67
32.984,-30.8
33.000,-34.26
33.015,-36.16
33.031,-34.0
33.046,-26.46
33.062,-14.37
33.078,-0.51
33.093,11.53
33.109,19.35
33.125,22.04
33.140,20.34
33.156,15.83
33.171,10.0
33.187,4.01
33.203,-1.41
33.218,-5.85
33.234,-9.18
33.250,-11.35
33.265,-12.38
33.281,-12.16
33.296,-10.22
33.312,-6.21
33.328,-0.07
33.343,7.62
33.359,15.48
33.375,21.7
33.390,25.03
33.406,25.04
33.421,22.41
33.437,18.55
33.453,14.31
33.468,9.59
33.484,3.25
33.500,-5.87
33.515,-17.66
33.531,-30.16
33.546,-40.62
33.562,-46.74
33.578,-48.33
33.593,-47.72
33.609,-47.96
33.625,-50.67
33.640,-54.42
33.656,-55.25
33.671,-49.06
33.687,-34.53
33.703,-14.54
33.718,4.86
33.734,17.74
33.750,21.5
33.765,18.13
33.781,12.67
33.796,10.28
33.812,13.22
33.828,19.92
33.843,26.6
33.859,29.8
33.875,28.75
33.890,25.76
33.906,24.52
33.921,27.54
33.937,34.97
33.953,44.47
33.968,52.81
33.984,57.8
34.000,59.18
34.015,58.3
34.031,57.02
34.046,56.26
34.062,55.36
34.078,52.66
34.093,46.6
34.109,36.91
34.125,25.14
34.140,14.22
34.156,7.32
34.171,6.34
34.187,11.32
34.203,20.3
34.218,30.29
34.234,38.61
34.250,44.0
34.265,46.95
34.281,49.02
34.296,51.76
34.312,55.53
34.328,59.16
34.343,60.74
34.359,58.47
34.375,51.84
34.390,41.98
34.406,31.08
34.421,21.05
34.437,12.69
34.453,5.21
34.468,-3.0
34.484,-13.01
34.500,-24.31
34.515,-34.47
34.531,-40.42
34.546,-39.94
34.562,-33.19
34.578,-22.88
34.593,-12.95
34.609,-6.52
34.625,-4.44
34.640,-5.14
34.656,-5.6
34.671,-3.27
34.687,2.63
34.703,10.74
34.718,18.37
34.734,22.97
34.750,23.32
34.765,19.95
34.781,14.65
34.796,9.64
34.812,6.64
34.828,6.17
34.843,7.75
34.859,10.38
34.875,13.22
34.890,16.17
34.906,19.71
34.921,24.28
34.937,29.47
34.953,33.67
34.968,34.45
34.984,29.88
35.000,19.66
35.015,6.05
35.031,-6.92
35.046,-15.09
35.062,-16.13
35.078,-10.88
35.093,-2.84
35.109,3.62
35.125,5.49
35.140,2.41
35.156,-3.47
35.171,-8.99
35.187,-11.81
35.203,-11.81
35.218,-10.56
35.234,-9.98
35.250,-10.87
35.265,-12.23
35.281,-12.0
35.296,-8.49
35.312,-1.78
35.328,6.19
35.343,12.53
35.359,14.89
35.375,13.02
35.390,8.76
35.406,4.79
35.421,2.94
35.437,3.06
35.453,3.01
35.468,0.24
35.484,-6.49
35.500,-16.32
35.515,-26.51
35.531,-34.07
35.546,-37.27
35.562,-36.45
35.578,-33.49
35.593,-30.52
35.609,-28.77
35.625,-27.95
35.640,-26.89
35.656,-24.36
35.671,-20.04
35.687,-14.47
35.703,-9.14
35.718,-5.49
35.734,-3.9
35.750,-3.6
35.765,-2.8
35.781,0.23
35.796,6.09
35.812,13.29
35.828,18.74
35.843,19.22
35.859,12.91
35.875,0.91
35.890,-13.15
35.906,-24.83
35.921,-30.87
35.937,-30.59
35.953,-25.81
35.968,-19.2
35.984,-12.62
36.000,-6.4
36.031,6.74
36.046,12.83
36.062,16.16
36.078,15.05
36.093,9.75
36.109,2.78
36.125,-1.96
36.140,-1.17
36.156,6.04
36.171,17.72
36.187,30.1
36.203,39.2
36.218,42.4
36.234,39.14
36.250,30.91
36.265,20.18
36.281,9.64
36.296,1.47
36.312,-3.14
36.328,-4.09
36.343,-2.09
36.359,1.42
36.375,4.8
36.390,6.91
36.406,7.15
36.421,5.81
36.437,3.58
36.453,1.22
36.468,-0.69
36.484,-1.77
36.500,-1.81
36.515,-0.73
36.531,1.31
36.546,3.62
36.562,4.79
36.578,3.16
36.593,-2.47
36.609,-11.79
36.625,-22.7
36.640,-31.71
36.656,-35.52
36.671,-32.64
36.687,-24.51
36.703,-15.09
36.718,-9.17
36.734,-10.22
36.750,-18.5
36.765,-31.21
36.781,-43.52
36.796,-50.66
36.812,-49.85
36.828,-41.02
36.843,-26.31
36.859,-8.96
36.875,7.97
36.890,22.41
36.906,33.23
36.921,40.16
36.937,43.37
36.953,43.17
36.968,40.29
36.984,35.92
37.000,31.22
37.015,26.75
37.031,22.21
37.046,16.43
37.062,7.9
37.078,-4.05
37.093,-18.53
37.109,-33.07
37.125,-44.56
37.140,-50.54
37.156,-50.34
37.171,-45.04
37.187,-36.73
37.203,-27.49
37.218,-18.68
37.234,-10.66
37.250,-3.17
37.265,4.02
37.281,11.03
37.296,17.72
37.312,23.51
37.328,27.54
37.343,28.7
37.359,26.17
37.375,20.05
37.390,11.63
37.406,2.99
37.421,-3.62
37.437,-7.12
37.453,-7.74
37.468,-6.86
37.484,-5.89
37.500,-5.27
37.515,-4.52
37.531,-2.94
37.546,-0.46
37.562,1.87
37.578,2.18
37.593,-0.95
37.609,-7.54
37.625,-15.87
37.640,-23.26
37.656,-27.32
37.671,-27.54
37.687,-25.52
37.703,-24.16
37.718,-26.25
37.734,-32.52
37.750,-41.06
37.765,-48.03
37.781,-49.48
37.796,-43.02
37.812,-29.11
37.828,-10.61
37.843,8.59
37.859,24.83
37.875,36.19
37.890,42.63
37.906,45.36
37.921,45.99
37.937,45.56
37.953,44.34
37.968,41.99
37.984,38.35
38.000,33.81
38.015,29.41
38.031,26.46
38.046,25.49
38.062,25.76
38.078,25.36
38.093,22.29
38.109,15.85
38.125,7.63
38.140,0.83
38.156,-1.27
38.171,2.89
38.187,11.87
38.203,22.02
38.218,29.01
38.234,30.44
38.250,26.59
38.265,20.41
38.281,15.43
38.296,13.94
38.312,15.78
38.328,18.86
38.343,20.76
38.359,20.08
38.375,17.35
38.390,14.01
38.406,11.44
38.421,9.74
38.437,7.77
38.453,4.22
38.468,-1.33
38.484,-7.56
38.500,-12.01
38.515,-12.41
38.531,-8.13
38.546,-0.95
38.562,5.53
38.578,7.46
38.593,2.63
38.609,-8.53
38.625,-22.95
38.640,-36.6
38.656,-46.37
38.671,-51.35
38.687,-53.5
38.703,-56.1
38.718,-62.18
38.734,-72.57
38.750,-85.61
38.765,-97.77
38.781,-105.41
38.796,-106.4
38.812,-100.57
38.828,-89.6
38.843,-75.6
38.859,-60.22
38.875,-43.91
38.890,-26.65
38.906,-8.6
38.921,9.19
38.937,24.86
38.953,36.66
38.968,43.8
38.984,47.27
39.000,49.18
39.015,51.81
39.031,56.54
39.046,63.05
39.062,69.74
39.078,74.38
39.093,75.38
39.109,71.87
39.125,64.18
39.140,53.05
39.156,39.14
39.171,22.83
39.187,4.37
39.203,-15.38
39.218,-34.58
39.234,-50.28
39.250,-59.37
39.265,-59.77
39.281,-51.68
39.296,-38.42
39.312,-25.7
39.328,-19.18
39.343,-21.8
39.359,-32.01
39.375,-43.88
39.390,-50.08
39.406,-45.79
39.421,-31.52
39.437,-13.48
39.453,-0.22
39.468,1.65
39.484,-8.82
39.500,-26.48
39.515,-42.67
39.531,-49.29
39.546,-42.07
39.562,-21.32
39.578,9.37
39.593,46.06
39.609,85.65
39.625,125.76
39.640,163.7
39.656,195.89
39.671,217.98
39.687,226.36
39.703,220.02
39.718,201.1
39.734,174.5
39.750,146.27
39.765,121.24
39.781,101.91
39.796,88.58
39.812,80.05
39.828,75.15
39.843,73.77
39.859,76.86
39.875,86.23
39.890,103.23
39.906,127.59
39.921,156.8
39.937,186.55
39.953,212.19
39.968,229.87
39.984,237.76
40.000,235.94
40.015,226.08
40.031,210.23
40.046,189.56
40.062,164.22
40.078,134.25
40.093,101.08
40.109,67.9
40.125,38.75
40.140,16.0
40.156,-0.95
40.171,-15.77
40.187,-33.64
40.203,-58.54
40.218,-90.93
40.234,-126.82
40.250,-160.7
40.265,-188.47
40.281,-210.18
40.296,-229.77
40.312,-252.74
40.328,-283.61
40.343,-324.34
40.359,-373.42
40.375,-425.28
40.390,-473.81
40.406,-514.51
40.421,-546.06
40.437,-569.58
40.453,-586.7
40.468,-598.83
40.484,-607.47
40.500,-613.68
40.515,-616.3
40.531,-613.68
40.546,-604.57
40.562,-588.01
40.578,-561.2
40.593,-519.19
40.609,-457.24
40.625,-374.0
40.640,-271.65
40.656,-152.53
40.671,-20.23
40.687,120.47
40.703,262.78
40.718,399.72
40.734,525.61
40.750,635.8
40.765,725.26
40.781,767.43
40.796,740.25
40.812,643.37
40.828,502.74
40.843,350.57
40.859,208.22
40.875,83.94
40.890,-18.28
40.906,-107.04
40.921,-186.53
40.937,-254.07
40.953,-305.55
40.968,-338.73
40.984,-357.49
41.000,-366.62
41.015,-372.96
41.031,-382.09
41.046,-397.2
41.062,-417.4
41.078,-436.84
41.093,-448.29
41.109,-443.14
41.125,-418.02
41.140,-374.96
41.156,-319.56
41.171,-257.62
41.187,-193.81
41.203,-131.16
41.218,-69.24
41.234,-7.79
41.250,58.9
41.265,131.91
41.281,206.19
41.296,272.37
41.312,322.41
41.328,352.94
41.343,364.16
41.359,362.18
41.375,352.97
41.390,352.11
41.406,369.47
41.421,404.91
41.437,449.3
41.453,492.81
41.468,531.28
41.484,563.66
41.500,596.37
41.515,635.44
41.531,699.36
41.546,799.58
41.562,933.93
41.578,1087.14
41.593,1241.35
41.609,1384.43
41.625,1506.01
41.640,1603.6
41.656,1582.1
41.671,1390.87
41.687,1050.95
41.703,643.42
41.718,249.49
41.734,-86.36
41.750,-330.98
41.765,-513.15
41.781,-652.45
41.796,-758.82
41.812,-820.61
41.828,-828.72
41.843,-783.96
41.859,-701.96
41.875,-604.31
41.890,-509.05
41.906,-432.57
41.921,-380.05
41.937,-352.49
41.953,-336.28
41.968,-321.21
41.984,-309.19
42.000,-312.87
42.015,-350.11
42.031,-420.96
42.046,-510.02
42.062,-594.13
42.078,-664.49
42.093,-714.12
42.109,-737.59
42.125,-739.23
42.140,-729.42
42.156,-716.41
42.171,-700.88
42.187,-680.85
42.203,-651.81
42.218,-611.98
42.234,-557.21
42.250,-486.31
42.265,-402.23
42.281,-310.14
42.296,-215.04
42.312,-119.92
42.328,-28.7
42.343,54.75
42.359,125.51
42.375,181.69
42.390,222.35
42.406,246.54
42.421,253.83
42.437,245.26
42.453,223.41
42.468,190.75
42.484,149.61
42.500,101.97
42.515,50.67
42.531,-1.2
42.546,-50.45
42.562,-94.15
42.578,-130.02
42.593,-156.36
42.609,-172.65
42.625,-179.57
42.640,-178.42
42.656,-170.0
42.671,-155.02
42.687,-133.96
42.703,-106.93
42.718,-74.69
42.734,-38.05
42.750,1.77
42.765,43.11
42.781,84.13
42.796,123.53
42.812,160.26
42.828,193.6
42.843,223.51
42.859,249.84
42.875,272.76
42.890,292.34
42.906,308.72
42.921,321.46
42.937,329.95
42.953,333.34
42.968,330.85
42.984,322.57
43.000,309.76
43.015,295.36
43.031,282.74
43.046,274.57
43.062,271.39
43.078,271.23
43.093,270.38
43.109,265.15
43.125,253.7
43.140,236.73
43.156,217.1
43.171,198.08
43.187,182.33
43.203,171.25
43.218,165.44
43.234,165.08
43.250,169.9
43.265,178.57
43.281,187.84
43.296,192.57
43.312,187.29
43.328,168.67
43.343,137.64
43.359,99.38
43.375,61.16
43.390,29.13
43.406,6.2
43.421,-8.65
43.437,-18.59
43.453,-26.56
43.468,-33.51
43.484,-38.32
43.500,-39.52
43.515,-36.73
43.531,-31.42
43.546,-26.53
43.562,-24.57
43.578,-26.21
43.593,-30.07
43.609,-33.41
43.625,-33.7
43.640,-29.74
43.656,-21.94
43.671,-12.17
43.687,-2.69
43.703,5.06
43.718,11.56
43.734,18.89
43.750,29.85
43.765,46.11
43.781,67.05
43.796,89.42
43.812,108.27
43.828,118.91
43.843,118.84
43.859,108.87
43.875,92.37
43.890,73.75
43.906,56.29
43.921,40.66
43.937,25.53
43.953,8.97
43.968,-9.64
43.984,-28.47
44.000,-43.99
44.015,-52.91
44.031,-53.61
44.046,-47.23
44.062,-36.69
44.078,-25.19
44.093,-14.48
44.109,-4.28
44.125,7.3
44.140,22.46
44.156,42.44
44.171,66.79
44.187,93.58
44.203,120.32
44.218,144.94
44.234,166.48
44.250,185.01
44.265,200.77
44.281,213.15
44.296,219.96
44.312,217.91
44.328,204.09
44.343,177.88
44.359,141.72
44.375,100.18
44.390,58.15
44.406,18.88
44.421,-16.93
44.437,-50.06
44.453,-81.17
44.468,-109.46
44.484,-132.67
44.500,-148.29
44.515,-155.15
44.531,-154.51
44.546,-149.68
44.562,-144.38
44.578,-140.78
44.593,-138.57
44.609,-135.54
44.625,-129.28
44.640,-118.96
44.656,-106.01
44.671,-94.01
44.687,-86.98
44.703,-87.48
44.718,-94.96
44.734,-105.62
44.750,-113.99
44.765,-115.66
44.781,-109.46
44.796,-98.43
44.812,-88.39
44.828,-84.99
44.843,-90.72
44.859,-103.43
44.875,-117.73
44.890,-127.46
44.906,-129.04
44.921,-123.07
44.937,-113.29
44.953,-104.4
44.968,-98.91
44.984,-96.07
45.000,-92.79
45.015,-85.86
45.031,-74.39
45.046,-60.92
45.062,-50.06
45.078,-45.84
45.093,-49.36
45.109,-57.5
45.125,-64.33
45.140,-64.2
45.156,-54.64
45.171,-38.19
45.187,-20.73
45.203,-8.34
45.218,-3.7
45.234,-4.83
45.250,-6.34
45.265,-3.23
45.281,6.0
45.296,18.34
45.312,28.2
45.328,30.83
45.343,25.4
45.359,15.51
45.375,6.87
45.390,4.52
45.406,9.84
45.421,19.86
45.437,29.55
45.453,34.45
45.468,33.14
45.484,27.75
45.500,22.54
45.515,21.42
45.531,26.06
45.546,34.86
45.562,43.96
45.578,49.65
45.593,50.17
45.609,46.49
45.625,41.46
45.640,37.98
45.656,37.3
45.671,38.01
45.687,37.1
45.703,31.81
45.718,21.75
45.734,9.29
45.750,-1.52
45.765,-7.14
45.781,-6.51
45.796,-1.82
45.812,2.99
45.828,4.22
45.843,0.55
45.859,-6.18
45.875,-12.4
45.890,-14.65
45.906,-11.38
45.921,-3.8
45.937,5.18
45.953,12.69
45.968,17.43
45.984,19.96
46.000,22.2
46.015,25.63
46.031,30.34
46.046,34.61
46.062,35.86
46.078,32.03
46.093,23.16
46.109,11.61
46.125,0.78
46.140,-6.17
46.156,-8.06
46.171,-6.24
46.187,-3.59
46.203,-2.99
46.218,-5.62
46.234,-10.22
46.250,-14.05
46.265,-14.52
46.281,-10.63
46.296,-3.77
46.312,3.18
46.328,7.49
46.343,7.93
46.359,5.29
46.375,1.79
46.390,-0.44
46.406,-0.58
46.421,0.34
46.437,0.37
46.453,-2.14
46.468,-7.04
46.484,-12.39
46.500,-15.41
46.515,-13.96
46.531,-7.75
46.546,1.34
46.562,10.28
46.578,16.52
46.593,19.24
46.609,19.71
46.625,20.17
46.640,22.47
46.656,26.83
46.671,31.66
46.687,34.52
46.703,33.54
46.718,28.69
46.734,21.92
46.750,16.21
46.765,13.92
46.781,15.73
46.796,20.06
46.812,24.0
46.828,24.93
46.843,21.99
46.859,16.5
46.875,11.22
46.890,8.7
46.906,9.77
46.921,12.94
46.937,15.42
46.953,14.7
46.968,10.1
46.984,3.18
47.000,-3.28
47.015,-6.85
47.031,-6.83
47.046,-4.67
47.062,-2.96
47.078,-3.77
47.093,-7.24
47.109,-11.59
47.125,-14.29
47.140,-13.56
47.156,-9.76
47.171,-5.31
47.187,-3.4
47.203,-6.38
47.218,-14.18
47.234,-24.32
47.250,-33.21
47.265,-38.04
47.281,-37.97
47.296,-34.84
47.312,-31.72
47.328,-31.27
47.343,-34.15
47.359,-38.58
47.375,-41.41
47.390,-39.89
47.406,-33.27
47.421,-23.18
47.437,-12.87
47.453,-5.28
47.468,-1.4
47.484,0.13
47.500,1.96
47.515,6.26
47.531,13.4
47.546,21.39
47.562,27.25
47.578,28.58
47.593,25.18
47.609,19.27
47.625,14.0
47.640,11.88
47.656,13.14
47.671,15.68
47.687,16.32
47.703,12.58
47.718,4.25
47.734,-6.43
47.750,-15.9
47.765,-21.3
47.781,-21.62
47.796,-18.41
47.812,-14.55
47.828,-12.51
47.843,-13.01
47.859,-14.72
47.875,-15.28
47.890,-12.81
47.906,-7.47
47.921,-1.34
47.937,2.56
47.953,2.01
47.968,-3.02
47.984,-10.37
48.000,-16.95
48.015,-20.43
48.031,-20.3
48.046,-18.32
48.062,-16.99
48.078,-18.24
48.093,-22.05
48.109,-26.48
48.125,-28.76
48.140,-26.71
48.156,-20.14
48.171,-10.89
48.187,-2.01
48.203,3.83
48.218,5.75
48.234,4.93
48.250,3.94
48.265,5.15
48.281,9.33
48.296,15.08
48.312,19.69
48.328,20.68
48.343,17.32
48.359,11.17
48.375,4.99
48.390,1.43
48.406,1.41
48.421,3.73
48.437,6.01
48.453,6.18
48.468,3.88
48.484,0.7
48.500,-0.96
48.515,0.57
48.531,5.17
48.546,10.61
48.562,13.9
48.578,12.78
48.593,7.11
48.609,-1.02
48.625,-8.38
48.640,-12.19
48.656,-11.63
48.671,-8.05
48.687,-4.14
48.703,-2.32
48.718,-3.33
48.734,-5.97
48.750,-8.01
48.765,-7.45
48.781,-3.89
48.796,1.04
48.812,4.85
48.828,5.5
48.843,2.69
48.859,-1.8
48.875,-5.21
48.890,-5.25
48.906,-1.38
48.921,4.73
48.937,10.11
48.953,12.17
48.968,9.89
48.984,4.44
49.000,-1.7
49.015,-6.03
49.031,-7.41
49.046,-6.66
49.062,-5.78
49.078,-6.93
49.093,-10.83
49.109,-16.46
49.125,-21.51
49.140,-23.76
49.156,-22.28
49.171,-18.23
49.187,-14.16
49.203,-12.35
49.218,-13.62
49.234,-16.49
49.250,-18.22
49.265,-16.41
49.281,-10.42
49.296,-2.17
49.312,5.13
49.328,8.47
49.343,7.02
49.359,2.3
49.375,-2.61
49.390,-4.88
49.406,-3.57
49.421,0.03
49.437,3.23
49.453,3.72
49.468,0.92
49.484,-3.47
49.500,-6.86
49.515,-7.05
49.531,-3.6
49.546,1.63
49.562,5.96
49.578,7.08
49.593,4.55
49.609,-0.12
49.625,-4.24
49.640,-5.74
49.656,-3.98
49.671,-0.15
49.687,3.41
49.703,4.82
49.718,3.49
49.734,0.65
49.750,-1.69
49.765,-1.67
49.781,1.28
49.796,5.9
49.812,10.07
49.828,11.67
49.843,10.05
49.859,6.27
49.875,2.6
49.890,1.18
49.906,2.82
49.921,6.53
49.937,10.03
49.953,11.24
49.968,9.32
49.984,5.44
50.000,1.86
50.015,0.66
50.031,2.46
50.046,5.93
50.062,8.69
50.078,8.67
50.093,5.54
50.109,0.67
50.125,-3.25
50.140,-3.98
50.156,-0.88
50.171,4.61
50.187,9.87
50.203,12.48
50.218,11.53
50.234,8.17
50.250,4.65
50.265,3.11
50.281,4.34
50.296,7.17
50.312,9.33
50.328,8.77
50.343,5.1
50.359,-0.29
50.375,-4.71
50.390,-5.9
50.406,-3.26
50.421,1.64
50.437,5.97
50.453,7.3
50.468,4.99
50.484,0.66
50.500,-2.99
50.515,-3.39
50.531,0.09
50.546,5.75
50.562,10.58
50.578,11.84
50.593,8.83
50.609,3.13
50.625,-2.36
50.640,-5.05
50.656,-4.07
50.671,-0.84
50.687,1.98
50.703,1.98
50.718,-1.42
50.734,-6.67
50.750,-11.09
50.765,-12.43
50.781,-10.2
50.796,-5.92
50.812,-2.2
50.828,-0.87
50.843,-1.92
50.859,-3.41
50.875,-2.86
50.890,1.25
50.906,8.41
50.921,15.92
50.937,20.61
50.953,20.29
50.968,15.04
50.984,7.09
51.000,-0.49
51.015,-5.39
51.031,-7.06
51.046,-6.85
51.062,-6.94
51.078,-8.88
51.093,-12.53
51.109,-16.11
51.125,-17.18
51.140,-13.87
51.156,-6.14
51.171,3.93
51.187,13.19
51.203,18.84
51.218,19.95
51.234,17.8
51.250,15.04
51.265,14.13
51.281,15.92
51.296,19.0
51.312,20.48
51.328,17.94
51.343,10.9
51.359,1.39
51.375,-7.18
51.390,-11.77
51.406,-11.43
51.421,-7.81
51.437,-3.97
51.453,-2.64
51.468,-4.52
51.484,-7.98
51.500,-10.3
51.515,-9.31
51.531,-4.87
51.546,0.89
51.562,4.83
51.578,4.69
51.593,0.39
51.609,-5.65
51.625,-10.06
51.640,-10.33
51.656,-6.19
51.671,-0.04
51.687,4.53
51.703,4.63
51.718,-0.18
51.734,-7.67
51.750,-14.18
51.765,-16.81
51.781,-15.06
51.796,-11.21
51.812,-8.97
51.828,-11.39
51.843,-19.01
51.859,-29.68
51.875,-39.72
51.890,-46.06
51.906,-47.69
51.921,-46.05
51.937,-43.46
51.953,-41.73
51.968,-40.86
51.984,-39.18
52.000,-34.61
52.015,-26.09
52.031,-14.46
52.046,-2.32
52.062,7.26
52.078,12.43
52.093,13.32
52.109,11.88
52.125,10.84
52.140,12.01
52.156,15.46
52.171,19.17
52.187,20.36
52.203,16.98
52.218,9.12
52.234,-1.05
52.250,-10.36
52.265,-16.27
52.281,-18.27
52.296,-17.94
52.312,-17.96
52.328,-20.27
52.343,-24.74
52.359,-29.34
52.375,-31.19
52.390,-28.29
52.406,-20.9
52.421,-11.66
52.437,-4.1
52.453,-0.98
52.468,-2.69
52.484,-7.3
52.500,-11.92
52.515,-14.14
52.531,-13.47
52.546,-11.56
52.562,-10.97
52.578,-13.5
52.593,-18.99
52.609,-25.43
52.625,-30.01
52.640,-31.11
52.656,-29.1
52.671,-26.44
52.687,-26.11
52.703,-29.92
52.718,-37.08
52.734,-44.64
52.750,-49.04
52.765,-47.96
52.781,-42.05
52.796,-34.44
52.812,-29.19
52.828,-28.91
52.843,-33.38
52.859,-39.62
52.875,-43.87
52.890,-43.58
52.906,-38.96
52.921,-32.84
52.937,-28.7
52.953,-28.55
52.968,-31.52
52.984,-34.38
53.000,-33.41
53.015,-26.48
53.031,-14.11
53.046,0.87
53.062,15.29
53.078,27.32
53.093,37.36
53.109,47.38
53.125,59.28
53.140,73.57
53.156,88.66
53.171,101.5
53.187,109.17
53.203,110.42
53.218,106.16
53.234,98.77
53.250,90.82
53.265,83.75
53.281,77.43
53.296,70.6
53.312,61.98
53.328,51.34
53.343,39.92
53.359,29.93
53.375,23.26
53.390,20.7
53.406,21.3
53.421,22.78
53.437,22.83
53.453,20.09
53.468,15.03
53.484,9.46
53.500,5.58
53.515,4.72
53.531,6.57
53.546,9.1
53.562,9.75
53.578,7.04
53.593,1.42
53.609,-4.8
53.625,-8.86
53.640,-9.03
53.656,-5.9
53.671,-1.96
53.687,-0.24
53.703,-2.59
53.718,-8.33
53.734,-14.84
53.750,-19.01
53.765,-19.02
53.781,-15.29
53.796,-10.18
53.812,-6.18
53.828,-4.69
53.843,-5.08
53.859,-5.34
53.875,-3.57
53.890,1.04
53.906,7.52
53.921,13.62
53.937,17.2
53.953,17.25
53.968,14.57
53.984,11.25
54.000,9.42
54.015,10.13
54.031,12.57
54.046,14.39
54.062,12.72
54.078,5.67
54.093,-6.53
54.109,-21.51
54.125,-35.68
54.140,-45.62
54.156,-49.86
54.171,-49.24
54.187,-46.06
54.203,-42.8
54.218,-40.47
54.234,-38.27
54.250,-34.44
54.265,-27.61
54.281,-18.25
54.296,-8.79
54.312,-2.18
54.328,-0.33
54.343,-2.83
54.359,-7.06
54.375,-9.7
54.390,-8.45
54.406,-3.3
54.421,3.39
54.437,8.37
54.453,9.28
54.468,5.96
54.484,0.39
54.500,-4.54
54.515,-6.47
54.531,-5.19
54.546,-2.27
54.562,-0.21
54.578,-0.74
54.593,-3.73
54.609,-7.42
54.625,-9.43
54.640,-8.33
54.656,-4.46
54.671,0.13
54.687,3.19
54.703,3.47
54.718,1.52
54.734,-0.64
54.750,-1.02
54.765,1.45
54.781,5.9
54.796,10.13
54.812,11.72
54.828,9.68
54.843,4.83
54.859,-0.42
54.875,-3.37
54.890,-2.68
54.906,0.96
54.921,5.01
54.937,6.62
54.953,4.17
54.968,-1.56
54.984,-7.94
55.000,-11.88
55.015,-11.37
55.031,-7.05
55.046,-1.56
55.062,1.96
55.078,1.71
55.093,-1.54
55.109,-5.16
55.125,-6.25
55.140,-3.45
55.156,2.19
55.171,7.75
55.187,10.37
55.203,9.09
55.218,5.39
55.234,2.35
55.250,2.67
55.265,7.08
55.281,13.74
55.296,19.45
55.312,21.32
55.328,18.62
55.343,12.94
55.359,7.21
55.375,4.0
55.390,4.24
55.406,6.64
55.421,8.6
55.437,7.79
55.453,3.52
55.468,-2.67
55.484,-8.09
55.500,-10.23
55.515,-8.18
55.531,-3.17
55.546,2.06
55.562,4.8
55.578,3.85
55.593,0.15
55.609,-3.82
55.625,-5.58
55.640,-3.99
55.671,4.03
55.687,5.61
55.703,3.68
55.718,-0.82
55.734,-5.49
55.750,-7.88
55.765,-6.78
55.781,-3.11
55.796,0.8
55.812,2.58
55.828,1.29
55.843,-1.94
55.859,-4.58
55.875,-4.3
55.890,-0.37
55.906,5.77
55.921,11.47
55.937,14.34
55.953,13.83
55.968,11.58
55.984,10.34
56.000,12.23
56.015,17.38
56.031,23.53
56.046,27.52
56.062,27.07
56.078,22.19
56.093,15.42
56.109,10.34
56.125,9.51
56.140,13.11
56.156,18.68
56.171,22.55
56.187,21.9
56.203,16.24
56.218,7.61
56.234,-0.48
56.250,-4.96
56.265,-4.47
56.281,0.09
56.296,6.54
56.312,12.73
56.328,17.63
56.343,21.64
56.359,25.97
56.375,31.62
56.390,38.54
56.406,45.48
56.421,50.63
56.437,52.61
56.453,51.55
56.468,48.92
56.484,46.71
56.500,46.38
56.515,47.99
56.531,49.93
56.546,50.02
56.562,46.77
56.578,40.35
56.593,32.72
56.609,26.48
56.625,23.35
56.640,23.19
56.656,24.01
56.671,23.05
56.687,18.42
56.703,10.03
56.718,-0.22
56.734,-9.73
56.750,-16.56
56.765,-20.67
56.781,-24.33
56.796,-31.04
56.812,-43.93
56.828,-63.88
56.843,-88.98
56.859,-114.83
56.875,-136.34
56.890,-149.63
56.906,-153.47
56.921,-149.13
56.937,-139.33
56.953,-126.31
56.968,-110.82
56.984,-92.31
57.000,-70.1
57.015,-44.72
57.031,-18.63
57.046,4.71
57.062,22.41
57.078,33.5
57.093,39.44
57.109,43.13
57.125,47.39
57.140,53.51
57.156,60.88
57.171,67.59
57.187,71.93
57.203,73.29
57.218,72.61
57.234,71.67
57.250,71.96
57.265,73.94
57.281,76.25
57.296,76.68
57.312,73.18
57.328,65.35
57.343,54.79
57.359,44.62
57.375,37.9
57.390,36.02
57.406,38.01
57.421,41.09
57.437,42.37
57.453,40.68
57.468,36.98
57.484,33.42
57.500,31.45
57.515,30.34
57.531,26.96
57.546,17.7
57.562,0.54
57.578,-23.29
57.593,-49.6
57.609,-73.28
57.625,-90.63
57.640,-100.85
57.656,-105.89
57.671,-108.74
57.687,-111.4
57.703,-113.84
57.718,-114.1
57.734,-109.87
57.750,-99.92
57.765,-85.01
57.781,-67.89
57.796,-51.92
57.812,-39.67
57.828,-31.64
57.843,-26.44
57.859,-21.62
57.875,-15.23
57.890,-7.11
57.906,0.91
57.921,6.22
57.937,6.87
57.953,2.91
57.968,-3.42
57.984,-8.99
58.000,-11.3
58.015,-9.92
58.031,-6.65
58.046,-4.16
58.062,-4.34
58.078,-6.97
58.093,-9.86
58.109,-10.24
58.125,-6.55
58.140,0.47
58.156,7.87
58.171,12.15
58.187,11.35
58.203,6.3
58.218,0.28
58.234,-2.9
58.250,-0.84
58.265,5.74
58.281,13.57
58.296,18.51
58.312,17.99
58.328,12.42
58.343,4.65
58.359,-1.7
58.375,-4.53
58.390,-4.11
58.406,-3.0
58.421,-3.98
58.437,-8.39
58.453,-15.21
58.468,-21.57
58.484,-24.65
58.500,-23.07
58.515,-17.81
58.531,-11.69
58.546,-7.79
58.562,-7.82
58.578,-11.17
58.593,-15.47
58.609,-17.81
58.625,-16.45
58.640,-11.64
58.656,-5.48
58.671,-0.73
58.687,0.9
58.703,-0.27
58.718,-2.23
58.734,-2.51
58.750,0.37
58.765,5.66
58.781,10.99
58.796,13.6
58.812,12.16
58.828,7.6
58.843,2.65
58.859,0.21
58.875,1.74
58.890,6.23
58.906,10.51
58.921,11.11
58.937,5.93
58.953,-4.23
58.968,-16.16
58.984,-25.83
59.000,-30.22
59.015,-28.83
59.031,-23.78
59.046,-18.12
59.062,-14.23
59.078,-12.32
59.093,-10.56
59.109,-6.53
59.125,1.2
59.140,11.89
59.156,22.92
59.171,31.28
59.187,35.4
59.203,36.06
59.218,35.83
59.234,37.29
59.250,41.49
59.265,47.05
59.281,51.04
59.296,50.78
59.312,45.62
59.328,37.77
59.343,31.0
59.359,28.78
59.375,32.44
59.390,40.36
59.406,49.07
59.421,55.23
59.437,57.3
59.453,56.21
59.468,54.38
59.484,54.03
59.500,55.88
59.515,58.73
59.531,60.09
59.546,57.94
59.562,51.66
59.578,42.41
59.593,32.12
59.609,22.24
59.625,12.65
59.640,1.52
59.656,-13.62
59.671,-34.45
59.687,-60.38
59.703,-88.39
59.718,-114.12
59.734,-133.8
59.750,-145.52
59.765,-149.95
59.781,-149.49
59.796,-146.44
59.812,-141.93
59.828,-135.09
59.843,-124.23
59.859,-108.27
59.875,-87.74
59.890,-65.18
59.906,-44.01
59.921,-27.14
59.937,-15.48
59.953,-7.81
59.968,-1.67
59.984,5.2
