timestamp,value
00.000,104.34
00.015,115.09
00.031,125.02
00.046,134.02
00.062,142.49
00.078,150.36
00.093,156.53
00.109,159.01
00.125,155.39
00.140,143.98
00.156,124.55
00.171,98.44
00.187,68.11
00.203,35.98
00.218,3.61
00.234,-28.8
00.250,-62.21
00.265,-97.73
00.281,-135.58
00.296,-174.33
00.312,-211.28
00.328,-243.28
00.343,-268.07
00.359,-284.4
00.375,-291.71
00.390,-289.34
00.406,-276.74
00.421,-254.37
00.437,-224.61
00.453,-191.78
00.468,-160.18
00.484,-132.54
00.500,-108.82
00.515,-86.86
00.531,-64.22
00.546,-39.99
00.562,-15.21
00.578,8.34
00.593,29.88
00.609,50.85
00.625,73.65
00.640,99.89
00.656,128.77
00.671,157.67
00.687,183.97
00.703,206.94
00.718,228.0
00.734,248.94
00.750,269.71
00.765,287.18
00.781,296.3
00.796,292.37
00.812,273.6
00.828,242.06
00.843,202.37
00.859,159.44
00.875,115.91
00.890,71.92
00.906,26.52
00.921,-20.23
00.937,-65.93
00.953,-106.43
00.968,-137.28
00.984,-155.91
01.000,-162.55
01.015,-160.07
01.031,-152.22
01.046,-141.94
01.062,-130.2
01.078,-116.3
01.093,-99.2
01.109,-78.71
01.125,-56.69
01.140,-36.38
01.156,-21.46
01.171,-14.44
01.187,-15.84
01.203,-24.01
01.218,-35.92
01.234,-48.18
01.250,-58.17
01.265,-64.66
01.281,-67.44
01.296,-67.24
01.312,-64.94
01.328,-61.41
01.343,-57.08
01.359,-51.58
01.375,-43.49
01.390,-30.4
01.406,-9.41
01.421,21.61
01.437,62.5
01.453,109.93
01.468,157.85
01.484,199.02
01.500,227.06
01.515,237.64
01.531,228.92
01.546,201.27
01.562,156.99
01.578,100.22
01.593,36.9
01.609,-25.36
01.625,-78.73
01.640,-116.99
01.656,-137.66
01.671,-142.74
01.687,-137.41
01.703,-127.76
01.718,-118.56
01.734,-111.88
01.750,-107.59
01.765,-104.73
01.781,-102.24
01.796,-99.42
01.812,-95.4
01.828,-88.72
01.843,-77.65
01.859,-61.07
01.875,-39.17
01.890,-13.69
01.906,12.71
01.921,37.77
01.937,60.42
01.953,80.95
01.968,100.22
01.984,118.47
02.000,134.79
02.015,147.2
02.031,153.35
02.046,151.55
02.062,141.7
02.078,125.25
02.093,104.36
02.109,81.03
02.125,55.99
02.140,28.84
02.156,-0.89
02.171,-32.99
02.187,-65.82
02.203,-96.38
02.218,-121.49
02.234,-139.01
02.250,-148.59
02.265,-151.66
02.281,-150.29
02.296,-146.09
02.312,-139.21
02.328,-128.66
02.343,-113.14
02.359,-92.24
02.375,-67.07
02.390,-40.01
02.406,-13.59
02.421,11.07
02.437,34.69
02.453,59.46
02.468,87.22
02.484,117.85
02.500,148.1
02.515,172.37
02.531,184.68
02.546,181.18
02.562,161.86
02.578,130.41
02.593,92.93
02.609,55.66
02.625,23.66
02.640,-0.18
02.656,-14.79
02.671,-20.63
02.687,-19.32
02.703,-13.28
02.718,-5.74
02.734,0.28
02.750,2.48
02.781,-6.49
02.796,-15.38
02.812,-24.4
02.828,-31.14
02.843,-33.03
02.859,-27.75
02.875,-13.69
02.890,9.38
02.906,39.78
02.921,74.06
02.937,107.47
02.953,135.0
02.968,152.21
02.984,156.41
03.000,147.06
03.015,126.17
03.031,97.97
03.046,67.78
03.062,40.85
03.078,20.76
03.093,8.97
03.109,4.57
03.125,5.29
03.140,8.08
03.156,10.03
03.171,8.56
03.187,1.35
03.203,-13.04
03.218,-35.48
03.234,-65.75
03.250,-102.87
03.265,-145.28
03.281,-191.5
03.296,-240.39
03.312,-290.85
03.328,-341.76
03.343,-391.0
03.359,-435.51
03.375,-471.61
03.390,-495.78
03.406,-505.6
03.421,-500.16
03.437,-480.07
03.453,-446.78
03.468,-402.22
03.484,-348.2
03.500,-286.56
03.515,-219.47
03.531,-149.5
03.546,-79.34
03.562,-11.53
03.578,52.0
03.593,110.28
03.609,162.96
03.625,209.97
03.640,250.73
03.656,283.81
03.671,307.23
03.687,319.51
03.703,321.0
03.718,314.5
03.734,305.03
03.750,298.21
03.765,298.41
03.781,306.91
03.796,321.51
03.812,337.86
03.828,351.33
03.843,358.96
03.859,360.14
03.875,356.0
03.890,348.22
03.906,337.91
03.921,325.08
03.937,308.68
03.953,287.6
03.968,261.3
03.984,230.39
04.000,196.32
04.015,160.3
04.031,122.64
04.046,82.44
04.062,38.18
04.078,-11.47
04.093,-66.65
04.109,-126.1
04.125,-187.62
04.140,-248.76
04.156,-307.52
04.171,-361.83
04.187,-408.15
04.203,-440.6
04.218,-451.79
04.234,-435.8
04.250,-391.98
04.265,-327.1
04.281,-254.17
04.296,-188.17
04.312,-140.4
04.328,-114.94
04.343,-108.65
04.359,-114.63
04.375,-126.6
04.390,-141.41
04.406,-158.12
04.421,-175.02
04.437,-187.41
04.453,-187.98
04.468,-170.31
04.484,-132.61
04.500,-79.26
04.515,-19.39
04.531,37.16
04.546,83.65
04.562,118.36
04.578,143.55
04.593,162.91
04.609,178.79
04.625,190.89
04.640,197.1
04.656,195.1
04.671,183.89
04.687,164.55
04.703,139.78
04.718,112.64
04.734,85.63
04.750,60.0
04.765,35.79
04.781,12.53
04.796,-10.04
04.812,-31.32
04.828,-49.82
04.843,-63.77
04.859,-72.04
04.875,-74.56
04.890,-72.39
04.906,-67.17
04.921,-60.37
04.937,-53.08
04.953,-45.81
04.968,-38.71
04.984,-31.62
05.000,-24.23
05.015,-15.8
05.031,-5.27
05.046,8.52
05.062,26.69
05.078,49.76
05.093,77.68
05.109,109.76
05.125,144.87
05.140,181.07
05.156,215.77
05.171,245.46
05.187,266.1
05.203,273.96
05.218,266.55
05.234,243.45
05.250,206.61
05.265,159.93
05.281,108.3
05.296,56.53
05.312,8.57
05.328,-32.99
05.343,-66.84
05.359,-92.91
05.375,-111.83
05.390,-124.63
05.406,-132.25
05.421,-135.36
05.437,-134.43
05.453,-129.72
05.468,-121.75
05.484,-111.29
05.500,-99.66
05.515,-88.29
05.531,-78.23
05.546,-69.83
05.562,-62.76
05.578,-56.49
05.593,-50.5
05.609,-44.88
05.625,-39.99
05.640,-36.55
05.656,-34.97
05.671,-34.7
05.687,-34.38
05.703,-32.76
05.718,-29.25
05.734,-23.63
05.750,-16.17
05.765,-7.14
05.781,3.38
05.796,15.42
05.812,29.7
05.828,46.81
05.843,65.71
05.859,83.14
05.875,96.1
05.890,103.07
05.906,104.57
05.921,102.32
05.937,97.24
05.953,88.93
05.968,74.65
05.984,49.31
06.000,7.11
06.015,-52.52
06.031,-122.97
06.046,-192.08
06.062,-247.26
06.078,-280.29
06.093,-287.74
06.109,-270.26
06.125,-231.11
06.140,-174.96
06.156,-104.06
06.171,-19.49
06.187,75.79
06.203,174.24
06.218,257.08
06.234,304.43
06.250,306.98
06.265,275.9
06.281,221.74
06.296,150.62
06.312,64.46
06.328,-36.53
06.343,-148.42
06.359,-262.86
06.375,-366.13
06.390,-435.62
06.406,-452.93
06.421,-416.19
06.437,-340.56
06.453,-250.97
06.468,-169.4
06.484,-105.82
06.500,-58.34
06.515,-17.85
06.531,23.11
06.546,69.4
06.562,118.38
06.578,165.87
06.593,209.65
06.609,249.98
06.625,288.37
06.640,325.03
06.656,359.2
06.671,382.49
06.687,387.42
06.703,367.06
06.718,319.73
06.734,250.13
06.750,167.69
06.765,83.08
06.781,4.22
06.796,-64.77
06.812,-123.29
06.828,-171.97
06.843,-212.89
06.859,-247.39
06.875,-275.57
06.890,-296.71
06.906,-309.39
06.921,-311.24
06.937,-298.71
06.953,-268.19
06.968,-217.5
06.984,-148.78
07.000,-68.36
07.015,15.03
07.031,92.75
07.046,158.36
07.062,207.7
07.078,238.99
07.093,251.98
07.109,248.3
07.125,231.33
07.140,206.25
07.156,179.37
07.171,156.49
07.187,141.09
07.203,132.78
07.218,127.78
07.234,120.71
07.250,107.21
07.265,85.98
07.281,59.6
07.296,33.63
07.312,14.22
07.328,5.13
07.343,5.44
07.359,9.1
07.375,7.03
07.390,-9.12
07.406,-43.5
07.421,-94.06
07.437,-152.84
07.453,-208.52
07.468,-249.71
07.484,-268.32
07.500,-261.64
07.515,-232.9
07.531,-189.74
07.546,-140.88
07.562,-93.08
07.578,-48.64
07.593,-5.76
07.609,39.01
07.625,87.55
07.640,137.84
07.656,184.34
07.671,220.47
07.687,242.06
07.703,248.95
07.718,244.77
07.734,235.06
07.750,224.61
07.765,215.49
07.781,206.54
07.796,193.34
07.812,169.24
07.828,127.42
07.843,63.38
07.859,-22.25
07.875,-122.41
07.890,-225.14
07.906,-317.67
07.921,-390.32
07.937,-439.18
07.953,-465.6
07.968,-473.45
07.984,-466.1
08.000,-444.62
08.015,-408.42
08.031,-357.36
08.046,-293.51
08.062,-221.21
08.078,-146.1
08.093,-73.03
08.109,-4.52
08.125,59.37
08.140,119.76
08.156,177.11
08.171,229.69
08.187,273.37
08.203,303.3
08.218,315.8
08.234,310.6
08.250,291.74
08.265,266.27
08.281,241.74
08.296,223.45
08.312,212.76
08.328,207.57
08.343,204.44
08.359,200.36
08.375,194.0
08.390,185.57
08.406,175.91
08.421,166.18
08.437,158.27
08.453,154.69
08.468,157.27
08.484,165.39
08.500,173.81
08.515,172.69
08.531,150.2
08.546,97.41
08.562,13.03
08.578,-94.84
08.593,-211.2
08.609,-319.67
08.625,-407.58
08.640,-468.68
08.656,-502.5
08.671,-511.28
08.687,-497.69
08.703,-463.68
08.718,-411.57
08.734,-345.5
08.750,-271.8
08.765,-197.88
08.781,-130.16
08.796,-72.38
08.812,-25.09
08.828,12.91
08.843,43.24
08.859,66.44
08.875,81.93
08.890,88.72
08.906,86.66
08.921,77.28
08.937,63.93
08.953,51.5
08.968,44.43
08.984,45.35
09.000,54.14
09.015,68.33
09.031,83.86
09.046,96.61
09.062,104.06
09.078,106.07
09.093,105.47
09.109,106.23
09.125,111.26
09.140,120.2
09.156,128.36
09.171,127.46
09.187,108.24
09.203,64.66
09.218,-2.72
09.234,-85.55
09.250,-169.72
09.265,-239.67
09.281,-283.54
09.296,-296.44
09.312,-281.03
09.328,-245.58
09.343,-200.16
09.359,-153.61
09.375,-111.73
09.390,-77.43
09.406,-51.77
09.421,-35.06
09.437,-27.39
09.453,-28.02
09.468,-34.8
09.484,-44.11
09.500,-51.64
09.515,-53.52
09.531,-47.32
09.546,-32.67
09.562,-10.57
09.578,16.99
09.593,47.79
09.609,79.67
09.625,110.26
09.640,136.62
09.656,155.57
09.671,164.46
09.687,162.13
09.703,149.56
09.718,129.75
09.734,106.88
09.750,84.97
09.765,66.77
09.781,53.21
09.796,43.97
09.812,38.41
09.828,36.45
09.843,38.7
09.859,45.8
09.875,57.34
09.890,71.4
09.906,84.9
09.921,94.69
09.937,98.9
09.953,97.6
09.968,92.5
09.984,86.09
10.000,80.75
10.015,78.42
10.031,80.71
10.046,88.9
10.062,103.53
10.078,123.62
10.093,146.2
10.109,166.61
10.125,179.82
10.140,182.19
10.156,172.35
10.171,151.34
10.187,121.87
10.203,87.3
10.218,51.13
10.234,16.77
10.250,-12.48
10.265,-33.81
10.281,-45.4
10.296,-47.12
10.312,-40.68
10.328,-29.28
10.343,-16.75
10.359,-6.3
10.375,0.09
10.390,2.12
10.406,0.87
10.421,-1.88
10.437,-4.3
10.453,-5.27
10.468,-4.56
10.484,-2.67
10.500,-0.41
10.515,1.71
10.531,3.62
10.546,5.78
10.562,8.71
10.578,12.72
10.593,17.59
10.609,22.53
10.625,26.52
10.640,28.69
10.656,28.75
10.671,27.12
10.687,24.77
10.703,22.92
10.718,22.51
10.734,23.71
10.750,25.93
10.765,28.07
10.781,29.09
10.796,28.42
10.812,26.16
10.828,22.77
10.843,18.79
10.859,14.57
10.875,10.03
10.890,5.0
10.906,-0.56
10.921,-6.31
10.937,-11.57
10.953,-15.65
10.968,-18.25
10.984,-19.59
11.000,-20.51
11.015,-22.06
11.031,-25.28
11.046,-30.85
11.062,-39.04
11.078,-49.61
11.093,-61.92
11.109,-75.07
11.125,-87.9
11.140,-99.29
11.156,-108.36
11.171,-114.7
11.187,-118.45
11.203,-120.09
11.218,-120.05
11.234,-118.36
11.250,-114.73
11.265,-108.73
11.281,-100.24
11.296,-89.66
11.312,-77.61
11.328,-64.67
11.343,-51.11
11.359,-37.12
11.375,-23.09
11.390,-10.02
11.406,0.56
11.421,7.1
11.437,8.78
11.453,6.06
11.468,0.86
11.484,-4.01
11.500,-5.67
11.515,-2.08
11.531,7.5
11.546,22.33
11.562,40.46
11.578,59.3
11.593,76.22
11.609,89.07
11.625,96.59
11.640,98.39
11.656,94.64
11.671,85.88
11.687,72.83
11.703,56.4
11.718,37.75
11.734,18.54
11.750,0.61
11.765,-14.11
11.781,-24.14
11.796,-28.78
11.812,-28.27
11.828,-23.49
11.843,-15.69
11.859,-6.3
11.875,3.38
11.890,11.94
11.906,17.9
11.921,19.86
11.937,16.91
11.953,9.03
11.968,-2.66
11.984,-16.06
12.000,-28.59
12.015,-38.03
12.031,-43.23
12.046,-44.35
12.062,-42.69
12.078,-40.06
12.093,-38.1
12.109,-37.79
12.125,-39.3
12.140,-42.01
12.156,-45.0
12.171,-47.42
12.187,-48.64
12.203,-48.36
12.218,-46.6
12.234,-43.54
12.250,-39.54
12.265,-35.07
12.281,-30.54
12.296,-26.22
12.312,-22.22
12.328,-18.26
12.343,-13.86
12.359,-8.42
12.375,-1.53
12.390,6.94
12.406,16.56
12.421,26.55
12.437,35.82
12.453,43.35
12.468,48.57
12.484,51.45
12.500,52.69
12.515,53.35
12.531,54.57
12.546,56.9
12.562,60.19
12.578,63.66
12.593,66.27
12.609,67.34
12.625,66.73
12.640,64.67
12.656,61.56
12.671,57.5
12.687,52.36
12.703,45.95
12.718,38.41
12.734,30.29
12.750,22.4
12.765,15.32
12.781,8.94
12.796,2.44
12.812,-5.44
12.828,-15.62
12.843,-28.22
12.859,-42.18
12.875,-55.72
12.890,-66.82
12.906,-74.11
12.921,-77.22
12.937,-76.81
12.953,-74.26
12.968,-71.05
12.984,-68.42
13.000,-66.98
13.015,-66.88
13.031,-67.72
13.046,-68.84
13.062,-69.52
13.078,-69.01
13.093,-66.73
13.109,-62.38
13.125,-55.87
13.140,-47.41
13.156,-37.46
13.171,-26.63
13.187,-15.55
13.203,-4.67
13.218,5.9
13.234,16.45
13.250,27.3
13.265,38.57
13.281,49.79
13.296,59.85
13.312,67.49
13.328,71.8
13.343,72.76
13.359,71.14
13.375,68.11
13.390,64.5
13.406,60.51
13.421,55.7
13.437,49.55
13.453,41.95
13.468,33.36
13.484,24.55
13.500,16.21
13.515,8.67
13.531,1.92
13.546,-3.83
13.562,-8.08
13.578,-10.04
13.593,-9.14
13.609,-5.69
13.625,-1.02
13.640,2.79
13.656,3.75
13.671,0.81
13.687,-5.69
13.703,-14.1
13.718,-22.33
13.734,-28.61
13.750,-32.23
13.765,-33.5
13.781,-33.42
13.796,-33.14
13.812,-33.29
13.828,-33.95
13.843,-34.59
13.859,-34.57
13.875,-33.27
13.890,-30.57
13.906,-26.63
13.921,-21.88
13.937,-16.87
13.953,-12.04
13.968,-7.72
13.984,-4.06
14.000,-1.04
14.015,1.53
14.031,3.74
14.046,5.73
14.062,7.47
14.078,8.89
14.093,10.02
14.109,11.0
14.125,12.14
14.140,13.72
14.156,15.92
14.171,18.49
14.187,20.95
14.203,22.75
14.218,23.5
14.234,23.15
14.250,21.84
14.265,19.76
14.281,17.01
14.296,13.72
14.312,10.09
14.328,6.67
14.343,4.23
14.359,3.41
14.375,4.37
14.390,6.61
14.406,9.19
14.421,11.08
14.437,11.69
14.453,11.0
14.468,9.42
14.484,7.38
14.500,4.84
14.515,1.5
14.531,-2.97
14.546,-8.25
14.562,-13.44
14.578,-17.22
14.593,-18.62
14.609,-17.57
14.625,-15.02
14.640,-12.57
14.656,-11.65
14.671,-13.0
14.687,-16.27
14.703,-20.54
14.718,-24.72
14.734,-28.17
14.750,-30.74
14.765,-32.53
14.781,-33.77
14.796,-34.55
14.812,-35.04
14.828,-35.49
14.843,-36.24
14.859,-37.45
14.875,-39.03
14.890,-40.57
14.906,-41.47
14.921,-41.31
14.937,-40.11
14.953,-38.33
14.968,-36.68
14.984,-35.72
15.000,-35.56
15.015,-35.62
15.031,-34.97
15.046,-32.62
15.062,-28.06
15.078,-21.5
15.093,-13.91
15.109,-6.67
15.125,-0.99
15.140,2.49
15.156,4.1
15.171,4.95
15.187,6.64
15.203,10.64
15.218,17.8
15.234,28.04
15.250,40.24
15.265,52.66
15.281,63.31
15.296,70.46
15.312,73.08
15.328,70.98
15.343,64.89
15.359,56.3
15.375,47.11
15.390,38.91
15.406,32.64
15.421,28.25
15.437,24.85
15.453,21.27
15.468,16.62
15.484,10.77
15.500,4.28
15.515,-1.75
15.531,-6.38
15.546,-9.1
15.562,-10.12
15.578,-10.19
15.593,-10.23
15.609,-11.07
15.625,-13.09
15.640,-16.27
15.656,-20.16
15.671,-24.21
15.687,-27.9
15.703,-30.85
15.718,-32.88
15.734,-33.91
15.750,-33.86
15.765,-32.76
15.781,-30.79
15.796,-28.27
15.812,-25.73
15.828,-23.65
15.843,-22.12
15.859,-20.92
15.875,-19.34
15.890,-16.58
15.906,-12.1
15.921,-5.88
15.937,1.5
15.953,9.11
15.968,16.04
15.984,21.94
16.000,27.01
16.015,31.96
16.031,37.53
16.046,43.89
16.062,50.53
16.078,56.25
16.093,59.74
16.109,60.1
16.125,57.31
16.140,52.22
16.156,46.14
16.171,40.24
16.187,34.92
16.203,29.85
16.218,24.23
16.234,17.25
16.250,8.47
16.265,-2.05
16.281,-13.89
16.296,-26.43
16.312,-38.77
16.328,-50.06
16.343,-59.34
16.359,-65.8
16.375,-69.05
16.390,-69.26
16.406,-66.94
16.421,-62.8
16.437,-57.46
16.453,-51.11
16.468,-43.77
16.484,-35.44
16.500,-26.2
16.515,-16.34
16.531,-6.27
16.546,3.73
16.562,13.56
16.578,23.12
16.593,32.42
16.609,41.16
16.625,48.88
16.640,55.14
16.656,59.7
16.671,62.65
16.687,64.45
16.703,65.63
16.718,66.4
16.734,66.6
16.750,65.69
16.765,63.03
16.781,58.38
16.796,52.15
16.812,45.29
16.828,39.01
16.843,34.45
16.859,32.27
16.875,32.54
16.890,34.66
16.906,37.6
16.921,40.08
16.937,41.06
16.953,39.9
16.968,36.54
16.984,31.35
17.000,24.77
17.015,17.22
17.031,8.97
17.046,0.17
17.062,-8.91
17.078,-17.87
17.093,-26.17
17.109,-33.36
17.125,-39.21
17.140,-43.91
17.156,-47.76
17.171,-51.04
17.187,-53.88
17.203,-56.2
17.218,-57.81
17.234,-58.71
17.250,-59.06
17.265,-59.12
17.281,-59.25
17.296,-59.54
17.312,-59.73
17.328,-59.34
17.343,-57.74
17.359,-54.41
17.375,-49.11
17.390,-41.96
17.406,-33.22
17.421,-23.42
17.437,-13.03
17.453,-2.34
17.468,8.42
17.484,19.03
17.500,29.15
17.515,38.07
17.531,44.93
17.546,49.08
17.562,50.34
17.578,49.4
17.593,47.84
17.609,47.61
17.625,50.28
17.640,56.29
17.656,64.51
17.671,72.55
17.687,77.71
17.703,77.8
17.718,72.23
17.734,62.26
17.750,50.37
17.765,39.02
17.781,29.42
17.796,21.33
17.812,13.47
17.828,4.61
17.843,-5.97
17.859,-17.9
17.875,-29.5
17.890,-38.26
17.906,-41.39
17.921,-36.41
17.937,-21.73
17.953,2.98
17.968,36.48
17.984,75.47
18.000,115.66
18.015,153.53
18.031,187.42
18.046,217.68
18.062,245.82
18.078,272.59
18.093,296.46
18.109,313.08
18.125,315.12
18.140,294.92
18.156,248.01
18.171,175.44
18.187,84.01
18.203,-15.71
18.218,-112.72
18.234,-199.53
18.250,-267.57
18.265,-311.34
18.281,-330.79
18.296,-329.96
18.312,-313.44
18.328,-284.05
18.343,-243.43
18.359,-194.51
18.375,-142.2
18.390,-92.63
18.406,-51.16
18.421,-20.48
18.437,0.75
18.453,16.47
18.468,29.91
18.484,42.33
18.500,53.19
18.515,61.67
18.531,67.22
18.546,69.68
18.562,69.26
18.578,66.83
18.593,64.11
18.609,63.0
18.625,65.12
18.640,70.66
18.656,78.95
18.671,87.6
18.687,92.49
18.703,89.15
18.718,75.06
18.734,50.93
18.750,19.91
18.765,-14.02
18.781,-47.89
18.796,-80.54
18.812,-112.52
18.828,-144.72
18.843,-176.67
18.859,-205.83
18.875,-227.5
18.890,-237.07
18.906,-231.46
18.921,-210.17
18.937,-175.75
18.953,-133.22
18.968,-88.64
18.984,-47.11
19.000,-11.47
19.015,18.74
19.031,45.59
19.046,70.53
19.062,93.16
19.078,111.12
19.093,121.59
19.109,123.38
19.125,118.27
19.140,110.41
19.156,104.7
19.171,103.9
19.187,105.65
19.203,105.26
19.218,98.88
19.234,87.03
19.250,74.7
19.265,68.59
19.281,73.08
19.296,87.77
19.312,107.08
19.328,120.51
19.343,119.29
19.359,100.21
19.375,67.02
19.390,27.07
19.406,-13.2
19.421,-51.06
19.437,-87.12
19.453,-122.97
19.468,-162.4
19.484,-207.28
19.500,-257.68
19.515,-312.46
19.531,-371.07
19.546,-434.39
19.562,-504.06
19.578,-579.66
19.593,-637.07
19.609,-652.73
19.625,-612.15
19.640,-519.96
19.656,-396.4
19.671,-264.66
19.687,-141.9
19.703,-37.34
19.718,46.87
19.734,112.55
19.750,159.73
19.765,189.24
19.781,203.07
19.796,205.41
19.812,200.63
19.828,192.37
19.843,182.35
19.859,172.37
19.875,164.05
19.890,156.35
19.906,149.44
19.921,145.22
19.937,147.52
19.953,160.88
19.968,187.8
19.984,227.4
20.000,277.32
20.015,332.82
20.031,379.55
20.046,403.37
20.062,396.23
20.078,359.92
20.093,303.67
20.109,245.51
20.125,189.72
20.140,138.4
20.156,94.03
20.171,58.57
20.187,33.58
20.203,20.0
20.218,15.52
20.234,14.21
20.250,8.13
20.265,-10.63
20.281,-44.81
20.296,-92.1
20.312,-146.83
20.328,-200.5
20.343,-244.44
20.359,-272.26
20.375,-281.38
20.390,-273.7
20.406,-255.35
20.421,-233.14
20.437,-213.8
20.453,-202.36
20.468,-200.01
20.484,-203.99
20.500,-209.0
20.515,-209.44
20.531,-201.45
20.546,-184.02
20.562,-157.82
20.578,-125.19
20.593,-89.4
20.609,-53.77
20.625,-21.48
20.640,4.29
20.656,20.7
20.671,25.97
20.687,20.32
20.703,7.12
20.718,-8.0
20.734,-18.59
20.750,-19.22
20.765,-6.82
20.781,18.29
20.796,53.26
20.812,93.51
20.828,134.53
20.843,172.91
20.859,206.55
20.875,234.66
20.890,257.37
20.906,275.1
20.921,288.08
20.937,295.55
20.953,295.83
20.968,287.32
20.984,269.46
21.000,243.52
21.015,212.72
21.031,181.98
21.046,155.75
21.062,135.79
21.078,119.87
21.093,102.84
21.109,79.36
21.125,46.83
21.140,6.2
21.156,-39.15
21.171,-84.5
21.187,-127.13
21.203,-167.37
21.218,-207.28
21.234,-247.39
21.250,-284.0
21.265,-309.35
21.281,-315.37
21.296,-297.94
21.312,-257.73
21.328,-200.44
21.343,-134.02
21.359,-65.18
21.375,3.41
21.390,73.27
21.406,147.61
21.421,227.24
21.437,301.29
21.453,353.29
21.468,368.6
21.484,343.71
21.500,287.89
21.515,216.74
21.531,144.71
21.546,81.01
21.562,29.83
21.578,-15.34
21.593,-61.09
21.609,-112.27
21.625,-171.21
21.640,-238.05
21.656,-311.62
21.671,-390.23
21.687,-466.44
21.703,-533.78
21.718,-586.13
21.734,-615.31
21.750,-612.61
21.765,-570.97
21.781,-487.98
21.796,-367.95
21.812,-221.54
21.828,-63.02
21.843,92.32
21.859,231.64
21.875,347.48
21.890,436.29
21.906,496.04
21.921,524.68
21.937,520.62
21.953,484.66
21.968,421.63
21.984,339.8
22.000,249.4
22.015,161.6
22.031,85.45
22.046,26.46
22.062,-14.69
22.078,-40.33
22.093,-53.38
22.109,-55.52
22.125,-47.22
22.140,-29.09
22.156,-1.81
22.171,32.24
22.187,68.69
22.203,101.93
22.218,127.67
22.234,146.04
22.250,162.46
22.265,185.15
22.281,219.77
22.296,267.55
22.312,322.5
22.328,371.49
22.343,397.75
22.359,386.57
22.375,331.06
22.390,234.5
22.406,108.33
22.421,-33.08
22.437,-173.29
22.453,-296.23
22.468,-388.23
22.484,-440.61
22.500,-451.04
22.515,-424.92
22.531,-375.38
22.546,-310.54
22.562,-247.12
22.578,-200.8
22.593,-176.88
22.609,-167.41
22.625,-159.27
22.640,-142.95
22.656,-116.33
22.671,-83.14
22.687,-47.88
22.703,-14.75
22.718,14.98
22.734,41.19
22.750,63.67
22.765,80.09
22.781,87.35
22.796,84.66
22.812,72.5
22.828,53.74
22.843,31.67
22.859,9.86
22.875,-8.39
22.890,-20.57
22.906,-26.63
22.921,-27.52
22.937,-23.67
22.953,-14.94
22.968,-0.06
22.984,21.52
23.000,49.43
23.015,82.26
23.031,117.44
23.046,151.27
23.062,179.49
23.078,198.77
23.093,206.83
23.109,203.61
23.125,190.32
23.140,168.49
23.156,138.73
23.171,104.79
23.187,69.51
23.203,35.0
23.218,3.09
23.234,-25.55
23.250,-50.05
23.265,-69.48
23.281,-84.06
23.296,-93.98
23.312,-99.69
23.328,-102.27
23.343,-102.62
23.359,-101.48
23.375,-100.05
23.390,-100.8
23.406,-101.99
23.421,-102.74
23.437,-102.14
23.453,-99.54
23.468,-94.51
23.484,-86.98
23.500,-77.6
23.515,-68.59
23.531,-61.25
23.546,-55.7
23.562,-52.02
23.578,-49.96
23.593,-49.0
23.609,-48.31
23.625,-47.35
23.640,-46.76
23.656,-49.55
23.671,-57.79
23.687,-72.13
23.703,-92.36
23.718,-117.07
23.734,-143.56
23.750,-167.62
23.765,-185.37
23.781,-183.8
23.796,-160.61
23.812,-118.65
23.828,-64.08
23.843,-3.9
23.859,55.71
23.875,110.53
23.890,159.35
23.906,204.45
23.921,246.14
23.937,280.25
23.953,302.66
23.968,309.1
23.984,297.13
24.000,265.85
24.015,209.78
24.031,133.33
24.046,45.53
24.062,-42.5
24.078,-121.52
24.093,-187.7
24.109,-239.79
24.125,-275.95
24.140,-296.47
24.156,-303.33
24.171,-298.94
24.187,-286.71
24.203,-262.01
24.218,-224.63
24.234,-166.14
24.250,-85.32
24.265,12.59
24.281,114.07
24.296,202.32
24.312,264.0
24.328,292.56
24.343,289.84
24.359,263.24
24.375,229.6
24.390,194.96
24.406,162.27
24.421,131.65
24.437,101.78
24.453,72.37
24.468,45.0
24.484,22.92
24.500,8.29
24.515,2.05
24.531,1.78
24.546,4.7
24.562,7.59
24.578,7.87
24.593,4.82
24.609,-0.34
24.625,-4.86
24.640,-7.66
24.656,-8.8
24.671,-10.81
24.687,-15.49
24.703,-23.47
24.718,-34.61
24.734,-47.52
24.750,-60.35
24.765,-71.34
24.781,-80.37
24.796,-87.91
24.812,-94.35
24.828,-97.7
24.843,-89.67
24.859,-65.26
24.875,-27.88
24.890,10.96
24.906,39.23
24.921,50.58
24.937,46.24
24.953,32.02
24.968,14.88
24.984,-0.44
25.000,-13.54
25.015,-26.13
25.031,-39.4
25.046,-52.21
25.062,-62.47
25.078,-68.41
25.093,-69.9
25.109,-68.7
25.125,-67.22
25.140,-68.62
25.156,-74.68
25.171,-84.77
25.187,-95.87
25.203,-104.55
25.218,-109.35
25.234,-109.33
25.250,-105.48
25.265,-99.76
25.281,-94.57
25.296,-91.01
25.312,-88.59
25.328,-84.9
25.343,-77.81
25.359,-66.46
25.375,-51.56
25.390,-35.58
25.406,-21.55
25.421,-11.88
25.437,-7.31
25.453,-6.68
25.468,-6.79
25.484,-4.64
25.500,1.38
25.515,11.3
25.531,23.81
25.546,37.38
25.562,51.69
25.578,68.35
25.593,86.33
25.609,106.79
25.625,130.85
25.640,158.96
25.656,190.45
25.671,222.76
25.687,251.05
25.703,267.97
25.718,264.46
25.734,232.06
25.750,166.99
25.765,72.35
25.781,-41.12
25.796,-156.86
25.812,-257.21
25.828,-328.31
25.843,-363.39
25.859,-363.41
25.875,-335.06
25.890,-286.71
25.906,-226.21
25.921,-159.37
25.937,-90.29
25.953,-22.38
25.968,40.92
25.984,96.49
26.000,142.65
26.015,180.34
26.031,213.43
26.046,246.41
26.062,281.24
26.078,314.57
26.093,337.89
26.109,340.66
26.125,315.53
26.140,262.77
26.156,191.13
26.171,114.77
26.187,47.45
26.203,-2.59
26.218,-34.12
26.234,-51.02
26.250,-58.13
26.265,-58.14
26.281,-51.06
26.296,-36.02
26.312,-13.88
26.328,11.41
26.343,33.88
26.359,48.15
26.375,51.92
26.390,46.82
26.406,36.92
26.421,26.49
26.437,17.68
26.453,9.73
26.468,0.32
26.484,-12.55
26.500,-28.94
26.515,-46.68
26.531,-62.54
26.546,-73.69
26.562,-78.42
26.578,-76.23
26.593,-67.01
26.609,-50.34
26.625,-25.29
26.640,8.85
26.656,51.35
26.671,99.45
26.687,148.34
26.703,192.16
26.718,225.56
26.734,244.98
26.750,249.72
26.765,241.84
26.781,225.33
26.796,204.62
26.812,182.83
26.828,160.71
26.843,137.03
26.859,109.78
26.875,77.94
26.890,42.84
26.906,7.54
26.921,-24.52
26.937,-51.32
26.953,-73.54
26.968,-93.58
26.984,-113.76
27.000,-134.28
27.015,-152.58
27.031,-164.45
27.046,-166.35
27.062,-157.6
27.078,-140.79
27.093,-120.39
27.109,-100.75
27.125,-84.12
27.140,-70.32
27.156,-58.04
27.171,-46.23
27.187,-35.22
27.203,-26.95
27.218,-23.85
27.234,-27.92
27.250,-39.87
27.265,-58.8
27.281,-82.29
27.296,-106.68
27.312,-127.91
27.328,-142.88
27.343,-150.46
27.359,-151.89
27.375,-149.83
27.390,-146.29
27.406,-140.64
27.421,-129.26
27.437,-106.98
27.453,-70.52
27.468,-21.13
27.484,34.71
27.500,87.42
27.515,128.16
27.531,151.89
27.546,158.69
27.562,152.08
27.578,136.29
27.593,114.37
27.609,87.82
27.625,57.81
27.640,26.4
27.656,-3.5
27.671,-29.22
27.687,-49.81
27.703,-66.5
27.718,-81.53
27.734,-96.33
27.750,-109.8
27.765,-118.59
27.781,-118.95
27.796,-108.8
27.812,-89.23
27.828,-64.13
27.843,-38.27
27.859,-15.08
27.875,4.72
27.890,22.71
27.906,41.0
27.921,60.37
27.937,79.28
27.953,93.93
27.968,99.84
27.984,93.61
28.000,74.36
28.015,44.17
28.031,7.37
28.046,-30.63
28.062,-64.8
28.078,-91.3
28.093,-107.84
28.109,-114.09
28.125,-111.64
28.140,-103.85
28.156,-95.2
28.171,-89.62
28.187,-89.11
28.203,-93.08
28.218,-98.56
28.234,-101.78
28.250,-99.99
28.265,-92.75
28.281,-82.13
28.296,-71.61
28.312,-64.15
28.328,-60.51
28.343,-58.44
28.359,-53.13
28.375,-38.75
28.390,-10.28
28.406,34.14
28.421,91.92
28.437,155.94
28.453,215.92
28.468,261.27
28.484,284.07
28.500,281.43
28.515,255.78
28.531,213.93
28.546,164.97
28.562,117.55
28.578,77.57
28.593,47.37
28.609,26.12
28.625,11.37
28.640,0.9
28.656,-6.53
28.671,-10.54
28.687,-9.54
28.703,-1.29
28.718,16.19
28.734,43.22
28.750,77.25
28.765,112.56
28.781,141.71
28.796,157.85
28.812,157.66
28.828,142.67
28.843,118.64
28.859,93.05
28.875,72.06
28.890,58.21
28.906,50.34
28.921,45.53
28.937,41.1
28.953,36.03
28.968,31.1
28.984,27.69
29.000,26.91
29.015,29.22
29.031,34.55
29.046,42.77
29.062,53.58
29.078,65.74
29.093,76.51
29.109,81.89
29.125,77.66
29.140,60.68
29.156,29.87
29.171,-13.26
29.187,-65.29
29.203,-121.63
29.218,-177.52
29.234,-228.32
29.250,-269.97
29.265,-299.17
29.281,-314.41
29.296,-316.59
29.312,-309.15
29.328,-296.94
29.343,-284.21
29.359,-273.04
29.375,-261.83
29.390,-246.88
29.406,-224.03
29.421,-190.85
29.437,-147.72
29.453,-97.51
29.468,-43.8
29.484,10.61
29.500,63.72
29.515,111.68
29.531,146.35
29.546,158.74
29.562,144.44
29.578,106.83
29.593,55.33
29.609,0.98
29.625,-45.74
29.640,-82.1
29.656,-108.45
29.671,-126.11
29.687,-136.17
29.703,-139.13
29.718,-135.19
29.734,-124.47
29.750,-108.4
29.765,-89.16
29.781,-69.48
29.796,-51.3
29.812,-35.96
29.828,-23.85
29.843,-14.4
29.859,-6.62
29.875,0.87
29.890,9.77
29.906,22.12
29.921,39.76
29.937,63.2
29.953,90.04
29.968,114.75
29.984,130.12
30.000,130.03
30.015,112.62
30.031,81.6
30.046,45.09
30.062,12.13
30.078,-10.69
30.093,-20.98
30.109,-20.05
30.125,-10.86
30.140,3.67
30.156,21.24
30.171,39.41
30.187,55.31
30.203,66.1
30.218,71.01
30.234,72.54
30.250,75.92
30.265,85.99
30.281,103.86
30.296,125.88
30.312,144.76
30.328,153.4
30.343,148.49
30.359,132.01
30.375,109.49
30.390,86.7
30.406,66.35
30.421,47.59
30.437,27.74
30.453,5.08
30.468,-18.96
30.484,-40.05
30.500,-52.9
30.515,-54.0
30.531,-43.32
30.546,-24.16
30.562,-1.39
30.578,20.55
30.593,39.28
30.609,54.95
30.625,69.62
30.640,85.87
30.656,105.42
30.671,128.27
30.687,152.68
30.703,175.78
30.718,194.62
30.734,206.95
30.750,211.66
30.765,208.51
30.781,197.56
30.796,179.15
30.812,153.73
30.828,122.41
30.843,87.32
30.859,51.84
30.875,20.29
30.890,-3.34
30.906,-16.86
30.921,-20.65
30.937,-17.51
30.953,-11.29
30.968,-5.39
30.984,-1.58
31.000,0.14
31.015,1.35
31.031,3.87
31.046,8.55
31.062,14.79
31.078,20.85
31.093,24.65
31.109,24.95
31.125,21.59
31.140,15.19
31.156,6.99
31.171,-2.28
31.187,-13.0
31.203,-26.84
31.218,-45.88
31.234,-71.47
31.250,-103.14
31.265,-138.57
31.281,-175.34
31.296,-211.01
31.312,-241.83
31.328,-262.51
31.343,-268.05
31.359,-256.34
31.375,-228.79
31.390,-188.51
31.406,-138.89
31.421,-86.16
31.437,-34.27
31.453,11.78
31.468,46.57
31.484,66.41
31.500,70.54
31.515,61.95
31.531,44.97
31.546,26.7
31.562,13.86
31.578,9.97
31.593,12.07
31.609,10.66
31.625,-5.85
31.640,-45.13
31.656,-105.2
31.671,-172.57
31.687,-226.43
31.703,-247.12
31.718,-223.69
31.734,-158.6
31.750,-66.19
31.765,33.65
31.781,121.91
31.796,185.68
31.812,219.92
31.828,226.35
31.843,211.34
31.859,184.65
31.875,157.58
31.890,141.21
31.906,144.24
31.921,171.03
31.937,220.09
31.953,284.12
31.968,350.75
31.984,404.72
32.000,431.07
32.015,418.53
32.031,362.54
32.046,266.59
32.062,141.87
32.078,4.65
32.093,-127.37
32.109,-239.66
32.125,-323.92
32.140,-379.22
32.156,-411.24
32.171,-428.9
32.187,-440.6
32.203,-451.09
32.218,-460.29
32.234,-464.25
32.250,-457.84
32.265,-438.06
32.281,-406.26
32.296,-367.96
32.312,-330.41
32.328,-299.33
32.343,-276.03
32.359,-257.51
32.375,-238.3
32.390,-213.24
32.406,-180.34
32.421,-141.19
32.437,-99.78
32.453,-60.6
32.468,-26.83
32.484,0.22
32.500,20.88
32.515,35.82
32.531,45.78
32.546,50.76
32.562,51.19
32.578,48.93
32.593,47.53
32.609,51.59
32.625,64.41
32.640,86.11
32.656,112.44
32.671,136.59
32.687,151.86
32.703,154.86
32.718,146.38
32.734,129.7
32.750,108.05
32.765,83.4
32.781,57.05
32.796,32.04
32.812,14.61
32.828,12.72
32.843,32.58
32.859,74.74
32.875,132.42
32.890,193.79
32.906,246.78
32.921,283.84
32.937,304.12
32.953,312.19
32.968,314.46
32.984,315.69
33.000,317.42
33.015,317.68
33.031,312.39
33.046,296.86
33.062,267.53
33.078,223.98
33.093,169.86
33.109,113.06
33.125,64.07
33.140,32.94
33.156,25.46
33.171,40.85
33.187,71.71
33.203,106.4
33.218,133.4
33.234,144.55
33.250,136.7
33.265,111.27
33.281,72.17
33.296,23.66
33.312,-30.92
33.328,-89.11
33.343,-149.72
33.359,-207.39
33.375,-253.34
33.390,-278.89
33.406,-279.36
33.421,-256.44
33.437,-216.69
33.453,-168.46
33.468,-118.26
33.484,-70.11
33.500,-25.46
33.515,15.46
33.531,51.53
33.546,82.02
33.562,104.67
33.578,117.82
33.593,120.48
33.609,113.15
33.625,95.92
33.640,68.78
33.656,31.75
33.671,-15.18
33.687,-71.06
33.703,-133.7
33.718,-199.08
33.734,-263.32
33.750,-318.55
33.765,-353.03
33.781,-357.71
33.796,-329.03
33.812,-271.37
33.828,-194.7
33.843,-110.37
33.859,-27.07
33.875,47.17
33.890,112.34
33.906,165.82
33.921,202.15
33.937,216.2
33.953,204.04
33.968,165.76
33.984,103.4
34.000,24.5
34.015,-61.85
34.031,-147.68
34.046,-229.05
34.062,-304.81
34.078,-364.98
34.093,-399.03
34.109,-400.21
34.125,-369.93
34.140,-314.91
34.156,-242.37
34.171,-156.06
34.187,-58.54
34.203,45.79
34.218,148.25
34.234,233.04
34.250,284.66
34.265,295.45
34.281,271.44
34.296,235.61
34.312,208.36
34.328,203.61
34.343,225.31
34.359,267.17
34.375,313.32
34.390,348.3
34.406,363.55
34.421,359.07
34.437,330.11
34.453,283.76
34.468,229.75
34.484,174.27
34.500,118.72
34.515,60.2
34.531,-7.17
34.546,-83.25
34.562,-162.12
34.578,-234.29
34.593,-293.04
34.609,-334.96
34.625,-360.3
34.640,-356.17
34.656,-321.01
34.671,-260.34
34.687,-182.53
34.703,-102.06
34.718,-19.86
34.734,60.32
34.750,131.09
34.765,183.93
34.781,213.73
34.796,214.67
34.812,187.8
34.828,140.56
34.843,82.92
34.859,23.76
34.875,-35.31
34.890,-95.69
34.906,-158.7
34.921,-221.42
34.937,-279.16
34.953,-324.52
34.968,-349.33
34.984,-347.78
35.000,-305.28
35.015,-220.1
35.031,-103.87
35.046,21.27
35.062,132.88
35.078,214.06
35.093,257.36
35.109,265.45
35.125,249.69
35.140,226.24
35.156,207.17
35.171,201.79
35.187,208.32
35.203,220.83
35.218,231.35
35.234,232.53
35.250,220.75
35.265,196.87
35.281,164.38
35.296,125.05
35.312,80.42
35.328,31.4
35.343,-18.49
35.359,-64.04
35.375,-101.85
35.390,-129.4
35.406,-145.61
35.421,-151.43
35.437,-150.95
35.453,-149.18
35.468,-151.13
35.484,-160.06
35.500,-168.92
35.515,-174.02
35.531,-174.71
35.546,-173.25
35.562,-173.34
35.578,-178.51
35.593,-188.75
35.609,-200.5
35.625,-206.47
35.640,-198.03
35.656,-171.12
35.671,-127.11
35.687,-72.89
35.703,-19.24
35.718,22.7
35.734,46.42
35.750,51.49
35.765,42.6
35.781,27.13
35.796,10.07
35.812,-5.83
35.828,-19.94
35.843,-32.46
35.859,-44.32
35.875,-53.44
35.890,-57.12
35.906,-53.27
35.921,-40.24
35.937,-18.17
35.953,11.8
35.968,47.42
35.984,85.15
36.000,121.02
36.015,151.69
36.031,174.58
36.046,187.99
36.062,191.29
36.078,184.61
36.093,169.31
36.109,147.63
36.125,121.5
36.140,92.22
36.156,60.56
36.171,25.17
36.187,-16.18
36.203,-65.29
36.218,-121.47
36.234,-177.71
36.250,-222.33
36.265,-244.6
36.281,-239.38
36.296,-208.33
36.312,-160.08
36.328,-105.18
36.343,-52.54
36.359,-7.06
36.375,30.32
36.390,63.75
36.406,95.9
36.421,127.92
36.437,161.04
36.453,194.67
36.468,226.68
36.484,253.12
36.500,269.72
36.515,272.91
36.531,260.89
36.546,233.1
36.562,184.18
36.578,117.27
36.593,39.95
36.609,-37.66
36.625,-104.75
36.640,-152.16
36.656,-173.0
36.671,-162.24
36.687,-120.06
36.703,-54.31
36.718,21.45
36.734,90.26
36.750,137.61
36.765,156.24
36.781,146.62
36.796,117.21
36.812,79.69
36.828,44.38
36.843,16.91
36.859,-1.18
36.875,-12.53
36.890,-20.68
36.906,-27.09
36.921,-31.01
36.937,-30.5
36.953,-24.83
36.968,-15.19
36.984,-3.99
37.000,7.6
37.015,19.06
37.031,30.23
37.046,41.02
37.062,50.68
37.078,57.59
37.093,59.72
37.109,55.18
37.125,43.83
37.140,26.99
37.156,7.09
37.171,-13.56
37.187,-33.54
37.203,-52.94
37.218,-70.98
37.234,-88.29
37.250,-106.81
37.265,-127.39
37.281,-148.97
37.296,-167.7
37.312,-177.68
37.328,-173.02
37.343,-151.17
37.359,-114.69
37.375,-70.82
37.390,-29.17
37.406,2.6
37.421,21.63
37.437,30.23
37.453,33.14
37.468,34.68
37.484,35.93
37.500,35.1
37.515,30.02
37.531,19.91
37.546,6.35
37.562,-7.7
37.578,-19.16
37.593,-26.96
37.609,-31.9
37.625,-36.23
37.640,-43.38
37.656,-57.11
37.671,-79.09
37.687,-109.2
37.703,-144.73
37.718,-180.48
37.734,-209.79
37.750,-225.95
37.765,-222.43
37.781,-200.4
37.796,-165.08
37.812,-123.9
37.828,-83.71
37.843,-48.56
37.859,-18.35
37.875,9.59
37.890,39.76
37.906,75.87
37.921,118.21
37.937,165.01
37.953,210.71
37.968,248.4
37.984,271.82
38.000,277.83
38.015,266.05
38.031,238.66
38.046,199.07
38.062,150.22
38.078,95.82
38.093,39.92
38.109,-12.45
38.125,-56.01
38.140,-86.39
38.156,-101.25
38.171,-100.83
38.187,-87.35
38.203,-64.25
38.218,-34.44
38.234,-1.74
38.250,31.5
38.265,64.19
38.281,95.56
38.296,124.09
38.312,146.41
38.328,157.65
38.343,152.9
38.359,131.2
38.375,95.88
38.390,55.15
38.406,19.15
38.421,-4.1
38.437,-11.12
38.453,-3.59
38.468,13.47
38.484,34.09
38.500,54.67
38.515,72.54
38.531,86.19
38.546,93.85
38.562,93.36
38.578,83.02
38.593,62.72
38.609,34.57
38.625,1.62
38.640,-31.26
38.656,-60.8
38.671,-85.6
38.687,-105.79
38.703,-122.55
38.718,-137.37
38.734,-151.42
38.750,-164.93
38.765,-176.36
38.781,-182.47
38.796,-179.3
38.812,-163.45
38.828,-134.3
38.843,-95.28
38.859,-53.35
38.875,-16.58
38.890,8.98
38.906,21.82
38.921,24.64
38.937,22.12
38.953,18.54
38.968,15.93
38.984,13.93
39.000,11.24
39.015,7.17
39.031,2.43
39.046,-1.39
39.062,-2.89
39.078,-1.87
39.093,0.48
39.109,2.47
39.125,2.47
39.140,-0.15
39.156,-4.9
39.171,-10.62
39.187,-16.18
39.203,-20.99
39.218,-25.07
39.234,-29.23
39.250,-34.51
39.265,-41.75
39.281,-51.14
39.296,-62.05
39.312,-73.15
39.328,-83.02
39.343,-90.04
39.359,-93.03
39.375,-91.45
39.390,-85.38
39.406,-75.46
39.421,-62.57
39.437,-47.66
39.453,-31.36
39.468,-13.84
39.484,5.25
39.500,26.49
39.515,50.11
39.531,75.89
39.546,102.81
39.562,129.1
39.578,152.94
39.593,172.45
39.609,186.17
39.625,193.11
39.640,193.02
39.656,186.01
39.671,173.01
39.687,155.8
39.703,135.86
39.718,113.81
39.734,88.38
39.750,56.56
39.765,15.22
39.781,-36.32
39.796,-94.33
39.812,-150.59
39.828,-193.71
39.843,-214.82
39.859,-211.27
39.875,-187.21
39.890,-151.61
39.906,-114.23
39.921,-82.1
39.937,-58.11
39.953,-41.96
39.968,-30.92
39.984,-21.67
40.000,-10.25
40.015,7.81
40.031,36.03
40.046,74.9
40.062,121.54
40.078,168.95
40.093,208.31
40.109,232.87
40.125,238.81
40.140,226.58
40.156,200.01
40.171,164.24
40.187,124.18
40.203,81.85
40.218,40.62
40.234,-0.59
40.250,-42.48
40.265,-84.57
40.281,-124.26
40.296,-156.16
40.312,-175.1
40.328,-177.52
40.343,-163.82
40.359,-138.27
40.375,-107.24
40.390,-76.1
40.406,-47.99
40.421,-23.9
40.437,-3.43
40.453,12.65
40.468,23.76
40.484,29.6
40.500,30.48
40.515,28.02
40.531,25.28
40.546,25.21
40.562,29.16
40.578,36.64
40.593,45.1
40.609,51.89
40.625,55.68
40.640,56.09
40.656,54.1
40.671,51.45
40.687,49.71
40.703,49.13
40.718,48.57
40.734,45.98
40.750,39.83
40.765,29.82
40.781,16.99
40.796,3.65
40.812,-8.52
40.828,-18.47
40.843,-26.75
40.859,-34.61
40.875,-43.92
40.890,-55.69
40.906,-69.73
40.921,-85.53
40.937,-101.52
40.953,-116.07
40.968,-126.66
40.984,-129.97
41.000,-123.0
41.015,-104.65
41.031,-76.85
41.046,-44.01
41.062,-12.01
41.078,13.89
41.093,31.06
41.109,39.28
41.125,40.21
41.140,35.62
41.156,26.8
41.171,14.4
41.187,-0.74
41.203,-16.56
41.218,-30.53
41.234,-40.22
41.250,-44.76
41.265,-46.12
41.281,-49.27
41.296,-59.89
41.312,-82.35
41.328,-117.04
41.343,-159.04
41.359,-198.35
41.375,-222.59
41.390,-220.7
41.406,-186.48
41.421,-124.02
41.437,-44.4
41.453,38.3
41.468,111.79
41.484,168.97
41.500,209.47
41.515,235.48
41.531,250.0
41.546,253.88
41.562,246.0
41.578,225.27
41.593,192.12
41.609,149.87
41.625,104.33
41.640,61.8
41.656,26.94
41.671,2.33
41.687,-11.99
41.703,-16.8
41.718,-13.62
41.734,-4.78
41.750,6.38
41.765,15.46
41.781,18.82
41.796,14.41
41.812,3.66
41.828,-9.55
41.843,-20.66
41.859,-26.16
41.875,-25.69
41.890,-20.44
41.906,-12.37
41.921,-2.29
41.937,9.31
41.953,22.36
41.968,36.18
41.984,49.17
42.000,60.04
42.015,66.92
42.031,69.63
42.046,68.62
42.062,64.84
42.078,58.91
42.093,50.91
42.109,40.55
42.125,27.7
42.140,13.27
42.156,-1.7
42.171,-15.96
42.187,-28.41
42.203,-38.57
42.218,-46.62
42.234,-53.52
42.250,-59.86
42.265,-65.65
42.281,-70.03
42.296,-72.8
42.312,-73.92
42.328,-74.44
42.343,-76.64
42.359,-81.97
42.375,-93.12
42.390,-111.32
42.406,-137.42
42.421,-168.26
42.437,-198.97
42.453,-222.45
42.468,-231.45
42.484,-221.01
42.500,-190.22
42.515,-143.03
42.531,-86.58
42.546,-29.08
42.562,23.97
42.578,68.63
42.593,105.62
42.609,137.66
42.625,167.11
42.640,194.03
42.656,216.09
42.671,229.51
42.687,230.4
42.703,216.73
42.718,189.95
42.734,154.93
42.750,119.37
42.765,90.73
42.781,74.08
42.796,68.93
42.812,72.07
42.828,78.64
42.843,83.86
42.859,85.03
42.875,81.3
42.890,73.12
42.906,60.33
42.921,42.01
42.937,16.86
42.953,-14.5
42.968,-49.58
42.984,-83.96
43.000,-112.6
43.015,-131.26
43.031,-137.86
43.046,-133.28
43.062,-120.76
43.078,-104.84
43.093,-89.72
43.109,-79.27
43.125,-76.39
43.140,-81.72
43.156,-96.6
43.171,-119.31
43.187,-145.6
43.203,-168.91
43.218,-181.95
43.234,-182.05
43.250,-167.91
43.265,-143.0
43.281,-113.01
43.296,-84.2
43.312,-58.73
43.328,-35.51
43.343,-10.93
43.359,18.57
43.375,54.5
43.390,95.07
43.406,136.77
43.421,176.05
43.437,207.89
43.453,228.21
43.468,233.04
43.484,220.97
43.500,194.27
43.515,159.37
43.531,124.44
43.546,96.76
43.562,80.71
43.578,74.82
43.593,75.75
43.609,79.03
43.625,81.96
43.640,82.88
43.656,81.16
43.671,76.07
43.687,65.97
43.703,49.28
43.718,25.3
43.734,-4.26
43.750,-36.37
43.765,-66.42
43.781,-90.27
43.796,-106.08
43.812,-113.97
43.828,-115.98
43.843,-115.45
43.859,-115.93
43.875,-116.89
43.890,-120.94
43.906,-129.56
43.921,-143.3
43.937,-161.58
43.953,-181.32
43.968,-197.14
43.984,-203.49
44.000,-196.99
44.015,-176.92
44.031,-149.24
44.046,-117.47
44.062,-86.01
44.078,-57.91
44.093,-33.08
44.109,-9.06
44.125,16.06
44.140,41.68
44.156,65.36
44.171,84.01
44.187,95.47
44.203,98.46
44.218,92.31
44.234,75.27
44.250,48.94
44.265,16.52
44.281,-21.51
44.296,-63.55
44.312,-105.79
44.328,-142.62
44.343,-168.89
44.359,-181.3
44.375,-177.73
44.390,-157.82
44.406,-123.69
44.421,-77.83
44.437,-26.87
44.453,23.18
44.468,68.13
44.484,105.44
44.500,133.18
44.515,151.61
44.531,162.27
44.546,166.67
44.562,166.46
44.578,163.2
44.593,159.85
44.609,158.78
44.625,165.35
44.640,176.48
44.656,188.74
44.671,199.07
44.687,203.9
44.703,200.19
44.718,185.98
44.734,162.08
44.750,130.08
44.765,91.97
44.781,48.75
44.796,2.75
44.812,-42.39
44.828,-83.12
44.843,-115.61
44.859,-136.06
44.875,-139.37
44.890,-121.37
44.906,-79.64
44.921,-16.76
44.937,58.84
44.953,141.57
44.968,224.57
44.984,301.38
45.000,357.95
45.015,385.44
45.031,380.88
45.046,347.78
45.062,293.16
45.078,226.16
45.093,156.11
45.109,90.24
45.125,33.25
45.140,-11.65
45.156,-41.5
45.171,-55.11
45.187,-53.55
45.203,-42.52
45.218,-28.77
45.234,-17.39
45.250,-10.77
45.265,-9.54
45.281,-12.86
45.296,-19.3
45.312,-28.33
45.328,-40.57
45.343,-60.37
45.359,-91.69
45.375,-135.42
45.390,-188.15
45.406,-245.08
45.421,-301.19
45.437,-352.88
45.453,-398.96
45.468,-423.2
45.484,-416.4
45.500,-381.27
45.515,-333.09
45.531,-288.0
45.546,-255.93
45.562,-236.58
45.578,-222.17
45.593,-202.59
45.609,-170.52
45.625,-128.3
45.640,-84.02
45.656,-52.75
45.671,-37.12
45.687,-35.23
45.703,-40.76
45.718,-45.24
45.734,-40.6
45.750,-21.39
45.765,11.63
45.781,59.85
45.796,117.63
45.812,178.19
45.828,232.55
45.843,272.79
45.859,294.14
45.875,296.96
45.890,286.93
45.906,271.14
45.921,256.18
45.937,247.69
45.953,246.03
45.968,247.78
45.984,249.24
46.000,247.88
46.015,242.97
46.031,234.23
46.046,219.71
46.062,195.96
46.078,159.87
46.093,111.57
46.109,51.83
46.125,-16.57
46.140,-90.32
46.156,-162.56
46.171,-228.11
46.187,-285.71
46.203,-336.82
46.218,-384.44
46.234,-416.86
46.250,-427.55
46.265,-417.83
46.281,-395.57
46.296,-368.22
46.312,-337.77
46.328,-301.91
46.343,-257.63
46.359,-205.3
46.375,-149.99
46.390,-102.51
46.406,-72.48
46.421,-63.22
46.437,-71.73
46.453,-86.38
46.468,-96.2
46.484,-94.1
46.500,-78.22
46.515,-50.36
46.531,-16.95
46.546,16.39
46.562,46.32
46.578,73.48
46.593,99.83
46.609,126.15
46.625,151.78
46.640,171.48
46.656,182.12
46.671,181.15
46.687,168.07
46.703,143.0
46.718,107.17
46.734,61.36
46.750,6.99
46.765,-51.54
46.781,-106.74
46.796,-141.83
46.812,-141.32
46.828,-101.2
46.843,-33.99
46.859,40.04
46.875,102.41
46.890,144.48
46.906,167.77
46.921,179.4
46.937,187.63
46.953,195.87
46.968,209.99
46.984,225.07
47.000,238.13
47.015,248.82
47.031,258.56
47.046,268.02
47.062,275.42
47.078,277.94
47.093,271.45
47.109,252.92
47.125,220.92
47.140,178.79
47.156,124.22
47.171,62.69
47.187,2.31
47.203,-49.22
47.218,-85.86
47.234,-104.46
47.250,-103.8
47.265,-84.36
47.281,-47.49
47.296,3.31
47.312,61.82
47.328,119.18
47.343,165.51
47.359,191.66
47.375,191.94
47.390,167.21
47.406,125.51
47.421,80.02
47.437,46.49
47.453,30.1
47.468,30.9
47.484,44.58
47.500,62.99
47.515,78.2
47.531,84.85
47.546,80.77
47.562,65.52
47.578,39.78
47.593,4.23
47.609,-37.73
47.625,-81.07
47.640,-122.76
47.656,-160.23
47.671,-191.3
47.687,-214.17
47.703,-229.09
47.718,-237.56
47.734,-242.39
47.750,-247.12
47.765,-244.05
47.781,-231.39
47.796,-212.83
47.812,-196.0
47.828,-187.23
47.843,-190.29
47.859,-204.65
47.875,-226.2
47.890,-257.3
47.906,-289.93
47.921,-316.1
47.937,-329.23
47.953,-325.81
47.968,-305.33
47.984,-271.83
48.000,-231.4
48.015,-180.6
48.031,-112.4
48.046,-26.62
48.062,70.62
48.078,170.62
48.093,263.99
48.109,343.3
48.125,401.46
48.140,433.42
48.156,438.69
48.171,421.1
48.187,389.54
48.203,354.29
48.218,327.64
48.234,310.73
48.250,302.2
48.265,297.21
48.281,290.87
48.296,281.04
48.312,265.93
48.328,245.75
48.343,220.67
48.359,190.3
48.375,153.33
48.390,109.8
48.406,59.55
48.421,4.37
48.437,-51.84
48.453,-106.41
48.468,-157.2
48.484,-203.08
48.500,-243.42
48.515,-277.95
48.531,-304.49
48.546,-324.15
48.562,-337.71
48.578,-344.49
48.593,-345.85
48.609,-343.94
48.625,-341.59
48.640,-341.8
48.656,-348.06
48.671,-342.09
48.687,-315.96
48.703,-272.64
48.718,-222.27
48.734,-177.72
48.750,-146.58
48.765,-131.21
48.781,-130.3
48.796,-139.9
48.812,-152.98
48.828,-163.97
48.843,-174.11
48.859,-175.13
48.875,-163.75
48.890,-140.74
48.906,-110.48
48.921,-77.99
48.937,-45.98
48.953,-13.05
48.968,21.7
48.984,60.55
49.000,112.03
49.015,174.67
49.031,242.74
49.046,308.04
49.062,362.89
49.078,400.89
49.093,418.1
49.109,410.75
49.125,379.92
49.140,333.72
49.156,281.78
49.171,234.71
49.187,199.33
49.203,179.87
49.218,173.44
49.234,176.28
49.250,182.35
49.265,186.02
49.281,184.17
49.296,173.18
49.312,151.56
49.328,119.34
49.343,79.41
49.359,35.88
49.375,-6.26
49.390,-45.63
49.406,-83.31
49.421,-118.4
49.437,-151.61
49.453,-183.67
49.468,-216.1
49.484,-249.91
49.500,-285.97
49.515,-312.27
49.531,-318.43
49.546,-298.37
49.562,-252.88
49.578,-190.21
49.593,-122.13
49.609,-61.73
49.625,-18.46
49.640,3.13
49.656,4.98
49.671,-7.59
49.687,-28.31
49.703,-51.9
49.718,-75.66
49.734,-98.37
49.750,-121.94
49.765,-144.08
49.781,-161.1
49.796,-169.01
49.812,-165.73
49.828,-150.65
49.843,-124.02
49.859,-86.97
49.875,-38.43
49.890,16.4
49.906,72.16
49.921,124.18
49.937,169.24
49.953,204.94
49.968,230.33
49.984,245.95
50.000,253.62
50.015,255.85
50.031,255.33
50.046,255.16
50.062,256.05
50.078,255.69
50.093,248.59
50.109,228.69
50.125,192.79
50.140,142.89
50.156,86.14
50.171,32.25
50.187,-9.39
50.203,-34.26
50.218,-43.13
50.234,-40.5
50.250,-31.65
50.265,-19.53
50.281,-4.83
50.296,12.33
50.312,30.49
50.328,46.72
50.343,56.96
50.359,57.55
50.375,46.69
50.390,24.9
50.406,-6.5
50.421,-43.53
50.437,-82.26
50.453,-118.82
50.468,-148.85
50.484,-167.99
50.500,-173.26
50.515,-164.71
50.531,-145.93
50.546,-123.21
50.562,-103.52
50.578,-91.35
50.593,-87.5
50.609,-89.73
50.625,-93.13
50.640,-93.72
50.656,-89.28
50.671,-79.22
50.687,-63.44
50.703,-42.09
50.718,-15.05
50.734,16.89
50.750,51.73
50.765,86.51
50.781,117.47
50.796,141.19
50.812,155.48
50.828,160.08
50.843,153.83
50.859,140.01
50.875,121.69
50.890,101.15
50.906,79.44
50.921,56.39
50.937,31.25
50.953,3.58
50.968,-25.93
50.984,-55.72
51.000,-83.17
51.015,-106.53
51.031,-125.53
51.046,-139.59
51.062,-148.84
51.078,-152.81
51.093,-150.38
51.109,-140.71
51.125,-124.96
51.140,-105.99
51.156,-88.64
51.171,-77.58
51.187,-74.1
51.203,-76.61
51.218,-79.85
51.234,-78.51
51.250,-70.79
51.265,-58.76
51.281,-44.87
51.296,-30.38
51.312,-14.44
51.328,4.51
51.343,26.0
51.359,47.27
51.375,63.29
51.390,68.2
51.406,57.68
51.421,34.15
51.437,4.99
51.453,-20.76
51.468,-36.57
51.484,-40.52
51.500,-32.63
51.515,-13.88
51.531,13.55
51.546,46.62
51.562,85.57
51.578,131.47
51.593,184.42
51.609,241.98
51.625,300.21
51.640,350.31
51.656,387.82
51.671,410.4
51.687,416.81
51.703,411.45
51.718,401.6
51.734,394.6
51.750,394.79
51.765,388.78
51.781,367.3
51.796,324.58
51.812,271.26
51.828,200.33
51.843,104.36
51.859,-22.56
51.875,-172.92
51.890,-331.9
51.906,-482.66
51.921,-607.91
51.937,-681.82
51.953,-687.34
51.968,-627.15
51.984,-519.21
52.000,-388.34
52.015,-255.15
52.031,-133.32
52.046,-34.72
52.062,43.39
52.078,102.85
52.093,142.55
52.109,160.59
52.125,159.97
52.140,147.32
52.156,127.9
52.171,105.83
52.187,82.26
52.203,57.72
52.218,30.43
52.234,-3.59
52.250,-46.81
52.265,-96.49
52.281,-146.35
52.296,-188.26
52.312,-214.52
52.328,-219.42
52.343,-199.7
52.359,-158.26
52.375,-104.21
52.390,-50.06
52.406,-6.35
52.421,21.24
52.437,33.65
52.453,36.04
52.468,34.29
52.484,32.72
52.500,31.96
52.515,30.3
52.531,26.05
52.546,19.61
52.562,12.84
52.578,7.89
52.593,5.88
52.609,6.43
52.625,7.88
52.640,7.93
52.656,5.14
52.671,-0.37
52.687,-7.52
52.703,-14.74
52.718,-21.1
52.734,-26.44
52.750,-31.24
52.765,-36.85
52.781,-44.6
52.796,-54.98
52.812,-67.25
52.828,-80.0
52.843,-91.5
52.859,-100.58
52.875,-107.22
52.890,-110.66
52.906,-111.22
52.921,-109.56
52.937,-106.27
52.953,-101.44
52.968,-95.01
52.984,-86.56
53.000,-75.84
53.015,-62.61
53.031,-45.89
53.046,-25.58
53.062,-1.83
53.078,25.04
53.093,54.62
53.109,85.03
53.125,116.47
53.140,148.03
53.156,178.29
53.171,206.62
53.187,231.4
53.203,250.99
53.218,263.87
53.234,268.76
53.250,264.48
53.265,250.45
53.281,226.85
53.296,189.94
53.312,143.39
53.328,91.3
53.343,37.66
53.359,-14.29
53.375,-62.11
53.390,-103.78
53.406,-139.26
53.421,-167.91
53.437,-188.66
53.453,-199.07
53.468,-198.03
53.484,-185.61
53.500,-163.17
53.515,-133.63
53.531,-101.46
53.546,-70.68
53.562,-43.62
53.578,-21.33
53.593,-2.28
53.609,15.0
53.625,31.39
53.640,47.07
53.656,60.65
53.671,69.2
53.687,71.05
53.703,66.93
53.718,56.64
53.734,43.43
53.750,31.08
53.765,22.92
53.781,22.11
53.796,31.05
53.812,51.04
53.828,81.34
53.843,119.82
53.859,159.07
53.875,189.05
53.890,201.23
53.906,194.27
53.921,177.08
53.937,169.04
53.953,180.66
53.968,214.45
53.984,264.95
54.000,320.05
54.015,368.85
54.031,405.98
54.046,426.05
54.062,429.04
54.078,414.24
54.093,376.52
54.109,310.03
54.125,212.13
54.140,84.72
54.156,-62.69
54.171,-215.72
54.187,-360.13
54.203,-485.62
54.218,-588.86
54.234,-672.68
54.250,-740.83
54.265,-782.14
54.281,-785.53
54.296,-744.13
54.312,-660.82
54.328,-548.38
54.343,-423.78
54.359,-302.81
54.375,-196.98
54.390,-111.36
54.406,-46.02
54.421,-0.46
54.437,26.84
54.453,38.2
54.468,38.11
54.484,34.35
54.500,35.66
54.515,48.83
54.531,76.61
54.546,116.36
54.562,159.93
54.578,198.85
54.593,227.65
54.609,245.59
54.625,255.2
54.640,258.38
54.656,253.76
54.671,237.69
54.687,207.41
54.703,163.48
54.718,112.21
54.734,63.51
54.750,26.32
54.765,4.81
54.781,-2.81
54.796,-2.43
54.812,-0.12
54.828,1.02
54.843,0.55
54.859,0.15
54.875,1.46
54.890,4.55
54.906,7.99
54.921,9.91
54.937,9.27
54.953,6.22
54.968,2.26
54.984,-0.69
55.000,-1.34
55.015,0.51
55.031,4.11
55.046,8.33
55.062,12.37
55.078,16.34
55.093,20.81
55.109,26.94
55.125,35.88
55.140,48.07
55.156,62.67
55.171,77.95
55.187,91.37
55.203,100.59
55.218,103.97
55.234,100.62
55.250,90.22
55.265,73.15
55.281,50.3
55.296,22.68
55.312,-8.62
55.328,-41.87
55.343,-75.57
55.359,-107.68
55.375,-136.03
55.390,-158.93
55.406,-174.87
55.421,-183.18
55.437,-183.7
55.453,-177.31
55.468,-165.09
55.484,-148.4
55.500,-128.41
55.515,-104.86
55.531,-80.12
55.546,-55.5
55.562,-31.97
55.578,-9.75
55.593,10.93
55.609,30.31
55.625,48.57
55.640,66.07
55.656,83.09
55.671,99.47
55.687,115.06
55.703,129.18
55.718,141.36
55.734,150.25
55.750,154.97
55.765,154.4
55.781,147.84
55.796,134.9
55.812,115.41
55.828,90.18
55.843,60.15
55.859,27.42
55.875,-6.18
55.890,-38.45
55.906,-67.99
55.921,-92.92
55.937,-111.9
55.953,-124.44
55.968,-130.36
55.984,-130.03
56.000,-124.33
56.015,-114.5
56.031,-101.7
56.046,-87.06
56.062,-71.55
56.078,-56.46
56.093,-43.24
56.109,-33.07
56.125,-26.68
56.140,-24.29
56.156,-25.56
56.171,-29.49
56.187,-34.66
56.203,-39.87
56.218,-44.45
56.234,-48.53
56.250,-52.66
56.265,-57.34
56.281,-62.63
56.296,-67.96
56.312,-72.32
56.328,-74.45
56.343,-73.96
56.359,-71.58
56.375,-69.13
56.390,-68.86
56.406,-72.29
56.421,-79.66
56.437,-89.91
56.453,-101.55
56.468,-113.42
56.484,-125.27
56.500,-137.34
56.515,-149.55
56.531,-161.03
56.546,-169.84
56.562,-173.7
56.578,-170.97
56.593,-161.29
56.609,-144.73
56.625,-121.64
56.640,-92.27
56.656,-57.34
56.671,-21.8
56.687,6.75
56.703,19.22
56.718,7.95
56.734,-29.72
56.750,-88.79
56.765,-157.38
56.781,-220.13
56.796,-263.61
56.812,-281.04
56.828,-272.72
56.843,-244.44
56.859,-203.72
56.875,-156.45
56.890,-105.44
56.906,-51.7
56.921,3.77
56.937,58.68
56.953,109.44
56.968,153.1
56.984,188.72
57.000,217.9
57.015,243.96
57.031,270.4
57.046,299.38
57.062,331.2
57.078,364.5
57.093,396.45
57.109,423.6
57.125,441.81
57.140,447.16
57.156,436.85
57.171,410.4
57.187,370.08
57.203,320.56
57.218,267.77
57.234,217.38
57.250,173.87
57.265,139.94
57.281,117.05
57.296,105.98
57.312,106.93
57.328,118.64
57.343,137.8
57.359,158.88
57.375,174.93
57.390,179.45
57.406,168.25
57.421,140.73
57.437,100.25
57.453,53.14
57.468,6.38
57.484,-34.22
57.500,-65.76
57.515,-88.2
57.531,-103.28
57.546,-112.74
57.562,-117.16
57.578,-115.81
57.593,-107.77
57.609,-93.07
57.625,-73.61
57.640,-52.87
57.656,-34.38
57.671,-20.2
57.687,-9.99
57.703,-1.62
57.718,7.18
57.734,17.39
57.750,27.85
57.765,35.92
57.781,39.06
57.796,36.57
57.812,30.52
57.828,25.0
57.843,24.33
57.859,31.09
57.875,44.82
57.890,62.45
57.906,79.96
57.921,94.19
57.937,103.94
57.953,109.67
57.968,112.06
57.984,110.99
58.000,105.11
58.015,92.62
58.031,72.79
58.046,47.08
58.062,19.02
58.078,-7.07
58.093,-27.92
58.109,-42.6
58.125,-52.65
58.140,-61.06
58.156,-70.37
58.171,-81.31
58.187,-92.28
58.203,-100.32
58.218,-102.86
58.234,-99.19
58.250,-91.17
58.265,-82.67
58.281,-77.86
58.296,-79.35
58.312,-86.95
58.328,-97.83
58.343,-107.94
58.359,-113.81
58.375,-114.25
58.390,-110.72
58.406,-106.23
58.421,-103.64
58.437,-104.0
58.453,-106.16
58.468,-107.9
58.484,-107.35
58.500,-104.4
58.515,-100.78
58.531,-98.78
58.546,-99.36
58.562,-101.15
58.578,-100.83
58.593,-95.08
58.609,-82.33
58.625,-63.94
58.640,-43.41
58.656,-24.41
58.671,-8.81
58.687,4.35
58.703,17.89
58.718,34.37
58.734,54.38
58.750,75.61
58.765,93.76
58.781,104.77
58.796,106.9
58.812,101.65
58.828,93.24
58.843,86.16
58.859,83.33
58.875,84.71
58.890,87.64
58.906,88.59
58.921,85.07
58.937,77.12
58.953,67.05
58.968,57.97
58.984,52.04
59.000,49.17
59.015,47.13
59.031,43.02
59.046,35.2
59.062,24.52
59.078,13.99
59.093,7.07
59.109,5.65
59.125,8.89
59.140,13.22
59.156,14.45
59.171,9.8
59.187,-0.25
59.203,-12.19
59.218,-21.5
59.234,-24.9
59.250,-22.23
59.265,-16.46
59.281,-11.99
59.296,-12.04
59.312,-17.06
59.328,-24.39
59.343,-30.15
59.359,-31.41
59.375,-27.92
59.390,-22.36
59.406,-18.52
59.421,-19.25
59.437,-24.59
59.453,-31.71
59.468,-36.7
59.484,-36.66
59.500,-31.38
59.515,-23.44
59.531,-16.75
59.546,-14.26
59.562,-16.46
59.578,-20.94
59.593,-24.07
59.609,-23.01
59.625,-17.41
59.640,-9.72
59.656,-3.66
59.671,-2.23
59.687,-5.89
59.703,-12.29
59.718,-17.71
59.734,-19.13
59.750,-15.87
59.765,-10.17
59.781,-5.67
59.796,-5.19
59.812,-9.08
59.828,-14.87
59.843,-18.86
59.859,-18.35
59.875,-13.16
59.890,-6.15
59.906,-1.4
59.921,-2.21
59.937,-8.69
59.953,-17.68
59.968,-24.43
59.984,-25.15
