timestamp,value
00.000,17.06
00.015,10.85
00.031,5.46
00.046,0.15
00.062,-5.73
00.078,-12.51
00.093,-20.17
00.109,-28.47
00.125,-37.06
00.140,-45.59
00.156,-53.86
00.171,-61.78
00.187,-69.41
00.203,-76.92
00.218,-84.5
00.234,-92.15
00.250,-99.64
00.265,-106.59
00.281,-112.59
00.296,-117.5
00.312,-121.51
00.328,-125.09
00.343,-128.91
00.359,-133.41
00.375,-138.67
00.390,-144.3
00.406,-149.45
00.421,-152.83
00.437,-152.92
00.453,-148.17
00.468,-137.34
00.484,-120.04
00.500,-97.1
00.515,-70.7
00.531,-43.74
00.546,-19.17
00.562,1.03
00.578,16.29
00.593,27.41
00.609,35.94
00.625,43.4
00.640,50.89
00.656,58.95
00.671,67.94
00.687,78.19
00.703,90.12
00.718,103.74
00.734,118.32
00.750,132.16
00.765,142.95
00.781,148.49
00.796,147.52
00.812,140.24
00.828,128.13
00.843,113.36
00.859,98.0
00.875,83.37
00.890,70.0
00.906,57.88
00.921,46.79
00.937,36.49
00.953,26.53
00.968,16.3
00.984,5.06
01.000,-7.7
01.015,-22.01
01.031,-37.26
01.046,-52.42
01.062,-66.3
01.078,-77.86
01.093,-86.22
01.109,-90.59
01.125,-90.28
01.140,-84.93
01.156,-74.79
01.171,-60.95
01.187,-45.16
01.203,-29.36
01.218,-15.16
01.234,-3.4
01.250,5.75
01.265,12.66
01.281,17.79
01.296,21.37
01.312,23.23
01.328,22.89
01.343,19.85
01.359,13.93
01.375,5.69
01.390,-3.66
01.406,-12.39
01.421,-18.91
01.437,-22.2
01.453,-22.01
01.468,-18.77
01.484,-13.18
01.500,-5.88
01.515,2.56
01.531,11.4
01.546,19.48
01.562,25.35
01.578,27.67
01.593,25.94
01.609,20.85
01.625,14.11
01.640,7.83
01.656,3.7
01.671,2.43
01.687,3.75
01.703,6.77
01.718,10.41
01.734,13.98
01.750,17.18
01.765,20.04
01.781,22.83
01.796,25.9
01.812,29.48
01.828,33.58
01.843,37.85
01.859,41.56
01.875,43.94
01.890,44.44
01.906,42.93
01.921,39.9
01.937,36.2
01.953,32.96
01.968,31.33
01.984,32.3
02.000,36.48
02.015,43.85
02.031,53.63
02.046,64.39
02.062,74.25
02.078,81.41
02.093,84.53
02.109,82.99
02.125,76.84
02.140,66.61
02.156,53.11
02.171,37.39
02.187,20.77
02.203,4.78
02.218,-9.06
02.234,-19.66
02.250,-26.68
02.265,-30.72
02.281,-32.93
02.296,-34.63
02.312,-36.74
02.328,-39.62
02.343,-43.06
02.359,-46.62
02.375,-49.92
02.390,-52.81
02.406,-55.32
02.421,-57.49
02.437,-59.12
02.453,-59.68
02.468,-58.42
02.484,-54.54
02.500,-47.56
02.515,-37.47
02.531,-24.91
02.546,-10.97
02.562,3.06
02.578,16.06
02.593,27.39
02.609,36.82
02.625,44.49
02.640,50.6
02.656,55.29
02.671,58.54
02.687,60.26
02.703,60.45
02.718,59.28
02.734,57.11
02.750,54.34
02.765,51.33
02.781,48.32
02.796,45.52
02.812,43.13
02.828,41.47
02.843,40.92
02.859,41.76
02.875,44.06
02.890,47.62
02.906,51.95
02.921,56.24
02.937,59.55
02.953,60.91
02.968,59.49
02.984,54.81
03.000,46.74
03.015,35.59
03.031,21.99
03.046,6.81
03.062,-9.07
03.078,-24.72
03.093,-39.16
03.109,-51.46
03.125,-60.77
03.140,-66.53
03.156,-68.55
03.171,-67.09
03.187,-62.8
03.203,-56.66
03.218,-49.9
03.234,-43.87
03.250,-39.91
03.265,-39.08
03.281,-41.99
03.296,-48.57
03.312,-58.14
03.328,-69.5
03.343,-81.22
03.359,-91.93
03.375,-100.55
03.390,-106.62
03.406,-110.27
03.421,-112.26
03.437,-113.62
03.453,-115.27
03.468,-117.67
03.484,-120.71
03.500,-123.78
03.515,-126.01
03.531,-126.57
03.546,-124.81
03.562,-120.29
03.578,-112.79
03.593,-102.34
03.609,-89.32
03.625,-74.49
03.640,-58.9
03.656,-43.55
03.671,-29.18
03.687,-16.11
03.703,-4.52
03.718,5.31
03.734,12.66
03.750,16.43
03.765,15.63
03.781,9.85
03.796,-0.2
03.812,-12.71
03.828,-25.12
03.843,-34.86
03.859,-40.02
03.875,-39.7
03.890,-34.08
03.906,-24.17
03.921,-11.34
03.937,2.97
03.953,17.57
03.968,31.81
03.984,45.57
04.000,59.13
04.015,73.01
04.031,87.51
04.046,102.63
04.062,117.96
04.078,132.93
04.093,146.86
04.109,158.98
04.125,168.19
04.140,172.75
04.156,170.52
04.171,159.49
04.187,138.83
04.203,109.76
04.218,75.69
04.234,41.38
04.250,11.44
04.265,-11.17
04.281,-25.76
04.296,-33.51
04.312,-36.3
04.328,-35.47
04.343,-31.3
04.359,-23.71
04.375,-13.5
04.390,-3.15
04.406,3.46
04.421,2.78
04.437,-6.33
04.453,-21.37
04.468,-36.77
04.484,-45.96
04.500,-44.14
04.515,-30.02
04.531,-5.81
04.546,24.51
04.562,57.33
04.578,90.75
04.593,124.39
04.609,158.17
04.625,190.71
04.640,218.77
04.656,237.93
04.671,244.07
04.687,234.65
04.703,209.4
04.718,170.18
04.734,120.81
04.750,66.88
04.765,15.3
04.781,-26.7
04.796,-53.34
04.812,-62.19
04.828,-55.42
04.843,-39.19
04.859,-21.18
04.875,-7.42
04.890,-0.03
04.906,2.88
04.921,5.37
04.937,10.96
04.953,20.62
04.968,32.73
04.984,44.41
05.000,53.39
05.015,59.11
05.031,62.42
05.046,64.58
05.062,66.34
05.078,67.34
05.093,66.4
05.109,62.27
05.125,54.46
05.140,43.7
05.156,31.83
05.171,21.01
05.187,12.89
05.203,7.93
05.218,5.14
05.234,2.45
05.250,-2.37
05.265,-10.7
05.281,-22.51
05.296,-36.31
05.312,-49.78
05.328,-60.57
05.343,-67.13
05.359,-69.05
05.375,-67.19
05.390,-63.19
05.406,-58.93
05.421,-55.95
05.437,-55.05
05.453,-56.21
05.468,-58.89
05.484,-62.26
05.500,-65.51
05.515,-68.07
05.531,-69.57
05.546,-69.77
05.562,-68.38
05.578,-65.19
05.593,-60.17
05.609,-53.7
05.625,-46.75
05.640,-40.7
05.656,-36.93
05.671,-36.25
05.687,-38.54
05.703,-42.73
05.718,-47.22
05.734,-50.69
05.750,-52.44
05.765,-52.56
05.781,-51.42
05.796,-49.26
05.812,-45.96
05.828,-41.15
05.843,-34.81
05.859,-27.39
05.875,-19.81
05.890,-12.96
05.906,-7.25
05.921,-2.37
05.937,2.39
05.953,7.61
05.968,13.38
05.984,19.12
06.000,24.04
06.015,27.52
06.031,29.46
06.046,30.19
06.062,30.21
06.078,30.01
06.093,29.87
06.109,29.99
06.125,30.54
06.140,31.62
06.156,33.19
06.171,35.04
06.187,36.75
06.203,37.72
06.218,37.45
06.234,35.5
06.250,31.82
06.265,26.73
06.281,20.87
06.296,14.97
06.312,9.62
06.328,5.13
06.343,1.46
06.359,-1.5
06.375,-3.81
06.390,-5.16
06.406,-5.03
06.421,-2.88
06.437,1.55
06.453,7.95
06.468,15.46
06.484,22.82
06.500,28.82
06.515,32.42
06.531,33.15
06.546,31.14
06.562,27.02
06.578,21.78
06.593,16.4
06.609,11.68
06.625,8.0
06.640,5.58
06.656,4.33
06.671,4.05
06.687,4.51
06.703,5.38
06.718,6.44
06.734,7.52
06.750,8.52
06.765,9.43
06.781,10.3
06.796,11.06
06.812,11.47
06.828,11.18
06.843,9.93
06.859,7.7
06.875,4.74
06.890,1.56
06.906,-1.39
06.921,-3.8
06.937,-5.76
06.953,-7.61
06.968,-9.65
06.984,-12.02
07.000,-14.5
07.015,-16.59
07.031,-17.8
07.046,-17.76
07.062,-16.42
07.078,-14.05
07.093,-11.18
07.109,-8.32
07.125,-5.96
07.140,-4.4
07.156,-3.75
07.171,-3.97
07.187,-4.94
07.203,-6.44
07.218,-8.16
07.234,-9.76
07.250,-10.79
07.265,-10.92
07.281,-10.03
07.296,-8.35
07.312,-6.45
07.328,-5.12
07.343,-5.0
07.359,-6.36
07.375,-8.98
07.390,-12.26
07.406,-15.44
07.421,-17.94
07.437,-19.52
07.453,-20.37
07.468,-20.94
07.484,-21.69
07.500,-22.9
07.515,-24.63
07.531,-26.65
07.546,-28.71
07.562,-30.63
07.578,-32.39
07.593,-34.13
07.609,-36.01
07.625,-38.09
07.640,-40.27
07.656,-42.39
07.671,-44.15
07.687,-45.42
07.703,-46.11
07.718,-46.3
07.734,-46.09
07.750,-45.55
07.765,-44.62
07.781,-43.14
07.796,-41.05
07.812,-38.33
07.828,-35.17
07.843,-31.87
07.859,-28.67
07.875,-25.73
07.890,-23.06
07.906,-20.68
07.921,-18.74
07.937,-17.62
07.953,-17.65
07.968,-19.01
07.984,-21.38
08.000,-24.06
08.015,-26.32
08.031,-27.71
08.046,-28.31
08.062,-28.68
08.078,-29.48
08.093,-31.07
08.109,-33.36
08.125,-35.76
08.140,-37.45
08.156,-37.74
08.171,-36.15
08.187,-32.57
08.203,-27.17
08.218,-20.37
08.234,-12.63
08.250,-4.6
08.265,3.21
08.281,10.41
08.296,16.77
08.312,22.3
08.328,27.17
08.343,31.61
08.359,35.8
08.375,39.83
08.390,43.41
08.406,46.13
08.421,47.47
08.437,47.08
08.453,44.9
08.468,41.25
08.484,36.68
08.500,31.74
08.515,26.87
08.531,22.18
08.546,17.63
08.562,13.05
08.578,8.28
08.593,3.26
08.609,-1.96
08.625,-7.18
08.640,-12.16
08.656,-16.57
08.671,-20.11
08.687,-22.51
08.703,-23.59
08.718,-23.45
08.734,-22.37
08.750,-20.88
08.765,-19.56
08.781,-18.95
08.796,-19.36
08.812,-20.8
08.828,-23.05
08.843,-25.69
08.859,-28.33
08.875,-30.64
08.890,-32.36
08.906,-33.38
08.921,-33.61
08.937,-33.08
08.953,-31.8
08.968,-29.86
08.984,-27.3
09.000,-24.15
09.015,-20.5
09.031,-16.54
09.046,-12.52
09.062,-8.68
09.078,-5.41
09.093,-3.09
09.109,-2.02
09.125,-2.17
09.140,-3.19
09.156,-4.53
09.171,-5.58
09.187,-6.04
09.203,-5.84
09.218,-5.34
09.234,-5.06
09.250,-5.35
09.265,-6.12
09.281,-7.14
09.296,-8.21
09.312,-9.39
09.328,-10.99
09.343,-12.98
09.359,-14.96
09.375,-16.18
09.390,-15.97
09.406,-14.2
09.421,-11.34
09.437,-8.28
09.453,-5.8
09.468,-4.19
09.484,-3.31
09.500,-2.69
09.515,-1.98
09.531,-1.14
09.546,-0.53
09.562,-0.37
09.578,-0.54
09.593,-0.81
09.609,-0.98
09.625,-0.89
09.640,-0.53
09.656,0.11
09.671,1.21
09.687,2.69
09.703,4.54
09.718,6.8
09.734,9.27
09.750,11.47
09.765,12.82
09.781,12.65
09.796,10.62
09.812,6.99
09.828,2.53
09.843,-1.63
09.859,-4.61
09.875,-6.06
09.890,-6.18
09.906,-5.49
09.921,-4.47
09.937,-3.25
09.953,-1.71
09.968,0.31
09.984,2.82
10.000,5.53
10.015,8.0
10.031,10.01
10.046,11.4
10.062,12.08
10.078,12.1
10.093,11.49
10.109,10.31
10.125,8.79
10.140,7.21
10.156,5.75
10.171,4.62
10.187,3.69
10.203,2.76
10.218,1.74
10.234,0.73
10.250,-0.12
10.265,-0.65
10.281,-0.95
10.296,-1.23
10.312,-1.72
10.328,-2.5
10.343,-3.41
10.359,-4.17
10.375,-4.63
10.390,-4.89
10.406,-5.18
10.421,-5.81
10.437,-6.82
10.453,-8.04
10.468,-9.16
10.484,-9.92
10.500,-10.29
10.515,-10.46
10.531,-10.72
10.546,-11.31
10.562,-12.25
10.578,-13.33
10.593,-14.23
10.609,-14.61
10.625,-14.25
10.640,-13.07
10.656,-11.18
10.671,-8.86
10.687,-6.44
10.703,-4.21
10.718,-2.29
10.734,-0.55
10.750,1.17
10.765,3.07
10.781,5.2
10.796,7.49
10.812,9.72
10.828,11.65
10.843,13.13
10.859,14.03
10.875,14.37
10.890,14.23
10.906,13.69
10.921,12.87
10.937,12.02
10.953,11.36
10.968,11.03
10.984,11.01
11.000,11.08
11.015,10.94
11.031,10.46
11.046,9.66
11.062,8.81
11.078,8.23
11.093,7.97
11.109,7.71
11.125,6.79
11.140,4.59
11.156,0.83
11.171,-4.16
11.187,-9.57
11.203,-14.39
11.218,-17.82
11.234,-19.55
11.250,-19.71
11.265,-18.74
11.281,-17.2
11.296,-15.52
11.312,-13.96
11.328,-12.67
11.343,-11.62
11.359,-10.77
11.375,-10.12
11.390,-9.62
11.406,-9.25
11.421,-8.98
11.437,-8.66
11.453,-8.05
11.468,-6.93
11.484,-5.15
11.500,-2.81
11.515,-0.27
11.531,2.18
11.546,4.28
11.562,6.02
11.578,7.63
11.593,9.33
11.609,11.25
11.625,13.21
11.640,14.9
11.656,16.01
11.671,16.46
11.687,16.32
11.703,15.8
11.718,15.15
11.734,14.41
11.750,13.6
11.765,12.7
11.781,11.81
11.796,11.02
11.812,10.49
11.828,10.26
11.843,10.13
11.859,9.93
11.875,9.47
11.890,8.67
11.906,7.48
11.921,6.04
11.937,4.4
11.953,2.65
11.968,0.79
11.984,-1.24
12.000,-3.43
12.015,-5.83
12.031,-8.28
12.046,-10.51
12.062,-12.06
12.078,-12.49
12.093,-11.69
12.109,-10.0
12.125,-8.12
12.140,-6.62
12.156,-5.69
12.171,-4.81
12.187,-3.09
12.203,0.11
12.218,4.76
12.234,10.09
12.250,14.9
12.265,18.13
12.281,19.46
12.296,19.2
12.312,18.09
12.328,16.91
12.343,15.86
12.359,14.69
12.375,13.1
12.390,10.9
12.406,8.11
12.421,4.97
12.437,1.67
12.453,-1.71
12.468,-5.05
12.484,-8.27
12.500,-11.07
12.515,-13.06
12.531,-13.87
12.546,-13.32
12.562,-11.59
12.578,-9.07
12.593,-6.3
12.609,-3.7
12.625,-1.64
12.640,-0.26
12.656,0.41
12.671,0.35
12.687,-0.25
12.703,-1.2
12.718,-2.31
12.734,-3.43
12.750,-4.4
12.765,-5.21
12.781,-5.79
12.796,-6.18
12.812,-6.52
12.828,-6.87
12.843,-7.26
12.859,-7.62
12.875,-7.72
12.890,-7.36
12.906,-6.37
12.921,-4.77
12.937,-2.66
12.953,-0.26
12.968,2.32
12.984,5.06
13.000,7.91
13.015,10.84
13.031,13.63
13.046,16.05
13.062,17.82
13.078,18.89
13.093,19.36
13.109,19.5
13.125,19.64
13.140,19.96
13.156,20.51
13.171,21.11
13.187,21.39
13.203,20.97
13.218,19.65
13.234,17.51
13.250,14.83
13.265,12.0
13.281,9.33
13.296,6.87
13.312,4.42
13.328,1.82
13.343,-0.93
13.359,-3.6
13.375,-6.03
13.390,-8.28
13.406,-10.57
13.421,-12.91
13.437,-14.72
13.453,-14.88
13.468,-12.14
13.484,-6.32
13.500,1.16
13.515,7.51
13.531,10.08
13.546,7.8
13.562,1.78
13.578,-5.4
13.593,-11.25
13.609,-14.8
13.625,-16.96
13.640,-19.42
13.656,-23.35
13.671,-28.19
13.687,-32.05
13.703,-32.95
13.718,-30.21
13.734,-24.55
13.750,-17.73
13.765,-11.63
13.781,-6.97
13.796,-3.63
13.812,-0.89
13.828,1.89
13.843,5.05
13.859,8.28
13.875,11.12
13.890,12.86
13.906,12.9
13.921,11.18
13.937,8.22
13.953,5.02
13.968,2.63
13.984,1.81
14.000,2.52
14.015,4.03
14.031,5.23
14.046,5.32
14.062,4.2
14.078,2.32
14.093,0.36
14.109,-1.26
14.125,-2.56
14.140,-3.79
14.156,-5.17
14.171,-6.68
14.187,-8.13
14.203,-9.15
14.218,-9.84
14.234,-10.38
14.250,-11.08
14.265,-12.24
14.281,-13.89
14.296,-15.78
14.312,-17.45
14.328,-18.45
14.343,-18.18
14.359,-16.47
14.375,-13.33
14.390,-9.09
14.406,-4.33
14.421,0.44
14.437,4.71
14.453,8.21
14.468,10.83
14.484,12.74
14.500,14.23
14.515,15.73
14.531,17.63
14.546,20.06
14.562,22.82
14.578,25.43
14.593,27.32
14.609,28.15
14.625,27.99
14.640,27.23
14.656,26.42
14.671,25.91
14.687,25.76
14.703,25.8
14.718,25.83
14.734,25.74
14.750,25.49
14.765,24.99
14.781,23.96
14.796,22.04
14.812,18.99
14.828,14.91
14.843,10.24
14.859,5.6
14.875,1.51
14.890,-1.85
14.906,-4.58
14.921,-6.95
14.937,-9.12
14.953,-11.1
14.968,-12.79
14.984,-14.08
15.000,-14.92
15.015,-15.32
15.031,-15.24
15.046,-14.61
15.062,-13.34
15.078,-11.44
15.093,-9.04
15.109,-6.3
15.125,-3.39
15.140,-0.38
15.156,2.69
15.171,5.7
15.187,8.49
15.203,10.74
15.218,12.3
15.234,13.17
15.250,13.56
15.265,13.78
15.281,14.0
15.296,14.2
15.312,14.26
15.328,14.11
15.343,13.69
15.359,13.07
15.375,12.36
15.390,11.72
15.406,11.29
15.421,11.17
15.437,11.39
15.453,11.9
15.468,12.48
15.484,12.77
15.500,12.56
15.515,11.73
15.531,10.39
15.546,8.76
15.562,7.0
15.578,5.17
15.593,3.17
15.609,0.91
15.625,-1.62
15.640,-4.16
15.656,-6.45
15.671,-8.35
15.687,-9.9
15.703,-11.26
15.718,-12.55
15.734,-13.64
15.750,-14.21
15.765,-13.9
15.781,-12.48
15.796,-10.06
15.812,-7.01
15.828,-3.72
15.843,-0.48
15.859,2.6
15.875,5.56
15.890,8.48
15.906,11.41
15.921,14.27
15.937,16.89
15.953,19.0
15.968,20.34
15.984,20.52
16.000,19.32
16.015,16.73
16.031,13.08
16.046,8.97
16.062,5.11
16.078,2.06
16.093,-0.02
16.109,-1.32
16.125,-2.4
16.140,-3.88
16.156,-6.12
16.171,-9.06
16.187,-12.18
16.203,-14.75
16.218,-16.13
16.234,-16.06
16.250,-14.7
16.265,-12.54
16.281,-10.11
16.296,-7.74
16.312,-5.54
16.328,-3.19
16.343,-0.29
16.359,3.38
16.375,7.6
16.390,11.71
16.406,14.69
16.421,15.53
16.437,13.51
16.453,8.41
16.468,0.82
16.484,-8.3
16.500,-17.73
16.515,-26.26
16.531,-32.83
16.546,-36.88
16.562,-38.13
16.578,-36.8
16.593,-33.6
16.609,-29.38
16.625,-25.0
16.640,-21.0
16.656,-17.4
16.671,-13.68
16.687,-9.05
16.703,-2.83
16.718,5.01
16.734,13.18
16.750,20.26
16.765,25.16
16.781,27.3
16.796,26.79
16.812,24.06
16.828,19.76
16.843,14.49
16.859,8.58
16.875,1.0
16.890,-8.4
16.906,-19.0
16.921,-29.97
16.937,-40.9
16.953,-52.29
16.968,-65.2
16.984,-80.91
17.000,-100.52
17.015,-125.93
17.031,-156.29
17.046,-188.44
17.062,-218.31
17.078,-243.0
17.093,-261.93
17.109,-276.38
17.125,-288.45
17.140,-299.47
17.156,-310.68
17.171,-319.01
17.187,-318.25
17.203,-302.15
17.218,-267.7
17.234,-216.8
17.250,-155.39
17.265,-91.32
17.281,-19.73
17.296,53.01
17.312,115.12
17.328,156.89
17.343,176.14
17.359,177.01
17.375,165.09
17.390,145.18
17.406,121.18
17.421,96.58
17.437,72.32
17.453,50.23
17.468,32.38
17.484,19.08
17.500,9.88
17.515,2.93
17.531,-3.69
17.546,-11.1
17.562,-19.1
17.578,-28.27
17.593,-37.58
17.609,-45.15
17.625,-49.37
17.640,-49.75
17.656,-46.89
17.671,-41.29
17.687,-34.41
17.703,-26.51
17.718,-18.16
17.734,-8.84
17.750,2.49
17.765,16.54
17.781,33.11
17.796,51.06
17.812,68.99
17.828,85.81
17.843,101.23
17.859,115.0
17.875,127.7
17.890,140.45
17.906,154.69
17.921,171.67
17.937,192.0
17.953,215.08
17.968,238.84
17.984,259.94
18.000,274.3
18.015,278.77
18.031,272.24
18.046,256.12
18.062,233.64
18.078,208.6
18.093,184.16
18.109,162.13
18.125,143.06
18.140,126.45
18.156,111.29
18.171,96.4
18.187,80.69
18.203,63.36
18.218,44.18
18.234,23.71
18.250,3.23
18.265,-15.72
18.281,-31.85
18.296,-44.45
18.312,-53.46
18.328,-59.18
18.343,-62.17
18.359,-62.94
18.375,-61.72
18.390,-58.27
18.406,-51.91
18.421,-41.85
18.437,-27.76
18.453,-10.61
18.468,7.13
18.484,21.96
18.500,30.41
18.515,30.39
18.531,21.95
18.546,7.08
18.562,-11.06
18.578,-29.14
18.593,-44.53
18.609,-55.61
18.625,-61.78
18.640,-63.35
18.656,-61.21
18.671,-56.36
18.687,-49.4
18.703,-40.13
18.718,-27.71
18.734,-11.4
18.750,8.65
18.765,30.99
18.781,53.1
18.796,72.49
18.812,87.73
18.828,99.06
18.843,107.99
18.859,116.31
18.875,124.98
18.890,133.7
18.906,140.93
18.921,144.48
18.937,142.39
18.953,133.54
18.968,118.07
18.984,97.34
19.000,73.85
19.015,50.59
19.031,30.28
19.046,14.41
19.062,2.64
19.078,-7.26
19.093,-18.53
19.109,-34.16
19.125,-55.28
19.140,-79.89
19.156,-102.55
19.171,-115.31
19.187,-109.86
19.203,-80.01
19.218,-23.9
19.234,54.83
19.250,147.19
19.265,240.62
19.281,321.63
19.296,378.82
19.312,405.53
19.328,401.13
19.343,370.71
19.359,323.35
19.375,269.5
19.390,218.32
19.406,176.07
19.421,145.3
19.437,125.33
19.453,113.28
19.468,105.46
19.484,98.06
19.500,87.79
19.515,72.42
19.531,50.83
19.546,23.3
19.562,-8.82
19.578,-43.41
19.593,-78.12
19.609,-110.79
19.625,-139.82
19.640,-164.38
19.656,-184.07
19.671,-198.95
19.687,-209.04
19.703,-214.16
19.718,-214.01
19.734,-208.32
19.750,-197.55
19.765,-182.97
19.781,-166.78
19.796,-151.47
19.812,-139.18
19.828,-130.87
19.843,-126.15
19.859,-123.69
19.875,-121.89
19.890,-119.72
19.906,-117.03
19.921,-114.44
19.937,-112.84
19.953,-112.94
19.968,-114.64
19.984,-117.17
20.000,-119.54
20.015,-120.77
20.031,-120.44
20.046,-118.62
20.062,-115.82
20.078,-112.49
20.093,-109.04
20.109,-105.67
20.125,-102.43
20.140,-99.57
20.156,-97.23
20.171,-95.5
20.187,-94.38
20.203,-93.71
20.218,-93.41
20.234,-93.59
20.250,-94.52
20.265,-96.46
20.281,-99.5
20.296,-103.19
20.312,-106.71
20.328,-109.13
20.343,-109.51
20.359,-107.24
20.375,-102.06
20.390,-94.2
20.406,-84.18
20.421,-72.81
20.437,-60.92
20.453,-49.31
20.468,-38.5
20.484,-28.6
20.500,-19.43
20.515,-10.66
20.531,-2.06
20.546,6.22
20.562,13.66
20.578,19.53
20.593,23.19
20.609,24.34
20.625,23.23
20.640,20.51
20.656,17.01
20.671,13.44
20.687,10.19
20.703,7.39
20.718,5.11
20.734,3.54
20.750,3.08
20.765,4.34
20.781,7.69
20.796,13.13
20.812,20.19
20.828,27.95
20.843,35.43
20.859,41.87
20.875,46.92
20.890,50.51
20.906,52.83
20.921,54.01
20.937,54.23
20.953,53.68
20.968,52.62
20.984,51.39
21.000,50.33
21.015,49.66
21.031,49.35
21.046,49.18
21.062,48.79
21.078,47.93
21.093,46.47
21.109,44.46
21.125,42.07
21.140,39.53
21.156,37.06
21.171,34.86
21.187,33.08
21.203,31.77
21.218,30.9
21.234,30.41
21.250,30.13
21.265,30.04
21.281,30.09
21.296,30.33
21.312,30.79
21.328,31.34
21.343,31.73
21.359,31.57
21.375,30.48
21.390,28.2
21.406,24.81
21.421,20.72
21.437,16.64
21.453,13.37
21.468,11.6
21.484,11.66
21.500,13.42
21.515,16.32
21.531,19.55
21.546,22.26
21.562,23.72
21.578,23.44
21.593,21.21
21.609,17.15
21.625,11.78
21.640,5.94
21.656,0.62
21.671,-3.27
21.687,-5.21
21.703,-5.27
21.718,-4.06
21.734,-2.4
21.750,-1.06
21.765,-0.43
21.781,-0.48
21.796,-0.86
21.812,-1.18
21.828,-1.19
21.843,-0.86
21.859,-0.35
21.875,0.09
21.890,0.25
21.906,-0.12
21.921,-1.22
21.937,-3.03
21.953,-5.27
21.968,-7.4
21.984,-8.67
22.000,-8.5
22.015,-6.63
22.031,-3.28
22.046,0.93
22.062,5.25
22.078,9.12
22.093,12.29
22.109,14.73
22.125,16.48
22.140,17.52
22.156,17.78
22.171,17.29
22.187,16.15
22.203,14.59
22.218,12.79
22.234,10.86
22.250,8.83
22.265,6.71
22.281,4.62
22.296,2.78
22.312,1.49
22.328,0.88
22.343,0.91
22.359,1.23
22.375,1.36
22.390,0.95
22.406,-0.2
22.421,-2.12
22.437,-4.82
22.453,-8.32
22.468,-12.67
22.484,-17.71
22.500,-23.07
22.515,-28.1
22.531,-31.97
22.546,-33.94
22.562,-33.63
22.578,-31.08
22.593,-26.67
22.609,-21.0
22.625,-14.67
22.640,-8.32
22.656,-2.66
22.671,1.69
22.687,4.35
22.703,5.45
22.718,5.59
22.734,5.6
22.750,6.19
22.765,7.56
22.781,9.46
22.796,11.32
22.812,12.74
22.828,13.57
22.843,13.97
22.859,14.12
22.875,14.06
22.890,13.69
22.906,12.87
22.921,11.63
22.937,10.14
22.953,8.65
22.968,7.29
22.984,6.12
23.000,5.04
23.015,4.02
23.031,3.03
23.046,2.22
23.062,1.68
23.078,1.44
23.093,1.37
23.109,1.24
23.125,0.82
23.140,-0.05
23.156,-1.29
23.171,-2.67
23.187,-3.84
23.203,-4.52
23.218,-4.64
23.234,-4.42
23.250,-4.28
23.265,-4.67
23.281,-5.78
23.296,-7.46
23.312,-9.3
23.328,-10.76
23.343,-11.59
23.359,-11.89
23.375,-12.19
23.390,-13.11
23.406,-15.17
23.421,-18.43
23.437,-22.42
23.453,-26.32
23.468,-29.1
23.484,-29.97
23.500,-28.5
23.515,-24.85
23.531,-19.56
23.546,-13.33
23.562,-6.84
23.578,-0.48
23.593,5.54
23.609,11.18
23.625,16.36
23.640,20.9
23.656,24.57
23.671,27.14
23.687,28.54
23.703,28.92
23.718,28.55
23.734,27.71
23.750,26.72
23.765,25.73
23.781,24.83
23.796,24.12
23.812,23.59
23.828,23.21
23.843,22.92
23.859,22.72
23.875,22.64
23.890,22.85
23.906,23.37
23.921,23.97
23.937,24.21
23.953,23.47
23.968,21.32
23.984,17.74
24.000,13.22
24.015,8.53
24.031,4.33
24.046,0.89
24.062,-1.97
24.078,-4.65
24.093,-7.49
24.109,-10.6
24.125,-13.86
24.140,-17.09
24.156,-20.19
24.171,-23.31
24.187,-26.59
24.203,-30.14
24.218,-33.81
24.234,-37.39
24.250,-40.6
24.265,-43.22
24.281,-45.22
24.296,-46.64
24.312,-47.51
24.328,-47.77
24.343,-47.26
24.359,-45.72
24.375,-42.93
24.390,-38.78
24.406,-33.37
24.421,-27.1
24.437,-20.46
24.453,-13.92
24.468,-7.7
24.484,-1.77
24.500,4.13
24.515,10.18
24.531,16.42
24.546,22.53
24.562,27.97
24.578,32.11
24.593,34.43
24.609,34.68
24.625,32.82
24.640,29.17
24.656,24.22
24.671,18.59
24.687,12.96
24.703,7.93
24.718,4.0
24.734,1.44
24.750,0.19
24.765,-0.01
24.781,0.36
24.796,0.78
24.812,0.92
24.828,0.66
24.843,0.15
24.859,-0.32
24.875,-0.51
24.890,-0.4
24.906,-0.16
24.921,-0.08
24.937,-0.48
24.953,-1.52
24.968,-3.27
24.984,-5.72
25.000,-8.89
25.015,-12.79
25.031,-17.38
25.046,-22.43
25.062,-27.58
25.078,-32.33
25.093,-36.27
25.109,-39.27
25.125,-41.51
25.140,-43.45
25.156,-45.53
25.171,-48.04
25.187,-50.85
25.203,-53.46
25.218,-55.14
25.234,-55.19
25.250,-53.13
25.265,-48.91
25.281,-42.91
25.296,-35.8
25.312,-28.39
25.328,-21.36
25.343,-15.18
25.359,-10.09
25.375,-6.05
25.390,-2.84
25.406,-0.18
25.421,2.28
25.437,4.81
25.453,7.5
25.468,10.32
25.484,13.03
25.500,15.31
25.515,16.9
25.531,17.71
25.546,17.86
25.562,17.66
25.578,17.47
25.593,17.46
25.609,17.58
25.625,17.59
25.640,17.25
25.656,16.44
25.671,15.23
25.687,13.7
25.703,11.97
25.718,10.04
25.734,7.94
25.750,5.77
25.765,3.77
25.781,2.19
25.796,1.11
25.812,0.31
25.828,-0.62
25.843,-2.0
25.859,-3.93
25.875,-6.16
25.890,-8.25
25.906,-9.86
25.921,-11.02
25.937,-12.05
25.953,-13.4
25.968,-15.3
25.984,-17.6
26.000,-19.73
26.015,-21.06
26.031,-21.09
26.046,-19.7
26.062,-17.12
26.078,-13.77
26.093,-10.04
26.109,-6.09
26.125,-1.92
26.140,2.52
26.156,7.13
26.171,11.75
26.187,16.08
26.203,19.84
26.218,22.87
26.234,25.13
26.250,26.58
26.265,27.24
26.281,27.09
26.296,26.19
26.312,24.69
26.328,22.94
26.343,21.33
26.359,20.28
26.375,20.03
26.390,20.61
26.406,21.81
26.421,23.16
26.437,24.17
26.453,24.36
26.468,23.51
26.484,21.6
26.500,18.93
26.515,15.88
26.531,12.81
26.546,9.91
26.562,7.13
26.578,4.31
26.593,1.3
26.609,-1.92
26.625,-5.32
26.640,-8.73
26.656,-12.08
26.671,-15.28
26.687,-18.28
26.703,-21.13
26.718,-23.81
26.734,-26.36
26.750,-28.83
26.765,-31.24
26.781,-33.47
26.796,-35.19
26.812,-35.81
26.828,-34.7
26.843,-31.54
26.859,-26.45
26.875,-20.06
26.890,-13.33
26.906,-7.0
26.921,-1.53
26.937,3.11
26.953,7.21
26.968,11.09
26.984,14.8
27.000,18.22
27.015,21.04
27.031,23.08
27.046,24.47
27.062,25.51
27.078,26.51
27.093,27.58
27.109,28.64
27.125,29.33
27.140,29.39
27.156,28.7
27.171,27.41
27.187,25.89
27.203,24.48
27.218,23.3
27.234,22.27
27.250,21.2
27.265,19.86
27.281,18.26
27.296,16.53
27.312,14.95
27.328,13.72
27.343,12.79
27.359,11.92
27.375,10.72
27.390,8.85
27.406,6.07
27.421,2.5
27.437,-1.63
27.453,-5.86
27.468,-9.64
27.484,-12.79
27.500,-15.49
27.515,-18.15
27.531,-21.11
27.546,-24.65
27.562,-28.54
27.578,-32.53
27.593,-36.3
27.609,-39.42
27.625,-41.59
27.640,-42.18
27.656,-40.23
27.671,-34.87
27.687,-26.13
27.703,-15.27
27.718,-4.72
27.734,3.13
27.750,7.07
27.765,7.47
27.781,5.95
27.796,4.3
27.812,3.6
27.828,4.12
27.843,5.82
27.859,8.96
27.875,14.18
27.890,21.95
27.906,31.72
27.921,41.91
27.937,50.21
27.953,54.71
27.968,55.06
27.984,52.36
28.000,48.35
28.015,44.33
28.031,40.78
28.046,37.18
28.062,33.11
28.078,28.47
28.093,23.51
28.109,18.98
28.125,15.49
28.140,13.2
28.156,11.73
28.171,10.42
28.187,8.54
28.203,5.76
28.218,2.21
28.234,-1.71
28.250,-5.56
28.265,-9.15
28.281,-12.49
28.296,-15.81
28.312,-19.29
28.328,-22.85
28.343,-26.23
28.359,-29.22
28.375,-31.74
28.390,-34.06
28.406,-36.44
28.421,-39.05
28.437,-41.64
28.453,-43.44
28.468,-43.64
28.484,-41.56
28.500,-37.24
28.515,-31.34
28.531,-24.74
28.546,-18.19
28.562,-11.97
28.578,-6.0
28.593,-0.1
28.609,5.69
28.625,11.14
28.640,16.02
28.656,20.42
28.671,24.67
28.687,29.26
28.703,34.32
28.718,39.49
28.734,44.15
28.750,47.6
28.765,49.5
28.781,50.06
28.796,49.84
28.812,49.22
28.828,48.16
28.843,46.29
28.859,42.89
28.875,37.59
28.890,30.37
28.906,21.89
28.921,13.27
28.937,6.19
28.953,2.06
28.968,1.31
28.984,3.57
29.000,7.37
29.015,10.86
29.031,12.51
29.046,11.74
29.062,8.9
29.078,5.23
29.093,1.7
29.109,-1.52
29.125,-4.9
29.140,-9.43
29.156,-15.78
29.171,-24.13
29.187,-34.2
29.203,-45.3
29.218,-56.17
29.234,-65.23
29.250,-70.6
29.265,-70.75
29.281,-65.46
29.296,-56.02
29.312,-45.0
29.328,-35.44
29.343,-29.44
29.359,-27.3
29.375,-27.76
29.390,-28.78
29.406,-28.57
29.421,-26.79
29.437,-23.78
29.453,-20.04
29.468,-16.04
29.484,-11.63
29.500,-6.1
29.515,0.98
29.531,9.5
29.546,18.57
29.562,26.28
29.578,30.85
29.593,31.35
29.609,28.33
29.625,23.3
29.640,18.46
29.656,15.06
29.671,13.41
29.687,12.9
29.703,12.75
29.718,12.76
29.734,13.37
29.750,14.86
29.765,16.9
29.781,18.82
29.796,19.63
29.812,19.22
29.828,18.11
29.843,16.64
29.859,14.77
29.875,12.27
29.890,8.92
29.906,5.4
29.921,3.2
29.937,3.48
29.953,6.47
29.968,10.72
29.984,13.48
30.000,12.36
30.015,6.57
30.031,-2.6
30.046,-12.34
30.062,-20.12
30.078,-24.67
30.093,-26.56
30.109,-26.91
30.125,-27.5
30.140,-28.98
30.156,-31.38
30.171,-34.0
30.187,-36.14
30.203,-37.98
30.218,-40.35
30.234,-43.79
30.250,-47.55
30.265,-49.97
30.281,-48.62
30.296,-42.1
30.312,-30.72
30.328,-16.44
30.343,-2.02
30.359,10.24
30.375,19.56
30.390,26.59
30.406,32.36
30.421,37.5
30.437,41.67
30.453,44.19
30.468,44.77
30.484,43.73
30.500,42.29
30.515,41.52
30.531,41.93
30.546,43.39
30.562,45.53
30.578,47.92
30.593,50.16
30.609,52.27
30.625,54.2
30.640,56.21
30.656,58.0
30.671,58.71
30.687,57.34
30.703,53.14
30.718,46.4
30.734,38.5
30.750,31.64
30.765,27.8
30.781,27.92
30.796,30.97
30.812,34.49
30.828,35.7
30.843,32.52
30.859,24.63
30.875,13.13
30.890,0.2
30.906,-12.03
30.921,-21.77
30.937,-28.42
30.953,-32.17
30.968,-33.58
30.984,-33.72
31.000,-33.4
31.015,-33.43
31.031,-34.06
31.046,-35.51
31.062,-37.76
31.078,-40.62
31.093,-43.53
31.109,-45.78
31.125,-46.99
31.140,-46.94
31.156,-46.11
31.171,-45.13
31.187,-44.75
31.203,-45.33
31.218,-46.24
31.234,-45.86
31.250,-42.5
31.265,-35.14
31.281,-24.21
31.296,-12.68
31.312,-5.36
31.328,-6.95
31.343,-20.0
31.359,-42.27
31.375,-66.49
31.390,-82.71
31.406,-82.87
31.421,-63.72
31.437,-29.29
31.453,10.9
31.468,45.67
31.484,66.51
31.500,70.51
31.515,60.93
31.531,44.73
31.546,29.71
31.562,22.07
31.578,24.49
31.593,37.12
31.609,58.02
31.625,83.88
31.640,110.38
31.656,132.39
31.671,144.53
31.687,143.26
31.703,128.49
31.718,103.95
31.734,77.15
31.750,56.26
31.765,46.56
31.781,48.78
31.796,59.1
31.812,71.6
31.828,82.23
31.843,89.71
31.859,94.93
31.875,98.69
31.890,99.89
31.906,94.98
31.921,80.49
31.937,55.62
31.953,22.84
31.968,-12.14
31.984,-43.18
32.000,-66.24
32.015,-80.55
32.031,-88.27
32.046,-92.23
32.062,-94.39
32.078,-94.83
32.093,-92.54
32.109,-86.75
32.125,-78.26
32.140,-69.31
32.156,-62.41
32.171,-58.43
32.187,-56.25
32.203,-52.25
32.218,-42.7
32.234,-25.02
32.250,1.35
32.265,33.56
32.281,66.27
32.296,92.51
32.312,105.51
32.328,101.07
32.343,78.81
32.359,43.12
32.375,1.92
32.390,-35.92
32.406,-63.64
32.421,-78.57
32.437,-81.88
32.453,-77.71
32.468,-69.79
32.484,-60.68
32.500,-50.61
32.515,-39.12
32.531,-26.0
32.546,-12.1
32.562,0.86
32.578,11.11
32.593,17.0
32.609,18.08
32.625,14.99
32.640,9.54
32.656,3.77
32.671,0.15
32.687,-0.01
32.703,3.58
32.718,9.0
32.734,12.13
32.750,8.5
32.765,-4.79
32.781,-26.22
32.796,-50.04
32.812,-68.12
32.828,-73.9
32.843,-65.82
32.859,-47.98
32.875,-26.94
32.890,-7.54
32.906,9.29
32.921,26.18
32.937,45.62
32.953,66.56
32.968,84.71
32.984,94.47
33.000,93.44
33.015,83.51
33.031,70.05
33.046,56.47
33.062,41.91
33.078,21.77
33.093,-8.59
33.109,-48.2
33.125,-89.05
33.140,-118.94
33.156,-127.52
33.171,-111.62
33.187,-77.94
33.203,-39.79
33.218,-11.19
33.234,-0.91
33.250,-9.06
33.265,-28.39
33.281,-48.36
33.296,-60.37
33.312,-60.83
33.328,-51.29
33.343,-35.68
33.359,-17.93
33.375,-0.35
33.390,16.52
33.406,32.04
33.421,44.95
33.437,53.16
33.453,54.76
33.468,49.47
33.484,39.4
33.500,28.5
33.515,20.22
33.531,16.72
33.546,18.03
33.562,22.17
33.578,26.52
33.593,28.59
33.609,27.01
33.625,22.06
33.640,15.79
33.656,11.21
33.671,11.74
33.687,19.55
33.703,33.84
33.718,50.0
33.734,61.4
33.750,62.43
33.765,51.57
33.781,33.05
33.796,14.63
33.812,4.25
33.828,5.92
33.843,18.28
33.859,34.72
33.875,46.4
33.890,45.55
33.906,28.1
33.921,-4.5
33.937,-46.44
33.953,-89.09
33.968,-124.32
33.984,-146.66
34.000,-154.26
34.015,-148.97
34.031,-134.09
34.046,-112.85
34.062,-87.42
34.078,-59.49
34.093,-31.67
34.109,-7.56
34.125,9.15
34.140,17.24
34.156,18.79
34.171,17.94
34.187,18.74
34.203,23.12
34.218,29.83
34.234,36.22
34.250,40.2
34.265,40.76
34.281,38.55
34.296,34.96
34.312,31.08
34.328,27.48
34.343,24.96
34.359,24.04
34.375,24.9
34.390,27.41
34.406,30.48
34.421,32.98
34.437,33.69
34.453,32.51
34.468,29.8
34.484,26.55
34.500,23.71
34.515,21.49
34.531,20.29
34.546,19.93
34.562,20.07
34.578,19.81
34.593,17.98
34.609,13.8
34.625,7.98
34.640,1.97
34.656,-2.0
34.671,-2.44
34.687,0.39
34.703,4.52
34.718,7.14
34.734,6.07
34.750,0.54
34.765,-8.55
34.781,-19.92
34.796,-31.59
34.812,-42.15
34.828,-50.22
34.843,-54.05
34.859,-52.15
34.875,-44.74
34.890,-35.11
34.906,-28.84
34.921,-32.07
34.937,-48.17
34.953,-74.94
34.968,-104.43
34.984,-125.1
35.000,-126.67
35.015,-104.64
35.031,-62.73
35.046,-11.37
35.062,36.32
35.078,69.78
35.093,84.05
35.109,80.33
35.125,63.75
35.140,40.23
35.156,14.75
35.171,-7.95
35.187,-22.54
35.203,-23.24
35.218,-5.18
35.234,32.17
35.250,83.07
35.265,136.27
35.281,177.91
35.296,197.22
35.312,190.04
35.328,159.35
35.343,112.69
35.359,58.01
35.375,1.34
35.390,-53.88
35.406,-104.66
35.421,-146.8
35.437,-174.87
35.453,-184.23
35.468,-173.08
35.484,-144.31
35.500,-104.96
35.515,-63.36
35.531,-26.68
35.546,1.07
35.562,19.21
35.578,29.41
35.593,33.87
35.609,34.47
35.625,32.65
35.640,29.49
35.656,26.38
35.671,24.43
35.687,24.14
35.703,24.65
35.718,23.54
35.734,17.89
35.750,5.27
35.765,-14.27
35.781,-37.91
35.796,-60.68
35.812,-77.61
35.828,-85.33
35.843,-83.48
35.859,-75.44
35.875,-66.63
35.890,-62.5
35.906,-65.36
35.921,-72.95
35.937,-79.18
35.953,-76.9
35.968,-61.08
35.984,-31.7
36.000,5.45
36.015,40.94
36.031,65.92
36.046,75.81
36.062,71.94
36.078,60.02
36.093,47.19
36.109,38.16
36.125,34.23
36.140,33.46
36.156,33.17
36.171,31.84
36.187,30.03
36.203,29.9
36.218,32.95
36.234,39.41
36.250,47.03
36.265,52.37
36.281,52.5
36.296,46.9
36.312,37.44
36.328,27.49
36.343,20.36
36.359,17.36
36.375,17.88
36.390,19.35
36.406,19.01
36.421,15.11
36.437,8.06
36.453,-0.19
36.468,-7.04
36.484,-10.66
36.500,-10.91
36.515,-8.94
36.531,-6.97
36.546,-6.77
36.562,-9.14
36.578,-14.06
36.593,-20.97
36.609,-29.0
36.625,-37.18
36.640,-44.31
36.656,-48.91
36.671,-49.77
36.687,-46.29
36.703,-38.99
36.718,-29.58
36.734,-20.51
36.750,-13.78
36.765,-10.19
36.781,-9.1
36.796,-8.95
36.812,-8.17
36.828,-5.97
36.843,-2.48
36.859,1.36
36.875,4.64
36.890,6.81
36.906,7.9
36.921,8.36
36.937,8.75
36.953,9.35
36.968,10.23
36.984,11.22
37.000,11.97
37.015,12.18
37.031,11.65
37.046,10.28
37.062,8.35
37.078,6.37
37.093,4.93
37.109,4.46
37.125,4.91
37.140,6.0
37.156,7.2
37.171,8.16
37.187,8.74
37.203,9.1
37.218,9.46
37.234,9.94
37.250,10.46
37.265,10.81
37.281,10.87
37.296,10.49
37.312,9.72
37.328,8.5
37.343,6.86
37.359,4.68
37.375,1.77
37.390,-2.11
37.406,-7.14
37.421,-13.22
37.437,-20.13
37.453,-27.16
37.468,-33.44
37.484,-37.94
37.500,-39.91
37.515,-39.22
37.531,-36.44
37.546,-32.6
37.562,-28.58
37.578,-25.11
37.593,-22.09
37.609,-18.97
37.625,-15.12
37.640,-10.34
37.656,-5.02
37.671,0.01
37.687,3.9
37.703,6.33
37.718,7.45
37.734,8.05
37.750,9.14
37.765,11.38
37.781,14.71
37.796,18.18
37.812,20.42
37.828,20.06
37.843,16.43
37.859,10.01
37.875,2.84
37.890,-2.22
37.906,-2.8
37.921,1.62
37.937,9.17
37.953,16.57
37.968,20.48
37.984,19.09
38.000,12.96
38.015,5.5
38.031,0.81
38.046,1.75
38.062,8.57
38.078,19.6
38.093,32.67
38.109,46.19
38.125,58.72
38.140,67.27
38.156,68.75
38.171,60.63
38.187,43.09
38.203,20.07
38.218,-1.49
38.234,-14.94
38.250,-18.13
38.265,-15.83
38.281,-18.1
38.296,-32.27
38.312,-57.51
38.328,-83.36
38.343,-94.73
38.359,-79.23
38.375,-33.26
38.390,36.18
38.406,115.23
38.421,181.84
38.437,216.27
38.453,209.97
38.468,170.87
38.484,116.5
38.500,61.96
38.515,13.71
38.531,-28.75
38.546,-65.43
38.562,-98.53
38.578,-124.53
38.593,-137.15
38.609,-131.52
38.625,-107.7
38.640,-71.09
38.656,-29.34
38.671,9.84
38.687,41.75
38.703,65.04
38.718,83.12
38.734,101.48
38.750,125.29
38.765,157.42
38.781,197.6
38.796,242.78
38.812,287.27
38.828,323.09
38.843,340.63
38.859,332.48
38.875,295.75
38.890,233.36
38.906,153.1
38.921,64.91
38.937,-22.28
38.953,-103.18
38.968,-176.62
38.984,-244.37
39.000,-308.17
39.015,-368.69
39.031,-425.79
39.046,-479.84
39.062,-531.68
39.078,-581.26
39.093,-625.79
39.109,-659.38
39.125,-675.43
39.140,-669.82
39.156,-643.84
39.171,-604.3
39.187,-560.38
39.203,-519.2
39.218,-482.72
39.234,-448.11
39.250,-410.64
39.265,-367.64
39.281,-320.06
39.296,-271.75
39.312,-226.75
39.328,-186.82
39.343,-150.96
39.359,-116.79
39.375,-82.48
39.390,-47.68
39.406,-13.17
39.421,20.32
39.437,53.23
39.453,87.11
39.468,123.8
39.484,164.33
39.500,208.12
39.515,252.74
39.531,294.84
39.546,331.06
39.562,359.14
39.578,378.57
39.593,390.61
39.609,397.91
39.625,403.56
39.640,410.04
39.656,418.26
39.671,427.2
39.687,434.13
39.703,435.61
39.718,428.84
39.734,412.6
39.750,387.82
39.765,357.24
39.781,324.59
39.796,293.38
39.812,266.09
39.828,243.62
39.843,225.42
39.859,210.02
39.875,195.42
39.890,179.51
39.906,160.06
39.921,135.0
39.937,102.8
39.953,63.44
39.968,19.23
39.984,-25.1
40.000,-63.25
40.015,-89.57
40.031,-101.13
40.046,-98.78
40.062,-86.64
40.078,-70.2
40.093,-54.19
40.109,-41.6
40.125,-33.84
40.140,-31.82
40.156,-36.8
40.171,-50.16
40.187,-72.26
40.203,-101.38
40.218,-133.22
40.234,-161.8
40.250,-181.11
40.265,-186.95
40.281,-177.83
40.296,-155.3
40.312,-123.33
40.328,-87.2
40.343,-52.4
40.359,-23.79
40.375,-4.59
40.390,4.1
40.406,3.48
40.421,-3.22
40.437,-12.22
40.453,-20.47
40.468,-26.85
40.484,-32.08
40.500,-37.54
40.515,-43.34
40.531,-47.51
40.546,-46.89
40.562,-38.97
40.578,-23.83
40.593,-4.65
40.609,13.33
40.625,25.06
40.640,27.58
40.656,20.63
40.671,5.89
40.687,-14.16
40.703,-36.96
40.718,-60.3
40.734,-81.93
40.750,-99.8
40.765,-112.19
40.781,-117.85
40.796,-115.87
40.812,-105.49
40.828,-86.06
40.843,-57.21
40.859,-19.65
40.875,24.39
40.890,71.21
40.906,116.41
40.921,156.0
40.937,186.94
40.953,207.5
40.968,216.83
40.984,214.57
41.000,200.4
41.015,174.41
41.031,137.91
41.046,94.24
41.062,49.12
41.078,10.16
41.093,-14.79
41.109,-20.09
41.125,-4.41
41.140,28.37
41.156,70.31
41.171,111.9
41.187,145.0
41.203,165.11
41.218,171.92
41.234,168.33
41.250,158.59
41.265,146.46
41.281,134.28
41.296,122.92
41.312,112.47
41.328,102.83
41.343,94.04
41.359,86.26
41.375,79.31
41.390,72.75
41.406,65.87
41.421,58.12
41.437,49.24
41.453,39.36
41.468,28.71
41.484,17.35
41.500,5.06
41.515,-8.63
41.531,-24.16
41.546,-41.4
41.562,-59.45
41.578,-76.62
41.593,-90.79
41.609,-99.96
41.625,-102.91
41.640,-99.37
41.656,-90.19
41.671,-77.0
41.687,-61.68
41.703,-46.07
41.718,-31.58
41.734,-19.25
41.750,-9.88
41.765,-4.01
41.781,-1.85
41.796,-3.26
41.812,-7.83
41.828,-14.94
41.843,-24.07
41.859,-34.7
41.875,-46.34
41.890,-58.4
41.906,-70.17
41.921,-80.73
41.937,-89.2
41.953,-94.92
41.968,-97.5
41.984,-96.82
42.000,-92.92
42.015,-85.8
42.031,-75.4
42.046,-61.6
42.062,-44.27
42.078,-23.72
42.093,-1.07
42.109,21.5
42.125,41.01
42.140,54.64
42.156,60.98
42.171,60.84
42.187,57.08
42.203,53.32
42.218,52.21
42.234,54.23
42.250,57.72
42.265,59.92
42.281,58.7
42.296,53.6
42.312,45.85
42.328,37.57
42.343,30.62
42.359,26.03
42.375,24.13
42.390,25.01
42.406,28.84
42.421,35.92
42.437,46.47
42.453,60.11
42.468,75.78
42.484,91.88
42.500,106.61
42.515,118.43
42.531,126.43
42.546,130.54
42.562,131.45
42.578,130.29
42.593,128.1
42.609,125.31
42.625,121.64
42.640,116.34
42.656,108.72
42.671,98.62
42.687,86.63
42.703,73.82
42.718,61.36
42.734,49.99
42.750,39.88
42.765,31.04
42.781,23.75
42.796,18.83
42.812,17.46
42.828,20.52
42.843,27.87
42.859,38.04
42.875,48.5
42.890,56.53
42.906,60.26
42.921,59.29
42.937,54.8
42.953,48.85
42.968,43.33
42.984,39.26
43.000,36.48
43.015,34.14
43.031,31.13
43.046,26.81
43.062,20.98
43.078,13.73
43.093,5.08
43.109,-5.17
43.125,-17.22
43.140,-30.79
43.156,-44.82
43.171,-57.73
43.187,-67.9
43.203,-74.48
43.218,-77.81
43.234,-79.29
43.250,-80.84
43.265,-84.05
43.281,-89.53
43.296,-96.7
43.312,-104.03
43.328,-109.8
43.343,-112.67
43.359,-112.3
43.375,-109.25
43.390,-104.74
43.406,-100.12
43.421,-96.42
43.437,-94.06
43.453,-92.88
43.468,-92.45
43.484,-92.16
43.500,-91.47
43.515,-89.77
43.531,-86.56
43.546,-81.36
43.562,-73.84
43.578,-64.06
43.593,-52.56
43.609,-40.23
43.625,-28.14
43.640,-17.25
43.656,-8.09
43.671,-0.75
43.687,4.99
43.703,9.54
43.718,13.09
43.734,15.49
43.750,16.28
43.765,14.95
43.781,11.31
43.796,5.67
43.812,-1.21
43.828,-8.37
43.843,-14.94
43.859,-20.47
43.875,-24.91
43.890,-28.43
43.906,-31.22
43.921,-33.29
43.937,-34.37
43.953,-33.97
43.968,-31.61
43.984,-27.04
44.000,-20.49
44.015,-12.52
44.031,-3.91
44.046,4.7
44.062,13.04
44.078,21.36
44.093,30.12
44.109,39.75
44.125,50.25
44.140,61.07
44.156,71.47
44.171,81.12
44.187,90.42
44.203,100.6
44.218,113.26
44.234,129.55
44.250,149.71
44.265,172.75
44.281,196.89
44.296,220.3
44.312,241.72
44.328,260.6
44.343,276.88
44.359,290.37
44.375,300.38
44.390,305.74
44.406,304.9
44.421,296.24
44.437,278.53
44.453,250.99
44.468,213.84
44.484,168.27
44.500,116.37
44.515,60.6
44.531,3.31
44.546,-53.87
44.562,-110.19
44.578,-165.14
44.593,-218.03
44.609,-267.46
44.625,-311.46
44.640,-348.22
44.656,-377.03
44.671,-398.65
44.687,-415.23
44.703,-430.13
44.718,-447.22
44.734,-469.9
44.750,-499.79
44.765,-535.08
44.781,-569.95
44.796,-595.57
44.812,-602.62
44.828,-584.76
44.843,-541.26
44.859,-477.34
44.875,-402.03
44.890,-324.79
44.906,-252.12
44.921,-186.4
44.937,-126.47
44.953,-69.74
44.968,-13.93
44.984,41.82
45.000,96.53
45.015,147.56
45.031,191.02
45.046,222.64
45.062,238.4
45.078,235.89
45.093,215.15
45.109,178.75
45.125,131.55
45.140,79.43
45.156,27.93
45.171,-18.99
45.187,-59.32
45.203,-93.19
45.218,-122.32
45.234,-148.74
45.250,-173.77
45.265,-196.99
45.281,-215.84
45.296,-226.35
45.312,-224.61
45.328,-208.25
45.343,-177.59
45.359,-136.01
45.375,-88.88
45.390,-42.31
45.406,-1.44
45.421,30.91
45.437,54.52
45.453,71.15
45.468,83.33
45.484,93.44
45.500,102.92
45.515,112.44
45.531,122.12
45.546,132.0
45.562,142.14
45.578,152.33
45.593,162.01
45.609,170.12
45.625,175.62
45.640,177.89
45.656,177.06
45.671,173.96
45.687,169.61
45.703,164.81
45.718,159.68
45.734,153.75
45.750,146.29
45.765,136.87
45.781,125.71
45.796,113.74
45.812,102.28
45.828,92.5
45.843,85.17
45.859,80.43
45.875,77.82
45.890,76.39
45.906,74.86
45.921,72.0
45.937,66.91
45.953,59.41
45.968,50.23
45.984,40.67
46.000,32.15
46.015,25.6
46.031,21.15
46.046,18.08
46.062,15.52
46.078,12.75
46.093,9.57
46.109,6.27
46.125,3.19
46.140,0.31
46.156,-2.65
46.171,-6.15
46.187,-10.58
46.203,-15.83
46.218,-21.4
46.234,-26.41
46.250,-29.75
46.265,-30.42
46.281,-28.03
46.296,-22.78
46.312,-15.7
46.328,-8.26
46.343,-1.98
46.359,1.89
46.375,2.81
46.390,1.1
46.406,-2.12
46.421,-5.34
46.437,-6.99
46.453,-6.13
46.468,-2.69
46.484,2.3
46.500,6.91
46.515,9.2
46.531,8.01
46.546,3.35
46.562,-3.63
46.578,-11.18
46.593,-17.84
46.609,-22.79
46.625,-26.02
46.640,-28.2
46.656,-29.99
46.671,-31.94
46.687,-34.44
46.703,-37.67
46.718,-41.44
46.734,-45.37
46.750,-48.77
46.765,-50.85
46.781,-51.23
46.796,-49.94
46.812,-47.53
46.828,-44.86
46.843,-42.58
46.859,-40.98
46.875,-40.08
46.890,-39.69
46.906,-39.48
46.921,-39.13
46.937,-38.32
46.953,-36.87
46.968,-34.76
46.984,-32.22
47.000,-29.7
47.015,-27.77
47.031,-27.0
47.046,-27.6
47.062,-29.43
47.078,-31.87
47.093,-34.2
47.109,-35.6
47.125,-35.62
47.140,-34.33
47.156,-32.19
47.171,-29.85
47.187,-27.7
47.203,-25.6
47.218,-22.85
47.234,-18.6
47.250,-12.19
47.265,-3.74
47.281,5.92
47.296,15.46
47.312,23.57
47.328,29.43
47.343,32.89
47.359,34.51
47.375,35.08
47.390,35.56
47.406,36.63
47.421,38.74
47.437,41.93
47.453,45.83
47.468,49.63
47.484,52.18
47.500,52.33
47.515,49.31
47.531,43.08
47.546,34.39
47.562,24.58
47.578,15.09
47.593,7.05
47.609,1.05
47.625,-2.82
47.640,-4.8
47.656,-5.25
47.671,-4.52
47.687,-2.96
47.703,-0.84
47.718,1.64
47.734,4.33
47.750,7.19
47.765,10.07
47.781,12.71
47.796,14.68
47.812,15.53
47.828,14.93
47.843,12.87
47.859,9.71
47.875,6.15
47.890,2.97
47.906,0.73
47.921,-0.38
47.937,-0.52
47.953,-0.06
47.968,0.6
47.984,1.24
48.000,1.84
48.015,2.59
48.031,3.74
48.046,5.52
48.062,8.07
48.078,11.37
48.093,15.3
48.109,19.51
48.125,23.51
48.140,26.78
48.156,28.95
48.171,29.98
48.187,30.17
48.203,29.99
48.218,29.91
48.234,30.25
48.250,30.98
48.265,31.85
48.281,32.52
48.296,32.78
48.312,32.55
48.328,31.94
48.343,31.08
48.359,30.03
48.375,28.78
48.390,27.19
48.406,25.11
48.421,22.3
48.437,18.51
48.453,13.6
48.468,7.6
48.484,0.97
48.500,-5.47
48.515,-10.77
48.531,-14.17
48.546,-15.44
48.562,-15.06
48.578,-13.9
48.593,-12.88
48.609,-12.65
48.625,-13.39
48.640,-14.84
48.656,-16.64
48.671,-18.56
48.687,-20.35
48.703,-21.86
48.718,-22.82
48.734,-22.81
48.750,-21.38
48.765,-18.16
48.781,-13.02
48.796,-6.07
48.812,2.08
48.828,10.72
48.843,18.84
48.859,25.54
48.875,30.17
48.890,32.49
48.906,32.64
48.921,31.13
48.937,28.58
48.953,25.68
48.968,22.92
48.984,20.38
49.000,17.83
49.015,14.75
49.031,10.61
49.046,5.18
49.062,-1.3
49.078,-8.14
49.093,-14.35
49.109,-19.1
49.125,-22.03
49.140,-23.22
49.156,-22.99
49.171,-21.72
49.187,-19.65
49.203,-17.0
49.218,-14.1
49.234,-11.39
49.250,-9.34
49.265,-8.19
49.281,-7.78
49.296,-7.51
49.312,-6.66
49.328,-4.59
49.343,-1.15
49.359,3.4
49.375,8.46
49.390,13.41
49.406,17.72
49.421,20.97
49.437,22.78
49.453,22.77
49.468,20.67
49.484,16.43
49.500,10.49
49.515,3.81
49.531,-2.25
49.546,-6.22
49.562,-7.0
49.578,-4.22
49.593,1.63
49.609,9.39
49.625,17.5
49.640,24.58
49.656,29.81
49.671,33.0
49.687,34.47
49.703,34.53
49.718,33.3
49.734,30.55
49.750,25.9
49.765,19.04
49.781,10.07
49.796,-0.4
49.812,-11.29
49.828,-21.19
49.843,-28.75
49.859,-32.86
49.875,-32.84
49.890,-28.55
49.906,-20.37
49.921,-9.13
49.937,4.0
49.953,17.69
49.968,30.67
49.984,41.92
50.000,50.94
50.015,57.74
50.031,62.75
50.046,66.56
50.062,69.46
50.078,71.19
50.093,71.01
50.109,67.95
50.125,61.33
50.140,51.18
50.156,38.14
50.171,23.34
50.187,8.01
50.203,-6.8
50.218,-20.53
50.234,-32.87
50.250,-43.75
50.265,-53.18
50.281,-61.09
50.296,-67.48
50.312,-72.43
50.328,-76.19
50.343,-79.09
50.359,-81.63
50.375,-83.99
50.390,-85.91
50.406,-86.65
50.421,-85.23
50.437,-80.92
50.453,-73.67
50.468,-64.23
50.484,-53.8
50.500,-43.62
50.515,-34.38
50.531,-26.21
50.546,-18.83
50.562,-11.94
50.578,-5.55
50.593,0.15
50.609,4.88
50.625,8.49
50.640,11.11
50.656,13.09
50.671,14.73
50.687,16.32
50.703,18.08
50.718,20.09
50.734,22.37
50.750,24.89
50.765,27.46
50.781,29.95
50.796,32.26
50.812,34.32
50.828,36.08
50.843,37.34
50.859,37.76
50.875,36.96
50.890,34.75
50.906,31.37
50.921,27.45
50.937,23.89
50.953,21.36
50.968,19.95
50.984,19.13
51.000,17.95
51.015,15.54
51.031,11.56
51.046,6.41
51.062,1.09
51.078,-3.31
51.093,-6.04
51.109,-7.06
51.125,-6.96
51.140,-6.74
51.156,-7.32
51.171,-9.21
51.187,-12.46
51.203,-16.69
51.218,-21.31
51.234,-25.64
51.250,-29.04
51.265,-30.83
51.281,-30.51
51.296,-27.72
51.312,-22.48
51.328,-15.28
51.343,-7.01
51.359,1.4
51.375,9.09
51.390,15.47
51.406,20.32
51.421,23.68
51.437,25.8
51.453,27.18
51.468,28.21
51.484,29.26
51.500,30.47
51.515,31.66
51.531,32.37
51.546,32.26
51.562,31.36
51.578,30.11
51.593,29.2
51.609,29.14
51.625,29.94
51.640,31.14
51.656,32.11
51.671,32.49
51.687,32.31
51.703,31.89
51.718,31.44
51.734,30.8
51.750,29.4
51.765,26.7
51.781,22.58
51.796,17.52
51.812,12.5
51.828,8.45
51.843,5.69
51.859,3.92
51.875,2.41
51.890,0.31
51.906,-2.89
51.921,-7.11
51.937,-11.89
51.953,-16.5
51.968,-20.37
51.984,-23.35
52.000,-25.66
52.015,-27.73
52.031,-30.03
52.046,-32.79
52.062,-35.9
52.078,-38.94
52.093,-41.23
52.109,-42.1
52.125,-40.85
52.140,-37.12
52.156,-30.77
52.171,-22.11
52.187,-12.01
52.203,-1.81
52.218,7.02
52.234,13.36
52.250,16.69
52.265,17.48
52.281,16.78
52.296,15.98
52.312,16.22
52.328,17.84
52.343,20.49
52.359,23.18
52.375,24.88
52.390,24.8
52.406,22.71
52.421,18.99
52.437,14.58
52.453,10.66
52.468,8.22
52.484,7.77
52.500,9.05
52.515,11.31
52.531,13.54
52.546,14.84
52.562,14.63
52.578,12.79
52.593,9.51
52.609,5.18
52.625,0.44
52.640,-4.16
52.656,-8.12
52.671,-11.19
52.687,-13.33
52.703,-14.92
52.718,-16.57
52.734,-18.92
52.750,-22.22
52.765,-26.2
52.781,-30.29
52.796,-33.74
52.812,-35.94
52.828,-36.77
52.843,-36.69
52.859,-36.76
52.875,-38.1
52.890,-41.32
52.906,-46.07
52.921,-51.22
52.937,-55.16
52.953,-56.43
52.968,-54.27
52.984,-48.75
53.000,-40.6
53.015,-30.85
53.031,-20.57
53.046,-10.7
53.062,-2.06
53.078,4.79
53.093,9.62
53.109,12.7
53.125,14.8
53.140,16.96
53.156,20.02
53.171,24.27
53.187,29.33
53.203,34.35
53.218,38.45
53.234,40.84
53.250,41.21
53.265,39.7
53.281,36.72
53.296,32.9
53.312,28.94
53.328,25.37
53.343,22.4
53.359,20.07
53.375,18.0
53.390,15.84
53.406,13.31
53.421,10.36
53.437,7.2
53.453,4.19
53.468,1.61
53.484,-0.37
53.500,-1.83
53.515,-2.92
53.531,-3.71
53.546,-4.2
53.562,-4.4
53.578,-4.38
53.593,-4.37
53.609,-4.7
53.625,-5.54
53.640,-6.9
53.656,-8.63
53.671,-10.56
53.687,-12.62
53.703,-14.99
53.718,-17.83
53.734,-21.32
53.750,-25.36
53.765,-29.6
53.781,-33.49
53.796,-36.45
53.812,-37.99
53.828,-37.77
53.843,-35.59
53.859,-31.39
53.875,-25.34
53.890,-17.81
53.906,-9.42
53.921,-0.95
53.937,6.8
53.953,13.23
53.968,18.08
53.984,21.49
54.000,23.92
54.015,25.89
54.031,27.72
54.046,29.35
54.062,30.48
54.078,30.74
54.093,30.07
54.109,28.73
54.125,27.19
54.140,25.85
54.156,24.66
54.171,23.24
54.187,21.18
54.203,18.38
54.218,15.3
54.234,12.78
54.250,11.75
54.265,12.67
54.281,15.32
54.296,18.79
54.312,21.87
54.328,23.4
54.343,22.76
54.359,20.05
54.375,15.94
54.390,11.48
54.406,7.65
54.421,4.99
54.437,3.36
54.453,2.25
54.468,0.92
54.484,-1.1
54.500,-3.84
54.515,-7.16
54.531,-10.84
54.546,-14.82
54.562,-19.04
54.578,-23.3
54.593,-27.1
54.609,-29.86
54.625,-31.23
54.640,-31.29
54.656,-30.62
54.671,-29.88
54.687,-29.42
54.703,-28.89
54.718,-27.39
54.734,-23.99
54.750,-18.34
54.765,-10.88
54.781,-2.63
54.796,5.19
54.812,11.81
54.828,16.99
54.843,20.84
54.859,23.49
54.875,24.76
54.890,24.28
54.906,21.92
54.921,18.19
54.937,14.09
54.953,10.86
54.968,9.41
54.984,9.75
55.000,11.23
55.015,12.9
55.031,14.12
55.046,14.84
55.062,15.54
55.078,16.71
55.093,18.45
55.109,20.3
55.125,21.45
55.140,21.18
55.156,19.34
55.171,16.32
55.187,12.79
55.203,9.31
55.218,5.97
55.234,2.56
55.250,-1.24
55.265,-5.58
55.281,-10.22
55.296,-14.73
55.312,-18.77
55.328,-22.23
55.343,-25.13
55.359,-27.47
55.375,-28.89
55.390,-28.98
55.406,-27.54
55.421,-24.87
55.437,-21.93
55.453,-19.93
55.468,-19.72
55.484,-21.37
55.500,-24.06
55.515,-26.39
55.531,-26.98
55.546,-24.95
55.562,-20.17
55.578,-13.19
55.593,-5.0
55.609,3.25
55.625,10.56
55.640,16.15
55.656,19.59
55.671,20.9
55.687,20.41
55.703,18.71
55.718,16.48
55.734,14.26
55.750,12.51
55.765,11.3
55.781,10.26
55.796,8.65
55.812,5.66
55.828,0.85
55.843,-5.53
55.859,-12.5
55.875,-18.7
55.890,-22.73
55.906,-23.97
55.921,-22.62
55.937,-19.53
55.953,-15.55
55.968,-10.99
55.984,-5.69
56.000,0.64
56.015,7.94
56.031,15.61
56.046,22.58
56.062,27.88
56.078,30.95
56.093,31.85
56.109,30.84
56.125,28.14
56.140,23.72
56.156,17.55
56.171,9.91
56.187,1.41
56.203,-7.19
56.218,-15.37
56.234,-23.27
56.250,-31.52
56.265,-40.73
56.281,-51.02
56.296,-61.67
56.312,-71.18
56.328,-77.72
56.343,-79.76
56.359,-76.49
56.375,-68.34
56.390,-56.57
56.406,-42.95
56.421,-29.14
56.437,-16.33
56.453,-5.18
56.468,4.12
56.484,11.57
56.500,17.08
56.515,20.53
56.531,22.02
56.546,21.87
56.562,20.85
56.578,19.77
56.593,19.27
56.609,19.54
56.625,20.39
56.640,21.33
56.656,21.97
56.671,22.27
56.687,22.53
56.703,23.26
56.718,24.88
56.734,27.41
56.750,30.34
56.765,32.85
56.781,34.09
56.796,33.54
56.812,31.42
56.828,28.4
56.843,25.44
56.859,23.31
56.875,22.29
56.890,22.19
56.906,22.49
56.921,22.45
56.937,21.38
56.953,18.74
56.968,14.29
56.984,8.17
57.000,0.96
57.015,-6.54
57.031,-13.39
57.046,-18.96
57.062,-23.13
57.078,-26.26
57.093,-28.96
57.109,-31.7
57.125,-34.58
57.140,-37.35
57.156,-39.5
57.171,-40.4
57.187,-39.6
57.203,-36.88
57.218,-32.2
57.234,-25.83
57.250,-18.25
57.265,-10.11
57.281,-2.18
57.296,4.73
57.312,10.04
57.328,13.47
57.343,15.11
57.359,15.42
57.375,14.95
57.390,14.2
57.406,13.52
57.421,13.12
57.437,13.09
57.453,13.46
57.468,14.23
57.484,15.36
57.500,16.72
57.515,18.09
57.531,19.26
57.546,20.05
57.562,20.38
57.578,20.24
57.593,19.66
57.609,18.73
57.625,17.72
57.640,17.08
57.656,17.36
57.671,19.0
57.687,21.98
57.703,25.56
57.718,28.55
57.734,29.61
57.750,27.73
57.765,22.52
57.781,14.26
57.796,3.79
57.812,-7.76
57.828,-19.15
57.843,-29.27
57.859,-37.3
57.875,-42.65
57.890,-45.25
57.906,-45.43
57.921,-43.83
57.937,-41.12
57.953,-37.72
57.968,-33.69
57.984,-28.84
58.000,-22.95
58.015,-15.99
58.031,-8.29
58.046,-0.46
58.062,6.82
58.078,12.98
58.093,17.67
58.109,20.69
58.125,21.84
58.140,20.81
58.156,17.23
58.171,10.91
58.187,2.23
58.203,-7.77
58.218,-17.55
58.234,-25.5
58.250,-30.44
58.265,-32.04
58.281,-30.97
58.296,-28.49
58.312,-26.08
58.328,-24.69
58.343,-24.48
58.359,-24.82
58.375,-24.36
58.390,-21.49
58.406,-14.75
58.421,-3.42
58.437,12.3
58.453,31.07
58.468,50.64
58.484,68.39
58.500,81.84
58.515,89.33
58.531,90.33
58.546,85.45
58.562,76.2
58.578,64.43
58.593,51.84
58.609,39.75
58.625,28.96
58.640,19.79
58.656,12.11
58.671,5.44
58.687,-0.98
58.703,-7.87
58.718,-15.64
58.734,-24.11
58.750,-32.51
58.765,-39.74
58.781,-44.96
58.796,-48.0
58.812,-49.45
58.828,-50.43
58.843,-51.9
58.859,-54.29
58.875,-57.21
58.890,-59.82
58.906,-61.13
58.921,-60.41
58.937,-57.29
58.953,-51.59
58.968,-43.18
58.984,-31.9
59.000,-17.69
59.015,-0.81
59.031,17.97
59.046,37.35
59.062,55.76
59.078,71.88
59.093,84.95
59.109,94.79
59.125,101.66
59.140,106.09
59.156,108.6
59.171,109.76
59.187,110.09
59.203,110.04
59.218,109.77
59.234,108.92
59.250,106.37
59.265,100.6
59.281,90.33
59.296,75.14
59.312,55.81
59.328,34.09
59.343,12.13
59.359,-8.14
59.375,-25.42
59.390,-39.04
59.406,-48.85
59.421,-55.05
59.437,-58.27
59.453,-59.37
59.468,-59.35
59.484,-58.96
59.500,-58.28
59.515,-56.68
59.531,-53.06
59.546,-46.39
59.562,-36.6
59.578,-24.93
59.593,-13.62
59.609,-5.21
59.625,-1.68
59.640,-3.76
59.656,-10.79
59.671,-21.08
59.687,-32.48
59.703,-43.11
59.718,-51.76
59.734,-57.69
59.750,-60.52
59.765,-59.93
59.781,-55.82
59.796,-48.46
59.812,-38.62
59.828,-27.37
59.843,-15.66
59.859,-3.9
59.875,8.19
59.890,21.24
59.906,35.79
59.921,51.7
59.937,67.98
59.953,83.02
59.968,95.16
59.984,103.31
