timestamp,value
00.000,-20.41
00.015,-22.27
00.031,-23.61
00.046,-24.14
00.062,-23.62
00.078,-21.88
00.093,-18.95
00.109,-15.07
00.125,-10.68
00.140,-6.26
00.156,-2.16
00.171,1.46
00.187,4.61
00.203,7.4
00.218,9.98
00.234,12.44
00.250,14.79
00.265,16.97
00.281,18.86
00.296,20.33
00.312,21.24
00.328,21.57
00.343,21.42
00.359,20.97
00.375,20.43
00.390,19.91
00.406,19.4
00.421,18.78
00.437,17.98
00.453,16.91
00.468,15.69
00.484,14.44
00.500,13.33
00.515,12.44
00.531,11.72
00.546,11.07
00.562,10.4
00.578,9.68
00.593,8.96
00.609,8.37
00.625,8.07
00.640,8.14
00.656,8.53
00.671,9.06
00.687,9.49
00.703,9.56
00.718,9.09
00.734,8.01
00.750,6.39
00.765,4.38
00.781,2.04
00.796,-0.62
00.812,-3.75
00.828,-7.46
00.843,-11.71
00.859,-16.27
00.875,-20.62
00.890,-24.13
00.906,-26.23
00.921,-26.63
00.937,-25.31
00.953,-22.55
00.968,-18.75
00.984,-14.37
01.000,-9.87
01.015,-5.6
01.031,-1.92
01.046,0.9
01.062,2.74
01.078,3.59
01.093,3.62
01.109,3.04
01.125,2.11
01.140,1.02
01.156,-0.03
01.171,-0.9
01.187,-1.48
01.203,-1.68
01.218,-1.45
01.234,-0.84
01.250,0.07
01.265,1.12
01.281,2.13
01.296,2.93
01.312,3.37
01.328,3.37
01.343,2.91
01.359,2.08
01.375,1.01
01.390,-0.11
01.406,-1.14
01.421,-1.95
01.437,-2.6
01.453,-3.22
01.468,-4.04
01.484,-5.21
01.500,-6.82
01.515,-8.83
01.531,-11.13
01.546,-13.62
01.562,-16.21
01.578,-18.8
01.593,-21.35
01.609,-23.77
01.625,-26.03
01.640,-28.17
01.656,-30.29
01.671,-32.47
01.687,-34.61
01.703,-36.35
01.718,-37.16
01.734,-36.54
01.750,-34.21
01.765,-30.3
01.781,-25.27
01.796,-19.79
01.812,-14.46
01.828,-9.68
01.843,-5.66
01.859,-2.39
01.875,0.27
01.890,2.48
01.906,4.4
01.921,6.09
01.937,7.57
01.953,8.85
01.968,9.92
01.984,10.75
02.000,11.36
02.015,11.77
02.031,12.01
02.046,12.06
02.062,11.92
02.078,11.63
02.093,11.22
02.109,10.81
02.125,10.45
02.140,10.17
02.156,9.91
02.171,9.58
02.187,9.07
02.203,8.34
02.218,7.39
02.234,6.29
02.250,5.1
02.265,3.86
02.281,2.53
02.296,1.01
02.312,-0.8
02.328,-2.93
02.343,-5.3
02.359,-7.73
02.375,-9.99
02.390,-11.98
02.406,-13.64
02.421,-15.13
02.437,-16.74
02.453,-18.81
02.468,-21.56
02.484,-24.99
02.500,-28.82
02.515,-32.5
02.531,-35.45
02.546,-37.07
02.562,-37.05
02.578,-35.4
02.593,-32.47
02.609,-28.73
02.625,-24.71
02.640,-20.78
02.656,-17.12
02.671,-13.77
02.687,-10.69
02.703,-7.95
02.718,-5.72
02.734,-4.23
02.750,-3.66
02.765,-4.04
02.781,-5.23
02.796,-6.95
02.812,-8.92
02.828,-10.89
02.843,-12.71
02.859,-14.23
02.875,-15.23
02.890,-15.47
02.906,-14.69
02.921,-12.72
02.937,-9.54
02.953,-5.29
02.968,-0.11
02.984,5.9
03.000,12.68
03.015,20.16
03.031,28.07
03.046,35.92
03.062,43.04
03.078,48.73
03.093,52.42
03.109,53.82
03.125,52.97
03.140,50.18
03.156,45.96
03.171,40.93
03.187,35.68
03.203,30.66
03.218,26.12
03.234,22.08
03.250,18.36
03.265,14.69
03.281,10.82
03.296,6.68
03.312,2.43
03.328,-1.53
03.343,-4.67
03.359,-6.46
03.375,-6.62
03.390,-5.15
03.406,-2.31
03.421,1.38
03.437,5.47
03.453,9.56
03.468,13.44
03.484,16.99
03.500,20.14
03.515,22.76
03.531,24.76
03.546,26.11
03.562,26.88
03.578,27.29
03.593,27.56
03.609,27.85
03.625,28.14
03.640,28.31
03.656,28.13
03.671,27.48
03.687,26.38
03.703,24.94
03.718,23.41
03.734,21.89
03.750,20.38
03.765,18.79
03.781,17.05
03.796,15.2
03.812,13.42
03.828,11.96
03.843,10.96
03.859,10.39
03.875,9.94
03.890,9.14
03.906,7.61
03.921,5.08
03.937,1.63
03.953,-2.43
03.968,-6.62
03.984,-10.53
04.000,-13.95
04.015,-16.97
04.031,-19.88
04.046,-23.03
04.062,-26.67
04.078,-30.76
04.093,-34.91
04.109,-38.53
04.125,-40.97
04.140,-41.71
04.156,-40.52
04.171,-37.39
04.187,-32.58
04.203,-26.53
04.218,-19.74
04.234,-12.73
04.250,-5.95
04.265,0.27
04.281,5.73
04.296,10.34
04.312,14.04
04.328,16.77
04.343,18.47
04.359,19.14
04.375,18.88
04.390,17.87
04.406,16.41
04.421,14.85
04.437,13.54
04.453,12.78
04.468,12.75
04.484,13.47
04.500,14.8
04.515,16.41
04.531,17.95
04.546,19.13
04.562,19.83
04.578,20.07
04.593,19.95
04.609,19.5
04.625,18.67
04.640,17.33
04.656,15.34
04.671,12.67
04.687,9.42
04.703,5.71
04.718,1.67
04.734,-2.65
04.750,-7.24
04.765,-12.0
04.781,-16.78
04.796,-21.37
04.812,-25.48
04.828,-28.9
04.843,-31.44
04.859,-32.88
04.875,-32.97
04.890,-31.38
04.906,-27.79
04.921,-22.21
04.937,-14.98
04.953,-6.81
04.968,1.37
04.984,8.64
05.000,14.46
05.015,18.67
05.031,21.49
05.046,23.33
05.062,24.56
05.078,25.34
05.093,25.69
05.109,25.59
05.125,25.04
05.140,24.21
05.156,23.33
05.171,22.6
05.187,22.15
05.203,21.96
05.218,21.97
05.234,22.18
05.250,22.72
05.265,23.82
05.281,25.58
05.296,27.95
05.312,30.61
05.328,33.07
05.343,34.74
05.359,35.11
05.375,33.79
05.390,30.51
05.406,25.16
05.421,17.73
05.437,8.42
05.453,-2.34
05.468,-13.83
05.484,-25.14
05.500,-35.4
05.515,-43.92
05.531,-50.42
05.546,-54.97
05.562,-57.94
05.578,-59.69
05.593,-60.46
05.609,-60.24
05.625,-58.86
05.640,-56.14
05.656,-51.99
05.671,-46.56
05.687,-40.16
05.703,-33.25
05.718,-26.25
05.734,-19.61
05.750,-13.68
05.765,-8.65
05.781,-4.6
05.796,-1.37
05.812,1.33
05.828,3.87
05.843,6.47
05.859,9.27
05.875,12.14
05.890,14.89
05.906,17.29
05.921,19.19
05.937,20.53
05.953,21.3
05.968,21.5
05.984,21.11
06.000,20.16
06.015,18.66
06.031,16.71
06.046,14.48
06.062,12.12
06.078,9.73
06.093,7.31
06.109,4.82
06.125,2.22
06.140,-0.48
06.156,-3.21
06.171,-5.85
06.187,-8.32
06.203,-10.62
06.218,-12.85
06.234,-15.17
06.250,-17.73
06.265,-20.6
06.281,-23.79
06.296,-27.28
06.312,-30.88
06.328,-34.3
06.343,-37.07
06.359,-38.66
06.375,-38.59
06.390,-36.66
06.406,-32.99
06.421,-27.99
06.437,-22.27
06.453,-16.37
06.468,-10.62
06.484,-5.17
06.500,-0.02
06.515,4.91
06.531,9.61
06.546,14.01
06.562,17.95
06.578,21.29
06.593,23.96
06.609,25.95
06.625,27.34
06.640,28.3
06.656,28.93
06.671,29.33
06.687,29.53
06.703,29.54
06.718,29.41
06.734,29.16
06.750,28.78
06.765,28.23
06.781,27.47
06.796,26.45
06.812,25.15
06.828,23.6
06.843,21.8
06.859,19.77
06.875,17.46
06.890,14.77
06.906,11.68
06.921,8.19
06.937,4.43
06.953,0.58
06.968,-3.2
06.984,-6.8
07.000,-10.19
07.015,-13.5
07.031,-16.9
07.046,-20.56
07.062,-24.61
07.078,-28.9
07.093,-33.12
07.109,-36.77
07.125,-39.27
07.140,-40.19
07.156,-39.26
07.171,-36.51
07.187,-32.18
07.203,-26.69
07.218,-20.48
07.234,-13.99
07.250,-7.57
07.265,-1.47
07.281,4.12
07.296,9.08
07.312,13.34
07.328,16.87
07.343,19.64
07.359,21.7
07.375,23.14
07.390,24.08
07.406,24.68
07.421,25.04
07.437,25.18
07.453,25.03
07.468,24.49
07.484,23.53
07.500,22.25
07.515,20.81
07.531,19.45
07.546,18.32
07.562,17.45
07.578,16.72
07.593,15.92
07.609,14.87
07.625,13.48
07.640,11.76
07.656,9.8
07.671,7.68
07.687,5.55
07.703,3.5
07.718,1.58
07.734,-0.17
07.750,-1.84
07.765,-3.54
07.781,-5.43
07.796,-7.69
07.812,-10.42
07.828,-13.58
07.843,-16.97
07.859,-20.34
07.875,-23.33
07.890,-25.57
07.906,-26.71
07.921,-26.5
07.937,-24.75
07.953,-21.52
07.968,-17.03
07.984,-11.65
08.000,-5.92
08.015,-0.25
08.031,4.98
08.046,9.59
08.062,13.51
08.078,16.76
08.093,19.35
08.109,21.26
08.125,22.41
08.140,22.74
08.156,22.28
08.171,21.16
08.187,19.61
08.203,17.96
08.218,16.46
08.234,15.29
08.250,14.46
08.265,13.89
08.281,13.47
08.296,13.06
08.312,12.52
08.328,11.71
08.343,10.56
08.359,8.98
08.375,7.05
08.390,4.9
08.406,2.75
08.421,0.78
08.437,-0.94
08.453,-2.47
08.468,-4.0
08.484,-5.63
08.500,-7.48
08.515,-9.49
08.531,-11.55
08.546,-13.58
08.562,-15.55
08.578,-17.45
08.593,-19.38
08.609,-21.42
08.625,-23.61
08.640,-25.85
08.656,-27.91
08.671,-29.47
08.687,-30.17
08.703,-29.67
08.718,-27.77
08.734,-24.46
08.750,-19.93
08.765,-14.54
08.781,-8.75
08.796,-3.02
08.812,2.22
08.828,6.67
08.843,10.2
08.859,12.78
08.875,14.48
08.890,15.44
08.906,15.85
08.921,15.89
08.937,15.74
08.953,15.57
08.968,15.44
08.984,15.39
09.000,15.4
09.015,15.46
09.031,15.56
09.046,15.7
09.062,15.82
09.078,15.8
09.093,15.52
09.109,14.83
09.125,13.73
09.140,12.3
09.156,10.71
09.171,9.07
09.187,7.4
09.203,5.7
09.218,3.85
09.234,1.81
09.250,-0.37
09.265,-2.6
09.281,-4.81
09.296,-6.94
09.312,-9.03
09.328,-11.1
09.343,-13.14
09.359,-15.13
09.375,-17.06
09.390,-18.89
09.406,-20.63
09.421,-22.34
09.437,-24.05
09.453,-25.68
09.468,-27.07
09.484,-27.92
09.500,-27.88
09.515,-26.63
09.531,-23.99
09.546,-20.03
09.562,-15.07
09.578,-9.54
09.593,-3.86
09.609,1.7
09.625,7.07
09.640,12.14
09.656,16.84
09.671,20.95
09.687,24.24
09.703,26.61
09.718,28.24
09.734,29.43
09.750,30.52
09.765,31.72
09.781,32.9
09.796,33.82
09.812,34.21
09.828,33.97
09.843,33.25
09.859,32.31
09.875,31.35
09.890,30.43
09.906,29.41
09.921,28.04
09.937,26.07
09.953,23.31
09.968,19.7
09.984,15.29
10.000,10.16
10.015,4.49
10.031,-1.52
10.046,-7.6
10.062,-13.49
10.078,-18.91
10.093,-23.65
10.109,-27.51
10.125,-30.3
10.140,-32.01
10.156,-32.73
10.171,-32.78
10.187,-32.53
10.203,-32.43
10.218,-32.79
10.234,-33.86
10.250,-35.73
10.265,-38.33
10.281,-41.49
10.296,-44.87
10.312,-48.01
10.328,-50.39
10.343,-51.54
10.359,-51.14
10.375,-49.08
10.390,-45.49
10.406,-40.62
10.421,-34.86
10.437,-28.68
10.453,-22.64
10.468,-17.33
10.484,-13.22
10.500,-10.56
10.515,-9.3
10.531,-9.09
10.546,-9.41
10.562,-9.7
10.578,-9.46
10.593,-8.34
10.609,-6.14
10.625,-2.82
10.640,1.52
10.656,6.66
10.671,12.23
10.687,17.79
10.703,22.92
10.718,27.28
10.734,30.65
10.750,32.95
10.765,34.18
10.781,34.42
10.796,33.8
10.812,32.45
10.828,30.44
10.843,27.87
10.859,24.78
10.875,21.29
10.890,17.56
10.906,13.79
10.921,10.12
10.937,6.63
10.953,3.25
10.968,-0.08
10.984,-3.47
11.000,-6.88
11.015,-10.25
11.031,-13.45
11.046,-16.44
11.062,-19.19
11.078,-21.61
11.093,-23.56
11.109,-24.68
11.125,-24.61
11.140,-23.0
11.156,-19.8
11.171,-15.19
11.187,-9.72
11.203,-4.04
11.218,1.19
11.234,5.47
11.250,8.65
11.265,10.82
11.281,12.26
11.296,13.25
11.312,13.98
11.328,14.47
11.343,14.66
11.359,14.52
11.375,14.03
11.390,13.31
11.406,12.52
11.421,11.77
11.437,11.18
11.453,10.77
11.468,10.54
11.484,10.43
11.500,10.41
11.515,10.34
11.531,10.12
11.546,9.65
11.562,8.83
11.578,7.67
11.593,6.15
11.609,4.31
11.625,2.2
11.640,-0.08
11.656,-2.47
11.671,-4.88
11.687,-7.28
11.703,-9.69
11.718,-12.09
11.734,-14.45
11.750,-16.68
11.765,-18.69
11.781,-20.52
11.796,-22.31
11.812,-24.28
11.828,-26.61
11.843,-29.32
11.859,-32.1
11.875,-34.51
11.890,-35.94
11.906,-35.92
11.921,-34.2
11.937,-30.76
11.953,-25.9
11.968,-20.14
11.984,-14.06
12.000,-8.19
12.015,-2.89
12.031,1.7
12.046,5.61
12.062,8.92
12.078,11.74
12.093,14.13
12.109,16.08
12.125,17.56
12.140,18.53
12.156,18.95
12.171,18.81
12.187,18.11
12.203,16.92
12.218,15.43
12.234,13.88
12.250,12.53
12.265,11.52
12.281,10.87
12.296,10.49
12.312,10.26
12.328,10.03
12.343,9.72
12.359,9.27
12.375,8.56
12.390,7.49
12.406,5.93
12.421,3.77
12.437,1.0
12.453,-2.33
12.468,-6.17
12.484,-10.44
12.500,-15.08
12.515,-19.95
12.531,-24.84
12.546,-29.41
12.562,-33.28
12.578,-36.05
12.593,-37.4
12.609,-37.18
12.625,-35.3
12.640,-31.93
12.656,-27.34
12.671,-21.9
12.687,-16.03
12.703,-10.06
12.718,-4.17
12.734,1.57
12.750,7.2
12.765,12.78
12.781,18.21
12.796,23.21
12.812,27.38
12.828,30.25
12.843,31.5
12.859,31.01
12.875,29.01
12.890,25.92
12.906,22.34
12.921,18.81
12.937,15.84
12.953,13.72
12.968,12.61
12.984,12.49
13.000,13.24
13.015,14.72
13.031,16.82
13.046,19.45
13.062,22.48
13.078,25.72
13.093,28.85
13.109,31.53
13.125,33.4
13.140,34.25
13.156,34.01
13.171,32.73
13.187,30.56
13.203,27.61
13.218,24.02
13.234,19.98
13.250,15.8
13.265,11.84
13.281,8.38
13.296,5.54
13.312,3.18
13.328,1.04
13.343,-1.2
13.359,-3.8
13.375,-6.89
13.390,-10.51
13.406,-14.69
13.421,-19.42
13.437,-24.63
13.453,-30.11
13.468,-35.51
13.484,-40.47
13.500,-44.73
13.515,-48.26
13.531,-51.18
13.546,-53.6
13.562,-55.45
13.578,-56.36
13.593,-55.83
13.609,-53.43
13.625,-49.03
13.640,-42.98
13.656,-35.98
13.671,-28.85
13.687,-22.27
13.703,-16.59
13.718,-11.82
13.734,-7.77
13.750,-4.17
13.765,-0.8
13.781,2.44
13.796,5.54
13.812,8.46
13.828,11.11
13.843,13.46
13.859,15.48
13.875,17.15
13.890,18.45
13.906,19.4
13.921,20.01
13.937,20.31
13.953,20.35
13.968,20.17
13.984,19.78
14.000,19.2
14.015,18.37
14.031,17.28
14.046,15.95
14.062,14.49
14.078,13.0
14.093,11.51
14.109,10.01
14.125,8.37
14.140,6.51
14.156,4.37
14.171,1.98
14.187,-0.54
14.203,-3.11
14.218,-5.6
14.234,-8.0
14.250,-10.33
14.265,-12.61
14.281,-14.87
14.296,-17.19
14.312,-19.69
14.328,-22.52
14.343,-25.76
14.359,-29.27
14.375,-32.68
14.390,-35.36
14.406,-36.65
14.421,-36.02
14.437,-33.26
14.453,-28.63
14.468,-22.68
14.484,-16.15
14.500,-9.69
14.515,-3.71
14.531,1.6
14.546,6.22
14.562,10.21
14.578,13.57
14.593,16.33
14.609,18.55
14.625,20.36
14.640,21.92
14.656,23.42
14.671,24.9
14.687,26.25
14.703,27.3
14.718,27.87
14.734,27.92
14.750,27.56
14.765,27.04
14.781,26.58
14.796,26.35
14.812,26.28
14.828,26.14
14.843,25.61
14.859,24.43
14.875,22.55
14.890,20.17
14.906,17.61
14.921,15.22
14.937,13.2
14.953,11.51
14.968,9.99
14.984,8.37
15.000,6.44
15.015,4.22
15.031,1.86
15.046,-0.4
15.062,-2.37
15.078,-4.02
15.093,-5.46
15.109,-6.9
15.125,-8.59
15.140,-10.78
15.156,-13.61
15.171,-17.07
15.187,-21.0
15.203,-25.02
15.218,-28.61
15.234,-31.19
15.250,-32.32
15.265,-31.89
15.281,-30.27
15.296,-28.23
15.312,-26.66
15.328,-26.16
15.343,-26.74
15.359,-27.82
15.375,-28.39
15.390,-27.48
15.406,-24.57
15.421,-19.74
15.437,-13.58
15.453,-6.9
15.468,-0.36
15.484,5.65
15.500,10.99
15.515,15.7
15.531,19.76
15.546,23.17
15.562,25.88
15.578,27.98
15.593,29.67
15.609,31.3
15.625,33.16
15.640,35.42
15.656,37.95
15.671,40.37
15.687,42.18
15.703,42.96
15.718,42.59
15.734,41.25
15.750,39.32
15.765,37.07
15.781,34.41
15.796,30.9
15.812,25.83
15.828,18.67
15.843,9.36
15.859,-1.52
15.875,-12.96
15.890,-23.84
15.906,-33.39
15.921,-41.27
15.937,-47.58
15.953,-52.63
15.968,-56.6
15.984,-59.54
16.000,-61.39
16.015,-62.2
16.031,-62.2
16.046,-61.67
16.062,-60.74
16.078,-59.21
16.093,-56.51
16.109,-51.98
16.125,-45.19
16.140,-36.27
16.156,-25.9
16.171,-15.07
16.187,-4.74
16.203,4.5
16.218,12.46
16.234,19.28
16.250,25.27
16.265,30.62
16.281,35.42
16.296,39.62
16.312,43.06
16.328,45.62
16.343,47.16
16.359,47.65
16.375,47.17
16.390,45.98
16.406,44.42
16.421,42.81
16.437,41.39
16.453,40.26
16.468,39.38
16.484,38.66
16.500,37.97
16.515,37.13
16.531,36.03
16.546,34.53
16.562,32.56
16.578,30.17
16.593,27.54
16.609,24.86
16.625,22.35
16.640,20.17
16.656,18.29
16.671,16.62
16.687,14.98
16.703,13.19
16.718,11.09
16.734,8.57
16.750,5.55
16.765,2.07
16.781,-1.73
16.796,-5.59
16.812,-9.23
16.828,-12.5
16.843,-15.36
16.859,-17.97
16.875,-20.55
16.890,-23.34
16.906,-26.49
16.921,-29.99
16.937,-33.72
16.953,-37.4
16.968,-40.63
16.984,-42.89
17.000,-43.65
17.015,-42.48
17.031,-39.24
17.046,-34.11
17.062,-27.62
17.078,-20.41
17.093,-13.11
17.109,-6.16
17.125,0.23
17.140,5.95
17.156,11.02
17.171,15.4
17.187,19.11
17.203,22.11
17.218,24.42
17.234,26.11
17.250,27.27
17.265,28.01
17.281,28.44
17.296,28.65
17.312,28.69
17.328,28.6
17.343,28.34
17.359,27.89
17.375,27.24
17.390,26.42
17.406,25.49
17.421,24.43
17.437,23.25
17.453,21.93
17.468,20.5
17.484,18.98
17.500,17.4
17.515,15.77
17.531,14.1
17.546,12.37
17.562,10.62
17.578,8.93
17.593,7.35
17.609,5.85
17.625,4.35
17.640,2.65
17.656,0.6
17.671,-1.79
17.687,-4.38
17.703,-6.88
17.718,-9.08
17.734,-10.89
17.750,-12.48
17.765,-14.1
17.781,-16.08
17.796,-18.6
17.812,-21.63
17.828,-24.87
17.843,-27.77
17.859,-29.72
17.875,-30.23
17.890,-28.95
17.906,-25.86
17.921,-21.22
17.937,-15.51
17.953,-9.31
17.968,-3.09
17.984,2.86
18.000,8.38
18.015,13.41
18.031,17.91
18.046,21.73
18.062,24.58
18.078,26.09
18.093,25.91
18.109,23.78
18.125,19.72
18.140,14.08
18.156,7.44
18.171,0.64
18.187,-5.51
18.203,-10.4
18.218,-13.72
18.234,-15.49
18.250,-15.97
18.265,-15.51
18.281,-14.39
18.296,-12.87
18.312,-11.18
18.328,-9.61
18.343,-8.4
18.359,-7.68
18.375,-7.41
18.390,-7.35
18.406,-7.14
18.421,-6.48
18.437,-5.37
18.453,-4.02
18.468,-2.85
18.484,-2.29
18.500,-2.56
18.515,-3.65
18.531,-5.39
18.546,-7.49
18.562,-9.67
18.578,-11.79
18.593,-13.84
18.609,-15.89
18.625,-18.05
18.640,-20.43
18.656,-23.09
18.671,-26.03
18.687,-29.19
18.703,-32.31
18.718,-34.89
18.734,-36.31
18.750,-35.91
18.765,-33.33
18.781,-28.62
18.796,-22.35
18.812,-15.36
18.828,-8.59
18.843,-2.63
18.859,2.31
18.875,6.36
18.890,9.76
18.906,12.68
18.921,15.16
18.937,17.13
18.953,18.61
18.968,19.68
18.984,20.55
19.000,21.41
19.015,22.33
19.031,23.23
19.046,23.98
19.062,24.46
19.078,24.66
19.093,24.67
19.109,24.56
19.125,24.41
19.140,24.14
19.156,23.68
19.171,23.03
19.187,22.22
19.203,21.34
19.218,20.41
19.234,19.38
19.250,18.09
19.265,16.41
19.281,14.3
19.296,11.81
19.312,9.16
19.328,6.52
19.343,3.96
19.359,1.44
19.375,-1.14
19.390,-3.84
19.406,-6.58
19.421,-9.23
19.437,-11.68
19.453,-13.82
19.468,-15.69
19.484,-17.43
19.500,-19.2
19.515,-21.16
19.531,-23.5
19.546,-26.34
19.562,-29.7
19.578,-33.5
19.593,-37.38
19.609,-40.84
19.625,-43.21
19.640,-43.87
19.656,-42.45
19.671,-38.9
19.687,-33.52
19.703,-26.86
19.718,-19.59
19.734,-12.34
19.750,-5.59
19.765,0.4
19.781,5.59
19.796,10.0
19.812,13.72
19.828,16.86
19.843,19.44
19.859,21.53
19.875,23.14
19.890,24.27
19.906,24.91
19.921,25.1
19.937,24.87
19.953,24.36
19.968,23.79
19.984,23.35
20.000,23.18
20.015,23.26
20.031,23.43
20.046,23.47
20.062,23.21
20.078,22.59
20.093,21.7
20.109,20.64
20.125,19.56
20.140,18.49
20.156,17.38
20.171,16.14
20.187,14.69
20.203,13.02
20.218,11.16
20.234,9.2
20.250,7.16
20.265,5.04
20.281,2.83
20.296,0.49
20.312,-1.99
20.328,-4.56
20.343,-7.13
20.359,-9.59
20.375,-11.95
20.390,-14.29
20.406,-16.78
20.421,-19.56
20.437,-22.74
20.453,-26.31
20.468,-30.16
20.484,-34.08
20.500,-37.75
20.515,-40.71
20.531,-42.47
20.546,-42.54
20.562,-40.58
20.578,-36.62
20.593,-30.99
20.609,-24.38
20.625,-17.56
20.640,-11.14
20.656,-5.5
20.671,-0.71
20.687,3.38
20.703,6.98
20.718,10.23
20.734,13.21
20.750,15.93
20.765,18.31
20.781,20.29
20.796,21.82
20.812,22.89
20.828,23.57
20.843,23.9
20.859,23.95
20.875,23.78
20.890,23.42
20.906,22.87
20.921,22.16
20.937,21.26
20.953,20.15
20.968,18.78
20.984,17.09
21.000,15.0
21.015,12.56
21.031,9.9
21.046,7.2
21.062,4.68
21.078,2.47
21.093,0.59
21.109,-1.0
21.125,-2.45
21.140,-3.91
21.156,-5.49
21.171,-7.2
21.187,-9.02
21.203,-10.84
21.218,-12.56
21.234,-14.15
21.250,-15.69
21.265,-17.37
21.281,-19.4
21.296,-22.03
21.312,-25.37
21.328,-29.29
21.343,-33.39
21.359,-37.04
21.375,-39.49
21.390,-40.09
21.406,-38.49
21.421,-34.71
21.437,-29.16
21.453,-22.49
21.468,-15.36
21.484,-8.31
21.500,-1.66
21.515,4.39
21.531,9.68
21.546,14.03
21.562,17.28
21.578,19.36
21.593,20.36
21.609,20.53
21.625,20.19
21.640,19.64
21.656,19.06
21.671,18.5
21.687,17.93
21.703,17.31
21.718,16.66
21.734,16.07
21.750,15.61
21.765,15.32
21.781,15.17
21.796,15.04
21.812,14.83
21.828,14.43
21.843,13.77
21.859,12.88
21.875,11.75
21.890,10.39
21.906,8.74
21.921,6.74
21.937,4.37
21.953,1.63
21.968,-1.45
21.984,-4.79
22.000,-8.29
22.015,-11.84
22.031,-15.32
22.046,-18.58
22.062,-21.54
22.078,-24.24
22.093,-26.82
22.109,-29.55
22.125,-32.58
22.140,-35.96
22.156,-39.43
22.171,-42.46
22.187,-44.39
22.203,-44.62
22.218,-42.79
22.234,-38.89
22.250,-33.25
22.265,-26.46
22.281,-19.21
22.296,-12.21
22.312,-5.96
22.328,-0.73
22.343,3.39
22.359,6.44
22.375,8.59
22.390,9.97
22.406,10.71
22.421,10.92
22.437,10.66
22.453,10.07
22.468,9.29
22.484,8.47
22.500,7.78
22.515,7.4
22.531,7.54
22.546,8.39
22.562,10.07
22.578,12.61
22.593,15.86
22.609,19.5
22.625,23.09
22.640,26.15
22.656,28.31
22.671,29.42
22.687,29.54
22.703,28.89
22.718,27.78
22.734,26.47
22.750,25.08
22.765,23.64
22.781,21.99
22.796,19.94
22.812,17.3
22.828,13.99
22.843,10.05
22.859,5.58
22.875,0.77
22.890,-4.18
22.906,-9.06
22.921,-13.73
22.937,-18.13
22.953,-22.27
22.968,-26.36
22.984,-30.54
23.000,-34.89
23.015,-39.22
23.031,-42.99
23.046,-45.45
23.062,-45.93
23.078,-44.06
23.093,-39.93
23.109,-34.08
23.125,-27.23
23.140,-20.03
23.156,-12.9
23.171,-6.07
23.187,0.37
23.203,6.34
23.218,11.65
23.234,16.17
23.250,19.79
23.265,22.61
23.281,24.81
23.296,26.61
23.312,28.14
23.328,29.43
23.343,30.39
23.359,30.94
23.375,31.05
23.390,30.77
23.406,30.25
23.421,29.59
23.437,28.89
23.453,28.19
23.468,27.45
23.484,26.55
23.500,25.42
23.515,23.99
23.531,22.28
23.546,20.38
23.562,18.46
23.578,16.67
23.593,15.14
23.609,13.84
23.625,12.57
23.640,11.09
23.656,9.14
23.671,6.56
23.687,3.37
23.703,-0.2
23.718,-3.82
23.734,-7.18
23.750,-10.1
23.765,-12.57
23.781,-14.81
23.796,-17.12
23.812,-19.87
23.828,-23.31
23.843,-27.48
23.859,-32.21
23.875,-37.02
23.890,-41.28
23.906,-44.2
23.921,-45.11
23.937,-43.51
23.953,-39.35
23.968,-32.94
23.984,-25.04
24.000,-16.61
24.015,-8.59
24.031,-1.73
24.046,3.6
24.062,7.35
24.078,9.74
24.093,11.11
24.109,11.78
24.125,11.94
24.140,11.61
24.156,10.79
24.171,9.5
24.187,7.87
24.203,6.25
24.218,5.07
24.234,4.72
24.250,5.49
24.265,7.39
24.281,10.26
24.296,13.8
24.312,17.63
24.328,21.37
24.343,24.69
24.359,27.3
24.375,29.04
24.390,29.78
24.406,29.55
24.421,28.44
24.437,26.67
24.453,24.41
24.468,21.81
24.484,18.93
24.500,15.75
24.515,12.19
24.531,8.17
24.546,3.76
24.562,-0.91
24.578,-5.59
24.593,-10.01
24.609,-14.03
24.625,-17.61
24.640,-20.87
24.656,-24.02
24.671,-27.26
24.687,-30.62
24.703,-33.95
24.718,-36.81
24.734,-38.63
24.750,-38.82
24.765,-37.01
24.781,-33.21
24.796,-27.76
24.812,-21.28
24.828,-14.42
24.843,-7.72
24.859,-1.5
24.875,4.12
24.890,9.09
24.906,13.39
24.921,16.99
24.937,19.83
24.953,21.91
24.968,23.29
24.984,24.05
25.000,24.29
25.015,24.16
25.031,23.78
25.046,23.31
25.062,22.89
25.078,22.64
25.093,22.66
25.109,22.99
25.125,23.57
25.140,24.29
25.156,24.98
25.171,25.39
25.187,25.32
25.203,24.59
25.218,23.07
25.234,20.81
25.250,17.94
25.265,14.69
25.281,11.25
25.296,7.78
25.312,4.28
25.328,0.7
25.343,-3.04
25.359,-6.94
25.375,-10.94
25.390,-14.9
25.406,-18.68
25.421,-22.17
25.437,-25.41
25.453,-28.53
25.468,-31.72
25.484,-35.12
25.500,-38.68
25.515,-42.09
25.531,-44.79
25.546,-46.11
25.562,-45.42
25.578,-42.41
25.593,-37.16
25.609,-30.15
25.625,-22.1
25.640,-13.75
25.656,-5.69
25.671,1.64
25.687,8.0
25.703,13.32
25.718,17.62
25.734,21.03
25.750,23.75
25.765,25.98
25.781,27.91
25.796,29.61
25.812,31.04
25.828,32.07
25.843,32.61
25.859,32.61
25.875,32.16
25.890,31.43
25.906,30.58
25.921,29.8
25.937,29.15
25.953,28.61
25.968,28.07
25.984,27.37
26.000,26.3
26.015,24.73
26.031,22.62
26.046,20.01
26.062,17.07
26.078,14.02
26.093,11.07
26.109,8.3
26.125,5.67
26.140,3.02
26.156,0.15
26.171,-3.06
26.187,-6.62
26.203,-10.37
26.218,-14.07
26.234,-17.46
26.250,-20.4
26.265,-22.96
26.281,-25.34
26.296,-27.85
26.312,-30.74
26.328,-34.18
26.343,-38.06
26.359,-42.04
26.375,-45.52
26.390,-47.79
26.406,-48.19
26.421,-46.31
26.437,-42.11
26.453,-35.94
26.468,-28.45
26.484,-20.33
26.500,-12.17
26.515,-4.38
26.531,2.86
26.546,9.4
26.562,15.16
26.578,20.05
26.593,23.98
26.609,26.99
26.625,29.18
26.640,30.73
26.656,31.81
26.671,32.53
26.687,32.91
26.703,32.96
26.718,32.68
26.734,32.1
26.750,31.4
26.765,30.73
26.781,30.21
26.796,29.86
26.812,29.57
26.828,29.13
26.843,28.34
26.859,27.06
26.875,25.29
26.890,23.15
26.906,20.86
26.921,18.6
26.937,16.53
26.953,14.7
26.968,13.02
26.984,11.35
27.000,9.52
27.015,7.36
27.031,4.89
27.046,2.2
27.062,-0.56
27.078,-3.15
27.093,-5.47
27.109,-7.51
27.125,-9.34
27.140,-11.04
27.156,-12.74
27.171,-14.47
27.187,-16.26
27.203,-18.13
27.218,-20.03
27.234,-21.79
27.250,-23.13
27.265,-23.59
27.281,-22.71
27.296,-20.18
27.312,-15.87
27.328,-10.02
27.343,-3.12
27.359,4.26
27.375,11.52
27.390,18.18
27.406,23.93
27.421,28.44
27.437,31.42
27.453,32.64
27.468,31.95
27.484,29.45
27.500,25.54
27.515,20.83
27.531,16.03
27.546,11.79
27.562,8.49
27.578,6.22
27.593,4.86
27.609,4.16
27.625,3.89
27.640,3.98
27.656,4.42
27.671,5.27
27.687,6.52
27.703,8.0
27.718,9.45
27.734,10.57
27.750,11.15
27.765,11.18
27.781,10.73
27.796,9.9
27.812,8.74
27.828,7.21
27.843,5.3
27.859,3.04
27.875,0.56
27.890,-2.0
27.906,-4.55
27.921,-7.09
27.937,-9.65
27.953,-12.26
27.968,-14.88
27.984,-17.43
28.000,-19.8
28.015,-22.01
28.031,-24.1
28.046,-26.14
28.062,-28.18
28.078,-30.32
28.093,-32.62
28.109,-35.2
28.125,-37.99
28.140,-40.69
28.156,-42.71
28.171,-43.33
28.187,-41.89
28.203,-38.1
28.218,-32.2
28.234,-24.82
28.250,-16.86
28.265,-9.04
28.281,-1.81
28.296,4.71
28.312,10.54
28.328,15.69
28.343,20.09
28.359,23.51
28.375,25.8
28.390,26.87
28.406,26.93
28.421,26.37
28.437,25.67
28.453,25.28
28.468,25.46
28.484,26.22
28.500,27.31
28.515,28.35
28.531,28.96
28.546,29.0
28.562,28.67
28.578,28.45
28.593,28.9
28.609,30.36
28.625,32.72
28.640,35.4
28.656,37.58
28.671,38.57
28.687,38.18
28.703,36.82
28.718,35.44
28.734,35.14
28.750,36.69
28.765,40.3
28.781,45.41
28.796,50.92
28.812,55.4
28.828,57.68
28.843,57.17
28.859,54.17
28.875,49.98
28.890,46.76
28.906,47.07
28.921,53.06
28.937,65.6
28.953,83.51
28.968,103.41
28.984,120.54
29.000,130.13
29.015,129.19
29.031,117.67
29.046,98.48
29.062,76.18
29.078,55.36
29.093,38.96
29.109,27.78
29.125,20.95
29.140,16.96
29.156,14.54
29.171,13.05
29.187,12.23
29.203,11.69
29.218,10.77
29.234,8.62
29.250,4.6
29.265,-1.28
29.281,-8.35
29.296,-15.44
29.312,-21.37
29.328,-25.36
29.343,-27.22
29.359,-27.39
29.375,-26.55
29.390,-25.32
29.406,-23.81
29.421,-21.68
29.437,-18.27
29.453,-13.12
29.468,-6.36
29.484,1.27
29.500,8.72
29.515,15.14
29.531,20.27
29.546,24.54
29.562,28.67
29.578,33.2
29.593,38.2
29.609,43.16
29.625,47.39
29.640,50.31
29.656,51.65
29.671,51.43
29.687,49.85
29.703,46.91
29.718,42.28
29.734,35.3
29.750,25.08
29.765,10.83
29.781,-7.8
29.796,-30.47
29.812,-56.14
29.828,-83.16
29.843,-109.59
29.859,-133.59
29.875,-153.56
29.890,-168.46
29.906,-177.9
29.921,-182.11
29.937,-181.86
29.953,-178.33
29.968,-172.75
29.984,-166.15
30.000,-159.21
30.015,-152.21
30.031,-145.33
30.046,-138.8
30.062,-132.99
30.078,-128.37
30.093,-125.2
30.109,-123.42
30.125,-122.56
30.140,-121.87
30.156,-120.58
30.171,-118.14
30.187,-114.31
30.203,-109.24
30.218,-103.34
30.234,-97.14
30.250,-91.13
30.265,-85.57
30.281,-80.59
30.296,-76.13
30.312,-72.1
30.328,-68.46
30.343,-65.23
30.359,-62.57
30.375,-60.74
30.390,-59.88
30.406,-60.03
30.421,-61.11
30.437,-62.92
30.453,-65.35
30.468,-68.39
30.484,-72.08
30.500,-76.42
30.515,-81.15
30.531,-85.76
30.546,-89.44
30.562,-91.37
30.578,-90.98
30.593,-88.04
30.609,-82.69
30.625,-75.35
30.640,-66.72
30.656,-57.59
30.671,-48.95
30.687,-41.68
30.703,-36.49
30.718,-33.66
30.734,-33.04
30.750,-34.04
30.765,-35.8
30.781,-37.46
30.796,-38.27
30.812,-37.66
30.828,-35.31
30.843,-31.13
30.859,-25.31
30.875,-18.31
30.890,-10.73
30.906,-3.09
30.921,4.34
30.937,11.8
30.953,20.05
30.968,30.18
30.984,43.38
31.000,60.47
31.015,81.51
31.031,105.5
31.046,130.45
31.062,153.73
31.078,172.66
31.093,185.1
31.109,189.9
31.125,187.13
31.140,177.85
31.156,163.78
31.171,146.85
31.187,128.84
31.203,111.26
31.218,95.28
31.234,81.72
31.250,71.06
31.265,63.34
31.281,58.06
31.296,54.22
31.312,50.52
31.328,45.81
31.343,39.48
31.359,31.71
31.375,23.37
31.390,15.54
31.406,9.0
31.421,3.84
31.437,-0.42
31.453,-4.53
31.468,-8.98
31.484,-13.77
31.500,-18.58
31.515,-23.1
31.531,-27.36
31.546,-31.68
31.562,-36.38
31.578,-41.25
31.593,-45.46
31.609,-47.78
31.625,-47.06
31.640,-42.81
31.656,-35.46
31.671,-26.16
31.687,-16.34
31.703,-7.29
31.718,0.19
31.734,5.72
31.750,9.2
31.765,10.77
31.781,10.66
31.796,9.23
31.812,6.96
31.828,4.43
31.843,2.25
31.859,0.96
31.875,0.94
31.890,2.3
31.906,4.9
31.921,8.36
31.937,12.13
31.953,15.67
31.968,18.55
31.984,20.54
32.000,21.66
32.015,22.04
32.031,21.94
32.046,21.51
32.062,20.83
32.078,19.82
32.093,18.34
32.109,16.33
32.125,13.78
32.140,10.87
32.156,7.83
32.171,4.82
32.187,1.9
32.203,-1.0
32.218,-4.04
32.234,-7.25
32.250,-10.56
32.265,-13.83
32.281,-16.95
32.296,-19.97
32.312,-23.19
32.328,-26.9
32.343,-31.14
32.359,-35.53
32.375,-39.23
32.390,-41.22
32.406,-40.65
32.421,-37.22
32.437,-31.23
32.453,-23.52
32.468,-15.09
32.484,-6.83
32.500,0.65
32.515,7.05
32.531,12.26
32.546,16.3
32.562,19.31
32.578,21.46
32.593,23.03
32.609,24.33
32.625,25.51
32.640,26.6
32.656,27.5
32.671,28.03
32.687,28.11
32.703,27.81
32.718,27.36
32.734,26.98
32.750,26.93
32.765,27.32
32.781,28.09
32.796,29.11
32.812,30.14
32.828,30.88
32.843,31.08
32.859,30.53
32.875,29.1
32.890,26.79
32.906,23.74
32.921,20.08
32.937,16.02
32.953,11.72
32.968,7.35
32.984,3.09
33.000,-0.85
33.015,-4.34
33.031,-7.31
33.046,-9.84
33.062,-12.17
33.078,-14.63
33.093,-17.58
33.109,-21.3
33.125,-25.9
33.140,-31.23
33.156,-36.78
33.171,-41.74
33.187,-45.13
33.203,-46.02
33.218,-43.84
33.234,-38.54
33.250,-30.71
33.265,-21.38
33.281,-11.69
33.296,-2.65
33.312,5.14
33.328,11.56
33.343,16.76
33.359,21.02
33.375,24.62
33.390,27.67
33.406,30.21
33.421,32.25
33.437,33.81
33.453,34.92
33.468,35.64
33.484,35.97
33.500,35.91
33.515,35.54
33.531,34.98
33.546,34.46
33.562,34.18
33.578,34.19
33.593,34.37
33.609,34.42
33.625,34.05
33.640,33.04
33.656,31.38
33.671,29.21
33.687,26.74
33.703,24.16
33.718,21.47
33.734,18.62
33.750,15.5
33.765,12.03
33.781,8.22
33.796,4.12
33.812,-0.15
33.828,-4.5
33.843,-8.81
33.859,-12.96
33.875,-16.87
33.890,-20.51
33.906,-24.0
33.921,-27.49
33.937,-31.18
33.953,-35.17
33.968,-39.34
33.984,-43.26
34.000,-46.25
34.015,-47.58
34.031,-46.68
34.046,-43.35
34.062,-37.81
34.078,-30.63
34.093,-22.55
34.109,-14.28
34.125,-6.4
34.140,0.74
34.156,7.01
34.171,12.41
34.187,17.06
34.203,21.09
34.218,24.57
34.234,27.42
34.250,29.53
34.265,30.8
34.281,31.26
34.296,31.08
34.312,30.57
34.328,30.04
34.343,29.68
34.359,29.57
34.375,29.59
34.390,29.67
34.406,29.69
34.421,29.55
34.437,29.17
34.453,28.44
34.468,27.26
34.484,25.59
34.500,23.53
34.515,21.21
34.531,18.84
34.546,16.49
34.562,14.12
34.578,11.58
34.593,8.58
34.609,4.93
34.625,0.52
34.640,-4.55
34.656,-10.0
34.671,-15.45
34.687,-20.55
34.703,-25.01
34.718,-28.73
34.734,-31.77
34.750,-34.33
34.765,-36.67
34.781,-38.85
34.796,-40.73
34.812,-41.89
34.828,-41.8
34.843,-40.02
34.859,-36.33
34.875,-30.89
34.890,-24.05
34.906,-16.36
34.921,-8.41
34.937,-0.7
34.953,6.31
34.968,12.23
34.984,16.78
35.000,19.93
35.015,21.88
35.031,23.18
35.046,24.48
35.062,26.28
35.078,28.79
35.093,31.81
35.109,34.9
35.125,37.52
35.140,39.26
35.156,40.0
35.171,39.99
35.187,39.7
35.203,39.69
35.218,40.35
35.234,41.69
35.250,43.29
35.265,44.34
35.281,43.84
35.296,41.0
35.312,35.55
35.328,27.95
35.343,19.3
35.359,11.04
35.375,4.42
35.390,0.07
35.406,-2.25
35.421,-3.45
35.437,-4.69
35.453,-6.75
35.468,-9.5
35.484,-11.96
35.500,-12.51
35.515,-9.79
35.531,-3.29
35.546,6.08
35.562,16.17
35.578,24.17
35.593,27.6
35.609,25.14
35.625,17.15
35.640,5.43
35.656,-7.43
35.671,-18.93
35.687,-27.36
35.703,-32.09
35.718,-33.43
35.734,-32.15
35.750,-29.12
35.765,-25.08
35.781,-20.62
35.796,-16.31
35.812,-12.72
35.828,-10.3
35.843,-9.29
35.859,-9.46
35.875,-10.19
35.890,-10.62
35.906,-10.05
35.921,-8.14
35.937,-5.13
35.953,-1.64
35.968,1.59
35.984,3.95
36.000,5.22
36.015,5.53
36.031,5.22
36.046,4.56
36.062,3.67
36.078,2.45
36.093,0.73
36.109,-1.58
36.125,-4.39
36.140,-7.46
36.156,-10.48
36.171,-13.23
36.187,-15.72
36.203,-18.06
36.218,-20.39
36.234,-22.78
36.250,-25.08
36.265,-27.12
36.281,-28.72
36.296,-29.83
36.312,-30.46
36.328,-30.67
36.343,-30.36
36.359,-29.37
36.375,-27.44
36.390,-24.39
36.406,-20.28
36.421,-15.35
36.437,-9.98
36.453,-4.56
36.468,0.64
36.484,5.52
36.500,10.08
36.515,14.27
36.531,18.06
36.546,21.3
36.562,23.79
36.578,25.41
36.593,26.19
36.609,26.27
36.625,25.93
36.640,25.39
36.656,24.73
36.671,23.98
36.687,23.11
36.703,22.19
36.718,21.42
36.734,21.07
36.750,21.33
36.765,22.11
36.781,23.04
36.796,23.55
36.812,23.14
36.828,21.5
36.843,18.59
36.859,14.63
36.875,9.94
36.890,4.86
36.906,-0.26
36.921,-5.13
36.937,-9.46
36.953,-13.03
36.968,-15.74
36.984,-17.65
37.000,-18.92
37.015,-19.93
37.031,-21.07
37.046,-22.65
37.062,-24.84
37.078,-27.57
37.093,-30.52
37.109,-33.12
37.125,-34.82
37.140,-35.12
37.156,-33.8
37.171,-30.86
37.187,-26.5
37.203,-21.13
37.218,-15.19
37.234,-9.15
37.250,-3.36
37.265,1.96
37.281,6.79
37.296,11.19
37.312,15.29
37.328,19.16
37.343,22.68
37.359,25.68
37.375,27.97
37.390,29.44
37.406,30.15
37.421,30.27
37.437,30.01
37.453,29.57
37.468,29.13
37.484,28.7
37.500,28.26
37.515,27.72
37.531,26.99
37.546,26.0
37.562,24.79
37.578,23.5
37.593,22.31
37.609,21.29
37.625,20.4
37.640,19.43
37.656,18.1
37.671,16.18
37.687,13.6
37.703,10.45
37.718,6.89
37.734,3.08
37.750,-0.87
37.765,-4.88
37.781,-8.84
37.796,-12.61
37.812,-16.11
37.828,-19.27
37.843,-22.14
37.859,-24.95
37.875,-27.9
37.890,-31.07
37.906,-34.31
37.921,-37.2
37.937,-39.16
37.953,-39.61
37.968,-38.13
37.984,-34.56
38.000,-29.05
38.015,-22.01
38.031,-13.98
38.046,-5.54
38.062,2.77
38.078,10.51
38.093,17.41
38.109,23.36
38.125,28.45
38.140,32.9
38.156,37.01
38.171,40.97
38.187,44.83
38.203,48.41
38.218,51.4
38.234,53.33
38.250,53.8
38.265,52.54
38.281,49.51
38.296,44.95
38.312,39.32
38.328,33.24
38.343,27.36
38.359,22.25
38.375,18.13
38.390,14.96
38.406,12.32
38.421,9.69
38.437,6.62
38.453,2.89
38.468,-1.37
38.484,-5.79
38.500,-9.93
38.515,-13.43
38.531,-16.16
38.546,-18.25
38.562,-19.97
38.578,-21.65
38.593,-23.5
38.609,-25.58
38.625,-27.79
38.640,-30.0
38.656,-32.05
38.671,-33.95
38.687,-35.85
38.703,-38.02
38.718,-40.78
38.734,-44.38
38.750,-48.85
38.765,-53.89
38.781,-58.84
38.796,-62.76
38.812,-64.77
38.828,-64.26
38.843,-61.2
38.859,-56.14
38.875,-50.08
38.890,-44.04
38.906,-38.82
38.921,-34.68
38.937,-31.34
38.953,-28.12
38.968,-24.16
38.984,-18.74
39.000,-11.48
39.015,-2.57
39.031,7.34
39.046,17.06
39.062,25.28
39.078,30.98
39.093,33.7
39.109,33.75
39.125,32.1
39.140,29.93
39.156,28.19
39.171,27.35
39.187,27.22
39.203,27.21
39.218,26.73
39.234,25.4
39.250,23.23
39.265,20.43
39.281,17.28
39.296,13.86
39.312,10.21
39.328,6.37
39.343,2.61
39.359,-0.61
39.375,-2.8
39.390,-3.62
39.406,-3.08
39.421,-1.41
39.437,1.11
39.453,4.49
39.468,8.99
39.484,15.03
39.500,22.68
39.515,31.44
39.531,40.15
39.546,47.33
39.562,51.66
39.578,52.37
39.593,49.52
39.609,43.81
39.625,36.32
39.640,28.32
39.656,20.97
39.671,15.15
39.687,11.45
39.703,10.02
39.718,10.61
39.734,12.65
39.750,15.38
39.765,18.05
39.781,20.1
39.796,21.13
39.812,20.97
39.828,19.71
39.843,17.63
39.859,15.25
39.875,13.07
39.890,11.39
39.906,10.21
39.921,9.3
39.937,8.29
39.953,7.01
39.968,5.48
39.984,3.94
40.000,2.62
40.015,1.57
40.031,0.66
40.046,-0.34
40.062,-1.56
40.078,-2.99
40.093,-4.38
40.109,-5.42
40.125,-5.81
40.140,-5.37
40.156,-4.11
40.171,-2.2
40.187,0.04
40.203,2.26
40.218,4.04
40.234,5.09
40.250,5.22
40.265,4.34
40.281,2.43
40.296,-0.45
40.312,-4.21
40.328,-8.59
40.343,-13.25
40.359,-17.72
40.375,-21.54
40.390,-24.45
40.406,-26.41
40.421,-27.62
40.437,-28.45
40.453,-29.24
40.468,-30.2
40.484,-31.38
40.500,-32.59
40.515,-33.48
40.531,-33.63
40.546,-32.67
40.562,-30.38
40.578,-26.84
40.593,-22.38
40.609,-17.51
40.625,-12.82
40.640,-8.76
40.656,-5.54
40.671,-3.15
40.687,-1.4
40.703,-0.03
40.718,1.12
40.734,2.15
40.750,3.03
40.765,3.65
40.781,3.91
40.796,3.8
40.812,3.38
40.828,2.8
40.843,2.24
40.859,1.81
40.875,1.57
40.890,1.49
40.906,1.51
40.921,1.53
40.937,1.45
40.953,1.17
40.968,0.6
40.984,-0.21
41.000,-1.16
41.015,-2.01
41.031,-2.55
41.046,-2.62
41.062,-2.24
41.078,-1.62
41.093,-1.05
41.109,-0.81
41.125,-1.04
41.140,-1.75
41.156,-2.89
41.171,-4.31
41.187,-5.89
41.203,-7.44
41.218,-8.85
41.234,-9.99
41.250,-10.86
41.265,-11.59
41.281,-12.46
41.296,-13.74
41.312,-15.55
41.328,-17.74
41.343,-19.84
41.359,-21.24
41.375,-21.43
41.390,-20.12
41.406,-17.38
41.421,-13.63
41.437,-9.44
41.453,-5.39
41.468,-1.9
41.484,0.84
41.500,2.88
41.515,4.36
41.531,5.48
41.546,6.35
41.562,6.98
41.578,7.31
41.593,7.31
41.609,7.01
41.625,6.51
41.640,6.01
41.656,5.6
41.671,5.31
41.687,5.05
41.703,4.73
41.718,4.3
41.734,3.76
41.750,3.15
41.765,2.52
41.781,1.82
41.796,1.04
41.812,0.16
41.828,-0.8
41.843,-1.75
41.859,-2.63
41.875,-3.32
41.890,-3.79
41.906,-4.03
41.921,-4.09
41.937,-4.12
41.953,-4.32
41.968,-4.87
41.984,-5.86
42.000,-7.25
42.015,-8.82
42.031,-10.35
42.046,-11.67
42.062,-12.78
42.078,-13.84
42.093,-15.0
42.109,-16.39
42.125,-17.92
42.140,-19.4
42.156,-20.52
42.171,-20.98
42.187,-20.6
42.203,-19.29
42.218,-17.11
42.234,-14.19
42.250,-10.81
42.265,-7.26
42.281,-3.91
42.296,-1.02
42.312,1.28
42.328,3.05
42.343,4.4
42.359,5.44
42.375,6.29
42.390,6.97
42.406,7.49
42.421,7.89
42.437,8.22
42.453,8.53
42.468,8.81
42.484,9.04
42.500,9.18
42.515,9.17
42.531,8.96
42.546,8.46
42.562,7.64
42.578,6.45
42.593,4.95
42.609,3.24
42.625,1.45
42.640,-0.27
42.656,-1.83
42.671,-3.18
42.687,-4.28
42.703,-5.11
42.718,-5.78
42.734,-6.46
42.750,-7.42
42.765,-8.94
42.781,-11.05
42.796,-13.47
42.812,-15.62
42.828,-16.79
42.843,-16.42
42.859,-14.36
42.875,-10.96
42.890,-7.0
42.906,-3.39
42.921,-0.82
42.937,0.55
42.953,1.2
42.968,2.2
42.984,4.75
43.000,9.7
43.015,17.13
43.031,26.18
43.046,35.2
43.062,42.23
43.078,45.52
43.093,44.13
43.109,38.15
43.125,28.62
43.140,17.27
43.156,6.03
43.171,-3.38
43.187,-9.85
43.203,-13.05
43.218,-13.34
43.234,-11.55
43.250,-8.66
43.265,-5.59
43.281,-2.97
43.296,-1.18
43.312,-0.38
43.328,-0.55
43.343,-1.49
43.359,-2.86
43.375,-4.21
43.390,-5.07
43.406,-5.21
43.421,-4.7
43.437,-3.88
43.453,-3.3
43.468,-3.45
43.484,-4.55
43.500,-6.46
43.515,-8.75
43.531,-10.92
43.546,-12.7
43.562,-14.03
43.578,-15.14
43.593,-16.28
43.609,-17.61
43.625,-19.08
43.640,-20.56
43.656,-21.88
43.671,-22.98
43.687,-23.93
43.703,-24.78
43.718,-25.66
43.734,-26.66
43.750,-27.82
43.765,-29.19
43.781,-30.76
43.796,-32.38
43.812,-33.72
43.828,-34.36
43.843,-33.89
43.859,-32.11
43.875,-29.13
43.890,-25.21
43.906,-20.74
43.921,-16.13
43.937,-11.7
43.953,-7.69
43.968,-4.34
43.984,-1.83
44.000,-0.22
44.015,0.55
44.031,0.73
44.046,0.76
44.062,1.03
44.078,1.83
44.093,3.22
44.109,5.0
44.125,6.79
44.140,8.16
44.156,8.8
44.171,8.64
44.187,7.86
44.203,6.76
44.218,5.68
44.234,4.83
44.250,4.27
44.265,4.04
44.281,4.14
44.296,4.58
44.312,5.41
44.328,6.54
44.343,7.78
44.359,8.83
44.375,9.48
44.390,9.5
44.406,8.89
44.421,7.67
44.437,5.83
44.453,3.28
44.468,-0.01
44.484,-4.02
44.500,-8.54
44.515,-13.18
44.531,-17.54
44.546,-21.35
44.562,-24.55
44.578,-27.26
44.593,-29.71
44.609,-31.98
44.625,-33.98
44.640,-35.32
44.656,-35.52
44.671,-34.22
44.687,-31.25
44.703,-26.81
44.718,-21.36
44.734,-15.47
44.750,-9.67
44.765,-4.34
44.781,0.34
44.796,4.3
44.812,7.54
44.828,10.08
44.843,12.03
44.859,13.49
44.875,14.66
44.890,15.71
44.906,16.68
44.921,17.52
44.937,18.11
44.953,18.31
44.968,18.16
44.984,17.79
45.000,17.39
45.015,17.14
45.031,17.1
45.046,17.18
45.062,17.23
45.078,17.08
45.093,16.58
45.109,15.73
45.125,14.52
45.140,13.06
45.156,11.45
45.171,9.77
45.187,8.08
45.203,6.45
45.218,4.89
45.234,3.37
45.250,1.82
45.265,0.06
45.281,-2.04
45.296,-4.59
45.312,-7.53
45.328,-10.67
45.343,-13.71
45.359,-16.33
45.375,-18.37
45.390,-19.84
45.406,-21.01
45.421,-22.3
45.437,-24.05
45.453,-26.47
45.468,-29.43
45.484,-32.51
45.500,-35.07
45.515,-36.43
45.531,-36.06
45.546,-33.73
45.562,-29.54
45.578,-23.9
45.593,-17.36
45.609,-10.56
45.625,-4.09
45.640,1.57
45.656,6.18
45.671,9.73
45.687,12.31
45.703,14.19
45.718,15.57
45.734,16.66
45.750,17.59
45.765,18.45
45.781,19.32
45.796,20.25
45.812,21.26
45.828,22.25
45.843,23.08
45.859,23.6
45.875,23.7
45.890,23.38
45.906,22.7
45.921,21.74
45.937,20.56
45.953,19.17
45.968,17.56
45.984,15.72
46.000,13.72
46.015,11.7
46.031,9.81
46.046,8.2
46.062,6.96
46.078,6.08
46.093,5.47
46.109,4.87
46.125,4.07
46.140,2.83
46.156,1.0
46.171,-1.47
46.187,-4.51
46.203,-7.96
46.218,-11.56
46.234,-14.99
46.250,-18.05
46.265,-20.61
46.281,-22.77
46.296,-24.73
46.312,-26.68
46.328,-28.56
46.343,-30.04
46.359,-30.46
46.375,-29.09
46.390,-25.42
46.406,-19.3
46.421,-11.16
46.437,-1.73
46.453,8.1
46.468,17.59
46.484,26.23
46.500,33.7
46.515,39.83
46.531,44.47
46.546,47.46
46.562,48.55
46.578,47.58
46.593,44.59
46.609,39.85
46.625,33.94
46.640,27.49
46.656,21.22
46.671,15.71
46.687,11.34
46.703,8.27
46.718,6.51
46.734,5.95
46.750,6.45
46.765,7.74
46.781,9.51
46.796,11.31
46.812,12.68
46.828,13.21
46.843,12.66
46.859,11.06
46.875,8.67
46.890,5.96
46.906,3.37
46.921,1.17
46.937,-0.62
46.953,-2.2
46.968,-3.93
46.984,-6.02
47.000,-8.53
47.015,-11.38
47.031,-14.43
47.046,-17.62
47.062,-21.0
47.078,-24.62
47.093,-28.34
47.109,-31.78
47.125,-34.29
47.140,-35.2
47.156,-34.07
47.171,-30.87
47.187,-25.93
47.203,-19.84
47.218,-13.27
47.234,-6.72
47.250,-0.55
47.265,5.03
47.281,9.93
47.296,14.08
47.312,17.5
47.328,20.27
47.343,22.52
47.359,24.38
47.375,25.96
47.390,27.29
47.406,28.3
47.421,28.91
47.437,29.04
47.453,28.73
47.468,28.1
47.484,27.33
47.500,26.6
47.515,26.01
47.531,25.55
47.546,25.06
47.562,24.36
47.578,23.26
47.593,21.68
47.609,19.58
47.625,17.09
47.640,14.41
47.656,11.71
47.671,9.19
47.687,6.9
47.703,4.84
47.718,2.87
47.734,0.82
47.750,-1.46
47.765,-4.06
47.781,-6.97
47.796,-10.15
47.812,-13.55
47.828,-17.09
47.843,-20.73
47.859,-24.51
47.875,-28.46
47.890,-32.62
47.906,-36.79
47.921,-40.6
47.937,-43.44
47.953,-44.57
47.968,-43.42
47.984,-39.77
48.000,-33.92
48.015,-26.59
48.031,-18.62
48.046,-10.81
48.062,-3.75
48.078,2.22
48.093,6.98
48.109,10.57
48.125,13.13
48.140,15.03
48.156,16.65
48.171,18.48
48.187,20.82
48.203,23.74
48.218,26.96
48.234,30.0
48.250,32.37
48.265,33.68
48.281,33.98
48.296,33.64
48.312,33.38
48.328,33.92
48.343,35.79
48.359,39.16
48.375,43.76
48.390,49.05
48.406,54.27
48.421,58.62
48.437,61.28
48.453,61.55
48.468,58.9
48.484,53.06
48.500,44.2
48.515,32.83
48.531,19.84
48.546,6.29
48.562,-6.64
48.578,-17.93
48.593,-26.8
48.609,-32.91
48.625,-36.4
48.640,-37.76
48.656,-37.83
48.671,-37.47
48.687,-37.45
48.703,-38.2
48.718,-39.87
48.734,-42.36
48.750,-45.34
48.765,-48.38
48.781,-50.89
48.796,-52.2
48.812,-51.69
48.828,-48.89
48.843,-43.73
48.859,-36.51
48.875,-27.92
48.890,-18.75
48.906,-9.79
48.921,-1.57
48.937,5.61
48.953,11.7
48.968,16.81
48.984,21.03
49.000,24.46
49.015,27.14
49.031,29.08
49.046,30.3
49.062,30.91
49.078,31.09
49.093,31.08
49.109,31.09
49.125,31.15
49.140,31.21
49.156,31.11
49.171,30.79
49.187,30.3
49.203,29.79
49.218,29.43
49.234,29.25
49.250,29.1
49.265,28.74
49.281,27.9
49.296,26.47
49.312,24.46
49.328,21.95
49.343,19.08
49.359,15.96
49.375,12.66
49.390,9.26
49.406,5.87
49.421,2.53
49.437,-0.74
49.453,-3.96
49.468,-7.13
49.484,-10.2
49.500,-13.02
49.515,-15.51
49.531,-17.66
49.546,-19.59
49.562,-21.58
49.578,-23.93
49.593,-26.84
49.609,-30.29
49.625,-34.03
49.640,-37.6
49.656,-40.38
49.671,-41.71
49.687,-41.08
49.703,-38.25
49.718,-33.37
49.734,-26.93
49.750,-19.68
49.765,-12.42
49.781,-5.75
49.796,-0.04
49.812,4.63
49.828,8.36
49.843,11.32
49.859,13.66
49.875,15.59
49.890,17.25
49.906,18.8
49.921,20.3
49.937,21.7
49.953,22.85
49.968,23.58
49.984,23.76
50.000,23.39
50.015,22.66
50.031,21.8
50.046,21.03
50.062,20.49
50.078,20.2
50.093,20.02
50.109,19.77
50.125,19.2
50.140,18.15
50.156,16.62
50.171,14.76
50.187,12.83
50.203,11.09
50.218,9.61
50.234,8.3
50.250,6.9
50.265,5.14
50.281,2.9
50.296,0.22
50.312,-2.71
50.328,-5.66
50.343,-8.46
50.359,-11.04
50.375,-13.41
50.390,-15.56
50.406,-17.52
50.421,-19.38
50.437,-21.26
50.453,-23.34
50.468,-25.84
50.484,-28.73
50.500,-31.84
50.515,-34.69
50.531,-36.65
50.546,-37.17
50.562,-35.96
50.578,-33.08
50.593,-29.01
50.609,-24.47
50.625,-20.16
50.640,-16.56
50.656,-13.87
50.671,-11.94
50.687,-10.49
50.703,-9.25
50.718,-7.96
50.734,-6.41
50.750,-4.33
50.765,-1.41
50.781,2.72
50.796,8.3
50.812,15.3
50.828,23.27
50.843,31.44
50.859,39.0
50.875,45.41
50.890,50.57
50.906,54.79
50.921,58.49
50.937,61.87
50.953,64.7
50.968,66.26
50.984,65.75
51.000,62.61
51.015,56.81
51.031,48.95
51.046,39.96
51.062,30.75
51.078,21.98
51.093,14.0
51.109,6.89
51.125,0.7
51.140,-4.51
51.156,-8.71
51.171,-11.96
51.187,-14.42
51.203,-16.41
51.218,-18.2
51.234,-19.98
51.250,-21.89
51.265,-23.93
51.281,-26.19
51.296,-28.82
51.312,-31.9
51.328,-35.42
51.343,-39.03
51.359,-42.2
51.375,-44.22
51.390,-44.47
51.406,-42.58
51.421,-38.56
51.437,-32.83
51.453,-26.05
51.468,-18.99
51.484,-12.34
51.500,-6.56
51.515,-1.8
51.531,2.02
51.546,5.13
51.562,7.75
51.578,9.95
51.593,11.72
51.609,13.02
51.625,13.86
51.640,14.37
51.656,14.72
51.671,15.03
51.687,15.29
51.703,15.38
51.718,15.2
51.734,14.73
51.750,14.03
51.765,13.23
51.781,12.5
51.796,11.87
51.812,11.28
51.828,10.57
51.843,9.52
51.859,7.93
51.875,5.73
51.890,3.0
51.906,-0.02
51.921,-2.95
51.937,-5.53
51.953,-7.61
51.968,-9.35
51.984,-11.04
52.000,-13.04
52.015,-15.53
52.031,-18.43
52.046,-21.46
52.062,-24.22
52.078,-26.52
52.093,-28.4
52.109,-30.21
52.125,-32.48
52.140,-35.69
52.156,-40.08
52.171,-45.49
52.187,-51.29
52.203,-56.52
52.218,-60.14
52.234,-61.19
52.250,-59.13
52.265,-54.04
52.281,-46.57
52.296,-37.84
52.312,-29.11
52.328,-21.4
52.343,-15.15
52.359,-10.17
52.375,-5.74
52.390,-0.98
52.406,4.76
52.421,11.74
52.437,19.78
52.453,28.39
52.468,37.06
52.484,45.35
52.500,53.0
52.515,59.8
52.531,65.55
52.546,69.96
52.562,72.81
52.578,73.97
52.593,73.43
52.609,71.4
52.625,68.1
52.640,63.74
52.656,58.47
52.671,52.35
52.687,45.39
52.703,37.74
52.718,29.59
52.734,21.26
52.750,13.15
52.765,5.61
52.781,-1.12
52.796,-6.96
52.812,-12.01
52.828,-16.49
52.843,-20.63
52.859,-24.58
52.875,-28.41
52.890,-32.04
52.906,-35.41
52.921,-38.41
52.937,-41.02
52.953,-43.28
52.968,-45.24
52.984,-46.99
53.000,-48.61
53.015,-50.19
53.031,-51.71
53.046,-53.04
53.062,-53.88
53.078,-53.77
53.093,-52.26
53.109,-49.01
53.125,-44.0
53.140,-37.53
53.156,-30.27
53.171,-22.9
53.187,-16.03
53.203,-9.99
53.218,-4.79
53.234,-0.29
53.250,3.7
53.265,7.25
53.281,10.31
53.296,12.74
53.312,14.51
53.328,15.77
53.343,16.79
53.359,17.85
53.375,19.08
53.390,20.36
53.406,21.43
53.421,22.09
53.437,22.28
53.453,22.14
53.468,21.91
53.484,21.75
53.500,21.68
53.515,21.53
53.531,21.13
53.546,20.32
53.562,19.14
53.578,17.69
53.593,16.07
53.609,14.33
53.625,12.45
53.640,10.47
53.656,8.36
53.671,6.15
53.687,3.87
53.703,1.56
53.718,-0.8
53.734,-3.21
53.750,-5.64
53.765,-8.07
53.781,-10.45
53.796,-12.82
53.812,-15.25
53.828,-17.87
53.843,-20.73
53.859,-23.9
53.875,-27.32
53.890,-30.9
53.906,-34.48
53.921,-37.76
53.937,-40.33
53.953,-41.58
53.968,-40.92
53.984,-38.04
54.000,-33.04
54.015,-26.45
54.031,-19.16
54.046,-12.01
54.062,-5.6
54.078,-0.18
54.093,4.32
54.109,8.04
54.125,11.09
54.140,13.46
54.156,15.11
54.171,16.08
54.187,16.53
54.203,16.77
54.218,17.06
54.234,17.53
54.250,18.14
54.265,18.75
54.281,19.26
54.296,19.55
54.312,19.66
54.328,19.6
54.343,19.44
54.359,19.18
54.375,18.75
54.390,18.13
54.406,17.27
54.421,16.18
54.437,14.87
54.453,13.38
54.468,11.76
54.484,10.02
54.500,8.16
54.515,6.14
54.531,3.82
54.546,1.07
54.562,-2.17
54.578,-5.76
54.593,-9.48
54.609,-13.01
54.625,-16.16
54.640,-18.9
54.656,-21.36
54.671,-23.77
54.687,-26.33
54.703,-29.18
54.718,-32.29
54.734,-35.56
54.750,-38.69
54.765,-41.31
54.781,-42.89
54.796,-42.88
54.812,-40.89
54.828,-36.86
54.843,-31.16
54.859,-24.45
54.875,-17.52
54.890,-11.0
54.906,-5.29
54.921,-0.49
54.937,3.48
54.953,6.79
54.968,9.58
54.984,11.89
55.000,13.76
55.015,15.22
55.031,16.35
55.046,17.29
55.062,18.1
55.078,18.82
55.093,19.46
55.109,19.97
55.125,20.36
55.140,20.66
55.156,20.89
55.171,21.08
55.187,21.25
55.203,21.34
55.218,21.26
55.234,20.91
55.250,20.18
55.265,19.03
55.281,17.47
55.296,15.55
55.312,13.41
55.328,11.18
55.343,8.95
55.359,6.66
55.375,4.2
55.390,1.49
55.406,-1.47
55.421,-4.55
55.437,-7.56
55.453,-10.37
55.468,-12.93
55.484,-15.38
55.500,-17.99
55.515,-21.02
55.531,-24.63
55.546,-28.76
55.562,-33.1
55.578,-37.08
55.593,-40.02
55.609,-41.25
55.625,-40.33
55.640,-37.14
55.656,-31.97
55.671,-25.35
55.687,-18.02
55.703,-10.64
55.718,-3.75
55.734,2.33
55.750,7.51
55.765,11.84
55.781,15.54
55.796,18.76
55.812,21.58
55.828,23.95
55.843,25.78
55.859,27.02
55.875,27.63
55.890,27.78
55.906,27.6
55.921,27.31
55.937,27.04
55.953,26.87
55.968,26.84
55.984,26.91
56.000,26.99
56.015,26.88
56.031,26.33
56.046,25.19
56.062,23.4
56.078,21.09
56.093,18.48
56.109,15.81
56.125,13.26
56.140,10.92
56.156,8.74
56.171,6.55
56.187,4.15
56.203,1.33
56.218,-1.95
56.234,-5.65
56.250,-9.53
56.265,-13.29
56.281,-16.65
56.296,-19.54
56.312,-22.09
56.328,-24.62
56.343,-27.54
56.359,-31.14
56.375,-35.54
56.390,-40.58
56.406,-45.74
56.421,-50.29
56.437,-53.3
56.453,-53.93
56.468,-51.64
56.484,-46.42
56.500,-38.82
56.515,-29.83
56.531,-20.56
56.546,-11.92
56.562,-4.42
56.578,1.87
56.593,7.17
56.609,11.79
56.625,15.96
56.640,19.8
56.656,23.32
56.671,26.44
56.687,29.1
56.703,31.18
56.718,32.59
56.734,33.31
56.750,33.39
56.765,33.02
56.781,32.47
56.796,32.02
56.812,31.8
56.828,31.8
56.843,31.85
56.859,31.71
56.875,31.2
56.890,30.22
56.906,28.74
56.921,26.82
56.937,24.54
56.953,21.92
56.968,19.09
56.984,16.15
57.000,13.17
57.015,10.24
57.031,7.29
57.046,4.21
57.062,0.9
57.078,-2.65
57.093,-6.4
57.109,-10.15
57.125,-13.73
57.140,-17.07
57.156,-20.18
57.171,-23.23
57.187,-26.49
57.203,-30.18
57.218,-34.4
57.234,-39.01
57.250,-43.47
57.265,-47.01
57.281,-48.78
57.296,-48.06
57.312,-44.68
57.328,-38.94
57.343,-31.64
57.359,-23.71
57.375,-15.98
57.390,-8.95
57.406,-2.81
57.421,2.49
57.437,7.1
57.453,11.1
57.468,14.55
57.484,17.5
57.500,19.92
57.515,21.76
57.531,22.96
57.546,23.5
57.562,23.44
57.578,22.99
57.593,22.42
57.609,22.0
57.625,21.86
57.640,21.97
57.656,22.14
57.671,22.1
57.687,21.61
57.703,20.54
57.718,18.88
57.734,16.77
57.750,14.54
57.765,12.55
57.781,11.14
57.796,10.5
57.812,10.52
57.828,10.84
57.843,10.98
57.859,10.51
57.875,9.18
57.890,7.0
57.906,4.26
57.921,1.19
57.937,-1.98
57.953,-5.19
57.968,-8.5
57.984,-12.06
58.000,-16.01
58.015,-20.42
58.031,-25.3
58.046,-30.42
58.062,-35.43
58.078,-39.72
58.093,-42.61
58.109,-43.44
58.125,-41.8
58.140,-37.6
58.156,-31.31
58.171,-23.64
58.187,-15.5
58.203,-7.7
58.218,-0.74
58.234,5.23
58.250,10.32
58.265,14.7
58.281,18.49
58.296,21.65
58.312,24.03
58.328,25.54
58.343,26.16
58.359,26.07
58.375,25.49
58.390,24.67
58.406,23.74
58.421,22.78
58.437,21.78
58.453,20.69
58.468,19.51
58.484,18.26
58.500,16.95
58.515,15.63
58.531,14.24
58.546,12.78
58.562,11.23
58.578,9.65
58.593,8.15
58.609,6.91
58.625,6.04
58.640,5.54
58.656,5.23
58.671,4.78
58.687,3.84
58.703,2.1
58.718,-0.58
58.734,-4.13
58.750,-8.29
58.765,-12.79
58.781,-17.37
58.796,-21.92
58.812,-26.46
58.828,-31.04
58.843,-35.56
58.859,-39.58
58.875,-42.38
58.890,-43.01
58.906,-40.74
58.921,-35.28
58.937,-26.93
58.953,-16.4
58.968,-4.6
58.984,7.69
59.000,19.81
59.015,31.16
59.031,41.01
59.046,48.58
59.062,53.25
59.078,54.82
59.093,53.57
59.109,50.24
59.125,45.64
59.140,40.37
59.156,34.78
59.171,28.98
59.187,23.13
59.203,17.59
59.218,12.9
59.234,9.56
59.250,7.78
59.265,7.38
59.281,7.84
59.296,8.54
59.312,9.04
59.328,9.17
59.343,9.0
59.359,8.74
59.375,8.57
59.390,8.57
59.406,8.67
59.421,8.74
59.437,8.6
59.453,8.11
59.468,7.15
59.484,5.62
59.500,3.52
59.515,0.92
59.531,-2.02
59.546,-5.15
59.562,-8.39
59.578,-11.81
59.593,-15.56
59.609,-19.79
59.625,-24.59
59.640,-29.91
59.656,-35.52
59.671,-41.03
59.687,-45.87
59.703,-49.34
59.718,-50.68
59.734,-49.34
59.750,-45.14
59.765,-38.4
59.781,-29.87
59.796,-20.55
59.812,-11.37
59.828,-2.99
59.843,4.21
59.859,10.19
59.875,15.07
59.890,19.02
59.906,22.28
59.921,25.11
59.937,27.64
59.953,29.98
59.968,32.12
59.984,33.94
