timestamp,value
00.000,66.11
00.015,63.93
00.031,60.8
00.046,55.97
00.062,48.42
00.078,37.19
00.093,22.07
00.109,4.0
00.125,-15.05
00.140,-33.09
00.156,-49.21
00.171,-64.03
00.187,-78.96
00.203,-94.49
00.218,-108.74
00.234,-117.27
00.250,-114.89
00.265,-98.16
00.281,-67.63
00.296,-27.87
00.312,14.28
00.328,52.69
00.343,84.1
00.359,108.54
00.375,128.04
00.390,144.52
00.406,158.55
00.421,169.41
00.437,176.06
00.453,178.12
00.468,176.16
00.484,171.06
00.500,163.37
00.515,153.25
00.531,140.95
00.546,127.07
00.562,112.61
00.578,98.27
00.593,83.75
00.609,67.68
00.625,48.27
00.640,24.42
00.656,-3.39
00.671,-33.07
00.687,-61.65
00.703,-86.41
00.718,-105.74
00.734,-119.34
00.750,-127.78
00.765,-131.76
00.781,-131.7
00.796,-127.62
00.812,-119.52
00.828,-107.84
00.843,-93.63
00.859,-78.3
00.875,-63.11
00.890,-48.85
00.906,-35.68
00.921,-23.45
00.937,-12.23
00.953,-2.51
00.968,4.77
00.984,8.75
01.000,9.02
01.015,5.87
01.031,0.18
01.046,-6.94
01.062,-14.44
01.078,-21.36
01.093,-26.81
01.109,-30.05
01.125,-30.67
01.140,-28.88
01.156,-25.61
01.171,-22.18
01.187,-19.8
01.203,-19.02
01.218,-19.58
01.234,-20.65
01.250,-21.33
01.265,-21.01
01.281,-19.63
01.296,-17.53
01.312,-15.18
01.328,-13.05
01.343,-11.49
01.359,-10.86
01.375,-11.5
01.390,-13.69
01.406,-17.48
01.421,-22.54
01.437,-28.19
01.453,-33.46
01.468,-37.38
01.484,-39.19
01.500,-38.52
01.515,-35.54
01.531,-30.77
01.546,-24.97
01.562,-18.95
01.578,-13.24
01.593,-8.18
01.609,-3.85
01.625,-0.35
01.640,2.34
01.656,4.23
01.671,5.6
01.687,6.82
01.703,8.17
01.718,9.54
01.734,10.3
01.750,9.52
01.765,6.42
01.781,0.99
01.796,-5.74
01.812,-11.82
01.828,-15.12
01.843,-14.17
01.859,-8.86
01.875,-0.45
01.890,8.99
01.906,17.33
01.921,23.27
01.937,26.67
01.953,28.24
01.968,29.01
01.984,29.56
02.000,29.77
02.015,28.99
02.031,26.59
02.046,22.4
02.062,17.01
02.078,11.54
02.093,7.23
02.109,4.96
02.125,4.86
02.140,6.54
02.156,9.27
02.171,12.46
02.187,15.89
02.203,19.57
02.218,23.52
02.234,27.41
02.250,30.5
02.265,31.83
02.281,30.8
02.296,27.68
02.312,23.73
02.328,20.79
02.343,20.5
02.359,23.57
02.375,29.32
02.390,36.26
02.406,42.73
02.421,47.71
02.437,51.11
02.453,53.4
02.468,54.87
02.484,55.22
02.500,53.53
02.515,48.73
02.531,40.49
02.546,29.51
02.562,17.37
02.578,5.88
02.593,-3.72
02.609,-11.22
02.625,-17.32
02.640,-23.08
02.656,-29.39
02.671,-36.43
02.687,-43.77
02.703,-50.81
02.718,-57.18
02.734,-62.87
02.750,-68.14
02.765,-73.02
02.781,-76.99
02.796,-78.88
02.812,-77.35
02.828,-71.35
02.843,-60.76
02.859,-46.53
02.875,-30.35
02.890,-13.97
02.906,1.36
02.921,15.02
02.937,26.72
02.953,36.07
02.968,42.37
02.984,44.75
03.000,42.68
03.015,36.46
03.031,27.42
03.046,17.69
03.062,9.44
03.078,4.19
03.093,2.32
03.109,2.96
03.125,4.42
03.140,4.89
03.156,3.15
03.171,-0.95
03.187,-6.56
03.203,-12.19
03.218,-16.1
03.234,-16.84
03.250,-13.62
03.265,-6.37
03.281,4.2
03.296,16.93
03.312,30.52
03.328,43.52
03.343,54.8
03.359,63.73
03.375,70.21
03.390,74.48
03.406,77.03
03.421,78.33
03.437,78.84
03.453,79.22
03.468,79.86
03.484,80.85
03.500,81.68
03.515,81.23
03.531,78.11
03.546,71.39
03.562,60.99
03.578,47.86
03.593,33.55
03.609,18.9
03.625,3.69
03.640,-13.53
03.656,-34.7
03.671,-61.37
03.687,-94.14
03.703,-132.65
03.718,-175.88
03.734,-218.64
03.750,-254.38
03.765,-275.98
03.781,-278.35
03.796,-260.61
03.812,-226.2
03.828,-181.15
03.843,-131.77
03.859,-83.04
03.875,-38.0
03.890,1.35
03.906,33.99
03.921,59.23
03.937,76.51
03.953,85.82
03.968,87.96
03.984,84.51
04.000,77.52
04.015,69.24
04.031,61.18
04.046,54.12
04.062,48.27
04.078,43.66
04.093,40.57
04.109,39.65
04.125,41.71
04.140,47.49
04.156,57.35
04.171,70.69
04.187,86.08
04.203,101.36
04.218,114.31
04.234,123.38
04.250,127.46
04.265,126.37
04.281,120.78
04.296,111.82
04.312,100.38
04.328,87.08
04.343,71.97
04.359,54.75
04.375,34.95
04.390,12.35
04.406,-12.7
04.421,-39.12
04.437,-65.53
04.453,-90.77
04.468,-114.17
04.484,-135.83
04.500,-156.46
04.515,-176.7
04.531,-196.12
04.546,-212.97
04.562,-224.26
04.578,-226.71
04.593,-217.7
04.609,-196.24
04.625,-163.23
04.640,-121.51
04.656,-75.19
04.671,-28.83
04.687,12.98
04.703,46.42
04.718,69.62
04.734,83.6
04.750,91.12
04.765,97.46
04.781,108.6
04.796,128.18
04.812,155.18
04.828,182.44
04.843,199.54
04.859,198.34
04.875,176.72
04.890,138.99
04.906,93.72
04.921,50.63
04.937,15.08
04.953,-10.5
04.968,-26.7
04.984,-36.7
05.000,-45.39
05.015,-57.9
05.031,-78.33
05.046,-106.21
05.062,-138.37
05.078,-168.94
05.093,-190.83
05.109,-196.84
05.125,-180.22
05.140,-135.6
05.156,-61.41
05.171,37.08
05.187,146.41
05.203,246.6
05.218,316.93
05.234,341.8
05.250,315.93
05.265,245.61
05.281,145.51
05.296,32.57
05.312,-79.52
05.328,-182.6
05.343,-273.14
05.359,-342.17
05.375,-379.45
05.390,-378.81
05.406,-343.08
05.421,-283.67
05.437,-215.33
05.453,-150.91
05.468,-98.29
05.484,-59.93
05.500,-33.65
05.515,-15.83
05.531,-3.12
05.546,6.46
05.562,13.46
05.578,17.44
05.593,17.86
05.609,14.32
05.625,6.75
05.640,-3.97
05.656,-17.51
05.671,-32.47
05.687,-46.27
05.703,-54.49
05.718,-52.4
05.734,-37.12
05.750,-9.76
05.765,24.11
05.781,57.3
05.796,82.37
05.812,95.09
05.828,95.11
05.843,85.02
05.859,68.68
05.875,49.39
05.890,28.44
05.906,6.24
05.921,-16.38
05.937,-37.84
05.953,-56.01
05.968,-69.24
05.984,-77.38
06.000,-81.75
06.015,-83.7
06.031,-84.69
06.046,-85.36
06.062,-85.11
06.078,-82.39
06.093,-75.06
06.109,-60.93
06.125,-38.64
06.140,-13.59
06.156,10.42
06.171,30.7
06.187,45.87
06.203,56.15
06.218,63.22
06.234,69.63
06.250,77.85
06.265,88.86
06.281,102.51
06.296,118.45
06.312,135.87
06.328,154.48
06.343,174.52
06.359,196.96
06.375,223.26
06.390,255.12
06.406,293.97
06.421,340.94
06.437,396.63
06.453,458.88
06.468,522.02
06.484,577.24
06.500,614.61
06.515,626.24
06.531,609.42
06.546,567.45
06.562,508.18
06.578,441.31
06.593,374.48
06.609,312.06
06.625,255.54
06.640,204.96
06.656,159.95
06.671,120.17
06.687,84.99
06.703,52.99
06.718,22.64
06.734,-7.45
06.750,-37.26
06.765,-65.53
06.781,-90.29
06.796,-110.22
06.812,-125.57
06.828,-138.09
06.843,-149.91
06.859,-161.97
06.875,-173.4
06.890,-181.66
06.906,-183.8
06.921,-177.79
06.937,-163.64
06.953,-143.46
06.968,-120.69
06.984,-98.85
07.000,-80.27
07.015,-65.9
07.031,-55.28
07.046,-47.26
07.062,-40.63
07.078,-34.59
07.093,-28.8
07.109,-23.37
07.125,-18.73
07.140,-15.27
07.156,-13.12
07.171,-11.82
07.187,-10.1
07.203,-6.3
07.218,1.27
07.234,13.33
07.250,29.15
07.265,46.01
07.281,60.03
07.296,67.2
07.312,64.78
07.328,52.24
07.343,31.18
07.359,4.72
07.375,-23.64
07.390,-50.96
07.406,-75.41
07.421,-95.88
07.437,-111.71
07.453,-122.26
07.468,-127.01
07.484,-125.97
07.500,-119.93
07.515,-110.55
07.531,-99.93
07.546,-90.01
07.562,-81.84
07.578,-75.46
07.593,-70.09
07.609,-64.87
07.625,-59.38
07.640,-53.96
07.656,-49.38
07.671,-46.37
07.687,-45.06
07.703,-44.82
07.718,-44.54
07.734,-43.11
07.750,-40.05
07.765,-35.66
07.781,-30.9
07.796,-26.89
07.812,-24.4
07.828,-23.61
07.843,-24.11
07.859,-25.17
07.875,-26.09
07.890,-26.47
07.906,-26.38
07.921,-26.26
07.937,-27.01
07.953,-29.61
07.968,-34.83
07.984,-42.81
08.000,-52.87
08.015,-63.62
08.031,-73.55
08.046,-81.55
08.062,-87.36
08.078,-91.61
08.093,-95.39
08.109,-99.68
08.125,-105.01
08.140,-111.39
08.156,-118.19
08.171,-124.05
08.187,-126.92
08.203,-124.48
08.218,-114.92
08.234,-98.02
08.250,-75.64
08.265,-51.41
08.281,-29.41
08.296,-12.68
08.312,-2.33
08.328,2.26
08.343,2.16
08.359,-2.09
08.375,-10.85
08.390,-24.57
08.406,-42.89
08.421,-63.99
08.437,-85.17
08.453,-103.95
08.468,-119.08
08.484,-130.91
08.500,-140.59
08.515,-149.11
08.531,-156.52
08.546,-161.8
08.562,-163.33
08.578,-159.71
08.593,-150.32
08.609,-135.51
08.625,-116.66
08.640,-96.18
08.656,-77.66
08.671,-65.49
08.687,-63.92
08.703,-75.68
08.718,-100.42
08.734,-134.24
08.750,-170.61
08.765,-202.57
08.781,-225.25
08.796,-237.46
08.812,-241.42
08.828,-240.99
08.843,-239.7
08.859,-239.47
08.875,-240.67
08.890,-242.81
08.906,-245.48
08.921,-248.25
08.937,-250.3
08.953,-249.9
08.968,-244.58
08.984,-231.88
09.000,-210.82
09.015,-182.48
09.031,-149.76
09.046,-116.81
09.062,-87.94
09.078,-66.95
09.093,-56.42
09.109,-57.25
09.125,-68.1
09.140,-85.73
09.156,-105.51
09.171,-122.37
09.187,-132.15
09.203,-132.52
09.218,-123.58
09.234,-107.28
09.250,-86.27
09.265,-62.42
09.281,-36.41
09.296,-7.52
09.312,25.84
09.328,65.21
09.343,111.19
09.359,162.48
09.375,215.59
09.390,265.15
09.406,305.04
09.421,329.85
09.437,336.62
09.453,326.0
09.468,301.95
09.484,270.65
09.500,238.16
09.515,208.35
09.531,182.26
09.546,158.77
09.562,136.17
09.578,113.88
09.593,92.74
09.609,74.29
09.625,60.05
09.640,50.67
09.656,45.77
09.671,44.33
09.687,45.23
09.703,47.62
09.718,51.05
09.734,55.01
09.750,58.67
09.765,61.17
09.781,62.03
09.796,61.36
09.812,60.05
09.828,59.49
09.843,61.11
09.859,65.78
09.875,73.47
09.890,83.08
09.906,92.96
09.921,101.51
09.937,107.68
09.953,111.34
09.968,113.13
09.984,114.25
10.000,116.0
10.015,119.26
10.031,124.07
10.046,129.89
10.062,135.59
10.078,140.21
10.093,143.59
10.109,146.3
10.125,149.06
10.140,151.83
10.156,153.29
10.171,150.92
10.187,142.27
10.203,125.86
10.218,101.99
10.234,72.78
10.250,41.33
10.265,10.79
10.281,-16.49
10.296,-39.13
10.312,-56.5
10.328,-68.29
10.343,-74.56
10.359,-75.76
10.375,-72.89
10.390,-67.38
10.406,-60.68
10.421,-53.82
10.437,-47.25
10.453,-40.88
10.468,-34.55
10.484,-28.45
10.500,-23.29
10.515,-19.87
10.531,-18.84
10.546,-20.1
10.562,-22.67
10.578,-25.11
10.593,-25.97
10.609,-24.31
10.625,-19.9
10.640,-13.12
10.656,-4.77
10.671,4.1
10.687,12.56
10.703,19.95
10.718,25.97
10.734,30.58
10.750,34.0
10.765,36.59
10.781,38.64
10.796,40.2
10.812,40.93
10.828,40.26
10.843,37.72
10.859,33.38
10.875,28.09
10.890,23.18
10.906,20.04
10.921,19.43
10.937,21.16
10.953,24.32
10.968,27.9
10.984,31.38
11.000,34.97
11.015,39.33
11.031,44.99
11.046,51.78
11.062,58.76
11.078,64.59
11.093,68.17
11.109,69.21
11.125,68.23
11.140,66.07
11.156,63.28
11.171,59.76
11.187,54.9
11.203,48.05
11.218,39.09
11.234,28.57
11.250,17.42
11.265,6.38
11.281,-4.64
11.296,-16.73
11.312,-31.52
11.328,-50.37
11.343,-73.6
11.359,-100.11
11.375,-127.52
11.390,-152.83
11.406,-173.17
11.421,-186.45
11.437,-191.93
11.453,-190.16
11.468,-182.52
11.484,-170.7
11.500,-156.25
11.515,-140.3
11.531,-123.67
11.546,-106.8
11.562,-89.55
11.578,-71.06
11.593,-49.82
11.609,-24.33
11.625,5.79
11.640,39.03
11.656,71.93
11.671,100.25
11.687,120.78
11.703,132.86
11.718,138.69
11.734,142.12
11.750,146.75
11.765,154.55
11.781,165.64
11.796,179.0
11.812,193.53
11.828,208.62
11.843,224.0
11.859,239.02
11.875,252.14
11.890,261.12
11.906,263.72
11.921,258.39
11.937,244.62
11.953,222.35
11.968,191.76
11.984,153.39
12.000,108.46
12.015,59.54
12.031,10.66
12.046,-33.53
12.062,-68.82
12.078,-92.53
12.093,-104.16
12.109,-105.23
12.125,-98.57
12.140,-87.54
12.156,-75.3
12.171,-64.45
12.187,-57.03
12.203,-54.75
12.218,-58.93
12.234,-70.52
12.250,-89.55
12.265,-114.45
12.281,-141.56
12.296,-165.21
12.312,-179.09
12.328,-178.16
12.343,-160.68
12.359,-128.86
12.375,-88.33
12.390,-46.44
12.406,-10.19
12.421,15.11
12.437,26.99
12.453,25.99
12.468,15.66
12.484,1.94
12.500,-8.18
12.515,-8.99
12.531,1.5
12.546,20.22
12.562,39.53
12.578,50.15
12.593,45.02
12.609,22.37
12.625,-13.4
12.640,-53.47
12.656,-87.95
12.671,-109.38
12.687,-114.58
12.703,-105.06
12.718,-85.49
12.734,-61.71
12.750,-39.02
12.765,-21.15
12.781,-10.04
12.796,-5.96
12.812,-8.14
12.828,-14.95
12.843,-24.51
12.859,-34.79
12.875,-43.89
12.890,-50.27
12.906,-52.84
12.921,-51.17
12.937,-45.3
12.953,-35.6
12.968,-22.42
12.984,-6.16
13.000,12.39
13.015,31.57
13.031,48.65
13.046,60.31
13.062,63.7
13.078,57.85
13.093,44.58
13.109,28.42
13.125,15.3
13.140,10.34
13.156,16.1
13.171,31.33
13.187,51.57
13.203,70.56
13.218,82.15
13.234,82.09
13.250,69.15
13.265,45.14
13.281,14.49
13.296,-17.0
13.312,-43.76
13.328,-61.63
13.343,-68.85
13.359,-66.08
13.375,-55.88
13.390,-41.72
13.406,-27.04
13.421,-14.55
13.437,-5.95
13.453,-2.05
13.468,-2.84
13.484,-7.69
13.500,-15.43
13.515,-24.4
13.531,-32.69
13.546,-38.62
13.562,-41.13
13.578,-40.29
13.593,-37.12
13.609,-33.09
13.625,-29.24
13.640,-25.51
13.656,-20.5
13.671,-12.0
13.687,1.92
13.703,21.89
13.718,46.57
13.734,72.68
13.750,95.82
13.765,111.4
13.781,115.73
13.796,106.87
13.812,85.33
13.828,54.18
13.843,18.81
13.859,-14.19
13.875,-38.62
13.890,-50.29
13.906,-48.26
13.921,-34.72
13.937,-14.13
13.953,8.29
13.968,27.88
13.984,41.45
14.000,47.48
14.015,45.93
14.031,37.97
14.046,25.54
14.062,11.11
14.078,-2.85
14.093,-14.44
14.109,-22.9
14.125,-28.72
14.140,-33.37
14.156,-38.51
14.171,-45.14
14.187,-53.15
14.203,-61.45
14.218,-68.54
14.234,-73.49
14.250,-76.5
14.265,-78.93
14.281,-82.68
14.296,-89.32
14.312,-99.05
14.328,-110.34
14.343,-119.98
14.359,-123.79
14.375,-117.71
14.390,-99.03
14.406,-67.69
14.421,-26.88
14.437,17.13
14.453,56.58
14.468,84.19
14.484,95.59
14.500,90.52
14.515,72.77
14.531,48.67
14.546,24.81
14.562,6.12
14.578,-5.11
14.593,-8.94
14.609,-6.99
14.625,-1.28
14.640,6.3
14.656,14.15
14.671,20.83
14.687,25.06
14.703,26.05
14.718,23.78
14.734,19.35
14.750,14.6
14.765,11.51
14.781,11.33
14.796,14.1
14.812,18.53
14.828,22.62
14.843,24.51
14.859,23.12
14.875,18.58
14.890,12.05
14.906,5.14
14.921,-0.71
14.937,-4.8
14.953,-7.22
14.968,-8.66
14.984,-9.84
15.000,-11.22
15.015,-12.75
15.031,-14.04
15.046,-14.57
15.062,-14.04
15.078,-12.43
15.093,-9.91
15.109,-6.83
15.125,-3.57
15.140,-0.75
15.156,0.9
15.171,0.57
15.187,-2.22
15.203,-7.21
15.218,-13.45
15.234,-19.49
15.250,-24.03
15.265,-26.47
15.281,-27.22
15.296,-27.37
15.312,-28.34
15.328,-31.23
15.343,-36.48
15.359,-44.06
15.375,-53.76
15.390,-65.49
15.406,-79.09
15.421,-94.31
15.437,-110.61
15.453,-127.44
15.468,-144.15
15.484,-159.67
15.500,-172.32
15.515,-179.52
15.531,-178.26
15.546,-165.85
15.562,-141.0
15.578,-104.17
15.593,-57.67
15.609,-4.69
15.625,51.9
15.640,110.61
15.656,171.3
15.671,234.25
15.687,299.19
15.703,364.33
15.718,426.67
15.734,482.64
15.750,529.21
15.765,564.95
15.781,590.54
15.796,607.96
15.812,618.36
15.828,620.24
15.843,609.43
15.859,580.97
15.875,532.27
15.890,465.24
15.906,385.92
15.921,302.92
15.937,224.32
15.953,155.03
15.968,95.7
15.984,43.97
16.000,-3.17
16.015,-47.68
16.031,-90.34
16.046,-133.25
16.062,-178.66
16.078,-227.51
16.093,-277.9
16.109,-325.32
16.125,-363.9
16.140,-388.21
16.156,-395.5
16.171,-387.05
16.187,-370.98
16.203,-355.96
16.218,-346.84
16.234,-342.41
16.250,-337.95
16.265,-328.83
16.281,-312.74
16.296,-290.02
16.312,-262.66
16.328,-238.54
16.343,-223.49
16.359,-219.06
16.375,-222.37
16.390,-229.76
16.406,-239.37
16.421,-250.86
16.437,-264.11
16.453,-278.26
16.468,-299.29
16.484,-331.53
16.500,-375.84
16.515,-428.42
16.531,-484.18
16.546,-539.22
16.562,-591.09
16.578,-637.9
16.593,-633.22
16.609,-549.99
16.625,-395.36
16.640,-210.03
16.656,-35.84
16.671,105.95
16.687,213.18
16.703,292.36
16.718,352.02
16.734,400.48
16.750,438.14
16.765,467.61
16.781,492.03
16.796,514.58
16.812,535.16
16.828,549.97
16.843,553.45
16.859,542.74
16.875,519.94
16.890,476.56
16.906,420.02
16.921,361.62
16.937,311.72
16.953,269.58
16.968,233.03
16.984,200.92
17.000,174.58
17.015,156.95
17.031,150.11
17.046,155.5
17.062,171.44
17.078,194.71
17.093,220.55
17.109,244.45
17.125,262.49
17.140,272.77
17.156,275.61
17.171,270.79
17.187,258.51
17.203,237.11
17.218,204.75
17.234,160.29
17.250,104.79
17.265,41.02
17.281,-26.98
17.296,-94.83
17.312,-159.26
17.328,-217.09
17.343,-265.76
17.359,-301.84
17.375,-321.69
17.390,-322.4
17.406,-304.01
17.421,-270.48
17.437,-228.69
17.453,-186.24
17.468,-148.85
17.484,-119.19
17.500,-96.54
17.515,-78.18
17.531,-61.13
17.546,-43.89
17.562,-26.7
17.578,-10.46
17.593,4.5
17.609,18.97
17.625,34.22
17.640,51.06
17.656,68.76
17.671,84.81
17.687,95.36
17.703,96.57
17.718,86.24
17.734,64.69
17.750,34.58
17.765,0.13
17.781,-34.3
17.796,-65.74
17.812,-93.32
17.828,-117.77
17.843,-140.45
17.859,-161.71
17.875,-180.02
17.890,-192.24
17.906,-194.47
17.921,-184.0
17.937,-160.34
17.953,-125.74
17.968,-84.57
17.984,-42.02
18.000,-2.76
18.015,29.56
18.031,52.44
18.046,64.25
18.062,64.87
18.078,56.9
18.093,45.88
18.109,39.26
18.125,43.72
18.140,61.86
18.156,90.0
18.171,118.14
18.187,133.3
18.203,125.58
18.218,94.02
18.234,48.76
18.250,7.79
18.265,-10.95
18.281,2.51
18.296,45.51
18.312,103.61
18.328,156.7
18.343,188.3
18.359,192.07
18.375,172.26
18.390,138.89
18.406,101.09
18.421,62.53
18.437,21.63
18.453,-25.28
18.468,-81.82
18.484,-145.77
18.500,-208.7
18.515,-260.26
18.531,-293.46
18.546,-307.71
18.562,-308.05
18.578,-301.59
18.593,-294.75
18.609,-295.88
18.625,-308.91
18.640,-332.29
18.656,-360.41
18.671,-387.14
18.687,-406.5
18.703,-411.7
18.718,-395.92
18.734,-355.58
18.750,-300.49
18.765,-244.58
18.781,-199.33
18.796,-169.58
18.812,-155.01
18.828,-151.57
18.843,-152.74
18.859,-152.39
18.875,-147.85
18.890,-150.66
18.906,-171.39
18.921,-211.93
18.937,-265.0
18.953,-321.63
18.968,-376.55
18.984,-429.0
19.000,-481.49
19.015,-475.17
19.031,-383.6
19.046,-229.07
19.062,-64.83
19.078,69.98
19.093,165.02
19.109,226.79
19.125,265.5
19.140,289.91
19.156,307.42
19.171,315.16
19.187,313.18
19.203,308.01
19.218,309.43
19.234,321.83
19.250,342.14
19.265,363.35
19.281,379.53
19.296,388.58
19.312,384.28
19.328,364.4
19.343,332.87
19.359,297.61
19.375,265.24
19.390,239.28
19.406,220.59
19.421,209.28
19.437,205.15
19.453,202.53
19.468,196.71
19.484,186.03
19.500,170.65
19.515,149.63
19.531,120.86
19.546,82.67
19.562,36.8
19.578,-11.19
19.593,-56.4
19.609,-94.29
19.625,-121.9
19.640,-138.52
19.656,-148.01
19.671,-151.89
19.687,-151.78
19.703,-148.1
19.718,-141.08
19.734,-132.64
19.750,-125.39
19.765,-120.84
19.781,-117.72
19.796,-111.88
19.812,-97.84
19.828,-72.31
19.843,-36.01
19.859,5.5
19.875,43.68
19.890,70.64
19.906,82.15
19.921,79.04
19.937,66.22
19.953,50.0
19.968,34.88
19.984,22.81
20.000,13.7
20.015,6.7
20.031,1.6
20.046,-1.36
20.062,-2.1
20.078,-1.19
20.093,-0.11
20.109,-1.04
20.125,-5.99
20.140,-15.74
20.156,-29.62
20.171,-45.58
20.187,-61.2
20.203,-74.69
20.218,-85.42
20.234,-93.94
20.250,-101.47
20.265,-108.9
20.281,-115.89
20.296,-122.27
20.312,-125.96
20.328,-124.53
20.343,-116.38
20.359,-101.41
20.375,-81.02
20.390,-57.19
20.406,-31.73
20.421,-5.5
20.437,21.67
20.453,50.76
20.468,82.57
20.484,117.47
20.500,155.4
20.515,195.93
20.531,237.98
20.546,278.78
20.562,313.19
20.578,334.18
20.593,334.59
20.609,309.94
20.625,260.42
20.640,191.12
20.656,110.09
20.671,25.42
20.687,-56.93
20.703,-133.4
20.718,-201.49
20.734,-258.03
20.750,-298.84
20.765,-319.98
20.781,-319.81
20.796,-300.38
20.812,-267.15
20.828,-227.12
20.843,-186.31
20.859,-148.33
20.875,-114.21
20.890,-83.33
20.906,-54.8
20.921,-28.28
20.937,-4.06
20.953,17.44
20.968,36.21
20.984,53.21
21.000,70.3
21.015,89.81
21.031,113.86
21.046,143.35
21.062,177.24
21.078,212.49
21.093,244.24
21.109,267.29
21.125,277.69
21.140,274.16
21.156,258.42
21.171,234.58
21.187,207.51
21.203,181.13
21.218,157.54
21.234,137.11
21.250,119.29
21.265,103.59
21.281,90.07
21.296,79.09
21.312,70.88
21.328,65.1
21.343,60.77
21.359,56.72
21.375,52.06
21.390,46.43
21.406,40.11
21.421,33.76
21.437,28.05
21.453,23.38
21.468,19.75
21.484,16.79
21.500,13.96
21.515,10.87
21.531,7.34
21.546,3.48
21.562,-0.38
21.578,-3.94
21.593,-7.01
21.609,-9.65
21.625,-12.06
21.640,-14.51
21.656,-17.18
21.671,-20.05
21.687,-22.87
21.703,-25.31
21.718,-27.0
21.734,-27.77
21.750,-27.69
21.765,-27.0
21.781,-26.11
21.796,-25.43
21.812,-25.22
21.828,-25.47
21.843,-25.94
21.859,-26.29
21.875,-26.26
21.890,-25.83
21.906,-25.2
21.921,-24.71
21.937,-24.69
21.953,-25.19
21.968,-26.09
21.984,-27.07
22.000,-27.82
22.015,-28.13
22.031,-27.89
22.046,-27.05
22.062,-25.56
22.078,-23.37
22.093,-20.42
22.109,-16.82
22.125,-12.82
22.140,-8.78
22.156,-5.05
22.171,-1.83
22.187,0.95
22.203,3.41
22.218,5.74
22.234,7.97
22.250,9.91
22.265,11.24
22.281,11.67
22.296,11.11
22.312,9.72
22.328,7.93
22.343,6.17
22.359,4.8
22.375,3.97
22.390,3.63
22.406,3.59
22.421,3.7
22.437,3.86
22.453,4.09
22.468,4.43
22.484,4.82
22.500,5.07
22.515,4.91
22.531,4.06
22.546,2.32
22.562,-0.32
22.578,-3.72
22.593,-7.65
22.609,-11.84
22.625,-16.09
22.640,-20.23
22.656,-24.26
22.671,-28.24
22.687,-32.27
22.703,-36.39
22.718,-40.52
22.734,-44.51
22.750,-48.23
22.765,-51.64
22.781,-54.81
22.796,-57.79
22.812,-60.48
22.828,-62.56
22.843,-63.57
22.859,-63.1
22.875,-61.06
22.890,-57.74
22.906,-53.72
22.921,-49.63
22.937,-45.96
22.953,-42.9
22.968,-40.46
22.984,-38.65
23.000,-37.55
23.015,-37.34
23.031,-38.22
23.046,-40.34
23.062,-43.7
23.078,-48.31
23.093,-54.16
23.109,-61.29
23.125,-69.72
23.140,-79.35
23.156,-89.88
23.171,-100.77
23.187,-111.38
23.203,-121.13
23.218,-129.78
23.234,-137.64
23.250,-145.6
23.265,-154.96
23.281,-166.9
23.296,-181.78
23.312,-198.64
23.328,-214.93
23.343,-226.98
23.359,-230.97
23.375,-224.0
23.390,-205.09
23.406,-175.35
23.421,-137.49
23.437,-94.93
23.453,-50.79
23.468,-7.21
23.484,34.65
23.500,74.41
23.515,112.05
23.531,147.53
23.546,180.72
23.562,211.42
23.578,239.3
23.593,263.96
23.609,284.78
23.625,300.93
23.640,311.41
23.656,315.37
23.671,312.29
23.687,302.37
23.703,286.54
23.718,266.39
23.734,243.82
23.750,220.61
23.765,198.13
23.781,177.09
23.796,157.73
23.812,139.98
23.828,123.79
23.843,109.25
23.859,96.55
23.875,85.89
23.890,77.22
23.906,70.17
23.921,64.1
23.937,58.3
23.953,52.18
23.968,45.47
23.984,38.17
24.000,30.47
24.015,22.66
24.031,14.96
24.046,7.53
24.062,0.54
24.078,-5.69
24.093,-10.77
24.109,-14.26
24.125,-15.93
24.140,-15.98
24.156,-14.98
24.171,-13.85
24.187,-13.42
24.203,-14.15
24.218,-16.0
24.234,-18.5
24.250,-21.05
24.265,-23.24
24.281,-25.09
24.296,-27.02
24.312,-29.65
24.328,-33.38
24.343,-38.12
24.359,-43.17
24.375,-47.38
24.390,-49.55
24.406,-48.78
24.421,-44.78
24.437,-37.93
24.453,-29.23
24.468,-20.03
24.484,-11.78
24.500,-5.8
24.515,-3.06
24.531,-4.04
24.546,-8.72
24.562,-16.61
24.578,-26.77
24.593,-38.18
24.609,-49.95
24.625,-61.61
24.640,-73.28
24.656,-85.24
24.671,-97.6
24.687,-109.84
24.703,-120.65
24.718,-128.24
24.734,-131.11
24.750,-128.71
24.765,-121.67
24.781,-111.5
24.796,-99.79
24.812,-87.51
24.828,-74.82
24.843,-61.49
24.859,-47.47
24.875,-33.3
24.890,-19.84
24.906,-7.5
24.921,4.35
24.937,17.47
24.953,34.11
24.968,56.0
24.984,83.51
25.000,115.54
25.015,149.94
25.031,184.27
25.046,216.23
25.062,243.86
25.078,265.4
25.093,279.28
25.109,284.23
25.125,279.71
25.140,266.1
25.156,244.78
25.171,217.94
25.187,188.25
25.203,158.61
25.218,131.82
25.234,110.25
25.250,95.21
25.265,86.55
25.281,82.61
25.296,80.74
25.312,78.39
25.328,74.08
25.343,68.08
25.359,62.09
25.375,58.18
25.390,57.56
25.406,59.78
25.421,62.82
25.437,63.79
25.453,60.03
25.468,49.9
25.484,33.06
25.500,10.32
25.515,-16.75
25.531,-46.17
25.546,-75.72
25.562,-103.13
25.578,-126.53
25.593,-144.72
25.609,-157.5
25.625,-165.69
25.640,-170.76
25.656,-174.29
25.671,-177.62
25.687,-181.54
25.703,-186.33
25.718,-191.4
25.734,-195.04
25.750,-194.3
25.765,-185.41
25.781,-164.9
25.796,-130.77
25.812,-83.52
25.828,-26.33
25.843,35.56
25.859,96.13
25.875,149.84
25.890,192.51
25.906,221.89
25.921,237.63
25.937,241.22
25.953,235.45
25.968,223.91
25.984,210.16
26.000,197.04
26.015,186.27
26.031,178.42
26.046,173.15
26.062,169.56
26.078,166.34
26.093,161.87
26.109,154.62
26.125,143.6
26.140,128.83
26.156,111.65
26.171,94.35
26.187,79.33
26.203,68.17
26.218,61.23
26.234,57.94
26.250,57.53
26.265,59.72
26.281,64.58
26.296,72.15
26.312,81.6
26.328,91.08
26.343,98.19
26.359,100.79
26.375,97.92
26.390,89.92
26.406,78.15
26.421,64.38
26.437,50.24
26.453,37.06
26.468,25.6
26.484,15.93
26.500,7.19
26.515,-2.32
26.531,-14.66
26.546,-31.31
26.562,-52.27
26.578,-75.94
26.593,-99.82
26.609,-121.66
26.625,-140.35
26.640,-156.34
26.656,-170.86
26.671,-185.0
26.687,-199.01
26.703,-212.55
26.718,-225.15
26.734,-237.07
26.750,-249.56
26.765,-264.46
26.781,-283.75
26.796,-309.15
26.812,-342.01
26.828,-382.95
26.843,-431.16
26.859,-483.51
26.875,-534.03
26.890,-574.67
26.906,-597.59
26.921,-597.86
26.937,-575.43
26.953,-535.24
26.968,-485.21
26.984,-433.23
27.000,-384.64
27.015,-341.35
27.031,-302.65
27.046,-266.79
27.062,-232.36
27.078,-198.59
27.093,-165.0
27.109,-131.06
27.125,-95.97
27.140,-59.26
27.156,-21.37
27.171,16.4
27.187,52.23
27.203,84.64
27.218,113.33
27.234,139.67
27.250,166.11
27.265,195.07
27.281,227.19
27.296,260.19
27.312,288.9
27.328,306.87
27.343,308.84
27.359,292.98
27.375,261.82
27.390,221.28
27.406,178.53
27.421,139.49
27.437,107.52
27.453,83.34
27.468,65.98
27.484,54.07
27.500,46.5
27.515,42.24
27.531,39.84
27.546,37.31
27.562,32.26
27.578,22.44
27.593,6.23
27.609,-17.78
27.625,-50.83
27.640,-93.53
27.656,-144.85
27.671,-201.17
27.687,-255.82
27.703,-300.37
27.718,-326.82
27.734,-330.13
27.750,-310.2
27.765,-271.8
27.781,-222.54
27.796,-170.14
27.812,-120.17
27.828,-75.28
27.843,-35.8
27.859,-0.75
27.875,31.75
27.890,63.51
27.906,96.12
27.921,130.68
27.937,167.33
27.953,204.89
27.968,240.58
27.984,270.8
28.000,292.62
28.015,306.52
28.031,315.32
28.046,323.27
28.062,334.51
28.078,351.8
28.093,375.59
28.109,403.35
28.125,429.84
28.140,448.18
28.156,454.74
28.171,447.39
28.187,426.17
28.203,393.6
28.218,354.84
28.234,316.68
28.250,285.3
28.265,264.12
28.281,253.16
28.296,254.7
28.312,269.09
28.328,295.02
28.343,329.73
28.359,369.97
28.375,412.5
28.390,453.86
28.406,490.24
28.421,518.22
28.437,541.34
28.453,562.25
28.468,580.28
28.484,590.7
28.500,587.23
28.515,565.56
28.531,525.71
28.546,472.28
28.562,377.11
28.578,233.95
28.593,57.87
28.609,-119.85
28.625,-269.62
28.640,-377.2
28.656,-443.81
28.671,-478.44
28.687,-491.59
28.703,-492.0
28.718,-480.23
28.734,-456.93
28.750,-424.92
28.765,-389.32
28.781,-355.21
28.796,-325.45
28.812,-299.75
28.828,-277.38
28.843,-256.97
28.859,-233.02
28.875,-202.27
28.890,-165.09
28.906,-125.03
28.921,-86.48
28.937,-52.56
28.953,-24.51
28.968,-2.4
28.984,14.31
29.000,28.81
29.015,42.93
29.031,56.27
29.046,66.08
29.062,70.33
29.078,67.65
29.093,57.76
29.109,41.12
29.125,18.67
29.140,-6.86
29.156,-32.88
29.171,-57.14
29.187,-77.86
29.203,-93.52
29.218,-102.99
29.234,-105.67
29.250,-101.92
29.265,-93.09
29.281,-80.68
29.296,-66.58
29.312,-52.58
29.328,-40.17
29.343,-30.46
29.359,-24.49
29.375,-23.19
29.390,-27.49
29.406,-38.05
29.421,-54.77
29.437,-76.65
29.453,-101.52
29.468,-126.81
29.484,-150.21
29.500,-170.72
29.515,-188.96
29.531,-206.92
29.546,-227.53
29.562,-254.02
29.578,-289.86
29.593,-337.58
29.609,-397.64
29.625,-467.27
29.640,-539.94
29.656,-606.18
29.671,-655.98
29.687,-682.01
29.703,-682.06
29.718,-660.18
29.734,-623.8
29.750,-580.41
29.765,-534.97
29.781,-489.13
29.796,-442.26
29.812,-393.41
29.828,-342.65
29.843,-291.29
29.859,-241.92
29.875,-195.92
29.890,-152.88
29.906,-111.45
29.921,-70.67
29.937,-30.91
29.953,6.3
29.968,38.93
29.984,65.51
30.000,84.76
30.015,97.53
30.031,106.54
30.046,115.04
30.062,125.36
30.078,138.05
30.093,152.0
30.109,165.13
30.125,182.17
30.140,202.44
30.156,221.51
30.171,233.69
30.187,235.2
30.203,225.69
30.218,207.0
30.234,181.6
30.250,151.86
30.265,119.81
30.281,86.16
30.296,51.44
30.312,17.48
30.328,-13.61
30.343,-40.31
30.359,-62.08
30.375,-79.27
30.390,-92.74
30.406,-103.36
30.421,-112.67
30.437,-121.24
30.453,-128.37
30.468,-133.19
30.484,-135.26
30.500,-134.72
30.515,-132.09
30.531,-128.09
30.546,-123.41
30.562,-119.13
30.578,-115.77
30.593,-113.16
30.609,-110.76
30.625,-107.87
30.640,-103.83
30.656,-98.06
30.671,-89.95
30.687,-78.97
30.703,-65.01
30.718,-48.07
30.734,-28.33
30.750,-6.39
30.765,16.67
30.781,39.28
30.796,59.61
30.812,75.73
30.828,86.0
30.843,89.1
30.859,84.38
30.875,71.95
30.890,52.6
30.906,27.7
30.921,-0.94
30.937,-31.25
30.953,-61.09
30.968,-88.32
30.984,-111.1
31.000,-127.98
31.015,-138.01
31.031,-140.8
31.046,-136.44
31.062,-125.42
31.078,-108.51
31.093,-86.73
31.109,-61.17
31.125,-32.97
31.140,-3.26
31.156,26.94
31.171,56.7
31.187,85.34
31.203,112.48
31.218,138.01
31.234,162.09
31.250,184.91
31.265,206.51
31.281,226.55
31.296,244.22
31.312,258.26
31.328,267.24
31.343,269.84
31.359,265.22
31.375,253.28
31.390,234.73
31.406,210.93
31.421,183.56
31.437,154.4
31.453,125.11
31.468,97.26
31.484,72.44
31.500,52.2
31.515,38.15
31.531,31.68
31.546,33.69
31.562,44.3
31.578,62.62
31.593,86.51
31.609,112.56
31.625,136.6
31.640,154.38
31.656,162.86
31.671,161.15
31.687,150.85
31.703,135.61
31.718,120.25
31.734,109.68
31.750,107.94
31.765,117.49
31.781,138.54
31.796,168.86
31.812,204.01
31.828,238.58
31.843,267.86
31.859,289.6
31.875,304.81
31.890,316.99
31.906,330.45
31.921,348.5
31.937,372.48
31.953,401.76
31.968,434.38
31.984,467.25
32.000,495.84
32.015,513.94
32.031,514.23
32.046,490.08
32.062,438.04
32.078,359.72
32.093,262.03
32.109,155.5
32.125,51.89
32.140,-38.49
32.156,-108.29
32.171,-153.64
32.187,-173.82
32.203,-170.82
32.218,-148.51
32.234,-111.84
32.250,-66.11
32.265,-16.09
32.281,34.48
32.296,82.97
32.312,127.43
32.328,166.16
32.343,197.5
32.359,220.35
32.375,234.66
32.390,241.27
32.406,241.26
32.421,234.87
32.437,221.03
32.453,197.62
32.468,162.67
32.484,115.78
32.500,59.08
32.515,-3.06
32.531,-65.11
32.546,-121.97
32.562,-170.24
32.578,-208.43
32.593,-236.64
32.609,-256.06
32.625,-268.45
32.640,-276.17
32.656,-282.47
32.671,-291.48
32.687,-307.39
32.703,-332.97
32.718,-367.74
32.734,-406.72
32.750,-441.18
32.765,-461.25
32.781,-459.49
32.796,-433.78
32.812,-387.92
32.828,-329.71
32.843,-267.86
32.859,-208.97
32.875,-156.22
32.890,-109.78
32.906,-68.49
32.921,-31.27
32.937,2.32
32.953,32.49
32.968,59.73
32.984,84.82
33.000,108.41
33.015,130.25
33.031,149.06
33.046,162.83
33.062,169.52
33.078,167.88
33.093,157.97
33.109,141.11
33.125,119.36
33.140,95.0
33.156,69.94
33.171,45.49
33.187,22.38
33.203,0.96
33.218,-18.51
33.234,-35.58
33.250,-49.54
33.265,-59.55
33.281,-64.76
33.296,-64.57
33.312,-58.83
33.328,-48.07
33.343,-33.56
33.359,-17.11
33.375,-0.81
33.390,13.45
33.406,24.43
33.421,31.71
33.437,35.64
33.453,37.07
33.468,36.87
33.484,35.6
33.500,33.42
33.515,30.16
33.531,25.73
33.546,20.27
33.562,14.34
33.578,8.62
33.593,3.68
33.609,-0.15
33.625,-2.93
33.640,-4.93
33.656,-6.47
33.671,-7.69
33.687,-8.53
33.703,-8.84
33.718,-8.6
33.734,-8.06
33.750,-7.63
33.765,-7.78
33.781,-8.76
33.796,-10.44
33.812,-12.35
33.828,-13.78
33.843,-14.12
33.859,-13.16
33.875,-11.15
33.890,-8.56
33.906,-5.78
33.921,-2.91
33.937,0.2
33.953,3.85
33.968,8.24
33.984,13.24
34.000,18.32
34.015,22.92
34.031,27.04
34.046,31.4
34.062,37.2
34.078,45.4
34.093,56.26
34.109,69.23
34.125,82.99
34.140,95.7
34.156,105.8
34.171,113.0
34.187,118.35
34.203,123.61
34.218,130.17
34.234,138.57
34.250,148.28
34.265,157.86
34.281,165.01
34.296,167.66
34.312,165.31
34.328,159.24
34.343,151.76
34.359,144.47
34.375,137.69
34.390,129.84
34.406,117.53
34.421,95.58
34.437,58.95
34.453,5.18
34.468,-64.38
34.484,-144.83
34.500,-229.9
34.515,-313.09
34.531,-387.76
34.546,-443.0
34.562,-469.3
34.578,-464.32
34.593,-433.84
34.609,-387.25
34.625,-332.48
34.640,-275.15
34.656,-218.65
34.671,-165.09
34.687,-116.37
34.703,-74.65
34.718,-41.59
34.734,-16.92
34.750,1.55
34.765,18.53
34.781,35.79
34.796,53.09
34.812,68.37
34.828,78.41
34.843,79.43
34.859,68.3
34.875,43.97
34.890,5.74
34.906,-41.67
34.921,-92.33
34.937,-139.11
34.953,-174.18
34.968,-190.69
34.984,-185.41
35.000,-160.43
35.015,-122.75
35.031,-81.95
35.046,-46.57
35.062,-22.19
35.078,-9.5
35.093,-5.43
35.109,-5.84
35.125,-8.17
35.140,-12.1
35.156,-18.37
35.171,-27.11
35.187,-36.96
35.203,-46.21
35.218,-53.32
35.234,-57.76
35.250,-60.16
35.265,-61.82
35.281,-64.05
35.296,-66.94
35.312,-70.03
35.328,-71.43
35.343,-69.7
35.359,-64.23
35.375,-55.42
35.390,-44.58
35.406,-33.42
35.421,-23.55
35.437,-15.68
35.453,-9.9
35.468,-5.73
35.484,-2.66
35.500,-0.18
35.515,2.09
35.531,4.34
35.546,6.53
35.562,8.45
35.578,10.39
35.593,12.4
35.609,14.62
35.625,17.18
35.640,20.31
35.656,24.49
35.671,30.23
35.687,38.05
35.703,48.46
35.718,62.67
35.734,81.31
35.750,103.93
35.765,128.55
35.781,151.7
35.796,169.43
35.812,178.7
35.828,178.89
35.843,167.64
35.859,147.48
35.875,122.89
35.890,98.36
35.906,76.89
35.921,59.53
35.937,46.0
35.953,35.63
35.968,27.99
35.984,22.93
36.000,20.91
36.015,21.55
36.031,23.63
36.046,25.64
36.062,26.37
36.078,25.24
36.093,22.35
36.109,18.19
36.125,13.22
36.140,8.17
36.156,3.33
36.171,-1.41
36.187,-6.25
36.203,-11.49
36.218,-17.38
36.234,-24.24
36.250,-32.34
36.265,-41.71
36.281,-51.73
36.296,-61.33
36.312,-69.05
36.328,-73.16
36.343,-72.13
36.359,-64.97
36.375,-51.7
36.390,-33.64
36.406,-13.4
36.421,5.58
36.437,19.61
36.453,25.69
36.468,22.51
36.484,10.85
36.500,-6.45
36.515,-25.41
36.531,-42.1
36.546,-53.72
36.562,-59.05
36.578,-58.56
36.593,-53.82
36.609,-46.8
36.625,-39.45
36.640,-33.3
36.656,-29.44
36.671,-28.51
36.687,-30.52
36.703,-34.98
36.718,-40.94
36.734,-47.26
36.750,-52.89
36.765,-57.03
36.781,-59.19
36.796,-59.21
36.812,-57.21
36.828,-53.42
36.843,-48.26
36.859,-42.24
36.875,-35.87
36.890,-29.6
36.906,-23.63
36.921,-17.98
36.937,-12.51
36.953,-7.1
36.968,-1.66
36.984,3.73
37.000,8.93
37.015,13.83
37.031,18.43
37.046,22.9
37.062,27.51
37.078,32.58
37.093,38.28
37.109,44.64
37.125,51.56
37.140,58.87
37.156,66.34
37.171,73.51
37.187,79.58
37.203,83.26
37.218,83.13
37.234,78.08
37.250,67.78
37.265,53.08
37.281,35.76
37.296,18.2
37.312,2.52
37.328,-9.8
37.343,-18.27
37.359,-23.1
37.375,-25.0
37.390,-24.72
37.406,-22.96
37.421,-20.35
37.437,-17.43
37.453,-14.7
37.468,-12.5
37.484,-10.98
37.500,-10.06
37.515,-9.47
37.531,-8.86
37.546,-7.97
37.562,-6.65
37.578,-4.91
37.593,-2.84
37.609,-0.43
37.625,2.52
37.640,6.4
37.656,11.6
37.671,18.32
37.687,26.44
37.703,35.42
37.718,44.44
37.734,52.68
37.750,59.61
37.765,65.19
37.781,69.78
37.796,73.86
37.812,77.71
37.828,81.2
37.843,83.71
37.859,84.43
37.875,82.54
37.890,77.57
37.906,69.36
37.921,58.03
37.937,43.81
37.953,27.02
37.968,8.25
37.984,-11.48
38.000,-30.76
38.015,-47.98
38.031,-61.65
38.046,-70.85
38.062,-75.38
38.078,-75.81
38.093,-73.18
38.109,-68.74
38.125,-63.66
38.140,-58.9
38.156,-55.21
38.171,-53.14
38.187,-53.15
38.203,-55.55
38.218,-60.43
38.234,-67.57
38.250,-76.39
38.265,-86.14
38.281,-96.05
38.296,-105.55
38.312,-114.48
38.328,-122.84
38.343,-130.71
38.359,-137.89
38.375,-143.85
38.390,-147.78
38.406,-148.78
38.421,-146.18
38.437,-139.82
38.453,-130.22
38.468,-118.39
38.484,-105.7
38.500,-93.33
38.515,-81.99
38.531,-71.63
38.546,-61.38
38.562,-49.91
38.578,-35.83
38.593,-18.2
38.609,3.07
38.625,27.05
38.640,52.04
38.656,75.82
38.671,96.32
38.687,112.05
38.703,122.3
38.718,127.18
38.734,127.36
38.750,123.84
38.765,117.61
38.781,109.67
38.796,100.91
38.812,92.1
38.828,83.83
38.843,76.39
38.859,69.69
38.875,63.35
38.890,56.88
38.906,49.89
38.921,42.25
38.937,34.15
38.953,25.92
38.968,17.97
38.984,10.59
39.000,3.96
39.015,-1.88
39.031,-6.95
39.046,-11.32
39.062,-15.06
39.078,-18.28
39.093,-21.09
39.109,-23.62
39.125,-26.02
39.140,-28.39
39.156,-30.71
39.171,-32.69
39.187,-33.76
39.203,-33.13
39.218,-30.17
39.234,-24.61
39.250,-16.77
39.265,-7.6
39.281,1.68
39.296,9.86
39.312,16.06
39.328,19.81
39.343,20.99
39.359,19.6
39.375,15.61
39.390,9.04
39.406,0.02
39.421,-10.99
39.437,-23.18
39.453,-35.42
39.468,-46.62
39.484,-55.99
39.500,-63.31
39.515,-68.97
39.531,-73.69
39.546,-78.17
39.562,-82.45
39.578,-85.73
39.593,-86.38
39.609,-82.42
39.625,-72.11
39.640,-54.68
39.656,-30.7
39.671,-2.01
39.687,28.5
39.703,57.66
39.718,82.62
39.734,101.55
39.750,114.05
39.765,121.12
39.781,124.83
39.796,127.58
39.812,131.16
39.828,135.93
39.843,140.54
39.859,142.39
39.875,138.66
39.890,127.62
39.906,109.39
39.921,85.93
39.937,60.39
39.953,35.84
39.968,14.33
39.984,-3.57
40.000,-18.38
40.015,-31.05
40.031,-42.17
40.046,-51.84
40.062,-59.75
40.078,-65.59
40.093,-69.4
40.109,-71.61
40.125,-72.67
40.140,-72.82
40.156,-71.9
40.171,-69.4
40.187,-64.86
40.203,-58.24
40.218,-50.02
40.234,-41.16
40.250,-32.64
40.265,-25.03
40.281,-18.31
40.296,-11.97
40.312,-5.36
40.328,1.99
40.343,10.06
40.359,18.41
40.375,26.2
40.390,32.61
40.406,37.11
40.421,39.6
40.437,40.38
40.453,39.92
40.468,38.68
40.484,36.89
40.500,34.58
40.515,31.72
40.531,28.33
40.546,24.62
40.562,20.92
40.578,17.53
40.593,14.69
40.609,12.42
40.625,10.59
40.640,9.03
40.656,7.67
40.671,6.45
40.687,5.37
40.703,4.35
40.718,3.18
40.734,1.57
40.750,-0.75
40.765,-4.0
40.781,-8.16
40.796,-13.0
40.812,-18.12
40.828,-23.03
40.843,-27.21
40.859,-30.26
40.875,-31.94
40.890,-32.11
40.906,-30.87
40.921,-28.41
40.937,-25.04
40.953,-21.17
40.968,-17.17
40.984,-13.35
41.000,-9.92
41.015,-6.92
41.031,-4.3
41.046,-1.96
41.062,0.23
41.078,2.37
41.093,4.52
41.109,6.65
41.125,8.82
41.140,10.94
41.156,13.1
41.171,15.3
41.187,17.57
41.203,19.94
41.218,22.36
41.234,24.75
41.250,26.9
41.265,28.58
41.281,29.52
41.296,29.63
41.312,28.93
41.328,27.55
41.343,25.71
41.359,23.58
41.375,21.28
41.390,18.81
41.406,16.19
41.421,13.39
41.437,10.48
41.453,7.47
41.468,4.36
41.484,1.1
41.500,-2.39
41.515,-6.1
41.531,-9.93
41.546,-13.68
41.562,-17.15
41.578,-20.14
41.593,-22.62
41.609,-24.53
41.625,-25.9
41.640,-26.76
41.656,-27.17
41.671,-27.13
41.687,-26.68
41.703,-25.74
41.718,-24.2
41.734,-21.88
41.750,-18.7
41.765,-14.73
41.781,-10.33
41.796,-6.05
41.812,-2.36
41.828,0.37
41.843,2.04
41.859,2.8
41.875,2.91
41.890,2.75
41.906,2.68
41.921,3.04
41.937,4.09
41.953,5.96
41.968,8.5
41.984,11.42
42.000,14.28
42.015,16.66
42.031,18.29
42.046,19.13
42.062,19.29
42.078,19.02
42.093,18.56
42.109,18.06
42.125,17.58
42.140,17.1
42.156,16.54
42.171,15.75
42.187,14.63
42.203,13.1
42.218,11.14
42.234,8.8
42.250,6.15
42.265,3.32
42.281,0.41
42.296,-2.46
42.312,-5.15
42.328,-7.54
42.343,-9.48
42.359,-10.87
42.375,-11.77
42.390,-12.27
42.406,-12.49
42.421,-12.52
42.437,-12.35
42.453,-11.87
42.468,-11.02
42.484,-9.8
42.500,-8.35
42.515,-6.88
42.531,-5.54
42.546,-4.38
42.562,-3.41
42.578,-2.6
42.593,-1.99
42.609,-1.71
42.625,-1.93
42.640,-2.71
42.656,-3.98
42.671,-5.45
42.687,-6.69
42.703,-7.25
42.718,-6.78
42.734,-5.21
42.750,-2.69
42.765,0.38
42.781,3.49
42.796,6.21
42.812,8.34
42.828,9.89
42.843,11.12
42.859,12.28
42.875,13.44
42.890,14.48
42.906,15.15
42.921,15.18
42.937,14.55
42.953,13.49
42.968,12.28
42.984,11.24
43.000,10.45
43.015,9.84
43.031,9.25
43.046,8.59
43.062,7.86
43.078,7.23
43.093,6.82
43.109,6.66
43.125,6.64
43.140,6.58
43.156,6.3
43.171,5.77
43.187,5.0
43.203,4.14
43.218,3.41
43.234,2.92
43.250,2.73
43.265,2.83
43.281,3.12
43.296,3.51
43.312,3.94
43.328,4.33
43.343,4.63
43.359,4.81
43.375,4.84
43.390,4.67
43.406,4.29
43.421,3.62
43.437,2.56
43.453,1.06
43.468,-0.95
43.484,-3.42
43.500,-6.21
43.515,-9.12
43.531,-11.81
43.546,-13.88
43.562,-14.96
43.578,-14.7
43.593,-12.92
43.609,-9.73
43.625,-5.42
43.640,-0.54
43.656,4.33
43.671,8.74
43.687,12.41
43.703,15.26
43.718,17.38
43.734,18.86
43.750,19.72
43.765,19.94
43.781,19.41
43.796,18.1
43.812,16.09
43.828,13.58
43.843,10.85
43.859,8.27
43.875,6.12
43.890,4.55
43.906,3.61
43.921,3.23
43.937,3.33
43.953,3.86
43.968,4.8
43.984,6.12
44.000,7.75
44.015,9.45
44.031,10.91
44.046,11.85
44.062,12.03
44.078,11.41
44.093,10.11
44.109,8.28
44.125,6.05
44.140,3.54
44.156,0.82
44.171,-2.0
44.187,-4.71
44.203,-7.15
44.218,-9.14
44.234,-10.58
44.250,-11.48
44.265,-11.95
44.281,-12.09
44.296,-12.03
44.312,-11.84
44.328,-11.54
44.343,-11.16
44.359,-10.72
44.375,-10.36
44.390,-10.22
44.406,-10.48
44.421,-11.24
44.437,-12.47
44.453,-13.89
44.468,-15.02
44.484,-15.31
44.500,-14.31
44.515,-11.89
44.531,-8.18
44.546,-3.58
44.562,1.44
44.578,6.4
44.593,10.94
44.609,14.85
44.625,17.92
44.640,20.07
44.656,21.2
44.671,21.31
44.687,20.47
44.703,18.87
44.718,16.74
44.734,14.33
44.750,11.83
44.765,9.28
44.781,6.7
44.796,4.07
44.812,1.42
44.828,-1.08
44.843,-3.17
44.859,-4.61
44.875,-5.28
44.890,-5.25
44.906,-4.78
44.921,-4.13
44.937,-3.47
44.953,-2.8
44.968,-2.02
44.984,-0.96
45.000,0.44
45.015,2.16
45.031,4.05
45.046,5.84
45.062,7.37
45.078,8.43
45.093,9.01
45.109,9.13
45.125,8.88
45.140,8.4
45.156,7.83
45.171,7.33
45.187,7.04
45.203,7.11
45.218,7.57
45.234,8.4
45.250,9.49
45.265,10.62
45.281,11.57
45.296,12.18
45.312,12.36
45.328,12.11
45.343,11.54
45.359,10.71
45.375,9.71
45.390,8.51
45.406,7.06
45.421,5.21
45.437,2.84
45.453,-0.03
45.468,-3.16
45.484,-6.12
45.500,-8.41
45.515,-9.63
45.531,-9.61
45.546,-8.47
45.562,-6.6
45.578,-4.51
45.593,-2.57
45.609,-0.96
45.625,0.43
45.640,1.83
45.656,3.51
45.671,5.59
45.687,8.0
45.703,10.56
45.718,12.97
45.734,15.01
45.750,16.61
45.765,17.75
45.781,18.47
45.796,18.85
45.812,18.86
45.828,18.39
45.843,17.29
45.859,15.4
45.875,12.59
45.890,8.72
45.906,3.66
45.921,-2.76
45.937,-10.6
45.953,-19.83
45.968,-30.28
45.984,-41.62
46.000,-53.33
46.015,-64.75
46.031,-75.17
46.046,-83.77
46.062,-89.7
46.078,-91.98
46.093,-89.9
46.109,-83.2
46.125,-72.27
46.140,-58.17
46.156,-42.35
46.171,-26.18
46.187,-10.39
46.203,5.38
46.218,22.91
46.234,43.94
46.250,69.18
46.265,97.49
46.281,125.99
46.296,151.01
46.312,169.5
46.328,180.0
46.343,183.27
46.359,182.54
46.375,181.12
46.390,181.0
46.406,182.47
46.421,184.56
46.437,186.15
46.453,186.79
46.468,186.72
46.484,187.09
46.500,190.91
46.515,200.48
46.531,216.82
46.546,239.17
46.562,265.34
46.578,292.22
46.593,316.42
46.609,334.44
46.625,344.28
46.640,347.35
46.656,345.66
46.671,340.7
46.687,332.2
46.703,318.5
46.718,297.35
46.734,267.5
46.750,229.5
46.765,173.58
46.781,98.94
46.796,12.13
46.812,-74.57
46.828,-148.96
46.843,-203.91
46.859,-239.32
46.875,-256.97
46.890,-264.63
46.906,-267.95
46.921,-268.22
46.937,-266.11
46.953,-262.07
46.968,-257.42
46.984,-252.88
47.000,-247.97
47.015,-242.39
47.031,-237.95
47.046,-237.97
47.062,-244.91
47.078,-260.04
47.093,-278.19
47.109,-290.66
47.125,-286.6
47.140,-258.44
47.156,-206.51
47.171,-139.04
47.187,-67.08
47.203,1.27
47.218,60.4
47.234,112.07
47.250,157.46
47.265,195.93
47.281,225.25
47.296,242.64
47.312,245.75
47.328,233.78
47.343,207.93
47.359,171.73
47.375,130.32
47.390,88.21
47.406,49.21
47.421,16.12
47.437,-9.52
47.453,-26.77
47.468,-34.93
47.484,-33.43
47.500,-22.74
47.515,-5.15
47.531,14.76
47.546,32.34
47.562,45.1
47.578,54.29
47.593,64.02
47.609,78.11
47.625,96.26
47.640,112.45
47.656,116.48
47.671,98.5
47.687,54.32
47.703,-12.4
47.718,-92.01
47.734,-173.05
47.750,-246.27
47.765,-306.24
47.781,-350.05
47.796,-375.57
47.812,-380.97
47.828,-366.14
47.843,-334.72
47.859,-295.33
47.875,-258.96
47.890,-235.09
47.906,-228.33
47.921,-237.01
47.937,-254.78
47.953,-273.36
47.968,-285.95
47.984,-289.25
48.000,-284.77
48.015,-276.81
48.031,-270.92
48.046,-272.28
48.062,-284.59
48.078,-308.67
48.093,-341.43
48.109,-376.0
48.125,-403.18
48.140,-414.85
48.156,-404.69
48.171,-370.16
48.187,-314.57
48.203,-247.16
48.218,-181.34
48.234,-130.57
48.250,-103.1
48.265,-98.68
48.281,-110.06
48.296,-124.11
48.312,-127.81
48.328,-114.14
48.343,-84.41
48.359,-46.28
48.375,-8.59
48.390,23.82
48.406,63.08
48.421,115.7
48.437,180.29
48.453,246.26
48.468,299.05
48.484,328.76
48.500,334.7
48.515,323.43
48.531,307.51
48.546,297.13
48.562,295.21
48.578,300.08
48.593,308.52
48.609,318.52
48.625,331.29
48.640,349.25
48.656,374.66
48.671,408.56
48.687,448.99
48.703,490.34
48.718,526.49
48.734,552.35
48.750,564.55
48.765,561.2
48.781,541.23
48.796,504.61
48.812,453.02
48.828,389.54
48.843,318.02
48.859,243.43
48.875,170.62
48.890,103.29
48.906,43.16
48.921,-9.78
48.937,-56.24
48.953,-96.94
48.968,-133.32
48.984,-167.22
49.000,-199.87
49.015,-231.49
49.031,-260.87
49.046,-287.03
49.062,-309.76
49.078,-329.71
49.093,-348.12
49.109,-367.11
49.125,-388.08
49.140,-410.41
49.156,-431.58
49.171,-447.04
49.187,-453.85
49.203,-450.09
49.218,-434.13
49.234,-404.76
49.250,-363.07
49.265,-312.12
49.281,-256.48
49.296,-201.07
49.312,-148.21
49.328,-100.59
49.343,-59.19
49.359,-22.89
49.375,9.22
49.390,34.46
49.406,47.23
49.421,41.65
49.437,14.94
49.453,-28.53
49.468,-82.99
49.484,-140.9
49.500,-194.19
49.515,-223.84
49.531,-216.39
49.546,-170.2
49.562,-97.49
49.578,-31.59
49.593,17.57
49.609,49.4
49.625,66.31
49.640,75.1
49.656,78.5
49.671,80.53
49.687,82.51
49.703,85.03
49.718,88.73
49.734,96.45
49.750,108.26
49.765,123.38
49.781,141.49
49.796,161.52
49.812,180.76
49.828,197.33
49.843,209.28
49.859,215.22
49.875,216.03
49.890,210.53
49.906,196.66
49.921,172.9
49.937,138.23
49.953,91.51
49.968,35.18
49.984,-21.15
50.000,-64.33
50.015,-83.76
50.031,-79.03
50.046,-58.78
50.062,-34.89
50.078,-17.27
50.093,-10.38
50.109,-13.46
50.125,-23.1
50.140,-36.27
50.156,-51.44
50.171,-68.94
50.187,-88.85
50.203,-109.2
50.218,-127.48
50.234,-140.6
50.250,-146.56
50.265,-145.46
50.281,-139.09
50.296,-130.13
50.312,-120.94
50.328,-112.69
50.343,-104.77
50.359,-96.04
50.375,-85.36
50.390,-72.29
50.406,-57.35
50.421,-41.61
50.437,-26.05
50.453,-10.49
50.468,3.61
50.484,16.73
50.500,29.99
50.515,44.38
50.531,60.43
50.546,78.0
50.562,96.51
50.578,115.12
50.593,133.17
50.609,150.33
50.625,166.99
50.640,183.6
50.656,200.3
50.671,216.83
50.687,232.54
50.703,246.68
50.718,258.82
50.734,269.3
50.750,279.67
50.765,292.6
50.781,310.44
50.796,333.99
50.812,361.52
50.828,389.04
50.843,411.36
50.859,423.62
50.875,422.56
50.890,406.93
50.906,377.27
50.921,334.98
50.937,281.95
50.953,220.53
50.968,153.77
50.984,85.31
51.000,18.8
51.015,-42.84
51.031,-98.03
51.046,-146.21
51.062,-187.29
51.078,-220.82
51.093,-245.63
51.109,-260.21
51.125,-263.51
51.140,-255.5
51.156,-237.59
51.171,-212.49
51.187,-183.53
51.203,-153.75
51.218,-124.67
51.234,-95.84
51.250,-65.13
51.265,-30.07
51.281,10.33
51.296,54.56
51.312,98.6
51.328,137.43
51.343,166.99
51.359,185.55
51.375,193.88
51.390,193.98
51.406,187.47
51.421,175.14
51.437,157.6
51.453,136.23
51.468,113.47
51.484,91.8
51.500,72.46
51.515,54.4
51.531,34.81
51.546,10.32
51.562,-20.37
51.578,-55.36
51.593,-90.37
51.609,-120.83
51.625,-144.17
51.640,-160.45
51.656,-171.56
51.671,-179.51
51.687,-186.13
51.703,-191.6
51.718,-194.78
51.734,-194.52
51.750,-190.88
51.765,-185.42
51.781,-180.72
51.796,-179.36
51.812,-183.34
51.828,-195.72
51.843,-218.47
51.859,-251.27
51.875,-290.79
51.890,-331.14
51.906,-365.22
51.921,-386.92
51.937,-393.02
51.953,-384.48
51.968,-367.91
51.984,-350.99
52.000,-338.47
52.015,-330.17
52.031,-322.38
52.046,-311.16
52.062,-295.65
52.078,-278.98
52.093,-251.07
52.109,-207.99
52.125,-150.44
52.140,-82.19
52.156,-7.26
52.171,70.78
52.187,147.71
52.203,217.01
52.218,271.35
52.234,304.89
52.250,317.63
52.265,313.09
52.281,297.1
52.296,275.83
52.312,253.39
52.328,231.39
52.343,210.04
52.359,189.64
52.375,172.71
52.390,161.58
52.406,158.4
52.421,163.98
52.437,176.95
52.453,192.92
52.468,205.22
52.484,207.01
52.500,192.9
52.515,159.25
52.531,105.79
52.546,37.17
52.562,-37.63
52.578,-107.41
52.593,-161.59
52.609,-192.3
52.625,-195.78
52.640,-174.24
52.656,-135.2
52.671,-90.01
52.687,-49.73
52.703,-21.44
52.718,-6.74
52.734,-3.45
52.750,-8.18
52.765,-18.46
52.781,-33.62
52.796,-53.09
52.812,-74.88
52.828,-94.87
52.843,-108.98
52.859,-112.55
52.875,-103.98
52.890,-85.27
52.906,-60.71
52.921,-35.51
52.937,-13.28
52.953,5.49
52.968,23.03
52.984,42.65
53.000,66.83
53.015,95.29
53.031,125.34
53.046,153.48
53.062,176.24
53.078,191.05
53.093,196.56
53.109,192.5
53.125,179.91
53.140,162.02
53.156,144.13
53.171,129.39
53.187,121.95
53.203,122.32
53.218,125.43
53.234,122.49
53.250,105.89
53.265,74.22
53.281,34.45
53.296,-1.03
53.312,-19.94
53.328,-15.91
53.343,8.38
53.359,43.37
53.375,77.54
53.390,102.18
53.406,113.68
53.421,113.17
53.437,104.61
53.453,92.69
53.468,81.2
53.484,71.09
53.500,60.35
53.515,44.71
53.531,20.28
53.546,-13.98
53.562,-54.98
53.578,-96.36
53.593,-131.08
53.609,-153.94
53.625,-163.57
53.640,-161.71
53.656,-151.33
53.671,-134.77
53.687,-113.58
53.703,-89.46
53.718,-66.07
53.734,-49.13
53.750,-44.51
53.765,-55.53
53.781,-80.96
53.796,-115.2
53.812,-150.49
53.828,-180.52
53.843,-202.68
53.859,-218.16
53.875,-229.93
53.890,-239.81
53.906,-246.7
53.921,-246.79
53.937,-235.54
53.953,-209.92
53.968,-170.18
53.984,-119.17
54.000,-60.7
54.015,1.73
54.031,65.32
54.046,127.18
54.062,183.3
54.078,228.49
54.093,257.84
54.109,268.65
54.125,262.07
54.140,243.38
54.156,220.14
54.171,199.35
54.187,184.59
54.203,175.2
54.218,166.93
54.234,154.7
54.250,135.09
54.265,107.57
54.281,74.48
54.296,39.85
54.312,8.43
54.328,-15.36
54.343,-27.92
54.359,-27.7
54.375,-15.87
54.390,3.49
54.406,24.29
54.421,40.75
54.437,49.71
54.453,52.1
54.468,51.88
54.484,53.86
54.500,60.73
54.515,72.0
54.531,84.9
54.546,95.92
54.562,102.94
54.578,105.73
54.593,105.61
54.609,104.46
54.625,104.84
54.640,109.73
54.656,122.79
54.671,147.17
54.687,182.37
54.703,224.02
54.718,264.09
54.734,293.69
54.750,306.22
54.765,300.46
54.781,279.6
54.796,250.37
54.812,220.31
54.828,192.34
54.843,165.65
54.859,137.11
54.875,104.03
54.890,65.9
54.906,25.73
54.921,-14.32
54.937,-52.52
54.953,-87.62
54.968,-122.65
54.984,-161.05
55.000,-204.17
55.015,-249.92
55.031,-293.68
55.046,-328.94
55.062,-355.18
55.078,-375.74
55.093,-395.32
55.109,-423.08
55.125,-466.15
55.140,-526.65
55.156,-600.67
55.171,-680.37
55.187,-754.75
55.203,-818.98
55.218,-871.31
55.234,-882.94
55.250,-832.56
55.265,-714.04
55.281,-542.44
55.296,-347.25
55.312,-175.9
55.328,-34.48
55.343,80.41
55.359,171.75
55.375,240.04
55.390,280.42
55.406,285.53
55.421,253.58
55.437,191.32
55.453,112.95
55.468,37.71
55.484,-21.17
55.500,-57.43
55.515,-71.32
55.531,-71.25
55.546,-66.6
55.562,-61.86
55.578,-55.14
55.593,-39.88
55.609,-7.33
55.625,46.63
55.640,121.6
55.656,213.61
55.671,314.16
55.687,413.94
55.703,505.87
55.718,585.19
55.734,649.44
55.750,683.23
55.765,672.09
55.781,611.08
55.796,509.1
55.812,383.21
55.828,250.81
55.843,124.92
55.859,12.46
55.875,-84.15
55.890,-164.76
55.906,-229.74
55.921,-279.63
55.937,-315.71
55.953,-340.61
55.968,-358.96
55.984,-373.45
56.000,-385.53
56.015,-395.87
56.031,-404.71
56.046,-411.01
56.062,-413.29
56.078,-410.68
56.093,-403.42
56.109,-392.6
56.125,-379.12
56.140,-363.57
56.156,-345.96
56.171,-325.51
56.187,-301.15
56.203,-270.92
56.218,-233.03
56.234,-186.58
56.250,-131.9
56.265,-70.4
56.281,-4.77
56.296,61.32
56.312,123.72
56.328,179.14
56.343,225.73
56.359,263.07
56.375,291.89
56.390,313.54
56.406,329.31
56.421,339.73
56.437,344.65
56.453,343.49
56.468,336.25
56.484,324.13
56.500,309.64
56.515,296.11
56.531,287.23
56.546,286.23
56.562,294.9
56.578,312.57
56.593,335.36
56.609,356.2
56.625,366.15
56.640,356.93
56.656,323.77
56.671,267.71
56.687,195.78
56.703,119.07
56.718,49.11
56.734,-5.47
56.750,-40.95
56.765,-58.55
56.781,-62.83
56.796,-59.39
56.812,-53.27
56.828,-47.84
56.843,-44.85
56.859,-44.85
56.875,-47.9
56.890,-54.35
56.906,-65.44
56.921,-82.89
56.937,-107.41
56.953,-137.13
56.968,-166.96
56.984,-190.09
57.000,-200.9
57.015,-198.09
57.031,-185.77
57.046,-171.77
57.062,-163.99
57.078,-166.63
57.093,-178.6
57.109,-194.45
57.125,-207.63
57.140,-213.36
57.156,-209.92
57.171,-198.0
57.187,-179.08
57.203,-154.29
57.218,-124.57
57.234,-91.19
57.250,-55.94
57.265,-20.87
57.281,12.6
57.296,44.53
57.312,76.15
57.328,108.94
57.343,143.64
57.359,179.45
57.375,214.37
57.390,245.97
57.406,272.42
57.421,293.0
57.437,308.12
57.453,319.01
57.468,327.32
57.484,334.61
57.500,341.48
57.515,346.62
57.531,346.6
57.546,337.01
57.562,314.46
57.578,278.59
57.593,232.63
57.609,182.64
57.625,135.26
57.640,94.98
57.656,63.33
57.671,39.25
57.687,20.74
57.703,6.32
57.718,-4.53
57.734,-12.04
57.750,-16.91
57.765,-20.56
57.781,-25.04
57.796,-31.87
57.812,-40.88
57.828,-49.89
57.843,-55.38
57.859,-54.39
57.875,-46.13
57.890,-32.88
57.906,-18.44
57.921,-7.09
57.937,-1.49
57.953,-1.6
57.968,-5.14
57.984,-9.1
58.000,-11.19
58.015,-10.64
58.031,-7.49
58.046,0.12
58.062,15.02
58.078,40.39
58.093,78.16
58.109,127.0
58.125,182.12
58.140,236.33
58.156,281.87
58.171,312.65
58.187,327.93
58.203,329.37
58.218,319.33
58.234,299.63
58.250,271.51
58.265,237.14
58.281,201.37
58.296,171.41
58.312,154.89
58.328,159.84
58.343,188.55
58.359,236.72
58.375,295.26
58.390,354.13
58.406,406.58
58.421,451.34
58.437,491.76
58.453,511.98
58.468,500.11
58.484,447.04
58.500,350.52
58.515,217.47
58.531,62.48
58.546,-96.25
58.562,-241.28
58.578,-359.82
58.593,-446.14
58.609,-498.97
58.625,-523.18
58.640,-526.41
58.656,-516.06
58.671,-497.38
58.687,-473.42
58.703,-446.11
58.718,-417.86
58.734,-391.95
58.750,-369.3
58.765,-350.06
58.781,-332.94
58.796,-315.91
58.812,-297.1
58.828,-275.74
58.843,-252.58
58.859,-229.6
58.875,-209.38
58.890,-192.61
58.906,-179.02
58.921,-167.36
58.937,-155.98
58.953,-143.54
58.968,-129.61
58.984,-114.7
59.000,-100.11
59.015,-87.36
59.031,-76.93
59.046,-68.65
59.062,-61.79
59.078,-55.39
59.093,-48.7
59.109,-41.45
59.125,-33.88
59.140,-26.5
59.156,-19.92
59.171,-14.16
59.187,-8.93
59.203,-3.61
59.218,2.47
59.234,9.78
59.250,18.45
59.265,28.2
59.281,38.43
59.296,48.36
59.312,57.17
59.328,64.2
59.343,68.7
59.359,70.15
59.375,68.23
59.390,62.87
59.406,54.3
59.421,43.12
59.437,30.24
59.453,16.83
59.468,4.13
59.484,-6.87
59.500,-15.46
59.515,-21.27
59.531,-24.43
59.546,-25.47
59.562,-25.23
59.578,-24.53
59.593,-24.06
59.609,-24.24
59.625,-25.36
59.640,-27.36
59.656,-30.02
59.671,-32.99
59.687,-35.8
59.703,-38.0
59.718,-39.06
59.734,-38.33
59.750,-35.59
59.765,-30.97
59.781,-24.53
59.796,-16.75
59.812,-8.13
59.828,0.86
59.843,9.77
59.859,18.32
59.875,26.45
59.890,33.57
59.906,39.7
59.921,45.83
59.937,53.17
59.953,62.67
59.968,74.53
59.984,87.92
