timestamp,value
00.000,-2.17
00.015,-1.21
00.031,0.46
00.046,2.29
00.062,3.71
00.078,4.5
00.093,4.68
00.109,4.53
00.125,4.33
00.140,4.09
00.156,3.71
00.171,2.92
00.187,1.64
00.203,0.03
00.218,-1.47
00.234,-2.43
00.250,-2.77
00.265,-2.83
00.281,-3.32
00.296,-4.82
00.312,-7.37
00.328,-10.38
00.343,-12.88
00.359,-14.05
00.375,-13.73
00.390,-12.5
00.406,-11.31
00.421,-10.99
00.437,-11.66
00.453,-12.77
00.468,-13.56
00.484,-13.38
00.500,-12.16
00.515,-10.28
00.531,-8.3
00.546,-6.59
00.562,-5.23
00.578,-4.01
00.593,-2.76
00.609,-1.52
00.625,-0.56
00.640,-0.33
00.656,-1.07
00.671,-2.72
00.687,-4.81
00.703,-6.69
00.718,-7.77
00.734,-7.77
00.750,-6.91
00.765,-5.75
00.781,-4.85
00.796,-4.55
00.812,-4.56
00.828,-4.3
00.843,-3.12
00.859,-0.71
00.875,2.52
00.890,5.68
00.906,7.78
00.921,8.24
00.937,7.13
00.953,5.33
00.968,3.84
00.984,3.42
01.000,4.23
01.015,5.69
01.031,6.97
01.046,7.46
01.062,7.03
01.078,6.02
01.093,5.01
01.109,4.39
01.125,4.11
01.140,3.78
01.156,2.92
01.171,1.27
01.187,-1.0
01.203,-3.44
01.218,-5.53
01.234,-6.91
01.250,-7.61
01.265,-8.07
01.281,-8.74
01.296,-10.01
01.312,-11.8
01.328,-13.75
01.343,-15.42
01.359,-16.49
01.375,-16.99
01.390,-17.23
01.406,-17.65
01.421,-18.29
01.437,-18.81
01.453,-18.43
01.468,-16.53
01.484,-12.98
01.500,-8.42
01.515,-4.06
01.531,-0.98
01.546,0.3
01.562,0.25
01.578,-0.11
01.593,0.31
01.609,2.0
01.625,4.56
01.640,7.07
01.656,8.56
01.671,8.61
01.687,7.48
01.703,5.88
01.718,4.49
01.734,3.77
01.750,3.77
01.765,4.16
01.781,4.52
01.796,4.55
01.812,4.22
01.828,3.86
01.843,3.96
01.859,4.75
01.875,6.0
01.890,6.98
01.906,6.85
01.921,5.17
01.937,2.39
01.953,-0.28
01.968,-1.46
01.984,-0.35
02.000,2.64
02.015,6.04
02.031,8.14
02.046,7.96
02.062,5.79
02.078,2.87
02.093,0.68
02.109,0.07
02.125,0.85
02.140,2.1
02.156,2.76
02.171,2.33
02.187,1.05
02.203,-0.45
02.218,-1.55
02.234,-2.11
02.250,-2.48
02.265,-3.19
02.281,-4.62
02.296,-6.75
02.312,-9.19
02.328,-11.31
02.343,-12.72
02.359,-13.31
02.375,-13.41
02.390,-13.52
02.406,-13.93
02.421,-14.52
02.437,-14.71
02.453,-13.82
02.468,-11.48
02.484,-7.88
02.500,-3.83
02.515,-0.44
02.531,1.44
02.546,1.69
02.562,0.86
02.578,0.02
02.593,-0.02
02.609,1.07
02.625,2.89
02.640,4.75
02.656,6.01
02.671,6.37
02.687,6.11
02.703,5.65
02.718,5.44
02.734,5.69
02.750,6.28
02.765,6.88
02.781,7.23
02.796,7.27
02.812,7.1
02.828,7.04
02.843,7.21
02.859,7.61
02.875,7.98
02.890,8.0
02.906,7.48
02.921,6.58
02.937,5.79
02.953,5.64
02.968,6.4
02.984,7.77
03.000,9.13
03.015,9.69
03.031,8.96
03.046,7.06
03.062,4.53
03.078,2.13
03.093,0.45
03.109,-0.45
03.125,-0.93
03.140,-1.52
03.156,-2.59
03.171,-4.3
03.187,-6.38
03.203,-8.42
03.218,-10.03
03.234,-11.07
03.250,-11.65
03.265,-12.05
03.281,-12.62
03.296,-13.47
03.312,-14.52
03.328,-15.49
03.343,-16.21
03.359,-16.66
03.375,-17.06
03.390,-17.74
03.406,-18.74
03.421,-19.78
03.437,-20.18
03.453,-19.11
03.468,-16.14
03.484,-11.62
03.500,-6.62
03.515,-2.37
03.531,0.16
03.546,0.9
03.562,0.59
03.578,0.26
03.593,0.84
03.609,2.59
03.625,5.03
03.640,7.34
03.656,8.95
03.671,9.77
03.687,10.15
03.703,10.73
03.718,11.89
03.734,13.58
03.750,15.3
03.765,16.45
03.781,16.58
03.796,15.7
03.812,14.25
03.828,12.78
03.843,11.77
03.859,11.31
03.875,11.19
03.890,10.99
03.906,10.47
03.921,9.8
03.937,9.26
03.953,9.25
03.968,9.85
03.984,10.79
04.000,11.4
04.015,11.11
04.031,9.66
04.046,7.25
04.062,4.56
04.078,2.15
04.093,0.31
04.109,-1.16
04.125,-2.67
04.140,-4.66
04.156,-7.17
04.171,-9.79
04.187,-11.89
04.203,-13.0
04.218,-13.04
04.234,-12.42
04.250,-11.88
04.265,-11.97
04.281,-12.95
04.296,-14.61
04.312,-16.42
04.328,-17.9
04.343,-18.78
04.359,-19.03
04.375,-18.71
04.390,-17.85
04.406,-16.38
04.421,-14.2
04.437,-11.43
04.453,-8.36
04.468,-5.5
04.484,-3.3
04.500,-2.09
04.515,-1.8
04.531,-2.06
04.546,-2.35
04.562,-2.07
04.578,-0.95
04.593,1.12
04.609,3.78
04.625,6.49
04.640,8.68
04.656,9.97
04.671,10.33
04.687,10.17
04.703,10.08
04.718,10.49
04.734,11.44
04.750,12.4
04.765,12.66
04.781,11.8
04.796,9.92
04.812,7.74
04.828,6.07
04.843,5.47
04.859,5.89
04.875,6.68
04.890,7.08
04.906,6.62
04.921,5.43
04.937,4.03
04.953,3.02
04.968,2.68
04.984,2.86
05.000,3.01
05.015,2.56
05.031,1.19
05.046,-0.98
05.062,-3.38
05.078,-5.26
05.093,-6.0
05.109,-5.54
05.125,-4.37
05.140,-3.33
05.156,-3.22
05.171,-4.3
05.187,-6.39
05.203,-9.04
05.218,-11.84
05.234,-14.63
05.250,-17.54
05.265,-20.59
05.281,-23.34
05.296,-25.02
05.312,-24.73
05.328,-22.1
05.343,-17.6
05.359,-12.4
05.375,-7.92
05.390,-5.23
05.406,-4.5
05.421,-5.01
05.437,-5.56
05.453,-5.11
05.468,-3.25
05.484,-0.35
05.500,2.71
05.515,5.04
05.531,6.2
05.546,6.41
05.562,6.24
05.578,6.38
05.593,7.16
05.609,8.48
05.625,9.89
05.640,10.99
05.656,11.64
05.671,12.08
05.687,12.78
05.703,13.95
05.718,15.43
05.734,16.71
05.750,17.2
05.765,16.6
05.781,15.14
05.796,13.45
05.812,12.19
05.828,11.79
05.843,12.11
05.859,12.6
05.875,12.51
05.890,11.31
05.906,8.99
05.921,6.02
05.937,3.18
05.953,1.07
05.968,-0.08
05.984,-0.52
06.000,-0.85
06.015,-1.69
06.031,-3.31
06.046,-5.52
06.062,-7.79
06.078,-9.54
06.093,-10.49
06.109,-10.9
06.125,-11.35
06.140,-12.4
06.156,-14.31
06.171,-16.88
06.187,-19.55
06.203,-21.79
06.218,-23.27
06.234,-24.0
06.250,-24.11
06.265,-23.69
06.281,-22.61
06.296,-20.64
06.312,-17.64
06.328,-13.79
06.343,-9.54
06.359,-5.5
06.375,-2.2
06.390,0.1
06.406,1.54
06.421,2.61
06.437,3.89
06.453,5.85
06.468,8.56
06.484,11.68
06.500,14.59
06.515,16.66
06.531,17.56
06.546,17.41
06.562,16.86
06.578,16.69
06.593,17.46
06.609,19.17
06.625,21.19
06.640,22.71
06.656,22.97
06.671,21.88
06.687,19.79
06.703,17.49
06.718,15.62
06.734,14.37
06.750,13.5
06.765,12.56
06.781,11.37
06.796,10.12
06.812,9.31
06.828,9.28
06.843,9.88
06.859,10.41
06.875,9.96
06.890,8.01
06.906,4.78
06.921,1.2
06.937,-1.57
06.953,-2.76
06.968,-2.39
06.984,-1.26
07.000,-0.43
07.015,-0.63
07.031,-1.85
07.046,-3.47
07.062,-4.69
07.078,-5.1
07.093,-5.07
07.109,-5.45
07.125,-7.21
07.140,-10.77
07.156,-15.79
07.171,-21.16
07.187,-25.57
07.203,-27.97
07.218,-27.88
07.234,-25.65
07.250,-22.06
07.265,-17.99
07.281,-14.06
07.296,-10.5
07.312,-7.22
07.328,-4.0
07.343,-0.7
07.359,2.61
07.375,5.67
07.390,8.24
07.406,10.22
07.421,11.76
07.437,13.21
07.453,14.73
07.468,16.24
07.484,17.34
07.500,17.48
07.515,16.46
07.531,14.6
07.546,12.72
07.562,11.74
07.578,12.29
07.593,14.22
07.609,16.73
07.625,18.67
07.640,19.13
07.656,17.85
07.671,15.33
07.687,12.52
07.703,10.33
07.718,9.34
07.734,9.54
07.750,10.47
07.765,11.48
07.781,12.08
07.796,12.14
07.812,11.75
07.828,11.11
07.843,10.41
07.859,9.62
07.875,8.63
07.890,7.28
07.906,5.56
07.921,3.63
07.937,1.84
07.953,0.48
07.968,-0.37
07.984,-0.94
08.000,-1.76
08.015,-3.28
08.031,-5.72
08.046,-8.82
08.062,-12.01
08.078,-14.61
08.093,-16.22
08.109,-16.93
08.125,-17.07
08.140,-17.04
08.156,-16.82
08.171,-16.01
08.187,-14.05
08.203,-10.67
08.218,-6.15
08.234,-1.35
08.250,2.59
08.265,4.91
08.281,5.53
08.296,5.13
08.312,4.7
08.328,4.98
08.343,6.15
08.359,7.68
08.375,8.9
08.390,9.27
08.406,8.71
08.421,7.63
08.437,6.62
08.453,6.15
08.468,6.42
08.484,7.3
08.500,8.4
08.515,9.42
08.531,10.23
08.546,10.95
08.562,11.88
08.578,13.21
08.593,14.98
08.609,16.88
08.625,18.36
08.640,18.8
08.656,17.96
08.671,16.09
08.687,13.74
08.703,11.53
08.718,9.75
08.734,8.27
08.750,6.69
08.765,4.6
08.781,2.01
08.796,-0.75
08.812,-3.03
08.828,-4.38
08.843,-4.62
08.859,-4.15
08.875,-3.6
08.890,-3.56
08.906,-4.38
08.921,-5.89
08.937,-7.73
08.953,-9.55
08.968,-11.27
08.984,-13.06
09.000,-15.26
09.015,-17.97
09.031,-20.77
09.046,-22.84
09.062,-23.17
09.078,-21.21
09.093,-17.2
09.109,-12.18
09.125,-7.56
09.140,-4.37
09.156,-2.81
09.171,-2.14
09.187,-1.23
09.203,0.8
09.218,4.0
09.234,7.6
09.250,10.55
09.265,11.98
09.281,11.77
09.296,10.53
09.312,9.13
09.328,8.26
09.343,8.15
09.359,8.62
09.375,9.36
09.390,10.27
09.406,11.41
09.421,12.92
09.437,14.72
09.453,16.49
09.468,17.64
09.484,17.69
09.500,16.52
09.515,14.49
09.531,12.42
09.546,11.02
09.562,10.59
09.578,10.92
09.593,11.38
09.609,11.15
09.625,9.74
09.640,7.1
09.656,3.56
09.671,-0.11
09.687,-3.06
09.703,-4.77
09.718,-5.08
09.734,-4.4
09.750,-3.48
09.765,-3.08
09.781,-3.53
09.796,-4.71
09.812,-6.1
09.828,-7.11
09.843,-7.56
09.859,-7.85
09.875,-8.72
09.890,-10.74
09.906,-13.89
09.921,-17.43
09.937,-20.39
09.953,-21.88
09.968,-21.63
09.984,-19.95
10.000,-17.48
10.015,-14.95
10.031,-12.76
10.046,-10.89
10.062,-9.17
10.078,-7.39
10.093,-5.36
10.109,-3.22
10.125,-1.12
10.140,0.87
10.156,2.73
10.171,4.59
10.187,6.59
10.203,8.76
10.218,10.87
10.234,12.56
10.250,13.33
10.265,12.84
10.281,11.2
10.296,8.95
10.312,6.92
10.328,5.82
10.343,6.02
10.359,7.24
10.375,8.82
10.390,9.98
10.406,10.22
10.421,9.68
10.437,8.83
10.453,8.28
10.468,8.31
10.484,8.74
10.500,9.12
10.515,9.02
10.531,8.33
10.546,7.35
10.562,6.54
10.578,6.13
10.593,6.03
10.609,5.64
10.625,4.53
10.640,2.54
10.656,0.09
10.671,-2.09
10.687,-3.3
10.703,-3.42
10.718,-2.98
10.734,-2.92
10.750,-4.14
10.765,-6.89
10.781,-10.66
10.796,-14.49
10.812,-17.36
10.828,-18.72
10.843,-18.74
10.859,-18.04
10.875,-17.27
10.890,-16.8
10.906,-16.48
10.921,-15.85
10.937,-14.64
10.953,-12.84
10.968,-10.77
10.984,-8.97
11.000,-7.69
11.015,-6.84
11.031,-6.12
11.046,-5.16
11.062,-3.96
11.078,-2.82
11.093,-2.13
11.109,-2.17
11.125,-2.84
11.140,-3.62
11.156,-3.87
11.171,-3.19
11.187,-1.51
11.203,0.8
11.218,3.12
11.234,4.87
11.250,5.61
11.265,5.18
11.281,3.96
11.296,2.54
11.312,1.62
11.328,1.79
11.343,3.02
11.359,4.86
11.375,6.49
11.390,7.28
11.406,6.97
11.421,6.0
11.437,5.06
11.453,4.71
11.468,5.11
11.484,5.72
11.500,5.89
11.515,5.17
11.531,3.6
11.546,1.7
11.562,0.16
11.578,-0.6
11.593,-0.68
11.609,-0.52
11.625,-0.64
11.640,-1.25
11.656,-2.1
11.671,-2.67
11.687,-2.59
11.703,-1.81
11.718,-0.77
11.734,-0.19
11.750,-0.63
11.765,-2.26
11.781,-4.68
11.796,-7.08
11.812,-8.71
11.828,-9.23
11.843,-8.84
11.859,-8.29
11.875,-8.36
11.890,-9.52
11.906,-11.69
11.921,-14.26
11.937,-16.41
11.953,-17.65
11.968,-17.86
11.984,-17.28
12.000,-16.24
12.015,-14.84
12.031,-12.9
12.046,-10.24
12.062,-6.88
12.078,-3.19
12.093,0.12
12.109,2.41
12.125,3.43
12.140,3.39
12.156,2.83
12.171,2.37
12.187,2.35
12.203,2.84
12.218,3.59
12.234,4.17
12.250,4.17
12.265,3.41
12.281,1.97
12.296,0.34
12.312,-0.81
12.328,-0.95
12.343,0.09
12.359,1.82
12.375,3.45
12.390,4.29
12.406,4.1
12.421,3.2
12.437,2.3
12.453,1.96
12.468,2.27
12.484,2.88
12.500,3.22
12.515,2.97
12.531,2.27
12.546,1.53
12.562,1.08
12.578,0.95
12.593,0.75
12.609,-0.05
12.625,-1.64
12.640,-3.75
12.656,-5.61
12.671,-6.39
12.687,-5.73
12.703,-3.98
12.718,-1.98
12.734,-0.88
12.750,-1.42
12.765,-3.55
12.781,-6.49
12.796,-9.03
12.812,-10.24
12.828,-9.76
12.843,-8.1
12.859,-6.2
12.875,-5.05
12.890,-5.21
12.906,-6.59
12.921,-8.67
12.937,-10.75
12.953,-12.26
12.968,-12.96
12.984,-12.84
13.000,-11.97
13.015,-10.46
13.031,-8.37
13.046,-5.92
13.062,-3.52
13.078,-1.57
13.093,-0.39
13.125,-0.01
13.140,0.13
13.156,0.83
13.171,2.27
13.187,4.17
13.203,6.01
13.218,7.28
13.234,7.64
13.250,7.06
13.265,5.69
13.281,3.96
13.296,2.2
13.312,0.7
13.328,-0.33
13.343,-0.83
13.359,-0.92
13.375,-0.82
13.390,-0.7
13.406,-0.7
13.421,-0.7
13.437,-0.55
13.453,-0.01
13.468,0.98
13.484,2.28
13.500,3.63
13.515,4.69
13.531,5.32
13.546,5.56
13.562,5.55
13.578,5.49
13.593,5.37
13.609,4.91
13.625,3.85
13.640,2.02
13.656,-0.44
13.671,-2.98
13.687,-4.96
13.703,-5.82
13.718,-5.46
13.734,-4.26
13.750,-2.91
13.765,-2.05
13.781,-1.95
13.796,-2.5
13.812,-3.22
13.828,-3.74
13.843,-3.96
13.859,-4.08
13.875,-4.55
13.890,-5.47
13.906,-6.58
13.921,-7.37
13.937,-7.36
13.953,-6.51
13.968,-5.4
13.984,-5.0
14.000,-6.18
14.015,-9.17
14.031,-13.24
14.046,-17.05
14.062,-19.19
14.078,-18.86
14.093,-16.27
14.109,-12.56
14.125,-9.02
14.140,-6.61
14.156,-5.5
14.171,-5.04
14.187,-4.35
14.203,-2.91
14.218,-0.79
14.234,1.42
14.250,2.97
14.265,3.62
14.281,3.6
14.296,3.56
14.312,4.0
14.328,5.07
14.343,6.31
14.359,7.1
14.375,7.05
14.390,6.19
14.406,5.11
14.421,4.46
14.437,4.66
14.453,5.66
14.468,6.94
14.484,7.86
14.500,8.05
14.515,7.57
14.531,6.9
14.546,6.58
14.562,6.86
14.578,7.56
14.593,8.17
14.609,8.05
14.625,6.89
14.640,4.88
14.656,2.65
14.671,0.91
14.687,0.15
14.703,0.33
14.718,0.86
14.734,1.0
14.750,0.14
14.765,-1.71
14.781,-4.07
14.796,-6.08
14.812,-7.18
14.828,-7.27
14.843,-6.9
14.859,-6.89
14.875,-7.86
14.890,-9.81
14.906,-12.07
14.921,-13.63
14.937,-13.8
14.953,-12.52
14.968,-10.52
14.984,-8.96
15.000,-8.69
15.015,-9.94
15.031,-12.2
15.046,-14.58
15.062,-16.2
15.078,-16.63
15.093,-15.88
15.109,-14.23
15.125,-12.02
15.140,-9.48
15.156,-6.74
15.171,-4.03
15.187,-1.63
15.203,0.14
15.218,1.09
15.234,1.22
15.250,0.79
15.265,0.27
15.281,0.14
15.296,0.77
15.312,2.22
15.328,4.28
15.343,6.36
15.359,7.83
15.375,8.21
15.390,7.54
15.406,6.29
15.421,5.23
15.437,4.98
15.453,5.68
15.468,7.02
15.484,8.18
15.500,8.55
15.515,7.86
15.531,6.52
15.546,5.13
15.562,4.29
15.578,4.2
15.593,4.47
15.609,4.56
15.625,3.88
15.640,2.31
15.656,0.24
15.671,-1.66
15.687,-2.77
15.703,-2.92
15.718,-2.34
15.734,-1.67
15.750,-1.47
15.765,-1.96
15.781,-2.82
15.796,-3.48
15.812,-3.51
15.828,-2.87
15.843,-2.02
15.859,-1.58
15.875,-1.97
15.890,-3.08
15.906,-4.42
15.921,-5.43
15.937,-5.84
15.953,-5.95
15.968,-6.25
15.984,-7.23
16.000,-8.97
16.015,-11.22
16.031,-13.33
16.046,-14.83
16.062,-15.36
16.078,-14.84
16.093,-13.57
16.109,-11.79
16.125,-9.94
16.140,-8.26
16.156,-6.92
16.171,-5.79
16.187,-4.68
16.203,-3.29
16.218,-1.46
16.234,0.66
16.250,2.79
16.265,4.63
16.281,5.98
16.296,6.86
16.312,7.31
16.328,7.31
16.343,6.75
16.359,5.58
16.375,3.97
16.390,2.45
16.406,1.75
16.421,2.34
16.437,4.31
16.453,7.0
16.468,9.43
16.484,10.66
16.500,10.34
16.515,8.78
16.531,6.87
16.546,5.45
16.562,5.01
16.578,5.51
16.593,6.41
16.609,7.07
16.625,7.03
16.640,6.38
16.656,5.4
16.671,4.59
16.687,4.09
16.703,3.77
16.718,3.27
16.734,2.25
16.750,0.69
16.765,-1.11
16.781,-2.5
16.796,-2.94
16.812,-2.28
16.828,-1.0
16.843,0.03
16.859,-0.02
16.875,-1.55
16.890,-4.18
16.906,-7.01
16.921,-9.06
16.937,-9.84
16.953,-9.53
16.968,-8.9
16.984,-8.92
17.000,-10.1
17.015,-12.37
17.031,-15.11
17.046,-17.51
17.062,-18.91
17.078,-19.17
17.093,-18.46
17.109,-17.02
17.125,-15.08
17.140,-12.7
17.156,-9.94
17.171,-6.97
17.187,-4.07
17.203,-1.52
17.218,0.45
17.234,1.8
17.250,2.74
17.265,3.51
17.281,4.38
17.296,5.43
17.312,6.63
17.328,7.75
17.343,8.43
17.359,8.39
17.375,7.55
17.390,6.23
17.406,4.94
17.421,4.39
17.437,5.02
17.453,6.79
17.468,9.18
17.484,11.35
17.500,12.62
17.515,12.77
17.531,12.14
17.546,11.36
17.562,11.02
17.578,11.4
17.593,12.22
17.609,12.93
17.625,12.98
17.640,12.19
17.656,10.78
17.671,9.2
17.687,7.87
17.703,6.76
17.718,5.52
17.734,3.62
17.750,0.85
17.765,-2.58
17.781,-5.89
17.796,-8.27
17.812,-9.17
17.828,-8.72
17.843,-7.71
17.859,-7.21
17.875,-8.06
17.890,-10.37
17.906,-13.6
17.921,-16.7
17.937,-18.73
17.953,-19.3
17.968,-18.83
17.984,-18.26
18.000,-18.6
18.015,-20.43
18.031,-23.62
18.046,-27.59
18.062,-31.56
18.078,-35.12
18.093,-38.23
18.109,-41.13
18.125,-43.93
18.140,-46.4
18.156,-48.17
18.171,-48.99
18.187,-49.0
18.203,-48.77
18.218,-49.1
18.234,-50.59
18.250,-53.23
18.265,-56.51
18.281,-59.68
18.296,-62.21
18.312,-64.11
18.328,-65.92
18.343,-68.38
18.359,-72.12
18.375,-77.41
18.390,-84.0
18.406,-91.44
18.421,-99.08
18.437,-106.31
18.453,-112.67
18.468,-118.12
18.484,-122.79
18.500,-127.01
18.515,-130.98
18.531,-134.35
18.546,-136.28
18.562,-135.32
18.578,-129.98
18.593,-119.31
18.609,-103.05
18.625,-81.24
18.640,-53.83
18.656,-20.32
18.671,19.95
18.687,66.9
18.703,119.21
18.718,174.09
18.734,227.9
18.750,277.4
18.765,320.8
18.781,357.67
18.796,388.48
18.812,413.52
18.828,431.93
18.843,441.97
18.859,441.96
18.875,431.21
18.890,410.79
18.906,383.34
18.921,351.93
18.937,319.25
18.953,286.8
18.968,254.56
18.984,221.67
19.000,187.33
19.015,151.42
19.031,114.82
19.046,79.09
19.062,45.74
19.078,15.82
19.093,-10.38
19.109,-33.21
19.125,-53.11
19.140,-70.18
19.156,-84.13
19.171,-94.66
19.187,-101.85
19.203,-106.72
19.218,-110.88
19.234,-115.96
19.250,-122.94
19.265,-131.69
19.281,-141.23
19.296,-150.24
19.312,-157.74
19.328,-163.27
19.343,-167.04
19.359,-169.43
19.375,-170.71
19.390,-170.71
19.406,-168.94
19.421,-164.79
19.437,-157.83
19.453,-148.18
19.468,-136.35
19.484,-123.12
19.500,-109.12
19.515,-94.68
19.531,-79.9
19.546,-64.94
19.562,-50.13
19.578,-36.19
19.593,-24.16
19.609,-14.89
19.625,-8.83
19.640,-5.64
19.656,-4.39
19.671,-3.99
19.687,-3.57
19.703,-2.8
19.718,-1.83
19.734,-1.07
19.750,-0.71
19.765,-0.66
19.781,-0.54
19.796,0.12
19.812,1.47
19.828,3.21
19.843,4.67
19.859,5.11
19.875,4.12
19.890,1.95
19.906,-0.84
19.921,-3.52
19.937,-5.58
19.953,-6.92
19.968,-7.76
19.984,-8.39
20.000,-9.0
20.015,-9.58
20.031,-9.98
20.046,-10.14
20.062,-10.3
20.078,-10.91
20.093,-12.4
20.109,-14.89
20.125,-17.96
20.140,-20.7
20.156,-22.06
20.171,-21.28
20.187,-18.24
20.203,-13.59
20.218,-8.47
20.234,-4.05
20.250,-1.02
20.265,0.69
20.281,1.66
20.296,2.66
20.312,4.13
20.328,6.03
20.343,7.92
20.359,9.36
20.375,10.1
20.390,10.25
20.406,10.13
20.421,10.02
20.437,9.95
20.453,9.66
20.468,8.92
20.484,7.6
20.500,5.9
20.515,4.26
20.531,3.1
20.546,2.57
20.562,2.49
20.578,2.23
20.593,1.16
20.609,-1.13
20.625,-4.52
20.640,-8.35
20.656,-11.64
20.671,-13.6
20.687,-13.95
20.703,-12.99
20.718,-11.56
20.734,-10.41
20.750,-9.93
20.765,-9.93
20.781,-9.72
20.796,-8.5
20.812,-5.69
20.828,-0.99
20.843,5.57
20.859,13.82
20.875,23.41
20.890,33.81
20.906,44.03
20.921,52.89
20.937,59.27
20.953,62.41
20.968,62.31
20.984,59.47
21.000,54.68
21.015,48.71
21.031,41.97
21.046,34.53
21.062,26.47
21.078,17.83
21.093,8.74
21.109,-0.5
21.125,-9.62
21.140,-18.11
21.156,-25.32
21.171,-30.48
21.187,-33.03
21.203,-32.7
21.218,-30.0
21.234,-25.94
21.250,-21.75
21.265,-18.4
21.281,-16.21
21.296,-14.89
21.312,-13.82
21.328,-12.32
21.343,-10.13
21.359,-7.38
21.375,-4.47
21.390,-1.77
21.406,0.59
21.421,2.7
21.437,4.75
21.453,6.67
21.468,8.32
21.484,9.38
21.500,9.75
21.515,9.71
21.531,9.93
21.546,11.08
21.562,13.48
21.578,16.69
21.593,19.53
21.609,20.74
21.625,19.58
21.640,16.37
21.656,12.48
21.671,9.76
21.687,9.5
21.703,11.85
21.718,15.71
21.734,19.27
21.750,21.07
21.765,20.62
21.781,18.5
21.796,15.91
21.812,14.0
21.828,13.22
21.843,13.35
21.859,13.73
21.875,13.8
21.890,13.33
21.906,12.49
21.921,11.54
21.937,10.6
21.953,9.46
21.968,7.64
21.984,4.64
22.000,0.34
22.015,-4.86
22.031,-10.07
22.046,-14.3
22.062,-16.88
22.078,-17.87
22.093,-17.98
22.109,-18.21
22.125,-19.41
22.140,-21.73
22.156,-24.73
22.171,-27.51
22.187,-29.35
22.203,-29.95
22.218,-29.53
22.234,-28.47
22.250,-26.99
22.265,-24.97
22.281,-22.06
22.296,-18.17
22.312,-13.45
22.328,-8.5
22.343,-4.08
22.359,-0.77
22.375,1.3
22.390,2.38
22.406,3.0
22.421,3.69
22.437,4.71
22.453,5.88
22.468,6.82
22.484,6.93
22.500,5.86
22.515,3.67
22.531,0.94
22.546,-1.45
22.562,-2.68
22.578,-2.35
22.593,-0.82
22.609,1.29
22.625,3.18
22.640,4.57
22.656,5.62
22.671,6.78
22.687,8.36
22.703,10.29
22.718,11.96
22.734,12.59
22.750,11.75
22.765,9.58
22.781,6.87
22.796,4.55
22.812,3.22
22.828,2.88
22.843,2.99
22.859,2.83
22.875,2.04
22.890,0.84
22.906,-0.24
22.921,-0.63
22.937,-0.18
22.953,0.6
22.968,1.04
22.984,0.57
23.000,-0.8
23.015,-2.56
23.031,-3.87
23.046,-4.11
23.062,-3.27
23.078,-1.96
23.093,-1.26
23.109,-1.97
23.125,-4.22
23.140,-7.27
23.156,-10.03
23.171,-11.52
23.187,-11.44
23.203,-10.27
23.218,-8.95
23.234,-8.33
23.250,-8.59
23.265,-9.24
23.281,-9.43
23.296,-8.44
23.312,-6.17
23.328,-3.12
23.343,-0.11
23.359,2.13
23.375,3.17
23.390,3.07
23.406,2.1
23.421,0.65
23.437,-0.82
23.453,-1.94
23.468,-2.41
23.484,-2.01
23.500,-0.69
23.515,1.4
23.531,3.97
23.546,6.61
23.562,9.02
23.578,11.03
23.593,12.49
23.609,13.29
23.625,13.31
23.640,12.54
23.656,11.23
23.671,9.87
23.687,8.91
23.703,8.66
23.718,8.98
23.734,9.4
23.750,9.43
23.765,8.83
23.781,7.84
23.796,6.94
23.812,6.59
23.828,6.82
23.843,7.16
23.859,7.02
23.875,5.96
23.890,4.14
23.906,2.14
23.921,0.69
23.937,0.14
23.953,0.41
23.968,0.92
23.984,1.08
24.000,0.62
24.015,-0.38
24.031,-1.48
24.046,-2.27
24.062,-2.52
24.078,-2.39
24.093,-2.22
24.109,-2.44
24.125,-3.26
24.140,-4.6
24.156,-6.21
24.171,-7.75
24.187,-8.97
24.203,-9.86
24.218,-10.59
24.234,-11.25
24.250,-11.84
24.265,-12.14
24.281,-11.73
24.296,-10.36
24.312,-7.99
24.328,-4.94
24.343,-1.83
24.359,0.69
24.375,2.26
24.390,2.79
24.406,2.6
24.421,2.14
24.437,1.8
24.453,1.74
24.468,1.86
24.484,1.92
24.500,1.74
24.515,1.36
24.531,1.01
24.546,1.01
24.562,1.61
24.578,2.77
24.593,4.14
24.609,5.25
24.625,5.69
24.640,5.42
24.656,4.72
24.671,4.03
24.687,3.79
24.703,4.09
24.718,4.69
24.734,5.15
24.750,5.19
24.765,4.8
24.781,4.33
24.796,4.21
24.812,4.67
24.828,5.59
24.843,6.48
24.859,6.71
24.875,5.91
24.890,4.17
24.906,1.92
24.921,-0.21
24.937,-1.74
24.953,-2.52
24.968,-2.75
24.984,-2.82
25.000,-3.06
25.015,-3.53
25.031,-3.96
25.046,-3.99
25.062,-3.41
25.078,-2.27
25.093,-0.95
25.109,-0.01
25.125,0.08
25.140,-0.7
25.156,-2.06
25.171,-3.45
25.187,-4.39
25.203,-4.84
25.218,-5.07
25.234,-5.66
25.250,-7.02
25.265,-9.15
25.281,-11.54
25.296,-13.53
25.312,-14.5
25.328,-14.19
25.343,-12.81
25.359,-10.74
25.375,-8.5
25.390,-6.31
25.406,-4.24
25.421,-2.18
25.437,-0.12
25.453,1.78
25.468,3.22
25.484,3.92
25.500,3.85
25.515,3.19
25.531,2.35
25.546,1.83
25.562,1.9
25.578,2.51
25.593,3.3
25.609,3.76
25.625,3.51
25.640,2.6
25.656,1.45
25.671,0.62
25.687,0.63
25.703,1.5
25.718,2.87
25.734,4.11
25.750,4.73
25.765,4.59
25.781,4.06
25.796,3.66
25.812,3.77
25.828,4.53
25.843,5.53
25.859,6.26
25.875,6.25
25.890,5.43
25.906,4.05
25.921,2.59
25.937,1.52
25.953,1.05
25.968,1.07
25.984,1.17
26.000,1.0
26.015,0.35
26.031,-0.63
26.046,-1.6
26.062,-2.18
26.078,-2.25
26.093,-1.88
26.109,-1.4
26.125,-1.21
26.140,-1.51
26.156,-2.25
26.171,-3.22
26.187,-4.27
26.203,-5.23
26.218,-6.2
26.234,-7.26
26.250,-8.44
26.265,-9.63
26.281,-10.58
26.296,-10.94
26.312,-10.68
26.328,-9.97
26.343,-9.21
26.359,-8.88
26.375,-9.2
26.390,-10.05
26.406,-10.94
26.421,-11.17
26.437,-10.29
26.453,-8.3
26.468,-5.68
26.484,-3.17
26.500,-1.39
26.515,-0.59
26.531,-0.51
26.546,-0.66
26.562,-0.48
26.578,0.17
26.593,1.08
26.609,1.85
26.625,2.18
26.640,2.07
26.656,1.79
26.671,1.78
26.687,2.22
26.703,3.12
26.718,4.16
26.734,4.91
26.750,5.08
26.765,4.68
26.781,4.0
26.796,3.44
26.812,3.36
26.828,3.81
26.843,4.59
26.859,5.23
26.875,5.35
26.890,4.82
26.906,3.84
26.921,2.87
26.937,2.34
26.953,2.45
26.968,2.92
26.984,3.21
27.000,2.79
27.015,1.52
27.031,-0.27
27.046,-1.99
27.062,-3.15
27.078,-3.53
27.093,-3.37
27.109,-3.19
27.125,-3.47
27.140,-4.31
27.156,-5.42
27.171,-6.21
27.187,-6.24
27.203,-5.38
27.218,-3.99
27.234,-2.68
27.250,-2.04
27.265,-2.39
27.281,-3.52
27.296,-4.97
27.312,-6.17
27.328,-6.84
27.343,-7.04
27.359,-7.23
27.375,-7.81
27.390,-8.94
27.406,-10.35
27.421,-11.44
27.437,-11.66
27.453,-10.78
27.468,-9.01
27.484,-6.9
27.500,-5.14
27.515,-3.96
27.531,-3.21
27.546,-2.35
27.562,-0.95
27.578,1.13
27.593,3.52
27.609,5.51
27.625,6.49
27.640,6.15
27.656,4.84
27.671,3.24
27.687,2.01
27.703,1.5
27.718,1.54
27.734,1.64
27.750,1.29
27.765,0.26
27.781,-1.22
27.796,-2.58
27.812,-3.2
27.828,-2.67
27.843,-0.87
27.859,1.8
27.875,4.73
27.890,7.16
27.906,8.52
27.921,8.63
27.937,7.72
27.953,6.37
27.968,5.14
27.984,4.45
28.000,4.24
28.015,4.12
28.031,3.83
28.046,3.22
28.062,2.41
28.078,1.65
28.093,1.08
28.109,0.57
28.125,-0.08
28.140,-1.04
28.156,-2.3
28.171,-3.51
28.187,-4.36
28.203,-4.74
28.218,-4.91
28.234,-5.39
28.250,-6.57
28.265,-8.49
28.281,-10.63
28.296,-12.3
28.312,-12.83
28.328,-12.1
28.343,-10.56
28.359,-9.01
28.375,-8.21
28.390,-8.43
28.406,-9.42
28.421,-10.45
28.437,-10.7
28.453,-9.59
28.468,-7.02
28.484,-3.46
28.500,0.33
28.515,3.41
28.531,5.23
28.546,5.63
28.562,4.93
28.578,3.68
28.593,2.38
28.609,1.26
28.625,0.28
28.640,-0.65
28.656,-1.5
28.671,-1.96
28.687,-1.73
28.703,-0.61
28.718,1.1
28.734,2.8
28.750,3.91
28.765,4.1
28.781,3.52
28.796,2.75
28.812,2.44
28.828,2.93
28.843,4.13
28.859,5.44
28.875,6.17
28.890,5.93
28.906,4.78
28.921,3.33
28.937,2.4
28.953,2.62
28.968,4.03
28.984,6.21
29.000,8.28
29.015,9.48
29.031,9.45
29.046,8.33
29.062,6.71
29.078,5.23
29.093,4.31
29.109,3.81
29.125,3.35
29.140,2.45
29.156,0.93
29.171,-0.96
29.187,-2.74
29.203,-3.88
29.218,-4.24
29.234,-4.08
29.250,-3.99
29.265,-4.36
29.281,-5.23
29.296,-6.2
29.312,-6.61
29.328,-6.09
29.343,-4.65
29.359,-2.96
29.375,-1.79
29.390,-1.76
29.406,-2.96
29.421,-4.92
29.437,-6.95
29.453,-8.44
29.468,-9.32
29.484,-9.81
29.500,-10.43
29.515,-11.32
29.531,-12.25
29.546,-12.62
29.562,-11.74
29.578,-9.48
29.593,-6.17
29.609,-2.78
29.625,-0.28
29.640,0.81
29.656,0.76
29.671,0.34
29.687,0.38
29.703,1.4
29.718,3.15
29.734,5.05
29.750,6.43
29.765,6.84
29.781,6.35
29.796,5.43
29.812,4.55
29.828,4.02
29.843,3.85
29.859,3.76
29.875,3.5
29.890,2.96
29.906,2.23
29.921,1.59
29.937,1.38
29.953,1.73
29.968,2.53
29.984,3.37
30.000,3.85
30.015,3.76
30.031,3.22
30.046,2.71
30.062,2.76
30.078,3.59
30.093,4.96
30.109,6.25
30.125,6.76
30.140,6.06
30.156,4.36
30.171,2.29
30.187,0.61
30.203,-0.15
30.218,-0.05
30.234,0.39
30.250,0.46
30.265,-0.27
30.281,-1.82
30.296,-3.7
30.312,-5.32
30.328,-6.17
30.343,-6.17
30.359,-5.61
30.375,-4.98
30.390,-4.74
30.406,-5.07
30.421,-5.85
30.437,-6.67
30.453,-7.28
30.468,-7.58
30.484,-7.78
30.500,-8.29
30.515,-9.27
30.531,-10.6
30.546,-11.72
30.562,-11.93
30.578,-10.72
30.593,-8.08
30.609,-4.65
30.625,-1.35
30.640,0.88
30.656,1.85
30.671,1.95
30.687,2.05
30.703,2.96
30.718,4.99
30.734,7.79
30.750,10.48
30.765,12.23
30.781,12.57
30.796,11.73
30.812,10.33
30.828,9.13
30.843,8.54
30.859,8.46
30.875,8.44
30.890,7.95
30.906,6.83
30.921,5.28
30.937,3.94
30.953,3.31
30.968,3.58
30.984,4.44
31.000,5.28
31.015,5.58
31.031,5.24
31.046,4.65
31.062,4.33
31.078,4.66
31.093,5.53
31.109,6.37
31.125,6.46
31.140,5.35
31.156,3.25
31.171,0.87
31.187,-0.97
31.203,-1.73
31.218,-1.39
31.234,-0.47
31.250,0.39
31.265,0.73
31.281,0.5
31.296,0.07
31.312,-0.21
31.328,-0.19
31.343,-0.06
31.359,-0.19
31.375,-0.93
31.390,-2.4
31.406,-4.41
31.421,-6.52
31.437,-8.22
31.453,-9.19
31.468,-9.33
31.484,-8.96
31.500,-8.57
31.515,-8.68
31.531,-9.48
31.546,-10.63
31.562,-11.53
31.578,-11.42
31.593,-9.9
31.609,-7.24
31.625,-4.23
31.640,-1.78
31.656,-0.42
31.687,0.23
31.703,1.04
31.718,2.94
31.734,5.65
31.750,8.38
31.765,10.21
31.781,10.6
31.796,9.72
31.812,8.24
31.828,6.98
31.843,6.4
31.859,6.42
31.875,6.53
31.890,6.25
31.906,5.46
31.921,4.61
31.937,4.34
31.953,5.04
31.968,6.71
31.984,8.58
32.000,9.68
32.015,9.26
32.031,7.37
32.046,4.81
32.062,2.76
32.078,2.14
32.093,3.11
32.109,5.08
32.125,6.89
32.140,7.67
32.156,7.06
32.171,5.45
32.187,3.58
32.203,2.12
32.218,1.39
32.234,1.12
32.250,0.9
32.265,0.27
32.281,-0.8
32.296,-2.02
32.312,-2.98
32.328,-3.39
32.343,-3.23
32.359,-2.74
32.375,-2.4
32.390,-2.48
32.406,-3.09
32.421,-3.93
32.437,-4.63
32.453,-4.87
32.468,-4.61
32.484,-4.14
32.500,-3.82
32.515,-4.0
32.531,-4.67
32.546,-5.59
32.562,-6.35
32.578,-6.7
32.593,-6.61
32.609,-6.33
32.625,-6.26
32.640,-6.64
32.656,-7.4
32.671,-8.09
32.687,-8.27
32.703,-7.52
32.718,-5.79
32.734,-3.44
32.750,-1.02
32.765,0.83
32.781,1.82
32.796,2.03
32.812,1.91
32.828,1.94
32.843,2.44
32.859,3.48
32.875,4.76
32.890,5.92
32.906,6.68
32.921,7.03
32.937,7.05
32.953,6.94
32.968,6.82
32.984,6.62
33.000,6.23
33.015,5.58
33.031,4.77
33.046,3.9
33.062,3.23
33.078,2.8
33.093,2.61
33.109,2.54
33.125,2.44
33.140,2.16
33.156,1.63
33.171,1.07
33.187,0.59
33.203,0.39
33.218,0.5
33.234,0.78
33.250,0.95
33.265,0.7
33.281,-0.04
33.296,-1.14
33.312,-2.14
33.328,-2.64
33.343,-2.39
33.359,-1.51
33.375,-0.4
33.390,0.45
33.406,0.69
33.421,0.36
33.437,-0.33
33.453,-0.98
33.468,-1.36
33.484,-1.37
33.500,-1.21
33.515,-1.14
33.531,-1.35
33.546,-1.85
33.562,-2.44
33.578,-2.95
33.593,-3.3
33.609,-3.64
33.625,-4.28
33.640,-5.41
33.656,-7.05
33.671,-8.84
33.687,-10.29
33.703,-10.92
33.718,-10.46
33.734,-8.92
33.750,-6.59
33.765,-4.01
33.781,-1.59
33.796,0.3
33.812,1.61
33.828,2.51
33.843,3.28
33.859,4.08
33.875,4.87
33.890,5.42
33.906,5.34
33.921,4.51
33.937,3.19
33.953,1.89
33.968,1.17
33.984,1.15
34.000,1.45
34.015,1.41
34.031,0.59
34.046,-0.94
34.062,-2.61
34.078,-3.63
34.093,-3.44
34.109,-2.02
34.125,0.07
34.140,2.11
34.156,3.52
34.171,4.27
34.187,4.65
34.203,5.0
34.218,5.51
34.234,6.06
34.250,6.32
34.265,5.99
34.281,5.01
34.296,3.6
34.312,2.19
34.328,1.19
34.343,0.79
34.359,0.93
34.375,1.27
34.390,1.44
34.406,1.2
34.421,0.63
34.437,-0.04
34.453,-0.51
34.468,-0.6
34.484,-0.55
34.500,-0.76
34.515,-1.66
34.531,-3.39
34.546,-5.54
34.562,-7.38
34.578,-8.18
34.593,-7.64
34.609,-6.02
34.625,-4.17
34.640,-2.96
34.656,-3.0
34.671,-4.3
34.687,-6.3
34.703,-8.35
34.718,-9.83
34.734,-10.47
34.750,-10.26
34.765,-9.46
34.781,-8.28
34.796,-6.87
34.812,-5.24
34.828,-3.32
34.843,-1.23
34.859,0.77
34.875,2.34
34.890,3.17
34.906,3.18
34.921,2.62
34.937,1.99
34.953,1.75
34.968,2.18
34.984,3.09
35.000,3.96
35.015,4.39
35.031,4.21
35.046,3.72
35.062,3.48
35.078,4.03
35.093,5.45
35.109,7.4
35.125,9.12
35.140,9.86
35.156,9.25
35.171,7.45
35.187,5.11
35.203,2.99
35.218,1.64
35.234,1.16
35.250,1.19
35.265,1.22
35.281,0.9
35.296,0.23
35.312,-0.51
35.328,-0.85
35.343,-0.52
35.359,0.35
35.375,1.32
35.390,1.82
35.406,1.58
35.421,0.75
35.437,-0.13
35.453,-0.57
35.468,-0.22
35.484,0.71
35.500,1.62
35.515,1.91
35.531,1.19
35.546,-0.37
35.562,-2.17
35.578,-3.54
35.593,-4.1
35.609,-3.89
35.625,-3.43
35.640,-3.28
35.656,-3.82
35.671,-4.98
35.687,-6.33
35.703,-7.43
35.718,-8.03
35.734,-8.27
35.750,-8.5
35.765,-9.08
35.781,-9.9
35.796,-10.49
35.812,-10.33
35.828,-9.02
35.843,-6.64
35.859,-3.74
35.875,-1.06
35.890,0.77
35.906,1.41
35.921,1.22
35.937,0.79
35.953,0.75
35.968,1.42
35.984,2.72
36.000,4.1
36.015,4.97
36.031,4.92
36.046,3.91
36.062,2.5
36.078,1.39
36.093,1.16
36.109,1.91
36.125,3.2
36.140,4.26
36.156,4.56
36.171,4.09
36.187,3.32
36.203,2.95
36.218,3.37
36.234,4.49
36.250,5.73
36.265,6.33
36.281,5.88
36.296,4.66
36.312,3.28
36.328,2.46
36.343,2.54
36.359,3.27
36.375,4.05
36.390,4.4
36.406,4.12
36.421,3.4
36.437,2.73
36.453,2.43
36.468,2.51
36.484,2.75
36.500,2.73
36.515,2.21
36.531,1.2
36.546,0.07
36.562,-0.79
36.578,-1.08
36.593,-0.78
36.609,-0.29
36.625,-0.09
36.640,-0.65
36.656,-2.02
36.671,-3.92
36.687,-5.77
36.703,-7.05
36.718,-7.49
36.734,-7.34
36.750,-7.09
36.765,-7.27
36.781,-8.16
36.796,-9.52
36.812,-10.8
36.828,-11.45
36.843,-11.11
36.859,-9.79
36.875,-7.94
36.890,-6.17
36.906,-4.89
36.921,-4.23
36.937,-3.9
36.953,-3.46
36.968,-2.62
36.984,-1.35
37.000,0.05
37.015,1.12
37.031,1.5
37.046,1.28
37.062,0.88
37.078,0.86
37.093,1.57
37.109,2.85
37.125,4.08
37.140,4.54
37.156,3.82
37.171,2.16
37.187,0.32
37.203,-0.78
37.218,-0.66
37.234,0.53
37.250,2.06
37.265,3.09
37.281,3.2
37.296,2.51
37.312,1.68
37.328,1.39
37.343,1.98
37.359,3.3
37.375,4.75
37.390,5.7
37.406,5.7
37.421,4.85
37.437,3.54
37.453,2.39
37.468,1.84
37.484,1.92
37.500,2.32
37.515,2.58
37.531,2.35
37.546,1.61
37.562,0.67
37.578,-0.06
37.593,-0.24
37.609,0.1
37.625,0.56
37.640,0.69
37.656,0.2
37.671,-0.89
37.687,-2.26
37.703,-3.49
37.718,-4.36
37.734,-4.97
37.750,-5.61
37.765,-6.67
37.781,-8.24
37.796,-10.08
37.812,-11.74
37.828,-12.72
37.843,-12.68
37.859,-11.62
37.875,-9.93
37.890,-8.06
37.906,-6.55
37.921,-5.56
37.937,-4.99
37.953,-4.54
37.968,-3.78
37.984,-2.51
38.000,-0.91
38.015,0.61
38.031,1.69
38.046,2.22
38.062,2.53
38.078,3.08
38.093,4.13
38.109,5.6
38.125,6.93
38.140,7.42
38.156,6.78
38.171,5.4
38.187,4.13
38.203,3.89
38.218,5.15
38.234,7.43
38.250,9.72
38.265,10.84
38.281,10.12
38.296,7.8
38.312,4.97
38.328,2.81
38.343,2.12
38.359,2.95
38.375,4.45
38.390,5.67
38.406,5.89
38.421,5.0
38.437,3.58
38.453,2.39
38.468,1.96
38.484,2.35
38.500,3.11
38.515,3.63
38.531,3.49
38.546,2.67
38.562,1.48
38.578,0.43
38.593,-0.3
38.609,-0.77
38.625,-1.37
38.640,-2.51
38.656,-4.34
38.671,-6.54
38.687,-8.57
38.703,-9.76
38.718,-9.76
38.734,-8.91
38.750,-7.91
38.765,-7.63
38.781,-8.56
38.796,-10.57
38.812,-12.83
38.828,-14.32
38.843,-14.28
38.859,-12.65
38.875,-10.11
38.890,-7.72
38.906,-6.32
38.921,-6.06
38.937,-6.47
38.953,-6.76
38.968,-6.2
38.984,-4.63
39.000,-2.46
39.015,-0.27
39.031,1.5
39.046,2.82
39.062,4.08
39.078,5.69
39.093,7.8
39.109,10.07
39.125,11.87
39.140,12.56
39.156,12.0
39.171,10.68
39.187,9.38
39.203,8.83
39.218,9.24
39.234,10.25
39.250,11.08
39.265,11.1
39.281,9.98
39.296,8.0
39.312,5.76
39.328,3.84
39.343,2.75
39.359,2.5
39.375,2.89
39.390,3.44
39.406,3.77
39.421,3.7
39.437,3.33
39.453,2.84
39.468,2.49
39.484,2.42
39.500,2.54
39.515,2.68
39.531,2.67
39.546,2.5
39.562,2.27
39.578,2.07
39.593,1.81
39.609,1.22
39.625,0.06
39.640,-1.83
39.656,-4.25
39.671,-6.7
39.687,-8.6
39.703,-9.46
39.718,-9.2
39.734,-8.15
39.750,-7.05
39.765,-6.57
39.781,-7.19
39.796,-8.78
39.812,-10.8
39.828,-12.48
39.843,-13.07
39.859,-12.34
39.875,-10.4
39.890,-7.93
39.906,-5.6
39.921,-3.92
39.937,-3.02
39.953,-2.62
39.968,-2.3
39.984,-1.67
40.000,-0.68
40.015,0.46
40.031,1.39
40.046,2.0
40.062,2.41
40.078,2.95
40.093,4.0
40.109,5.47
40.125,7.02
40.140,8.09
40.156,8.29
40.171,7.71
40.187,6.81
40.203,6.15
40.218,6.08
40.234,6.64
40.250,7.55
40.265,8.44
40.281,9.09
40.296,9.55
40.312,10.0
40.328,10.58
40.343,11.33
40.359,12.03
40.375,12.34
40.390,11.9
40.406,10.5
40.421,8.37
40.437,6.05
40.453,4.23
40.468,3.46
40.484,3.84
40.500,4.94
40.515,6.04
40.531,6.52
40.546,6.14
40.562,5.18
40.578,4.14
40.593,3.51
40.609,3.4
40.625,3.49
40.640,3.27
40.656,2.37
40.671,0.76
40.687,-1.19
40.703,-3.0
40.718,-4.31
40.734,-5.14
40.750,-5.79
40.765,-6.68
40.781,-8.04
40.796,-9.71
40.812,-11.24
40.828,-12.25
40.843,-12.59
40.859,-12.54
40.875,-12.65
40.890,-13.34
40.906,-14.67
40.921,-16.08
40.937,-16.75
40.953,-15.95
40.968,-13.48
40.984,-9.81
41.000,-5.91
41.015,-2.73
41.031,-0.77
41.046,0.12
41.062,0.56
41.078,1.18
41.093,2.27
41.109,3.68
41.125,4.94
41.140,5.73
41.156,6.03
41.171,6.18
41.187,6.55
41.203,7.26
41.218,8.03
41.234,8.36
41.250,7.93
41.265,6.78
41.281,5.36
41.296,4.27
41.312,3.93
41.328,4.46
41.343,5.57
41.359,6.79
41.375,7.7
41.390,8.12
41.406,8.09
41.421,7.93
41.437,7.98
41.453,8.43
41.468,9.2
41.484,9.91
41.500,10.06
41.515,9.27
41.531,7.55
41.546,5.34
41.562,3.3
41.578,2.0
41.593,1.62
41.609,1.84
41.625,2.09
41.640,1.88
41.656,1.03
41.671,-0.26
41.687,-1.57
41.703,-2.58
41.718,-3.19
41.734,-3.61
41.750,-4.17
41.765,-5.1
41.781,-6.33
41.796,-7.6
41.812,-8.64
41.828,-9.31
41.843,-9.7
41.859,-10.15
41.875,-10.96
41.890,-12.28
41.906,-13.92
41.921,-15.37
41.937,-16.04
41.953,-15.51
41.968,-13.79
41.984,-11.3
42.000,-8.75
42.015,-6.73
42.031,-5.47
42.046,-4.81
42.062,-4.2
42.078,-3.18
42.093,-1.53
42.109,0.6
42.125,2.88
42.140,4.96
42.156,6.66
42.171,8.0
42.187,9.08
42.203,10.03
42.218,10.91
42.234,11.64
42.250,12.19
42.265,12.57
42.281,12.86
42.296,13.1
42.312,13.29
42.328,13.29
42.343,13.01
42.359,12.3
42.375,11.13
42.390,9.59
42.406,7.88
42.421,6.33
42.437,5.27
42.453,4.96
42.468,5.34
42.484,6.21
42.500,7.13
42.515,7.73
42.531,7.82
42.546,7.47
42.562,6.9
42.578,6.46
42.593,6.32
42.609,6.32
42.625,6.23
42.640,5.67
42.656,4.53
42.671,2.97
42.687,1.33
42.703,-0.17
42.718,-1.41
42.734,-2.57
42.750,-3.97
42.765,-5.77
42.781,-7.92
42.796,-10.13
42.812,-11.97
42.828,-13.15
42.843,-13.67
42.859,-13.86
42.875,-14.13
42.890,-14.8
42.906,-15.92
42.921,-17.08
42.937,-17.71
42.953,-17.14
42.968,-15.11
42.984,-11.86
43.000,-8.09
43.015,-4.64
43.031,-2.07
43.046,-0.43
43.062,0.7
43.078,1.8
43.093,3.07
43.109,4.23
43.125,4.87
43.140,4.81
43.156,4.32
43.171,4.1
43.187,4.86
43.203,6.81
43.218,9.48
43.234,11.9
43.250,13.11
43.265,12.73
43.281,11.21
43.296,9.44
43.312,8.31
43.328,8.3
43.343,9.2
43.359,10.29
43.375,10.8
43.390,10.31
43.406,8.97
43.421,7.32
43.437,6.03
43.453,5.49
43.468,5.63
43.484,6.03
43.500,6.2
43.515,5.78
43.531,4.92
43.546,3.96
43.562,3.36
43.578,3.36
43.593,3.89
43.609,4.58
43.625,4.99
43.640,4.9
43.656,4.38
43.671,3.8
43.687,3.48
43.703,3.5
43.718,3.56
43.734,3.15
43.750,1.86
43.765,-0.39
43.781,-3.2
43.796,-5.87
43.812,-7.8
43.828,-8.73
43.843,-8.96
43.859,-9.02
43.875,-9.48
43.890,-10.57
43.906,-12.12
43.921,-13.68
43.937,-14.73
43.953,-14.88
43.968,-14.06
43.984,-12.49
44.000,-10.55
44.015,-8.65
44.031,-7.01
44.046,-5.7
44.062,-4.57
44.078,-3.4
44.093,-2.02
44.109,-0.44
44.125,1.08
44.140,2.26
44.156,2.94
44.171,3.26
44.187,3.64
44.203,4.42
44.218,5.63
44.234,6.85
44.250,7.51
44.265,7.26
44.281,6.23
44.296,5.04
44.312,4.33
44.328,4.55
44.343,5.59
44.359,6.91
44.375,7.83
44.390,8.03
44.406,7.66
44.421,7.21
44.437,7.14
44.453,7.64
44.468,8.53
44.484,9.39
44.500,9.84
44.515,9.61
44.531,8.83
44.546,7.78
44.562,6.85
44.578,6.27
44.593,6.06
44.609,5.95
44.625,5.52
44.640,4.54
44.656,3.01
44.671,1.23
44.687,-0.39
44.703,-1.59
44.718,-2.35
44.734,-2.97
44.750,-3.83
44.765,-5.04
44.781,-6.32
44.796,-7.22
44.812,-7.26
44.828,-6.38
44.843,-5.13
44.859,-4.29
44.875,-4.67
44.890,-6.52
44.906,-9.45
44.921,-12.45
44.937,-14.5
44.953,-14.89
44.968,-13.62
44.984,-11.38
45.000,-9.02
45.015,-7.2
45.031,-6.03
45.046,-5.17
45.062,-4.08
45.078,-2.54
45.093,-0.68
45.109,1.01
45.125,1.94
45.140,2.0
45.156,1.5
45.171,1.11
45.187,1.53
45.203,3.0
45.218,5.1
45.234,7.05
45.250,8.05
45.265,7.74
45.281,6.5
45.296,5.05
45.312,4.15
45.328,4.29
45.343,5.26
45.359,6.47
45.375,7.31
45.390,7.49
45.406,7.16
45.421,6.86
45.437,7.04
45.453,7.84
45.468,8.94
45.484,9.68
45.500,9.51
45.515,8.22
45.531,6.18
45.546,4.06
45.562,2.54
45.578,1.9
45.593,1.85
45.609,1.78
45.625,1.06
45.640,-0.53
45.656,-2.79
45.671,-5.07
45.687,-6.8
45.703,-7.7
45.718,-7.98
45.734,-8.17
45.750,-8.74
45.765,-9.81
45.781,-11.0
45.796,-11.76
45.812,-11.77
45.828,-11.09
45.843,-10.31
45.859,-10.09
45.875,-10.72
45.890,-11.79
45.906,-12.45
45.921,-11.73
45.937,-9.25
45.953,-5.55
45.968,-1.85
45.984,0.52
46.000,0.88
46.015,-0.55
46.031,-2.67
46.046,-4.12
46.062,-3.97
46.078,-2.15
46.093,0.64
46.109,3.38
46.125,5.29
46.140,6.29
46.156,6.75
46.171,7.27
46.187,8.14
46.203,9.22
46.218,10.01
46.234,10.09
46.250,9.41
46.265,8.29
46.281,7.43
46.296,7.32
46.312,8.07
46.328,9.24
46.343,10.12
46.359,10.05
46.375,8.83
46.390,6.92
46.406,5.05
46.421,3.96
46.437,3.93
46.453,4.67
46.468,5.47
46.484,5.59
46.500,4.68
46.515,2.97
46.531,1.1
46.546,-0.29
46.562,-0.81
46.578,-0.65
46.593,-0.29
46.609,-0.24
46.625,-0.75
46.640,-1.71
46.656,-2.73
46.671,-3.44
46.687,-3.65
46.703,-3.5
46.718,-3.41
46.734,-3.74
46.750,-4.67
46.765,-5.99
46.781,-7.31
46.796,-8.25
46.812,-8.65
46.828,-8.77
46.843,-9.01
46.859,-9.81
46.875,-11.28
46.890,-13.12
46.906,-14.63
46.921,-15.11
46.937,-14.16
46.953,-11.88
46.968,-8.86
46.984,-5.87
47.000,-3.6
47.015,-2.3
47.031,-1.74
47.046,-1.39
47.062,-0.71
47.078,0.52
47.093,2.07
47.109,3.5
47.125,4.49
47.140,4.96
47.156,5.29
47.171,5.87
47.187,6.89
47.203,8.08
47.218,8.83
47.234,8.52
47.250,6.96
47.265,4.65
47.281,2.48
47.296,1.38
47.312,1.68
47.328,3.03
47.343,4.63
47.359,5.67
47.375,5.79
47.390,5.15
47.406,4.42
47.421,4.18
47.437,4.68
47.453,5.62
47.468,6.35
47.484,6.33
47.500,5.39
47.515,3.91
47.531,2.53
47.546,1.96
47.562,2.43
47.578,3.71
47.593,5.12
47.609,5.96
47.625,5.92
47.640,5.14
47.656,4.2
47.671,3.56
47.687,3.37
47.703,3.18
47.718,2.37
47.734,0.5
47.750,-2.33
47.765,-5.42
47.781,-7.93
47.796,-9.18
47.812,-9.1
47.828,-8.3
47.843,-7.59
47.859,-7.65
47.875,-8.56
47.890,-9.99
47.906,-11.27
47.921,-11.89
47.937,-11.68
47.953,-10.93
47.968,-10.1
47.984,-9.55
48.000,-9.31
48.015,-9.0
48.031,-8.11
48.046,-6.34
48.062,-3.88
48.078,-1.35
48.093,0.33
48.109,0.55
48.125,-0.61
48.140,-2.46
48.156,-3.92
48.171,-4.09
48.187,-2.7
48.203,-0.26
48.218,2.32
48.234,4.15
48.250,4.95
48.265,5.12
48.281,5.28
48.296,5.99
48.312,7.28
48.328,8.67
48.343,9.5
48.359,9.38
48.375,8.46
48.390,7.35
48.406,6.74
48.421,6.93
48.437,7.7
48.453,8.35
48.468,8.16
48.484,6.78
48.500,4.47
48.515,1.94
48.531,0.01
48.546,-0.81
48.562,-0.61
48.578,0.1
48.593,0.62
48.609,0.44
48.625,-0.49
48.640,-1.75
48.656,-2.79
48.671,-3.16
48.687,-2.77
48.703,-1.98
48.718,-1.27
48.734,-1.01
48.750,-1.27
48.765,-1.78
48.781,-2.24
48.796,-2.48
48.812,-2.69
48.828,-3.26
48.843,-4.53
48.859,-6.48
48.875,-8.72
48.890,-10.67
48.906,-11.81
48.921,-11.9
48.937,-11.13
48.953,-9.81
48.968,-8.25
48.984,-6.65
49.000,-4.99
49.015,-3.25
49.031,-1.5
49.046,0.04
49.062,1.12
49.078,1.48
49.093,1.03
49.109,0.05
49.125,-1.06
49.140,-1.73
49.156,-1.57
49.171,-0.48
49.187,1.24
49.203,3.11
49.218,4.59
49.234,5.42
49.250,5.7
49.265,5.74
49.281,5.89
49.296,6.32
49.312,6.91
49.328,7.33
49.343,7.19
49.359,6.29
49.375,4.77
49.390,3.08
49.406,1.7
49.421,1.05
49.437,1.14
49.453,1.63
49.468,2.11
49.484,2.27
49.500,2.23
49.515,2.35
49.531,3.09
49.546,4.46
49.562,6.05
49.578,7.09
49.593,6.88
49.609,5.26
49.625,2.8
49.640,0.47
49.656,-0.9
49.671,-0.92
49.703,1.12
49.718,1.66
49.734,1.3
49.750,0.26
49.765,-0.95
49.781,-1.9
49.796,-2.52
49.812,-3.05
49.828,-3.84
49.843,-5.07
49.859,-6.59
49.875,-8.04
49.890,-9.01
49.906,-9.41
49.921,-9.5
49.937,-9.77
49.953,-10.71
49.968,-12.32
49.984,-14.14
50.000,-15.16
50.015,-14.58
50.031,-12.01
50.046,-8.0
50.062,-3.76
50.078,-0.65
50.093,0.47
50.109,-0.28
50.125,-1.96
50.140,-3.21
50.156,-3.15
50.171,-1.65
50.187,0.59
50.203,2.67
50.218,3.93
50.234,4.35
50.250,4.4
50.265,4.68
50.281,5.5
50.296,6.69
50.312,7.78
50.328,8.24
50.343,7.94
50.359,7.1
50.375,6.18
50.390,5.57
50.406,5.38
50.421,5.46
50.437,5.36
50.453,4.78
50.468,3.68
50.484,2.37
50.500,1.46
50.515,1.35
50.531,2.09
50.546,3.25
50.562,4.18
50.578,4.25
50.593,3.29
50.609,1.6
50.625,-0.21
50.640,-1.49
50.656,-1.94
50.671,-1.71
50.687,-1.31
50.703,-1.23
50.718,-1.74
50.734,-2.68
50.750,-3.62
50.765,-4.13
50.781,-3.99
50.796,-3.4
50.812,-2.8
50.828,-2.72
50.843,-3.28
50.859,-4.29
50.875,-5.32
50.890,-5.95
50.906,-6.21
50.921,-6.49
50.937,-7.31
50.953,-8.95
50.968,-11.18
50.984,-13.14
51.000,-13.81
51.015,-12.45
51.031,-9.0
51.046,-4.33
51.062,0.23
51.078,3.45
51.093,4.81
51.109,4.66
51.125,3.89
51.140,3.45
51.156,3.81
51.171,4.82
51.187,5.81
51.203,6.17
51.218,5.74
51.234,4.86
51.250,4.13
51.265,4.02
51.281,4.51
51.296,5.18
51.312,5.54
51.328,5.22
51.343,4.4
51.359,3.61
51.375,3.41
51.390,4.03
51.406,5.22
51.421,6.27
51.437,6.46
51.453,5.44
51.468,3.44
51.484,1.2
51.500,-0.36
51.515,-0.68
51.531,0.2
51.546,1.75
51.562,3.13
51.578,3.69
51.593,3.27
51.609,2.18
51.625,0.97
51.640,0.08
51.656,-0.47
51.671,-0.93
51.687,-1.57
51.703,-2.53
51.718,-3.59
51.734,-4.35
51.750,-4.47
51.765,-3.95
51.781,-3.19
51.796,-2.95
51.812,-3.77
51.828,-5.68
51.843,-8.05
51.859,-9.79
51.875,-9.92
51.890,-8.03
51.906,-4.66
51.921,-0.98
51.937,1.67
51.953,2.55
51.968,1.81
51.984,0.33
52.000,-0.79
52.015,-0.86
52.031,0.09
52.046,1.46
52.062,2.57
52.078,3.06
52.093,3.07
52.109,3.12
52.125,3.61
52.140,4.55
52.156,5.54
52.171,5.99
52.187,5.51
52.203,4.18
52.218,2.45
52.234,0.96
52.250,0.25
52.265,0.41
52.281,1.18
52.296,2.03
52.312,2.52
52.328,2.5
52.343,2.19
52.359,2.01
52.375,2.31
52.390,3.18
52.406,4.19
52.421,4.76
52.437,4.42
52.453,3.05
52.468,1.16
52.484,-0.5
52.500,-1.29
52.515,-1.04
52.531,-0.18
52.546,0.52
52.562,0.38
52.578,-0.7
52.593,-2.42
52.609,-4.1
52.625,-5.2
52.640,-5.69
52.656,-5.95
52.671,-6.54
52.687,-7.75
52.703,-9.26
52.718,-10.28
52.734,-9.95
52.750,-7.83
52.765,-4.22
52.781,-0.15
52.796,3.15
52.812,4.82
52.828,4.72
52.843,3.45
52.859,1.96
52.875,1.05
52.890,1.04
52.906,1.65
52.921,2.26
52.937,2.38
52.953,1.96
52.968,1.34
52.984,1.1
53.000,1.65
53.015,2.97
53.031,4.6
53.046,5.97
53.062,6.53
53.078,6.19
53.093,5.29
53.109,4.3
53.125,3.64
53.140,3.32
53.156,3.03
53.171,2.34
53.187,1.14
53.203,-0.37
53.218,-1.65
53.234,-2.26
53.250,-2.02
53.265,-1.23
53.281,-0.48
53.296,-0.38
53.312,-1.09
53.328,-2.36
53.343,-3.61
53.359,-4.28
53.375,-4.22
53.390,-3.68
53.406,-3.14
53.421,-3.04
53.437,-3.53
53.453,-4.29
53.468,-4.87
53.484,-4.96
53.500,-4.44
53.515,-3.65
53.531,-3.02
53.546,-2.91
53.562,-3.38
53.578,-4.19
53.593,-4.85
53.609,-5.04
53.625,-4.67
53.640,-4.0
53.656,-3.35
53.671,-3.01
53.687,-2.95
53.703,-2.83
53.718,-2.25
53.734,-1.07
53.750,0.46
53.765,1.76
53.781,2.31
53.796,1.96
53.812,1.07
53.828,0.31
53.843,0.31
53.859,1.34
53.875,3.09
53.890,4.86
53.906,5.93
53.921,5.88
53.937,4.75
53.953,3.0
53.968,1.25
53.984,-0.02
54.000,-0.52
54.015,-0.37
54.031,0.03
54.046,0.3
54.062,0.2
54.078,-0.16
54.093,-0.46
54.109,-0.36
54.125,0.2
54.140,0.97
54.156,1.52
54.171,1.53
54.187,1.09
54.203,0.58
54.218,0.46
54.234,0.98
54.250,2.02
54.265,3.0
54.281,3.36
54.296,2.8
54.312,1.49
54.328,-0.04
54.343,-1.19
54.359,-1.61
54.375,-1.39
54.390,-1.04
54.406,-1.18
54.421,-2.21
54.437,-4.01
54.453,-6.05
54.468,-7.59
54.484,-8.13
54.500,-7.6
54.515,-6.42
54.531,-5.16
54.546,-4.25
54.562,-3.83
54.578,-3.71
54.593,-3.63
54.609,-3.46
54.625,-3.3
54.640,-3.34
54.656,-3.83
54.671,-4.71
54.687,-5.62
54.703,-6.07
54.718,-5.65
54.734,-4.31
54.750,-2.34
54.765,-0.38
54.781,1.01
54.796,1.54
54.812,1.42
54.828,1.17
54.843,1.34
54.859,2.29
54.875,3.8
54.890,5.43
54.906,6.57
54.921,6.79
54.937,6.13
54.953,4.96
54.968,3.74
54.984,2.78
55.000,2.1
55.015,1.43
55.031,0.52
55.046,-0.69
55.062,-1.95
55.078,-2.88
55.093,-3.14
55.109,-2.61
55.125,-1.57
55.140,-0.36
55.156,0.7
55.171,1.53
55.187,2.35
55.203,3.4
55.218,4.74
55.234,6.1
55.250,6.93
55.265,6.67
55.281,5.11
55.296,2.48
55.312,-0.51
55.328,-2.95
55.343,-4.16
55.359,-3.93
55.375,-2.67
55.390,-1.14
55.406,-0.12
55.437,-0.6
55.453,-1.38
55.468,-1.7
55.484,-1.35
55.500,-0.63
55.515,-0.17
55.531,-0.55
55.546,-1.9
55.562,-3.71
55.578,-5.21
55.593,-5.82
55.609,-5.39
55.625,-4.46
55.640,-3.76
55.656,-3.9
55.671,-4.96
55.687,-6.55
55.703,-7.96
55.718,-8.51
55.734,-7.96
55.750,-6.42
55.765,-4.38
55.781,-2.36
55.796,-0.71
55.812,0.46
55.828,1.31
55.843,2.04
55.859,2.77
55.875,3.41
55.890,3.71
55.906,3.44
55.921,2.57
55.937,1.35
55.953,0.18
55.968,-0.55
55.984,-0.73
56.000,-0.59
56.015,-0.5
56.031,-0.75
56.046,-1.29
56.062,-1.78
56.078,-1.76
56.093,-1.01
56.109,0.33
56.125,1.74
56.140,2.66
56.156,2.83
56.171,2.4
56.187,1.85
56.203,1.63
56.218,2.0
56.234,2.8
56.250,3.6
56.265,3.94
56.281,3.56
56.296,2.45
56.312,0.96
56.328,-0.46
56.343,-1.44
56.359,-1.79
56.375,-1.61
56.390,-1.18
56.406,-0.73
56.421,-0.39
56.437,-0.18
56.453,0.05
56.468,0.31
56.484,0.42
56.500,0.08
56.515,-0.95
56.531,-2.67
56.546,-4.66
56.562,-6.32
56.578,-7.18
56.593,-7.09
56.609,-6.34
56.625,-5.54
56.640,-5.21
56.656,-5.59
56.671,-6.5
56.687,-7.44
56.703,-7.89
56.718,-7.56
56.734,-6.44
56.750,-4.89
56.765,-3.4
56.781,-2.33
56.796,-1.87
56.812,-1.9
56.828,-2.1
56.843,-2.21
56.859,-2.07
56.875,-1.77
56.890,-1.55
56.906,-1.53
56.921,-1.6
56.937,-1.49
56.953,-0.88
56.968,0.34
56.984,1.83
57.000,3.01
57.015,3.47
57.031,3.11
57.046,2.33
57.062,1.89
57.078,2.34
57.093,3.81
57.109,5.87
57.125,7.64
57.140,8.3
57.156,7.51
57.171,5.51
57.187,3.04
57.203,0.97
57.218,-0.12
57.234,-0.12
57.250,0.7
57.265,1.74
57.281,2.46
57.296,2.67
57.312,2.42
57.328,1.94
57.343,1.41
57.359,0.78
57.375,-0.15
57.390,-1.51
57.406,-3.16
57.421,-4.64
57.437,-5.36
57.453,-4.87
57.468,-3.26
57.484,-1.12
57.500,0.69
57.515,1.42
57.531,0.88
57.546,-0.57
57.562,-2.14
57.578,-3.1
57.593,-3.16
57.609,-2.59
57.625,-2.06
57.640,-2.21
57.656,-3.43
57.671,-5.49
57.687,-7.82
57.703,-9.76
57.718,-10.89
57.734,-11.31
57.750,-11.34
57.765,-11.25
57.781,-11.05
57.796,-10.42
57.812,-8.98
57.828,-6.66
57.843,-3.87
57.859,-1.4
57.875,0.02
57.890,0.11
57.906,-0.68
57.921,-1.53
57.937,-1.64
57.953,-0.62
57.968,1.22
57.984,3.17
58.000,4.51
58.015,4.93
58.031,4.67
58.046,4.34
58.062,4.51
58.078,5.42
58.093,6.85
58.109,8.14
58.125,8.67
58.140,8.19
58.156,6.87
58.171,5.3
58.187,4.11
58.203,3.65
58.218,3.83
58.234,4.24
58.250,4.35
58.265,3.92
58.281,3.18
58.296,2.54
58.312,2.45
58.328,3.04
58.343,4.01
58.359,4.82
58.375,4.94
58.390,4.19
58.406,2.85
58.421,1.52
58.437,0.69
58.453,0.62
58.468,1.05
58.484,1.47
58.500,1.33
58.515,0.44
58.531,-1.0
58.546,-2.47
58.562,-3.48
58.578,-3.87
58.593,-3.78
58.609,-3.68
58.625,-4.04
58.640,-5.01
58.656,-6.4
58.671,-7.73
58.687,-8.52
58.703,-8.49
58.718,-7.8
58.734,-6.92
58.750,-6.5
58.765,-6.99
58.781,-8.41
58.796,-10.23
58.812,-11.68
58.828,-12.07
58.843,-11.12
58.859,-9.15
58.875,-6.75
58.890,-4.53
58.906,-2.8
58.921,-1.49
58.937,-0.41
58.953,0.51
58.968,1.14
58.984,1.25
59.000,0.75
59.015,-0.11
59.031,-0.67
59.046,-0.44
59.062,0.78
59.078,2.66
59.093,4.49
59.109,5.59
59.125,5.66
59.140,4.96
59.156,4.05
59.171,3.58
59.187,3.78
59.203,4.45
59.218,5.15
59.234,5.4
59.250,4.99
59.265,4.17
59.281,3.45
59.296,3.36
59.312,4.23
59.328,5.96
59.343,8.02
59.359,9.74
59.375,10.46
59.390,9.88
59.406,8.21
59.421,6.0
59.437,3.93
59.453,2.47
59.468,1.69
59.484,1.3
59.500,0.91
59.515,0.2
59.531,-0.85
59.546,-2.0
59.562,-2.94
59.578,-3.49
59.593,-3.74
59.609,-3.94
59.625,-4.33
59.640,-4.93
59.656,-5.54
59.671,-5.89
59.687,-5.74
59.703,-5.27
59.718,-4.93
59.734,-5.27
59.750,-6.68
59.765,-9.05
59.781,-11.81
59.796,-14.11
59.812,-15.21
59.828,-14.73
59.843,-12.97
59.859,-10.59
59.875,-8.32
59.890,-6.67
59.906,-5.63
59.921,-4.78
59.937,-3.57
59.953,-1.77
59.968,0.45
59.984,2.48
