timestamp,value
00.000,-22.71
00.015,-21.55
00.031,-19.31
00.046,-16.23
00.062,-12.7
00.078,-9.1
00.093,-5.75
00.109,-2.85
00.125,-0.43
00.140,1.5
00.156,3.05
00.171,4.22
00.187,5.06
00.203,5.6
00.218,5.77
00.234,5.58
00.250,4.99
00.265,4.04
00.281,2.78
00.296,1.38
00.312,0.01
00.328,-1.12
00.343,-1.74
00.359,-1.88
00.375,-1.56
00.390,-0.95
00.406,-0.24
00.421,0.36
00.437,0.72
00.453,0.66
00.468,0.03
00.484,-1.22
00.500,-3.15
00.515,-5.62
00.531,-8.38
00.546,-11.14
00.562,-13.73
00.578,-16.04
00.593,-18.11
00.609,-20.11
00.625,-22.08
00.640,-24.0
00.656,-25.7
00.671,-26.9
00.687,-27.32
00.703,-26.73
00.718,-25.1
00.734,-22.53
00.750,-19.45
00.765,-16.23
00.781,-13.15
00.796,-10.31
00.812,-7.61
00.828,-4.91
00.843,-2.06
00.859,0.86
00.875,3.66
00.890,6.06
00.906,7.81
00.921,8.84
00.937,9.26
00.953,9.24
00.968,8.87
00.984,8.27
01.000,7.46
01.015,6.5
01.031,5.45
01.046,4.48
01.062,3.66
01.078,3.06
01.093,2.61
01.109,2.17
01.125,1.57
01.140,0.7
01.156,-0.44
01.171,-1.85
01.187,-3.31
01.203,-4.76
01.218,-6.09
01.234,-7.24
01.250,-8.17
01.265,-8.98
01.281,-9.71
01.296,-10.47
01.312,-11.42
01.328,-12.6
01.343,-14.06
01.359,-15.61
01.375,-16.96
01.390,-17.6
01.406,-17.18
01.421,-15.57
01.437,-12.89
01.453,-9.6
01.468,-6.21
01.484,-3.16
01.500,-0.69
01.515,1.21
01.531,2.66
01.546,3.77
01.562,4.53
01.578,4.87
01.593,4.71
01.609,4.11
01.625,3.21
01.640,2.23
01.656,1.39
01.671,0.78
01.687,0.47
01.703,0.43
01.718,0.65
01.734,1.09
01.750,1.78
01.765,2.72
01.781,3.94
01.796,5.44
01.812,7.15
01.828,8.89
01.843,10.44
01.859,11.52
01.875,11.9
01.890,11.55
01.906,10.53
01.921,9.04
01.937,7.31
01.953,5.49
01.968,3.59
01.984,1.6
02.000,-0.57
02.015,-3.0
02.031,-5.73
02.046,-8.76
02.062,-11.98
02.078,-15.15
02.093,-17.84
02.109,-19.6
02.125,-20.0
02.140,-18.88
02.156,-16.45
02.171,-13.17
02.187,-9.62
02.203,-6.25
02.218,-3.34
02.234,-0.9
02.250,1.15
02.265,2.97
02.281,4.61
02.296,6.03
02.312,7.17
02.328,8.01
02.343,8.56
02.359,8.88
02.375,9.09
02.390,9.24
02.406,9.39
02.421,9.54
02.437,9.7
02.453,9.87
02.468,10.11
02.484,10.49
02.500,10.9
02.515,11.32
02.531,11.57
02.546,11.46
02.562,10.87
02.578,9.67
02.593,7.91
02.609,5.68
02.625,3.2
02.640,0.73
02.656,-1.43
02.671,-3.09
02.687,-4.25
02.703,-4.98
02.718,-5.6
02.734,-6.38
02.750,-7.57
02.765,-9.33
02.781,-11.57
02.796,-13.98
02.812,-16.1
02.828,-17.33
02.843,-17.05
02.859,-15.05
02.875,-11.26
02.890,-6.04
02.921,6.26
02.937,12.21
02.953,17.57
02.968,22.27
02.984,26.43
03.000,30.06
03.015,33.09
03.031,35.27
03.046,36.25
03.062,35.77
03.078,33.64
03.093,29.92
03.109,24.82
03.125,18.65
03.140,11.69
03.156,4.11
03.171,-4.06
03.187,-12.83
03.203,-22.17
03.218,-31.96
03.234,-42.02
03.250,-51.97
03.265,-61.2
03.281,-68.98
03.296,-74.56
03.312,-77.41
03.328,-77.35
03.343,-74.54
03.359,-69.39
03.375,-62.52
03.390,-54.48
03.406,-45.68
03.421,-36.53
03.437,-27.52
03.453,-19.26
03.468,-12.38
03.484,-7.25
03.500,-3.81
03.515,-1.59
03.531,0.2
03.546,2.31
03.562,5.24
03.578,9.06
03.593,13.47
03.609,17.95
03.625,22.0
03.640,25.37
03.656,28.06
03.671,30.33
03.687,32.38
03.703,34.32
03.718,36.11
03.734,37.68
03.750,38.93
03.765,39.89
03.781,40.66
03.796,41.38
03.812,42.23
03.828,43.17
03.843,43.97
03.859,44.36
03.875,44.04
03.890,42.81
03.906,40.7
03.921,37.89
03.937,34.55
03.953,30.9
03.968,26.96
03.984,22.73
04.000,18.21
04.015,13.47
04.031,8.62
04.046,3.88
04.062,-0.58
04.078,-4.74
04.093,-8.44
04.109,-11.66
04.125,-14.26
04.140,-16.04
04.156,-16.86
04.171,-16.69
04.187,-15.64
04.203,-13.85
04.218,-11.57
04.234,-8.73
04.250,-5.07
04.265,-0.26
04.281,6.09
04.296,14.0
04.312,23.14
04.328,32.84
04.343,42.29
04.359,50.8
04.375,58.03
04.390,63.8
04.406,68.09
04.421,70.88
04.437,72.03
04.453,71.38
04.468,68.94
04.484,64.89
04.500,59.63
04.515,53.77
04.531,47.84
04.546,42.35
04.562,37.6
04.578,33.77
04.593,30.82
04.609,28.69
04.625,27.15
04.640,25.93
04.656,24.8
04.671,23.46
04.687,21.7
04.703,19.4
04.718,16.52
04.734,13.04
04.750,9.01
04.765,4.47
04.781,-0.46
04.796,-5.55
04.812,-10.64
04.828,-15.52
04.843,-20.07
04.859,-24.19
04.875,-27.82
04.890,-30.95
04.906,-33.51
04.921,-35.47
04.937,-36.74
04.953,-37.32
04.968,-37.24
04.984,-36.57
05.000,-35.33
05.015,-33.47
05.031,-30.97
05.046,-27.8
05.062,-24.07
05.078,-19.93
05.093,-15.55
05.109,-11.11
05.125,-6.8
05.140,-2.78
05.156,0.86
05.171,4.02
05.187,6.6
05.203,8.45
05.218,9.47
05.234,9.73
05.250,9.39
05.265,8.71
05.281,7.87
05.296,7.09
05.312,6.39
05.328,5.75
05.343,5.04
05.359,4.07
05.375,2.72
05.390,0.89
05.406,-1.46
05.421,-4.44
05.437,-8.09
05.453,-12.4
05.468,-17.29
05.484,-22.5
05.500,-27.71
05.515,-32.45
05.531,-36.28
05.546,-38.76
05.562,-39.69
05.578,-39.08
05.593,-37.17
05.609,-34.28
05.625,-30.62
05.640,-26.44
05.656,-21.84
05.671,-16.96
05.687,-11.92
05.703,-6.91
05.718,-2.12
05.734,2.3
05.750,6.14
05.765,9.25
05.781,11.36
05.796,12.32
05.812,12.11
05.828,10.89
05.843,9.01
05.859,6.89
05.875,5.03
05.890,3.77
05.906,3.28
05.921,3.59
05.937,4.55
05.953,6.02
05.968,7.75
05.984,9.6
06.000,11.48
06.015,13.5
06.031,15.74
06.046,18.31
06.062,21.27
06.078,24.5
06.093,27.94
06.109,31.42
06.125,34.96
06.140,38.55
06.156,42.33
06.171,46.27
06.187,50.4
06.203,54.78
06.218,59.33
06.234,64.22
06.250,69.53
06.265,75.26
06.281,81.16
06.296,86.8
06.312,91.49
06.328,94.48
06.343,95.09
06.359,92.68
06.375,86.92
06.390,77.74
06.406,65.39
06.421,50.48
06.437,33.93
06.453,16.92
06.468,0.63
06.484,-13.87
06.500,-25.93
06.515,-35.29
06.531,-42.18
06.546,-47.17
06.562,-50.81
06.578,-53.62
06.593,-55.85
06.609,-57.65
06.625,-59.05
06.640,-60.17
06.656,-61.09
06.671,-62.02
06.687,-63.28
06.703,-65.02
06.718,-67.37
06.734,-70.32
06.750,-73.73
06.765,-77.4
06.781,-81.15
06.796,-84.7
06.812,-87.76
06.828,-89.9
06.843,-90.68
06.859,-89.69
06.875,-86.66
06.890,-81.56
06.906,-74.57
06.921,-66.15
06.937,-56.81
06.953,-47.05
06.968,-37.22
06.984,-27.68
07.000,-18.79
07.015,-10.89
07.031,-4.32
07.046,0.75
07.062,4.24
07.078,6.28
07.093,7.13
07.109,7.22
07.125,6.86
07.140,6.3
07.156,5.73
07.171,5.28
07.187,5.17
07.203,5.63
07.218,6.94
07.234,9.28
07.250,12.66
07.265,16.78
07.281,21.1
07.296,25.03
07.312,28.1
07.328,30.06
07.343,30.92
07.359,30.87
07.375,30.06
07.390,28.59
07.406,26.41
07.421,23.51
07.437,19.96
07.453,15.86
07.468,11.48
07.484,7.04
07.500,2.89
07.515,-0.68
07.531,-3.38
07.546,-4.99
07.562,-5.3
07.578,-4.32
07.593,-2.3
07.609,0.37
07.625,3.15
07.640,5.55
07.656,7.25
07.671,8.14
07.687,8.24
07.703,7.76
07.718,6.9
07.734,5.85
07.750,4.82
07.765,3.9
07.781,3.14
07.796,2.56
07.812,2.18
07.828,2.02
07.843,2.1
07.859,2.39
07.875,2.81
07.890,3.18
07.906,3.23
07.921,2.74
07.937,1.6
07.953,-0.08
07.968,-2.06
07.984,-4.07
08.000,-5.8
08.015,-7.07
08.031,-7.72
08.046,-7.71
08.062,-7.03
08.078,-5.78
08.093,-4.18
08.109,-2.38
08.125,-0.52
08.140,1.38
08.156,3.3
08.171,5.26
08.187,7.1
08.203,8.73
08.218,10.1
08.234,11.17
08.250,12.15
08.265,13.22
08.281,14.56
08.296,16.16
08.312,17.93
08.328,19.68
08.343,21.29
08.359,22.66
08.375,23.68
08.390,24.27
08.406,24.25
08.421,23.52
08.437,22.04
08.453,19.93
08.468,17.44
08.484,14.85
08.500,12.42
08.515,10.22
08.531,8.26
08.546,6.41
08.562,4.59
08.578,2.78
08.593,0.99
08.609,-0.72
08.625,-2.34
08.640,-3.89
08.656,-5.56
08.671,-7.41
08.687,-9.67
08.703,-12.45
08.718,-15.72
08.734,-19.43
08.750,-23.26
08.765,-26.91
08.781,-29.98
08.796,-32.26
08.812,-33.52
08.828,-33.82
08.843,-33.29
08.859,-32.19
08.875,-30.77
08.890,-29.16
08.906,-27.54
08.921,-25.97
08.937,-24.67
08.953,-23.82
08.968,-23.58
08.984,-24.0
09.000,-24.9
09.015,-26.06
09.031,-27.14
09.046,-27.97
09.062,-28.46
09.078,-28.73
09.093,-29.0
09.109,-29.56
09.125,-30.58
09.140,-32.11
09.156,-34.14
09.171,-36.59
09.187,-39.51
09.203,-42.9
09.218,-46.83
09.234,-51.35
09.250,-56.44
09.265,-61.95
09.281,-67.63
09.296,-73.08
09.312,-77.64
09.328,-80.59
09.343,-80.94
09.359,-77.87
09.375,-70.77
09.390,-59.55
09.406,-44.66
09.421,-27.07
09.437,-8.11
09.453,10.95
09.468,28.93
09.484,45.13
09.500,59.23
09.515,71.08
09.531,80.56
09.546,87.56
09.562,91.92
09.578,93.58
09.593,92.75
09.609,89.75
09.625,85.02
09.640,78.98
09.656,71.92
09.671,64.1
09.687,55.84
09.703,47.53
09.718,39.65
09.734,32.86
09.750,27.61
09.765,24.22
09.781,22.77
09.796,22.95
09.812,24.26
09.828,26.06
09.843,27.73
09.859,28.74
09.875,28.85
09.890,27.9
09.906,25.89
09.921,22.93
09.937,19.2
09.953,14.96
09.968,10.57
09.984,6.36
10.000,2.69
10.015,-0.04
10.031,-1.69
10.046,-2.25
10.062,-1.89
10.078,-0.92
10.093,0.35
10.109,1.71
10.125,3.0
10.140,4.14
10.156,5.16
10.171,5.97
10.187,6.51
10.203,6.7
10.218,6.51
10.234,5.93
10.250,5.06
10.265,4.03
10.281,2.95
10.296,2.04
10.312,1.36
10.328,1.02
10.343,1.08
10.359,1.48
10.375,2.14
10.390,3.0
10.406,4.02
10.421,5.11
10.437,6.25
10.453,7.29
10.468,8.11
10.484,8.67
10.500,8.84
10.515,8.67
10.531,8.2
10.546,7.58
10.562,6.87
10.578,6.14
10.593,5.29
10.609,4.23
10.625,2.89
10.640,1.28
10.656,-0.41
10.671,-2.0
10.687,-3.26
10.703,-4.16
10.718,-4.7
10.734,-4.98
10.750,-5.04
10.765,-4.91
10.781,-4.61
10.796,-4.14
10.812,-3.68
10.828,-3.43
10.843,-3.6
10.859,-4.25
10.875,-5.33
10.890,-6.67
10.906,-8.2
10.921,-9.91
10.937,-11.79
10.953,-13.8
10.968,-15.77
10.984,-17.46
11.000,-18.65
11.015,-19.22
11.031,-19.21
11.046,-18.79
11.062,-18.21
11.078,-17.6
11.093,-16.99
11.109,-16.23
11.125,-15.22
11.140,-13.87
11.156,-12.13
11.171,-10.21
11.187,-8.19
11.203,-6.25
11.218,-4.46
11.234,-2.84
11.250,-1.33
11.265,0.09
11.281,1.33
11.296,2.39
11.312,3.06
11.328,3.3
11.343,3.11
11.359,2.46
11.375,1.39
11.390,-0.04
11.406,-1.83
11.421,-3.9
11.437,-6.09
11.453,-8.24
11.468,-10.14
11.484,-11.56
11.500,-12.46
11.515,-12.89
11.531,-12.91
11.546,-12.74
11.562,-12.46
11.578,-12.11
11.593,-11.74
11.609,-11.29
11.625,-10.8
11.640,-10.35
11.656,-10.07
11.671,-10.03
11.687,-10.24
11.703,-10.57
11.718,-10.93
11.734,-11.29
11.750,-11.64
11.765,-12.15
11.781,-13.05
11.796,-14.4
11.812,-16.19
11.828,-18.21
11.843,-20.08
11.859,-21.5
11.875,-22.18
11.890,-21.88
11.906,-20.52
11.921,-18.12
11.937,-14.82
11.953,-10.81
11.968,-6.44
11.984,-2.1
12.000,1.78
12.015,4.82
12.031,6.83
12.046,7.74
12.062,7.69
12.078,6.99
12.093,5.99
12.109,4.92
12.125,4.04
12.140,3.42
12.156,3.14
12.171,3.3
12.187,4.0
12.203,5.29
12.218,7.22
12.234,9.69
12.250,12.47
12.265,15.29
12.281,17.75
12.296,19.43
12.312,20.06
12.328,19.41
12.343,17.58
12.359,14.84
12.375,11.62
12.390,8.38
12.406,5.58
12.421,3.51
12.437,2.19
12.453,1.54
12.468,1.26
12.484,1.02
12.500,0.46
12.515,-0.79
12.531,-2.95
12.546,-6.01
12.562,-9.69
12.578,-13.5
12.593,-16.78
12.609,-19.0
12.625,-19.73
12.640,-18.93
12.656,-16.86
12.671,-13.92
12.687,-10.48
12.703,-6.82
12.718,-3.03
12.734,0.87
12.750,4.8
12.765,8.59
12.781,11.94
12.796,14.54
12.812,16.22
12.828,16.97
12.843,17.0
12.859,16.59
12.875,16.09
12.890,15.74
12.906,15.58
12.921,15.58
12.937,15.54
12.953,15.27
12.968,14.64
12.984,13.66
13.000,12.59
13.015,11.82
13.031,11.72
13.046,12.32
13.062,13.34
13.078,14.2
13.093,14.29
13.109,13.11
13.125,10.6
13.140,6.91
13.156,2.36
13.171,-2.95
13.187,-9.55
13.203,-18.39
13.218,-30.1
13.234,-44.45
13.250,-60.11
13.265,-74.7
13.281,-85.77
13.296,-91.23
13.312,-89.41
13.328,-79.11
13.343,-59.3
13.359,-29.24
13.375,10.46
13.390,56.57
13.406,102.68
13.421,140.8
13.437,164.23
13.453,170.66
13.468,163.32
13.484,149.51
13.500,137.46
13.515,133.22
13.531,139.27
13.546,154.78
13.562,177.49
13.578,204.8
13.593,234.03
13.609,261.94
13.625,284.57
13.640,297.8
13.656,298.47
13.671,285.67
13.687,260.27
13.703,224.45
13.718,181.34
13.734,135.02
13.750,89.63
13.765,48.72
13.781,14.36
13.796,-12.56
13.812,-30.82
13.828,-38.03
13.843,-30.96
13.859,-7.7
13.875,30.24
13.890,75.97
13.906,118.55
13.921,146.81
13.937,154.03
13.953,139.9
13.968,109.12
13.984,67.87
14.000,20.1
14.015,-33.0
14.031,-91.81
14.046,-155.53
14.062,-219.57
14.078,-274.74
14.093,-308.99
14.109,-310.87
14.125,-273.39
14.140,-197.77
14.156,-94.64
14.171,17.79
14.187,118.92
14.203,191.56
14.218,226.34
14.234,223.39
14.250,190.01
14.265,136.89
14.281,74.03
14.296,8.87
14.312,-53.97
14.328,-111.43
14.343,-160.59
14.359,-198.61
14.375,-221.95
14.390,-226.86
14.406,-209.99
14.421,-170.12
14.437,-109.47
14.453,-35.08
14.468,41.1
14.484,104.61
14.500,141.67
14.515,144.06
14.531,111.72
14.546,52.38
14.562,-22.17
14.578,-100.75
14.593,-176.4
14.609,-247.34
14.625,-313.85
14.640,-374.7
14.656,-423.73
14.671,-450.71
14.687,-445.11
14.703,-401.48
14.718,-323.09
14.734,-221.93
14.750,-115.78
14.765,-23.21
14.781,40.8
14.796,67.99
14.812,57.27
14.828,13.97
14.843,-51.33
14.859,-125.06
14.875,-193.93
14.890,-248.63
14.906,-286.05
14.921,-309.07
14.937,-322.47
14.953,-328.06
14.968,-322.24
14.984,-297.54
15.000,-247.27
15.015,-170.77
15.031,-75.84
15.046,22.93
15.062,108.61
15.078,167.37
15.093,192.72
15.109,186.53
15.125,157.72
15.140,119.56
15.156,85.61
15.171,65.7
15.187,62.41
15.203,70.09
15.218,77.33
15.234,72.95
15.250,51.74
15.265,17.58
15.281,-17.8
15.296,-40.02
15.312,-38.24
15.328,-9.86
15.343,38.38
15.359,92.89
15.375,138.53
15.390,163.9
15.406,165.66
15.421,149.31
15.437,126.44
15.453,109.41
15.468,105.47
15.484,113.15
15.500,122.84
15.515,121.65
15.531,100.29
15.546,58.03
15.562,3.59
15.578,-49.13
15.593,-87.2
15.609,-103.4
15.625,-97.53
15.640,-74.41
15.656,-40.95
15.671,-3.74
15.687,31.53
15.703,60.42
15.718,80.05
15.734,90.21
15.750,94.12
15.765,97.29
15.781,104.59
15.796,116.65
15.812,128.45
15.828,131.36
15.843,117.91
15.859,86.34
15.875,42.06
15.890,-4.64
15.906,-43.37
15.921,-67.58
15.937,-76.06
15.953,-71.69
15.968,-58.76
15.984,-41.09
16.000,-21.63
16.015,-3.29
16.031,10.36
16.046,14.99
16.062,6.78
16.078,-16.41
16.093,-54.45
16.109,-105.34
16.125,-165.77
16.140,-231.29
16.156,-296.22
16.171,-353.52
16.187,-395.81
16.203,-416.97
16.218,-414.34
16.234,-389.75
16.250,-348.94
16.265,-299.7
16.281,-249.36
16.296,-203.16
16.312,-163.92
16.328,-132.92
16.343,-110.53
16.359,-96.5
16.375,-89.59
16.390,-86.91
16.406,-84.17
16.421,-76.77
16.437,-61.38
16.453,-37.29
16.468,-6.34
16.484,27.89
16.500,61.4
16.515,90.78
16.531,113.72
16.546,128.94
16.562,136.15
16.578,135.84
16.593,129.08
16.609,117.36
16.625,102.25
16.640,85.23
16.656,67.73
16.671,51.21
16.687,37.23
16.703,27.34
16.718,22.69
16.734,23.67
16.750,30.14
16.765,41.79
16.781,58.64
16.796,81.09
16.812,109.67
16.828,144.04
16.843,182.45
16.859,221.54
16.875,256.55
16.890,282.29
16.906,294.3
16.921,290.15
16.937,270.26
16.953,238.09
16.968,199.12
16.984,159.44
17.000,124.02
17.015,95.6
17.031,74.57
17.046,59.78
17.062,49.77
17.078,43.33
17.093,39.85
17.109,38.69
17.125,38.94
17.140,39.39
17.156,39.07
17.171,37.57
17.187,35.25
17.203,33.11
17.218,32.04
17.234,32.45
17.250,33.86
17.265,35.13
17.281,35.02
17.296,32.76
17.312,28.31
17.328,22.28
17.343,15.63
17.359,9.26
17.375,3.65
17.390,-1.11
17.406,-5.31
17.421,-9.23
17.437,-12.98
17.453,-16.44
17.468,-19.37
17.484,-21.55
17.500,-22.93
17.515,-23.68
17.531,-24.07
17.546,-24.44
17.562,-24.97
17.578,-25.83
17.593,-27.05
17.609,-28.52
17.625,-30.07
17.640,-31.43
17.656,-32.15
17.671,-31.77
17.687,-29.87
17.703,-26.2
17.718,-20.86
17.734,-14.17
17.750,-6.43
17.765,1.98
17.781,10.75
17.796,19.65
17.812,28.37
17.828,36.51
17.843,43.55
17.859,49.06
17.875,52.76
17.890,54.81
17.906,55.5
17.921,55.25
17.937,54.33
17.953,52.79
17.968,50.46
17.984,47.2
18.000,42.98
18.015,37.95
18.031,32.53
18.046,27.05
18.062,21.88
18.078,17.15
18.093,12.68
18.109,8.22
18.125,3.43
18.140,-1.91
18.156,-7.72
18.171,-13.67
18.187,-19.18
18.203,-23.76
18.218,-27.05
18.234,-29.18
18.250,-30.51
18.265,-31.57
18.281,-32.78
18.296,-34.27
18.312,-35.9
18.328,-37.29
18.343,-38.13
18.359,-38.07
18.375,-37.12
18.390,-35.18
18.406,-32.31
18.421,-28.53
18.437,-23.95
18.453,-18.87
18.468,-13.76
18.484,-9.22
18.500,-5.75
18.515,-3.84
18.531,-3.56
18.546,-5.0
18.562,-8.16
18.578,-12.94
18.593,-19.31
18.609,-27.03
18.625,-35.7
18.640,-44.58
18.656,-52.89
18.671,-59.79
18.687,-64.64
18.703,-66.92
18.718,-66.25
18.734,-62.41
18.750,-55.38
18.765,-45.56
18.781,-33.63
18.796,-20.62
18.812,-7.54
18.828,4.88
18.843,16.19
18.859,26.32
18.875,35.23
18.890,42.95
18.906,49.26
18.921,54.04
18.937,57.08
18.953,58.3
18.968,57.74
18.984,55.3
19.000,50.99
19.015,44.92
19.031,37.63
19.046,29.93
19.062,22.98
19.078,17.88
19.093,15.35
19.109,15.65
19.125,18.26
19.140,22.28
19.156,26.56
19.171,30.25
19.187,32.64
19.203,33.54
19.218,33.06
19.234,31.53
19.250,29.45
19.265,27.17
19.281,24.89
19.296,22.52
19.312,19.86
19.328,16.61
19.343,12.65
19.359,7.97
19.375,2.78
19.390,-2.44
19.406,-7.3
19.421,-11.32
19.437,-14.21
19.453,-15.82
19.468,-16.11
19.484,-15.21
19.500,-13.4
19.515,-11.13
19.531,-8.66
19.546,-6.34
19.562,-4.28
19.578,-2.46
19.593,-0.83
19.609,0.76
19.625,2.44
19.640,4.31
19.656,6.3
19.671,8.42
19.687,10.43
19.703,12.08
19.718,13.11
19.734,13.29
19.750,12.7
19.765,11.59
19.781,10.43
19.796,9.69
19.812,9.75
19.828,10.66
19.843,12.28
19.859,14.37
19.875,16.57
19.890,18.66
19.906,20.46
19.921,21.92
19.937,23.04
19.953,23.85
19.968,24.36
19.984,24.52
20.000,24.41
20.015,23.93
20.031,23.19
20.046,22.29
20.062,21.42
20.078,20.72
20.093,20.31
20.109,20.24
20.125,20.34
20.140,20.46
20.156,20.36
20.171,20.01
20.187,19.43
20.203,18.72
20.218,17.95
20.234,17.1
20.250,16.1
20.265,14.83
20.281,13.2
20.296,11.16
20.312,8.91
20.328,6.55
20.343,4.18
20.359,1.81
20.375,-0.62
20.390,-3.12
20.406,-5.59
20.421,-7.93
20.437,-10.06
20.453,-11.9
20.468,-13.46
20.484,-14.79
20.500,-15.75
20.515,-16.09
20.531,-15.45
20.546,-13.55
20.562,-10.37
20.578,-6.23
20.593,-1.63
20.609,2.87
20.625,6.8
20.640,9.97
20.656,12.27
20.671,13.81
20.687,14.69
20.703,15.03
20.718,15.03
20.734,14.87
20.750,14.64
20.765,14.46
20.781,14.37
20.796,14.28
20.812,14.2
20.828,14.12
20.843,14.07
20.859,13.93
20.875,13.64
20.890,13.0
20.906,11.96
20.921,10.58
20.937,8.84
20.953,6.84
20.968,4.67
20.984,2.34
21.000,-0.18
21.015,-2.86
21.031,-5.69
21.046,-8.45
21.062,-10.96
21.078,-13.1
21.093,-14.78
21.109,-16.06
21.125,-17.12
21.140,-18.08
21.156,-19.08
21.171,-20.19
21.187,-21.41
21.203,-22.63
21.218,-23.8
21.234,-24.63
21.250,-24.86
21.265,-24.24
21.281,-22.58
21.296,-19.91
21.312,-16.44
21.328,-12.59
21.343,-8.62
21.359,-4.94
21.375,-1.64
21.390,1.14
21.406,3.34
21.421,4.92
21.437,5.78
21.453,5.99
21.468,5.64
21.484,5.03
21.500,4.48
21.515,4.27
21.531,4.53
21.546,5.14
21.562,5.96
21.578,6.62
21.593,6.95
21.609,6.9
21.625,6.51
21.640,5.87
21.656,5.1
21.671,4.29
21.687,3.37
21.703,2.35
21.718,1.11
21.734,-0.37
21.750,-2.09
21.765,-4.0
21.781,-6.06
21.796,-8.18
21.812,-10.24
21.828,-12.21
21.843,-13.98
21.859,-15.65
21.875,-17.26
21.890,-18.86
21.906,-20.5
21.921,-22.04
21.937,-23.28
21.953,-23.93
21.968,-23.72
21.984,-22.46
22.000,-20.24
22.015,-17.23
22.031,-13.79
22.046,-10.32
22.062,-7.15
22.078,-4.43
22.093,-2.21
22.109,-0.4
22.125,1.15
22.140,2.52
22.156,3.76
22.171,4.86
22.187,5.85
22.203,6.73
22.218,7.64
22.234,8.67
22.250,9.92
22.265,11.36
22.281,12.8
22.296,13.95
22.312,14.49
22.328,14.32
22.343,13.53
22.359,12.31
22.375,10.88
22.390,9.43
22.406,8.02
22.421,6.64
22.437,5.28
22.453,3.95
22.468,2.62
22.484,1.36
22.500,0.15
22.515,-1.14
22.531,-2.64
22.546,-4.47
22.562,-6.7
22.578,-9.23
22.593,-11.88
22.609,-14.44
22.625,-16.71
22.640,-18.51
22.656,-19.71
22.671,-20.21
22.687,-19.82
22.703,-18.32
22.718,-15.5
22.734,-11.28
22.750,-5.81
22.765,0.56
22.781,7.38
22.796,14.27
22.812,20.94
22.828,27.35
22.843,33.6
22.859,39.87
22.875,46.27
22.890,52.62
22.906,58.66
22.921,63.91
22.937,67.93
22.953,70.34
22.968,70.85
22.984,69.27
23.000,65.58
23.015,59.98
23.031,52.84
23.046,44.72
23.062,36.25
23.078,28.0
23.093,20.47
23.109,14.0
23.125,8.79
23.140,4.89
23.156,2.3
23.171,0.78
23.187,-0.07
23.203,-0.82
23.218,-2.07
23.234,-4.27
23.250,-7.63
23.265,-12.05
23.281,-17.21
23.296,-22.58
23.312,-27.65
23.328,-32.08
23.343,-35.8
23.359,-39.14
23.375,-42.5
23.390,-46.26
23.406,-50.54
23.421,-55.07
23.437,-59.25
23.453,-62.29
23.468,-63.45
23.484,-62.22
23.500,-58.54
23.515,-52.68
23.531,-45.22
23.546,-36.81
23.562,-28.22
23.578,-20.2
23.593,-13.43
23.609,-8.47
23.625,-5.57
23.640,-4.71
23.656,-5.56
23.671,-7.68
23.687,-10.56
23.703,-13.97
23.718,-18.09
23.734,-23.16
23.750,-29.42
23.765,-36.63
23.781,-44.01
23.796,-50.34
23.812,-54.38
23.828,-55.37
23.843,-53.23
23.859,-48.77
23.875,-43.12
23.890,-37.5
23.906,-32.62
23.921,-28.66
23.937,-25.48
23.953,-22.85
23.968,-20.84
23.984,-19.6
24.000,-19.37
24.015,-20.13
24.031,-21.65
24.046,-23.44
24.062,-24.88
24.078,-25.49
24.093,-25.0
24.109,-23.35
24.125,-20.58
24.140,-16.78
24.156,-12.03
24.171,-6.51
24.187,-0.43
24.203,5.96
24.218,12.24
24.234,18.09
24.250,23.27
24.265,27.67
24.281,31.31
24.296,34.27
24.312,36.6
24.328,38.33
24.343,39.46
24.359,39.9
24.375,39.72
24.390,38.95
24.406,37.7
24.421,36.1
24.437,34.22
24.453,32.1
24.468,29.69
24.484,26.99
24.500,23.99
24.515,20.91
24.531,17.95
24.546,15.24
24.562,12.86
24.578,10.77
24.593,8.9
24.609,7.05
24.625,5.09
24.640,2.95
24.656,0.73
24.671,-1.37
24.687,-3.12
24.703,-4.28
24.718,-4.71
24.734,-4.49
24.750,-3.87
24.765,-3.22
24.781,-2.98
24.796,-3.36
24.812,-4.39
24.828,-5.82
24.843,-7.24
24.859,-8.15
24.875,-8.14
24.890,-7.01
24.906,-4.8
24.921,-1.81
24.937,1.58
24.953,4.98
24.968,8.06
24.984,10.62
25.000,12.5
25.015,13.56
25.031,13.68
25.046,12.67
25.062,10.41
25.078,6.85
25.093,2.23
25.109,-3.11
25.125,-8.57
25.140,-13.63
25.156,-17.89
25.171,-21.0
25.187,-22.9
25.203,-23.62
25.218,-23.32
25.234,-22.22
25.250,-20.56
25.265,-18.55
25.281,-16.42
25.296,-14.44
25.312,-12.83
25.328,-11.91
25.343,-11.94
25.359,-13.19
25.375,-15.66
25.390,-19.16
25.406,-23.36
25.421,-27.76
25.437,-32.0
25.453,-35.89
25.468,-39.49
25.484,-42.88
25.500,-46.1
25.515,-48.82
25.531,-50.54
25.546,-50.68
25.562,-48.78
25.578,-44.79
25.593,-38.75
25.609,-30.91
25.625,-21.4
25.640,-10.38
25.656,1.75
25.671,14.3
25.687,26.31
25.703,36.79
25.718,45.11
25.734,51.26
25.750,55.65
25.765,58.79
25.781,60.88
25.796,61.75
25.812,61.07
25.828,58.79
25.843,55.36
25.859,51.73
25.875,48.92
25.890,47.59
25.906,47.63
25.921,48.36
25.937,48.92
25.953,48.79
25.968,47.94
25.984,46.88
26.000,46.15
26.015,46.05
26.031,46.37
26.046,46.5
26.062,45.73
26.078,43.46
26.093,39.69
26.109,34.7
26.125,29.06
26.140,23.33
26.156,17.87
26.171,12.81
26.187,8.05
26.203,3.39
26.218,-1.5
26.234,-6.72
26.250,-12.31
26.265,-17.92
26.281,-22.99
26.296,-26.73
26.312,-28.42
26.328,-27.48
26.343,-23.85
26.359,-17.94
26.375,-10.47
26.390,-2.27
26.406,5.88
26.421,13.42
26.437,20.02
26.453,25.44
26.468,29.68
26.484,32.67
26.500,34.36
26.515,34.76
26.531,33.91
26.546,32.0
26.562,29.36
26.578,26.4
26.593,23.46
26.609,20.84
26.625,18.62
26.640,16.74
26.656,15.14
26.671,13.65
26.687,12.29
26.703,11.1
26.718,10.12
26.734,9.29
26.750,8.37
26.765,7.05
26.781,5.03
26.796,2.22
26.812,-1.33
26.828,-5.3
26.843,-9.31
26.859,-13.17
26.875,-16.91
26.890,-20.69
26.906,-24.72
26.921,-29.15
26.937,-33.85
26.953,-38.53
26.968,-42.72
26.984,-45.94
27.000,-47.88
27.015,-48.45
27.031,-47.72
27.046,-45.89
27.062,-43.25
27.078,-39.98
27.093,-36.21
27.109,-31.93
27.125,-27.11
27.140,-21.76
27.156,-15.9
27.171,-9.63
27.187,-3.1
27.203,3.41
27.218,9.59
27.234,15.09
27.250,19.67
27.265,23.35
27.281,26.34
27.296,29.16
27.312,32.25
27.328,36.04
27.343,40.63
27.359,46.05
27.375,52.23
27.390,59.24
27.406,67.25
27.421,76.5
27.437,87.18
27.453,99.18
27.468,112.12
27.484,125.14
27.500,137.02
27.515,146.1
27.531,150.51
27.546,148.55
27.562,139.26
27.578,122.96
27.593,101.26
27.609,76.87
27.625,52.72
27.640,31.26
27.656,13.87
27.671,0.75
27.687,-8.9
27.703,-16.26
27.718,-22.3
27.734,-27.34
27.750,-30.92
27.765,-32.14
27.781,-30.21
27.796,-25.06
27.812,-17.95
27.828,-11.31
27.843,-7.94
27.859,-10.08
27.875,-18.43
27.890,-31.71
27.906,-47.24
27.921,-61.87
27.937,-72.97
27.953,-79.13
27.968,-80.43
27.984,-78.17
28.000,-74.63
28.015,-72.45
28.031,-73.71
28.046,-79.08
28.062,-87.03
28.078,-93.64
28.093,-93.77
28.109,-83.0
28.125,-59.92
28.140,-27.42
28.156,7.71
28.171,37.34
28.187,55.01
28.203,58.31
28.218,49.5
28.234,34.04
28.250,18.27
28.265,7.16
28.281,3.12
28.296,5.73
28.312,12.6
28.328,20.02
28.343,23.82
28.359,20.27
28.375,6.79
28.390,-16.83
28.406,-47.87
28.421,-81.0
28.437,-109.61
28.453,-127.81
28.468,-132.52
28.484,-124.46
28.500,-107.62
28.515,-87.81
28.531,-70.34
28.546,-58.48
28.562,-52.8
28.578,-51.68
28.593,-52.38
28.609,-52.26
28.625,-49.49
28.640,-43.21
28.656,-33.53
28.671,-21.49
28.687,-8.75
28.703,2.72
28.718,11.16
28.734,15.81
28.750,17.11
28.765,16.64
28.781,16.51
28.796,18.34
28.812,22.53
28.828,28.25
28.843,33.87
28.859,37.8
28.875,39.2
28.890,38.14
28.906,35.47
28.921,32.33
28.937,29.7
28.953,28.14
28.968,27.88
28.984,28.84
29.000,30.64
29.015,32.64
29.031,33.89
29.046,33.44
29.062,30.57
29.078,25.16
29.093,17.75
29.109,9.59
29.125,2.25
29.140,-3.02
29.156,-5.54
29.171,-5.67
29.187,-4.6
29.203,-3.89
29.218,-4.9
29.234,-8.45
29.250,-14.53
29.265,-22.66
29.281,-32.04
29.296,-41.51
29.312,-49.86
29.328,-55.88
29.343,-58.54
29.359,-57.41
29.375,-52.78
29.390,-45.5
29.406,-36.86
29.421,-28.17
29.437,-20.05
29.453,-12.77
29.468,-6.2
29.484,-0.14
29.500,5.44
29.515,10.39
29.531,14.63
29.546,18.09
29.562,20.71
29.578,22.37
29.593,22.87
29.609,21.92
29.625,19.46
29.640,15.77
29.656,11.44
29.671,7.37
29.687,4.48
29.703,3.49
29.718,4.7
29.734,7.97
29.750,12.91
29.765,18.92
29.781,25.18
29.796,30.85
29.812,35.12
29.828,37.37
29.843,37.43
29.859,35.63
29.875,32.51
29.890,28.9
29.906,25.57
29.921,22.93
29.937,21.07
29.953,19.88
29.968,19.14
29.984,18.62
30.000,18.27
30.015,18.09
30.031,18.16
30.046,18.78
30.062,20.3
30.078,23.03
30.093,27.06
30.109,31.93
30.125,36.54
30.140,39.73
30.156,40.67
30.171,39.36
30.187,36.68
30.203,33.92
30.218,32.21
30.234,32.07
30.250,33.09
30.265,34.24
30.281,34.49
30.296,33.29
30.312,31.07
30.328,29.03
30.343,28.84
30.359,32.0
30.375,39.22
30.390,50.22
30.406,63.64
30.421,77.63
30.437,90.23
30.453,100.14
30.468,106.9
30.484,110.78
30.500,112.45
30.515,112.54
30.531,111.12
30.546,107.28
30.562,99.16
30.578,84.31
30.593,60.87
30.609,28.53
30.625,-10.83
30.640,-53.37
30.656,-94.49
30.671,-130.45
30.687,-159.36
30.703,-181.62
30.718,-199.32
30.734,-214.88
30.750,-230.1
30.765,-245.87
30.781,-261.88
30.796,-276.75
30.812,-287.82
30.828,-291.26
30.843,-282.9
30.859,-259.54
30.875,-220.74
30.890,-169.33
30.906,-111.15
30.921,-52.98
30.937,-0.31
30.953,44.23
30.968,81.05
30.984,112.37
31.000,140.55
31.015,166.71
31.031,190.51
31.046,210.74
31.062,226.35
31.078,237.11
31.093,243.7
31.109,247.2
31.125,248.42
31.140,247.6
31.156,244.45
31.171,238.53
31.187,229.49
31.203,217.35
31.218,201.89
31.234,182.25
31.250,156.83
31.265,123.64
31.281,81.14
31.296,29.33
31.312,-29.57
31.328,-91.37
31.343,-150.5
31.359,-201.41
31.375,-240.13
31.390,-265.2
31.406,-278.43
31.421,-284.67
31.437,-290.83
31.453,-303.84
31.468,-328.18
31.484,-363.86
31.500,-405.55
31.515,-444.11
31.531,-469.34
31.546,-473.62
31.562,-454.47
31.578,-414.86
31.593,-361.64
31.609,-303.04
31.625,-246.45
31.640,-197.49
31.656,-160.3
31.671,-137.59
31.687,-130.31
31.703,-136.63
31.718,-151.06
31.734,-164.81
31.750,-168.22
31.765,-154.27
31.781,-121.47
31.796,-74.51
31.812,-22.06
31.828,26.66
31.843,65.45
31.859,92.79
31.875,111.14
31.890,124.61
31.906,136.35
31.921,147.32
31.937,156.36
31.953,161.71
31.968,162.29
31.984,158.19
32.000,150.4
32.015,139.81
32.031,126.8
32.046,111.48
32.062,94.36
32.078,76.76
32.093,60.52
32.109,47.41
32.125,38.23
32.140,32.63
32.156,29.39
32.171,27.38
32.187,26.38
32.203,27.39
32.218,31.86
32.234,40.75
32.250,53.91
32.265,69.95
32.281,86.87
32.296,102.7
32.312,116.0
32.328,125.81
32.343,131.64
32.359,133.4
32.375,131.5
32.390,126.92
32.406,120.9
32.421,114.46
32.437,107.89
32.453,100.55
32.468,91.23
32.484,78.82
32.500,62.73
32.515,43.17
32.531,21.2
32.546,-1.52
32.562,-22.67
32.578,-39.37
32.593,-48.79
32.609,-48.77
32.625,-38.79
32.640,-20.39
32.656,2.87
32.671,26.57
32.687,46.62
32.703,60.48
32.718,67.57
32.734,68.62
32.750,64.68
32.765,56.42
32.781,44.09
32.796,28.05
32.812,9.6
32.828,-8.95
32.843,-24.67
32.859,-35.15
32.875,-39.59
32.890,-39.26
32.906,-36.87
32.921,-35.31
32.937,-36.48
32.953,-40.57
32.968,-46.54
32.984,-52.82
33.000,-58.09
33.015,-61.77
33.031,-63.73
33.046,-63.95
33.062,-62.44
33.078,-59.08
33.093,-53.96
33.109,-47.53
33.125,-40.62
33.140,-34.0
33.156,-28.01
33.171,-22.24
33.187,-15.61
33.203,-6.84
33.218,4.98
33.234,19.88
33.250,36.87
33.265,54.07
33.281,69.29
33.296,80.77
33.312,87.43
33.328,89.1
33.343,86.52
33.359,81.04
33.375,74.11
33.390,67.15
33.406,60.79
33.421,55.21
33.437,50.05
33.453,44.44
33.468,37.23
33.484,27.29
33.500,13.94
33.515,-2.91
33.531,-22.62
33.546,-44.25
33.562,-66.7
33.578,-89.17
33.593,-111.59
33.609,-134.03
33.625,-156.16
33.640,-176.77
33.656,-193.84
33.671,-205.08
33.687,-209.34
33.703,-206.84
33.718,-199.12
33.734,-189.63
33.750,-181.87
33.765,-178.38
33.781,-180.12
33.796,-186.79
33.812,-196.82
33.828,-209.51
33.843,-223.76
33.859,-237.12
33.875,-247.85
33.890,-253.35
33.906,-250.41
33.921,-235.73
33.937,-207.27
33.953,-164.13
33.968,-110.04
33.984,-50.35
34.000,10.63
34.015,66.89
34.031,113.94
34.046,149.51
34.062,173.72
34.078,187.86
34.093,194.6
34.109,191.73
34.125,175.75
34.140,144.28
34.156,92.33
34.171,16.69
34.187,-81.91
34.203,-198.03
34.218,-322.63
34.234,-443.51
34.250,-554.56
34.265,-652.5
34.281,-709.89
34.296,-704.75
34.312,-629.48
34.328,-497.9
34.343,-337.94
34.359,-192.72
34.375,-62.74
34.390,61.67
34.406,189.64
34.421,326.37
34.437,466.96
34.453,598.01
34.468,705.51
34.484,780.42
34.500,821.5
34.515,835.97
34.531,829.25
34.546,806.23
34.562,771.29
34.578,724.72
34.593,666.03
34.609,596.61
34.625,520.56
34.640,444.33
34.656,376.21
34.671,318.84
34.687,271.71
34.703,232.29
34.718,194.85
34.734,153.5
34.750,105.12
34.765,50.75
34.781,-4.35
34.796,-52.11
34.812,-88.04
34.828,-110.95
34.843,-122.72
34.859,-127.85
34.875,-130.87
34.890,-133.99
34.906,-136.94
34.921,-137.64
34.937,-133.55
34.953,-124.55
34.968,-112.22
34.984,-99.01
35.000,-87.4
35.015,-78.75
35.031,-72.73
35.046,-68.06
35.062,-62.99
35.078,-56.42
35.093,-48.77
35.109,-41.36
35.125,-35.54
35.140,-31.99
35.156,-30.6
35.171,-30.67
35.187,-31.87
35.203,-34.3
35.218,-38.63
35.234,-45.55
35.250,-55.22
35.265,-67.11
35.281,-80.23
35.296,-93.56
35.312,-106.42
35.328,-118.52
35.343,-129.53
35.359,-138.76
35.375,-145.19
35.390,-147.67
35.406,-145.66
35.421,-139.42
35.437,-129.93
35.453,-118.38
35.468,-105.79
35.484,-92.78
35.500,-79.89
35.515,-67.92
35.531,-57.89
35.546,-50.9
35.562,-47.48
35.578,-47.27
35.593,-48.8
35.609,-50.14
35.625,-49.55
35.640,-45.97
35.656,-39.3
35.671,-29.81
35.687,-17.86
35.703,-3.44
35.718,13.63
35.734,33.37
35.750,55.23
35.765,77.97
35.781,99.86
35.796,119.11
35.812,134.41
35.828,144.96
35.843,150.53
35.859,151.21
35.875,147.49
35.890,140.36
35.906,131.46
35.921,122.97
35.937,116.97
35.953,114.93
35.968,117.08
35.984,122.38
36.000,129.09
36.015,135.51
36.031,140.79
36.046,145.14
36.062,149.42
36.078,154.47
36.093,160.57
36.109,167.02
36.125,172.43
36.140,175.37
36.156,174.93
36.171,171.02
36.187,164.3
36.203,155.68
36.218,146.02
36.234,135.6
36.250,124.05
36.265,110.43
36.281,93.64
36.296,72.97
36.312,48.54
36.328,21.42
36.343,-6.63
36.359,-33.84
36.375,-59.06
36.390,-82.03
36.406,-103.06
36.421,-122.35
36.437,-139.43
36.453,-153.21
36.468,-162.46
36.484,-166.75
36.500,-166.86
36.515,-164.6
36.531,-161.8
36.546,-159.37
36.562,-156.96
36.578,-153.43
36.593,-148.13
36.609,-141.72
36.625,-136.49
36.640,-135.11
36.656,-139.01
36.671,-147.35
36.687,-156.83
36.703,-163.28
36.718,-163.19
36.734,-155.14
36.750,-139.69
36.765,-118.12
36.781,-90.88
36.796,-56.71
36.812,-13.58
36.828,39.48
36.843,100.06
36.859,161.16
36.875,212.2
36.890,241.95
36.906,242.68
36.921,213.37
36.937,160.72
36.953,96.84
36.968,35.18
36.984,-14.29
37.000,-47.8
37.015,-67.44
37.031,-78.41
37.046,-85.22
37.062,-89.66
37.078,-91.06
37.093,-88.87
37.109,-84.78
37.125,-82.95
37.140,-87.69
37.156,-100.05
37.171,-116.84
37.187,-132.41
37.203,-142.9
37.218,-149.37
37.234,-157.83
37.250,-175.96
37.265,-208.35
37.281,-253.51
37.296,-304.46
37.312,-352.46
37.328,-390.39
37.343,-414.38
37.359,-422.35
37.375,-411.49
37.390,-377.31
37.406,-315.29
37.421,-224.26
37.437,-109.18
37.453,18.42
37.468,143.36
37.484,250.63
37.500,329.6
37.515,375.92
37.531,391.76
37.546,383.85
37.562,360.88
37.578,330.8
37.593,298.75
37.609,266.45
37.625,232.93
37.640,196.28
37.656,155.61
37.671,112.08
37.687,69.01
37.703,30.76
37.718,1.6
37.734,-15.14
37.750,-17.21
37.765,-3.61
37.781,25.53
37.796,68.62
37.812,121.94
37.828,179.69
37.843,234.5
37.859,278.97
37.875,307.55
37.890,317.88
37.906,310.77
37.921,289.16
37.937,256.75
37.953,216.73
37.968,171.75
37.984,124.49
38.000,78.33
38.015,37.45
38.031,5.93
38.046,-13.65
38.062,-21.42
38.078,-20.14
38.093,-14.11
38.109,-7.46
38.125,-2.81
38.140,-0.96
38.156,-1.41
38.171,-3.36
38.187,-6.19
38.203,-9.48
38.218,-12.7
38.234,-15.0
38.250,-15.5
38.265,-13.68
38.281,-9.84
38.296,-4.82
38.312,0.28
38.328,4.58
38.343,7.69
38.359,9.25
38.375,8.88
38.390,6.03
38.406,0.28
38.421,-8.81
38.437,-21.3
38.453,-36.98
38.468,-55.57
38.484,-76.35
38.500,-98.21
38.515,-119.62
38.531,-138.83
38.546,-154.14
38.562,-164.35
38.578,-168.92
38.593,-167.7
38.609,-161.22
38.625,-150.27
38.640,-135.82
38.656,-118.98
38.671,-100.68
38.687,-81.61
38.703,-62.09
38.718,-42.47
38.734,-23.17
38.750,-5.02
38.765,10.97
38.781,23.94
38.796,33.51
38.812,39.86
38.828,43.51
38.843,44.87
38.859,43.87
38.875,40.23
38.890,33.64
38.906,24.38
38.921,13.4
38.937,1.87
38.953,-9.12
38.968,-19.08
38.984,-27.92
39.000,-35.64
39.015,-42.02
39.031,-46.48
39.046,-48.65
39.062,-48.61
39.078,-47.45
39.093,-46.7
39.109,-47.7
39.125,-50.98
39.140,-55.84
39.156,-60.75
39.171,-63.78
39.187,-63.32
39.203,-58.19
39.218,-47.94
39.234,-32.69
39.250,-12.94
39.265,10.21
39.281,35.19
39.296,59.95
39.312,82.27
39.328,100.03
39.343,111.71
39.359,116.49
39.375,114.5
39.390,106.79
39.406,95.05
39.421,81.34
39.437,67.64
39.453,55.56
39.468,45.83
39.484,38.45
39.500,32.87
39.515,28.24
39.531,24.13
39.546,20.47
39.562,17.49
39.578,15.53
39.593,14.48
39.609,13.66
39.625,12.23
39.640,9.62
39.656,5.81
39.671,1.57
39.687,-2.11
39.703,-4.44
39.718,-5.4
39.734,-5.72
39.750,-6.23
39.765,-7.23
39.781,-8.17
39.796,-8.09
39.812,-5.92
39.828,-1.31
39.843,5.1
39.859,11.86
39.875,17.57
39.890,21.55
39.906,24.45
39.921,27.74
39.937,32.92
39.953,40.9
39.968,51.56
39.984,64.04
40.000,77.04
40.015,89.64
40.031,101.64
40.046,113.34
40.062,124.79
40.078,135.53
40.093,144.48
40.109,150.3
40.125,152.36
40.140,150.37
40.156,145.52
40.171,140.45
40.187,138.39
40.203,141.86
40.218,151.72
40.234,166.97
40.250,185.56
40.265,205.55
40.281,223.71
40.296,237.75
40.312,246.29
40.328,248.62
40.343,243.31
40.359,227.5
40.375,197.52
40.390,150.5
40.406,86.12
40.421,4.01
40.437,-92.87
40.453,-198.04
40.468,-302.29
40.484,-396.18
40.500,-472.76
40.515,-528.68
40.531,-563.69
40.546,-579.6
40.562,-584.08
40.578,-585.28
40.593,-589.54
40.609,-599.82
40.625,-616.14
40.640,-637.39
40.656,-662.07
40.671,-688.25
40.687,-686.49
40.703,-635.73
40.718,-530.66
40.734,-386.88
40.750,-231.15
40.765,-86.43
40.781,34.98
40.796,129.9
40.812,200.14
40.828,249.66
40.843,278.56
40.859,287.33
40.875,278.52
40.890,257.69
40.906,232.07
40.921,208.23
40.937,190.52
40.953,180.66
40.968,178.98
40.984,181.39
41.000,183.7
41.015,183.4
41.031,180.78
41.046,178.1
41.062,178.12
41.078,182.9
41.093,193.05
41.109,208.46
41.125,226.24
41.140,243.46
41.156,257.71
41.171,268.92
41.187,275.85
41.203,277.25
41.218,271.29
41.234,256.24
41.250,230.97
41.265,194.28
41.281,146.76
41.296,90.91
41.312,31.02
41.328,-27.64
41.343,-79.89
41.359,-122.15
41.375,-152.28
41.390,-169.6
41.406,-174.67
41.421,-168.66
41.437,-153.23
41.453,-130.47
41.468,-102.53
41.484,-71.6
41.500,-40.18
41.515,-10.79
41.531,14.43
41.546,34.2
41.562,48.19
41.578,56.6
41.593,59.62
41.609,57.41
41.625,49.39
41.640,34.0
41.656,10.52
41.671,-21.5
41.687,-61.75
41.703,-104.73
41.718,-144.77
41.734,-177.07
41.750,-198.2
41.765,-205.09
41.781,-194.92
41.796,-166.34
41.812,-122.0
41.828,-69.2
41.843,-17.68
41.859,22.76
41.875,46.77
41.890,54.43
41.906,50.43
41.921,41.0
41.937,30.91
41.953,21.87
41.968,13.63
41.984,5.35
42.000,-3.62
42.015,-12.79
42.031,-22.05
42.046,-32.09
42.062,-44.36
42.078,-60.71
42.093,-82.45
42.109,-109.09
42.125,-138.48
42.140,-168.88
42.156,-195.35
42.171,-213.61
42.187,-220.81
42.203,-215.63
42.218,-198.25
42.234,-169.79
42.250,-131.7
42.265,-84.68
42.281,-32.69
42.296,21.24
42.312,74.26
42.328,123.85
42.343,167.94
42.359,205.09
42.375,234.68
42.390,259.7
42.406,279.0
42.421,291.61
42.437,297.35
42.453,295.67
42.468,285.93
42.484,267.65
42.500,241.05
42.515,208.1
42.531,172.06
42.546,135.68
42.562,102.07
42.578,74.32
42.593,54.1
42.609,41.57
42.625,35.21
42.640,31.68
42.656,24.99
42.671,12.69
42.687,-7.66
42.703,-37.26
42.718,-75.71
42.734,-121.24
42.750,-170.28
42.765,-220.44
42.781,-269.37
42.796,-312.96
42.812,-346.39
42.828,-366.48
42.843,-371.35
42.859,-360.55
42.875,-335.02
42.890,-296.47
42.906,-244.96
42.921,-187.03
42.937,-128.8
42.953,-74.63
42.968,-27.48
42.984,11.18
43.000,41.08
43.015,62.56
43.031,76.77
43.046,89.16
43.062,98.55
43.078,104.39
43.093,106.84
43.109,105.99
43.125,102.08
43.140,95.2
43.156,85.24
43.171,72.98
43.187,58.7
43.203,41.77
43.218,23.32
43.234,5.33
43.250,-9.78
43.265,-19.36
43.281,-20.44
43.296,-17.01
43.312,-9.95
43.328,-0.2
43.343,10.41
43.359,21.12
43.375,31.84
43.390,42.76
43.406,54.31
43.421,67.28
43.437,82.68
43.453,102.47
43.468,127.47
43.484,156.25
43.500,185.79
43.515,211.76
43.531,229.47
43.546,235.69
43.562,229.95
43.578,214.56
43.593,194.26
43.609,173.28
43.625,154.07
43.640,137.36
43.656,122.75
43.671,109.69
43.687,97.85
43.703,87.11
43.718,77.22
43.734,67.83
43.750,58.13
43.765,47.48
43.781,35.79
43.796,23.53
43.812,11.18
43.828,-1.1
43.843,-13.55
43.859,-26.37
43.875,-39.08
43.890,-50.72
43.906,-60.11
43.921,-66.67
43.937,-70.69
43.953,-73.63
43.968,-77.32
43.984,-83.13
44.000,-91.26
44.015,-100.14
44.031,-106.99
44.046,-108.65
44.062,-102.94
44.078,-89.45
44.093,-70.07
44.109,-48.28
44.125,-27.86
44.140,-11.77
44.156,-1.3
44.171,3.96
44.187,5.44
44.203,4.48
44.218,2.17
44.234,-0.8
44.250,-3.76
44.265,-5.74
44.281,-5.87
44.296,-3.68
44.312,0.41
44.328,5.33
44.343,9.7
44.359,12.71
44.375,14.39
44.390,15.69
44.406,17.97
44.421,22.05
44.437,27.97
44.453,34.85
44.468,41.28
44.484,46.09
44.500,48.66
44.515,49.06
44.531,47.82
44.546,45.63
44.562,42.47
44.578,37.96
44.593,31.64
44.609,23.37
44.625,13.78
44.640,4.03
44.656,-4.49
44.671,-10.62
44.687,-13.68
44.703,-13.97
44.718,-12.36
44.734,-10.13
44.750,-8.61
44.765,-8.65
44.781,-10.65
44.796,-14.62
44.812,-20.35
44.828,-27.72
44.843,-36.72
44.859,-47.17
44.875,-58.82
44.890,-71.29
44.906,-83.76
44.921,-95.22
44.937,-104.52
44.953,-110.37
44.968,-111.71
44.984,-107.92
45.000,-98.86
45.015,-85.23
45.031,-68.49
45.046,-49.66
45.062,-29.39
45.078,-7.97
45.093,14.42
45.109,37.0
45.125,58.42
45.140,77.02
45.156,91.16
45.171,99.76
45.187,103.5
45.203,103.77
45.218,101.86
45.234,98.4
45.250,93.52
45.265,87.46
45.281,80.67
45.296,73.06
45.312,63.36
45.328,50.39
45.343,32.36
45.359,7.69
45.375,-24.07
45.390,-61.26
45.406,-99.9
45.421,-135.38
45.437,-164.82
45.453,-188.18
45.468,-205.46
45.484,-216.89
45.500,-222.3
45.515,-221.38
45.531,-213.96
45.546,-200.2
45.562,-180.9
45.578,-157.48
45.593,-131.11
45.609,-98.36
45.625,-53.12
45.640,10.45
45.656,94.67
45.671,196.95
45.687,310.68
45.703,428.04
45.718,541.86
45.734,627.86
45.750,664.9
45.765,644.27
45.781,575.25
45.796,478.61
45.812,374.45
45.828,275.14
45.843,186.32
45.859,109.18
45.875,41.79
45.890,-16.28
45.906,-65.03
45.921,-105.22
45.937,-139.06
45.953,-169.53
45.968,-199.32
45.984,-229.85
46.000,-259.56
46.015,-285.52
46.031,-302.88
46.046,-308.17
46.062,-301.88
46.078,-288.74
46.093,-271.47
46.109,-255.99
46.125,-244.04
46.140,-232.55
46.156,-216.92
46.171,-193.09
46.187,-160.39
46.203,-122.41
46.218,-84.85
46.234,-52.74
46.250,-28.71
46.265,-11.75
46.281,0.56
46.296,9.63
46.312,15.84
46.328,19.43
46.343,20.65
46.359,20.32
46.375,19.46
46.390,18.59
46.406,18.11
46.421,17.76
46.437,16.29
46.453,12.34
46.468,5.54
46.484,-3.34
46.500,-12.26
46.515,-18.4
46.531,-19.34
46.546,-13.78
46.562,-1.95
46.578,14.06
46.593,30.99
46.609,45.89
46.625,56.63
46.640,62.68
46.656,64.36
46.671,62.16
46.687,56.86
46.703,48.73
46.718,37.65
46.734,23.45
46.750,6.37
46.765,-12.75
46.781,-32.89
46.796,-52.39
46.812,-69.11
46.828,-80.11
46.843,-82.15
46.859,-72.68
46.875,-51.26
46.890,-20.23
46.906,15.53
46.921,49.76
46.937,77.47
46.953,96.51
46.968,107.93
46.984,114.55
47.000,119.11
47.015,122.82
47.031,123.4
47.046,120.8
47.062,114.89
47.078,106.43
47.093,96.85
47.109,87.58
47.125,78.88
47.140,69.79
47.156,58.32
47.171,42.3
47.187,21.28
47.203,-4.26
47.218,-32.44
47.234,-60.95
47.250,-88.17
47.265,-113.38
47.281,-136.52
47.296,-156.18
47.312,-170.05
47.328,-175.53
47.343,-172.1
47.359,-161.77
47.375,-148.41
47.390,-134.57
47.406,-122.49
47.421,-110.15
47.437,-92.97
47.453,-67.89
47.468,-35.8
47.484,-2.1
47.500,26.86
47.515,47.94
47.531,61.56
47.546,70.9
47.562,78.95
47.578,85.24
47.593,85.3
47.609,73.55
47.625,47.16
47.640,8.88
47.656,-33.22
47.671,-69.51
47.687,-92.37
47.703,-98.67
47.718,-89.98
47.734,-71.05
47.750,-47.06
47.765,-21.71
47.781,3.08
47.796,26.97
47.812,49.59
47.828,69.49
47.843,84.54
47.859,92.76
47.875,93.43
47.890,87.44
47.906,76.88
47.921,63.01
47.937,45.21
47.953,20.65
47.968,-13.84
47.984,-58.1
48.000,-105.84
48.015,-145.43
48.031,-164.31
48.046,-151.27
48.062,-102.19
48.078,-21.93
48.093,77.19
48.109,176.94
48.125,255.92
48.140,299.35
48.156,305.52
48.171,283.73
48.187,246.66
48.203,204.04
48.218,161.19
48.234,120.18
48.250,81.65
48.265,47.41
48.281,20.47
48.296,3.69
48.312,-2.26
48.328,0.45
48.343,7.78
48.359,15.61
48.375,20.63
48.390,20.56
48.406,15.23
48.421,6.14
48.437,-4.92
48.453,-17.47
48.468,-32.15
48.484,-49.41
48.500,-68.3
48.515,-87.4
48.531,-105.53
48.546,-122.14
48.562,-138.5
48.578,-157.35
48.593,-181.49
48.609,-211.03
48.625,-241.86
48.640,-266.53
48.656,-273.15
48.671,-257.6
48.687,-221.55
48.703,-171.29
48.718,-114.88
48.734,-59.93
48.750,-11.68
48.765,27.27
48.781,56.59
48.796,78.99
48.812,97.15
48.828,114.61
48.843,134.33
48.859,157.08
48.875,179.88
48.890,196.77
48.906,200.58
48.921,185.03
48.937,147.27
48.953,88.77
48.968,16.5
48.984,-58.72
49.000,-122.09
49.015,-162.38
49.031,-175.17
49.046,-162.83
49.062,-133.04
49.078,-95.5
49.093,-58.95
49.109,-28.55
49.125,-5.9
49.140,9.62
49.156,19.65
49.171,26.03
49.187,30.96
49.203,36.03
49.218,41.77
49.234,47.49
49.250,52.15
49.265,54.44
49.281,53.31
49.296,49.19
49.312,42.45
49.328,34.32
49.343,25.89
49.359,17.7
49.375,9.87
49.390,2.32
49.406,-5.48
49.421,-13.93
49.437,-23.09
49.453,-32.06
49.468,-38.53
49.484,-39.07
49.500,-30.66
49.515,-12.18
49.531,14.1
49.546,42.3
49.562,65.35
49.578,77.65
49.593,77.78
49.609,68.98
49.625,57.72
49.640,50.03
49.656,47.52
49.671,50.07
49.687,51.86
49.703,46.7
49.718,31.44
49.734,7.45
49.750,-20.33
49.765,-46.04
49.781,-66.02
49.796,-79.78
49.812,-89.31
49.828,-95.79
49.843,-99.54
49.859,-99.69
49.875,-94.81
49.890,-84.77
49.906,-72.05
49.921,-61.71
49.937,-60.24
49.953,-73.08
49.968,-103.76
49.984,-152.47
50.000,-215.91
50.015,-286.96
50.031,-355.8
50.046,-411.54
50.062,-444.63
50.078,-449.76
50.093,-427.19
50.109,-383.12
50.125,-326.95
50.140,-268.31
50.156,-214.31
50.171,-168.76
50.187,-133.05
50.203,-107.42
50.218,-92.31
50.234,-87.95
50.250,-93.86
50.265,-107.6
50.281,-125.23
50.296,-142.36
50.312,-155.55
50.328,-163.24
50.343,-165.7
50.359,-164.56
50.375,-161.27
50.390,-156.59
50.406,-150.32
50.421,-141.55
50.437,-129.56
50.453,-114.19
50.468,-96.52
50.484,-78.38
50.500,-61.94
50.515,-48.91
50.531,-40.04
50.546,-35.22
50.562,-33.59
50.578,-34.12
50.593,-35.97
50.609,-38.87
50.625,-42.99
50.640,-48.71
50.656,-56.19
50.671,-65.16
50.687,-75.03
50.703,-84.73
50.718,-92.97
50.734,-98.61
50.750,-100.82
50.765,-99.06
50.781,-93.19
50.796,-83.34
50.812,-69.77
50.828,-53.11
50.843,-34.04
50.859,-13.29
50.875,8.35
50.890,30.14
50.906,51.56
50.921,72.32
50.937,92.31
50.953,111.66
50.968,130.53
50.984,149.03
51.000,167.23
51.015,185.05
51.031,202.28
51.046,218.55
51.062,233.19
51.078,245.4
51.093,254.31
51.109,259.15
51.125,259.54
51.140,255.58
51.156,247.97
51.171,238.01
51.187,227.36
51.203,217.35
51.218,208.96
51.234,202.55
51.250,197.87
51.265,194.35
51.281,191.34
51.296,188.6
51.312,186.37
51.328,185.26
51.343,185.65
51.359,187.69
51.375,191.14
51.390,195.46
51.406,200.09
51.421,204.73
51.437,209.61
51.453,215.42
51.468,223.17
51.484,233.95
51.500,248.95
51.515,269.24
51.531,295.0
51.546,324.96
51.562,355.86
51.578,382.87
51.593,400.88
51.609,406.48
51.625,399.4
51.640,382.46
51.656,360.38
51.671,337.47
51.687,316.22
51.703,296.88
51.718,278.47
51.734,260.24
51.750,242.4
51.765,225.64
51.781,210.04
51.796,194.3
51.812,175.89
51.828,152.43
51.843,122.83
51.859,88.33
51.875,52.27
51.890,19.15
51.906,-6.89
51.921,-23.22
51.937,-29.01
51.953,-25.25
51.968,-14.63
51.984,-1.39
52.000,9.16
52.015,11.65
52.031,2.41
52.046,-19.59
52.062,-52.03
52.078,-89.58
52.093,-125.44
52.109,-153.72
52.125,-171.61
52.140,-180.36
52.156,-184.94
52.171,-191.55
52.187,-205.13
52.203,-227.06
52.218,-254.07
52.234,-278.97
52.250,-292.5
52.265,-286.52
52.281,-256.21
52.296,-201.6
52.312,-126.27
52.328,-36.44
52.343,60.76
52.359,158.69
52.375,251.33
52.390,334.2
52.406,404.13
52.421,460.14
52.437,503.05
52.453,536.24
52.468,562.08
52.484,579.49
52.500,583.59
52.515,567.43
52.531,525.84
52.546,457.89
52.562,369.29
52.578,270.02
52.593,174.75
52.609,95.63
52.625,38.83
52.640,4.39
52.656,-11.38
52.671,-12.89
52.687,-5.11
52.703,8.98
52.718,25.75
52.734,46.13
52.750,70.2
52.765,95.85
52.781,118.47
52.796,133.35
52.812,138.3
52.828,132.18
52.843,119.39
52.859,105.53
52.875,102.68
52.890,119.63
52.906,158.91
52.921,216.18
52.937,284.61
52.953,359.81
52.968,439.01
52.984,525.29
53.000,575.2
53.015,557.93
53.031,466.03
53.046,321.73
53.062,159.41
53.078,6.23
53.093,-108.2
53.109,-195.22
53.125,-267.14
53.140,-333.6
53.156,-393.52
53.171,-443.31
53.187,-476.45
53.203,-487.63
53.218,-475.37
53.234,-441.91
53.250,-395.55
53.265,-342.92
53.281,-291.23
53.296,-241.15
53.312,-193.04
53.328,-147.47
53.343,-107.39
53.359,-77.34
53.375,-61.05
53.390,-62.17
53.406,-79.04
53.421,-108.26
53.437,-142.59
53.453,-177.93
53.468,-211.77
53.484,-243.72
53.500,-275.39
53.515,-309.47
53.531,-350.42
53.546,-400.27
53.562,-459.68
53.578,-526.78
53.593,-601.88
53.609,-682.96
53.625,-765.39
53.640,-842.88
53.656,-909.52
53.671,-961.48
53.687,-995.12
53.703,-1007.05
53.718,-995.12
53.734,-962.42
53.750,-911.6
53.765,-843.94
53.781,-760.75
53.796,-666.06
53.812,-567.74
53.828,-474.95
53.843,-396.03
53.859,-302.8
53.875,-186.5
53.890,-57.02
53.906,66.0
53.921,169.32
53.937,253.29
53.953,325.76
53.968,392.85
53.984,453.39
54.000,489.81
54.015,488.4
54.031,441.99
54.046,355.1
54.062,243.25
54.078,125.54
54.093,17.12
54.109,-74.7
54.125,-127.17
54.140,-132.43
54.156,-96.68
54.171,-33.15
54.187,45.49
54.203,130.96
54.218,217.24
54.234,298.18
54.250,367.91
54.265,422.66
54.281,458.34
54.296,474.68
54.312,474.56
54.328,462.46
54.343,442.88
54.359,417.24
54.375,382.88
54.390,336.03
54.406,274.63
54.421,197.55
54.437,107.2
54.453,8.35
54.468,-93.49
54.484,-187.63
54.500,-256.42
54.515,-286.43
54.531,-272.58
54.546,-220.43
54.562,-144.16
54.578,-58.62
54.593,24.86
54.609,100.28
54.625,166.08
54.640,221.26
54.656,264.13
54.671,295.06
54.687,314.81
54.703,324.1
54.718,325.1
54.734,320.35
54.750,312.68
54.765,304.83
54.781,296.98
54.796,287.57
54.812,274.82
54.828,256.65
54.843,229.91
54.859,193.27
54.875,146.04
54.890,88.4
54.906,21.7
54.921,-53.99
54.937,-137.2
54.953,-224.55
54.968,-311.33
54.984,-392.36
55.000,-462.25
55.015,-516.27
55.031,-550.35
55.046,-561.36
55.062,-550.48
55.078,-520.12
55.093,-473.76
55.109,-416.52
55.125,-355.17
55.140,-297.08
55.156,-249.4
55.171,-217.66
55.187,-188.58
55.203,-158.76
55.218,-130.74
55.234,-108.16
55.250,-89.68
55.265,-68.65
55.281,-37.74
55.296,5.76
55.312,58.18
55.328,111.33
55.343,153.71
55.359,178.7
55.375,186.49
55.390,182.46
55.406,173.05
55.421,162.65
55.437,152.43
55.453,141.65
55.468,129.8
55.484,115.47
55.500,99.4
55.515,83.38
55.531,69.15
55.546,57.01
55.562,46.3
55.578,35.65
55.593,24.66
55.609,14.2
55.625,4.9
55.640,-2.09
55.656,-6.37
55.671,-7.36
55.687,-5.94
55.703,-3.64
55.718,-2.48
55.734,-3.81
55.750,-7.8
55.765,-13.69
55.781,-19.8
55.796,-24.23
55.812,-25.32
55.828,-22.3
55.843,-14.79
55.859,-3.52
55.875,10.1
55.890,24.02
55.906,36.23
55.921,44.84
55.937,47.71
55.953,42.84
55.968,25.69
55.984,-3.81
56.000,-43.69
56.015,-88.92
56.031,-137.27
56.046,-186.01
56.062,-231.94
56.078,-272.22
56.093,-304.7
56.109,-328.04
56.125,-341.28
56.140,-344.7
56.156,-339.56
56.171,-327.85
56.187,-311.23
56.203,-290.75
56.218,-267.91
56.234,-244.41
56.250,-221.79
56.265,-200.83
56.281,-182.17
56.296,-166.22
56.312,-153.3
56.328,-143.04
56.343,-134.67
56.359,-127.4
56.375,-120.17
56.390,-111.8
56.406,-101.0
56.421,-86.95
56.437,-69.21
56.453,-48.1
56.468,-24.18
56.484,1.64
56.500,28.13
56.515,54.1
56.531,78.4
56.546,100.23
56.562,118.78
56.578,133.3
56.593,143.17
56.609,148.02
56.625,147.95
56.640,143.46
56.656,135.65
56.671,126.08
56.687,116.54
56.703,108.61
56.718,103.24
56.734,100.72
56.750,100.85
56.765,103.25
56.781,107.7
56.796,114.37
56.812,123.81
56.828,136.58
56.843,152.88
56.859,172.09
56.875,192.96
56.890,213.89
56.906,233.68
56.921,251.9
56.937,269.04
56.953,286.14
56.968,304.18
56.984,323.53
57.000,344.0
57.015,365.19
57.031,386.5
57.046,407.02
57.062,425.12
57.078,437.84
57.093,441.38
57.109,432.23
57.125,408.66
57.140,371.77
57.156,325.15
57.171,273.43
57.187,220.52
57.203,168.97
57.218,119.99
57.234,74.98
57.250,36.55
57.265,8.45
57.281,-5.78
57.296,-4.93
57.312,8.58
57.328,28.98
57.343,49.36
57.359,64.04
57.375,70.38
57.390,69.03
57.406,62.55
57.421,53.62
57.437,43.71
57.453,32.79
57.468,20.31
57.484,6.25
57.500,-7.88
57.515,-19.21
57.531,-24.65
57.546,-22.46
57.562,-13.06
57.578,0.99
57.593,15.91
57.609,28.43
57.625,37.04
57.640,42.5
57.656,47.24
57.671,53.83
57.687,63.02
57.703,73.26
57.718,80.74
57.734,81.0
57.750,70.84
57.765,49.54
57.781,19.05
57.796,-16.94
57.812,-54.23
57.828,-89.48
57.843,-120.63
57.859,-146.76
57.875,-167.45
57.890,-182.09
57.906,-189.68
57.921,-189.04
57.937,-179.39
57.953,-160.78
57.968,-134.72
57.984,-104.23
58.000,-73.41
58.015,-46.38
58.031,-26.03
58.046,-13.16
58.062,-6.16
58.078,-1.99
58.093,2.43
58.109,8.62
58.125,15.86
58.140,21.91
58.156,24.53
58.171,22.89
58.187,17.89
58.203,11.84
58.218,7.25
58.234,5.93
58.250,8.61
58.265,15.16
58.281,24.94
58.296,36.99
58.312,50.07
58.328,62.38
58.343,71.64
58.359,75.34
58.375,71.46
58.390,59.16
58.406,39.35
58.421,14.58
58.437,-11.56
58.453,-35.09
58.468,-52.97
58.484,-63.61
58.500,-67.11
58.515,-64.9
58.531,-59.14
58.546,-51.73
58.562,-43.93
58.578,-36.31
58.593,-28.69
58.609,-21.03
58.625,-13.29
58.640,-4.76
58.656,6.51
58.671,23.03
58.687,46.87
58.703,78.18
58.718,114.55
58.734,152.42
58.750,188.15
58.765,219.9
58.781,248.58
58.796,276.42
58.812,304.01
58.828,328.0
58.843,341.01
58.859,334.47
58.875,303.05
58.890,246.53
58.906,170.33
58.921,83.1
58.937,-7.0
58.953,-94.7
58.968,-178.21
58.984,-257.51
59.000,-332.56
59.015,-395.93
59.031,-437.38
59.046,-450.15
59.062,-435.59
59.078,-402.67
59.093,-362.33
59.109,-322.68
59.125,-286.97
59.140,-253.83
59.156,-219.25
59.171,-180.46
59.187,-136.96
59.203,-90.54
59.218,-45.13
59.234,-4.25
59.250,30.09
59.265,56.91
59.281,77.57
59.296,92.63
59.312,102.06
59.328,106.25
59.343,106.02
59.359,101.04
59.375,89.74
59.390,69.09
59.406,35.78
59.421,-11.15
59.437,-68.25
59.453,-127.37
59.468,-177.86
59.484,-203.33
59.500,-195.18
59.515,-154.87
59.531,-91.92
59.546,-18.47
59.562,55.38
59.578,123.46
59.593,182.35
59.609,232.35
59.625,272.05
59.640,298.42
59.656,309.89
59.671,307.28
59.687,294.05
59.703,275.09
59.718,254.79
59.734,236.05
59.750,218.73
59.765,200.38
59.781,178.96
59.796,153.73
59.812,125.44
59.828,95.94
59.843,67.55
59.859,41.84
59.875,19.69
59.890,-0.91
59.906,-22.37
59.921,-46.77
59.937,-75.05
59.953,-107.48
59.968,-143.88
59.984,-183.8
