timestamp,value
00.000,31.17
00.015,30.45
00.031,27.94
00.046,23.94
00.062,18.9
00.078,13.43
00.093,8.13
00.109,3.41
00.125,-0.57
00.140,-3.93
00.156,-6.86
00.171,-9.4
00.187,-11.26
00.203,-11.74
00.218,-10.03
00.234,-5.62
00.250,1.28
00.265,9.61
00.281,17.64
00.296,23.5
00.312,25.79
00.328,24.0
00.343,18.68
00.359,11.26
00.375,3.57
00.390,-2.58
00.406,-5.87
00.421,-5.69
00.437,-2.29
00.453,3.43
00.468,10.16
00.484,16.66
00.500,22.17
00.515,26.56
00.531,30.33
00.546,34.21
00.562,38.7
00.578,43.64
00.593,48.06
00.609,50.35
00.625,48.86
00.640,42.64
00.656,31.92
00.671,18.35
00.687,4.54
00.703,-6.77
00.718,-13.72
00.734,-16.01
00.750,-14.82
00.765,-12.25
00.781,-10.25
00.796,-9.81
00.812,-10.59
00.828,-11.33
00.843,-10.67
00.859,-8.01
00.875,-3.99
00.890,-0.3
00.906,0.93
00.921,-2.02
00.937,-9.95
00.953,-22.42
00.968,-37.97
00.984,-54.49
01.000,-69.64
01.015,-81.36
01.031,-88.14
01.046,-89.25
01.062,-84.72
01.078,-75.21
01.093,-61.79
01.109,-45.72
01.125,-28.3
01.140,-10.7
01.156,6.04
01.171,21.01
01.187,33.44
01.203,42.76
01.218,48.65
01.234,51.05
01.250,50.15
01.265,46.35
01.281,40.3
01.296,32.86
01.312,25.05
01.328,17.98
01.343,12.65
01.359,9.8
01.375,9.67
01.390,11.91
01.406,15.58
01.421,19.38
01.437,21.96
01.453,22.3
01.468,19.92
01.484,14.94
01.500,7.97
01.515,-0.13
01.531,-8.52
01.546,-16.56
01.562,-23.94
01.578,-30.55
01.593,-36.4
01.609,-41.32
01.625,-44.88
01.640,-46.37
01.656,-45.09
01.671,-40.66
01.687,-33.28
01.703,-23.84
01.718,-13.58
01.734,-3.79
01.750,4.55
01.765,11.01
01.781,15.52
01.796,18.24
01.812,19.35
01.828,19.05
01.843,17.58
01.859,15.29
01.875,12.69
01.890,10.32
01.906,8.53
01.921,7.39
01.937,6.63
01.953,5.85
01.968,4.69
01.984,3.0
02.000,0.86
02.015,-1.51
02.031,-3.88
02.046,-6.14
02.062,-8.28
02.078,-10.3
02.093,-12.22
02.109,-14.06
02.125,-15.93
02.140,-18.1
02.156,-21.0
02.171,-24.97
02.187,-30.14
02.203,-36.15
02.218,-42.08
02.234,-46.7
02.250,-48.75
02.265,-47.36
02.281,-42.3
02.296,-34.01
02.312,-23.44
02.328,-11.77
02.343,-0.06
02.359,10.85
02.375,20.36
02.390,28.1
02.406,33.81
02.421,37.31
02.437,38.63
02.453,37.95
02.468,35.7
02.484,32.43
02.500,28.78
02.515,25.3
02.531,22.39
02.546,20.26
02.562,18.82
02.578,17.77
02.593,16.66
02.609,15.06
02.625,12.73
02.640,9.7
02.656,6.18
02.671,2.49
02.687,-1.19
02.703,-4.93
02.718,-8.95
02.734,-13.57
02.750,-19.05
02.765,-25.44
02.781,-32.66
02.796,-40.41
02.812,-48.13
02.828,-54.98
02.843,-59.9
02.859,-61.7
02.875,-59.44
02.890,-52.82
02.906,-42.36
02.921,-29.35
02.937,-15.58
02.953,-2.72
02.968,8.03
02.984,16.12
03.000,21.63
03.015,24.98
03.031,26.67
03.046,27.11
03.062,26.61
03.078,25.42
03.093,23.81
03.109,22.06
03.125,20.43
03.140,19.07
03.156,17.96
03.171,16.89
03.187,15.58
03.203,13.7
03.218,11.07
03.234,7.77
03.250,4.03
03.265,0.22
03.281,-3.41
03.296,-6.74
03.312,-9.92
03.328,-13.18
03.343,-16.86
03.359,-21.25
03.375,-26.47
03.390,-32.42
03.406,-38.67
03.421,-44.43
03.437,-48.65
03.453,-50.28
03.468,-48.55
03.484,-43.27
03.500,-34.87
03.515,-24.3
03.531,-12.71
03.546,-1.22
03.562,9.35
03.578,18.47
03.593,25.92
03.609,31.64
03.625,35.61
03.640,37.81
03.656,38.27
03.671,37.13
03.687,34.71
03.703,31.56
03.718,28.3
03.734,25.43
03.750,23.24
03.765,21.66
03.781,20.37
03.796,19.0
03.812,17.17
03.828,14.68
03.843,11.52
03.859,7.76
03.875,3.55
03.890,-0.88
03.906,-5.34
03.921,-9.66
03.937,-13.86
03.953,-18.18
03.968,-23.03
03.984,-28.79
04.000,-35.55
04.015,-42.89
04.031,-49.8
04.046,-54.94
04.062,-56.94
04.078,-54.9
04.093,-48.61
04.109,-38.72
04.125,-26.4
04.140,-13.13
04.156,-0.23
04.171,11.35
04.187,21.02
04.203,28.58
04.218,34.01
04.234,37.35
04.250,38.67
04.265,38.18
04.281,36.27
04.296,33.54
04.312,30.75
04.328,28.54
04.343,27.3
04.359,27.0
04.375,27.22
04.390,27.31
04.406,26.69
04.421,25.01
04.437,22.25
04.453,18.68
04.468,14.69
04.484,10.6
04.500,6.5
04.515,2.28
04.531,-2.32
04.546,-7.6
04.562,-13.81
04.578,-21.02
04.593,-29.1
04.609,-37.64
04.625,-45.85
04.640,-52.62
04.656,-56.74
04.671,-57.12
04.687,-53.28
04.703,-45.52
04.718,-34.82
04.734,-22.55
04.750,-10.04
04.765,1.74
04.781,12.31
04.796,21.47
04.812,29.11
04.828,35.03
04.843,39.0
04.859,40.88
04.875,40.75
04.890,39.0
04.906,36.2
04.921,32.97
04.937,29.86
04.953,27.16
04.968,24.94
04.984,23.09
05.000,21.34
05.015,19.41
05.031,17.04
05.046,14.14
05.062,10.74
05.078,6.99
05.093,3.05
05.109,-0.98
05.125,-5.11
05.140,-9.49
05.156,-14.34
05.171,-19.87
05.187,-26.2
05.203,-33.27
05.218,-40.75
05.234,-47.9
05.250,-53.69
05.265,-56.9
05.281,-56.47
05.296,-51.82
05.312,-43.13
05.328,-31.33
05.343,-17.84
05.359,-4.15
05.375,8.58
05.390,19.65
05.406,28.75
05.421,35.77
05.437,40.64
05.453,43.26
05.468,43.59
05.484,41.83
05.500,38.47
05.515,34.24
05.531,29.91
05.546,26.08
05.562,23.0
05.578,20.58
05.593,18.53
05.609,16.49
05.625,14.26
05.640,11.8
05.656,9.25
05.671,6.71
05.687,4.17
05.703,1.52
05.718,-1.45
05.734,-4.93
05.750,-9.04
05.765,-13.85
05.781,-19.43
05.796,-25.78
05.812,-32.77
05.828,-39.98
05.843,-46.58
05.859,-51.38
05.875,-53.17
05.890,-51.06
05.906,-44.84
05.921,-35.05
05.937,-22.88
05.953,-9.76
05.968,2.99
05.984,14.44
06.000,24.07
06.015,31.62
06.031,36.96
06.046,39.97
06.062,40.64
06.078,39.18
06.093,36.11
06.109,32.23
06.125,28.45
06.140,25.44
06.156,23.52
06.171,22.52
06.187,21.86
06.203,20.87
06.218,19.04
06.234,16.18
06.250,12.47
06.265,8.33
06.281,4.17
06.296,0.25
06.312,-3.41
06.328,-7.06
06.343,-11.09
06.359,-15.87
06.375,-21.63
06.390,-28.37
06.406,-35.8
06.421,-43.27
06.437,-49.88
06.453,-54.54
06.468,-56.26
06.484,-54.3
06.500,-48.47
06.515,-39.13
06.531,-27.17
06.546,-13.78
06.562,-0.18
06.578,12.61
06.593,23.86
06.609,33.1
06.625,40.07
06.640,44.59
06.656,46.62
06.671,46.34
06.687,44.17
06.703,40.8
06.718,37.07
06.734,33.7
06.750,31.11
06.765,29.36
06.781,28.13
06.796,26.93
06.812,25.32
06.828,22.96
06.843,19.79
06.859,15.87
06.875,11.42
06.890,6.69
06.906,1.89
06.921,-2.86
06.937,-7.6
06.953,-12.55
06.968,-18.04
06.984,-24.4
07.000,-31.66
07.015,-39.45
07.031,-46.86
07.046,-52.65
07.062,-55.53
07.078,-54.55
07.093,-49.4
07.109,-40.55
07.125,-29.04
07.140,-16.19
07.156,-3.22
07.171,9.03
07.187,19.99
07.203,29.38
07.218,36.99
07.234,42.63
07.250,46.08
07.265,47.33
07.281,46.57
07.296,44.22
07.312,40.92
07.328,37.27
07.343,33.74
07.359,30.55
07.375,27.7
07.390,25.04
07.406,22.4
07.421,19.66
07.437,16.79
07.453,13.82
07.468,10.78
07.484,7.63
07.500,4.31
07.515,0.67
07.531,-3.42
07.546,-8.1
07.562,-13.53
07.578,-19.83
07.593,-26.92
07.609,-34.48
07.625,-41.81
07.640,-47.91
07.656,-51.7
07.671,-52.28
07.687,-49.18
07.703,-42.49
07.718,-32.82
07.734,-21.12
07.750,-8.52
07.765,3.9
07.781,15.26
07.796,24.85
07.812,32.29
07.828,37.43
07.843,40.34
07.859,41.23
07.875,40.41
07.890,38.23
07.906,35.12
07.921,31.51
07.937,27.86
07.953,24.54
07.968,21.75
07.984,19.45
08.000,17.38
08.015,15.22
08.031,12.71
08.046,9.77
08.062,6.48
08.078,2.93
08.093,-0.77
08.109,-4.68
08.125,-8.94
08.140,-13.73
08.156,-19.19
08.171,-25.35
08.187,-32.08
08.203,-38.97
08.218,-45.35
08.234,-50.27
08.250,-52.74
08.265,-51.96
08.281,-47.57
08.296,-39.86
08.312,-29.62
08.328,-17.99
08.343,-6.07
08.359,5.21
08.375,15.24
08.390,23.56
08.406,29.84
08.421,33.76
08.437,35.21
08.453,34.31
08.468,31.51
08.484,27.61
08.500,23.47
08.515,19.85
08.531,17.15
08.546,15.36
08.562,14.17
08.578,13.06
08.593,11.62
08.609,9.58
08.625,6.91
08.640,3.78
08.656,0.42
08.671,-2.95
08.687,-6.23
08.703,-9.52
08.718,-13.12
08.734,-17.41
08.750,-22.72
08.765,-29.23
08.781,-36.76
08.796,-44.66
08.812,-51.88
08.828,-57.11
08.843,-59.1
08.859,-57.06
08.875,-50.83
08.890,-41.0
08.906,-28.74
08.921,-15.52
08.937,-2.65
08.953,8.92
08.968,18.73
08.984,26.68
09.000,32.79
09.015,37.07
09.031,39.44
09.046,39.92
09.062,38.69
09.078,36.22
09.093,33.13
09.109,30.05
09.125,27.35
09.140,25.1
09.156,23.07
09.171,20.95
09.187,18.5
09.203,15.7
09.218,12.59
09.234,9.27
09.250,5.77
09.265,2.06
09.281,-1.95
09.296,-6.29
09.312,-10.93
09.328,-15.81
09.343,-20.94
09.359,-26.43
09.375,-32.38
09.390,-38.61
09.406,-44.52
09.421,-49.06
09.437,-50.95
09.453,-49.15
09.468,-43.27
09.484,-33.79
09.500,-21.92
09.515,-9.15
09.531,3.17
09.546,14.2
09.562,23.61
09.578,31.36
09.593,37.45
09.609,41.81
09.625,44.25
09.640,44.66
09.656,43.21
09.671,40.31
09.687,36.6
09.703,32.73
09.718,29.16
09.734,26.03
09.750,23.24
09.765,20.55
09.781,17.73
09.796,14.72
09.812,11.53
09.828,8.28
09.843,5.04
09.859,1.81
09.875,-1.53
09.890,-5.13
09.906,-9.13
09.921,-13.7
09.937,-18.96
09.953,-25.03
09.968,-31.82
09.984,-39.0
10.000,-45.83
10.015,-51.24
10.031,-54.08
10.046,-53.44
10.062,-48.92
10.078,-40.79
10.093,-29.92
10.109,-17.48
10.125,-4.64
10.140,7.65
10.156,18.78
10.171,28.39
10.187,36.21
10.203,42.1
10.218,45.93
10.234,47.65
10.250,47.4
10.265,45.51
10.281,42.51
10.296,39.01
10.312,35.56
10.328,32.46
10.343,29.72
10.359,27.11
10.375,24.31
10.390,21.08
10.406,17.38
10.421,13.34
10.437,9.14
10.453,4.9
10.468,0.62
10.484,-3.82
10.500,-8.53
10.515,-13.55
10.531,-18.91
10.546,-24.59
10.562,-30.65
10.578,-37.07
10.593,-43.57
10.609,-49.52
10.625,-53.96
10.640,-55.83
10.656,-54.32
10.671,-49.18
10.687,-40.81
10.703,-30.2
10.718,-18.55
10.734,-6.99
10.750,3.65
10.765,12.85
10.781,20.29
10.796,25.78
10.812,29.23
10.828,30.65
10.843,30.24
10.859,28.36
10.875,25.51
10.890,22.24
10.906,19.03
10.921,16.23
10.937,13.96
10.953,12.17
10.968,10.73
10.984,9.42
11.000,8.08
11.015,6.63
11.031,5.08
11.046,3.44
11.062,1.62
11.078,-0.57
11.093,-3.38
11.109,-6.96
11.125,-11.19
11.140,-15.74
11.156,-20.14
11.171,-23.99
11.187,-27.1
11.203,-29.32
11.218,-30.5
11.234,-30.28
11.250,-28.18
11.265,-23.84
11.281,-17.24
11.296,-8.91
11.312,0.26
11.328,9.27
11.343,17.35
11.359,24.07
11.375,29.27
11.390,32.92
11.406,34.97
11.421,35.34
11.437,33.99
11.453,31.12
11.468,27.15
11.484,22.76
11.500,18.58
11.515,15.14
11.531,12.69
11.546,11.08
11.562,9.93
11.578,8.73
11.593,6.99
11.609,4.47
11.625,1.24
11.640,-2.47
11.656,-6.33
11.671,-10.09
11.687,-13.72
11.703,-17.32
11.718,-21.1
11.734,-25.26
11.750,-29.92
11.765,-35.05
11.781,-40.4
11.796,-45.48
11.812,-49.53
11.828,-51.62
11.843,-50.85
11.859,-46.63
11.875,-38.95
11.890,-28.46
11.906,-16.29
11.921,-3.74
11.937,8.04
11.953,18.31
11.968,26.73
11.984,33.22
12.000,37.79
12.015,40.39
12.031,41.03
12.046,39.82
12.062,37.1
12.078,33.41
12.093,29.39
12.109,25.57
12.125,22.25
12.140,19.43
12.156,16.88
12.171,14.34
12.187,11.62
12.203,8.7
12.218,5.71
12.234,2.81
12.250,0.05
12.265,-2.64
12.281,-5.5
12.296,-8.8
12.312,-12.76
12.328,-17.48
12.343,-22.91
12.359,-28.89
12.375,-35.06
12.390,-40.88
12.406,-45.53
12.421,-48.08
12.437,-47.67
12.453,-43.82
12.468,-36.66
12.484,-26.94
12.500,-15.77
12.515,-4.3
12.531,6.61
12.546,16.46
12.562,25.03
12.578,32.13
12.593,37.52
12.609,40.91
12.625,42.15
12.640,41.31
12.656,38.81
12.671,35.27
12.687,31.42
12.703,27.83
12.718,24.86
12.734,22.62
12.750,20.99
12.765,19.68
12.781,18.36
12.796,16.7
12.812,14.56
12.828,11.96
12.843,9.05
12.859,6.03
12.875,3.02
12.890,-0.05
12.906,-3.41
12.921,-7.36
12.937,-12.21
12.953,-18.11
12.968,-24.91
12.984,-32.1
13.000,-38.84
13.015,-44.05
13.031,-46.68
13.046,-46.0
13.062,-41.77
13.078,-34.32
13.093,-24.47
13.109,-13.27
13.125,-1.77
13.140,9.16
13.156,18.88
13.171,26.93
13.187,33.01
13.203,36.91
13.218,38.59
13.234,38.21
13.250,36.15
13.265,32.91
13.281,29.1
13.296,25.21
13.312,21.61
13.328,18.49
13.343,15.88
13.359,13.67
13.375,11.67
13.390,9.7
13.406,7.59
13.421,5.26
13.437,2.67
13.453,-0.12
13.468,-3.02
13.484,-6.01
13.500,-9.16
13.515,-12.63
13.531,-16.62
13.546,-21.28
13.562,-26.6
13.578,-32.34
13.593,-37.99
13.609,-42.78
13.625,-45.83
13.640,-46.33
13.656,-43.71
13.671,-37.88
13.687,-29.19
13.703,-18.43
13.718,-6.61
13.734,5.22
13.750,16.2
13.765,25.69
13.781,33.31
13.796,38.87
13.812,42.29
13.828,43.59
13.843,42.9
13.859,40.5
13.875,36.83
13.890,32.51
13.906,28.16
13.921,24.28
13.937,21.1
13.953,18.44
13.968,15.87
13.984,12.82
14.000,8.9
14.015,4.0
14.031,-1.63
14.046,-7.58
14.062,-13.45
14.078,-18.98
14.093,-24.19
14.109,-29.15
14.125,-33.92
14.140,-38.45
14.156,-42.61
14.171,-46.25
14.187,-49.2
14.203,-51.3
14.218,-52.17
14.234,-51.24
14.250,-47.8
14.265,-41.25
14.281,-31.43
14.296,-18.87
14.312,-4.73
14.328,9.54
14.343,22.58
14.359,33.5
14.375,41.91
14.390,47.83
14.406,51.41
14.421,52.71
14.437,51.83
14.453,48.96
14.468,44.59
14.484,39.44
14.500,34.33
14.515,29.85
14.531,26.22
14.546,23.26
14.562,20.52
14.578,17.56
14.593,14.14
14.609,10.27
14.625,6.18
14.640,2.19
14.656,-1.49
14.671,-4.79
14.687,-7.77
14.703,-10.64
14.718,-13.57
14.734,-16.77
14.750,-20.43
14.765,-24.81
14.781,-30.11
14.796,-36.34
14.812,-43.11
14.828,-49.56
14.843,-54.5
14.859,-56.69
14.875,-55.25
14.890,-49.94
14.906,-41.27
14.921,-30.3
14.937,-18.33
14.953,-6.56
14.968,4.18
14.984,13.39
15.000,20.84
15.015,26.42
15.031,29.99
15.046,31.4
15.062,30.63
15.078,27.83
15.093,23.42
15.109,18.1
15.125,12.65
15.140,7.76
15.156,3.92
15.171,1.26
15.187,-0.37
15.203,-1.32
15.218,-2.02
15.234,-2.88
15.250,-4.19
15.265,-6.11
15.281,-8.7
15.296,-12.0
15.312,-15.99
15.328,-20.6
15.343,-25.75
15.359,-31.35
15.375,-37.32
15.390,-43.55
15.406,-49.83
15.421,-55.72
15.437,-60.43
15.453,-62.91
15.468,-62.03
15.484,-56.98
15.500,-47.59
15.515,-34.54
15.531,-19.12
15.546,-2.99
15.562,12.38
15.578,25.91
15.593,37.04
15.609,45.58
15.625,51.52
15.640,54.92
15.656,55.92
15.671,54.8
15.687,52.04
15.703,48.27
15.718,44.09
15.734,39.99
15.750,36.12
15.765,32.39
15.781,28.51
15.796,24.19
15.812,19.25
15.828,13.77
15.843,8.05
15.859,2.43
15.875,-2.8
15.890,-7.56
15.906,-12.03
15.921,-16.48
15.937,-21.17
15.953,-26.29
15.968,-31.83
15.984,-37.68
16.000,-43.71
16.015,-49.62
16.031,-54.93
16.046,-58.85
16.062,-60.45
16.078,-58.85
16.093,-53.63
16.109,-45.08
16.125,-34.16
16.140,-22.21
16.156,-10.55
16.171,-0.17
16.187,8.46
16.203,15.18
16.218,19.98
16.234,22.78
16.250,23.46
16.265,21.98
16.281,18.53
16.296,13.64
16.312,8.01
16.328,2.34
16.343,-2.85
16.359,-7.26
16.375,-10.75
16.390,-13.3
16.406,-14.94
16.421,-15.8
16.437,-16.09
16.453,-16.19
16.468,-16.45
16.484,-17.11
16.500,-18.19
16.515,-19.61
16.531,-21.23
16.546,-23.01
16.562,-25.1
16.578,-27.75
16.593,-31.27
16.609,-35.74
16.625,-40.93
16.640,-46.13
16.656,-50.21
16.671,-51.83
16.687,-49.77
16.703,-43.43
16.718,-33.0
16.734,-19.46
16.750,-4.28
16.765,11.06
16.781,25.39
16.796,38.03
16.812,48.7
16.828,57.3
16.843,63.78
16.859,68.08
16.875,70.24
16.890,70.49
16.906,69.23
16.921,66.98
16.937,64.28
16.953,61.48
16.968,58.75
16.984,56.07
17.000,53.35
17.015,50.5
17.031,47.52
17.046,44.43
17.062,41.23
17.078,37.8
17.093,33.96
17.109,29.48
17.125,24.2
17.140,18.12
17.156,11.39
17.171,4.27
17.187,-3.07
17.203,-10.53
17.218,-18.05
17.234,-25.47
17.250,-32.28
17.265,-37.59
17.281,-40.3
17.296,-39.43
17.312,-34.52
17.328,-25.82
17.343,-14.37
17.359,-1.66
17.375,10.8
17.390,21.84
17.406,30.82
17.421,37.57
17.437,42.2
17.453,44.9
17.468,45.87
17.484,45.32
17.500,43.53
17.515,40.87
17.531,37.76
17.546,34.54
17.562,31.39
17.578,28.3
17.593,25.08
17.609,21.48
17.625,17.29
17.640,12.38
17.656,6.78
17.671,0.62
17.687,-5.84
17.703,-12.27
17.718,-18.3
17.734,-23.6
17.750,-28.0
17.765,-31.5
17.781,-34.33
17.796,-36.92
17.812,-39.72
17.828,-43.06
17.843,-46.94
17.859,-50.92
17.875,-54.18
17.890,-55.7
17.906,-54.55
17.921,-50.22
17.937,-42.76
17.953,-32.87
17.968,-21.63
17.984,-10.25
18.000,0.26
18.015,9.19
18.031,16.18
18.046,21.1
18.062,23.91
18.078,24.71
18.093,23.64
18.109,21.06
18.125,17.51
18.140,13.64
18.156,10.04
18.171,7.08
18.187,4.85
18.203,3.18
18.218,1.79
18.234,0.35
18.250,-1.36
18.265,-3.52
18.281,-6.22
18.296,-9.54
18.312,-13.49
18.328,-18.01
18.343,-22.97
18.359,-28.23
18.375,-33.76
18.390,-39.7
18.406,-46.25
18.421,-53.64
18.437,-61.77
18.453,-70.09
18.468,-77.56
18.484,-82.87
18.500,-84.76
18.515,-82.42
18.531,-75.79
18.546,-65.55
18.562,-53.0
18.578,-39.56
18.593,-26.35
18.609,-13.97
18.625,-2.45
18.640,8.44
18.656,18.9
18.671,28.88
18.687,38.03
18.703,45.93
18.718,52.24
18.734,56.81
18.750,59.72
18.765,61.1
18.781,61.04
18.796,59.53
18.812,56.57
18.828,52.24
18.843,46.72
18.859,40.31
18.875,33.35
18.890,26.15
18.906,18.94
18.921,11.87
18.937,5.02
18.953,-1.55
18.968,-7.85
18.984,-13.99
19.000,-20.25
19.015,-26.99
19.031,-34.5
19.046,-42.76
19.062,-51.2
19.078,-58.76
19.093,-64.05
19.109,-65.86
19.125,-63.55
19.140,-57.3
19.156,-48.07
19.171,-37.23
19.187,-26.24
19.203,-16.22
19.218,-7.87
19.234,-1.5
19.250,2.87
19.265,5.41
19.281,6.36
19.296,6.06
19.312,4.91
19.328,3.36
19.343,1.91
19.359,1.02
19.375,1.02
19.390,2.04
19.406,3.98
19.421,6.55
19.437,9.42
19.453,12.34
19.468,15.22
19.484,18.08
19.500,20.96
19.515,23.8
19.531,26.4
19.546,28.4
19.562,29.43
19.578,29.16
19.593,27.42
19.609,24.18
19.625,19.54
19.640,13.8
19.656,7.51
19.671,1.45
19.687,-3.34
19.703,-5.8
19.718,-5.12
19.734,-0.97
19.750,6.33
19.765,15.93
19.781,26.63
19.796,37.29
19.812,47.22
19.828,56.27
19.843,64.74
19.859,73.02
19.875,81.15
19.890,88.65
19.906,94.64
19.921,98.15
19.937,98.63
19.953,96.15
19.968,91.39
19.984,85.24
20.000,78.41
20.015,71.22
20.031,63.61
20.046,55.46
20.062,46.72
20.078,37.63
20.093,28.51
20.109,19.62
20.125,10.91
20.140,2.03
20.156,-7.53
20.171,-18.29
20.187,-30.38
20.203,-43.52
20.218,-57.02
20.234,-69.99
20.250,-81.59
20.265,-91.1
20.281,-97.96
20.296,-101.63
20.312,-101.56
20.328,-97.25
20.343,-88.42
20.359,-75.28
20.375,-58.6
20.390,-39.56
20.406,-19.58
20.421,0.04
20.437,18.19
20.453,34.07
20.468,47.12
20.484,57.01
20.500,63.59
20.515,66.99
20.531,67.56
20.546,65.87
20.562,62.6
20.578,58.42
20.593,53.94
20.609,49.59
20.625,45.55
20.640,41.76
20.656,37.93
20.671,33.65
20.687,28.61
20.703,22.71
20.718,16.13
20.734,9.25
20.750,2.45
20.765,-4.03
20.781,-10.17
20.796,-16.16
20.812,-22.3
20.828,-28.88
20.843,-36.02
20.859,-43.6
20.875,-51.2
20.890,-58.04
20.906,-63.13
20.921,-65.38
20.937,-63.95
20.953,-58.55
20.968,-49.53
20.984,-37.88
21.000,-24.95
21.015,-12.06
21.031,-0.26
21.046,9.88
21.062,18.1
21.078,24.41
21.093,28.82
21.109,31.4
21.125,32.28
21.140,31.74
21.156,30.2
21.171,28.14
21.187,25.97
21.203,23.93
21.218,22.11
21.234,20.45
21.250,18.84
21.265,17.19
21.281,15.39
21.296,13.34
21.312,10.97
21.328,8.16
21.343,4.86
21.359,1.08
21.375,-3.06
21.390,-7.39
21.406,-11.73
21.421,-15.94
21.437,-20.08
21.453,-24.27
21.468,-28.68
21.484,-33.24
21.500,-37.49
21.515,-40.61
21.531,-41.55
21.546,-39.42
21.562,-33.78
21.578,-24.93
21.593,-13.76
21.609,-1.49
21.625,10.65
21.640,21.77
21.656,31.39
21.671,39.48
21.687,46.14
21.703,51.53
21.718,55.67
21.734,58.57
21.750,60.29
21.765,61.04
21.781,61.25
21.796,61.4
21.812,61.92
21.828,62.93
21.843,64.25
21.859,65.4
21.875,65.86
21.890,65.15
21.906,62.92
21.921,58.97
21.937,53.16
21.953,45.46
21.968,35.94
21.984,24.91
22.000,12.91
22.015,0.64
22.031,-11.2
22.046,-22.18
22.062,-32.14
22.078,-41.17
22.093,-49.38
22.109,-56.6
22.125,-62.28
22.140,-65.65
22.156,-65.97
22.171,-62.87
22.187,-56.55
22.203,-47.76
22.218,-37.55
22.234,-26.96
22.250,-16.74
22.265,-7.3
22.281,1.16
22.296,8.5
22.312,14.51
22.328,18.9
22.343,21.36
22.359,21.77
22.375,20.34
22.390,17.56
22.406,14.12
22.421,10.7
22.437,7.76
22.453,5.43
22.468,3.55
22.484,1.79
22.500,-0.18
22.515,-2.56
22.531,-5.38
22.546,-8.51
22.562,-11.79
22.578,-15.06
22.593,-18.23
22.609,-21.3
22.625,-24.3
22.640,-27.37
22.656,-30.66
22.671,-34.4
22.687,-38.72
22.703,-43.62
22.718,-48.72
22.734,-53.29
22.750,-56.33
22.765,-56.81
22.781,-54.01
22.796,-47.81
22.812,-38.73
22.828,-27.79
22.843,-16.21
22.859,-5.07
22.875,4.9
22.890,13.36
22.906,20.24
22.921,25.58
22.937,29.37
22.953,31.57
22.968,32.17
22.984,31.3
23.000,29.31
23.015,26.73
23.031,24.06
23.046,21.72
23.062,19.83
23.078,18.26
23.093,16.78
23.109,15.14
23.125,13.23
23.140,11.02
23.156,8.54
23.171,5.79
23.187,2.69
23.203,-0.83
23.218,-4.83
23.234,-9.21
23.250,-13.86
23.265,-18.65
23.281,-23.56
23.296,-28.66
23.312,-34.02
23.328,-39.58
23.343,-44.95
23.359,-49.46
23.375,-52.23
23.390,-52.42
23.406,-49.49
23.421,-43.4
23.437,-34.65
23.453,-24.18
23.468,-13.07
23.484,-2.32
23.500,7.35
23.515,15.58
23.531,22.26
23.546,27.46
23.562,31.28
23.578,33.8
23.593,35.02
23.609,35.03
23.625,33.97
23.640,32.14
23.656,29.93
23.671,27.8
23.687,26.1
23.703,25.0
23.718,24.44
23.734,24.19
23.750,23.93
23.765,23.4
23.781,22.4
23.796,20.86
23.812,18.72
23.828,15.92
23.843,12.4
23.859,8.11
23.875,3.12
23.890,-2.44
23.906,-8.4
23.921,-14.67
23.937,-21.17
23.953,-27.81
23.968,-34.22
23.984,-39.73
24.000,-43.41
24.015,-44.34
24.031,-41.98
24.046,-36.38
24.062,-28.26
24.078,-18.77
24.093,-9.18
24.109,-0.53
24.125,6.65
24.140,12.19
24.156,16.18
24.171,18.74
24.187,19.96
24.203,19.9
24.218,18.65
24.234,16.48
24.250,13.79
24.265,11.08
24.281,8.69
24.296,6.75
24.312,5.15
24.328,3.57
24.343,1.73
24.359,-0.52
24.375,-3.17
24.390,-6.06
24.406,-9.04
24.421,-12.09
24.437,-15.24
24.453,-18.53
24.468,-21.97
24.484,-25.43
24.500,-28.8
24.515,-32.15
24.531,-35.75
24.546,-40.05
24.562,-45.36
24.578,-51.56
24.593,-57.93
24.609,-63.27
24.625,-66.21
24.640,-65.71
24.656,-61.41
24.671,-53.7
24.687,-43.51
24.703,-32.04
24.718,-20.37
24.734,-9.29
24.750,0.63
24.765,9.07
24.781,15.81
24.796,20.69
24.812,23.71
24.828,24.99
24.843,24.8
24.859,23.51
24.875,21.56
24.890,19.31
24.906,17.1
24.921,15.12
24.937,13.41
24.953,11.93
24.968,10.44
24.984,8.72
25.000,6.56
25.015,3.88
25.031,0.73
25.046,-2.75
25.062,-6.42
25.078,-10.23
25.093,-14.18
25.109,-18.32
25.125,-22.75
25.140,-27.58
25.156,-32.94
25.171,-38.84
25.187,-45.12
25.203,-51.18
25.218,-56.08
25.234,-58.66
25.250,-57.87
25.265,-53.22
25.281,-44.99
25.296,-34.15
25.312,-22.05
25.328,-9.97
25.343,1.18
25.359,10.94
25.375,19.2
25.390,25.94
25.406,31.13
25.421,34.71
25.437,36.6
25.453,36.88
25.468,35.72
25.484,33.44
25.500,30.43
25.515,27.08
25.531,23.74
25.546,20.63
25.562,17.84
25.578,15.25
25.593,12.65
25.609,9.79
25.625,6.6
25.640,3.17
25.656,-0.26
25.671,-3.45
25.687,-6.32
25.703,-8.98
25.718,-11.75
25.734,-14.97
25.750,-18.97
25.765,-23.9
25.781,-29.82
25.796,-36.55
25.812,-43.6
25.828,-50.11
25.843,-54.87
25.859,-56.6
25.875,-54.33
25.890,-47.84
25.906,-37.73
25.921,-25.27
25.937,-12.0
25.953,0.81
25.968,12.35
25.984,22.33
26.000,30.69
26.015,37.41
26.031,42.33
26.046,45.26
26.062,46.14
26.078,45.17
26.093,42.83
26.109,39.79
26.125,36.65
26.140,33.84
26.156,31.53
26.171,29.58
26.187,27.71
26.203,25.58
26.218,22.91
26.234,19.6
26.250,15.65
26.265,11.24
26.281,6.55
26.296,1.75
26.312,-3.16
26.328,-8.26
26.343,-13.76
26.359,-19.85
26.375,-26.64
26.390,-34.11
26.406,-42.05
26.421,-50.02
26.437,-57.39
26.453,-63.3
26.468,-66.72
26.484,-66.7
26.500,-62.55
26.515,-54.25
26.531,-42.43
26.546,-28.33
26.562,-13.47
26.578,0.72
26.593,13.17
26.609,23.31
26.625,30.92
26.640,35.99
26.656,38.62
26.671,39.0
26.687,37.43
26.703,34.45
26.718,30.67
26.734,26.75
26.750,23.21
26.765,20.33
26.781,18.06
26.796,16.21
26.812,14.44
26.828,12.49
26.843,10.16
26.859,7.36
26.875,4.11
26.890,0.49
26.906,-3.43
26.921,-7.61
26.937,-12.06
26.953,-16.9
26.968,-22.31
26.984,-28.52
27.000,-35.69
27.015,-43.74
27.031,-52.25
27.046,-60.42
27.062,-67.12
27.078,-71.13
27.093,-71.46
27.109,-67.61
27.125,-59.79
27.140,-48.87
27.156,-36.08
27.171,-22.66
27.187,-9.62
27.203,2.47
27.218,13.32
27.234,22.73
27.250,30.46
27.265,36.24
27.281,39.9
27.296,41.57
27.312,41.7
27.328,41.04
27.343,40.31
27.359,40.06
27.375,40.37
27.390,40.98
27.406,41.43
27.421,41.27
27.437,40.23
27.453,38.3
27.468,35.66
27.484,32.57
27.500,29.27
27.515,25.93
27.531,22.68
27.546,19.57
27.562,16.57
27.578,13.46
27.593,9.7
27.609,4.68
27.625,-2.1
27.640,-10.46
27.656,-19.47
27.671,-27.43
27.687,-32.47
27.703,-33.14
27.718,-28.93
27.734,-20.32
27.750,-8.56
27.765,4.89
27.781,18.8
27.796,32.27
27.812,44.71
27.828,55.64
27.843,64.63
27.859,71.34
27.875,75.63
27.890,77.65
27.906,77.88
27.921,77.03
27.937,75.87
27.953,75.11
27.968,75.16
27.984,76.07
28.000,77.5
28.015,78.74
28.031,78.92
28.046,77.21
28.062,73.03
28.078,66.23
28.093,57.1
28.109,46.24
28.125,34.38
28.140,22.13
28.156,9.87
28.171,-2.24
28.187,-14.18
28.203,-25.94
28.218,-37.47
28.234,-48.64
28.250,-59.25
28.265,-68.95
28.281,-77.07
28.296,-82.66
28.312,-84.64
28.328,-82.18
28.343,-75.14
28.359,-64.18
28.375,-50.71
28.390,-36.36
28.406,-22.57
28.421,-10.18
28.437,0.42
28.453,9.15
28.468,15.91
28.484,20.43
28.500,22.51
28.515,22.11
28.531,19.61
28.546,15.73
28.562,11.31
28.578,7.1
28.593,3.59
28.609,0.88
28.625,-1.23
28.640,-3.13
28.656,-5.24
28.671,-7.84
28.687,-11.01
28.703,-14.61
28.718,-18.39
28.734,-22.14
28.750,-25.81
28.765,-29.56
28.781,-33.67
28.796,-38.43
28.812,-44.02
28.828,-50.37
28.843,-57.15
28.859,-63.66
28.875,-68.95
28.890,-71.9
28.906,-71.47
28.921,-66.97
28.937,-58.34
28.953,-46.21
28.968,-31.81
28.984,-16.56
29.000,-1.77
29.015,11.7
29.031,23.38
29.046,33.12
29.062,40.79
29.078,46.23
29.093,49.26
29.109,49.95
29.125,48.67
29.140,46.1
29.156,43.04
29.171,40.15
29.187,37.77
29.203,35.87
29.218,34.2
29.234,32.44
29.250,30.34
29.265,27.69
29.281,24.38
29.296,20.4
29.312,15.83
29.328,10.89
29.343,5.85
29.359,0.95
29.375,-3.74
29.390,-8.36
29.406,-13.23
29.421,-18.64
29.437,-24.79
29.453,-31.56
29.468,-38.43
29.484,-44.53
29.500,-48.74
29.515,-50.03
29.531,-47.71
29.546,-41.66
29.562,-32.42
29.578,-21.03
29.593,-8.74
29.609,3.3
29.625,14.29
29.640,23.75
29.656,31.44
29.671,37.24
29.687,41.11
29.703,43.01
29.718,43.06
29.734,41.57
29.750,39.04
29.765,36.06
29.781,33.16
29.796,30.72
29.812,28.82
29.828,27.28
29.843,25.78
29.859,24.01
29.875,21.78
29.890,19.06
29.906,15.94
29.921,12.49
29.937,8.75
29.953,4.72
29.968,0.38
29.984,-4.23
30.000,-9.06
30.015,-14.17
30.031,-19.66
30.046,-25.69
30.062,-32.25
30.078,-38.95
30.093,-44.96
30.109,-49.13
30.125,-50.33
30.140,-47.86
30.156,-41.65
30.171,-32.38
30.187,-21.19
30.203,-9.35
30.218,2.04
30.234,12.2
30.250,20.69
30.265,27.28
30.281,31.85
30.296,34.36
30.312,34.93
30.328,33.83
30.343,31.57
30.359,28.74
30.375,25.91
30.390,23.49
30.406,21.64
30.421,20.24
30.437,19.06
30.453,17.79
30.468,16.14
30.484,13.95
30.500,11.14
30.515,7.73
30.531,3.82
30.546,-0.41
30.562,-4.8
30.578,-9.16
30.593,-13.47
30.609,-17.87
30.625,-22.61
30.640,-28.03
30.656,-34.25
30.671,-41.01
30.687,-47.58
30.703,-52.8
30.718,-55.37
30.734,-54.32
30.750,-49.27
30.765,-40.67
30.781,-29.65
30.796,-17.63
30.812,-5.88
30.828,4.75
30.843,13.89
30.859,21.55
30.875,27.79
30.890,32.6
30.906,35.84
30.921,37.35
30.937,37.19
30.953,35.65
30.968,33.24
30.984,30.58
31.000,28.16
31.015,26.22
31.031,24.68
31.046,23.31
31.062,21.73
31.078,19.67
31.093,16.96
31.109,13.57
31.125,9.62
31.140,5.28
31.156,0.73
31.171,-3.86
31.187,-8.43
31.203,-13.06
31.218,-17.88
31.234,-23.12
31.250,-28.95
31.265,-35.31
31.281,-41.79
31.296,-47.7
31.312,-52.02
31.328,-53.69
31.343,-51.93
31.359,-46.45
31.375,-37.62
31.390,-26.41
31.406,-14.05
31.421,-1.77
31.437,9.49
31.453,19.22
31.468,27.3
31.484,33.73
31.500,38.53
31.515,41.63
31.531,42.89
31.546,42.32
31.562,40.14
31.578,36.87
31.593,33.2
31.609,29.78
31.625,27.04
31.640,25.05
31.656,23.55
31.671,22.07
31.687,20.18
31.703,17.67
31.718,14.52
31.734,10.94
31.750,7.09
31.765,3.02
31.781,-1.3
31.796,-5.98
31.812,-11.13
31.828,-16.75
31.843,-22.82
31.859,-29.23
31.875,-35.82
31.890,-42.27
31.906,-48.03
31.921,-52.3
31.937,-54.14
31.953,-52.8
31.968,-47.9
31.984,-39.69
32.000,-28.92
32.015,-16.66
32.031,-4.04
32.046,8.02
32.062,18.93
32.078,28.33
32.093,36.06
32.109,41.98
32.125,45.99
32.140,47.99
32.156,48.08
32.171,46.51
32.187,43.78
32.203,40.51
32.218,37.29
32.234,34.51
32.250,32.26
32.265,30.36
32.281,28.46
32.296,26.23
32.312,23.43
32.328,20.01
32.343,16.0
32.359,11.47
32.375,6.47
32.390,1.08
32.406,-4.53
32.421,-10.2
32.437,-15.74
32.453,-21.1
32.468,-26.37
32.484,-31.81
32.500,-37.68
32.515,-44.01
32.531,-50.47
32.546,-56.31
32.562,-60.45
32.578,-61.8
32.593,-59.54
32.609,-53.45
32.625,-43.97
32.640,-32.08
32.656,-19.12
32.671,-6.43
32.687,4.84
32.703,13.87
32.718,20.21
32.734,23.72
32.750,24.6
32.765,23.24
32.781,20.26
32.796,16.32
32.812,12.09
32.828,8.12
32.843,4.8
32.859,2.3
32.875,0.58
32.890,-0.68
32.906,-1.99
32.921,-3.85
32.937,-6.7
32.953,-10.61
32.968,-15.44
32.984,-20.83
33.000,-26.4
33.015,-31.91
33.031,-37.26
33.046,-42.44
33.062,-47.46
33.078,-52.3
33.093,-56.89
33.109,-61.09
33.125,-64.59
33.140,-66.85
33.156,-67.11
33.171,-64.47
33.187,-58.22
33.203,-48.12
33.218,-34.58
33.234,-18.63
33.250,-1.67
33.265,14.83
33.281,29.61
33.296,41.73
33.312,50.63
33.328,56.07
33.343,58.15
33.359,57.29
33.375,54.19
33.390,49.74
33.406,44.81
33.421,40.14
33.437,36.16
33.453,33.08
33.468,30.89
33.484,29.46
33.500,28.61
33.515,28.07
33.531,27.54
33.546,26.77
33.562,25.58
33.578,23.94
33.593,21.86
33.609,19.34
33.625,16.27
33.640,12.42
33.656,7.45
33.671,1.03
33.687,-7.08
33.703,-16.91
33.718,-28.15
33.734,-40.09
33.750,-51.56
33.765,-61.04
33.781,-66.91
33.796,-67.99
33.812,-63.85
33.828,-55.11
33.843,-43.26
33.859,-30.16
33.875,-17.54
33.890,-6.48
33.906,2.61
33.921,9.82
33.937,15.35
33.953,19.33
33.968,21.7
33.984,22.46
34.000,21.87
34.015,20.43
34.031,18.81
34.046,17.54
34.062,16.8
34.078,16.38
34.093,15.87
34.109,14.88
34.125,13.27
34.140,11.2
34.156,9.05
34.171,7.12
34.187,5.49
34.203,3.98
34.218,2.27
34.234,0.03
34.250,-2.94
34.265,-6.7
34.281,-11.24
34.296,-16.55
34.312,-22.63
34.328,-29.34
34.343,-36.21
34.359,-42.46
34.375,-47.05
34.390,-49.02
34.406,-47.7
34.421,-42.98
34.437,-35.27
34.453,-25.36
34.468,-14.18
34.484,-2.64
34.500,8.53
34.515,18.79
34.531,27.72
34.546,35.06
34.562,40.56
34.578,44.05
34.593,45.47
34.609,44.87
34.625,42.57
34.640,39.04
34.656,34.95
34.671,30.9
34.687,27.34
34.703,24.4
34.718,21.95
34.734,19.7
34.750,17.37
34.765,14.89
34.781,12.35
34.796,9.94
34.812,7.77
34.828,5.72
34.843,3.51
34.859,0.83
34.875,-2.56
34.890,-6.71
34.906,-11.58
34.921,-17.07
34.937,-23.0
34.953,-29.1
34.968,-34.8
34.984,-39.21
35.000,-41.26
35.015,-40.02
35.031,-35.12
35.046,-26.89
35.062,-16.33
35.078,-4.75
35.093,6.66
35.109,17.06
35.125,26.09
35.140,33.66
35.156,39.75
35.171,44.26
35.187,47.03
35.203,48.0
35.218,47.33
35.234,45.47
35.250,42.96
35.265,40.31
35.281,37.84
35.296,35.61
35.312,33.48
35.328,31.3
35.343,28.91
35.359,26.24
35.375,23.3
35.390,20.1
35.406,16.75
35.421,13.31
35.437,9.86
35.453,6.44
35.468,2.98
35.484,-0.71
35.500,-4.87
35.515,-9.71
35.531,-15.3
35.546,-21.46
35.562,-27.74
35.578,-33.44
35.593,-37.71
35.609,-39.73
35.625,-38.95
35.640,-35.22
35.656,-28.89
35.671,-20.71
35.687,-11.67
35.703,-2.73
35.718,5.34
35.734,12.09
35.750,17.29
35.765,20.85
35.781,22.73
35.796,22.93
35.812,21.55
35.828,18.8
35.843,15.12
35.859,11.0
35.875,6.96
35.890,3.33
35.906,0.22
35.921,-2.5
35.937,-5.11
35.953,-7.91
35.968,-11.07
35.984,-14.59
36.000,-18.31
36.015,-21.96
36.031,-25.27
36.046,-28.1
36.062,-30.44
36.078,-32.56
36.093,-34.79
36.109,-37.61
36.125,-41.38
36.140,-46.31
36.156,-52.19
36.171,-58.37
36.187,-63.72
36.203,-66.82
36.218,-66.39
36.234,-61.67
36.250,-52.73
36.265,-40.52
36.281,-26.52
36.296,-12.25
36.312,1.11
36.328,12.96
36.343,23.14
36.359,31.7
36.375,38.54
36.390,43.46
36.406,46.23
36.421,46.83
36.437,45.56
36.453,43.08
36.468,40.14
36.484,37.44
36.500,35.3
36.515,33.7
36.531,32.32
36.546,30.78
36.562,28.78
36.578,26.21
36.593,23.11
36.609,19.51
36.625,15.38
36.640,10.62
36.656,5.11
36.671,-1.15
36.687,-8.08
36.703,-15.48
36.718,-23.2
36.734,-31.16
36.750,-39.33
36.765,-47.5
36.781,-55.08
36.796,-61.03
36.812,-64.12
36.828,-63.24
36.843,-57.9
36.859,-48.37
36.875,-35.69
36.890,-21.31
36.906,-6.71
36.921,6.94
36.937,18.86
36.953,28.65
36.968,36.11
36.984,41.11
37.000,43.6
37.015,43.66
37.031,41.61
37.046,38.04
37.062,33.71
37.078,29.38
37.093,25.66
37.109,22.78
37.125,20.61
37.140,18.74
37.156,16.66
37.171,14.04
37.187,10.82
37.203,7.17
37.218,3.36
37.234,-0.46
37.250,-4.33
37.265,-8.48
37.281,-13.24
37.296,-18.84
37.312,-25.37
37.328,-32.78
37.343,-40.84
37.359,-49.16
37.375,-57.07
37.390,-63.6
37.406,-67.6
37.421,-67.92
37.437,-63.88
37.453,-55.5
37.468,-43.54
37.484,-29.32
37.500,-14.3
37.515,0.31
37.531,13.74
37.546,25.59
37.562,35.67
37.578,43.74
37.593,49.49
37.609,52.68
37.625,53.27
37.640,51.63
37.656,48.46
37.671,44.68
37.687,41.04
37.703,38.04
37.718,35.67
37.734,33.63
37.750,31.44
37.765,28.74
37.781,25.38
37.796,21.46
37.812,17.23
37.828,12.91
37.843,8.6
37.859,4.25
37.875,-0.38
37.890,-5.56
37.906,-11.54
37.921,-18.51
37.937,-26.52
37.953,-35.36
37.968,-44.5
37.984,-53.01
38.000,-59.66
38.015,-63.14
38.031,-62.4
38.046,-57.07
38.062,-47.51
38.078,-34.81
38.093,-20.46
38.109,-5.9
38.125,7.7
38.140,19.61
38.156,29.43
38.171,37.01
38.187,42.24
38.203,45.14
38.218,45.84
38.234,44.62
38.250,41.92
38.265,38.32
38.281,34.43
38.296,30.83
38.312,27.89
38.328,25.72
38.343,24.11
38.359,22.66
38.375,20.93
38.390,18.65
38.406,15.86
38.421,12.76
38.437,9.55
38.453,6.29
38.468,2.86
38.484,-1.06
38.500,-5.76
38.515,-11.38
38.531,-17.83
38.546,-24.84
38.562,-31.88
38.578,-38.29
38.593,-43.14
38.609,-45.41
38.625,-44.22
38.640,-39.04
38.656,-29.97
38.671,-17.78
38.687,-3.74
38.703,10.66
38.718,24.11
38.734,35.64
38.750,44.65
38.765,50.9
38.781,54.34
38.796,55.05
38.812,53.27
38.828,49.43
38.843,44.22
38.859,38.53
38.875,33.23
38.890,29.04
38.906,26.28
38.921,24.79
38.937,23.98
38.953,23.08
38.968,21.43
38.984,18.75
39.000,15.1
39.015,10.82
39.031,6.29
39.046,1.72
39.062,-2.88
39.078,-7.71
39.093,-13.01
39.109,-19.0
39.125,-25.73
39.140,-33.1
39.156,-40.69
39.171,-47.76
39.187,-53.25
39.203,-55.97
39.218,-54.93
39.234,-49.7
39.250,-40.59
39.265,-28.58
39.281,-15.06
39.296,-1.37
39.312,11.45
39.328,22.8
39.343,32.36
39.359,39.88
39.375,45.11
39.390,47.84
39.406,48.04
39.421,46.04
39.437,42.53
39.453,38.39
39.468,34.45
39.484,31.27
39.500,29.03
39.515,27.57
39.531,26.53
39.546,25.44
39.562,23.89
39.578,21.64
39.593,18.59
39.609,14.82
39.625,10.49
39.640,5.68
39.656,0.4
39.671,-5.38
39.687,-11.68
39.703,-18.4
39.718,-25.37
39.734,-32.37
39.750,-39.21
39.765,-45.51
39.781,-50.72
39.796,-53.94
39.812,-54.14
39.828,-50.48
39.843,-42.69
39.859,-31.33
39.875,-17.63
39.890,-3.2
39.906,10.52
39.921,22.52
39.937,32.31
39.953,39.8
39.968,45.0
39.984,47.97
40.000,48.74
40.015,47.45
40.031,44.43
40.046,40.25
40.062,35.59
40.078,31.1
40.093,27.22
40.109,24.05
40.125,21.38
40.140,18.86
40.156,16.09
40.171,12.85
40.187,9.1
40.203,5.02
40.218,0.82
40.234,-3.34
40.250,-7.47
40.265,-11.74
40.281,-16.38
40.296,-21.61
40.312,-27.58
40.328,-34.31
40.343,-41.6
40.359,-49.04
40.375,-55.88
40.390,-61.12
40.406,-63.7
40.421,-62.72
40.437,-57.73
40.453,-48.93
40.468,-37.17
40.484,-23.62
40.500,-9.58
40.515,3.88
40.531,15.99
40.546,26.28
40.562,34.45
40.578,40.27
40.593,43.59
40.609,44.41
40.625,43.0
40.640,39.92
40.656,35.94
40.671,31.88
40.687,28.34
40.703,25.57
40.718,23.42
40.734,21.48
40.750,19.3
40.765,16.53
40.781,13.07
40.796,9.08
40.812,4.83
40.828,0.54
40.843,-3.67
40.859,-7.88
40.875,-12.23
40.890,-16.88
40.906,-21.87
40.921,-27.19
40.937,-32.78
40.953,-38.57
40.968,-44.45
40.984,-50.02
41.000,-54.61
41.015,-57.25
41.031,-56.91
41.046,-52.87
41.062,-45.01
41.078,-33.89
41.093,-20.56
41.109,-6.28
41.125,7.72
41.140,20.37
41.156,30.68
41.171,37.74
41.187,40.88
41.203,39.95
41.218,35.53
41.234,28.98
41.250,22.07
41.265,16.45
41.281,13.13
41.296,12.34
41.312,13.6
41.328,16.08
41.343,18.97
41.359,21.69
41.375,23.85
41.390,25.15
41.406,25.36
41.421,24.28
41.437,21.89
41.453,18.41
41.468,14.2
41.484,9.62
41.500,4.83
41.515,-0.33
41.531,-6.27
41.546,-13.39
41.562,-21.71
41.578,-30.73
41.593,-39.36
41.609,-46.19
41.625,-49.82
41.640,-49.32
41.656,-44.51
41.671,-36.01
41.687,-25.06
41.703,-13.11
41.718,-1.53
41.734,8.69
41.750,16.95
41.765,23.05
41.781,27.06
41.796,29.19
41.812,29.8
41.828,29.22
41.843,27.77
41.859,25.69
41.875,23.22
41.890,20.64
41.906,18.47
41.921,17.5
41.937,18.54
41.953,22.19
41.968,28.44
41.984,36.51
42.000,45.02
42.015,52.4
42.031,57.34
42.046,59.09
42.062,57.57
42.078,53.1
42.093,46.09
42.109,36.82
42.125,25.45
42.140,12.11
42.156,-2.85
42.171,-18.68
42.187,-34.3
42.203,-48.43
42.218,-59.79
42.234,-67.46
42.250,-70.93
42.265,-70.27
42.281,-66.01
42.296,-59.01
42.312,-50.23
42.328,-40.59
42.343,-30.8
42.359,-21.41
42.375,-12.82
42.390,-5.36
42.406,0.62
42.421,4.85
42.437,7.2
42.453,7.82
42.468,7.12
42.484,5.61
42.500,3.83
42.515,2.14
42.531,0.65
42.546,-0.79
42.562,-2.37
42.578,-4.25
42.593,-6.46
42.609,-8.89
42.625,-11.37
42.640,-13.75
42.656,-16.04
42.671,-18.33
42.687,-20.83
42.703,-23.8
42.718,-27.45
42.734,-31.91
42.750,-37.25
42.765,-43.34
42.781,-49.72
42.796,-55.62
42.812,-59.95
42.828,-61.57
42.843,-59.62
42.859,-53.79
42.875,-44.46
42.890,-32.54
42.906,-19.3
42.921,-5.91
42.937,6.69
42.953,17.95
42.968,27.55
42.984,35.34
43.000,41.19
43.015,45.0
43.031,46.79
43.046,46.71
43.062,45.15
43.078,42.55
43.093,39.42
43.109,36.18
43.125,33.1
43.140,30.33
43.156,27.94
43.171,25.85
43.187,23.91
43.203,21.89
43.218,19.48
43.234,16.47
43.250,12.8
43.265,8.55
43.281,3.95
43.296,-0.78
43.312,-5.48
43.328,-10.18
43.343,-15.02
43.359,-20.28
43.375,-26.12
43.390,-32.43
43.406,-38.74
43.421,-44.24
43.437,-47.88
43.453,-48.7
43.468,-46.0
43.484,-39.55
43.500,-29.69
43.515,-17.2
43.531,-3.23
43.546,10.92
43.562,24.02
43.578,35.03
43.593,43.3
43.609,48.63
43.625,51.15
43.640,51.24
43.656,49.34
43.671,45.87
43.687,41.19
43.703,35.72
43.718,29.86
43.734,23.99
43.750,18.39
43.765,13.17
43.781,8.26
43.796,3.54
43.812,-1.12
43.828,-5.79
43.843,-10.47
43.859,-15.19
43.875,-20.04
43.890,-25.14
43.906,-30.61
43.921,-36.53
43.937,-42.91
43.953,-49.77
43.968,-57.15
43.984,-65.06
44.000,-73.35
44.015,-81.56
44.031,-88.83
44.046,-93.97
44.062,-95.75
44.078,-93.21
44.093,-86.07
44.109,-74.78
44.125,-60.43
44.140,-44.53
44.156,-28.59
44.171,-13.87
44.187,-1.2
44.203,8.95
44.218,16.45
44.234,21.37
44.250,23.92
44.265,24.51
44.281,23.69
44.296,22.16
44.312,20.65
44.328,19.67
44.343,19.44
44.359,19.8
44.375,20.37
44.390,20.74
44.406,20.59
44.421,19.83
44.437,18.49
44.453,16.7
44.468,14.57
44.484,12.18
44.500,9.62
44.515,6.87
44.531,3.88
44.546,0.46
44.562,-3.61
44.578,-8.48
44.593,-14.07
44.609,-19.95
44.625,-25.41
44.640,-29.47
44.656,-31.18
44.671,-29.79
44.687,-24.98
44.703,-16.97
44.718,-6.51
44.734,5.28
44.750,17.2
44.765,28.21
44.781,37.65
44.796,45.25
44.812,51.05
44.828,55.18
44.843,57.7
44.859,58.6
44.875,57.86
44.890,55.59
44.906,52.13
44.921,48.03
44.937,43.9
44.953,40.26
44.968,37.3
44.984,34.88
45.000,32.62
45.015,30.01
45.031,26.66
45.046,22.38
45.062,17.24
45.078,11.47
45.093,5.35
45.109,-0.93
45.125,-7.33
45.140,-13.96
45.156,-21.0
45.171,-28.69
45.187,-37.22
45.203,-46.69
45.218,-56.92
45.234,-67.31
45.250,-76.73
45.265,-83.73
45.281,-86.85
45.296,-85.15
45.312,-78.61
45.328,-68.14
45.343,-55.26
45.359,-41.51
45.375,-27.91
45.390,-14.81
45.406,-2.09
45.421,10.4
45.437,22.45
45.453,33.4
45.468,42.38
45.484,48.62
45.500,51.74
45.515,51.79
45.531,49.13
45.546,44.17
45.562,37.34
45.578,28.97
45.593,19.5
45.609,9.5
45.625,-0.45
45.640,-9.79
45.656,-18.09
45.671,-25.1
45.687,-30.72
45.703,-34.89
45.718,-37.67
45.734,-39.27
45.750,-40.1
45.765,-40.76
45.781,-42.01
45.796,-44.53
45.812,-48.73
45.828,-54.53
45.843,-61.3
45.859,-67.83
45.875,-72.58
45.890,-74.02
45.906,-71.08
45.921,-63.43
45.937,-51.59
45.953,-36.78
45.968,-20.47
45.984,-4.04
46.000,11.52
46.015,25.6
46.031,37.87
46.046,48.1
46.062,56.09
46.078,61.65
46.093,64.76
46.109,65.73
46.125,65.19
46.140,63.99
46.156,62.95
46.171,62.65
46.187,63.24
46.203,64.44
46.218,65.7
46.234,66.21
46.250,65.14
46.265,61.66
46.281,55.13
46.296,45.36
46.312,32.81
46.328,18.61
46.343,4.3
46.359,-8.54
46.375,-18.88
46.390,-26.48
46.406,-31.84
46.421,-35.77
46.437,-38.97
46.453,-41.59
46.468,-43.24
46.484,-43.2
46.500,-40.75
46.515,-35.49
46.531,-27.44
46.546,-16.94
46.562,-4.69
46.578,8.46
46.593,21.41
46.609,33.07
46.625,42.37
46.640,48.54
46.656,51.32
46.671,50.95
46.687,48.1
46.703,43.59
46.718,38.22
46.734,32.57
46.750,27.16
46.765,22.51
46.781,19.12
46.796,17.31
46.812,16.96
46.828,17.43
46.843,17.7
46.859,16.87
46.875,14.58
46.890,11.31
46.906,8.13
46.921,6.24
46.937,6.34
46.953,8.2
46.968,10.79
46.984,12.63
47.000,12.36
47.015,9.17
47.031,2.96
47.046,-5.64
47.062,-15.51
47.078,-25.19
47.093,-33.16
47.109,-38.07
47.125,-38.99
47.140,-35.63
47.156,-28.45
47.171,-18.53
47.187,-7.38
47.203,3.49
47.218,12.96
47.234,20.46
47.250,25.99
47.265,29.98
47.281,32.98
47.296,35.38
47.312,37.29
47.328,38.54
47.343,38.91
47.359,38.25
47.375,36.64
47.390,34.33
47.406,31.63
47.421,28.75
47.437,25.75
47.453,22.61
47.468,19.3
47.484,15.86
47.500,12.42
47.515,9.09
47.531,5.95
47.546,3.01
47.562,0.19
47.578,-2.62
47.593,-5.55
47.609,-8.76
47.625,-12.43
47.640,-16.69
47.656,-21.58
47.671,-26.83
47.687,-31.84
47.703,-35.67
47.718,-37.22
47.734,-35.57
47.750,-30.33
47.765,-21.8
47.781,-10.98
47.796,0.7
47.812,11.71
47.828,20.76
47.843,27.06
47.859,30.31
47.875,30.69
47.890,28.67
47.906,24.92
47.921,20.12
47.937,14.92
47.953,9.84
47.968,5.31
47.984,1.6
48.000,-1.11
48.015,-2.76
48.031,-3.45
48.046,-3.42
48.062,-3.15
48.078,-3.11
48.093,-3.72
48.109,-5.16
48.125,-7.31
48.140,-9.86
48.156,-12.47
48.171,-14.96
48.187,-17.37
48.203,-19.99
48.218,-23.12
48.234,-27.02
48.250,-31.78
48.265,-37.29
48.281,-43.22
48.296,-48.95
48.312,-53.55
48.328,-55.86
48.343,-54.82
48.359,-49.77
48.375,-40.78
48.390,-28.72
48.406,-15.01
48.421,-1.17
48.437,11.61
48.453,22.69
48.468,31.92
48.484,39.36
48.500,45.05
48.515,48.85
48.531,50.46
48.546,49.7
48.562,46.6
48.578,41.57
48.593,35.31
48.609,28.64
48.625,22.29
48.640,16.68
48.656,11.94
48.671,7.91
48.687,4.35
48.703,1.04
48.718,-2.14
48.734,-5.24
48.750,-8.27
48.765,-11.32
48.781,-14.54
48.796,-18.05
48.812,-21.89
48.828,-25.99
48.843,-30.24
48.859,-34.58
48.875,-39.07
48.890,-43.79
48.906,-48.66
48.921,-53.29
48.937,-56.87
48.953,-58.36
48.968,-56.75
48.984,-51.48
49.000,-42.67
49.015,-31.22
49.031,-18.49
49.046,-5.9
49.062,5.43
49.078,14.92
49.093,22.4
49.109,27.97
49.125,31.74
49.140,33.73
49.156,33.99
49.171,32.73
49.187,30.38
49.203,27.54
49.218,24.82
49.234,22.57
49.250,20.86
49.265,19.48
49.281,18.15
49.296,16.64
49.312,14.87
49.328,12.85
49.343,10.62
49.359,8.17
49.375,5.44
49.390,2.38
49.406,-1.04
49.421,-4.74
49.437,-8.6
49.453,-12.52
49.468,-16.55
49.484,-20.93
49.500,-25.83
49.515,-31.25
49.531,-36.74
49.546,-41.37
49.562,-43.97
49.578,-43.45
49.593,-39.21
49.609,-31.38
49.625,-20.75
49.640,-8.53
49.656,4.03
49.671,15.83
49.687,26.14
49.703,34.52
49.718,40.8
49.734,44.95
49.750,47.17
49.765,47.74
49.781,47.07
49.796,45.63
49.812,43.83
49.828,41.98
49.843,40.32
49.859,38.96
49.875,37.9
49.890,37.02
49.906,36.14
49.921,35.09
49.937,33.84
49.953,32.62
49.968,31.76
49.984,31.51
50.000,31.66
50.015,31.47
50.031,29.85
50.046,25.78
50.062,18.82
50.078,9.3
50.093,-1.92
50.109,-13.88
50.125,-25.98
50.140,-37.97
50.156,-49.6
50.171,-60.28
50.187,-68.94
50.203,-74.32
50.218,-75.54
50.234,-72.44
50.250,-65.6
50.265,-55.97
50.281,-44.35
50.296,-31.22
50.312,-16.92
50.328,-2.04
50.343,12.27
50.359,24.43
50.375,32.88
50.390,36.68
50.406,35.91
50.421,31.6
50.437,25.44
50.453,19.2
50.468,14.15
50.484,10.95
50.500,9.54
50.515,9.38
50.531,9.74
50.546,9.9
50.562,9.22
50.578,7.34
50.593,4.15
50.609,-0.16
50.625,-5.16
50.640,-10.32
50.656,-15.18
50.671,-19.51
50.687,-23.42
50.703,-27.34
50.718,-31.8
50.734,-37.19
50.750,-43.53
50.765,-50.3
50.781,-56.48
50.796,-60.81
50.812,-62.1
50.828,-59.64
50.843,-53.48
50.859,-44.42
50.875,-33.84
50.890,-23.28
50.906,-13.97
50.921,-6.51
50.937,-0.8
50.953,3.8
50.968,8.15
50.984,12.96
51.000,18.58
51.015,24.86
51.031,31.29
51.046,37.19
51.062,41.95
51.078,45.26
51.093,47.1
51.109,47.71
51.125,47.32
51.140,46.11
51.156,44.06
51.171,41.01
51.187,36.82
51.203,31.47
51.218,25.19
51.234,18.32
51.250,11.27
51.265,4.34
51.281,-2.39
51.296,-9.05
51.312,-15.96
51.328,-23.6
51.343,-32.38
51.359,-42.51
51.375,-53.65
51.390,-64.69
51.406,-73.85
51.421,-79.05
51.437,-78.52
51.453,-71.53
51.468,-58.57
51.484,-41.36
51.500,-22.19
51.515,-3.26
51.531,13.79
51.546,28.02
51.562,38.98
51.578,46.53
51.593,50.56
51.609,51.14
51.625,48.57
51.640,43.64
51.656,37.43
51.671,31.2
51.687,26.04
51.703,22.57
51.718,20.84
51.734,20.39
51.750,20.4
51.765,20.03
51.781,18.62
51.796,15.89
51.812,11.97
51.828,7.29
51.843,2.56
51.859,-1.35
51.875,-3.61
51.890,-3.64
51.906,-1.43
51.921,2.31
51.937,6.22
51.953,8.66
51.968,8.24
51.984,4.28
52.000,-2.93
52.015,-12.26
52.031,-22.08
52.046,-30.68
52.062,-36.59
52.078,-38.79
52.093,-36.73
52.109,-30.45
52.125,-20.62
52.140,-8.46
52.156,4.33
52.171,15.94
52.187,24.8
52.203,30.0
52.218,31.44
52.234,29.91
52.250,26.83
52.265,23.85
52.281,22.29
52.296,22.79
52.312,25.09
52.328,28.16
52.343,30.66
52.359,31.46
52.375,30.03
52.390,26.62
52.406,21.97
52.421,16.98
52.437,12.35
52.453,8.34
52.468,4.87
52.484,1.58
52.500,-1.92
52.515,-5.96
52.531,-10.83
52.546,-16.74
52.562,-23.8
52.578,-31.87
52.593,-40.46
52.609,-48.57
52.625,-54.92
52.640,-58.26
52.656,-57.8
52.671,-53.57
52.687,-46.51
52.703,-38.11
52.718,-29.99
52.734,-23.32
52.750,-18.51
52.765,-15.25
52.781,-12.82
52.796,-10.54
52.812,-8.12
52.828,-5.76
52.843,-3.93
52.859,-3.04
52.875,-3.21
52.890,-4.14
52.906,-5.33
52.921,-6.35
52.937,-7.02
52.953,-7.47
52.968,-7.98
52.984,-8.76
53.000,-9.92
53.015,-11.42
53.031,-13.13
53.046,-14.99
53.062,-16.99
53.078,-19.21
53.093,-21.76
53.109,-24.77
53.125,-28.42
53.140,-32.88
53.156,-38.27
53.171,-44.49
53.187,-51.12
53.203,-57.3
53.218,-61.86
53.234,-63.62
53.250,-61.72
53.265,-55.95
53.281,-46.83
53.296,-35.46
53.312,-23.18
53.328,-11.16
53.343,-0.19
53.359,9.35
53.375,17.31
53.390,23.6
53.406,28.06
53.421,30.51
53.437,30.93
53.453,29.55
53.468,26.92
53.484,23.79
53.500,20.87
53.515,18.59
53.531,17.03
53.546,15.88
53.562,14.63
53.578,12.76
53.593,9.99
53.609,6.24
53.625,1.73
53.640,-3.27
53.656,-8.46
53.671,-13.67
53.687,-18.9
53.703,-24.25
53.718,-29.89
53.734,-36.01
53.750,-42.75
53.765,-50.09
53.781,-57.76
53.796,-65.13
53.812,-71.17
53.828,-74.69
53.843,-74.56
53.859,-70.11
53.875,-61.29
53.890,-48.76
53.906,-33.68
53.921,-17.38
53.937,-1.09
53.953,14.35
53.968,28.42
53.984,40.96
54.000,51.95
54.015,61.42
54.031,69.27
54.046,75.31
54.062,79.22
54.078,80.85
54.093,80.33
54.109,78.22
54.125,75.42
54.140,72.76
54.156,70.75
54.171,69.35
54.187,68.02
54.203,66.03
54.218,62.82
54.234,58.19
54.250,52.28
54.265,45.45
54.281,38.03
54.296,30.29
54.312,22.36
54.328,14.33
54.343,6.27
54.359,-1.75
54.375,-9.61
54.390,-17.11
54.406,-23.89
54.421,-29.4
54.437,-33.06
54.453,-34.28
54.468,-32.7
54.484,-28.22
54.500,-21.06
54.515,-11.7
54.531,-0.85
54.546,10.65
54.562,22.01
54.578,32.51
54.593,41.66
54.609,49.18
54.625,54.92
54.640,58.78
54.656,60.71
54.671,60.8
54.687,59.32
54.703,56.84
54.718,54.02
54.734,51.48
54.750,49.45
54.765,47.8
54.781,46.04
54.796,43.64
54.812,40.21
54.828,35.65
54.843,30.11
54.859,23.83
54.875,17.04
54.890,9.87
54.906,2.38
54.921,-5.39
54.937,-13.43
54.953,-21.82
54.968,-30.71
54.984,-40.16
55.000,-50.03
55.015,-59.77
55.031,-68.46
55.046,-74.94
55.062,-78.18
55.078,-77.57
55.093,-73.09
55.109,-65.28
55.125,-55.0
55.140,-43.24
55.156,-30.88
55.171,-18.65
55.187,-7.2
55.203,2.87
55.218,10.95
55.234,16.56
55.250,19.43
55.265,19.66
55.281,17.67
55.296,14.14
55.312,9.79
55.328,5.14
55.343,0.41
55.359,-4.56
55.375,-10.07
55.390,-16.46
55.406,-23.84
55.421,-31.89
55.437,-39.86
55.453,-46.62
55.468,-51.03
55.484,-52.4
55.500,-50.76
55.515,-46.99
55.531,-42.6
55.546,-39.18
55.562,-37.91
55.578,-39.22
55.593,-42.73
55.609,-47.43
55.625,-52.05
55.640,-55.29
55.656,-56.06
55.671,-53.6
55.687,-47.58
55.703,-38.14
55.718,-25.93
55.734,-11.87
55.750,2.96
55.765,17.54
55.781,31.0
55.796,42.65
55.812,51.99
55.828,58.69
55.843,62.7
55.859,64.22
55.875,63.71
55.890,61.77
55.906,59.04
55.921,56.03
55.937,53.04
55.953,50.19
55.968,47.43
55.984,44.59
56.000,41.46
56.015,37.86
56.031,33.71
56.046,29.02
56.062,23.95
56.078,18.66
56.093,13.39
56.109,8.31
56.125,3.61
56.140,-0.72
56.156,-4.76
56.171,-8.75
56.187,-12.96
56.203,-17.5
56.218,-22.21
56.234,-26.65
56.250,-30.25
56.265,-32.45
56.281,-32.86
56.296,-31.25
56.312,-27.5
56.328,-21.59
56.343,-13.65
56.359,-4.04
56.375,6.48
56.390,16.85
56.406,25.9
56.421,32.62
56.437,36.49
56.453,37.52
56.468,36.19
56.484,33.34
56.500,29.84
56.515,26.48
56.531,23.8
56.546,21.98
56.562,20.94
56.578,20.38
56.593,20.0
56.609,19.5
56.625,18.71
56.640,17.53
56.656,15.87
56.671,13.68
56.687,10.9
56.703,7.48
56.718,3.42
56.734,-1.29
56.750,-6.67
56.765,-12.74
56.781,-19.45
56.796,-26.61
56.812,-33.74
56.828,-40.14
56.843,-44.91
56.859,-47.19
56.875,-46.39
56.890,-42.37
56.906,-35.46
56.921,-26.35
56.937,-15.85
56.953,-4.74
56.968,6.32
56.984,16.79
57.000,26.16
57.015,33.94
57.031,39.73
57.046,43.29
57.062,44.61
57.078,43.99
57.093,41.94
57.109,39.09
57.125,36.03
57.140,33.14
57.156,30.59
57.171,28.28
57.187,25.99
57.203,23.5
57.218,20.67
57.234,17.53
57.250,14.16
57.265,10.66
57.281,7.07
57.296,3.32
57.312,-0.67
57.328,-4.99
57.343,-9.72
57.359,-15.0
57.375,-20.91
57.390,-27.42
57.406,-34.21
57.421,-40.55
57.437,-45.36
57.453,-47.46
57.468,-45.9
57.484,-40.31
57.500,-31.09
57.515,-19.25
57.531,-6.13
57.546,6.98
57.562,19.14
57.578,29.81
57.593,38.72
57.609,45.71
57.625,50.6
57.640,53.19
57.656,53.48
57.671,51.7
57.687,48.45
57.703,44.53
57.718,40.69
57.734,37.41
57.750,34.81
57.765,32.68
57.781,30.67
57.796,28.48
57.812,25.93
57.828,23.0
57.843,19.76
57.859,16.28
57.875,12.58
57.890,8.62
57.906,4.3
57.921,-0.52
57.937,-5.92
57.953,-11.9
57.968,-18.4
57.984,-25.2
58.000,-31.99
58.015,-38.24
58.031,-43.28
58.046,-46.24
58.062,-46.28
58.078,-42.75
58.093,-35.45
58.109,-24.76
58.125,-11.61
58.140,2.81
58.156,17.29
58.171,30.94
58.187,43.12
58.203,53.38
58.218,61.34
58.234,66.53
58.250,68.62
58.265,67.6
58.281,64.02
58.296,58.87
58.312,53.37
58.328,48.5
58.343,44.64
58.359,41.53
58.375,38.38
58.390,34.35
58.406,28.84
58.421,21.61
58.437,12.73
58.453,2.49
58.468,-8.82
58.484,-20.84
58.500,-33.13
58.515,-45.15
58.531,-56.37
58.546,-66.34
58.562,-74.8
58.578,-81.78
58.593,-87.35
58.609,-91.51
58.625,-94.08
58.640,-94.61
58.656,-92.61
58.671,-87.72
58.687,-79.92
58.703,-69.62
58.718,-57.59
58.734,-44.83
58.750,-32.26
58.765,-20.6
58.781,-10.3
58.796,-1.56
58.812,5.5
58.828,10.82
58.843,14.41
58.859,16.42
58.875,17.19
58.890,17.22
58.906,17.02
58.921,16.89
58.937,16.83
58.953,16.48
58.968,15.31
58.984,12.85
59.000,8.92
59.015,3.72
59.031,-2.14
59.046,-7.87
59.062,-12.78
59.078,-16.44
59.093,-18.81
59.109,-20.17
59.125,-21.03
59.140,-21.89
59.156,-23.2
59.171,-25.25
59.187,-28.13
59.203,-31.74
59.218,-35.63
59.234,-39.0
59.250,-40.82
59.265,-40.1
59.281,-36.24
59.296,-29.23
59.312,-19.73
59.328,-8.81
59.343,2.39
59.359,12.97
59.375,22.45
59.390,30.59
59.406,37.25
59.421,42.19
59.437,45.13
59.453,45.86
59.468,44.5
59.484,41.5
59.500,37.61
59.515,33.62
59.531,30.08
59.546,27.15
59.562,24.58
59.578,21.89
59.593,18.62
59.609,14.52
59.625,9.68
59.640,4.36
59.656,-1.06
59.671,-6.35
59.687,-11.44
59.703,-16.43
59.718,-21.48
59.734,-26.69
59.750,-32.07
59.765,-37.58
59.781,-43.15
59.796,-48.64
59.812,-53.69
59.828,-57.66
59.843,-59.71
59.859,-58.95
59.875,-54.83
59.890,-47.33
59.906,-36.99
59.921,-24.75
59.937,-11.61
59.953,1.62
59.968,14.38
59.984,26.26
