timestamp,value
00.000,53.78
00.015,52.83
00.031,51.41
00.046,49.92
00.062,48.58
00.078,47.29
00.093,45.92
00.109,44.34
00.125,42.57
00.140,40.77
00.156,39.1
00.171,37.58
00.187,36.07
00.203,34.3
00.218,31.93
00.234,28.77
00.250,24.75
00.265,19.99
00.281,14.77
00.296,9.42
00.312,4.19
00.328,-0.83
00.343,-5.66
00.359,-10.39
00.375,-15.07
00.390,-19.65
00.406,-24.12
00.421,-28.39
00.437,-32.45
00.453,-36.39
00.468,-40.42
00.484,-44.78
00.500,-49.61
00.515,-54.97
00.531,-60.7
00.546,-66.49
00.562,-71.77
00.578,-75.78
00.593,-77.59
00.609,-76.29
00.625,-71.31
00.640,-62.55
00.656,-50.67
00.671,-36.8
00.687,-22.36
00.703,-8.53
00.718,3.94
00.734,14.76
00.750,23.96
00.765,31.54
00.781,37.49
00.796,41.6
00.812,43.85
00.828,44.48
00.843,43.9
00.859,42.75
00.875,41.58
00.890,40.73
00.906,40.14
00.921,39.61
00.937,38.8
00.953,37.57
00.968,35.96
00.984,34.1
01.000,32.23
01.015,30.5
01.031,28.91
01.046,27.3
01.062,25.41
01.078,23.03
01.093,20.01
01.109,16.47
01.125,12.59
01.140,8.68
01.156,4.95
01.171,1.43
01.187,-1.99
01.203,-5.53
01.218,-9.41
01.234,-13.7
01.250,-18.21
01.265,-22.77
01.281,-27.11
01.296,-31.22
01.312,-35.21
01.328,-39.25
01.343,-43.51
01.359,-48.12
01.375,-53.06
01.390,-58.13
01.406,-63.04
01.421,-67.26
01.437,-70.05
01.453,-70.57
01.468,-67.93
01.484,-61.59
01.500,-51.63
01.515,-38.69
01.531,-23.96
01.546,-8.74
01.562,5.8
01.578,18.97
01.593,30.39
01.609,39.99
01.625,47.74
01.640,53.58
01.656,57.45
01.671,59.39
01.687,59.72
01.703,58.96
01.718,57.74
01.734,56.56
01.750,55.65
01.765,54.93
01.781,54.08
01.796,52.72
01.812,50.56
01.828,47.61
01.843,44.07
01.859,40.25
01.875,36.41
01.890,32.66
01.906,28.92
01.921,25.0
01.937,20.81
01.953,16.28
01.968,11.52
01.984,6.66
02.000,1.72
02.015,-3.29
02.031,-8.46
02.046,-13.81
02.062,-19.39
02.078,-25.01
02.093,-30.59
02.109,-35.96
02.125,-41.01
02.140,-45.73
02.156,-50.08
02.171,-54.07
02.187,-57.78
02.203,-61.34
02.218,-64.93
02.234,-68.75
02.250,-72.84
02.265,-77.03
02.281,-80.8
02.296,-83.31
02.312,-83.54
02.328,-80.59
02.343,-73.88
02.359,-63.45
02.375,-49.92
02.390,-34.4
02.406,-18.17
02.421,-2.42
02.437,11.94
02.453,24.35
02.468,34.52
02.484,42.39
02.500,47.96
02.515,51.46
02.531,53.11
02.546,53.37
02.562,52.69
02.578,51.55
02.593,50.31
02.609,49.08
02.625,47.94
02.640,46.8
02.656,45.63
02.671,44.39
02.687,43.16
02.703,41.97
02.718,40.82
02.734,39.58
02.750,38.0
02.765,35.83
02.781,32.85
02.796,29.05
02.812,24.56
02.828,19.7
02.843,14.77
02.859,9.97
02.875,5.36
02.890,0.82
02.906,-3.89
02.921,-8.96
02.937,-14.42
02.953,-20.11
02.968,-25.68
02.984,-30.8
03.000,-35.31
03.015,-39.19
03.031,-42.68
03.046,-46.1
03.062,-49.8
03.078,-54.06
03.093,-58.95
03.109,-64.29
03.125,-69.48
03.140,-73.55
03.156,-75.27
03.171,-73.59
03.187,-67.86
03.203,-58.22
03.218,-45.59
03.234,-31.25
03.250,-16.53
03.265,-2.5
03.281,10.25
03.296,21.44
03.312,30.87
03.328,38.44
03.343,44.03
03.359,47.6
03.375,49.37
03.390,49.73
03.406,49.14
03.421,47.99
03.437,46.59
03.453,45.03
03.468,43.34
03.484,41.53
03.500,39.56
03.515,37.45
03.531,35.27
03.546,33.07
03.562,30.99
03.578,29.05
03.593,27.23
03.609,25.35
03.625,23.14
03.640,20.33
03.656,16.78
03.671,12.59
03.687,8.08
03.703,3.68
03.718,-0.28
03.734,-3.68
03.750,-6.57
03.765,-9.25
03.781,-12.05
03.796,-15.26
03.812,-19.06
03.828,-23.35
03.843,-27.87
03.859,-32.34
03.875,-36.51
03.890,-40.33
03.906,-43.98
03.921,-47.78
03.937,-51.95
03.953,-56.57
03.968,-61.43
03.984,-66.07
04.000,-69.8
04.015,-71.77
04.031,-71.06
04.046,-66.94
04.062,-59.09
04.078,-47.79
04.093,-33.99
04.109,-18.99
04.125,-4.23
04.140,9.29
04.156,21.04
04.171,30.95
04.187,39.12
04.203,45.66
04.218,50.49
04.234,53.51
04.250,54.77
04.265,54.48
04.281,53.22
04.296,51.55
04.312,50.0
04.328,48.85
04.343,48.02
04.359,47.34
04.375,46.52
04.390,45.44
04.406,44.05
04.421,42.49
04.437,40.83
04.453,39.12
04.468,37.34
04.484,35.3
04.500,32.88
04.515,29.93
04.531,26.48
04.546,22.68
04.562,18.77
04.578,14.91
04.593,11.21
04.609,7.69
04.625,4.2
04.640,0.65
04.656,-3.12
04.671,-7.2
04.687,-11.63
04.703,-16.37
04.718,-21.32
04.734,-26.34
04.750,-31.2
04.765,-35.85
04.781,-40.26
04.796,-44.66
04.812,-49.29
04.828,-54.35
04.843,-59.88
04.859,-65.75
04.875,-71.67
04.890,-77.11
04.906,-81.37
04.921,-83.52
04.937,-82.57
04.953,-77.8
04.968,-68.96
04.984,-56.55
05.000,-41.71
05.015,-25.9
05.031,-10.46
05.046,3.62
05.062,15.89
05.078,26.22
05.093,34.65
05.109,41.22
05.125,45.93
05.140,48.88
05.156,50.24
05.171,50.42
05.187,49.84
05.203,48.95
05.218,48.02
05.234,47.18
05.250,46.4
05.265,45.55
05.281,44.52
05.296,43.33
05.312,42.16
05.328,41.16
05.343,40.46
05.359,39.91
05.375,39.14
05.390,37.65
05.406,35.09
05.421,31.38
05.437,26.87
05.453,22.08
05.468,17.54
05.484,13.53
05.500,9.97
05.515,6.53
05.531,2.75
05.546,-1.62
05.562,-6.62
05.578,-12.01
05.593,-17.47
05.609,-22.71
05.625,-27.56
05.640,-32.12
05.656,-36.53
05.671,-41.03
05.687,-45.8
05.703,-50.91
05.718,-56.42
05.734,-62.22
05.750,-68.02
05.765,-73.18
05.781,-76.78
05.796,-77.7
05.812,-74.97
05.828,-68.15
05.843,-57.45
05.859,-43.87
05.875,-28.81
05.890,-13.6
05.906,0.74
05.921,13.61
05.937,24.82
05.953,34.25
05.968,41.8
05.984,47.34
06.000,50.8
06.015,52.32
06.031,52.25
06.046,51.13
06.062,49.48
06.078,47.77
06.093,46.26
06.109,44.97
06.125,43.8
06.140,42.59
06.156,41.27
06.171,39.82
06.187,38.3
06.203,36.77
06.218,35.18
06.234,33.43
06.250,31.27
06.265,28.54
06.281,25.19
06.296,21.35
06.312,17.25
06.328,13.09
06.343,9.09
06.359,5.36
06.375,1.86
06.390,-1.55
06.406,-5.11
06.421,-9.06
06.437,-13.65
06.453,-18.9
06.468,-24.73
06.484,-30.85
06.500,-36.9
06.515,-42.6
06.531,-47.86
06.546,-52.77
06.562,-57.5
06.578,-62.24
06.593,-67.04
06.609,-71.89
06.625,-76.52
06.640,-80.58
06.656,-83.33
06.671,-83.85
06.687,-81.23
06.703,-74.79
06.718,-64.51
06.734,-51.08
06.750,-35.79
06.765,-20.13
06.781,-5.49
06.796,7.29
06.812,17.96
06.828,26.54
06.843,33.21
06.859,38.17
06.875,41.51
06.890,43.35
06.906,43.86
06.921,43.34
06.937,42.12
06.953,40.65
06.968,39.24
06.984,38.16
07.000,37.47
07.015,37.16
07.031,37.09
07.046,37.0
07.062,36.68
07.078,35.97
07.093,34.81
07.109,33.21
07.125,31.24
07.140,28.85
07.156,25.91
07.171,22.36
07.187,18.21
07.203,13.6
07.218,8.87
07.234,4.24
07.250,-0.17
07.265,-4.33
07.281,-8.45
07.296,-12.74
07.312,-17.35
07.328,-22.29
07.343,-27.55
07.359,-32.97
07.375,-38.39
07.390,-43.64
07.406,-48.58
07.421,-53.13
07.437,-57.25
07.453,-60.97
07.468,-64.36
07.484,-67.56
07.500,-70.67
07.515,-73.86
07.531,-77.04
07.546,-79.89
07.562,-81.66
07.578,-81.3
07.593,-77.71
07.609,-70.12
07.625,-58.39
07.640,-43.05
07.656,-25.36
07.671,-6.8
07.687,11.19
07.703,27.5
07.718,41.57
07.734,53.28
07.750,62.68
07.765,69.91
07.781,75.07
07.796,78.23
07.812,79.62
07.828,79.76
07.843,79.28
07.859,78.87
07.875,79.04
07.890,79.81
07.906,80.87
07.921,81.67
07.937,81.73
07.953,80.86
07.968,79.12
07.984,76.72
08.000,73.93
08.015,70.83
08.031,67.36
08.046,63.36
08.062,58.71
08.078,53.4
08.093,47.64
08.109,41.67
08.125,35.76
08.140,30.16
08.156,24.89
08.171,19.86
08.187,14.85
08.203,9.6
08.218,3.96
08.234,-2.08
08.250,-8.37
08.265,-14.68
08.281,-20.76
08.296,-26.48
08.312,-31.86
08.328,-37.03
08.343,-42.12
08.359,-47.31
08.375,-52.71
08.390,-58.32
08.406,-63.99
08.421,-69.18
08.437,-73.05
08.453,-74.5
08.468,-72.45
08.484,-66.34
08.500,-56.34
08.515,-43.38
08.531,-28.86
08.546,-14.26
08.562,-0.66
08.578,11.35
08.593,21.66
08.609,30.39
08.625,37.58
08.640,43.23
08.656,47.25
08.671,49.7
08.687,50.76
08.703,50.86
08.718,50.38
08.734,49.67
08.750,48.9
08.765,48.0
08.781,46.87
08.796,45.39
08.812,43.57
08.828,41.48
08.843,39.31
08.859,37.21
08.875,35.22
08.890,33.29
08.906,31.15
08.921,28.6
08.937,25.49
08.953,21.84
08.968,17.82
08.984,13.68
09.000,9.62
09.015,5.64
09.031,1.71
09.046,-2.37
09.062,-6.78
09.078,-11.65
09.093,-17.08
09.109,-23.02
09.125,-29.32
09.140,-35.7
09.156,-41.88
09.171,-47.5
09.187,-52.44
09.203,-56.76
09.218,-60.75
09.234,-64.85
09.250,-69.38
09.265,-74.49
09.281,-79.94
09.296,-85.01
09.312,-88.61
09.328,-89.5
09.343,-86.63
09.359,-79.53
09.375,-68.58
09.390,-54.77
09.406,-39.58
09.421,-24.38
09.437,-10.17
09.453,2.62
09.468,13.92
09.484,23.81
09.500,32.25
09.515,39.0
09.531,43.81
09.546,46.52
09.562,47.35
09.578,46.72
09.593,45.22
09.609,43.47
09.625,41.88
09.640,40.66
09.656,39.72
09.671,38.89
09.687,37.98
09.703,36.89
09.718,35.58
09.734,34.02
09.750,32.22
09.765,30.13
09.781,27.7
09.796,24.85
09.812,21.51
09.828,17.66
09.843,13.39
09.859,8.92
09.875,4.51
09.890,0.44
09.906,-3.18
09.921,-6.44
09.937,-9.6
09.953,-13.02
09.968,-17.06
09.984,-21.81
10.000,-27.18
10.015,-32.96
10.031,-38.87
10.046,-44.72
10.062,-50.38
10.078,-55.82
10.093,-61.12
10.109,-66.34
10.125,-71.56
10.140,-76.85
10.156,-82.22
10.171,-87.49
10.187,-92.24
10.203,-95.64
10.218,-96.64
10.234,-94.22
10.250,-87.65
10.265,-76.93
10.281,-62.78
10.296,-46.55
10.312,-29.74
10.328,-13.7
10.343,0.77
10.359,13.32
10.375,23.94
10.390,32.76
10.406,39.83
10.421,45.18
10.437,48.82
10.453,50.96
10.468,51.8
10.484,51.72
10.500,51.04
10.515,50.04
10.531,48.94
10.546,47.9
10.562,47.03
10.578,46.33
10.593,45.82
10.609,45.38
10.625,44.88
10.640,44.21
10.656,43.19
10.671,41.7
10.687,39.56
10.703,36.71
10.718,33.15
10.734,28.98
10.750,24.41
10.765,19.62
10.781,14.78
10.796,9.99
10.812,5.33
10.828,0.79
10.843,-3.6
10.859,-7.89
10.875,-12.18
10.890,-16.59
10.906,-21.33
10.921,-26.38
10.937,-31.67
10.953,-36.93
10.968,-42.01
10.984,-46.81
11.000,-51.51
11.015,-56.42
11.031,-61.9
11.046,-68.23
11.062,-75.36
11.078,-82.88
11.093,-89.88
11.109,-95.16
11.125,-97.43
11.140,-95.61
11.156,-89.33
11.171,-78.93
11.187,-65.53
11.203,-50.57
11.218,-35.46
11.234,-21.23
11.250,-8.34
11.265,3.05
11.281,13.03
11.296,21.64
11.312,28.89
11.328,34.8
11.343,39.59
11.359,43.64
11.375,47.36
11.390,51.21
11.406,55.37
11.421,59.78
11.437,64.19
11.453,68.27
11.468,71.75
11.484,74.47
11.500,76.38
11.515,77.44
11.531,77.74
11.546,77.33
11.562,76.27
11.578,74.59
11.593,72.24
11.609,69.11
11.625,65.11
11.640,60.17
11.656,54.35
11.671,47.82
11.687,40.79
11.703,33.42
11.718,25.74
11.734,17.61
11.750,8.83
11.765,-0.67
11.781,-10.77
11.796,-21.01
11.812,-30.87
11.828,-39.83
11.843,-47.6
11.859,-54.15
11.875,-59.75
11.890,-64.79
11.906,-69.63
11.921,-74.62
11.937,-79.86
11.953,-85.35
11.968,-90.71
11.984,-95.12
12.000,-97.34
12.015,-96.06
12.031,-90.16
12.046,-79.21
12.062,-63.67
12.078,-44.74
12.093,-24.14
12.109,-3.53
12.125,15.83
12.140,33.18
12.156,48.14
12.171,60.65
12.187,70.71
12.203,78.36
12.218,83.75
12.234,87.11
12.250,88.77
12.265,89.19
12.281,88.67
12.296,87.43
12.312,85.57
12.328,83.12
12.343,80.13
12.359,76.81
12.375,73.43
12.390,70.26
12.406,67.54
12.421,65.28
12.437,63.35
12.453,61.48
12.468,59.36
12.484,56.76
12.500,53.58
12.515,49.78
12.531,45.42
12.546,40.55
12.562,35.26
12.578,29.67
12.593,23.9
12.609,18.05
12.625,12.22
12.640,6.37
12.656,0.37
12.671,-5.93
12.687,-12.6
12.703,-19.6
12.718,-26.71
12.734,-33.66
12.750,-40.26
12.765,-46.34
12.781,-52.0
12.796,-57.47
12.812,-62.98
12.828,-68.76
12.843,-74.85
12.859,-81.11
12.875,-87.25
12.890,-92.76
12.906,-96.86
12.921,-98.59
12.937,-97.05
12.953,-91.59
12.968,-82.22
12.984,-69.61
13.000,-54.94
13.015,-39.52
13.031,-24.56
13.046,-10.76
13.062,1.48
13.078,12.04
13.093,20.84
13.109,27.83
13.125,33.0
13.140,36.49
13.156,38.65
13.171,39.84
13.187,40.53
13.203,41.13
13.218,41.88
13.234,42.89
13.250,43.99
13.265,44.92
13.281,45.4
13.296,45.2
13.312,44.24
13.328,42.69
13.343,40.76
13.359,38.68
13.375,36.55
13.390,34.26
13.406,31.68
13.421,28.67
13.437,25.25
13.453,21.48
13.468,17.65
13.484,14.01
13.500,10.77
13.515,7.99
13.531,5.53
13.546,3.12
13.562,0.44
13.578,-2.81
13.593,-6.87
13.609,-11.72
13.625,-17.21
13.640,-23.05
13.656,-28.9
13.671,-34.52
13.687,-39.76
13.703,-44.58
13.718,-49.01
13.734,-53.21
13.750,-57.26
13.765,-61.26
13.781,-65.1
13.796,-68.47
13.812,-70.8
13.828,-71.26
13.843,-69.01
13.859,-63.42
13.875,-54.37
13.890,-42.34
13.906,-28.32
13.921,-13.54
13.937,0.93
13.953,14.29
13.968,26.16
13.984,36.35
14.000,44.72
14.015,51.07
14.031,55.31
14.046,57.45
14.062,57.84
14.078,57.06
14.093,55.71
14.109,54.26
14.125,52.88
14.140,51.45
14.156,49.75
14.171,47.66
14.187,45.18
14.203,42.55
14.218,40.06
14.234,37.89
14.250,36.04
14.265,34.28
14.281,32.32
14.296,29.87
14.312,26.8
14.328,23.16
14.343,19.12
14.359,14.98
14.375,10.91
14.390,7.0
14.406,3.15
14.421,-0.84
14.437,-5.24
14.453,-10.23
14.468,-15.84
14.484,-21.92
14.500,-28.16
14.515,-34.17
14.531,-39.67
14.546,-44.48
14.562,-48.65
14.578,-52.39
14.593,-55.93
14.609,-59.54
14.625,-63.42
14.640,-67.71
14.656,-72.43
14.671,-77.33
14.687,-81.83
14.703,-84.9
14.718,-85.34
14.734,-82.08
14.750,-74.65
14.765,-63.4
14.781,-49.46
14.796,-34.33
14.812,-19.38
14.828,-5.58
14.843,6.75
14.859,17.57
14.875,26.95
14.890,34.8
14.906,40.89
14.921,45.06
14.937,47.3
14.953,47.92
14.968,47.38
14.984,46.25
15.000,44.97
15.015,43.9
15.031,43.14
15.046,42.69
15.062,42.44
15.078,42.19
15.093,41.86
15.109,41.31
15.125,40.51
15.140,39.32
15.156,37.63
15.171,35.27
15.187,32.17
15.203,28.37
15.218,24.07
15.234,19.56
15.250,15.03
15.265,10.66
15.281,6.47
15.296,2.43
15.312,-1.44
15.328,-5.15
15.343,-8.72
15.359,-12.3
15.375,-16.17
15.390,-20.61
15.406,-25.74
15.421,-31.45
15.437,-37.36
15.453,-43.03
15.468,-48.14
15.484,-52.62
15.500,-56.71
15.515,-60.76
15.531,-65.05
15.546,-69.68
15.562,-74.48
15.578,-79.11
15.593,-82.98
15.609,-85.38
15.625,-85.41
15.640,-82.28
15.656,-75.43
15.671,-64.93
15.687,-51.46
15.703,-36.21
15.718,-20.55
15.734,-5.54
15.750,8.2
15.765,20.46
15.781,31.26
15.796,40.53
15.812,48.03
15.828,53.42
15.843,56.56
15.859,57.58
15.875,57.0
15.890,55.45
15.906,53.52
15.921,51.57
15.937,49.74
15.953,48.04
15.968,46.42
15.984,44.88
16.000,43.45
16.015,42.13
16.031,40.88
16.046,39.57
16.062,37.99
16.078,36.1
16.093,33.89
16.109,31.43
16.125,28.78
16.140,25.88
16.156,22.64
16.171,18.92
16.187,14.72
16.203,10.1
16.218,5.29
16.234,0.49
16.250,-4.23
16.265,-9.01
16.281,-14.09
16.296,-19.66
16.312,-25.75
16.328,-32.18
16.343,-38.58
16.359,-44.55
16.375,-49.85
16.390,-54.4
16.406,-58.34
16.421,-61.89
16.437,-65.26
16.453,-68.64
16.468,-72.09
16.484,-75.48
16.500,-78.39
16.515,-80.12
16.531,-79.72
16.546,-76.19
16.562,-68.84
16.578,-57.62
16.593,-43.19
16.609,-26.87
16.625,-10.15
16.640,5.71
16.656,19.99
16.671,32.51
16.687,43.37
16.703,52.56
16.718,59.93
16.734,65.18
16.750,68.17
16.765,69.11
16.781,68.48
16.796,66.97
16.812,65.12
16.828,63.21
16.843,61.2
16.859,58.97
16.875,56.45
16.890,53.72
16.906,51.02
16.921,48.52
16.937,46.34
16.953,44.39
16.968,42.44
16.984,40.2
17.000,37.4
17.015,33.89
17.031,29.65
17.046,24.83
17.062,19.6
17.078,14.21
17.093,8.88
17.109,3.77
17.125,-1.06
17.140,-5.68
17.156,-10.29
17.171,-15.09
17.187,-20.16
17.203,-25.5
17.218,-30.87
17.234,-36.03
17.250,-40.82
17.265,-45.21
17.281,-49.4
17.296,-53.69
17.312,-58.38
17.328,-63.65
17.343,-69.51
17.359,-75.61
17.375,-81.24
17.390,-85.39
17.406,-86.9
17.421,-84.8
17.437,-78.62
17.453,-68.59
17.468,-55.62
17.484,-41.03
17.500,-26.09
17.515,-11.76
17.531,1.43
17.546,13.29
17.562,23.78
17.578,32.81
17.593,40.22
17.609,45.88
17.625,49.72
17.640,51.95
17.656,52.91
17.671,52.99
17.687,52.61
17.703,52.0
17.718,51.29
17.734,50.41
17.750,49.26
17.765,47.75
17.781,45.89
17.796,43.77
17.812,41.42
17.828,38.95
17.843,36.31
17.859,33.45
17.875,30.27
17.890,26.76
17.906,22.94
17.921,18.86
17.937,14.65
17.953,10.37
17.968,6.18
17.984,2.13
18.000,-1.78
18.015,-5.65
18.031,-9.62
18.046,-13.85
18.062,-18.5
18.078,-23.55
18.093,-28.86
18.109,-34.18
18.125,-39.32
18.140,-44.14
18.156,-48.65
18.171,-52.98
18.187,-57.3
18.203,-61.79
18.218,-66.53
18.234,-71.58
18.250,-76.78
18.265,-81.74
18.281,-85.65
18.296,-87.42
18.312,-85.91
18.328,-80.27
18.343,-70.39
18.359,-56.96
18.375,-41.36
18.390,-25.23
18.406,-9.91
18.421,3.81
18.437,15.8
18.453,26.25
18.468,35.45
18.484,43.46
18.500,50.13
18.515,55.22
18.531,58.58
18.546,60.26
18.562,60.52
18.578,59.77
18.593,58.42
18.609,56.8
18.625,55.07
18.640,53.32
18.656,51.53
18.671,49.71
18.687,47.83
18.703,45.93
18.718,44.07
18.734,42.24
18.750,40.41
18.765,38.36
18.781,35.96
18.796,33.04
18.812,29.6
18.828,25.72
18.843,21.57
18.859,17.34
18.875,13.16
18.890,9.1
18.906,5.09
18.921,1.04
18.937,-3.13
18.953,-7.55
18.968,-12.27
18.984,-17.29
19.000,-22.54
19.015,-27.91
19.031,-33.21
19.046,-38.3
19.062,-43.09
19.078,-47.56
19.093,-51.78
19.109,-55.89
19.125,-60.08
19.140,-64.54
19.156,-69.43
19.171,-74.55
19.187,-79.35
19.203,-82.81
19.218,-83.69
19.234,-80.8
19.250,-73.54
19.265,-62.14
19.281,-47.56
19.296,-31.3
19.312,-14.79
19.328,0.87
19.343,15.12
19.359,27.79
19.375,38.82
19.390,48.15
19.406,55.55
19.421,60.86
19.437,64.08
19.453,65.47
19.468,65.49
19.484,64.67
19.500,63.48
19.515,62.24
19.531,61.05
19.546,59.85
19.562,58.49
19.578,56.86
19.593,54.94
19.609,52.79
19.625,50.5
19.640,48.12
19.656,45.62
19.671,42.85
19.687,39.64
19.703,35.91
19.718,31.68
19.734,27.08
19.750,22.32
19.765,17.57
19.781,12.95
19.796,8.51
19.812,4.2
19.828,-0.06
19.843,-4.39
19.859,-8.9
19.875,-13.69
19.890,-18.72
19.906,-23.93
19.921,-29.22
19.937,-34.45
19.953,-39.6
19.968,-44.7
19.984,-49.87
20.000,-55.14
20.015,-60.57
20.031,-66.08
20.046,-71.53
20.062,-76.68
20.078,-81.08
20.093,-84.01
20.109,-84.49
20.125,-81.68
20.140,-74.98
20.156,-64.45
20.171,-50.85
20.187,-35.37
20.203,-19.42
20.218,-4.04
20.234,10.06
20.250,22.6
20.265,33.39
20.281,42.23
20.296,48.89
20.312,53.2
20.328,55.17
20.343,55.14
20.359,53.7
20.375,51.48
20.390,48.98
20.406,46.44
20.421,43.93
20.437,41.42
20.453,38.96
20.468,36.64
20.484,34.56
20.500,32.77
20.515,31.19
20.531,29.64
20.546,27.81
20.562,25.54
20.578,22.76
20.593,19.52
20.609,15.97
20.625,12.19
20.640,8.28
20.656,4.26
20.671,0.11
20.687,-4.17
20.703,-8.6
20.718,-13.19
20.734,-18.06
20.750,-23.31
20.765,-29.02
20.781,-35.16
20.796,-41.56
20.812,-47.95
20.828,-54.09
20.843,-59.83
20.859,-65.23
20.875,-70.42
20.890,-75.48
20.906,-80.43
20.921,-85.12
20.937,-89.25
20.953,-92.3
20.968,-93.65
20.984,-92.59
21.000,-88.39
21.015,-80.59
21.031,-69.14
21.046,-54.59
21.062,-37.94
21.078,-20.5
21.093,-3.44
21.109,12.35
21.125,26.34
21.140,38.4
21.156,48.53
21.171,56.7
21.187,62.88
21.203,67.09
21.218,69.45
21.234,70.22
21.250,69.8
21.265,68.48
21.281,66.52
21.296,64.04
21.312,61.11
21.328,57.84
21.343,54.42
21.359,51.12
21.375,48.19
21.390,45.8
21.406,43.93
21.421,42.38
21.437,40.86
21.453,39.06
21.468,36.83
21.484,34.06
21.500,30.74
21.515,26.9
21.531,22.56
21.546,17.77
21.562,12.68
21.578,7.51
21.593,2.42
21.609,-2.45
21.625,-7.14
21.640,-11.88
21.656,-16.88
21.671,-22.33
21.687,-28.24
21.703,-34.4
21.718,-40.52
21.734,-46.45
21.750,-52.11
21.765,-57.67
21.781,-63.35
21.796,-69.29
21.812,-75.54
21.828,-81.93
21.843,-88.21
21.859,-93.86
21.875,-98.28
21.890,-100.56
21.906,-99.78
21.921,-95.08
21.937,-86.06
21.953,-73.01
21.968,-56.83
21.984,-38.92
22.000,-20.68
22.015,-3.3
22.031,12.52
22.046,26.44
22.062,38.36
22.078,48.37
22.093,56.48
22.109,62.73
22.125,67.28
22.140,70.39
22.156,72.44
22.171,73.88
22.187,75.06
22.203,76.14
22.218,77.1
22.234,77.71
22.250,77.71
22.265,76.87
22.281,75.19
22.296,72.79
22.312,70.0
22.328,67.12
22.343,64.35
22.359,61.77
22.375,59.23
22.390,56.55
22.406,53.5
22.421,50.02
22.437,46.12
22.453,41.9
22.468,37.39
22.484,32.59
22.500,27.44
22.515,21.88
22.531,15.92
22.546,9.64
22.562,3.19
22.578,-3.25
22.593,-9.51
22.609,-15.45
22.625,-20.89
22.640,-25.68
22.656,-29.78
22.671,-33.28
22.687,-36.42
22.703,-39.49
22.718,-42.84
22.734,-46.68
22.750,-51.08
22.765,-55.82
22.781,-60.36
22.796,-63.8
22.812,-65.05
22.828,-63.0
22.843,-56.88
22.859,-46.6
22.875,-32.86
22.890,-16.97
22.906,-0.52
22.921,15.19
22.937,29.31
22.953,41.44
22.968,51.47
22.984,59.33
23.000,64.91
23.015,68.13
23.031,69.16
23.046,68.49
23.062,66.79
23.078,64.8
23.093,62.95
23.109,61.34
23.125,59.69
23.140,57.65
23.156,55.0
23.171,51.74
23.187,48.18
23.203,44.69
23.218,41.57
23.234,38.82
23.250,36.13
23.265,33.05
23.281,29.16
23.296,24.35
23.312,18.81
23.328,12.91
23.343,7.12
23.359,1.76
23.375,-3.07
23.390,-7.41
23.406,-11.55
23.421,-15.72
23.437,-20.19
23.453,-25.06
23.468,-30.31
23.484,-35.85
23.500,-41.42
23.515,-46.79
23.531,-51.78
23.546,-56.33
23.562,-60.55
23.578,-64.62
23.593,-68.76
23.609,-73.11
23.625,-77.66
23.640,-82.08
23.656,-85.68
23.671,-87.41
23.687,-86.12
23.703,-80.93
23.718,-71.54
23.734,-58.58
23.750,-43.28
23.765,-27.33
23.781,-12.22
23.796,1.09
23.812,12.3
23.828,21.5
23.843,28.96
23.859,34.87
23.875,39.25
23.890,42.14
23.906,43.66
23.921,44.12
23.937,43.89
23.953,43.37
23.968,42.75
23.984,42.11
24.000,41.36
24.015,40.32
24.031,38.91
24.046,37.07
24.062,34.88
24.078,32.42
24.093,29.79
24.109,27.02
24.125,24.09
24.140,20.83
24.156,17.03
24.171,12.59
24.187,7.53
24.203,2.12
24.218,-3.24
24.234,-8.23
24.250,-12.7
24.265,-16.77
24.281,-20.83
24.296,-25.25
24.312,-30.22
24.328,-35.7
24.343,-41.43
24.359,-47.06
24.375,-52.4
24.390,-57.47
24.406,-62.41
24.421,-67.52
24.437,-72.94
24.453,-78.67
24.468,-84.6
24.484,-90.6
24.500,-96.49
24.515,-101.99
24.531,-106.52
24.546,-109.15
24.562,-108.71
24.578,-103.99
24.593,-94.26
24.609,-79.55
24.625,-60.77
24.640,-39.36
24.656,-17.02
24.671,4.84
24.687,25.23
24.703,43.56
24.718,59.47
24.734,72.66
24.750,82.75
24.765,89.45
24.781,92.72
24.796,92.82
24.812,90.44
24.828,86.54
24.843,82.04
24.859,77.64
24.875,73.67
24.890,70.02
24.906,66.49
24.921,62.9
24.937,59.21
24.953,55.54
24.968,52.03
24.984,48.67
25.000,45.34
25.015,41.79
25.031,37.78
25.046,33.23
25.062,28.22
25.078,22.94
25.093,17.67
25.109,12.61
25.125,7.86
25.140,3.38
25.156,-0.96
25.171,-5.35
25.187,-9.95
25.203,-14.82
25.218,-19.98
25.234,-25.26
25.250,-30.46
25.265,-35.42
25.281,-40.11
25.296,-44.61
25.312,-49.07
25.328,-53.59
25.343,-58.16
25.359,-62.7
25.375,-67.06
25.390,-71.14
25.406,-74.74
25.421,-77.56
25.437,-78.9
25.453,-77.88
25.468,-73.51
25.484,-65.23
25.500,-53.14
25.515,-38.18
25.531,-21.85
25.546,-5.71
25.562,9.08
25.578,22.01
25.593,33.06
25.609,42.46
25.625,50.36
25.640,56.69
25.656,61.27
25.671,64.02
25.687,65.15
25.703,65.04
25.718,64.16
25.734,62.92
25.750,61.48
25.765,59.9
25.781,58.2
25.796,56.38
25.812,54.5
25.828,52.63
25.843,50.76
25.859,48.89
25.875,46.91
25.890,44.7
25.906,42.12
25.921,39.08
25.937,35.57
25.953,31.66
25.968,27.51
25.984,23.21
26.000,18.88
26.015,14.51
26.031,10.07
26.046,5.42
26.062,0.47
26.078,-4.89
26.093,-10.66
26.109,-16.71
26.125,-22.83
26.140,-28.73
26.156,-34.15
26.171,-38.91
26.187,-43.06
26.203,-46.81
26.218,-50.54
26.234,-54.65
26.250,-59.42
26.265,-64.84
26.281,-70.44
26.296,-75.33
26.312,-78.27
26.328,-77.99
26.343,-73.57
26.359,-64.82
26.375,-52.41
26.390,-37.65
26.406,-22.17
26.421,-7.35
26.437,5.9
26.453,17.34
26.468,27.08
26.484,35.29
26.500,41.96
26.515,46.84
26.531,49.78
26.546,50.78
26.562,50.21
26.578,48.7
26.593,46.89
26.609,45.23
26.625,43.81
26.640,42.48
26.656,40.94
26.671,39.07
26.687,36.88
26.703,34.56
26.718,32.34
26.734,30.29
26.750,28.26
26.765,25.9
26.781,22.9
26.796,19.02
26.812,14.34
26.828,9.17
26.843,3.95
26.859,-0.89
26.875,-5.15
26.890,-8.85
26.906,-12.25
26.921,-15.67
26.937,-19.36
26.953,-23.38
26.968,-27.63
26.984,-31.87
27.000,-35.94
27.015,-39.81
27.031,-43.56
27.046,-47.36
27.062,-51.42
27.078,-55.81
27.093,-60.62
27.109,-65.79
27.125,-71.27
27.140,-76.78
27.156,-81.73
27.171,-85.07
27.187,-85.51
27.203,-81.95
27.218,-73.84
27.234,-61.52
27.250,-46.22
27.265,-29.68
27.281,-13.54
27.296,1.08
27.312,13.78
27.328,24.69
27.343,34.01
27.359,41.87
27.375,48.11
27.390,52.56
27.406,55.13
27.421,55.99
27.437,55.6
27.453,54.49
27.468,53.12
27.484,51.78
27.500,50.58
27.515,49.45
27.531,48.33
27.546,47.21
27.562,45.99
27.578,44.64
27.593,43.11
27.609,41.39
27.625,39.45
27.640,37.32
27.656,34.96
27.671,32.31
27.687,29.4
27.703,26.19
27.718,22.75
27.734,19.19
27.750,15.58
27.765,12.0
27.781,8.43
27.796,4.74
27.812,0.83
27.828,-3.37
27.843,-7.95
27.859,-12.86
27.875,-17.99
27.890,-23.18
27.906,-28.29
27.921,-33.2
27.937,-37.95
27.953,-42.57
27.968,-47.15
27.984,-51.83
28.000,-56.62
28.015,-61.54
28.031,-66.46
28.046,-71.05
28.062,-74.66
28.078,-76.43
28.093,-75.35
28.109,-70.63
28.125,-62.09
28.140,-50.14
28.156,-35.83
28.171,-20.54
28.187,-5.53
28.203,8.38
28.218,20.71
28.234,31.27
28.250,40.02
28.265,46.79
28.281,51.48
28.296,54.04
28.312,54.71
28.328,53.93
28.343,52.31
28.359,50.4
28.375,48.56
28.390,46.99
28.406,45.63
28.421,44.44
28.437,43.28
28.453,42.04
28.468,40.64
28.484,39.0
28.500,37.01
28.515,34.59
28.531,31.74
28.546,28.48
28.562,24.97
28.578,21.33
28.593,17.73
28.609,14.26
28.625,10.94
28.640,7.74
28.656,4.7
28.671,1.82
28.687,-1.01
28.703,-3.8
28.718,-6.71
28.734,-9.91
28.750,-13.59
28.765,-17.94
28.781,-23.0
28.796,-28.65
28.812,-34.55
28.828,-40.38
28.843,-45.72
28.859,-50.39
28.875,-54.42
28.890,-58.07
28.906,-61.75
28.921,-65.83
28.937,-70.52
28.953,-75.7
28.968,-80.93
28.984,-85.34
29.000,-87.82
29.015,-87.18
29.031,-82.55
29.046,-73.72
29.062,-61.36
29.078,-46.8
29.093,-31.52
29.109,-16.79
29.125,-3.25
29.140,8.91
29.156,19.72
29.171,29.19
29.187,37.14
29.203,43.26
29.218,47.42
29.234,49.76
29.250,50.7
29.265,50.82
29.281,50.56
29.296,50.16
29.312,49.65
29.328,48.92
29.343,47.92
29.359,46.6
29.375,45.07
29.390,43.46
29.406,41.94
29.421,40.51
29.437,39.1
29.453,37.5
29.468,35.46
29.484,32.85
29.500,29.64
29.515,25.94
29.531,21.97
29.546,18.05
29.562,14.29
29.578,10.77
29.593,7.39
29.609,3.94
29.625,0.16
29.640,-4.17
29.656,-9.26
29.671,-15.11
29.687,-21.5
29.703,-28.07
29.718,-34.34
29.734,-39.97
29.750,-44.87
29.765,-49.24
29.781,-53.49
29.796,-58.02
29.812,-62.98
29.828,-68.3
29.843,-73.42
29.859,-77.51
29.875,-79.55
29.890,-78.57
29.906,-73.85
29.921,-65.25
29.937,-53.22
29.953,-38.71
29.968,-23.08
29.984,-7.61
30.000,6.76
30.015,19.4
30.031,30.07
30.046,38.73
30.062,45.43
30.078,50.24
30.093,53.36
30.109,55.02
30.125,55.5
30.140,55.19
30.156,54.44
30.171,53.51
30.187,52.58
30.203,51.65
30.218,50.63
30.234,49.43
30.250,47.9
30.265,46.12
30.281,44.15
30.296,42.12
30.312,40.13
30.328,38.06
30.343,35.71
30.359,32.81
30.375,29.21
30.390,24.9
30.406,20.14
30.421,15.29
30.437,10.64
30.453,6.48
30.468,2.82
30.484,-0.48
30.500,-3.6
30.515,-6.85
30.531,-10.44
30.546,-14.55
30.562,-19.19
30.578,-24.28
30.593,-29.56
30.609,-34.7
30.625,-39.52
30.640,-43.99
30.656,-48.28
30.671,-52.68
30.687,-57.41
30.703,-62.5
30.718,-67.81
30.734,-72.93
30.750,-77.29
30.765,-80.13
30.781,-80.59
30.796,-77.8
30.812,-71.25
30.828,-60.94
30.843,-47.57
30.859,-32.41
30.875,-16.86
30.890,-2.06
30.906,11.37
30.921,23.26
30.937,33.68
30.953,42.58
30.968,49.73
30.984,54.85
31.000,57.86
31.015,59.07
31.031,59.03
31.046,58.42
31.062,57.64
31.078,56.85
31.093,55.95
31.109,54.77
31.125,53.25
31.140,51.51
31.156,49.64
31.171,47.75
31.187,45.85
31.203,43.77
31.218,41.43
31.234,38.75
31.250,35.7
31.265,32.3
31.281,28.56
31.296,24.55
31.312,20.31
31.328,15.96
31.343,11.53
31.359,7.11
31.375,2.77
31.390,-1.47
31.406,-5.56
31.421,-9.48
31.437,-13.19
31.453,-16.79
31.468,-20.33
31.484,-23.99
31.500,-27.89
31.515,-32.02
31.531,-36.37
31.546,-40.83
31.562,-45.31
31.578,-49.81
31.593,-54.35
31.609,-58.9
31.625,-63.48
31.640,-67.97
31.656,-72.2
31.671,-75.85
31.687,-78.25
31.703,-78.52
31.718,-75.76
31.734,-69.29
31.750,-59.03
31.765,-45.72
31.781,-30.63
31.796,-15.26
31.812,-0.92
31.828,11.75
31.843,22.6
31.859,31.73
31.875,39.34
31.890,45.44
31.906,49.89
31.921,52.6
31.937,53.74
31.953,53.61
31.968,52.72
31.984,51.54
32.000,50.35
32.015,49.29
32.031,48.36
32.046,47.43
32.062,46.41
32.078,45.31
32.093,44.14
32.109,43.0
32.125,41.92
32.140,40.79
32.156,39.47
32.171,37.73
32.187,35.36
32.203,32.3
32.218,28.6
32.234,24.37
32.250,19.9
32.265,15.38
32.281,10.95
32.296,6.78
32.312,2.85
32.328,-1.0
32.343,-4.99
32.359,-9.37
32.375,-14.4
32.390,-20.02
32.406,-26.01
32.421,-32.01
32.437,-37.63
32.453,-42.66
32.468,-47.18
32.484,-51.36
32.500,-55.48
32.515,-59.8
32.531,-64.37
32.546,-69.03
32.562,-73.41
32.578,-76.79
32.593,-78.2
32.609,-76.61
32.625,-71.16
32.640,-61.55
32.656,-48.37
32.671,-32.88
32.687,-16.8
32.703,-1.67
32.718,11.52
32.734,22.43
32.750,31.24
32.765,38.3
32.781,43.81
32.796,47.75
32.812,50.14
32.828,51.05
32.843,50.79
32.859,49.84
32.875,48.55
32.890,47.16
32.906,45.68
32.921,44.0
32.937,42.08
32.953,40.05
32.968,38.12
32.984,36.43
33.000,35.03
33.015,33.7
33.031,32.11
33.046,29.94
33.062,26.99
33.078,23.26
33.093,18.96
33.109,14.35
33.125,9.66
33.140,5.18
33.156,1.04
33.171,-2.67
33.187,-5.92
33.203,-8.87
33.218,-11.73
33.234,-14.75
33.250,-18.14
33.265,-21.89
33.281,-25.85
33.296,-29.83
33.312,-33.68
33.328,-37.38
33.343,-41.07
33.359,-44.96
33.375,-49.11
33.390,-53.58
33.406,-58.21
33.421,-62.83
33.437,-67.24
33.453,-70.97
33.468,-73.25
33.484,-73.06
33.500,-69.41
33.515,-61.72
33.531,-50.18
33.546,-35.77
33.562,-19.99
33.578,-4.41
33.593,9.82
33.609,22.17
33.625,32.54
33.640,41.01
33.656,47.69
33.671,52.45
33.687,55.3
33.703,56.37
33.718,56.07
33.734,54.93
33.750,53.46
33.765,51.88
33.781,50.22
33.796,48.39
33.812,46.25
33.828,43.79
33.843,41.15
33.859,38.53
33.875,36.07
33.890,33.83
33.906,31.7
33.921,29.54
33.937,27.22
33.953,24.63
33.968,21.72
33.984,18.51
34.000,15.05
34.015,11.47
34.031,7.85
34.046,4.3
34.062,0.78
34.078,-2.75
34.093,-6.45
34.109,-10.39
34.125,-14.65
34.140,-19.21
34.156,-23.93
34.171,-28.65
34.187,-33.17
34.203,-37.45
34.218,-41.45
34.234,-45.3
34.250,-49.12
34.265,-53.02
34.281,-57.13
34.296,-61.49
34.312,-66.12
34.328,-70.81
34.343,-75.15
34.359,-78.33
34.375,-79.34
34.390,-77.17
34.406,-71.09
34.421,-61.1
34.437,-47.87
34.453,-32.65
34.468,-16.84
34.484,-1.65
34.500,12.2
34.515,24.32
34.531,34.61
34.546,43.0
34.562,49.37
34.578,53.66
34.593,55.91
34.609,56.4
34.625,55.62
34.640,54.08
34.656,52.24
34.671,50.34
34.687,48.42
34.703,46.4
34.718,44.26
34.734,42.06
34.750,39.94
34.765,38.05
34.781,36.45
34.796,35.02
34.812,33.63
34.828,32.08
34.843,30.24
34.859,28.07
34.875,25.55
34.890,22.69
34.906,19.53
34.921,16.12
34.937,12.57
34.953,8.97
34.968,5.4
34.984,1.8
35.000,-1.95
35.015,-6.0
35.031,-10.46
35.046,-15.28
35.062,-20.31
35.078,-25.31
35.093,-30.06
35.109,-34.46
35.125,-38.54
35.140,-42.46
35.156,-46.5
35.171,-50.85
35.187,-55.59
35.203,-60.66
35.218,-65.8
35.234,-70.58
35.250,-74.36
35.265,-76.31
35.281,-75.44
35.296,-70.98
35.312,-62.5
35.328,-50.27
35.343,-35.31
35.359,-19.11
35.375,-3.22
35.390,11.14
35.406,23.4
35.421,33.49
35.437,41.57
35.453,47.9
35.468,52.48
35.484,55.34
35.500,56.61
35.515,56.57
35.531,55.65
35.546,54.32
35.562,52.94
35.578,51.61
35.593,50.26
35.609,48.68
35.625,46.74
35.640,44.47
35.656,42.04
35.671,39.64
35.687,37.41
35.703,35.33
35.718,33.18
35.734,30.7
35.750,27.56
35.765,23.64
35.781,19.09
35.796,14.16
35.812,9.33
35.828,4.97
35.843,1.3
35.859,-1.84
35.875,-4.79
35.890,-8.06
35.906,-12.08
35.921,-16.93
35.937,-22.45
35.953,-28.16
35.968,-33.53
35.984,-38.25
36.000,-42.22
36.015,-45.61
36.031,-48.79
36.046,-52.09
36.062,-55.79
36.078,-60.05
36.093,-64.86
36.109,-69.9
36.125,-74.55
36.140,-77.77
36.156,-78.32
36.171,-75.11
36.187,-67.57
36.203,-55.92
36.218,-41.25
36.234,-25.11
36.250,-9.07
36.265,5.65
36.281,18.49
36.296,29.34
36.312,38.32
36.328,45.43
36.343,50.66
36.359,53.89
36.375,55.23
36.390,55.07
36.406,53.92
36.421,52.35
36.437,50.72
36.453,49.13
36.468,47.48
36.484,45.67
36.500,43.75
36.515,41.92
36.531,40.39
36.546,39.29
36.562,38.51
36.578,37.74
36.593,36.61
36.609,34.84
36.625,32.35
36.640,29.22
36.656,25.69
36.671,21.87
36.687,17.92
36.703,13.85
36.718,9.66
36.734,5.45
36.750,1.29
36.765,-2.73
36.781,-6.64
36.796,-10.55
36.812,-14.7
36.828,-19.31
36.843,-24.44
36.859,-30.0
36.875,-35.72
36.890,-41.22
36.906,-46.32
36.921,-50.94
36.937,-55.33
36.953,-59.81
36.968,-64.66
36.984,-69.98
37.000,-75.58
37.015,-81.04
37.031,-85.54
37.046,-88.15
37.062,-87.75
37.078,-83.53
37.093,-75.17
37.109,-63.05
37.125,-48.21
37.140,-32.17
37.156,-16.41
37.171,-2.06
37.187,10.31
37.203,20.61
37.218,28.95
37.234,35.45
37.250,40.12
37.265,42.94
37.281,43.94
37.296,43.4
37.312,41.74
37.328,39.45
37.343,36.93
37.359,34.42
37.375,31.96
37.390,29.51
37.406,27.04
37.421,24.61
37.437,22.31
37.453,20.25
37.468,18.44
37.484,16.8
37.500,15.21
37.515,13.47
37.531,11.55
37.546,9.49
37.562,7.45
37.578,5.67
37.593,4.33
37.609,3.47
37.625,3.0
37.640,2.74
37.656,2.39
37.671,1.76
37.687,0.63
37.703,-1.24
37.718,-4.05
37.734,-8.11
37.750,-13.57
37.765,-20.4
37.781,-28.3
37.796,-36.78
37.812,-45.33
37.828,-53.48
37.843,-61.0
37.859,-67.8
37.875,-73.99
37.890,-79.81
37.906,-85.5
37.921,-91.21
37.937,-96.74
37.953,-101.48
37.968,-104.31
37.984,-103.91
38.000,-99.07
38.015,-89.2
38.031,-74.62
38.046,-56.55
38.062,-36.78
38.078,-17.08
38.093,1.14
38.109,17.14
38.125,30.69
38.140,41.91
38.156,50.98
38.171,58.06
38.187,63.25
38.203,66.72
38.218,68.76
38.234,69.79
38.250,70.25
38.265,70.46
38.281,70.53
38.296,70.44
38.312,70.06
38.328,69.39
38.343,68.53
38.359,67.71
38.375,67.15
38.390,66.91
38.406,66.89
38.421,66.68
38.437,65.87
38.453,64.17
38.468,61.6
38.484,58.35
38.500,54.65
38.515,50.7
38.531,46.53
38.546,42.14
38.562,37.47
38.578,32.49
38.593,27.22
38.609,21.65
38.625,15.79
38.640,9.62
38.656,3.22
38.671,-3.28
38.687,-9.58
38.703,-15.46
38.718,-20.85
38.734,-25.83
38.750,-30.67
38.765,-35.6
38.781,-40.86
38.796,-46.47
38.812,-52.35
38.828,-58.11
38.843,-63.09
38.859,-66.35
38.875,-66.73
38.890,-63.3
38.906,-55.56
38.921,-43.83
38.937,-29.14
38.953,-13.11
38.968,2.68
38.984,17.08
39.000,29.58
39.015,40.23
39.031,49.28
39.046,56.93
39.062,63.14
39.078,67.78
39.093,70.74
39.109,72.19
39.125,72.5
39.140,72.1
39.156,71.35
39.171,70.34
39.187,68.98
39.203,67.09
39.218,64.63
39.234,61.71
39.250,58.59
39.265,55.53
39.281,52.72
39.296,50.12
39.312,47.59
39.328,44.98
39.343,42.13
39.359,39.01
39.375,35.65
39.390,32.07
39.406,28.28
39.421,24.31
39.437,20.21
39.453,16.0
39.468,11.75
39.484,7.42
39.500,2.93
39.515,-1.83
39.531,-6.91
39.546,-12.38
39.562,-18.21
39.578,-24.3
39.593,-30.55
39.609,-36.78
39.625,-42.82
39.640,-48.49
39.656,-53.67
39.671,-58.3
39.687,-62.49
39.703,-66.43
39.718,-70.41
39.734,-74.57
39.750,-78.79
39.765,-82.54
39.781,-84.73
39.796,-84.18
39.812,-79.89
39.828,-71.47
39.843,-59.35
39.859,-44.61
39.875,-28.6
39.890,-12.57
39.906,2.57
39.921,16.35
39.937,28.49
39.953,38.75
39.968,46.89
39.984,52.76
40.000,56.42
40.015,58.2
40.031,58.63
40.046,58.29
40.062,57.65
40.078,56.91
40.093,56.08
40.109,55.07
40.125,53.72
40.140,51.96
40.156,49.81
40.171,47.41
40.187,44.9
40.203,42.33
40.218,39.67
40.234,36.79
40.250,33.5
40.265,29.68
40.281,25.34
40.296,20.63
40.312,15.82
40.328,11.19
40.343,6.91
40.359,2.98
40.375,-0.72
40.390,-4.42
40.406,-8.36
40.421,-12.67
40.437,-17.41
40.453,-22.52
40.468,-27.91
40.484,-33.51
40.500,-39.18
40.515,-44.81
40.531,-50.23
40.546,-55.37
40.562,-60.16
40.578,-64.61
40.593,-68.86
40.609,-73.0
40.625,-77.24
40.640,-81.63
40.656,-86.02
40.671,-89.95
40.687,-92.62
40.703,-92.88
40.718,-89.61
40.734,-82.11
40.750,-70.42
40.765,-55.47
40.781,-38.81
40.796,-22.13
40.812,-6.75
40.828,6.64
40.843,17.96
40.859,27.43
40.875,35.23
40.890,41.28
40.906,45.44
40.921,47.65
40.937,48.11
40.953,47.3
40.968,45.88
40.984,44.36
41.000,43.02
41.015,41.83
41.031,40.66
41.046,39.27
41.062,37.62
41.078,35.77
41.093,33.77
41.109,31.73
41.125,29.6
41.140,27.28
41.156,24.66
41.171,21.77
41.187,18.65
41.203,15.49
41.218,12.52
41.234,9.89
41.250,7.69
41.265,5.79
41.281,4.01
41.296,1.98
41.312,-0.6
41.328,-4.0
41.343,-8.31
41.359,-13.39
41.375,-18.93
41.390,-24.58
41.406,-30.09
41.421,-35.3
41.437,-40.23
41.453,-44.98
41.468,-49.65
41.484,-54.35
41.500,-59.17
41.515,-64.2
41.531,-69.42
41.546,-74.64
41.562,-79.27
41.578,-82.35
41.593,-82.65
41.609,-79.16
41.625,-71.36
41.640,-59.55
41.656,-44.82
41.671,-28.65
41.687,-12.53
41.703,2.42
41.718,15.59
41.734,26.83
41.750,36.19
41.765,43.71
41.781,49.37
41.796,53.13
41.812,55.05
41.828,55.37
41.843,54.48
41.859,52.86
41.875,50.94
41.890,48.99
41.906,47.08
41.921,45.22
41.937,43.31
41.953,41.32
41.968,39.3
41.984,37.29
42.000,35.33
42.015,33.39
42.031,31.41
42.046,29.22
42.062,26.7
42.078,23.69
42.093,20.1
42.109,15.88
42.125,11.07
42.140,5.92
42.156,0.78
42.171,-3.88
42.187,-7.79
42.203,-10.85
42.218,-13.22
42.234,-15.33
42.250,-17.63
42.265,-20.47
42.281,-23.97
42.296,-28.0
42.312,-32.28
42.328,-36.55
42.343,-40.56
42.359,-44.24
42.375,-47.59
42.390,-50.7
42.406,-53.71
42.421,-56.77
42.437,-59.97
42.453,-63.23
42.468,-66.16
42.484,-67.89
42.500,-67.32
42.515,-63.31
42.531,-55.09
42.546,-42.71
42.562,-27.08
42.578,-9.6
42.593,8.21
42.609,25.09
42.625,40.37
42.640,53.75
42.656,65.15
42.671,74.49
42.687,81.6
42.703,86.24
42.718,88.35
42.734,88.04
42.750,85.64
42.765,81.67
42.781,76.63
42.796,71.02
42.812,65.27
42.828,59.7
42.843,54.53
42.859,49.94
42.875,45.97
42.890,42.64
42.906,39.87
42.921,37.5
42.937,35.33
42.953,33.17
42.968,30.87
42.984,28.33
43.000,25.58
43.015,22.64
43.031,19.62
43.046,16.58
43.062,13.51
43.078,10.29
43.093,6.81
43.109,2.88
43.125,-1.58
43.140,-6.62
43.156,-12.21
43.171,-18.35
43.187,-24.91
43.203,-31.79
43.218,-38.76
43.234,-45.53
43.250,-51.91
43.265,-57.77
43.281,-63.1
43.296,-68.08
43.312,-72.94
43.328,-77.93
43.343,-83.28
43.359,-89.04
43.375,-94.96
43.390,-100.51
43.406,-104.76
43.421,-106.58
43.437,-104.93
43.453,-99.14
43.468,-89.19
43.484,-75.78
43.500,-60.09
43.515,-43.54
43.531,-27.43
43.546,-12.66
43.562,0.21
43.578,10.94
43.593,19.57
43.609,26.17
43.625,30.91
43.640,34.11
43.656,36.2
43.671,37.74
43.687,39.26
43.703,41.1
43.718,43.28
43.734,45.62
43.750,47.7
43.765,49.18
43.781,49.94
43.796,50.13
43.812,50.09
43.828,50.12
43.843,50.4
43.859,50.79
43.875,51.03
43.890,50.7
43.906,49.45
43.921,47.16
43.937,43.91
43.953,39.98
43.968,35.72
43.984,31.38
44.000,27.02
44.015,22.44
44.031,17.34
44.046,11.46
44.062,4.8
44.078,-2.44
44.093,-9.77
44.109,-16.8
44.125,-23.29
44.140,-29.23
44.156,-34.83
44.171,-40.41
44.187,-46.17
44.203,-52.21
44.218,-58.43
44.234,-64.57
44.250,-70.14
44.265,-74.42
44.281,-76.48
44.296,-75.34
44.312,-70.33
44.328,-61.34
44.343,-48.92
44.359,-34.3
44.375,-18.85
44.390,-3.78
44.406,10.13
44.421,22.57
44.437,33.47
44.453,42.8
44.468,50.38
44.484,56.08
44.500,59.83
44.515,61.85
44.531,62.55
44.546,62.39
44.562,61.72
44.578,60.72
44.593,59.46
44.609,58.03
44.625,56.51
44.640,54.98
44.656,53.5
44.671,52.0
44.687,50.39
44.703,48.54
44.718,46.44
44.734,44.05
44.750,41.4
44.765,38.4
44.781,34.87
44.796,30.63
44.812,25.66
44.828,20.09
44.843,14.22
44.859,8.44
44.875,2.95
44.890,-2.2
44.906,-7.19
44.921,-12.26
44.937,-17.59
44.953,-23.17
44.968,-28.9
44.984,-34.47
45.000,-39.63
45.015,-44.33
45.031,-48.63
45.046,-52.79
45.062,-57.09
45.078,-61.75
45.093,-66.86
45.109,-72.38
45.125,-77.97
45.140,-83.06
45.156,-86.82
45.171,-88.23
45.187,-86.26
45.203,-80.27
45.218,-70.27
45.234,-56.96
45.250,-41.75
45.265,-26.13
45.281,-11.45
45.296,1.54
45.312,12.6
45.328,21.95
45.343,29.81
45.359,36.25
45.375,41.16
45.390,44.3
45.406,45.72
45.421,45.61
45.437,44.46
45.453,42.85
45.468,41.22
45.484,39.82
45.500,38.63
45.515,37.53
45.531,36.29
45.546,34.91
45.562,33.41
45.578,31.86
45.593,30.29
45.609,28.57
45.625,26.45
45.640,23.69
45.656,20.15
45.671,15.85
45.687,11.05
45.703,6.09
45.718,1.24
45.734,-3.33
45.750,-7.61
45.765,-11.68
45.781,-15.65
45.796,-19.6
45.812,-23.56
45.828,-27.47
45.843,-31.28
45.859,-34.91
45.875,-38.31
45.890,-41.56
45.906,-44.67
45.921,-47.74
45.937,-50.91
45.953,-54.3
45.968,-58.07
45.984,-62.36
46.000,-67.24
46.015,-72.6
46.031,-78.21
46.046,-83.4
46.062,-87.24
46.078,-88.62
46.093,-86.51
46.109,-80.27
46.125,-69.96
46.140,-56.34
46.156,-40.7
46.171,-24.52
46.187,-8.98
46.203,5.19
46.218,17.76
46.234,28.81
46.250,38.4
46.265,46.46
46.281,52.69
46.296,56.89
46.312,59.02
46.328,59.47
46.343,58.82
46.359,57.73
46.375,56.75
46.390,56.04
46.406,55.53
46.421,54.99
46.437,54.19
46.453,52.96
46.468,51.34
46.484,49.38
46.500,47.17
46.515,44.82
46.531,42.35
46.546,39.72
46.562,36.87
46.578,33.72
46.593,30.2
46.609,26.4
46.625,22.49
46.640,18.6
46.656,14.84
46.671,11.11
46.687,7.13
46.703,2.7
46.718,-2.34
46.734,-7.89
46.750,-13.66
46.765,-19.3
46.781,-24.62
46.796,-29.52
46.812,-34.16
46.828,-38.76
46.843,-43.48
46.859,-48.41
46.875,-53.55
46.890,-58.86
46.906,-64.2
46.921,-69.33
46.937,-73.61
46.953,-76.1
46.968,-75.69
46.984,-71.43
47.000,-62.86
47.015,-50.34
47.031,-34.9
47.046,-18.06
47.062,-1.32
47.078,14.14
47.093,27.66
47.109,38.99
47.125,48.22
47.140,55.55
47.156,61.12
47.171,65.08
47.187,67.56
47.203,68.76
47.218,68.97
47.234,68.5
47.250,67.63
47.265,66.54
47.281,65.25
47.296,63.59
47.312,61.44
47.328,58.7
47.343,55.48
47.359,51.99
47.375,48.45
47.390,45.01
47.406,41.62
47.421,38.09
47.437,34.12
47.453,29.6
47.468,24.55
47.484,19.19
47.500,13.83
47.515,8.64
47.531,3.64
47.546,-1.32
47.562,-6.5
47.578,-12.11
47.593,-18.17
47.609,-24.52
47.625,-30.91
47.640,-37.04
47.656,-42.7
47.671,-47.85
47.687,-52.55
47.703,-56.99
47.718,-61.35
47.734,-65.79
47.750,-70.4
47.765,-75.16
47.781,-79.83
47.796,-83.98
47.812,-86.84
47.828,-87.42
47.843,-84.66
47.859,-77.81
47.875,-66.68
47.890,-51.93
47.906,-34.87
47.921,-17.09
47.937,-0.07
47.953,15.26
47.968,28.58
47.984,39.92
48.000,49.41
48.015,57.0
48.031,62.5
48.046,65.7
48.062,66.69
48.078,65.95
48.093,64.21
48.109,62.23
48.125,60.43
48.140,58.87
48.156,57.26
48.171,55.31
48.187,52.8
48.203,49.86
48.218,46.73
48.234,43.7
48.250,40.87
48.265,38.11
48.281,35.13
48.296,31.69
48.312,27.66
48.328,23.09
48.343,18.23
48.359,13.28
48.375,8.47
48.390,3.92
48.406,-0.38
48.421,-4.54
48.437,-8.72
48.453,-13.12
48.468,-17.97
48.484,-23.33
48.500,-29.2
48.515,-35.34
48.531,-41.47
48.546,-47.28
48.562,-52.54
48.578,-57.21
48.593,-61.42
48.609,-65.42
48.625,-69.39
48.640,-73.51
48.656,-77.72
48.671,-81.87
48.687,-85.57
48.703,-88.19
48.718,-88.87
48.734,-86.69
48.750,-80.95
48.765,-71.35
48.781,-58.32
48.796,-42.85
48.812,-26.26
48.828,-9.87
48.843,5.47
48.859,19.32
48.875,31.55
48.890,42.15
48.906,51.03
48.921,57.95
48.937,62.69
48.953,65.21
48.968,65.78
48.984,65.0
49.000,63.49
49.015,61.83
49.031,60.27
49.046,58.78
49.062,57.09
49.078,54.9
49.093,52.05
49.109,48.56
49.125,44.64
49.140,40.54
49.156,36.45
49.171,32.51
49.187,28.7
49.203,24.99
49.218,21.34
49.234,17.76
49.250,14.31
49.265,11.05
49.281,8.03
49.296,5.17
49.312,2.3
49.328,-0.79
49.343,-4.28
49.359,-8.2
49.375,-12.48
49.390,-17.04
49.406,-21.73
49.421,-26.51
49.437,-31.41
49.453,-36.41
49.468,-41.49
49.484,-46.52
49.500,-51.4
49.515,-56.06
49.531,-60.56
49.546,-64.94
49.562,-69.02
49.578,-72.24
49.593,-73.61
49.609,-71.97
49.625,-66.36
49.640,-56.52
49.656,-42.99
49.671,-27.04
49.687,-10.19
49.703,6.12
49.718,20.86
49.734,33.34
49.750,43.24
49.765,50.24
49.781,54.16
49.796,55.08
49.812,53.46
49.828,50.14
49.843,46.17
49.859,42.39
49.875,39.24
49.890,36.73
49.906,34.51
49.921,32.28
49.937,29.94
49.953,27.66
49.968,25.71
49.984,24.38
50.000,23.68
50.015,23.45
50.031,23.38
50.046,23.14
50.062,22.48
50.078,21.29
50.093,19.61
50.109,17.52
50.125,15.21
50.140,12.81
50.156,10.31
50.171,7.54
50.187,4.22
50.203,0.05
50.218,-5.13
50.234,-11.19
50.250,-17.8
50.265,-24.44
50.281,-30.66
50.296,-36.13
50.312,-40.87
50.328,-45.09
50.343,-49.08
50.359,-53.14
50.375,-57.41
50.390,-61.86
50.406,-66.2
50.421,-69.96
50.437,-72.38
50.453,-72.55
50.468,-69.55
50.484,-62.79
50.500,-52.27
50.515,-38.71
50.531,-23.46
50.546,-8.03
50.562,6.24
50.578,18.61
50.593,28.93
50.609,37.44
50.625,44.38
50.640,49.81
50.656,53.56
50.671,55.41
50.687,55.35
50.703,53.71
50.718,51.06
50.734,48.09
50.750,45.32
50.765,43.05
50.781,41.29
50.796,39.94
50.812,38.78
50.828,37.62
50.843,36.34
50.859,34.83
50.875,33.0
50.890,30.71
50.906,27.94
50.921,24.61
50.937,20.86
50.953,16.78
50.968,12.53
50.984,8.29
51.000,4.15
51.015,0.14
51.031,-3.79
51.046,-7.72
51.062,-11.8
51.078,-16.08
51.093,-20.61
51.109,-25.35
51.125,-30.16
51.140,-34.93
51.156,-39.57
51.171,-44.06
51.187,-48.43
51.203,-52.71
51.218,-56.96
51.234,-61.21
51.250,-65.51
51.265,-69.8
51.281,-73.93
51.296,-77.44
51.312,-79.56
51.328,-79.34
51.343,-75.83
51.359,-68.55
51.375,-57.59
51.390,-43.85
51.406,-28.58
51.421,-13.24
51.437,1.06
51.453,13.66
51.468,24.37
51.484,33.29
51.500,40.54
51.515,46.14
51.531,50.0
51.546,52.09
51.562,52.52
51.578,51.68
51.593,50.09
51.609,48.26
51.625,46.52
51.640,44.98
51.656,43.51
51.671,41.98
51.687,40.28
51.703,38.47
51.718,36.68
51.734,34.9
51.750,33.05
51.765,30.84
51.781,28.01
51.796,24.39
51.812,20.14
51.828,15.61
51.843,11.3
51.859,7.64
51.875,4.79
51.890,2.65
51.906,0.82
51.921,-1.12
51.937,-3.69
51.953,-7.17
51.968,-11.66
51.984,-17.11
52.000,-23.25
52.015,-29.81
52.031,-36.39
52.046,-42.73
52.062,-48.59
52.078,-53.96
52.093,-58.88
52.109,-63.46
52.125,-67.88
52.140,-72.16
52.156,-76.19
52.171,-79.53
52.187,-81.5
52.203,-81.18
52.218,-77.68
52.234,-70.45
52.250,-59.53
52.265,-45.6
52.281,-29.84
52.296,-13.55
52.312,2.17
52.328,16.62
52.343,29.47
52.359,40.57
52.375,49.75
52.390,56.78
52.406,61.43
52.421,63.68
52.437,63.81
52.453,62.44
52.468,60.29
52.484,57.99
52.500,55.92
52.515,54.09
52.531,52.31
52.546,50.31
52.562,47.96
52.578,45.27
52.593,42.49
52.609,39.86
52.625,37.51
52.640,35.42
52.656,33.37
52.671,31.14
52.687,28.62
52.703,25.89
52.718,23.05
52.734,20.3
52.750,17.63
52.765,14.94
52.781,11.9
52.796,8.18
52.812,3.53
52.828,-2.12
52.843,-8.55
52.859,-15.47
52.875,-22.44
52.890,-29.18
52.906,-35.48
52.921,-41.38
52.937,-47.08
52.953,-52.79
52.968,-58.76
52.984,-65.02
53.000,-71.44
53.015,-77.55
53.031,-82.59
53.046,-85.52
53.062,-85.33
53.078,-81.34
53.093,-73.38
53.109,-62.12
53.125,-48.77
53.140,-34.8
53.156,-21.51
53.171,-9.71
53.187,0.32
53.203,8.69
53.218,15.5
53.234,20.78
53.250,24.39
53.265,26.14
53.281,26.05
53.296,24.46
53.312,21.89
53.328,18.96
53.343,16.19
53.359,13.8
53.375,11.84
53.390,10.29
53.406,9.22
53.421,8.86
53.437,9.57
53.453,11.55
53.468,14.68
53.484,18.51
53.500,22.34
53.515,25.47
53.531,27.53
53.546,28.47
53.562,28.57
53.578,28.24
53.593,27.79
53.609,27.37
53.625,26.92
53.640,26.25
53.656,25.12
53.671,23.33
53.687,20.79
53.703,17.49
53.718,13.59
53.734,9.26
53.750,4.72
53.765,0.09
53.781,-4.61
53.796,-9.56
53.812,-14.94
53.828,-20.88
53.843,-27.4
53.859,-34.3
53.875,-41.23
53.890,-47.65
53.906,-52.84
53.921,-55.97
53.937,-56.18
53.953,-52.78
53.968,-45.52
53.984,-34.75
54.000,-21.33
54.015,-6.41
54.031,8.9
54.046,23.7
54.062,37.35
54.078,49.45
54.093,59.61
54.109,67.54
54.125,73.08
54.140,76.24
54.156,77.33
54.171,76.8
54.187,75.16
54.203,72.85
54.218,70.18
54.234,67.33
54.250,64.41
54.265,61.48
54.281,58.61
54.296,55.88
54.312,53.39
54.328,51.24
54.343,49.44
54.359,47.89
54.375,46.38
54.390,44.68
54.406,42.55
54.421,39.94
54.437,36.89
54.453,33.5
54.468,29.96
54.484,26.34
54.500,22.61
54.515,18.66
54.531,14.38
54.546,9.62
54.562,4.3
54.578,-1.7
54.593,-8.49
54.609,-16.04
54.625,-24.18
54.640,-32.56
54.656,-40.69
54.671,-48.0
54.687,-54.12
54.703,-58.89
54.718,-62.54
54.734,-65.55
54.750,-68.51
54.765,-71.91
54.781,-75.97
54.796,-80.43
54.812,-84.62
54.828,-87.48
54.843,-87.79
54.859,-84.49
54.875,-77.12
54.890,-65.86
54.906,-51.68
54.921,-35.87
54.937,-19.74
54.953,-4.32
54.968,9.87
54.984,22.62
55.000,33.96
55.015,43.68
55.031,51.55
55.046,57.23
55.062,60.58
55.078,61.72
55.093,61.06
55.109,59.15
55.125,56.55
55.140,53.78
55.156,51.07
55.171,48.64
55.187,46.49
55.203,44.59
55.218,42.83
55.234,41.07
55.250,39.16
55.265,36.97
55.281,34.44
55.296,31.46
55.312,28.1
55.328,24.37
55.343,20.31
55.359,16.09
55.375,11.81
55.390,7.61
55.406,3.52
55.421,-0.43
55.437,-4.4
55.453,-8.49
55.468,-12.79
55.484,-17.4
55.500,-22.26
55.515,-27.21
55.531,-32.07
55.546,-36.67
55.562,-40.93
55.578,-44.88
55.593,-48.64
55.609,-52.39
55.625,-56.28
55.640,-60.37
55.656,-64.71
55.671,-69.23
55.687,-73.73
55.703,-77.73
55.718,-80.42
55.734,-80.67
55.750,-77.47
55.765,-70.19
55.781,-58.9
55.796,-44.49
55.812,-28.43
55.828,-12.27
55.843,2.71
55.859,15.79
55.875,26.83
55.890,35.98
55.906,43.44
55.921,49.31
55.937,53.57
55.953,56.15
55.968,57.14
55.984,56.79
56.000,55.45
56.015,53.49
56.031,51.19
56.046,48.68
56.062,45.99
56.078,43.11
56.093,40.12
56.109,37.18
56.125,34.42
56.140,31.92
56.156,29.63
56.171,27.46
56.187,25.23
56.203,22.85
56.218,20.28
56.234,17.58
56.250,14.84
56.265,12.1
56.281,9.36
56.296,6.57
56.312,3.65
56.328,0.53
56.343,-2.81
56.359,-6.45
56.375,-10.47
56.390,-14.92
56.406,-19.79
56.421,-24.98
56.437,-30.23
56.453,-35.26
56.468,-39.85
56.484,-43.86
56.500,-47.48
56.515,-51.06
56.531,-54.98
56.546,-59.54
56.562,-64.73
56.578,-70.23
56.593,-75.36
56.609,-79.27
56.625,-81.0
56.640,-79.69
56.656,-74.75
56.671,-66.01
56.687,-53.93
56.703,-39.47
56.718,-23.95
56.734,-8.67
56.750,5.38
56.765,17.71
56.781,28.24
56.796,37.07
56.812,44.24
56.828,49.68
56.843,53.33
56.859,55.33
56.875,55.95
56.890,55.66
56.906,54.92
56.921,54.03
56.937,53.12
56.953,52.1
56.968,50.87
56.984,49.34
57.000,47.5
57.015,45.35
57.031,43.04
57.046,40.69
57.062,38.43
57.078,36.28
57.093,34.13
57.109,31.79
57.125,29.0
57.140,25.63
57.156,21.7
57.171,17.49
57.187,13.26
57.203,9.31
57.218,5.74
57.234,2.39
57.250,-0.97
57.265,-4.64
57.281,-8.83
57.296,-13.59
57.312,-18.81
57.328,-24.25
57.343,-29.63
57.359,-34.66
57.375,-39.19
57.390,-43.15
57.406,-46.64
57.421,-49.85
57.437,-52.98
57.453,-56.24
57.468,-59.77
57.484,-63.59
57.500,-67.52
57.515,-71.2
57.531,-73.88
57.546,-74.64
57.562,-72.51
57.578,-66.75
57.593,-57.29
57.609,-44.69
57.625,-30.16
57.640,-15.08
57.656,-0.71
57.671,12.24
57.687,23.49
57.703,33.07
57.718,41.16
57.734,47.66
57.750,52.46
57.765,55.43
57.781,56.69
57.796,56.55
57.812,55.61
57.828,54.39
57.843,53.28
57.859,52.45
57.875,51.73
57.890,50.95
57.906,49.94
57.921,48.65
57.937,47.13
57.953,45.53
57.968,43.93
57.984,42.36
58.000,40.83
58.015,39.19
58.031,37.39
58.046,35.3
58.062,32.84
58.078,29.94
58.093,26.55
58.109,22.66
58.125,18.27
58.140,13.52
58.156,8.53
58.171,3.47
58.187,-1.63
58.203,-6.81
58.218,-12.15
58.234,-17.72
58.250,-23.48
58.265,-29.3
58.281,-34.97
58.296,-40.39
58.312,-45.5
58.328,-50.38
58.343,-55.13
58.359,-59.88
58.375,-64.71
58.390,-69.58
58.406,-74.37
58.421,-78.65
58.437,-81.76
58.453,-82.79
58.468,-80.79
58.484,-75.11
58.500,-65.66
58.515,-53.03
58.531,-38.35
58.546,-22.96
58.562,-8.01
58.578,5.78
58.593,18.04
58.609,28.63
58.625,37.36
58.640,44.04
58.656,48.47
58.671,50.64
58.687,50.8
58.703,49.47
58.718,47.24
58.734,44.58
58.750,41.85
58.765,39.19
58.781,36.66
58.796,34.29
58.812,32.1
58.828,30.1
58.843,28.35
58.859,26.85
58.875,25.59
58.890,24.54
58.906,23.58
58.921,22.47
58.937,20.94
58.953,18.83
58.968,16.04
58.984,12.71
59.000,9.11
59.015,5.47
59.031,1.96
59.046,-1.5
59.062,-5.13
59.078,-9.17
59.093,-13.79
59.109,-18.92
59.125,-24.4
59.140,-29.94
59.156,-35.35
59.171,-40.43
59.187,-45.09
59.203,-49.3
59.218,-53.06
59.234,-56.57
59.250,-60.01
59.265,-63.56
59.281,-67.37
59.296,-71.41
59.312,-75.37
59.328,-78.78
59.343,-80.89
59.359,-80.8
59.375,-77.71
59.390,-71.12
59.406,-61.01
59.421,-48.05
59.437,-33.42
59.453,-18.43
59.468,-4.23
59.484,8.49
59.500,19.58
59.515,29.1
59.531,37.17
59.546,43.8
59.562,48.89
59.578,52.4
59.593,54.47
59.609,55.34
59.625,55.34
59.640,54.77
59.656,53.77
59.671,52.4
59.687,50.73
59.703,48.82
59.718,46.82
59.734,44.83
59.750,42.9
59.765,41.02
59.781,39.18
59.796,37.29
59.812,35.24
59.828,32.9
59.843,30.16
59.859,26.9
59.875,23.12
59.890,18.97
59.906,14.65
59.921,10.36
59.937,6.2
59.953,2.15
59.968,-1.91
59.984,-6.16
