timestamp,value
00.000,41.45
00.015,34.03
00.031,26.54
00.046,19.66
00.062,13.33
00.078,6.94
00.093,-0.22
00.109,-8.53
00.125,-17.91
00.140,-27.86
00.156,-37.84
00.171,-47.49
00.187,-56.62
00.203,-65.19
00.218,-72.9
00.234,-79.42
00.250,-85.06
00.265,-91.33
00.281,-101.01
00.296,-117.36
00.312,-142.57
00.328,-176.28
00.343,-215.22
00.359,-253.93
00.375,-286.85
00.390,-310.42
00.406,-324.17
00.421,-330.25
00.437,-331.92
00.453,-331.78
00.468,-330.98
00.484,-329.73
00.500,-328.02
00.515,-326.16
00.531,-324.14
00.546,-320.59
00.562,-311.82
00.578,-292.61
00.593,-258.13
00.609,-206.21
00.625,-138.99
00.640,-62.44
00.656,15.69
00.671,88.62
00.687,152.36
00.703,205.88
00.718,249.66
00.734,284.0
00.750,308.37
00.765,321.74
00.781,323.88
00.796,316.24
00.812,301.9
00.828,284.62
00.843,267.59
00.859,252.38
00.875,238.97
00.890,226.49
00.906,213.98
00.921,201.06
00.937,187.88
00.953,175.03
00.968,163.11
00.984,152.61
01.000,143.76
01.015,136.58
01.031,130.95
01.046,126.5
01.062,122.8
01.078,119.28
01.093,115.43
01.109,110.76
01.125,104.76
01.140,97.04
01.156,87.3
01.171,75.57
01.187,62.14
01.203,47.75
01.218,33.3
01.234,19.64
01.250,7.2
01.265,-4.01
01.281,-14.34
01.296,-24.13
01.312,-33.33
01.328,-41.52
01.343,-47.88
01.359,-51.66
01.375,-52.57
01.390,-51.08
01.406,-48.32
01.421,-45.67
01.437,-44.33
01.453,-44.76
01.468,-46.69
01.484,-49.27
01.500,-51.46
01.515,-52.39
01.531,-51.43
01.546,-48.34
01.562,-43.1
01.578,-36.06
01.593,-27.83
01.609,-19.15
01.625,-10.74
01.640,-3.09
01.656,3.74
01.671,10.17
01.687,16.79
01.703,24.11
01.718,32.04
01.734,39.67
01.750,45.38
01.765,47.34
01.781,44.17
01.796,35.63
01.812,22.91
01.828,8.3
01.843,-5.68
01.859,-17.14
01.875,-25.5
01.890,-31.59
01.906,-37.0
01.921,-43.33
01.937,-51.48
01.953,-61.36
01.968,-72.09
01.984,-82.51
02.000,-91.22
02.015,-96.75
02.031,-97.69
02.046,-92.86
02.062,-81.97
02.078,-66.13
02.093,-47.98
02.109,-30.98
02.125,-18.3
02.140,-11.46
02.156,-9.73
02.171,-10.61
02.187,-10.93
02.203,-8.28
02.218,-1.68
02.234,8.43
02.250,21.09
02.265,35.42
02.281,51.11
02.296,68.04
02.312,85.85
02.328,103.63
02.343,119.82
02.359,132.62
02.375,140.42
02.390,142.18
02.406,137.61
02.421,127.25
02.437,112.17
02.453,93.73
02.468,73.43
02.484,52.43
02.500,31.46
02.515,10.99
02.531,-8.71
02.546,-27.26
02.562,-44.06
02.578,-58.51
02.593,-70.2
02.609,-79.09
02.625,-85.58
02.640,-90.26
02.656,-93.55
02.671,-95.54
02.687,-95.97
02.703,-94.45
02.718,-90.82
02.734,-85.34
02.750,-78.63
02.765,-71.6
02.781,-64.99
02.796,-59.18
02.812,-54.13
02.828,-49.56
02.843,-45.14
02.859,-40.71
02.875,-36.47
02.890,-32.69
02.906,-29.84
02.921,-28.32
02.937,-28.5
02.953,-30.47
02.968,-33.91
02.984,-37.9
03.000,-40.94
03.015,-41.26
03.031,-37.26
03.046,-28.29
03.062,-14.66
03.078,2.35
03.093,21.1
03.109,40.25
03.125,59.02
03.140,77.06
03.156,94.25
03.171,110.21
03.187,124.18
03.203,135.25
03.218,142.65
03.234,145.97
03.250,145.4
03.265,141.55
03.281,135.26
03.296,127.33
03.312,118.53
03.328,109.43
03.343,100.47
03.359,92.18
03.375,84.82
03.390,78.38
03.406,72.09
03.421,64.48
03.437,53.53
03.453,37.59
03.468,16.17
03.484,-9.42
03.500,-36.33
03.515,-61.04
03.531,-80.62
03.546,-93.71
03.562,-100.72
03.578,-103.14
03.593,-102.6
03.609,-99.96
03.625,-95.28
03.640,-88.41
03.656,-79.49
03.671,-69.37
03.687,-59.37
03.703,-50.78
03.718,-44.29
03.734,-39.89
03.750,-37.13
03.765,-35.37
03.781,-34.32
03.796,-34.1
03.812,-35.07
03.828,-37.47
03.843,-41.27
03.859,-45.84
03.875,-50.2
03.890,-53.08
03.906,-53.27
03.921,-50.02
03.937,-43.21
03.953,-33.37
03.968,-21.3
03.984,-7.76
04.000,6.75
04.015,21.8
04.031,36.8
04.046,50.69
04.062,62.08
04.078,69.64
04.093,72.57
04.109,70.87
04.125,65.27
04.140,56.79
04.156,46.42
04.171,34.77
04.187,22.33
04.203,9.51
04.218,-3.21
04.234,-15.33
04.250,-26.57
04.265,-36.87
04.281,-46.31
04.296,-55.04
04.312,-63.05
04.328,-70.17
04.343,-76.25
04.359,-80.98
04.375,-84.0
04.390,-84.97
04.406,-83.63
04.421,-79.8
04.437,-73.52
04.453,-64.8
04.468,-53.59
04.484,-39.97
04.500,-24.16
04.515,-6.88
04.531,10.6
04.546,26.7
04.562,40.04
04.578,49.87
04.593,56.57
04.609,61.41
04.625,65.95
04.640,71.45
04.656,78.5
04.671,86.91
04.687,95.9
04.703,104.37
04.718,110.94
04.734,114.31
04.750,113.48
04.765,108.04
04.781,98.4
04.796,85.7
04.812,71.52
04.828,57.23
04.843,43.91
04.859,32.13
04.875,22.27
04.890,14.77
04.906,9.99
04.921,7.98
04.937,8.16
04.953,9.34
04.968,9.94
04.984,8.6
05.000,4.59
05.015,-1.99
05.031,-10.31
05.046,-19.17
05.062,-27.18
05.078,-33.32
05.093,-36.98
05.109,-38.19
05.125,-37.47
05.140,-35.61
05.156,-33.3
05.171,-30.77
05.187,-28.03
05.203,-25.06
05.218,-22.29
05.234,-20.52
05.250,-20.74
05.265,-23.42
05.281,-28.29
05.296,-34.31
05.312,-39.91
05.328,-43.66
05.343,-44.57
05.359,-42.29
05.375,-37.13
05.390,-29.92
05.406,-21.87
05.421,-14.23
05.437,-8.05
05.453,-3.65
05.468,-0.51
05.484,2.5
05.500,6.68
05.515,12.72
05.531,20.42
05.546,28.76
05.562,36.53
05.578,42.88
05.593,47.92
05.609,52.68
05.625,59.0
05.640,68.86
05.656,83.61
05.671,103.24
05.687,126.06
05.703,148.75
05.718,166.89
05.734,176.03
05.750,172.57
05.765,155.03
05.781,124.39
05.796,84.06
05.812,38.99
05.828,-5.42
05.843,-44.74
05.859,-76.44
05.875,-100.11
05.890,-117.28
05.906,-130.4
05.921,-141.84
05.937,-153.08
05.953,-164.27
05.968,-174.4
05.984,-181.9
06.000,-185.08
06.015,-182.39
06.031,-172.57
06.046,-154.62
06.062,-127.98
06.078,-92.92
06.093,-51.01
06.109,-5.61
06.125,38.45
06.140,75.91
06.156,102.81
06.171,117.73
06.187,122.09
06.203,119.3
06.218,112.77
06.234,104.29
06.250,93.47
06.265,78.65
06.281,58.75
06.296,34.55
06.312,8.95
06.328,-14.24
06.343,-31.93
06.359,-43.23
06.375,-49.46
06.390,-52.89
06.406,-55.09
06.421,-55.62
06.437,-52.47
06.453,-43.5
06.468,-28.27
06.484,-9.05
06.500,9.6
06.515,22.74
06.531,27.24
06.546,23.12
06.562,13.46
06.578,2.72
06.593,-5.41
06.609,-9.45
06.625,-10.29
06.640,-10.01
06.656,-10.46
06.671,-12.19
06.687,-14.6
06.703,-16.64
06.718,-17.65
06.734,-17.81
06.750,-17.94
06.765,-18.95
06.781,-21.07
06.796,-23.76
06.812,-25.71
06.828,-25.6
06.843,-22.59
06.859,-16.73
06.875,-8.82
06.890,0.01
06.906,8.74
06.921,16.97
06.937,24.7
06.953,32.28
06.968,39.98
06.984,47.82
07.000,55.56
07.015,62.71
07.031,68.61
07.046,72.58
07.062,74.11
07.078,72.88
07.093,68.94
07.109,62.71
07.125,54.74
07.140,45.5
07.156,35.28
07.171,24.01
07.187,11.51
07.203,-2.22
07.218,-16.85
07.234,-31.73
07.250,-46.09
07.265,-59.34
07.281,-71.17
07.296,-81.55
07.312,-90.69
07.328,-98.84
07.343,-106.29
07.359,-113.22
07.375,-119.54
07.390,-124.91
07.406,-128.65
07.421,-129.82
07.437,-127.42
07.453,-120.84
07.468,-110.07
07.484,-96.02
07.500,-80.29
07.515,-64.7
07.531,-50.91
07.546,-39.77
07.562,-31.22
07.578,-24.41
07.593,-18.2
07.609,-11.66
07.625,-4.53
07.640,2.65
07.656,9.05
07.671,13.81
07.687,16.73
07.703,18.54
07.718,20.78
07.734,25.43
07.750,34.09
07.765,47.18
07.781,63.59
07.796,80.91
07.812,96.19
07.828,107.04
07.843,112.44
07.859,112.55
07.875,108.41
07.890,101.17
07.906,91.7
07.921,80.58
07.937,68.17
07.953,54.75
07.968,40.4
07.984,25.11
08.000,8.74
08.015,-8.48
08.031,-25.7
08.046,-41.44
08.062,-54.01
08.078,-62.24
08.093,-65.91
08.109,-65.8
08.125,-63.3
08.140,-59.97
08.156,-57.06
08.171,-55.41
08.187,-55.2
08.203,-55.59
08.218,-54.69
08.234,-50.16
08.250,-40.26
08.265,-25.13
08.281,-7.15
08.296,9.8
08.312,21.97
08.328,27.33
08.343,26.49
08.359,22.21
08.375,17.83
08.390,15.8
08.406,16.84
08.421,20.39
08.437,25.4
08.453,31.02
08.468,36.74
08.484,42.08
08.500,46.25
08.515,48.3
08.531,47.59
08.546,44.27
08.562,39.41
08.578,34.64
08.593,31.47
08.609,30.7
08.625,32.09
08.640,34.58
08.656,36.66
08.671,36.82
08.687,33.96
08.703,27.62
08.718,17.94
08.734,5.67
08.750,-8.3
08.765,-23.28
08.781,-38.84
08.796,-54.89
08.812,-71.25
08.828,-87.47
08.843,-102.67
08.859,-115.73
08.875,-125.56
08.890,-131.52
08.906,-133.62
08.921,-132.47
08.937,-129.06
08.953,-124.45
08.968,-119.45
08.984,-114.39
09.000,-109.0
09.015,-102.57
09.031,-94.3
09.046,-83.79
09.062,-71.41
09.078,-58.24
09.093,-45.6
09.109,-34.38
09.125,-24.43
09.140,-14.53
09.156,-2.89
09.171,12.02
09.187,30.75
09.203,52.64
09.218,76.03
09.234,99.04
09.250,120.13
09.265,138.3
09.281,152.92
09.296,163.32
09.312,168.76
09.328,168.63
09.343,162.98
09.359,152.89
09.375,140.43
09.390,127.93
09.406,117.08
09.421,108.32
09.437,100.82
09.453,93.31
09.468,84.95
09.484,75.91
09.500,67.19
09.515,60.01
09.531,55.0
09.546,51.84
09.562,49.48
09.578,46.56
09.593,42.06
09.609,35.41
09.625,26.38
09.640,14.97
09.656,1.3
09.671,-14.24
09.687,-30.89
09.703,-47.52
09.718,-62.97
09.734,-76.51
09.750,-87.92
09.765,-97.7
09.781,-106.7
09.796,-115.62
09.812,-124.66
09.828,-133.36
09.843,-140.54
09.859,-144.81
09.875,-145.0
09.890,-140.67
09.906,-132.23
09.921,-120.82
09.937,-107.66
09.953,-93.6
09.968,-78.77
09.984,-62.59
10.000,-44.31
10.015,-23.51
10.031,-0.59
10.046,23.15
10.062,45.73
10.078,65.06
10.093,79.47
10.109,88.17
10.125,91.53
10.140,90.91
10.156,88.5
10.171,86.71
10.187,87.42
10.203,91.4
10.218,98.25
10.234,106.44
10.250,114.11
10.265,119.6
10.281,121.75
10.296,120.04
10.312,114.43
10.328,105.22
10.343,93.17
10.359,79.49
10.375,65.7
10.390,53.38
10.406,43.66
10.421,36.75
10.437,32.11
10.453,28.74
10.468,25.71
10.484,22.56
10.500,19.31
10.515,16.15
10.531,13.06
10.546,9.66
10.562,5.18
10.578,-1.16
10.593,-9.93
10.609,-21.26
10.625,-34.82
10.640,-49.94
10.656,-65.77
10.671,-81.26
10.687,-95.31
10.703,-106.97
10.718,-115.62
10.734,-121.22
10.750,-124.47
10.765,-126.48
10.781,-128.44
10.796,-131.17
10.812,-134.59
10.828,-137.78
10.843,-139.4
10.859,-138.02
10.875,-132.76
10.890,-123.52
10.906,-110.79
10.921,-95.53
10.937,-78.77
10.953,-61.36
10.968,-43.87
10.984,-26.65
11.000,-9.93
11.015,6.24
11.031,21.87
11.046,37.21
11.062,52.62
11.078,68.54
11.093,85.32
11.109,103.2
11.125,122.28
11.140,142.52
11.156,163.57
11.171,184.69
11.187,204.56
11.203,221.35
11.218,233.07
11.234,238.05
11.250,235.36
11.265,225.03
11.281,207.92
11.296,185.42
11.312,158.95
11.328,129.95
11.343,99.72
11.359,69.48
11.375,40.37
11.390,13.35
11.406,-10.98
11.421,-32.39
11.437,-50.98
11.453,-67.02
11.468,-80.75
11.484,-92.44
11.500,-102.25
11.515,-110.45
11.531,-117.34
11.546,-123.15
11.562,-127.91
11.578,-131.25
11.593,-132.57
11.609,-131.17
11.625,-126.67
11.640,-119.26
11.656,-109.75
11.671,-99.39
11.687,-89.5
11.703,-81.19
11.718,-75.0
11.734,-70.96
11.750,-68.55
11.765,-67.0
11.781,-65.54
11.796,-63.67
11.812,-61.33
11.828,-58.79
11.843,-56.5
11.859,-54.57
11.875,-52.49
11.890,-49.06
11.906,-42.58
11.921,-31.46
11.937,-14.86
11.953,6.82
11.968,31.83
11.984,57.44
12.000,80.84
12.015,99.88
12.031,113.62
12.046,122.42
12.062,127.59
12.078,130.72
12.093,133.0
12.109,134.85
12.125,135.86
12.140,134.99
12.156,131.09
12.171,123.21
12.187,110.98
12.203,94.68
12.218,75.19
12.234,53.77
12.250,31.84
12.265,10.59
12.281,-9.14
12.296,-26.97
12.312,-42.96
12.328,-57.26
12.343,-70.06
12.359,-81.44
12.375,-91.35
12.390,-99.58
12.406,-105.98
12.421,-110.37
12.437,-112.57
12.453,-112.51
12.468,-110.25
12.484,-106.12
12.500,-100.76
12.515,-94.96
12.531,-89.31
12.546,-84.22
12.562,-79.67
12.578,-75.44
12.593,-71.22
12.609,-66.8
12.625,-61.92
12.640,-56.25
12.656,-49.28
12.671,-40.43
12.687,-29.39
12.703,-16.42
12.718,-2.33
12.734,11.63
12.750,24.27
12.765,34.77
12.781,42.94
12.796,49.23
12.812,54.25
12.828,58.45
12.843,61.87
12.859,64.26
12.875,65.25
12.890,64.84
12.906,63.43
12.921,61.7
12.937,60.27
12.953,59.23
12.968,58.05
12.984,55.77
13.000,51.49
13.015,44.72
13.031,35.63
13.046,24.88
13.062,13.32
13.078,1.58
13.093,-10.05
13.109,-21.44
13.125,-32.48
13.140,-42.72
13.156,-51.5
13.171,-58.0
13.187,-61.44
13.203,-61.37
13.218,-57.73
13.234,-50.87
13.250,-41.28
13.265,-29.52
13.281,-16.05
13.296,-1.2
13.312,14.62
13.328,30.96
13.343,47.23
13.359,62.75
13.375,76.84
13.390,89.02
13.406,98.96
13.421,106.49
13.437,111.52
13.453,114.01
13.468,113.82
13.484,110.91
13.500,105.41
13.515,97.64
13.531,88.22
13.546,77.7
13.562,66.46
13.578,54.65
13.593,42.24
13.609,29.2
13.625,15.69
13.640,2.09
13.656,-11.14
13.671,-23.7
13.687,-35.57
13.703,-47.02
13.718,-58.39
13.734,-69.91
13.750,-81.63
13.765,-93.22
13.781,-104.06
13.796,-113.28
13.812,-119.88
13.828,-122.95
13.843,-121.9
13.859,-116.69
13.875,-107.78
13.890,-96.1
13.906,-82.68
13.921,-68.47
13.937,-54.3
13.953,-40.75
13.968,-28.26
13.984,-17.16
14.000,-7.7
14.015,0.01
14.031,5.88
14.046,10.02
14.062,12.59
14.078,13.75
14.093,13.71
14.109,12.71
14.125,10.99
14.140,8.88
14.156,6.82
14.171,5.28
14.187,4.81
14.203,5.82
14.218,8.27
14.234,11.85
14.250,15.79
14.265,19.14
14.281,21.04
14.296,20.96
14.312,18.72
14.328,14.57
14.343,9.05
14.359,2.64
14.375,-4.12
14.390,-10.82
14.406,-17.1
14.421,-22.63
14.437,-27.03
14.453,-30.01
14.468,-31.43
14.484,-31.35
14.500,-30.09
14.515,-28.08
14.531,-25.7
14.546,-23.2
14.562,-20.52
14.578,-17.4
14.593,-13.6
14.609,-9.18
14.625,-4.52
14.640,-0.38
14.656,2.6
14.671,4.08
14.687,4.07
14.703,3.06
14.718,1.53
14.734,-0.22
14.750,-2.15
14.765,-4.3
14.781,-6.58
14.796,-8.53
14.812,-9.35
14.828,-8.23
14.843,-4.65
14.859,1.37
14.875,9.35
14.890,18.62
14.906,28.62
14.921,38.88
14.937,48.89
14.953,58.11
14.968,65.67
14.984,70.75
15.000,72.78
15.015,71.81
15.031,68.5
15.046,63.94
15.062,59.18
15.078,54.84
15.093,50.98
15.109,47.11
15.125,42.72
15.140,37.48
15.156,31.48
15.171,25.18
15.187,19.12
15.203,13.76
15.218,9.32
15.234,6.02
15.250,3.99
15.265,3.5
15.281,4.76
15.296,7.56
15.312,11.22
15.328,14.65
15.343,16.65
15.359,16.36
15.375,13.68
15.390,9.23
15.406,4.12
15.421,-0.58
15.437,-4.27
15.453,-6.88
15.468,-8.78
15.484,-10.49
15.500,-12.43
15.515,-14.77
15.531,-17.54
15.546,-20.56
15.562,-23.6
15.578,-26.49
15.593,-28.98
15.609,-30.93
15.625,-32.23
15.640,-32.85
15.656,-32.71
15.671,-31.78
15.687,-29.97
15.703,-27.28
15.718,-24.0
15.734,-20.54
15.750,-17.42
15.765,-15.01
15.781,-13.38
15.796,-12.34
15.812,-11.49
15.828,-10.39
15.843,-8.74
15.859,-6.5
15.875,-3.82
15.890,-1.1
15.906,1.33
15.921,3.18
15.937,4.41
15.953,5.26
15.968,6.11
15.984,7.38
16.000,9.21
16.015,11.43
16.031,13.57
16.046,15.18
16.062,15.97
16.078,15.95
16.093,15.32
16.109,14.28
16.125,13.02
16.140,11.54
16.156,9.89
16.171,8.1
16.187,6.34
16.203,4.88
16.218,3.91
16.234,3.55
16.250,3.63
16.265,3.88
16.281,3.93
16.296,3.54
16.312,2.7
16.328,1.6
16.343,0.77
16.359,0.66
16.375,1.64
16.390,3.6
16.406,6.15
16.421,8.74
16.437,10.85
16.453,12.21
16.468,12.74
16.484,12.56
16.500,11.78
16.515,10.59
16.531,9.03
16.546,7.21
16.562,5.3
16.578,3.38
16.593,1.54
16.609,-0.3
16.625,-2.19
16.640,-4.16
16.656,-6.01
16.671,-7.45
16.687,-8.23
16.703,-8.25
16.718,-7.71
16.734,-6.83
16.750,-5.87
16.765,-4.86
16.781,-3.76
16.796,-2.46
16.812,-0.99
16.828,0.44
16.843,1.51
16.859,1.8
16.875,1.03
16.890,-1.04
16.906,-4.48
16.921,-9.17
16.937,-14.82
16.953,-21.01
16.968,-27.24
16.984,-33.05
17.000,-38.06
17.015,-41.95
17.031,-44.66
17.046,-46.12
17.062,-46.39
17.078,-45.62
17.093,-43.99
17.109,-41.7
17.125,-38.92
17.140,-35.76
17.156,-32.3
17.171,-28.64
17.187,-24.76
17.203,-20.71
17.218,-16.57
17.234,-12.46
17.250,-8.65
17.265,-5.31
17.281,-2.46
17.296,0.15
17.312,3.04
17.328,6.78
17.343,11.77
17.359,17.94
17.375,24.88
17.390,31.97
17.406,38.52
17.421,44.07
17.437,48.31
17.453,51.01
17.468,51.94
17.484,50.97
17.500,48.09
17.515,43.61
17.531,37.96
17.546,31.64
17.562,25.25
17.578,19.37
17.593,14.62
17.609,11.45
17.625,10.08
17.640,10.26
17.656,11.45
17.671,12.84
17.687,13.78
17.703,13.93
17.718,13.34
17.734,12.28
17.750,11.08
17.765,9.92
17.781,8.87
17.796,8.02
17.812,7.38
17.828,6.96
17.843,6.63
17.859,6.15
17.875,5.1
17.890,3.23
17.906,0.36
17.921,-3.46
17.937,-8.01
17.953,-13.17
17.968,-18.83
17.984,-24.94
18.000,-31.47
18.015,-38.3
18.031,-45.15
18.046,-51.68
18.062,-57.55
18.078,-62.46
18.093,-66.3
18.109,-69.12
18.125,-71.04
18.140,-72.29
18.156,-73.08
18.171,-73.61
18.187,-74.07
18.203,-74.62
18.218,-75.11
18.234,-75.21
18.250,-74.22
18.265,-71.41
18.281,-66.21
18.296,-58.46
18.312,-48.55
18.328,-37.36
18.343,-25.92
18.359,-15.18
18.375,-5.67
18.390,2.62
18.406,10.08
18.421,17.37
18.437,25.2
18.453,34.09
18.468,44.28
18.484,55.64
18.500,67.56
18.515,79.13
18.531,89.17
18.546,96.6
18.562,100.55
18.578,100.65
18.593,97.04
18.609,90.3
18.625,81.29
18.640,70.97
18.656,60.31
18.671,50.21
18.687,41.51
18.703,34.74
18.718,30.13
18.734,27.43
18.750,26.07
18.765,25.44
18.781,25.01
18.796,24.69
18.812,24.65
18.828,25.18
18.843,26.37
18.859,28.12
18.875,29.9
18.890,31.2
18.906,31.48
18.921,30.35
18.937,27.7
18.953,23.62
18.968,18.46
18.984,12.64
19.000,6.74
19.015,1.27
19.031,-3.29
19.046,-6.57
19.062,-8.33
19.078,-8.44
19.093,-7.1
19.109,-4.66
19.125,-1.77
19.140,0.88
19.156,2.69
19.171,3.22
19.187,2.43
19.203,0.41
19.218,-2.54
19.234,-6.25
19.250,-10.51
19.265,-15.2
19.281,-20.25
19.296,-25.59
19.312,-31.3
19.328,-37.4
19.343,-44.05
19.359,-51.17
19.375,-58.6
19.390,-66.09
19.406,-73.2
19.421,-79.5
19.437,-84.51
19.453,-87.88
19.468,-89.21
19.484,-88.44
19.500,-85.6
19.515,-80.99
19.531,-75.12
19.546,-68.52
19.562,-61.58
19.578,-54.41
19.593,-46.97
19.609,-39.08
19.625,-30.61
19.640,-21.62
19.656,-12.39
19.671,-3.5
19.687,4.43
19.703,10.78
19.718,15.2
19.734,17.62
19.750,18.26
19.765,17.51
19.781,15.83
19.796,13.64
19.812,11.24
19.828,8.89
19.843,6.66
19.859,4.41
19.875,1.96
19.890,-0.91
19.906,-4.16
19.921,-7.38
19.937,-9.77
19.953,-10.5
19.968,-8.91
19.984,-4.92
20.000,0.98
20.015,8.06
20.031,15.65
20.046,23.3
20.062,30.85
20.078,38.23
20.093,45.26
20.109,51.72
20.125,57.49
20.140,62.69
20.156,67.82
20.171,73.43
20.187,79.66
20.203,86.05
20.218,91.46
20.234,94.51
20.250,94.12
20.265,89.82
20.281,81.84
20.296,70.73
20.312,56.88
20.328,40.35
20.343,21.18
20.359,-0.12
20.375,-22.15
20.390,-42.6
20.406,-58.99
20.421,-69.53
20.437,-73.86
20.453,-73.17
20.468,-69.5
20.484,-64.85
20.500,-60.44
20.515,-56.36
20.531,-51.95
20.546,-46.35
20.562,-39.07
20.578,-30.08
20.593,-19.79
20.609,-8.69
20.625,2.87
20.640,14.69
20.656,26.74
20.671,39.01
20.687,51.35
20.703,63.28
20.718,74.24
20.734,83.51
20.750,90.58
20.765,95.14
20.781,97.06
20.796,96.4
20.812,93.11
20.828,87.0
20.843,77.6
20.859,64.53
20.875,47.58
20.890,27.1
20.906,3.92
20.921,-20.71
20.937,-45.34
20.953,-68.71
20.968,-89.66
20.984,-107.37
21.000,-121.17
21.015,-130.66
21.031,-135.67
21.046,-136.41
21.062,-133.48
21.078,-127.72
21.093,-120.13
21.109,-111.44
21.125,-102.05
21.140,-91.93
21.156,-80.83
21.171,-68.56
21.187,-55.16
21.203,-41.08
21.218,-26.97
21.234,-13.6
21.250,-1.49
21.265,9.13
21.281,18.26
21.296,26.06
21.312,32.5
21.328,37.44
21.343,40.72
21.359,42.4
21.375,42.86
21.390,42.74
21.406,42.69
21.421,43.02
21.437,43.63
21.453,44.0
21.468,43.57
21.484,41.93
21.500,39.13
21.515,35.52
21.531,31.54
21.546,27.59
21.562,23.75
21.578,20.02
21.593,16.33
21.609,12.85
21.625,9.93
21.640,8.05
21.656,7.53
21.671,8.47
21.687,10.67
21.703,13.85
21.718,17.86
21.734,22.64
21.750,28.1
21.765,33.93
21.781,39.49
21.796,43.87
21.812,46.24
21.828,46.14
21.843,43.64
21.859,39.3
21.875,33.87
21.890,27.99
21.906,22.13
21.921,16.69
21.937,12.16
21.953,9.09
21.968,7.91
21.984,8.7
22.000,11.03
22.015,14.0
22.031,16.65
22.046,18.26
22.062,18.74
22.078,18.52
22.093,18.31
22.109,18.65
22.125,19.6
22.140,20.77
22.156,21.47
22.171,20.95
22.187,18.74
22.203,14.58
22.218,8.56
22.234,1.03
22.250,-7.52
22.265,-16.5
22.281,-25.3
22.296,-33.33
22.312,-40.11
22.328,-45.21
22.343,-48.42
22.359,-49.7
22.375,-49.27
22.390,-47.57
22.406,-45.17
22.421,-42.55
22.437,-40.01
22.453,-37.58
22.468,-35.07
22.484,-32.21
22.500,-28.81
22.515,-24.86
22.531,-20.46
22.546,-15.86
22.562,-11.39
22.578,-7.29
22.593,-3.78
22.609,-0.82
22.625,1.96
22.640,5.14
22.656,9.29
22.671,14.8
22.687,21.56
22.703,29.03
22.718,36.39
22.734,42.81
22.750,47.63
22.765,50.51
22.781,51.63
22.796,51.62
22.812,51.59
22.828,52.92
22.843,56.74
22.859,63.58
22.875,73.06
22.890,83.87
22.906,94.26
22.921,102.68
22.937,108.26
22.953,110.87
22.968,110.87
22.984,108.53
23.000,103.7
23.015,95.87
23.031,84.57
23.046,70.03
23.062,53.32
23.078,36.39
23.093,21.2
23.109,8.99
23.125,-0.24
23.140,-7.41
23.156,-14.02
23.171,-21.12
23.187,-28.91
23.203,-36.93
23.218,-44.4
23.234,-50.92
23.250,-56.68
23.265,-62.25
23.281,-67.95
23.296,-73.6
23.312,-78.48
23.328,-81.53
23.343,-81.87
23.359,-79.06
23.375,-73.17
23.390,-64.72
23.406,-54.56
23.421,-43.83
23.437,-33.7
23.453,-25.33
23.468,-19.5
23.484,-16.42
23.500,-15.76
23.515,-16.72
23.531,-18.51
23.546,-20.4
23.562,-22.06
23.578,-23.29
23.593,-24.02
23.609,-24.08
23.625,-23.33
23.640,-21.7
23.656,-19.26
23.671,-16.14
23.687,-12.46
23.703,-8.36
23.718,-3.81
23.734,1.3
23.750,7.09
23.765,13.48
23.781,20.18
23.796,26.61
23.812,32.05
23.828,35.89
23.843,37.76
23.859,37.8
23.875,36.47
23.890,34.35
23.906,31.92
23.921,29.22
23.937,25.99
23.953,21.79
23.968,16.2
23.984,9.09
24.000,0.68
24.015,-8.51
24.031,-17.89
24.046,-26.71
24.062,-34.4
24.078,-40.45
24.093,-44.5
24.109,-46.47
24.125,-46.67
24.140,-45.69
24.156,-44.38
24.171,-43.61
24.187,-43.82
24.203,-45.02
24.218,-46.72
24.234,-48.15
24.250,-48.52
24.265,-47.33
24.281,-44.42
24.296,-39.94
24.312,-34.28
24.328,-27.91
24.343,-21.24
24.359,-14.67
24.375,-8.47
24.390,-2.9
24.406,1.95
24.421,6.04
24.437,9.39
24.453,11.96
24.468,13.51
24.484,13.59
24.500,11.58
24.515,7.08
24.531,0.11
24.546,-8.51
24.562,-17.4
24.578,-24.93
24.593,-29.8
24.609,-31.42
24.625,-29.96
24.640,-26.17
24.656,-20.94
24.671,-15.05
24.687,-8.94
24.703,-2.83
24.718,3.19
24.734,9.03
24.750,14.52
24.765,19.47
24.781,23.56
24.796,26.48
24.812,27.97
24.828,27.83
24.843,26.09
24.859,22.99
24.875,18.93
24.890,14.44
24.906,10.13
24.921,6.52
24.937,4.05
24.953,3.1
24.968,3.81
24.984,6.04
25.000,9.4
25.015,13.22
25.031,16.7
25.046,19.18
25.062,20.23
25.078,19.65
25.093,17.6
25.109,14.36
25.125,10.38
25.140,6.17
25.156,2.13
25.171,-1.38
25.187,-4.25
25.203,-6.53
25.218,-8.44
25.234,-10.12
25.250,-11.68
25.265,-13.11
25.281,-14.35
25.296,-15.52
25.312,-16.76
25.328,-18.31
25.343,-20.38
25.359,-22.99
25.375,-26.08
25.390,-29.42
25.406,-32.83
25.421,-35.95
25.437,-38.51
25.453,-40.08
25.468,-40.22
25.484,-38.54
25.500,-34.84
25.515,-29.1
25.531,-21.61
25.546,-12.97
25.562,-3.65
25.578,5.98
25.593,15.91
25.609,26.4
25.625,37.77
25.640,50.26
25.656,63.76
25.671,77.79
25.687,91.5
25.703,103.97
25.718,114.12
25.734,120.96
25.750,123.55
25.765,121.18
25.781,113.69
25.796,101.56
25.812,86.0
25.828,68.65
25.843,51.14
25.859,34.65
25.875,19.65
25.890,6.02
25.906,-6.81
25.921,-19.31
25.937,-31.87
25.953,-44.52
25.968,-56.97
25.984,-68.67
26.000,-79.01
26.015,-87.32
26.031,-93.06
26.046,-96.11
26.062,-96.52
26.078,-94.69
26.093,-90.94
26.109,-85.3
26.125,-77.5
26.140,-67.12
26.156,-53.82
26.171,-37.72
26.187,-19.67
26.203,-1.02
26.218,16.59
26.234,31.55
26.250,42.69
26.265,49.38
26.281,51.49
26.296,49.49
26.312,44.26
26.328,36.86
26.343,28.4
26.359,19.85
26.375,11.92
26.390,5.07
26.406,-0.47
26.421,-4.62
26.437,-7.37
26.453,-8.97
26.468,-9.87
26.484,-10.77
26.500,-12.37
26.515,-15.07
26.531,-18.94
26.546,-23.75
26.562,-29.28
26.578,-35.33
26.593,-41.93
26.609,-49.04
26.625,-56.29
26.640,-62.92
26.656,-67.79
26.671,-69.66
26.687,-67.63
26.703,-61.29
26.718,-50.8
26.734,-36.81
26.750,-20.36
26.765,-2.71
26.781,14.76
26.796,30.67
26.812,43.89
26.828,53.68
26.843,59.82
26.859,62.59
26.875,62.53
26.890,60.3
26.906,56.47
26.921,51.33
26.937,45.04
26.953,37.76
26.968,29.76
26.984,21.52
27.000,13.54
27.015,6.1
27.031,-0.73
27.046,-7.07
27.062,-13.12
27.078,-18.8
27.093,-23.69
27.109,-27.08
27.125,-28.3
27.140,-27.06
27.156,-23.71
27.171,-19.08
27.187,-14.29
27.203,-10.3
27.218,-7.64
27.234,-6.43
27.250,-6.42
27.265,-7.44
27.281,-9.44
27.296,-12.55
27.312,-16.77
27.328,-21.89
27.343,-27.41
27.359,-32.62
27.375,-37.01
27.390,-40.19
27.406,-42.06
27.421,-42.56
27.437,-41.6
27.453,-39.01
27.468,-34.66
27.484,-28.67
27.500,-21.33
27.515,-13.14
27.531,-4.67
27.546,3.67
27.562,11.54
27.578,18.69
27.593,24.95
27.609,30.19
27.625,34.43
27.640,37.82
27.656,40.57
27.671,42.81
27.687,44.51
27.703,45.33
27.718,44.78
27.734,42.29
27.750,37.53
27.765,30.49
27.781,21.52
27.796,11.27
27.812,0.62
27.828,-9.51
27.843,-18.23
27.859,-24.85
27.875,-28.98
27.890,-30.53
27.906,-29.77
27.921,-27.2
27.937,-23.41
27.953,-19.04
27.968,-14.67
27.984,-10.83
28.000,-7.96
28.015,-6.21
28.031,-5.49
28.046,-5.5
28.062,-5.97
28.078,-6.68
28.093,-7.67
28.109,-9.15
28.125,-11.2
28.140,-13.58
28.156,-15.59
28.171,-16.37
28.187,-15.23
28.203,-12.18
28.218,-7.8
28.234,-3.07
28.250,1.16
28.265,4.47
28.281,6.87
28.296,8.62
28.312,9.78
28.328,10.21
28.343,9.67
28.359,8.16
28.375,6.04
28.390,4.02
28.406,2.68
28.421,2.22
28.437,2.3
28.453,2.27
28.468,1.62
28.484,0.38
28.500,-0.86
28.515,-1.14
28.531,0.38
28.546,4.11
28.562,9.68
28.578,16.15
28.593,22.39
28.609,27.59
28.625,31.44
28.640,34.0
28.656,35.54
28.671,36.12
28.687,35.63
28.703,33.87
28.718,30.81
28.734,26.75
28.750,22.34
28.765,18.29
28.781,14.92
28.796,12.19
28.812,9.6
28.828,6.59
28.843,2.9
28.859,-1.36
28.875,-5.68
28.890,-9.47
28.906,-12.29
28.921,-14.11
28.937,-15.22
28.953,-16.1
28.968,-17.18
28.984,-18.73
29.000,-20.78
29.015,-23.15
29.031,-25.61
29.046,-27.98
29.062,-30.22
29.078,-32.38
29.093,-34.63
29.109,-37.04
29.125,-39.64
29.140,-42.27
29.156,-44.68
29.171,-46.53
29.187,-47.55
29.203,-47.5
29.218,-46.27
29.234,-43.84
29.250,-40.3
29.265,-35.76
29.281,-30.26
29.296,-23.84
29.312,-16.52
29.328,-8.5
29.343,-0.09
29.359,8.34
29.375,16.46
29.390,24.08
29.406,31.06
29.421,37.23
29.437,42.12
29.453,45.19
29.468,45.9
29.484,44.13
29.500,40.13
29.515,34.53
29.531,28.17
29.546,21.67
29.562,15.51
29.578,9.9
29.593,5.06
29.609,1.37
29.625,-0.78
29.640,-1.16
29.656,0.09
29.671,2.51
29.687,5.41
29.703,8.19
29.718,10.42
29.734,11.99
29.750,12.93
29.765,13.36
29.781,13.29
29.796,12.68
29.812,11.64
29.828,10.39
29.843,9.26
29.859,8.5
29.875,8.21
29.890,8.22
29.906,8.2
29.921,7.87
29.937,7.01
29.953,5.72
29.968,4.22
29.984,2.81
30.000,1.67
30.015,0.78
30.031,-0.09
30.046,-1.3
30.062,-3.02
30.078,-5.34
30.093,-8.02
30.109,-10.76
30.125,-13.15
30.140,-14.91
30.156,-15.82
30.171,-15.86
30.187,-15.07
30.203,-13.45
30.218,-11.15
30.234,-8.3
30.250,-5.16
30.265,-2.01
30.281,0.86
30.296,3.26
30.312,5.07
30.328,6.33
30.343,7.26
30.359,8.04
30.375,8.87
30.390,9.75
30.406,10.52
30.421,10.91
30.437,10.59
30.453,9.37
30.468,7.27
30.484,4.58
30.500,1.68
30.515,-1.02
30.531,-3.3
30.546,-5.07
30.562,-6.36
30.578,-7.27
30.593,-7.92
30.609,-8.38
30.625,-8.77
30.640,-9.23
30.656,-9.82
30.671,-10.46
30.687,-10.92
30.703,-10.83
30.718,-9.82
30.734,-7.8
30.750,-4.78
30.765,-0.9
30.781,3.8
30.796,9.51
30.812,16.45
30.828,24.53
30.843,33.05
30.859,40.57
30.875,45.14
30.890,45.07
30.906,39.66
30.921,29.63
30.937,16.91
30.953,4.05
30.968,-6.57
30.984,-13.18
31.000,-14.73
31.015,-10.98
31.031,-2.37
31.046,9.76
31.062,23.08
31.078,34.49
31.093,40.8
31.109,39.84
31.125,31.2
31.140,16.53
31.156,-1.28
31.171,-19.17
31.187,-34.95
31.203,-47.8
31.218,-57.68
31.234,-64.77
31.250,-68.76
31.265,-68.95
31.281,-64.52
31.296,-55.22
31.312,-41.48
31.328,-24.36
31.343,-5.12
31.359,15.34
31.375,36.38
31.390,57.46
31.406,77.63
31.421,95.39
31.437,108.76
31.453,115.87
31.468,115.42
31.484,107.27
31.500,92.56
31.515,73.43
31.531,52.42
31.546,31.81
31.562,13.17
31.578,-2.86
31.593,-16.43
31.609,-27.98
31.625,-38.01
31.640,-46.72
31.656,-54.26
31.671,-60.81
31.687,-66.55
31.703,-71.68
31.718,-76.13
31.734,-79.5
31.750,-80.99
31.765,-79.84
31.781,-75.71
31.796,-69.01
31.812,-60.84
31.828,-52.53
31.843,-45.25
31.859,-39.57
31.875,-35.39
31.890,-32.16
31.906,-29.2
31.921,-25.97
31.937,-22.17
31.953,-17.62
31.968,-12.17
31.984,-5.66
32.000,2.01
32.015,10.7
32.031,19.87
32.046,28.75
32.062,36.49
32.078,42.51
32.093,46.58
32.109,48.86
32.125,49.66
32.140,49.33
32.156,48.19
32.171,46.45
32.187,44.56
32.203,43.1
32.218,42.85
32.234,44.35
32.250,47.69
32.265,52.24
32.281,56.91
32.296,60.46
32.312,61.74
32.328,60.15
32.343,55.53
32.359,48.19
32.375,38.75
32.390,27.93
32.406,16.54
32.421,5.47
32.437,-4.39
32.453,-12.26
32.468,-17.67
32.484,-20.58
32.500,-21.41
32.515,-20.83
32.531,-19.63
32.546,-18.56
32.562,-18.17
32.578,-18.84
32.593,-20.77
32.609,-23.93
32.625,-28.12
32.640,-32.89
32.656,-37.71
32.671,-42.04
32.687,-45.49
32.703,-47.77
32.718,-48.87
32.734,-48.85
32.750,-47.89
32.765,-46.32
32.781,-44.48
32.796,-42.71
32.812,-41.28
32.828,-40.12
32.843,-38.86
32.859,-37.04
32.875,-34.11
32.890,-29.69
32.906,-23.58
32.921,-15.87
32.937,-6.73
32.953,3.49
32.968,14.44
32.984,25.73
33.000,37.02
33.015,48.11
33.031,58.99
33.046,69.75
33.062,80.32
33.078,90.38
33.093,99.25
33.109,105.92
33.125,109.45
33.140,109.24
33.156,105.25
33.171,97.98
33.187,88.3
33.203,77.2
33.218,65.63
33.234,54.37
33.250,43.91
33.265,34.46
33.281,25.83
33.296,17.64
33.312,9.27
33.328,0.23
33.343,-9.78
33.359,-20.83
33.375,-32.77
33.390,-45.32
33.406,-58.09
33.421,-70.65
33.437,-82.48
33.453,-93.18
33.468,-102.58
33.484,-110.98
33.500,-119.13
33.515,-127.89
33.531,-137.67
33.546,-148.01
33.562,-157.45
33.578,-164.05
33.593,-165.97
33.609,-162.29
33.625,-153.27
33.640,-140.17
33.656,-124.78
33.671,-108.67
33.687,-92.88
33.703,-77.8
33.718,-63.4
33.734,-49.52
33.750,-36.14
33.765,-23.29
33.781,-10.93
33.796,1.21
33.812,13.72
33.828,27.4
33.843,42.91
33.859,60.51
33.875,79.86
33.890,100.1
33.906,120.12
33.921,138.73
33.937,154.79
33.953,167.03
33.968,174.13
33.984,174.87
34.000,168.55
34.015,155.3
34.031,136.36
34.046,113.7
34.062,89.62
34.078,66.11
34.093,44.49
34.109,25.51
34.125,9.57
34.140,-2.97
34.156,-11.89
34.171,-17.07
34.187,-18.7
34.203,-17.13
34.218,-12.81
34.234,-6.25
34.250,1.94
34.265,10.87
34.281,19.39
34.296,26.21
34.312,30.38
34.328,31.58
34.343,30.36
34.359,27.94
34.375,25.74
34.390,25.07
34.406,26.77
34.421,31.29
34.437,38.75
34.453,48.91
34.468,61.18
34.484,74.55
34.500,87.59
34.515,98.68
34.531,106.48
34.546,110.04
34.562,109.1
34.578,104.05
34.593,95.71
34.609,85.31
34.625,74.24
34.640,63.86
34.656,55.27
34.671,49.21
34.687,45.9
34.703,45.3
34.718,47.33
34.734,51.96
34.750,59.32
34.765,69.55
34.781,82.51
34.796,97.79
34.812,114.6
34.828,131.81
34.843,148.13
34.859,162.41
34.875,173.75
34.890,181.76
34.906,186.6
34.921,188.83
34.937,188.91
34.953,187.26
34.968,184.77
34.984,181.76
35.000,177.97
35.015,173.04
35.031,166.63
35.046,158.35
35.062,147.9
35.078,134.98
35.093,119.87
35.109,104.16
35.125,89.47
35.140,76.66
35.156,65.85
35.171,56.31
35.187,46.75
35.203,36.06
35.218,23.11
35.234,7.95
35.250,-7.01
35.265,-19.73
35.281,-29.55
35.296,-36.44
35.312,-41.25
35.328,-45.76
35.343,-52.5
35.359,-66.35
35.375,-90.63
35.390,-122.31
35.406,-157.82
35.421,-194.56
35.437,-229.03
35.453,-258.06
35.468,-279.53
35.484,-292.73
35.500,-302.86
35.515,-314.41
35.531,-322.4
35.546,-324.8
35.562,-324.79
35.578,-325.29
35.593,-329.17
35.609,-339.0
35.625,-356.68
35.640,-390.32
35.656,-443.96
35.671,-503.76
35.687,-558.35
35.703,-603.67
35.718,-635.51
35.734,-650.95
35.750,-649.17
35.765,-631.64
35.781,-611.64
35.796,-601.3
35.812,-593.54
35.828,-587.11
35.843,-589.95
35.859,-606.18
35.875,-635.21
35.890,-671.83
35.906,-647.75
35.921,-525.66
35.937,-398.18
35.953,-305.19
35.968,-230.32
35.984,-172.37
36.000,-129.09
36.015,-96.13
36.031,-67.93
36.046,-39.71
36.062,-18.48
36.078,-10.44
36.093,-2.27
36.109,14.18
36.125,37.6
36.140,67.88
36.156,104.79
36.171,147.08
36.187,192.36
36.203,230.01
36.218,252.01
36.234,267.36
36.250,282.5
36.265,297.38
36.281,313.31
36.296,331.67
36.312,353.02
36.328,376.78
36.343,396.7
36.359,407.77
36.375,415.23
36.390,422.69
36.406,429.57
36.421,436.27
36.437,443.34
36.453,451.24
36.468,460.21
36.484,467.88
36.500,472.1
36.515,474.53
36.531,474.37
36.546,467.57
36.562,450.63
36.578,421.77
36.593,381.98
36.609,334.81
36.625,284.45
36.640,235.28
36.656,191.93
36.671,156.65
36.687,129.33
36.703,109.11
36.718,95.05
36.734,86.17
36.750,81.43
36.765,79.53
36.781,79.03
36.796,78.63
36.812,77.33
36.828,74.57
36.843,70.08
36.859,64.0
36.875,56.59
36.890,48.31
36.906,39.53
36.921,30.48
36.937,21.1
36.953,11.24
36.968,0.82
36.984,-9.83
37.000,-19.9
37.015,-28.33
37.031,-34.22
37.046,-37.2
37.062,-37.66
37.078,-36.67
37.093,-35.55
37.109,-35.54
37.125,-37.46
37.140,-41.52
37.156,-47.55
37.171,-55.1
37.187,-63.59
37.203,-72.47
37.218,-81.28
37.234,-89.69
37.250,-97.59
37.265,-104.91
37.281,-111.53
37.296,-117.2
37.312,-121.47
37.328,-123.7
37.343,-123.23
37.359,-119.57
37.375,-112.58
37.390,-102.47
37.406,-89.75
37.421,-75.15
37.437,-59.62
37.453,-44.26
37.468,-30.14
37.484,-18.07
37.500,-8.35
37.515,-0.64
37.531,5.77
37.546,11.51
37.562,16.77
37.578,21.17
37.593,23.95
37.609,24.46
37.625,22.6
37.640,18.84
37.656,14.08
37.671,9.32
37.687,5.32
37.703,2.53
37.718,1.23
37.734,1.48
37.750,3.26
37.765,6.39
37.781,10.48
37.796,15.09
37.812,19.83
37.828,24.4
37.843,28.67
37.859,32.65
37.875,36.38
37.890,39.96
37.906,43.38
37.921,46.64
37.937,49.65
37.953,52.27
37.968,54.43
37.984,56.24
38.000,57.83
38.015,59.37
38.031,60.92
38.046,62.18
38.062,62.73
38.078,62.17
38.093,60.23
38.109,56.86
38.125,52.44
38.140,47.35
38.156,42.04
38.171,36.95
38.187,32.47
38.203,28.99
38.218,27.15
38.234,27.47
38.250,30.37
38.265,36.03
38.281,44.26
38.296,54.5
38.312,65.88
38.328,77.15
38.343,86.76
38.359,93.19
38.375,94.94
38.390,91.18
38.406,81.98
38.421,68.39
38.437,52.36
38.453,36.34
38.468,22.49
38.484,12.27
38.500,6.02
38.515,2.73
38.531,0.53
38.546,-2.86
38.562,-9.39
38.578,-19.93
38.593,-33.85
38.609,-49.28
38.625,-63.56
38.640,-74.02
38.656,-78.97
38.671,-78.01
38.687,-72.19
38.703,-63.73
38.718,-55.14
38.734,-48.51
38.750,-44.78
38.765,-43.55
38.781,-43.17
38.796,-41.78
38.812,-37.88
38.828,-31.3
38.843,-23.31
38.859,-16.03
38.875,-11.47
38.890,-10.44
38.906,-12.04
38.921,-13.48
38.937,-10.64
38.953,1.08
38.968,25.37
38.984,63.44
39.000,112.72
39.015,166.59
39.031,215.48
39.046,249.52
39.062,261.51
39.078,249.25
39.093,215.76
39.109,167.57
39.125,111.92
39.140,54.71
39.156,-0.43
39.171,-51.44
39.187,-96.58
39.203,-133.65
39.218,-160.29
39.234,-174.98
39.250,-177.91
39.265,-171.26
39.281,-158.23
39.296,-142.1
39.312,-125.1
39.328,-107.75
39.343,-88.89
39.359,-66.54
39.375,-38.96
39.390,-5.84
39.406,30.78
39.421,66.69
39.437,96.47
39.453,115.22
39.468,120.15
39.484,111.6
39.500,92.48
39.515,67.39
39.531,40.83
39.546,16.24
39.562,-4.74
39.578,-22.16
39.593,-37.24
39.609,-52.02
39.625,-68.68
39.640,-88.78
39.656,-111.78
39.671,-134.53
39.687,-151.6
39.703,-157.26
39.718,-148.27
39.734,-125.87
39.750,-96.16
39.765,-67.92
39.781,-49.06
39.796,-43.46
39.812,-49.97
39.828,-63.81
39.843,-79.2
39.859,-92.14
39.875,-101.37
39.890,-107.75
39.906,-112.8
39.921,-117.39
39.937,-121.3
39.953,-123.86
39.968,-124.72
39.984,-123.99
40.000,-122.2
40.015,-119.74
40.031,-116.39
40.046,-111.43
40.062,-103.95
40.078,-93.4
40.093,-79.76
40.109,-63.54
40.125,-45.3
40.140,-25.48
40.156,-4.31
40.171,18.03
40.187,40.88
40.203,62.92
40.218,82.2
40.234,96.55
40.250,104.27
40.265,104.51
40.281,97.61
40.296,84.91
40.312,68.68
40.328,51.54
40.343,36.24
40.359,25.2
40.375,19.95
40.390,20.78
40.406,26.36
40.421,33.87
40.437,39.7
40.453,40.58
40.468,34.69
40.484,22.34
40.500,5.77
40.515,-11.95
40.531,-28.09
40.546,-41.07
40.562,-50.64
40.578,-57.23
40.593,-61.36
40.609,-62.95
40.625,-61.59
40.640,-57.0
40.656,-49.49
40.671,-40.07
40.687,-30.13
40.703,-20.7
40.718,-12.08
40.734,-4.05
40.750,3.73
40.765,10.85
40.781,16.01
40.796,17.43
40.812,13.72
40.828,4.95
40.843,-7.12
40.859,-19.37
40.875,-28.61
40.890,-32.74
40.906,-31.4
40.921,-25.97
40.937,-18.58
40.953,-11.18
40.968,-4.89
40.984,-0.02
41.000,3.69
41.015,6.64
41.031,9.14
41.046,11.48
41.062,14.05
41.078,17.24
41.093,21.28
41.109,26.13
41.125,31.33
41.140,36.25
41.156,40.38
41.171,43.58
41.187,46.22
41.203,48.94
41.218,52.27
41.234,56.04
41.250,59.39
41.265,61.0
41.281,59.72
41.296,55.3
41.312,48.68
41.328,41.9
41.343,37.27
41.359,36.49
41.375,39.95
41.390,46.32
41.406,53.09
41.421,57.26
41.437,56.5
41.453,49.85
41.468,38.08
41.484,23.59
41.500,9.62
41.515,-0.43
41.531,-4.06
41.546,-0.33
41.562,9.93
41.578,24.37
41.593,39.72
41.609,52.62
41.625,60.34
41.640,61.26
41.656,55.12
41.671,42.86
41.687,26.43
41.703,8.24
41.718,-9.15
41.734,-23.57
41.750,-33.58
41.765,-38.57
41.781,-38.9
41.796,-35.65
41.812,-30.45
41.828,-25.15
41.843,-21.53
41.859,-20.9
41.875,-23.83
41.890,-30.08
41.906,-38.59
41.921,-48.02
41.937,-57.04
41.953,-64.63
41.968,-70.22
41.984,-73.31
42.000,-73.41
42.015,-69.97
42.031,-62.75
42.046,-52.06
42.062,-39.1
42.078,-25.81
42.093,-14.23
42.109,-5.88
42.125,-1.2
42.140,0.47
42.156,0.66
42.171,1.01
42.187,2.85
42.203,6.82
42.218,12.71
42.234,19.61
42.250,26.2
42.265,31.22
42.281,33.84
42.296,34.02
42.312,32.39
42.328,29.97
42.343,27.59
42.359,25.32
42.375,22.67
42.390,18.74
42.406,13.09
42.421,6.15
42.437,-0.66
42.453,-5.54
42.468,-7.01
42.484,-4.61
42.500,1.04
42.515,8.58
42.531,16.31
42.546,22.85
42.562,27.2
42.578,28.88
42.593,27.81
42.609,24.28
42.625,18.98
42.640,12.92
42.656,7.24
42.671,2.92
42.687,0.57
42.703,0.22
42.718,1.56
42.734,3.95
42.750,6.88
42.765,10.04
42.781,13.37
42.796,17.08
42.812,21.33
42.828,26.18
42.843,31.34
42.859,36.17
42.875,39.84
42.890,41.58
42.906,40.92
42.921,37.6
42.937,31.7
42.953,23.43
42.968,13.26
42.984,1.92
43.000,-9.31
43.015,-18.67
43.031,-24.21
43.046,-24.4
43.062,-18.99
43.078,-9.2
43.093,2.46
43.109,13.28
43.125,21.23
43.140,25.77
43.156,27.65
43.171,28.17
43.187,28.51
43.203,29.05
43.218,29.87
43.234,30.97
43.250,32.99
43.265,36.94
43.281,43.74
43.296,53.16
43.312,63.29
43.328,70.9
43.343,72.34
43.359,65.12
43.375,49.1
43.390,26.98
43.406,3.51
43.421,-15.93
43.437,-27.1
43.453,-28.22
43.468,-20.03
43.484,-5.21
43.500,12.99
43.515,31.85
43.531,49.75
43.546,66.09
43.562,80.75
43.578,93.63
43.593,104.18
43.609,111.89
43.625,116.53
43.640,118.73
43.656,120.01
43.671,122.32
43.687,127.29
43.703,135.49
43.718,146.47
43.734,158.78
43.750,171.11
43.765,182.67
43.781,193.46
43.796,203.87
43.812,213.97
43.828,223.32
43.843,231.31
43.859,238.27
43.875,245.67
43.890,255.72
43.906,269.74
43.921,286.41
43.937,301.33
43.953,308.22
43.968,301.57
43.984,279.04
44.000,242.66
44.015,197.78
44.031,150.83
44.046,107.0
44.062,68.94
44.078,37.14
44.093,11.05
44.109,-9.56
44.125,-24.43
44.140,-33.18
44.156,-36.18
44.171,-34.88
44.187,-31.61
44.203,-28.89
44.218,-28.52
44.234,-31.13
44.250,-36.0
44.265,-41.58
44.281,-46.08
44.296,-48.1
44.312,-46.84
44.328,-42.03
44.343,-33.79
44.359,-22.3
44.375,-7.59
44.390,10.28
44.406,31.09
44.421,54.16
44.437,78.03
44.453,100.54
44.468,119.16
44.484,131.42
44.500,135.64
44.515,131.35
44.531,119.47
44.546,102.07
44.562,81.82
44.578,61.15
44.593,41.59
44.609,23.43
44.625,5.74
44.640,-12.92
44.656,-33.69
44.671,-56.62
44.687,-80.34
44.703,-102.44
44.718,-120.42
44.734,-132.67
44.750,-139.1
44.765,-141.29
44.781,-142.01
44.796,-144.24
44.812,-150.69
44.828,-163.09
44.843,-181.64
44.859,-204.31
44.875,-226.68
44.890,-242.65
44.906,-246.59
44.921,-235.85
44.937,-212.37
44.953,-182.39
44.968,-153.94
44.984,-133.7
45.000,-124.66
45.015,-125.96
45.031,-135.05
45.046,-150.44
45.062,-173.23
45.078,-206.85
45.093,-255.12
45.109,-320.03
45.125,-400.64
45.140,-492.54
45.156,-588.24
45.171,-678.14
45.187,-751.62
45.203,-799.2
45.218,-815.23
45.234,-799.83
45.250,-758.79
45.265,-701.85
45.281,-639.62
45.296,-580.51
45.312,-529.52
45.328,-488.28
45.343,-456.39
45.359,-432.57
45.375,-415.06
45.390,-401.33
45.406,-387.96
45.421,-371.27
45.437,-348.5
45.453,-318.96
45.468,-284.24
45.484,-247.76
45.500,-213.57
45.515,-184.91
45.531,-163.14
45.546,-147.69
45.562,-136.54
45.578,-127.31
45.593,-118.3
45.609,-108.74
45.625,-98.96
45.640,-89.86
45.656,-82.17
45.671,-76.02
45.687,-70.98
45.703,-66.19
45.718,-60.7
45.734,-54.03
45.750,-46.26
45.765,-37.96
45.781,-29.95
45.796,-22.79
45.812,-16.69
45.828,-11.5
45.843,-6.82
45.859,-2.21
45.875,2.5
45.890,7.19
45.906,11.64
45.921,15.54
45.937,18.79
45.953,21.59
45.968,24.26
45.984,27.24
46.000,30.86
46.015,35.23
46.031,40.19
46.046,45.56
46.062,51.18
46.078,57.19
46.093,63.98
46.109,71.99
46.125,81.62
46.140,92.85
46.156,105.29
46.171,118.29
46.187,131.14
46.203,143.38
46.218,155.01
46.234,166.56
46.250,178.69
46.265,192.03
46.281,206.7
46.296,222.27
46.312,238.02
46.328,253.19
46.343,267.31
46.359,280.48
46.375,293.35
46.390,306.76
46.406,321.83
46.421,339.61
46.437,360.9
46.453,385.85
46.468,413.21
46.484,440.09
46.500,462.24
46.515,475.44
46.531,476.77
46.546,466.04
46.562,445.68
46.578,419.73
46.593,392.33
46.609,366.14
46.625,342.03
46.640,319.44
46.656,297.54
46.671,275.93
46.687,254.84
46.703,234.71
46.718,215.61
46.734,197.14
46.750,178.63
46.765,159.69
46.781,140.47
46.796,121.72
46.812,104.51
46.828,89.8
46.843,78.05
46.859,69.02
46.875,62.02
46.890,56.02
46.906,50.18
46.921,44.0
46.937,37.49
46.953,30.98
46.968,25.08
46.984,20.17
47.000,16.2
47.015,12.79
47.031,9.38
47.046,5.61
47.062,1.48
47.078,-2.76
47.093,-6.61
47.109,-9.56
47.125,-11.43
47.140,-12.5
47.156,-13.18
47.171,-13.78
47.187,-14.36
47.203,-14.56
47.218,-13.98
47.234,-12.33
47.250,-9.4
47.265,-5.43
47.281,-1.08
47.296,3.09
47.312,6.94
47.328,10.76
47.343,15.05
47.359,20.12
47.375,25.88
47.390,32.56
47.406,39.77
47.421,46.53
47.437,52.01
47.453,56.14
47.468,59.68
47.484,63.66
47.500,68.76
47.515,74.94
47.531,82.94
47.546,92.13
47.562,100.64
47.578,106.6
47.593,109.59
47.609,110.88
47.625,112.64
47.640,116.42
47.656,122.65
47.671,133.03
47.687,147.05
47.703,162.08
47.718,175.02
47.734,184.37
47.750,190.86
47.765,196.67
47.781,204.09
47.796,214.75
47.812,232.46
47.828,257.2
47.843,283.8
47.859,303.46
47.875,307.19
47.890,289.2
47.906,248.41
47.921,188.72
47.937,98.37
47.953,-15.22
47.968,-129.56
47.984,-219.58
48.000,-272.65
48.015,-291.17
48.031,-284.43
48.046,-261.24
48.062,-227.6
48.078,-187.61
48.093,-141.57
48.109,-92.13
48.125,-44.72
48.140,-4.14
48.156,26.47
48.171,47.43
48.187,61.56
48.203,71.98
48.218,80.83
48.234,91.38
48.250,104.24
48.265,116.75
48.281,125.37
48.296,128.17
48.312,125.98
48.328,120.88
48.343,116.96
48.359,116.44
48.375,120.55
48.390,127.52
48.406,131.15
48.421,124.66
48.437,103.95
48.453,69.49
48.468,25.14
48.484,-24.04
48.500,-73.33
48.515,-119.64
48.531,-162.1
48.546,-205.59
48.562,-255.22
48.578,-312.44
48.593,-373.0
48.609,-428.87
48.625,-471.64
48.640,-493.97
48.656,-493.41
48.671,-471.11
48.687,-437.46
48.703,-404.13
48.718,-379.81
48.734,-367.82
48.750,-368.28
48.765,-380.7
48.781,-402.22
48.796,-430.63
48.812,-459.93
48.828,-489.73
48.843,-519.95
48.859,-550.55
48.875,-581.47
48.890,-614.86
48.906,-654.92
48.921,-702.07
48.937,-755.42
48.953,-757.46
48.968,-667.38
48.984,-481.77
49.000,-240.56
49.015,2.42
49.031,209.68
49.046,354.87
49.062,457.65
49.078,534.63
49.093,595.65
49.109,636.34
49.125,649.1
49.140,628.33
49.156,576.85
49.171,503.41
49.187,417.58
49.203,328.63
49.218,239.42
49.234,152.87
49.250,68.08
49.265,-12.48
49.281,-81.83
49.296,-130.46
49.312,-153.04
49.328,-152.56
49.343,-137.47
49.359,-120.68
49.375,-110.69
49.390,-113.32
49.406,-129.02
49.421,-154.2
49.437,-182.29
49.453,-205.99
49.468,-218.14
49.484,-211.16
49.500,-181.14
49.515,-127.94
49.531,-58.94
49.546,13.31
49.562,75.01
49.578,116.06
49.593,132.49
49.609,126.47
49.625,105.08
49.640,76.3
49.656,47.78
49.671,24.42
49.687,8.78
49.703,1.23
49.718,1.09
49.734,6.99
49.750,17.59
49.765,32.36
49.781,51.31
49.796,75.19
49.812,104.83
49.828,140.75
49.843,182.67
49.859,229.53
49.875,278.85
49.890,326.48
49.906,366.66
49.921,393.02
49.937,400.32
49.953,386.32
49.968,352.92
49.984,305.58
50.000,251.44
50.015,196.89
50.031,145.51
50.046,97.91
50.062,53.18
50.078,11.21
50.093,-25.5
50.109,-51.68
50.125,-61.14
50.140,-49.54
50.156,-16.63
50.171,33.19
50.187,92.44
50.203,153.6
50.218,212.0
50.234,267.03
50.250,320.82
50.265,374.93
50.281,427.46
50.296,472.2
50.312,500.66
50.328,505.87
50.343,485.99
50.359,445.47
50.375,392.75
50.390,337.78
50.406,287.15
50.421,242.76
50.437,202.83
50.453,164.35
50.468,125.82
50.484,88.39
50.500,55.15
50.515,28.67
50.531,10.44
50.546,-1.15
50.562,-9.74
50.578,-19.13
50.593,-31.72
50.609,-47.23
50.625,-62.71
50.640,-73.93
50.656,-78.14
50.671,-72.92
50.687,-59.65
50.703,-42.22
50.718,-25.43
50.734,-13.27
50.750,-7.74
50.765,-8.49
50.781,-13.8
50.796,-24.08
50.812,-34.65
50.828,-44.36
50.843,-53.02
50.859,-61.56
50.875,-72.1
50.890,-87.39
50.906,-109.43
50.921,-138.49
50.937,-177.41
50.953,-216.26
50.968,-250.61
50.984,-278.0
51.000,-298.87
51.015,-316.44
51.031,-334.97
51.046,-357.31
51.062,-383.17
51.078,-416.55
51.093,-440.91
51.109,-447.52
51.125,-429.61
51.140,-385.59
51.156,-321.07
51.171,-248.68
51.187,-184.25
51.203,-141.73
51.218,-139.19
51.234,-163.71
51.250,-207.66
51.265,-261.7
51.281,-319.54
51.296,-380.01
51.312,-445.65
51.328,-518.16
51.343,-525.84
51.359,-544.51
51.375,-547.8
51.390,-523.71
51.406,-466.76
51.421,-380.78
51.437,-277.57
51.453,-173.31
51.468,-83.8
51.484,-21.09
51.500,-2.4
51.515,-16.53
51.531,-58.55
51.546,-118.89
51.562,-184.94
51.578,-243.14
51.593,-282.01
51.609,-294.19
51.625,-277.74
51.640,-243.52
51.656,-187.5
51.671,-115.3
51.687,-33.15
51.703,51.16
51.718,127.31
51.734,183.14
51.750,207.8
51.765,195.6
51.781,143.73
51.796,68.79
51.812,-12.92
51.828,-84.61
51.843,-133.83
51.859,-155.05
51.875,-149.68
51.890,-123.67
51.906,-84.33
51.921,-40.62
51.937,5.87
51.953,52.51
51.968,97.45
51.984,138.99
52.000,175.29
52.015,204.77
52.031,226.81
52.046,242.73
52.062,254.37
52.078,266.3
52.093,281.47
52.109,301.13
52.125,324.79
52.140,351.16
52.156,379.57
52.171,410.69
52.187,446.04
52.203,485.67
52.218,526.53
52.234,561.84
52.250,583.01
52.265,583.09
52.281,559.61
52.296,515.4
52.312,456.59
52.328,389.63
52.343,319.35
52.359,249.16
52.375,182.96
52.390,126.86
52.406,88.66
52.421,75.17
52.437,89.19
52.453,128.02
52.468,184.54
52.484,249.77
52.500,315.14
52.515,373.53
52.531,418.89
52.546,446.47
52.562,453.44
52.578,440.37
52.593,411.86
52.609,375.69
52.625,340.21
52.640,311.29
52.656,290.83
52.671,277.05
52.687,266.66
52.703,256.58
52.718,245.18
52.734,231.8
52.750,215.74
52.765,195.76
52.781,169.97
52.796,136.7
52.812,95.3
52.828,46.78
52.843,-6.1
52.859,-59.5
52.875,-109.71
52.890,-154.36
52.906,-193.23
52.921,-228.48
52.937,-263.6
52.953,-302.06
52.968,-345.63
52.984,-393.57
53.000,-443.02
53.015,-490.02
53.031,-531.26
53.046,-565.33
53.062,-593.21
53.078,-617.61
53.093,-641.56
53.109,-667.48
53.125,-695.95
53.140,-725.43
53.156,-751.72
53.171,-768.25
53.187,-766.95
53.203,-740.34
53.218,-684.53
53.234,-602.11
53.250,-503.74
53.265,-406.33
53.281,-328.23
53.296,-282.56
53.312,-272.23
53.328,-288.97
53.343,-317.46
53.359,-342.22
53.375,-353.7
53.390,-350.8
53.406,-338.65
53.421,-324.01
53.437,-310.96
53.453,-299.54
53.468,-287.2
53.484,-271.63
53.500,-252.95
53.515,-233.41
53.531,-215.49
53.546,-199.67
53.562,-183.75
53.578,-164.05
53.593,-137.56
53.609,-103.8
53.625,-65.26
53.640,-26.57
53.656,7.52
53.671,34.04
53.687,52.78
53.703,66.38
53.718,78.74
53.734,93.47
53.750,112.25
53.765,134.48
53.781,157.75
53.796,178.87
53.812,195.18
53.828,205.07
53.843,208.36
53.859,205.64
53.875,197.77
53.890,185.3
53.906,168.33
53.921,146.88
53.937,121.34
53.953,92.87
53.968,63.43
53.984,35.54
54.000,11.74
54.015,-5.91
54.031,-16.22
54.046,-19.06
54.062,-15.06
54.078,-5.47
54.093,8.21
54.109,24.4
54.125,41.46
54.140,57.88
54.156,72.24
54.171,83.5
54.187,90.8
54.203,93.93
54.218,93.07
54.234,89.01
54.250,83.09
54.265,76.72
54.281,71.46
54.296,68.48
54.312,68.63
54.328,72.07
54.343,78.42
54.359,86.57
54.375,94.96
54.390,101.89
54.406,105.62
54.421,104.83
54.437,98.67
54.453,86.89
54.468,69.98
54.484,48.91
54.500,25.09
54.515,0.13
54.531,-24.24
54.546,-46.55
54.562,-65.6
54.578,-80.56
54.593,-91.1
54.609,-97.28
54.625,-99.56
54.640,-98.74
54.656,-95.73
54.671,-91.31
54.687,-86.14
54.703,-80.55
54.718,-74.58
54.734,-68.14
54.750,-61.03
54.765,-53.18
54.781,-44.68
54.796,-35.75
54.812,-26.65
54.828,-17.51
54.843,-8.21
54.859,1.58
54.875,12.25
54.890,24.08
54.906,37.04
54.921,50.79
54.937,64.85
54.953,78.76
54.968,92.39
54.984,106.06
55.000,120.43
55.015,136.22
55.031,153.88
55.046,173.26
55.062,193.68
55.078,214.18
55.093,233.84
55.109,252.15
55.125,269.18
55.140,285.41
55.156,301.6
55.171,318.67
55.187,337.49
55.203,358.68
55.218,381.99
55.234,405.77
55.250,426.88
55.265,441.11
55.281,444.58
55.296,435.25
55.312,413.83
55.328,383.64
55.343,349.37
55.359,315.36
55.375,284.27
55.390,256.9
55.406,232.71
55.421,210.9
55.437,191.2
55.453,173.8
55.468,158.94
55.484,146.41
55.500,135.34
55.515,124.6
55.531,113.41
55.546,101.54
55.562,89.44
55.578,77.9
55.593,67.56
55.609,58.49
55.625,50.27
55.640,42.14
55.656,33.47
55.671,24.26
55.687,15.11
55.703,7.06
55.718,1.23
55.734,-1.82
55.750,-2.23
55.765,-0.84
55.781,1.24
55.796,3.06
55.812,4.26
55.828,4.98
55.843,5.61
55.859,6.52
55.875,7.59
55.890,8.35
55.906,8.18
55.921,6.54
55.937,3.16
55.953,-1.96
55.968,-8.61
55.984,-16.54
56.000,-25.27
56.015,-34.27
56.031,-42.8
56.046,-50.06
56.062,-55.32
56.078,-58.14
56.093,-58.36
56.109,-56.15
56.125,-51.85
56.140,-45.85
56.156,-38.69
56.171,-30.92
56.187,-23.17
56.203,-16.08
56.218,-10.15
56.234,-5.7
56.250,-2.88
56.265,-1.64
56.281,-1.85
56.296,-3.35
56.312,-5.88
56.328,-9.1
56.343,-12.6
56.359,-15.83
56.375,-18.31
56.390,-19.72
56.406,-19.93
56.421,-19.17
56.437,-17.87
56.453,-16.38
56.468,-14.95
56.484,-13.65
56.500,-12.45
56.515,-11.39
56.531,-10.65
56.546,-10.49
56.562,-11.16
56.578,-12.73
56.593,-15.04
56.609,-17.79
56.625,-20.63
56.640,-23.32
56.656,-25.63
56.671,-27.44
56.687,-28.63
56.703,-29.18
56.718,-29.03
56.734,-28.27
56.750,-27.04
56.765,-25.42
56.781,-23.54
56.796,-21.44
56.812,-19.15
56.828,-16.64
56.843,-13.92
56.859,-10.95
56.875,-7.81
56.890,-4.74
56.906,-1.98
56.921,0.1
56.937,1.25
56.953,1.3
56.968,0.37
56.984,-1.36
57.000,-3.54
57.015,-5.83
57.031,-7.93
57.046,-9.44
57.062,-10.02
57.078,-9.4
57.093,-7.46
57.109,-4.34
57.125,-0.34
57.140,4.07
57.156,8.4
57.171,12.29
57.187,15.62
57.203,18.35
57.218,20.48
57.234,21.94
57.250,22.55
57.265,22.17
57.281,20.76
57.296,18.43
57.312,15.45
57.328,12.12
57.343,8.55
57.359,4.68
57.375,0.43
57.390,-4.29
57.406,-9.21
57.421,-13.96
57.437,-18.1
57.453,-21.42
57.468,-24.0
57.484,-26.18
57.500,-28.28
57.515,-30.38
57.531,-32.31
57.546,-33.76
57.562,-34.48
57.578,-34.4
57.593,-33.59
57.609,-32.2
57.625,-30.38
57.640,-28.16
57.656,-25.64
57.671,-23.07
57.687,-20.83
57.703,-19.21
57.718,-18.49
57.734,-18.57
57.750,-19.14
57.765,-19.73
57.781,-19.77
57.796,-18.75
57.812,-16.49
57.828,-13.12
57.843,-9.19
57.859,-5.58
57.875,-3.1
57.890,-2.28
57.906,-3.12
57.921,-4.99
57.937,-6.96
57.953,-8.23
57.968,-8.3
57.984,-7.02
58.000,-4.52
58.015,-0.93
58.031,3.63
58.046,8.9
58.062,14.52
58.078,19.88
58.093,24.15
58.109,26.63
58.125,26.94
58.140,25.02
58.156,21.11
58.171,15.64
58.187,8.86
58.203,1.13
58.218,-7.21
58.234,-15.79
58.250,-24.04
58.265,-31.39
58.281,-37.3
58.296,-41.25
58.312,-42.79
58.328,-41.77
58.343,-38.17
58.359,-32.28
58.375,-24.64
58.390,-15.8
58.406,-6.41
58.421,3.04
58.437,12.16
58.453,20.63
58.468,28.06
58.484,34.09
58.500,38.42
58.515,40.83
58.531,41.39
58.546,40.23
58.562,37.52
58.578,33.4
58.593,28.05
58.609,21.64
58.625,14.39
58.640,6.68
58.656,-1.14
58.671,-8.67
58.687,-15.71
58.703,-22.07
58.718,-27.64
58.734,-32.31
58.750,-35.97
58.765,-38.59
58.781,-40.08
58.796,-40.43
58.812,-39.41
58.828,-36.92
58.843,-32.84
58.859,-27.2
58.875,-20.29
58.890,-12.58
58.906,-4.71
58.921,2.87
58.937,9.8
58.953,16.07
58.968,21.69
58.984,26.62
59.000,30.66
59.015,33.5
59.031,34.75
59.046,34.08
59.062,31.43
59.078,26.81
59.093,20.47
59.109,12.66
59.125,3.73
59.140,-5.89
59.156,-15.63
59.171,-24.79
59.187,-32.77
59.203,-39.05
59.218,-43.49
59.234,-46.18
59.250,-47.49
59.265,-47.83
59.281,-47.52
59.296,-46.76
59.312,-45.52
59.328,-43.76
59.343,-41.36
59.359,-38.29
59.375,-34.49
59.390,-29.91
59.406,-24.48
59.421,-18.07
59.437,-10.77
59.453,-2.81
59.468,5.25
59.484,12.7
59.500,18.75
59.515,22.75
59.531,24.31
59.546,23.27
59.562,19.78
59.578,14.13
59.593,6.88
59.609,-1.33
59.625,-9.71
59.640,-17.4
59.656,-23.67
59.671,-27.95
59.687,-30.06
59.703,-30.2
59.718,-28.91
59.734,-26.85
59.750,-24.62
59.765,-22.58
59.781,-20.8
59.796,-19.07
59.812,-17.06
59.828,-14.46
59.843,-11.06
59.859,-6.84
59.875,-1.9
59.890,3.52
59.906,9.11
59.921,14.55
59.937,19.51
59.953,23.73
59.968,26.99
59.984,29.15
