timestamp,value
00.000,-14.22
00.015,-13.27
00.031,-12.4
00.046,-11.24
00.062,-9.49
00.078,-7.07
00.093,-4.16
00.109,-1.06
00.125,1.9
00.140,4.44
00.156,6.48
00.171,8.03
00.187,9.21
00.203,10.13
00.218,10.86
00.234,11.39
00.250,11.71
00.265,11.86
00.281,11.85
00.296,11.75
00.312,11.59
00.328,11.32
00.343,10.89
00.359,10.21
00.375,9.17
00.390,7.74
00.406,6.03
00.421,4.24
00.437,2.68
00.453,1.61
00.468,1.13
00.484,1.2
00.500,1.55
00.515,1.76
00.531,1.49
00.546,0.56
00.562,-0.98
00.578,-2.89
00.593,-4.82
00.609,-6.56
00.625,-8.04
00.640,-9.4
00.656,-10.85
00.671,-12.51
00.687,-14.25
00.703,-15.81
00.718,-16.81
00.734,-16.94
00.750,-16.16
00.765,-14.56
00.781,-12.43
00.796,-10.05
00.812,-7.65
00.828,-5.28
00.843,-2.96
00.859,-0.58
00.875,1.93
00.890,4.55
00.906,7.12
00.921,9.38
00.937,11.02
00.953,11.91
00.968,12.07
00.984,11.72
01.000,11.27
01.015,10.98
01.031,10.95
01.046,11.04
01.062,11.01
01.078,10.66
01.093,10.01
01.109,9.3
01.125,8.77
01.140,8.68
01.156,8.99
01.171,9.47
01.187,9.75
01.203,9.6
01.218,8.96
01.234,7.94
01.250,6.81
01.265,5.75
01.281,4.79
01.296,3.79
01.312,2.63
01.328,1.32
01.343,-0.04
01.359,-1.36
01.375,-2.69
01.390,-4.22
01.406,-6.16
01.421,-8.55
01.437,-11.13
01.453,-13.46
01.468,-15.15
01.484,-16.04
01.500,-16.31
01.515,-16.38
01.531,-16.55
01.546,-16.85
01.562,-16.96
01.578,-16.4
01.593,-14.9
01.609,-12.55
01.625,-9.82
01.640,-7.24
01.656,-5.19
01.671,-3.67
01.687,-2.38
01.703,-0.9
01.718,1.02
01.734,3.26
01.750,5.49
01.765,7.25
01.781,8.35
01.796,8.81
01.812,8.93
01.828,9.02
01.843,9.31
01.859,9.87
01.875,10.6
01.890,11.46
01.906,12.26
01.921,12.88
01.937,13.1
01.953,12.86
01.968,12.14
01.984,11.15
02.000,10.21
02.015,9.51
02.031,9.17
02.046,9.03
02.062,8.85
02.078,8.42
02.093,7.78
02.109,7.0
02.125,6.15
02.140,5.14
02.156,3.76
02.171,1.88
02.187,-0.44
02.203,-2.85
02.218,-4.93
02.234,-6.42
02.250,-7.35
02.265,-7.98
02.281,-8.72
02.296,-9.83
02.312,-11.42
02.328,-13.34
02.343,-15.33
02.359,-17.12
02.375,-18.51
02.390,-19.31
02.406,-19.39
02.421,-18.72
02.437,-17.24
02.453,-15.07
02.468,-12.3
02.484,-9.19
02.500,-5.93
02.515,-2.87
02.531,-0.22
02.546,1.96
02.562,3.59
02.578,4.88
02.593,5.94
02.609,6.86
02.625,7.69
02.640,8.5
02.656,9.31
02.671,10.13
02.687,10.98
02.703,11.75
02.718,12.41
02.734,12.94
02.750,13.34
02.765,13.74
02.781,14.13
02.796,14.45
02.812,14.52
02.828,14.18
02.843,13.3
02.859,11.95
02.875,10.34
02.890,8.72
02.906,7.27
02.921,6.04
02.937,5.11
02.953,4.42
02.968,3.97
02.984,3.59
03.000,3.21
03.015,2.65
03.031,1.8
03.046,0.7
03.062,-0.6
03.078,-1.95
03.093,-3.27
03.109,-4.46
03.125,-5.66
03.140,-6.91
03.156,-8.34
03.171,-10.0
03.187,-11.84
03.203,-13.79
03.218,-15.72
03.234,-17.56
03.250,-19.11
03.265,-20.23
03.281,-20.66
03.296,-20.21
03.312,-18.73
03.328,-16.18
03.343,-12.76
03.359,-8.77
03.375,-4.6
03.390,-0.57
03.406,3.07
03.421,6.25
03.437,8.91
03.453,11.11
03.468,12.8
03.484,13.84
03.500,14.13
03.515,13.62
03.531,12.57
03.546,11.33
03.562,10.32
03.578,9.71
03.593,9.41
03.609,9.12
03.625,8.58
03.640,7.83
03.656,7.13
03.671,6.99
03.687,7.61
03.703,8.92
03.718,10.53
03.734,11.88
03.750,12.63
03.765,12.64
03.781,12.05
03.796,10.96
03.812,9.5
03.828,7.65
03.843,5.4
03.859,2.95
03.875,0.57
03.890,-1.38
03.906,-2.76
03.921,-3.6
03.937,-4.24
03.953,-4.89
03.968,-5.77
03.984,-7.0
04.000,-8.49
04.015,-10.28
04.031,-12.32
04.046,-14.56
04.062,-16.78
04.078,-18.74
04.093,-20.08
04.109,-20.58
04.125,-20.16
04.140,-18.83
04.156,-16.74
04.171,-13.93
04.187,-10.44
04.203,-6.33
04.218,-1.84
04.234,2.61
04.250,6.44
04.265,9.26
04.281,10.9
04.296,11.53
04.312,11.56
04.328,11.47
04.343,11.57
04.359,11.87
04.375,12.24
04.390,12.42
04.406,12.34
04.421,12.17
04.437,12.2
04.453,12.73
04.468,13.92
04.484,15.62
04.500,17.52
04.515,19.08
04.531,19.78
04.546,19.22
04.562,17.25
04.578,14.06
04.593,10.11
04.609,5.99
04.625,2.25
04.640,-0.81
04.656,-3.15
04.671,-4.92
04.687,-6.31
04.703,-7.42
04.718,-8.23
04.734,-8.65
04.750,-8.73
04.765,-8.72
04.781,-8.99
04.796,-9.87
04.812,-11.49
04.828,-13.68
04.843,-16.11
04.859,-18.4
04.875,-20.23
04.890,-21.42
04.906,-21.86
04.921,-21.5
04.937,-20.28
04.953,-18.26
04.968,-15.62
04.984,-12.72
05.000,-9.94
05.015,-7.48
05.031,-5.27
05.046,-3.05
05.062,-0.54
05.078,2.4
05.093,5.51
05.109,8.44
05.125,10.79
05.140,12.41
05.156,13.51
05.171,14.44
05.187,15.65
05.203,17.29
05.218,19.28
05.234,21.13
05.250,22.22
05.265,21.97
05.281,20.04
05.296,16.6
05.312,12.33
05.328,8.4
05.343,6.22
05.359,6.97
05.375,10.97
05.390,17.41
05.406,24.38
05.421,29.28
05.437,29.97
05.453,25.36
05.468,16.23
05.484,4.71
05.500,-6.52
05.515,-15.47
05.531,-21.53
05.546,-25.58
05.562,-29.14
05.578,-33.29
05.593,-38.07
05.609,-42.23
05.625,-43.94
05.640,-41.84
05.656,-35.84
05.671,-27.38
05.687,-19.05
05.703,-13.72
05.718,-13.39
05.734,-18.59
05.750,-27.99
05.765,-38.74
05.781,-47.19
05.796,-49.51
05.812,-42.46
05.828,-24.39
05.843,3.63
05.859,37.2
05.875,68.81
05.890,89.85
05.906,93.42
05.921,77.13
05.937,44.46
05.953,3.76
05.968,-34.74
05.984,-62.4
06.000,-74.46
06.015,-70.53
06.031,-53.04
06.046,-25.38
06.062,9.57
06.078,49.23
06.093,90.1
06.109,126.74
06.125,152.0
06.140,158.84
06.156,143.16
06.171,106.32
06.187,55.82
06.203,3.39
06.218,-38.92
06.234,-62.86
06.250,-66.45
06.265,-53.53
06.281,-31.1
06.296,-5.77
06.312,18.64
06.328,41.21
06.343,61.88
06.359,79.3
06.375,89.67
06.390,87.89
06.406,70.33
06.421,37.39
06.437,-5.51
06.453,-49.36
06.468,-84.68
06.484,-105.02
06.500,-108.76
06.515,-98.9
06.531,-80.99
06.546,-60.74
06.562,-42.02
06.578,-26.54
06.593,-14.42
06.609,-5.43
06.625,0.18
06.640,1.62
06.656,-2.19
06.671,-11.69
06.687,-25.98
06.703,-42.49
06.718,-57.48
06.734,-67.07
06.750,-68.7
06.765,-61.96
06.781,-48.57
06.796,-31.3
06.812,-12.63
06.828,6.0
06.843,23.82
06.859,39.8
06.875,52.02
06.890,57.79
06.906,55.0
06.921,43.39
06.937,25.18
06.953,4.46
06.968,-14.31
06.984,-27.89
07.000,-35.07
07.015,-36.21
07.031,-32.27
07.046,-23.98
07.062,-11.75
07.078,3.71
07.093,20.63
07.109,36.1
07.125,46.73
07.140,49.95
07.156,45.13
07.171,33.79
07.187,19.04
07.203,4.22
07.218,-8.21
07.234,-17.22
07.250,-22.81
07.265,-25.29
07.281,-24.56
07.296,-20.05
07.312,-11.48
07.328,0.39
07.343,13.34
07.359,24.01
07.375,29.01
07.390,26.45
07.406,16.62
07.421,1.91
07.437,-14.02
07.453,-27.82
07.468,-37.47
07.484,-42.7
07.500,-44.37
07.515,-43.66
07.531,-41.17
07.546,-36.75
07.562,-29.8
07.578,-19.86
07.593,-7.19
07.609,7.03
07.625,20.87
07.640,32.19
07.656,39.11
07.671,40.66
07.687,36.97
07.703,29.21
07.718,19.21
07.734,8.83
07.750,-0.43
07.765,-7.64
07.781,-12.33
07.796,-14.42
07.812,-14.02
07.828,-11.4
07.843,-7.06
07.859,-1.47
07.875,4.89
07.890,11.87
07.906,19.46
07.921,27.32
07.937,34.4
07.953,39.04
07.968,39.49
07.984,34.82
08.000,25.64
08.015,13.9
08.031,2.28
08.046,-7.09
08.062,-13.27
08.078,-16.56
08.093,-17.72
08.109,-17.31
08.125,-15.37
08.140,-11.71
08.156,-6.61
08.171,-1.21
08.187,2.71
08.203,3.43
08.218,0.08
08.234,-6.78
08.250,-15.58
08.265,-24.28
08.281,-31.07
08.296,-34.95
08.312,-35.71
08.328,-33.79
08.343,-29.89
08.359,-24.7
08.375,-18.82
08.390,-12.85
08.406,-7.22
08.421,-2.14
08.437,2.35
08.453,6.48
08.468,10.5
08.484,14.46
08.500,18.12
08.515,21.01
08.531,22.53
08.546,22.3
08.562,20.4
08.578,17.19
08.593,13.32
08.609,9.23
08.625,5.22
08.640,1.4
08.656,-1.98
08.671,-4.55
08.687,-5.82
08.703,-5.32
08.718,-2.98
08.734,0.93
08.750,5.66
08.765,10.25
08.781,13.69
08.796,15.29
08.812,14.79
08.828,12.4
08.843,8.69
08.859,4.37
08.875,0.08
08.890,-3.89
08.906,-7.48
08.921,-10.84
08.937,-14.02
08.953,-16.87
08.968,-19.14
08.984,-20.57
09.000,-21.13
09.015,-20.92
09.031,-20.17
09.046,-19.05
09.062,-17.66
09.078,-16.06
09.093,-14.31
09.109,-12.48
09.125,-10.55
09.140,-8.63
09.156,-6.73
09.171,-4.98
09.187,-3.55
09.203,-2.51
09.218,-1.78
09.234,-1.02
09.250,0.12
09.265,1.97
09.281,4.42
09.296,7.08
09.312,9.37
09.328,10.86
09.343,11.51
09.359,11.66
09.375,11.81
09.390,12.34
09.406,13.34
09.421,14.53
09.437,15.45
09.453,15.77
09.468,15.34
09.484,14.35
09.500,13.15
09.515,12.05
09.531,11.11
09.546,10.13
09.562,8.85
09.578,7.14
09.593,5.21
09.609,3.44
09.625,2.27
09.640,1.91
09.656,2.18
09.671,2.69
09.687,2.92
09.703,2.59
09.718,1.6
09.734,0.12
09.750,-1.75
09.765,-3.9
09.781,-6.38
09.796,-9.26
09.812,-12.47
09.828,-15.84
09.843,-19.13
09.859,-22.05
09.875,-24.27
09.890,-25.51
09.906,-25.55
09.921,-24.34
09.937,-21.99
09.953,-18.77
09.968,-14.96
09.984,-10.94
10.000,-6.95
10.015,-3.16
10.031,0.26
10.046,3.16
10.062,5.45
10.078,7.13
10.093,8.21
10.109,8.85
10.125,9.25
10.140,9.61
10.156,10.09
10.171,10.83
10.187,11.82
10.203,13.03
10.218,14.35
10.234,15.67
10.250,16.85
10.265,17.83
10.281,18.56
10.296,18.95
10.312,18.93
10.328,18.39
10.343,17.32
10.359,15.75
10.375,13.93
10.390,12.19
10.406,10.8
10.421,9.85
10.437,9.19
10.453,8.58
10.468,7.76
10.484,6.57
10.500,5.04
10.515,3.37
10.531,1.86
10.546,0.74
10.562,-0.02
10.578,-0.63
10.593,-1.55
10.609,-3.23
10.625,-5.95
10.640,-9.63
10.656,-13.97
10.671,-18.51
10.687,-22.71
10.703,-26.13
10.718,-28.48
10.734,-29.49
10.750,-29.07
10.765,-27.2
10.781,-24.05
10.796,-20.03
10.812,-15.76
10.828,-11.79
10.843,-8.43
10.859,-5.73
10.875,-3.35
10.890,-0.94
10.906,1.72
10.921,4.63
10.937,7.59
10.953,10.31
10.968,12.63
10.984,14.55
11.000,16.09
11.015,17.35
11.031,18.31
11.046,18.88
11.062,19.02
11.078,18.75
11.093,18.2
11.109,17.5
11.125,16.68
11.140,15.72
11.156,14.62
11.171,13.44
11.187,12.27
11.203,11.35
11.218,10.71
11.234,10.23
11.250,9.73
11.265,8.94
11.281,7.67
11.296,5.96
11.312,3.83
11.328,1.37
11.343,-1.31
11.359,-4.13
11.375,-6.86
11.390,-9.22
11.406,-11.02
11.421,-12.21
11.437,-12.99
11.453,-13.72
11.468,-14.74
11.484,-16.14
11.500,-17.72
11.515,-19.05
11.531,-19.64
11.546,-19.25
11.562,-17.85
11.578,-15.7
11.593,-13.15
11.609,-10.44
11.625,-7.69
11.640,-4.87
11.656,-2.0
11.671,0.88
11.687,3.59
11.703,5.99
11.718,8.01
11.734,9.63
11.750,10.95
11.765,12.05
11.781,12.9
11.796,13.49
11.812,13.76
11.828,13.76
11.843,13.61
11.859,13.47
11.875,13.36
11.890,13.29
11.906,13.22
11.921,13.04
11.937,12.82
11.953,12.51
11.968,12.1
11.984,11.56
12.000,10.84
12.015,9.96
12.031,9.07
12.046,8.32
12.062,7.72
12.078,7.2
12.093,6.47
12.109,5.32
12.125,3.64
12.140,1.45
12.156,-1.01
12.171,-3.58
12.187,-6.06
12.203,-8.4
12.218,-10.55
12.234,-12.43
12.250,-14.01
12.265,-15.24
12.281,-16.23
12.296,-17.05
12.312,-17.78
12.328,-18.39
12.343,-18.83
12.359,-18.92
12.375,-18.48
12.390,-17.45
12.406,-15.71
12.421,-13.35
12.437,-10.49
12.453,-7.36
12.468,-4.26
12.484,-1.54
12.500,0.64
12.515,2.24
12.531,3.41
12.546,4.54
12.562,5.89
12.578,7.64
12.593,9.67
12.609,11.71
12.625,13.49
12.640,14.96
12.656,16.17
12.671,17.27
12.687,18.3
12.703,19.11
12.718,19.46
12.734,19.17
12.750,18.24
12.765,16.95
12.781,15.65
12.796,14.53
12.812,13.58
12.828,12.71
12.843,11.8
12.859,10.9
12.875,10.15
12.890,9.54
12.906,8.88
12.921,7.81
12.937,5.99
12.953,3.37
12.968,0.3
12.984,-2.66
13.000,-5.02
13.015,-6.61
13.031,-7.65
13.046,-8.56
13.062,-9.82
13.078,-11.66
13.093,-13.91
13.109,-16.29
13.125,-18.4
13.140,-19.94
13.156,-20.95
13.171,-21.51
13.187,-21.71
13.203,-21.6
13.218,-20.98
13.234,-19.58
13.250,-17.28
13.265,-14.15
13.281,-10.5
13.296,-6.8
13.312,-3.52
13.328,-0.84
13.343,1.28
13.359,3.07
13.375,4.71
13.390,6.14
13.406,7.17
13.421,7.63
13.437,7.52
13.453,7.16
13.468,7.04
13.484,7.54
13.500,8.87
13.515,10.8
13.531,12.87
13.546,14.63
13.562,15.87
13.578,16.61
13.593,17.09
13.609,17.53
13.625,17.85
13.640,17.98
13.656,17.7
13.671,16.96
13.687,15.9
13.703,14.81
13.718,13.96
13.734,13.46
13.750,13.17
13.765,12.66
13.781,11.54
13.796,9.59
13.812,6.86
13.828,3.72
13.843,0.58
13.859,-2.17
13.875,-4.34
13.890,-5.99
13.906,-7.5
13.921,-9.17
13.937,-11.32
13.953,-14.07
13.968,-17.29
13.984,-20.77
14.000,-24.1
14.015,-26.96
14.031,-29.01
14.046,-30.04
14.062,-29.83
14.078,-28.33
14.093,-25.56
14.109,-21.68
14.125,-17.17
14.140,-12.5
14.156,-8.22
14.171,-4.63
14.187,-1.75
14.203,0.69
14.218,2.97
14.234,5.3
14.250,7.72
14.265,10.02
14.281,11.99
14.296,13.49
14.312,14.45
14.328,14.97
14.343,15.13
14.359,15.06
14.375,14.91
14.390,14.88
14.406,15.15
14.421,15.86
14.437,16.88
14.453,17.9
14.468,18.46
14.484,18.13
14.500,16.79
14.515,14.63
14.531,12.21
14.546,10.11
14.562,8.82
14.578,8.42
14.593,8.6
14.609,8.86
14.625,8.57
14.640,7.39
14.656,5.19
14.671,2.13
14.687,-1.43
14.703,-4.86
14.718,-7.53
14.734,-8.77
14.750,-8.14
14.765,-5.82
14.781,-2.67
14.796,-0.18
14.812,-0.04
14.828,-3.45
14.843,-10.63
14.859,-20.62
14.875,-31.53
14.890,-41.22
14.906,-48.05
14.921,-51.21
14.937,-50.76
14.953,-47.2
14.968,-41.07
14.984,-32.8
15.000,-22.82
15.015,-11.82
15.031,-0.92
15.046,8.58
15.062,15.6
15.078,19.65
15.093,21.06
15.109,20.66
15.125,19.38
15.140,17.91
15.156,16.59
15.171,15.47
15.187,14.57
15.203,14.02
15.218,13.91
15.234,14.3
15.250,15.04
15.265,15.8
15.281,16.24
15.296,16.12
15.312,15.42
15.328,14.33
15.343,13.08
15.359,11.85
15.375,10.72
15.390,9.73
15.406,8.82
15.421,7.9
15.437,6.82
15.453,5.41
15.468,3.65
15.484,1.54
15.500,-0.73
15.515,-2.95
15.531,-4.97
15.546,-6.75
15.562,-8.43
15.578,-10.23
15.593,-12.33
15.609,-14.74
15.625,-17.4
15.640,-20.11
15.656,-22.59
15.671,-24.6
15.687,-25.92
15.703,-26.33
15.718,-25.66
15.734,-23.86
15.750,-20.99
15.765,-17.27
15.781,-13.05
15.796,-8.64
15.812,-4.37
15.828,-0.47
15.843,2.97
15.859,5.93
15.875,8.43
15.890,10.5
15.906,12.11
15.921,13.27
15.937,13.94
15.953,14.12
15.968,13.96
15.984,13.64
16.000,13.34
16.015,13.26
16.031,13.48
16.046,13.97
16.062,14.54
16.078,14.95
16.093,14.94
16.109,14.46
16.125,13.65
16.140,12.75
16.156,12.06
16.171,11.75
16.187,11.76
16.203,11.85
16.218,11.68
16.234,11.0
16.250,9.78
16.265,8.17
16.281,6.27
16.296,4.2
16.312,1.94
16.328,-0.57
16.343,-3.18
16.359,-5.72
16.375,-7.98
16.390,-9.91
16.406,-11.67
16.421,-13.64
16.437,-16.11
16.453,-19.13
16.468,-22.46
16.484,-25.51
16.500,-27.7
16.515,-28.64
16.531,-28.26
16.546,-26.71
16.562,-24.26
16.578,-21.08
16.593,-17.25
16.609,-12.89
16.625,-8.1
16.640,-3.15
16.656,1.6
16.671,5.82
16.687,9.25
16.703,11.73
16.718,13.29
16.734,14.07
16.750,14.22
16.765,14.0
16.781,13.6
16.796,13.17
16.812,12.83
16.828,12.65
16.843,12.66
16.859,12.88
16.875,13.3
16.890,13.85
16.906,14.54
16.921,15.25
16.937,15.86
16.953,16.15
16.968,15.89
16.984,14.95
17.000,13.36
17.015,11.28
17.031,9.02
17.046,6.97
17.062,5.38
17.078,4.24
17.093,3.4
17.109,2.56
17.125,1.52
17.140,0.22
17.156,-1.32
17.171,-2.99
17.187,-4.69
17.203,-6.31
17.218,-7.92
17.234,-9.6
17.250,-11.43
17.265,-13.51
17.281,-15.88
17.296,-18.43
17.312,-20.95
17.328,-23.14
17.343,-24.64
17.359,-25.12
17.375,-24.32
17.390,-22.13
17.406,-18.67
17.421,-14.24
17.437,-9.26
17.453,-4.26
17.468,0.27
17.484,3.96
17.500,6.69
17.515,8.53
17.531,9.7
17.546,10.43
17.562,10.98
17.578,11.48
17.593,11.93
17.609,12.29
17.625,12.45
17.640,12.41
17.656,12.13
17.671,11.71
17.687,11.23
17.703,10.9
17.718,10.86
17.734,11.14
17.750,11.67
17.765,12.21
17.781,12.47
17.796,12.21
17.812,11.4
17.828,10.17
17.843,8.81
17.859,7.53
17.875,6.42
17.890,5.47
17.906,4.54
17.921,3.67
17.937,2.85
17.953,2.17
17.968,1.47
17.984,0.56
18.000,-0.84
18.015,-2.85
18.031,-5.34
18.046,-8.09
18.062,-10.79
18.078,-13.29
18.093,-15.59
18.109,-17.78
18.125,-19.86
18.140,-21.73
18.156,-23.06
18.171,-23.52
18.187,-22.95
18.203,-21.26
18.218,-18.71
18.234,-15.56
18.250,-12.09
18.265,-8.55
18.281,-5.13
18.296,-1.94
18.312,0.93
18.328,3.39
18.343,5.48
18.359,7.16
18.375,8.46
18.390,9.45
18.406,10.08
18.421,10.38
18.437,10.5
18.453,10.58
18.468,10.75
18.484,11.13
18.500,11.64
18.515,12.11
18.531,12.42
18.546,12.42
18.562,12.18
18.578,11.78
18.593,11.26
18.609,10.62
18.625,9.91
18.640,9.14
18.656,8.42
18.671,7.85
18.687,7.39
18.703,6.85
18.718,5.95
18.734,4.37
18.750,2.08
18.765,-0.58
18.781,-3.21
18.796,-5.34
18.812,-6.76
18.828,-7.48
18.843,-7.77
18.859,-7.95
18.875,-8.39
18.890,-9.34
18.906,-10.9
18.921,-13.13
18.937,-15.79
18.953,-18.54
18.968,-20.87
18.984,-22.29
19.000,-22.47
19.015,-21.28
19.031,-18.82
19.046,-15.34
19.062,-11.18
19.078,-6.67
19.093,-2.23
19.109,1.8
19.125,5.11
19.140,7.59
19.156,9.25
19.171,10.23
19.187,10.66
19.203,10.51
19.218,9.78
19.234,8.48
19.250,6.73
19.265,4.83
19.281,3.15
19.296,2.03
19.312,1.65
19.328,2.11
19.343,3.25
19.359,4.86
19.375,6.64
19.390,8.27
19.406,9.46
19.421,10.03
19.437,9.97
19.453,9.42
19.468,8.6
19.484,7.74
19.500,6.93
19.515,6.06
19.531,4.99
19.546,3.61
19.562,1.89
19.578,-0.02
19.593,-1.94
19.609,-3.73
19.625,-5.36
19.640,-6.82
19.656,-8.16
19.671,-9.29
19.687,-10.08
19.703,-10.55
19.718,-10.9
19.734,-11.55
19.750,-12.89
19.765,-15.0
19.781,-17.54
19.796,-19.87
19.812,-21.27
19.828,-21.26
19.843,-19.81
19.859,-17.24
19.875,-14.22
19.890,-11.31
19.906,-8.83
19.921,-6.75
19.937,-4.8
19.953,-2.69
19.968,-0.22
19.984,2.57
20.000,5.5
20.015,8.19
20.031,10.35
20.046,11.85
20.062,12.69
20.078,13.02
20.093,12.88
20.109,12.34
20.125,11.41
20.140,10.23
20.156,8.98
20.171,7.94
20.187,7.42
20.203,7.53
20.218,8.35
20.234,9.7
20.250,11.3
20.265,12.75
20.281,13.72
20.296,14.0
20.312,13.51
20.328,12.4
20.343,10.78
20.359,8.87
20.375,6.8
20.390,4.56
20.406,2.11
20.421,-0.6
20.437,-3.41
20.453,-6.08
20.468,-8.22
20.484,-9.68
20.500,-10.52
20.515,-11.13
20.531,-12.05
20.546,-13.74
20.562,-16.3
20.578,-19.36
20.593,-22.34
20.609,-24.59
20.625,-25.78
20.640,-25.87
20.656,-25.04
20.671,-23.53
20.687,-21.5
20.703,-19.11
20.718,-16.41
20.734,-13.56
20.750,-10.69
20.765,-7.92
20.781,-5.31
20.796,-2.87
20.812,-0.6
20.828,1.46
20.843,3.26
20.859,4.81
20.875,6.19
20.890,7.49
20.906,8.73
20.921,9.77
20.937,10.39
20.953,10.36
20.968,9.72
20.984,8.78
21.000,7.9
21.015,7.42
21.031,7.41
21.046,7.77
21.062,8.3
21.078,8.83
21.093,9.21
21.109,9.35
21.125,9.13
21.140,8.48
21.156,7.4
21.171,6.18
21.187,5.14
21.203,4.54
21.218,4.31
21.234,4.1
21.250,3.49
21.265,2.17
21.281,0.23
21.296,-2.0
21.312,-4.14
21.328,-5.94
21.343,-7.45
21.359,-8.94
21.375,-10.59
21.390,-12.4
21.406,-14.24
21.421,-15.84
21.437,-17.02
21.453,-17.72
21.468,-17.92
21.484,-17.63
21.500,-16.92
21.515,-15.82
21.531,-14.42
21.546,-12.9
21.562,-11.36
21.578,-9.89
21.593,-8.41
21.609,-6.74
21.625,-4.75
21.640,-2.47
21.656,-0.14
21.671,1.95
21.687,3.55
21.703,4.75
21.718,5.74
21.734,6.78
21.750,7.92
21.765,9.04
21.781,9.91
21.796,10.43
21.812,10.65
21.828,10.77
21.843,11.06
21.859,11.5
21.875,11.99
21.890,12.3
21.906,12.22
21.921,11.72
21.937,10.9
21.953,9.9
21.968,8.89
21.984,7.98
22.000,7.21
22.015,6.6
22.031,6.06
22.046,5.35
22.062,4.24
22.078,2.56
22.093,0.32
22.109,-2.25
22.125,-4.75
22.140,-6.85
22.156,-8.42
22.171,-9.61
22.187,-10.83
22.203,-12.43
22.218,-14.56
22.234,-17.13
22.250,-19.9
22.265,-22.55
22.281,-24.81
22.296,-26.47
22.312,-27.35
22.328,-27.32
22.343,-26.26
22.359,-24.22
22.375,-21.4
22.390,-18.1
22.406,-14.59
22.421,-10.99
22.437,-7.34
22.453,-3.49
22.468,0.54
22.484,4.59
22.500,8.29
22.515,11.19
22.531,13.01
22.546,13.64
22.562,13.31
22.578,12.33
22.593,11.18
22.609,10.18
22.625,9.65
22.640,9.69
22.656,10.29
22.671,11.35
22.687,12.61
22.703,13.79
22.718,14.54
22.734,14.77
22.750,14.47
22.765,13.79
22.781,12.9
22.796,11.91
22.812,10.82
22.828,9.67
22.843,8.53
22.859,7.54
22.875,6.76
22.890,6.17
22.906,5.6
22.921,4.89
22.937,3.89
22.953,2.59
22.968,1.11
22.984,-0.44
23.000,-1.96
23.015,-3.47
23.031,-4.98
23.046,-6.68
23.062,-8.65
23.078,-11.06
23.093,-13.94
23.109,-17.2
23.125,-20.54
23.140,-23.53
23.156,-25.77
23.171,-26.91
23.187,-26.86
23.203,-25.61
23.218,-23.36
23.234,-20.25
23.250,-16.52
23.265,-12.44
23.281,-8.28
23.296,-4.32
23.312,-0.77
23.328,2.22
23.343,4.66
23.359,6.56
23.375,7.99
23.390,9.05
23.406,9.87
23.421,10.67
23.437,11.58
23.453,12.71
23.468,13.89
23.484,14.87
23.500,15.48
23.515,15.64
23.531,15.63
23.546,15.77
23.562,16.37
23.578,17.48
23.593,18.84
23.609,19.97
23.625,20.38
23.640,19.88
23.656,18.48
23.671,16.49
23.687,14.22
23.703,12.02
23.718,10.01
23.734,8.13
23.750,6.26
23.765,4.28
23.781,2.24
23.796,0.27
23.812,-1.39
23.828,-2.63
23.843,-3.43
23.859,-3.97
23.875,-4.62
23.890,-5.6
23.906,-7.05
23.921,-8.92
23.937,-11.08
23.953,-13.36
23.968,-15.67
23.984,-18.0
24.000,-20.22
24.015,-22.19
24.031,-23.57
24.046,-24.05
24.062,-23.44
24.078,-21.8
24.093,-19.37
24.109,-16.43
24.125,-13.26
24.140,-9.98
24.156,-6.65
24.171,-3.27
24.187,-0.01
24.203,2.95
24.218,5.46
24.234,7.41
24.250,8.88
24.265,10.03
24.281,11.04
24.296,12.02
24.312,13.02
24.328,13.9
24.343,14.54
24.359,14.83
24.375,14.68
24.390,14.15
24.406,13.42
24.421,12.68
24.437,12.14
24.453,11.9
24.468,11.89
24.484,11.96
24.500,11.99
24.515,11.84
24.531,11.46
24.546,10.85
24.562,9.95
24.578,8.77
24.593,7.31
24.609,5.51
24.625,3.46
24.640,1.26
24.656,-0.95
24.671,-2.99
24.687,-4.75
24.703,-6.26
24.718,-7.58
24.734,-8.9
24.750,-10.4
24.765,-12.16
24.781,-14.05
24.796,-15.85
24.812,-17.25
24.828,-18.01
24.843,-18.04
24.859,-17.33
24.875,-15.93
24.890,-13.9
24.906,-11.31
24.921,-8.3
24.937,-5.13
24.953,-2.07
24.968,0.59
24.984,2.65
25.000,4.12
25.015,5.14
25.031,5.94
25.046,6.8
25.062,7.73
25.078,8.67
25.093,9.44
25.109,9.92
25.125,10.14
25.140,10.26
25.156,10.48
25.171,10.87
25.187,11.44
25.203,12.01
25.218,12.46
25.234,12.75
25.250,13.0
25.265,13.36
25.281,13.83
25.296,14.24
25.312,14.23
25.328,13.61
25.343,12.29
25.359,10.45
25.375,8.41
25.390,6.49
25.406,4.86
25.421,3.49
25.437,2.26
25.453,1.05
25.468,-0.14
25.484,-1.32
25.500,-2.44
25.515,-3.55
25.531,-4.76
25.546,-6.14
25.562,-7.85
25.578,-9.83
25.593,-12.02
25.609,-14.28
25.625,-16.54
25.640,-18.72
25.656,-20.67
25.671,-22.15
25.687,-22.77
25.703,-22.25
25.718,-20.41
25.734,-17.39
25.750,-13.74
25.765,-10.13
25.781,-7.19
25.796,-5.15
25.812,-3.86
25.828,-2.79
25.843,-1.35
25.859,0.88
25.875,4.02
25.890,7.8
25.906,11.86
25.921,15.68
25.937,18.95
25.953,21.47
25.968,23.14
25.984,23.96
26.000,23.98
26.015,23.28
26.031,21.96
26.046,20.22
26.062,18.19
26.078,15.97
26.093,13.65
26.109,11.29
26.125,8.86
26.140,6.41
26.156,3.96
26.171,1.6
26.187,-0.46
26.203,-1.99
26.218,-2.76
26.234,-2.68
26.250,-1.85
26.265,-0.68
26.281,0.27
26.296,0.52
26.312,-0.13
26.328,-1.49
26.343,-3.11
26.359,-4.58
26.375,-5.73
26.390,-6.7
26.406,-7.81
26.421,-9.38
26.437,-11.44
26.453,-13.79
26.468,-16.06
26.484,-17.94
26.500,-19.24
26.515,-19.89
26.531,-19.83
26.546,-18.89
26.562,-16.99
26.578,-14.18
26.593,-10.78
26.609,-7.24
26.625,-4.04
26.640,-1.49
26.656,0.39
26.671,1.77
26.687,2.99
26.703,4.35
26.718,6.01
26.734,7.85
26.750,9.72
26.765,11.26
26.781,12.17
26.796,12.22
26.812,11.37
26.828,9.8
26.843,7.98
26.859,6.45
26.875,5.54
26.890,5.42
26.906,5.95
26.921,6.78
26.937,7.62
26.953,8.2
26.968,8.38
26.984,8.14
27.000,7.47
27.015,6.34
27.031,4.85
27.046,3.18
27.062,1.56
27.078,0.19
27.093,-0.92
27.109,-1.95
27.125,-3.15
27.140,-4.7
27.156,-6.53
27.171,-8.45
27.187,-10.16
27.203,-11.42
27.218,-12.24
27.234,-12.81
27.250,-13.51
27.265,-14.59
27.281,-16.17
27.296,-18.1
27.312,-20.1
27.328,-21.78
27.343,-22.87
27.359,-23.17
27.375,-22.63
27.390,-21.26
27.406,-19.01
27.421,-15.87
27.437,-11.84
27.453,-7.1
27.468,-2.0
27.484,2.93
27.500,7.26
27.515,10.59
27.531,12.74
27.546,13.77
27.562,13.87
27.578,13.35
27.593,12.6
27.609,11.9
27.625,11.51
27.640,11.54
27.656,11.97
27.671,12.59
27.687,13.26
27.703,13.74
27.718,13.97
27.734,13.96
27.750,13.65
27.765,13.04
27.781,12.07
27.796,10.71
27.812,8.99
27.828,7.21
27.843,5.66
27.859,4.61
27.875,4.22
27.890,4.32
27.906,4.69
27.921,4.96
27.937,4.87
27.953,4.22
27.968,3.04
27.984,1.41
28.000,-0.55
28.015,-2.63
28.031,-4.75
28.046,-6.76
28.062,-8.71
28.078,-10.71
28.093,-12.87
28.109,-15.21
28.125,-17.63
28.140,-19.87
28.156,-21.61
28.171,-22.66
28.187,-22.96
28.203,-22.57
28.218,-21.53
28.234,-19.85
28.250,-17.54
28.265,-14.66
28.281,-11.33
28.296,-7.8
28.312,-4.27
28.328,-0.96
28.343,2.03
28.359,4.58
28.375,6.64
28.390,8.14
28.406,9.11
28.421,9.65
28.437,9.96
28.453,10.21
28.468,10.51
28.484,10.94
28.500,11.51
28.515,12.23
28.531,13.06
28.546,13.96
28.562,14.8
28.578,15.47
28.593,15.77
28.609,15.57
28.625,14.91
28.640,13.88
28.656,12.65
28.671,11.37
28.687,10.14
28.703,8.88
28.718,7.54
28.734,6.02
28.750,4.28
28.765,2.45
28.781,0.73
28.796,-0.7
28.812,-1.77
28.828,-2.62
28.843,-3.55
28.859,-4.85
28.875,-6.67
28.890,-8.99
28.906,-11.56
28.921,-14.17
28.937,-16.59
28.953,-18.77
28.968,-20.69
28.984,-22.36
29.000,-23.77
29.015,-24.81
29.031,-25.4
29.046,-25.39
29.062,-24.65
29.078,-22.94
29.093,-20.08
29.109,-16.1
29.125,-11.29
29.140,-6.26
29.156,-1.69
29.171,1.84
29.187,4.13
29.203,5.39
29.218,6.1
29.234,6.79
29.250,7.72
29.265,8.87
29.281,9.83
29.296,10.2
29.312,9.68
29.328,8.33
29.343,6.51
29.359,4.73
29.375,3.55
29.390,3.33
29.406,4.38
29.421,6.71
29.437,10.08
29.453,13.87
29.468,17.1
29.484,18.64
29.500,17.65
29.515,14.19
29.531,9.36
29.546,5.13
29.562,3.53
29.578,5.79
29.593,11.69
29.609,19.49
29.625,26.8
29.640,31.29
29.656,31.63
29.671,27.66
29.687,20.1
29.703,10.05
29.718,-1.41
29.734,-13.41
29.750,-25.18
29.765,-35.9
29.781,-44.81
29.796,-51.27
29.812,-55.1
29.828,-56.63
29.843,-56.63
29.859,-55.96
29.875,-55.15
29.890,-54.38
29.906,-53.22
29.921,-50.95
29.937,-46.68
29.953,-39.68
29.968,-29.79
29.984,-17.63
30.000,-4.67
30.015,7.35
30.031,16.72
30.046,22.65
30.062,25.28
30.078,25.55
30.093,24.59
30.109,23.01
30.125,20.71
30.140,17.08
30.156,11.67
30.171,4.57
30.187,-3.39
30.203,-11.0
30.218,-17.25
30.234,-21.53
30.250,-23.7
30.265,-23.8
30.281,-21.89
30.296,-17.87
30.312,-11.68
30.328,-3.48
30.343,6.27
30.359,16.85
30.375,27.58
30.390,37.99
30.406,48.05
30.421,57.88
30.437,67.61
30.453,76.98
30.468,85.21
30.484,91.13
30.500,93.31
30.515,90.83
30.531,83.43
30.546,71.84
30.562,57.55
30.578,42.48
30.593,28.39
30.609,16.62
30.625,7.93
30.640,2.59
30.656,0.71
30.671,2.08
30.687,6.18
30.703,11.97
30.718,17.9
30.734,22.09
30.750,22.9
30.765,19.37
30.781,11.63
30.796,0.94
30.812,-10.75
30.828,-21.45
30.843,-29.8
30.859,-35.4
30.875,-38.7
30.890,-40.53
30.906,-41.6
30.921,-42.22
30.937,-42.2
30.953,-41.06
30.968,-38.47
30.984,-34.42
31.000,-29.34
31.015,-23.9
31.031,-18.76
31.046,-14.37
31.062,-10.86
31.078,-8.08
31.093,-5.71
31.109,-3.49
31.125,-1.34
31.140,0.52
31.156,1.71
31.171,1.91
31.187,1.11
31.203,-0.46
31.218,-2.33
31.234,-4.06
31.250,-5.43
31.265,-6.45
31.281,-7.31
31.296,-8.14
31.312,-8.89
31.328,-9.36
31.343,-9.34
31.359,-8.78
31.375,-8.0
31.390,-7.53
31.406,-7.87
31.421,-9.33
31.437,-11.92
31.453,-15.31
31.468,-19.0
31.484,-22.46
31.500,-25.11
31.515,-26.51
31.531,-26.33
31.546,-24.46
31.562,-21.09
31.578,-16.68
31.593,-11.74
31.609,-6.82
31.625,-2.3
31.640,1.6
31.656,4.81
31.671,7.25
31.687,9.0
31.703,10.14
31.718,10.91
31.734,11.6
31.750,12.36
31.765,13.18
31.781,13.9
31.796,14.29
31.812,14.32
31.828,14.1
31.843,13.75
31.859,13.42
31.875,13.08
31.890,12.64
31.906,12.08
31.921,11.43
31.937,10.72
31.953,10.05
31.968,9.38
31.984,8.55
32.000,7.37
32.015,5.74
32.031,3.68
32.046,1.45
32.062,-0.74
32.078,-2.88
32.093,-4.95
32.109,-7.07
32.125,-9.34
32.140,-11.8
32.156,-14.41
32.171,-17.15
32.187,-19.99
32.203,-22.83
32.218,-25.71
32.234,-28.56
32.250,-31.33
32.265,-33.96
32.281,-36.33
32.296,-38.15
32.312,-39.03
32.328,-38.38
32.343,-35.71
32.359,-30.84
32.375,-24.26
32.390,-17.02
32.406,-10.49
32.421,-5.74
32.437,-2.99
32.453,-1.48
32.468,0.49
32.484,4.86
32.500,13.04
32.515,25.39
32.531,40.99
32.546,57.97
32.562,74.08
32.578,87.15
32.593,95.6
32.609,98.56
32.625,95.93
32.640,88.24
32.656,76.65
32.671,62.79
32.687,48.46
32.703,35.33
32.718,24.53
32.734,16.48
32.750,10.86
32.765,6.88
32.781,3.49
32.796,-0.14
32.812,-4.48
32.828,-9.67
32.843,-15.53
32.859,-21.73
32.875,-27.94
32.890,-33.82
32.906,-39.04
32.921,-43.34
32.937,-46.39
32.953,-47.86
32.968,-47.58
32.984,-45.6
33.000,-42.31
33.015,-38.43
33.031,-34.82
33.046,-32.12
33.062,-30.56
33.078,-29.88
33.093,-29.41
33.109,-28.41
33.125,-26.5
33.140,-23.85
33.156,-21.06
33.171,-18.86
33.187,-17.62
33.203,-17.1
33.218,-16.66
33.234,-15.62
33.250,-13.64
33.265,-10.89
33.281,-7.96
33.296,-5.44
33.312,-3.56
33.328,-2.27
33.343,-1.26
33.359,-0.25
33.375,0.86
33.390,2.1
33.406,3.54
33.421,5.43
33.437,7.97
33.453,11.22
33.468,14.83
33.484,18.11
33.500,20.29
33.515,20.7
33.531,19.16
33.546,15.97
33.562,12.03
33.578,8.4
33.593,6.06
33.609,5.55
33.625,6.81
33.640,9.12
33.656,11.46
33.671,12.91
33.687,13.02
33.703,11.98
33.718,10.34
33.734,8.74
33.750,7.42
33.765,6.28
33.781,4.94
33.796,3.18
33.812,1.14
33.828,-0.8
33.843,-2.32
33.859,-3.45
33.875,-4.48
33.890,-5.92
33.906,-8.03
33.921,-10.65
33.937,-13.13
33.953,-14.69
33.968,-14.72
33.984,-13.11
34.000,-10.2
34.015,-6.55
34.031,-2.76
34.046,0.7
34.062,3.61
34.078,5.96
34.093,7.9
34.109,9.6
34.125,11.21
34.140,12.71
34.156,14.01
34.171,15.01
34.187,15.62
34.203,15.87
34.218,15.93
34.234,16.01
34.250,16.21
34.265,16.44
34.281,16.45
34.296,15.88
34.312,14.49
34.328,12.34
34.343,9.75
34.359,7.13
34.375,5.0
34.390,3.67
34.406,3.18
34.421,3.36
34.437,3.92
34.453,4.48
34.468,4.92
34.484,5.14
34.500,5.11
34.515,4.81
34.531,4.22
34.546,3.3
34.562,2.06
34.578,0.51
34.593,-1.28
34.609,-3.23
34.625,-5.17
34.640,-7.04
34.656,-8.83
34.671,-10.51
34.687,-12.13
34.703,-13.72
34.718,-15.31
34.734,-16.79
34.750,-17.92
34.765,-18.46
34.781,-18.17
34.796,-17.02
34.812,-15.21
34.828,-12.99
34.843,-10.5
34.859,-7.75
34.875,-4.63
34.890,-1.13
34.906,2.52
34.921,5.95
34.937,8.75
34.953,10.69
34.968,11.85
34.984,12.59
35.000,13.26
35.015,14.02
35.031,14.78
35.046,15.24
35.062,15.23
35.078,14.77
35.093,14.06
35.109,13.41
35.125,12.97
35.140,12.66
35.156,12.31
35.171,11.72
35.187,10.86
35.203,9.89
35.218,8.94
35.234,8.16
35.250,7.55
35.265,6.88
35.281,5.95
35.296,4.7
35.312,3.26
35.328,1.9
35.343,0.86
35.359,0.2
35.375,-0.27
35.390,-0.8
35.406,-1.71
35.421,-3.15
35.437,-5.04
35.453,-7.16
35.468,-9.3
35.484,-11.35
35.500,-13.38
35.515,-15.5
35.531,-17.69
35.546,-19.74
35.562,-21.27
35.578,-21.83
35.593,-21.18
35.609,-19.26
35.625,-16.28
35.640,-12.65
35.656,-8.79
35.671,-4.93
35.687,-1.25
35.703,2.27
35.718,5.59
35.734,8.52
35.750,10.82
35.765,12.33
35.781,13.02
35.796,13.18
35.812,13.32
35.828,13.83
35.843,14.87
35.859,16.24
35.875,17.37
35.890,17.7
35.906,17.0
35.921,15.36
35.937,13.2
35.953,10.99
35.968,9.02
35.984,7.25
36.000,5.55
36.015,3.71
36.031,1.76
36.046,-0.09
36.062,-1.62
36.078,-2.69
36.093,-3.29
36.109,-3.64
36.125,-3.92
36.140,-4.26
36.156,-4.72
36.171,-5.24
36.187,-5.88
36.203,-6.73
36.218,-8.02
36.234,-9.87
36.250,-12.3
36.265,-15.12
36.281,-18.02
36.296,-20.68
36.312,-22.78
36.328,-24.12
36.343,-24.55
36.359,-24.0
36.375,-22.44
36.390,-19.93
36.406,-16.61
36.421,-12.68
36.437,-8.49
36.453,-4.34
36.468,-0.54
36.484,2.66
36.500,5.2
36.515,7.03
36.531,8.25
36.546,9.03
36.562,9.55
36.578,9.95
36.593,10.34
36.609,10.72
36.625,10.97
36.640,11.01
36.656,10.85
36.671,10.62
36.687,10.54
36.703,10.8
36.718,11.47
36.734,12.41
36.750,13.32
36.765,13.85
36.781,13.78
36.796,13.07
36.812,11.84
36.828,10.38
36.843,8.91
36.859,7.51
36.875,6.2
36.890,4.82
36.906,3.26
36.921,1.43
36.937,-0.66
36.953,-2.94
36.968,-5.23
36.984,-7.45
37.000,-9.52
37.015,-11.48
37.031,-13.41
37.046,-15.34
37.062,-17.28
37.078,-19.23
37.093,-21.12
37.109,-22.73
37.125,-23.79
37.140,-23.88
37.156,-22.72
37.171,-20.25
37.187,-16.71
37.203,-12.51
37.218,-8.24
37.234,-4.26
37.250,-0.76
37.265,2.38
37.281,5.34
37.296,8.23
37.312,10.96
37.328,13.3
37.343,15.09
37.359,16.19
37.375,16.68
37.390,16.71
37.406,16.49
37.421,16.11
37.437,15.63
37.453,15.05
37.468,14.34
37.484,13.55
37.500,12.76
37.515,12.07
37.531,11.49
37.546,10.94
37.562,10.26
37.578,9.42
37.593,8.49
37.609,7.58
37.625,6.73
37.640,5.89
37.656,4.87
37.671,3.5
37.687,1.72
37.703,-0.33
37.718,-2.29
37.734,-3.83
37.750,-4.73
37.765,-5.06
37.781,-5.06
37.796,-5.04
37.812,-5.31
37.828,-6.17
37.843,-7.72
37.859,-9.94
37.875,-12.7
37.890,-15.57
37.906,-18.13
37.921,-20.0
37.937,-20.92
37.953,-20.8
37.968,-19.69
37.984,-17.68
38.000,-14.95
38.015,-11.76
38.031,-8.36
38.046,-5.07
38.062,-2.14
38.078,0.36
38.093,2.53
38.109,4.53
38.125,6.56
38.140,8.62
38.156,10.6
38.171,12.22
38.187,13.22
38.203,13.48
38.218,13.12
38.234,12.45
38.250,11.84
38.265,11.61
38.281,11.81
38.296,12.22
38.312,12.57
38.328,12.51
38.343,11.88
38.359,10.74
38.375,9.26
38.390,7.71
38.406,6.3
38.421,5.12
38.437,4.15
38.453,3.34
38.468,2.59
38.484,1.76
38.500,0.78
38.515,-0.39
38.531,-1.68
38.546,-2.97
38.562,-4.14
38.578,-5.05
38.593,-5.69
38.609,-6.17
38.625,-6.7
38.640,-7.58
38.656,-9.04
38.671,-11.15
38.687,-13.8
38.703,-16.61
38.718,-19.16
38.734,-20.97
38.750,-21.63
38.765,-20.86
38.781,-18.56
38.796,-14.82
38.812,-9.98
38.828,-4.6
38.843,0.6
38.859,4.9
38.875,7.89
38.890,9.5
38.906,10.03
38.921,9.88
38.937,9.48
38.953,9.07
38.968,8.76
38.984,8.58
39.000,8.6
39.015,8.94
39.031,9.67
39.046,10.75
39.062,11.88
39.078,12.74
39.093,12.95
39.109,12.45
39.125,11.48
39.140,10.37
39.156,9.52
39.171,9.02
39.187,8.66
39.203,8.13
39.218,7.11
39.234,5.47
39.250,3.34
39.265,0.91
39.281,-1.61
39.296,-4.15
39.312,-6.68
39.328,-9.33
39.343,-12.12
39.359,-14.99
39.375,-17.86
39.390,-20.56
39.406,-23.12
39.421,-25.62
39.437,-28.21
39.453,-30.94
39.468,-33.76
39.484,-36.45
39.500,-38.65
39.515,-40.11
39.531,-40.71
39.546,-40.49
39.562,-39.55
39.578,-38.02
39.593,-36.02
39.609,-33.61
39.625,-30.88
39.640,-27.94
39.656,-24.93
39.671,-21.91
39.687,-18.89
39.703,-15.75
39.718,-12.45
39.734,-8.98
39.750,-5.5
39.765,-2.32
39.781,0.27
39.796,2.12
39.812,3.57
39.828,5.37
39.843,8.6
39.859,14.17
39.875,22.39
39.890,32.59
39.906,43.26
39.921,52.63
39.937,59.34
39.953,62.92
39.968,63.53
39.984,61.58
40.000,57.25
40.015,50.49
40.031,41.29
40.046,30.25
40.062,18.84
40.078,9.13
40.093,3.02
40.109,1.5
40.125,4.24
40.140,9.93
40.156,16.75
40.171,23.32
40.187,28.95
40.203,33.68
40.218,37.73
40.234,41.27
40.250,44.1
40.265,45.85
40.281,46.3
40.296,45.51
40.312,43.9
40.328,41.92
40.343,39.91
40.359,37.82
40.375,35.36
40.390,32.19
40.406,28.14
40.421,23.27
40.437,17.84
40.453,12.26
40.468,6.75
40.484,1.47
40.500,-3.76
40.515,-9.15
40.531,-14.98
40.546,-21.39
40.562,-28.37
40.578,-35.8
40.593,-43.38
40.609,-50.81
40.625,-57.75
40.640,-63.84
40.656,-68.74
40.671,-72.24
40.687,-74.41
40.703,-75.62
40.718,-76.49
40.734,-77.54
40.750,-79.05
40.765,-80.99
40.781,-83.08
40.796,-85.2
40.812,-87.46
40.828,-90.27
40.843,-94.14
40.859,-99.41
40.875,-106.03
40.890,-113.61
40.906,-121.34
40.921,-128.07
40.937,-132.49
40.953,-133.2
40.968,-129.22
40.984,-120.21
41.000,-106.82
41.015,-90.41
41.031,-72.6
41.046,-54.38
41.062,-35.57
41.078,-14.87
41.093,9.52
41.109,38.86
41.125,73.0
41.140,109.91
41.156,146.05
41.171,177.3
41.187,200.03
41.203,212.1
41.218,213.18
41.234,204.74
41.250,189.28
41.265,169.64
41.281,148.24
41.296,126.79
41.312,106.36
41.328,87.5
41.343,70.59
41.359,55.81
41.375,43.11
41.390,32.13
41.406,22.21
41.421,12.69
41.437,3.17
41.453,-6.19
41.468,-14.91
41.484,-22.2
41.500,-27.56
41.515,-30.71
41.531,-31.77
41.546,-31.0
41.562,-28.64
41.578,-24.76
41.593,-19.35
41.609,-12.49
41.625,-4.47
41.640,4.11
41.656,12.57
41.671,20.2
41.687,26.46
41.703,31.01
41.718,33.79
41.734,34.88
41.750,34.54
41.765,33.03
41.781,30.63
41.796,27.54
41.812,23.82
41.828,19.42
41.843,14.22
41.859,8.16
41.875,1.38
41.890,-5.65
41.906,-12.23
41.921,-17.59
41.937,-21.09
41.953,-22.54
41.968,-22.11
41.984,-20.21
42.000,-17.37
42.015,-13.96
42.031,-10.25
42.046,-6.45
42.062,-2.81
42.078,0.36
42.093,2.75
42.109,4.23
42.125,4.86
42.140,4.79
42.156,4.28
42.171,3.49
42.187,2.62
42.203,1.75
42.218,1.04
42.234,0.53
42.250,0.35
42.265,0.51
42.281,0.92
42.296,1.5
42.312,2.08
42.328,2.6
42.343,2.96
42.359,3.19
42.375,3.19
42.390,2.98
42.406,2.59
42.421,2.06
42.437,1.55
42.453,1.09
42.468,0.72
42.484,0.28
42.500,-0.42
42.515,-1.69
42.531,-3.7
42.546,-6.55
42.562,-10.21
42.578,-14.46
42.593,-19.08
42.609,-23.71
42.625,-28.12
42.640,-32.02
42.656,-35.21
42.671,-37.49
42.687,-38.79
42.703,-39.17
42.718,-38.72
42.734,-37.59
42.750,-35.81
42.765,-33.34
42.781,-30.07
42.796,-25.92
42.812,-21.11
42.828,-16.12
42.843,-11.65
42.859,-8.16
42.875,-5.85
42.890,-4.44
42.906,-3.45
42.921,-2.47
42.937,-1.36
42.953,-0.38
42.968,0.17
42.984,0.16
43.000,-0.17
43.015,-0.36
43.031,0.16
43.046,1.64
43.062,4.02
43.078,6.93
43.093,9.8
43.109,12.3
43.125,14.3
43.140,15.95
43.156,17.47
43.171,19.05
43.187,20.68
43.203,22.2
43.218,23.42
43.234,24.17
43.250,24.59
43.265,24.93
43.281,25.44
43.296,26.21
43.312,26.98
43.328,27.37
43.343,26.85
43.359,25.17
43.375,22.36
43.390,18.75
43.406,14.71
43.421,10.45
43.437,6.06
43.453,1.37
43.468,-3.62
43.484,-8.76
43.500,-13.53
43.515,-17.39
43.531,-19.83
43.546,-20.65
43.562,-20.0
43.578,-18.13
43.593,-15.41
43.609,-12.04
43.625,-8.21
43.640,-4.08
43.656,0.05
43.671,3.85
43.687,7.08
43.703,9.56
43.718,11.4
43.734,12.68
43.750,13.62
43.765,14.24
43.781,14.57
43.796,14.66
43.812,14.58
43.828,14.59
43.843,14.91
43.859,15.79
43.875,17.39
43.890,19.68
43.906,22.41
43.921,25.14
43.937,27.44
43.953,28.88
43.968,29.28
43.984,28.66
44.000,27.4
44.015,25.98
44.031,24.73
44.046,23.84
44.062,23.12
44.078,22.25
44.093,20.79
44.109,18.45
44.125,15.14
44.140,10.98
44.156,6.16
44.171,0.83
44.187,-4.76
44.203,-10.32
44.218,-15.4
44.234,-19.69
44.250,-22.97
44.265,-25.37
44.281,-27.26
44.296,-29.03
44.312,-30.87
44.328,-32.58
44.343,-33.6
44.359,-33.37
44.375,-31.57
44.390,-28.13
44.406,-23.4
44.421,-17.89
44.437,-12.13
44.453,-6.63
44.468,-1.82
44.484,1.94
44.500,4.39
44.515,5.57
44.531,5.8
44.546,5.49
44.562,5.09
44.578,4.82
44.593,4.57
44.609,4.09
44.625,3.09
44.640,1.56
44.656,-0.22
44.671,-1.73
44.687,-2.44
44.703,-2.08
44.718,-0.75
44.734,1.18
44.750,3.26
44.765,5.04
44.781,6.34
44.796,7.22
44.812,7.85
44.828,8.4
44.843,9.05
44.859,9.91
44.875,11.04
44.890,12.38
44.906,13.7
44.921,14.56
44.937,14.59
44.953,13.49
44.968,11.23
44.984,7.97
45.000,3.93
45.015,-0.77
45.031,-6.03
45.046,-11.86
45.062,-18.13
45.078,-24.5
45.093,-30.55
45.109,-35.73
45.125,-39.59
45.140,-41.82
45.156,-42.28
45.171,-40.98
45.187,-38.09
45.203,-33.85
45.218,-28.56
45.234,-22.6
45.250,-16.32
45.265,-10.02
45.281,-4.07
45.296,1.32
45.312,6.03
45.328,10.1
45.343,13.65
45.359,16.79
45.375,19.58
45.390,21.94
45.406,23.71
45.421,24.7
45.437,24.87
45.453,24.29
45.468,23.18
45.484,21.79
45.500,20.25
45.515,18.69
45.531,17.18
45.546,15.79
45.562,14.51
45.578,13.43
45.593,12.43
45.609,11.37
45.625,10.19
45.640,8.81
45.656,7.34
45.671,5.98
45.687,4.94
45.703,4.28
45.718,3.96
45.734,3.7
45.750,3.1
45.765,1.88
45.781,-0.19
45.796,-3.03
45.812,-6.43
45.828,-10.0
45.843,-13.42
45.859,-16.41
45.875,-18.96
45.890,-21.21
45.906,-23.37
45.921,-25.65
45.937,-28.01
45.953,-30.22
45.968,-31.86
45.984,-32.51
46.000,-31.89
46.015,-29.9
46.031,-26.67
46.046,-22.4
46.062,-17.38
46.078,-11.87
46.093,-6.23
46.109,-0.79
46.125,4.12
46.140,8.31
46.156,11.77
46.171,14.58
46.187,16.82
46.203,18.41
46.218,19.17
46.234,18.91
46.250,17.72
46.265,15.91
46.281,13.99
46.296,12.47
46.312,11.56
46.328,11.27
46.343,11.32
46.359,11.39
46.375,11.31
46.390,11.14
46.406,11.1
46.421,11.5
46.437,12.56
46.453,14.09
46.468,15.56
46.484,16.02
46.500,14.44
46.515,10.22
46.531,3.49
46.546,-4.76
46.562,-12.95
46.578,-19.43
46.593,-23.22
46.609,-24.15
46.625,-23.1
46.640,-21.65
46.656,-21.65
46.671,-24.76
46.687,-31.89
46.703,-42.76
46.718,-55.72
46.734,-68.24
46.750,-77.48
46.765,-81.22
46.781,-78.46
46.796,-69.65
46.812,-56.4
46.828,-40.84
46.843,-25.0
46.859,-10.43
46.875,1.78
46.890,11.21
46.906,17.82
46.921,21.95
46.937,24.21
46.953,25.2
46.968,25.38
46.984,24.95
47.000,23.92
47.015,22.11
47.031,19.37
47.046,15.57
47.062,10.65
47.078,4.94
47.093,-0.99
47.109,-6.28
47.125,-10.11
47.140,-12.12
47.156,-12.72
47.171,-12.95
47.187,-14.07
47.203,-16.88
47.218,-21.12
47.234,-25.6
47.250,-28.61
47.265,-28.77
47.281,-25.57
47.296,-19.57
47.312,-11.98
47.328,-4.02
47.343,3.52
47.359,10.46
47.375,16.71
47.390,22.06
47.406,25.98
47.421,27.89
47.437,27.54
47.453,25.31
47.468,22.23
47.484,19.37
47.500,17.48
47.515,16.59
47.531,16.07
47.546,14.97
47.562,12.65
47.578,8.9
47.593,4.12
47.609,-0.85
47.625,-5.19
47.640,-8.32
47.656,-9.97
47.671,-10.28
47.687,-9.66
47.703,-8.56
47.718,-7.27
47.734,-5.9
47.750,-4.31
47.765,-2.42
47.781,-0.28
47.796,1.99
47.812,4.07
47.828,5.72
47.843,6.78
47.859,7.38
47.875,7.67
47.890,7.9
47.906,8.19
47.921,8.55
47.937,8.95
47.953,9.33
47.968,9.68
47.984,9.95
48.000,10.14
48.015,10.14
48.031,10.0
48.046,9.69
48.062,9.25
48.078,8.63
48.093,7.67
48.109,6.26
48.125,4.36
48.140,2.17
48.156,-0.09
48.171,-1.97
48.187,-3.24
48.203,-3.87
48.218,-4.06
48.234,-4.25
48.250,-4.63
48.265,-5.15
48.281,-5.62
48.296,-5.86
48.312,-5.9
48.328,-6.03
48.343,-6.66
48.359,-8.14
48.375,-10.55
48.390,-13.59
48.406,-16.69
48.421,-19.25
48.437,-20.76
48.453,-20.97
48.468,-19.87
48.484,-17.68
48.500,-14.71
48.515,-11.38
48.531,-8.0
48.546,-4.76
48.562,-1.76
48.578,0.95
48.593,3.33
48.609,5.2
48.625,6.37
48.640,6.79
48.656,6.58
48.671,6.03
48.687,5.49
48.703,5.3
48.718,5.61
48.734,6.39
48.750,7.46
48.765,8.54
48.781,9.42
48.796,9.9
48.812,9.99
48.828,9.77
48.843,9.41
48.859,9.09
48.875,8.83
48.890,8.51
48.906,8.0
48.921,7.23
48.937,6.3
48.953,5.43
48.968,4.75
48.984,4.25
49.000,3.64
49.015,2.6
49.031,0.93
49.046,-1.23
49.062,-3.51
49.078,-5.52
49.093,-7.18
49.109,-8.74
49.125,-10.64
49.140,-13.18
49.156,-16.27
49.171,-19.4
49.187,-21.86
49.203,-23.17
49.218,-23.22
49.234,-22.32
49.250,-20.87
49.265,-19.14
49.281,-17.08
49.296,-14.49
49.312,-11.14
49.328,-7.1
49.343,-2.74
49.359,1.5
49.375,5.21
49.390,8.29
49.406,10.77
49.421,12.75
49.437,14.26
49.453,15.1
49.468,15.09
49.484,14.11
49.500,12.4
49.515,10.45
49.531,8.81
49.546,7.86
49.562,7.7
49.578,8.15
49.593,8.88
49.609,9.57
49.625,10.07
49.640,10.33
49.656,10.39
49.671,10.2
49.687,9.72
49.703,8.85
49.718,7.62
49.734,6.15
49.750,4.58
49.765,3.06
49.781,1.63
49.796,0.23
49.812,-1.3
49.828,-2.98
49.843,-4.78
49.859,-6.65
49.875,-8.51
49.890,-10.37
49.906,-12.28
49.921,-14.33
49.937,-16.42
49.953,-18.37
49.968,-19.8
49.984,-20.33
50.000,-19.75
50.015,-18.08
50.031,-15.6
50.046,-12.68
50.062,-9.71
50.078,-6.94
50.093,-4.5
50.109,-2.32
50.125,-0.23
50.140,1.84
50.156,3.89
50.171,5.71
50.187,7.16
50.203,8.11
50.218,8.64
50.234,8.96
50.250,9.26
50.265,9.71
50.281,10.24
50.296,10.76
50.312,10.98
50.328,10.88
50.343,10.51
50.359,10.13
50.375,9.98
50.390,10.19
50.406,10.76
50.421,11.53
50.437,12.41
50.453,13.15
50.468,13.59
50.484,13.56
50.500,12.99
50.515,11.9
50.531,10.38
50.546,8.59
50.562,6.7
50.578,4.84
50.593,3.02
50.609,1.25
50.625,-0.49
50.640,-2.09
50.656,-3.4
50.671,-4.4
50.687,-5.26
50.703,-6.31
50.718,-7.87
50.734,-10.18
50.750,-13.1
50.765,-16.26
50.781,-19.2
50.796,-21.41
50.812,-22.64
50.828,-22.75
50.843,-21.84
50.859,-19.99
50.875,-17.34
50.890,-14.02
50.906,-10.27
50.921,-6.49
50.937,-2.94
50.953,0.06
50.968,2.49
50.984,4.37
51.000,5.96
51.015,7.38
51.031,8.69
51.046,9.74
51.062,10.28
51.078,10.23
51.093,9.71
51.109,9.16
51.125,9.07
51.140,9.75
51.156,11.12
51.171,12.83
51.187,14.37
51.203,15.41
51.218,15.92
51.234,16.07
51.250,16.13
51.265,16.22
51.281,16.25
51.296,15.95
51.312,15.15
51.328,13.84
51.343,12.15
51.359,10.32
51.375,8.46
51.390,6.62
51.406,4.74
51.421,2.7
51.437,0.47
51.453,-1.88
51.468,-4.13
51.484,-6.14
51.500,-7.76
51.515,-9.11
51.531,-10.39
51.546,-11.9
51.562,-13.88
51.578,-16.38
51.593,-19.23
51.609,-21.94
51.625,-24.05
51.640,-25.03
51.656,-24.58
51.671,-22.71
51.687,-19.64
51.703,-15.82
51.718,-11.74
51.734,-7.85
51.750,-4.43
51.765,-1.69
51.781,0.44
51.796,2.07
51.812,3.34
51.828,4.45
51.843,5.47
51.859,6.43
51.875,7.29
51.890,7.99
51.906,8.4
51.921,8.55
51.937,8.59
51.953,8.74
51.968,9.27
51.984,10.28
52.000,11.71
52.015,13.31
52.031,14.73
52.046,15.63
52.062,15.78
52.078,15.18
52.093,13.86
52.109,12.07
52.125,10.05
52.140,7.97
52.156,5.96
52.171,4.07
52.187,2.31
52.203,0.63
52.218,-0.95
52.234,-2.46
52.250,-3.79
52.265,-4.86
52.281,-5.64
52.296,-6.28
52.312,-7.05
52.328,-8.3
52.343,-10.39
52.359,-13.39
52.375,-17.1
52.390,-21.03
52.406,-24.64
52.421,-27.53
52.437,-29.44
52.453,-30.21
52.468,-29.77
52.484,-28.0
52.500,-24.89
52.515,-20.5
52.531,-15.22
52.546,-9.62
52.562,-4.36
52.578,0.14
52.593,3.76
52.609,6.69
52.625,9.19
52.640,11.39
52.656,13.17
52.671,14.29
52.687,14.54
52.703,13.96
52.718,12.83
52.734,11.64
52.750,10.82
52.765,10.61
52.781,10.99
52.796,11.7
52.812,12.52
52.828,13.3
52.843,14.0
52.859,14.58
52.875,14.96
52.890,15.1
52.906,15.0
52.921,14.73
52.937,14.39
52.953,14.06
52.968,13.65
52.984,13.0
53.000,11.87
53.015,10.05
53.031,7.63
53.046,4.78
53.062,1.8
53.078,-1.08
53.093,-3.74
53.109,-6.22
53.125,-8.58
53.140,-10.83
53.156,-13.07
53.171,-15.33
53.187,-17.72
53.203,-20.25
53.218,-22.8
53.234,-25.21
53.250,-27.23
53.265,-28.55
53.281,-28.99
53.296,-28.48
53.312,-27.01
53.328,-24.61
53.343,-21.41
53.359,-17.55
53.375,-13.27
53.390,-8.92
53.406,-4.75
53.421,-0.98
53.437,2.28
53.453,5.06
53.468,7.37
53.484,9.18
53.500,10.52
53.515,11.44
53.531,12.03
53.546,12.44
53.562,12.74
53.578,12.94
53.593,12.99
53.609,12.84
53.625,12.42
53.640,11.81
53.656,11.16
53.671,10.54
53.687,10.08
53.703,9.65
53.718,9.06
53.734,8.1
53.750,6.62
53.765,4.63
53.781,2.36
53.796,0.08
53.812,-2.1
53.828,-4.18
53.843,-6.39
53.859,-9.05
53.875,-12.33
53.890,-16.12
53.906,-20.08
53.921,-23.75
53.937,-26.85
53.953,-29.44
53.968,-31.83
53.984,-34.49
54.000,-37.84
54.015,-41.98
54.031,-46.81
54.046,-52.02
54.062,-57.31
54.078,-62.51
54.093,-67.55
54.109,-72.34
54.125,-76.81
54.140,-80.84
54.156,-84.31
54.171,-87.24
54.187,-89.75
54.203,-92.01
54.218,-94.33
54.234,-96.9
54.250,-99.89
54.265,-103.36
54.281,-107.15
54.296,-111.06
54.312,-115.02
54.328,-119.12
54.343,-123.66
54.359,-128.99
54.375,-135.02
54.390,-141.07
54.406,-145.93
54.421,-148.32
54.437,-147.65
54.453,-144.36
54.468,-139.73
54.484,-135.01
54.500,-130.74
54.515,-126.3
54.531,-120.37
54.546,-111.86
54.562,-100.5
54.578,-87.15
54.593,-73.18
54.609,-59.84
54.625,-47.73
54.640,-37.0
54.656,-27.68
54.671,-20.16
54.687,-15.04
54.703,-12.41
54.718,-11.4
54.734,-9.78
54.750,-4.62
54.765,6.63
54.781,25.11
54.796,49.99
54.812,78.61
54.828,107.4
54.843,132.99
54.859,152.96
54.875,166.32
54.890,173.3
54.906,174.93
54.921,172.43
54.937,166.81
54.953,158.79
54.968,148.94
54.984,138.18
55.000,127.92
55.015,120.25
55.031,117.4
55.046,121.18
55.062,132.14
55.078,149.39
55.093,170.91
55.109,194.29
55.125,217.67
55.140,239.96
55.156,260.97
55.171,280.71
55.187,298.97
55.203,314.84
55.218,327.04
55.234,334.45
55.250,336.38
55.265,332.67
55.281,323.26
55.296,307.84
55.312,285.73
55.328,256.45
55.343,220.34
55.359,179.22
55.375,136.1
55.390,94.42
55.406,56.77
55.421,24.16
55.437,-4.11
55.453,-29.74
55.468,-54.29
55.484,-78.22
55.500,-100.63
55.515,-119.72
55.531,-133.71
55.546,-141.88
55.562,-144.84
55.578,-143.49
55.593,-137.43
55.609,-123.77
55.625,-97.67
55.640,-55.4
55.656,1.68
55.671,64.94
55.687,120.52
55.703,154.8
55.718,161.41
55.734,145.32
55.750,121.04
55.765,105.86
55.781,111.75
55.796,140.56
55.812,184.77
55.828,233.29
55.843,277.45
55.859,313.8
55.875,342.66
55.890,364.14
55.906,375.19
55.921,370.23
55.937,344.61
55.953,298.37
55.968,237.78
55.984,173.58
56.000,116.86
56.015,75.07
56.031,50.01
56.046,38.81
56.062,36.6
56.078,39.38
56.093,45.47
56.109,55.19
56.125,69.67
56.140,89.66
56.156,114.86
56.171,143.78
56.187,174.42
56.203,204.87
56.218,233.56
56.234,259.6
56.250,282.7
56.265,302.8
56.281,319.69
56.296,332.77
56.312,340.77
56.328,342.24
56.343,335.97
56.359,321.15
56.375,297.79
56.390,266.77
56.406,229.62
56.421,188.2
56.437,144.45
56.453,99.69
56.468,54.79
56.484,10.09
56.500,-34.31
56.515,-78.09
56.531,-120.43
56.546,-160.08
56.562,-195.6
56.578,-225.86
56.593,-250.65
56.609,-270.87
56.625,-288.39
56.640,-305.38
56.656,-323.34
56.671,-342.66
56.687,-362.46
56.703,-381.27
56.718,-397.81
56.734,-411.89
56.750,-424.58
56.765,-437.87
56.781,-453.8
56.796,-473.52
56.812,-497.36
56.828,-524.73
56.843,-554.06
56.859,-582.45
56.875,-605.56
56.890,-617.59
56.906,-612.84
56.921,-587.48
56.937,-540.87
56.953,-476.17
56.968,-399.11
56.984,-315.49
57.000,-229.22
57.015,-141.74
57.031,-53.52
57.046,33.33
57.062,113.27
57.078,178.01
57.093,219.34
57.109,232.86
57.125,220.36
57.140,189.04
57.156,148.37
57.171,106.15
57.187,65.96
57.203,27.1
57.218,-12.7
57.234,-54.65
57.250,-97.08
57.265,-136.05
57.281,-167.85
57.296,-191.28
57.312,-208.64
57.328,-224.85
57.343,-245.66
57.359,-275.57
57.375,-316.52
57.390,-366.54
57.406,-420.08
57.421,-468.83
57.437,-503.85
57.453,-518.13
57.468,-509.03
57.484,-479.1
57.500,-434.7
57.515,-383.47
57.531,-331.07
57.546,-280.07
57.562,-230.13
57.578,-180.22
57.593,-130.11
57.609,-80.95
57.625,-34.34
57.640,7.98
57.656,44.38
57.671,73.62
57.687,94.4
57.703,106.02
57.718,108.8
57.734,104.59
57.750,95.91
57.765,84.66
57.781,70.44
57.796,50.75
57.812,23.15
57.828,-12.29
57.843,-51.58
57.859,-88.17
57.875,-115.87
57.890,-131.94
57.906,-138.14
57.921,-139.52
57.937,-141.42
57.953,-146.43
57.968,-153.26
57.984,-158.04
58.000,-157.04
58.015,-148.93
58.031,-135.52
58.046,-120.22
58.062,-106.14
58.078,-94.86
58.093,-86.08
58.109,-78.38
58.125,-70.41
58.140,-62.48
58.156,-56.65
58.171,-56.15
58.187,-62.84
58.203,-76.4
58.218,-94.78
58.234,-114.39
58.250,-131.08
58.265,-141.5
58.281,-144.35
58.296,-140.23
58.312,-131.56
58.328,-118.87
58.343,-100.83
58.359,-74.88
58.375,-37.46
58.390,15.07
58.406,84.51
58.421,169.33
58.437,264.48
58.453,361.4
58.468,452.29
58.484,530.4
58.500,585.9
58.515,606.63
58.531,584.6
58.546,521.28
58.562,427.86
58.578,326.44
58.593,227.3
58.609,135.83
58.625,55.33
58.640,-12.14
58.656,-64.5
58.671,-99.24
58.687,-115.45
58.703,-114.94
58.718,-102.21
58.734,-84.27
58.750,-66.57
58.765,-53.03
58.781,-46.1
58.796,-46.16
58.812,-51.71
58.828,-60.14
58.843,-68.82
58.859,-75.85
58.875,-80.84
58.890,-82.67
58.906,-80.14
58.921,-72.49
58.937,-59.22
58.953,-40.07
58.968,-14.62
58.984,16.65
59.000,52.21
59.015,89.01
59.031,124.22
59.046,155.39
59.062,180.63
59.078,199.1
59.093,211.16
59.109,219.75
59.125,228.07
59.140,238.72
59.156,252.44
59.171,268.52
59.187,285.06
59.203,299.95
59.218,311.77
59.234,320.21
59.250,328.64
59.265,340.84
59.281,359.59
59.296,385.04
59.312,414.5
59.328,443.26
59.343,466.68
59.359,481.56
59.375,486.98
59.390,487.3
59.406,488.02
59.421,493.89
59.437,507.42
59.453,528.74
59.468,556.8
59.484,590.24
59.500,627.0
59.515,642.14
59.531,614.1
59.546,528.59
59.562,386.97
59.578,208.14
59.593,20.81
59.609,-147.92
59.625,-280.93
59.640,-373.24
59.656,-429.5
59.671,-455.91
59.687,-459.37
59.703,-445.81
59.718,-420.78
59.734,-390.6
59.750,-361.67
59.765,-339.31
59.781,-326.23
59.796,-321.04
59.812,-318.73
59.828,-313.67
59.843,-301.32
59.859,-280.26
59.875,-252.88
59.890,-223.56
59.906,-197.2
59.921,-176.83
59.937,-162.1
59.953,-148.01
59.968,-127.52
59.984,-94.38
