timestamp,value
00.000,-366.75
00.015,-330.88
00.031,-289.03
00.046,-247.6
00.062,-211.83
00.078,-184.11
00.093,-163.61
00.109,-147.28
00.125,-131.71
00.140,-114.73
00.156,-96.19
00.171,-77.59
00.187,-60.83
00.203,-47.12
00.218,-36.45
00.234,-27.95
00.250,-20.49
00.265,-13.39
00.281,-6.62
00.296,-0.31
00.312,5.44
00.328,10.95
00.343,16.53
00.359,22.2
00.375,27.53
00.390,31.95
00.406,35.49
00.421,39.0
00.437,43.66
00.453,50.35
00.468,58.88
00.484,67.67
00.500,74.62
00.515,77.95
00.531,76.85
00.546,71.8
00.562,64.13
00.578,55.11
00.593,45.56
00.609,35.69
00.625,25.26
00.640,14.24
00.656,3.09
00.671,-7.39
00.687,-16.42
00.703,-23.6
00.718,-29.21
00.734,-33.82
00.750,-38.06
00.765,-42.16
00.781,-45.86
00.796,-48.44
00.812,-49.12
00.828,-47.51
00.843,-43.8
00.859,-38.82
00.875,-33.62
00.890,-29.19
00.906,-26.1
00.921,-24.23
00.937,-23.05
00.953,-21.64
00.968,-19.07
00.984,-14.65
01.000,-8.15
01.015,0.45
01.031,10.71
01.046,22.08
01.062,33.98
01.078,45.62
01.093,56.17
01.109,64.84
01.125,71.05
01.140,74.56
01.156,75.54
01.171,74.56
01.187,72.57
01.203,70.51
01.218,69.03
01.234,68.41
01.250,68.43
01.265,68.47
01.281,67.94
01.296,66.29
01.312,63.39
01.328,59.47
01.343,55.05
01.359,50.59
01.375,46.61
01.390,43.47
01.406,41.3
01.421,40.3
01.437,40.48
01.453,41.87
01.468,44.36
01.484,47.69
01.500,51.21
01.515,54.28
01.531,56.15
01.546,56.19
01.562,54.21
01.578,50.31
01.593,44.93
01.609,38.58
01.625,31.66
01.640,24.44
01.656,17.1
01.671,9.75
01.687,2.53
01.703,-4.31
01.718,-10.64
01.734,-16.45
01.750,-21.77
01.765,-26.51
01.781,-30.28
01.796,-32.44
01.812,-32.5
01.828,-30.35
01.843,-26.44
01.859,-21.74
01.875,-17.25
01.890,-13.46
01.906,-10.34
01.921,-7.23
01.937,-3.43
01.953,1.23
01.968,6.3
01.984,10.87
02.000,13.93
02.015,14.89
02.031,13.75
02.046,10.89
02.062,6.98
02.078,2.55
02.093,-2.25
02.109,-7.68
02.125,-14.29
02.140,-22.64
02.156,-33.01
02.171,-45.34
02.187,-58.98
02.203,-72.98
02.218,-86.25
02.234,-97.89
02.250,-107.57
02.265,-115.29
02.281,-121.2
02.296,-125.04
02.312,-126.05
02.328,-123.13
02.343,-115.28
02.359,-102.41
02.375,-85.53
02.390,-66.6
02.406,-47.87
02.421,-31.25
02.437,-17.75
02.453,-7.52
02.468,-0.23
02.484,4.76
02.500,8.27
02.515,11.37
02.531,15.26
02.546,20.77
02.562,27.44
02.578,33.17
02.593,34.69
02.609,28.89
02.625,14.84
02.640,-5.15
02.656,-25.44
02.671,-39.04
02.687,-40.2
02.703,-26.82
02.718,-1.5
02.734,29.35
02.750,57.48
02.765,75.39
02.781,78.32
02.796,65.38
02.812,39.44
02.828,6.25
02.843,-27.24
02.859,-54.53
02.875,-71.06
02.890,-75.19
02.906,-68.05
02.921,-52.94
02.937,-34.27
02.953,-16.63
02.968,-3.76
02.984,2.03
03.000,0.49
03.015,-6.04
03.031,-12.95
03.046,-14.21
03.062,-3.98
03.078,21.6
03.093,63.03
03.109,117.29
03.125,178.49
03.140,238.95
03.156,290.8
03.171,327.43
03.187,344.89
03.203,342.67
03.218,323.72
03.234,293.38
03.250,257.74
03.265,221.85
03.281,188.56
03.296,158.62
03.312,131.41
03.328,106.15
03.343,82.52
03.359,60.68
03.375,40.7
03.390,22.15
03.406,4.17
03.421,-14.22
03.437,-33.3
03.453,-52.67
03.468,-71.26
03.484,-87.82
03.500,-101.45
03.515,-111.73
03.531,-118.72
03.546,-122.73
03.562,-124.16
03.578,-123.14
03.593,-119.91
03.609,-114.72
03.625,-107.96
03.640,-100.04
03.656,-91.45
03.671,-82.57
03.687,-73.72
03.703,-65.17
03.718,-57.09
03.734,-49.82
03.750,-43.73
03.765,-39.2
03.781,-36.34
03.796,-35.02
03.812,-34.71
03.828,-34.74
03.843,-34.37
03.859,-32.92
03.875,-30.0
03.890,-25.53
03.906,-19.54
03.921,-12.17
03.937,-3.42
03.953,6.97
03.968,19.61
03.984,35.36
04.000,55.03
04.015,79.03
04.031,106.93
04.046,137.44
04.062,168.45
04.078,197.46
04.093,222.2
04.109,241.22
04.125,254.05
04.140,260.98
04.156,262.82
04.171,260.38
04.187,254.39
04.203,245.4
04.218,233.82
04.234,219.92
04.250,204.02
04.265,186.65
04.281,168.72
04.296,151.8
04.312,137.89
04.328,128.7
04.343,124.95
04.359,126.05
04.375,130.25
04.390,135.68
04.406,141.47
04.421,148.12
04.437,157.14
04.453,170.21
04.468,188.36
04.484,211.66
04.500,239.11
04.515,268.6
04.531,296.88
04.546,319.86
04.562,333.12
04.578,333.1
04.593,318.4
04.609,290.36
04.625,252.84
04.640,210.82
04.656,168.62
04.671,129.12
04.687,93.5
04.703,61.89
04.718,34.03
04.734,9.55
04.750,-12.16
04.765,-32.02
04.781,-51.01
04.796,-70.08
04.812,-89.42
04.828,-108.58
04.843,-126.89
04.859,-143.83
04.875,-159.58
04.890,-175.08
04.906,-191.63
04.921,-210.14
04.937,-230.84
04.953,-253.02
04.968,-275.37
04.984,-296.83
05.000,-317.12
05.015,-337.2
05.031,-358.96
05.046,-384.32
05.062,-414.23
05.078,-448.35
05.093,-484.67
05.109,-520.37
05.125,-552.8
05.140,-580.25
05.156,-602.86
05.171,-622.72
05.187,-643.5
05.203,-668.76
05.218,-700.23
05.234,-735.89
05.250,-769.27
05.265,-790.99
05.281,-791.45
05.296,-764.54
05.312,-709.83
05.328,-633.27
05.343,-545.79
05.359,-460.87
05.375,-391.25
05.390,-345.83
05.406,-327.6
05.421,-332.56
05.437,-351.24
05.453,-371.58
05.468,-382.88
05.484,-378.99
05.500,-359.32
05.515,-327.62
05.531,-289.1
05.546,-248.04
05.562,-206.56
05.578,-165.65
05.593,-126.34
05.609,-90.38
05.625,-59.73
05.640,-35.24
05.656,-15.99
05.671,0.49
05.687,16.7
05.703,34.12
05.718,52.45
05.734,69.8
05.750,83.86
05.765,92.95
05.781,96.98
05.796,97.21
05.812,95.9
05.828,95.16
05.843,96.35
05.859,99.51
05.875,103.66
05.890,107.48
05.906,109.88
05.921,110.72
05.937,110.56
05.953,110.41
05.968,111.11
05.984,113.04
06.000,115.79
06.015,118.31
06.031,119.45
06.046,118.28
06.062,114.42
06.078,108.04
06.093,99.78
06.109,90.38
06.125,80.58
06.140,70.88
06.156,61.57
06.171,52.85
06.187,44.85
06.203,37.68
06.218,31.48
06.234,26.35
06.250,22.24
06.265,19.13
06.281,16.87
06.296,15.4
06.312,14.81
06.328,15.05
06.343,16.07
06.359,17.78
06.375,19.88
06.390,21.93
06.406,23.62
06.421,24.81
06.437,25.69
06.453,26.78
06.468,28.63
06.484,31.68
06.500,36.23
06.515,42.22
06.531,49.43
06.546,57.72
06.562,67.26
06.578,78.64
06.593,92.77
06.609,110.4
06.625,131.78
06.640,156.46
06.656,182.95
06.671,209.31
06.687,233.45
06.703,253.64
06.718,268.75
06.734,278.36
06.750,282.78
06.765,283.01
06.781,280.77
06.796,277.97
06.812,276.13
06.828,275.61
06.843,275.15
06.859,272.37
06.875,265.04
06.890,252.61
06.906,236.99
06.921,222.13
06.937,212.4
06.953,210.75
06.968,217.77
06.984,231.39
07.000,248.3
07.015,265.2
07.031,279.71
07.046,290.52
07.062,297.1
07.078,299.3
07.093,297.31
07.109,291.84
07.125,284.01
07.140,275.19
07.156,266.67
07.171,259.25
07.187,253.21
07.203,248.5
07.218,245.07
07.234,242.98
07.250,242.66
07.265,244.83
07.281,250.48
07.296,260.61
07.312,275.53
07.328,294.47
07.343,315.52
07.359,335.91
07.375,352.74
07.390,363.66
07.406,367.21
07.421,362.83
07.437,350.36
07.453,329.64
07.468,300.62
07.484,263.66
07.500,220.01
07.515,171.8
07.531,121.93
07.546,73.44
07.562,29.19
07.578,-8.64
07.593,-38.62
07.609,-60.33
07.625,-74.34
07.640,-82.38
07.656,-87.03
07.671,-91.19
07.687,-97.3
07.703,-106.78
07.718,-120.03
07.734,-136.64
07.750,-155.72
07.765,-176.23
07.781,-197.2
07.796,-217.71
07.812,-237.05
07.828,-254.74
07.843,-270.47
07.859,-284.03
07.875,-294.99
07.890,-302.39
07.906,-304.86
07.921,-300.92
07.937,-289.42
07.953,-270.21
07.968,-244.55
07.984,-215.06
08.000,-185.17
08.015,-158.46
08.031,-137.44
08.046,-122.91
08.062,-113.92
08.078,-108.27
08.093,-103.47
08.109,-97.92
08.125,-91.29
08.140,-84.32
08.156,-78.07
08.171,-73.13
08.187,-69.22
08.203,-65.24
08.218,-59.76
08.234,-51.07
08.250,-37.42
08.265,-16.75
08.281,13.52
08.296,56.22
08.312,113.61
08.328,186.45
08.343,272.97
08.359,368.52
08.375,466.26
08.390,558.37
08.406,637.52
08.421,697.98
08.437,735.54
08.453,746.96
08.468,729.24
08.484,679.41
08.500,595.68
08.515,479.0
08.531,334.91
08.546,174.15
08.562,11.66
08.578,-136.5
08.593,-256.44
08.609,-339.57
08.625,-383.74
08.640,-392.6
08.656,-373.34
08.671,-334.35
08.687,-283.38
08.703,-226.71
08.718,-169.82
08.734,-117.83
08.750,-75.36
08.765,-45.96
08.781,-30.75
08.796,-27.78
08.812,-32.93
08.828,-41.42
08.843,-49.52
08.859,-55.84
08.875,-60.87
08.890,-65.69
08.906,-70.61
08.921,-74.56
08.937,-75.44
08.953,-71.48
08.968,-62.42
08.984,-49.64
09.000,-35.89
09.015,-24.1
09.031,-16.24
09.046,-12.87
09.062,-13.17
09.078,-15.45
09.093,-18.18
09.109,-20.62
09.125,-22.86
09.140,-25.68
09.156,-29.91
09.171,-35.76
09.187,-42.9
09.203,-50.64
09.218,-58.29
09.234,-65.48
09.250,-72.1
09.265,-78.11
09.281,-83.53
09.296,-88.48
09.312,-93.25
09.328,-98.41
09.343,-104.67
09.359,-112.48
09.375,-121.71
09.390,-131.69
09.406,-141.31
09.421,-149.7
09.437,-156.34
09.453,-161.04
09.468,-163.89
09.484,-165.01
09.500,-164.37
09.515,-161.91
09.531,-157.53
09.546,-151.37
09.562,-144.04
09.578,-136.22
09.593,-128.4
09.609,-120.29
09.625,-111.01
09.640,-99.48
09.656,-85.05
09.671,-67.76
09.687,-48.61
09.703,-29.56
09.718,-13.0
09.734,-1.17
09.750,4.7
09.765,4.44
09.781,-0.9
09.796,-9.48
09.812,-18.52
09.828,-25.12
09.843,-27.35
09.859,-24.91
09.875,-18.86
09.890,-10.06
09.906,1.08
09.921,14.93
09.937,32.13
09.953,54.08
09.968,80.85
09.984,109.73
10.000,135.51
10.015,151.51
10.031,154.2
10.046,142.86
10.062,118.95
10.078,85.39
10.093,47.99
10.109,12.1
10.125,-19.7
10.140,-48.51
10.156,-79.02
10.171,-112.69
10.187,-149.65
10.203,-189.6
10.218,-231.49
10.234,-270.17
10.250,-300.46
10.265,-320.24
10.281,-330.93
10.296,-337.33
10.312,-337.02
10.328,-324.78
10.343,-295.59
10.359,-245.98
10.375,-170.23
10.390,-65.39
10.406,65.49
10.421,212.92
10.437,361.09
10.453,501.52
10.468,628.05
10.484,734.8
10.500,784.12
10.515,747.79
10.531,627.73
10.546,458.38
10.562,305.55
10.578,177.95
10.593,72.37
10.609,-15.01
10.625,-89.55
10.640,-149.95
10.656,-189.25
10.671,-201.88
10.687,-188.44
10.703,-157.02
10.718,-123.03
10.734,-94.18
10.750,-74.27
10.765,-64.57
10.781,-63.85
10.796,-65.88
10.812,-64.36
10.828,-56.65
10.843,-45.36
10.859,-38.51
10.875,-38.08
10.890,-43.26
10.906,-52.15
10.921,-62.19
10.937,-69.14
10.953,-69.9
10.968,-64.23
10.984,-55.07
11.000,-48.16
11.015,-44.82
11.031,-44.3
11.046,-45.25
11.062,-46.11
11.078,-44.89
11.093,-40.4
11.109,-32.97
11.125,-24.5
11.140,-18.18
11.156,-14.87
11.171,-14.29
11.187,-15.7
11.203,-18.22
11.218,-20.86
11.234,-22.88
11.250,-23.98
11.265,-24.32
11.281,-24.45
11.296,-24.11
11.312,-22.98
11.328,-20.98
11.343,-18.3
11.359,-15.42
11.375,-12.8
11.390,-10.72
11.406,-9.36
11.421,-9.05
11.437,-10.03
11.453,-12.57
11.468,-16.6
11.484,-21.76
11.500,-27.33
11.515,-32.47
11.531,-36.58
11.546,-39.37
11.562,-41.01
11.578,-41.72
11.593,-41.78
11.609,-41.31
11.625,-40.51
11.640,-39.6
11.656,-38.91
11.671,-38.74
11.687,-39.31
11.703,-40.54
11.718,-41.98
11.734,-43.13
11.750,-43.4
11.765,-42.45
11.781,-40.29
11.796,-37.07
11.812,-33.01
11.828,-28.42
11.843,-23.57
11.859,-18.62
11.875,-13.92
11.890,-9.73
11.906,-6.21
11.921,-3.36
11.937,-0.92
11.953,1.39
11.968,3.74
11.984,6.07
12.000,8.05
12.015,9.24
12.031,9.22
12.046,7.86
12.062,5.43
12.078,2.48
12.093,-0.37
12.109,-2.59
12.125,-3.99
12.140,-4.64
12.156,-4.83
12.171,-4.74
12.187,-4.54
12.203,-4.37
12.218,-4.39
12.234,-4.89
12.250,-6.16
12.265,-8.23
12.281,-10.92
12.296,-13.89
12.312,-16.57
12.328,-18.63
12.343,-20.05
12.359,-21.05
12.375,-21.89
12.390,-22.73
12.406,-23.33
12.421,-23.37
12.437,-22.43
12.453,-20.37
12.468,-17.37
12.484,-13.85
12.500,-10.23
12.515,-6.78
12.531,-3.49
12.546,-0.12
12.562,3.55
12.578,7.6
12.593,11.87
12.609,15.99
12.625,19.61
12.640,22.49
12.656,24.51
12.671,25.67
12.687,25.94
12.703,25.23
12.718,23.29
12.734,19.96
12.750,15.06
12.765,8.85
12.781,1.83
12.796,-5.23
12.812,-11.51
12.828,-16.26
12.843,-18.93
12.859,-19.46
12.875,-18.0
12.890,-15.08
12.906,-11.13
12.921,-6.66
12.937,-2.03
12.953,2.44
12.968,6.53
12.984,9.97
13.000,12.58
13.015,14.29
13.031,15.13
13.046,15.43
13.062,15.5
13.078,15.8
13.093,16.64
13.109,18.19
13.125,20.42
13.140,23.16
13.156,26.3
13.171,29.72
13.187,33.51
13.203,37.73
13.218,42.4
13.234,47.34
13.250,52.24
13.265,56.73
13.281,60.7
13.296,64.23
13.312,67.5
13.328,70.77
13.343,74.09
13.359,77.2
13.375,79.51
13.390,80.44
13.406,79.45
13.421,76.33
13.437,71.18
13.453,64.23
13.468,55.95
13.484,46.84
13.500,37.5
13.515,28.63
13.531,21.01
13.546,15.28
13.562,11.76
13.578,10.47
13.593,11.0
13.609,12.84
13.625,15.44
13.640,18.36
13.656,21.2
13.671,23.64
13.687,25.31
13.703,25.88
13.718,25.23
13.734,23.37
13.750,20.63
13.765,17.46
13.781,14.41
13.796,11.85
13.812,9.98
13.828,8.65
13.843,7.59
13.859,6.47
13.875,5.05
13.890,3.31
13.906,1.44
13.921,-0.14
13.937,-1.15
13.953,-1.35
13.968,-0.81
13.984,0.1
14.000,0.85
14.015,0.66
14.031,-1.44
14.046,-6.15
14.062,-13.74
14.078,-23.77
14.093,-35.32
14.109,-47.19
14.125,-58.52
14.140,-68.81
14.156,-78.24
14.171,-87.25
14.187,-96.22
14.203,-105.2
14.218,-113.91
14.234,-122.05
14.250,-129.34
14.265,-135.83
14.281,-141.66
14.296,-147.12
14.312,-152.32
14.328,-157.35
14.343,-162.13
14.359,-166.45
14.375,-169.98
14.390,-172.34
14.406,-173.21
14.421,-172.31
14.437,-169.55
14.453,-164.68
14.468,-157.55
14.484,-147.97
14.500,-135.99
14.515,-121.78
14.531,-105.81
14.546,-88.58
14.562,-70.49
14.578,-51.89
14.593,-33.07
14.609,-14.54
14.625,2.95
14.640,18.55
14.656,31.56
14.671,41.81
14.687,49.7
14.703,55.84
14.718,60.8
14.734,64.64
14.750,66.88
14.765,66.87
14.781,64.32
14.796,59.52
14.812,53.47
14.828,47.61
14.843,43.15
14.859,40.84
14.875,40.8
14.890,42.74
14.906,46.14
14.921,50.7
14.937,56.04
14.953,61.78
14.968,67.14
14.984,71.05
15.000,72.52
15.015,71.06
15.031,66.91
15.046,61.0
15.062,54.72
15.078,49.23
15.093,45.27
15.109,42.84
15.125,41.55
15.140,40.95
15.156,40.75
15.171,40.87
15.187,41.47
15.203,42.76
15.218,44.77
15.234,47.38
15.250,50.33
15.265,53.18
15.281,55.61
15.296,57.36
15.312,58.36
15.328,58.64
15.343,58.18
15.359,56.82
15.375,54.22
15.390,50.28
15.406,45.05
15.421,38.86
15.437,32.27
15.453,25.88
15.468,20.06
15.484,14.88
15.500,10.06
15.515,5.29
15.531,0.5
15.546,-4.08
15.562,-8.05
15.578,-10.83
15.593,-12.02
15.609,-11.57
15.625,-9.79
15.640,-7.23
15.656,-4.42
15.671,-1.75
15.687,0.63
15.703,2.73
15.718,4.69
15.734,6.48
15.750,8.02
15.765,9.12
15.781,9.65
15.796,9.66
15.812,9.38
15.828,9.08
15.843,9.08
15.859,9.5
15.875,10.19
15.890,10.91
15.906,11.33
15.921,11.26
15.937,10.71
15.953,9.84
15.968,8.8
15.984,7.72
16.000,6.56
16.015,5.18
16.031,3.42
16.046,1.35
16.062,-0.94
16.078,-3.16
16.093,-4.98
16.109,-6.27
16.125,-6.99
16.140,-7.29
16.156,-7.37
16.171,-7.48
16.187,-7.58
16.203,-7.73
16.218,-7.75
16.234,-7.61
16.250,-7.31
16.265,-6.86
16.281,-6.1
16.296,-4.83
16.312,-2.8
16.328,0.12
16.343,3.72
16.359,7.71
16.375,11.63
16.390,15.17
16.406,18.24
16.421,20.88
16.437,23.26
16.453,25.51
16.468,27.68
16.484,29.7
16.500,31.52
16.515,33.04
16.531,34.12
16.546,34.7
16.562,34.8
16.578,34.47
16.593,33.88
16.609,33.09
16.625,31.95
16.640,30.26
16.656,27.86
16.671,24.71
16.687,21.12
16.703,17.6
16.718,14.58
16.734,12.39
16.750,10.99
16.765,10.01
16.781,9.11
16.796,8.12
16.812,7.02
16.828,6.11
16.843,5.62
16.859,5.71
16.875,6.22
16.890,6.83
16.906,7.16
16.921,6.85
16.937,5.91
16.953,4.38
16.968,2.54
16.984,0.56
17.000,-1.4
17.015,-3.19
17.031,-4.66
17.046,-5.52
17.062,-5.45
17.078,-4.23
17.093,-1.94
17.109,1.13
17.125,4.48
17.140,7.49
17.156,9.79
17.171,11.27
17.187,12.06
17.203,12.41
17.218,12.55
17.234,12.5
17.250,12.25
17.265,11.7
17.281,10.72
17.296,9.39
17.312,7.87
17.328,6.44
17.343,5.21
17.359,4.19
17.375,3.11
17.390,1.79
17.406,0.03
17.421,-2.1
17.437,-4.24
17.453,-5.96
17.468,-6.86
17.484,-6.88
17.500,-6.23
17.515,-5.42
17.531,-4.9
17.546,-4.94
17.562,-5.43
17.578,-6.09
17.593,-6.58
17.609,-6.93
17.625,-7.34
17.640,-8.14
17.656,-9.64
17.671,-11.79
17.687,-14.2
17.703,-16.24
17.718,-17.35
17.734,-17.19
17.750,-15.79
17.765,-13.42
17.781,-10.33
17.796,-6.78
17.812,-2.92
17.828,1.14
17.843,5.2
17.859,8.97
17.875,11.96
17.890,13.87
17.906,14.45
17.921,13.73
17.937,11.92
17.953,9.39
17.968,6.58
17.984,3.88
18.000,1.61
18.015,-0.17
18.031,-1.29
18.046,-1.7
18.062,-1.22
18.078,0.33
18.093,3.08
18.109,6.9
18.125,11.41
18.140,16.08
18.156,20.2
18.171,23.36
18.187,25.3
18.203,26.08
18.218,25.79
18.234,24.54
18.250,22.38
18.265,19.23
18.281,15.18
18.296,10.38
18.312,5.17
18.328,-0.07
18.343,-4.94
18.359,-9.18
18.375,-12.68
18.390,-15.33
18.406,-17.15
18.421,-18.06
18.437,-17.97
18.453,-16.81
18.468,-14.73
18.484,-11.99
18.500,-9.01
18.515,-6.19
18.531,-3.84
18.546,-2.1
18.562,-0.76
18.578,0.41
18.593,1.62
18.609,2.86
18.625,3.91
18.640,4.39
18.656,4.04
18.671,2.81
18.687,0.93
18.703,-1.16
18.718,-3.06
18.734,-4.55
18.750,-5.61
18.765,-6.36
18.781,-6.99
18.796,-7.49
18.812,-7.73
18.828,-7.59
18.843,-6.93
18.859,-5.88
18.875,-4.65
18.890,-3.56
18.906,-2.91
18.921,-2.83
18.937,-3.24
18.953,-3.93
18.968,-4.74
18.984,-5.53
19.000,-6.39
19.015,-7.37
19.031,-8.61
19.046,-10.19
19.062,-11.92
19.078,-13.46
19.093,-14.37
19.109,-14.34
19.125,-13.14
19.140,-10.92
19.156,-8.03
19.171,-4.96
19.187,-2.24
19.203,-0.09
19.218,1.42
19.234,2.35
19.250,2.82
19.265,2.97
19.281,2.76
19.296,2.28
19.312,1.7
19.328,1.27
19.343,1.23
19.359,1.68
19.375,2.44
19.390,3.25
19.406,3.82
19.421,3.94
19.437,3.76
19.453,3.66
19.468,4.03
19.484,5.11
19.500,6.78
19.515,8.72
19.531,10.49
19.546,11.64
19.562,11.92
19.578,11.32
19.593,10.03
19.609,8.27
19.625,6.16
19.640,3.81
19.656,1.28
19.671,-1.26
19.687,-3.63
19.703,-5.56
19.718,-6.83
19.734,-7.32
19.750,-7.05
19.765,-6.25
19.781,-5.15
19.796,-4.01
19.812,-3.03
19.828,-2.28
19.843,-1.7
19.859,-1.16
19.875,-0.53
19.890,0.21
19.906,1.04
19.921,1.86
19.937,2.59
19.953,3.2
19.968,3.71
19.984,4.16
20.000,4.42
20.015,4.29
20.031,3.57
20.046,2.22
20.062,0.45
20.078,-1.31
20.093,-2.65
20.109,-3.19
20.125,-2.94
20.140,-2.2
20.156,-1.33
20.171,-0.65
20.187,-0.3
20.203,-0.18
20.218,-0.21
20.234,-0.49
20.250,-0.98
20.265,-1.93
20.281,-3.39
20.296,-5.22
20.312,-7.23
20.328,-9.14
20.343,-10.78
20.359,-12.03
20.375,-12.97
20.390,-13.54
20.406,-13.77
20.421,-13.63
20.437,-13.16
20.453,-12.43
20.468,-11.59
20.484,-10.84
20.500,-10.39
20.515,-10.41
20.531,-10.96
20.546,-11.92
20.562,-12.96
20.578,-13.65
20.593,-13.58
20.609,-12.55
20.625,-10.58
20.640,-7.88
20.656,-4.66
20.671,-1.0
20.687,3.14
20.703,7.94
20.718,13.49
20.734,19.71
20.750,26.34
20.765,32.96
20.781,39.16
20.796,44.64
20.812,49.28
20.828,53.05
20.843,55.94
20.859,57.91
20.875,58.93
20.890,59.07
20.906,58.44
20.921,57.33
20.937,56.12
20.953,55.15
20.968,54.7
20.984,54.72
21.000,54.94
21.015,54.99
21.031,54.61
21.046,53.71
21.062,52.47
21.078,51.22
21.093,50.26
21.109,49.83
21.125,49.97
21.140,50.56
21.156,51.46
21.171,52.48
21.187,53.56
21.203,54.66
21.218,55.69
21.234,56.39
21.250,56.44
21.265,55.51
21.281,53.28
21.296,49.59
21.312,44.41
21.328,37.89
21.343,30.02
21.359,20.62
21.375,9.13
21.390,-5.06
21.406,-22.47
21.421,-43.39
21.437,-67.82
21.453,-95.63
21.468,-126.76
21.484,-161.19
21.500,-198.94
21.515,-239.79
21.531,-283.05
21.546,-327.43
21.562,-370.99
21.578,-411.12
21.593,-444.75
21.609,-468.57
21.625,-479.14
21.640,-473.55
21.656,-449.85
21.671,-407.65
21.687,-348.41
21.703,-275.16
21.718,-192.21
21.734,-104.52
21.750,-17.22
21.765,64.82
21.781,137.44
21.796,197.47
21.812,242.88
21.828,273.08
21.843,288.78
21.859,291.67
21.875,284.1
21.890,268.55
21.906,247.58
21.921,223.42
21.937,197.91
21.953,172.36
21.968,147.52
21.984,123.58
22.000,100.31
22.015,77.33
22.031,54.27
22.046,31.14
22.062,8.21
22.078,-13.6
22.093,-32.8
22.109,-47.57
22.125,-55.98
22.140,-56.62
22.156,-49.01
22.171,-33.73
22.187,-12.61
22.203,11.76
22.218,36.64
22.234,59.57
22.250,78.67
22.265,92.83
22.281,101.55
22.296,105.07
22.312,104.3
22.328,100.58
22.343,95.29
22.359,89.72
22.375,84.55
22.390,79.87
22.406,75.47
22.421,70.98
22.437,66.15
22.453,60.87
22.468,55.12
22.484,48.85
22.500,42.21
22.515,35.69
22.531,30.06
22.546,26.45
22.562,25.94
22.578,29.32
22.593,37.1
22.609,49.87
22.625,68.59
22.640,94.48
22.656,128.38
22.671,169.82
22.687,216.71
22.703,265.55
22.718,312.3
22.734,353.18
22.750,385.01
22.765,404.88
22.781,409.77
22.796,396.65
22.812,363.46
22.828,310.72
22.843,242.24
22.859,164.83
22.875,86.55
22.890,14.62
22.906,-46.42
22.921,-94.87
22.937,-131.25
22.953,-157.15
22.968,-174.18
22.984,-183.73
23.000,-187.23
23.015,-186.3
23.031,-182.68
23.046,-178.14
23.062,-173.83
23.078,-170.19
23.093,-167.12
23.109,-164.28
23.125,-161.5
23.140,-159.12
23.156,-157.69
23.171,-157.84
23.187,-160.0
23.203,-163.95
23.218,-169.01
23.234,-174.41
23.250,-179.35
23.265,-183.37
23.281,-186.15
23.296,-187.15
23.312,-185.52
23.328,-180.22
23.343,-170.15
23.359,-154.67
23.375,-134.16
23.390,-109.8
23.406,-83.64
23.421,-57.78
23.437,-33.82
23.453,-12.5
23.468,6.07
23.484,22.27
23.500,36.26
23.515,47.84
23.531,56.68
23.546,62.5
23.562,65.46
23.578,66.46
23.593,66.7
23.609,67.23
23.625,68.71
23.640,70.98
23.656,73.57
23.671,75.9
23.687,77.73
23.703,79.18
23.718,80.85
23.734,83.26
23.750,86.56
23.765,90.34
23.781,93.54
23.796,94.88
23.812,93.23
23.828,87.69
23.843,78.01
23.859,64.32
23.875,46.89
23.890,25.86
23.906,1.16
23.921,-27.53
23.937,-60.44
23.953,-97.3
23.968,-137.41
23.984,-179.28
24.000,-220.85
24.015,-259.27
24.031,-290.49
24.046,-309.21
24.062,-309.39
24.078,-285.23
24.093,-232.84
24.109,-152.09
24.125,-47.57
24.140,71.09
24.156,190.58
24.171,296.39
24.187,375.25
24.203,417.41
24.218,417.82
24.234,376.4
24.250,297.28
24.265,188.05
24.281,58.48
24.296,-80.22
24.312,-216.28
24.328,-338.85
24.343,-439.16
24.359,-511.88
24.375,-555.48
24.390,-572.0
24.406,-565.5
24.421,-540.83
24.437,-502.06
24.453,-452.14
24.468,-393.24
24.484,-327.11
24.500,-255.41
24.515,-180.02
24.531,-102.54
24.546,-23.82
24.562,55.55
24.578,135.25
24.593,214.27
24.609,290.39
24.625,360.07
24.640,418.91
24.656,462.26
24.671,486.86
24.687,491.93
24.703,479.82
24.718,455.78
24.734,426.96
24.750,400.65
24.765,383.0
24.781,377.74
24.796,385.59
24.812,404.87
24.828,431.78
24.843,461.04
24.859,486.18
24.875,500.31
24.890,496.88
24.906,471.17
24.921,421.05
24.937,347.43
24.953,254.42
24.968,148.66
24.984,38.25
25.000,-68.21
25.015,-163.12
25.031,-241.1
25.046,-299.49
25.062,-338.8
25.078,-361.82
25.093,-372.45
25.109,-374.49
25.125,-370.92
25.140,-363.44
25.156,-352.86
25.171,-339.5
25.187,-323.23
25.203,-303.71
25.218,-280.39
25.234,-252.67
25.250,-220.55
25.265,-184.89
25.281,-147.53
25.296,-111.06
25.312,-78.16
25.328,-50.78
25.343,-29.56
25.359,-13.96
25.375,-2.55
25.390,5.92
25.406,11.97
25.421,15.41
25.437,15.61
25.453,11.99
25.468,4.76
25.484,-5.02
25.500,-15.99
25.515,-26.95
25.531,-37.78
25.546,-49.55
25.562,-63.92
25.578,-82.56
25.593,-106.28
25.609,-134.61
25.625,-166.01
25.640,-198.26
25.656,-228.92
25.671,-255.79
25.687,-276.92
25.703,-290.44
25.718,-294.97
25.734,-289.8
25.750,-275.2
25.765,-252.48
25.781,-223.61
25.796,-190.38
25.812,-153.71
25.828,-113.29
25.843,-67.84
25.859,-16.49
25.875,39.98
25.890,98.68
25.906,154.97
25.921,203.64
25.937,240.26
25.953,261.75
25.968,266.4
25.984,253.67
26.000,224.16
26.015,180.03
26.031,125.55
26.046,66.85
26.062,10.92
26.078,-36.58
26.093,-72.71
26.109,-98.19
26.125,-116.23
26.140,-130.72
26.156,-144.37
26.171,-157.55
26.187,-168.75
26.203,-175.28
26.218,-174.67
26.234,-165.15
26.250,-146.38
26.265,-119.11
26.281,-85.05
26.296,-46.27
26.312,-5.02
26.328,36.46
26.343,76.29
26.359,112.83
26.375,144.84
26.390,171.37
26.406,191.74
26.421,205.73
26.437,213.57
26.453,215.91
26.468,213.74
26.484,208.07
26.500,199.74
26.515,189.32
26.531,177.03
26.546,162.79
26.562,146.47
26.578,128.18
26.593,108.55
26.609,88.76
26.625,70.22
26.640,53.97
26.656,40.34
26.671,28.87
26.687,18.63
26.703,9.11
26.718,0.32
26.734,-6.98
26.750,-12.14
26.765,-15.1
26.781,-16.99
26.796,-19.58
26.812,-24.64
26.828,-33.1
26.843,-44.6
26.859,-57.93
26.875,-71.75
26.890,-85.03
26.906,-97.36
26.921,-108.44
26.937,-117.74
26.953,-124.2
26.968,-126.48
26.984,-123.48
27.000,-114.8
27.015,-100.96
27.031,-83.08
27.046,-62.6
27.062,-40.75
27.078,-18.44
27.093,3.75
27.109,25.46
27.125,46.26
27.140,65.39
27.156,81.71
27.171,93.69
27.187,99.6
27.203,98.0
27.218,88.11
27.234,70.18
27.250,45.24
27.265,15.07
27.281,-18.28
27.296,-52.38
27.312,-84.7
27.328,-112.71
27.343,-133.95
27.359,-146.72
27.375,-150.35
27.390,-145.53
27.406,-134.28
27.421,-119.21
27.437,-102.96
27.453,-87.84
27.468,-75.53
27.484,-67.07
27.500,-62.71
27.515,-62.0
27.531,-63.61
27.546,-66.02
27.562,-67.71
27.578,-67.68
27.593,-65.75
27.609,-62.29
27.625,-57.89
27.640,-52.99
27.656,-47.69
27.671,-41.69
27.687,-34.43
27.703,-24.98
27.718,-12.19
27.734,5.1
27.750,27.75
27.765,55.84
27.781,88.31
27.796,123.13
27.812,157.71
27.828,189.27
27.843,215.44
27.859,234.18
27.875,244.07
27.890,244.27
27.906,234.33
27.921,214.09
27.937,183.79
27.953,144.32
27.968,97.61
27.984,46.84
28.000,-3.64
28.015,-48.97
28.031,-84.59
28.046,-107.35
28.062,-116.21
28.078,-112.15
28.093,-97.7
28.109,-76.03
28.125,-50.33
28.140,-23.48
28.156,1.82
28.171,23.11
28.187,38.33
28.203,46.4
28.218,47.97
28.234,45.37
28.250,42.2
28.265,42.04
28.281,47.33
28.296,58.4
28.312,73.32
28.328,88.67
28.343,100.44
28.359,105.13
28.375,100.2
28.390,84.49
28.406,58.01
28.421,22.05
28.437,-20.82
28.453,-67.0
28.468,-112.12
28.484,-151.87
28.500,-182.87
28.515,-203.33
28.531,-212.91
28.546,-212.31
28.562,-202.45
28.578,-183.88
28.593,-156.82
28.609,-121.46
28.625,-78.72
28.640,-30.65
28.656,19.51
28.671,67.69
28.687,109.86
28.703,142.54
28.718,163.43
28.734,171.61
28.750,167.51
28.765,152.62
28.781,129.2
28.796,100.03
28.812,68.04
28.828,36.17
28.843,7.26
28.859,-16.38
28.875,-33.09
28.890,-42.12
28.906,-43.85
28.921,-39.59
28.937,-31.36
28.953,-21.59
28.968,-12.46
28.984,-5.47
29.000,-1.24
29.015,0.43
29.031,0.24
29.046,-1.07
29.062,-3.02
29.078,-5.4
29.093,-8.18
29.109,-11.16
29.125,-13.82
29.140,-15.54
29.156,-15.77
29.171,-14.32
29.187,-11.39
29.203,-7.35
29.218,-2.57
29.234,2.82
29.250,8.9
29.265,15.84
29.281,23.51
29.296,31.37
29.312,38.54
29.328,44.01
29.343,47.24
29.359,48.26
29.375,47.67
29.390,46.3
29.406,44.9
29.421,43.62
29.437,42.19
29.453,40.04
29.468,36.66
29.484,32.0
29.500,26.47
29.515,20.8
29.531,15.71
29.546,11.73
29.562,9.11
29.578,7.78
29.593,7.41
29.609,7.59
29.625,7.8
29.640,7.58
29.656,6.8
29.671,5.79
29.687,5.21
29.703,5.98
29.718,8.81
29.734,13.87
29.750,20.59
29.765,28.06
29.781,35.14
29.796,41.0
29.812,45.37
29.828,48.22
29.843,49.62
29.859,49.45
29.875,47.61
29.890,43.99
29.906,38.77
29.921,32.52
29.937,25.97
29.953,19.81
29.968,14.56
29.984,10.44
30.000,7.59
30.015,6.21
30.031,6.57
30.046,8.82
30.062,12.9
30.078,18.39
30.093,24.61
30.109,30.92
30.125,36.81
30.140,42.06
30.156,46.63
30.171,50.59
30.187,54.23
30.203,57.85
30.218,61.8
30.234,66.45
30.250,72.06
30.265,78.65
30.281,85.98
30.296,93.47
30.312,100.33
30.328,105.89
30.343,109.74
30.359,111.69
30.375,111.98
30.390,111.06
30.406,109.35
30.421,107.14
30.437,104.31
30.453,100.41
30.468,94.9
30.484,87.39
30.500,78.08
30.515,67.66
30.531,57.28
30.546,48.11
30.562,40.95
30.578,35.8
30.593,31.97
30.609,28.34
30.625,23.69
30.640,17.39
30.656,9.43
30.671,0.39
30.687,-8.84
30.703,-17.5
30.718,-25.48
30.734,-33.43
30.750,-42.58
30.765,-54.54
30.781,-70.45
30.796,-90.69
30.812,-114.67
30.828,-140.83
30.843,-167.14
30.859,-191.41
30.875,-211.65
30.890,-226.45
30.906,-235.22
30.921,-238.08
30.937,-235.94
30.953,-230.46
30.968,-223.69
30.984,-217.84
31.000,-215.0
31.015,-216.8
31.031,-224.52
31.046,-238.88
31.062,-259.62
31.078,-285.05
31.093,-311.63
31.109,-334.02
31.125,-346.07
31.140,-342.4
31.156,-320.12
31.171,-279.82
31.187,-225.42
31.203,-163.13
31.218,-100.0
31.234,-42.36
31.250,5.21
31.265,40.38
31.281,63.1
31.296,75.3
31.312,80.23
31.328,81.86
31.343,83.76
31.359,88.38
31.375,96.58
31.390,107.7
31.406,120.06
31.421,131.51
31.437,140.22
31.453,144.79
31.468,144.65
31.484,139.98
31.500,131.74
31.515,121.52
31.531,111.17
31.546,102.29
31.562,95.63
31.578,91.16
31.593,88.01
31.609,85.12
31.625,81.69
31.640,77.43
31.656,72.55
31.671,67.38
31.687,62.03
31.703,56.27
31.718,49.75
31.734,42.17
31.750,33.52
31.765,24.11
31.781,14.48
31.796,5.25
31.812,-3.07
31.828,-9.94
31.843,-14.99
31.859,-17.83
31.875,-18.19
31.890,-16.06
31.906,-11.61
31.921,-5.19
31.937,2.66
31.953,11.39
31.968,20.51
31.984,29.64
32.000,38.47
32.015,46.85
32.031,54.63
32.046,61.85
32.062,68.6
32.078,74.93
32.093,80.88
32.109,86.27
32.125,90.97
32.140,94.73
32.156,97.48
32.171,99.24
32.187,100.34
32.203,101.27
32.218,102.6
32.234,104.86
32.250,108.26
32.265,112.77
32.281,118.0
32.296,123.42
32.312,128.51
32.328,132.95
32.343,136.72
32.359,139.93
32.375,142.73
32.390,145.0
32.406,146.25
32.421,145.7
32.437,142.61
32.453,136.74
32.468,128.6
32.484,119.46
32.500,110.91
32.515,104.39
32.531,100.6
32.546,99.46
32.562,100.4
32.578,102.59
32.593,105.57
32.609,109.15
32.625,113.5
32.640,118.8
32.656,125.3
32.671,133.17
32.687,142.24
32.703,151.95
32.718,160.58
32.734,165.46
32.750,163.37
32.765,151.72
32.781,129.71
32.796,98.97
32.812,63.03
32.828,25.93
32.843,-9.26
32.859,-41.47
32.875,-71.48
32.890,-100.82
32.906,-130.66
32.921,-161.12
32.937,-191.29
32.953,-219.83
32.968,-245.6
32.984,-267.79
33.000,-285.61
33.015,-298.05
33.031,-303.7
33.046,-301.32
33.062,-290.35
33.078,-271.44
33.093,-246.58
33.109,-218.77
33.125,-191.2
33.140,-166.5
33.156,-146.24
33.171,-130.88
33.187,-120.22
33.203,-113.84
33.218,-111.46
33.234,-113.17
33.250,-119.36
33.265,-130.7
33.281,-148.28
33.296,-173.58
33.312,-208.16
33.328,-253.1
33.343,-307.96
33.359,-369.94
33.375,-433.52
33.390,-490.65
33.406,-532.18
33.421,-549.89
33.437,-538.85
33.453,-498.85
33.468,-434.61
33.484,-354.47
33.500,-268.01
33.515,-183.91
33.531,-108.26
33.546,-44.27
33.562,7.06
33.578,46.12
33.593,74.19
33.609,93.34
33.625,106.42
33.640,116.54
33.656,125.81
33.671,134.15
33.687,138.85
33.703,135.57
33.718,120.85
33.734,94.22
33.750,59.31
33.765,22.58
33.781,-9.17
33.796,-31.6
33.812,-44.15
33.828,-49.43
33.843,-51.07
33.859,-51.49
33.875,-51.07
33.890,-48.7
33.906,-43.27
33.921,-34.7
33.937,-24.06
33.953,-12.6
33.968,-0.99
33.984,11.27
34.000,25.35
34.015,42.1
34.031,61.53
34.046,82.78
34.062,104.65
34.078,126.23
34.093,147.17
34.109,167.46
34.125,187.03
34.140,205.56
34.156,222.18
34.171,235.89
34.187,246.11
34.203,252.64
34.218,255.15
34.234,253.14
34.250,246.2
34.265,234.43
34.281,218.71
34.296,200.42
34.312,181.1
34.328,162.77
34.343,147.04
34.359,134.35
34.375,123.95
34.390,114.52
34.406,104.94
34.421,94.1
34.437,80.59
34.453,62.82
34.468,41.01
34.484,16.39
34.500,-9.93
34.515,-37.62
34.531,-66.62
34.546,-96.41
34.562,-126.15
34.578,-155.17
34.593,-182.73
34.609,-205.26
34.625,-218.04
34.640,-218.03
34.656,-205.51
34.671,-183.14
34.687,-154.09
34.703,-120.91
34.718,-85.08
34.734,-46.55
34.750,-0.75
34.765,59.0
34.781,136.51
34.796,230.3
34.812,335.15
34.828,445.0
34.843,554.57
34.859,659.53
34.875,732.66
34.890,748.42
34.906,699.88
34.921,603.3
34.937,484.27
34.953,362.22
34.968,246.55
34.984,140.16
35.000,43.38
35.015,-43.16
35.031,-120.3
35.046,-184.34
35.062,-232.11
35.078,-264.26
35.093,-284.5
35.109,-297.39
35.125,-307.43
35.140,-319.31
35.156,-328.7
35.171,-332.64
35.187,-327.73
35.203,-313.08
35.218,-291.18
35.234,-266.17
35.250,-241.39
35.265,-218.39
35.281,-197.21
35.296,-177.21
35.312,-157.41
35.328,-135.84
35.343,-112.01
35.359,-87.23
35.375,-63.45
35.390,-41.66
35.406,-21.73
35.421,-2.8
35.437,15.87
35.453,34.22
35.468,52.34
35.484,69.48
35.500,83.95
35.515,93.97
35.531,98.62
35.546,97.82
35.562,92.38
35.578,83.6
35.593,72.55
35.609,60.59
35.625,48.73
35.640,37.32
35.656,26.18
35.671,14.85
35.687,2.47
35.703,-11.78
35.718,-28.47
35.734,-47.78
35.750,-68.72
35.765,-89.15
35.781,-106.38
35.796,-117.69
35.812,-121.18
35.828,-116.23
35.843,-103.54
35.859,-84.83
35.875,-62.4
35.890,-38.21
35.906,-13.76
35.921,10.0
35.937,32.51
35.953,53.25
35.968,71.72
35.984,87.48
36.000,100.35
36.015,110.49
36.031,118.51
36.046,125.18
36.062,131.19
36.078,136.99
36.093,142.82
36.109,148.59
36.125,154.28
36.140,159.85
36.156,165.22
36.171,170.21
36.187,174.23
36.203,176.21
36.218,174.75
36.234,168.6
36.250,157.11
36.265,140.83
36.281,121.41
36.296,101.15
36.312,82.39
36.328,66.62
36.343,54.31
36.359,44.99
36.375,37.76
36.390,32.01
36.406,27.65
36.421,25.13
36.437,24.93
36.453,27.2
36.468,31.49
36.484,37.1
36.500,43.2
36.515,49.01
36.531,53.72
36.546,56.39
36.562,55.91
36.578,51.29
36.593,42.22
36.609,29.45
36.625,14.71
36.640,0.2
36.656,-12.29
36.671,-21.94
36.687,-28.87
36.703,-33.95
36.718,-38.07
36.734,-42.0
36.750,-46.13
36.765,-50.79
36.781,-56.23
36.796,-62.68
36.812,-70.22
36.828,-78.84
36.843,-88.51
36.859,-99.22
36.875,-110.91
36.890,-123.15
36.906,-135.2
36.921,-145.99
36.937,-154.54
36.953,-160.24
36.968,-163.16
36.984,-163.91
37.000,-163.17
37.015,-161.3
37.031,-158.3
37.046,-153.99
37.062,-148.31
37.078,-141.61
37.093,-134.58
37.109,-127.95
37.125,-122.21
37.140,-117.42
37.156,-113.4
37.171,-110.0
37.187,-107.2
37.203,-105.15
37.218,-104.02
37.234,-103.86
37.250,-104.45
37.265,-105.33
37.281,-105.87
37.296,-105.43
37.312,-103.59
37.328,-100.1
37.343,-95.02
37.359,-88.69
37.375,-81.61
37.390,-74.21
37.406,-66.72
37.421,-59.1
37.437,-51.25
37.453,-43.09
37.468,-34.82
37.484,-26.95
37.500,-20.15
37.515,-14.9
37.531,-11.2
37.546,-8.6
37.562,-6.41
37.578,-4.14
37.593,-1.68
37.609,0.61
37.625,2.31
37.640,3.19
37.656,3.62
37.671,4.32
37.687,6.11
37.703,9.41
37.718,13.92
37.734,18.86
37.750,23.21
37.765,26.36
37.781,28.39
37.796,30.01
37.812,32.24
37.828,35.95
37.843,41.47
37.859,48.49
37.875,56.13
37.890,63.3
37.906,68.9
37.921,72.13
37.937,72.6
37.953,70.34
37.968,65.99
37.984,60.75
38.000,56.25
38.015,54.35
38.031,56.79
38.046,64.66
38.062,78.09
38.078,96.2
38.093,117.24
38.109,139.07
38.125,159.87
38.140,178.48
38.156,194.68
38.171,209.01
38.187,222.36
38.203,235.57
38.218,249.16
38.234,263.2
38.250,277.36
38.265,291.22
38.281,304.36
38.296,316.51
38.312,327.28
38.328,336.07
38.343,342.03
38.359,344.12
38.375,341.54
38.390,334.25
38.406,323.24
38.421,310.34
38.437,297.74
38.453,287.03
38.468,278.67
38.484,271.95
38.500,265.56
38.515,258.14
38.531,248.96
38.546,237.92
38.562,225.25
38.578,211.13
38.593,195.69
38.609,178.97
38.625,161.2
38.640,143.03
38.656,125.29
38.671,108.74
38.687,93.74
38.703,80.29
38.718,67.88
38.734,55.96
38.750,44.01
38.765,31.77
38.781,19.26
38.796,6.73
38.812,-5.45
38.828,-16.96
38.843,-27.56
38.859,-37.15
38.875,-45.81
38.890,-53.69
38.906,-60.89
38.921,-67.46
38.937,-73.32
38.953,-78.34
38.968,-82.47
38.984,-85.7
39.000,-88.1
39.015,-89.84
39.031,-91.07
39.046,-91.96
39.062,-92.55
39.078,-92.77
39.093,-92.56
39.109,-91.92
39.125,-90.99
39.140,-90.1
39.156,-89.59
39.171,-89.85
39.187,-91.05
39.203,-93.14
39.218,-95.81
39.234,-98.64
39.250,-101.39
39.265,-104.05
39.281,-106.98
39.296,-110.66
39.312,-115.64
39.328,-122.13
39.343,-130.04
39.359,-138.82
39.375,-147.88
39.390,-156.82
39.406,-165.65
39.421,-174.98
39.437,-185.68
39.453,-198.48
39.468,-213.71
39.484,-231.1
39.500,-249.66
39.515,-268.22
39.531,-285.8
39.546,-301.86
39.562,-316.65
39.578,-331.07
39.593,-346.45
39.609,-364.2
39.625,-385.1
39.640,-408.79
39.656,-433.09
39.671,-454.22
39.687,-467.32
39.703,-467.86
39.718,-453.28
39.734,-424.06
39.750,-384.09
39.765,-339.5
39.781,-297.0
39.796,-261.49
39.812,-235.01
39.828,-216.6
39.843,-203.65
39.859,-193.52
39.875,-184.45
39.890,-175.47
39.906,-165.53
39.921,-152.97
39.937,-135.88
39.953,-113.28
39.968,-86.12
39.984,-57.73
40.000,-32.55
40.015,-14.3
40.031,-4.5
40.046,-2.2
40.062,-4.79
40.078,-9.3
40.093,-13.17
40.109,-14.37
40.125,-11.14
40.140,-2.41
40.156,11.75
40.171,29.22
40.187,46.15
40.203,58.31
40.218,62.96
40.234,59.93
40.250,51.47
40.265,41.05
40.281,31.72
40.296,25.25
40.312,21.84
40.328,20.79
40.343,21.17
40.359,22.07
40.375,22.84
40.390,23.14
40.406,23.0
40.421,22.67
40.437,22.15
40.453,20.87
40.468,17.83
40.484,12.25
40.500,4.72
40.515,-2.22
40.531,-4.55
40.546,1.41
40.562,16.98
40.578,39.95
40.593,65.01
40.609,85.65
40.625,96.44
40.640,94.75
40.656,81.38
40.671,59.81
40.687,34.89
40.703,11.18
40.718,-8.13
40.734,-21.72
40.750,-29.79
40.765,-33.09
40.781,-32.21
40.796,-27.15
40.812,-17.89
40.828,-5.24
40.843,8.91
40.859,21.94
40.875,32.05
40.890,39.21
40.906,45.3
40.921,52.92
40.937,63.5
40.953,76.37
40.968,89.2
40.984,99.57
41.000,106.44
41.015,110.53
41.031,113.56
41.046,117.04
41.062,121.6
41.078,127.26
41.093,133.95
41.109,141.9
41.125,151.24
41.140,161.51
41.156,171.51
41.171,180.0
41.187,186.52
41.203,191.91
41.218,197.57
41.234,204.1
41.250,210.03
41.265,211.78
41.281,205.13
41.296,187.26
41.312,158.29
41.328,121.24
41.343,80.42
41.359,39.45
41.375,0.04
41.390,-37.7
41.406,-74.15
41.421,-108.6
41.437,-138.8
41.453,-161.56
41.468,-174.1
41.484,-175.18
41.500,-165.52
41.515,-147.04
41.531,-121.83
41.546,-91.62
41.562,-57.86
41.578,-22.16
41.593,13.18
41.609,45.33
41.625,71.23
41.640,87.99
41.656,93.0
41.671,84.14
41.687,60.14
41.703,21.26
41.718,-30.02
41.734,-89.43
41.750,-151.97
41.765,-213.68
41.781,-272.49
41.796,-327.59
41.812,-377.81
41.828,-419.66
41.843,-447.26
41.859,-454.26
41.875,-437.16
41.890,-397.3
41.906,-340.86
41.921,-276.12
41.937,-210.1
41.953,-146.82
41.968,-87.87
41.984,-34.78
42.000,9.21
42.015,39.21
42.031,51.52
42.046,46.53
42.062,29.89
42.078,10.71
42.093,-2.49
42.109,-5.12
42.125,2.03
42.140,14.51
42.156,27.03
42.171,36.27
42.187,41.46
42.203,43.63
42.218,44.35
42.234,44.7
42.250,45.63
42.265,47.82
42.281,51.76
42.296,57.29
42.312,63.47
42.328,68.64
42.343,71.37
42.359,71.21
42.375,68.51
42.390,64.12
42.406,58.65
42.421,52.77
42.437,47.82
42.453,46.54
42.468,52.4
42.484,67.78
42.500,92.26
42.515,121.53
42.531,149.12
42.546,169.04
42.562,178.65
42.578,179.43
42.593,175.54
42.609,170.88
42.625,166.75
42.640,161.87
42.656,153.91
42.671,142.1
42.687,128.24
42.703,115.79
42.718,107.56
42.734,103.65
42.750,101.41
42.765,97.03
42.781,88.2
42.796,75.67
42.812,62.88
42.828,53.88
42.843,51.01
42.859,53.72
42.875,58.87
42.890,62.73
42.906,62.37
42.921,56.96
42.937,47.32
42.953,35.22
42.968,22.57
42.984,11.14
43.000,2.24
43.015,-3.44
43.031,-5.94
43.046,-6.03
43.062,-4.67
43.078,-2.63
43.093,0.17
43.109,4.1
43.125,9.21
43.140,14.3
43.156,16.95
43.171,14.59
43.187,6.19
43.203,-6.6
43.218,-19.61
43.234,-27.6
43.250,-26.66
43.265,-16.01
43.281,1.43
43.296,20.34
43.312,35.05
43.328,41.19
43.343,36.88
43.359,22.31
43.375,-1.02
43.390,-30.69
43.406,-63.48
43.421,-95.1
43.437,-120.57
43.453,-135.69
43.468,-138.84
43.484,-132.15
43.500,-121.02
43.515,-111.75
43.531,-108.88
43.546,-113.1
43.562,-121.48
43.578,-129.38
43.593,-132.71
43.609,-129.47
43.625,-119.83
43.640,-105.46
43.656,-88.76
43.671,-72.7
43.687,-60.48
43.703,-54.88
43.718,-57.34
43.734,-67.31
43.750,-82.22
43.765,-98.73
43.781,-114.09
43.796,-126.7
43.812,-135.67
43.828,-140.28
43.843,-138.99
43.859,-130.2
43.875,-113.36
43.890,-89.78
43.906,-63.08
43.921,-38.02
43.937,-19.06
43.953,-8.99
43.968,-8.41
43.984,-15.85
44.000,-28.71
44.015,-44.05
44.031,-59.35
44.046,-73.19
44.062,-85.31
44.078,-96.68
44.093,-108.94
44.109,-123.95
44.125,-142.82
44.140,-165.73
44.156,-191.58
44.171,-217.74
44.187,-241.53
44.203,-261.14
44.218,-275.83
44.234,-285.45
44.250,-289.57
44.265,-286.87
44.281,-275.71
44.296,-254.59
44.312,-222.17
44.328,-178.7
44.343,-126.16
44.359,-67.53
44.375,-6.14
44.390,54.99
44.406,112.62
44.421,162.59
44.437,199.65
44.453,219.52
44.468,217.7
44.484,190.02
44.500,133.8
44.515,49.26
44.531,-59.58
44.546,-185.35
44.562,-318.8
44.578,-449.4
44.593,-562.44
44.609,-645.89
44.625,-692.95
44.640,-702.63
44.656,-677.36
44.671,-620.66
44.687,-536.59
44.703,-430.72
44.718,-308.49
44.734,-166.95
44.750,-6.6
44.765,165.35
44.781,335.5
44.796,490.25
44.812,620.91
44.828,724.45
44.843,800.59
44.859,853.7
44.875,903.33
44.890,964.02
44.906,1038.41
44.921,1117.23
44.937,1188.35
44.953,1244.45
44.968,1284.62
44.984,1310.1
45.000,1327.79
45.015,1363.07
45.031,1433.71
45.046,1540.95
45.062,1669.55
45.078,1799.71
45.093,1916.86
45.109,2013.82
45.125,2085.45
45.140,2011.91
45.156,1731.08
45.171,1268.27
45.187,726.38
45.203,212.33
45.218,-215.33
45.234,-545.11
45.250,-773.02
45.265,-937.32
45.281,-1061.03
45.296,-1137.12
45.312,-1158.73
45.328,-1131.15
45.343,-1073.48
45.359,-1004.57
45.375,-937.46
45.390,-878.18
45.406,-832.04
45.421,-798.73
45.437,-764.62
45.453,-721.31
45.468,-670.41
45.484,-622.31
45.500,-587.07
45.515,-568.41
45.531,-563.71
45.546,-569.94
45.562,-580.48
45.578,-581.67
45.593,-564.81
45.609,-529.61
45.625,-483.77
45.640,-437.14
45.656,-397.17
45.671,-367.27
45.687,-349.04
45.703,-339.82
45.718,-331.99
45.734,-319.77
45.750,-301.28
45.765,-278.75
45.781,-255.1
45.796,-231.26
45.812,-204.92
45.828,-172.08
45.843,-127.08
45.859,-64.4
45.875,17.35
45.890,114.27
45.906,217.59
45.921,316.48
45.937,400.9
45.953,463.76
45.968,501.51
45.984,514.61
46.000,506.25
46.015,481.13
46.031,444.8
46.046,402.87
46.062,360.55
46.078,322.19
46.093,290.88
46.109,268.16
46.125,253.91
46.140,246.73
46.156,244.27
46.171,244.1
46.187,244.21
46.203,243.43
46.218,241.36
46.234,237.97
46.250,233.26
46.265,226.94
46.281,218.51
46.296,207.45
46.312,193.55
46.328,177.09
46.343,158.79
46.359,139.55
46.375,120.3
46.390,101.67
46.406,84.2
46.421,68.13
46.437,53.62
46.453,40.54
46.468,28.43
46.484,16.43
46.500,3.53
46.515,-10.78
46.531,-26.2
46.546,-41.35
46.562,-54.12
46.578,-62.23
46.593,-64.15
46.609,-59.51
46.625,-49.21
46.640,-35.1
46.656,-19.23
46.671,-3.31
46.687,11.67
46.703,25.51
46.718,38.77
46.734,52.45
46.750,67.68
46.765,85.07
46.781,103.99
46.796,122.17
46.812,136.1
46.828,142.08
46.843,137.58
46.859,122.39
46.875,98.83
46.890,70.87
46.906,42.62
46.921,16.77
46.937,-5.95
46.953,-26.34
46.968,-45.74
46.984,-65.0
47.000,-83.82
47.015,-101.04
47.031,-115.24
47.046,-125.34
47.062,-130.94
47.078,-132.19
47.093,-129.43
47.109,-123.27
47.125,-114.48
47.140,-104.44
47.156,-95.09
47.171,-88.4
47.187,-84.98
47.203,-83.2
47.218,-78.95
47.234,-67.0
47.250,-43.26
47.265,-6.83
47.281,39.3
47.296,89.35
47.312,136.91
47.328,177.32
47.343,208.18
47.359,228.98
47.375,239.65
47.390,239.88
47.406,229.33
47.421,208.51
47.437,179.68
47.453,146.65
47.468,113.81
47.484,84.45
47.500,59.86
47.515,39.36
47.531,21.19
47.546,3.66
47.562,-13.97
47.578,-31.4
47.593,-47.69
47.609,-61.91
47.625,-73.53
47.640,-82.67
47.656,-89.68
47.671,-95.08
47.687,-99.03
47.703,-101.28
47.718,-101.3
47.734,-98.58
47.750,-92.97
47.765,-84.86
47.781,-75.31
47.796,-65.63
47.812,-57.19
47.828,-50.91
47.843,-47.04
47.859,-45.23
47.875,-44.67
47.890,-44.54
47.906,-44.29
47.921,-43.96
47.937,-44.02
47.953,-45.16
47.968,-47.9
47.984,-52.29
48.000,-57.71
48.015,-63.3
48.031,-68.24
48.046,-72.27
48.062,-75.99
48.078,-80.59
48.093,-87.41
48.109,-97.38
48.125,-110.42
48.140,-125.37
48.156,-140.47
48.171,-154.22
48.187,-166.03
48.203,-176.62
48.218,-187.62
48.234,-200.91
48.250,-217.75
48.265,-238.3
48.281,-261.9
48.296,-287.29
48.312,-312.88
48.328,-336.54
48.343,-355.57
48.359,-367.08
48.375,-369.48
48.390,-363.78
48.406,-354.05
48.421,-346.13
48.437,-344.68
48.453,-350.21
48.468,-358.24
48.484,-361.34
48.500,-352.79
48.515,-330.42
48.531,-297.86
48.546,-262.76
48.562,-233.14
48.578,-214.07
48.593,-205.77
48.609,-204.48
48.625,-204.17
48.640,-198.8
48.656,-183.97
48.671,-157.97
48.687,-122.09
48.703,-80.37
48.718,-38.29
48.734,-1.27
48.750,26.46
48.765,42.52
48.781,46.27
48.796,38.94
48.812,23.98
48.828,7.22
48.843,-4.17
48.859,-4.15
48.875,9.1
48.890,31.51
48.906,53.93
48.921,65.96
48.937,60.33
48.953,36.0
48.968,-1.99
48.984,-45.32
49.000,-86.24
49.015,-120.05
49.031,-145.72
49.046,-164.61
49.062,-178.29
49.078,-187.02
49.093,-189.21
49.109,-182.31
49.125,-164.3
49.140,-135.49
49.156,-99.36
49.171,-61.76
49.187,-28.65
49.203,-3.82
49.218,12.5
49.234,22.97
49.250,31.14
49.265,39.39
49.281,47.99
49.296,55.73
49.312,61.35
49.328,64.47
49.343,65.9
49.359,66.52
49.375,66.53
49.390,65.3
49.406,61.76
49.421,55.26
49.437,46.11
49.453,35.39
49.468,24.3
49.484,13.78
49.500,4.23
49.515,-3.8
49.531,-9.3
49.546,-10.35
49.562,-4.66
49.578,9.36
49.593,31.19
49.609,57.66
49.625,83.59
49.640,103.94
49.656,116.22
49.671,121.98
49.687,125.8
49.703,132.57
49.718,144.44
49.734,159.22
49.750,171.78
49.765,177.14
49.781,173.54
49.796,163.14
49.812,150.22
49.828,137.82
49.843,125.8
49.859,111.02
49.875,89.84
49.890,61.0
49.906,26.62
49.921,-8.69
49.937,-40.05
49.953,-63.71
49.968,-77.46
49.984,-80.05
50.000,-71.04
50.015,-51.56
50.031,-25.23
50.046,1.54
50.062,21.24
50.078,27.7
50.093,18.67
50.109,-2.98
50.125,-30.4
50.140,-55.05
50.156,-70.01
50.171,-71.93
50.187,-61.9
50.203,-44.17
50.218,-23.8
50.234,-4.46
50.250,12.86
50.265,28.88
50.281,44.55
50.296,58.94
50.312,69.82
50.328,74.89
50.343,74.09
50.359,70.12
50.375,67.0
50.390,67.4
50.406,70.26
50.421,71.43
50.437,66.06
50.453,52.53
50.468,33.93
50.484,16.77
50.500,7.48
50.515,8.97
50.531,19.13
50.546,31.9
50.562,40.66
50.578,40.79
50.593,31.5
50.609,15.39
50.625,-3.52
50.640,-21.64
50.656,-37.03
50.671,-49.15
50.687,-57.63
50.703,-61.16
50.718,-57.83
50.734,-46.43
50.750,-28.17
50.765,-7.36
50.781,10.25
50.796,20.04
50.812,21.18
50.828,17.46
50.843,15.44
50.859,20.45
50.875,33.48
50.890,50.41
50.906,64.08
50.921,68.48
50.937,61.72
50.953,46.75
50.968,29.57
50.984,15.94
51.000,8.47
51.015,5.9
51.031,4.19
51.046,-1.13
51.062,-12.33
51.078,-28.63
51.093,-46.87
51.109,-63.36
51.125,-75.63
51.140,-83.09
51.156,-86.21
51.171,-85.24
51.187,-79.51
51.203,-67.86
51.218,-50.1
51.234,-28.16
51.250,-5.72
51.265,13.41
51.281,27.41
51.296,37.37
51.312,46.19
51.328,56.59
51.343,69.44
51.359,83.74
51.375,97.74
51.390,110.71
51.406,123.29
51.421,136.51
51.437,150.48
51.453,163.37
51.468,172.2
51.484,174.54
51.500,170.27
51.515,162.01
51.531,154.4
51.546,152.3
51.562,159.24
51.578,176.19
51.593,200.81
51.609,227.49
51.625,247.8
51.640,252.15
51.656,232.19
51.671,183.45
51.687,106.87
51.703,8.31
51.718,-103.22
51.734,-218.48
51.750,-329.89
51.765,-432.42
51.781,-522.82
51.796,-599.05
51.812,-659.77
51.828,-704.49
51.843,-733.2
51.859,-745.74
51.875,-740.87
51.890,-716.0
51.906,-668.29
51.921,-597.0
51.937,-505.43
51.953,-401.42
51.968,-295.93
51.984,-199.67
52.000,-120.32
52.015,-61.01
52.031,-20.94
52.046,2.84
52.062,13.71
52.078,14.72
52.093,8.58
52.109,-1.84
52.125,-13.55
52.140,-23.8
52.156,-31.03
52.171,-35.19
52.187,-37.34
52.203,-39.12
52.218,-41.87
52.234,-45.97
52.250,-50.84
52.265,-55.33
52.281,-58.24
52.296,-58.98
52.312,-57.81
52.328,-55.72
52.343,-53.86
52.359,-53.08
52.375,-53.53
52.390,-54.66
52.406,-55.51
52.421,-55.17
52.437,-53.12
52.453,-49.44
52.468,-44.75
52.484,-39.94
52.500,-35.66
52.515,-32.29
52.531,-29.68
52.546,-27.39
52.562,-24.87
52.578,-21.66
52.593,-17.56
52.609,-12.65
52.625,-7.25
52.640,-1.71
52.656,3.68
52.671,8.71
52.687,13.2
52.703,17.08
52.718,20.32
52.734,22.88
52.750,24.88
52.765,26.45
52.781,27.77
52.796,29.21
52.812,31.11
52.828,33.79
52.843,37.49
52.859,42.28
52.875,48.03
52.890,54.56
52.906,61.46
52.921,68.23
52.937,74.31
52.953,79.23
52.968,82.64
52.984,84.29
53.000,84.15
53.015,82.21
53.031,78.78
53.046,74.12
53.062,68.62
53.078,62.64
53.093,56.5
53.109,50.55
53.125,45.08
53.140,40.22
53.156,36.06
53.171,32.53
53.187,29.61
53.203,27.23
53.218,25.47
53.234,24.45
53.250,24.48
53.265,25.99
53.281,29.24
53.296,34.41
53.312,41.34
53.328,49.68
53.343,58.91
53.359,68.55
53.375,78.25
53.390,88.05
53.406,98.09
53.421,108.65
53.437,119.89
53.453,131.71
53.468,143.76
53.484,155.53
53.500,166.76
53.515,177.36
53.531,187.8
53.546,198.64
53.562,210.45
53.578,223.52
53.593,237.6
53.609,252.08
53.625,266.24
53.640,279.61
53.656,292.13
53.671,304.22
53.687,316.53
53.703,329.87
53.718,345.15
53.734,363.1
53.750,383.97
53.765,407.08
53.781,430.33
53.796,450.25
53.812,462.87
53.828,464.96
53.843,455.49
53.859,436.08
53.875,410.34
53.890,382.49
53.906,355.9
53.921,332.17
53.937,311.19
53.953,292.1
53.968,274.19
53.984,257.22
54.000,241.48
54.015,227.13
54.031,213.95
54.046,201.36
54.062,188.79
54.078,176.0
54.093,163.31
54.109,151.5
54.125,141.44
54.140,133.73
54.156,128.44
54.171,125.02
54.187,122.62
54.203,120.3
54.218,117.43
54.234,113.8
54.250,109.45
54.265,104.41
54.281,98.34
54.296,90.51
54.312,79.85
54.328,65.38
54.343,46.5
54.359,22.98
54.375,-4.88
54.390,-36.86
54.406,-72.81
54.421,-112.75
54.437,-156.6
54.453,-203.91
54.468,-253.34
54.484,-302.51
54.500,-348.22
54.515,-386.76
54.531,-414.87
54.546,-430.14
54.562,-431.33
54.578,-418.26
54.593,-391.77
54.609,-353.45
54.625,-305.48
54.640,-250.8
54.656,-192.79
54.671,-134.96
54.687,-80.47
54.703,-31.63
54.718,10.34
54.734,45.19
54.750,73.23
54.765,95.21
54.781,111.73
54.796,123.43
54.812,130.85
54.828,134.55
54.843,135.22
54.859,133.64
54.875,130.88
54.890,127.78
54.906,124.86
54.921,122.0
54.937,118.65
54.953,114.12
54.968,108.02
54.984,100.57
55.000,92.65
55.015,85.45
55.031,79.86
55.046,76.26
55.062,74.34
55.078,73.6
55.093,73.57
55.109,73.89
55.125,74.62
55.140,75.73
55.156,77.02
55.171,78.01
55.187,78.06
55.203,76.41
55.218,72.71
55.234,66.98
55.250,59.64
55.265,51.44
55.281,42.93
55.296,34.42
55.312,25.85
55.328,17.02
55.343,7.94
55.359,-0.94
55.375,-8.73
55.390,-14.38
55.406,-17.16
55.421,-17.13
55.437,-15.07
55.453,-12.29
55.468,-9.87
55.484,-8.46
55.500,-7.93
55.515,-7.7
55.531,-7.04
55.546,-5.21
55.562,-2.03
55.578,2.13
55.593,6.46
55.609,9.85
55.625,11.31
55.640,10.24
55.656,6.57
55.671,0.7
55.687,-6.76
55.703,-15.43
55.718,-25.21
55.734,-36.3
55.750,-48.68
55.765,-61.85
55.781,-74.65
55.796,-85.52
55.812,-93.01
55.828,-96.3
55.843,-95.59
55.859,-91.75
55.875,-86.15
55.890,-80.23
55.906,-75.04
55.921,-71.28
55.937,-69.29
55.953,-69.2
55.968,-70.93
55.984,-74.22
56.000,-78.4
56.015,-82.31
56.031,-84.67
56.046,-84.05
56.062,-79.35
56.078,-69.98
56.093,-55.95
56.109,-37.74
56.125,-16.21
56.140,7.76
56.156,33.61
56.171,60.87
56.187,89.32
56.203,118.37
56.218,147.48
56.234,175.81
56.250,202.67
56.265,227.14
56.281,247.97
56.296,263.18
56.312,269.89
56.328,265.21
56.343,246.78
56.359,214.38
56.375,170.16
56.390,118.52
56.406,64.77
56.421,13.77
56.437,-31.35
56.453,-69.78
56.468,-102.47
56.484,-131.4
56.500,-158.67
56.515,-185.61
56.531,-212.73
56.546,-239.65
56.562,-265.45
56.578,-288.74
56.593,-308.02
56.609,-321.6
56.625,-327.86
56.640,-325.77
56.656,-315.1
56.671,-297.01
56.687,-273.56
56.703,-247.68
56.718,-222.04
56.734,-198.51
56.750,-177.56
56.765,-158.4
56.781,-139.53
56.796,-119.42
56.812,-97.31
56.828,-73.39
56.843,-48.95
56.859,-25.56
56.875,-4.63
56.890,13.07
56.906,27.33
56.921,38.07
56.937,45.33
56.953,49.05
56.968,49.42
56.984,47.09
57.000,42.97
57.015,38.17
57.031,33.43
57.046,28.89
57.062,24.13
57.078,18.61
57.093,11.96
57.109,4.36
57.125,-3.61
57.140,-11.25
57.156,-17.95
57.171,-23.3
57.187,-27.02
57.203,-28.81
57.218,-28.33
57.234,-25.35
57.250,-20.01
57.265,-12.84
57.281,-4.96
57.296,2.23
57.312,7.41
57.328,9.66
57.343,8.79
57.359,5.15
57.375,-0.51
57.390,-7.34
57.406,-14.54
57.421,-21.21
57.437,-26.32
57.453,-28.55
57.468,-26.52
57.484,-19.0
57.500,-5.3
57.515,14.61
57.531,40.1
57.546,70.18
57.562,103.79
57.578,139.81
57.593,176.89
57.609,213.32
57.625,246.88
57.640,275.34
57.656,296.71
57.671,310.0
57.687,315.38
57.703,313.61
57.718,305.31
57.734,290.01
57.750,266.1
57.765,231.27
57.781,183.82
57.796,123.48
57.812,51.86
57.828,-27.79
57.843,-111.7
57.859,-195.83
57.875,-275.98
57.890,-347.02
57.906,-402.99
57.921,-437.6
57.937,-446.04
57.953,-426.75
57.968,-382.7
57.984,-321.1
58.000,-251.19
58.015,-181.7
58.031,-118.35
58.046,-63.45
58.062,-16.59
58.078,23.58
58.093,57.75
58.109,85.47
58.125,105.52
58.140,117.19
58.156,120.87
58.171,118.13
58.187,111.04
58.203,101.4
58.218,90.35
58.234,78.4
58.250,65.87
58.265,53.23
58.281,41.36
58.296,31.13
58.312,23.2
58.328,17.78
58.343,14.58
58.359,13.09
58.375,12.69
58.390,12.98
58.406,13.84
58.421,15.35
58.437,17.48
58.453,20.04
58.468,22.56
58.484,24.33
58.500,24.76
58.515,23.54
58.531,20.92
58.546,17.67
58.562,14.92
58.578,13.55
58.593,13.76
58.609,14.92
58.625,15.59
58.640,14.18
58.656,9.32
58.671,0.14
58.687,-13.68
58.703,-32.0
58.718,-54.58
58.734,-81.24
58.750,-111.47
58.765,-144.35
58.781,-178.34
58.796,-211.42
58.812,-241.34
58.828,-265.85
58.843,-282.85
58.859,-290.4
58.875,-286.75
58.890,-270.18
58.906,-239.64
58.921,-195.42
58.937,-139.92
58.953,-77.51
58.968,-14.01
58.984,44.58
59.000,93.24
59.015,128.96
59.031,151.45
59.046,162.11
59.062,163.07
59.078,156.26
59.093,143.22
59.109,125.27
59.125,103.85
59.140,80.35
59.156,56.3
59.171,34.23
59.187,16.18
59.203,2.89
59.218,-6.71
59.234,-14.69
59.250,-23.19
59.265,-33.57
59.281,-46.46
59.296,-61.78
59.312,-76.53
59.328,-87.64
59.343,-93.85
59.359,-96.46
59.375,-98.2
59.390,-101.35
59.406,-106.9
59.421,-114.76
59.437,-124.09
59.453,-129.94
59.468,-127.62
59.484,-115.55
59.500,-96.21
59.515,-74.03
59.531,-52.51
59.546,-32.93
59.562,-14.85
59.578,3.38
59.593,29.23
59.609,69.96
59.625,129.26
59.640,205.67
59.656,294.76
59.671,392.0
59.687,493.23
59.703,593.72
59.718,659.98
59.734,663.6
59.750,595.88
59.765,475.17
59.781,331.57
59.796,188.9
59.812,60.0
59.828,-49.99
59.843,-137.74
59.859,-209.03
59.875,-261.56
59.890,-291.09
59.906,-296.09
59.921,-280.62
59.937,-252.5
59.953,-220.32
59.968,-188.51
59.984,-162.33
