timestamp,value
00.000,66.82
00.015,49.01
00.031,33.66
00.046,17.84
00.062,-0.56
00.078,-21.24
00.093,-41.33
00.109,-56.9
00.125,-64.98
00.140,-65.07
00.156,-59.11
00.171,-50.5
00.187,-42.52
00.203,-37.03
00.218,-33.78
00.234,-30.66
00.250,-24.47
00.265,-11.94
00.281,9.15
00.296,39.06
00.312,75.46
00.328,113.46
00.343,146.49
00.359,167.77
00.375,171.9
00.390,156.28
00.406,121.87
00.421,73.29
00.437,18.13
00.453,-34.66
00.468,-77.05
00.484,-104.05
00.500,-115.18
00.515,-114.35
00.531,-108.22
00.546,-103.8
00.562,-106.17
00.578,-117.27
00.593,-135.76
00.609,-158.0
00.625,-179.16
00.640,-194.41
00.656,-199.71
00.671,-192.26
00.687,-170.77
00.703,-135.86
00.718,-90.2
00.734,-38.4
00.750,13.71
00.765,60.09
00.781,95.81
00.796,118.02
00.812,126.32
00.828,122.38
00.843,108.96
00.859,88.95
00.875,64.95
00.890,39.34
00.906,14.73
00.921,-5.97
00.937,-20.06
00.953,-25.99
00.968,-24.18
00.984,-16.92
01.000,-7.42
01.015,1.44
01.031,8.39
01.046,14.14
01.062,21.09
01.078,32.36
01.093,50.57
01.109,76.8
01.125,109.99
01.140,147.14
01.156,183.93
01.171,215.72
01.187,238.55
01.203,249.69
01.218,247.78
01.234,232.57
01.250,204.79
01.265,166.08
01.281,119.29
01.296,68.39
01.312,18.02
01.328,-27.28
01.343,-63.99
01.359,-90.31
01.375,-106.37
01.390,-114.14
01.406,-117.28
01.421,-120.77
01.437,-129.93
01.453,-148.79
01.468,-178.04
01.484,-213.73
01.500,-247.66
01.515,-269.92
01.531,-272.52
01.546,-252.42
01.562,-212.33
01.578,-158.97
01.593,-100.0
01.609,-41.49
01.625,12.75
01.640,60.27
01.656,98.54
01.671,124.3
01.687,134.29
01.703,126.8
01.718,103.07
01.734,67.49
01.750,26.49
01.765,-13.16
01.781,-45.87
01.796,-68.02
01.812,-78.27
01.828,-77.41
01.843,-68.19
01.859,-54.96
01.875,-42.71
01.890,-35.66
01.906,-35.61
01.921,-40.85
01.937,-46.46
01.953,-46.09
01.968,-34.59
01.984,-10.4
02.000,23.47
02.015,60.21
02.031,91.58
02.046,110.65
02.062,114.15
02.078,103.61
02.093,84.91
02.109,66.64
02.125,57.15
02.140,61.24
02.156,77.94
02.171,100.13
02.187,116.82
02.203,116.91
02.218,93.49
02.234,46.6
02.250,-16.5
02.265,-83.68
02.281,-141.58
02.296,-179.23
02.312,-190.46
02.328,-174.63
02.343,-136.1
02.359,-82.85
02.375,-24.64
02.390,28.89
02.406,70.07
02.421,94.49
02.437,101.1
02.453,91.58
02.468,69.2
02.484,38.15
02.500,3.25
02.515,-29.94
02.531,-55.59
02.546,-68.75
02.562,-67.18
02.578,-53.07
02.593,-33.37
02.609,-17.79
02.625,-14.96
02.640,-28.5
02.656,-54.95
02.671,-84.78
02.687,-106.14
02.703,-109.81
02.718,-92.87
02.734,-59.63
02.750,-19.7
02.765,15.71
02.781,37.84
02.796,43.24
02.812,34.66
02.828,19.74
02.843,7.94
02.859,6.82
02.875,18.89
02.890,40.34
02.906,62.34
02.921,74.64
02.937,69.81
02.953,46.34
02.968,9.23
02.984,-32.2
03.000,-67.88
03.015,-90.2
03.031,-95.57
03.046,-84.38
03.062,-59.52
03.078,-25.1
03.093,14.27
03.109,53.65
03.125,87.82
03.140,111.88
03.156,122.06
03.171,116.75
03.187,96.94
03.203,65.95
03.218,28.77
03.234,-8.86
03.250,-41.31
03.265,-63.95
03.281,-73.9
03.296,-70.96
03.312,-57.99
03.328,-40.58
03.343,-25.19
03.359,-16.69
03.375,-15.98
03.390,-19.3
03.406,-19.89
03.421,-11.33
03.437,8.97
03.453,38.05
03.468,68.42
03.484,91.38
03.500,100.78
03.515,95.69
03.531,80.79
03.546,64.26
03.562,54.29
03.578,55.57
03.593,67.25
03.609,83.05
03.625,93.52
03.640,89.54
03.656,65.67
03.671,22.26
03.687,-34.55
03.703,-94.79
03.718,-147.71
03.734,-184.41
03.750,-199.43
03.765,-191.09
03.781,-160.92
03.796,-113.26
03.812,-54.77
03.828,6.04
03.843,59.96
03.859,98.67
03.875,116.45
03.890,111.57
03.906,86.77
03.921,48.76
03.937,6.87
03.953,-29.31
03.968,-52.45
03.984,-59.51
04.000,-52.55
04.015,-37.94
04.031,-23.82
04.046,-16.92
04.062,-19.87
04.078,-30.19
04.093,-41.56
04.109,-46.62
04.125,-40.05
04.140,-20.62
04.156,8.28
04.171,40.0
04.187,66.86
04.203,82.69
04.218,84.84
04.234,75.28
04.250,60.06
04.265,47.03
04.281,42.74
04.296,49.29
04.312,62.99
04.328,75.39
04.343,76.55
04.359,59.19
04.375,21.64
04.390,-31.44
04.406,-90.96
04.421,-146.78
04.437,-190.57
04.453,-217.15
04.468,-224.24
04.484,-211.44
04.500,-179.66
04.515,-131.67
04.531,-72.9
04.546,-11.7
04.562,42.11
04.578,79.72
04.593,95.87
04.609,90.12
04.625,66.46
04.640,31.85
04.656,-5.58
04.671,-37.93
04.687,-58.51
04.703,-62.95
04.718,-50.4
04.734,-24.32
04.750,8.0
04.765,37.43
04.781,56.44
04.796,62.04
04.812,56.87
04.828,47.67
04.843,41.98
04.859,44.57
04.875,55.47
04.890,70.44
04.906,83.32
04.921,89.0
04.937,85.65
04.953,75.54
04.968,63.92
04.984,56.88
05.000,58.61
05.015,69.45
05.031,85.4
05.046,99.4
05.062,103.7
05.078,92.52
05.093,63.65
05.109,18.9
05.125,-36.56
05.140,-95.47
05.156,-149.6
05.171,-190.64
05.187,-211.19
05.203,-206.09
05.218,-174.21
05.234,-119.85
05.250,-52.72
05.265,14.11
05.281,67.79
05.296,99.38
05.312,105.96
05.328,90.53
05.343,60.22
05.359,23.89
05.375,-9.82
05.390,-33.8
05.406,-43.35
05.421,-36.96
05.437,-17.07
05.453,10.13
05.468,36.26
05.484,53.6
05.500,58.24
05.515,51.75
05.531,40.54
05.546,32.66
05.562,34.12
05.578,46.34
05.593,65.9
05.609,86.63
05.625,102.76
05.640,111.58
05.656,114.11
05.671,113.75
05.687,113.74
05.703,114.68
05.718,113.59
05.734,105.18
05.750,84.33
05.765,48.89
05.781,0.93
05.796,-53.76
05.812,-107.48
05.828,-152.8
05.843,-183.8
05.859,-196.4
05.875,-188.15
05.890,-158.42
05.906,-109.26
05.921,-46.27
05.937,21.43
05.953,82.9
05.968,128.19
05.984,151.12
06.000,150.71
06.015,131.05
06.031,99.68
06.046,65.1
06.062,34.57
06.078,12.24
06.093,-1.69
06.109,-10.87
06.125,-21.34
06.140,-38.83
06.156,-65.55
06.171,-98.18
06.187,-128.18
06.203,-144.81
06.218,-139.54
06.234,-109.91
06.250,-60.53
06.265,-1.2
06.281,56.81
06.296,104.52
06.312,137.51
06.328,155.89
06.343,162.92
06.359,162.65
06.375,157.82
06.390,148.61
06.406,132.84
06.421,107.27
06.437,69.56
06.453,20.16
06.468,-36.94
06.484,-94.82
06.500,-145.45
06.515,-181.85
06.531,-199.38
06.546,-196.26
06.562,-173.2
06.578,-133.28
06.593,-81.63
06.609,-25.3
06.625,27.75
06.640,70.29
06.656,97.4
06.671,107.4
06.687,101.42
06.703,82.47
06.718,54.47
06.734,21.87
06.750,-10.63
06.765,-38.41
06.781,-57.75
06.796,-67.1
06.812,-67.57
06.828,-62.6
06.843,-56.18
06.859,-50.75
06.875,-45.94
06.890,-38.89
06.906,-26.06
06.921,-5.36
06.937,22.46
06.953,53.78
06.968,83.35
06.984,105.91
07.000,117.63
07.015,116.91
07.031,104.85
07.046,85.11
07.062,63.36
07.078,45.76
07.093,37.09
07.109,38.91
07.125,48.55
07.140,59.95
07.156,65.76
07.171,60.0
07.187,39.75
07.203,5.62
07.218,-38.96
07.234,-88.62
07.250,-137.11
07.265,-178.22
07.281,-206.54
07.296,-218.24
07.312,-211.62
07.328,-187.35
07.343,-148.29
07.359,-99.13
07.375,-45.74
07.390,5.35
07.406,47.91
07.421,77.06
07.437,90.61
07.453,89.73
07.468,78.32
07.484,61.38
07.500,43.02
07.515,25.41
07.531,9.16
07.546,-5.39
07.562,-17.05
07.578,-23.91
07.593,-24.52
07.609,-19.11
07.625,-10.19
07.640,-1.54
07.656,3.48
07.671,3.84
07.687,1.59
07.703,1.04
07.718,6.9
07.734,22.01
07.750,45.92
07.765,74.9
07.781,103.41
07.796,126.31
07.812,140.69
07.828,146.52
07.843,145.84
07.859,141.31
07.875,134.96
07.890,127.87
07.906,120.52
07.921,113.32
07.937,106.61
07.953,100.29
07.968,93.37
07.984,83.97
08.000,69.93
08.015,49.74
08.031,23.19
08.046,-8.55
08.062,-43.33
08.078,-78.77
08.093,-112.72
08.109,-143.5
08.125,-169.67
08.140,-189.93
08.156,-203.04
08.171,-207.8
08.187,-203.13
08.203,-188.1
08.218,-162.27
08.234,-126.32
08.250,-82.64
08.265,-35.6
08.281,9.06
08.296,45.55
08.312,69.67
08.328,79.91
08.343,77.82
08.359,67.07
08.375,51.91
08.390,35.67
08.406,19.9
08.421,4.63
08.437,-10.7
08.453,-26.08
08.468,-40.43
08.484,-51.93
08.500,-58.73
08.515,-59.81
08.531,-55.19
08.546,-45.87
08.562,-33.29
08.578,-18.94
08.593,-4.06
08.609,10.33
08.625,23.41
08.640,34.46
08.656,43.07
08.671,49.41
08.687,54.28
08.703,58.97
08.718,64.61
08.734,71.53
08.750,78.72
08.765,84.0
08.781,84.62
08.796,78.47
08.812,65.24
08.828,46.68
08.843,26.09
08.859,6.85
08.875,-8.98
08.890,-21.46
08.906,-32.34
08.921,-43.82
08.937,-57.28
08.953,-72.54
08.968,-88.2
08.984,-102.59
09.000,-114.84
09.015,-125.38
09.031,-135.55
09.046,-146.6
09.062,-158.66
09.078,-170.0
09.093,-176.98
09.109,-174.92
09.125,-159.42
09.140,-128.23
09.156,-82.77
09.171,-28.54
09.187,25.89
09.203,71.48
09.218,101.69
09.234,114.62
09.250,112.95
09.265,102.2
09.281,87.92
09.296,73.56
09.312,60.12
09.328,47.4
09.343,35.64
09.359,26.3
09.375,21.21
09.390,20.69
09.406,22.42
09.421,22.13
09.437,16.01
09.453,3.29
09.468,-12.74
09.484,-25.94
09.500,-30.28
09.515,-22.69
09.531,-4.25
09.546,20.86
09.562,47.6
09.578,72.26
09.593,93.19
09.609,110.14
09.625,122.99
09.640,130.92
09.656,132.72
09.671,127.63
09.687,116.25
09.703,100.5
09.718,82.88
09.734,65.52
09.750,49.34
09.765,33.93
09.781,17.98
09.796,0.28
09.812,-19.35
09.828,-39.75
09.843,-58.95
09.859,-75.27
09.875,-88.41
09.890,-99.89
09.906,-112.4
09.921,-128.55
09.937,-149.2
09.953,-172.78
09.968,-195.63
09.984,-213.28
10.000,-222.09
10.015,-220.17
10.031,-207.34
10.046,-184.21
10.062,-151.27
10.078,-108.89
10.093,-58.13
10.109,-2.03
10.125,53.82
10.140,102.09
10.156,135.73
10.171,150.31
10.187,145.74
10.203,126.23
10.218,98.52
10.234,69.45
10.250,43.72
10.265,23.14
10.281,7.17
10.296,-5.56
10.312,-15.89
10.328,-23.53
10.343,-27.58
10.359,-27.52
10.375,-23.94
10.390,-18.6
10.406,-13.52
10.421,-10.06
10.437,-8.06
10.453,-6.08
10.468,-2.19
10.484,5.05
10.500,16.05
10.515,30.33
10.531,46.96
10.546,64.99
10.562,83.4
10.578,100.8
10.593,115.09
10.609,123.52
10.625,123.46
10.640,113.52
10.656,94.44
10.671,69.45
10.687,43.37
10.703,21.17
10.718,6.02
10.734,-1.96
10.750,-5.79
10.765,-10.33
10.781,-20.18
10.796,-37.73
10.812,-62.38
10.828,-91.17
10.843,-120.3
10.859,-146.74
10.875,-168.84
10.890,-185.94
10.906,-197.4
10.921,-201.99
10.937,-198.1
10.953,-184.52
10.968,-161.25
10.984,-129.84
11.000,-92.91
11.015,-53.45
11.031,-14.14
11.046,22.69
11.062,54.86
11.078,80.18
11.093,96.72
11.109,103.37
11.125,100.47
11.140,90.01
11.156,75.13
11.171,59.21
11.187,44.89
11.203,33.5
11.218,25.14
11.234,19.22
11.250,15.14
11.265,12.74
11.281,12.3
11.296,14.1
11.312,17.9
11.328,22.83
11.343,27.81
11.359,32.27
11.375,36.65
11.390,42.2
11.406,50.06
11.421,60.32
11.437,71.62
11.453,81.7
11.468,88.76
11.484,92.48
11.500,94.15
11.515,95.52
11.531,97.26
11.546,97.93
11.562,94.42
11.578,83.63
11.593,64.45
11.609,38.93
11.625,11.6
11.640,-12.33
11.656,-29.23
11.671,-38.43
11.687,-42.19
11.703,-44.25
11.718,-48.11
11.734,-55.65
11.750,-66.82
11.765,-80.32
11.781,-94.73
11.796,-109.33
11.812,-124.18
11.828,-139.45
11.843,-154.57
11.859,-167.68
11.875,-175.88
11.890,-176.15
11.906,-166.34
11.921,-145.93
11.937,-116.1
11.953,-79.38
11.968,-39.11
11.984,1.06
12.000,37.51
12.015,67.13
12.031,87.69
12.046,98.27
12.062,99.39
12.078,92.82
12.093,81.08
12.109,66.8
12.125,52.21
12.140,39.01
12.156,28.25
12.171,20.61
12.187,16.45
12.203,15.88
12.218,18.75
12.234,24.54
12.250,32.31
12.265,40.7
12.281,48.06
12.296,52.96
12.312,54.73
12.328,53.84
12.343,51.81
12.359,50.68
12.375,52.2
12.390,57.35
12.406,66.43
12.421,79.49
12.437,96.62
12.453,117.69
12.468,141.39
12.484,164.46
12.500,181.61
12.515,186.84
12.531,175.66
12.546,147.24
12.562,105.18
12.578,56.4
12.593,8.82
12.609,-31.19
12.625,-60.25
12.640,-78.01
12.656,-86.33
12.671,-88.18
12.687,-86.78
12.703,-85.19
12.718,-85.98
12.734,-90.79
12.750,-100.03
12.765,-112.77
12.781,-127.05
12.796,-140.73
12.812,-152.11
12.828,-160.32
12.843,-165.08
12.859,-166.28
12.875,-163.55
12.890,-156.26
12.906,-143.74
12.921,-125.62
12.937,-102.09
12.953,-73.99
12.968,-42.86
12.984,-10.86
13.000,19.52
13.015,45.8
13.031,66.05
13.046,79.27
13.062,85.47
13.078,85.48
13.093,80.53
13.109,71.89
13.125,60.76
13.140,48.35
13.156,36.03
13.171,25.32
13.187,17.61
13.203,13.82
13.218,14.16
13.234,18.19
13.250,25.22
13.265,34.68
13.281,46.38
13.296,60.31
13.312,76.3
13.328,93.62
13.343,110.77
13.359,125.64
13.375,135.97
13.390,139.91
13.406,136.56
13.421,126.13
13.437,109.72
13.453,88.91
13.468,65.31
13.484,40.35
13.500,15.31
13.515,-8.45
13.531,-29.38
13.546,-45.88
13.562,-56.62
13.578,-61.08
13.593,-59.93
13.609,-55.07
13.625,-49.27
13.640,-45.44
13.656,-45.78
13.671,-51.29
13.687,-61.62
13.703,-75.48
13.718,-91.32
13.734,-107.92
13.750,-124.7
13.765,-141.43
13.781,-157.52
13.796,-171.35
13.812,-180.1
13.828,-180.27
13.843,-168.83
13.859,-144.48
13.875,-108.42
13.890,-64.38
13.906,-17.57
13.921,26.62
13.937,63.91
13.953,91.84
13.968,109.68
13.984,117.8
14.000,117.02
14.015,108.33
14.031,92.96
14.046,72.84
14.062,50.59
14.078,29.24
14.093,11.54
14.109,-0.76
14.125,-7.26
14.140,-8.81
14.156,-6.86
14.171,-2.88
14.187,2.19
14.203,8.06
14.218,15.02
14.234,23.79
14.250,35.28
14.265,50.33
14.281,69.35
14.296,91.85
14.312,116.23
14.328,139.72
14.343,158.79
14.359,169.85
14.375,170.09
14.390,158.18
14.406,134.72
14.421,102.21
14.437,64.74
14.453,27.2
14.468,-5.71
14.484,-30.45
14.500,-45.55
14.515,-51.84
14.531,-52.23
14.546,-50.61
14.562,-50.68
14.578,-54.73
14.593,-63.07
14.609,-74.43
14.625,-86.79
14.640,-98.66
14.656,-109.73
14.671,-120.89
14.687,-133.41
14.703,-147.97
14.718,-163.78
14.734,-178.41
14.750,-188.31
14.765,-189.61
14.781,-179.17
14.796,-155.39
14.812,-118.79
14.828,-72.11
14.843,-20.03
14.859,31.71
14.875,77.44
14.890,112.65
14.906,134.85
14.921,143.59
14.937,140.07
14.953,126.45
14.968,105.37
14.984,79.7
15.000,52.6
15.015,27.43
15.031,7.24
15.046,-5.76
15.062,-10.77
15.078,-8.55
15.093,-0.93
15.109,9.85
15.125,21.8
15.140,33.47
15.156,43.88
15.171,52.41
15.187,58.61
15.203,62.32
15.218,63.94
15.234,64.65
15.250,66.41
15.265,71.68
15.281,82.58
15.296,99.88
15.312,122.04
15.328,144.94
15.343,162.52
15.359,168.29
15.375,157.52
15.390,129.16
15.406,86.71
15.421,37.57
15.437,-9.05
15.453,-44.82
15.468,-64.53
15.484,-67.27
15.500,-56.36
15.515,-38.03
15.531,-19.45
15.546,-6.86
15.562,-4.21
15.578,-12.7
15.593,-30.99
15.609,-56.03
15.625,-84.03
15.640,-111.51
15.656,-135.88
15.671,-155.47
15.687,-169.22
15.703,-176.11
15.718,-174.91
15.734,-164.59
15.750,-144.99
15.765,-117.41
15.781,-84.7
15.796,-50.57
15.812,-18.67
15.828,8.33
15.843,29.18
15.859,43.74
15.875,52.47
15.890,55.83
15.906,54.17
15.921,47.92
15.937,38.09
15.953,26.36
15.968,14.97
15.984,6.22
16.000,1.93
16.015,2.84
16.031,8.48
16.046,17.22
16.062,26.81
16.078,35.02
16.093,40.27
16.109,41.95
16.125,40.49
16.140,37.14
16.156,33.71
16.171,32.21
16.187,34.59
16.203,42.2
16.218,55.19
16.234,72.0
16.250,89.37
16.265,103.04
16.281,108.88
16.296,104.34
16.312,89.4
16.328,66.93
16.343,42.09
16.359,21.03
16.375,9.16
16.390,9.6
16.406,22.18
16.421,43.46
16.437,67.65
16.453,88.2
16.468,99.6
16.484,98.63
16.500,84.64
16.515,59.11
16.531,24.95
16.546,-14.37
16.562,-55.42
16.578,-95.29
16.593,-131.75
16.609,-163.14
16.625,-187.75
16.640,-203.36
16.656,-207.02
16.671,-195.86
16.687,-168.45
16.703,-126.25
16.718,-74.17
16.734,-19.6
16.750,29.62
16.765,67.45
16.781,91.02
16.796,100.62
16.812,98.55
16.828,87.82
16.843,71.38
16.859,52.01
16.875,32.48
16.890,15.47
16.906,3.05
16.921,-3.75
16.937,-5.36
16.953,-3.6
16.968,-1.14
16.984,-0.43
17.000,-2.77
17.015,-7.69
17.031,-12.96
17.046,-15.47
17.062,-12.28
17.078,-1.63
17.093,16.71
17.109,41.66
17.125,71.22
17.140,102.73
17.156,132.79
17.171,157.16
17.187,171.13
17.203,170.69
17.218,154.15
17.234,123.45
17.250,84.11
17.265,43.88
17.281,10.19
17.296,-12.09
17.312,-21.94
17.328,-21.75
17.343,-15.95
17.359,-9.27
17.375,-5.25
17.390,-5.78
17.406,-11.12
17.421,-20.52
17.437,-32.78
17.453,-46.88
17.468,-62.38
17.484,-79.84
17.500,-100.45
17.515,-125.26
17.531,-153.76
17.546,-182.69
17.562,-205.99
17.578,-216.22
17.593,-207.18
17.609,-176.53
17.625,-127.2
17.640,-66.7
17.656,-4.82
17.671,49.33
17.687,89.52
17.703,113.02
17.718,120.07
17.734,112.74
17.750,94.13
17.765,67.9
17.781,38.2
17.796,9.35
17.812,-14.8
17.828,-31.54
17.843,-39.81
17.859,-40.16
17.875,-34.43
17.890,-25.09
17.906,-14.6
17.921,-4.86
17.937,3.18
17.953,9.79
17.968,16.39
17.984,25.17
18.000,38.37
18.015,57.39
18.031,82.02
18.046,110.16
18.062,137.99
18.078,160.76
18.093,173.95
18.109,174.3
18.125,160.56
18.140,133.65
18.156,96.48
18.171,53.46
18.187,10.03
18.203,-28.09
18.218,-55.79
18.234,-69.69
18.250,-69.16
18.265,-56.73
18.281,-37.52
18.296,-17.78
18.312,-3.14
18.328,2.73
18.343,-1.48
18.359,-15.26
18.375,-37.34
18.390,-66.25
18.406,-100.17
18.421,-136.07
18.437,-169.06
18.453,-192.57
18.468,-199.83
18.484,-186.07
18.500,-150.51
18.515,-97.23
18.531,-34.41
18.546,27.86
18.562,80.28
18.578,116.51
18.593,134.12
18.609,134.15
18.625,119.87
18.640,95.4
18.656,64.81
18.671,31.85
18.687,0.09
18.703,-27.17
18.718,-47.21
18.734,-58.35
18.750,-60.42
18.765,-54.91
18.781,-44.58
18.796,-32.62
18.812,-21.68
18.828,-13.06
18.843,-6.39
18.859,0.07
18.875,8.62
18.890,20.98
18.906,37.26
18.921,55.7
18.937,73.11
18.953,85.96
18.968,91.81
18.984,90.19
19.000,82.72
19.015,72.31
19.031,61.92
19.046,53.43
19.062,47.11
19.078,41.96
19.093,36.44
19.109,29.38
19.125,20.51
19.140,10.41
19.156,0.11
19.171,-9.69
19.187,-18.89
19.203,-27.89
19.218,-37.05
19.234,-46.25
19.250,-54.96
19.265,-62.73
19.281,-70.03
19.296,-78.27
19.312,-89.13
19.328,-103.27
19.343,-119.27
19.359,-133.46
19.375,-141.02
19.390,-137.83
19.406,-122.06
19.421,-94.87
19.437,-59.9
19.453,-22.07
19.468,13.7
19.484,43.34
19.500,64.1
19.515,74.55
19.531,74.63
19.546,65.48
19.562,49.17
19.578,28.44
19.593,6.26
19.609,-14.53
19.625,-31.54
19.640,-43.06
19.656,-48.38
19.671,-47.82
19.687,-42.52
19.703,-34.08
19.718,-24.07
19.734,-13.65
19.750,-3.55
19.765,5.8
19.781,14.04
19.796,20.93
19.812,26.55
19.828,31.65
19.843,37.56
19.859,45.74
19.875,57.01
19.890,70.83
19.906,85.09
19.921,96.58
19.937,101.96
19.953,98.81
19.968,86.43
19.984,65.96
20.000,40.01
20.015,12.0
20.031,-14.44
20.046,-36.0
20.062,-49.99
20.078,-54.77
20.093,-50.13
20.109,-37.61
20.125,-20.55
20.140,-3.46
20.156,9.02
20.171,13.21
20.187,7.29
20.203,-8.63
20.218,-32.98
20.234,-63.47
20.250,-97.61
20.265,-132.62
20.281,-165.01
20.296,-190.18
20.312,-202.87
20.328,-198.37
20.343,-174.31
20.359,-132.08
20.375,-77.12
20.390,-17.7
20.406,37.32
20.421,80.85
20.437,109.19
20.453,122.15
20.468,122.15
20.484,112.76
20.500,97.46
20.515,79.08
20.531,59.75
20.546,41.28
20.562,25.28
20.578,13.14
20.593,5.81
20.609,3.5
20.625,5.46
20.640,10.11
20.656,15.48
20.671,19.93
20.687,22.82
20.703,24.91
20.718,28.04
20.734,34.28
20.750,44.92
20.765,59.72
20.781,76.89
20.796,93.65
20.812,107.02
20.828,114.54
20.843,114.56
20.859,106.22
20.875,89.24
20.890,63.96
20.906,31.67
20.921,-4.92
20.937,-41.47
20.953,-72.36
20.968,-91.76
20.984,-95.12
21.000,-80.52
21.015,-49.61
21.031,-7.8
21.046,36.81
21.062,75.1
21.078,99.1
21.093,103.69
21.109,87.72
21.125,53.89
21.140,7.84
21.156,-43.32
21.171,-92.63
21.187,-134.46
21.203,-165.18
21.218,-183.07
21.234,-187.9
21.250,-180.47
21.265,-162.3
21.281,-135.5
21.296,-102.86
21.312,-67.76
21.328,-33.77
21.343,-4.03
21.359,19.53
21.375,36.56
21.390,48.12
21.406,55.9
21.421,61.04
21.437,63.49
21.453,62.23
21.468,56.15
21.484,45.24
21.500,31.28
21.515,17.47
21.531,7.18
21.546,2.47
21.562,3.38
21.578,8.2
21.593,14.5
21.609,20.42
21.625,25.42
21.640,30.16
21.656,35.95
21.671,44.0
21.687,54.98
21.703,69.0
21.718,85.52
21.734,103.29
21.750,120.35
21.765,134.0
21.781,141.36
21.796,139.97
21.812,128.46
21.828,106.75
21.843,76.04
21.859,38.59
21.875,-2.34
21.890,-42.46
21.906,-76.68
21.921,-99.83
21.937,-108.15
21.953,-100.75
21.968,-80.47
21.984,-53.3
22.000,-26.52
22.015,-6.52
22.031,2.76
22.046,-0.1
22.062,-15.04
22.078,-41.51
22.093,-78.46
22.109,-123.39
22.125,-171.09
22.140,-213.46
22.156,-241.22
22.171,-246.82
22.187,-227.08
22.203,-184.26
22.218,-124.93
22.234,-57.63
22.250,9.48
22.265,69.83
22.281,118.45
22.296,151.61
22.312,166.81
22.328,163.45
22.343,143.64
22.359,112.22
22.375,75.88
22.390,41.39
22.406,13.79
22.421,-4.69
22.437,-14.68
22.453,-18.74
22.468,-20.01
22.484,-20.87
22.500,-22.17
22.515,-23.12
22.531,-22.02
22.546,-17.34
22.562,-8.62
22.578,3.34
22.593,17.06
22.609,31.27
22.625,45.39
22.640,59.51
22.656,73.72
22.671,87.46
22.687,99.48
22.703,108.22
22.718,112.56
22.734,112.11
22.750,107.0
22.765,97.56
22.781,84.11
22.796,67.19
22.812,48.38
22.828,30.51
22.843,17.23
22.859,11.45
22.875,13.8
22.890,21.45
22.906,28.95
22.921,30.24
22.937,21.14
22.953,1.42
22.968,-25.38
22.984,-53.86
23.000,-79.71
23.015,-101.64
23.031,-121.26
23.046,-140.61
23.062,-159.57
23.078,-174.35
23.093,-178.74
23.109,-167.36
23.125,-138.74
23.140,-96.41
23.156,-47.25
23.171,1.67
23.187,45.48
23.203,81.71
23.218,108.81
23.234,124.25
23.250,124.36
23.265,106.24
23.281,70.56
23.296,23.14
23.312,-26.12
23.328,-66.62
23.343,-91.04
23.359,-97.64
23.375,-89.83
23.390,-73.73
23.406,-55.02
23.421,-36.95
23.437,-20.34
23.453,-4.88
23.468,9.45
23.484,21.78
23.500,30.89
23.515,36.38
23.531,39.32
23.546,42.31
23.562,48.23
23.578,58.84
23.593,73.81
23.609,90.74
23.625,105.96
23.640,115.83
23.656,117.79
23.671,110.84
23.687,95.67
23.703,74.28
23.718,49.67
23.734,25.36
23.750,4.77
23.765,-9.5
23.781,-16.46
23.796,-17.26
23.812,-14.78
23.828,-12.72
23.843,-14.27
23.859,-21.08
23.875,-33.29
23.890,-50.27
23.906,-71.76
23.921,-98.15
23.937,-129.44
23.953,-163.66
23.968,-195.66
23.984,-217.74
24.000,-222.31
24.015,-205.17
24.031,-167.44
24.046,-115.14
24.062,-56.57
24.078,0.76
24.093,51.86
24.109,93.87
24.125,124.61
24.140,141.57
24.156,142.34
24.171,126.3
24.187,96.2
24.203,58.24
24.218,20.38
24.234,-10.34
24.250,-29.93
24.265,-38.05
24.281,-37.1
24.296,-30.66
24.312,-21.98
24.328,-13.24
24.343,-5.55
24.359,0.79
24.375,5.85
24.390,10.01
24.406,13.9
24.421,18.38
24.437,24.6
24.453,33.64
24.468,46.13
24.484,61.88
24.500,79.65
24.515,97.28
24.531,112.23
24.546,122.15
24.562,125.39
24.578,121.04
24.593,108.84
24.609,89.04
24.625,62.49
24.640,31.12
24.656,-1.68
24.671,-31.19
24.687,-52.53
24.703,-62.49
24.718,-61.14
24.734,-52.37
24.750,-42.63
24.765,-38.49
24.781,-44.17
24.796,-60.45
24.812,-85.22
24.828,-115.07
24.843,-146.5
24.859,-176.13
24.875,-200.02
24.890,-213.53
24.906,-212.15
24.921,-193.38
24.937,-158.56
24.953,-113.08
24.968,-64.47
24.984,-19.3
25.000,19.19
25.015,51.31
25.031,78.95
25.046,102.84
25.062,121.1
25.078,129.85
25.093,125.76
25.109,108.51
25.125,81.79
25.140,52.05
25.156,25.8
25.171,7.18
25.187,-3.14
25.203,-7.18
25.218,-7.73
25.234,-6.64
25.250,-4.18
25.265,0.33
25.281,7.41
25.296,16.65
25.312,26.85
25.328,36.74
25.343,45.69
25.359,53.94
25.375,62.29
25.390,71.31
25.406,80.91
25.421,90.37
25.437,98.73
25.453,105.15
25.468,109.01
25.484,109.69
25.500,106.45
25.515,98.65
25.531,86.22
25.546,70.23
25.562,52.78
25.578,36.17
25.593,21.77
25.609,9.14
25.625,-3.87
25.640,-19.99
25.656,-41.15
25.671,-67.63
25.687,-98.23
25.703,-131.19
25.718,-164.85
25.734,-197.49
25.750,-226.38
25.765,-247.22
25.781,-254.68
25.796,-244.26
25.812,-214.61
25.828,-168.74
25.843,-113.2
25.859,-55.46
25.875,-1.13
25.890,47.31
25.906,89.57
25.921,125.38
25.937,152.75
25.953,168.1
25.968,168.22
25.984,152.77
26.000,125.37
26.015,92.71
26.031,61.84
26.046,37.55
26.062,21.14
26.078,10.9
26.093,4.02
26.109,-1.48
26.125,-5.86
26.140,-8.03
26.156,-6.7
26.171,-1.54
26.187,6.35
26.203,14.86
26.218,21.75
26.234,25.56
26.250,26.46
26.265,26.19
26.281,27.51
26.296,33.18
26.312,44.93
26.328,62.58
26.343,83.85
26.359,104.79
26.375,120.8
26.390,127.72
26.406,122.7
26.421,104.74
26.437,75.0
26.453,36.85
26.468,-4.51
26.484,-42.98
26.500,-72.94
26.515,-90.97
26.531,-96.76
26.546,-93.27
26.562,-85.52
26.578,-78.96
26.593,-77.77
26.609,-84.31
26.625,-99.08
26.640,-121.16
26.656,-148.52
26.671,-177.81
26.687,-204.37
26.703,-222.48
26.718,-226.48
26.734,-212.32
26.750,-178.86
26.765,-128.4
26.781,-66.25
26.796,0.2
26.812,63.03
26.828,115.1
26.843,151.24
26.859,168.98
26.875,168.74
26.890,153.57
26.906,128.2
26.921,97.8
26.937,66.81
26.953,38.25
26.968,13.67
26.984,-6.38
27.000,-21.7
27.015,-31.94
27.031,-36.59
27.046,-35.41
27.062,-28.98
27.078,-19.06
27.093,-8.28
27.109,0.69
27.125,6.44
27.140,9.74
27.156,13.6
27.171,22.35
27.187,39.85
27.203,67.66
27.218,103.89
27.234,143.2
27.250,178.05
27.265,200.77
27.281,205.82
27.296,191.34
27.312,159.7
27.328,116.76
27.343,70.25
27.359,27.75
27.375,-5.21
27.390,-26.13
27.406,-35.88
27.421,-37.87
27.437,-36.83
27.453,-37.47
27.468,-43.39
27.484,-56.8
27.500,-78.54
27.515,-108.17
27.531,-143.87
27.546,-182.31
27.562,-218.81
27.578,-248.06
27.593,-265.3
27.609,-267.25
27.625,-252.62
27.640,-221.88
27.656,-176.85
27.671,-120.59
27.687,-57.72
27.703,5.44
27.718,61.46
27.734,103.47
27.750,127.29
27.765,132.93
27.781,124.49
27.796,108.38
27.812,90.71
27.828,75.27
27.843,62.95
27.859,52.62
27.875,42.56
27.890,31.72
27.906,20.05
27.921,8.32
27.937,-2.4
27.953,-11.07
27.968,-16.94
27.984,-19.64
28.000,-19.21
28.015,-16.12
28.031,-10.94
28.046,-4.09
28.062,4.44
28.078,15.12
28.093,28.68
28.109,45.61
28.125,65.84
28.140,88.49
28.156,111.96
28.171,134.08
28.187,152.24
28.203,163.56
28.218,165.21
28.234,155.08
28.250,132.62
28.265,99.66
28.281,60.48
28.296,21.0
28.312,-12.8
28.328,-36.75
28.343,-49.73
28.359,-53.89
28.375,-53.51
28.390,-53.28
28.406,-56.71
28.421,-65.37
28.437,-79.18
28.453,-97.3
28.468,-118.93
28.484,-143.69
28.500,-171.08
28.515,-199.71
28.531,-226.54
28.546,-246.97
28.562,-255.75
28.578,-248.43
28.593,-222.83
28.609,-179.88
28.625,-123.49
28.640,-59.67
28.656,4.64
28.671,62.9
28.687,109.89
28.703,142.26
28.718,158.8
28.734,160.36
28.750,149.51
28.765,129.89
28.781,105.55
28.796,80.07
28.812,56.18
28.828,35.52
28.843,18.94
28.859,6.73
28.875,-1.12
28.890,-4.84
28.906,-4.98
28.921,-2.44
28.937,1.65
28.953,6.16
28.968,10.46
28.984,14.81
29.000,20.45
29.015,29.27
29.031,43.11
29.046,62.82
29.062,87.59
29.078,114.66
29.093,139.57
29.109,157.07
29.125,162.32
29.140,152.13
29.156,126.03
29.171,86.87
29.187,40.5
29.203,-5.36
29.218,-42.98
29.234,-66.76
29.250,-74.93
29.265,-70.13
29.281,-58.46
29.296,-47.52
29.312,-44.07
29.328,-52.26
29.343,-72.92
29.359,-103.81
29.375,-140.52
29.390,-177.45
29.406,-208.92
29.421,-230.12
29.437,-237.89
29.453,-231.21
29.468,-211.06
29.484,-179.79
29.500,-140.27
29.515,-95.47
29.531,-48.41
29.546,-2.5
29.562,38.5
29.578,71.0
29.593,92.64
29.609,103.13
29.625,104.25
29.640,99.12
29.656,90.78
29.671,81.24
29.687,71.2
29.703,60.68
29.718,49.69
29.734,38.81
29.750,29.09
29.765,21.51
29.781,16.56
29.796,13.89
29.812,12.59
29.828,11.55
29.843,10.14
29.859,8.74
29.875,8.85
29.890,12.84
29.906,22.97
29.921,40.37
29.937,64.35
29.953,92.47
29.968,121.44
29.984,148.23
30.000,170.75
30.015,187.76
30.031,198.07
30.046,199.83
30.062,190.66
30.078,168.59
30.093,133.69
30.109,89.08
30.125,40.74
30.140,-3.99
30.156,-38.7
30.171,-59.82
30.187,-67.48
30.203,-65.09
30.218,-58.01
30.234,-51.87
30.250,-51.08
30.265,-57.98
30.281,-72.59
30.296,-93.04
30.312,-116.52
30.328,-140.37
30.343,-162.76
30.359,-182.83
30.375,-200.04
30.390,-213.37
30.406,-220.93
30.421,-220.34
30.437,-209.58
30.453,-187.94
30.468,-156.38
30.484,-117.26
30.500,-73.59
30.515,-28.47
30.531,15.13
30.546,54.33
30.562,86.34
30.578,108.82
30.593,120.51
30.609,121.74
30.625,114.42
30.640,101.5
30.656,86.06
30.671,70.61
30.687,56.75
30.703,45.2
30.718,36.11
30.734,29.18
30.750,23.87
30.765,19.46
30.781,15.35
30.796,11.22
30.812,7.4
30.828,4.76
30.843,4.66
30.859,8.48
30.875,17.25
30.890,31.29
30.906,49.91
30.921,71.36
30.937,92.94
30.953,111.4
30.968,123.47
30.984,126.54
31.000,119.28
31.015,101.96
31.031,76.49
31.046,46.17
31.062,15.13
31.078,-12.28
31.093,-32.3
31.109,-42.38
31.125,-41.89
31.140,-32.4
31.156,-17.57
31.171,-2.51
31.187,7.58
31.203,8.72
31.218,-0.81
31.234,-20.36
31.250,-47.58
31.265,-79.66
31.281,-114.24
31.296,-149.61
31.312,-184.08
31.328,-215.11
31.343,-238.77
31.359,-250.3
31.375,-245.57
31.390,-222.63
31.406,-182.69
31.421,-129.72
31.437,-69.23
31.453,-6.81
31.468,52.66
31.484,104.92
31.500,146.06
31.515,172.44
31.531,181.58
31.546,173.33
31.562,150.66
31.578,119.16
31.593,85.45
31.609,54.96
31.625,30.46
31.640,12.01
31.656,-1.82
31.671,-12.31
31.687,-19.67
31.703,-23.27
31.718,-22.58
31.734,-18.06
31.750,-11.33
31.765,-4.25
31.781,2.29
31.796,9.29
31.812,19.45
31.828,35.93
31.843,60.74
31.859,93.44
31.875,130.9
31.890,167.97
31.906,198.81
31.921,218.17
31.937,222.31
31.953,209.71
31.968,181.19
31.984,140.0
32.000,91.33
32.015,41.49
32.031,-3.37
32.046,-38.49
32.062,-61.35
32.078,-72.02
32.093,-72.87
32.109,-67.77
32.125,-61.06
32.140,-56.61
32.156,-57.09
32.171,-63.8
32.187,-77.07
32.203,-96.81
32.218,-122.93
32.234,-154.86
32.250,-190.63
32.265,-226.03
32.281,-254.83
32.296,-270.14
32.312,-266.83
32.328,-243.43
32.343,-202.49
32.359,-149.32
32.375,-89.77
32.390,-28.67
32.406,30.37
32.421,83.93
32.437,127.85
32.453,157.3
32.468,168.3
32.484,159.83
32.500,134.94
32.515,100.36
32.531,64.25
32.546,33.46
32.562,11.47
32.578,-1.97
32.593,-9.5
32.609,-14.17
32.625,-17.76
32.640,-20.22
32.656,-20.18
32.671,-15.94
32.687,-6.26
32.703,9.32
32.718,30.45
32.734,56.09
32.750,84.5
32.765,113.07
32.781,138.29
32.796,156.36
32.812,164.02
32.828,159.56
32.843,143.43
32.859,118.06
32.875,87.17
32.890,54.84
32.906,24.75
32.921,-0.28
32.937,-18.3
32.953,-28.39
32.968,-30.55
32.984,-25.8
33.000,-16.21
33.015,-4.91
33.031,4.36
33.046,7.96
33.062,3.24
33.078,-10.8
33.093,-33.25
33.109,-61.84
33.125,-93.79
33.140,-126.7
33.156,-158.88
33.171,-188.81
33.187,-214.22
33.203,-231.52
33.218,-236.17
33.234,-224.34
33.250,-194.65
33.265,-149.33
33.281,-93.98
33.296,-35.85
33.312,18.37
33.328,64.08
33.343,99.03
33.359,122.57
33.375,134.57
33.390,134.92
33.406,123.86
33.421,102.76
33.437,74.75
33.453,44.51
33.468,17.13
33.484,-3.29
33.500,-14.74
33.515,-17.63
33.531,-14.16
33.546,-7.19
33.562,0.9
33.578,8.92
33.593,16.88
33.609,25.54
33.625,35.81
33.640,48.24
33.656,62.87
33.671,79.29
33.687,96.78
33.703,114.17
33.718,129.76
33.734,141.1
33.750,145.26
33.765,139.41
33.781,121.72
33.796,92.23
33.812,53.28
33.828,9.34
33.843,-33.59
33.859,-69.22
33.875,-92.01
33.890,-98.21
33.906,-86.45
33.921,-58.43
33.937,-19.1
33.953,23.54
33.968,59.81
33.984,80.48
34.000,79.24
34.015,54.62
34.031,10.63
34.046,-44.51
34.062,-101.01
34.078,-150.48
34.093,-187.94
34.109,-212.09
34.125,-223.87
34.140,-224.54
34.156,-214.37
34.171,-192.72
34.187,-159.3
34.203,-115.67
34.218,-65.8
34.234,-15.34
34.250,30.0
34.265,66.12
34.281,91.22
34.296,105.53
34.312,110.28
34.328,106.74
34.343,96.03
34.359,79.6
34.375,59.71
34.390,39.45
34.406,22.17
34.421,10.48
34.437,5.46
34.453,6.35
34.468,10.93
34.484,16.45
34.500,20.61
34.515,22.37
34.531,22.29
34.546,22.39
34.562,25.35
34.578,33.55
34.593,48.12
34.609,68.44
34.625,92.13
34.640,115.64
34.656,135.0
34.671,146.65
34.687,148.13
34.703,138.65
34.718,119.28
34.734,92.83
34.750,63.43
34.765,35.67
34.781,13.53
34.796,-0.51
34.812,-6.13
34.828,-5.24
34.843,-1.39
34.859,1.25
34.875,-0.84
34.890,-9.63
34.906,-25.2
34.921,-46.21
34.937,-70.8
34.953,-97.46
34.968,-125.25
34.984,-153.43
35.000,-180.65
35.015,-204.51
35.031,-221.72
35.046,-228.99
35.062,-223.92
35.078,-205.63
35.093,-174.76
35.109,-133.16
35.125,-83.69
35.140,-30.16
35.156,22.74
35.171,69.87
35.187,106.54
35.203,129.67
35.218,138.6
35.234,135.07
35.250,122.47
35.265,104.71
35.281,85.19
35.296,66.4
35.312,49.93
35.328,36.72
35.343,27.15
35.359,21.19
35.375,18.29
35.390,17.63
35.406,18.38
35.421,20.03
35.437,22.48
35.453,26.1
35.468,31.49
35.484,39.24
35.500,49.59
35.515,62.25
35.531,76.32
35.546,90.33
35.562,102.51
35.578,111.19
35.593,115.14
35.609,113.83
35.625,107.35
35.640,96.25
35.656,81.35
35.671,63.77
35.687,44.99
35.703,26.94
35.718,11.78
35.734,1.32
35.750,-3.67
35.765,-4.04
35.781,-2.16
35.796,-1.25
35.812,-4.25
35.828,-13.02
35.843,-28.06
35.859,-48.88
35.875,-74.64
35.890,-104.37
35.906,-136.67
35.921,-169.2
35.937,-198.35
35.953,-219.85
35.968,-229.82
35.984,-225.83
36.000,-207.4
36.015,-175.92
36.031,-133.97
36.046,-84.94
36.062,-32.83
36.078,17.82
36.093,62.22
36.109,96.16
36.125,117.04
36.140,124.54
36.156,120.53
36.171,108.22
36.187,91.18
36.203,72.56
36.218,54.89
36.234,40.08
36.250,29.47
36.265,23.68
36.281,22.31
36.296,23.94
36.312,26.58
36.328,28.33
36.343,28.16
36.359,26.26
36.375,23.91
36.390,22.85
36.406,24.67
36.421,30.12
36.437,38.88
36.453,49.63
36.468,60.46
36.484,69.41
36.500,75.12
36.515,77.14
36.531,75.96
36.546,72.63
36.562,68.19
36.578,63.24
36.593,57.76
36.609,51.46
36.625,44.2
36.640,36.32
36.656,28.59
36.671,21.7
36.687,15.78
36.703,10.08
36.718,3.27
36.734,-6.11
36.750,-19.11
36.765,-36.27
36.781,-57.77
36.796,-83.45
36.812,-112.68
36.828,-143.8
36.843,-173.89
36.859,-198.95
36.875,-214.9
36.890,-218.62
36.906,-208.78
36.921,-185.86
36.937,-151.58
36.953,-108.4
36.968,-59.24
36.984,-7.7
37.000,41.84
37.015,84.51
37.031,115.93
37.046,133.36
37.062,136.5
37.078,127.48
37.093,110.01
37.109,88.38
37.125,66.33
37.140,46.65
37.156,31.0
37.171,20.1
37.187,13.83
37.203,11.33
37.218,11.29
37.234,12.2
37.250,12.78
37.265,12.22
37.281,10.33
37.296,7.61
37.312,5.18
37.328,4.76
37.343,8.29
37.359,17.57
37.375,33.51
37.390,55.71
37.406,82.11
37.421,109.31
37.437,133.2
37.453,149.84
37.468,156.43
37.484,151.92
37.500,137.29
37.515,115.31
37.531,89.97
37.546,65.57
37.562,45.86
37.578,33.09
37.593,27.29
37.609,26.03
37.625,24.91
37.640,18.86
37.656,3.84
37.671,-21.6
37.687,-55.73
37.703,-94.2
37.718,-131.67
37.734,-163.78
37.750,-188.36
37.765,-205.56
37.781,-216.79
37.796,-223.3
37.812,-225.2
37.828,-221.39
37.843,-210.18
37.859,-190.17
37.875,-161.03
37.890,-123.74
37.906,-80.61
37.921,-34.97
37.937,9.28
37.953,48.3
37.968,79.08
37.984,99.89
38.000,110.42
38.015,111.42
38.031,104.33
38.046,90.94
38.062,73.45
38.078,54.59
38.093,37.51
38.109,25.15
38.125,19.27
38.140,19.71
38.156,24.39
38.171,30.29
38.187,34.75
38.203,36.61
38.218,36.5
38.234,36.25
38.250,37.95
38.265,43.04
38.281,51.96
38.296,64.12
38.312,78.3
38.328,92.92
38.343,106.43
38.359,117.52
38.375,125.31
38.390,129.31
38.406,129.22
38.421,124.74
38.437,115.49
38.453,101.43
38.468,83.29
38.484,62.94
38.500,43.22
38.515,26.93
38.531,15.87
38.546,9.94
38.562,7.03
38.578,3.79
38.593,-3.23
38.609,-16.67
38.625,-37.93
38.640,-67.14
38.656,-103.33
38.671,-144.23
38.687,-185.95
38.703,-222.95
38.718,-248.73
38.734,-257.44
38.750,-245.62
38.765,-213.46
38.781,-164.78
38.796,-105.95
38.812,-44.14
38.828,14.07
38.843,63.48
38.859,100.28
38.875,122.03
38.890,127.79
38.906,118.56
38.921,97.47
38.937,69.34
38.953,39.57
38.968,12.7
38.984,-8.51
39.000,-23.24
39.015,-32.08
39.031,-36.05
39.046,-36.0
39.062,-32.37
39.078,-25.51
39.093,-16.01
39.109,-4.99
39.125,6.06
39.140,15.65
39.156,22.83
39.171,27.54
39.187,30.65
39.203,33.8
39.218,38.83
39.234,47.22
39.250,59.62
39.265,75.64
39.281,93.91
39.296,112.24
39.312,127.91
39.328,137.99
39.343,139.76
39.359,131.26
39.375,112.01
39.390,83.62
39.406,49.92
39.421,16.3
39.437,-11.79
39.453,-30.61
39.468,-39.44
39.484,-40.68
39.500,-38.78
39.515,-38.56
39.531,-43.77
39.546,-56.56
39.562,-77.44
39.578,-105.66
39.593,-139.04
39.609,-173.73
39.625,-204.12
39.640,-223.74
39.656,-226.9
39.671,-210.54
39.687,-175.43
39.703,-125.96
39.718,-68.75
39.734,-10.9
39.750,41.32
39.765,83.07
39.781,111.0
39.796,123.36
39.812,120.33
39.828,104.38
39.843,79.98
39.859,52.67
39.875,27.58
39.890,8.19
39.906,-4.28
39.921,-10.47
39.937,-11.92
39.953,-10.23
39.968,-6.49
39.984,-1.37
40.000,4.5
40.015,10.21
40.031,14.53
40.046,16.21
40.062,14.59
40.078,10.05
40.093,4.22
40.109,-0.34
40.125,-0.85
40.140,4.64
40.156,16.47
40.171,33.17
40.187,51.96
40.203,69.73
40.218,84.03
40.234,93.54
40.250,97.91
40.265,97.25
40.281,91.63
40.296,81.21
40.312,66.85
40.328,50.56
40.343,35.35
40.359,24.19
40.375,18.49
40.390,17.13
40.406,16.64
40.421,12.53
40.437,1.24
40.453,-18.57
40.468,-45.99
40.484,-78.97
40.500,-115.57
40.515,-154.4
40.531,-193.68
40.546,-229.92
40.562,-257.37
40.578,-269.21
40.593,-260.17
40.609,-229.14
40.625,-180.01
40.640,-120.3
40.656,-58.25
40.671,-0.17
40.687,50.47
40.703,92.11
40.718,123.4
40.734,142.3
40.750,146.77
40.765,136.46
40.781,114.03
40.796,84.96
40.812,55.77
40.828,31.69
40.843,15.09
40.859,5.55
40.875,1.05
40.890,-0.49
40.906,-0.22
40.921,1.61
40.937,4.89
40.953,9.11
40.968,13.15
40.984,15.79
41.000,16.43
41.015,15.56
41.031,14.72
41.046,15.92
41.062,20.8
41.078,30.02
41.093,43.1
41.109,58.73
41.125,75.18
41.140,90.72
41.156,103.59
41.171,112.07
41.187,114.48
41.203,109.39
41.218,96.19
41.234,75.55
41.250,49.65
41.265,21.85
41.281,-4.14
41.296,-25.42
41.312,-40.7
41.328,-50.69
41.343,-57.62
41.359,-64.34
41.375,-73.35
41.390,-86.17
41.406,-103.23
41.421,-124.25
41.437,-148.46
41.453,-174.58
41.468,-200.47
41.484,-222.95
41.500,-237.98
41.515,-241.53
41.531,-230.66
41.546,-204.39
41.562,-164.05
41.578,-113.03
41.593,-56.09
41.609,1.29
41.625,53.66
41.640,96.33
41.656,126.03
41.671,141.53
41.687,143.68
41.703,135.04
41.718,119.08
41.734,99.29
41.750,78.68
41.765,59.48
41.781,43.24
41.796,30.79
41.812,22.29
41.828,17.24
41.843,14.75
41.859,13.94
41.875,14.22
41.890,15.37
41.906,17.25
41.921,19.39
41.937,21.07
41.953,21.65
41.968,21.19
41.984,20.83
42.000,22.48
42.015,28.02
42.031,38.52
42.046,53.74
42.062,72.24
42.078,91.9
42.093,110.33
42.109,125.16
42.125,134.08
42.140,135.16
42.156,127.39
42.171,111.46
42.187,89.95
42.203,66.79
42.218,45.95
42.234,29.83
42.250,18.38
42.265,9.36
42.281,-0.55
42.296,-14.25
42.312,-33.12
42.328,-56.9
42.343,-84.31
42.359,-113.76
42.375,-143.86
42.390,-173.27
42.406,-200.24
42.421,-222.36
42.437,-236.69
42.453,-240.28
42.468,-231.1
42.484,-208.53
42.500,-173.64
42.515,-129.1
42.531,-78.68
42.546,-26.88
42.562,21.63
42.578,62.54
42.593,92.64
42.609,110.32
42.625,115.9
42.640,111.45
42.656,100.1
42.671,85.26
42.687,69.83
42.703,55.73
42.718,43.84
42.734,34.24
42.750,26.48
42.765,20.02
42.781,14.55
42.796,10.01
42.812,6.67
42.828,4.93
42.843,5.07
42.859,7.17
42.875,11.09
42.890,16.72
42.906,24.09
42.921,33.44
42.937,44.98
42.953,58.71
42.968,74.34
42.984,91.31
43.000,108.74
43.015,125.34
43.031,139.21
43.046,147.77
43.062,148.09
43.078,137.75
43.093,115.85
43.109,83.88
43.125,45.86
43.140,7.56
43.156,-25.08
43.171,-47.57
43.187,-58.17
43.203,-58.21
43.218,-51.71
43.234,-44.02
43.250,-40.35
43.265,-44.52
43.281,-58.2
43.296,-80.88
43.312,-110.22
43.328,-142.68
43.343,-173.97
43.359,-199.7
43.375,-215.84
43.390,-219.54
43.406,-209.8
43.421,-187.75
43.437,-156.33
43.453,-119.4
43.468,-80.8
43.484,-43.56
43.500,-9.88
43.515,18.71
43.531,41.02
43.546,56.21
43.562,64.07
43.578,65.32
43.593,61.53
43.609,54.63
43.625,46.36
43.640,37.77
43.656,29.32
43.671,21.2
43.687,13.84
43.703,8.13
43.718,5.17
43.734,5.79
43.750,10.11
43.765,17.41
43.781,26.32
43.796,35.36
43.812,43.43
43.828,50.15
43.843,55.88
43.859,61.55
43.875,68.16
43.890,76.36
43.906,86.22
43.921,97.07
43.937,107.63
43.953,116.27
43.968,121.24
43.984,120.94
44.000,114.24
44.015,100.85
44.031,81.72
44.046,59.15
44.062,36.35
44.078,16.56
44.093,1.81
44.109,-7.83
44.125,-14.37
44.140,-20.96
44.156,-30.52
44.171,-44.72
44.187,-63.74
44.203,-86.83
44.218,-113.02
44.234,-141.31
44.250,-170.24
44.265,-197.17
44.281,-218.17
44.296,-228.61
44.312,-224.47
44.328,-203.59
44.343,-166.48
44.359,-116.22
44.375,-57.93
44.390,2.17
44.406,57.56
44.421,102.38
44.437,132.37
44.453,145.65
44.468,143.19
44.484,128.34
44.500,105.96
44.515,81.05
44.531,57.71
44.546,38.55
44.562,24.63
44.578,15.82
44.593,11.1
44.609,9.14
44.625,8.71
44.640,9.08
44.656,10.09
44.671,12.0
44.687,15.08
44.703,19.3
44.718,24.4
44.734,29.99
44.750,35.95
44.765,42.58
44.781,50.44
44.796,60.13
44.812,71.92
44.828,85.67
44.843,100.67
44.859,115.67
44.875,128.79
44.890,137.67
44.906,139.69
44.921,132.61
44.937,115.28
44.953,88.42
44.968,54.93
44.984,19.44
45.000,-12.71
45.015,-36.98
45.031,-50.97
45.046,-55.16
45.062,-52.78
45.078,-48.69
45.093,-47.83
45.109,-53.71
45.125,-67.63
45.140,-88.53
45.156,-113.7
45.171,-139.63
45.187,-162.76
45.203,-180.09
45.218,-189.46
45.234,-189.75
45.250,-180.97
45.265,-163.97
45.281,-140.17
45.296,-111.12
45.312,-78.43
45.328,-43.86
45.343,-9.67
45.359,21.39
45.375,46.36
45.390,62.83
45.406,69.77
45.421,67.89
45.437,59.44
45.453,47.45
45.468,34.9
45.484,24.02
45.500,16.06
45.515,11.37
45.531,9.6
45.546,9.92
45.562,11.3
45.578,12.75
45.593,13.63
45.609,13.87
45.625,13.9
45.640,14.42
45.656,15.93
45.671,18.51
45.687,21.74
45.703,25.06
45.718,28.16
45.734,31.27
45.750,35.21
45.765,40.8
45.781,48.25
45.796,56.6
45.812,63.73
45.828,67.0
45.843,64.35
45.859,55.19
45.875,40.85
45.890,24.18
45.906,8.6
45.921,-3.05
45.937,-9.25
45.953,-10.02
45.968,-6.67
45.984,-1.37
46.000,3.29
46.015,4.84
46.031,1.46
46.046,-7.45
46.062,-21.03
46.078,-37.3
46.093,-54.01
46.109,-69.63
46.125,-83.99
46.140,-97.94
46.156,-112.46
46.171,-127.48
46.187,-141.43
46.203,-151.62
46.218,-155.42
46.234,-151.35
46.250,-139.45
46.265,-120.88
46.281,-97.09
46.296,-69.2
46.312,-37.98
46.328,-4.4
46.343,29.84
46.359,62.14
46.375,89.55
46.390,109.52
46.406,120.69
46.421,123.07
46.437,117.72
46.453,106.23
46.468,90.36
46.484,71.95
46.500,53.03
46.515,35.71
46.531,22.0
46.546,13.31
46.562,10.1
46.578,11.85
46.593,17.37
46.609,25.22
46.625,34.16
46.640,43.4
46.656,52.64
46.671,62.07
46.687,72.07
46.703,82.93
46.718,94.35
46.734,105.21
46.750,113.56
46.765,117.19
46.781,114.32
46.796,104.33
46.812,87.96
46.828,67.15
46.843,44.53
46.859,22.91
46.875,4.86
46.890,-7.61
46.906,-13.39
46.921,-12.75
46.937,-7.6
46.953,-1.35
46.968,1.97
46.984,-0.94
47.000,-11.46
47.015,-28.55
47.031,-49.26
47.046,-70.22
47.062,-89.15
47.078,-105.72
47.093,-121.26
47.109,-137.62
47.125,-155.65
47.140,-174.2
47.156,-190.17
47.171,-199.41
47.187,-198.12
47.203,-184.08
47.218,-157.15
47.234,-119.28
47.250,-73.84
47.265,-25.04
47.281,22.72
47.296,65.28
47.312,99.18
47.328,122.05
47.343,132.96
47.359,132.49
47.375,122.61
47.390,106.22
47.406,86.54
47.421,66.5
47.437,48.31
47.453,33.25
47.468,21.8
47.484,13.86
47.500,8.99
47.515,6.63
47.531,6.29
47.546,7.64
47.562,10.53
47.578,15.03
47.593,21.37
47.609,29.78
47.625,40.24
47.640,52.32
47.656,65.14
47.671,77.46
47.687,88.0
47.703,95.58
47.718,99.35
47.734,98.82
47.750,93.82
47.765,84.52
47.781,71.47
47.796,55.62
47.812,38.38
47.828,21.54
47.843,7.01
47.859,-3.61
47.875,-9.53
47.890,-11.17
47.906,-10.22
47.921,-9.23
47.937,-10.99
47.953,-17.81
47.968,-31.15
47.984,-51.64
48.000,-79.16
48.015,-112.8
48.031,-150.45
48.046,-188.34
48.062,-220.96
48.078,-241.91
48.093,-245.54
48.109,-228.86
48.125,-192.72
48.140,-141.8
48.156,-83.24
48.171,-24.59
48.187,27.93
48.203,70.35
48.218,100.8
48.234,118.88
48.250,125.07
48.265,120.56
48.281,107.36
48.296,88.3
48.312,66.89
48.328,46.62
48.343,30.18
48.359,18.93
48.375,12.83
48.390,10.88
48.406,11.7
48.421,14.05
48.437,17.0
48.453,20.03
48.468,23.07
48.484,26.61
48.500,31.65
48.515,39.41
48.531,50.67
48.546,65.17
48.562,81.38
48.578,96.95
48.593,109.62
48.609,118.04
48.625,122.06
48.640,122.28
48.656,119.24
48.671,112.85
48.687,102.46
48.703,87.49
48.718,68.37
48.734,46.94
48.750,26.17
48.765,9.17
48.781,-1.85
48.796,-6.52
48.812,-6.48
48.828,-4.87
48.843,-5.48
48.859,-11.82
48.875,-26.51
48.890,-50.95
48.906,-85.05
48.921,-126.83
48.937,-172.15
48.953,-214.76
48.968,-247.25
48.984,-262.77
49.000,-256.97
49.015,-229.39
49.031,-183.55
49.046,-125.72
49.062,-63.22
49.078,-2.81
49.093,50.02
49.109,91.15
49.125,117.67
49.140,128.05
49.156,122.57
49.171,103.65
49.187,75.71
49.203,44.28
49.218,14.77
49.234,-8.69
49.250,-23.81
49.265,-30.33
49.281,-29.59
49.296,-23.99
49.312,-16.32
49.328,-9.07
49.343,-3.84
49.359,-1.01
49.375,0.36
49.390,2.13
49.406,6.44
49.421,14.83
49.437,27.61
49.453,43.63
49.468,60.53
49.484,75.51
49.500,86.23
49.515,91.45
49.531,91.21
49.546,86.46
49.562,78.38
49.578,67.94
49.593,55.65
49.609,41.84
49.625,27.12
49.640,12.75
49.656,0.7
49.671,-6.73
49.687,-7.7
49.703,-1.67
49.718,9.76
49.734,22.83
49.750,32.34
49.765,33.16
49.781,21.88
49.796,-2.19
49.812,-36.86
49.828,-77.89
49.843,-120.26
49.859,-159.08
49.875,-190.0
49.890,-209.24
49.906,-213.74
49.921,-201.69
49.937,-173.33
49.953,-131.44
49.968,-81.13
49.984,-28.57
50.000,20.51
50.015,62.06
50.031,94.12
50.046,116.53
50.062,130.08
50.078,136.07
50.093,135.95
50.109,131.36
50.125,124.25
50.140,116.96
50.156,112.07
50.171,112.04
50.187,118.77
50.203,132.96
50.218,153.73
50.234,178.69
50.250,204.39
50.265,227.26
50.281,244.47
50.296,254.2
50.312,255.62
50.328,248.41
50.343,232.54
50.359,208.4
50.375,177.21
50.390,141.31
50.406,103.86
50.421,68.12
50.437,36.51
50.453,10.1
50.468,-11.25
50.484,-28.27
50.500,-41.38
50.515,-50.46
50.531,-55.11
50.546,-55.26
50.562,-51.77
50.578,-46.39
50.593,-41.18
50.609,-37.92
50.625,-37.83
50.640,-41.5
50.656,-49.29
50.671,-61.37
50.687,-77.55
50.703,-96.74
50.718,-116.73
50.734,-134.28
50.750,-146.02
50.765,-149.56
50.781,-144.16
50.796,-130.84
50.812,-111.55
50.828,-88.13
50.843,-61.63
50.859,-32.42
50.875,-0.86
50.890,31.77
50.906,62.97
50.921,89.31
50.937,107.42
50.953,114.87
50.968,110.92
50.984,96.47
51.000,73.61
51.015,45.19
51.031,14.6
51.046,-14.38
51.062,-38.02
51.078,-53.56
51.093,-60.1
51.109,-58.96
51.125,-53.16
51.140,-46.18
51.156,-40.66
51.171,-37.92
51.187,-38.33
51.203,-41.99
51.218,-49.16
51.234,-59.77
51.250,-72.54
51.265,-84.79
51.281,-93.33
51.296,-96.2
51.312,-94.27
51.328,-91.24
51.343,-91.95
51.359,-99.83
51.375,-115.14
51.390,-135.09
51.406,-155.65
51.421,-173.7
51.437,-187.86
51.453,-197.91
51.468,-203.27
51.484,-201.99
51.500,-191.23
51.515,-169.04
51.531,-136.23
51.546,-97.07
51.562,-58.13
51.578,-25.99
51.593,-5.03
51.609,3.78
51.625,2.56
51.640,-4.93
51.656,-14.8
51.671,-24.17
51.687,-31.68
51.703,-37.25
51.718,-41.44
51.734,-44.64
51.750,-46.4
51.765,-45.22
51.781,-39.15
51.796,-26.66
51.812,-7.7
51.828,16.11
51.843,41.86
51.859,66.43
51.875,87.57
51.890,104.41
51.906,117.19
51.921,126.49
51.937,132.55
51.953,134.99
51.968,133.22
51.984,127.12
52.000,117.45
52.015,105.92
52.031,94.6
52.046,85.17
52.062,78.37
52.078,73.93
52.093,70.78
52.109,67.65
52.125,63.59
52.140,58.24
52.156,51.92
52.171,45.51
52.187,39.99
52.203,36.07
52.218,33.85
52.234,32.51
52.250,30.46
52.265,25.8
52.281,17.01
52.296,3.78
52.312,-12.41
52.328,-28.32
52.343,-39.6
52.359,-41.97
52.375,-32.68
52.390,-11.67
52.406,18.19
52.421,51.76
52.437,83.1
52.453,107.07
52.468,120.35
52.484,121.67
52.500,111.44
52.515,91.15
52.531,63.46
52.546,32.23
52.562,2.23
52.578,-21.8
52.593,-36.88
52.609,-43.13
52.625,-43.81
52.640,-43.91
52.656,-47.64
52.671,-56.47
52.687,-68.59
52.703,-80.38
52.718,-88.64
52.734,-92.49
52.750,-93.73
52.765,-95.58
52.781,-100.86
52.796,-110.5
52.812,-123.23
52.828,-136.35
52.843,-147.13
52.859,-153.9
52.875,-156.32
52.890,-155.1
52.906,-151.16
52.921,-145.1
52.937,-137.21
52.953,-127.64
52.968,-116.54
52.984,-103.77
53.000,-88.31
53.015,-68.24
53.031,-41.46
53.046,-7.09
53.062,33.19
53.078,75.11
53.093,113.14
53.109,142.76
53.125,162.39
53.140,173.92
53.156,181.7
53.171,190.58
53.187,203.99
53.203,223.05
53.218,246.47
53.234,271.04
53.250,292.31
53.265,305.25
53.281,305.38
53.296,290.21
53.312,260.58
53.328,221.0
53.343,178.44
53.359,139.84
53.375,109.69
53.390,88.76
53.406,74.7
53.421,64.02
53.437,53.89
53.453,43.07
53.468,31.4
53.484,18.62
53.500,3.64
53.515,-15.23
53.531,-39.07
53.546,-67.23
53.562,-97.17
53.578,-125.39
53.593,-149.02
53.609,-167.12
53.625,-180.87
53.640,-192.6
53.656,-204.32
53.671,-216.48
53.687,-227.7
53.703,-235.53
53.718,-237.69
53.734,-233.31
53.750,-223.31
53.765,-209.94
53.781,-195.59
53.796,-181.81
53.812,-168.76
53.828,-155.65
53.843,-141.55
53.859,-126.36
53.875,-111.05
53.890,-97.26
53.906,-86.6
53.921,-79.91
53.937,-76.98
53.953,-76.55
53.968,-76.55
53.984,-74.24
54.000,-66.53
54.015,-50.6
54.031,-24.97
54.046,9.39
54.062,48.51
54.078,86.15
54.093,115.8
54.109,132.92
54.125,136.48
54.140,128.82
54.156,114.0
54.171,95.6
54.187,75.55
54.203,54.25
54.218,32.03
54.234,10.33
54.250,-8.23
54.265,-21.25
54.281,-28.19
54.296,-31.15
54.312,-34.02
54.328,-40.44
54.343,-51.71
54.359,-66.02
54.375,-79.21
54.390,-86.76
54.406,-85.74
54.421,-75.62
54.437,-58.01
54.453,-35.71
54.468,-11.63
54.484,11.81
54.500,32.78
54.515,50.37
54.531,64.64
54.546,76.39
54.562,86.73
54.578,96.1
54.593,103.48
54.609,106.43
54.625,102.11
54.640,88.93
54.656,68.13
54.671,43.85
54.687,21.74
54.703,6.38
54.718,-0.86
54.734,-2.26
54.750,-2.18
54.765,-4.64
54.781,-11.5
54.796,-22.03
54.812,-34.21
54.828,-46.4
54.843,-58.45
54.859,-71.47
54.875,-86.69
54.890,-104.23
54.906,-122.81
54.921,-140.15
54.937,-153.82
54.953,-161.96
54.968,-163.53
54.984,-158.22
55.000,-146.75
55.015,-130.7
55.031,-112.33
55.046,-94.07
55.062,-77.59
55.078,-63.21
55.093,-50.1
55.109,-37.03
55.125,-23.32
55.140,-9.33
55.156,3.74
55.171,14.72
55.187,23.3
55.203,30.41
55.218,37.81
55.234,47.12
55.250,58.9
55.265,72.16
55.281,84.66
55.296,94.0
55.312,98.79
55.328,99.34
55.343,97.48
55.359,95.52
55.375,95.09
55.390,96.53
55.406,99.09
55.421,101.6
55.437,103.16
55.453,103.41
55.468,102.22
55.484,99.43
55.500,94.94
55.515,89.1
55.531,83.1
55.546,78.91
55.562,78.46
55.578,82.76
55.593,91.4
55.609,102.52
55.625,113.48
55.640,121.74
55.656,125.51
55.671,124.07
55.687,117.9
55.703,108.31
55.718,96.73
55.734,83.78
55.750,68.49
55.765,48.32
55.781,20.26
55.796,-17.42
55.812,-63.44
55.828,-113.05
55.843,-159.17
55.859,-194.83
55.875,-215.46
55.890,-220.37
55.906,-212.25
55.921,-195.94
55.937,-176.55
55.953,-158.05
55.968,-142.58
55.984,-130.32
56.000,-119.94
56.015,-109.31
56.031,-96.53
56.046,-80.88
56.062,-63.22
56.078,-45.81
56.093,-31.25
56.109,-21.65
56.125,-17.91
56.140,-19.74
56.156,-25.92
56.171,-34.75
56.187,-44.14
56.203,-51.65
56.218,-54.7
56.234,-51.16
56.250,-40.14
56.265,-22.4
56.281,-0.17
56.296,23.4
56.312,45.06
56.328,62.05
56.343,72.58
56.359,76.29
56.375,74.63
56.390,70.73
56.406,68.39
56.421,70.39
56.437,76.64
56.453,83.72
56.468,86.13
56.484,79.1
56.500,61.52
56.515,37.3
56.531,14.32
56.546,0.99
56.562,2.28
56.578,17.05
56.593,38.28
56.609,55.86
56.625,60.77
56.640,48.24
56.656,18.56
56.671,-24.62
56.687,-76.92
56.703,-135.03
56.718,-196.38
56.734,-257.26
56.750,-311.24
56.765,-349.49
56.781,-363.5
56.796,-348.99
56.812,-308.5
56.828,-251.13
56.843,-189.21
56.859,-133.82
56.875,-91.19
56.890,-61.9
56.906,-42.43
56.921,-27.72
56.937,-13.39
56.953,3.52
56.968,24.65
56.984,50.37
57.000,79.51
57.015,109.02
57.031,134.0
57.046,149.01
57.062,150.06
57.078,136.46
57.093,111.65
57.109,82.12
57.125,55.07
57.140,35.76
57.156,25.81
57.171,23.27
57.187,23.98
57.203,23.76
57.218,19.95
57.234,12.14
57.250,1.68
57.265,-9.3
57.281,-18.81
57.296,-25.36
57.312,-28.06
57.328,-26.52
57.343,-20.69
57.359,-11.21
57.375,0.6
57.390,12.84
57.406,23.54
57.421,31.41
57.437,36.18
57.453,38.56
57.468,39.66
57.484,40.31
57.500,40.72
57.515,40.77
57.531,40.39
57.546,39.89
57.562,39.76
57.578,40.33
57.593,41.17
57.609,41.24
57.625,39.42
57.640,35.13
57.656,28.85
57.671,22.03
57.687,16.63
57.703,14.47
57.718,16.77
57.734,23.82
57.750,35.01
57.765,48.98
57.781,63.89
57.796,77.96
57.812,90.07
57.828,100.15
57.843,109.08
57.859,118.0
57.875,127.25
57.890,135.61
57.906,140.24
57.921,137.49
57.937,124.32
57.953,99.69
57.968,65.22
57.984,25.04
58.000,-15.08
58.015,-49.18
58.031,-72.46
58.046,-82.68
58.062,-80.9
58.078,-71.37
58.093,-60.4
58.109,-54.5
58.125,-58.51
58.140,-74.25
58.156,-100.19
58.171,-132.05
58.187,-163.97
58.203,-189.82
58.218,-204.32
58.234,-203.99
58.250,-187.71
58.265,-157.09
58.281,-115.93
58.296,-69.31
58.312,-22.07
58.328,22.31
58.343,62.2
58.359,97.27
58.375,127.37
58.390,151.68
58.406,168.51
58.421,175.96
58.437,172.73
58.453,158.8
58.468,135.51
58.484,105.28
58.500,71.19
58.515,36.53
58.531,4.6
58.546,-21.68
58.562,-40.19
58.578,-49.94
58.593,-51.13
58.609,-44.75
58.625,-32.01
58.640,-13.84
58.656,9.15
58.671,36.4
58.687,66.82
58.703,98.49
58.718,128.68
58.734,154.39
58.750,172.83
58.765,181.92
58.781,180.39
58.796,167.83
58.812,144.72
58.828,112.59
58.843,74.16
58.859,33.36
58.875,-5.08
58.890,-36.6
58.906,-57.96
58.921,-68.37
58.937,-69.75
58.953,-66.1
58.968,-62.18
58.984,-62.16
59.000,-68.64
59.015,-82.54
59.031,-103.34
59.046,-129.33
59.062,-157.64
59.078,-184.03
59.093,-203.21
59.109,-209.86
59.125,-200.28
59.140,-173.86
59.156,-133.66
59.171,-85.28
59.187,-34.84
59.203,13.15
59.218,56.55
59.234,95.11
59.250,128.78
59.265,156.36
59.281,175.25
59.296,182.53
59.312,176.69
59.328,158.79
59.343,132.4
59.359,102.15
59.375,72.04
59.390,44.32
59.406,19.5
59.421,-2.52
59.437,-21.34
59.453,-35.64
59.468,-43.7
59.484,-44.45
59.500,-38.33
59.515,-27.12
59.531,-12.95
59.546,2.94
59.562,20.81
59.578,42.03
59.593,67.85
59.609,98.02
59.625,130.46
59.640,161.74
59.656,188.37
59.671,207.88
59.687,219.12
59.703,221.7
59.718,215.12
59.734,198.41
59.750,170.57
59.765,131.74
59.781,84.26
59.796,32.76
59.812,-16.79
59.828,-58.82
59.843,-89.77
59.859,-108.92
59.875,-117.9
59.890,-119.63
59.906,-116.86
59.921,-111.39
59.937,-104.13
59.953,-95.73
59.968,-87.37
59.984,-80.88
