timestamp,value
00.000,41.51
00.015,23.11
00.031,8.24
00.046,-1.68
00.062,-7.48
00.078,-11.78
00.093,-17.45
00.109,-26.08
00.125,-36.88
00.140,-47.11
00.156,-53.51
00.171,-54.17
00.187,-49.6
00.203,-42.5
00.218,-36.05
00.234,-32.11
00.250,-30.07
00.265,-27.31
00.281,-21.03
00.296,-10.3
00.312,2.93
00.328,14.44
00.343,19.85
00.359,16.94
00.375,6.83
00.390,-6.63
00.406,-18.96
00.421,-27.49
00.437,-32.56
00.453,-36.83
00.468,-43.24
00.484,-52.67
00.500,-62.96
00.515,-69.88
00.531,-69.63
00.546,-61.29
00.562,-47.72
00.578,-34.35
00.593,-26.27
00.609,-25.52
00.625,-29.84
00.640,-34.11
00.656,-33.3
00.671,-25.33
00.687,-12.36
00.703,0.49
00.718,8.02
00.734,7.86
00.750,1.65
00.765,-5.92
00.781,-10.1
00.796,-8.72
00.812,-3.42
00.828,1.4
00.843,1.44
00.859,-4.81
00.875,-14.84
00.890,-23.37
00.906,-25.31
00.921,-18.72
00.937,-6.0
00.953,7.33
00.968,15.68
00.984,16.52
01.000,11.68
01.015,6.22
01.031,5.22
01.046,10.81
01.062,20.76
01.078,29.78
01.093,32.64
01.109,27.25
01.125,16.03
01.140,4.49
01.156,-1.93
01.171,-0.93
01.187,5.34
01.203,11.6
01.218,12.72
01.234,6.58
01.250,-4.51
01.265,-15.16
01.281,-20.06
01.296,-17.06
01.312,-8.25
01.328,1.2
01.343,6.28
01.359,5.09
01.375,-0.13
01.390,-4.34
01.406,-2.85
01.421,5.82
01.437,18.91
01.453,30.86
01.468,36.53
01.484,33.95
01.500,25.44
01.515,16.11
01.531,10.95
01.546,11.96
01.562,17.21
01.578,22.05
01.593,21.86
01.609,14.72
01.625,2.44
01.640,-10.49
01.656,-19.49
01.671,-22.33
01.687,-20.19
01.703,-16.94
01.718,-16.56
01.734,-20.87
01.750,-28.33
01.765,-34.94
01.781,-36.62
01.796,-31.87
01.812,-22.72
01.828,-13.81
01.843,-9.78
01.859,-12.54
01.875,-20.14
01.890,-27.85
01.906,-30.89
01.921,-27.14
01.937,-18.29
01.953,-8.78
01.968,-3.1
01.984,-3.26
02.000,-7.73
02.015,-12.62
02.031,-14.01
02.046,-10.28
02.062,-2.94
02.078,4.31
02.093,7.86
02.109,6.19
02.125,0.69
02.140,-5.13
02.156,-7.75
02.171,-5.65
02.187,-0.05
02.203,5.76
02.218,8.45
02.234,6.69
02.250,1.87
02.265,-2.72
02.281,-3.98
02.296,-1.0
02.312,4.18
02.328,7.7
02.343,6.12
02.359,-1.35
02.375,-12.21
02.390,-21.98
02.406,-26.61
02.421,-24.69
02.437,-18.2
02.453,-11.28
02.468,-7.76
02.484,-9.17
02.500,-13.78
02.515,-17.85
02.531,-17.7
02.546,-11.67
02.562,-0.88
02.578,11.48
02.593,22.05
02.609,29.05
02.625,33.24
02.640,37.35
02.656,44.5
02.671,56.48
02.687,72.73
02.703,90.68
02.718,107.02
02.734,119.45
02.750,127.79
02.765,133.88
02.781,140.67
02.796,150.56
02.812,164.08
02.828,179.24
02.843,192.49
02.859,200.11
02.875,199.74
02.890,191.18
02.906,175.55
02.921,154.12
02.937,127.0
02.953,93.15
02.968,51.58
02.984,3.55
03.000,-46.01
03.015,-89.51
03.031,-119.36
03.046,-131.7
03.062,-128.52
03.078,-117.07
03.093,-106.59
03.109,-104.16
03.125,-111.59
03.140,-125.24
03.156,-138.5
03.171,-145.4
03.187,-143.59
03.203,-134.98
03.218,-123.96
03.234,-114.34
03.250,-106.9
03.265,-99.11
03.281,-87.11
03.296,-68.93
03.312,-46.7
03.328,-26.73
03.343,-16.53
03.359,-20.71
03.375,-37.88
03.390,-60.69
03.406,-79.74
03.421,-88.67
03.437,-87.61
03.453,-82.72
03.468,-81.98
03.484,-89.6
03.500,-102.35
03.515,-110.64
03.531,-103.48
03.546,-75.25
03.562,-30.04
03.578,18.92
03.593,55.04
03.609,65.97
03.625,49.41
03.640,13.71
03.656,-27.0
03.671,-60.18
03.687,-80.53
03.703,-91.22
03.718,-99.6
03.734,-111.12
03.750,-124.84
03.765,-133.74
03.781,-129.67
03.796,-109.66
03.812,-79.67
03.828,-52.67
03.843,-41.88
03.859,-53.34
03.875,-81.69
03.890,-112.33
03.906,-129.34
03.921,-124.26
03.937,-100.91
03.953,-73.43
03.968,-58.01
03.984,-63.56
04.000,-86.56
04.015,-113.23
04.031,-127.71
04.046,-121.1
04.062,-96.04
04.078,-64.65
04.093,-41.23
04.109,-34.35
04.125,-42.83
04.140,-57.18
04.156,-65.5
04.171,-60.03
04.187,-40.86
04.203,-15.25
04.218,6.66
04.234,17.01
04.250,13.89
04.265,1.57
04.281,-12.09
04.296,-19.95
04.312,-18.81
04.328,-10.33
04.343,1.02
04.359,11.29
04.375,20.24
04.390,32.11
04.406,53.31
04.421,88.26
04.437,135.81
04.453,188.4
04.468,234.97
04.484,265.78
04.500,276.71
04.515,270.8
04.531,255.85
04.546,239.74
04.562,226.38
04.578,214.51
04.593,199.9
04.609,179.56
04.625,154.83
04.640,131.4
04.656,116.19
04.671,113.13
04.687,120.69
04.703,132.72
04.718,142.25
04.734,145.35
04.750,143.13
04.765,140.2
04.781,141.26
04.796,147.66
04.812,156.13
04.828,160.42
04.843,154.8
04.859,137.35
04.875,111.06
04.890,82.46
04.906,58.36
04.921,42.7
04.937,35.15
04.953,31.78
04.968,27.36
04.984,17.97
05.000,2.53
05.015,-17.24
05.031,-38.06
05.046,-56.95
05.062,-72.42
05.078,-84.56
05.093,-94.38
05.109,-102.59
05.125,-108.92
05.140,-112.19
05.156,-111.05
05.171,-104.86
05.187,-94.27
05.203,-81.1
05.218,-67.57
05.234,-55.49
05.250,-45.63
05.265,-37.53
05.281,-30.07
05.296,-22.15
05.312,-13.35
05.328,-4.15
05.343,4.34
05.359,10.93
05.375,14.88
05.390,16.11
05.406,15.18
05.421,12.69
05.437,8.76
05.453,2.75
05.468,-6.61
05.484,-20.28
05.500,-38.03
05.515,-57.73
05.531,-75.78
05.546,-88.33
05.562,-92.96
05.578,-89.85
05.593,-81.73
05.609,-72.65
05.625,-65.74
05.640,-61.57
05.656,-57.7
05.671,-49.73
05.687,-33.68
05.703,-8.0
05.718,25.48
05.734,62.22
05.750,96.65
05.765,123.99
05.781,141.1
05.796,146.42
05.812,139.41
05.828,120.11
05.843,89.81
05.859,52.4
05.875,15.15
05.890,-12.15
05.906,-20.15
05.921,-3.9
05.937,34.52
05.953,86.68
05.968,141.52
05.984,190.76
06.000,232.6
06.015,272.08
06.031,316.65
06.046,370.6
06.062,431.26
06.078,489.12
06.093,532.35
06.109,552.36
06.125,547.92
06.140,525.1
06.156,493.97
06.171,463.52
06.187,438.18
06.203,417.05
06.218,395.8
06.234,370.08
06.250,337.97
06.265,300.97
06.281,262.38
06.296,225.35
06.312,191.1
06.328,158.34
06.343,124.68
06.359,87.94
06.375,47.93
06.390,6.76
06.406,-31.92
06.421,-64.83
06.437,-90.51
06.453,-109.81
06.468,-125.38
06.484,-139.99
06.500,-155.63
06.515,-172.34
06.531,-188.79
06.546,-202.97
06.562,-213.37
06.578,-220.16
06.593,-225.36
06.609,-232.49
06.625,-245.43
06.640,-267.29
06.656,-299.36
06.671,-340.82
06.687,-389.06
06.703,-440.64
06.718,-492.31
06.734,-541.96
06.750,-588.84
06.765,-632.88
06.781,-674.61
06.796,-714.75
06.812,-754.2
06.828,-794.11
06.843,-834.8
06.859,-874.61
06.875,-908.95
06.890,-930.84
06.906,-932.7
06.921,-909.53
06.937,-861.35
06.953,-793.54
06.968,-715.11
06.984,-635.39
07.000,-561.08
07.015,-494.86
07.031,-436.32
07.046,-383.91
07.062,-336.4
07.078,-293.37
07.093,-254.6
07.109,-219.21
07.125,-185.41
07.140,-151.04
07.156,-114.5
07.171,-75.65
07.187,-35.94
07.203,1.99
07.218,35.47
07.234,62.42
07.250,82.02
07.265,94.67
07.281,101.67
07.296,104.51
07.312,104.48
07.328,102.36
07.343,98.57
07.359,93.47
07.375,87.55
07.390,81.78
07.406,77.53
07.421,76.34
07.437,79.6
07.453,88.02
07.468,101.49
07.484,119.0
07.500,139.0
07.515,159.88
07.531,180.57
07.546,200.87
07.562,221.35
07.578,242.91
07.593,265.95
07.609,289.98
07.625,313.6
07.640,335.54
07.656,355.59
07.671,375.12
07.687,396.21
07.703,419.86
07.718,444.32
07.734,464.69
07.750,474.95
07.765,470.84
07.781,452.17
07.796,422.84
07.812,388.62
07.828,354.14
07.843,321.14
07.859,289.14
07.875,257.57
07.890,227.88
07.906,203.5
07.921,187.51
07.937,179.92
07.953,176.14
07.968,168.54
07.984,150.09
08.000,118.15
08.015,76.07
08.031,31.55
08.046,-7.29
08.062,-35.8
08.078,-54.58
08.093,-68.19
08.109,-81.36
08.125,-95.43
08.140,-106.72
08.156,-108.28
08.171,-94.13
08.187,-63.43
08.203,-22.1
08.218,19.37
08.234,50.42
08.250,65.19
08.265,64.53
08.281,54.25
08.296,41.06
08.312,28.71
08.328,16.39
08.343,0.62
08.359,-20.94
08.375,-46.61
08.390,-70.07
08.406,-83.04
08.421,-79.74
08.437,-60.09
08.453,-30.29
08.468,0.05
08.484,22.43
08.500,33.57
08.515,36.35
08.531,37.83
08.546,44.82
08.562,60.06
08.578,80.79
08.593,100.44
08.609,112.43
08.625,113.7
08.640,106.22
08.656,95.38
08.671,86.76
08.687,82.94
08.703,82.25
08.718,80.28
08.734,72.86
08.750,58.9
08.765,41.5
08.781,26.34
08.796,18.56
08.812,20.01
08.828,28.31
08.843,37.96
08.859,43.32
08.875,41.1
08.890,31.49
08.906,17.44
08.921,2.57
08.937,-10.91
08.953,-23.03
08.968,-35.31
08.984,-49.37
09.000,-65.37
09.015,-81.68
09.031,-95.64
09.046,-105.1
09.062,-109.42
09.078,-109.59
09.093,-107.29
09.109,-103.3
09.125,-96.59
09.140,-84.29
09.156,-62.95
09.171,-30.48
09.187,12.42
09.203,62.02
09.218,112.7
09.234,159.13
09.250,198.34
09.265,230.58
09.281,258.54
09.296,285.29
09.312,312.07
09.328,337.5
09.343,358.2
09.359,371.0
09.375,375.07
09.390,372.73
09.406,368.03
09.421,364.39
09.437,362.33
09.453,358.96
09.468,349.93
09.484,332.44
09.500,307.57
09.515,280.5
09.531,257.93
09.546,244.44
09.562,239.82
09.578,238.95
09.593,234.05
09.609,218.43
09.625,189.29
09.640,148.72
09.656,102.34
09.671,56.59
09.687,16.48
09.703,-15.51
09.718,-39.33
09.734,-56.73
09.750,-70.14
09.765,-81.82
09.781,-93.37
09.796,-105.36
09.812,-117.65
09.828,-129.81
09.843,-141.61
09.859,-152.78
09.875,-162.77
09.890,-169.98
09.906,-172.19
09.921,-168.12
09.937,-158.84
09.953,-148.86
09.968,-144.65
09.984,-151.44
10.000,-169.8
10.015,-194.11
10.031,-214.64
10.046,-222.25
10.062,-213.54
10.078,-192.66
10.093,-169.31
10.109,-153.14
10.125,-148.51
10.140,-152.22
10.156,-155.88
10.171,-151.4
10.187,-136.09
10.203,-114.85
10.218,-97.4
10.234,-93.12
10.250,-105.48
10.265,-129.84
10.281,-155.73
10.296,-172.19
10.312,-173.26
10.328,-160.78
10.343,-142.86
10.359,-128.86
10.375,-124.27
10.390,-127.75
10.406,-132.42
10.421,-130.76
10.437,-119.47
10.453,-101.94
10.468,-86.31
10.484,-80.54
10.500,-87.13
10.515,-101.12
10.531,-112.56
10.546,-112.0
10.562,-96.05
10.578,-69.38
10.593,-42.37
10.609,-25.34
10.625,-23.04
10.640,-32.12
10.656,-43.49
10.671,-47.88
10.687,-41.18
10.703,-26.62
10.718,-12.61
10.734,-7.36
10.750,-13.78
10.765,-27.63
10.781,-40.01
10.796,-42.83
10.812,-33.65
10.828,-17.4
10.843,-3.54
10.859,-0.4
10.875,-10.27
10.890,-27.74
10.906,-42.66
10.921,-45.98
10.937,-35.05
10.953,-15.19
10.968,3.16
10.984,10.47
11.000,3.49
11.015,-12.94
11.031,-28.71
11.046,-34.45
11.062,-26.75
11.078,-10.0
11.093,6.32
11.109,13.38
11.125,7.98
11.140,-5.64
11.156,-18.64
11.171,-23.0
11.187,-16.44
11.203,-3.68
11.218,6.27
11.234,5.63
11.250,-7.58
11.265,-28.17
11.281,-46.6
11.296,-54.56
11.312,-49.49
11.328,-36.15
11.343,-23.84
11.359,-20.98
11.375,-30.39
11.390,-47.61
11.406,-63.45
11.421,-69.09
11.437,-60.93
11.453,-42.42
11.468,-22.09
11.484,-8.7
11.500,-6.67
11.515,-13.99
11.531,-23.89
11.546,-29.25
11.562,-26.84
11.578,-19.12
11.593,-12.55
11.609,-13.2
11.625,-22.7
11.640,-36.75
11.656,-47.37
11.671,-47.72
11.687,-36.47
11.703,-19.18
11.718,-5.63
11.734,-4.37
11.750,-17.82
11.765,-40.78
11.781,-63.27
11.796,-76.35
11.812,-77.28
11.828,-71.17
11.843,-68.11
11.859,-77.01
11.875,-100.56
11.890,-133.43
11.906,-165.5
11.921,-187.73
11.937,-197.41
11.953,-199.53
11.968,-203.55
11.984,-217.57
12.000,-243.19
12.015,-273.87
12.031,-297.68
12.046,-302.82
12.062,-282.83
12.078,-238.97
12.093,-179.15
12.109,-113.86
12.125,-52.01
12.140,1.85
12.156,47.71
12.171,88.18
12.187,126.09
12.203,162.6
12.218,196.9
12.234,227.15
12.250,251.94
12.265,271.01
12.281,284.9
12.296,293.68
12.312,295.68
12.328,287.41
12.343,264.91
12.359,226.32
12.375,173.99
12.390,115.04
12.406,59.56
12.421,16.98
12.437,-7.51
12.453,-15.0
12.468,-11.97
12.484,-6.93
12.500,-6.55
12.515,-12.97
12.531,-23.64
12.546,-33.84
12.562,-39.88
12.578,-41.19
12.593,-40.29
12.609,-40.56
12.625,-43.48
12.640,-47.42
12.656,-48.46
12.671,-43.21
12.687,-31.16
12.703,-15.14
12.718,0.52
12.734,13.19
12.750,24.36
12.765,39.56
12.781,65.72
12.796,107.23
12.812,162.58
12.828,223.65
12.843,278.41
12.859,315.79
12.875,330.23
12.890,324.23
12.906,307.15
12.921,290.86
12.937,284.33
12.953,289.55
12.968,301.07
12.984,309.48
13.000,306.49
13.015,288.99
13.031,259.85
13.046,225.03
13.062,189.4
13.078,153.71
13.093,114.83
13.109,68.76
13.125,14.28
13.140,-45.21
13.156,-102.6
13.171,-150.42
13.187,-184.41
13.203,-205.22
13.218,-217.62
13.234,-227.28
13.250,-237.68
13.265,-248.25
13.281,-255.18
13.296,-253.95
13.312,-242.31
13.328,-222.0
13.343,-198.3
13.359,-177.29
13.375,-162.68
13.390,-153.97
13.406,-147.04
13.421,-136.71
13.437,-119.75
13.453,-96.47
13.468,-70.22
13.484,-45.25
13.500,-24.46
13.515,-8.45
13.531,3.68
13.546,12.66
13.562,18.04
13.578,18.32
13.593,12.41
13.609,1.22
13.625,-11.76
13.640,-21.32
13.656,-22.41
13.671,-12.08
13.687,9.41
13.703,38.95
13.718,71.56
13.734,102.13
13.750,126.75
13.765,143.69
13.781,153.45
13.796,158.45
13.812,161.88
13.828,166.6
13.843,174.19
13.859,184.27
13.875,194.76
13.890,202.73
13.906,205.49
13.921,201.35
13.937,190.3
13.953,173.99
13.968,155.68
13.984,140.03
14.000,132.32
14.015,137.11
14.031,156.59
14.046,189.03
14.062,228.5
14.078,266.1
14.093,292.41
14.109,300.18
14.125,286.06
14.140,250.7
14.156,197.77
14.171,132.42
14.187,60.03
14.203,-14.33
14.218,-86.27
14.234,-152.38
14.250,-210.64
14.265,-260.27
14.281,-301.1
14.296,-332.54
14.312,-353.02
14.328,-360.43
14.343,-353.25
14.359,-331.56
14.375,-297.26
14.390,-253.72
14.406,-204.78
14.421,-154.32
14.437,-105.96
14.453,-63.12
14.468,-28.63
14.484,-4.03
14.500,10.99
14.515,18.6
14.531,21.84
14.546,23.44
14.562,24.92
14.578,26.54
14.593,28.15
14.609,30.09
14.625,33.51
14.640,39.76
14.656,49.53
14.671,62.19
14.687,76.08
14.703,89.2
14.718,99.84
14.734,106.99
14.750,110.14
14.765,108.89
14.781,102.82
14.796,91.46
14.812,74.73
14.828,53.29
14.843,28.56
14.859,2.46
14.875,-22.77
14.890,-45.08
14.906,-62.74
14.921,-74.49
14.937,-79.72
14.953,-78.79
14.968,-73.28
14.984,-65.71
15.000,-58.91
15.015,-54.82
15.031,-53.73
15.046,-54.19
15.062,-53.98
15.078,-51.49
15.093,-46.76
15.109,-41.52
15.125,-38.03
15.140,-37.54
15.156,-39.39
15.171,-41.5
15.187,-41.69
15.203,-39.09
15.218,-34.75
15.234,-30.93
15.250,-29.66
15.265,-31.6
15.281,-35.66
15.296,-39.88
15.312,-42.59
15.328,-43.39
15.343,-43.19
15.359,-43.71
15.375,-46.21
15.390,-50.77
15.406,-56.09
15.421,-60.14
15.437,-61.15
15.453,-58.48
15.468,-53.0
15.484,-46.68
15.500,-41.78
15.515,-39.8
15.531,-40.87
15.546,-43.9
15.562,-47.26
15.578,-49.72
15.593,-51.0
15.609,-51.78
15.625,-53.18
15.640,-56.06
15.656,-60.5
15.671,-65.94
15.687,-71.66
15.703,-77.33
15.718,-83.35
15.734,-90.36
15.750,-98.68
15.765,-107.61
15.781,-115.68
15.796,-121.61
15.812,-125.44
15.828,-128.99
15.843,-135.35
15.859,-147.48
15.875,-166.34
15.890,-189.88
15.906,-213.32
15.921,-230.9
15.937,-238.18
15.953,-233.82
15.968,-219.93
15.984,-200.89
16.000,-181.46
16.015,-164.54
16.031,-149.76
16.046,-133.37
16.062,-109.75
16.078,-73.82
16.093,-23.53
16.109,38.99
16.125,108.02
16.140,176.29
16.156,237.49
16.171,287.72
16.187,325.67
16.203,351.72
16.218,366.51
16.234,370.57
16.250,364.67
16.265,350.83
16.281,332.97
16.296,316.11
16.312,304.23
16.328,298.24
16.343,295.17
16.359,289.31
16.375,275.25
16.390,250.71
16.406,217.91
16.421,182.47
16.437,150.51
16.453,125.49
16.468,106.9
16.484,91.51
16.500,76.06
16.515,59.93
16.531,45.76
16.546,37.52
16.562,37.53
16.578,44.04
16.593,51.27
16.609,51.81
16.625,40.35
16.640,16.27
16.656,-15.63
16.671,-47.3
16.687,-71.17
16.703,-83.4
16.718,-85.45
16.734,-82.76
16.750,-81.39
16.765,-84.16
16.781,-89.13
16.796,-90.57
16.812,-82.8
16.828,-64.04
16.843,-38.05
16.859,-12.35
16.875,6.36
16.890,16.43
16.906,22.48
16.921,32.4
16.937,52.01
16.953,80.58
16.968,110.35
16.984,130.36
17.000,132.3
17.015,114.97
17.031,84.93
17.046,52.69
17.062,27.18
17.078,11.73
17.093,3.49
17.109,-3.67
17.125,-14.73
17.140,-30.61
17.156,-47.65
17.171,-59.97
17.187,-63.07
17.203,-56.34
17.218,-43.51
17.234,-30.71
17.250,-23.44
17.265,-23.79
17.281,-29.57
17.296,-35.88
17.312,-38.15
17.328,-34.83
17.343,-28.14
17.359,-22.36
17.375,-20.81
17.390,-23.67
17.406,-27.7
17.421,-28.54
17.437,-23.68
17.453,-14.64
17.468,-6.33
17.484,-4.5
17.500,-12.29
17.515,-28.22
17.531,-46.6
17.546,-60.28
17.562,-64.53
17.578,-59.06
17.593,-47.79
17.609,-36.29
17.625,-28.72
17.640,-25.71
17.656,-24.3
17.671,-19.86
17.687,-9.1
17.703,7.3
17.718,24.37
17.734,34.73
17.750,31.91
17.765,13.54
17.781,-17.18
17.796,-52.41
17.812,-82.72
17.828,-100.85
17.843,-104.42
17.859,-96.29
17.875,-82.33
17.890,-68.23
17.906,-56.59
17.921,-46.55
17.937,-35.48
17.953,-21.92
17.968,-7.4
17.984,3.79
18.000,7.06
18.015,0.4
18.031,-13.97
18.046,-30.0
18.062,-40.77
18.078,-41.79
18.093,-32.88
18.109,-17.33
18.125,0.64
18.140,18.68
18.156,37.43
18.171,59.48
18.187,86.92
18.203,118.79
18.218,150.31
18.234,174.38
18.250,184.75
18.265,178.95
18.281,159.56
18.296,132.88
18.312,105.8
18.328,82.69
18.343,63.91
18.359,46.68
18.375,27.84
18.390,6.39
18.406,-15.42
18.421,-33.13
18.437,-42.55
18.453,-42.18
18.468,-34.18
18.484,-23.39
18.500,-14.84
18.515,-11.16
18.531,-11.57
18.546,-12.84
18.562,-11.74
18.578,-7.42
18.593,-2.31
18.609,-0.97
18.625,-7.33
18.640,-22.09
18.656,-41.84
18.671,-60.29
18.687,-71.36
18.703,-72.2
18.718,-64.5
18.734,-53.46
18.750,-44.74
18.765,-41.31
18.781,-41.78
18.796,-41.46
18.812,-35.32
18.828,-21.2
18.843,-1.3
18.859,18.82
18.875,33.5
18.890,40.24
18.906,41.19
18.921,41.8
18.937,47.56
18.953,60.63
18.968,78.55
18.984,95.66
19.000,106.44
19.015,108.74
19.031,105.2
19.046,101.59
19.062,103.42
19.078,112.66
19.093,126.73
19.109,140.08
19.125,147.75
19.140,148.45
19.156,145.12
19.171,142.9
19.187,145.48
19.203,152.33
19.218,158.6
19.234,157.66
19.250,145.26
19.265,122.29
19.281,94.88
19.296,71.49
19.312,58.76
19.328,58.32
19.343,66.24
19.359,75.22
19.375,78.13
19.390,71.13
19.406,54.67
19.421,32.4
19.437,8.63
19.453,-13.96
19.468,-35.44
19.484,-58.27
19.500,-86.0
19.515,-121.65
19.531,-166.26
19.546,-217.91
19.562,-271.57
19.578,-319.92
19.593,-355.08
19.609,-371.16
19.625,-365.94
19.640,-341.57
19.656,-303.64
19.671,-258.91
19.687,-213.54
19.703,-172.13
19.718,-137.91
19.734,-113.81
19.750,-102.35
19.765,-104.26
19.781,-116.57
19.796,-131.79
19.812,-139.92
19.828,-132.78
19.843,-108.69
19.859,-74.17
19.875,-41.98
19.890,-25.75
19.906,-33.95
19.921,-66.63
19.937,-116.55
19.953,-173.8
19.968,-230.74
19.984,-284.38
20.000,-334.72
20.015,-381.13
20.031,-419.27
20.046,-441.41
20.062,-440.04
20.078,-412.23
20.093,-361.99
20.109,-299.13
20.125,-235.06
20.140,-178.2
20.156,-131.54
20.171,-92.71
20.187,-56.79
20.203,-19.55
20.218,20.53
20.234,61.74
20.250,100.25
20.265,132.0
20.281,154.35
20.296,167.46
20.312,174.22
20.328,179.02
20.343,185.44
20.359,194.51
20.375,204.06
20.390,209.85
20.406,207.79
20.421,195.83
20.437,174.19
20.453,144.43
20.468,107.96
20.484,65.39
20.500,17.53
20.515,-33.14
20.531,-81.65
20.546,-121.17
20.562,-145.32
20.578,-150.57
20.593,-137.51
20.609,-110.4
20.625,-75.47
20.640,-38.37
20.656,-2.65
20.671,30.68
20.687,62.35
20.703,93.13
20.718,122.34
20.734,147.28
20.750,164.05
20.765,169.46
20.781,163.03
20.796,147.69
20.812,128.5
20.828,110.37
20.843,95.81
20.859,84.21
20.875,73.13
20.890,60.75
20.906,47.81
20.921,37.84
20.937,35.13
20.953,41.85
20.968,56.16
20.984,72.27
21.000,82.85
21.015,82.77
21.031,71.77
21.046,54.99
21.062,40.55
21.078,35.51
21.093,42.33
21.109,57.74
21.125,74.4
21.140,84.81
21.156,85.23
21.171,77.42
21.187,67.01
21.203,59.88
21.218,58.38
21.234,59.74
21.250,57.81
21.265,46.8
21.281,25.03
21.296,-3.44
21.312,-31.1
21.328,-51.11
21.343,-61.02
21.359,-63.84
21.375,-65.53
21.390,-70.48
21.406,-78.03
21.421,-82.19
21.437,-75.3
21.453,-53.43
21.468,-20.04
21.484,14.42
21.500,37.17
21.515,39.42
21.531,20.99
21.546,-9.25
21.562,-37.7
21.578,-52.4
21.593,-48.18
21.609,-27.75
21.625,1.23
21.640,31.32
21.656,59.34
21.671,87.27
21.687,119.59
21.703,158.81
21.718,202.58
21.734,243.7
21.750,273.71
21.765,287.45
21.781,285.81
21.796,275.45
21.812,265.14
21.828,261.08
21.843,264.02
21.859,269.01
21.875,268.14
21.890,254.59
21.906,226.12
21.921,186.05
21.937,141.72
21.953,100.89
21.968,68.17
21.984,43.19
22.000,21.52
22.015,-2.38
22.031,-31.73
22.046,-65.43
22.062,-99.01
22.078,-127.53
22.093,-148.71
22.109,-164.36
22.125,-178.81
22.140,-195.7
22.156,-215.11
22.171,-232.92
22.187,-243.07
22.203,-241.19
22.218,-227.05
22.234,-204.72
22.250,-180.27
22.265,-158.33
22.281,-139.96
22.296,-122.67
22.312,-102.47
22.328,-76.81
22.343,-46.3
22.359,-14.7
22.375,12.93
22.390,32.64
22.406,43.47
22.421,47.77
22.437,49.83
22.453,53.67
22.468,61.1
22.484,71.05
22.500,80.3
22.515,85.38
22.531,84.32
22.546,77.8
22.562,68.67
22.578,60.17
22.593,54.37
22.609,51.12
22.625,48.66
22.640,45.2
22.656,40.25
22.671,35.27
22.687,32.82
22.703,34.78
22.718,40.92
22.734,48.68
22.750,54.19
22.765,54.31
22.781,48.4
22.796,38.74
22.812,29.22
22.828,23.13
22.843,21.5
22.859,22.47
22.875,22.66
22.890,19.5
22.906,13.16
22.921,7.13
22.937,6.34
22.953,14.11
22.968,29.56
22.984,47.28
23.000,59.24
23.015,58.45
23.031,42.31
23.046,13.93
23.062,-19.27
23.078,-49.18
23.093,-70.84
23.109,-84.49
23.125,-94.54
23.140,-106.26
23.156,-122.0
23.171,-139.42
23.187,-152.76
23.203,-156.61
23.218,-149.74
23.234,-136.65
23.250,-125.65
23.265,-124.56
23.281,-136.7
23.296,-159.1
23.312,-184.43
23.328,-204.98
23.343,-216.07
23.359,-217.23
23.375,-210.65
23.390,-198.37
23.406,-180.59
23.421,-155.81
23.437,-123.05
23.453,-84.19
23.468,-44.78
23.484,-12.59
23.500,5.55
23.515,7.4
23.531,-3.33
23.546,-18.15
23.562,-27.52
23.578,-25.01
23.593,-9.85
23.609,12.97
23.625,35.61
23.640,51.36
23.656,57.93
23.671,58.02
23.687,57.44
23.703,61.44
23.718,71.64
23.734,85.08
23.750,95.8
23.765,98.35
23.781,90.86
23.796,76.32
23.812,60.92
23.828,50.75
23.843,48.75
23.859,53.48
23.875,60.55
23.890,65.53
23.906,66.6
23.921,65.39
23.937,65.62
23.953,70.11
23.968,78.89
23.984,88.82
24.000,95.11
24.015,94.32
24.031,86.43
24.046,75.16
24.062,66.05
24.078,63.35
24.093,67.56
24.109,75.24
24.125,81.1
24.140,81.46
24.156,76.9
24.171,72.59
24.187,75.63
24.203,91.12
24.218,118.67
24.234,151.78
24.250,180.41
24.265,195.4
24.281,192.16
24.296,172.11
24.312,141.13
24.328,106.13
24.343,72.02
24.359,40.46
24.375,10.75
24.390,-17.99
24.406,-45.02
24.421,-67.56
24.437,-82.13
24.453,-86.61
24.468,-81.88
24.484,-72.02
24.500,-62.64
24.515,-58.52
24.531,-61.42
24.546,-69.68
24.562,-79.25
24.578,-85.95
24.593,-87.51
24.609,-84.31
24.625,-78.81
24.640,-73.59
24.656,-69.93
24.671,-67.15
24.687,-63.4
24.703,-57.17
24.718,-48.54
24.734,-39.57
24.750,-33.44
24.765,-32.81
24.781,-38.47
24.796,-48.76
24.812,-60.25
24.828,-69.31
24.843,-73.74
24.859,-73.65
24.875,-71.13
24.890,-68.81
24.906,-68.28
24.921,-69.17
24.937,-69.42
24.953,-66.65
24.968,-59.74
24.984,-49.75
25.000,-39.55
25.015,-32.11
25.031,-28.8
25.046,-28.36
25.062,-27.63
25.078,-23.38
25.093,-14.39
25.109,-2.33
25.125,9.01
25.140,15.8
25.156,16.4
25.171,12.23
25.187,7.07
25.203,4.75
25.218,7.0
25.234,12.4
25.250,17.29
25.265,18.01
25.281,13.02
25.296,3.9
25.312,-5.6
25.328,-11.68
25.343,-12.66
25.359,-9.81
25.375,-6.71
25.390,-7.09
25.406,-12.72
25.421,-22.46
25.437,-32.86
25.453,-40.05
25.468,-41.78
25.484,-38.46
25.500,-32.82
25.515,-28.07
25.531,-26.1
25.546,-26.35
25.562,-26.27
25.578,-22.99
25.593,-15.21
25.609,-4.2
25.625,6.72
25.640,14.03
25.656,15.92
25.671,13.34
25.687,9.41
25.703,7.64
25.718,10.22
25.734,17.23
25.750,27.02
25.765,37.48
25.781,47.32
25.796,56.44
25.812,65.69
25.828,75.82
25.843,86.5
25.859,96.06
25.875,102.01
25.890,102.31
25.906,96.59
25.921,86.81
25.937,76.62
25.953,69.69
25.968,67.73
25.984,69.32
26.000,70.55
26.015,67.2
26.031,57.38
26.046,42.75
26.062,27.69
26.078,16.75
26.093,11.96
26.109,11.87
26.125,12.69
26.140,11.09
26.156,6.47
26.171,1.43
26.187,0.26
26.203,6.28
26.218,19.47
26.234,36.03
26.250,49.86
26.265,55.34
26.281,49.75
26.296,34.31
26.312,13.48
26.328,-7.18
26.343,-23.43
26.359,-33.8
26.375,-39.74
26.390,-44.11
26.406,-49.22
26.421,-55.39
26.437,-60.98
26.453,-63.67
26.468,-62.06
26.484,-56.83
26.500,-50.35
26.515,-44.94
26.531,-41.03
26.546,-36.42
26.562,-27.48
26.578,-11.75
26.593,9.7
26.609,31.68
26.625,46.57
26.640,47.66
26.656,32.54
26.671,4.18
26.687,-30.54
26.703,-64.22
26.718,-92.35
26.734,-114.83
26.750,-135.08
26.765,-157.27
26.781,-183.43
26.796,-211.87
26.812,-237.65
26.828,-254.79
26.843,-258.93
26.859,-248.94
26.875,-226.85
26.890,-196.52
26.906,-161.79
26.921,-125.09
26.937,-87.3
26.953,-48.54
26.968,-9.04
26.984,30.28
27.000,67.77
27.015,101.66
27.031,130.69
27.046,154.52
27.062,173.69
27.078,189.09
27.093,201.06
27.109,208.83
27.125,210.34
27.140,202.94
27.156,184.61
27.171,155.47
27.187,118.59
27.203,79.36
27.218,43.6
27.234,15.05
27.250,-6.07
27.265,-22.62
27.281,-38.26
27.296,-54.61
27.312,-69.8
27.328,-79.33
27.343,-78.85
27.359,-66.95
27.375,-46.44
27.390,-23.01
27.406,-2.18
27.421,13.49
27.437,25.46
27.453,37.57
27.468,53.24
27.484,73.02
27.500,94.16
27.515,112.2
27.531,123.62
27.546,127.98
27.562,128.16
27.578,128.67
27.593,132.93
27.609,141.19
27.625,150.19
27.640,154.84
27.656,150.91
27.671,137.24
27.687,116.5
27.703,93.65
27.718,73.35
27.734,57.48
27.750,44.29
27.765,29.77
27.781,10.77
27.796,-12.27
27.812,-34.63
27.828,-49.43
27.843,-51.67
27.859,-41.45
27.875,-24.83
27.890,-11.24
27.906,-8.96
27.921,-20.71
27.937,-42.19
27.953,-64.47
27.968,-78.72
27.984,-80.73
28.000,-72.65
28.015,-60.81
28.031,-51.31
28.046,-46.47
28.062,-43.75
28.078,-38.06
28.093,-25.82
28.109,-7.88
28.125,10.45
28.140,22.18
28.156,22.68
28.171,12.41
28.187,-3.51
28.203,-18.45
28.218,-28.05
28.234,-32.18
28.250,-34.28
28.265,-38.66
28.281,-47.37
28.296,-58.7
28.312,-67.91
28.328,-70.17
28.343,-63.73
28.359,-51.51
28.375,-40.21
28.390,-36.97
28.406,-45.5
28.421,-63.84
28.437,-85.23
28.453,-101.53
28.468,-107.81
28.484,-104.8
28.500,-98.51
28.515,-96.59
28.531,-103.53
28.546,-117.62
28.562,-131.2
28.578,-134.24
28.593,-119.3
28.609,-85.51
28.625,-39.21
28.640,8.53
28.656,46.68
28.671,68.54
28.687,73.88
28.703,67.59
28.718,56.1
28.734,43.77
28.750,30.96
28.765,15.1
28.781,-6.36
28.796,-32.7
28.812,-58.72
28.828,-76.32
28.843,-77.97
28.859,-60.13
28.875,-24.89
28.890,20.7
28.906,67.46
28.921,107.09
28.937,134.56
28.953,148.4
28.968,149.75
28.984,141.06
29.000,124.84
29.015,103.57
29.031,79.95
29.046,57.42
29.062,39.89
29.078,30.65
29.093,30.8
29.109,38.6
29.125,50.29
29.140,62.05
29.156,72.28
29.171,82.18
29.187,94.58
29.203,111.06
29.218,129.67
29.234,144.78
29.250,149.32
29.265,138.23
29.281,111.12
29.296,72.68
29.312,30.86
29.328,-6.11
29.343,-32.34
29.359,-45.45
29.375,-46.15
29.390,-37.12
29.406,-21.61
29.421,-2.83
29.437,16.55
29.453,34.36
29.468,48.64
29.484,57.55
29.500,59.39
29.515,53.04
29.531,38.31
29.546,16.45
29.562,-10.15
29.578,-38.56
29.593,-66.42
29.609,-92.82
29.625,-118.48
29.640,-145.03
29.656,-173.24
29.671,-201.59
29.687,-225.6
29.703,-238.92
29.718,-235.78
29.734,-213.66
29.750,-174.97
29.765,-126.53
29.781,-76.81
29.796,-32.58
29.812,3.52
29.828,32.9
29.843,58.63
29.859,82.17
29.875,101.62
29.890,112.54
29.906,111.03
29.921,96.81
29.937,74.5
29.953,51.97
29.968,36.87
29.984,33.21
30.000,39.93
30.015,52.11
30.031,63.79
30.046,70.89
30.062,72.52
30.078,70.48
30.093,67.27
30.109,64.26
30.125,60.75
30.140,54.54
30.156,43.65
30.171,27.98
30.187,10.19
30.203,-5.28
30.218,-14.35
30.234,-15.7
30.250,-11.96
30.265,-8.63
30.281,-11.09
30.296,-21.55
30.312,-37.81
30.328,-54.28
30.343,-65.21
30.359,-67.75
30.375,-63.5
30.390,-57.38
30.406,-54.43
30.421,-57.0
30.437,-63.44
30.453,-69.34
30.468,-70.46
30.484,-65.42
30.500,-56.53
30.515,-48.53
30.531,-45.69
30.546,-49.31
30.562,-56.89
30.578,-63.45
30.593,-64.31
30.609,-57.56
30.625,-45.11
30.640,-31.38
30.656,-20.85
30.671,-15.53
30.687,-14.01
30.703,-12.43
30.718,-6.8
30.734,4.64
30.750,20.59
30.765,37.57
30.781,52.0
30.796,62.18
30.812,68.77
30.828,73.9
30.843,79.33
30.859,85.37
30.875,90.89
30.890,94.34
30.906,94.81
30.921,92.53
30.937,88.59
30.953,83.79
30.968,77.58
30.984,67.55
31.000,49.87
31.015,20.62
31.031,-22.35
31.046,-77.62
31.062,-138.97
31.078,-195.93
31.093,-236.27
31.109,-250.17
31.125,-234.25
31.140,-193.14
31.156,-137.53
31.171,-79.59
31.187,-27.97
31.203,14.84
31.218,51.26
31.234,84.83
31.250,116.36
31.265,142.41
31.281,157.34
31.296,157.09
31.312,142.29
31.328,118.44
31.343,93.13
31.359,71.99
31.375,56.37
31.390,43.9
31.406,31.29
31.421,17.4
31.437,4.55
31.453,-2.6
31.468,-0.2
31.484,12.15
31.500,30.3
31.515,47.0
31.531,55.34
31.546,52.04
31.562,39.11
31.578,22.75
31.593,10.3
31.609,6.54
31.625,11.61
31.640,21.16
31.656,29.06
31.671,30.84
31.687,25.88
31.703,17.51
31.718,10.41
31.734,7.36
31.750,7.29
31.765,5.56
31.781,-3.12
31.796,-21.35
31.812,-46.7
31.828,-72.56
31.843,-91.23
31.859,-97.97
31.875,-93.35
31.890,-83.0
31.906,-74.44
31.921,-72.97
31.937,-79.08
31.953,-88.28
31.968,-94.12
31.984,-92.03
32.000,-82.02
32.015,-68.79
32.031,-59.15
32.046,-58.13
32.062,-66.27
32.078,-79.25
32.093,-90.26
32.109,-93.56
32.125,-87.28
32.140,-73.91
32.156,-58.49
32.171,-45.4
32.187,-35.91
32.203,-27.84
32.218,-17.66
32.234,-3.9
32.250,10.57
32.265,18.43
32.281,11.4
32.296,-15.05
32.312,-57.9
32.328,-106.18
32.343,-145.01
32.359,-162.12
32.375,-153.27
32.390,-124.0
32.406,-86.44
32.421,-53.14
32.437,-31.38
32.453,-20.86
32.468,-15.94
32.484,-10.66
32.500,-2.76
32.515,5.16
32.531,8.38
32.546,4.21
32.562,-5.09
32.578,-12.53
32.593,-10.09
32.609,6.69
32.625,35.6
32.640,68.16
32.656,93.54
32.671,103.92
32.687,98.33
32.703,83.1
32.718,68.13
32.734,61.42
32.750,64.87
32.765,73.36
32.781,78.13
32.796,72.11
32.812,54.34
32.828,30.62
32.843,10.25
32.859,0.5
32.875,2.46
32.890,10.46
32.906,15.71
32.921,11.53
32.937,-2.71
32.953,-21.19
32.968,-35.08
32.984,-37.64
33.000,-27.89
33.015,-10.95
33.031,5.17
33.046,14.24
33.062,15.14
33.078,12.18
33.093,12.08
33.109,19.79
33.125,35.5
33.140,54.64
33.156,70.54
33.171,78.19
33.187,76.76
33.203,69.68
33.218,62.28
33.234,58.66
33.250,59.6
33.265,62.49
33.281,63.22
33.296,58.78
33.312,48.99
33.328,36.72
33.343,26.36
33.359,21.63
33.375,23.84
33.390,31.41
33.406,40.85
33.421,48.47
33.437,51.98
33.453,51.32
33.468,48.18
33.484,44.72
33.500,42.28
33.515,40.65
33.531,38.3
33.546,33.66
33.562,26.26
33.578,17.48
33.593,10.04
33.609,6.69
33.625,8.78
33.640,15.56
33.656,24.47
33.671,32.59
33.687,38.21
33.703,41.68
33.718,44.7
33.734,48.96
33.750,54.45
33.765,58.57
33.781,57.14
33.796,46.79
33.812,27.36
33.828,3.19
33.843,-18.55
33.859,-31.35
33.875,-32.9
33.890,-26.88
33.906,-21.12
33.921,-23.14
33.937,-35.41
33.953,-53.54
33.968,-68.75
33.984,-73.51
34.000,-66.43
34.015,-53.49
34.031,-44.69
34.046,-47.82
34.062,-63.45
34.078,-84.16
34.093,-98.64
34.109,-98.29
34.125,-82.05
34.140,-56.69
34.156,-32.62
34.171,-17.98
34.187,-14.38
34.203,-16.76
34.218,-17.4
34.234,-11.29
34.250,0.65
34.265,11.87
34.281,14.04
34.296,1.95
34.312,-23.49
34.328,-55.54
34.343,-85.25
34.359,-106.01
34.375,-116.5
34.390,-120.4
34.406,-123.53
34.421,-130.1
34.437,-140.33
34.453,-150.5
34.468,-155.23
34.484,-150.93
34.500,-137.97
34.515,-120.64
34.531,-104.63
34.546,-93.99
34.562,-88.67
34.578,-84.42
34.593,-74.87
34.609,-54.73
34.625,-22.34
34.640,19.41
34.656,64.38
34.671,105.93
34.687,139.38
34.703,163.29
34.718,179.08
34.734,189.32
34.750,195.83
34.765,198.82
34.781,197.29
34.796,190.27
34.812,178.21
34.828,163.47
34.843,149.49
34.859,139.36
34.875,134.27
34.890,133.07
34.906,133.06
34.921,131.65
34.937,127.89
34.953,123.0
34.968,119.72
34.984,120.52
35.000,126.26
35.015,135.53
35.031,145.58
35.046,153.93
35.062,159.88
35.078,164.99
35.093,172.05
35.109,183.32
35.125,198.9
35.140,216.61
35.156,232.94
35.171,245.25
35.187,253.36
35.203,259.81
35.218,268.35
35.234,281.51
35.250,298.79
35.265,316.25
35.281,328.27
35.296,330.04
35.312,319.59
35.328,298.26
35.343,269.13
35.359,235.12
35.375,197.55
35.390,156.39
35.406,111.35
35.421,63.32
35.437,14.83
35.453,-30.54
35.468,-69.62
35.484,-100.97
35.500,-125.02
35.515,-143.32
35.531,-157.33
35.546,-167.64
35.562,-174.13
35.578,-176.47
35.593,-175.2
35.609,-172.11
35.625,-170.05
35.640,-171.99
35.656,-180.0
35.671,-194.6
35.687,-214.67
35.703,-237.94
35.718,-262.02
35.734,-285.61
35.750,-308.71
35.765,-332.87
35.781,-360.77
35.796,-395.29
35.812,-437.94
35.828,-486.91
35.843,-535.88
35.859,-574.97
35.875,-593.38
35.890,-583.08
35.906,-541.97
35.921,-474.85
35.937,-391.65
35.953,-303.37
35.968,-218.12
35.984,-139.11
36.000,-65.22
36.015,6.35
36.031,78.49
36.046,152.6
36.062,228.21
36.078,303.3
36.093,374.29
36.109,436.36
36.125,484.46
36.140,514.49
36.156,523.76
36.171,512.7
36.187,484.45
36.203,443.89
36.218,395.91
36.234,344.21
36.250,291.4
36.265,239.87
36.281,191.2
36.296,144.25
36.312,96.9
36.328,47.15
36.343,-5.2
36.359,-58.46
36.375,-109.96
36.390,-157.94
36.406,-201.83
36.421,-243.26
36.437,-286.49
36.453,-332.17
36.468,-375.5
36.484,-407.7
36.500,-421.29
36.515,-415.66
36.531,-398.29
36.546,-379.72
36.562,-369.74
36.578,-375.51
36.593,-397.04
36.609,-430.0
36.625,-469.86
36.640,-515.42
36.656,-568.93
36.671,-632.86
36.687,-704.32
36.703,-746.51
36.718,-726.06
36.734,-626.89
36.750,-462.52
36.765,-267.94
36.781,-78.91
36.796,82.42
36.812,200.82
36.828,287.0
36.843,350.57
36.859,392.39
36.875,410.89
36.890,406.06
36.906,382.99
36.921,349.64
36.937,314.69
36.953,286.16
36.968,268.64
36.984,258.41
37.000,244.58
37.015,217.73
37.031,174.66
37.046,119.77
37.062,62.0
37.078,10.24
37.093,-31.11
37.109,-61.03
37.125,-81.51
37.140,-96.56
37.156,-108.88
37.171,-119.77
37.187,-129.24
37.203,-136.6
37.218,-141.06
37.234,-142.4
37.250,-140.56
37.265,-136.42
37.281,-131.48
37.296,-126.46
37.312,-121.34
37.328,-115.59
37.343,-108.53
37.359,-99.86
37.375,-89.82
37.390,-78.66
37.406,-66.9
37.421,-55.06
37.437,-43.23
37.453,-31.19
37.468,-18.64
37.484,-5.54
37.500,7.68
37.515,20.09
37.531,30.65
37.546,38.36
37.562,42.76
37.578,44.31
37.593,44.21
37.609,43.94
37.625,44.87
37.640,47.69
37.656,52.24
37.671,57.55
37.687,62.33
37.703,65.7
37.718,67.79
37.734,69.88
37.750,73.88
37.765,81.63
37.781,93.86
37.796,109.78
37.812,127.23
37.828,143.72
37.843,157.56
37.859,168.61
37.875,178.41
37.890,189.31
37.906,203.48
37.921,222.11
37.937,245.31
37.953,272.48
37.968,302.39
37.984,332.68
38.000,359.47
38.015,377.54
38.031,381.84
38.046,369.96
38.062,344.05
38.078,310.97
38.093,280.07
38.109,259.1
38.125,250.85
38.140,252.12
38.156,255.8
38.171,255.04
38.187,246.9
38.203,233.43
38.218,219.77
38.234,210.49
38.250,206.33
38.265,203.67
38.281,196.55
38.296,180.36
38.312,154.71
38.328,124.05
38.343,95.21
38.359,73.54
38.375,60.06
38.390,50.99
38.406,40.36
38.421,23.85
38.437,1.2
38.453,-23.72
38.468,-45.77
38.484,-62.26
38.500,-74.96
38.515,-88.94
38.531,-109.27
38.546,-137.26
38.562,-169.04
38.578,-197.27
38.593,-214.78
38.609,-218.31
38.625,-209.86
38.640,-195.3
38.656,-181.12
38.671,-171.4
38.687,-166.45
38.703,-163.46
38.718,-158.85
38.734,-150.46
38.750,-138.77
38.765,-126.65
38.781,-117.74
38.796,-114.43
38.812,-116.46
38.828,-120.79
38.843,-123.09
38.859,-120.12
38.875,-111.56
38.890,-100.41
38.906,-91.58
38.921,-89.3
38.937,-94.98
38.953,-106.43
38.968,-118.87
38.984,-127.17
39.000,-128.05
39.015,-121.29
39.031,-109.28
39.046,-95.28
39.062,-81.49
39.078,-67.8
39.093,-52.23
39.109,-32.61
39.125,-8.53
39.140,17.48
39.156,40.71
39.171,56.53
39.187,63.06
39.203,62.47
39.218,60.06
39.234,61.16
39.250,68.05
39.265,78.61
39.281,87.58
39.296,89.93
39.312,83.93
39.328,72.46
39.343,61.25
39.359,55.6
39.375,57.27
39.390,63.55
39.406,68.93
39.421,68.36
39.437,60.38
39.453,47.89
39.468,36.58
39.484,31.44
39.500,34.0
39.515,41.43
39.531,48.15
39.546,49.14
39.562,42.77
39.578,31.68
39.593,21.16
39.609,15.89
39.625,17.26
39.640,22.56
39.656,26.74
39.671,25.44
39.687,17.71
39.703,6.79
39.718,-1.73
39.734,-3.06
39.750,4.07
39.765,16.62
39.781,28.91
39.796,35.72
39.812,35.05
39.828,29.13
39.843,22.84
39.859,20.72
39.875,24.37
39.890,31.5
39.906,37.48
39.921,38.0
39.937,31.72
39.953,21.04
39.968,10.88
39.984,5.72
40.000,7.09
40.015,12.76
40.031,18.05
40.046,18.68
40.062,13.27
40.078,4.25
40.093,-3.55
40.109,-5.72
40.125,-0.91
40.140,8.34
40.156,16.98
40.171,20.42
40.187,17.15
40.203,9.66
40.218,2.99
40.234,1.76
40.250,7.45
40.265,17.56
40.281,27.03
40.296,31.23
40.312,28.66
40.328,21.93
40.343,16.26
40.359,16.14
40.375,22.64
40.390,32.39
40.406,39.3
40.421,38.03
40.437,27.06
40.453,9.62
40.468,-7.99
40.484,-20.08
40.500,-24.63
40.515,-24.39
40.531,-25.0
40.546,-31.48
40.562,-44.95
40.578,-61.8
40.593,-75.69
40.609,-81.29
40.625,-77.42
40.640,-67.73
40.656,-58.59
40.671,-55.3
40.687,-58.93
40.703,-65.64
40.718,-69.0
40.734,-63.86
40.750,-49.58
40.765,-30.46
40.781,-13.52
40.796,-4.43
40.812,-4.59
40.828,-10.39
40.843,-15.57
40.859,-15.01
40.875,-7.5
40.890,3.66
40.906,12.77
40.921,15.14
40.937,9.95
40.953,0.62
40.968,-7.12
40.984,-8.64
41.000,-3.0
41.015,6.5
41.031,14.34
41.046,15.88
41.062,10.03
41.078,0.01
41.093,-8.67
41.109,-11.3
41.125,-6.69
41.140,2.09
41.156,9.58
41.171,11.09
41.187,5.43
41.203,-4.32
41.218,-12.54
41.234,-14.51
41.250,-9.07
41.265,0.55
41.281,8.51
41.296,9.84
41.312,3.2
41.328,-8.18
41.343,-18.44
41.359,-22.46
41.375,-18.77
41.390,-10.23
41.406,-2.16
41.421,0.92
41.437,-1.96
41.453,-7.76
41.468,-11.36
41.484,-8.8
41.500,0.4
41.515,12.88
41.531,23.54
41.546,28.6
41.562,27.74
41.578,24.41
41.593,23.52
41.609,28.47
41.625,39.12
41.640,51.79
41.656,61.43
41.671,64.64
41.687,61.85
41.703,57.12
41.718,56.0
41.734,62.2
41.750,75.59
41.765,92.18
41.781,106.47
41.796,114.76
41.812,117.39
41.828,118.77
41.843,124.77
41.859,139.37
41.875,162.34
41.890,189.31
41.906,214.28
41.921,232.99
41.937,245.4
41.953,255.56
41.968,269.21
41.984,290.08
42.000,317.59
42.015,346.78
42.031,370.6
42.046,383.39
42.062,383.38
42.078,373.02
42.093,357.19
42.109,340.4
42.125,324.66
42.140,309.26
42.156,291.98
42.171,270.86
42.187,245.62
42.203,217.71
42.218,189.34
42.234,162.3
42.250,137.38
42.265,114.42
42.281,92.97
42.296,72.95
42.312,54.89
42.328,39.84
42.343,28.88
42.359,22.58
42.375,20.74
42.390,22.41
42.406,26.12
42.421,30.23
42.437,33.45
42.453,35.03
42.468,34.96
42.484,33.67
42.500,31.71
42.515,29.46
42.531,26.84
42.546,23.32
42.562,18.12
42.578,10.55
42.593,0.28
42.609,-12.47
42.625,-26.95
42.640,-42.28
42.656,-57.69
42.671,-72.96
42.687,-88.29
42.703,-103.89
42.718,-119.53
42.734,-134.19
42.750,-146.44
42.765,-155.23
42.781,-160.74
42.796,-164.34
42.812,-167.79
42.828,-171.73
42.843,-175.01
42.859,-175.04
42.875,-169.32
42.890,-156.8
42.906,-138.36
42.921,-116.0
42.937,-91.37
42.953,-65.13
42.968,-37.42
42.984,-9.17
43.000,16.83
43.015,36.3
43.031,45.26
43.046,42.13
43.062,28.64
43.078,9.24
43.093,-10.86
43.109,-27.8
43.125,-39.95
43.140,-47.52
43.156,-51.43
43.171,-52.43
43.187,-50.63
43.203,-45.9
43.218,-38.38
43.234,-28.84
43.250,-18.67
43.265,-9.43
43.281,-2.31
43.296,2.27
43.312,4.71
43.328,6.02
43.343,7.24
43.359,9.02
43.375,11.31
43.390,13.3
43.406,13.91
43.421,12.18
43.437,7.76
43.453,1.21
43.468,-6.19
43.484,-13.05
43.500,-18.44
43.515,-22.32
43.531,-25.64
43.546,-29.89
43.562,-36.34
43.578,-45.38
43.593,-56.13
43.609,-66.72
43.625,-75.15
43.640,-80.19
43.656,-82.1
43.671,-82.8
43.687,-85.19
43.703,-91.84
43.718,-103.88
43.734,-120.27
43.750,-138.2
43.765,-154.35
43.781,-166.27
43.796,-173.63
43.812,-178.2
43.828,-183.07
43.843,-191.58
43.859,-206.36
43.875,-228.59
43.890,-257.5
43.906,-289.38
43.921,-317.32
43.937,-332.24
43.953,-325.74
43.968,-293.96
43.984,-240.82
44.000,-177.89
44.015,-120.78
44.031,-83.16
44.046,-71.51
44.062,-83.32
44.078,-109.56
44.093,-139.97
44.109,-167.8
44.125,-191.97
44.140,-215.79
44.156,-243.86
44.171,-278.76
44.187,-319.19
44.203,-359.8
44.218,-392.47
44.234,-408.15
44.250,-399.37
44.265,-362.66
44.281,-300.41
44.296,-221.4
44.312,-138.84
44.328,-67.04
44.343,-17.79
44.359,2.11
44.375,-8.38
44.390,-45.3
44.406,-100.63
44.421,-163.34
44.437,-220.62
44.453,-259.61
44.468,-269.87
44.484,-246.37
44.500,-191.21
44.515,-113.22
44.531,-25.51
44.546,58.54
44.562,128.97
44.578,181.08
44.593,214.66
44.609,231.97
44.625,235.34
44.640,226.3
44.656,205.7
44.671,174.33
44.687,133.3
44.703,83.78
44.718,27.08
44.734,-34.99
44.750,-98.9
44.765,-158.46
44.781,-204.88
44.796,-228.99
44.812,-224.21
44.828,-189.14
44.843,-128.35
44.859,-51.07
44.875,31.16
44.890,107.07
44.906,167.22
44.921,204.95
44.937,216.85
44.953,203.02
44.968,166.78
44.984,113.67
45.000,50.0
45.015,-18.23
45.031,-85.14
45.046,-144.25
45.062,-188.01
45.078,-208.66
45.093,-200.51
45.109,-162.43
45.125,-99.77
45.140,-23.68
45.156,51.45
45.171,111.75
45.187,147.41
45.203,154.26
45.218,133.52
45.234,89.91
45.250,29.42
45.265,-41.98
45.281,-118.1
45.296,-191.58
45.312,-253.29
45.328,-292.95
45.343,-301.72
45.359,-275.55
45.375,-218.08
45.390,-140.93
45.406,-61.57
45.421,2.09
45.437,35.9
45.453,32.86
45.468,-6.29
45.484,-74.3
45.500,-159.87
45.515,-249.94
45.531,-331.78
45.546,-394.86
45.562,-431.53
45.578,-439.03
45.593,-419.46
45.609,-378.9
45.625,-325.65
45.640,-267.83
45.656,-211.4
45.671,-159.56
45.687,-113.92
45.703,-73.61
45.718,-38.28
45.734,-7.25
45.750,20.3
45.765,45.26
45.781,68.14
45.796,88.78
45.812,106.72
45.828,119.84
45.843,129.93
45.859,136.12
45.875,136.06
45.890,125.53
45.906,99.34
45.921,53.39
45.937,-12.8
45.953,-94.47
45.968,-185.57
45.984,-269.77
46.000,-335.42
46.015,-374.86
46.031,-385.93
46.046,-371.86
46.062,-339.71
46.078,-297.93
46.093,-253.98
46.109,-218.65
46.125,-187.82
46.140,-162.45
46.156,-143.25
46.171,-131.24
46.187,-127.23
46.203,-130.67
46.218,-138.93
46.234,-147.71
46.250,-160.14
46.265,-164.86
46.281,-161.27
46.296,-150.62
46.312,-134.56
46.328,-113.67
46.343,-86.77
46.359,-51.89
46.375,38.16
46.390,118.55
46.406,188.91
46.421,236.91
46.437,252.42
46.453,232.84
46.468,185.2
46.484,124.11
46.500,66.0
46.515,22.23
46.531,-12.07
46.546,-33.63
46.562,-50.1
46.578,-65.9
46.593,-79.19
46.609,-83.37
46.625,-71.25
46.640,-39.65
46.656,9.02
46.671,62.29
46.687,118.66
46.703,171.89
46.718,218.41
46.734,256.77
46.750,285.69
46.765,303.46
46.781,307.63
46.796,296.46
46.812,266.69
46.828,225.65
46.843,179.09
46.859,134.17
46.875,97.89
46.890,75.41
46.906,69.59
46.921,80.62
46.937,106.51
46.953,142.22
46.968,185.82
46.984,233.28
47.000,280.63
47.015,324.23
47.031,361.06
47.046,389.11
47.062,407.01
47.078,414.33
47.093,410.65
47.109,397.39
47.125,375.45
47.140,345.87
47.156,310.05
47.171,270.23
47.187,229.95
47.203,193.57
47.218,166.31
47.234,153.16
47.250,156.85
47.265,175.99
47.281,204.11
47.296,230.55
47.312,243.04
47.328,231.97
47.343,192.59
47.359,127.86
47.375,47.57
47.390,-34.01
47.406,-101.83
47.421,-144.14
47.437,-155.75
47.453,-139.04
47.468,-101.92
47.484,-57.61
47.500,-17.8
47.515,9.77
47.531,22.97
47.546,24.86
47.562,21.71
47.578,20.2
47.593,25.65
47.609,43.73
47.625,74.95
47.640,121.02
47.656,181.75
47.671,253.32
47.687,327.24
47.703,390.97
47.718,430.68
47.734,435.92
47.750,406.44
47.765,343.64
47.781,258.14
47.796,162.39
47.812,66.76
47.828,-21.95
47.843,-99.74
47.859,-163.2
47.875,-208.68
47.890,-228.51
47.906,-225.1
47.921,-199.98
47.937,-157.76
47.953,-104.37
47.968,-44.69
47.984,18.54
48.000,83.9
48.015,123.13
48.031,161.28
48.046,185.03
48.062,185.64
48.078,159.09
48.093,109.75
48.109,50.5
48.125,-1.55
48.140,-31.55
48.156,-32.63
48.171,-3.79
48.187,40.51
48.203,88.08
48.218,130.0
48.234,162.77
48.250,187.35
48.265,206.04
48.281,219.95
48.296,227.78
48.312,230.07
48.328,221.65
48.343,202.82
48.359,176.8
48.375,148.57
48.390,122.7
48.406,101.17
48.421,82.39
48.437,62.53
48.453,40.29
48.468,13.68
48.484,-13.09
48.500,-33.49
48.515,-42.64
48.531,-40.58
48.546,-32.85
48.562,-27.77
48.578,-32.06
48.593,-46.42
48.609,-67.83
48.625,-89.2
48.640,-104.12
48.656,-109.62
48.671,-106.56
48.687,-97.88
48.703,-86.45
48.718,-73.82
48.734,-60.15
48.750,-46.32
48.765,-33.74
48.781,-24.4
48.796,-19.82
48.812,-19.77
48.828,-22.06
48.843,-23.49
48.859,-21.52
48.875,-15.71
48.890,-7.56
48.906,0.53
48.921,7.06
48.937,12.34
48.953,18.15
48.968,26.19
48.984,36.83
49.000,48.62
49.015,59.21
49.031,67.18
49.046,73.06
49.062,79.27
49.078,88.62
49.093,102.5
49.109,119.98
49.125,138.52
49.140,155.55
49.156,170.01
49.171,182.85
49.187,196.02
49.203,211.04
49.218,227.68
49.234,243.52
49.250,254.64
49.265,256.89
49.281,247.33
49.296,225.03
49.312,191.39
49.328,149.31
49.343,102.21
49.359,52.91
49.375,2.92
49.390,-47.64
49.406,-99.38
49.421,-152.5
49.437,-205.83
49.453,-256.65
49.468,-301.54
49.484,-337.81
49.500,-364.96
49.515,-385.53
49.531,-404.24
49.546,-425.67
49.562,-451.2
49.578,-476.88
49.593,-493.61
49.609,-490.32
49.625,-458.34
49.640,-395.1
49.656,-305.22
49.671,-198.73
49.687,-87.65
49.703,16.85
49.718,105.76
49.734,172.55
49.750,213.34
49.765,227.91
49.781,221.08
49.796,202.53
49.812,184.06
49.828,175.15
49.843,178.89
49.859,191.44
49.875,204.98
49.890,212.44
49.906,210.77
49.921,200.89
49.937,185.11
49.953,164.04
49.968,135.6
49.984,96.42
50.000,44.79
50.015,-17.04
50.031,-82.35
50.046,-141.6
50.062,-184.91
50.078,-204.63
50.093,-197.23
50.109,-164.32
50.125,-112.47
50.140,-51.16
50.156,10.45
50.171,67.3
50.187,120.29
50.203,175.2
50.218,238.32
50.234,311.8
50.250,390.93
50.265,465.2
50.281,522.97
50.296,556.6
50.312,565.75
50.328,556.51
50.343,537.55
50.359,515.64
50.375,492.9
50.390,467.3
50.406,435.16
50.421,394.34
50.437,345.71
50.453,292.67
50.468,239.03
50.484,186.98
50.500,136.07
50.515,84.05
50.531,28.57
50.546,-31.05
50.562,-92.97
50.578,-153.41
50.593,-208.04
50.609,-253.74
50.625,-289.66
50.640,-317.16
50.656,-339.06
50.671,-357.8
50.687,-374.41
50.703,-387.94
50.718,-395.98
50.734,-396.28
50.750,-388.05
50.765,-373.1
50.781,-355.01
50.796,-337.66
50.812,-323.25
50.828,-311.35
50.843,-299.61
50.859,-285.78
50.875,-269.81
50.890,-254.36
50.906,-244.37
50.921,-244.5
50.937,-257.06
50.953,-281.5
50.968,-315.08
50.984,-354.59
51.000,-397.36
51.015,-441.14
51.031,-483.09
51.046,-519.0
51.062,-543.75
51.078,-553.2
51.093,-546.41
51.109,-526.45
51.125,-499.38
51.140,-471.22
51.156,-445.5
51.171,-421.57
51.187,-395.65
51.203,-363.31
51.218,-321.67
51.234,-270.81
51.250,-212.62
51.265,-149.74
51.281,-84.23
51.296,-17.26
51.312,50.7
51.328,118.99
51.343,186.3
51.359,250.1
51.375,306.81
51.390,353.4
51.406,388.18
51.421,412.07
51.437,428.67
51.453,442.04
51.468,454.02
51.484,461.77
51.500,457.95
51.515,433.81
51.531,383.93
51.546,309.52
51.562,218.7
51.578,122.99
51.593,32.09
51.609,-49.89
51.625,-125.08
51.640,-198.52
51.656,-273.45
51.671,-347.68
51.687,-413.51
51.703,-460.93
51.718,-482.1
51.734,-475.8
51.750,-447.65
51.765,-407.82
51.781,-366.7
51.796,-330.9
51.812,-301.25
51.828,-274.2
51.843,-244.86
51.859,-210.25
51.875,-171.26
51.890,-131.62
51.906,-95.5
51.921,-65.23
51.937,-40.19
51.953,-17.65
51.968,5.56
51.984,31.37
52.000,60.13
52.015,91.01
52.031,123.26
52.046,156.26
52.062,188.8
52.078,217.85
52.093,237.57
52.109,241.19
52.125,223.75
52.140,184.52
52.156,127.6
52.171,60.41
52.187,-9.3
52.203,-75.95
52.218,-136.87
52.234,-191.34
52.250,-238.66
52.265,-276.98
52.281,-303.64
52.296,-316.47
52.312,-315.18
52.328,-301.86
52.343,-280.22
52.359,-254.19
52.375,-226.84
52.390,-199.89
52.406,-173.77
52.421,-148.47
52.437,-123.89
52.453,-100.41
52.468,-78.8
52.484,-59.97
52.500,-44.13
52.515,-30.62
52.531,-18.08
52.546,-5.3
52.562,8.02
52.578,21.54
52.593,34.15
52.609,44.81
52.625,53.18
52.640,59.83
52.656,65.91
52.671,72.69
52.687,80.92
52.703,90.63
52.718,101.46
52.734,113.04
52.750,125.55
52.765,139.88
52.781,157.39
52.796,179.25
52.812,205.78
52.828,236.31
52.843,269.34
52.859,303.1
52.875,336.23
52.890,368.12
52.906,399.01
52.921,429.83
52.937,462.19
52.953,497.9
52.968,538.27
52.984,582.94
53.000,628.81
53.015,669.76
53.031,698.14
53.046,707.24
53.062,694.02
53.078,660.61
53.093,613.53
53.109,561.0
53.125,509.93
53.140,463.84
53.156,422.57
53.171,384.22
53.187,346.46
53.203,307.94
53.218,268.37
53.234,227.85
53.250,186.36
53.265,143.88
53.281,101.03
53.296,59.5
53.312,22.32
53.328,-7.23
53.343,-26.48
53.359,-34.3
53.375,-31.39
53.390,-19.82
53.406,-2.16
53.421,19.34
53.437,42.79
53.453,67.77
53.468,93.66
53.484,119.59
53.500,144.08
53.515,165.3
53.531,181.87
53.546,193.57
53.562,201.53
53.578,206.56
53.593,211.55
53.609,216.64
53.625,220.15
53.640,218.72
53.656,208.42
53.671,186.48
53.687,152.41
53.703,108.06
53.718,54.37
53.734,-2.76
53.750,-61.33
53.765,-120.7
53.781,-181.25
53.796,-243.21
53.812,-305.95
53.828,-367.64
53.843,-425.56
53.859,-479.59
53.875,-520.35
53.890,-541.15
53.906,-535.43
53.921,-499.83
53.937,-437.36
53.953,-358.6
53.968,-279.57
53.984,-216.75
54.000,-186.49
54.015,-187.28
54.031,-215.36
54.046,-263.53
54.062,-325.58
54.078,-398.68
54.093,-482.77
54.109,-578.06
54.125,-650.65
54.140,-729.58
54.156,-798.47
54.171,-845.79
54.187,-862.84
54.203,-846.62
54.218,-800.62
54.234,-733.16
54.250,-654.6
54.265,-573.84
54.281,-501.13
54.296,-433.33
54.312,-370.53
54.328,-312.89
54.343,-261.79
54.359,-219.06
54.375,-185.25
54.390,-158.68
54.406,-135.41
54.421,-114.62
54.437,-89.14
54.453,-58.22
54.468,-23.75
54.484,10.58
54.500,41.1
54.515,65.47
54.531,83.24
54.546,95.56
54.562,101.79
54.578,105.68
54.593,107.55
54.609,106.78
54.625,102.36
54.640,93.73
54.656,81.3
54.671,66.51
54.687,51.46
54.703,36.97
54.718,25.62
54.734,17.86
54.750,13.23
54.765,10.84
54.781,9.71
54.796,9.16
54.812,8.81
54.828,8.59
54.843,8.12
54.859,7.91
54.875,8.02
54.890,8.5
54.906,9.45
54.921,11.03
54.937,13.34
54.953,16.19
54.968,19.29
54.984,22.28
55.000,24.91
55.015,27.3
55.031,29.96
55.046,33.69
55.062,39.29
55.078,47.12
55.093,56.89
55.109,67.74
55.125,78.6
55.140,88.77
55.156,98.35
55.171,108.21
55.187,119.76
55.203,134.21
55.218,151.96
55.234,172.28
55.250,193.58
55.265,214.08
55.281,232.65
55.296,249.41
55.312,265.47
55.328,282.54
55.343,302.06
55.359,324.83
55.375,350.86
55.390,379.29
55.406,408.5
55.421,435.77
55.437,457.56
55.453,469.82
55.468,469.25
55.484,454.78
55.500,428.42
55.515,395.01
55.531,360.59
55.546,330.1
55.562,305.59
55.578,285.86
55.593,267.66
55.609,247.93
55.625,225.67
55.640,202.5
55.656,181.49
55.671,165.16
55.687,153.71
55.703,144.71
55.718,134.4
55.734,119.85
55.750,100.83
55.765,80.21
55.781,62.42
55.796,50.96
55.812,46.31
55.828,45.6
55.843,44.03
55.859,37.71
55.875,25.83
55.890,11.2
55.906,-1.38
55.921,-7.98
55.937,-7.87
55.953,-3.93
55.968,-1.09
55.984,-3.43
56.000,-11.78
56.015,-23.26
56.031,-33.03
56.046,-37.08
56.062,-34.61
56.078,-28.54
56.093,-23.67
56.109,-23.94
56.125,-30.13
56.140,-39.27
56.156,-46.48
56.171,-47.86
56.187,-42.66
56.203,-33.81
56.218,-26.16
56.234,-23.66
56.250,-27.04
56.265,-33.43
56.281,-38.03
56.296,-36.96
56.312,-29.49
56.328,-18.52
56.343,-8.93
56.359,-4.76
56.375,-7.03
56.390,-13.1
56.406,-18.38
56.421,-19.15
56.437,-14.71
56.453,-7.88
56.468,-3.22
56.484,-4.34
56.500,-11.6
56.515,-21.74
56.531,-29.78
56.546,-31.91
56.562,-27.67
56.578,-20.3
56.593,-14.79
56.609,-14.89
56.625,-21.1
56.640,-30.29
56.656,-37.66
56.671,-39.68
56.687,-36.03
56.703,-29.67
56.718,-24.99
56.734,-25.07
56.750,-29.86
56.765,-36.2
56.781,-39.8
56.796,-37.82
56.812,-30.53
56.828,-21.19
56.843,-14.11
56.859,-12.11
56.875,-14.93
56.890,-19.36
56.906,-21.22
56.921,-17.82
56.937,-9.64
56.953,-0.07
56.968,6.53
56.984,7.35
57.000,2.66
57.015,-4.35
57.031,-9.43
57.046,-9.92
57.062,-6.15
57.078,-1.32
57.093,0.48
57.109,-3.21
57.125,-11.7
57.140,-21.46
57.156,-28.07
57.171,-28.73
57.187,-23.89
57.203,-16.98
57.218,-12.37
57.234,-12.97
57.250,-18.54
57.265,-25.9
57.281,-30.84
57.296,-30.62
57.312,-25.39
57.328,-18.16
57.343,-12.79
57.359,-11.72
57.375,-14.62
57.390,-18.57
57.406,-20.07
57.421,-17.17
57.437,-10.88
57.453,-4.64
57.468,-2.29
57.484,-5.81
57.500,-13.92
57.515,-22.77
57.531,-28.0
57.546,-27.17
57.562,-21.08
57.578,-13.24
57.593,-7.82
57.609,-7.22
57.625,-10.79
57.640,-15.28
57.656,-16.93
57.671,-13.69
57.687,-6.48
57.703,1.29
57.718,5.78
57.734,4.93
57.750,-0.31
57.765,-6.55
57.781,-9.96
57.796,-8.47
57.812,-2.98
57.828,3.18
57.843,6.2
57.859,4.14
57.875,-2.03
57.890,-8.96
57.906,-12.9
57.921,-11.99
57.937,-7.23
57.953,-1.94
57.968,0.27
57.984,-2.41
58.000,-8.92
58.015,-16.05
58.031,-20.35
58.046,-20.22
58.062,-16.74
58.078,-13.01
58.093,-12.2
58.109,-15.6
58.125,-21.86
58.140,-27.75
58.156,-30.16
58.171,-27.9
58.187,-22.48
58.203,-17.19
58.218,-15.13
58.234,-17.32
58.250,-22.08
58.265,-25.87
58.281,-25.58
58.296,-20.25
58.312,-11.81
58.328,-4.04
58.343,-0.5
58.359,-2.5
58.375,-8.42
58.390,-14.66
58.406,-17.63
58.421,-15.94
58.437,-10.94
58.453,-5.94
58.468,-4.12
58.484,-6.74
58.500,-12.38
58.515,-17.83
58.531,-20.18
58.546,-18.56
58.562,-14.77
58.578,-12.3
58.593,-14.22
58.609,-21.36
58.625,-31.7
58.640,-41.46
58.656,-47.22
58.671,-47.72
58.687,-44.53
58.703,-40.95
58.718,-40.0
58.734,-42.6
58.750,-47.02
58.765,-49.85
58.781,-47.95
58.796,-40.28
58.812,-28.44
58.828,-15.79
58.843,-5.63
58.859,0.6
58.875,3.93
58.890,7.0
58.906,12.39
58.921,20.97
58.937,31.23
58.953,40.1
58.968,44.83
58.984,44.51
59.000,40.77
59.015,36.92
59.031,36.01
59.046,39.07
59.062,44.48
59.078,48.9
59.093,49.23
59.109,44.52
59.125,36.56
59.140,28.89
59.156,24.76
59.171,25.25
59.187,28.68
59.203,31.62
59.218,31.06
59.234,26.24
59.250,19.28
59.265,13.86
59.281,13.02
59.296,17.3
59.312,24.34
59.328,30.25
59.343,31.86
59.359,28.61
59.375,22.91
59.390,18.61
59.406,18.6
59.421,22.94
59.437,28.8
59.453,32.0
59.468,29.68
59.484,22.04
59.500,12.33
59.515,5.03
59.531,3.15
59.546,6.5
59.562,11.66
59.578,14.06
59.593,10.62
59.609,1.6
59.625,-9.41
59.640,-17.59
59.656,-19.6
59.671,-15.3
59.687,-7.8
59.703,-1.54
59.718,0.3
59.734,-2.54
59.750,-7.4
59.765,-10.48
59.781,-9.31
59.796,-4.26
59.812,1.59
59.828,4.37
59.843,1.73
59.859,-5.61
59.875,-14.23
59.890,-19.92
59.906,-20.08
59.921,-15.22
59.937,-8.65
59.953,-4.46
59.968,-5.14
59.984,-10.26
