timestamp,value
00.000,72.24
00.015,70.54
00.031,66.59
00.046,61.01
00.062,54.49
00.078,47.58
00.093,40.68
00.109,34.1
00.125,28.15
00.140,23.06
00.156,18.99
00.171,15.86
00.187,13.39
00.203,11.16
00.218,8.72
00.234,5.82
00.250,2.46
00.265,-1.09
00.281,-4.48
00.296,-7.43
00.312,-9.87
00.328,-12.01
00.343,-14.22
00.359,-16.94
00.375,-20.54
00.390,-25.13
00.406,-30.54
00.421,-36.22
00.437,-41.32
00.453,-44.91
00.468,-46.21
00.484,-44.74
00.500,-40.58
00.515,-34.2
00.531,-26.33
00.546,-17.76
00.562,-9.15
00.578,-0.93
00.593,6.63
00.609,13.37
00.625,19.21
00.640,24.05
00.656,27.88
00.671,30.67
00.687,32.43
00.703,33.21
00.718,33.1
00.734,32.22
00.750,30.78
00.765,29.03
00.781,27.25
00.796,25.68
00.812,24.46
00.828,23.53
00.843,22.75
00.859,21.83
00.875,20.5
00.890,18.6
00.906,16.09
00.921,13.06
00.937,9.66
00.953,6.06
00.968,2.39
00.984,-1.2
01.000,-4.62
01.015,-7.81
01.031,-10.81
01.046,-13.83
01.062,-17.16
01.078,-21.06
01.093,-25.62
01.109,-30.58
01.125,-35.35
01.140,-39.11
01.156,-41.09
01.171,-40.78
01.187,-38.08
01.203,-33.26
01.218,-26.87
01.234,-19.55
01.250,-11.95
01.265,-4.6
01.281,2.1
01.296,7.89
01.312,12.65
01.328,16.4
01.343,19.2
01.359,21.13
01.375,22.21
01.390,22.41
01.406,21.82
01.421,20.64
01.437,19.21
01.453,17.93
01.468,17.0
01.484,16.48
01.500,16.21
01.515,16.0
01.531,15.64
01.546,15.01
01.562,14.07
01.578,12.72
01.593,10.91
01.609,8.59
01.625,5.81
01.640,2.78
01.656,-0.24
01.671,-3.02
01.687,-5.49
01.703,-7.74
01.718,-10.02
01.734,-12.52
01.750,-15.42
01.765,-18.68
01.781,-22.16
01.796,-25.56
01.812,-28.53
01.828,-30.67
01.843,-31.57
01.859,-30.92
01.875,-28.59
01.890,-24.67
01.906,-19.5
01.921,-13.64
01.937,-7.67
01.953,-2.14
01.968,2.6
01.984,6.39
02.000,9.24
02.015,11.26
02.031,12.56
02.046,13.26
02.062,13.46
02.078,13.22
02.093,12.63
02.109,11.79
02.125,10.85
02.140,9.99
02.156,9.37
02.171,9.09
02.187,9.1
02.203,9.24
02.218,9.24
02.234,8.85
02.250,7.89
02.265,6.32
02.281,4.29
02.296,1.99
02.312,-0.38
02.328,-2.66
02.343,-4.79
02.359,-6.79
02.375,-8.76
02.390,-10.84
02.406,-13.21
02.421,-15.98
02.437,-19.18
02.453,-22.68
02.468,-26.15
02.484,-29.14
02.500,-31.16
02.515,-31.81
02.531,-30.92
02.546,-28.54
02.562,-24.95
02.578,-20.51
02.593,-15.56
02.609,-10.32
02.625,-4.96
02.640,0.34
02.656,5.41
02.671,10.02
02.687,13.94
02.703,17.0
02.718,19.17
02.734,20.55
02.750,21.37
02.765,21.85
02.781,22.17
02.796,22.37
02.812,22.39
02.828,22.1
02.843,21.44
02.859,20.44
02.875,19.27
02.890,18.11
02.906,17.06
02.921,16.03
02.937,14.81
02.953,13.12
02.968,10.79
02.984,7.86
03.000,4.53
03.015,1.04
03.031,-2.44
03.046,-5.88
03.062,-9.4
03.078,-13.11
03.093,-17.12
03.109,-21.4
03.125,-25.76
03.140,-29.95
03.156,-33.63
03.171,-36.42
03.187,-37.96
03.203,-37.91
03.218,-36.12
03.234,-32.66
03.250,-27.81
03.265,-22.04
03.281,-15.84
03.296,-9.67
03.312,-3.84
03.328,1.46
03.343,6.13
03.359,10.16
03.375,13.55
03.390,16.26
03.406,18.23
03.421,19.37
03.437,19.66
03.453,19.16
03.468,18.08
03.484,16.7
03.500,15.37
03.515,14.29
03.531,13.57
03.546,13.09
03.562,12.64
03.578,12.01
03.593,11.06
03.609,9.76
03.625,8.13
03.640,6.24
03.656,4.09
03.671,1.68
03.687,-0.97
03.703,-3.79
03.718,-6.61
03.734,-9.3
03.750,-11.8
03.765,-14.22
03.781,-16.82
03.796,-19.9
03.812,-23.59
03.828,-27.71
03.843,-31.78
03.859,-35.09
03.875,-36.99
03.890,-37.08
03.906,-35.3
03.921,-31.91
03.937,-27.37
03.953,-22.14
03.968,-16.54
03.984,-10.84
04.000,-5.22
04.015,0.07
04.031,4.76
04.046,8.6
04.062,11.47
04.078,13.46
04.093,14.8
04.109,15.76
04.125,16.49
04.140,17.04
04.156,17.3
04.171,17.16
04.187,16.54
04.203,15.47
04.218,14.1
04.234,12.61
04.250,11.17
04.265,9.85
04.281,8.59
04.296,7.25
04.312,5.64
04.328,3.63
04.343,1.2
04.359,-1.54
04.375,-4.39
04.390,-7.15
04.406,-9.7
04.421,-12.07
04.437,-14.37
04.453,-16.77
04.468,-19.4
04.484,-22.33
04.500,-25.57
04.515,-29.03
04.531,-32.53
04.546,-35.73
04.562,-38.21
04.578,-39.52
04.593,-39.34
04.609,-37.52
04.625,-34.16
04.640,-29.57
04.656,-24.14
04.671,-18.28
04.687,-12.32
04.703,-6.54
04.718,-1.18
04.734,3.57
04.750,7.5
04.765,10.46
04.781,12.4
04.796,13.39
04.812,13.66
04.828,13.49
04.843,13.14
04.859,12.81
04.875,12.53
04.890,12.17
04.906,11.54
04.921,10.52
04.937,9.11
04.953,7.51
04.968,5.92
04.984,4.5
05.000,3.2
05.015,1.83
05.031,0.18
05.046,-1.89
05.062,-4.32
05.078,-6.93
05.093,-9.53
05.109,-12.09
05.125,-14.71
05.140,-17.62
05.156,-21.0
05.171,-24.82
05.187,-28.87
05.203,-32.73
05.218,-35.96
05.234,-38.08
05.250,-38.71
05.265,-37.58
05.281,-34.61
05.296,-29.95
05.312,-23.96
05.328,-17.14
05.343,-10.02
05.359,-3.03
05.375,3.53
05.390,9.47
05.406,14.66
05.421,18.92
05.437,22.08
05.453,24.01
05.468,24.68
05.484,24.28
05.500,23.16
05.515,21.75
05.531,20.41
05.546,19.36
05.562,18.59
05.578,17.97
05.593,17.38
05.609,16.7
05.625,15.89
05.640,14.94
05.656,13.8
05.671,12.39
05.687,10.6
05.703,8.42
05.718,5.88
05.734,3.09
05.750,0.15
05.765,-2.89
05.781,-6.09
05.796,-9.52
05.812,-13.23
05.828,-17.24
05.843,-21.5
05.859,-25.88
05.875,-30.15
05.890,-33.96
05.906,-36.83
05.921,-38.25
05.937,-37.76
05.953,-35.11
05.968,-30.3
05.984,-23.67
06.000,-15.77
06.015,-7.26
06.031,1.21
06.046,9.16
06.062,16.23
06.078,22.25
06.093,27.1
06.109,30.76
06.125,33.24
06.140,34.61
06.156,35.03
06.171,34.77
06.187,34.06
06.203,33.12
06.218,32.01
06.234,30.7
06.250,29.12
06.265,27.25
06.281,25.16
06.296,23.01
06.312,20.97
06.328,19.1
06.343,17.31
06.359,15.39
06.375,13.08
06.390,10.19
06.406,6.73
06.421,2.83
06.437,-1.31
06.453,-5.48
06.468,-9.64
06.484,-13.88
06.500,-18.37
06.515,-23.28
06.531,-28.58
06.546,-34.01
06.562,-39.01
06.578,-42.86
06.593,-44.8
06.609,-44.3
06.625,-41.13
06.640,-35.51
06.656,-27.98
06.671,-19.24
06.687,-10.01
06.703,-0.94
06.718,7.51
06.734,14.99
06.750,21.24
06.765,26.11
06.781,29.57
06.796,31.71
06.812,32.75
06.828,32.99
06.843,32.74
06.859,32.25
06.875,31.67
06.890,31.03
06.906,30.27
06.921,29.34
06.937,28.21
06.953,26.89
06.968,25.46
06.984,23.95
07.000,22.31
07.015,20.41
07.031,18.0
07.046,14.9
07.062,11.05
07.078,6.55
07.093,1.71
07.109,-3.15
07.125,-7.77
07.140,-12.06
07.156,-16.13
07.171,-20.22
07.187,-24.58
07.203,-29.27
07.218,-34.16
07.234,-38.87
07.250,-42.89
07.265,-45.66
07.281,-46.73
07.296,-45.77
07.312,-42.68
07.328,-37.55
07.343,-30.71
07.359,-22.69
07.375,-14.15
07.390,-5.74
07.406,2.05
07.421,8.94
07.437,14.8
07.453,19.57
07.468,23.21
07.484,25.69
07.500,27.05
07.515,27.46
07.531,27.21
07.546,26.6
07.562,25.83
07.578,24.99
07.593,24.08
07.609,23.06
07.625,21.98
07.640,20.9
07.656,19.89
07.671,18.95
07.687,17.96
07.703,16.83
07.718,15.43
07.734,13.75
07.750,11.78
07.765,9.53
07.781,7.01
07.796,4.16
07.812,0.95
07.828,-2.7
07.843,-6.85
07.859,-11.51
07.875,-16.59
07.890,-21.89
07.906,-27.01
07.921,-31.41
07.937,-34.52
07.953,-35.76
07.968,-34.77
07.984,-31.48
08.000,-26.13
08.015,-19.24
08.031,-11.48
08.046,-3.56
08.062,4.0
08.078,10.82
08.093,16.76
08.109,21.77
08.125,25.88
08.140,29.09
08.156,31.38
08.171,32.75
08.187,33.22
08.203,32.92
08.218,32.03
08.234,30.76
08.250,29.28
08.265,27.73
08.281,26.18
08.296,24.69
08.312,23.3
08.328,22.0
08.343,20.72
08.359,19.34
08.375,17.69
08.390,15.66
08.406,13.21
08.421,10.42
08.437,7.48
08.453,4.64
08.468,2.01
08.484,-0.37
08.500,-2.72
08.515,-5.37
08.531,-8.58
08.546,-12.45
08.562,-16.72
08.578,-20.83
08.593,-23.98
08.609,-25.48
08.625,-24.82
08.640,-21.97
08.656,-17.26
08.671,-11.28
08.687,-4.71
08.703,1.85
08.718,8.0
08.734,13.53
08.750,18.31
08.765,22.25
08.781,25.26
08.796,27.27
08.812,28.24
08.828,28.28
08.843,27.61
08.859,26.52
08.875,25.29
08.890,24.08
08.906,22.97
08.921,21.91
08.937,20.84
08.953,19.72
08.968,18.55
08.984,17.34
09.000,16.11
09.015,14.78
09.031,13.26
09.046,11.42
09.062,9.16
09.078,6.47
09.093,3.4
09.109,0.1
09.125,-3.32
09.140,-6.81
09.156,-10.43
09.171,-14.34
09.187,-18.65
09.203,-23.35
09.218,-28.19
09.234,-32.68
09.250,-36.16
09.265,-38.03
09.281,-37.87
09.296,-35.58
09.312,-31.41
09.328,-25.84
09.343,-19.46
09.359,-12.8
09.375,-6.27
09.390,-0.11
09.406,5.58
09.421,10.7
09.437,15.19
09.453,18.94
09.468,21.84
09.484,23.82
09.500,24.84
09.515,24.94
09.531,24.24
09.546,22.97
09.562,21.37
09.578,19.74
09.593,18.3
09.609,17.17
09.625,16.36
09.640,15.76
09.656,15.13
09.671,14.24
09.687,12.86
09.703,10.9
09.718,8.43
09.734,5.6
09.750,2.64
09.765,-0.29
09.781,-3.11
09.796,-5.87
09.812,-8.73
09.828,-11.85
09.843,-15.39
09.859,-19.37
09.875,-23.71
09.890,-28.15
09.906,-32.22
09.921,-35.37
09.937,-36.98
09.953,-36.58
09.968,-34.01
09.984,-29.48
10.000,-23.47
10.015,-16.7
10.031,-9.83
10.046,-3.4
10.062,2.24
10.078,6.98
10.093,10.82
10.109,13.88
10.125,16.29
10.140,18.15
10.156,19.54
10.171,20.47
10.187,20.97
10.203,21.03
10.218,20.7
10.234,20.03
10.250,19.09
10.265,17.94
10.281,16.61
10.296,15.15
10.312,13.61
10.328,12.0
10.343,10.37
10.359,8.66
10.375,6.85
10.390,4.84
10.406,2.54
10.421,-0.08
10.437,-3.05
10.453,-6.31
10.468,-9.76
10.484,-13.32
10.500,-16.95
10.515,-20.64
10.531,-24.42
10.546,-28.26
10.562,-32.01
10.578,-35.35
10.593,-37.83
10.609,-38.96
10.625,-38.39
10.640,-36.0
10.656,-31.94
10.671,-26.6
10.687,-20.48
10.703,-14.11
10.718,-7.94
10.734,-2.3
10.750,2.61
10.765,6.69
10.781,9.94
10.796,12.43
10.812,14.26
10.828,15.55
10.843,16.38
10.859,16.76
10.875,16.67
10.890,16.16
10.906,15.29
10.921,14.2
10.937,13.06
10.953,12.01
10.968,11.13
10.984,10.4
11.000,9.72
11.015,8.95
11.031,7.94
11.046,6.62
11.062,4.97
11.078,3.02
11.093,0.89
11.109,-1.33
11.125,-3.53
11.140,-5.7
11.156,-7.86
11.171,-10.14
11.187,-12.67
11.203,-15.47
11.218,-18.4
11.234,-21.08
11.250,-23.01
11.265,-23.71
11.281,-22.9
11.296,-20.67
11.312,-17.34
11.328,-13.39
11.343,-9.23
11.359,-5.08
11.375,-1.01
11.390,2.9
11.406,6.48
11.421,9.43
11.437,11.46
11.453,12.45
11.468,12.5
11.484,11.92
11.500,11.06
11.515,10.18
11.531,9.39
11.546,8.69
11.562,8.04
11.578,7.42
11.593,6.85
11.609,6.28
11.625,5.64
11.640,4.79
11.656,3.6
11.671,1.99
11.687,-0.01
11.703,-2.28
11.718,-4.69
11.734,-7.13
11.750,-9.52
11.765,-11.86
11.781,-14.18
11.796,-16.6
11.812,-19.24
11.828,-22.26
11.843,-25.74
11.859,-29.6
11.875,-33.53
11.890,-37.01
11.906,-39.42
11.921,-40.29
11.937,-39.38
11.953,-36.79
11.968,-32.86
11.984,-28.06
12.000,-22.78
12.015,-17.26
12.031,-11.54
12.046,-5.59
12.062,0.58
12.078,6.86
12.093,12.99
12.109,18.66
12.125,23.68
12.140,28.04
12.156,31.93
12.171,35.62
12.187,39.22
12.203,42.67
12.218,45.69
12.234,47.97
12.250,49.28
12.265,49.6
12.281,49.05
12.296,47.73
12.312,45.7
12.328,42.83
12.343,39.07
12.359,34.44
12.375,29.2
12.390,23.69
12.406,18.29
12.421,13.26
12.437,8.65
12.453,4.3
12.468,-0.05
12.484,-4.65
12.500,-9.6
12.515,-14.78
12.531,-19.87
12.546,-24.37
12.562,-27.76
12.578,-29.61
12.593,-29.67
12.609,-27.97
12.625,-24.74
12.640,-20.42
12.656,-15.44
12.671,-10.21
12.687,-5.05
12.703,-0.23
12.718,4.04
12.734,7.54
12.750,10.08
12.765,11.53
12.781,11.8
12.796,10.9
12.812,8.91
12.828,6.01
12.843,2.46
12.859,-1.35
12.875,-4.97
12.890,-8.01
12.906,-10.2
12.921,-11.47
12.937,-11.97
12.953,-11.93
12.968,-11.65
12.984,-11.3
13.000,-11.12
13.015,-11.23
13.031,-11.79
13.046,-12.88
13.062,-14.5
13.078,-16.51
13.093,-18.71
13.109,-20.94
13.125,-23.17
13.140,-25.49
13.156,-28.09
13.171,-31.14
13.187,-34.53
13.203,-37.88
13.218,-40.48
13.234,-41.54
13.250,-40.42
13.265,-36.93
13.281,-31.39
13.296,-24.57
13.312,-17.34
13.328,-10.44
13.343,-4.27
13.359,1.05
13.375,5.62
13.390,9.47
13.406,12.57
13.421,14.86
13.437,16.34
13.453,17.08
13.468,17.27
13.484,17.06
13.500,16.53
13.515,15.72
13.531,14.61
13.546,13.25
13.562,11.77
13.578,10.41
13.593,9.3
13.609,8.51
13.625,7.88
13.640,7.19
13.656,6.2
13.671,4.76
13.687,2.86
13.703,0.56
13.718,-2.03
13.734,-4.88
13.750,-7.94
13.765,-11.22
13.781,-14.67
13.796,-18.2
13.812,-21.71
13.828,-25.23
13.843,-28.74
13.859,-32.15
13.875,-35.2
13.890,-37.34
13.906,-37.99
13.921,-36.65
13.937,-33.12
13.953,-27.63
13.968,-20.75
13.984,-13.22
14.000,-5.79
14.015,0.97
14.031,6.65
14.046,11.07
14.062,14.18
14.078,16.14
14.093,17.16
14.109,17.51
14.125,17.41
14.140,16.98
14.156,16.23
14.171,15.19
14.187,13.89
14.203,12.41
14.218,10.92
14.234,9.56
14.250,8.42
14.265,7.45
14.281,6.56
14.296,5.58
14.312,4.43
14.328,3.02
14.343,1.35
14.359,-0.5
14.375,-2.47
14.390,-4.46
14.406,-6.42
14.421,-8.42
14.437,-10.62
14.453,-13.3
14.468,-16.63
14.484,-20.63
14.500,-24.96
14.515,-28.98
14.531,-31.87
14.546,-32.91
14.562,-31.73
14.578,-28.36
14.593,-23.28
14.609,-17.11
14.625,-10.54
14.640,-4.08
14.656,1.92
14.671,7.29
14.687,11.96
14.703,15.86
14.718,18.94
14.734,21.14
14.750,22.43
14.765,22.83
14.781,22.43
14.796,21.41
14.812,20.01
14.828,18.45
14.843,16.93
14.859,15.62
14.875,14.59
14.890,13.89
14.906,13.41
14.921,12.96
14.937,12.27
14.953,11.1
14.968,9.36
14.984,7.12
15.000,4.62
15.015,2.11
15.031,-0.2
15.046,-2.31
15.062,-4.35
15.078,-6.57
15.093,-9.21
15.109,-12.55
15.125,-16.7
15.140,-21.59
15.156,-26.82
15.171,-31.71
15.187,-35.31
15.203,-36.78
15.218,-35.55
15.234,-31.58
15.250,-25.33
15.265,-17.57
15.281,-9.16
15.296,-0.81
15.312,6.98
15.328,14.0
15.343,20.12
15.359,25.29
15.375,29.44
15.390,32.53
15.406,34.52
15.421,35.47
15.437,35.45
15.453,34.57
15.468,33.03
15.484,30.99
15.500,28.64
15.515,26.17
15.531,23.77
15.546,21.62
15.562,19.86
15.578,18.45
15.593,17.22
15.609,15.91
15.625,14.21
15.640,11.94
15.656,9.08
15.671,5.74
15.687,2.1
15.703,-1.69
15.718,-5.55
15.734,-9.42
15.750,-13.3
15.765,-17.23
15.781,-21.22
15.796,-25.29
15.812,-29.37
15.828,-33.23
15.843,-36.39
15.859,-38.16
15.875,-37.89
15.890,-35.18
15.906,-30.1
15.921,-23.15
15.937,-15.13
15.953,-6.86
15.968,1.0
15.984,8.09
16.000,14.29
16.015,19.58
16.031,23.98
16.046,27.49
16.062,30.1
16.078,31.81
16.093,32.67
16.109,32.76
16.125,32.22
16.140,31.19
16.156,29.78
16.171,28.08
16.187,26.14
16.203,24.01
16.218,21.75
16.234,19.45
16.250,17.18
16.265,14.98
16.281,12.75
16.296,10.36
16.312,7.69
16.328,4.69
16.343,1.42
16.359,-1.94
16.375,-5.24
16.390,-8.45
16.406,-11.65
16.421,-15.09
16.437,-18.98
16.453,-23.41
16.468,-28.16
16.484,-32.72
16.500,-36.37
16.515,-38.4
16.531,-38.34
16.546,-36.07
16.562,-31.85
16.578,-26.14
16.593,-19.46
16.609,-12.3
16.625,-5.09
16.640,1.76
16.656,7.83
16.671,12.74
16.687,16.24
16.703,18.31
16.718,19.13
16.734,19.04
16.750,18.33
16.765,17.25
16.781,15.86
16.796,14.24
16.812,12.42
16.828,10.56
16.843,8.77
16.859,7.09
16.875,5.45
16.890,3.71
16.906,1.78
16.921,-0.3
16.937,-2.33
16.953,-4.13
16.968,-5.55
16.984,-6.58
17.000,-7.31
17.015,-7.73
17.031,-7.76
17.046,-7.28
17.062,-6.27
17.078,-4.89
17.093,-3.44
17.109,-2.18
17.125,-1.09
17.140,0.18
17.156,2.21
17.171,5.54
17.187,10.31
17.203,16.31
17.218,22.98
17.234,29.67
17.250,35.8
17.265,41.01
17.281,45.04
17.296,47.75
17.312,49.06
17.328,48.92
17.343,47.38
17.359,44.56
17.375,40.6
17.390,35.71
17.406,30.19
17.421,24.4
17.437,18.75
17.453,13.65
17.468,9.38
17.484,5.98
17.500,3.27
17.515,0.93
17.531,-1.33
17.546,-3.68
17.562,-6.11
17.578,-8.56
17.593,-10.98
17.609,-13.4
17.625,-15.95
17.640,-18.75
17.656,-21.87
17.671,-25.27
17.687,-28.84
17.703,-32.51
17.718,-36.24
17.734,-40.01
17.750,-43.75
17.765,-47.23
17.781,-50.06
17.796,-51.78
17.812,-52.02
17.828,-50.59
17.843,-47.57
17.859,-43.25
17.875,-38.05
17.890,-32.43
17.906,-26.87
17.921,-21.67
17.937,-17.03
17.953,-12.92
17.968,-9.08
17.984,-5.08
18.000,-0.48
18.015,5.1
18.031,11.71
18.046,19.13
18.062,26.87
18.078,34.4
18.093,41.26
18.109,47.21
18.125,52.16
18.140,56.04
18.156,58.72
18.171,59.99
18.187,59.65
18.203,57.63
18.218,54.02
18.234,49.06
18.250,43.03
18.265,36.16
18.281,28.67
18.296,20.81
18.312,12.94
18.328,5.48
18.343,-1.22
18.359,-7.05
18.375,-12.17
18.390,-16.96
18.406,-21.76
18.421,-26.7
18.437,-31.52
18.453,-35.7
18.468,-38.56
18.484,-39.56
18.500,-38.49
18.515,-35.45
18.531,-30.83
18.546,-25.18
18.562,-19.02
18.578,-12.8
18.593,-6.82
18.609,-1.33
18.625,3.52
18.640,7.55
18.656,10.66
18.671,12.76
18.687,13.87
18.703,14.09
18.718,13.63
18.734,12.7
18.750,11.53
18.765,10.33
18.781,9.23
18.796,8.28
18.812,7.42
18.828,6.54
18.843,5.54
18.859,4.33
18.875,2.93
18.890,1.47
18.906,0.03
18.921,-1.34
18.937,-2.71
18.953,-4.23
18.968,-6.05
18.984,-8.27
19.000,-10.96
19.015,-14.15
19.031,-17.79
19.046,-21.81
19.062,-25.99
19.078,-29.91
19.093,-32.95
19.109,-34.49
19.125,-34.03
19.140,-31.44
19.156,-26.92
19.171,-20.99
19.187,-14.29
19.203,-7.49
19.218,-1.1
19.234,4.47
19.250,8.99
19.265,12.38
19.281,14.74
19.296,16.32
19.312,17.42
19.328,18.28
19.343,18.96
19.359,19.33
19.375,19.22
19.390,18.54
19.406,17.4
19.421,16.03
19.437,14.73
19.453,13.7
19.468,12.93
19.484,12.32
19.500,11.72
19.515,11.0
19.531,10.07
19.546,8.86
19.562,7.25
19.578,5.14
19.593,2.54
19.609,-0.43
19.625,-3.53
19.640,-6.52
19.656,-9.31
19.671,-12.01
19.687,-14.81
19.703,-17.9
19.718,-21.21
19.734,-24.39
19.750,-26.89
19.765,-28.16
19.781,-27.8
19.796,-25.78
19.812,-22.33
19.828,-17.83
19.843,-12.73
19.859,-7.37
19.875,-2.06
19.890,2.93
19.906,7.29
19.921,10.75
19.937,13.09
19.953,14.3
19.968,14.54
19.984,14.11
20.000,13.39
20.015,12.63
20.031,11.9
20.046,11.15
20.062,10.21
20.078,8.95
20.093,7.4
20.109,5.68
20.125,4.0
20.140,2.52
20.156,1.24
20.171,0.03
20.187,-1.3
20.203,-2.93
20.218,-4.86
20.234,-7.0
20.250,-9.21
20.265,-11.35
20.281,-13.41
20.296,-15.48
20.312,-17.72
20.328,-20.29
20.343,-23.24
20.359,-26.56
20.375,-30.03
20.390,-33.32
20.406,-35.95
20.421,-37.41
20.437,-37.32
20.453,-35.47
20.468,-31.99
20.484,-27.26
20.500,-21.78
20.515,-16.02
20.531,-10.42
20.546,-5.23
20.562,-0.69
20.578,3.04
20.593,5.87
20.609,7.8
20.625,8.93
20.640,9.49
20.656,9.74
20.671,9.91
20.687,10.13
20.703,10.45
20.718,10.79
20.734,11.08
20.750,11.2
20.765,11.09
20.781,10.71
20.796,10.06
20.812,9.2
20.828,8.19
20.843,7.11
20.859,5.97
20.875,4.73
20.890,3.27
20.906,1.45
20.921,-0.82
20.937,-3.52
20.953,-6.58
20.968,-9.84
20.984,-13.17
21.000,-16.42
21.015,-19.48
21.031,-22.17
21.046,-24.21
21.062,-25.25
21.078,-24.91
21.093,-22.97
21.109,-19.44
21.125,-14.64
21.140,-9.04
21.156,-3.2
21.171,2.46
21.187,7.65
21.203,12.24
21.218,16.2
21.234,19.48
21.250,21.99
21.265,23.64
21.281,24.41
21.296,24.4
21.312,23.81
21.328,22.91
21.343,21.95
21.359,21.04
21.375,20.18
21.390,19.29
21.406,18.32
21.421,17.28
21.437,16.26
21.453,15.37
21.468,14.58
21.484,13.78
21.500,12.73
21.515,11.23
21.531,9.22
21.546,6.75
21.562,4.01
21.578,1.11
21.593,-1.93
21.609,-5.21
21.625,-8.92
21.640,-13.12
21.656,-17.66
21.671,-22.14
21.687,-25.93
21.703,-28.41
21.718,-29.1
21.734,-27.85
21.750,-24.83
21.765,-20.47
21.781,-15.3
21.796,-9.79
21.812,-4.32
21.828,0.87
21.843,5.63
21.859,9.82
21.875,13.34
21.890,16.08
21.906,17.98
21.921,18.99
21.937,19.1
21.953,18.39
21.968,17.04
21.984,15.39
22.000,13.79
22.015,12.62
22.031,12.04
22.046,12.06
22.062,12.56
22.078,13.39
22.093,14.41
22.109,15.52
22.125,16.57
22.140,17.32
22.156,17.47
22.171,16.76
22.187,15.1
22.203,12.65
22.218,9.75
22.234,6.76
22.250,3.93
22.265,1.26
22.281,-1.39
22.296,-4.22
22.312,-7.3
22.328,-10.48
22.343,-13.43
22.359,-15.68
22.375,-16.75
22.390,-16.2
22.406,-13.74
22.421,-9.29
22.437,-3.05
22.453,4.55
22.468,12.93
22.484,21.42
22.500,29.42
22.515,36.48
22.531,42.25
22.546,46.5
22.562,49.09
22.578,50.0
22.593,49.34
22.609,47.36
22.625,44.38
22.640,40.68
22.656,36.48
22.671,31.87
22.687,26.93
22.703,21.74
22.718,16.43
22.734,11.1
22.750,5.83
22.765,0.63
22.781,-4.55
22.796,-9.64
22.812,-14.5
22.828,-18.9
22.843,-22.56
22.859,-25.35
22.875,-27.35
22.890,-28.87
22.906,-30.32
22.921,-32.1
22.937,-34.41
22.953,-37.22
22.968,-40.28
22.984,-43.1
23.000,-45.17
23.015,-46.01
23.031,-45.29
23.046,-42.91
23.062,-39.0
23.078,-33.85
23.093,-27.89
23.109,-21.57
23.125,-15.23
23.140,-9.14
23.156,-3.44
23.171,1.78
23.187,6.43
23.203,10.41
23.218,13.6
23.234,15.89
23.250,17.2
23.265,17.54
23.281,17.03
23.296,15.98
23.312,14.77
23.328,13.77
23.343,13.26
23.359,13.33
23.375,13.87
23.390,14.69
23.406,15.59
23.421,16.45
23.437,17.23
23.453,17.96
23.468,18.64
23.484,19.24
23.500,19.74
23.515,20.14
23.531,20.48
23.546,20.78
23.562,20.9
23.578,20.59
23.593,19.48
23.609,17.32
23.625,14.05
23.640,9.96
23.656,5.58
23.671,1.56
23.687,-1.52
23.703,-3.3
23.718,-3.68
23.734,-2.83
23.750,-1.05
23.765,1.27
23.781,3.78
23.796,6.2
23.812,8.36
23.828,10.19
23.843,11.66
23.859,12.75
23.875,13.37
23.890,13.36
23.906,12.55
23.921,10.81
23.937,8.12
23.953,4.62
23.968,0.57
23.984,-3.71
24.000,-7.83
24.015,-11.48
24.031,-14.51
24.046,-16.9
24.062,-18.83
24.078,-20.54
24.093,-22.28
24.109,-24.25
24.125,-26.56
24.140,-29.18
24.156,-32.0
24.171,-34.89
24.187,-37.75
24.203,-40.5
24.218,-43.13
24.234,-45.7
24.250,-48.27
24.265,-50.9
24.281,-53.5
24.296,-55.84
24.312,-57.57
24.328,-58.27
24.343,-57.58
24.359,-55.28
24.375,-51.39
24.390,-46.23
24.406,-40.35
24.421,-34.34
24.437,-28.73
24.453,-23.8
24.468,-19.6
24.484,-16.07
24.500,-13.18
24.515,-10.94
24.531,-9.46
24.546,-8.79
24.562,-8.84
24.578,-9.34
24.593,-9.96
24.609,-10.45
24.625,-10.75
24.640,-10.96
24.656,-11.24
24.671,-11.62
24.687,-11.93
24.703,-11.81
24.718,-10.79
24.734,-8.5
24.750,-4.79
24.765,0.13
24.781,5.75
24.796,11.36
24.812,16.2
24.828,19.66
24.843,21.35
24.859,21.19
24.875,19.34
24.890,16.14
24.906,12.01
24.921,7.44
24.937,2.92
24.953,-1.03
24.968,-3.95
24.984,-5.43
25.000,-5.28
25.015,-3.53
25.031,-0.35
25.046,4.05
25.062,9.53
25.078,16.04
25.093,23.54
25.109,31.78
25.125,40.22
25.140,48.05
25.156,54.32
25.171,58.25
25.187,59.5
25.203,58.22
25.218,55.02
25.234,50.69
25.250,45.94
25.265,41.27
25.281,36.87
25.296,32.7
25.312,28.56
25.328,24.26
25.343,19.7
25.359,14.85
25.375,9.74
25.390,4.46
25.406,-0.87
25.421,-6.02
25.437,-10.65
25.453,-14.34
25.468,-16.76
25.484,-17.86
25.500,-18.0
25.515,-17.82
25.531,-18.12
25.546,-19.5
25.562,-22.16
25.578,-25.85
25.593,-30.01
25.609,-33.95
25.625,-37.08
25.640,-38.98
25.656,-39.4
25.671,-38.25
25.687,-35.62
25.703,-31.72
25.718,-26.88
25.734,-21.5
25.750,-15.91
25.765,-10.41
25.781,-5.18
25.796,-0.37
25.812,3.92
25.828,7.54
25.843,10.36
25.859,12.29
25.875,13.29
25.890,13.52
25.906,13.19
25.921,12.58
25.937,11.92
25.953,11.37
25.968,10.95
25.984,10.6
26.000,10.23
26.015,9.73
26.031,9.11
26.046,8.35
26.062,7.49
26.078,6.52
26.093,5.37
26.109,3.92
26.125,2.06
26.140,-0.23
26.156,-2.9
26.171,-5.83
26.187,-8.91
26.203,-12.12
26.218,-15.47
26.234,-18.96
26.250,-22.46
26.265,-25.56
26.281,-27.64
26.296,-28.1
26.312,-26.5
26.328,-22.76
26.343,-17.22
26.359,-10.5
26.375,-3.38
26.390,3.48
26.406,9.59
26.421,14.73
26.437,18.85
26.453,22.02
26.468,24.31
26.484,25.81
26.500,26.6
26.515,26.73
26.531,26.3
26.546,25.43
26.562,24.22
26.578,22.83
26.593,21.38
26.609,19.99
26.625,18.72
26.640,17.57
26.656,16.46
26.671,15.27
26.687,13.88
26.703,12.17
26.718,10.11
26.734,7.69
26.750,4.95
26.765,1.94
26.781,-1.25
26.796,-4.57
26.812,-8.04
26.828,-11.77
26.843,-15.88
26.859,-20.42
26.875,-25.26
26.890,-29.97
26.906,-33.92
26.921,-36.44
26.937,-37.0
26.953,-35.41
26.968,-31.88
26.984,-26.84
27.000,-20.82
27.015,-14.33
27.031,-7.72
27.046,-1.26
27.062,4.82
27.078,10.35
27.093,15.09
27.109,18.85
27.125,21.42
27.140,22.74
27.156,22.87
27.171,22.06
27.187,20.66
27.203,19.05
27.218,17.47
27.234,16.08
27.250,14.83
27.265,13.6
27.281,12.28
27.296,10.77
27.312,9.04
27.328,7.06
27.343,4.82
27.359,2.31
27.375,-0.44
27.390,-3.38
27.406,-6.49
27.421,-9.77
27.437,-13.22
27.453,-16.83
27.468,-20.45
27.484,-23.86
27.500,-26.83
27.515,-29.12
27.531,-30.57
27.546,-31.04
27.562,-30.35
27.578,-28.24
27.593,-24.51
27.609,-19.06
27.625,-12.1
27.640,-4.06
27.656,4.49
27.671,13.01
27.687,21.07
27.703,28.38
27.718,34.67
27.734,39.66
27.750,43.12
27.765,44.96
27.781,45.27
27.796,44.44
27.812,42.99
27.828,41.5
27.843,40.52
27.859,40.39
27.875,41.2
27.890,42.78
27.906,44.71
27.921,46.44
27.937,47.46
27.953,47.43
27.968,46.23
27.984,43.98
28.000,40.86
28.015,37.11
28.031,32.9
28.046,28.38
28.062,23.64
28.078,18.64
28.093,13.19
28.109,6.99
28.125,-0.28
28.140,-8.74
28.156,-18.1
28.171,-27.69
28.187,-36.5
28.203,-43.45
28.218,-47.68
28.234,-48.77
28.250,-46.83
28.265,-42.37
28.281,-36.18
28.296,-29.07
28.312,-21.77
28.328,-14.76
28.343,-8.32
28.359,-2.56
28.375,2.5
28.390,6.8
28.406,10.26
28.421,12.74
28.437,14.08
28.453,14.3
28.468,13.49
28.484,11.97
28.500,10.14
28.515,8.37
28.531,6.93
28.546,5.92
28.562,5.28
28.578,4.88
28.593,4.51
28.609,3.98
28.625,3.11
28.640,1.78
28.656,-0.07
28.671,-2.4
28.687,-5.1
28.703,-8.06
28.718,-11.14
28.734,-14.26
28.750,-17.45
28.765,-20.79
28.781,-24.43
28.796,-28.47
28.812,-32.86
28.828,-37.32
28.843,-41.29
28.859,-44.12
28.875,-45.17
28.890,-44.09
28.906,-40.95
28.921,-36.15
28.937,-30.37
28.953,-24.28
28.968,-18.45
28.984,-13.27
29.000,-8.97
29.015,-5.63
29.031,-3.21
29.046,-1.56
29.062,-0.44
29.078,0.44
29.093,1.35
29.109,2.57
29.125,4.4
29.140,7.08
29.156,10.76
29.171,15.39
29.187,20.58
29.203,25.72
29.218,30.1
29.234,33.11
29.250,34.41
29.265,34.01
29.281,32.2
29.296,29.36
29.312,25.95
29.328,22.36
29.343,19.01
29.359,16.27
29.375,14.38
29.390,13.42
29.406,13.21
29.421,13.35
29.437,13.43
29.453,13.16
29.468,12.6
29.484,12.16
29.500,12.45
29.515,14.06
29.531,17.27
29.546,21.95
29.562,27.51
29.578,33.08
29.593,37.83
29.609,41.18
29.625,42.96
29.640,43.28
29.656,42.45
29.671,40.72
29.687,38.2
29.703,34.83
29.718,30.5
29.734,25.2
29.750,19.15
29.765,12.82
29.781,6.84
29.796,1.83
29.812,-1.72
29.828,-3.7
29.843,-4.3
29.859,-4.02
29.875,-3.52
29.890,-3.43
29.906,-4.1
29.921,-5.6
29.937,-7.72
29.953,-10.1
29.968,-12.47
29.984,-14.69
30.000,-16.83
30.015,-19.05
30.031,-21.56
30.046,-24.46
30.062,-27.78
30.078,-31.42
30.093,-35.12
30.109,-38.46
30.125,-40.91
30.140,-41.92
30.156,-41.08
30.171,-38.28
30.187,-33.75
30.203,-27.98
30.218,-21.6
30.234,-15.17
30.250,-9.08
30.265,-3.54
30.281,1.36
30.296,5.6
30.312,9.18
30.328,12.11
30.343,14.36
30.359,15.93
30.375,16.83
30.390,17.14
30.406,16.96
30.421,16.43
30.437,15.67
30.453,14.74
30.468,13.67
30.484,12.44
30.500,11.05
30.515,9.53
30.531,7.96
30.546,6.39
30.562,4.79
30.578,3.1
30.593,1.21
30.609,-0.95
30.625,-3.35
30.640,-5.95
30.656,-8.73
30.671,-11.76
30.687,-15.16
30.703,-19.05
30.718,-23.38
30.734,-27.83
30.750,-31.8
30.765,-34.52
30.781,-35.33
30.796,-33.87
30.812,-30.24
30.828,-25.0
30.843,-18.9
30.859,-12.69
30.875,-6.91
30.890,-1.78
30.906,2.76
30.921,6.82
30.937,10.49
30.953,13.64
30.968,16.06
30.984,17.55
31.000,18.08
31.015,17.83
31.031,17.15
31.046,16.38
31.062,15.73
31.078,15.22
31.093,14.76
31.109,14.23
31.125,13.57
31.140,12.88
31.156,12.22
31.171,11.63
31.187,11.02
31.203,10.27
31.218,9.21
31.234,7.76
31.250,5.91
31.265,3.66
31.281,1.01
31.296,-2.06
31.312,-5.62
31.328,-9.7
31.343,-14.28
31.359,-19.19
31.375,-24.1
31.390,-28.54
31.406,-31.92
31.421,-33.7
31.437,-33.46
31.453,-31.15
31.468,-27.04
31.484,-21.65
31.500,-15.64
31.515,-9.59
31.531,-3.89
31.546,1.26
31.562,5.73
31.578,9.48
31.593,12.47
31.609,14.62
31.625,15.98
31.640,16.62
31.656,16.67
31.671,16.26
31.687,15.55
31.703,14.61
31.718,13.57
31.734,12.52
31.750,11.57
31.765,10.8
31.781,10.22
31.796,9.83
31.812,9.53
31.828,9.2
31.843,8.65
31.859,7.68
31.875,6.16
31.890,4.1
31.906,1.7
31.921,-0.78
31.937,-3.1
31.953,-5.22
31.968,-7.28
31.984,-9.52
32.000,-12.12
32.015,-15.08
32.031,-18.19
32.046,-21.05
32.062,-23.17
32.078,-24.1
32.093,-23.5
32.109,-21.27
32.125,-17.56
32.140,-12.79
32.156,-7.57
32.171,-2.47
32.187,2.08
32.203,5.88
32.218,8.98
32.234,11.46
32.250,13.39
32.265,14.7
32.281,15.32
32.296,15.23
32.312,14.51
32.328,13.4
32.343,12.13
32.359,10.92
32.375,9.84
32.390,8.91
32.406,8.11
32.421,7.4
32.437,6.79
32.453,6.28
32.468,5.89
32.484,5.54
32.500,5.12
32.515,4.52
32.531,3.59
32.546,2.29
32.562,0.66
32.578,-1.22
32.593,-3.23
32.609,-5.36
32.625,-7.67
32.640,-10.35
32.656,-13.52
32.671,-17.19
32.687,-21.02
32.703,-24.42
32.718,-26.62
32.734,-26.97
32.750,-25.12
32.765,-21.15
32.781,-15.62
32.796,-9.31
32.812,-3.04
32.828,2.54
32.843,7.09
32.859,10.54
32.875,13.05
32.890,14.78
32.906,15.96
32.921,16.72
32.937,17.13
32.953,17.25
32.968,17.09
32.984,16.7
33.000,16.06
33.015,15.21
33.031,14.15
33.046,12.97
33.062,11.76
33.078,10.63
33.093,9.68
33.109,8.9
33.125,8.19
33.140,7.34
33.156,6.14
33.171,4.47
33.187,2.38
33.203,0.03
33.218,-2.33
33.234,-4.55
33.250,-6.61
33.265,-8.61
33.281,-10.73
33.296,-13.05
33.312,-15.61
33.328,-18.32
33.343,-20.96
33.359,-23.17
33.375,-24.54
33.390,-24.63
33.406,-23.14
33.421,-20.07
33.437,-15.7
33.453,-10.58
33.468,-5.28
33.484,-0.25
33.500,4.28
33.515,8.22
33.531,11.57
33.546,14.29
33.562,16.34
33.578,17.69
33.593,18.37
33.609,18.46
33.625,18.07
33.640,17.28
33.656,16.17
33.671,14.8
33.687,13.33
33.703,11.94
33.718,10.8
33.734,9.95
33.750,9.31
33.765,8.67
33.781,7.82
33.796,6.62
33.812,5.06
33.828,3.21
33.843,1.19
33.859,-0.91
33.875,-3.07
33.890,-5.33
33.906,-7.74
33.921,-10.34
33.937,-13.16
33.953,-16.27
33.968,-19.74
33.984,-23.54
34.000,-27.46
34.015,-31.01
34.031,-33.56
34.046,-34.49
34.062,-33.39
34.078,-30.27
34.093,-25.52
34.109,-19.77
34.125,-13.7
34.140,-7.86
34.156,-2.56
34.171,2.04
34.187,5.9
34.203,9.03
34.218,11.44
34.234,13.11
34.250,14.06
34.265,14.36
34.281,14.16
34.296,13.71
34.312,13.24
34.328,12.9
34.343,12.65
34.359,12.32
34.375,11.7
34.390,10.66
34.406,9.3
34.421,7.75
34.437,6.25
34.453,4.81
34.468,3.39
34.484,1.8
34.500,-0.07
34.515,-2.21
34.531,-4.5
34.546,-6.79
34.562,-9.0
34.578,-11.13
34.593,-13.32
34.609,-15.75
34.625,-18.58
34.640,-21.93
34.656,-25.71
34.671,-29.6
34.687,-33.1
34.703,-35.59
34.718,-36.52
34.734,-35.62
34.750,-33.0
34.765,-29.12
34.781,-24.62
34.796,-20.1
34.812,-16.01
34.828,-12.55
34.843,-9.79
34.859,-7.65
34.875,-6.07
34.890,-4.95
34.906,-4.23
34.921,-3.92
34.937,-3.97
34.953,-4.4
34.968,-5.15
34.984,-6.17
35.000,-7.37
35.015,-8.68
35.031,-10.1
35.046,-11.7
35.062,-13.62
35.078,-15.94
35.093,-18.64
35.109,-21.54
35.125,-24.19
35.140,-26.1
35.156,-26.74
35.171,-25.79
35.187,-23.21
35.203,-19.27
35.218,-14.51
35.234,-9.59
35.250,-5.13
35.265,-1.63
35.281,0.58
35.296,1.32
35.312,0.53
35.328,-1.66
35.343,-4.91
35.359,-8.59
35.375,-11.89
35.390,-13.97
35.406,-14.19
35.421,-12.32
35.437,-8.64
35.453,-3.77
35.468,1.51
35.484,6.55
35.500,11.01
35.515,14.8
35.531,18.01
35.546,20.81
35.562,23.29
35.578,25.44
35.593,27.18
35.609,28.39
35.625,28.99
35.640,28.97
35.656,28.47
35.671,27.69
35.687,26.89
35.703,26.3
35.718,26.06
35.734,26.16
35.750,26.44
35.765,26.68
35.781,26.65
35.796,26.22
35.812,25.36
35.828,24.14
35.843,22.64
35.859,20.89
35.875,18.84
35.890,16.34
35.906,13.25
35.921,9.48
35.937,5.01
35.953,-0.1
35.968,-5.74
35.984,-11.82
36.000,-18.17
36.015,-24.52
36.031,-30.45
36.046,-35.53
36.062,-39.39
36.078,-41.89
36.093,-43.16
36.109,-43.5
36.125,-43.24
36.140,-42.59
36.156,-41.59
36.171,-40.11
36.187,-37.95
36.203,-34.93
36.218,-30.93
36.234,-25.97
36.250,-20.24
36.265,-14.06
36.281,-7.91
36.296,-2.26
36.312,2.56
36.328,6.44
36.343,9.47
36.359,11.86
36.375,13.76
36.390,15.24
36.406,16.24
36.421,16.72
36.437,16.66
36.453,16.15
36.468,15.27
36.484,14.04
36.500,12.49
36.515,10.62
36.531,8.53
36.546,6.33
36.562,4.16
36.578,2.1
36.593,0.14
36.609,-1.8
36.625,-3.76
36.640,-5.66
36.656,-7.26
36.671,-8.18
36.687,-8.04
36.703,-6.53
36.718,-3.51
36.734,1.01
36.750,6.82
36.765,13.52
36.781,20.59
36.796,27.39
36.812,33.35
36.828,38.0
36.843,41.23
36.859,43.17
36.875,44.15
36.890,44.43
36.906,44.06
36.921,42.82
36.937,40.38
36.953,36.51
36.968,31.28
36.984,25.07
37.000,18.35
37.015,11.62
37.031,5.2
37.046,-0.65
37.062,-5.73
37.078,-9.86
37.093,-12.9
37.109,-14.9
37.125,-16.09
37.140,-16.86
37.156,-17.61
37.171,-18.57
37.187,-19.78
37.203,-21.11
37.218,-22.43
37.234,-23.72
37.250,-25.08
37.265,-26.69
37.281,-28.8
37.296,-31.58
37.312,-35.08
37.328,-39.13
37.343,-43.31
37.359,-47.0
37.375,-49.45
37.390,-49.97
37.406,-48.13
37.421,-43.93
37.437,-37.76
37.453,-30.24
37.468,-22.09
37.484,-13.85
37.500,-5.94
37.515,1.39
37.531,7.96
37.546,13.61
37.562,18.2
37.578,21.62
37.593,23.89
37.609,25.1
37.625,25.41
37.640,25.05
37.656,24.19
37.671,23.03
37.687,21.72
37.703,20.37
37.718,18.99
37.734,17.57
37.750,15.97
37.765,14.08
37.781,11.86
37.796,9.29
37.812,6.46
37.828,3.49
37.843,0.45
37.859,-2.57
37.875,-5.58
37.890,-8.58
37.906,-11.62
37.921,-14.78
37.937,-18.18
37.953,-21.98
37.968,-26.25
37.984,-30.97
38.000,-35.8
38.015,-40.2
38.031,-43.46
38.046,-44.9
38.062,-44.08
38.078,-40.91
38.093,-35.65
38.109,-28.88
38.125,-21.28
38.140,-13.47
38.156,-5.93
38.171,1.03
38.187,7.21
38.203,12.5
38.218,16.8
38.234,20.07
38.250,22.32
38.265,23.6
38.281,24.08
38.296,23.95
38.312,23.43
38.328,22.71
38.343,21.97
38.359,21.3
38.375,20.77
38.390,20.39
38.406,20.1
38.421,19.74
38.437,19.13
38.453,18.12
38.468,16.62
38.484,14.63
38.500,12.21
38.515,9.4
38.531,6.29
38.546,2.95
38.562,-0.55
38.578,-4.16
38.593,-7.94
38.609,-12.02
38.625,-16.59
38.640,-21.67
38.656,-26.98
38.671,-31.78
38.687,-35.11
38.703,-35.99
38.718,-33.85
38.734,-28.75
38.750,-21.32
38.765,-12.6
38.781,-3.62
38.796,4.83
38.812,12.33
38.828,18.76
38.843,24.12
38.859,28.43
38.875,31.63
38.890,33.67
38.906,34.51
38.921,34.31
38.937,33.25
38.953,31.7
38.968,29.96
38.984,28.36
39.000,27.1
39.015,26.29
39.031,25.93
39.046,25.82
39.062,25.71
39.078,25.22
39.093,24.06
39.109,22.08
39.125,19.27
39.140,15.79
39.156,11.87
39.171,7.75
39.187,3.6
39.203,-0.45
39.218,-4.37
39.234,-8.22
39.250,-12.17
39.265,-16.46
39.281,-21.25
39.296,-26.45
39.312,-31.62
39.328,-35.99
39.343,-38.67
39.359,-38.95
39.375,-36.59
39.390,-31.82
39.406,-25.24
39.421,-17.5
39.437,-9.13
39.453,-0.49
39.468,8.18
39.484,16.54
39.500,24.13
39.515,30.47
39.531,35.16
39.546,38.13
39.562,39.58
39.578,39.9
39.593,39.52
39.609,38.7
39.625,37.59
39.640,36.22
39.656,34.61
39.671,32.87
39.687,31.14
39.703,29.56
39.718,28.15
39.734,26.84
39.750,25.42
39.765,23.65
39.781,21.34
39.796,18.45
39.812,15.1
39.828,11.54
39.843,8.04
39.859,4.74
39.875,1.62
39.890,-1.53
39.906,-4.99
39.921,-9.01
39.937,-13.68
39.953,-18.77
39.968,-23.81
39.984,-28.11
40.000,-30.97
40.015,-31.79
40.031,-30.29
40.046,-26.54
40.062,-20.92
40.078,-14.01
40.093,-6.38
40.109,1.49
40.125,9.2
40.140,16.49
40.156,23.06
40.171,28.6
40.187,32.81
40.203,35.53
40.218,36.81
40.234,36.91
40.250,36.23
40.265,35.13
40.281,33.89
40.296,32.63
40.312,31.32
40.328,29.89
40.343,28.32
40.359,26.66
40.375,25.0
40.390,23.39
40.406,21.85
40.421,20.31
40.437,18.66
40.453,16.78
40.468,14.56
40.484,11.93
40.500,8.89
40.515,5.48
40.531,1.82
40.546,-1.96
40.562,-5.77
40.578,-9.62
40.593,-13.6
40.609,-17.81
40.625,-22.16
40.640,-26.39
40.656,-29.95
40.671,-32.22
40.687,-32.69
40.703,-31.14
40.718,-27.66
40.734,-22.68
40.750,-16.75
40.765,-10.46
40.781,-4.35
40.796,1.17
40.812,5.82
40.828,9.48
40.843,12.17
40.859,14.0
40.875,15.18
40.890,15.87
40.906,16.18
40.921,16.21
40.937,16.01
40.953,15.66
40.968,15.28
40.984,14.96
41.000,14.73
41.015,14.51
41.031,14.09
41.046,13.24
41.062,11.79
41.078,9.72
41.093,7.24
41.109,4.61
41.125,2.14
41.140,-0.06
41.156,-1.99
41.171,-3.78
41.187,-5.53
41.203,-7.22
41.218,-8.81
41.234,-10.25
41.250,-11.73
41.265,-13.53
41.281,-15.88
41.296,-18.81
41.312,-21.88
41.328,-24.34
41.343,-25.3
41.359,-24.18
41.375,-20.83
41.390,-15.66
41.406,-9.43
41.421,-2.89
41.437,3.39
41.453,9.12
41.468,14.23
41.484,18.74
41.500,22.62
41.515,25.76
41.531,28.02
41.546,29.33
41.562,29.74
41.578,29.44
41.593,28.72
41.609,27.9
41.625,27.27
41.640,27.0
41.656,27.12
41.671,27.56
41.687,28.18
41.703,28.74
41.718,28.88
41.734,28.14
41.750,25.88
41.765,21.49
41.781,14.51
41.796,4.93
41.812,-6.75
41.828,-19.61
41.843,-32.61
41.859,-44.84
41.875,-55.77
41.890,-65.13
41.906,-72.8
41.921,-78.58
41.937,-82.17
41.953,-83.24
41.968,-81.62
41.984,-77.42
42.000,-71.01
42.015,-62.93
42.031,-53.76
42.046,-44.06
42.062,-34.23
42.078,-24.7
42.093,-15.81
42.109,-7.84
42.125,-0.98
42.140,4.74
42.156,9.4
42.171,13.22
42.187,16.44
42.203,19.3
42.218,21.89
42.234,24.22
42.250,26.26
42.265,28.02
42.281,29.7
42.296,31.6
42.312,34.1
42.328,37.36
42.343,41.3
42.359,45.42
42.375,49.08
42.390,51.66
42.406,52.75
42.421,52.32
42.437,50.57
42.453,47.9
42.468,44.66
42.484,41.11
42.500,37.35
42.515,33.32
42.531,28.75
42.546,23.3
42.562,16.68
42.578,8.78
42.593,-0.17
42.609,-9.63
42.625,-18.82
42.640,-26.87
42.656,-32.96
42.671,-36.46
42.687,-37.0
42.703,-34.53
42.718,-29.47
42.734,-22.63
42.750,-15.11
42.765,-8.07
42.781,-2.34
42.796,1.68
42.812,4.09
42.828,5.27
42.843,5.66
42.859,5.56
42.875,5.13
42.890,4.49
42.906,3.77
42.921,3.24
42.937,3.15
42.953,3.75
42.968,5.16
42.984,7.36
43.000,10.26
43.015,13.69
43.031,17.43
43.046,21.11
43.062,24.25
43.078,26.24
43.093,26.55
43.109,24.93
43.125,21.54
43.140,16.94
43.156,11.85
43.171,6.9
43.187,2.41
43.203,-1.59
43.218,-5.24
43.234,-8.64
43.250,-11.76
43.265,-14.44
43.281,-16.6
43.296,-18.39
43.312,-20.1
43.328,-22.01
43.343,-24.19
43.359,-26.31
43.375,-27.75
43.390,-27.85
43.406,-26.23
43.421,-22.9
43.437,-18.24
43.453,-12.82
43.468,-7.11
43.484,-1.41
43.500,4.07
43.515,9.12
43.531,13.37
43.546,16.31
43.562,17.51
43.578,16.84
43.593,14.61
43.609,11.48
43.625,8.25
43.640,5.54
43.656,3.63
43.671,2.37
43.687,1.44
43.703,0.53
43.718,-0.45
43.734,-1.39
43.750,-2.1
43.765,-2.45
43.781,-2.53
43.796,-2.58
43.812,-2.88
43.828,-3.6
43.843,-4.71
43.859,-6.04
43.875,-7.33
43.890,-8.42
43.906,-9.33
43.921,-10.25
43.937,-11.46
43.953,-13.19
43.968,-15.5
43.984,-18.19
44.000,-20.83
44.015,-22.86
44.031,-23.72
44.046,-23.04
44.062,-20.7
44.078,-16.84
44.093,-11.83
44.109,-6.12
44.125,-0.25
44.140,5.3
44.156,10.08
44.171,13.75
44.187,16.1
44.203,17.13
44.218,17.05
44.234,16.19
44.250,14.92
44.265,13.57
44.281,12.3
44.296,11.2
44.312,10.28
44.328,9.48
44.343,8.78
44.359,8.07
44.375,7.24
44.390,6.16
44.406,4.72
44.421,2.93
44.437,0.84
44.453,-1.44
44.468,-3.78
44.484,-6.06
44.500,-8.16
44.515,-10.01
44.531,-11.61
44.546,-13.0
44.562,-14.32
44.578,-15.72
44.593,-17.36
44.609,-19.29
44.625,-21.47
44.640,-23.79
44.656,-26.03
44.671,-27.96
44.687,-29.28
44.703,-29.67
44.718,-28.83
44.734,-26.62
44.750,-23.04
44.765,-18.41
44.781,-13.19
44.796,-7.95
44.812,-3.16
44.828,0.92
44.843,4.17
44.859,6.63
44.875,8.37
44.890,9.42
44.906,9.84
44.921,9.71
44.937,9.16
44.953,8.33
44.968,7.36
44.984,6.37
45.000,5.39
45.015,4.45
45.031,3.61
45.046,2.93
45.062,2.53
45.078,2.43
45.093,2.59
45.109,2.88
45.125,3.12
45.140,3.11
45.156,2.76
45.171,2.08
45.187,1.15
45.203,0.01
45.218,-1.34
45.234,-3.02
45.250,-5.16
45.265,-7.85
45.281,-11.06
45.296,-14.63
45.312,-18.28
45.328,-21.68
45.343,-24.44
45.359,-26.19
45.375,-26.57
45.390,-25.36
45.406,-22.56
45.421,-18.51
45.437,-13.85
45.453,-9.29
45.468,-5.51
45.484,-2.91
45.500,-1.59
45.515,-1.42
45.531,-2.28
45.546,-4.08
45.562,-6.87
45.578,-10.73
45.593,-15.64
45.609,-21.41
45.625,-27.72
45.640,-34.13
45.656,-40.21
45.671,-45.52
45.687,-49.57
45.703,-51.83
45.718,-51.8
45.734,-49.13
45.750,-43.84
45.765,-36.42
45.781,-27.7
45.796,-18.7
45.812,-10.22
45.828,-2.67
45.843,4.01
45.859,10.19
45.875,16.31
45.890,22.6
45.906,29.02
45.921,35.25
45.937,40.84
45.953,45.31
45.968,48.29
45.984,49.59
46.000,49.27
46.015,47.65
46.031,45.27
46.046,42.85
46.062,41.11
46.078,40.6
46.093,41.54
46.109,43.8
46.125,46.89
46.140,50.14
46.156,52.82
46.171,54.35
46.187,54.31
46.203,52.59
46.218,49.29
46.234,44.72
46.250,39.34
46.265,33.65
46.281,28.08
46.296,22.87
46.312,18.11
46.328,13.7
46.343,9.43
46.359,5.11
46.375,0.76
46.390,-3.39
46.406,-6.98
46.421,-9.71
46.437,-11.56
46.453,-12.9
46.468,-14.35
46.484,-16.51
46.500,-19.67
46.515,-23.66
46.531,-27.9
46.546,-31.66
46.562,-34.34
46.578,-35.77
46.593,-36.21
46.609,-36.2
46.625,-36.45
46.640,-37.51
46.656,-39.66
46.671,-42.82
46.687,-46.51
46.703,-49.87
46.718,-51.87
46.734,-51.57
46.750,-48.41
46.765,-42.45
46.781,-34.38
46.796,-25.24
46.812,-15.95
46.828,-7.0
46.843,1.85
46.859,11.17
46.875,21.47
46.890,32.72
46.906,44.15
46.921,54.4
46.937,62.02
46.953,65.91
46.968,65.56
46.984,61.04
47.000,52.81
47.015,41.61
47.031,28.36
47.046,14.11
47.062,0.05
47.078,-12.73
47.093,-23.37
47.109,-31.45
47.125,-36.91
47.140,-40.04
47.156,-41.28
47.171,-41.12
47.187,-40.1
47.203,-38.7
47.218,-37.35
47.234,-36.34
47.250,-35.86
47.265,-35.99
47.281,-36.77
47.296,-38.28
47.312,-40.48
47.328,-43.27
47.343,-46.3
47.359,-49.01
47.375,-50.72
47.390,-50.8
47.406,-48.87
47.421,-44.85
47.437,-39.03
47.453,-31.93
47.468,-24.17
47.484,-16.3
47.500,-8.77
47.515,-1.98
47.531,3.76
47.546,8.13
47.562,10.92
47.578,12.05
47.593,11.7
47.609,10.24
47.625,8.08
47.640,5.61
47.656,3.04
47.671,0.46
47.687,-2.05
47.703,-4.43
47.718,-6.6
47.734,-8.51
47.750,-10.19
47.765,-11.75
47.781,-13.29
47.796,-14.85
47.812,-16.39
47.828,-17.8
47.843,-19.04
47.859,-20.15
47.875,-21.28
47.890,-22.53
47.906,-23.96
47.921,-25.6
47.937,-27.43
47.953,-29.57
47.968,-32.17
47.984,-35.36
48.000,-39.01
48.015,-42.6
48.031,-45.3
48.046,-46.18
48.062,-44.58
48.078,-40.33
48.093,-33.83
48.109,-25.83
48.125,-17.14
48.140,-8.39
48.156,0.04
48.171,7.89
48.187,14.98
48.203,21.09
48.218,26.08
48.234,29.9
48.250,32.7
48.265,34.66
48.281,35.99
48.296,36.78
48.312,37.0
48.328,36.61
48.343,35.54
48.359,33.86
48.375,31.64
48.390,29.06
48.406,26.29
48.421,23.48
48.437,20.75
48.453,18.13
48.468,15.56
48.484,12.9
48.500,10.03
48.515,6.82
48.531,3.25
48.546,-0.69
48.562,-4.97
48.578,-9.53
48.593,-14.37
48.609,-19.5
48.625,-24.95
48.640,-30.81
48.656,-37.09
48.671,-43.64
48.687,-50.0
48.703,-55.43
48.718,-58.93
48.734,-59.59
48.750,-56.89
48.765,-50.94
48.781,-42.51
48.796,-32.71
48.812,-22.69
48.828,-13.22
48.843,-4.55
48.859,3.4
48.875,10.78
48.890,17.64
48.906,23.71
48.921,28.63
48.937,32.14
48.953,34.17
48.968,35.02
48.984,35.07
49.000,34.7
49.015,34.14
49.031,33.45
49.046,32.61
49.062,31.6
49.078,30.46
49.093,29.23
49.109,27.92
49.125,26.47
49.140,24.75
49.156,22.55
49.171,19.74
49.187,16.27
49.203,12.25
49.218,7.91
49.234,3.52
49.250,-0.72
49.265,-4.81
49.281,-8.94
49.296,-13.44
49.312,-18.6
49.328,-24.51
49.343,-30.84
49.359,-36.88
49.375,-41.77
49.390,-44.66
49.406,-45.05
49.421,-42.87
49.437,-38.57
49.453,-32.89
49.468,-26.66
49.484,-20.56
49.500,-14.97
49.515,-10.0
49.531,-5.6
49.546,-1.66
49.562,1.78
49.578,4.58
49.593,6.49
49.609,7.37
49.625,7.28
49.640,6.56
49.656,5.81
49.671,5.8
49.687,7.2
49.703,10.4
49.718,15.37
49.734,21.62
49.750,28.4
49.765,34.9
49.781,40.52
49.796,44.91
49.812,47.98
49.828,49.77
49.843,50.3
49.859,49.55
49.875,47.55
49.890,44.43
49.906,40.5
49.921,36.13
49.937,31.54
49.953,26.82
49.968,21.89
49.984,16.7
50.000,11.44
50.015,6.67
50.031,3.2
50.046,1.8
50.062,2.9
50.078,6.35
50.093,11.46
50.109,17.2
50.125,22.61
50.140,27.0
50.156,30.08
50.171,31.83
50.187,32.32
50.203,31.56
50.218,29.44
50.234,25.92
50.250,21.08
50.265,15.23
50.281,8.85
50.296,2.4
50.312,-3.77
50.328,-9.47
50.343,-14.51
50.359,-18.6
50.375,-21.24
50.390,-21.9
50.406,-20.28
50.421,-16.54
50.437,-11.42
50.453,-5.95
50.468,-1.19
50.484,2.2
50.500,4.05
50.515,4.58
50.531,4.14
50.546,3.01
50.562,1.35
50.578,-0.82
50.593,-3.46
50.609,-6.56
50.625,-10.11
50.640,-14.04
50.656,-18.17
50.671,-22.07
50.687,-25.14
50.703,-26.66
50.718,-26.14
50.734,-23.41
50.750,-18.71
50.765,-12.59
50.781,-5.65
50.796,1.64
50.812,8.98
50.828,16.29
50.843,23.61
50.859,30.93
50.875,38.08
50.890,44.68
50.906,50.19
50.921,54.07
50.937,55.96
50.953,55.87
50.968,54.15
50.984,51.36
51.000,48.06
51.015,44.56
51.031,40.99
51.046,37.24
51.062,33.24
51.078,28.87
51.093,24.1
51.109,18.87
51.125,13.19
51.140,7.16
51.156,0.97
51.171,-5.02
51.187,-10.43
51.203,-14.97
51.218,-18.53
51.234,-21.27
51.250,-23.48
51.265,-25.55
51.281,-27.85
51.296,-30.57
51.312,-33.66
51.328,-36.79
51.343,-39.36
51.359,-40.65
51.375,-40.14
51.390,-37.53
51.406,-32.99
51.421,-26.99
51.437,-20.16
51.453,-13.06
51.468,-6.19
51.484,0.21
51.500,5.96
51.515,10.96
51.531,15.15
51.546,18.49
51.562,21.01
51.578,22.76
51.593,23.85
51.609,24.35
51.625,24.34
51.640,23.91
51.656,23.13
51.671,22.11
51.687,20.96
51.703,19.75
51.718,18.55
51.734,17.37
51.750,16.14
51.765,14.77
51.781,13.16
51.796,11.26
51.812,9.11
51.828,6.81
51.843,4.47
51.859,2.15
51.875,-0.2
51.890,-2.8
51.906,-5.97
51.921,-10.02
51.937,-15.13
51.953,-21.18
51.968,-27.71
51.984,-33.95
52.000,-39.0
52.015,-42.03
52.031,-42.55
52.046,-40.46
52.062,-36.09
52.078,-30.05
52.093,-23.05
52.109,-15.74
52.125,-8.58
52.140,-1.85
52.156,4.32
52.171,9.8
52.187,14.51
52.203,18.26
52.218,20.91
52.234,22.39
52.250,22.75
52.265,22.21
52.281,21.13
52.296,19.85
52.312,18.64
52.328,17.64
52.343,16.81
52.359,16.02
52.375,15.14
52.390,14.09
52.406,12.85
52.421,11.45
52.437,9.89
52.453,8.14
52.468,6.1
52.484,3.68
52.500,0.85
52.515,-2.33
52.531,-5.7
52.546,-9.13
52.562,-12.57
52.578,-16.09
52.593,-19.78
52.609,-23.65
52.625,-27.43
52.640,-30.6
52.656,-32.5
52.671,-32.52
52.687,-30.38
52.703,-26.14
52.718,-20.25
52.734,-13.35
52.750,-6.09
52.765,0.95
52.781,7.4
52.796,12.99
52.812,17.56
52.828,20.99
52.843,23.29
52.859,24.53
52.875,24.88
52.890,24.59
52.906,23.86
52.921,22.94
52.937,21.93
52.953,20.89
52.968,19.79
52.984,18.59
53.000,17.27
53.015,15.77
53.031,14.11
53.046,12.27
53.062,10.26
53.078,8.08
53.093,5.78
53.109,3.35
53.125,0.79
53.140,-1.91
53.156,-4.78
53.171,-7.81
53.187,-11.08
53.203,-14.63
53.218,-18.54
53.234,-22.87
53.250,-27.56
53.265,-32.37
53.281,-36.72
53.296,-39.87
53.312,-41.02
53.328,-39.66
53.343,-35.68
53.359,-29.49
53.375,-21.81
53.390,-13.49
53.406,-5.25
53.421,2.45
53.437,9.39
53.453,15.52
53.468,20.79
53.484,25.11
53.500,28.35
53.515,30.43
53.531,31.35
53.546,31.28
53.562,30.48
53.578,29.25
53.593,27.88
53.609,26.53
53.625,25.27
53.640,24.0
53.656,22.61
53.671,20.99
53.687,19.07
53.703,16.81
53.718,14.19
53.734,11.15
53.750,7.68
53.765,3.82
53.781,-0.31
53.796,-4.56
53.812,-8.8
53.828,-13.02
53.843,-17.37
53.859,-22.1
53.875,-27.46
53.890,-33.51
53.906,-40.02
53.921,-46.45
53.937,-52.02
53.953,-55.85
53.968,-57.28
53.984,-55.94
54.000,-51.96
54.015,-45.86
54.031,-38.42
54.046,-30.46
54.062,-22.55
54.078,-14.96
54.093,-7.62
54.109,-0.29
54.125,7.19
54.140,14.79
54.156,22.19
54.171,28.97
54.187,34.74
54.203,39.29
54.218,42.59
54.234,44.81
54.250,46.09
54.265,46.54
54.281,46.18
54.296,45.07
54.312,43.33
54.328,41.24
54.343,39.1
54.359,37.16
54.375,35.61
54.390,34.48
54.406,33.73
54.421,33.29
54.437,33.1
54.453,33.05
54.468,32.97
54.484,32.62
54.500,31.68
54.515,29.94
54.531,27.29
54.546,23.79
54.562,19.56
54.578,14.77
54.593,9.66
54.609,4.56
54.625,-0.07
54.640,-3.71
54.656,-5.98
54.671,-6.73
54.687,-6.19
54.703,-4.84
54.718,-3.24
54.734,-1.74
54.750,-0.37
54.765,1.08
54.781,2.85
54.796,5.05
54.812,7.5
54.828,9.88
54.843,11.81
54.859,13.06
54.875,13.58
54.890,13.51
54.906,13.04
54.921,12.4
54.937,11.71
54.953,11.02
54.968,10.31
54.984,9.53
55.000,8.68
55.015,7.77
55.031,6.83
55.046,5.85
55.062,4.77
55.078,3.5
55.093,1.94
55.109,0.01
55.125,-2.28
55.140,-4.85
55.156,-7.62
55.171,-10.51
55.187,-13.57
55.203,-16.88
55.218,-20.46
55.234,-24.15
55.250,-27.58
55.265,-30.2
55.281,-31.42
55.296,-30.77
55.312,-28.11
55.328,-23.65
55.343,-17.89
55.359,-11.46
55.375,-5.01
55.390,0.95
55.406,6.12
55.421,10.38
55.437,13.71
55.453,16.12
55.468,17.61
55.484,18.2
55.500,17.94
55.515,16.97
55.531,15.53
55.546,13.89
55.562,12.27
55.578,10.84
55.593,9.62
55.609,8.58
55.625,7.67
55.640,6.84
55.656,6.01
55.671,5.05
55.687,3.79
55.703,2.05
55.718,-0.29
55.734,-3.23
55.750,-6.62
55.765,-10.26
55.781,-13.98
55.796,-17.62
55.812,-21.16
55.828,-24.66
55.843,-28.28
55.859,-32.18
55.875,-36.5
55.890,-41.17
55.906,-45.9
55.921,-50.15
55.937,-53.25
55.953,-54.63
55.968,-53.94
55.984,-51.16
56.000,-46.46
56.015,-40.12
56.031,-32.41
56.046,-23.65
56.062,-14.29
56.078,-4.89
56.093,3.91
56.109,11.56
56.125,17.76
56.140,22.52
56.156,26.0
56.171,28.4
56.187,29.84
56.203,30.35
56.218,29.94
56.234,28.68
56.250,26.77
56.265,24.49
56.281,22.16
56.296,20.05
56.312,18.3
56.328,16.9
56.343,15.71
56.359,14.61
56.375,13.59
56.390,12.82
56.406,12.58
56.421,13.07
56.437,14.27
56.453,15.83
56.468,17.16
56.484,17.68
56.500,16.96
56.515,14.89
56.531,11.63
56.546,7.44
56.562,2.64
56.578,-2.42
56.593,-7.34
56.609,-11.68
56.625,-15.06
56.640,-17.18
56.656,-18.05
56.671,-17.89
56.687,-17.19
56.703,-16.49
56.718,-16.29
56.734,-16.81
56.750,-18.01
56.765,-19.56
56.781,-20.97
56.796,-21.76
56.812,-21.55
56.828,-20.22
56.843,-17.82
56.859,-14.62
56.875,-10.95
56.890,-7.13
56.906,-3.44
56.921,-0.09
56.937,2.79
56.953,5.1
56.968,6.77
56.984,7.75
57.000,7.97
57.015,7.39
57.031,6.06
57.046,4.06
57.062,1.53
57.078,-1.39
57.093,-4.56
57.109,-7.87
57.125,-11.24
57.140,-14.64
57.156,-18.02
57.171,-21.36
57.187,-24.61
57.203,-27.73
57.218,-30.66
57.234,-33.24
57.250,-35.23
57.265,-36.26
57.281,-35.91
57.296,-33.91
57.312,-30.18
57.328,-24.96
57.343,-18.7
57.359,-11.95
57.375,-5.17
57.390,1.33
57.406,7.44
57.421,13.14
57.437,18.38
57.453,23.14
57.468,27.28
57.484,30.73
57.500,33.41
57.515,35.27
57.531,36.32
57.546,36.57
57.562,36.11
57.578,35.06
57.593,33.63
57.609,32.03
57.625,30.52
57.640,29.24
57.656,28.24
57.671,27.43
57.687,26.57
57.703,25.4
57.718,23.71
57.734,21.43
57.750,18.64
57.765,15.53
57.781,12.28
57.796,9.01
57.812,5.78
57.828,2.59
57.843,-0.59
57.859,-3.81
57.875,-7.14
57.890,-10.63
57.906,-14.23
57.921,-17.68
57.937,-20.52
57.953,-22.17
57.968,-22.15
57.984,-20.25
58.000,-16.64
58.015,-11.88
58.031,-6.66
58.046,-1.61
58.062,2.92
58.078,6.82
58.093,10.2
58.109,13.13
58.125,15.61
58.140,17.46
58.156,18.51
58.171,18.66
58.187,17.98
58.203,16.74
58.218,15.27
58.234,13.87
58.250,12.71
58.265,11.82
58.281,11.08
58.296,10.38
58.312,9.62
58.328,8.77
58.343,7.88
58.359,6.96
58.375,6.0
58.390,4.88
58.406,3.4
58.421,1.41
58.437,-1.19
58.453,-4.3
58.468,-7.74
58.484,-11.25
58.500,-14.73
58.515,-18.26
58.531,-22.08
58.546,-26.51
58.562,-31.66
58.578,-37.38
58.593,-43.16
58.609,-48.25
58.625,-51.84
58.640,-53.25
58.656,-52.17
58.671,-48.61
58.687,-42.9
58.703,-35.6
58.718,-27.37
58.734,-18.83
58.750,-10.53
58.765,-2.89
58.781,3.76
58.796,9.18
58.812,13.27
58.828,16.04
58.843,17.59
58.859,18.19
58.875,18.09
58.890,17.56
58.906,16.76
58.921,15.73
58.937,14.46
58.953,13.0
58.968,11.46
58.984,9.99
59.000,8.73
59.015,7.66
59.031,6.62
59.046,5.34
59.062,3.62
59.078,1.42
59.093,-1.12
59.109,-3.78
59.125,-6.38
59.140,-8.9
59.156,-11.49
59.171,-14.33
59.187,-17.54
59.203,-21.13
59.218,-24.95
59.234,-28.82
59.250,-32.44
59.265,-35.49
59.281,-37.54
59.296,-38.15
59.312,-36.96
59.328,-33.79
59.343,-28.75
59.359,-22.22
59.375,-14.79
59.390,-7.09
59.406,0.3
59.421,6.99
59.437,12.77
59.453,17.55
59.468,21.37
59.484,24.27
59.500,26.3
59.515,27.55
59.531,28.1
59.546,28.05
59.562,27.5
59.578,26.55
59.593,25.25
59.609,23.66
59.625,21.85
59.640,19.97
59.656,18.17
59.671,16.61
59.687,15.36
59.703,14.32
59.718,13.29
59.734,11.96
59.750,10.12
59.765,7.64
59.781,4.64
59.796,1.43
59.812,-1.62
59.828,-4.27
59.843,-6.51
59.859,-8.56
59.875,-10.88
59.890,-13.93
59.906,-18.0
59.921,-23.04
59.937,-28.62
59.953,-34.01
59.968,-38.25
59.984,-40.47
