timestamp,value
00.000,54.2
00.015,55.56
00.031,55.46
00.046,54.99
00.062,54.96
00.078,55.85
00.093,57.81
00.109,60.72
00.125,64.57
00.140,69.31
00.156,74.95
00.171,81.42
00.187,88.44
00.203,95.35
00.218,101.38
00.234,105.76
00.250,107.8
00.265,107.25
00.281,104.02
00.296,98.14
00.312,89.65
00.328,78.59
00.343,65.11
00.359,49.59
00.375,32.8
00.390,15.66
00.406,-0.79
00.421,-15.9
00.437,-29.4
00.453,-41.56
00.468,-52.94
00.484,-64.13
00.500,-75.41
00.515,-86.34
00.531,-95.87
00.546,-102.34
00.562,-104.22
00.578,-100.6
00.593,-91.56
00.609,-78.32
00.625,-62.69
00.640,-46.47
00.656,-30.86
00.671,-16.47
00.687,-3.27
00.703,8.77
00.718,19.59
00.734,29.01
00.750,36.72
00.765,42.58
00.781,46.6
00.796,48.84
00.812,49.25
00.828,47.79
00.843,44.41
00.859,39.42
00.875,33.54
00.890,27.77
00.906,23.15
00.921,20.48
00.937,20.05
00.953,21.61
00.968,24.5
00.984,27.97
01.000,31.27
01.015,33.88
01.031,35.41
01.046,35.57
01.062,34.05
01.078,30.6
01.093,25.15
01.109,17.95
01.125,9.57
01.140,0.84
01.156,-7.46
01.171,-14.8
01.187,-21.14
01.203,-26.87
01.218,-32.57
01.234,-38.82
01.250,-45.94
01.265,-53.88
01.281,-62.23
01.296,-70.1
01.312,-76.34
01.328,-79.47
01.343,-78.27
01.359,-71.9
01.375,-60.36
01.390,-44.48
01.406,-25.81
01.421,-6.25
01.437,12.44
01.453,28.91
01.468,42.46
01.484,52.95
01.500,60.7
01.515,66.25
01.531,70.18
01.546,72.9
01.562,74.55
01.578,75.03
01.593,74.2
01.609,72.09
01.625,68.97
01.640,65.3
01.656,61.52
01.671,57.82
01.687,54.15
01.703,50.32
01.718,46.15
01.734,41.64
01.750,37.08
01.765,32.8
01.781,29.04
01.796,25.77
01.812,22.63
01.828,19.15
01.843,14.96
01.859,9.85
01.875,3.95
01.890,-2.28
01.906,-8.33
01.921,-13.75
01.937,-18.39
01.953,-22.49
01.968,-26.46
01.984,-30.67
02.000,-35.41
02.015,-40.68
02.031,-46.31
02.046,-52.01
02.062,-57.24
02.078,-61.23
02.093,-62.96
02.109,-61.16
02.125,-54.71
02.140,-43.07
02.156,-26.58
02.171,-6.63
02.187,14.65
02.203,35.03
02.218,52.84
02.234,67.2
02.250,78.2
02.265,86.43
02.281,92.51
02.296,96.77
02.312,99.08
02.328,99.04
02.343,96.38
02.359,91.28
02.375,84.44
02.390,76.91
02.406,69.65
02.421,63.17
02.437,57.41
02.453,51.94
02.468,46.21
02.484,39.96
02.500,33.31
02.515,26.72
02.531,20.56
02.546,14.9
02.562,9.34
02.578,3.16
02.593,-4.33
02.609,-13.56
02.625,-24.36
02.640,-36.19
02.656,-48.16
02.671,-59.57
02.687,-70.09
02.703,-79.74
02.718,-88.69
02.734,-96.85
02.750,-103.87
02.765,-109.31
02.781,-113.23
02.796,-116.15
02.812,-118.89
02.828,-121.83
02.843,-124.32
02.859,-124.58
02.875,-120.19
02.890,-109.39
02.906,-91.88
02.921,-69.28
02.937,-44.44
02.953,-20.46
02.968,0.47
02.984,17.5
03.000,30.82
03.015,41.23
03.031,49.2
03.046,54.82
03.062,57.79
03.078,58.01
03.093,55.76
03.109,51.94
03.125,47.87
03.140,44.64
03.156,42.87
03.171,42.34
03.187,42.21
03.203,41.44
03.218,39.42
03.234,36.15
03.250,32.29
03.265,28.77
03.281,26.07
03.296,24.07
03.312,21.86
03.328,18.24
03.343,12.3
03.359,3.93
03.375,-6.1
03.390,-16.44
03.406,-25.67
03.421,-33.02
03.437,-38.42
03.453,-42.57
03.468,-46.45
03.484,-50.99
03.500,-56.8
03.515,-63.97
03.531,-72.12
03.546,-80.26
03.562,-87.11
03.578,-91.06
03.593,-90.63
03.609,-84.86
03.625,-73.72
03.640,-58.12
03.656,-39.61
03.671,-20.13
03.687,-1.33
03.703,15.51
03.718,29.74
03.734,41.18
03.750,50.03
03.765,56.63
03.781,61.23
03.796,64.03
03.812,65.05
03.828,64.32
03.843,61.95
03.859,58.36
03.875,54.16
03.890,49.98
03.906,46.31
03.921,43.22
03.937,40.45
03.953,37.55
03.968,34.22
03.984,30.34
04.000,26.06
04.015,21.63
04.031,17.19
04.046,12.66
04.062,7.8
04.078,2.32
04.093,-3.93
04.109,-10.7
04.125,-17.48
04.140,-23.71
04.156,-28.89
04.171,-32.86
04.187,-35.89
04.203,-38.43
04.218,-40.98
04.234,-43.99
04.250,-47.67
04.265,-52.0
04.281,-56.89
04.296,-61.9
04.312,-66.3
04.328,-69.02
04.343,-68.81
04.359,-64.53
04.375,-55.57
04.390,-42.14
04.406,-25.41
04.421,-7.14
04.437,10.79
04.453,26.87
04.468,40.35
04.484,51.15
04.500,59.63
04.515,66.24
04.531,71.26
04.546,74.63
04.562,76.17
04.578,75.86
04.593,73.84
04.609,70.56
04.625,66.6
04.640,62.5
04.656,58.54
04.671,54.85
04.687,51.38
04.703,48.06
04.718,44.93
04.734,42.0
04.750,39.17
04.765,36.19
04.781,32.7
04.796,28.26
04.812,22.64
04.828,15.9
04.843,8.4
04.859,0.69
04.875,-6.66
04.890,-13.24
04.906,-18.93
04.921,-23.89
04.937,-28.39
04.953,-32.63
04.968,-36.62
04.984,-40.17
05.000,-42.96
05.015,-44.81
05.031,-45.75
05.046,-46.23
05.062,-46.95
05.078,-48.58
05.093,-51.46
05.109,-55.27
05.125,-59.04
05.140,-61.2
05.156,-60.22
05.171,-54.9
05.187,-44.96
05.203,-31.04
05.218,-14.44
05.234,3.38
05.250,21.06
05.265,37.78
05.281,53.08
05.296,66.64
05.312,78.27
05.328,87.69
05.343,94.82
05.359,99.67
05.375,102.46
05.390,103.51
05.406,103.14
05.421,101.41
05.437,98.32
05.453,93.89
05.468,88.28
05.484,81.95
05.500,75.56
05.515,69.62
05.531,64.54
05.546,60.36
05.562,56.86
05.578,53.74
05.593,50.83
05.609,48.13
05.625,45.82
05.640,43.93
05.656,42.22
05.671,40.25
05.687,37.45
05.703,33.54
05.718,28.56
05.734,23.02
05.750,17.45
05.765,12.2
05.781,7.24
05.796,2.14
05.812,-3.55
05.828,-10.11
05.843,-17.28
05.859,-24.4
05.875,-30.6
05.890,-35.45
05.906,-39.17
05.921,-42.8
05.937,-47.95
05.953,-56.12
05.968,-68.24
05.984,-84.1
06.000,-102.25
06.015,-120.29
06.031,-135.48
06.046,-145.4
06.062,-148.47
06.078,-144.2
06.093,-133.19
06.109,-116.95
06.125,-97.33
06.140,-76.3
06.156,-55.6
06.171,-36.51
06.187,-19.74
06.203,-5.48
06.218,6.5
06.234,16.7
06.250,25.52
06.265,33.17
06.281,39.57
06.296,44.49
06.312,47.57
06.328,48.75
06.343,48.21
06.359,46.39
06.375,43.92
06.390,41.32
06.406,38.91
06.421,36.74
06.437,34.63
06.453,32.4
06.468,30.0
06.484,27.59
06.500,25.32
06.515,23.35
06.531,21.52
06.546,19.49
06.562,16.79
06.578,13.05
06.593,8.28
06.609,2.81
06.625,-2.77
06.640,-7.92
06.656,-12.38
06.671,-16.32
06.687,-20.19
06.703,-24.55
06.718,-29.78
06.734,-35.85
06.750,-42.44
06.765,-49.03
06.781,-55.13
06.796,-60.45
06.812,-64.9
06.828,-68.44
06.843,-71.01
06.859,-72.49
06.875,-72.83
06.890,-72.05
06.906,-70.4
06.921,-68.13
06.937,-65.33
06.953,-61.66
06.968,-56.38
06.984,-48.49
07.000,-37.29
07.015,-22.73
07.031,-5.73
07.046,12.07
07.062,28.67
07.078,42.48
07.093,52.71
07.109,59.59
07.125,64.15
07.140,67.61
07.156,70.9
07.171,74.29
07.187,77.57
07.203,80.15
07.218,81.52
07.234,81.39
07.250,79.68
07.265,76.35
07.281,71.4
07.296,64.87
07.312,56.96
07.328,48.24
07.343,39.56
07.359,31.84
07.375,25.7
07.390,21.34
07.406,18.39
07.421,16.15
07.437,13.88
07.453,11.0
07.468,7.31
07.484,3.01
07.500,-1.55
07.515,-5.96
07.531,-10.12
07.546,-14.18
07.562,-18.49
07.578,-23.3
07.593,-28.57
07.609,-34.0
07.625,-39.07
07.640,-43.32
07.656,-46.56
07.671,-48.93
07.687,-50.84
07.703,-52.63
07.718,-54.54
07.734,-56.53
07.750,-58.42
07.765,-60.01
07.781,-61.18
07.796,-61.84
07.812,-62.01
07.828,-61.79
07.843,-61.3
07.859,-60.6
07.875,-59.69
07.890,-58.36
07.906,-56.36
07.921,-53.34
07.937,-48.97
07.953,-43.03
07.968,-35.37
07.984,-25.92
08.000,-14.66
08.015,-1.69
08.031,12.76
08.046,28.14
08.062,43.65
08.078,58.41
08.093,71.7
08.109,83.05
08.125,92.21
08.140,98.88
08.156,102.56
08.171,102.72
08.187,98.87
08.203,91.12
08.218,80.27
08.234,67.77
08.250,55.31
08.265,44.31
08.281,35.43
08.296,28.51
08.312,22.94
08.328,17.85
08.343,12.56
08.359,6.8
08.375,0.53
08.390,-6.05
08.406,-12.71
08.421,-19.23
08.437,-25.43
08.453,-31.09
08.468,-36.0
08.484,-39.97
08.500,-42.85
08.515,-44.68
08.531,-45.66
08.546,-46.1
08.562,-46.37
08.578,-46.73
08.593,-47.2
08.609,-47.64
08.625,-47.76
08.640,-47.38
08.656,-46.55
08.671,-45.58
08.687,-44.9
08.703,-44.82
08.718,-45.42
08.734,-46.46
08.750,-47.59
08.765,-48.38
08.781,-48.67
08.796,-48.51
08.812,-48.07
08.828,-47.53
08.843,-46.74
08.859,-45.19
08.875,-42.18
08.890,-37.06
08.906,-29.57
08.921,-19.96
08.937,-8.87
08.953,2.87
08.968,14.56
08.984,25.71
09.000,35.93
09.015,44.83
09.031,51.95
09.046,56.92
09.062,59.62
09.078,60.38
09.093,59.88
09.109,58.79
09.125,57.56
09.140,56.17
09.156,54.33
09.171,51.61
09.187,47.79
09.203,42.98
09.218,37.57
09.234,32.13
09.250,27.12
09.265,22.95
09.281,19.89
09.296,18.17
09.312,17.94
09.328,19.2
09.343,21.86
09.359,25.65
09.375,30.16
09.390,34.79
09.406,38.84
09.421,41.5
09.437,42.11
09.453,40.4
09.468,36.58
09.484,31.3
09.500,25.36
09.515,19.33
09.531,13.21
09.546,6.44
09.562,-1.85
09.578,-12.44
09.593,-25.42
09.609,-40.09
09.625,-55.14
09.640,-69.18
09.656,-80.97
09.671,-89.82
09.687,-95.75
09.703,-99.17
09.718,-100.83
09.734,-101.38
09.750,-101.48
09.765,-101.59
09.781,-102.03
09.796,-102.59
09.812,-102.58
09.828,-100.8
09.843,-96.04
09.859,-87.53
09.875,-75.41
09.890,-60.84
09.906,-45.56
09.921,-31.32
09.937,-19.28
09.953,-9.73
09.968,-2.28
09.984,3.75
10.000,8.86
10.015,13.17
10.031,16.48
10.046,18.59
10.062,19.51
10.078,19.58
10.093,19.33
10.109,19.51
10.125,20.62
10.140,23.0
10.156,26.63
10.171,31.22
10.187,36.25
10.203,41.1
10.218,44.98
10.234,47.07
10.250,46.68
10.265,43.23
10.281,36.68
10.296,27.51
10.312,16.77
10.328,5.83
10.343,-3.92
10.359,-11.67
10.375,-17.32
10.390,-21.62
10.406,-25.85
10.421,-31.17
10.437,-38.25
10.453,-46.91
10.468,-56.17
10.484,-64.64
10.500,-71.06
10.515,-74.64
10.531,-75.34
10.546,-73.8
10.562,-71.0
10.578,-68.06
10.593,-65.98
10.609,-65.27
10.625,-66.02
10.640,-67.76
10.656,-69.58
10.671,-70.35
10.687,-69.01
10.703,-64.74
10.718,-57.31
10.734,-47.11
10.750,-34.96
10.765,-22.13
10.781,-9.75
10.796,1.31
10.812,10.69
10.828,18.65
10.843,25.76
10.859,32.78
10.875,40.25
10.890,48.47
10.906,57.18
10.921,65.9
10.937,74.08
10.953,81.22
10.968,87.07
10.984,91.55
11.000,94.66
11.015,96.36
11.031,96.67
11.046,95.51
11.062,92.85
11.078,88.66
11.093,82.98
11.109,75.91
11.125,67.55
11.140,58.01
11.156,47.49
11.171,36.38
11.187,25.12
11.203,14.32
11.218,4.56
11.234,-3.75
11.250,-10.46
11.265,-15.89
11.281,-20.64
11.296,-25.34
11.312,-30.32
11.328,-35.49
11.343,-40.38
11.359,-44.4
11.375,-47.34
11.390,-49.4
11.406,-51.25
11.421,-53.72
11.437,-57.43
11.453,-62.56
11.468,-68.86
11.484,-75.76
11.500,-82.69
11.515,-89.26
11.531,-95.2
11.546,-100.36
11.562,-104.52
11.578,-107.43
11.593,-108.69
11.609,-107.86
11.625,-104.48
11.640,-98.22
11.656,-89.04
11.671,-77.05
11.687,-62.8
11.703,-46.96
11.718,-30.38
11.734,-13.75
11.750,2.35
11.765,17.56
11.781,31.65
11.796,44.32
11.812,55.44
11.828,64.99
11.843,73.34
11.859,80.89
11.875,87.76
11.890,93.38
11.906,96.74
11.921,96.99
11.937,94.13
11.953,89.45
11.968,85.08
11.984,83.19
12.000,84.72
12.015,89.02
12.031,94.13
12.046,97.8
12.062,98.56
12.078,96.19
12.093,91.35
12.109,84.85
12.125,77.14
12.140,68.09
12.156,57.31
12.171,44.82
12.187,31.11
12.203,17.28
12.218,4.5
12.234,-6.3
12.250,-14.93
12.265,-21.76
12.281,-27.63
12.296,-33.44
12.312,-39.78
12.328,-46.83
12.343,-54.38
12.359,-61.98
12.375,-69.2
12.390,-75.79
12.406,-81.83
12.421,-87.63
12.437,-93.38
12.453,-98.88
12.468,-103.45
12.484,-105.93
12.500,-105.19
12.515,-100.49
12.531,-91.9
12.546,-80.3
12.562,-67.21
12.578,-54.08
12.593,-41.94
12.609,-31.11
12.625,-21.26
12.640,-11.88
12.656,-2.58
12.671,6.53
12.687,14.99
12.703,22.13
12.718,27.48
12.734,30.88
12.750,32.48
12.765,32.81
12.781,32.4
12.796,31.92
12.812,31.98
12.828,33.2
12.843,36.02
12.859,40.7
12.875,46.88
12.890,53.79
12.906,60.36
12.921,65.58
12.937,68.86
12.953,70.24
12.968,70.29
12.984,69.82
13.000,69.7
13.015,70.33
13.031,71.56
13.046,72.61
13.062,72.31
13.078,69.45
13.093,63.41
13.109,54.37
13.125,43.33
13.140,31.67
13.156,20.7
13.171,11.07
13.187,2.88
13.203,-4.33
13.218,-11.13
13.234,-17.94
13.250,-25.1
13.265,-32.86
13.281,-41.37
13.296,-50.61
13.312,-60.04
13.328,-68.37
13.343,-73.98
13.359,-75.38
13.375,-71.75
13.390,-63.37
13.406,-51.63
13.421,-38.36
13.437,-25.37
13.453,-13.81
13.468,-3.84
13.484,4.97
13.500,13.24
13.515,21.33
13.531,28.98
13.546,35.45
13.562,39.91
13.578,41.82
13.593,41.25
13.609,38.88
13.625,35.7
13.640,32.63
13.656,30.29
13.671,28.85
13.687,28.23
13.703,28.23
13.718,28.62
13.734,29.12
13.750,29.31
13.765,28.57
13.781,26.35
13.796,22.34
13.812,16.69
13.828,10.04
13.843,3.37
13.859,-2.43
13.875,-6.84
13.890,-9.99
13.906,-12.59
13.921,-15.63
13.937,-20.04
13.953,-26.27
13.968,-33.99
13.984,-42.23
14.000,-49.58
14.015,-54.72
14.031,-56.9
14.046,-56.22
14.062,-53.62
14.078,-50.51
14.093,-48.42
14.109,-48.28
14.125,-50.38
14.140,-54.03
14.156,-57.89
14.171,-60.13
14.187,-58.83
14.203,-52.56
14.218,-40.77
14.234,-24.28
14.250,-4.99
14.265,14.51
14.281,31.85
14.296,45.68
14.312,55.94
14.328,63.58
14.343,69.88
14.359,75.75
14.375,81.33
14.390,86.22
14.406,89.81
14.421,91.69
14.437,91.83
14.453,90.51
14.468,88.0
14.484,84.45
14.500,79.87
14.515,74.19
14.531,67.56
14.546,60.33
14.562,53.04
14.578,46.28
14.593,40.49
14.609,35.81
14.625,31.9
14.640,28.26
14.656,24.3
14.671,19.65
14.687,14.25
14.703,8.31
14.718,2.32
14.734,-3.41
14.750,-8.68
14.765,-13.62
14.781,-18.45
14.796,-23.46
14.812,-28.69
14.828,-34.0
14.843,-39.08
14.859,-43.43
14.875,-46.8
14.890,-49.18
14.906,-50.89
14.921,-52.4
14.937,-54.16
14.953,-56.41
14.968,-59.14
14.984,-62.29
15.000,-65.81
15.015,-69.81
15.031,-74.5
15.046,-79.88
15.062,-85.39
15.078,-89.82
15.093,-91.44
15.109,-88.59
15.125,-80.3
15.140,-66.71
15.156,-49.07
15.171,-29.37
15.187,-9.66
15.203,8.51
15.218,24.34
15.234,37.73
15.250,48.88
15.265,57.91
15.281,64.77
15.296,69.36
15.312,71.66
15.328,71.99
15.343,70.96
15.359,69.29
15.375,67.64
15.390,66.35
15.406,65.53
15.421,65.04
15.437,64.78
15.453,64.65
15.468,64.7
15.484,64.92
15.500,65.23
15.515,65.49
15.531,65.48
15.546,65.01
15.562,64.05
15.578,62.75
15.593,61.39
15.609,60.28
15.625,59.43
15.640,58.37
15.656,56.32
15.671,52.43
15.687,46.16
15.703,37.61
15.718,27.45
15.734,16.6
15.750,5.9
15.765,-4.28
15.781,-14.0
15.796,-23.41
15.812,-32.52
15.828,-41.04
15.843,-48.53
15.859,-54.65
15.875,-59.46
15.890,-63.45
15.906,-67.4
15.921,-72.04
15.937,-77.67
15.953,-83.94
15.968,-89.89
15.984,-94.22
16.000,-95.58
16.015,-93.01
16.031,-86.22
16.046,-75.72
16.062,-62.56
16.078,-48.03
16.093,-33.35
16.109,-19.34
16.125,-6.51
16.140,4.96
16.156,15.01
16.171,23.64
16.187,30.84
16.203,36.72
16.218,41.43
16.234,45.12
16.250,47.94
16.265,49.85
16.281,50.84
16.296,50.96
16.312,50.39
16.328,49.4
16.343,48.34
16.359,47.38
16.375,46.51
16.390,45.58
16.406,44.37
16.421,42.75
16.437,40.75
16.453,38.48
16.468,36.08
16.484,33.66
16.500,31.18
16.515,28.52
16.531,25.59
16.546,22.38
16.562,18.97
16.578,15.57
16.593,12.25
16.609,8.98
16.625,5.46
16.640,1.23
16.656,-4.09
16.671,-10.62
16.687,-18.1
16.703,-25.86
16.718,-33.11
16.734,-39.32
16.750,-44.38
16.765,-48.67
16.781,-52.89
16.796,-57.64
16.812,-63.22
16.828,-69.39
16.843,-75.46
16.859,-80.45
16.875,-83.36
16.890,-83.34
16.906,-79.87
16.921,-72.91
16.937,-62.86
16.953,-50.53
16.968,-36.97
16.984,-23.23
17.000,-10.27
17.015,1.19
17.031,10.68
17.046,18.04
17.062,23.34
17.078,27.01
17.093,29.49
17.109,31.22
17.125,32.46
17.140,33.16
17.156,33.22
17.171,32.56
17.187,31.34
17.203,29.94
17.218,28.88
17.234,28.46
17.250,28.68
17.265,29.25
17.281,29.76
17.296,29.92
17.312,29.54
17.328,28.66
17.343,27.42
17.359,25.91
17.375,24.09
17.390,21.78
17.406,18.76
17.421,14.97
17.437,10.57
17.453,5.92
17.468,1.4
17.484,-2.79
17.500,-6.72
17.515,-10.71
17.531,-15.21
17.546,-20.5
17.562,-26.54
17.578,-32.88
17.593,-38.94
17.609,-44.21
17.625,-48.51
17.640,-52.07
17.656,-55.3
17.671,-58.72
17.687,-62.69
17.703,-67.27
17.718,-72.11
17.734,-76.51
17.750,-79.52
17.765,-80.1
17.781,-77.5
17.796,-71.4
17.812,-62.08
17.828,-50.4
17.843,-37.48
17.859,-24.47
17.875,-12.25
17.890,-1.36
17.906,8.04
17.921,16.12
17.937,23.12
17.953,29.46
17.968,35.41
17.984,41.07
18.000,46.28
18.015,50.74
18.031,54.12
18.046,56.22
18.062,57.17
18.078,57.34
18.093,57.24
18.109,57.28
18.125,57.67
18.140,58.2
18.156,58.46
18.171,58.02
18.187,56.55
18.203,54.02
18.218,50.62
18.234,46.65
18.250,42.09
18.265,36.86
18.281,30.75
18.296,23.73
18.312,16.11
18.328,8.51
18.343,1.73
18.359,-3.73
18.375,-7.79
18.390,-11.04
18.406,-14.36
18.421,-18.49
18.437,-23.81
18.453,-30.07
18.468,-36.61
18.484,-42.6
18.500,-47.51
18.515,-51.14
18.531,-53.7
18.546,-55.65
18.562,-57.43
18.578,-59.42
18.593,-61.97
18.609,-65.33
18.625,-69.53
18.640,-74.26
18.656,-78.64
18.671,-81.33
18.687,-80.8
18.703,-75.81
18.718,-65.9
18.734,-51.66
18.750,-34.72
18.765,-17.09
18.781,-0.66
18.796,13.41
18.812,24.77
18.828,33.77
18.843,41.09
18.859,47.22
18.875,52.43
18.890,56.54
18.906,59.33
18.921,60.67
18.937,60.73
18.953,59.95
18.968,58.76
18.984,57.42
19.000,55.86
19.015,53.94
19.031,51.48
19.046,48.52
19.062,45.32
19.078,42.3
19.093,39.88
19.109,38.16
19.125,36.92
19.140,35.72
19.156,34.07
19.171,31.63
19.187,28.32
19.203,24.29
19.218,19.89
19.234,15.5
19.250,11.32
19.265,7.31
19.281,3.23
19.296,-1.3
19.312,-6.63
19.328,-12.86
19.343,-19.74
19.359,-26.83
19.375,-33.47
19.390,-39.19
19.406,-43.69
19.421,-46.98
19.437,-49.44
19.453,-51.61
19.468,-54.08
19.484,-57.41
19.500,-62.06
19.515,-68.13
19.531,-75.39
19.546,-82.99
19.562,-89.61
19.578,-93.72
19.593,-93.87
19.609,-89.22
19.625,-79.84
19.640,-66.77
19.656,-51.62
19.671,-36.17
19.687,-21.79
19.703,-9.17
19.718,1.54
19.734,10.63
19.750,18.4
19.765,24.97
19.781,30.3
19.796,34.37
19.812,37.18
19.828,38.94
19.843,39.94
19.859,40.37
19.875,40.34
19.890,39.83
19.906,38.87
19.921,37.67
19.937,36.66
19.953,36.22
19.968,36.66
19.984,37.85
20.000,39.25
20.015,40.09
20.031,39.57
20.046,37.23
20.062,33.14
20.078,27.84
20.093,22.06
20.109,16.49
20.125,11.48
20.140,6.94
20.156,2.55
20.171,-2.08
20.187,-7.17
20.203,-12.59
20.218,-18.06
20.234,-23.32
20.250,-28.2
20.265,-32.72
20.281,-37.03
20.296,-41.24
20.312,-45.55
20.328,-50.15
20.343,-55.2
20.359,-60.92
20.375,-67.19
20.390,-73.49
20.406,-78.72
20.421,-81.48
20.437,-80.33
20.453,-74.45
20.468,-63.88
20.484,-49.59
20.500,-33.26
20.515,-16.68
20.531,-1.32
20.546,12.03
20.562,23.22
20.578,32.58
20.593,40.53
20.609,47.28
20.625,52.76
20.640,56.71
20.656,58.9
20.671,59.36
20.687,58.42
20.703,56.7
20.718,54.9
20.734,53.52
20.750,52.72
20.765,52.34
20.781,52.02
20.796,51.55
20.812,50.95
20.828,50.52
20.843,50.52
20.859,50.99
20.875,51.48
20.890,51.24
20.906,49.53
20.921,45.99
20.937,40.88
20.953,35.0
20.968,29.27
20.984,24.31
21.000,20.17
21.015,16.28
21.031,11.88
21.046,6.31
21.062,-0.44
21.078,-7.92
21.093,-15.31
21.109,-21.98
21.125,-27.68
21.140,-32.65
21.156,-37.49
21.171,-42.77
21.187,-48.95
21.203,-56.05
21.218,-63.7
21.234,-71.16
21.250,-77.47
21.265,-81.46
21.281,-82.0
21.296,-78.32
21.312,-70.14
21.328,-57.94
21.343,-42.8
21.359,-26.22
21.375,-9.74
21.390,5.44
21.406,18.6
21.421,29.62
21.437,38.67
21.453,46.15
21.468,52.35
21.484,57.4
21.500,61.23
21.515,63.64
21.531,64.63
21.546,64.23
21.562,62.84
21.578,60.91
21.593,58.94
21.609,57.19
21.625,55.69
21.640,54.27
21.656,52.6
21.671,50.65
21.687,48.43
21.703,46.16
21.718,43.95
21.734,41.72
21.750,39.05
21.765,35.52
21.781,30.91
21.796,25.38
21.812,19.55
21.828,14.09
21.843,9.53
21.859,5.87
21.875,2.6
21.890,-1.04
21.906,-5.62
21.921,-11.21
21.937,-17.41
21.953,-23.49
21.968,-28.82
21.984,-33.14
22.000,-36.81
22.015,-40.54
22.031,-45.2
22.046,-51.45
22.062,-59.36
22.078,-68.41
22.093,-77.52
22.109,-85.17
22.125,-89.8
22.140,-90.24
22.156,-85.93
22.171,-77.09
22.187,-64.6
22.203,-49.72
22.218,-33.81
22.234,-18.07
22.250,-3.4
22.265,9.61
22.281,20.65
22.296,29.66
22.312,36.81
22.328,42.34
22.343,46.59
22.359,49.83
22.375,52.14
22.390,53.53
22.406,54.0
22.421,53.56
22.437,52.44
22.453,50.97
22.468,49.45
22.484,48.15
22.500,47.13
22.515,46.27
22.531,45.36
22.546,44.09
22.562,42.19
22.578,39.56
22.593,36.14
22.609,32.0
22.625,27.25
22.640,21.98
22.656,16.35
22.671,10.52
22.687,4.72
22.703,-0.78
22.718,-5.79
22.734,-10.31
22.750,-14.55
22.765,-18.87
22.781,-23.59
22.796,-28.73
22.812,-34.03
22.828,-39.01
22.843,-43.21
22.859,-46.5
22.875,-49.19
22.890,-52.04
22.906,-55.75
22.921,-60.64
22.937,-66.22
22.953,-71.14
22.968,-73.61
22.984,-72.07
23.000,-65.83
23.015,-55.31
23.031,-41.93
23.046,-27.49
23.062,-13.53
23.078,-0.98
23.093,9.94
23.109,19.4
23.125,27.68
23.140,34.76
23.156,40.45
23.171,44.48
23.187,46.74
23.203,47.54
23.218,47.44
23.234,47.02
23.250,46.66
23.265,46.37
23.281,45.82
23.296,44.61
23.312,42.63
23.328,40.16
23.343,37.77
23.359,36.0
23.375,35.02
23.390,34.5
23.406,33.81
23.421,32.36
23.437,29.84
23.453,26.45
23.468,22.77
23.484,19.47
23.500,16.92
23.515,15.1
23.531,13.59
23.546,11.75
23.562,9.09
23.578,5.41
23.593,0.83
23.609,-4.29
23.625,-9.53
23.640,-14.58
23.656,-19.35
23.671,-23.89
23.687,-28.34
23.703,-32.86
23.718,-37.53
23.734,-42.49
23.750,-47.87
23.765,-53.59
23.781,-59.24
23.796,-64.03
23.812,-66.85
23.828,-66.6
23.843,-62.57
23.859,-54.74
23.875,-43.83
23.890,-31.16
23.906,-18.22
23.921,-6.18
23.937,4.28
23.953,13.06
23.968,20.5
23.984,26.98
24.000,32.77
24.015,37.82
24.031,41.9
24.046,44.66
24.062,45.97
24.078,46.04
24.093,45.41
24.109,44.68
24.125,44.27
24.140,44.29
24.156,44.41
24.171,44.31
24.187,43.71
24.203,42.69
24.218,41.61
24.234,40.79
24.250,40.27
24.265,39.64
24.281,38.3
24.296,35.7
24.312,31.61
24.328,26.34
24.343,20.52
24.359,14.82
24.375,9.7
24.390,5.15
24.406,0.85
24.421,-3.63
24.437,-8.46
24.453,-13.59
24.468,-18.74
24.484,-23.52
24.500,-27.8
24.515,-31.66
24.531,-35.37
24.546,-39.24
24.562,-43.43
24.578,-47.84
24.593,-52.26
24.609,-56.62
24.625,-61.07
24.640,-65.82
24.656,-70.93
24.671,-75.87
24.687,-79.56
24.703,-80.51
24.718,-77.45
24.734,-69.82
24.750,-58.12
24.765,-43.76
24.781,-28.57
24.796,-14.09
24.812,-1.09
24.828,10.37
24.843,20.77
24.859,30.56
24.875,39.93
24.890,48.68
24.906,56.39
24.921,62.72
24.937,67.63
24.953,71.52
24.968,74.96
24.984,78.4
25.000,81.98
25.015,85.37
25.031,87.96
25.046,89.12
25.062,88.47
25.078,85.98
25.093,82.01
25.109,77.15
25.125,71.9
25.140,66.63
25.156,61.35
25.171,55.96
25.187,50.21
25.203,43.9
25.218,36.84
25.234,29.02
25.250,20.53
25.265,11.55
25.281,2.41
25.296,-6.55
25.312,-14.79
25.328,-21.8
25.343,-27.12
25.359,-30.62
25.375,-32.57
25.390,-33.72
25.406,-35.15
25.421,-37.81
25.437,-42.25
25.453,-48.3
25.468,-55.17
25.484,-61.77
25.500,-67.29
25.515,-71.48
25.531,-74.79
25.546,-77.88
25.562,-81.32
25.578,-85.04
25.593,-88.41
25.609,-90.45
25.625,-90.36
25.640,-87.77
25.656,-82.95
25.671,-76.47
25.687,-68.97
25.703,-60.89
25.718,-52.45
25.734,-43.69
25.750,-34.66
25.765,-25.5
25.781,-16.45
25.796,-7.78
25.812,0.33
25.828,7.69
25.843,14.2
25.859,19.74
25.875,24.26
25.890,27.75
25.906,30.36
25.921,32.27
25.937,33.68
25.953,34.7
25.968,35.22
25.984,34.99
26.000,33.66
26.015,31.0
26.031,26.93
26.046,21.68
26.062,15.79
26.078,9.95
26.093,4.97
26.109,1.49
26.125,-0.17
26.140,-0.1
26.156,1.16
26.171,2.86
26.187,4.29
26.203,4.98
26.218,4.71
26.234,3.58
26.250,1.68
26.265,-0.85
26.281,-3.95
26.296,-7.49
26.312,-11.29
26.328,-15.16
26.343,-19.07
26.359,-23.33
26.375,-28.37
26.390,-34.58
26.406,-42.01
26.421,-50.08
26.437,-57.68
26.453,-63.39
26.468,-65.89
26.484,-64.47
26.500,-59.16
26.515,-50.77
26.531,-40.54
26.546,-29.81
26.562,-19.55
26.578,-10.21
26.593,-1.79
26.609,5.98
26.625,13.23
26.640,19.84
26.656,25.45
26.671,29.66
26.687,32.38
26.703,33.89
26.718,34.66
26.734,35.12
26.750,35.43
26.765,35.44
26.781,34.79
26.796,33.32
26.812,31.13
26.828,28.86
26.843,27.28
26.859,27.0
26.875,28.05
26.890,29.96
26.906,31.9
26.921,33.09
26.937,33.13
26.953,32.09
26.968,30.38
26.984,28.44
27.000,26.48
27.015,24.3
27.031,21.42
27.046,17.32
27.062,11.71
27.078,4.94
27.093,-2.28
27.109,-8.91
27.125,-14.08
27.140,-17.42
27.156,-19.13
27.171,-19.98
27.187,-20.96
27.203,-22.92
27.218,-26.26
27.234,-30.98
27.250,-36.64
27.265,-42.61
27.281,-48.11
27.296,-52.26
27.312,-54.25
27.328,-53.36
27.343,-49.33
27.359,-42.32
27.375,-33.16
27.390,-22.98
27.406,-12.98
27.421,-4.06
27.437,3.38
27.453,9.3
27.468,13.94
27.484,17.39
27.500,19.67
27.515,20.61
27.531,20.21
27.546,18.74
27.562,16.77
27.578,15.11
27.593,14.47
27.609,15.29
27.625,17.46
27.640,20.43
27.656,23.42
27.671,25.66
27.687,26.73
27.703,26.53
27.718,25.19
27.734,22.9
27.750,19.73
27.765,15.68
27.781,10.69
27.796,4.79
27.812,-1.93
27.828,-9.25
27.843,-16.93
27.859,-24.81
27.875,-32.72
27.890,-40.51
27.906,-47.97
27.921,-54.83
27.937,-60.82
27.953,-65.84
27.968,-70.01
27.984,-73.75
28.000,-77.61
28.015,-82.07
28.031,-87.15
28.046,-92.31
28.062,-96.29
28.078,-97.35
28.093,-93.95
28.109,-85.13
28.125,-71.11
28.140,-53.25
28.156,-33.67
28.171,-14.6
28.187,2.24
28.203,16.07
28.218,27.09
28.234,35.98
28.250,43.48
28.265,50.01
28.281,55.47
28.296,59.61
28.312,62.22
28.328,63.38
28.343,63.51
28.359,63.16
28.375,62.76
28.390,62.44
28.406,62.07
28.421,61.34
28.437,60.07
28.453,58.39
28.468,56.61
28.484,55.14
28.500,54.14
28.515,53.35
28.531,52.23
28.546,50.09
28.562,46.43
28.578,41.17
28.593,34.73
28.609,27.67
28.625,20.58
28.640,13.81
28.656,7.29
28.671,0.88
28.687,-5.49
28.703,-11.74
28.718,-17.59
28.734,-22.86
28.750,-27.56
28.765,-31.84
28.781,-35.79
28.796,-39.19
28.812,-41.25
28.828,-40.78
28.843,-36.61
28.859,-28.05
28.875,-15.34
28.890,0.38
28.906,17.41
28.921,34.01
28.937,48.79
28.953,61.07
28.968,70.64
28.984,77.65
29.000,82.3
29.015,84.76
29.031,85.18
29.046,83.83
29.062,81.18
29.078,77.77
29.093,74.3
29.109,71.29
29.125,69.01
29.140,67.4
29.156,66.08
29.171,64.57
29.187,62.46
29.203,59.66
29.218,56.37
29.234,53.08
29.250,50.26
29.265,48.06
29.281,46.3
29.296,44.49
29.312,42.03
29.328,38.46
29.343,33.5
29.359,27.0
29.375,19.03
29.390,9.69
29.406,-0.73
29.421,-11.77
29.437,-22.85
29.453,-33.36
29.468,-42.92
29.484,-51.46
29.500,-59.35
29.515,-66.95
29.531,-74.48
29.546,-81.61
29.562,-87.46
29.578,-90.87
29.593,-90.78
29.609,-86.69
29.625,-78.98
29.640,-68.83
29.656,-57.78
29.671,-47.12
29.687,-37.27
29.703,-27.63
29.718,-16.95
29.734,-4.15
29.750,10.8
29.765,26.35
29.781,39.83
29.796,48.38
29.812,50.19
29.828,45.53
29.843,36.73
29.859,27.26
29.875,20.44
29.890,18.47
29.906,22.13
29.921,31.14
29.937,44.81
29.953,62.33
29.968,82.54
29.984,103.7
30.000,123.1
30.015,137.69
30.031,144.89
30.046,143.45
30.062,133.78
30.078,117.39
30.093,96.16
30.109,71.58
30.125,44.61
30.140,15.91
30.156,-13.52
30.171,-42.23
30.187,-68.26
30.203,-89.56
30.218,-104.57
30.234,-112.56
30.250,-113.84
30.265,-109.54
30.281,-101.35
30.296,-90.94
30.312,-79.6
30.328,-67.91
30.343,-55.71
30.359,-42.52
30.375,-27.99
30.390,-12.34
30.406,3.61
30.421,18.49
30.437,30.91
30.453,39.82
30.468,44.58
30.484,45.05
30.500,41.4
30.515,34.05
30.531,23.66
30.546,11.17
30.562,-2.35
30.578,-15.74
30.593,-28.07
30.609,-38.92
30.625,-48.43
30.640,-57.06
30.656,-65.24
30.671,-72.95
30.687,-79.43
30.703,-83.52
30.718,-84.06
30.734,-80.55
30.750,-73.51
30.765,-64.26
30.781,-54.43
30.796,-45.31
30.812,-37.36
30.828,-30.44
30.843,-24.22
30.859,-18.59
30.875,-13.92
30.890,-10.94
30.906,-10.26
30.921,-12.02
30.937,-15.87
30.953,-20.93
30.968,-26.28
30.984,-31.33
31.000,-35.8
31.015,-39.75
31.031,-43.37
31.046,-46.74
31.062,-49.86
31.078,-52.72
31.093,-55.28
31.109,-57.57
31.125,-59.55
31.140,-60.82
31.156,-60.65
31.171,-58.09
31.187,-52.34
31.203,-43.13
31.218,-31.02
31.234,-17.18
31.250,-3.21
31.265,9.54
31.281,20.35
31.296,29.13
31.312,36.43
31.328,43.02
31.343,49.67
31.359,56.8
31.375,64.49
31.390,72.45
31.406,80.24
31.421,87.53
31.437,93.99
31.453,99.56
31.468,104.28
31.484,108.19
31.500,111.27
31.515,113.44
31.531,114.47
31.546,114.02
31.562,111.6
31.578,106.6
31.593,98.45
31.609,86.83
31.625,71.86
31.640,54.38
31.656,35.72
31.671,17.44
31.687,0.84
31.703,-13.34
31.718,-25.05
31.734,-34.45
31.750,-41.71
31.765,-46.84
31.781,-49.68
31.796,-50.26
31.812,-49.12
31.828,-47.38
31.843,-46.48
31.859,-48.03
31.875,-53.27
31.890,-62.86
31.906,-76.94
31.921,-94.88
31.937,-115.49
31.953,-136.98
31.968,-157.21
31.984,-174.01
32.000,-185.52
32.015,-190.46
32.031,-188.39
32.046,-179.63
32.062,-165.08
32.078,-146.07
32.093,-124.11
32.109,-100.73
32.125,-77.25
32.140,-54.61
32.156,-33.18
32.171,-12.95
32.187,6.34
32.203,24.99
32.218,43.1
32.234,60.46
32.250,76.72
32.265,91.44
32.281,104.34
32.296,115.48
32.312,125.12
32.328,133.61
32.343,141.28
32.359,148.14
32.375,153.74
32.390,157.29
32.406,157.73
32.421,153.99
32.437,145.48
32.453,132.21
32.468,114.79
32.484,94.38
32.500,72.36
32.515,50.01
32.531,28.3
32.546,7.79
32.562,-11.19
32.578,-28.43
32.593,-43.65
32.609,-56.51
32.625,-66.84
32.640,-74.81
32.656,-81.01
32.671,-86.33
32.687,-91.7
32.703,-97.74
32.718,-104.64
32.734,-112.24
32.750,-120.17
32.765,-128.04
32.781,-135.49
32.796,-142.0
32.812,-146.65
32.828,-148.36
32.843,-146.08
32.859,-139.29
32.875,-128.31
32.890,-114.24
32.906,-98.55
32.921,-82.59
32.937,-67.2
32.953,-52.45
32.968,-38.06
32.984,-23.75
33.000,-9.44
33.015,4.48
33.031,17.35
33.046,28.48
33.062,37.26
33.078,43.34
33.093,46.7
33.109,47.64
33.125,46.65
33.140,44.4
33.156,41.46
33.171,38.27
33.187,35.11
33.203,31.97
33.218,28.92
33.234,26.04
33.250,23.48
33.265,21.36
33.281,19.72
33.296,18.4
33.312,17.26
33.328,16.27
33.343,15.52
33.359,15.27
33.375,15.79
33.390,17.06
33.406,18.62
33.421,19.87
33.437,20.07
33.453,18.77
33.468,15.91
33.484,11.82
33.500,7.1
33.515,2.35
33.531,-1.96
33.546,-5.77
33.562,-9.16
33.578,-12.54
33.593,-16.52
33.609,-21.79
33.625,-28.85
33.640,-37.73
33.656,-47.59
33.671,-56.87
33.687,-63.56
33.703,-65.84
33.718,-62.72
33.734,-54.33
33.750,-41.86
33.765,-26.96
33.781,-11.28
33.796,4.02
33.812,18.24
33.828,31.11
33.843,42.4
33.859,51.85
33.875,59.18
33.890,64.25
33.906,67.19
33.921,68.38
33.937,68.43
33.953,67.89
33.968,67.25
33.984,66.71
34.000,66.22
34.015,65.62
34.031,64.74
34.046,63.54
34.062,62.18
34.078,60.95
34.093,60.03
34.109,59.4
34.125,58.66
34.140,57.16
34.156,54.29
34.171,49.77
34.187,43.8
34.203,37.0
34.218,30.22
34.234,23.98
34.250,18.42
34.265,13.23
34.281,7.93
34.296,2.14
34.312,-4.24
34.328,-10.95
34.343,-17.64
34.359,-23.95
34.375,-29.72
34.390,-35.02
34.406,-40.11
34.421,-45.2
34.437,-50.47
34.453,-56.0
34.468,-61.84
34.484,-68.01
34.500,-74.37
34.515,-80.38
34.531,-85.08
34.546,-87.24
34.562,-85.66
34.578,-79.53
34.593,-68.88
34.609,-54.59
34.625,-38.15
34.640,-21.21
34.656,-5.12
34.671,9.34
34.687,21.87
34.703,32.43
34.718,41.12
34.734,47.91
34.750,52.74
34.765,55.64
34.781,56.83
34.796,56.83
34.812,56.33
34.828,56.01
34.843,56.26
34.859,57.11
34.875,58.15
34.890,58.86
34.906,58.72
34.921,57.51
34.937,55.3
34.953,52.4
34.968,49.25
34.984,46.15
35.000,43.21
35.015,40.42
35.031,37.71
35.046,35.12
35.062,32.71
35.078,30.47
35.093,28.32
35.109,26.01
35.125,23.31
35.140,20.07
35.156,16.41
35.171,12.68
35.187,9.23
35.203,6.29
35.218,3.78
35.234,1.4
35.250,-1.25
35.265,-4.51
35.281,-8.57
35.296,-13.46
35.312,-19.03
35.328,-25.08
35.343,-31.2
35.359,-36.81
35.375,-41.21
35.390,-43.69
35.406,-43.92
35.421,-41.97
35.437,-38.39
35.453,-33.91
35.468,-29.24
35.484,-24.77
35.500,-20.55
35.515,-16.46
35.531,-12.42
35.546,-8.59
35.562,-5.32
35.578,-3.04
35.593,-2.03
35.609,-2.34
35.625,-3.65
35.640,-5.43
35.656,-7.06
35.671,-7.93
35.687,-7.7
35.703,-6.35
35.718,-4.19
35.734,-1.77
35.750,0.25
35.765,1.47
35.781,1.79
35.796,1.39
35.812,0.71
35.828,0.06
35.843,-0.38
35.859,-0.61
35.875,-0.75
35.890,-0.9
35.906,-1.11
35.921,-1.32
35.937,-1.68
35.953,-2.37
35.968,-3.77
35.984,-6.08
36.000,-9.31
36.015,-13.11
36.031,-16.96
36.046,-20.37
36.062,-23.08
36.078,-25.3
36.093,-27.5
36.109,-30.33
36.125,-34.25
36.140,-39.29
36.156,-44.96
36.171,-50.31
36.187,-54.27
36.203,-55.92
36.218,-54.83
36.234,-51.13
36.250,-45.42
36.265,-38.58
36.281,-31.37
36.296,-24.29
36.312,-17.48
36.328,-10.95
36.343,-4.66
36.359,1.32
36.375,6.84
36.390,11.79
36.406,16.09
36.421,19.84
36.437,23.12
36.453,26.01
36.468,28.41
36.484,30.23
36.500,31.24
36.515,31.44
36.531,30.95
36.546,30.07
36.562,29.24
36.578,28.8
36.593,28.91
36.609,29.42
36.625,30.01
36.640,30.16
36.656,29.48
36.671,27.87
36.687,25.45
36.703,22.62
36.718,19.76
36.734,17.15
36.750,14.76
36.765,12.44
36.781,9.86
36.796,6.82
36.812,3.29
36.828,-0.61
36.843,-4.59
36.859,-8.4
36.875,-11.8
36.890,-14.77
36.906,-17.45
36.921,-20.14
36.937,-23.06
36.953,-26.32
36.968,-29.83
36.984,-33.23
37.000,-36.06
37.015,-37.69
37.031,-37.51
37.046,-35.18
37.062,-30.68
37.078,-24.37
37.093,-16.95
37.109,-9.33
37.125,-2.2
37.140,3.94
37.156,8.95
37.171,13.0
37.187,16.31
37.203,19.07
37.218,21.33
37.234,23.03
37.250,24.04
37.265,24.36
37.281,24.08
37.296,23.42
37.312,22.62
37.328,21.83
37.343,21.14
37.359,20.57
37.375,20.07
37.390,19.58
37.406,19.14
37.421,18.72
37.437,18.31
37.453,17.8
37.468,17.04
37.484,15.91
37.500,14.32
37.515,12.39
37.531,10.29
37.546,8.23
37.562,6.28
37.578,4.36
37.593,2.21
37.609,-0.41
37.625,-3.61
37.640,-7.3
37.656,-11.2
37.671,-14.98
37.687,-18.51
37.703,-21.9
37.718,-25.45
37.734,-29.51
37.750,-34.16
37.765,-39.16
37.781,-43.92
37.796,-47.59
37.812,-49.34
37.828,-48.61
37.843,-45.33
37.859,-39.85
37.875,-32.93
37.890,-25.34
37.906,-17.68
37.921,-10.37
37.937,-3.62
37.953,2.48
37.968,7.83
37.984,12.41
38.000,16.12
38.015,18.94
38.031,20.94
38.046,22.28
38.062,23.12
38.078,23.6
38.093,23.9
38.109,24.03
38.125,24.09
38.140,24.09
38.156,24.06
38.171,24.06
38.187,24.09
38.203,24.14
38.218,24.03
38.234,23.54
38.250,22.37
38.265,20.41
38.281,17.72
38.296,14.59
38.312,11.37
38.328,8.17
38.343,4.97
38.359,1.43
38.375,-2.67
38.390,-7.5
38.406,-12.79
38.421,-18.12
38.437,-23.03
38.453,-27.17
38.468,-30.58
38.484,-33.44
38.500,-36.15
38.515,-38.92
38.531,-42.05
38.546,-45.67
38.562,-49.82
38.578,-54.43
38.593,-59.03
38.609,-62.98
38.625,-65.31
38.640,-65.19
38.656,-62.06
38.671,-55.9
38.687,-47.27
38.703,-37.08
38.718,-26.42
38.734,-16.09
38.750,-6.71
38.765,1.52
38.781,8.59
38.796,14.61
38.812,19.72
38.828,23.95
38.843,27.35
38.859,29.83
38.875,31.43
38.890,32.17
38.906,32.18
38.921,31.61
38.937,30.64
38.953,29.37
38.968,27.97
38.984,26.57
39.000,25.32
39.015,24.42
39.031,23.99
39.046,24.09
39.062,24.5
39.078,24.84
39.093,24.64
39.109,23.49
39.125,21.26
39.140,18.09
39.156,14.34
39.171,10.41
39.187,6.59
39.203,2.9
39.218,-0.81
39.234,-4.72
39.250,-8.97
39.265,-13.52
39.281,-18.15
39.296,-22.63
39.312,-26.82
39.328,-30.71
39.343,-34.48
39.359,-38.42
39.375,-42.86
39.390,-48.03
39.406,-53.93
39.421,-60.22
39.437,-66.24
39.453,-71.11
39.468,-73.86
39.484,-73.75
39.500,-70.45
39.515,-64.15
39.531,-55.48
39.546,-45.4
39.562,-34.97
39.578,-25.1
39.593,-16.5
39.609,-9.51
39.625,-4.15
39.640,-0.09
39.656,3.18
39.671,6.16
39.687,9.28
39.703,12.69
39.718,16.36
39.734,20.17
39.750,23.97
39.765,27.55
39.781,30.79
39.796,33.59
39.812,35.89
39.828,37.57
39.843,38.65
39.859,39.11
39.875,39.07
39.890,38.74
39.906,38.19
39.921,37.48
39.937,36.62
39.953,35.5
39.968,33.97
39.984,32.01
40.000,29.65
40.015,27.06
40.031,24.53
40.046,22.15
40.062,19.84
40.078,17.43
40.093,14.62
40.109,11.27
40.125,7.5
40.140,3.5
40.156,-0.4
40.171,-4.05
40.187,-7.56
40.203,-11.32
40.218,-15.77
40.234,-21.29
40.250,-27.86
40.265,-35.05
40.281,-42.02
40.296,-47.67
40.312,-50.89
40.328,-50.97
40.343,-47.59
40.359,-41.04
40.375,-32.11
40.390,-21.76
40.406,-11.03
40.421,-0.82
40.437,8.29
40.453,15.98
40.468,22.11
40.484,26.69
40.500,29.82
40.515,31.65
40.531,32.44
40.546,32.48
40.562,32.01
40.578,31.23
40.593,30.2
40.609,28.95
40.625,27.55
40.640,26.12
40.656,24.83
40.671,23.87
40.687,23.32
40.703,23.21
40.718,23.43
40.734,23.87
40.750,24.41
40.765,24.93
40.781,25.3
40.796,25.35
40.812,24.92
40.828,23.86
40.843,22.16
40.859,19.86
40.875,17.09
40.890,13.95
40.906,10.44
40.921,6.53
40.937,2.11
40.953,-2.88
40.968,-8.39
40.984,-14.18
41.000,-19.95
41.015,-25.33
41.031,-30.06
41.046,-34.15
41.062,-37.8
41.078,-41.44
41.093,-45.49
41.109,-50.16
41.125,-55.25
41.140,-60.15
41.156,-63.87
41.171,-65.35
41.187,-63.79
41.203,-58.83
41.218,-50.7
41.234,-40.13
41.250,-28.11
41.265,-15.67
41.281,-3.69
41.296,7.27
41.312,16.88
41.328,24.92
41.343,31.32
41.359,36.09
41.375,39.31
41.390,41.24
41.406,42.09
41.421,42.21
41.437,41.91
41.453,41.42
41.468,40.89
41.484,40.47
41.500,40.29
41.515,40.49
41.531,41.24
41.546,42.5
41.562,44.12
41.578,45.85
41.593,47.27
41.609,48.02
41.625,47.88
41.640,46.73
41.656,44.57
41.671,41.51
41.687,37.66
41.703,33.12
41.718,28.01
41.734,22.39
41.750,16.37
41.765,10.1
41.781,3.76
41.796,-2.43
41.812,-8.27
41.828,-13.73
41.843,-18.87
41.859,-23.94
41.875,-29.2
41.890,-34.82
41.906,-40.82
41.921,-47.0
41.937,-52.84
41.953,-57.48
41.968,-59.92
41.984,-59.24
42.000,-54.91
42.015,-47.01
42.031,-36.27
42.046,-23.89
42.062,-11.27
42.078,0.46
42.093,10.58
42.109,18.85
42.125,25.38
42.140,30.5
42.156,34.49
42.171,37.56
42.187,39.79
42.203,41.19
42.218,41.86
42.234,41.91
42.250,41.68
42.265,41.39
42.281,41.24
42.296,41.22
42.312,41.27
42.328,41.25
42.343,41.09
42.359,40.77
42.375,40.22
42.390,39.25
42.406,37.6
42.421,35.05
42.437,31.49
42.453,27.14
42.468,22.39
42.484,17.69
42.500,13.36
42.515,9.5
42.531,5.9
42.546,2.31
42.562,-1.57
42.578,-5.91
42.593,-10.73
42.609,-15.88
42.625,-21.09
42.640,-26.13
42.656,-30.79
42.671,-35.18
42.687,-39.53
42.703,-44.26
42.718,-49.49
42.734,-54.92
42.750,-59.65
42.765,-62.44
42.781,-62.1
42.796,-57.97
42.812,-50.25
42.828,-39.73
42.843,-27.72
42.859,-15.47
42.875,-3.9
42.890,6.43
42.906,15.3
42.921,22.66
42.937,28.53
42.953,32.94
42.968,36.07
42.984,38.16
43.000,39.41
43.015,40.07
43.031,40.3
43.046,40.16
43.062,39.68
43.078,38.89
43.093,37.86
43.109,36.72
43.125,35.65
43.140,34.72
43.156,34.08
43.171,33.7
43.187,33.52
43.203,33.4
43.218,33.08
43.234,32.32
43.250,30.94
43.265,28.85
43.281,26.06
43.296,22.63
43.312,18.52
43.328,13.74
43.343,8.33
43.359,2.43
43.375,-3.67
43.390,-9.59
43.406,-14.98
43.421,-19.61
43.437,-23.52
43.453,-26.94
43.468,-30.19
43.484,-33.65
43.500,-37.61
43.515,-42.23
43.531,-47.44
43.546,-52.94
43.562,-58.01
43.578,-61.65
43.593,-62.83
43.609,-60.7
43.625,-54.96
43.640,-46.08
43.656,-35.02
43.671,-23.06
43.687,-11.43
43.703,-0.95
43.718,8.06
43.734,15.59
43.750,21.88
43.765,27.2
43.781,31.68
43.796,35.34
43.812,38.14
43.828,40.03
43.843,41.06
43.859,41.41
43.875,41.33
43.890,41.03
43.906,40.65
43.921,40.27
43.937,39.84
43.953,39.38
43.968,38.88
43.984,38.41
44.000,37.99
44.015,37.5
44.031,36.7
44.046,35.22
44.062,32.8
44.078,29.45
44.093,25.4
44.109,21.07
44.125,16.94
44.140,13.27
44.156,10.16
44.171,7.39
44.187,4.62
44.203,1.47
44.218,-2.15
44.234,-6.18
44.250,-10.35
44.265,-14.33
44.281,-17.95
44.296,-21.22
44.312,-24.32
44.328,-27.56
44.343,-31.27
44.359,-35.66
44.375,-40.76
44.390,-46.42
44.406,-52.23
44.421,-57.53
44.437,-61.45
44.453,-62.96
44.468,-61.27
44.484,-56.16
44.500,-47.98
44.515,-37.71
44.531,-26.58
44.546,-15.74
44.562,-6.1
44.578,1.96
44.593,8.5
44.609,13.88
44.625,18.5
44.640,22.69
44.656,26.52
44.671,29.9
44.687,32.66
44.703,34.64
44.718,35.8
44.734,36.31
44.750,36.43
44.765,36.38
44.781,36.33
44.796,36.17
44.812,35.86
44.828,35.4
44.843,34.92
44.859,34.53
44.875,34.29
44.890,34.07
44.906,33.53
44.921,32.38
44.937,30.25
44.953,27.09
44.968,23.13
44.984,18.78
45.000,14.44
45.015,10.44
45.031,6.75
45.046,3.2
45.062,-0.48
45.078,-4.48
45.093,-8.74
45.109,-12.99
45.125,-16.89
45.140,-20.18
45.156,-22.85
45.171,-25.18
45.187,-27.49
45.203,-30.11
45.218,-33.21
45.234,-36.84
45.250,-41.01
45.265,-45.76
45.281,-50.96
45.296,-56.2
45.312,-60.76
45.328,-63.65
45.343,-63.8
45.359,-60.56
45.375,-53.89
45.390,-44.44
45.406,-33.38
45.421,-21.95
45.437,-11.16
45.453,-1.62
45.468,6.46
45.484,13.19
45.500,18.65
45.515,22.96
45.531,26.15
45.546,28.3
45.562,29.54
45.578,30.11
45.593,30.26
45.609,30.2
45.625,30.11
45.640,30.04
45.656,29.99
45.671,29.9
45.687,29.76
45.703,29.52
45.718,29.2
45.734,28.86
45.750,28.48
45.765,28.02
45.781,27.28
45.796,26.03
45.812,24.04
45.828,21.18
45.843,17.5
45.859,13.21
45.875,8.6
45.890,3.94
45.906,-0.54
45.921,-4.83
45.937,-8.97
45.953,-12.99
45.968,-16.99
45.984,-20.94
46.000,-24.82
46.015,-28.6
46.031,-32.26
46.046,-35.74
46.062,-39.08
46.078,-42.32
46.093,-45.47
46.109,-48.72
46.125,-52.25
46.140,-56.24
46.156,-60.86
46.171,-66.02
46.187,-71.18
46.203,-75.53
46.218,-77.85
46.234,-77.0
46.250,-72.22
46.265,-63.38
46.281,-51.04
46.296,-36.42
46.312,-20.89
46.328,-5.67
46.343,8.48
46.359,21.34
46.375,32.98
46.390,43.52
46.406,52.97
46.421,61.25
46.437,68.14
46.453,73.69
46.468,78.11
46.484,81.65
46.500,84.56
46.515,86.77
46.531,87.96
46.546,87.75
46.562,86.04
46.578,83.06
46.593,79.36
46.609,75.71
46.625,72.55
46.640,70.08
46.656,68.03
46.671,65.9
46.687,63.25
46.703,59.92
46.718,56.08
46.734,52.1
46.750,48.33
46.765,44.85
46.781,41.54
46.796,37.98
46.812,33.8
46.828,28.76
46.843,22.75
46.859,15.89
46.875,8.28
46.890,0.05
46.906,-8.7
46.921,-17.8
46.937,-26.97
46.953,-35.89
46.968,-44.15
46.984,-51.58
47.000,-58.22
47.015,-64.27
47.031,-69.86
47.046,-74.88
47.062,-78.77
47.078,-80.68
47.093,-79.8
47.109,-75.67
47.125,-68.48
47.140,-59.07
47.156,-48.68
47.171,-38.48
47.187,-29.28
47.203,-21.39
47.218,-14.82
47.234,-9.47
47.250,-5.31
47.265,-2.53
47.281,-1.22
47.296,-1.37
47.312,-2.7
47.328,-4.65
47.343,-6.53
47.359,-7.62
47.375,-7.36
47.390,-5.33
47.406,-1.24
47.421,4.95
47.437,12.97
47.453,22.23
47.468,31.96
47.484,41.38
47.500,49.93
47.515,57.32
47.531,63.35
47.546,67.97
47.562,71.01
47.578,72.35
47.593,71.96
47.609,70.06
47.625,67.0
47.640,63.22
47.656,59.02
47.671,54.36
47.687,49.1
47.703,43.19
47.718,36.79
47.734,30.28
47.750,24.21
47.765,18.82
47.781,14.14
47.796,9.94
47.812,5.75
47.828,1.2
47.843,-4.09
47.859,-10.52
47.875,-18.44
47.890,-28.05
47.906,-39.19
47.921,-51.07
47.937,-62.38
47.953,-71.69
47.968,-77.83
47.984,-80.43
48.000,-79.96
48.015,-77.44
48.031,-74.02
48.046,-70.44
48.062,-66.84
48.078,-62.88
48.093,-58.0
48.109,-51.74
48.125,-43.92
48.140,-34.65
48.156,-24.14
48.171,-12.7
48.187,-0.56
48.203,12.08
48.218,24.95
48.234,37.64
48.250,49.55
48.265,60.01
48.281,68.46
48.296,74.54
48.312,78.18
48.328,79.55
48.343,79.02
48.359,77.02
48.375,74.01
48.390,70.28
48.406,65.86
48.421,60.64
48.437,54.22
48.453,46.21
48.468,36.42
48.484,24.91
48.500,12.14
48.515,-1.12
48.531,-14.1
48.546,-26.24
48.562,-37.29
48.578,-47.26
48.593,-56.35
48.609,-64.68
48.625,-72.39
48.640,-79.54
48.656,-86.28
48.671,-92.82
48.687,-99.58
48.703,-106.89
48.718,-115.12
48.734,-124.28
48.750,-134.16
48.765,-144.29
48.781,-153.89
48.796,-162.07
48.812,-167.77
48.828,-170.02
48.843,-167.87
48.859,-160.77
48.875,-148.47
48.890,-131.37
48.906,-110.5
48.921,-87.26
48.937,-63.26
48.953,-39.87
48.968,-18.06
48.984,1.66
49.000,19.1
49.015,34.23
49.031,46.94
49.046,57.09
49.062,64.57
49.078,69.36
49.093,71.68
49.109,71.92
49.125,70.61
49.140,68.29
49.156,65.38
49.171,62.21
49.187,58.88
49.203,55.41
49.218,51.65
49.234,47.4
49.250,42.37
49.265,36.27
49.281,28.83
49.296,19.93
49.312,9.77
49.328,-1.02
49.343,-11.44
49.359,-20.41
49.375,-27.11
49.390,-31.36
49.406,-33.63
49.421,-34.73
49.437,-35.55
49.453,-36.54
49.468,-37.59
49.484,-38.39
49.500,-38.57
49.515,-38.04
49.531,-37.06
49.546,-36.03
49.562,-35.2
49.578,-34.53
49.593,-33.64
49.609,-31.8
49.625,-28.42
49.640,-23.01
49.656,-15.46
49.671,-6.22
49.687,3.91
49.703,13.97
49.718,23.01
49.734,30.4
49.750,36.02
49.765,40.09
49.781,43.1
49.796,45.48
49.812,47.23
49.828,48.06
49.843,47.42
49.859,44.89
49.875,40.46
49.890,34.63
49.906,28.13
49.921,21.79
49.937,16.27
49.953,11.93
49.968,9.03
49.984,7.72
50.000,8.12
50.015,10.1
50.031,13.22
50.046,16.54
50.062,19.11
50.078,20.25
50.093,19.87
50.109,18.51
50.125,17.02
50.140,16.24
50.156,16.52
50.171,17.65
50.187,18.89
50.203,19.22
50.218,17.81
50.234,14.28
50.250,8.91
50.265,2.48
50.281,-3.98
50.296,-9.57
50.312,-13.83
50.328,-16.88
50.343,-19.34
50.359,-22.12
50.375,-26.16
50.390,-32.03
50.406,-39.7
50.421,-48.41
50.437,-56.63
50.453,-62.37
50.468,-63.89
50.484,-60.16
50.500,-51.28
50.515,-38.44
50.531,-23.37
50.546,-7.99
50.562,6.13
50.578,17.96
50.593,27.03
50.609,33.42
50.625,37.69
50.640,40.89
50.656,44.33
50.671,49.32
50.687,56.78
50.703,66.93
50.718,79.25
50.734,92.72
50.750,106.17
50.765,118.48
50.781,128.7
50.796,135.91
50.812,139.23
50.828,137.69
50.843,130.56
50.859,117.43
50.875,98.46
50.890,74.55
50.906,47.12
50.921,17.93
50.937,-11.09
50.953,-38.03
50.968,-61.3
50.984,-79.87
51.000,-93.47
51.015,-102.59
51.031,-108.12
51.046,-111.03
51.062,-112.02
51.078,-111.3
51.093,-108.81
51.109,-104.57
51.125,-98.95
51.140,-92.88
51.156,-87.67
51.171,-84.52
51.187,-84.15
51.203,-86.41
51.218,-90.2
51.234,-93.69
51.250,-94.63
51.265,-90.98
51.281,-81.4
51.296,-65.69
51.312,-44.89
51.328,-20.92
51.343,3.85
51.359,27.17
51.375,47.32
51.390,63.42
51.406,75.39
51.421,83.81
51.437,89.55
51.453,93.54
51.468,96.51
51.484,98.89
51.500,100.81
51.515,102.09
51.531,102.56
51.546,102.09
51.562,100.76
51.578,98.79
51.593,96.47
51.609,94.0
51.625,91.47
51.640,88.9
51.656,86.18
51.671,83.14
51.687,79.58
51.703,75.38
51.718,70.45
51.734,64.73
51.750,58.23
51.765,50.89
51.781,42.75
51.796,34.13
51.812,25.6
51.828,18.0
51.843,12.26
51.859,8.9
51.875,7.83
51.890,8.26
51.906,8.93
51.921,8.62
51.937,6.56
51.953,2.61
51.968,-2.81
51.984,-8.97
52.000,-15.02
52.015,-20.16
52.031,-23.6
52.046,-24.72
52.062,-23.03
52.078,-18.45
52.093,-11.43
52.109,-2.87
52.125,6.0
52.140,14.02
52.156,20.34
52.171,24.59
52.187,26.71
52.203,27.02
52.218,25.83
52.234,23.42
52.250,19.95
52.265,15.57
52.281,10.39
52.296,4.54
52.312,-1.72
52.328,-8.24
52.343,-14.79
52.359,-21.22
52.375,-27.53
52.390,-33.75
52.406,-39.88
52.421,-45.87
52.437,-51.54
52.453,-56.55
52.468,-60.7
52.484,-63.78
52.500,-65.78
52.515,-66.79
52.531,-66.92
52.546,-66.32
52.562,-65.07
52.578,-63.27
52.593,-61.0
52.609,-58.42
52.625,-55.7
52.640,-53.06
52.656,-50.7
52.671,-48.77
52.687,-47.48
52.703,-47.03
52.718,-47.66
52.734,-49.43
52.750,-52.27
52.765,-55.69
52.781,-58.71
52.796,-60.04
52.812,-58.21
52.828,-52.1
52.843,-41.3
52.859,-26.35
52.875,-8.62
52.890,9.96
52.906,27.5
52.921,42.62
52.937,54.55
52.953,63.17
52.968,68.71
52.984,71.46
53.000,71.8
53.015,70.15
53.031,67.08
53.046,63.25
53.062,59.36
53.078,55.84
53.093,52.82
53.109,50.11
53.125,47.36
53.140,44.28
53.156,40.83
53.171,37.2
53.187,33.72
53.203,30.59
53.218,27.78
53.234,25.14
53.250,22.49
53.265,19.67
53.281,16.71
53.296,13.68
53.312,10.61
53.328,7.33
53.343,3.61
53.359,-0.76
53.375,-5.8
53.390,-11.32
53.406,-17.04
53.421,-22.67
53.437,-28.19
53.453,-33.73
53.468,-39.55
53.484,-45.82
53.500,-52.37
53.515,-58.78
53.531,-64.45
53.546,-68.65
53.562,-70.64
53.578,-69.91
53.593,-66.14
53.609,-59.39
53.625,-50.11
53.640,-39.08
53.656,-27.27
53.671,-15.64
53.687,-4.95
53.703,4.41
53.718,12.29
53.734,18.77
53.750,24.02
53.765,28.23
53.781,31.52
53.796,34.02
53.812,35.76
53.828,36.74
53.843,37.0
53.859,36.58
53.875,35.64
53.890,34.44
53.906,33.24
53.921,32.31
53.937,31.75
53.953,31.56
53.968,31.6
53.984,31.63
54.000,31.38
54.015,30.67
54.031,29.34
54.046,27.32
54.062,24.69
54.078,21.51
54.093,17.88
54.109,13.88
54.125,9.53
54.140,4.82
54.156,-0.19
54.171,-5.46
54.187,-10.93
54.203,-16.47
54.218,-22.01
54.234,-27.47
54.250,-32.8
54.265,-37.94
54.281,-42.9
54.296,-47.68
54.312,-52.32
54.328,-56.79
54.343,-60.8
54.359,-63.86
54.375,-65.23
54.390,-64.18
54.406,-60.17
54.421,-53.2
54.437,-43.76
54.453,-32.78
54.468,-21.42
54.484,-10.69
54.500,-1.27
54.515,6.63
54.531,13.19
54.546,18.7
54.562,23.4
54.578,27.39
54.593,30.57
54.609,32.82
54.625,34.06
54.640,34.36
54.656,33.93
54.671,33.05
54.687,32.0
54.703,30.99
54.718,30.16
54.734,29.56
54.750,29.25
54.765,29.26
54.781,29.5
54.796,29.81
54.812,29.97
54.828,29.68
54.843,28.7
54.859,26.98
54.875,24.57
54.890,21.59
54.906,18.27
54.921,14.85
54.937,11.47
54.953,8.16
54.968,4.84
54.984,1.25
55.000,-2.83
55.015,-7.63
55.031,-13.19
55.046,-19.3
55.062,-25.63
55.078,-31.74
55.093,-37.37
55.109,-42.39
55.125,-46.89
55.140,-50.98
55.156,-54.76
55.171,-58.16
55.187,-60.87
55.203,-62.35
55.218,-61.95
55.234,-59.1
55.250,-53.49
55.265,-45.37
55.281,-35.43
55.296,-24.69
55.312,-14.19
55.328,-4.68
55.343,3.47
55.359,10.2
55.375,15.64
55.390,20.02
55.406,23.44
55.421,25.99
55.437,27.83
55.453,29.12
55.468,29.99
55.484,30.51
55.500,30.69
55.515,30.49
55.531,29.95
55.546,29.24
55.562,28.52
55.578,27.99
55.593,27.77
55.609,27.85
55.625,28.05
55.640,28.16
55.656,27.91
55.671,27.09
55.687,25.58
55.703,23.39
55.718,20.66
55.734,17.52
55.750,14.13
55.765,10.61
55.781,6.98
55.796,3.3
55.812,-0.38
55.828,-4.0
55.843,-7.5
55.859,-10.88
55.875,-14.3
55.890,-17.87
55.906,-21.58
55.921,-25.35
55.937,-28.95
55.953,-32.21
55.968,-35.14
55.984,-37.95
56.000,-41.07
56.015,-44.91
56.031,-49.7
56.046,-55.22
56.062,-60.75
56.078,-65.27
56.093,-67.69
56.109,-67.08
56.125,-63.02
56.140,-55.67
56.156,-45.71
56.171,-34.25
56.187,-22.47
56.203,-11.41
56.218,-1.81
56.234,6.01
56.250,12.06
56.265,16.57
56.281,19.87
56.296,22.34
56.312,24.17
56.328,25.56
56.343,26.56
56.359,27.17
56.375,27.39
56.390,27.26
56.406,26.87
56.421,26.33
56.437,25.88
56.453,25.62
56.468,25.63
56.484,25.86
56.500,26.21
56.515,26.62
56.531,26.95
56.546,27.09
56.562,26.8
56.578,25.94
56.593,24.27
56.609,21.77
56.625,18.54
56.640,14.9
56.656,11.28
56.671,8.0
56.687,5.14
56.703,2.61
56.718,0.22
56.734,-2.31
56.750,-4.96
56.765,-7.73
56.781,-10.43
56.796,-12.96
56.812,-15.35
56.828,-17.78
56.843,-20.57
56.859,-23.98
56.875,-28.31
56.890,-33.45
56.906,-39.09
56.921,-44.52
56.937,-48.76
56.953,-50.79
56.968,-49.76
56.984,-45.33
57.000,-37.71
57.015,-27.72
57.031,-16.43
57.046,-5.04
57.062,5.42
57.078,14.36
57.093,21.53
57.109,26.98
57.125,30.89
57.140,33.43
57.156,34.71
57.171,34.82
57.187,33.92
57.203,32.31
57.218,30.4
57.234,28.62
57.250,27.25
57.265,26.34
57.281,25.85
57.296,25.64
57.312,25.57
57.328,25.58
57.343,25.63
57.359,25.67
57.375,25.51
57.390,25.01
57.406,23.91
57.421,22.13
57.437,19.6
57.453,16.4
57.468,12.8
57.484,9.06
57.500,5.47
57.515,2.15
57.531,-0.9
57.546,-3.81
57.562,-6.81
57.578,-10.11
57.593,-13.79
57.609,-17.77
57.625,-21.83
57.640,-25.75
57.656,-29.34
57.671,-32.68
57.687,-35.96
57.703,-39.48
57.718,-43.54
57.734,-48.22
57.750,-53.34
57.765,-58.48
57.781,-62.95
57.796,-65.88
57.812,-66.51
57.828,-64.25
57.843,-58.9
57.859,-50.74
57.875,-40.48
57.890,-29.12
57.906,-17.68
57.921,-7.06
57.937,2.22
57.953,9.94
57.968,16.13
57.984,21.01
58.000,24.81
58.015,27.72
58.031,29.79
58.046,31.08
58.062,31.55
58.078,31.33
58.093,30.59
58.109,29.59
58.125,28.57
58.140,27.7
58.156,27.09
58.171,26.73
58.187,26.65
58.203,26.79
58.218,27.09
58.234,27.31
58.250,27.23
58.265,26.54
58.281,25.01
58.296,22.56
58.312,19.28
58.328,15.42
58.343,11.27
58.359,7.15
58.375,3.34
58.390,0.01
58.406,-2.86
58.421,-5.52
58.437,-8.34
58.453,-11.66
58.468,-15.63
58.484,-20.16
58.500,-24.89
58.515,-29.42
58.531,-33.49
58.546,-37.1
58.562,-40.6
58.578,-44.46
58.593,-49.08
58.609,-54.64
58.625,-60.89
58.640,-67.19
58.656,-72.53
58.671,-75.8
58.687,-75.96
58.703,-72.36
58.718,-64.87
58.734,-54.07
58.750,-40.99
58.765,-27.01
58.781,-13.48
58.796,-1.47
58.812,8.37
58.828,15.9
58.843,21.39
58.859,25.3
58.875,28.07
58.890,30.01
58.906,31.27
58.921,31.92
58.937,32.06
58.953,31.88
58.968,31.66
58.984,31.72
59.000,32.16
59.015,32.92
59.031,33.68
59.046,34.19
59.062,34.3
59.078,34.05
59.093,33.53
59.109,32.79
59.125,31.7
59.140,29.93
59.156,27.23
59.171,23.49
59.187,18.95
59.203,14.11
59.218,9.6
59.234,5.85
59.250,2.96
59.265,0.65
59.281,-1.67
59.296,-4.59
59.312,-8.4
59.328,-13.13
59.343,-18.43
59.359,-23.85
59.375,-28.86
59.390,-33.18
59.406,-36.82
59.421,-40.05
59.437,-43.37
59.453,-47.19
59.468,-51.89
59.484,-57.47
59.500,-63.61
59.515,-69.48
59.531,-73.94
59.546,-75.76
59.562,-73.95
59.578,-68.11
59.593,-58.55
59.609,-46.27
59.625,-32.69
59.640,-19.27
59.656,-7.17
59.671,2.98
59.687,11.11
59.703,17.54
59.718,22.71
59.734,26.97
59.750,30.53
59.765,33.42
59.781,35.68
59.796,37.28
59.812,38.34
59.828,39.1
59.843,39.79
59.859,40.63
59.875,41.81
59.890,43.36
59.906,45.15
59.921,46.97
59.937,48.44
59.953,49.21
59.968,49.02
59.984,47.73
