timestamp,value
00.000,-0.27
00.015,-0.32
00.031,-0.54
00.046,-0.85
00.062,-1.12
00.078,-1.24
00.093,-1.14
00.109,-0.82
00.125,-0.41
00.140,-0.02
00.156,0.28
00.171,0.44
00.187,0.54
00.203,0.63
00.218,0.72
00.234,0.76
00.250,0.68
00.265,0.42
00.281,0.02
00.296,-0.45
00.312,-0.84
00.328,-1.05
00.343,-1.06
00.359,-0.9
00.375,-0.67
00.390,-0.46
00.406,-0.36
00.421,-0.38
00.437,-0.52
00.453,-0.7
00.468,-0.83
00.484,-0.83
00.500,-0.63
00.515,-0.27
00.531,0.16
00.546,0.55
00.562,0.74
00.578,0.71
00.593,0.48
00.609,0.16
00.625,-0.13
00.640,-0.24
00.656,-0.12
00.671,0.24
00.687,0.72
00.703,1.18
00.718,1.44
00.734,1.39
00.750,1.08
00.765,0.64
00.781,0.26
00.796,0.1
00.812,0.17
00.828,0.4
00.843,0.65
00.859,0.8
00.875,0.78
00.890,0.62
00.906,0.36
00.921,0.05
00.937,-0.27
00.953,-0.61
00.968,-0.93
00.984,-1.22
01.000,-1.45
01.015,-1.56
01.031,-1.54
01.046,-1.37
01.062,-1.08
01.078,-0.73
01.093,-0.43
01.109,-0.28
01.125,-0.37
01.140,-0.68
01.156,-1.12
01.171,-1.5
01.187,-1.62
01.203,-1.35
01.218,-0.69
01.234,0.17
01.250,0.98
01.265,1.49
01.281,1.57
01.296,1.25
01.312,0.67
01.328,0.04
01.343,-0.48
01.359,-0.77
01.375,-0.81
01.390,-0.59
01.406,-0.17
01.421,0.39
01.437,0.95
01.453,1.39
01.468,1.62
01.484,1.64
01.500,1.56
01.515,1.47
01.531,1.48
01.546,1.56
01.562,1.63
01.578,1.6
01.593,1.41
01.609,1.11
01.625,0.73
01.640,0.36
01.656,-0.03
01.671,-0.42
01.687,-0.82
01.703,-1.17
01.718,-1.37
01.734,-1.39
01.750,-1.26
01.765,-1.07
01.781,-0.91
01.796,-0.79
01.812,-0.68
01.828,-0.45
01.843,-0.1
01.859,0.31
01.875,0.64
01.890,0.74
01.906,0.57
01.921,0.24
01.937,-0.12
01.953,-0.33
01.968,-0.29
01.984,-0.04
02.000,0.32
02.015,0.64
02.031,0.8
02.046,0.79
02.062,0.6
02.078,0.34
02.093,0.11
02.109,-0.04
02.125,-0.14
02.140,-0.29
02.156,-0.58
02.171,-1.04
02.187,-1.56
02.203,-1.94
02.218,-2.02
02.234,-1.75
02.250,-1.23
02.265,-0.67
02.281,-0.25
02.296,-0.02
02.312,0.07
02.328,0.14
02.343,0.24
02.359,0.35
02.375,0.38
02.390,0.31
02.406,0.15
02.421,0.01
02.437,-0.03
02.468,0.04
02.484,-0.03
02.500,-0.23
02.515,-0.48
02.531,-0.66
02.546,-0.63
02.562,-0.36
02.578,0.07
02.593,0.51
02.609,0.78
02.625,0.82
02.640,0.65
02.656,0.4
02.671,0.22
02.687,0.2
02.703,0.38
02.718,0.7
02.734,1.08
02.750,1.43
02.765,1.66
02.781,1.74
02.796,1.69
02.812,1.49
02.828,1.18
02.843,0.82
02.859,0.47
02.875,0.2
02.890,0.07
02.906,0.06
02.921,0.12
02.937,0.17
02.953,0.14
02.968,-0.02
02.984,-0.33
03.000,-0.76
03.015,-1.25
03.031,-1.68
03.046,-1.94
03.062,-1.96
03.078,-1.73
03.093,-1.37
03.109,-1.0
03.125,-0.73
03.140,-0.58
03.156,-0.51
03.171,-0.42
03.187,-0.26
03.203,-0.04
03.218,0.19
03.234,0.36
03.250,0.46
03.265,0.52
03.281,0.58
03.296,0.65
03.312,0.72
03.328,0.76
03.343,0.78
03.359,0.81
03.375,0.85
03.390,0.83
03.406,0.68
03.421,0.34
03.437,-0.12
03.453,-0.54
03.468,-0.77
03.484,-0.72
03.500,-0.45
03.515,-0.11
03.531,0.15
03.546,0.3
03.562,0.35
03.578,0.38
03.593,0.4
03.609,0.37
03.625,0.22
03.640,-0.05
03.656,-0.33
03.671,-0.5
03.687,-0.45
03.703,-0.18
03.718,0.18
03.734,0.5
03.750,0.62
03.765,0.5
03.781,0.15
03.796,-0.35
03.812,-0.87
03.828,-1.28
03.843,-1.44
03.859,-1.3
03.875,-0.85
03.890,-0.22
03.906,0.41
03.921,0.84
03.937,0.95
03.953,0.74
03.968,0.35
03.984,-0.05
04.000,-0.31
04.015,-0.38
04.031,-0.32
04.046,-0.22
04.062,-0.19
04.078,-0.25
04.093,-0.43
04.109,-0.7
04.125,-1.03
04.140,-1.39
04.156,-1.67
04.171,-1.79
04.187,-1.63
04.203,-1.17
04.218,-0.49
04.234,0.28
04.250,0.94
04.265,1.39
04.281,1.57
04.296,1.55
04.312,1.42
04.328,1.31
04.343,1.27
04.359,1.32
04.375,1.38
04.390,1.38
04.406,1.25
04.421,1.01
04.437,0.72
04.453,0.43
04.468,0.16
04.484,-0.12
04.500,-0.45
04.515,-0.83
04.531,-1.2
04.546,-1.49
04.562,-1.64
04.578,-1.66
04.593,-1.62
04.609,-1.54
04.625,-1.43
04.640,-1.25
04.656,-0.95
04.671,-0.57
04.687,-0.18
04.703,0.11
04.718,0.27
04.734,0.33
04.750,0.38
04.765,0.49
04.781,0.65
04.796,0.83
04.812,0.98
04.828,1.07
04.843,1.13
04.859,1.2
04.875,1.28
04.890,1.3
04.906,1.19
04.921,0.91
04.937,0.49
04.953,0.03
04.968,-0.34
04.984,-0.53
05.000,-0.53
05.015,-0.4
05.031,-0.21
05.046,-0.03
05.062,0.12
05.078,0.29
05.093,0.51
05.109,0.79
05.125,1.08
05.140,1.29
05.156,1.34
05.171,1.2
05.187,0.91
05.203,0.53
05.218,0.17
05.234,-0.13
05.250,-0.34
05.265,-0.48
05.281,-0.6
05.296,-0.71
05.312,-0.82
05.328,-0.87
05.343,-0.82
05.359,-0.59
05.375,-0.2
05.390,0.28
05.406,0.65
05.421,0.72
05.437,0.36
05.453,-0.39
05.468,-1.31
05.484,-2.11
05.500,-2.54
05.515,-2.51
05.531,-2.12
05.546,-1.58
05.562,-1.11
05.578,-0.82
05.593,-0.72
05.609,-0.68
05.625,-0.57
05.640,-0.3
05.656,0.14
05.671,0.63
05.687,1.07
05.703,1.34
05.718,1.37
05.734,1.2
05.750,0.9
05.765,0.55
05.781,0.24
05.796,0.02
05.812,-0.1
05.828,-0.12
05.843,-0.05
05.859,0.11
05.875,0.3
05.890,0.48
05.906,0.59
05.921,0.6
05.937,0.56
05.953,0.55
05.968,0.61
05.984,0.74
06.000,0.86
06.015,0.88
06.031,0.77
06.046,0.58
06.062,0.41
06.078,0.36
06.093,0.44
06.109,0.6
06.125,0.75
06.140,0.83
06.156,0.79
06.171,0.63
06.187,0.39
06.203,0.11
06.218,-0.17
06.234,-0.41
06.250,-0.57
06.265,-0.62
06.281,-0.56
06.296,-0.4
06.312,-0.15
06.328,0.15
06.343,0.41
06.359,0.53
06.375,0.42
06.390,0.07
06.406,-0.43
06.421,-0.89
06.437,-1.12
06.453,-1.08
06.468,-0.84
06.484,-0.62
06.500,-0.62
06.515,-0.93
06.531,-1.51
06.546,-2.2
06.562,-2.81
06.578,-3.22
06.593,-3.34
06.609,-3.12
06.625,-2.54
06.640,-1.62
06.656,-0.47
06.671,0.68
06.687,1.55
06.703,1.92
06.718,1.73
06.734,1.17
06.750,0.53
06.765,0.1
06.781,0.07
06.796,0.42
06.812,1.02
06.828,1.68
06.843,2.24
06.859,2.59
06.875,2.67
06.890,2.47
06.906,2.07
06.921,1.58
06.937,1.15
06.953,0.83
06.968,0.61
06.984,0.38
07.000,0.04
07.015,-0.4
07.031,-0.83
07.046,-1.12
07.062,-1.17
07.078,-1.08
07.093,-0.95
07.109,-0.93
07.125,-1.05
07.140,-1.26
07.156,-1.45
07.171,-1.55
07.187,-1.52
07.203,-1.36
07.218,-1.09
07.234,-0.73
07.250,-0.33
07.265,0.09
07.281,0.45
07.296,0.73
07.312,0.96
07.328,1.15
07.343,1.3
07.359,1.35
07.375,1.24
07.390,0.94
07.406,0.54
07.421,0.16
07.437,-0.04
07.453,-0.02
07.468,0.12
07.484,0.25
07.500,0.2
07.515,-0.06
07.531,-0.45
07.546,-0.79
07.562,-0.93
07.578,-0.82
07.593,-0.52
07.609,-0.16
07.625,0.11
07.640,0.21
07.656,0.13
07.671,-0.04
07.687,-0.21
07.703,-0.28
07.718,-0.24
07.734,-0.09
07.750,0.12
07.765,0.34
07.781,0.55
07.796,0.75
07.812,0.93
07.828,1.06
07.843,1.11
07.859,1.02
07.875,0.78
07.890,0.42
07.906,0.04
07.921,-0.22
07.937,-0.27
07.953,-0.12
07.968,0.15
07.984,0.37
08.000,0.44
08.015,0.36
08.031,0.22
08.046,0.13
08.062,0.18
08.078,0.35
08.093,0.55
08.109,0.69
08.125,0.67
08.140,0.48
08.156,0.21
08.171,-0.07
08.187,-0.26
08.203,-0.29
08.218,-0.17
08.234,0.07
08.250,0.33
08.265,0.5
08.281,0.52
08.296,0.39
08.312,0.18
08.328,-0.02
08.343,-0.17
08.359,-0.3
08.375,-0.48
08.390,-0.78
08.406,-1.19
08.421,-1.61
08.437,-1.91
08.453,-2.02
08.468,-1.92
08.484,-1.7
08.500,-1.48
08.515,-1.3
08.531,-1.13
08.546,-0.93
08.562,-0.73
08.578,-0.59
08.593,-0.62
08.609,-0.85
08.625,-1.2
08.640,-1.5
08.656,-1.57
08.671,-1.35
08.687,-0.9
08.703,-0.41
08.718,-0.01
08.734,0.24
08.750,0.4
08.765,0.58
08.781,0.86
08.796,1.21
08.812,1.48
08.828,1.55
08.843,1.38
08.859,1.05
08.875,0.73
08.890,0.58
08.906,0.65
08.921,0.86
08.937,1.07
08.953,1.16
08.968,1.11
08.984,0.99
09.000,0.88
09.015,0.85
09.031,0.87
09.046,0.86
09.062,0.78
09.078,0.63
09.093,0.49
09.109,0.42
09.125,0.46
09.140,0.55
09.156,0.62
09.171,0.6
09.187,0.48
09.203,0.32
09.218,0.19
09.234,0.12
09.250,0.14
09.265,0.21
09.281,0.28
09.296,0.33
09.312,0.3
09.328,0.18
09.343,-0.04
09.359,-0.33
09.375,-0.66
09.390,-0.95
09.406,-1.13
09.421,-1.16
09.437,-1.06
09.453,-0.88
09.468,-0.73
09.484,-0.64
09.500,-0.62
09.515,-0.63
09.531,-0.6
09.546,-0.5
09.562,-0.34
09.578,-0.19
09.593,-0.1
09.609,-0.09
09.625,-0.11
09.640,-0.09
09.656,0.01
09.671,0.2
09.687,0.42
09.703,0.6
09.718,0.66
09.734,0.59
09.750,0.41
09.765,0.2
09.781,0.01
09.796,-0.12
09.812,-0.22
09.828,-0.36
09.843,-0.57
09.859,-0.82
09.875,-0.99
09.890,-0.95
09.906,-0.61
09.921,-0.03
09.937,0.59
09.953,0.99
09.968,0.99
09.984,0.59
10.000,-0.06
10.015,-0.69
10.031,-1.11
10.046,-1.25
10.062,-1.14
10.078,-0.87
10.093,-0.53
10.109,-0.18
10.125,0.14
10.140,0.35
10.156,0.38
10.171,0.19
10.187,-0.15
10.203,-0.5
10.218,-0.71
10.234,-0.66
10.250,-0.34
10.265,0.18
10.281,0.77
10.296,1.28
10.312,1.6
10.328,1.67
10.343,1.47
10.359,1.03
10.375,0.41
10.390,-0.27
10.406,-0.88
10.421,-1.3
10.437,-1.45
10.453,-1.34
10.468,-1.05
10.484,-0.69
10.500,-0.39
10.515,-0.19
10.531,-0.09
10.562,0.13
10.578,0.3
10.593,0.42
10.609,0.42
10.625,0.25
10.640,-0.05
10.656,-0.36
10.671,-0.59
10.687,-0.7
10.703,-0.74
10.718,-0.76
10.734,-0.82
10.750,-0.88
10.765,-0.9
10.781,-0.8
10.796,-0.59
10.812,-0.35
10.828,-0.15
10.843,-0.06
10.859,-0.05
10.875,-0.06
10.890,0.02
10.906,0.24
10.921,0.54
10.937,0.84
10.953,1.01
10.968,1.01
10.984,0.87
11.000,0.73
11.015,0.73
11.031,0.97
11.046,1.4
11.062,1.88
11.078,2.22
11.093,2.26
11.109,1.98
11.125,1.5
11.140,1.0
11.156,0.67
11.171,0.6
11.187,0.71
11.203,0.86
11.218,0.93
11.234,0.84
11.250,0.65
11.265,0.47
11.281,0.41
11.296,0.46
11.312,0.55
11.328,0.56
11.343,0.39
11.359,0.06
11.375,-0.32
11.390,-0.6
11.406,-0.68
11.421,-0.56
11.437,-0.37
11.453,-0.28
11.468,-0.4
11.484,-0.7
11.500,-1.04
11.515,-1.2
11.531,-1.06
11.546,-0.65
11.562,-0.13
11.578,0.25
11.593,0.32
11.609,0.03
11.625,-0.53
11.640,-1.14
11.656,-1.63
11.671,-1.9
11.687,-1.96
11.703,-1.89
11.718,-1.74
11.734,-1.53
11.750,-1.26
11.765,-0.92
11.781,-0.53
11.796,-0.16
11.812,0.07
11.828,0.1
11.843,-0.06
11.859,-0.35
11.875,-0.66
11.890,-0.88
11.906,-0.97
11.921,-0.93
11.937,-0.79
11.953,-0.56
11.968,-0.26
11.984,0.12
12.000,0.53
12.015,0.93
12.031,1.26
12.046,1.49
12.062,1.65
12.078,1.75
12.093,1.79
12.109,1.77
12.125,1.64
12.140,1.4
12.156,1.09
12.171,0.78
12.187,0.57
12.203,0.5
12.218,0.56
12.234,0.63
12.250,0.57
12.265,0.32
12.281,-0.09
12.296,-0.52
12.312,-0.82
12.328,-0.91
12.343,-0.79
12.359,-0.54
12.375,-0.25
12.390,0.04
12.406,0.26
12.421,0.39
12.437,0.36
12.453,0.14
12.468,-0.22
12.484,-0.6
12.500,-0.82
12.515,-0.74
12.531,-0.4
12.546,0.03
12.562,0.33
12.578,0.36
12.593,0.13
12.609,-0.24
12.625,-0.57
12.640,-0.78
12.656,-0.83
12.671,-0.78
12.687,-0.67
12.703,-0.52
12.718,-0.31
12.734,-0.08
12.750,0.09
12.765,0.12
12.781,-0.06
12.796,-0.44
12.812,-0.89
12.828,-1.25
12.843,-1.35
12.859,-1.12
12.875,-0.63
12.906,0.6
12.921,1.05
12.937,1.29
12.953,1.36
12.968,1.31
12.984,1.21
13.000,1.11
13.015,1.06
13.031,1.03
13.046,1.04
13.062,1.05
13.078,1.05
13.093,0.99
13.109,0.85
13.125,0.61
13.140,0.29
13.156,-0.06
13.171,-0.4
13.187,-0.68
13.203,-0.87
13.218,-0.94
13.234,-0.85
13.250,-0.58
13.265,-0.17
13.281,0.31
13.296,0.71
13.312,0.87
13.328,0.71
13.343,0.26
13.359,-0.35
13.375,-0.94
13.390,-1.3
13.406,-1.33
13.421,-1.03
13.437,-0.51
13.453,0.04
13.468,0.46
13.484,0.63
13.500,0.55
13.515,0.33
13.531,0.13
13.546,0.05
13.562,0.11
13.578,0.23
13.593,0.24
13.609,0.09
13.625,-0.18
13.640,-0.39
13.656,-0.42
13.671,-0.23
13.687,0.06
13.703,0.27
13.718,0.32
13.734,0.25
13.750,0.26
13.765,0.52
13.781,1.06
13.796,1.71
13.812,2.2
13.828,2.35
13.843,2.13
13.859,1.69
13.875,1.24
13.890,0.87
13.906,0.53
13.921,0.12
13.937,-0.44
13.953,-1.1
13.968,-1.65
13.984,-1.95
14.000,-1.94
14.015,-1.75
14.031,-1.55
14.046,-1.47
14.062,-1.56
14.078,-1.71
14.093,-1.86
14.109,-1.93
14.125,-1.96
14.140,-1.99
14.156,-2.04
14.171,-2.05
14.187,-1.97
14.203,-1.72
14.218,-1.34
14.234,-0.88
14.250,-0.43
14.265,-0.04
14.281,0.26
14.296,0.47
14.312,0.59
14.328,0.61
14.343,0.52
14.359,0.37
14.375,0.2
14.390,0.09
14.406,0.06
14.421,0.11
14.437,0.18
14.453,0.23
14.468,0.26
14.484,0.32
14.500,0.5
14.515,0.86
14.531,1.38
14.546,1.9
14.562,2.25
14.578,2.27
14.593,1.91
14.609,1.29
14.625,0.62
14.640,0.12
14.656,-0.07
14.671,0.04
14.687,0.3
14.703,0.52
14.718,0.54
14.734,0.35
14.750,-0.01
14.765,-0.39
14.781,-0.7
14.796,-0.89
14.812,-0.98
14.828,-0.99
14.843,-0.95
14.859,-0.79
14.875,-0.47
14.890,0.04
14.906,0.65
14.921,1.23
14.937,1.62
14.953,1.7
14.968,1.51
14.984,1.14
15.000,0.74
15.015,0.45
15.031,0.34
15.046,0.38
15.062,0.5
15.078,0.62
15.093,0.66
15.109,0.58
15.125,0.37
15.140,0.07
15.156,-0.26
15.171,-0.56
15.187,-0.8
15.203,-0.95
15.218,-1.0
15.234,-0.93
15.250,-0.73
15.265,-0.38
15.281,0.08
15.296,0.56
15.312,0.9
15.328,1.01
15.343,0.85
15.359,0.47
15.375,0.03
15.390,-0.31
15.406,-0.46
15.421,-0.38
15.437,-0.13
15.453,0.19
15.468,0.48
15.484,0.7
15.500,0.83
15.515,0.92
15.531,0.98
15.546,0.99
15.562,0.92
15.578,0.72
15.593,0.39
15.625,-0.35
15.640,-0.55
15.656,-0.56
15.671,-0.44
15.687,-0.32
15.703,-0.36
15.718,-0.63
15.734,-1.06
15.750,-1.51
15.765,-1.8
15.781,-1.82
15.796,-1.58
15.812,-1.19
15.828,-0.82
15.843,-0.6
15.859,-0.61
15.875,-0.81
15.890,-1.11
15.906,-1.41
15.921,-1.63
15.937,-1.76
15.953,-1.82
15.968,-1.8
15.984,-1.71
16.000,-1.48
16.015,-1.07
16.031,-0.51
16.046,0.1
16.062,0.62
16.078,0.91
16.093,0.9
16.109,0.66
16.125,0.29
16.140,-0.05
16.156,-0.27
16.171,-0.37
16.187,-0.36
16.203,-0.33
16.218,-0.3
16.234,-0.28
16.250,-0.21
16.265,-0.04
16.281,0.29
16.296,0.76
16.312,1.3
16.328,1.75
16.343,2.03
16.359,2.08
16.375,1.98
16.390,1.8
16.406,1.63
16.421,1.45
16.437,1.17
16.453,0.76
16.468,0.25
16.484,-0.21
16.500,-0.47
16.515,-0.43
16.531,-0.12
16.546,0.25
16.562,0.46
16.578,0.37
16.593,-0.03
16.609,-0.58
16.625,-1.08
16.640,-1.38
16.656,-1.42
16.671,-1.29
16.687,-1.1
16.703,-0.95
16.718,-0.82
16.734,-0.65
16.750,-0.36
16.765,0.1
16.781,0.65
16.796,1.18
16.812,1.54
16.828,1.63
16.843,1.48
16.859,1.18
16.875,0.9
16.890,0.72
16.906,0.7
16.921,0.77
16.937,0.81
16.953,0.77
16.968,0.61
16.984,0.39
17.000,0.16
17.015,-0.03
17.031,-0.19
17.046,-0.33
17.062,-0.47
17.078,-0.61
17.093,-0.67
17.109,-0.64
17.125,-0.51
17.140,-0.34
17.156,-0.21
17.171,-0.22
17.187,-0.42
17.203,-0.79
17.218,-1.24
17.234,-1.62
17.250,-1.8
17.265,-1.75
17.281,-1.5
17.296,-1.2
17.312,-0.96
17.328,-0.84
17.343,-0.81
17.359,-0.73
17.375,-0.51
17.390,-0.14
17.406,0.32
17.421,0.77
17.437,1.13
17.453,1.37
17.468,1.55
17.484,1.7
17.500,1.89
17.515,2.08
17.531,2.28
17.546,2.45
17.562,2.56
17.578,2.58
17.593,2.48
17.609,2.22
17.625,1.79
17.640,1.22
17.656,0.59
17.671,-0.05
17.687,-0.64
17.703,-1.17
17.718,-1.62
17.734,-1.93
17.750,-2.04
17.765,-1.88
17.781,-1.49
17.796,-0.98
17.812,-0.55
17.828,-0.34
17.843,-0.34
17.859,-0.42
17.875,-0.39
17.890,-0.09
17.906,0.43
17.921,1.0
17.937,1.4
17.953,1.5
17.968,1.31
17.984,0.99
18.000,0.73
18.015,0.61
18.031,0.62
18.046,0.64
18.062,0.59
18.078,0.38
18.093,0.03
18.109,-0.4
18.125,-0.86
18.140,-1.25
18.156,-1.53
18.171,-1.68
18.187,-1.68
18.203,-1.58
18.218,-1.41
18.234,-1.18
18.250,-0.92
18.265,-0.65
18.281,-0.38
18.296,-0.15
18.312,-0.02
18.328,-0.02
18.343,-0.12
18.359,-0.25
18.375,-0.37
18.390,-0.45
18.406,-0.54
18.421,-0.67
18.437,-0.84
18.453,-1.0
18.468,-1.03
18.484,-0.88
18.500,-0.52
18.515,-0.04
18.531,0.46
18.546,0.87
18.562,1.12
18.578,1.21
18.593,1.09
18.609,0.79
18.625,0.34
18.640,-0.18
18.656,-0.65
18.671,-0.97
18.687,-1.13
18.703,-1.15
18.718,-1.12
18.734,-1.1
18.750,-1.09
18.765,-1.02
18.781,-0.82
18.796,-0.49
18.812,-0.09
18.828,0.3
18.843,0.63
18.859,0.92
18.875,1.2
18.890,1.52
18.906,1.86
18.921,2.14
18.937,2.27
18.953,2.2
18.968,1.96
18.984,1.64
19.000,1.31
19.015,1.03
19.031,0.78
19.046,0.53
19.062,0.28
19.078,0.04
19.093,-0.12
19.109,-0.16
19.125,-0.07
19.140,0.08
19.156,0.15
19.187,-0.45
19.203,-1.14
19.218,-1.89
19.234,-2.45
19.250,-2.67
19.265,-2.52
19.281,-2.12
19.296,-1.61
19.312,-1.13
19.328,-0.7
19.343,-0.29
19.359,0.17
19.375,0.63
19.390,0.99
19.406,1.18
19.421,1.17
19.437,1.03
19.453,0.84
19.468,0.68
19.484,0.53
19.500,0.32
19.515,0.02
19.531,-0.36
19.546,-0.75
19.562,-1.07
19.578,-1.25
19.593,-1.24
19.609,-1.06
19.625,-0.7
19.640,-0.24
19.656,0.22
19.671,0.53
19.687,0.62
19.703,0.44
19.718,0.12
19.734,-0.17
19.750,-0.26
19.765,-0.1
19.781,0.24
19.796,0.6
19.812,0.79
19.828,0.74
19.843,0.49
19.859,0.2
19.875,0.03
19.890,0.1
19.906,0.4
19.921,0.81
19.937,1.2
19.953,1.46
19.968,1.58
19.984,1.62
20.000,1.63
20.015,1.62
20.031,1.53
20.046,1.3
20.062,0.91
20.078,0.47
20.093,0.08
20.109,-0.13
20.125,-0.16
20.140,-0.12
20.156,-0.19
20.171,-0.51
20.187,-1.06
20.203,-1.68
20.218,-2.12
20.234,-2.16
20.250,-1.71
20.265,-0.94
20.281,-0.12
20.296,0.42
20.312,0.5
20.328,0.11
20.343,-0.56
20.359,-1.25
20.375,-1.72
20.390,-1.88
20.406,-1.81
20.421,-1.65
20.437,-1.52
20.453,-1.46
20.468,-1.41
20.484,-1.29
20.500,-1.06
20.515,-0.77
20.531,-0.55
20.546,-0.49
20.562,-0.62
20.578,-0.84
20.593,-1.0
20.609,-0.96
20.625,-0.68
20.640,-0.22
20.656,0.29
20.671,0.71
20.687,0.95
20.703,0.99
20.718,0.89
20.734,0.73
20.750,0.63
20.765,0.66
20.781,0.83
20.796,1.11
20.812,1.45
20.828,1.8
20.843,2.14
20.859,2.44
20.875,2.64
20.890,2.62
20.906,2.26
20.921,1.53
20.937,0.55
20.953,-0.45
20.968,-1.13
20.984,-1.3
21.000,-0.95
21.015,-0.29
21.031,0.36
21.046,0.71
21.062,0.67
21.078,0.35
21.093,-0.03
21.109,-0.22
21.125,-0.12
21.140,0.22
21.156,0.61
21.171,0.86
21.187,0.87
21.203,0.71
21.218,0.53
21.234,0.51
21.250,0.74
21.265,1.17
21.281,1.62
21.296,1.89
21.312,1.85
21.328,1.48
21.343,0.9
21.359,0.26
21.375,-0.28
21.390,-0.66
21.406,-0.9
21.421,-1.1
21.437,-1.31
21.453,-1.56
21.468,-1.79
21.484,-1.89
21.500,-1.79
21.515,-1.51
21.531,-1.11
21.546,-0.73
21.562,-0.43
21.578,-0.21
21.593,-0.02
21.609,0.21
21.625,0.49
21.640,0.77
21.656,0.94
21.671,0.9
21.687,0.63
21.703,0.19
21.718,-0.28
21.734,-0.63
21.750,-0.74
21.765,-0.61
21.781,-0.35
21.796,-0.09
21.812,0.07
21.828,0.08
21.859,-0.06
21.875,-0.05
21.890,0.03
21.906,0.11
21.921,0.09
21.937,-0.09
21.953,-0.41
21.968,-0.83
21.984,-1.25
22.000,-1.59
22.015,-1.8
22.031,-1.82
22.046,-1.66
22.062,-1.36
22.078,-0.99
22.093,-0.63
22.109,-0.35
22.125,-0.17
22.140,-0.09
22.156,-0.06
22.171,-0.06
22.187,-0.06
22.203,-0.06
22.218,-0.06
22.234,-0.06
22.250,-0.09
22.265,-0.14
22.281,-0.22
22.296,-0.29
22.312,-0.33
22.328,-0.28
22.343,-0.15
22.359,0.01
22.375,0.11
22.390,0.1
22.406,-0.01
22.421,-0.15
22.437,-0.23
22.453,-0.19
22.468,0.02
22.484,0.38
22.500,0.85
22.515,1.32
22.531,1.72
22.546,1.97
22.562,2.06
22.578,2.03
22.593,1.92
22.609,1.8
22.625,1.64
22.640,1.4
22.656,1.05
22.671,0.61
22.687,0.18
22.703,-0.12
22.718,-0.22
22.734,-0.18
22.750,-0.09
22.765,-0.13
22.781,-0.33
22.796,-0.65
22.812,-0.99
22.828,-1.18
22.843,-1.15
22.859,-0.92
22.875,-0.61
22.890,-0.36
22.906,-0.29
22.921,-0.44
22.937,-0.74
22.953,-1.04
22.968,-1.2
22.984,-1.15
23.000,-0.95
23.015,-0.68
23.031,-0.43
23.046,-0.25
23.062,-0.15
23.078,-0.13
23.093,-0.21
23.109,-0.4
23.125,-0.67
23.140,-0.89
23.156,-0.94
23.171,-0.71
23.187,-0.21
23.203,0.42
23.218,0.99
23.234,1.32
23.250,1.33
23.265,1.06
23.281,0.64
23.296,0.22
23.312,-0.08
23.328,-0.13
23.343,0.09
23.359,0.53
23.375,1.04
23.390,1.45
23.406,1.59
23.421,1.41
23.437,1.0
23.453,0.52
23.468,0.18
23.484,0.08
23.500,0.2
23.515,0.43
23.531,0.6
23.546,0.56
23.562,0.27
23.578,-0.23
23.593,-0.82
23.609,-1.35
23.625,-1.67
23.640,-1.7
23.656,-1.4
23.671,-0.83
23.687,-0.08
23.703,0.69
23.718,1.37
23.734,1.84
23.750,2.05
23.765,1.99
23.781,1.68
23.796,1.22
23.812,0.7
23.828,0.23
23.843,-0.12
23.859,-0.3
23.875,-0.36
23.890,-0.37
23.906,-0.4
23.921,-0.51
23.937,-0.68
23.953,-0.84
23.968,-0.91
23.984,-0.85
24.000,-0.66
24.015,-0.42
24.031,-0.21
24.046,-0.09
24.062,-0.08
24.078,-0.13
24.093,-0.15
24.109,-0.05
24.125,0.17
24.140,0.47
24.156,0.74
24.171,0.9
24.187,0.92
24.203,0.85
24.218,0.77
24.234,0.75
24.250,0.77
24.265,0.76
24.281,0.64
24.296,0.35
24.312,-0.02
24.328,-0.36
24.343,-0.52
24.359,-0.46
24.375,-0.22
24.390,0.04
24.406,0.2
24.421,0.2
24.437,0.07
24.453,-0.06
24.468,-0.13
24.484,-0.14
24.500,-0.18
24.515,-0.29
24.531,-0.5
24.546,-0.74
24.562,-0.96
24.578,-1.16
24.593,-1.43
24.609,-1.87
24.625,-2.48
24.640,-3.18
24.656,-3.78
24.671,-4.08
24.687,-3.98
24.703,-3.49
24.718,-2.72
24.734,-1.83
24.750,-0.97
24.765,-0.27
24.781,0.22
24.796,0.47
24.812,0.54
24.828,0.55
24.843,0.64
24.859,0.9
24.875,1.34
24.890,1.83
24.906,2.23
24.921,2.43
24.937,2.44
24.953,2.33
24.968,2.22
24.984,2.16
25.000,2.1
25.015,1.96
25.031,1.68
25.046,1.28
25.062,0.83
25.078,0.45
25.093,0.2
25.109,0.07
25.140,-0.06
25.156,-0.13
25.171,-0.18
25.187,-0.16
25.203,-0.07
25.218,0.07
25.234,0.22
25.250,0.33
25.265,0.35
25.281,0.31
25.296,0.26
25.312,0.27
25.328,0.39
25.343,0.62
25.359,0.86
25.375,0.99
25.390,0.91
25.406,0.59
25.421,0.12
25.437,-0.36
25.453,-0.71
25.468,-0.86
25.484,-0.82
25.500,-0.69
25.515,-0.54
25.531,-0.46
25.546,-0.46
25.562,-0.53
25.578,-0.6
25.593,-0.66
25.609,-0.71
25.625,-0.77
25.640,-0.89
25.656,-1.08
25.671,-1.33
25.687,-1.56
25.703,-1.67
25.718,-1.54
25.734,-1.16
25.750,-0.58
25.765,0.07
25.781,0.66
25.796,1.1
25.812,1.37
25.828,1.49
25.843,1.48
25.859,1.35
25.875,1.11
25.890,0.78
25.906,0.43
25.921,0.14
25.937,-0.02
25.953,-0.02
25.968,0.08
25.984,0.19
26.000,0.22
26.015,0.12
26.031,-0.15
26.046,-0.57
26.062,-1.07
26.078,-1.57
26.093,-1.95
26.109,-2.11
26.125,-1.99
26.140,-1.64
26.156,-1.15
26.171,-0.66
26.187,-0.27
26.203,0.03
26.218,0.27
26.234,0.5
26.250,0.73
26.265,0.87
26.281,0.9
26.296,0.83
26.312,0.72
26.328,0.69
26.343,0.76
26.359,0.89
26.375,0.96
26.390,0.87
26.406,0.6
26.421,0.24
26.437,-0.1
26.453,-0.33
26.468,-0.43
26.484,-0.47
26.500,-0.48
26.515,-0.46
26.531,-0.36
26.546,-0.09
26.562,0.33
26.578,0.87
26.593,1.4
26.609,1.8
26.625,2.01
26.640,1.98
26.656,1.74
26.671,1.37
26.687,0.96
26.703,0.61
26.718,0.36
26.734,0.2
26.750,0.07
26.765,-0.07
26.781,-0.24
26.796,-0.41
26.812,-0.52
26.828,-0.53
26.843,-0.47
26.859,-0.42
26.875,-0.48
26.890,-0.67
26.906,-0.92
26.921,-1.11
26.937,-1.16
26.953,-1.03
26.968,-0.78
26.984,-0.49
27.000,-0.23
27.015,-0.01
27.031,0.17
27.046,0.33
27.062,0.43
27.078,0.4
27.093,0.21
27.109,-0.1
27.125,-0.47
27.140,-0.75
27.156,-0.88
27.171,-0.81
27.187,-0.56
27.203,-0.16
27.218,0.31
27.234,0.76
27.250,1.1
27.265,1.25
27.281,1.2
27.296,1.0
27.312,0.77
27.328,0.6
27.343,0.55
27.359,0.58
27.375,0.56
27.390,0.37
27.406,-0.05
27.421,-0.63
27.437,-1.2
27.453,-1.6
27.468,-1.68
27.484,-1.46
27.500,-1.05
27.515,-0.63
27.531,-0.37
27.546,-0.36
27.562,-0.57
27.578,-0.88
27.593,-1.16
27.609,-1.29
27.625,-1.24
27.640,-1.02
27.656,-0.71
27.671,-0.37
27.687,-0.05
27.703,0.23
27.718,0.48
27.734,0.71
27.750,0.89
27.765,1.02
27.781,1.07
27.796,1.09
27.812,1.13
27.828,1.25
27.843,1.45
27.859,1.68
27.875,1.79
27.890,1.65
27.906,1.2
27.921,0.53
27.937,-0.2
27.953,-0.79
27.968,-1.12
27.984,-1.2
28.000,-1.11
28.015,-0.94
28.031,-0.72
28.046,-0.43
28.062,-0.06
28.078,0.38
28.093,0.79
28.109,1.03
28.125,1.0
28.140,0.72
28.156,0.33
28.171,0.01
28.187,-0.1
28.203,0.03
28.218,0.3
28.234,0.55
28.250,0.61
28.265,0.45
28.281,0.15
28.296,-0.14
28.312,-0.24
28.328,-0.09
28.343,0.26
28.359,0.63
28.375,0.83
28.390,0.74
28.406,0.4
28.421,-0.07
28.437,-0.46
28.453,-0.64
28.468,-0.57
28.484,-0.35
28.500,-0.11
28.531,-0.02
28.546,-0.09
28.562,-0.11
28.578,0.03
28.593,0.3
28.609,0.58
28.625,0.73
28.640,0.66
28.656,0.4
28.671,0.05
28.687,-0.27
28.703,-0.49
28.718,-0.59
28.734,-0.63
28.750,-0.68
28.765,-0.79
28.781,-0.97
28.796,-1.18
28.812,-1.36
28.828,-1.41
28.843,-1.29
28.859,-1.04
28.875,-0.73
28.890,-0.47
28.906,-0.34
28.921,-0.36
28.937,-0.45
28.953,-0.48
28.968,-0.38
28.984,-0.16
29.000,0.06
29.015,0.16
29.031,0.07
29.046,-0.18
29.062,-0.5
29.078,-0.8
29.093,-1.0
29.109,-1.12
29.125,-1.19
29.140,-1.24
29.156,-1.28
29.171,-1.29
29.187,-1.21
29.203,-1.03
29.218,-0.77
29.234,-0.5
29.250,-0.33
29.265,-0.28
29.281,-0.3
29.296,-0.3
29.312,-0.16
29.328,0.18
29.343,0.74
29.359,1.43
29.375,2.18
29.390,2.88
29.406,3.43
29.421,3.75
29.437,3.74
29.453,3.39
29.468,2.75
29.484,1.94
29.500,1.16
29.515,0.54
29.531,0.17
29.546,0.02
29.562,-0.01
29.578,0.01
29.593,0.04
29.609,0.13
29.625,0.3
29.640,0.55
29.656,0.82
29.671,1.01
29.687,1.04
29.703,0.88
29.718,0.55
29.734,0.13
29.750,-0.31
29.765,-0.69
29.781,-0.93
29.796,-1.05
29.812,-1.09
29.828,-1.18
29.843,-1.42
29.859,-1.87
29.875,-2.46
29.890,-3.0
29.906,-3.31
29.921,-3.27
29.937,-2.9
29.953,-2.37
29.968,-1.85
29.984,-1.43
30.000,-1.1
30.015,-0.74
30.031,-0.26
30.046,0.35
30.062,0.98
30.078,1.48
30.093,1.71
30.109,1.62
30.125,1.27
30.140,0.8
30.156,0.35
30.171,0.01
30.187,-0.17
30.203,-0.22
30.218,-0.19
30.234,-0.14
30.250,-0.12
30.265,-0.11
30.281,-0.11
30.296,-0.1
30.312,-0.1
30.328,-0.13
30.343,-0.19
30.359,-0.23
30.375,-0.22
30.390,-0.09
30.406,0.15
30.421,0.45
30.437,0.75
30.453,0.95
30.468,1.03
30.484,0.99
30.500,0.86
30.515,0.65
30.531,0.41
30.546,0.2
30.562,0.11
30.578,0.19
30.593,0.46
30.609,0.82
30.625,1.11
30.640,1.23
30.656,1.11
30.671,0.83
30.687,0.49
30.703,0.21
30.718,0.01
30.734,-0.14
30.750,-0.22
30.765,-0.2
30.781,-0.03
30.796,0.29
30.812,0.67
30.828,0.94
30.843,0.94
30.859,0.65
30.875,0.18
30.890,-0.27
30.906,-0.53
30.921,-0.57
30.937,-0.49
30.953,-0.43
30.968,-0.47
30.984,-0.58
31.000,-0.66
31.015,-0.65
31.031,-0.53
31.046,-0.35
31.062,-0.2
31.078,-0.14
31.093,-0.16
31.109,-0.25
31.125,-0.39
31.140,-0.53
31.156,-0.69
31.171,-0.83
31.187,-0.93
31.203,-0.93
31.218,-0.76
31.234,-0.4
31.250,0.13
31.265,0.74
31.281,1.28
31.296,1.65
31.312,1.75
31.328,1.59
31.343,1.23
31.359,0.73
31.375,0.18
31.390,-0.33
31.406,-0.76
31.421,-0.98
31.437,-0.93
31.453,-0.59
31.468,-0.07
31.484,0.44
31.500,0.73
31.515,0.65
31.531,0.25
31.546,-0.29
31.562,-0.73
31.578,-0.89
31.593,-0.75
31.609,-0.39
31.625,0.04
31.640,0.41
31.656,0.68
31.671,0.85
31.687,0.89
31.703,0.77
31.718,0.46
31.734,0.04
31.750,-0.32
31.765,-0.41
31.781,-0.09
31.796,0.58
31.812,1.35
31.828,1.92
31.843,2.08
31.859,1.81
31.875,1.31
31.890,0.85
31.906,0.62
31.921,0.65
31.937,0.82
31.953,0.98
31.968,1.03
31.984,0.9
32.000,0.62
32.015,0.17
32.031,-0.46
32.046,-1.22
32.062,-2.04
32.078,-2.75
32.093,-3.23
32.109,-3.39
32.125,-3.24
32.140,-2.85
32.156,-2.34
32.171,-1.83
32.187,-1.39
32.203,-1.07
32.218,-0.89
32.234,-0.82
32.250,-0.81
32.265,-0.78
32.281,-0.68
32.296,-0.52
32.312,-0.31
32.328,-0.1
32.343,0.1
32.359,0.29
32.375,0.49
32.390,0.66
32.406,0.75
32.421,0.67
32.437,0.43
32.453,0.08
32.468,-0.26
32.484,-0.52
32.500,-0.67
32.515,-0.71
32.531,-0.68
32.546,-0.58
32.562,-0.41
32.578,-0.19
32.593,0.01
32.609,0.11
32.625,0.07
32.640,-0.03
32.656,-0.05
32.671,0.16
32.687,0.61
32.703,1.2
32.718,1.74
32.734,2.06
32.750,2.16
32.765,2.13
32.781,2.14
32.796,2.23
32.812,2.39
32.828,2.49
32.843,2.43
32.859,2.15
32.875,1.67
32.890,1.08
32.906,0.47
32.921,-0.08
32.937,-0.54
32.953,-0.88
32.968,-1.12
32.984,-1.25
33.000,-1.33
33.015,-1.36
33.031,-1.36
33.046,-1.32
33.062,-1.23
33.078,-1.1
33.093,-0.92
33.109,-0.71
33.125,-0.48
33.140,-0.22
33.156,0.05
33.171,0.29
33.187,0.47
33.203,0.53
33.218,0.47
33.234,0.31
33.250,0.09
33.265,-0.15
33.281,-0.39
33.296,-0.6
33.312,-0.76
33.328,-0.86
33.343,-0.89
33.359,-0.87
33.375,-0.82
33.390,-0.73
33.406,-0.64
33.421,-0.53
33.437,-0.43
33.453,-0.32
33.468,-0.18
33.484,0.01
33.500,0.29
33.515,0.66
33.531,1.09
33.546,1.47
33.562,1.68
33.578,1.61
33.593,1.19
33.609,0.5
33.625,-0.31
33.640,-1.0
33.656,-1.39
33.671,-1.41
33.687,-1.12
33.703,-0.67
33.718,-0.2
33.734,0.16
33.750,0.36
33.765,0.46
33.781,0.51
33.796,0.56
33.812,0.61
33.828,0.61
33.843,0.51
33.859,0.29
33.875,-0.03
33.890,-0.38
33.906,-0.65
33.921,-0.74
33.937,-0.62
33.953,-0.31
33.968,0.08
33.984,0.41
34.000,0.62
34.015,0.69
34.031,0.69
34.046,0.69
34.062,0.69
34.078,0.63
34.093,0.48
34.109,0.22
34.125,-0.03
34.140,-0.12
34.156,0.07
34.171,0.54
34.187,1.15
34.203,1.67
34.218,1.91
34.234,1.77
34.250,1.26
34.265,0.5
34.281,-0.38
34.296,-1.21
34.312,-1.84
34.328,-2.12
34.343,-2.06
34.359,-1.71
34.375,-1.3
34.390,-1.02
34.406,-0.98
34.421,-1.16
34.437,-1.35
34.453,-1.35
34.468,-1.07
34.484,-0.57
34.500,-0.01
34.515,0.41
34.531,0.6
34.546,0.57
34.562,0.37
34.578,0.09
34.593,-0.17
34.609,-0.37
34.625,-0.45
34.640,-0.41
34.656,-0.28
34.671,-0.12
34.703,0.06
34.718,0.1
34.734,0.17
34.750,0.33
34.765,0.52
34.781,0.68
34.796,0.71
34.812,0.54
34.828,0.21
34.843,-0.17
34.859,-0.47
34.875,-0.62
34.890,-0.62
34.906,-0.53
34.921,-0.41
34.937,-0.27
34.953,-0.07
34.968,0.27
34.984,0.75
35.000,1.28
35.015,1.72
35.031,1.96
35.046,1.96
35.062,1.77
35.078,1.5
35.093,1.21
35.109,0.96
35.125,0.75
35.140,0.61
35.156,0.59
35.171,0.7
35.187,0.89
35.203,1.05
35.218,1.06
35.234,0.86
35.250,0.5
35.265,0.07
35.281,-0.35
35.296,-0.72
35.312,-1.09
35.328,-1.44
35.343,-1.74
35.359,-1.87
35.375,-1.72
35.390,-1.31
35.406,-0.76
35.421,-0.28
35.437,-0.05
35.453,-0.13
35.468,-0.45
35.484,-0.87
35.500,-1.22
35.515,-1.4
35.531,-1.41
35.546,-1.34
35.562,-1.31
35.578,-1.39
35.593,-1.57
35.609,-1.76
35.625,-1.82
35.640,-1.69
35.656,-1.37
35.671,-0.97
35.687,-0.6
35.703,-0.31
35.718,-0.07
35.734,0.21
35.750,0.59
35.765,1.05
35.781,1.46
35.796,1.66
35.812,1.56
35.828,1.2
35.843,0.73
35.859,0.34
35.875,0.18
35.890,0.28
35.906,0.56
35.921,0.88
35.937,1.14
35.953,1.29
35.968,1.36
35.984,1.41
36.000,1.48
36.015,1.53
36.031,1.48
36.046,1.21
36.062,0.73
36.078,0.1
36.093,-0.51
36.109,-0.92
36.125,-1.0
36.140,-0.8
36.156,-0.47
36.171,-0.23
36.187,-0.2
36.203,-0.37
36.218,-0.6
36.234,-0.7
36.250,-0.59
36.265,-0.29
36.281,0.07
36.296,0.34
36.312,0.47
36.328,0.46
36.343,0.41
36.359,0.39
36.375,0.41
36.390,0.45
36.406,0.45
36.421,0.41
36.437,0.34
36.453,0.32
36.468,0.39
36.484,0.53
36.500,0.68
36.515,0.78
36.531,0.78
36.546,0.67
36.562,0.52
36.578,0.36
36.593,0.26
36.609,0.19
36.625,0.11
36.640,-0.04
36.656,-0.3
36.671,-0.66
36.687,-1.04
36.703,-1.37
36.718,-1.57
36.734,-1.62
36.750,-1.55
36.765,-1.43
36.781,-1.32
36.796,-1.27
36.812,-1.28
36.828,-1.3
36.843,-1.24
36.859,-1.08
36.875,-0.79
36.890,-0.45
36.906,-0.13
36.921,0.08
36.937,0.2
36.953,0.27
36.968,0.34
36.984,0.47
37.000,0.66
37.015,0.88
37.031,1.1
37.046,1.29
37.062,1.44
37.078,1.53
37.093,1.52
37.109,1.37
37.125,1.06
37.140,0.6
37.156,0.09
37.171,-0.38
37.187,-0.72
37.203,-0.87
37.218,-0.82
37.234,-0.6
37.250,-0.21
37.265,0.29
37.281,0.83
37.296,1.3
37.312,1.56
37.328,1.51
37.343,1.14
37.359,0.53
37.375,-0.1
37.390,-0.55
37.406,-0.68
37.421,-0.5
37.437,-0.16
37.453,0.17
37.468,0.36
37.484,0.41
37.500,0.37
37.515,0.35
37.531,0.37
37.546,0.34
37.562,0.17
37.578,-0.2
37.593,-0.71
37.609,-1.16
37.625,-1.32
37.640,-1.08
37.656,-0.49
37.671,0.21
37.687,0.72
37.703,0.83
37.718,0.52
37.734,-0.02
37.750,-0.56
37.765,-0.9
37.781,-0.99
37.796,-0.89
37.812,-0.76
37.828,-0.67
37.843,-0.62
37.859,-0.58
37.875,-0.5
37.890,-0.38
37.906,-0.29
37.921,-0.28
37.937,-0.38
37.953,-0.53
37.968,-0.67
37.984,-0.76
38.000,-0.79
38.015,-0.81
38.031,-0.87
38.046,-0.96
38.062,-1.03
38.078,-1.02
38.093,-0.89
38.109,-0.69
38.125,-0.48
38.140,-0.36
38.156,-0.35
38.171,-0.4
38.187,-0.39
38.203,-0.26
38.218,0.01
38.234,0.34
38.250,0.64
38.265,0.8
38.281,0.8
38.296,0.72
38.312,0.63
38.328,0.59
38.343,0.57
38.359,0.52
38.375,0.36
38.390,0.06
38.406,-0.31
38.421,-0.63
38.437,-0.77
38.453,-0.7
38.468,-0.41
38.484,0.05
38.500,0.63
38.515,1.27
38.531,1.88
38.546,2.32
38.562,2.46
38.578,2.25
38.593,1.71
38.609,1.05
38.625,0.49
38.640,0.2
38.656,0.18
38.671,0.24
38.687,0.17
38.703,-0.22
38.718,-0.91
38.734,-1.76
38.750,-2.48
38.765,-2.85
38.781,-2.75
38.796,-2.23
38.812,-1.48
38.828,-0.68
38.843,-0.04
38.859,0.35
38.875,0.47
38.890,0.41
38.906,0.27
38.921,0.11
38.937,0.01
38.953,-0.03
38.968,0.03
38.984,0.19
39.000,0.47
39.015,0.84
39.031,1.21
39.046,1.47
39.062,1.55
39.078,1.44
39.093,1.22
39.109,1.0
39.125,0.88
39.140,0.91
39.156,1.02
39.171,1.12
39.187,1.09
39.203,0.89
39.218,0.54
39.234,0.09
39.250,-0.36
39.265,-0.75
39.281,-1.06
39.296,-1.26
39.312,-1.37
39.328,-1.42
39.343,-1.42
39.359,-1.41
39.375,-1.33
39.390,-1.12
39.406,-0.77
39.421,-0.33
39.437,0.08
39.453,0.3
39.468,0.28
39.484,0.09
39.500,-0.09
39.515,-0.05
39.531,0.29
39.546,0.81
39.562,1.27
39.578,1.42
39.593,1.18
39.609,0.68
39.625,0.16
39.640,-0.18
39.656,-0.27
39.671,-0.17
39.687,-0.02
39.703,0.09
39.718,0.2
39.734,0.36
39.750,0.63
39.765,0.92
39.781,1.09
39.796,0.98
39.812,0.54
39.828,-0.13
39.843,-0.8
39.859,-1.22
39.875,-1.28
39.890,-1.03
39.906,-0.66
39.921,-0.4
39.937,-0.39
39.953,-0.56
39.968,-0.77
39.984,-0.82
40.000,-0.59
40.015,-0.11
40.031,0.49
40.046,1.02
40.062,1.35
40.078,1.47
40.093,1.45
40.109,1.4
40.125,1.37
40.140,1.35
40.156,1.27
40.171,1.1
40.187,0.86
40.203,0.61
40.218,0.43
40.234,0.4
40.250,0.48
40.265,0.59
40.281,0.64
40.296,0.54
40.312,0.25
40.328,-0.17
40.343,-0.63
40.359,-1.04
40.375,-1.32
40.390,-1.4
40.406,-1.27
40.421,-0.99
40.437,-0.71
40.453,-0.58
40.468,-0.66
40.484,-0.93
40.500,-1.24
40.515,-1.44
40.531,-1.43
40.546,-1.23
40.562,-1.02
40.578,-0.92
40.593,-1.0
40.609,-1.15
40.625,-1.2
40.640,-1.02
40.656,-0.61
40.671,-0.17
40.687,0.08
40.703,0.02
40.718,-0.27
40.734,-0.57
40.750,-0.63
40.765,-0.31
40.781,0.29
40.796,0.93
40.812,1.33
40.828,1.35
40.843,1.08
40.859,0.76
40.875,0.62
40.890,0.75
40.906,1.0
40.921,1.14
40.937,0.99
40.953,0.59
40.968,0.17
40.984,0.01
41.000,0.27
41.015,0.86
41.031,1.51
41.046,1.87
41.062,1.71
41.078,1.04
41.093,0.11
41.109,-0.79
41.125,-1.41
41.140,-1.67
41.156,-1.65
41.171,-1.5
41.187,-1.35
41.203,-1.25
41.218,-1.12
41.234,-0.86
41.250,-0.43
41.265,0.11
41.281,0.63
41.296,0.93
41.312,0.91
41.328,0.68
41.343,0.45
41.359,0.48
41.375,0.91
41.390,1.65
41.406,2.44
41.421,2.96
41.437,3.01
41.453,2.58
41.468,1.84
41.484,1.08
41.500,0.46
41.515,0.05
41.531,-0.22
41.546,-0.43
41.562,-0.6
41.578,-0.73
41.593,-0.74
41.609,-0.62
41.625,-0.45
41.640,-0.35
41.656,-0.43
41.671,-0.73
41.687,-1.15
41.703,-1.55
41.718,-1.78
41.734,-1.82
41.750,-1.73
41.765,-1.66
41.781,-1.71
41.796,-1.9
41.812,-2.12
41.828,-2.25
41.843,-2.14
41.859,-1.74
41.875,-1.1
41.890,-0.32
41.906,0.45
41.921,1.12
41.937,1.63
41.953,1.99
41.968,2.22
41.984,2.32
42.000,2.27
42.015,2.04
42.031,1.64
42.046,1.11
42.062,0.59
42.078,0.23
42.093,0.11
42.109,0.21
42.125,0.4
42.140,0.51
42.156,0.41
42.171,0.08
42.187,-0.35
42.203,-0.74
42.218,-0.91
42.234,-0.8
42.250,-0.46
42.265,-0.03
42.281,0.27
42.296,0.28
42.312,-0.05
42.328,-0.6
42.343,-1.14
42.359,-1.39
42.375,-1.22
42.390,-0.68
42.406,-0.05
42.421,0.36
42.437,0.27
42.453,-0.32
42.468,-1.22
42.484,-2.12
42.500,-2.71
42.515,-2.87
42.531,-2.68
42.546,-2.31
42.562,-1.96
42.578,-1.73
42.593,-1.6
42.609,-1.48
42.625,-1.27
42.640,-0.91
42.656,-0.44
42.671,0.07
42.687,0.52
42.703,0.86
42.718,1.05
42.734,1.13
42.750,1.12
42.765,1.02
42.781,0.87
42.796,0.7
42.812,0.56
42.828,0.51
42.843,0.57
42.859,0.72
42.875,0.88
42.890,0.98
42.906,0.95
42.921,0.82
42.937,0.7
42.953,0.73
42.968,1.0
42.984,1.51
43.000,2.08
43.015,2.49
43.031,2.55
43.046,2.18
43.062,1.48
43.078,0.71
43.093,0.11
43.109,-0.12
43.125,0.01
43.140,0.35
43.156,0.67
43.171,0.8
43.187,0.66
43.203,0.36
43.218,0.05
43.234,-0.1
43.250,-0.05
43.265,0.1
43.281,0.18
43.312,-0.48
43.328,-1.12
43.343,-1.67
43.359,-1.86
43.375,-1.63
43.390,-1.11
43.406,-0.56
43.421,-0.26
43.437,-0.28
43.453,-0.48
43.468,-0.63
43.484,-0.52
43.500,-0.17
43.515,0.28
43.531,0.59
43.546,0.66
43.562,0.54
43.578,0.4
43.593,0.42
43.609,0.62
43.625,0.91
43.640,1.11
43.656,1.1
43.671,0.89
43.687,0.62
43.703,0.44
43.718,0.47
43.734,0.68
43.750,0.96
43.765,1.14
43.781,1.12
43.796,0.86
43.812,0.43
43.828,-0.11
43.843,-0.62
43.859,-1.04
43.875,-1.34
43.890,-1.54
43.906,-1.7
43.921,-1.82
43.937,-1.9
43.953,-1.87
43.968,-1.69
43.984,-1.32
44.000,-0.83
44.015,-0.32
44.031,0.05
44.046,0.19
44.062,0.04
44.078,-0.31
44.093,-0.71
44.109,-1.01
44.125,-1.11
44.140,-1.01
44.156,-0.78
44.171,-0.5
44.187,-0.24
44.203,0.02
44.218,0.3
44.234,0.6
44.250,0.86
44.265,1.0
44.281,0.89
44.296,0.53
44.328,-0.53
44.343,-0.86
44.359,-0.88
44.375,-0.59
44.390,-0.1
44.406,0.44
44.421,0.9
44.437,1.19
44.453,1.32
44.468,1.31
44.484,1.21
44.500,1.04
44.515,0.83
44.531,0.61
44.546,0.36
44.562,0.15
44.578,0.01
44.593,-0.01
44.609,0.1
44.625,0.27
44.640,0.41
44.656,0.41
44.671,0.24
44.687,-0.06
44.703,-0.35
44.718,-0.49
44.734,-0.41
44.750,-0.15
44.765,0.12
44.781,0.25
44.796,0.13
44.812,-0.18
44.828,-0.53
44.843,-0.78
44.859,-0.85
44.875,-0.84
44.890,-0.84
44.906,-0.97
44.921,-1.19
44.937,-1.4
44.953,-1.44
44.968,-1.23
44.984,-0.79
45.000,-0.22
45.015,0.31
45.031,0.74
45.046,1.03
45.062,1.2
45.078,1.29
45.093,1.28
45.109,1.15
45.125,0.93
45.140,0.71
45.156,0.6
45.171,0.7
45.187,0.96
45.203,1.26
45.218,1.38
45.234,1.19
45.250,0.71
45.265,0.05
45.281,-0.59
45.296,-1.08
45.312,-1.34
45.328,-1.38
45.343,-1.24
45.359,-0.95
45.375,-0.56
45.390,-0.18
45.406,0.06
45.421,0.07
45.437,-0.11
45.453,-0.33
45.468,-0.39
45.484,-0.15
45.500,0.35
45.515,0.89
45.531,1.23
45.546,1.25
45.562,1.03
45.578,0.74
45.593,0.52
45.609,0.39
45.625,0.21
45.640,-0.12
45.656,-0.57
45.671,-0.98
45.687,-1.13
45.703,-0.91
45.718,-0.4
45.734,0.15
45.750,0.46
45.765,0.38
45.781,-0.07
45.796,-0.65
45.812,-1.11
45.828,-1.25
45.843,-1.03
45.859,-0.57
45.875,-0.02
45.890,0.45
45.906,0.75
45.921,0.89
45.937,0.94
45.953,0.94
45.968,0.89
45.984,0.76
46.000,0.5
46.015,0.13
46.031,-0.23
46.046,-0.43
46.062,-0.35
46.078,0.02
46.093,0.56
46.109,1.09
46.125,1.4
46.140,1.39
46.156,1.08
46.171,0.57
46.187,0.05
46.203,-0.33
46.218,-0.5
46.234,-0.48
46.250,-0.4
46.265,-0.34
46.281,-0.39
46.296,-0.55
46.312,-0.77
46.328,-0.97
46.343,-1.07
46.359,-1.04
46.375,-0.88
46.390,-0.63
46.406,-0.38
46.421,-0.23
46.437,-0.27
46.453,-0.49
46.468,-0.81
46.484,-1.06
46.500,-1.11
46.515,-0.89
46.531,-0.44
46.546,0.12
46.562,0.67
46.578,1.12
46.593,1.45
46.609,1.63
46.625,1.62
46.640,1.38
46.656,0.91
46.671,0.26
46.687,-0.43
46.703,-1.0
46.718,-1.33
46.734,-1.41
46.750,-1.29
46.765,-1.12
46.781,-0.98
46.796,-0.95
46.812,-1.02
46.828,-1.13
46.843,-1.23
46.859,-1.27
46.875,-1.32
46.890,-1.41
46.906,-1.61
46.921,-1.86
46.937,-2.05
46.953,-2.01
46.968,-1.64
46.984,-0.97
47.000,-0.18
47.015,0.52
47.031,0.98
47.046,1.18
47.062,1.25
47.078,1.33
47.093,1.5
47.109,1.7
47.125,1.81
47.140,1.72
47.156,1.4
47.171,1.0
47.187,0.7
47.203,0.69
47.218,1.06
47.234,1.73
47.250,2.48
47.265,3.03
47.281,3.19
47.296,2.89
47.312,2.22
47.328,1.4
47.343,0.63
47.359,0.05
47.375,-0.28
47.390,-0.43
47.406,-0.46
47.421,-0.47
47.437,-0.51
47.453,-0.6
47.468,-0.72
47.484,-0.81
47.500,-0.83
47.515,-0.75
47.531,-0.58
47.546,-0.35
47.562,-0.05
47.578,0.26
47.593,0.57
47.609,0.8
47.625,0.86
47.640,0.74
47.656,0.43
47.671,0.04
47.687,-0.29
47.703,-0.43
47.718,-0.38
47.734,-0.2
47.765,0.11
47.781,0.11
47.796,-0.02
47.812,-0.27
47.828,-0.63
47.843,-1.05
47.859,-1.45
47.875,-1.7
47.890,-1.72
47.906,-1.47
47.921,-1.04
47.937,-0.53
47.953,-0.08
47.968,0.26
47.984,0.43
48.000,0.45
48.015,0.33
48.031,0.11
48.046,-0.18
48.062,-0.47
48.078,-0.69
48.093,-0.8
48.109,-0.83
48.125,-0.81
48.140,-0.8
48.156,-0.81
48.171,-0.78
48.187,-0.69
48.203,-0.53
48.218,-0.35
48.234,-0.2
48.250,-0.11
48.265,-0.05
48.281,0.05
48.296,0.2
48.312,0.39
48.328,0.52
48.343,0.5
48.359,0.33
48.375,0.09
48.390,-0.06
48.406,0.02
48.421,0.36
48.437,0.88
48.453,1.41
48.468,1.8
48.484,1.96
48.500,1.91
48.515,1.73
48.531,1.51
48.546,1.33
48.562,1.21
48.578,1.13
48.593,1.09
48.609,1.06
48.625,1.05
48.640,1.06
48.656,1.07
48.671,1.04
48.687,0.94
48.703,0.78
48.718,0.55
48.734,0.26
48.750,-0.11
48.765,-0.56
48.781,-1.08
48.796,-1.6
48.812,-1.99
48.828,-2.14
48.843,-2.0
48.859,-1.67
48.875,-1.3
48.890,-1.05
48.906,-0.99
48.921,-1.09
48.937,-1.19
48.953,-1.17
48.968,-0.95
48.984,-0.54
49.000,-0.07
49.015,0.37
49.031,0.67
49.046,0.82
49.062,0.82
49.078,0.71
49.093,0.55
49.109,0.35
49.125,0.13
49.140,-0.1
49.156,-0.31
49.171,-0.5
49.187,-0.59
49.203,-0.55
49.218,-0.39
49.234,-0.18
49.250,-0.05
49.265,-0.07
49.281,-0.26
49.296,-0.55
49.312,-0.82
49.328,-1.01
49.343,-1.13
49.359,-1.26
49.375,-1.43
49.390,-1.65
49.406,-1.77
49.421,-1.68
49.437,-1.28
49.453,-0.64
49.468,0.1
49.484,0.74
49.500,1.13
49.515,1.26
49.531,1.2
49.546,1.09
49.562,1.04
49.578,1.13
49.593,1.38
49.609,1.71
49.625,2.0
49.640,2.11
49.656,1.96
49.671,1.55
49.687,1.01
49.703,0.46
49.734,-0.37
49.750,-0.7
49.765,-1.05
49.781,-1.43
49.796,-1.72
49.812,-1.84
49.828,-1.72
49.843,-1.4
49.859,-0.97
49.875,-0.52
49.890,-0.09
49.906,0.3
49.921,0.66
49.937,0.93
49.953,1.04
49.968,0.95
49.984,0.69
50.000,0.41
50.015,0.22
50.031,0.18
50.046,0.27
50.062,0.36
50.078,0.33
50.093,0.12
50.109,-0.24
50.125,-0.64
50.140,-0.96
50.156,-1.1
50.171,-1.05
50.187,-0.83
50.203,-0.49
50.218,-0.09
50.234,0.35
50.250,0.76
50.265,1.13
50.281,1.41
50.296,1.58
50.312,1.68
50.328,1.77
50.343,1.89
50.359,2.02
50.375,2.08
50.390,1.98
50.406,1.65
50.421,1.13
50.437,0.59
50.453,0.17
50.468,-0.02
50.484,-0.01
50.500,0.07
50.515,0.11
50.531,0.01
50.546,-0.21
50.562,-0.49
50.578,-0.77
50.593,-1.03
50.609,-1.28
50.625,-1.52
50.640,-1.74
50.656,-1.9
50.671,-1.95
50.687,-1.81
50.703,-1.49
50.718,-1.03
50.734,-0.5
50.750,0.01
50.765,0.39
50.781,0.6
50.796,0.66
50.812,0.56
50.828,0.35
50.843,0.05
50.859,-0.29
50.875,-0.65
50.890,-0.95
50.906,-1.13
50.921,-1.16
50.937,-1.02
50.953,-0.75
50.968,-0.4
50.984,-0.04
51.000,0.31
51.015,0.64
51.031,1.0
51.046,1.36
51.062,1.69
51.078,1.9
51.093,1.92
51.109,1.73
51.125,1.4
51.140,1.09
51.156,0.91
51.171,0.91
51.187,1.0
51.203,1.05
51.218,0.94
51.234,0.68
51.250,0.36
51.265,0.07
51.281,-0.15
51.296,-0.38
51.312,-0.74
51.328,-1.3
51.343,-2.0
51.359,-2.71
51.375,-3.22
51.390,-3.44
51.406,-3.36
51.421,-3.06
51.437,-2.67
51.453,-2.3
51.468,-1.99
51.484,-1.74
51.500,-1.5
51.515,-1.23
51.531,-0.88
51.546,-0.5
51.562,-0.15
51.578,0.1
51.593,0.19
51.609,0.17
51.625,0.12
51.640,0.17
51.656,0.35
51.671,0.65
51.687,0.96
51.703,1.18
51.718,1.27
51.734,1.27
51.750,1.24
51.765,1.27
51.781,1.36
51.796,1.49
51.812,1.61
51.828,1.67
51.843,1.68
51.859,1.61
51.875,1.47
51.890,1.28
51.906,1.03
51.921,0.73
51.937,0.4
51.953,0.06
51.968,-0.27
51.984,-0.53
52.000,-0.68
52.015,-0.71
52.031,-0.64
52.046,-0.55
52.062,-0.54
52.078,-0.67
52.093,-0.96
52.109,-1.28
52.125,-1.51
52.140,-1.52
52.156,-1.24
52.171,-0.69
52.187,-0.01
52.203,0.65
52.218,1.14
52.234,1.39
52.250,1.4
52.265,1.24
52.281,0.97
52.296,0.65
52.312,0.31
52.328,-0.06
52.343,-0.43
52.359,-0.76
52.375,-0.97
52.390,-0.98
52.406,-0.76
52.421,-0.33
52.437,0.25
52.453,0.87
52.468,1.41
52.484,1.77
52.500,1.9
52.515,1.82
52.531,1.61
52.546,1.39
52.562,1.26
52.578,1.22
52.593,1.17
52.609,0.97
52.625,0.54
52.640,-0.1
52.656,-0.82
52.671,-1.38
52.687,-1.65
52.703,-1.58
52.718,-1.26
52.734,-0.86
52.750,-0.52
52.765,-0.28
52.781,-0.15
52.796,-0.07
52.812,-0.04
52.828,-0.1
52.843,-0.29
52.859,-0.62
52.875,-1.05
52.890,-1.45
52.906,-1.7
52.921,-1.75
52.937,-1.59
52.953,-1.26
52.968,-0.82
52.984,-0.28
53.000,0.32
53.015,0.91
53.031,1.4
53.046,1.64
53.062,1.56
53.078,1.15
53.093,0.53
53.109,-0.1
53.125,-0.59
53.140,-0.84
53.156,-0.9
53.171,-0.88
53.187,-0.86
53.203,-0.84
53.218,-0.75
53.234,-0.55
53.250,-0.21
53.265,0.17
53.281,0.47
53.296,0.59
53.312,0.52
53.328,0.33
53.343,0.1
53.359,-0.1
53.375,-0.26
53.390,-0.38
53.406,-0.47
53.421,-0.51
53.437,-0.45
53.453,-0.26
53.468,0.08
53.484,0.52
53.500,0.96
53.515,1.28
53.531,1.36
53.546,1.08
53.562,0.43
53.578,-0.5
53.593,-1.48
53.609,-2.21
53.625,-2.48
53.640,-2.19
53.656,-1.43
53.671,-0.46
53.687,0.43
53.703,1.05
53.718,1.35
53.734,1.42
53.750,1.44
53.765,1.54
53.781,1.76
53.796,2.01
53.812,2.17
53.828,2.18
53.843,2.05
53.859,1.85
53.875,1.61
53.890,1.34
53.906,0.98
53.921,0.48
53.937,-0.12
53.953,-0.74
53.968,-1.23
53.984,-1.52
54.000,-1.56
54.015,-1.39
54.031,-1.08
54.046,-0.7
54.062,-0.32
54.078,-0.02
54.093,0.14
54.109,0.12
54.125,-0.06
54.140,-0.33
54.156,-0.58
54.171,-0.77
54.187,-0.91
54.203,-1.02
54.218,-1.12
54.234,-1.14
54.250,-1.0
54.265,-0.64
54.281,-0.06
54.296,0.58
54.312,1.09
54.328,1.32
54.343,1.2
54.359,0.78
54.375,0.2
54.390,-0.39
54.406,-0.84
54.421,-1.06
54.437,-1.03
54.453,-0.76
54.468,-0.35
54.484,0.14
54.500,0.6
54.515,1.02
54.531,1.33
54.546,1.49
54.562,1.44
54.578,1.11
54.593,0.57
54.609,-0.1
54.625,-0.67
54.640,-0.99
54.656,-1.01
54.671,-0.75
54.687,-0.41
54.703,-0.17
54.718,-0.12
54.734,-0.26
54.750,-0.45
54.765,-0.56
54.781,-0.52
54.796,-0.34
54.812,-0.13
54.843,-0.02
54.859,-0.16
54.875,-0.33
54.890,-0.4
54.906,-0.32
54.921,-0.13
54.937,0.05
54.953,0.1
54.968,-0.03
54.984,-0.23
55.000,-0.36
55.015,-0.27
55.031,0.01
55.046,0.37
55.062,0.63
55.078,0.69
55.093,0.6
55.109,0.48
55.125,0.48
55.140,0.64
55.156,0.9
55.171,1.15
55.187,1.34
55.203,1.45
55.218,1.55
55.234,1.66
55.250,1.79
55.265,1.9
55.281,1.91
55.296,1.79
55.312,1.49
55.328,1.01
55.343,0.38
55.359,-0.33
55.375,-0.99
55.390,-1.47
55.406,-1.67
55.421,-1.62
55.437,-1.42
55.453,-1.28
55.468,-1.31
55.484,-1.56
55.500,-1.95
55.515,-2.28
55.531,-2.43
55.546,-2.33
55.562,-2.08
55.578,-1.8
55.593,-1.62
55.609,-1.55
55.625,-1.51
55.640,-1.37
55.656,-1.07
55.671,-0.62
55.687,-0.14
55.703,0.25
55.718,0.46
55.734,0.51
55.750,0.47
55.765,0.45
55.781,0.49
55.796,0.61
55.812,0.78
55.828,0.93
55.843,1.01
55.859,0.95
55.875,0.73
55.890,0.37
55.906,-0.08
55.921,-0.54
55.937,-0.96
55.953,-1.28
55.968,-1.48
55.984,-1.47
56.000,-1.15
56.015,-0.48
56.031,0.48
56.046,1.51
56.062,2.33
56.078,2.68
56.093,2.51
56.109,1.94
56.125,1.28
56.140,0.79
56.156,0.63
56.171,0.79
56.187,1.11
56.203,1.41
56.218,1.55
56.234,1.48
56.250,1.24
56.265,0.93
56.281,0.67
56.296,0.54
56.312,0.49
56.328,0.43
56.343,0.25
56.359,-0.12
56.375,-0.63
56.390,-1.14
56.406,-1.5
56.421,-1.64
56.437,-1.61
56.453,-1.53
56.468,-1.5
56.484,-1.55
56.500,-1.61
56.515,-1.54
56.531,-1.22
56.546,-0.64
56.562,0.1
56.578,0.85
56.593,1.44
56.609,1.76
56.625,1.82
56.640,1.68
56.656,1.48
56.671,1.28
56.687,1.13
56.703,0.99
56.718,0.85
56.734,0.69
56.750,0.55
56.765,0.43
56.781,0.32
56.796,0.16
56.812,-0.15
56.828,-0.68
56.843,-1.41
56.859,-2.21
56.875,-2.87
56.890,-3.21
56.906,-3.13
56.921,-2.67
56.937,-2.0
56.953,-1.3
56.968,-0.76
56.984,-0.44
57.000,-0.33
57.015,-0.37
57.031,-0.48
57.046,-0.59
57.062,-0.69
57.078,-0.76
57.093,-0.77
57.109,-0.68
57.125,-0.49
57.140,-0.2
57.156,0.12
57.171,0.4
57.187,0.61
57.203,0.73
57.218,0.81
57.234,0.91
57.250,1.04
57.265,1.18
57.281,1.28
57.296,1.29
57.312,1.19
57.328,1.02
57.343,0.85
57.359,0.73
57.375,0.7
57.390,0.71
57.406,0.73
57.421,0.68
57.437,0.54
57.453,0.31
57.468,0.04
57.484,-0.21
57.500,-0.34
57.515,-0.32
57.531,-0.16
57.546,0.09
57.562,0.32
57.578,0.44
57.593,0.38
57.609,0.17
57.625,-0.14
57.640,-0.43
57.656,-0.58
57.671,-0.53
57.687,-0.25
57.703,0.21
57.718,0.74
57.734,1.19
57.750,1.44
57.765,1.39
57.781,1.08
57.796,0.61
57.812,0.15
57.828,-0.16
57.843,-0.31
57.859,-0.33
57.875,-0.31
57.890,-0.28
57.906,-0.24
57.921,-0.19
57.937,-0.16
57.953,-0.24
57.968,-0.55
57.984,-1.1
58.000,-1.78
58.015,-2.36
58.031,-2.57
58.046,-2.25
58.062,-1.48
58.078,-0.5
58.093,0.36
58.109,0.91
58.125,1.13
58.140,1.14
58.156,1.15
58.171,1.29
58.187,1.53
58.203,1.78
58.218,1.89
58.234,1.82
58.250,1.62
58.265,1.37
58.281,1.15
58.296,0.97
58.312,0.81
58.328,0.63
58.343,0.42
58.359,0.2
58.375,-0.03
58.390,-0.25
58.406,-0.43
58.421,-0.53
58.437,-0.48
58.453,-0.25
58.468,0.08
58.484,0.38
58.500,0.49
58.515,0.37
58.531,0.08
58.546,-0.21
58.562,-0.31
58.578,-0.16
58.593,0.14
58.609,0.42
58.625,0.51
58.640,0.37
58.656,0.07
58.671,-0.24
58.687,-0.45
58.703,-0.51
58.718,-0.45
58.734,-0.32
58.750,-0.15
58.765,0.04
58.781,0.25
58.796,0.47
58.812,0.68
58.828,0.79
58.843,0.75
58.859,0.52
58.875,0.13
58.890,-0.32
58.906,-0.74
58.921,-1.08
58.937,-1.37
58.953,-1.66
58.968,-2.02
58.984,-2.41
59.000,-2.71
59.015,-2.8
59.031,-2.57
59.046,-2.03
59.062,-1.31
59.078,-0.6
59.093,-0.07
59.109,0.21
59.125,0.34
59.140,0.47
59.156,0.72
59.171,1.07
59.187,1.39
59.203,1.47
59.218,1.22
59.234,0.69
59.250,0.08
59.265,-0.36
59.281,-0.51
59.296,-0.42
59.312,-0.26
59.328,-0.22
59.343,-0.35
59.359,-0.6
59.375,-0.76
59.390,-0.72
59.406,-0.49
59.421,-0.19
59.453,-0.02
59.468,-0.22
59.484,-0.47
59.500,-0.65
59.515,-0.7
59.531,-0.68
59.546,-0.67
59.562,-0.74
59.578,-0.82
59.593,-0.8
59.609,-0.57
59.625,-0.07
59.640,0.57
59.656,1.14
59.671,1.44
59.687,1.38
59.703,1.03
59.718,0.54
59.734,0.12
59.750,-0.14
59.765,-0.24
59.781,-0.2
59.796,-0.09
59.812,0.07
59.828,0.28
59.843,0.53
59.859,0.79
59.875,1.0
59.890,1.11
59.906,1.11
59.921,1.03
59.937,0.95
59.953,0.95
59.968,1.09
59.984,1.36
