timestamp,value
00.000,-0.23
00.015,0.14
00.031,0.45
00.046,0.61
00.062,0.57
00.078,0.28
00.093,-0.19
00.109,-0.72
00.125,-1.12
00.140,-1.25
00.156,-1.08
00.171,-0.71
00.187,-0.31
00.203,-0.02
00.218,0.09
00.234,0.04
00.250,-0.11
00.265,-0.3
00.281,-0.5
00.296,-0.68
00.312,-0.8
00.328,-0.79
00.343,-0.65
00.359,-0.44
00.375,-0.28
00.390,-0.24
00.406,-0.32
00.421,-0.43
00.437,-0.47
00.453,-0.44
00.468,-0.42
00.484,-0.5
00.500,-0.74
00.515,-1.02
00.531,-1.18
00.546,-1.09
00.562,-0.76
00.578,-0.36
00.593,-0.04
00.609,0.06
00.625,-0.04
00.640,-0.19
00.656,-0.25
00.671,-0.1
00.687,0.29
00.703,0.82
00.718,1.4
00.734,1.84
00.750,2.06
00.765,1.99
00.781,1.67
00.796,1.22
00.812,0.77
00.828,0.42
00.843,0.22
00.859,0.15
00.875,0.19
00.890,0.31
00.906,0.44
00.921,0.5
00.937,0.38
00.953,0.07
00.968,-0.34
00.984,-0.65
01.000,-0.65
01.015,-0.25
01.031,0.5
01.046,1.38
01.062,2.1
01.078,2.46
01.093,2.4
01.109,2.01
01.125,1.43
01.140,0.83
01.156,0.28
01.171,-0.2
01.187,-0.62
01.203,-0.97
01.218,-1.23
01.234,-1.31
01.250,-1.21
01.265,-0.99
01.281,-0.78
01.296,-0.71
01.312,-0.87
01.328,-1.2
01.343,-1.54
01.359,-1.7
01.375,-1.6
01.390,-1.3
01.406,-0.97
01.421,-0.78
01.437,-0.81
01.453,-1.03
01.468,-1.27
01.484,-1.34
01.500,-1.13
01.515,-0.64
01.531,0.06
01.546,0.75
01.562,1.24
01.578,1.37
01.593,1.09
01.609,0.5
01.625,-0.18
01.640,-0.69
01.656,-0.84
01.671,-0.57
01.687,0.01
01.703,0.67
01.718,1.17
01.734,1.34
01.750,1.2
01.765,0.89
01.781,0.57
01.796,0.36
01.812,0.19
01.828,-0.03
01.843,-0.41
01.859,-0.87
01.875,-1.22
01.890,-1.23
01.906,-0.77
01.921,0.03
01.937,0.85
01.953,1.34
01.968,1.36
01.984,1.02
02.000,0.6
02.015,0.34
02.031,0.31
02.046,0.33
02.062,0.2
02.078,-0.21
02.093,-0.8
02.109,-1.39
02.125,-1.73
02.140,-1.75
02.156,-1.5
02.171,-1.13
02.187,-0.77
02.203,-0.42
02.218,-0.02
02.234,0.48
02.250,1.02
02.265,1.45
02.281,1.56
02.296,1.27
02.312,0.66
02.328,-0.06
02.343,-0.68
02.359,-1.08
02.375,-1.25
02.390,-1.32
02.406,-1.4
02.421,-1.52
02.437,-1.61
02.453,-1.56
02.468,-1.3
02.484,-0.9
02.500,-0.5
02.515,-0.28
02.531,-0.28
02.546,-0.42
02.562,-0.54
02.578,-0.49
02.593,-0.24
02.609,0.13
02.625,0.47
02.640,0.68
02.656,0.8
02.671,0.92
02.687,1.17
02.703,1.57
02.718,2.04
02.734,2.41
02.750,2.58
02.765,2.55
02.781,2.37
02.796,2.17
02.812,1.98
02.828,1.78
02.843,1.52
02.859,1.15
02.875,0.64
02.890,0.09
02.906,-0.4
02.921,-0.66
02.937,-0.57
02.953,-0.11
02.968,0.6
02.984,1.34
03.000,1.84
03.015,1.92
03.031,1.48
03.046,0.64
03.062,-0.41
03.078,-1.44
03.093,-2.23
03.109,-2.62
03.125,-2.58
03.140,-2.2
03.156,-1.67
03.171,-1.19
03.187,-0.87
03.203,-0.69
03.218,-0.53
03.234,-0.31
03.250,0.01
03.265,0.33
03.281,0.57
03.296,0.69
03.312,0.73
03.328,0.75
03.343,0.83
03.359,0.91
03.375,0.9
03.390,0.76
03.406,0.5
03.421,0.21
03.453,-0.14
03.468,-0.24
03.484,-0.39
03.500,-0.58
03.515,-0.7
03.531,-0.66
03.546,-0.43
03.562,-0.11
03.578,0.12
03.593,0.1
03.609,-0.18
03.625,-0.59
03.640,-0.87
03.656,-0.84
03.671,-0.45
03.687,0.08
03.703,0.46
03.718,0.45
03.750,-0.71
03.765,-1.34
03.781,-1.58
03.796,-1.31
03.812,-0.65
03.828,0.07
03.843,0.52
03.859,0.5
03.875,0.08
03.890,-0.43
03.906,-0.63
03.921,-0.34
03.937,0.37
03.953,1.16
03.968,1.63
03.984,1.54
04.000,0.91
04.015,0.04
04.031,-0.65
04.046,-0.88
04.062,-0.58
04.078,0.08
04.093,0.76
04.109,1.18
04.125,1.17
04.140,0.74
04.156,0.09
04.171,-0.59
04.187,-1.09
04.203,-1.34
04.218,-1.34
04.234,-1.15
04.250,-0.82
04.265,-0.35
04.281,0.24
04.296,0.85
04.312,1.27
04.328,1.28
04.343,0.77
04.359,-0.18
04.375,-1.19
04.390,-1.86
04.406,-1.89
04.421,-1.33
04.437,-0.48
04.453,0.21
04.468,0.45
04.484,0.22
04.500,-0.21
04.515,-0.56
04.531,-0.65
04.546,-0.51
04.562,-0.36
04.578,-0.34
04.593,-0.46
04.609,-0.54
04.625,-0.4
04.640,0.05
04.656,0.67
04.671,1.23
04.687,1.56
04.703,1.63
04.718,1.53
04.734,1.39
04.750,1.25
04.765,1.08
04.781,0.81
04.796,0.46
04.812,0.1
04.828,-0.16
04.843,-0.27
04.859,-0.3
04.875,-0.33
04.890,-0.44
04.906,-0.58
04.921,-0.68
04.937,-0.62
04.953,-0.38
04.984,0.4
05.000,0.73
05.015,0.98
05.031,1.2
05.046,1.48
05.062,1.8
05.078,2.07
05.093,2.11
05.109,1.78
05.125,1.03
05.140,0.06
05.156,-0.83
05.171,-1.29
05.187,-1.13
05.203,-0.4
05.218,0.62
05.234,1.56
05.250,2.17
05.265,2.32
05.281,2.07
05.296,1.56
05.312,0.9
05.328,0.22
05.343,-0.36
05.359,-0.71
05.375,-0.79
05.390,-0.62
05.406,-0.39
05.421,-0.3
05.437,-0.47
05.453,-0.87
05.468,-1.3
05.484,-1.52
05.500,-1.37
05.515,-0.84
05.531,-0.11
05.546,0.54
05.562,0.86
05.578,0.73
05.593,0.16
05.609,-0.67
05.625,-1.54
05.640,-2.25
05.656,-2.7
05.671,-2.89
05.687,-2.85
05.703,-2.65
05.718,-2.29
05.734,-1.79
05.750,-1.18
05.765,-0.6
05.781,-0.19
05.796,-0.04
05.812,-0.07
05.828,-0.11
05.843,0.01
05.859,0.31
05.875,0.63
05.890,0.73
05.906,0.43
05.921,-0.16
05.937,-0.77
05.953,-1.03
05.968,-0.75
05.984,-0.03
06.000,0.85
06.015,1.5
06.031,1.7
06.046,1.48
06.062,0.98
06.078,0.43
06.093,-0.07
06.109,-0.45
06.125,-0.76
06.140,-0.99
06.156,-1.08
06.171,-0.99
06.187,-0.7
06.203,-0.27
06.218,0.18
06.234,0.5
06.250,0.59
06.265,0.43
06.281,0.07
06.296,-0.39
06.312,-0.77
06.328,-0.95
06.343,-0.85
06.359,-0.48
06.375,0.06
06.390,0.57
06.406,0.88
06.421,0.93
06.437,0.79
06.453,0.63
06.468,0.55
06.484,0.59
06.500,0.71
06.515,0.82
06.531,0.88
06.546,0.9
06.562,0.91
06.578,0.93
06.593,0.91
06.609,0.8
06.625,0.55
06.640,0.19
06.656,-0.24
06.671,-0.69
06.687,-1.12
06.703,-1.5
06.718,-1.8
06.734,-1.96
06.750,-1.87
06.765,-1.52
06.781,-0.94
06.796,-0.35
06.812,0.04
06.828,0.12
06.843,-0.06
06.859,-0.29
06.875,-0.34
06.890,-0.09
06.906,0.35
06.921,0.76
06.937,0.92
06.953,0.79
06.968,0.52
06.984,0.34
07.000,0.43
07.015,0.78
07.031,1.2
07.046,1.45
07.062,1.34
07.078,0.85
07.093,0.1
07.109,-0.66
07.125,-1.22
07.140,-1.46
07.156,-1.39
07.171,-1.15
07.187,-0.92
07.203,-0.78
07.218,-0.65
07.234,-0.33
07.250,0.36
07.265,1.37
07.281,2.43
07.296,3.17
07.312,3.28
07.328,2.73
07.343,1.78
07.359,0.83
07.375,0.19
07.390,-0.05
07.406,0.05
07.421,0.29
07.437,0.54
07.453,0.77
07.468,0.99
07.484,1.17
07.500,1.22
07.515,1.05
07.531,0.65
07.546,0.12
07.562,-0.36
07.578,-0.62
07.593,-0.63
07.609,-0.5
07.625,-0.42
07.640,-0.56
07.656,-0.92
07.671,-1.37
07.687,-1.71
07.703,-1.77
07.718,-1.52
07.734,-1.03
07.750,-0.45
07.765,0.11
07.781,0.54
07.796,0.78
07.812,0.81
07.828,0.68
07.843,0.48
07.859,0.35
07.875,0.36
07.890,0.53
07.906,0.76
07.921,0.93
07.937,0.94
07.953,0.74
07.968,0.44
07.984,0.12
08.000,-0.12
08.015,-0.26
08.031,-0.34
08.046,-0.48
08.062,-0.74
08.078,-1.12
08.093,-1.5
08.109,-1.68
08.125,-1.5
08.140,-0.95
08.156,-0.2
08.171,0.45
08.187,0.75
08.203,0.64
08.218,0.26
08.234,-0.16
08.250,-0.45
08.265,-0.61
08.281,-0.73
08.296,-0.98
08.312,-1.43
08.328,-2.06
08.343,-2.77
08.359,-3.4
08.375,-3.76
08.390,-3.68
08.406,-3.07
08.421,-1.97
08.437,-0.59
08.453,0.7
08.468,1.58
08.484,1.88
08.500,1.68
08.515,1.25
08.531,0.9
08.546,0.8
08.562,0.9
08.578,1.08
08.593,1.21
08.609,1.29
08.625,1.43
08.640,1.73
08.656,2.19
08.671,2.65
08.687,2.87
08.703,2.66
08.718,1.95
08.734,0.9
08.750,-0.18
08.765,-0.95
08.781,-1.21
08.796,-0.98
08.812,-0.49
08.828,-0.05
08.843,0.11
08.859,-0.03
08.875,-0.36
08.890,-0.72
08.906,-1.0
08.921,-1.2
08.937,-1.33
08.953,-1.34
08.968,-1.1
08.984,-0.49
09.000,0.39
09.015,1.2
09.031,1.56
09.046,1.19
09.062,0.25
09.078,-0.79
09.093,-1.31
09.109,-0.97
09.125,0.1
09.140,1.36
09.156,2.21
09.171,2.29
09.187,1.69
09.203,0.74
09.218,-0.14
09.234,-0.78
09.250,-1.23
09.265,-1.62
09.281,-2.04
09.296,-2.37
09.312,-2.4
09.328,-2.0
09.343,-1.27
09.359,-0.46
09.375,0.12
09.390,0.31
09.406,0.12
09.421,-0.26
09.437,-0.54
09.453,-0.59
09.468,-0.37
09.484,0.02
09.500,0.45
09.515,0.8
09.531,1.01
09.546,1.1
09.562,1.09
09.578,0.95
09.593,0.67
09.609,0.28
09.625,-0.1
09.640,-0.31
09.656,-0.19
09.671,0.34
09.687,1.16
09.703,2.04
09.718,2.69
09.734,2.91
09.750,2.64
09.765,1.99
09.781,1.15
09.796,0.32
09.812,-0.41
09.828,-0.96
09.843,-1.35
09.859,-1.6
09.875,-1.76
09.890,-1.85
09.906,-1.91
09.921,-1.94
09.937,-1.92
09.953,-1.82
09.968,-1.56
09.984,-1.14
10.000,-0.56
10.015,0.09
10.031,0.71
10.046,1.17
10.062,1.37
10.078,1.27
10.093,0.89
10.109,0.31
10.125,-0.35
10.140,-0.94
10.156,-1.35
10.171,-1.53
10.187,-1.48
10.203,-1.25
10.218,-0.87
10.234,-0.38
10.250,0.22
10.265,0.88
10.281,1.49
10.296,1.85
10.312,1.8
10.328,1.28
10.343,0.43
10.359,-0.45
10.375,-1.01
10.390,-1.02
10.406,-0.48
10.421,0.37
10.437,1.22
10.453,1.81
10.468,2.08
10.484,2.09
10.500,1.99
10.515,1.86
10.531,1.65
10.546,1.26
10.562,0.62
10.578,-0.18
10.593,-0.9
10.609,-1.25
10.625,-1.08
10.640,-0.47
10.656,0.3
10.671,0.85
10.687,0.93
10.703,0.53
10.718,-0.17
10.734,-0.88
10.750,-1.38
10.765,-1.67
10.781,-1.85
10.796,-2.06
10.812,-2.29
10.828,-2.44
10.843,-2.36
10.859,-2.02
10.875,-1.54
10.890,-1.2
10.906,-1.21
10.921,-1.58
10.937,-2.06
10.953,-2.28
10.968,-1.94
10.984,-1.03
11.000,0.19
11.015,1.34
11.031,2.09
11.046,2.34
11.062,2.2
11.078,1.83
11.093,1.36
11.109,0.85
11.125,0.31
11.140,-0.14
11.156,-0.35
11.171,-0.17
11.187,0.46
11.203,1.37
11.218,2.25
11.234,2.78
11.250,2.73
11.265,2.14
11.281,1.2
11.296,0.21
11.312,-0.56
11.328,-0.92
11.343,-0.84
11.359,-0.4
11.375,0.2
11.390,0.74
11.406,1.0
11.421,0.86
11.437,0.27
11.453,-0.65
11.468,-1.7
11.484,-2.62
11.500,-3.17
11.515,-3.17
11.531,-2.59
11.546,-1.56
11.562,-0.35
11.578,0.73
11.593,1.41
11.609,1.53
11.625,1.19
11.640,0.62
11.656,0.18
11.671,0.07
11.687,0.37
11.703,0.97
11.718,1.63
11.734,2.15
11.750,2.36
11.765,2.22
11.781,1.78
11.796,1.16
11.812,0.55
11.828,0.11
11.843,-0.06
11.859,0.04
11.875,0.34
11.890,0.7
11.906,1.02
11.921,1.23
11.937,1.29
11.953,1.12
11.968,0.65
11.984,-0.13
12.000,-1.09
12.015,-2.0
12.031,-2.57
12.046,-2.63
12.062,-2.23
12.078,-1.63
12.093,-1.1
12.109,-0.89
12.125,-0.98
12.140,-1.24
12.156,-1.46
12.171,-1.49
12.187,-1.28
12.203,-0.9
12.218,-0.48
12.234,-0.19
12.250,-0.15
12.265,-0.41
12.281,-0.9
12.296,-1.43
12.312,-1.81
12.328,-1.88
12.343,-1.6
12.359,-1.09
12.375,-0.55
12.390,-0.18
12.406,-0.09
12.421,-0.28
12.437,-0.63
12.453,-0.94
12.468,-1.02
12.484,-0.67
12.500,0.16
12.515,1.37
12.531,2.71
12.546,3.79
12.562,4.3
12.578,4.14
12.593,3.48
12.609,2.66
12.625,1.98
12.640,1.59
12.656,1.36
12.671,1.03
12.687,0.41
12.703,-0.49
12.718,-1.43
12.734,-2.16
12.750,-2.51
12.765,-2.53
12.781,-2.35
12.796,-2.11
12.812,-1.82
12.828,-1.46
12.843,-0.99
12.859,-0.52
12.875,-0.17
12.890,-0.03
12.906,-0.08
12.921,-0.13
12.937,-0.03
12.953,0.31
12.968,0.82
12.984,1.37
13.000,1.82
13.015,2.15
13.031,2.38
13.046,2.51
13.062,2.44
13.078,2.1
13.093,1.44
13.109,0.58
13.125,-0.24
13.140,-0.72
13.156,-0.73
13.171,-0.31
13.187,0.3
13.203,0.81
13.218,1.02
13.234,0.91
13.250,0.55
13.265,0.1
13.281,-0.33
13.296,-0.66
13.312,-0.86
13.328,-0.9
13.343,-0.74
13.359,-0.4
13.375,0.06
13.390,0.53
13.406,0.85
13.421,0.88
13.437,0.54
13.453,-0.09
13.468,-0.86
13.484,-1.52
13.500,-1.87
13.515,-1.84
13.531,-1.51
13.546,-1.04
13.562,-0.6
13.578,-0.27
13.593,0.01
13.609,0.31
13.625,0.68
13.640,1.06
13.656,1.31
13.671,1.31
13.687,1.07
13.703,0.71
13.718,0.37
13.734,0.16
13.750,0.04
13.765,-0.13
13.781,-0.47
13.796,-1.0
13.812,-1.57
13.828,-1.93
13.843,-1.86
13.859,-1.26
13.875,-0.22
13.890,1.02
13.906,2.14
13.921,2.9
13.937,3.22
13.953,3.22
13.968,3.08
13.984,2.94
14.000,2.79
14.015,2.51
14.031,1.96
14.046,1.15
14.062,0.25
14.078,-0.43
14.093,-0.63
14.109,-0.33
14.125,0.24
14.140,0.7
14.156,0.73
14.171,0.2
14.187,-0.7
14.203,-1.66
14.218,-2.35
14.234,-2.6
14.250,-2.41
14.265,-1.91
14.281,-1.28
14.296,-0.75
14.312,-0.46
14.328,-0.54
14.343,-0.99
14.359,-1.71
14.375,-2.46
14.390,-2.95
14.406,-2.92
14.421,-2.32
14.437,-1.32
14.453,-0.27
14.468,0.43
14.484,0.51
14.500,-0.06
14.515,-1.05
14.531,-2.05
14.546,-2.65
14.562,-2.6
14.578,-1.92
14.593,-0.87
14.609,0.17
14.625,0.93
14.640,1.25
14.656,1.18
14.671,0.84
14.687,0.32
14.703,-0.29
14.718,-0.97
14.734,-1.64
14.750,-2.13
14.765,-2.24
14.781,-1.83
14.796,-0.96
14.812,0.12
14.828,1.05
14.843,1.54
14.859,1.47
14.875,0.95
14.890,0.24
14.906,-0.33
14.921,-0.53
14.937,-0.26
14.953,0.39
14.968,1.23
14.984,2.03
15.000,2.62
15.015,2.9
15.031,2.89
15.046,2.62
15.062,2.15
15.078,1.53
15.093,0.81
15.109,0.12
15.125,-0.42
15.140,-0.69
15.156,-0.61
15.171,-0.25
15.187,0.24
15.203,0.66
15.218,0.87
15.234,0.86
15.250,0.72
15.265,0.61
15.281,0.61
15.296,0.72
15.312,0.81
15.328,0.73
15.343,0.4
15.359,-0.1
15.375,-0.62
15.390,-1.02
15.406,-1.21
15.421,-1.25
15.437,-1.23
15.453,-1.2
15.468,-1.09
15.484,-0.86
15.500,-0.49
15.515,-0.17
15.531,-0.12
15.546,-0.55
15.562,-1.42
15.578,-2.45
15.593,-3.24
15.609,-3.5
15.625,-3.16
15.640,-2.41
15.656,-1.5
15.671,-0.67
15.687,0.06
15.703,0.74
15.718,1.41
15.734,2.03
15.750,2.42
15.765,2.48
15.781,2.2
15.796,1.71
15.812,1.21
15.828,0.93
15.843,0.94
15.859,1.22
15.875,1.65
15.890,2.03
15.906,2.22
15.921,2.18
15.937,1.97
15.953,1.73
15.968,1.57
15.984,1.51
16.000,1.46
16.015,1.26
16.031,0.79
16.046,0.1
16.062,-0.61
16.078,-1.07
16.093,-1.08
16.109,-0.7
16.125,-0.18
16.140,0.16
16.156,0.13
16.171,-0.2
16.187,-0.55
16.203,-0.67
16.218,-0.5
16.234,-0.18
16.250,0.01
16.265,-0.08
16.281,-0.43
16.296,-0.79
16.312,-0.96
16.328,-0.87
16.343,-0.63
16.359,-0.47
16.375,-0.48
16.390,-0.6
16.406,-0.64
16.421,-0.49
16.437,-0.18
16.453,0.12
16.468,0.27
16.484,0.24
16.500,0.17
16.515,0.2
16.531,0.42
16.546,0.74
16.562,0.99
16.578,1.0
16.593,0.72
16.609,0.21
16.625,-0.38
16.640,-0.89
16.656,-1.17
16.671,-1.18
16.687,-0.94
16.703,-0.56
16.718,-0.19
16.734,0.02
16.750,0.03
16.765,-0.13
16.781,-0.34
16.796,-0.53
16.812,-0.72
16.828,-0.9
16.843,-1.09
16.859,-1.2
16.875,-1.14
16.890,-0.87
16.906,-0.49
16.921,-0.23
16.937,-0.23
16.953,-0.45
16.968,-0.67
16.984,-0.67
17.000,-0.36
17.015,0.12
17.031,0.46
17.046,0.49
17.062,0.22
17.078,-0.07
17.093,-0.11
17.109,0.21
17.125,0.71
17.140,1.1
17.156,1.15
17.171,0.89
17.187,0.53
17.203,0.3
17.218,0.35
17.234,0.6
17.250,0.9
17.265,1.06
17.281,1.05
17.296,0.93
17.312,0.76
17.328,0.6
17.343,0.45
17.359,0.3
17.375,0.14
17.390,-0.02
17.406,-0.18
17.421,-0.36
17.437,-0.57
17.453,-0.84
17.468,-1.12
17.484,-1.37
17.500,-1.54
17.515,-1.59
17.531,-1.48
17.546,-1.2
17.562,-0.79
17.578,-0.35
17.593,-0.1
17.609,-0.21
17.625,-0.67
17.640,-1.29
17.656,-1.71
17.671,-1.61
17.687,-0.93
17.703,0.11
17.718,1.03
17.734,1.41
17.750,1.06
17.765,0.13
17.781,-0.98
17.796,-1.8
17.812,-2.03
17.828,-1.59
17.843,-0.63
17.859,0.58
17.875,1.72
17.890,2.58
17.906,3.03
17.921,3.06
17.937,2.72
17.953,2.1
17.968,1.37
17.984,0.66
18.000,0.1
18.015,-0.24
18.031,-0.38
18.046,-0.37
18.062,-0.32
18.078,-0.3
18.093,-0.32
18.109,-0.35
18.125,-0.37
18.140,-0.42
18.156,-0.56
18.171,-0.84
18.187,-1.23
18.203,-1.56
18.218,-1.63
18.234,-1.32
18.250,-0.69
18.265,0.06
18.281,0.65
18.296,0.87
18.312,0.65
18.328,0.13
18.343,-0.46
18.359,-0.85
18.375,-0.84
18.390,-0.4
18.406,0.32
18.421,1.03
18.437,1.43
18.453,1.38
18.468,0.94
18.484,0.38
18.500,0.02
18.515,0.05
18.531,0.46
18.546,0.99
18.562,1.35
18.578,1.36
18.593,1.06
18.609,0.67
18.625,0.47
18.640,0.59
18.656,0.97
18.671,1.38
18.687,1.56
18.703,1.38
18.718,0.92
18.734,0.48
18.750,0.32
18.765,0.55
18.781,1.05
18.796,1.48
18.812,1.5
18.828,0.97
18.843,-0.03
18.859,-1.19
18.875,-2.15
18.890,-2.63
18.906,-2.51
18.921,-1.86
18.937,-0.85
18.953,0.22
18.968,1.09
18.984,1.52
19.000,1.43
19.015,0.87
19.031,0.03
19.046,-0.84
19.062,-1.5
19.078,-1.78
19.093,-1.64
19.109,-1.12
19.125,-0.36
19.140,0.42
19.156,1.0
19.171,1.22
19.187,1.04
19.203,0.56
19.218,-0.05
19.234,-0.58
19.250,-0.98
19.265,-1.3
19.281,-1.65
19.296,-2.09
19.312,-2.55
19.328,-2.87
19.343,-2.94
19.359,-2.74
19.375,-2.44
19.390,-2.17
19.406,-1.98
19.421,-1.7
19.437,-1.1
19.453,-0.01
19.468,1.49
19.484,3.06
19.500,4.22
19.515,4.64
19.531,4.25
19.546,3.25
19.562,1.99
19.578,0.82
19.593,-0.13
19.609,-0.81
19.625,-1.29
19.640,-1.53
19.656,-1.53
19.671,-1.32
19.687,-1.03
19.703,-0.9
19.718,-1.1
19.734,-1.61
19.750,-2.18
19.765,-2.45
19.781,-2.12
19.796,-1.15
19.812,0.19
19.828,1.41
19.843,2.05
19.859,1.96
19.875,1.33
19.890,0.56
19.906,0.05
19.921,-0.04
19.937,0.17
19.953,0.38
19.968,0.34
19.984,-0.02
20.000,-0.52
20.015,-0.9
20.031,-0.97
20.046,-0.7
20.062,-0.27
20.078,0.07
20.093,0.15
20.109,-0.03
20.125,-0.36
20.140,-0.64
20.156,-0.72
20.171,-0.59
20.187,-0.29
20.203,0.08
20.218,0.42
20.234,0.75
20.250,1.14
20.265,1.63
20.281,2.18
20.296,2.67
20.312,2.94
20.328,2.89
20.343,2.56
20.359,2.12
20.375,1.73
20.390,1.48
20.406,1.35
20.421,1.23
20.437,1.03
20.453,0.72
20.468,0.4
20.484,0.13
20.500,-0.07
20.515,-0.24
20.531,-0.44
20.546,-0.67
20.562,-0.88
20.578,-0.98
20.593,-0.97
20.609,-0.9
20.625,-0.87
20.640,-0.96
20.656,-1.11
20.671,-1.23
20.687,-1.23
20.703,-1.12
20.718,-1.03
20.734,-1.08
20.750,-1.31
20.765,-1.59
20.781,-1.71
20.796,-1.51
20.812,-0.95
20.828,-0.2
20.843,0.46
20.859,0.8
20.875,0.69
20.890,0.21
20.906,-0.4
20.921,-0.89
20.937,-1.07
20.953,-0.83
20.968,-0.2
20.984,0.75
21.000,1.86
21.015,2.98
21.031,3.88
21.046,4.36
21.062,4.27
21.078,3.64
21.093,2.67
21.109,1.64
21.125,0.83
21.140,0.35
21.156,0.08
21.171,-0.18
21.187,-0.63
21.203,-1.23
21.218,-1.85
21.234,-2.28
21.250,-2.39
21.265,-2.21
21.281,-1.91
21.296,-1.68
21.312,-1.59
21.328,-1.64
21.343,-1.74
21.359,-1.85
21.375,-1.9
21.390,-1.86
21.406,-1.66
21.421,-1.24
21.437,-0.64
21.453,0.04
21.468,0.59
21.484,0.84
21.500,0.71
21.515,0.32
21.531,-0.1
21.546,-0.31
21.562,-0.26
21.578,-0.09
21.593,-0.07
21.609,-0.41
21.625,-1.12
21.640,-1.96
21.656,-2.51
21.671,-2.43
21.687,-1.61
21.703,-0.28
21.718,1.15
21.734,2.23
21.750,2.7
21.765,2.56
21.781,2.07
21.796,1.51
21.812,1.08
21.828,0.81
21.843,0.61
21.859,0.44
21.875,0.36
21.890,0.49
21.906,0.95
21.921,1.64
21.937,2.27
21.953,2.51
21.968,2.19
21.984,1.46
22.000,0.71
22.015,0.33
22.031,0.48
22.046,0.97
22.062,1.4
22.078,1.45
22.093,1.1
22.109,0.61
22.125,0.3
22.140,0.29
22.156,0.46
22.171,0.53
22.187,0.3
22.203,-0.19
22.218,-0.7
22.234,-0.98
22.250,-0.96
22.265,-0.81
22.281,-0.77
22.296,-1.04
22.312,-1.6
22.328,-2.28
22.343,-2.88
22.359,-3.29
22.375,-3.45
22.390,-3.35
22.406,-2.97
22.421,-2.32
22.437,-1.51
22.453,-0.75
22.468,-0.26
22.484,-0.16
22.500,-0.42
22.515,-0.84
22.531,-1.19
22.546,-1.32
22.562,-1.22
22.578,-0.96
22.593,-0.61
22.609,-0.22
22.625,0.19
22.640,0.59
22.656,0.89
22.671,0.98
22.687,0.8
22.703,0.31
22.718,-0.35
22.734,-1.01
22.750,-1.43
22.765,-1.48
22.781,-1.16
22.796,-0.61
22.812,-0.11
22.828,0.16
22.843,0.11
22.859,-0.1
22.875,-0.21
22.906,0.6
22.921,1.41
22.937,2.12
22.953,2.47
22.968,2.36
22.984,1.93
23.000,1.44
23.015,1.14
23.031,1.14
23.046,1.36
23.062,1.62
23.078,1.76
23.093,1.71
23.109,1.52
23.125,1.32
23.140,1.24
23.156,1.3
23.171,1.42
23.187,1.48
23.203,1.42
23.218,1.27
23.234,1.11
23.250,0.99
23.265,0.83
23.281,0.52
23.296,-0.01
23.312,-0.67
23.328,-1.14
23.343,-1.14
23.359,-0.53
23.375,0.49
23.390,1.43
23.406,1.71
23.421,1.02
23.437,-0.49
23.453,-2.27
23.468,-3.6
23.484,-4.0
23.500,-3.38
23.515,-2.04
23.531,-0.48
23.546,0.86
23.562,1.76
23.578,2.23
23.593,2.34
23.609,2.15
23.625,1.62
23.640,0.76
23.656,-0.3
23.671,-1.33
23.687,-2.02
23.703,-2.23
23.718,-1.96
23.734,-1.47
23.750,-1.04
23.765,-0.86
23.781,-0.93
23.796,-1.12
23.812,-1.28
23.828,-1.33
23.843,-1.31
23.859,-1.27
23.875,-1.26
23.890,-1.19
23.906,-0.97
23.921,-0.52
23.937,0.14
23.953,0.84
23.968,1.4
23.984,1.63
24.000,1.48
24.015,1.02
24.031,0.42
24.046,-0.16
24.062,-0.56
24.078,-0.69
24.093,-0.58
24.109,-0.34
24.125,-0.14
24.140,-0.09
24.156,-0.25
24.171,-0.53
24.187,-0.83
24.203,-1.03
24.218,-1.05
24.234,-0.91
24.250,-0.56
24.281,0.74
24.296,1.57
24.312,2.3
24.328,2.75
24.343,2.81
24.359,2.51
24.375,2.0
24.390,1.49
24.406,1.15
24.421,0.97
24.437,0.88
24.453,0.77
24.468,0.54
24.484,0.13
24.500,-0.37
24.515,-0.83
24.531,-1.12
24.546,-1.13
24.562,-0.89
24.578,-0.55
24.593,-0.33
24.609,-0.45
24.625,-0.94
24.640,-1.62
24.656,-2.15
24.671,-2.2
24.687,-1.64
24.703,-0.64
24.718,0.44
24.734,1.2
24.750,1.48
24.765,1.35
24.781,1.09
24.796,0.95
24.812,1.0
24.828,1.13
24.843,1.07
24.859,0.68
24.875,-0.04
24.890,-0.85
24.906,-1.48
24.921,-1.76
24.937,-1.69
24.953,-1.36
24.968,-0.85
24.984,-0.25
25.000,0.39
25.015,0.98
25.031,1.37
25.046,1.44
25.062,1.17
25.078,0.68
25.093,0.2
25.125,0.15
25.140,0.55
25.156,0.95
25.171,1.07
25.187,0.78
25.203,0.17
25.218,-0.5
25.234,-0.92
25.250,-0.89
25.265,-0.45
25.281,0.15
25.296,0.57
25.312,0.6
25.328,0.2
25.343,-0.41
25.359,-0.95
25.375,-1.22
25.390,-1.21
25.406,-1.08
25.421,-0.99
25.437,-1.01
25.453,-1.01
25.468,-0.79
25.484,-0.25
25.500,0.5
25.515,1.17
25.531,1.45
25.546,1.17
25.562,0.42
25.578,-0.53
25.593,-1.31
25.609,-1.69
25.625,-1.59
25.640,-1.1
25.656,-0.43
25.671,0.2
25.687,0.54
25.703,0.51
25.718,0.07
25.734,-0.6
25.750,-1.28
25.765,-1.67
25.781,-1.62
25.796,-1.08
25.812,-0.24
25.828,0.63
25.843,1.28
25.859,1.57
25.875,1.5
25.890,1.16
25.906,0.65
25.921,0.05
25.937,-0.53
25.953,-0.97
25.968,-1.08
25.984,-0.69
26.000,0.29
26.015,1.74
26.031,3.31
26.046,4.59
26.062,5.17
26.078,4.87
26.093,3.77
26.109,2.16
26.125,0.43
26.140,-1.08
26.156,-2.12
26.171,-2.61
26.187,-2.56
26.203,-2.11
26.218,-1.44
26.234,-0.77
26.250,-0.23
26.265,0.08
26.281,0.15
26.296,0.06
26.312,-0.11
26.328,-0.28
26.343,-0.38
26.359,-0.37
26.375,-0.23
26.406,0.28
26.421,0.53
26.437,0.64
26.453,0.53
26.468,0.18
26.484,-0.33
26.500,-0.83
26.515,-1.16
26.531,-1.2
26.546,-0.97
26.562,-0.63
26.578,-0.4
26.593,-0.48
26.609,-0.89
26.625,-1.5
26.640,-2.06
26.656,-2.33
26.671,-2.25
26.687,-1.88
26.703,-1.42
26.718,-0.99
26.734,-0.64
26.750,-0.31
26.765,0.12
26.781,0.66
26.796,1.24
26.812,1.76
26.828,2.14
26.843,2.41
26.859,2.62
26.875,2.78
26.890,2.77
26.906,2.43
26.921,1.67
26.937,0.6
26.953,-0.5
26.968,-1.26
26.984,-1.46
27.000,-1.13
27.015,-0.5
27.031,0.15
27.046,0.64
27.062,0.92
27.078,1.02
27.093,0.97
27.109,0.75
27.125,0.41
27.140,0.03
27.156,-0.2
27.171,-0.16
27.187,0.16
27.203,0.58
27.218,0.84
27.234,0.75
27.250,0.23
27.265,-0.59
27.281,-1.55
27.296,-2.4
27.312,-3.05
27.328,-3.4
27.343,-3.46
27.359,-3.26
27.375,-2.84
27.390,-2.33
27.406,-1.84
27.421,-1.52
27.437,-1.42
27.453,-1.52
27.468,-1.67
27.484,-1.69
27.500,-1.42
27.515,-0.79
27.531,0.14
27.546,1.16
27.562,2.01
27.578,2.5
27.593,2.51
27.609,2.09
27.625,1.41
27.640,0.67
27.656,0.12
27.671,-0.09
27.687,0.1
27.703,0.64
27.718,1.34
27.734,1.98
27.750,2.38
27.765,2.45
27.781,2.22
27.796,1.79
27.812,1.28
27.828,0.81
27.843,0.44
27.859,0.24
27.875,0.26
27.890,0.53
27.906,1.0
27.921,1.52
27.937,1.88
27.953,1.86
27.968,1.38
27.984,0.52
28.000,-0.46
28.015,-1.26
28.031,-1.67
28.046,-1.67
28.062,-1.43
28.078,-1.2
28.093,-1.13
28.109,-1.2
28.125,-1.26
28.140,-1.19
28.156,-1.0
28.171,-0.83
28.187,-0.83
28.203,-0.94
28.218,-0.91
28.234,-0.46
28.250,0.5
28.265,1.69
28.281,2.65
28.296,2.88
28.312,2.25
28.328,0.95
28.343,-0.53
28.359,-1.73
28.375,-2.4
28.390,-2.53
28.406,-2.3
28.421,-1.91
28.437,-1.47
28.453,-1.06
28.468,-0.68
28.484,-0.36
28.500,-0.14
28.515,-0.04
28.531,-0.05
28.546,-0.16
28.562,-0.32
28.578,-0.48
28.593,-0.54
28.609,-0.44
28.625,-0.12
28.640,0.33
28.656,0.76
28.671,0.97
28.687,0.86
28.703,0.48
28.718,0.03
28.734,-0.28
28.750,-0.34
28.765,-0.13
28.781,0.22
28.796,0.57
28.812,0.88
28.828,1.17
28.843,1.5
28.859,1.84
28.875,2.04
28.890,1.96
28.906,1.52
28.921,0.89
28.937,0.31
28.953,0.05
28.968,0.15
28.984,0.48
29.000,0.82
29.015,0.99
29.031,1.05
29.046,1.16
29.062,1.44
29.078,1.86
29.093,2.17
29.109,2.12
29.125,1.57
29.140,0.61
29.156,-0.48
29.171,-1.42
29.187,-2.07
29.203,-2.46
29.218,-2.69
29.234,-2.81
29.250,-2.74
29.265,-2.37
29.281,-1.66
29.296,-0.75
29.312,0.1
29.328,0.59
29.343,0.57
29.359,0.1
29.375,-0.58
29.390,-1.22
29.406,-1.61
29.421,-1.64
29.437,-1.31
29.453,-0.73
29.468,-0.03
29.484,0.59
29.500,0.97
29.515,1.08
29.531,0.98
29.546,0.81
29.562,0.73
29.578,0.79
29.593,0.96
29.609,1.16
29.625,1.33
29.640,1.45
29.656,1.51
29.671,1.45
29.687,1.19
29.703,0.64
29.718,-0.13
29.734,-0.94
29.750,-1.51
29.765,-1.66
29.781,-1.35
29.796,-0.77
29.812,-0.17
29.828,0.26
29.843,0.42
29.859,0.31
29.890,-0.46
29.906,-1.02
29.921,-1.58
29.937,-2.02
29.953,-2.22
29.968,-2.14
29.984,-1.84
30.000,-1.47
30.015,-1.19
30.031,-1.06
30.046,-1.04
30.062,-0.99
30.078,-0.79
30.093,-0.39
30.109,0.16
30.125,0.74
30.140,1.26
30.156,1.62
30.171,1.76
30.187,1.71
30.203,1.56
30.218,1.46
30.234,1.56
30.250,1.93
30.265,2.52
30.281,3.16
30.296,3.6
30.312,3.61
30.328,3.11
30.343,2.2
30.359,1.12
30.375,0.19
30.390,-0.34
30.406,-0.48
30.421,-0.38
30.437,-0.31
30.453,-0.45
30.468,-0.81
30.484,-1.2
30.500,-1.4
30.515,-1.27
30.531,-0.9
30.546,-0.54
30.562,-0.45
30.578,-0.73
30.593,-1.24
30.609,-1.7
30.625,-1.88
30.640,-1.72
30.656,-1.4
30.671,-1.12
30.687,-1.04
30.703,-1.13
30.718,-1.24
30.734,-1.25
30.750,-1.12
30.765,-0.97
30.781,-0.92
30.796,-1.04
30.812,-1.22
30.828,-1.27
30.843,-1.03
30.859,-0.55
30.875,-0.02
30.890,0.27
30.906,0.17
30.921,-0.25
30.937,-0.71
30.953,-0.88
30.968,-0.6
30.984,0.01
31.000,0.69
31.015,1.15
31.031,1.3
31.046,1.23
31.062,1.19
31.078,1.33
31.093,1.6
31.109,1.79
31.125,1.68
31.140,1.15
31.156,0.33
31.171,-0.54
31.187,-1.17
31.203,-1.37
31.218,-1.14
31.234,-0.57
31.250,0.17
31.265,0.88
31.281,1.45
31.296,1.75
31.312,1.67
31.328,1.19
31.343,0.4
31.359,-0.51
31.375,-1.29
31.390,-1.73
31.406,-1.75
31.421,-1.42
31.437,-0.86
31.453,-0.21
31.468,0.5
31.484,1.23
31.500,1.9
31.515,2.36
31.531,2.42
31.546,1.98
31.562,1.15
31.578,0.27
31.593,-0.32
31.609,-0.41
31.625,-0.02
31.640,0.58
31.656,1.09
31.671,1.3
31.687,1.2
31.703,0.93
31.718,0.66
31.734,0.42
31.750,0.22
31.765,-0.03
31.781,-0.33
31.796,-0.58
31.812,-0.69
31.828,-0.58
31.843,-0.37
31.859,-0.22
31.875,-0.31
31.890,-0.71
31.906,-1.29
31.921,-1.88
31.937,-2.27
31.953,-2.4
31.968,-2.26
31.984,-1.92
32.000,-1.38
32.015,-0.62
32.031,0.35
32.046,1.37
32.062,2.16
32.078,2.43
32.093,2.04
32.109,1.1
32.125,-0.02
32.140,-0.88
32.156,-1.19
32.171,-0.88
32.187,-0.19
32.203,0.53
32.218,0.99
32.234,1.06
32.250,0.82
32.265,0.42
32.281,0.02
32.296,-0.29
32.312,-0.49
32.328,-0.61
32.343,-0.64
32.359,-0.63
32.375,-0.6
32.390,-0.63
32.406,-0.77
32.421,-1.03
32.437,-1.36
32.453,-1.62
32.468,-1.7
32.484,-1.51
32.500,-1.08
32.515,-0.51
32.531,0.09
32.546,0.59
32.562,0.9
32.578,0.94
32.593,0.75
32.609,0.35
32.625,-0.14
32.640,-0.62
32.656,-1.0
32.671,-1.26
32.687,-1.45
32.703,-1.56
32.718,-1.55
32.734,-1.3
32.750,-0.75
32.765,0.07
32.781,0.94
32.796,1.58
32.812,1.79
32.828,1.55
32.843,1.07
32.859,0.65
32.875,0.49
32.890,0.59
32.906,0.82
32.921,0.93
32.937,0.79
32.953,0.45
32.968,0.06
32.984,-0.17
33.000,-0.09
33.015,0.35
33.031,1.04
33.046,1.76
33.062,2.29
33.078,2.45
33.093,2.24
33.109,1.83
33.125,1.51
33.140,1.51
33.156,1.8
33.171,2.13
33.187,2.15
33.203,1.67
33.218,0.85
33.234,0.1
33.250,-0.22
33.265,-0.01
33.281,0.41
33.296,0.59
33.312,0.17
33.328,-0.82
33.343,-1.97
33.359,-2.77
33.375,-2.84
33.390,-2.18
33.406,-1.12
33.421,-0.12
33.437,0.43
33.453,0.37
33.468,-0.25
33.484,-1.2
33.500,-2.2
33.515,-2.93
33.531,-3.16
33.546,-2.81
33.562,-2.01
33.578,-1.08
33.593,-0.4
33.609,-0.27
33.625,-0.73
33.640,-1.59
33.656,-2.47
33.671,-3.01
33.687,-3.0
33.703,-2.47
33.718,-1.6
33.734,-0.69
33.750,0.07
33.765,0.63
33.781,0.97
33.796,1.15
33.812,1.17
33.828,1.11
33.843,1.06
33.859,1.18
33.875,1.6
33.890,2.3
33.906,3.04
33.921,3.48
33.937,3.36
33.953,2.61
33.968,1.5
33.984,0.43
34.000,-0.25
34.015,-0.42
34.031,-0.19
34.046,0.22
34.062,0.59
34.078,0.9
34.093,1.14
34.109,1.31
34.125,1.32
34.140,1.07
34.156,0.52
34.171,-0.23
34.187,-0.93
34.203,-1.32
34.218,-1.21
34.234,-0.62
34.250,0.22
34.265,1.01
34.281,1.46
34.296,1.46
34.312,1.08
34.328,0.55
34.343,0.08
34.359,-0.19
34.375,-0.32
34.390,-0.45
34.406,-0.69
34.421,-1.08
34.437,-1.52
34.453,-1.85
34.468,-1.99
34.484,-1.96
34.500,-1.83
34.515,-1.66
34.531,-1.42
34.546,-1.03
34.562,-0.49
34.578,0.12
34.593,0.57
34.609,0.69
34.625,0.44
34.640,-0.01
34.656,-0.32
34.671,-0.27
34.687,0.23
34.703,1.0
34.718,1.72
34.734,2.11
34.750,2.1
34.765,1.82
34.781,1.54
34.796,1.41
34.812,1.37
34.828,1.21
34.843,0.68
34.859,-0.3
34.875,-1.56
34.890,-2.74
34.906,-3.46
34.921,-3.53
34.937,-3.01
34.953,-2.18
34.968,-1.36
34.984,-0.79
35.000,-0.51
35.015,-0.41
35.031,-0.33
35.046,-0.17
35.062,0.05
35.078,0.26
35.093,0.33
35.109,0.25
35.125,0.06
35.140,-0.11
35.156,-0.16
35.171,-0.09
35.187,0.06
35.203,0.22
35.218,0.4
35.234,0.64
35.250,1.04
35.265,1.55
35.281,2.02
35.296,2.19
35.312,1.85
35.328,0.97
35.343,-0.21
35.359,-1.26
35.375,-1.74
35.390,-1.41
35.406,-0.37
35.421,0.98
35.437,2.17
35.453,2.82
35.468,2.8
35.484,2.27
35.500,1.53
35.515,0.85
35.531,0.42
35.546,0.27
35.562,0.32
35.578,0.47
35.593,0.57
35.609,0.56
35.625,0.39
35.640,0.1
35.656,-0.24
35.671,-0.53
35.687,-0.79
35.703,-1.07
35.718,-1.47
35.734,-2.02
35.750,-2.65
35.765,-3.13
35.781,-3.26
35.796,-2.93
35.812,-2.18
35.828,-1.24
35.843,-0.34
35.859,0.3
35.875,0.56
35.890,0.46
35.906,0.11
35.921,-0.4
35.937,-0.92
35.953,-1.32
35.968,-1.48
35.984,-1.31
36.000,-0.82
36.015,-0.14
36.031,0.56
36.046,1.12
36.062,1.47
36.078,1.69
36.093,1.94
36.109,2.3
36.125,2.77
36.140,3.14
36.156,3.17
36.171,2.7
36.187,1.75
36.203,0.54
36.218,-0.62
36.234,-1.47
36.250,-1.92
36.265,-2.01
36.281,-1.85
36.296,-1.61
36.312,-1.43
36.328,-1.36
36.343,-1.42
36.359,-1.59
36.375,-1.73
36.390,-1.75
36.406,-1.51
36.421,-0.99
36.437,-0.22
36.453,0.7
36.468,1.62
36.484,2.39
36.500,2.84
36.515,2.83
36.531,2.31
36.546,1.36
36.562,0.2
36.578,-0.86
36.593,-1.5
36.609,-1.59
36.625,-1.15
36.640,-0.39
36.656,0.42
36.671,1.01
36.687,1.22
36.703,1.02
36.718,0.57
36.734,0.07
36.750,-0.25
36.765,-0.28
36.781,-0.03
36.796,0.3
36.812,0.51
36.828,0.46
36.843,0.16
36.859,-0.21
36.875,-0.43
36.890,-0.41
36.906,-0.21
36.921,0.01
36.937,0.09
36.968,-0.12
36.984,-0.15
37.000,0.03
37.015,0.33
37.031,0.53
37.046,0.44
37.062,-0.05
37.078,-0.78
37.093,-1.48
37.109,-1.84
37.125,-1.73
37.140,-1.26
37.156,-0.65
37.171,-0.22
37.187,-0.09
37.203,-0.28
37.218,-0.62
37.234,-0.89
37.250,-0.92
37.265,-0.64
37.281,-0.1
37.296,0.53
37.312,1.08
37.328,1.41
37.343,1.45
37.359,1.23
37.375,0.89
37.390,0.55
37.406,0.29
37.421,0.17
37.437,0.18
37.453,0.35
37.468,0.65
37.484,1.05
37.500,1.44
37.515,1.67
37.531,1.62
37.546,1.3
37.562,0.82
37.578,0.35
37.593,-0.02
37.609,-0.22
37.625,-0.35
37.640,-0.42
37.656,-0.43
37.671,-0.33
37.687,-0.09
37.703,0.2
37.718,0.4
37.734,0.35
37.750,0.05
37.765,-0.33
37.781,-0.53
37.796,-0.41
37.812,-0.03
37.828,0.37
37.843,0.47
37.859,0.11
37.875,-0.57
37.890,-1.33
37.906,-1.86
37.921,-2.1
37.937,-2.16
37.953,-2.23
37.968,-2.45
37.984,-2.75
38.000,-2.92
38.015,-2.72
38.031,-2.03
38.046,-0.97
38.062,0.16
38.078,1.02
38.093,1.39
38.109,1.27
38.125,0.85
38.140,0.42
38.156,0.23
38.171,0.42
38.187,0.92
38.203,1.54
38.218,2.02
38.234,2.16
38.250,1.92
38.265,1.39
38.281,0.77
38.296,0.25
38.312,-0.06
38.328,-0.11
38.343,0.04
38.359,0.28
38.375,0.51
38.390,0.61
38.406,0.49
38.421,0.13
38.437,-0.43
38.453,-1.05
38.468,-1.6
38.484,-1.92
38.500,-1.92
38.515,-1.58
38.531,-0.89
38.546,0.1
38.562,1.32
38.578,2.56
38.593,3.53
38.609,3.9
38.625,3.47
38.640,2.37
38.656,0.97
38.671,-0.23
38.687,-0.85
38.703,-0.8
38.718,-0.24
38.734,0.51
38.750,1.15
38.765,1.52
38.781,1.61
38.796,1.45
38.812,1.1
38.828,0.56
38.843,-0.17
38.859,-1.03
38.875,-1.87
38.890,-2.45
38.906,-2.62
38.921,-2.32
38.937,-1.74
38.953,-1.15
38.968,-0.83
38.984,-0.9
39.000,-1.19
39.015,-1.37
39.031,-1.14
39.046,-0.44
39.062,0.5
39.078,1.28
39.093,1.58
39.109,1.3
39.125,0.61
39.140,-0.15
39.156,-0.68
39.171,-0.89
39.187,-0.85
39.203,-0.75
39.218,-0.76
39.234,-0.92
39.250,-1.19
39.265,-1.43
39.281,-1.56
39.296,-1.52
39.312,-1.37
39.328,-1.18
39.343,-1.03
39.359,-0.91
39.375,-0.74
39.390,-0.41
39.406,0.15
39.421,0.82
39.437,1.41
39.453,1.7
39.468,1.61
39.484,1.24
39.500,0.85
39.515,0.75
39.531,1.13
39.546,1.92
39.562,2.87
39.578,3.64
39.593,3.98
39.609,3.8
39.625,3.19
39.640,2.31
39.656,1.33
39.671,0.38
39.687,-0.4
39.703,-0.85
39.718,-0.9
39.734,-0.57
39.750,-0.06
39.765,0.33
39.781,0.31
39.796,-0.2
39.812,-1.05
39.828,-1.93
39.843,-2.49
39.859,-2.56
39.875,-2.13
39.890,-1.37
39.906,-0.47
39.921,0.35
39.937,0.9
39.953,1.04
39.968,0.7
39.984,-0.1
40.000,-1.21
40.015,-2.26
40.031,-2.89
40.046,-2.76
40.062,-1.81
40.078,-0.3
40.093,1.25
40.109,2.25
40.125,2.32
40.140,1.46
40.156,0.08
40.171,-1.23
40.187,-1.92
40.203,-1.75
40.218,-0.87
40.234,0.39
40.250,1.6
40.265,2.49
40.281,2.96
40.296,3.04
40.312,2.8
40.328,2.31
40.343,1.58
40.359,0.7
40.375,-0.24
40.390,-1.06
40.406,-1.57
40.421,-1.64
40.437,-1.27
40.453,-0.58
40.468,0.2
40.484,0.79
40.500,1.01
40.515,0.81
40.531,0.26
40.546,-0.45
40.562,-1.16
40.578,-1.76
40.593,-2.21
40.609,-2.53
40.625,-2.73
40.640,-2.82
40.656,-2.8
40.671,-2.72
40.687,-2.66
40.703,-2.72
40.718,-2.9
40.734,-3.16
40.750,-3.33
40.765,-3.21
40.781,-2.71
40.796,-1.87
40.812,-0.9
40.828,-0.07
40.843,0.39
40.859,0.45
40.875,0.27
40.890,0.08
40.906,0.01
40.921,0.12
40.937,0.33
40.953,0.61
40.968,1.02
40.984,1.6
41.000,2.34
41.015,3.04
41.031,3.46
41.046,3.36
41.062,2.73
41.078,1.79
41.093,0.91
41.109,0.48
41.125,0.63
41.140,1.28
41.156,2.06
41.171,2.56
41.187,2.48
41.203,1.79
41.218,0.75
41.234,-0.26
41.250,-0.92
41.265,-1.12
41.281,-0.97
41.296,-0.73
41.312,-0.59
41.328,-0.58
41.343,-0.57
41.359,-0.41
41.375,-0.07
41.390,0.33
41.406,0.56
41.421,0.47
41.437,0.06
41.453,-0.48
41.468,-0.87
41.484,-0.89
41.500,-0.47
41.515,0.27
41.531,1.07
41.546,1.65
41.562,1.8
41.578,1.5
41.593,0.93
41.609,0.34
41.625,-0.05
41.640,-0.15
41.656,-0.03
41.671,0.15
41.687,0.27
41.703,0.29
41.718,0.29
41.734,0.37
41.750,0.59
41.765,0.97
41.781,1.39
41.796,1.73
41.812,1.85
41.828,1.63
41.843,1.06
41.859,0.16
41.875,-0.97
41.890,-2.22
41.906,-3.41
41.921,-4.39
41.937,-4.97
41.953,-5.04
41.968,-4.52
41.984,-3.49
42.000,-2.14
42.015,-0.75
42.031,0.34
42.046,0.89
42.062,0.84
42.078,0.37
42.093,-0.21
42.109,-0.49
42.125,-0.27
42.140,0.5
42.156,1.59
42.171,2.61
42.187,3.24
42.203,3.25
42.218,2.76
42.234,2.02
42.250,1.41
42.265,1.2
42.281,1.49
42.296,2.11
42.312,2.67
42.328,2.82
42.343,2.32
42.359,1.22
42.375,-0.15
42.390,-1.38
42.406,-2.13
42.421,-2.32
42.437,-2.08
42.453,-1.64
42.468,-1.13
42.484,-0.62
42.500,-0.05
42.515,0.59
42.531,1.27
42.546,1.8
42.562,1.98
42.578,1.64
42.593,0.8
42.609,-0.32
42.625,-1.38
42.640,-2.04
42.656,-2.07
42.671,-1.51
42.687,-0.66
42.703,0.09
42.718,0.45
42.734,0.32
42.750,-0.1
42.765,-0.55
42.781,-0.81
42.796,-0.85
42.812,-0.78
42.828,-0.75
42.843,-0.83
42.859,-0.93
42.875,-0.95
42.890,-0.79
42.906,-0.5
42.921,-0.26
42.937,-0.27
42.953,-0.61
42.968,-1.15
42.984,-1.63
43.000,-1.75
43.015,-1.41
43.031,-0.68
43.046,0.12
43.062,0.69
43.078,0.86
43.093,0.71
43.109,0.48
43.125,0.43
43.140,0.62
43.156,0.9
43.171,1.03
43.187,0.82
43.203,0.3
43.218,-0.29
43.234,-0.63
43.250,-0.48
43.265,0.17
43.281,1.07
43.296,1.86
43.312,2.24
43.328,2.12
43.343,1.63
43.359,1.05
43.375,0.6
43.390,0.35
43.406,0.25
43.421,0.13
43.437,-0.07
43.453,-0.27
43.468,-0.35
43.484,-0.16
43.500,0.28
43.515,0.8
43.531,1.12
43.546,1.01
43.562,0.42
43.578,-0.46
43.593,-1.3
43.609,-1.81
43.625,-1.85
43.640,-1.47
43.656,-0.9
43.671,-0.35
43.687,0.03
43.703,0.22
43.718,0.24
43.734,0.15
43.750,-0.04
43.765,-0.34
43.781,-0.7
43.796,-1.03
43.812,-1.2
43.828,-1.14
43.843,-0.85
43.859,-0.44
43.875,-0.01
43.890,0.31
43.906,0.49
43.921,0.48
43.937,0.22
43.953,-0.23
43.968,-0.74
43.984,-1.09
44.000,-1.05
44.015,-0.54
44.031,0.29
44.046,1.13
44.062,1.64
44.078,1.63
44.093,1.11
44.109,0.27
44.125,-0.6
44.140,-1.25
44.156,-1.49
44.171,-1.25
44.187,-0.58
44.203,0.41
44.218,1.52
44.234,2.5
44.250,3.09
44.265,3.19
44.281,2.8
44.296,2.12
44.312,1.39
44.328,0.81
44.343,0.49
44.359,0.47
44.375,0.72
44.390,1.15
44.406,1.63
44.421,1.9
44.437,1.7
44.453,0.88
44.468,-0.45
44.484,-1.94
44.500,-3.09
44.515,-3.49
44.531,-3.02
44.546,-1.98
44.562,-0.95
44.578,-0.52
44.593,-0.94
44.609,-2.01
44.625,-3.17
44.640,-3.91
44.656,-3.98
44.671,-3.58
44.687,-3.14
44.703,-2.99
44.718,-3.14
44.734,-3.22
44.750,-2.77
44.765,-1.59
44.781,0.13
44.796,1.78
44.812,2.77
44.828,2.81
44.843,2.07
44.859,1.15
44.875,0.67
44.890,0.93
44.906,1.79
44.921,2.74
44.937,3.21
44.953,2.91
44.968,1.96
44.984,0.83
45.000,0.05
45.015,-0.11
45.031,0.25
45.046,0.66
45.062,0.69
45.078,0.16
45.093,-0.71
45.109,-1.44
45.125,-1.57
45.140,-0.99
45.156,0.09
45.171,1.2
45.187,1.87
45.203,1.85
45.218,1.18
45.234,0.13
45.250,-0.89
45.265,-1.45
45.281,-1.3
45.296,-0.46
45.312,0.79
45.328,2.0
45.343,2.72
45.359,2.74
45.375,2.15
45.390,1.29
45.406,0.54
45.421,0.1
45.453,0.12
45.468,0.3
45.484,0.49
45.500,0.68
45.515,0.83
45.531,0.84
45.546,0.59
45.562,-0.01
45.578,-0.86
45.593,-1.71
45.609,-2.24
45.625,-2.26
45.640,-1.76
45.656,-0.98
45.671,-0.27
45.687,0.12
45.703,0.12
45.718,-0.11
45.734,-0.33
45.750,-0.33
45.765,-0.09
45.781,0.28
45.796,0.59
45.812,0.7
45.828,0.6
45.843,0.4
45.859,0.19
45.875,0.06
45.890,-0.01
45.906,-0.07
45.921,-0.16
45.937,-0.33
45.953,-0.54
45.968,-0.79
45.984,-1.06
46.000,-1.36
46.015,-1.66
46.031,-1.86
46.046,-1.83
46.062,-1.52
46.078,-0.94
46.093,-0.27
46.109,0.26
46.125,0.47
46.140,0.31
46.156,-0.11
46.171,-0.54
46.187,-0.81
46.203,-0.78
46.218,-0.48
46.234,-0.02
46.250,0.5
46.265,0.98
46.281,1.36
46.296,1.61
46.312,1.71
46.328,1.66
46.343,1.48
46.359,1.23
46.375,0.94
46.390,0.66
46.406,0.38
46.421,0.12
46.437,-0.13
46.453,-0.32
46.468,-0.43
46.484,-0.43
46.500,-0.3
46.515,-0.08
46.531,0.16
46.546,0.31
46.562,0.3
46.578,0.11
46.593,-0.19
46.609,-0.45
46.625,-0.52
46.640,-0.32
46.656,0.09
46.671,0.54
46.687,0.84
46.703,0.83
46.718,0.47
46.734,-0.1
46.750,-0.71
46.765,-1.13
46.781,-1.25
46.796,-1.1
46.812,-0.83
46.828,-0.6
46.843,-0.54
46.859,-0.62
46.875,-0.71
46.890,-0.69
46.906,-0.54
46.921,-0.43
46.937,-0.55
46.953,-0.99
46.968,-1.59
46.984,-2.02
47.000,-1.96
47.015,-1.31
47.031,-0.3
47.046,0.67
47.062,1.19
47.078,1.12
47.093,0.61
47.109,0.01
47.125,-0.32
47.140,-0.24
47.156,0.21
47.171,0.75
47.187,1.08
47.203,1.04
47.218,0.63
47.234,0.09
47.250,-0.29
47.265,-0.27
47.281,0.18
47.296,0.91
47.312,1.64
47.328,2.16
47.343,2.37
47.359,2.35
47.375,2.21
47.390,2.0
47.406,1.66
47.421,1.12
47.437,0.38
47.453,-0.37
47.468,-0.86
47.484,-0.87
47.500,-0.42
47.515,0.27
47.531,0.83
47.546,0.97
47.562,0.65
47.578,0.08
47.593,-0.33
47.609,-0.24
47.625,0.42
47.640,1.47
47.656,2.47
47.671,3.0
47.687,2.83
47.703,2.02
47.718,0.81
47.734,-0.41
47.750,-1.33
47.765,-1.76
47.781,-1.73
47.796,-1.39
47.812,-0.96
47.828,-0.6
47.843,-0.39
47.859,-0.32
47.875,-0.33
47.890,-0.39
47.906,-0.47
47.921,-0.61
47.937,-0.82
47.953,-1.08
47.968,-1.33
47.984,-1.51
48.000,-1.56
48.015,-1.51
48.031,-1.43
48.046,-1.43
48.062,-1.6
48.078,-1.94
48.093,-2.31
48.109,-2.5
48.125,-2.3
48.140,-1.62
48.156,-0.61
48.171,0.45
48.187,1.21
48.203,1.43
48.218,1.12
48.234,0.47
48.250,-0.23
48.265,-0.76
48.281,-0.98
48.296,-0.89
48.312,-0.51
48.328,0.06
48.343,0.73
48.359,1.32
48.375,1.7
48.390,1.79
48.406,1.56
48.421,1.13
48.437,0.63
48.453,0.2
48.468,-0.09
48.484,-0.22
48.500,-0.24
48.515,-0.22
48.531,-0.24
48.546,-0.37
48.562,-0.64
48.578,-0.98
48.593,-1.27
48.609,-1.36
48.625,-1.19
48.640,-0.77
48.656,-0.2
48.671,0.36
48.687,0.82
48.703,1.12
48.718,1.25
48.734,1.26
48.750,1.16
48.765,0.99
48.781,0.74
48.796,0.46
48.812,0.18
48.828,-0.1
48.843,-0.32
48.859,-0.47
48.875,-0.53
48.890,-0.49
48.906,-0.36
48.921,-0.18
48.937,0.04
48.953,0.25
48.968,0.38
48.984,0.4
49.000,0.26
49.015,0.01
49.031,-0.27
49.046,-0.43
49.062,-0.35
49.078,-0.01
49.093,0.54
49.109,1.15
49.125,1.66
49.140,1.96
49.156,2.0
49.171,1.79
49.187,1.4
49.203,0.92
49.218,0.47
49.234,0.15
49.250,0.04
49.265,0.11
49.281,0.31
49.296,0.56
49.312,0.8
49.328,0.97
49.343,1.06
49.359,1.03
49.375,0.88
49.390,0.61
49.406,0.28
49.421,-0.08
49.437,-0.41
49.453,-0.71
49.468,-0.97
49.484,-1.17
49.500,-1.32
49.515,-1.42
49.531,-1.45
49.546,-1.43
49.562,-1.37
49.578,-1.3
49.593,-1.2
49.609,-1.09
49.625,-0.93
49.640,-0.72
49.656,-0.46
49.671,-0.15
49.687,0.11
49.703,0.2
49.718,-0.02
49.734,-0.58
49.750,-1.35
49.765,-2.06
49.781,-2.36
49.796,-2.06
49.812,-1.26
49.828,-0.22
49.843,0.71
49.859,1.29
49.875,1.46
49.890,1.31
49.906,0.96
49.921,0.47
49.937,-0.16
49.953,-0.84
49.968,-1.35
49.984,-1.4
50.000,-0.72
50.015,0.68
50.031,2.49
50.046,4.18
50.062,5.27
50.078,5.49
50.093,4.9
50.109,3.84
50.125,2.7
50.140,1.72
50.156,0.95
50.171,0.29
50.187,-0.41
50.203,-1.15
50.218,-1.8
50.234,-2.17
50.250,-2.16
50.265,-1.84
50.281,-1.42
50.296,-1.17
50.312,-1.27
50.328,-1.69
50.343,-2.25
50.359,-2.66
50.375,-2.73
50.390,-2.41
50.406,-1.83
50.421,-1.24
50.437,-0.85
50.453,-0.76
50.468,-0.95
50.484,-1.26
50.500,-1.53
50.515,-1.59
50.531,-1.4
50.546,-1.0
50.562,-0.53
50.578,-0.13
50.593,0.16
50.609,0.43
50.625,0.82
50.640,1.42
50.656,2.17
50.671,2.83
50.687,3.12
50.703,2.87
50.718,2.15
50.734,1.24
50.750,0.49
50.765,0.1
50.781,0.03
50.796,0.02
50.812,-0.19
50.828,-0.72
50.843,-1.44
50.859,-2.05
50.875,-2.26
50.890,-1.91
50.906,-1.13
50.921,-0.17
50.937,0.67
50.953,1.16
50.968,1.29
50.984,1.2
51.000,1.09
51.015,1.05
51.031,1.07
51.046,1.03
51.062,0.81
51.078,0.46
51.093,0.17
51.109,0.18
51.125,0.63
51.140,1.42
51.156,2.23
51.171,2.64
51.187,2.41
51.203,1.57
51.218,0.4
51.234,-0.69
51.250,-1.41
51.265,-1.7
51.281,-1.68
51.296,-1.55
51.312,-1.43
51.328,-1.34
51.343,-1.21
51.359,-0.99
51.375,-0.75
51.390,-0.61
51.406,-0.67
51.421,-0.98
51.437,-1.39
51.453,-1.72
51.468,-1.71
51.484,-1.28
51.500,-0.57
51.515,0.16
51.531,0.56
51.546,0.44
51.562,-0.15
51.578,-0.94
51.593,-1.61
51.609,-1.91
51.625,-1.79
51.640,-1.39
51.656,-0.95
51.671,-0.61
51.687,-0.37
51.703,-0.09
51.718,0.37
51.734,1.03
51.750,1.71
51.765,2.16
51.781,2.2
51.796,1.81
51.812,1.16
51.828,0.58
51.843,0.32
51.859,0.52
51.875,1.08
51.890,1.79
51.906,2.35
51.921,2.54
51.937,2.28
51.953,1.64
51.968,0.76
51.984,-0.16
52.000,-0.98
52.015,-1.65
52.031,-2.12
52.046,-2.42
52.062,-2.5
52.078,-2.3
52.093,-1.75
52.109,-0.84
52.125,0.3
52.140,1.45
52.156,2.33
52.171,2.73
52.187,2.64
52.203,2.19
52.218,1.61
52.234,1.1
52.250,0.7
52.265,0.37
52.281,0.01
52.296,-0.47
52.312,-1.03
52.328,-1.55
52.343,-1.83
52.359,-1.77
52.375,-1.36
52.390,-0.71
52.406,-0.02
52.421,0.54
52.437,0.86
52.453,0.96
52.468,0.91
52.484,0.76
52.500,0.54
52.515,0.24
52.531,-0.14
52.546,-0.61
52.562,-1.09
52.578,-1.47
52.593,-1.67
52.609,-1.68
52.625,-1.5
52.640,-1.18
52.656,-0.75
52.671,-0.23
52.687,0.34
52.703,0.88
52.718,1.22
52.734,1.22
52.750,0.75
52.765,-0.09
52.781,-1.08
52.796,-1.91
52.812,-2.26
52.828,-1.96
52.843,-1.04
52.859,0.21
52.875,1.41
52.890,2.19
52.906,2.33
52.921,1.87
52.937,1.06
52.953,0.23
52.968,-0.3
52.984,-0.42
53.000,-0.22
53.015,0.09
53.031,0.25
53.046,0.13
53.062,-0.25
53.078,-0.71
53.093,-1.04
53.109,-1.04
53.125,-0.69
53.140,-0.13
53.156,0.39
53.171,0.58
53.187,0.26
53.203,-0.49
53.218,-1.43
53.234,-2.16
53.250,-2.37
53.265,-1.93
53.281,-0.98
53.296,0.16
53.312,1.14
53.328,1.71
53.343,1.85
53.359,1.71
53.375,1.57
53.390,1.61
53.406,1.88
53.421,2.24
53.437,2.41
53.453,2.24
53.468,1.7
53.484,1.01
53.500,0.43
53.515,0.11
53.531,0.01
53.546,-0.09
53.562,-0.37
53.578,-0.87
53.593,-1.35
53.609,-1.5
53.625,-1.14
53.640,-0.36
53.656,0.47
53.671,0.99
53.687,1.0
53.703,0.67
53.718,0.31
53.734,0.19
53.750,0.35
53.765,0.55
53.781,0.53
53.796,0.19
53.812,-0.38
53.828,-0.93
53.843,-1.32
53.859,-1.6
53.875,-1.96
53.890,-2.54
53.906,-3.23
53.921,-3.72
53.937,-3.65
53.953,-2.85
53.968,-1.46
53.984,0.11
54.000,1.33
54.015,1.9
54.031,1.83
54.046,1.4
54.062,0.99
54.078,0.86
54.093,1.0
54.109,1.21
54.125,1.2
54.140,0.82
54.156,0.14
54.171,-0.53
54.187,-0.86
54.203,-0.64
54.218,0.03
54.234,0.8
54.250,1.24
54.265,1.06
54.281,0.29
54.296,-0.81
54.312,-1.81
54.328,-2.39
54.343,-2.41
54.359,-1.94
54.375,-1.2
54.390,-0.46
54.406,0.09
54.421,0.38
54.437,0.41
54.453,0.32
54.468,0.25
54.484,0.34
54.500,0.6
54.515,0.93
54.531,1.16
54.546,1.09
54.562,0.65
54.578,-0.06
54.593,-0.75
54.609,-1.14
54.625,-1.03
54.640,-0.47
54.656,0.3
54.671,0.99
54.687,1.39
54.703,1.48
54.718,1.38
54.734,1.24
54.750,1.17
54.765,1.18
54.781,1.13
54.796,0.93
54.812,0.55
54.828,0.11
54.843,-0.17
54.859,-0.14
54.875,0.23
54.890,0.79
54.906,1.37
54.921,1.74
54.937,1.75
54.953,1.36
54.968,0.64
54.984,-0.27
55.000,-1.12
55.015,-1.67
55.031,-1.75
55.046,-1.37
55.062,-0.78
55.078,-0.32
55.093,-0.28
55.109,-0.77
55.125,-1.59
55.140,-2.39
55.156,-2.83
55.171,-2.76
55.187,-2.21
55.203,-1.41
55.218,-0.55
55.234,0.23
55.250,0.85
55.265,1.31
55.281,1.59
55.296,1.74
55.312,1.83
55.328,1.95
55.343,2.23
55.359,2.66
55.375,3.13
55.390,3.43
55.406,3.4
55.421,2.94
55.437,2.1
55.453,1.03
55.468,-0.02
55.484,-0.86
55.500,-1.39
55.515,-1.56
55.531,-1.47
55.546,-1.25
55.562,-1.04
55.578,-0.98
55.593,-1.1
55.609,-1.37
55.625,-1.65
55.640,-1.76
55.656,-1.59
55.671,-1.14
55.687,-0.55
55.703,-0.05
55.718,0.18
55.734,0.11
55.750,-0.15
55.765,-0.38
55.781,-0.48
55.796,-0.46
55.812,-0.46
55.828,-0.59
55.843,-0.84
55.859,-1.06
55.875,-1.06
55.890,-0.75
55.906,-0.22
55.921,0.28
55.937,0.55
55.953,0.49
55.968,0.22
55.984,-0.03
56.000,-0.13
56.015,-0.04
56.031,0.12
56.046,0.21
56.062,0.13
56.078,-0.13
56.093,-0.5
56.109,-0.89
56.125,-1.22
56.140,-1.47
56.156,-1.59
56.171,-1.55
56.187,-1.34
56.203,-0.99
56.218,-0.54
56.234,-0.12
56.250,0.17
56.265,0.29
56.281,0.25
56.296,0.14
56.328,-0.17
56.343,-0.36
56.359,-0.57
56.375,-0.67
56.390,-0.51
56.421,0.77
56.437,1.47
56.453,1.74
56.468,1.38
56.484,0.51
56.500,-0.43
56.515,-0.92
56.531,-0.63
56.546,0.37
56.562,1.65
56.578,2.69
56.593,3.12
56.609,2.93
56.625,2.39
56.640,1.81
56.656,1.37
56.671,1.05
56.687,0.71
56.703,0.25
56.718,-0.26
56.734,-0.64
56.750,-0.69
56.765,-0.32
56.781,0.31
56.796,0.92
56.812,1.19
56.828,0.93
56.843,0.18
56.859,-0.82
56.875,-1.76
56.890,-2.34
56.906,-2.39
56.921,-1.89
56.937,-0.99
56.953,0.05
56.968,0.93
56.984,1.42
57.000,1.45
57.015,1.06
57.031,0.42
57.046,-0.28
57.062,-0.93
57.078,-1.47
57.093,-1.84
57.109,-1.97
57.125,-1.76
57.140,-1.15
57.156,-0.23
57.171,0.78
57.187,1.56
57.203,1.89
57.218,1.77
57.234,1.38
57.250,0.99
57.265,0.79
57.281,0.8
57.296,0.78
57.312,0.5
57.328,-0.17
57.343,-1.16
57.359,-2.12
57.375,-2.64
57.390,-2.41
57.406,-1.42
57.421,0.06
57.437,1.57
57.453,2.66
57.468,3.1
57.484,2.92
57.500,2.36
57.515,1.68
57.531,1.09
57.546,0.62
57.562,0.25
57.578,-0.04
57.593,-0.22
57.609,-0.24
57.625,-0.11
57.640,0.08
57.656,0.14
57.671,-0.06
57.687,-0.53
57.703,-1.13
57.718,-1.6
57.734,-1.74
57.750,-1.53
57.765,-1.09
57.781,-0.62
57.796,-0.27
57.812,-0.07
57.828,0.09
57.843,0.29
57.859,0.54
57.875,0.74
57.890,0.79
57.906,0.64
57.921,0.37
57.937,0.09
57.953,-0.14
57.968,-0.37
57.984,-0.66
58.000,-1.08
58.015,-1.63
58.031,-2.18
58.046,-2.6
58.062,-2.81
58.078,-2.79
58.093,-2.6
58.109,-2.29
58.125,-1.91
58.140,-1.45
58.156,-0.95
58.171,-0.45
58.187,-0.02
58.203,0.29
58.218,0.46
58.234,0.52
58.250,0.58
58.265,0.71
58.281,0.99
58.296,1.41
58.312,1.86
58.328,2.18
58.343,2.2
58.359,1.84
58.375,1.16
58.390,0.35
58.406,-0.39
58.421,-0.86
58.437,-0.97
58.453,-0.73
58.468,-0.22
58.484,0.41
58.500,1.02
58.515,1.47
58.531,1.64
58.546,1.48
58.562,1.03
58.578,0.48
58.593,-0.01
58.609,-0.28
58.625,-0.31
58.640,-0.21
58.656,-0.12
58.671,-0.2
58.687,-0.47
58.703,-0.8
58.718,-0.97
58.734,-0.8
58.750,-0.27
58.765,0.46
58.781,1.08
58.796,1.26
58.812,0.88
58.828,0.03
58.843,-0.96
58.859,-1.68
58.875,-1.9
58.890,-1.57
58.906,-0.91
58.921,-0.23
58.937,0.24
58.953,0.46
58.968,0.56
58.984,0.71
59.000,0.99
59.015,1.34
59.031,1.61
59.046,1.63
59.062,1.33
59.078,0.78
59.093,0.17
59.109,-0.32
59.125,-0.53
59.140,-0.44
59.156,-0.19
59.171,0.02
59.187,-0.01
59.203,-0.41
59.218,-1.11
59.234,-1.89
59.250,-2.48
59.265,-2.6
59.281,-2.14
59.296,-1.21
59.312,-0.06
59.328,1.0
59.343,1.75
59.359,2.1
59.375,2.1
59.390,1.81
59.406,1.32
59.421,0.67
59.437,-0.09
59.453,-0.86
59.468,-1.53
59.484,-1.94
59.500,-2.01
59.515,-1.73
59.531,-1.18
59.546,-0.48
59.562,0.23
59.578,0.85
59.593,1.3
59.609,1.49
59.625,1.41
59.640,1.07
59.656,0.6
59.671,0.21
59.687,0.15
59.703,0.51
59.718,1.18
59.734,1.85
59.750,2.09
59.765,1.7
59.781,0.7
59.796,-0.6
59.812,-1.74
59.828,-2.37
59.843,-2.36
59.859,-1.84
59.875,-1.09
59.890,-0.37
59.906,0.19
59.921,0.59
59.937,0.87
59.953,1.04
59.968,1.05
59.984,0.83
