timestamp,value
00.000,15.89
00.015,15.66
00.031,15.95
00.046,17.12
00.062,19.22
00.078,21.99
00.093,24.86
00.109,27.07
00.125,27.94
00.140,27.1
00.156,24.74
00.171,21.46
00.187,18.12
00.203,15.53
00.218,14.21
00.234,14.31
00.250,15.65
00.265,17.83
00.281,20.22
00.296,22.18
00.312,23.09
00.328,22.56
00.343,20.6
00.359,17.65
00.375,14.44
00.390,11.82
00.406,10.34
00.421,10.1
00.437,10.74
00.453,11.53
00.468,11.66
00.484,10.58
00.500,8.18
00.515,4.77
00.531,0.84
00.546,-3.14
00.562,-6.89
00.578,-10.27
00.593,-13.26
00.609,-15.84
00.625,-17.94
00.640,-19.61
00.656,-20.97
00.671,-22.22
00.687,-23.46
00.703,-24.63
00.718,-25.42
00.734,-25.47
00.750,-24.54
00.765,-22.83
00.781,-20.91
00.796,-19.5
00.812,-19.0
00.828,-19.18
00.843,-19.27
00.859,-18.38
00.875,-16.11
00.890,-12.68
00.906,-8.95
00.921,-5.93
00.937,-4.18
00.953,-3.63
00.968,-3.59
00.984,-3.28
01.000,-2.2
01.015,-0.29
01.031,2.19
01.046,5.04
01.062,8.18
01.078,11.56
01.093,14.87
01.109,17.45
01.125,18.44
01.140,17.38
01.156,14.49
01.171,10.79
01.187,7.61
01.203,5.97
01.218,6.08
01.234,7.24
01.250,8.31
01.265,8.28
01.281,6.84
01.296,4.42
01.312,1.86
01.328,-0.04
01.343,-0.93
01.359,-0.88
01.375,-0.19
01.390,0.93
01.406,2.46
01.421,4.51
01.437,7.05
01.453,9.75
01.468,12.04
01.484,13.27
01.500,13.09
01.515,11.61
01.531,9.33
01.546,6.93
01.562,4.9
01.578,3.24
01.593,1.65
01.609,-0.25
01.625,-2.59
01.640,-5.1
01.656,-7.34
01.671,-8.96
01.687,-9.93
01.703,-10.54
01.718,-11.17
01.734,-11.99
01.750,-12.86
01.765,-13.54
01.781,-13.82
01.796,-13.77
01.812,-13.64
01.828,-13.66
01.843,-13.86
01.859,-13.98
01.875,-13.68
01.890,-12.76
01.906,-11.28
01.921,-9.53
01.937,-7.79
01.953,-6.18
01.968,-4.51
01.984,-2.3
02.000,0.93
02.015,5.41
02.031,10.86
02.046,16.36
02.062,20.69
02.078,22.7
02.093,21.87
02.109,18.5
02.125,13.68
02.140,8.79
02.156,4.99
02.171,2.91
02.187,2.6
02.203,3.72
02.218,5.83
02.234,8.47
02.250,11.16
02.265,13.3
02.281,14.24
02.296,13.48
02.312,10.85
02.328,6.64
02.343,1.46
02.359,-3.91
02.375,-8.75
02.390,-12.45
02.406,-14.54
02.421,-14.73
02.437,-12.9
02.453,-9.26
02.468,-4.39
02.484,0.86
02.500,5.52
02.515,8.67
02.531,9.66
02.546,8.25
02.562,4.69
02.578,-0.35
02.593,-5.85
02.609,-10.64
02.625,-13.73
02.640,-14.58
02.656,-13.3
02.671,-10.56
02.687,-7.44
02.703,-4.96
02.718,-3.78
02.734,-4.02
02.750,-5.28
02.765,-6.99
02.781,-8.71
02.796,-10.35
02.812,-12.11
02.828,-14.16
02.843,-16.37
02.859,-18.13
02.875,-18.57
02.890,-17.06
02.906,-13.62
02.921,-9.07
02.937,-4.67
02.953,-1.51
02.984,0.28
03.000,0.24
03.015,0.71
03.031,1.98
03.046,3.78
03.062,5.51
03.078,6.76
03.093,7.52
03.109,8.15
03.125,9.05
03.140,10.35
03.156,11.8
03.171,12.88
03.187,13.09
03.203,12.14
03.218,10.12
03.234,7.4
03.250,4.51
03.265,1.9
03.281,-0.12
03.296,-1.42
03.312,-2.03
03.328,-2.08
03.343,-1.7
03.359,-1.02
03.375,-0.23
03.390,0.4
03.406,0.49
03.421,-0.32
03.437,-2.2
03.453,-5.02
03.468,-8.25
03.484,-11.07
03.500,-12.54
03.515,-11.87
03.531,-8.71
03.546,-3.33
03.562,3.45
03.578,10.43
03.593,16.42
03.609,20.58
03.625,22.6
03.640,22.64
03.656,21.13
03.671,18.51
03.687,15.11
03.703,11.21
03.718,7.2
03.734,3.54
03.750,0.7
03.765,-1.16
03.781,-2.31
03.796,-3.31
03.812,-4.81
03.828,-7.13
03.843,-10.13
03.859,-13.31
03.875,-16.08
03.890,-18.0
03.906,-18.95
03.921,-19.05
03.937,-18.43
03.953,-17.17
03.968,-15.33
03.984,-13.04
04.000,-10.67
04.015,-8.73
04.031,-7.66
04.046,-7.59
04.062,-8.2
04.078,-8.79
04.093,-8.57
04.109,-6.97
04.125,-3.85
04.140,0.38
04.156,4.96
04.171,9.05
04.187,11.97
04.203,13.42
04.218,13.48
04.234,12.51
04.250,10.95
04.265,9.22
04.281,7.59
04.296,6.24
04.312,5.3
04.328,4.86
04.343,5.02
04.359,5.74
04.375,6.89
04.390,8.18
04.406,9.28
04.421,9.83
04.437,9.58
04.453,8.42
04.468,6.47
04.484,4.08
04.500,1.7
04.515,-0.22
04.531,-1.4
04.546,-1.88
04.562,-1.95
04.578,-2.0
04.593,-2.31
04.609,-2.9
04.625,-3.51
04.640,-3.77
04.656,-3.44
04.671,-2.56
04.687,-1.48
04.703,-0.7
04.718,-0.67
04.734,-1.53
04.750,-3.13
04.765,-5.08
04.781,-6.96
04.796,-8.46
04.812,-9.41
04.828,-9.72
04.843,-9.33
04.859,-8.21
04.875,-6.5
04.890,-4.52
04.906,-2.81
04.921,-1.88
04.937,-2.07
04.953,-3.33
04.968,-5.31
04.984,-7.51
05.000,-9.45
05.015,-10.82
05.031,-11.4
05.046,-11.07
05.062,-9.76
05.078,-7.6
05.093,-4.94
05.109,-2.31
05.125,-0.16
05.140,1.33
05.156,2.43
05.171,3.67
05.187,5.53
05.203,8.06
05.218,10.84
05.234,13.13
05.250,14.32
05.265,14.18
05.281,12.93
05.296,11.1
05.312,9.15
05.328,7.34
05.343,5.73
05.359,4.29
05.375,3.03
05.390,2.01
05.406,1.25
05.421,0.7
05.437,0.26
05.453,-0.19
05.468,-0.69
05.484,-1.29
05.500,-1.95
05.515,-2.67
05.531,-3.33
05.546,-3.8
05.562,-3.89
05.578,-3.46
05.593,-2.53
05.609,-1.18
05.625,0.46
05.640,2.34
05.656,4.48
05.671,6.81
05.687,9.14
05.703,11.15
05.718,12.54
05.734,13.2
05.750,13.25
05.765,12.83
05.781,12.0
05.796,10.65
05.812,8.58
05.828,5.8
05.843,2.64
05.859,-0.29
05.875,-2.42
05.890,-3.52
05.906,-3.84
05.921,-3.97
05.937,-4.5
05.953,-5.77
05.968,-7.75
05.984,-10.13
06.000,-12.58
06.015,-14.93
06.031,-17.1
06.046,-19.07
06.062,-20.62
06.078,-21.42
06.093,-21.09
06.109,-19.47
06.125,-16.75
06.140,-13.51
06.156,-10.46
06.171,-8.16
06.187,-6.72
06.203,-5.83
06.218,-4.91
06.234,-3.41
06.250,-1.11
06.265,1.85
06.281,5.1
06.296,8.22
06.312,10.84
06.328,12.62
06.343,13.23
06.359,12.47
06.375,10.3
06.390,7.04
06.406,3.33
06.421,0.05
06.437,-2.02
06.453,-2.5
06.468,-1.49
06.484,0.47
06.500,2.67
06.515,4.56
06.531,5.87
06.546,6.62
06.562,7.0
06.578,7.15
06.593,7.11
06.609,6.84
06.625,6.32
06.640,5.65
06.656,5.08
06.671,4.87
06.687,5.19
06.703,6.06
06.718,7.34
06.734,8.8
06.750,10.31
06.765,11.83
06.781,13.38
06.796,14.89
06.812,16.17
06.828,16.92
06.843,16.78
06.859,15.55
06.875,13.15
06.890,9.65
06.906,5.26
06.921,0.27
06.937,-4.9
06.953,-9.68
06.968,-13.46
06.984,-15.77
07.000,-16.44
07.015,-15.76
07.031,-14.36
07.046,-12.98
07.062,-12.16
07.078,-12.12
07.093,-12.79
07.109,-14.06
07.125,-15.92
07.140,-18.36
07.156,-21.27
07.171,-24.23
07.187,-26.65
07.203,-28.0
07.218,-28.04
07.234,-26.88
07.250,-24.78
07.265,-21.82
07.281,-17.74
07.296,-12.19
07.312,-5.11
07.328,2.83
07.343,10.23
07.359,15.44
07.375,17.27
07.390,15.53
07.406,11.16
07.421,5.82
07.437,1.21
07.453,-1.49
07.468,-1.89
07.484,-0.31
07.500,2.5
07.515,5.77
07.531,8.95
07.546,11.8
07.562,14.26
07.578,16.27
07.593,17.61
07.609,17.97
07.625,17.15
07.640,15.33
07.656,13.13
07.671,11.44
07.687,10.92
07.703,11.67
07.718,13.12
07.734,14.29
07.750,14.34
07.765,12.99
07.781,10.74
07.796,8.52
07.812,7.26
07.828,7.46
07.843,9.03
07.859,11.39
07.875,13.81
07.890,15.7
07.906,16.78
07.921,17.04
07.937,16.65
07.953,15.72
07.968,14.27
07.984,12.27
08.000,9.71
08.015,6.82
08.031,4.01
08.046,1.8
08.062,0.54
08.078,0.14
08.093,0.03
08.109,-0.71
08.125,-2.95
08.140,-7.01
08.156,-12.48
08.171,-18.28
08.187,-23.19
08.203,-26.35
08.218,-27.63
08.234,-27.57
08.250,-26.88
08.265,-26.02
08.281,-24.87
08.296,-22.96
08.312,-19.93
08.328,-16.01
08.343,-11.8
08.359,-8.18
08.375,-5.61
08.390,-4.12
08.406,-3.25
08.421,-2.46
08.437,-1.32
08.453,0.29
08.468,2.34
08.484,4.66
08.500,7.05
08.515,9.31
08.531,11.22
08.546,12.61
08.562,13.37
08.578,13.55
08.593,13.27
08.609,12.66
08.625,11.83
08.640,10.95
08.656,10.3
08.671,10.25
08.687,11.08
08.703,12.65
08.718,14.43
08.734,15.66
08.750,15.8
08.765,14.8
08.781,13.09
08.796,11.38
08.812,10.36
08.828,10.35
08.843,11.36
08.859,13.05
08.875,14.89
08.890,16.3
08.906,16.77
08.921,16.01
08.937,14.14
08.953,11.55
08.968,8.87
08.984,6.63
09.000,5.02
09.015,3.88
09.031,2.85
09.046,1.69
09.062,0.41
09.078,-0.83
09.093,-1.93
09.109,-2.97
09.125,-4.26
09.140,-6.05
09.156,-8.4
09.171,-11.13
09.187,-13.95
09.203,-16.7
09.218,-19.41
09.234,-22.16
09.250,-24.86
09.265,-27.18
09.281,-28.69
09.296,-29.11
09.312,-28.57
09.328,-27.55
09.343,-26.64
09.359,-26.14
09.375,-25.99
09.390,-25.78
09.406,-25.09
09.421,-23.75
09.437,-21.92
09.453,-19.88
09.468,-17.72
09.484,-15.26
09.500,-12.17
09.515,-8.26
09.531,-3.78
09.546,0.66
09.562,4.37
09.578,6.95
09.593,8.5
09.609,9.46
09.625,10.1
09.640,10.35
09.656,9.72
09.671,7.72
09.687,4.34
09.703,0.23
09.718,-3.42
09.734,-5.51
09.750,-5.43
09.765,-3.36
09.781,0.08
09.796,4.13
09.812,8.2
09.828,11.95
09.843,15.14
09.859,17.48
09.875,18.72
09.890,18.82
09.906,18.06
09.921,16.93
09.937,15.87
09.953,14.97
09.968,13.87
09.984,12.01
10.000,8.96
10.015,4.8
10.031,0.27
10.046,-3.32
10.062,-4.58
10.078,-2.62
10.093,2.42
10.109,9.25
10.125,15.7
10.140,19.47
10.156,19.0
10.171,14.11
10.187,6.03
10.203,-3.14
10.218,-11.33
10.234,-17.24
10.250,-20.61
10.265,-22.04
10.281,-22.46
10.296,-22.62
10.312,-22.89
10.328,-23.31
10.343,-23.73
10.359,-24.05
10.375,-24.21
10.390,-24.27
10.406,-24.35
10.421,-24.57
10.437,-24.97
10.453,-25.42
10.468,-25.62
10.484,-25.03
10.500,-23.08
10.515,-19.35
10.531,-13.69
10.546,-6.28
10.562,2.43
10.578,11.81
10.593,21.07
10.609,29.37
10.625,35.92
10.640,40.13
10.656,41.79
10.671,41.14
10.687,38.86
10.703,35.83
10.718,32.87
10.734,30.45
10.750,28.61
10.765,27.08
10.781,25.5
10.796,23.62
10.812,21.44
10.828,19.15
10.843,16.98
10.859,15.12
10.875,13.59
10.890,12.25
10.906,10.88
10.921,9.33
10.937,7.59
10.953,5.82
10.968,4.34
10.984,3.43
11.000,3.28
11.015,3.77
11.031,4.59
11.046,5.19
11.062,5.03
11.078,3.68
11.093,1.0
11.109,-2.71
11.125,-6.74
11.140,-10.1
11.156,-11.84
11.171,-11.37
11.187,-8.8
11.203,-5.06
11.218,-1.46
11.234,0.69
11.250,0.69
11.265,-1.45
11.281,-5.03
11.296,-9.12
11.312,-12.93
11.328,-16.0
11.343,-18.2
11.359,-19.62
11.375,-20.5
11.390,-21.21
11.406,-22.12
11.421,-23.51
11.437,-25.35
11.453,-27.2
11.468,-28.32
11.484,-28.03
11.500,-26.06
11.515,-22.74
11.531,-18.75
11.546,-14.84
11.562,-11.42
11.578,-8.51
11.593,-5.92
11.609,-3.57
11.625,-1.55
11.640,-0.05
11.656,0.95
11.671,1.86
11.687,3.46
11.703,6.46
11.718,11.07
11.734,16.71
11.750,22.19
11.765,26.22
11.781,27.93
11.796,27.28
11.812,24.89
11.828,21.7
11.843,18.55
11.859,15.92
11.875,13.93
11.890,12.53
11.906,11.75
11.921,11.64
11.937,12.22
11.953,13.17
11.968,13.84
11.984,13.42
12.000,11.31
12.015,7.52
12.031,2.87
12.046,-1.28
12.062,-3.58
12.078,-3.25
12.093,-0.53
12.109,3.51
12.125,7.38
12.140,9.85
12.156,10.35
12.171,9.04
12.187,6.59
12.203,3.69
12.218,0.77
12.234,-2.02
12.250,-4.65
12.265,-7.07
12.281,-9.13
12.296,-10.71
12.312,-11.88
12.328,-12.85
12.343,-13.94
12.359,-15.35
12.375,-17.12
12.390,-19.15
12.406,-21.27
12.421,-23.34
12.437,-25.29
12.453,-27.19
12.468,-29.2
12.484,-31.41
12.500,-33.77
12.515,-35.96
12.531,-37.39
12.546,-37.43
12.562,-35.72
12.578,-32.38
12.593,-28.04
12.609,-23.57
12.625,-19.69
12.640,-16.65
12.656,-14.19
12.671,-11.83
12.687,-9.12
12.703,-5.88
12.718,-2.22
12.734,1.6
12.750,5.21
12.765,8.2
12.781,10.09
12.796,10.49
12.812,9.26
12.828,6.71
12.843,3.52
12.859,0.69
12.875,-0.86
12.890,-0.62
12.906,1.43
12.921,4.79
12.937,8.66
12.953,12.25
12.968,14.9
12.984,16.28
13.000,16.41
13.015,15.6
13.031,14.46
13.046,13.64
13.062,13.74
13.078,15.09
13.093,17.62
13.109,20.88
13.125,24.2
13.140,26.85
13.156,28.26
13.171,28.11
13.187,26.36
13.203,23.28
13.218,19.49
13.234,15.77
13.250,13.02
13.265,11.86
13.281,12.39
13.296,14.1
13.312,16.04
13.328,17.25
13.343,17.19
13.359,15.96
13.375,14.07
13.390,12.14
13.406,10.48
13.421,8.93
13.437,7.05
13.453,4.48
13.468,1.22
13.484,-2.29
13.500,-5.45
13.515,-7.75
13.531,-9.07
13.546,-9.76
13.562,-10.38
13.578,-11.42
13.593,-12.97
13.609,-14.59
13.625,-15.46
13.640,-14.74
13.656,-11.95
13.671,-7.23
13.687,-1.32
13.703,4.71
13.718,9.9
13.734,13.71
13.750,16.04
13.765,17.13
13.781,17.28
13.796,16.73
13.812,15.72
13.828,14.56
13.843,13.62
13.859,13.24
13.875,13.52
13.890,14.2
13.906,14.77
13.921,14.77
13.937,14.0
13.953,12.74
13.968,11.55
13.984,11.05
14.000,11.68
14.015,13.49
14.031,16.2
14.046,19.33
14.062,22.31
14.078,24.55
14.093,25.67
14.109,25.52
14.125,24.21
14.140,22.16
14.156,19.85
14.171,17.68
14.187,15.86
14.203,14.26
14.218,12.46
14.234,9.87
14.250,5.88
14.265,0.16
14.281,-7.15
14.296,-15.35
14.312,-23.36
14.328,-29.98
14.343,-34.26
14.359,-35.8
14.375,-34.83
14.390,-32.14
14.406,-28.76
14.421,-25.71
14.437,-23.74
14.453,-23.15
14.468,-23.77
14.484,-25.04
14.500,-26.17
14.515,-26.45
14.531,-25.38
14.546,-22.78
14.562,-18.81
14.578,-13.86
14.593,-8.43
14.609,-3.01
14.625,1.99
14.640,6.38
14.656,10.25
14.671,13.9
14.687,17.66
14.703,21.66
14.718,25.72
14.734,29.5
14.750,32.59
14.765,34.68
14.781,35.55
14.796,34.96
14.812,32.52
14.828,27.82
14.843,20.78
14.859,11.94
14.875,2.66
14.890,-5.29
14.906,-10.39
14.921,-11.98
14.937,-10.56
14.953,-7.48
14.968,-4.22
14.984,-1.69
15.000,0.02
15.015,1.34
15.031,2.64
15.046,3.73
15.062,3.88
15.078,2.33
15.093,-1.06
15.109,-5.44
15.125,-9.23
15.140,-10.87
15.156,-9.6
15.171,-5.85
15.187,-1.01
15.203,3.29
15.218,5.86
15.234,6.35
15.250,5.19
15.265,3.24
15.281,1.29
15.296,-0.22
15.312,-1.31
15.328,-2.45
15.343,-4.24
15.359,-7.13
15.375,-11.13
15.390,-15.64
15.406,-19.69
15.421,-22.29
15.437,-22.87
15.453,-21.59
15.468,-19.14
15.484,-16.39
15.500,-13.84
15.515,-11.53
15.531,-9.11
15.546,-6.3
15.562,-3.16
15.578,-0.14
15.593,2.25
15.609,3.73
15.625,4.44
15.640,4.82
15.656,5.31
15.671,6.0
15.687,6.71
15.703,7.08
15.718,6.99
15.734,6.62
15.750,6.37
15.765,6.62
15.781,7.47
15.796,8.81
15.812,10.45
15.828,12.36
15.843,14.64
15.859,17.37
15.875,20.37
15.890,23.2
15.906,25.36
15.921,26.68
15.937,27.55
15.953,28.78
15.968,31.37
15.984,35.92
16.000,42.33
16.015,49.66
16.031,56.24
16.046,60.1
16.062,59.29
16.078,52.5
16.093,39.34
16.109,20.69
16.125,-1.35
16.140,-23.74
16.156,-43.22
16.171,-57.06
16.187,-63.82
16.203,-63.67
16.218,-58.16
16.234,-49.75
16.250,-40.98
16.265,-33.85
16.281,-29.55
16.296,-28.45
16.312,-30.45
16.328,-35.27
16.343,-42.46
16.359,-51.31
16.375,-60.58
16.390,-68.56
16.406,-73.5
16.421,-74.13
16.437,-70.27
16.453,-62.88
16.468,-53.57
16.484,-43.98
16.500,-35.08
16.515,-26.96
16.531,-19.13
16.546,-11.1
16.562,-2.97
16.578,4.43
16.593,9.86
16.609,12.36
16.625,11.86
16.640,9.39
16.656,6.74
16.671,5.66
16.687,7.1
16.703,10.84
16.718,15.73
16.734,20.33
16.750,23.62
16.765,25.38
16.781,26.07
16.796,26.36
16.812,26.68
16.828,27.01
16.843,27.02
16.859,26.21
16.875,24.25
16.890,21.09
16.906,17.0
16.921,12.6
16.937,8.72
16.953,6.16
16.968,5.45
16.984,6.61
17.000,9.11
17.015,12.15
17.031,14.92
17.046,16.87
17.062,17.72
17.078,17.41
17.093,15.99
17.109,13.66
17.125,10.88
17.140,8.37
17.156,6.91
17.171,7.1
17.187,9.0
17.203,12.07
17.218,15.39
17.234,17.93
17.250,18.93
17.265,18.03
17.281,15.31
17.296,11.17
17.312,6.22
17.328,1.08
17.343,-3.7
17.359,-7.83
17.375,-11.33
17.390,-14.42
17.406,-17.52
17.421,-21.02
17.437,-25.05
17.453,-29.39
17.468,-33.42
17.484,-36.32
17.500,-37.34
17.515,-36.14
17.531,-32.95
17.546,-28.61
17.562,-24.21
17.578,-20.71
17.593,-18.46
17.609,-17.14
17.625,-15.91
17.640,-13.91
17.656,-10.61
17.671,-6.04
17.687,-0.71
17.703,4.63
17.718,9.25
17.734,12.57
17.750,14.19
17.765,13.9
17.781,11.75
17.796,8.22
17.812,4.21
17.828,0.86
17.843,-0.78
17.859,-0.25
17.875,2.13
17.890,5.44
17.906,8.58
17.921,10.77
17.937,11.85
17.953,12.11
17.968,12.02
17.984,11.88
18.000,11.77
18.015,11.66
18.031,11.58
18.046,11.75
18.062,12.31
18.078,13.21
18.093,14.04
18.109,14.21
18.125,13.3
18.140,11.32
18.156,8.73
18.171,6.19
18.187,4.25
18.203,3.15
18.218,2.85
18.234,3.14
18.250,3.76
18.265,4.43
18.281,4.79
18.296,4.52
18.312,3.36
18.328,1.37
18.343,-1.03
18.359,-3.25
18.375,-4.79
18.390,-5.5
18.406,-5.64
18.421,-5.74
18.437,-6.22
18.453,-7.26
18.468,-8.74
18.484,-10.44
18.500,-12.16
18.515,-13.85
18.531,-15.53
18.546,-17.19
18.562,-18.81
18.578,-20.21
18.593,-21.18
18.609,-21.41
18.625,-20.68
18.640,-18.99
18.656,-16.59
18.671,-13.96
18.687,-11.54
18.703,-9.52
18.718,-7.69
18.734,-5.45
18.750,-2.23
18.765,2.19
18.781,7.49
18.796,12.94
18.812,17.62
18.828,20.89
18.843,22.49
18.859,22.49
18.875,21.17
18.890,18.86
18.906,15.96
18.921,12.93
18.937,10.29
18.953,8.43
18.968,7.52
18.984,7.41
19.000,7.78
19.015,8.29
19.031,8.77
19.046,9.15
19.062,9.42
19.078,9.44
19.093,8.93
19.109,7.67
19.125,5.73
19.140,3.5
19.156,1.73
19.171,1.13
19.187,2.08
19.203,4.54
19.218,8.01
19.234,11.85
19.250,15.39
19.265,18.11
19.281,19.61
19.296,19.59
19.312,17.86
19.328,14.39
19.343,9.48
19.359,3.81
19.375,-1.63
19.390,-5.82
19.406,-8.04
19.421,-8.13
19.437,-6.56
19.453,-4.25
19.468,-2.13
19.484,-0.94
19.500,-1.05
19.515,-2.54
19.531,-5.3
19.546,-9.11
19.562,-13.59
19.578,-18.18
19.593,-22.27
19.609,-25.39
19.625,-27.47
19.640,-28.87
19.656,-30.14
19.671,-31.57
19.687,-32.94
19.703,-33.48
19.718,-32.31
19.734,-28.84
19.750,-23.13
19.765,-15.8
19.781,-7.8
19.796,-0.15
19.812,6.2
19.828,10.41
19.843,11.87
19.859,10.41
19.875,6.52
19.890,1.23
19.906,-4.15
19.921,-8.56
19.937,-11.42
19.953,-12.56
19.968,-11.97
19.984,-9.51
20.000,-5.03
20.015,1.27
20.031,8.5
20.046,15.15
20.062,19.57
20.078,20.74
20.093,18.82
20.109,15.06
20.125,11.21
20.140,8.74
20.156,8.27
20.171,9.45
20.187,11.4
20.203,13.2
20.218,14.37
20.234,14.99
20.250,15.49
20.265,16.25
20.281,17.39
20.296,18.58
20.312,19.24
20.328,18.8
20.343,16.97
20.359,13.93
20.375,10.19
20.390,6.46
20.406,3.37
20.421,1.21
20.437,-0.04
20.453,-0.72
20.468,-1.2
20.484,-1.77
20.500,-2.53
20.515,-3.4
20.531,-4.29
20.546,-5.26
20.562,-6.52
20.578,-8.4
20.593,-11.09
20.609,-14.36
20.625,-17.59
20.640,-19.88
20.656,-20.48
20.671,-19.16
20.687,-16.28
20.703,-12.76
20.718,-9.76
20.734,-8.35
20.750,-9.23
20.765,-12.62
20.781,-18.12
20.796,-24.73
20.812,-31.0
20.828,-35.39
20.843,-36.68
20.859,-34.45
20.875,-29.25
20.890,-22.41
20.906,-15.53
20.921,-9.98
20.937,-6.35
20.953,-4.49
20.968,-3.71
20.984,-3.12
21.000,-2.03
21.015,-0.04
21.031,2.94
21.046,6.69
21.062,10.74
21.078,14.49
21.093,17.31
21.109,18.71
21.125,18.58
21.140,17.18
21.156,15.07
21.171,12.88
21.187,11.11
21.203,9.91
21.218,9.13
21.234,8.45
21.250,7.52
21.265,6.17
21.281,4.51
21.296,2.81
21.312,1.48
21.328,0.92
21.343,1.43
21.359,3.06
21.375,5.57
21.390,8.42
21.406,10.91
21.421,12.37
21.437,12.42
21.453,11.13
21.468,9.01
21.484,6.8
21.500,5.03
21.515,3.77
21.531,2.64
21.546,1.07
21.562,-1.22
21.578,-4.02
21.593,-6.64
21.609,-8.33
21.625,-8.72
21.640,-8.0
21.656,-6.87
21.671,-6.07
21.687,-6.04
21.703,-6.75
21.718,-7.82
21.734,-8.81
21.750,-9.45
21.765,-9.74
21.781,-9.86
21.796,-9.99
21.812,-10.16
21.828,-10.28
21.843,-10.19
21.859,-9.92
21.875,-9.63
21.890,-9.68
21.906,-10.44
21.921,-12.06
21.937,-14.36
21.953,-16.78
21.968,-18.59
21.984,-19.09
22.000,-17.96
22.015,-15.33
22.031,-11.8
22.046,-8.1
22.062,-4.86
22.078,-2.35
22.093,-0.5
22.109,0.97
22.125,2.3
22.140,3.59
22.156,4.8
22.171,5.88
22.187,6.86
22.203,7.94
22.218,9.24
22.234,10.7
22.250,12.01
22.265,12.78
22.281,12.83
22.296,12.4
22.312,12.03
22.328,12.25
22.343,13.23
22.359,14.58
22.375,15.53
22.390,15.39
22.406,13.89
22.421,11.41
22.437,8.78
22.453,6.84
22.468,5.96
22.484,5.89
22.500,5.93
22.515,5.37
22.531,3.95
22.546,2.05
22.562,0.41
22.578,-0.23
22.593,0.4
22.609,2.02
22.625,4.04
22.640,5.87
22.656,7.24
22.671,8.1
22.687,8.49
22.703,8.33
22.718,7.4
22.734,5.53
22.750,2.83
22.765,-0.22
22.781,-2.96
22.796,-4.74
22.812,-5.23
22.828,-4.54
22.843,-3.08
22.859,-1.51
22.875,-0.5
22.890,-0.56
22.906,-1.98
22.921,-4.67
22.937,-8.17
22.953,-11.78
22.968,-14.75
22.984,-16.64
23.000,-17.39
23.015,-17.29
23.031,-16.77
23.046,-16.15
23.062,-15.57
23.078,-14.98
23.093,-14.29
23.109,-13.5
23.125,-12.67
23.140,-11.88
23.156,-11.08
23.171,-10.07
23.187,-8.59
23.203,-6.49
23.218,-3.8
23.234,-0.82
23.250,1.99
23.265,4.22
23.281,5.65
23.296,6.36
23.312,6.65
23.328,6.85
23.343,7.17
23.359,7.6
23.375,7.98
23.390,8.21
23.406,8.38
23.421,8.75
23.437,9.58
23.453,10.88
23.468,12.31
23.484,13.3
23.500,13.39
23.515,12.49
23.531,10.94
23.546,9.33
23.562,8.19
23.578,7.68
23.593,7.6
23.609,7.53
23.625,7.14
23.640,6.39
23.656,5.54
23.671,4.92
23.687,4.73
23.703,4.92
23.718,5.2
23.734,5.17
23.750,4.52
23.765,3.17
23.781,1.3
23.796,-0.68
23.812,-2.31
23.828,-3.26
23.843,-3.47
23.859,-3.16
23.875,-2.73
23.890,-2.52
23.906,-2.74
23.921,-3.35
23.937,-4.2
23.953,-5.19
23.968,-6.37
23.984,-8.03
24.000,-10.48
24.015,-13.85
24.031,-17.93
24.046,-22.1
24.062,-25.51
24.078,-27.36
24.093,-27.15
24.109,-24.94
24.125,-21.26
24.140,-17.01
24.156,-13.17
24.171,-10.44
24.187,-9.11
24.203,-8.96
24.218,-9.38
24.234,-9.64
24.250,-9.13
24.265,-7.52
24.281,-4.84
24.296,-1.43
24.312,2.23
24.328,5.62
24.343,8.3
24.359,9.95
24.375,10.4
24.390,9.67
24.406,8.05
24.421,6.04
24.437,4.28
24.453,3.33
24.468,3.52
24.484,4.75
24.500,6.58
24.515,8.42
24.531,9.78
24.546,10.43
24.562,10.39
24.578,9.85
24.593,9.05
24.609,8.11
24.625,7.13
24.640,6.18
24.656,5.45
24.671,5.11
24.687,5.24
24.703,5.73
24.718,6.25
24.734,6.39
24.750,5.89
24.765,4.71
24.781,3.11
24.796,1.56
24.812,0.56
24.828,0.41
24.843,1.19
24.859,2.59
24.875,4.14
24.890,5.21
24.906,5.31
24.921,4.18
24.937,1.87
24.953,-1.39
24.968,-5.24
24.984,-9.23
25.000,-12.91
25.015,-15.82
25.031,-17.57
25.046,-18.1
25.062,-17.69
25.078,-16.9
25.093,-16.32
25.109,-16.3
25.125,-16.87
25.140,-17.77
25.156,-18.66
25.171,-19.31
25.187,-19.69
25.203,-19.92
25.218,-20.05
25.234,-20.1
25.250,-19.85
25.265,-18.97
25.281,-17.16
25.296,-14.11
25.312,-9.66
25.328,-3.9
25.343,2.8
25.359,9.77
25.375,16.3
25.390,21.72
25.406,25.66
25.421,27.99
25.437,28.8
25.453,28.33
25.468,26.9
25.484,24.95
25.500,22.91
25.515,21.21
25.531,20.17
25.546,19.9
25.562,20.31
25.578,21.15
25.593,22.06
25.609,22.7
25.625,22.86
25.640,22.41
25.656,21.29
25.671,19.41
25.687,16.67
25.703,13.02
25.718,8.74
25.734,4.48
25.750,1.16
25.765,-0.35
25.781,0.33
25.796,2.83
25.812,6.04
25.828,8.65
25.843,9.64
25.859,8.71
25.875,6.2
25.890,2.81
25.906,-0.69
25.921,-3.72
25.937,-5.82
25.953,-6.65
25.968,-6.0
25.984,-4.16
26.000,-2.0
26.015,-1.01
26.031,-2.86
26.046,-8.6
26.062,-18.03
26.078,-29.57
26.093,-40.88
26.109,-49.9
26.125,-55.74
26.140,-58.94
26.156,-60.86
26.171,-62.89
26.187,-65.6
26.203,-68.68
26.218,-71.2
26.234,-72.2
26.250,-70.95
26.265,-67.05
26.281,-60.28
26.296,-50.66
26.312,-38.75
26.328,-25.79
26.343,-13.63
26.359,-4.19
26.375,1.33
26.390,2.92
26.406,1.89
26.421,0.24
26.437,-0.04
26.453,2.33
26.468,7.7
26.484,15.44
26.500,24.38
26.515,33.14
26.531,40.5
26.546,45.71
26.562,48.51
26.578,49.04
26.593,47.71
26.609,45.02
26.625,41.52
26.640,37.85
26.656,34.64
26.671,32.35
26.687,31.13
26.703,30.84
26.718,31.18
26.734,31.99
26.750,33.46
26.765,35.96
26.781,39.84
26.796,45.12
26.812,51.23
26.828,57.08
26.843,61.31
26.859,62.7
26.875,60.45
26.890,54.46
26.906,45.3
26.921,34.17
26.937,22.67
26.953,12.35
26.968,4.35
26.984,-0.91
27.000,-3.69
27.015,-4.75
27.031,-4.92
27.046,-4.8
27.062,-4.56
27.078,-4.09
27.093,-3.19
27.109,-1.85
27.125,-0.21
27.140,1.53
27.156,3.24
27.171,4.86
27.187,6.25
27.203,7.09
27.218,6.73
27.234,4.4
27.250,-0.43
27.265,-7.74
27.281,-16.79
27.296,-26.2
27.312,-34.35
27.328,-39.91
27.343,-42.28
27.359,-41.72
27.375,-39.19
27.390,-35.8
27.406,-32.36
27.421,-29.05
27.437,-25.45
27.453,-21.0
27.468,-15.43
27.484,-9.09
27.500,-2.79
27.515,2.67
27.531,6.91
27.546,10.19
27.562,13.12
27.578,16.24
27.593,19.65
27.609,22.88
27.625,25.15
27.640,25.74
27.656,24.42
27.671,21.61
27.687,18.24
27.703,15.42
27.718,13.88
27.734,13.67
27.750,14.09
27.765,14.07
27.781,12.76
27.796,9.94
27.812,6.22
27.828,2.67
27.843,0.28
27.859,-0.58
27.875,-0.26
27.890,0.43
27.906,0.78
27.921,0.51
27.937,-0.13
27.953,-0.68
27.968,-0.75
27.984,-0.19
28.000,0.88
28.015,2.15
28.031,3.24
28.046,3.76
28.062,3.34
28.078,1.77
28.093,-0.89
28.109,-4.28
28.125,-7.83
28.140,-10.85
28.156,-12.8
28.171,-13.43
28.187,-12.84
28.203,-11.42
28.218,-9.71
28.234,-8.25
28.250,-7.53
28.265,-7.88
28.281,-9.52
28.296,-12.38
28.312,-16.22
28.328,-20.6
28.343,-25.03
28.359,-29.03
28.375,-32.12
28.390,-33.82
28.406,-33.72
28.421,-31.63
28.437,-27.74
28.453,-22.7
28.468,-17.48
28.484,-13.15
28.500,-10.4
28.515,-9.3
28.531,-9.2
28.546,-8.91
28.562,-7.18
28.578,-3.17
28.593,3.25
28.609,11.43
28.625,20.12
28.640,27.88
28.656,33.36
28.671,35.73
28.687,34.79
28.703,31.06
28.718,25.56
28.734,19.59
28.750,14.35
28.765,10.75
28.781,9.2
28.796,9.6
28.812,11.33
28.828,13.46
28.843,15.01
28.859,15.16
28.875,13.61
28.890,10.59
28.906,6.86
28.921,3.47
28.937,1.43
28.953,1.48
28.968,3.88
28.984,8.29
29.000,13.8
29.015,19.15
29.031,22.97
29.046,24.28
29.062,22.84
29.078,19.29
29.093,15.0
29.109,11.44
29.125,9.61
29.140,9.63
29.156,10.8
29.171,12.02
29.187,12.29
29.203,11.11
29.218,8.53
29.234,5.0
29.250,1.04
29.265,-2.81
29.281,-6.12
29.296,-8.49
29.312,-9.68
29.328,-9.71
29.343,-8.98
29.359,-8.19
29.375,-8.19
29.390,-9.68
29.406,-12.96
29.421,-17.85
29.437,-23.75
29.453,-29.73
29.468,-34.74
29.484,-37.82
29.500,-38.36
29.515,-36.29
29.531,-32.15
29.546,-26.91
29.562,-21.65
29.578,-17.13
29.593,-13.59
29.609,-10.81
29.625,-8.33
29.640,-5.79
29.656,-3.05
29.671,-0.1
29.687,3.01
29.703,6.3
29.718,9.73
29.734,13.13
29.750,16.11
29.765,18.14
29.781,18.76
29.796,17.89
29.812,15.86
29.828,13.43
29.843,11.44
29.859,10.53
29.875,10.86
29.890,12.13
29.906,13.7
29.921,14.9
29.937,15.22
29.953,14.56
29.968,13.13
29.984,11.39
30.000,9.75
30.015,8.48
30.031,7.66
30.046,7.26
30.062,7.18
30.078,7.38
30.093,7.76
30.109,8.24
30.125,8.71
30.140,9.12
30.156,9.42
30.171,9.69
30.187,9.98
30.203,10.28
30.218,10.41
30.234,10.04
30.250,8.78
30.265,6.41
30.281,3.05
30.296,-0.71
30.312,-3.97
30.328,-5.83
30.343,-5.81
30.359,-4.02
30.375,-1.23
30.390,1.53
30.406,3.35
30.421,3.85
30.437,3.22
30.453,2.0
30.468,0.75
30.484,-0.23
30.500,-1.04
30.515,-2.04
30.531,-3.6
30.546,-5.9
30.562,-8.9
30.578,-12.34
30.593,-15.82
30.609,-18.82
30.625,-20.82
30.640,-21.43
30.656,-20.5
30.671,-18.25
30.687,-15.23
30.703,-12.07
30.718,-9.28
30.734,-6.97
30.750,-4.92
30.765,-2.69
30.781,0.16
30.796,3.86
30.812,8.41
30.828,13.48
30.843,18.46
30.859,22.63
30.875,25.28
30.890,25.98
30.906,24.77
30.921,22.28
30.937,19.55
30.953,17.65
30.968,17.21
30.984,18.16
31.000,19.68
31.015,20.6
31.031,19.83
31.046,16.76
31.062,11.48
31.078,4.71
31.093,-2.47
31.109,-8.9
31.125,-13.58
31.140,-15.9
31.156,-15.69
31.171,-13.17
31.187,-8.86
31.203,-3.49
31.218,2.16
31.234,7.38
31.250,11.69
31.265,14.85
31.281,16.75
31.296,17.29
31.312,16.28
31.328,13.43
31.343,8.65
31.359,2.34
31.375,-4.45
31.390,-10.22
31.406,-13.53
31.421,-13.61
31.437,-10.78
31.453,-6.43
31.468,-2.37
31.484,-0.16
31.500,-0.49
31.515,-3.11
31.531,-7.13
31.546,-11.59
31.562,-15.75
31.578,-19.27
31.593,-22.1
31.609,-24.36
31.625,-26.36
31.640,-28.49
31.656,-31.13
31.671,-34.31
31.687,-37.62
31.703,-40.23
31.718,-41.25
31.734,-40.31
31.750,-37.85
31.765,-34.94
31.781,-32.81
31.796,-32.0
31.812,-32.21
31.828,-32.4
31.843,-31.4
31.859,-28.43
31.875,-23.35
31.890,-16.52
31.906,-8.51
31.921,0.17
31.937,9.1
31.953,17.8
31.968,25.62
31.984,31.77
32.000,35.47
32.015,36.3
32.031,34.43
32.046,30.6
32.062,26.01
32.078,21.78
32.093,18.63
32.109,16.63
32.125,15.25
32.140,13.72
32.156,11.46
32.171,8.47
32.187,5.23
32.203,2.46
32.218,0.64
32.234,-0.17
32.250,-0.2
32.265,0.26
32.281,1.11
32.296,2.41
32.312,4.15
32.328,6.12
32.343,7.92
32.359,9.06
32.375,9.32
32.390,8.77
32.406,7.67
32.421,6.22
32.437,4.4
32.453,2.08
32.468,-0.83
32.484,-4.12
32.500,-7.28
32.515,-9.75
32.531,-11.14
32.546,-11.52
32.562,-11.23
32.578,-10.89
32.593,-11.07
32.609,-12.14
32.625,-14.27
32.640,-17.38
32.656,-21.24
32.671,-25.52
32.687,-29.96
32.703,-34.35
32.718,-38.48
32.734,-41.93
32.750,-44.04
32.765,-44.0
32.781,-41.2
32.796,-35.61
32.812,-28.05
32.828,-20.03
32.843,-13.26
32.859,-9.02
32.875,-7.65
32.890,-8.55
32.906,-10.48
32.921,-12.06
32.937,-12.31
32.953,-10.83
32.968,-7.96
32.984,-4.46
33.000,-1.24
33.015,1.06
33.031,2.21
33.046,2.42
33.062,2.05
33.078,1.38
33.093,0.48
33.109,-0.75
33.125,-2.39
33.140,-4.29
33.156,-5.99
33.171,-6.92
33.187,-6.6
33.203,-5.02
33.218,-2.73
33.234,-0.84
33.250,-0.62
33.265,-3.04
33.281,-8.26
33.296,-15.36
33.312,-22.52
33.328,-27.61
33.343,-28.86
33.359,-25.52
33.375,-17.76
33.390,-6.39
33.406,7.52
33.421,22.81
33.437,37.99
33.453,51.22
33.468,60.56
33.484,64.69
33.500,63.61
33.515,58.88
33.531,53.01
33.546,48.39
33.562,46.19
33.578,45.97
33.593,46.15
33.609,44.93
33.625,41.26
33.640,35.19
33.656,27.73
33.671,20.2
33.687,13.65
33.703,8.59
33.718,5.02
33.734,2.68
33.750,1.28
33.765,0.58
33.781,0.26
33.796,-0.09
33.812,-1.07
33.828,-3.15
33.843,-6.47
33.859,-10.61
33.875,-14.68
33.890,-17.72
33.906,-19.09
33.921,-18.74
33.937,-17.18
33.953,-15.16
33.968,-13.29
33.984,-11.76
34.000,-10.39
34.015,-8.77
34.031,-6.47
34.046,-3.15
34.062,1.28
34.078,6.62
34.093,12.35
34.109,17.68
34.125,21.8
34.140,24.17
34.156,24.79
34.171,24.24
34.187,23.38
34.203,23.01
34.218,23.48
34.234,24.59
34.250,25.82
34.265,26.66
34.281,26.89
34.296,26.63
34.312,26.1
34.328,25.38
34.343,24.32
34.359,22.69
34.375,20.49
34.390,18.09
34.406,16.11
34.421,15.01
34.437,14.77
34.453,14.87
34.468,14.48
34.484,12.97
34.500,10.2
34.515,6.49
34.531,2.37
34.546,-1.78
34.562,-5.82
34.578,-9.83
34.593,-13.84
34.609,-17.69
34.625,-21.12
34.640,-23.86
34.656,-25.89
34.671,-27.37
34.687,-28.47
34.703,-29.19
34.718,-29.23
34.734,-28.23
34.750,-25.9
34.765,-22.34
34.781,-18.0
34.796,-13.59
34.812,-9.78
34.828,-6.99
34.843,-5.3
34.859,-4.53
34.875,-4.53
34.890,-5.31
34.906,-7.08
34.921,-10.2
34.937,-14.83
34.953,-20.77
34.968,-27.32
34.984,-33.45
35.000,-38.08
35.015,-40.45
35.031,-40.23
35.046,-37.55
35.062,-32.82
35.078,-26.63
35.093,-19.55
35.109,-12.24
35.125,-5.47
35.140,-0.05
35.156,3.34
35.171,4.5
35.187,3.91
35.203,2.67
35.218,2.14
35.234,3.38
35.250,6.64
35.265,11.32
35.281,16.29
35.296,20.43
35.312,23.05
35.328,24.06
35.343,23.76
35.359,22.51
35.375,20.57
35.390,18.09
35.406,15.32
35.421,12.73
35.437,10.84
35.453,10.08
35.468,10.49
35.484,11.74
35.500,13.22
35.515,14.19
35.531,14.06
35.546,12.45
35.562,9.45
35.578,5.58
35.593,1.76
35.609,-0.94
35.625,-1.76
35.640,-0.53
35.656,2.26
35.671,5.73
35.687,9.04
35.703,11.74
35.718,13.8
35.734,15.37
35.750,16.45
35.765,16.77
35.781,15.86
35.796,13.41
35.812,9.44
35.828,4.43
35.843,-0.85
35.859,-5.56
35.875,-9.06
35.890,-11.05
35.906,-11.56
35.921,-10.92
35.937,-9.65
35.953,-8.37
35.968,-7.74
35.984,-8.32
36.000,-10.42
36.015,-13.9
36.031,-18.16
36.046,-22.3
36.062,-25.36
36.078,-26.8
36.093,-26.68
36.109,-25.65
36.125,-24.56
36.140,-23.95
36.156,-23.89
36.171,-24.05
36.187,-24.16
36.203,-24.28
36.218,-24.89
36.234,-26.42
36.250,-28.79
36.265,-31.22
36.281,-32.5
36.296,-31.59
36.312,-28.23
36.328,-23.12
36.343,-17.53
36.359,-12.78
36.375,-9.71
36.390,-8.61
36.406,-9.45
36.421,-12.19
36.437,-16.79
36.453,-22.93
36.468,-29.79
36.484,-35.85
36.500,-39.23
36.515,-38.36
36.531,-32.75
36.546,-23.36
36.562,-12.22
36.578,-1.55
36.593,7.42
36.609,14.95
36.625,22.54
36.640,31.9
36.656,43.62
36.671,56.61
36.687,68.38
36.703,76.28
36.718,78.78
36.734,76.15
36.750,70.13
36.765,62.87
36.781,55.79
36.796,49.17
36.812,42.37
36.828,34.61
36.843,25.68
36.859,16.22
36.875,7.42
36.890,0.59
36.906,-3.36
36.921,-4.24
36.937,-2.63
36.953,0.36
36.968,3.32
36.984,5.04
37.000,4.82
37.015,2.73
37.031,-0.48
37.046,-3.71
37.062,-6.03
37.078,-7.08
37.093,-7.17
37.109,-7.08
37.125,-7.63
37.140,-9.21
37.156,-11.64
37.171,-14.3
37.187,-16.39
37.203,-17.5
37.218,-17.62
37.234,-17.17
37.250,-16.66
37.265,-16.48
37.281,-16.69
37.296,-17.08
37.312,-17.25
37.328,-16.73
37.343,-15.13
37.359,-12.22
37.375,-8.07
37.390,-3.09
37.406,2.03
37.421,6.58
37.437,10.05
37.453,12.31
37.468,13.52
37.484,13.89
37.500,13.49
37.515,12.31
37.531,10.5
37.546,8.53
37.562,7.18
37.578,7.11
37.593,8.44
37.609,10.63
37.625,12.6
37.640,13.32
37.656,12.26
37.671,9.54
37.687,5.84
37.703,1.99
37.718,-1.21
37.734,-3.19
37.750,-3.54
37.765,-2.07
37.781,1.12
37.796,5.53
37.812,10.33
37.828,14.6
37.843,17.65
37.859,19.26
37.875,19.69
37.890,19.46
37.906,19.09
37.921,18.89
37.937,18.9
37.953,18.97
37.968,18.88
37.984,18.41
38.000,17.46
38.015,15.91
38.031,13.66
38.046,10.61
38.062,6.71
38.078,2.06
38.093,-3.06
38.109,-8.15
38.125,-12.53
38.140,-15.5
38.156,-16.59
38.171,-15.84
38.187,-13.83
38.203,-11.62
38.218,-10.27
38.234,-10.46
38.250,-12.28
38.265,-15.32
38.281,-19.02
38.296,-23.07
38.312,-27.45
38.328,-32.15
38.343,-36.82
38.359,-40.54
38.375,-42.12
38.390,-40.63
38.406,-36.07
38.421,-29.45
38.437,-22.38
38.453,-16.35
38.468,-12.1
38.484,-9.46
38.500,-7.73
38.515,-6.2
38.531,-4.51
38.546,-2.71
38.562,-1.01
38.578,0.54
38.593,2.01
38.609,3.49
38.625,4.91
38.640,6.04
38.656,6.65
38.671,6.76
38.687,6.7
38.703,6.93
38.718,7.72
38.734,8.9
38.750,10.02
38.765,10.63
38.781,10.68
38.796,10.57
38.812,10.98
38.828,12.33
38.843,14.44
38.859,16.59
38.875,17.87
38.890,17.72
38.906,16.13
38.921,13.6
38.937,10.73
38.953,7.83
38.968,4.95
38.984,2.02
39.000,-0.87
39.015,-3.32
39.031,-4.87
39.046,-5.25
39.062,-4.63
39.078,-3.53
39.093,-2.56
39.109,-2.12
39.125,-2.28
39.140,-2.86
39.156,-3.56
39.171,-4.19
39.187,-4.71
39.203,-5.2
39.218,-5.76
39.234,-6.54
39.250,-7.65
39.265,-9.2
39.281,-11.23
39.296,-13.73
39.312,-16.57
39.328,-19.48
39.343,-22.01
39.359,-23.72
39.375,-24.38
39.390,-24.23
39.406,-23.96
39.421,-24.54
39.437,-26.71
39.453,-30.58
39.468,-35.27
39.484,-39.24
39.500,-40.82
39.515,-39.02
39.531,-33.86
39.546,-26.41
39.562,-18.27
39.578,-10.87
39.593,-5.06
39.609,-0.91
39.625,2.06
39.640,4.54
39.656,7.14
39.671,10.23
39.687,13.88
39.703,17.96
39.718,22.19
39.734,26.22
39.750,29.55
39.765,31.62
39.781,31.92
39.796,30.11
39.812,26.27
39.828,21.0
39.843,15.31
39.859,10.3
39.875,6.81
39.890,5.03
39.906,4.4
39.921,3.98
39.937,2.83
39.953,0.58
39.968,-2.34
39.984,-4.94
40.000,-5.99
40.015,-4.65
40.031,-0.7
40.046,5.41
40.062,12.9
40.078,21.0
40.093,29.02
40.109,36.42
40.125,42.63
40.140,47.06
40.156,49.19
40.171,48.77
40.187,45.98
40.203,41.48
40.218,36.16
40.234,30.87
40.250,26.16
40.265,22.22
40.281,19.04
40.296,16.51
40.312,14.5
40.328,12.83
40.343,11.24
40.359,9.36
40.375,6.9
40.390,3.73
40.406,-0.06
40.421,-4.23
40.437,-8.58
40.453,-12.93
40.468,-17.23
40.484,-21.48
40.500,-25.66
40.515,-29.63
40.531,-33.0
40.546,-35.18
40.562,-35.53
40.578,-33.5
40.593,-29.05
40.609,-22.77
40.625,-15.88
40.640,-10.0
40.656,-6.54
40.671,-6.13
40.687,-8.41
40.703,-12.13
40.718,-15.8
40.734,-18.28
40.750,-19.12
40.765,-18.57
40.781,-17.18
40.796,-15.51
40.812,-13.88
40.828,-12.38
40.843,-10.98
40.859,-9.66
40.875,-8.38
40.890,-7.09
40.906,-5.71
40.921,-4.2
40.937,-2.64
40.953,-1.14
40.968,0.19
40.984,1.39
41.000,2.7
41.015,4.29
41.031,6.03
41.046,7.33
41.062,7.38
41.078,5.57
41.093,2.0
41.109,-2.49
41.125,-6.56
41.140,-8.99
41.156,-9.24
41.171,-7.62
41.187,-5.03
41.203,-2.38
41.218,-0.19
41.234,1.56
41.250,3.26
41.265,5.3
41.281,7.85
41.296,10.65
41.312,13.24
41.328,15.04
41.343,15.64
41.359,14.79
41.375,12.49
41.390,8.93
41.406,4.43
41.421,-0.55
41.437,-5.35
41.453,-9.09
41.468,-10.74
41.484,-9.54
41.500,-5.41
41.515,0.75
41.531,7.25
41.546,12.13
41.562,13.95
41.578,12.26
41.593,7.63
41.609,1.21
41.625,-5.78
41.640,-12.3
41.656,-17.53
41.671,-20.68
41.687,-21.08
41.703,-18.37
41.718,-12.81
41.734,-5.33
41.750,2.62
41.765,9.7
41.781,15.01
41.796,18.28
41.812,19.67
41.828,19.57
41.843,18.42
41.859,16.71
41.875,14.98
41.890,13.82
41.906,13.54
41.921,14.1
41.937,15.04
41.953,15.69
41.968,15.58
41.984,14.71
42.000,13.7
42.015,13.36
42.031,14.35
42.046,16.69
42.062,19.61
42.078,21.93
42.093,22.55
42.109,21.01
42.125,17.7
42.140,13.72
42.156,10.35
42.171,8.64
42.187,9.04
42.203,11.38
42.218,15.01
42.234,18.92
42.250,21.92
42.265,22.76
42.281,20.43
42.296,14.54
42.312,5.73
42.328,-4.24
42.343,-12.75
42.359,-17.15
42.375,-15.81
42.390,-8.87
42.406,1.48
42.421,11.76
42.437,18.47
42.453,19.48
42.468,14.82
42.484,6.47
42.500,-2.7
42.515,-10.19
42.531,-14.77
42.546,-16.49
42.562,-16.19
42.578,-14.79
42.593,-12.84
42.609,-10.63
42.625,-8.42
42.640,-6.75
42.656,-6.26
42.671,-7.33
42.687,-9.86
42.703,-13.18
42.718,-16.43
42.734,-19.01
42.750,-20.89
42.765,-22.56
42.781,-24.6
42.796,-27.28
42.812,-30.24
42.828,-32.63
42.843,-33.47
42.859,-32.15
42.875,-28.77
42.890,-24.13
42.906,-19.32
42.921,-15.25
42.937,-12.26
42.953,-10.11
42.968,-8.19
42.984,-5.97
43.000,-3.14
43.015,0.21
43.031,3.74
43.046,7.05
43.062,9.81
43.078,11.9
43.093,13.44
43.109,14.65
43.125,15.73
43.140,16.62
43.156,17.09
43.171,16.89
43.187,16.05
43.203,14.99
43.218,14.32
43.234,14.47
43.250,15.29
43.265,15.98
43.281,15.51
43.296,13.22
43.312,9.25
43.328,4.57
43.343,0.49
43.359,-1.95
43.375,-2.41
43.390,-1.23
43.406,1.0
43.421,3.8
43.437,6.99
43.453,10.61
43.468,14.66
43.484,19.0
43.500,23.32
43.515,27.34
43.531,30.79
43.546,33.38
43.562,34.69
43.578,34.21
43.593,31.59
43.609,27.0
43.625,21.39
43.640,16.26
43.656,13.18
43.671,13.05
43.687,15.67
43.703,19.81
43.718,23.75
43.734,26.03
43.750,25.96
43.765,23.69
43.781,19.99
43.796,15.72
43.812,11.45
43.828,7.22
43.843,2.53
43.859,-3.45
43.875,-11.65
43.890,-22.61
43.906,-36.09
43.921,-50.93
43.937,-65.2
43.953,-76.77
43.968,-83.93
43.984,-85.88
44.000,-82.78
44.015,-75.44
44.031,-64.93
44.046,-52.23
44.062,-38.24
44.078,-23.87
44.093,-10.2
44.109,1.65
44.125,10.76
44.140,16.67
44.156,19.52
44.171,20.02
44.187,19.25
44.203,18.35
44.218,18.3
44.234,19.68
44.250,22.43
44.265,25.76
44.281,28.35
44.296,28.7
44.312,25.69
44.328,19.18
44.343,10.04
44.359,-0.09
44.375,-9.55
44.390,-17.2
44.406,-22.77
44.421,-26.6
44.437,-29.12
44.453,-30.41
44.468,-30.04
44.484,-27.39
44.500,-22.17
44.515,-14.73
44.531,-6.21
44.546,1.92
44.562,8.31
44.578,12.17
44.593,13.38
44.609,12.3
44.625,9.6
44.640,5.9
44.656,1.73
44.671,-2.46
44.687,-6.28
44.703,-9.23
44.718,-10.82
44.734,-10.58
44.750,-8.31
44.765,-4.18
44.781,1.2
44.796,6.96
44.812,12.15
44.828,16.02
44.843,18.16
44.859,18.57
44.875,17.6
44.890,15.83
44.906,13.91
44.921,12.34
44.937,11.35
44.953,10.66
44.968,9.57
44.984,7.1
45.000,2.38
45.015,-4.87
45.031,-14.13
45.046,-24.09
45.062,-33.14
45.078,-39.89
45.093,-43.65
45.109,-44.48
45.125,-42.87
45.140,-39.41
45.156,-34.5
45.171,-28.39
45.187,-21.39
45.203,-14.05
45.218,-7.21
45.234,-1.75
45.250,1.76
45.265,3.36
45.281,3.67
45.296,3.82
45.312,4.98
45.328,8.1
45.343,13.52
45.359,20.85
45.375,28.96
45.390,36.21
45.406,40.81
45.421,41.21
45.437,36.53
45.453,26.82
45.468,13.14
45.484,-2.56
45.500,-17.84
45.515,-30.26
45.531,-37.99
45.546,-40.24
45.562,-37.39
45.578,-30.7
45.593,-21.93
45.609,-12.8
45.625,-4.66
45.640,1.59
45.656,5.5
45.671,6.96
45.687,6.25
45.703,3.95
45.718,0.88
45.734,-2.18
45.750,-4.73
45.765,-6.6
45.781,-7.97
45.796,-9.14
45.812,-10.35
45.828,-11.71
45.843,-13.17
45.859,-14.52
45.875,-15.43
45.890,-15.5
45.906,-14.41
45.921,-12.22
45.937,-9.51
45.953,-7.29
45.968,-6.61
45.984,-8.03
46.000,-11.21
46.015,-14.96
46.031,-17.76
46.046,-18.44
46.062,-16.76
46.078,-13.47
46.093,-9.91
46.109,-7.3
46.125,-6.26
46.140,-6.66
46.156,-7.8
46.171,-8.85
46.187,-9.16
46.203,-8.36
46.218,-6.33
46.234,-3.01
46.250,1.56
46.265,7.21
46.281,13.46
46.296,19.45
46.312,24.1
46.328,26.41
46.343,25.88
46.359,22.81
46.375,18.28
46.390,13.83
46.406,10.91
46.421,10.29
46.437,11.77
46.453,14.26
46.468,16.33
46.484,16.83
46.500,15.44
46.515,12.68
46.531,9.66
46.546,7.39
46.562,6.32
46.578,6.15
46.593,6.21
46.609,5.89
46.625,5.12
46.640,4.36
46.656,4.24
46.671,5.1
46.687,6.74
46.703,8.59
46.718,10.09
46.734,11.08
46.750,11.85
46.765,12.89
46.781,14.4
46.796,16.11
46.812,17.42
46.828,17.74
46.843,16.9
46.859,15.22
46.875,13.21
46.890,11.17
46.906,8.98
46.921,6.13
46.937,2.16
46.953,-2.93
46.968,-8.51
46.984,-13.58
47.000,-17.25
47.015,-19.21
47.031,-19.8
47.046,-19.82
47.062,-20.1
47.078,-21.16
47.093,-23.03
47.109,-25.49
47.125,-28.28
47.140,-31.19
47.156,-34.1
47.171,-36.76
47.187,-38.81
47.203,-39.79
47.218,-39.38
47.234,-37.58
47.250,-34.68
47.265,-31.09
47.281,-26.93
47.296,-21.92
47.312,-15.53
47.328,-7.38
47.343,2.25
47.359,12.32
47.375,21.35
47.390,28.07
47.406,31.93
47.421,33.32
47.437,33.13
47.453,32.24
47.468,31.09
47.484,29.59
47.500,27.51
47.515,24.85
47.531,22.05
47.546,19.88
47.562,19.04
47.578,19.75
47.593,21.49
47.609,23.31
47.625,24.1
47.640,23.12
47.656,20.3
47.671,16.38
47.687,12.55
47.703,10.07
47.718,9.59
47.734,10.95
47.750,13.18
47.765,15.04
47.781,15.6
47.796,14.57
47.812,12.33
47.828,9.58
47.843,7.01
47.859,5.1
47.875,3.95
47.890,3.44
47.906,3.3
47.921,3.28
47.937,3.22
47.953,3.14
47.968,3.22
47.984,3.68
48.000,4.62
48.015,5.9
48.031,7.05
48.046,7.49
48.062,6.73
48.078,4.54
48.093,1.08
48.109,-3.32
48.125,-8.18
48.140,-12.91
48.156,-16.89
48.171,-19.57
48.187,-20.7
48.203,-20.62
48.218,-20.13
48.234,-20.17
48.250,-21.36
48.265,-23.53
48.281,-25.78
48.296,-26.81
48.312,-25.66
48.328,-22.21
48.343,-17.3
48.359,-12.25
48.375,-8.21
48.390,-5.58
48.406,-3.91
48.421,-2.29
48.437,0.07
48.453,3.45
48.468,7.59
48.484,11.96
48.500,16.03
48.515,19.48
48.531,22.13
48.546,23.88
48.562,24.56
48.578,23.99
48.593,22.18
48.609,19.45
48.625,16.46
48.640,13.94
48.656,12.48
48.671,12.17
48.687,12.73
48.703,13.56
48.718,14.05
48.734,13.91
48.750,13.13
48.765,11.96
48.781,10.72
48.796,9.6
48.812,8.64
48.828,7.85
48.843,7.24
48.859,7.03
48.875,7.47
48.890,8.71
48.906,10.41
48.921,11.88
48.937,12.17
48.953,10.55
48.968,6.89
48.984,1.75
49.000,-3.77
49.015,-8.5
49.031,-11.63
49.046,-12.98
49.062,-12.84
49.078,-11.82
49.093,-10.45
49.109,-9.08
49.125,-7.93
49.140,-7.25
49.156,-7.26
49.171,-8.21
49.187,-10.15
49.203,-12.91
49.218,-16.16
49.234,-19.47
49.250,-22.43
49.265,-24.72
49.281,-26.1
49.296,-26.45
49.312,-25.91
49.328,-24.82
49.343,-23.59
49.359,-22.52
49.375,-21.68
49.390,-20.86
49.406,-19.9
49.421,-18.81
49.437,-17.85
49.453,-17.3
49.468,-17.16
49.484,-17.06
49.500,-16.37
49.515,-14.57
49.531,-11.64
49.546,-8.1
49.562,-4.79
49.578,-2.41
49.593,-1.2
49.609,-0.85
49.625,-0.77
49.640,-0.41
49.656,0.54
49.671,2.15
49.687,4.37
49.703,7.13
49.718,10.38
49.734,14.02
49.750,17.84
49.765,21.56
49.781,24.87
49.796,27.51
49.812,29.29
49.828,30.09
49.843,29.84
49.859,28.56
49.875,26.29
49.890,23.14
49.906,19.2
49.921,14.55
49.937,9.34
49.953,3.78
49.968,-1.76
49.984,-6.78
50.000,-10.72
50.015,-13.17
50.031,-13.89
50.046,-12.91
50.062,-10.45
50.078,-6.89
50.093,-2.75
50.109,1.3
50.125,4.5
50.140,6.18
50.156,6.05
50.171,4.38
50.187,1.92
50.203,-0.4
50.218,-1.9
50.234,-2.43
50.250,-2.38
50.265,-2.54
50.281,-3.65
50.296,-6.16
50.312,-10.02
50.328,-14.71
50.343,-19.41
50.359,-23.33
50.375,-25.95
50.390,-27.28
50.406,-27.82
50.421,-28.25
50.437,-29.07
50.453,-30.19
50.468,-30.92
50.484,-30.27
50.500,-27.48
50.515,-22.48
50.531,-15.96
50.546,-9.18
50.562,-3.44
50.578,0.45
50.593,2.43
50.609,3.13
50.625,3.54
50.640,4.58
50.656,6.72
50.671,9.83
50.687,13.21
50.703,15.8
50.718,16.66
50.734,15.29
50.750,12.07
50.765,8.13
50.781,5.07
50.796,4.33
50.812,6.54
50.828,11.21
50.843,16.95
50.859,22.04
50.875,25.17
50.890,26.03
50.906,25.25
50.921,23.94
50.937,22.97
50.953,22.47
50.968,21.94
50.984,20.66
51.000,18.29
51.015,15.04
51.031,11.66
51.046,8.9
51.062,7.06
51.078,5.84
51.093,4.59
51.109,2.79
51.125,0.44
51.140,-1.91
51.156,-3.51
51.171,-3.88
51.187,-3.16
51.203,-2.07
51.218,-1.45
51.234,-1.85
51.250,-3.15
51.265,-4.77
51.281,-6.06
51.296,-6.71
51.312,-6.96
51.328,-7.42
51.343,-8.66
51.359,-10.85
51.375,-13.68
51.390,-16.4
51.406,-18.19
51.421,-18.39
51.437,-16.72
51.453,-13.4
51.468,-9.2
51.484,-5.3
51.500,-3.06
51.515,-3.56
51.531,-7.16
51.546,-13.3
51.562,-20.59
51.578,-27.33
51.593,-32.05
51.609,-33.9
51.625,-32.81
51.640,-29.26
51.656,-24.01
51.671,-17.8
51.687,-11.16
51.703,-4.41
51.718,2.3
51.734,8.9
51.750,15.24
51.765,21.06
51.781,25.97
51.796,29.61
51.812,31.72
51.828,32.39
51.843,31.93
51.859,30.84
51.875,29.58
51.890,28.4
51.906,27.35
51.921,26.3
51.937,25.11
51.953,23.72
51.968,22.17
51.984,20.62
52.000,19.23
52.015,18.14
52.031,17.31
52.046,16.49
52.062,15.31
52.078,13.33
52.093,10.32
52.109,6.43
52.125,2.21
52.140,-1.46
52.156,-3.69
52.171,-3.9
52.187,-2.01
52.203,1.45
52.218,5.51
52.234,9.04
52.250,11.03
52.265,10.9
52.281,8.71
52.296,5.15
52.312,1.29
52.328,-1.72
52.343,-3.17
52.359,-3.02
52.375,-1.89
52.390,-0.7
52.406,-0.2
52.421,-0.7
52.437,-1.95
52.453,-3.41
52.468,-4.63
52.484,-5.49
52.500,-6.2
52.515,-7.18
52.531,-8.84
52.546,-11.35
52.562,-14.48
52.578,-17.52
52.593,-19.32
52.609,-18.67
52.625,-14.82
52.640,-7.99
52.656,0.33
52.671,7.9
52.687,12.61
52.703,13.48
52.718,11.21
52.734,7.73
52.750,5.21
52.765,4.87
52.781,6.48
52.796,8.58
52.812,9.47
52.828,8.28
52.843,5.44
52.859,2.44
52.875,1.0
52.890,2.24
52.906,6.26
52.921,12.15
52.937,18.5
52.953,24.02
52.968,27.93
52.984,30.06
53.000,30.64
53.015,30.11
53.031,28.87
53.046,27.26
53.062,25.53
53.078,23.86
53.093,22.28
53.109,20.6
53.125,18.48
53.140,15.64
53.156,12.04
53.171,7.87
53.187,3.45
53.203,-1.02
53.218,-5.49
53.234,-9.95
53.250,-14.16
53.265,-17.62
53.281,-19.8
53.296,-20.5
53.312,-20.13
53.328,-19.68
53.343,-20.1
53.359,-21.84
53.375,-24.47
53.390,-26.85
53.406,-27.65
53.421,-25.97
53.437,-21.67
53.453,-15.33
53.468,-8.03
53.484,-0.95
53.500,4.79
53.515,8.42
53.531,9.63
53.546,8.57
53.562,5.77
53.578,1.95
53.593,-2.27
53.609,-6.55
53.625,-10.8
53.640,-15.13
53.656,-19.62
53.671,-24.24
53.687,-28.79
53.703,-32.94
53.718,-36.35
53.734,-38.77
53.750,-40.06
53.765,-40.33
53.781,-39.82
53.796,-38.87
53.812,-37.73
53.828,-36.44
53.843,-34.75
53.859,-32.34
53.875,-28.97
53.890,-24.71
53.906,-19.94
53.921,-15.23
53.937,-11.05
53.953,-7.68
53.968,-5.12
53.984,-3.19
54.000,-1.63
54.015,-0.14
54.031,1.64
54.046,4.04
54.062,7.25
54.078,11.13
54.093,15.31
54.109,19.3
54.125,22.84
54.140,26.04
54.156,29.33
54.171,33.15
54.187,37.58
54.203,42.34
54.218,46.78
54.234,50.17
54.250,51.81
54.265,51.08
54.281,47.47
54.296,40.81
54.312,31.55
54.328,20.96
54.343,10.89
54.359,3.12
54.375,-1.43
54.390,-3.15
54.406,-3.4
54.421,-3.78
54.437,-5.22
54.453,-7.57
54.468,-9.94
54.484,-11.39
54.500,-11.64
54.515,-11.17
54.531,-10.89
54.546,-11.46
54.562,-12.88
54.578,-14.5
54.593,-15.44
54.609,-15.11
54.625,-13.46
54.640,-10.95
54.656,-8.18
54.671,-5.68
54.687,-3.68
54.703,-2.16
54.718,-0.95
54.734,0.16
54.750,1.33
54.765,2.6
54.781,3.82
54.796,4.62
54.812,4.43
54.828,2.65
54.843,-1.11
54.859,-6.82
54.875,-13.88
54.890,-21.16
54.906,-27.18
54.921,-30.59
54.937,-30.6
54.953,-27.25
54.968,-21.51
54.984,-14.91
55.000,-9.03
55.015,-4.88
55.031,-2.6
55.046,-1.57
55.062,-0.75
55.078,0.73
55.093,3.28
55.109,6.68
55.125,10.27
55.140,13.21
55.156,14.86
55.171,14.99
55.187,13.89
55.203,12.23
55.218,10.79
55.234,10.06
55.250,10.05
55.265,10.29
55.281,10.2
55.296,9.45
55.312,8.19
55.328,6.96
55.343,6.45
55.359,7.12
55.375,9.0
55.390,11.8
55.406,15.08
55.421,18.5
55.437,21.7
55.453,24.25
55.468,25.51
55.484,24.83
55.500,21.85
55.515,16.85
55.531,10.78
55.546,4.94
55.562,0.41
55.578,-2.4
55.593,-3.89
55.609,-5.0
55.625,-6.71
55.640,-9.54
55.656,-13.45
55.671,-17.88
55.687,-22.05
55.703,-25.11
55.718,-26.3
55.734,-25.07
55.750,-21.23
55.765,-15.08
55.781,-7.51
55.796,0.19
55.812,6.67
55.828,10.88
55.843,12.41
55.859,11.46
55.875,8.77
55.890,5.22
55.906,1.67
55.921,-1.25
55.937,-3.27
55.953,-4.47
55.968,-5.29
55.984,-6.33
56.000,-8.14
56.015,-11.03
56.031,-14.98
56.046,-19.67
56.062,-24.55
56.078,-28.98
56.093,-32.22
56.109,-33.48
56.125,-32.06
56.140,-27.61
56.156,-20.44
56.171,-11.63
56.187,-2.75
56.203,4.56
56.218,9.15
56.234,10.67
56.250,9.49
56.265,6.46
56.281,2.53
56.296,-1.36
56.312,-4.35
56.328,-5.67
56.343,-4.8
56.359,-1.72
56.375,2.98
56.390,8.23
56.406,12.92
56.421,16.39
56.437,18.64
56.453,20.13
56.468,21.44
56.484,22.84
56.500,24.2
56.515,25.23
56.531,25.77
56.546,25.96
56.562,26.07
56.578,26.23
56.593,26.14
56.609,25.2
56.625,22.81
56.640,18.85
56.656,13.92
56.671,9.17
56.687,5.9
56.703,5.0
56.718,6.66
56.734,10.35
56.750,15.05
56.765,19.64
56.781,23.13
56.796,24.84
56.812,24.42
56.828,21.83
56.843,17.44
56.859,11.97
56.875,6.46
56.890,1.97
56.906,-0.8
56.921,-1.7
56.937,-1.19
56.953,-0.09
56.968,0.73
56.984,0.64
57.000,-0.58
57.015,-2.77
57.031,-5.52
57.046,-8.38
57.062,-10.99
57.078,-13.18
57.093,-15.01
57.109,-16.72
57.125,-18.63
57.140,-21.1
57.156,-24.38
57.171,-28.54
57.187,-33.51
57.203,-39.05
57.218,-44.82
57.234,-50.37
57.250,-55.24
57.265,-59.04
57.281,-61.6
57.296,-62.96
57.312,-63.41
57.328,-63.38
57.343,-63.26
57.359,-63.32
57.375,-63.43
57.390,-63.01
57.406,-60.99
57.421,-55.98
57.437,-46.71
57.453,-32.53
57.468,-13.91
57.484,7.52
57.500,29.16
57.515,48.18
57.531,62.24
57.546,70.1
57.562,71.88
57.578,68.82
57.593,62.86
57.609,55.99
57.625,49.71
57.640,44.88
57.656,41.69
57.671,39.86
57.687,38.83
57.703,37.94
57.718,36.65
57.734,34.55
57.750,31.65
57.765,28.33
57.781,25.4
57.796,23.66
57.812,23.61
57.828,25.06
57.843,27.25
57.859,29.09
57.875,29.74
57.890,28.87
57.906,26.58
57.921,23.21
57.937,18.97
57.953,13.95
57.968,8.33
57.984,2.63
58.000,-2.33
58.015,-5.7
58.031,-7.01
58.046,-6.44
58.062,-4.74
58.078,-2.93
58.093,-1.86
58.109,-1.85
58.125,-2.8
58.140,-4.25
58.156,-5.69
58.171,-6.81
58.187,-7.54
58.203,-8.1
58.218,-8.83
58.234,-10.1
58.250,-12.1
58.265,-14.86
58.281,-18.12
58.296,-21.42
58.312,-24.21
58.328,-25.97
58.343,-26.42
58.359,-25.57
58.375,-23.73
58.390,-21.4
58.406,-19.14
58.421,-17.37
58.437,-16.17
58.453,-15.3
58.468,-14.22
58.484,-12.4
58.500,-9.54
58.515,-5.76
58.531,-1.6
58.546,2.18
58.562,4.94
58.578,6.4
58.593,6.73
58.609,6.47
58.625,6.17
58.640,6.17
58.656,6.4
58.671,6.58
58.687,6.4
58.703,5.72
58.718,4.68
58.734,3.59
58.750,2.74
58.765,2.31
58.781,2.33
58.796,2.77
58.812,3.54
58.828,4.59
58.843,5.83
58.859,7.11
58.875,8.3
58.890,9.41
58.906,10.63
58.921,12.32
58.937,14.78
58.953,17.98
58.968,21.48
58.984,24.51
59.000,26.33
59.015,26.5
59.031,25.05
59.046,22.34
59.062,18.72
59.078,14.4
59.093,9.51
59.109,4.29
59.125,-0.71
59.140,-4.75
59.156,-7.29
59.171,-8.27
59.187,-8.32
59.203,-8.5
59.218,-9.86
59.234,-12.91
59.250,-17.39
59.265,-22.41
59.281,-26.75
59.296,-29.39
59.312,-29.88
59.328,-28.43
59.343,-25.81
59.359,-23.03
59.375,-20.96
59.390,-20.04
59.406,-20.13
59.421,-20.62
59.437,-20.77
59.453,-19.96
59.468,-17.93
59.484,-14.76
59.500,-10.8
59.515,-6.56
59.531,-2.64
59.546,0.37
59.562,2.04
59.578,2.2
59.593,1.13
59.609,-0.57
59.625,-2.13
59.640,-2.92
59.656,-2.66
59.671,-1.45
59.687,0.4
59.703,2.57
59.718,4.87
59.734,7.23
59.750,9.54
59.765,11.54
59.781,12.82
59.796,12.91
59.812,11.52
59.828,8.67
59.843,4.7
59.859,0.17
59.875,-4.34
59.890,-8.35
59.906,-11.68
59.921,-14.32
59.937,-16.47
59.953,-18.3
59.968,-19.83
59.984,-20.87
