timestamp,value
00.000,-204.27
00.015,-210.98
00.031,-221.71
00.046,-233.04
00.062,-239.69
00.078,-236.74
00.093,-222.03
00.109,-197.73
00.125,-170.41
00.140,-149.32
00.156,-143.0
00.171,-155.56
00.187,-184.41
00.203,-220.75
00.218,-252.92
00.234,-271.5
00.250,-272.83
00.265,-259.63
00.281,-238.19
00.296,-214.24
00.312,-189.91
00.328,-163.44
00.343,-131.52
00.359,-92.2
00.375,-46.93
00.390,-0.24
00.406,42.11
00.421,75.39
00.437,97.31
00.453,108.12
00.468,109.78
00.484,104.64
00.500,94.41
00.515,79.85
00.531,61.25
00.546,39.13
00.562,14.88
00.578,-9.06
00.593,-29.81
00.609,-44.9
00.625,-53.14
00.640,-54.81
00.656,-51.27
00.671,-44.21
00.687,-34.91
00.703,-23.97
00.718,-11.5
00.734,2.4
00.750,17.23
00.765,32.07
00.781,46.0
00.796,58.58
00.812,70.18
00.828,81.8
00.843,94.54
00.859,109.09
00.875,125.35
00.890,142.74
00.906,160.75
00.921,179.4
00.937,199.54
00.953,222.46
00.968,249.38
00.984,280.73
01.000,315.67
01.015,352.01
01.031,386.32
01.046,414.4
01.062,432.23
01.078,437.18
01.093,429.26
01.109,411.62
01.125,390.01
01.140,370.59
01.156,357.39
01.171,350.58
01.187,346.86
01.203,341.48
01.218,330.95
01.234,314.63
01.250,294.23
01.265,271.93
01.281,249.05
01.296,225.98
01.312,203.27
01.328,182.73
01.343,167.34
01.359,159.81
01.375,160.42
01.390,166.12
01.406,171.18
01.421,169.3
01.437,155.76
01.453,128.75
01.468,89.26
01.484,40.53
01.500,-12.71
01.515,-64.95
01.531,-110.86
01.546,-146.69
01.562,-171.46
01.578,-187.27
01.593,-198.36
01.609,-209.15
01.625,-222.09
01.640,-236.54
01.656,-249.11
01.671,-254.98
01.687,-249.57
01.703,-230.36
01.718,-197.91
01.734,-155.83
01.750,-110.01
01.765,-66.91
01.781,-31.66
01.796,-6.36
01.812,10.51
01.828,23.41
01.843,37.94
01.859,58.59
01.875,86.6
01.890,119.28
01.906,150.9
01.921,174.88
01.937,186.52
01.953,185.15
01.968,174.23
01.984,159.86
02.000,148.14
02.015,142.67
02.031,143.35
02.046,147.1
02.062,149.67
02.078,147.27
02.093,137.84
02.109,120.86
02.125,96.62
02.140,65.57
02.156,28.36
02.171,-13.16
02.187,-55.28
02.203,-92.8
02.218,-120.77
02.234,-136.46
02.250,-140.79
02.265,-137.71
02.281,-132.1
02.296,-127.21
02.312,-123.27
02.328,-118.26
02.343,-109.91
02.359,-97.75
02.375,-83.68
02.390,-70.8
02.406,-61.26
02.421,-55.07
02.437,-50.43
02.453,-45.39
02.468,-39.63
02.484,-35.11
02.500,-34.95
02.515,-41.31
02.531,-53.93
02.546,-69.76
02.562,-84.28
02.578,-93.5
02.593,-95.93
02.609,-93.22
02.625,-89.36
02.640,-88.77
02.656,-94.19
02.671,-105.55
02.687,-120.07
02.703,-133.68
02.718,-142.7
02.734,-144.87
02.750,-139.26
02.765,-125.55
02.781,-103.36
02.796,-72.37
02.812,-33.29
02.828,11.36
02.843,57.24
02.859,99.19
02.875,132.92
02.890,156.24
02.906,169.52
02.921,174.88
02.937,174.98
02.953,171.94
02.968,167.02
02.984,160.71
03.000,153.12
03.015,144.24
03.031,134.02
03.046,122.59
03.062,110.51
03.078,99.04
03.093,89.89
03.109,84.5
03.125,83.03
03.140,83.96
03.156,84.52
03.171,81.96
03.187,74.97
03.203,64.28
03.218,52.07
03.234,40.51
03.250,30.29
03.265,20.09
03.281,7.42
03.296,-9.72
03.312,-31.44
03.328,-55.65
03.343,-78.97
03.359,-98.33
03.375,-112.15
03.390,-120.65
03.406,-125.18
03.421,-127.49
03.437,-129.16
03.453,-131.69
03.468,-136.52
03.484,-144.73
03.500,-156.53
03.515,-170.63
03.531,-184.45
03.546,-195.18
03.562,-201.38
03.578,-204.13
03.593,-206.57
03.609,-212.08
03.625,-221.87
03.640,-233.43
03.656,-240.97
03.671,-237.65
03.687,-218.61
03.703,-183.18
03.718,-135.43
03.734,-82.73
03.750,-33.13
03.765,7.22
03.781,35.91
03.796,54.54
03.812,67.57
03.828,80.14
03.843,95.63
03.859,114.04
03.875,131.85
03.890,143.72
03.906,145.09
03.921,134.57
03.937,114.78
03.953,91.17
03.968,69.67
03.984,54.28
04.000,46.11
04.015,43.92
04.031,45.71
04.046,49.83
04.062,55.43
04.078,61.7
04.093,67.25
04.109,69.98
04.125,68.06
04.140,61.15
04.156,51.22
04.171,42.37
04.187,39.54
04.203,46.74
04.218,65.32
04.234,93.01
04.250,124.16
04.265,151.21
04.281,167.01
04.296,167.1
04.312,151.04
04.328,122.15
04.343,85.91
04.359,47.87
04.375,12.09
04.390,-19.07
04.406,-44.23
04.421,-62.09
04.437,-71.39
04.453,-71.66
04.468,-64.34
04.484,-53.09
04.500,-42.74
04.515,-37.29
04.531,-37.97
04.546,-42.74
04.562,-47.3
04.578,-47.33
04.593,-40.55
04.609,-27.65
04.625,-11.66
04.640,3.69
04.656,15.69
04.671,23.63
04.687,28.54
04.703,32.13
04.718,35.63
04.734,38.99
04.750,41.07
04.765,40.41
04.781,36.1
04.796,28.38
04.812,18.58
04.828,8.53
04.843,-0.2
04.859,-6.8
04.875,-11.42
04.890,-14.8
04.906,-17.85
04.921,-21.11
04.937,-24.48
04.953,-27.39
04.968,-29.06
04.984,-29.05
05.000,-27.61
05.015,-25.61
05.031,-24.28
05.046,-24.7
05.062,-27.41
05.078,-32.28
05.093,-38.73
05.109,-46.01
05.125,-53.53
05.140,-60.99
05.156,-68.17
05.171,-74.73
05.187,-80.13
05.203,-83.56
05.218,-84.18
05.234,-81.5
05.250,-75.57
05.265,-67.09
05.281,-57.22
05.296,-47.31
05.312,-38.43
05.328,-31.15
05.343,-25.44
05.359,-20.77
05.375,-16.53
05.390,-12.24
05.406,-7.84
05.421,-3.65
05.437,-0.12
05.453,2.4
05.468,3.9
05.484,4.71
05.500,5.38
05.515,6.34
05.531,7.78
05.546,9.61
05.562,11.58
05.578,13.46
05.593,15.09
05.609,16.35
05.625,17.1
05.640,17.11
05.656,16.1
05.671,13.9
05.687,10.62
05.703,6.74
05.718,3.02
05.734,0.3
05.750,-0.69
05.765,0.5
05.781,3.99
05.796,9.58
05.812,16.83
05.828,25.05
05.843,33.49
05.859,41.36
05.875,48.08
05.890,53.3
05.906,57.0
05.921,59.33
05.937,60.51
05.953,60.71
05.968,59.89
05.984,57.88
06.000,54.43
06.015,49.33
06.031,42.49
06.046,34.09
06.062,24.46
06.078,14.2
06.093,3.93
06.109,-5.74
06.125,-14.49
06.140,-22.34
06.156,-29.71
06.171,-37.22
06.187,-45.33
06.203,-54.17
06.218,-63.42
06.234,-72.45
06.250,-80.6
06.265,-87.36
06.281,-92.44
06.296,-95.69
06.312,-96.92
06.328,-95.81
06.343,-91.93
06.359,-84.93
06.375,-74.59
06.390,-61.07
06.406,-44.82
06.421,-26.69
06.437,-7.85
06.453,10.29
06.468,26.27
06.484,38.89
06.500,47.57
06.515,52.47
06.531,54.29
06.546,54.03
06.562,52.52
06.578,50.29
06.593,47.59
06.609,44.62
06.625,41.86
06.640,39.98
06.656,39.74
06.671,41.65
06.687,45.72
06.703,51.38
06.718,57.5
06.734,62.51
06.750,64.48
06.765,61.33
06.781,51.33
06.796,33.83
06.812,9.9
06.828,-17.45
06.843,-44.11
06.859,-66.16
06.875,-81.4
06.890,-90.01
06.906,-94.24
06.921,-97.07
06.937,-100.68
06.953,-105.53
06.968,-110.36
06.984,-113.03
07.000,-111.57
07.015,-104.86
07.031,-92.85
07.046,-76.27
07.062,-56.31
07.078,-34.26
07.093,-11.54
07.109,10.51
07.125,30.69
07.140,48.08
07.156,62.2
07.171,73.05
07.187,81.13
07.203,87.25
07.218,92.35
07.234,97.16
07.250,101.98
07.265,106.51
07.281,110.0
07.296,111.6
07.312,110.72
07.328,107.36
07.343,102.14
07.359,95.95
07.375,89.68
07.390,83.81
07.406,78.34
07.421,72.87
07.437,66.87
07.453,59.94
07.468,51.99
07.484,43.34
07.500,34.62
07.515,26.56
07.531,19.89
07.546,15.03
07.562,12.12
07.578,10.96
07.593,11.09
07.609,11.92
07.625,12.91
07.640,13.63
07.656,13.82
07.671,13.45
07.687,12.66
07.703,11.64
07.718,10.61
07.734,9.73
07.750,9.03
07.765,8.54
07.781,8.21
07.796,7.99
07.812,7.79
07.828,7.47
07.843,6.83
07.859,5.7
07.875,3.98
07.890,1.75
07.906,-0.81
07.921,-3.4
07.937,-5.82
07.953,-8.01
07.968,-10.13
07.984,-12.44
08.000,-15.27
08.015,-18.76
08.031,-22.86
08.046,-27.25
08.062,-31.38
08.078,-34.58
08.093,-36.12
08.109,-35.38
08.125,-32.01
08.140,-26.04
08.156,-17.95
08.171,-8.6
08.187,0.98
08.203,9.87
08.218,17.41
08.234,23.28
08.250,27.44
08.265,29.95
08.281,30.87
08.296,30.34
08.312,28.6
08.328,26.05
08.343,23.22
08.359,20.61
08.375,18.51
08.390,16.9
08.406,15.5
08.421,13.9
08.437,11.82
08.453,9.19
08.468,6.22
08.484,3.3
08.500,0.8
08.515,-1.01
08.531,-2.09
08.546,-2.6
08.562,-2.86
08.578,-3.21
08.593,-3.94
08.609,-5.21
08.625,-6.99
08.640,-9.11
08.656,-11.24
08.671,-13.01
08.687,-14.05
08.703,-14.08
08.718,-12.92
08.734,-10.49
08.750,-6.67
08.765,-1.47
08.781,4.85
08.796,11.76
08.812,18.5
08.828,24.3
08.843,28.52
08.859,30.88
08.875,31.58
08.890,31.37
08.906,31.18
08.921,31.8
08.937,33.59
08.953,36.42
08.968,39.83
08.984,43.19
09.000,45.72
09.015,46.55
09.031,45.05
09.046,40.45
09.062,32.06
09.078,19.56
09.093,3.53
09.109,-14.49
09.125,-32.27
09.140,-47.57
09.156,-58.63
09.171,-63.62
09.187,-61.77
09.203,-53.53
09.218,-40.31
09.234,-23.93
09.250,-6.4
09.265,9.97
09.281,22.72
09.296,29.71
09.312,32.09
09.328,32.6
09.343,34.83
09.359,42.12
09.375,56.67
09.390,78.68
09.406,105.74
09.421,133.34
09.437,156.49
09.453,174.74
09.468,189.3
09.484,201.78
09.500,212.95
09.515,222.85
09.531,231.5
09.546,239.1
09.562,245.85
09.578,251.67
09.593,260.02
09.609,272.52
09.625,287.7
09.640,301.5
09.656,309.9
09.671,311.36
09.687,306.99
09.703,299.45
09.718,267.09
09.734,200.69
09.750,106.66
09.765,5.15
09.781,-83.12
09.796,-147.28
09.812,-186.32
09.828,-204.53
09.843,-207.5
09.859,-200.59
09.875,-183.97
09.890,-157.94
09.906,-124.77
09.921,-88.64
09.937,-54.68
09.953,-26.55
09.968,-5.87
09.984,7.46
10.000,14.0
10.015,17.93
10.031,22.36
10.046,28.28
10.062,34.4
10.078,38.33
10.093,37.91
10.109,31.07
10.125,20.24
10.140,6.76
10.156,-6.3
10.171,-17.1
10.187,-25.22
10.203,-31.63
10.218,-37.7
10.234,-44.25
10.250,-51.41
10.265,-58.65
10.281,-65.81
10.296,-71.51
10.312,-75.4
10.328,-77.57
10.343,-78.46
10.359,-78.61
10.375,-78.54
10.390,-78.75
10.406,-79.54
10.421,-81.37
10.437,-83.85
10.453,-88.69
10.468,-96.8
10.484,-107.84
10.500,-120.64
10.515,-134.26
10.531,-148.4
10.546,-162.95
10.562,-177.73
10.578,-191.8
10.593,-208.64
10.609,-229.71
10.625,-253.59
10.640,-277.14
10.656,-298.09
10.671,-316.09
10.687,-331.73
10.703,-345.49
10.718,-356.77
10.734,-372.25
10.750,-395.26
10.765,-424.15
10.781,-454.11
10.796,-481.44
10.812,-505.76
10.828,-529.3
10.843,-555.33
10.859,-585.81
10.875,-630.76
10.890,-692.26
10.906,-761.76
10.921,-823.65
10.937,-863.91
10.953,-876.0
10.968,-861.73
10.984,-828.79
11.000,-728.01
11.015,-548.91
11.031,-319.63
11.046,-90.07
11.062,101.27
11.078,240.98
11.093,333.23
11.109,389.05
11.125,416.45
11.140,430.74
11.156,432.33
11.171,421.56
11.187,402.29
11.203,381.25
11.218,363.83
11.234,352.71
11.250,348.99
11.265,353.22
11.281,366.86
11.296,382.49
11.312,395.15
11.328,404.45
11.343,413.02
11.359,422.58
11.375,431.75
11.390,437.57
11.406,438.02
11.421,434.94
11.437,427.34
11.453,417.13
11.468,407.98
11.484,402.14
11.500,397.58
11.515,388.52
11.531,368.97
11.546,336.18
11.562,293.29
11.578,243.33
11.593,190.23
11.609,137.61
11.625,88.0
11.640,42.05
11.656,-1.53
11.671,-45.13
11.687,-90.75
11.703,-136.85
11.718,-180.93
11.734,-218.38
11.750,-243.29
11.765,-250.31
11.781,-237.09
11.796,-205.37
11.812,-159.59
11.828,-104.19
11.843,-39.9
11.859,32.43
11.875,109.24
11.890,182.9
11.906,243.25
11.921,281.13
11.937,292.17
11.953,279.22
11.968,240.48
11.984,185.58
12.000,131.39
12.015,93.15
12.031,75.38
12.046,72.21
12.062,74.87
12.078,77.52
12.093,78.8
12.109,80.02
12.125,85.87
12.140,95.89
12.156,106.51
12.171,113.16
12.187,112.62
12.203,104.29
12.218,89.76
12.234,71.59
12.250,52.15
12.265,33.81
12.281,16.59
12.296,-1.04
12.312,-21.05
12.328,-44.85
12.343,-72.91
12.359,-105.23
12.375,-141.54
12.390,-181.18
12.406,-221.81
12.421,-262.34
12.437,-299.99
12.453,-330.56
12.468,-350.49
12.484,-358.87
12.500,-358.16
12.515,-353.12
12.531,-348.56
12.546,-346.86
12.562,-350.36
12.578,-357.5
12.593,-363.48
12.609,-363.04
12.625,-352.6
12.640,-331.42
12.656,-301.4
12.671,-266.27
12.687,-214.71
12.703,-149.47
12.718,-83.24
12.734,-29.81
12.750,4.13
12.765,20.04
12.781,23.1
12.796,18.54
12.812,10.56
12.828,2.27
12.843,-6.68
12.859,-17.32
12.875,-27.51
12.890,-35.52
12.906,-40.87
12.921,-44.07
12.937,-45.84
12.953,-46.19
12.968,-44.54
12.984,-42.03
13.000,-38.57
13.015,-32.58
13.031,-24.01
13.046,-13.5
13.062,-2.32
13.078,8.36
13.093,17.96
13.109,26.32
13.125,32.2
13.140,35.05
13.156,35.17
13.171,32.99
13.187,29.1
13.203,24.21
13.218,19.29
13.234,15.56
13.250,13.94
13.265,14.08
13.281,15.18
13.296,16.35
13.312,16.77
13.328,16.27
13.343,15.48
13.359,15.84
13.375,19.1
13.390,26.48
13.406,37.84
13.421,52.04
13.437,67.37
13.453,82.24
13.468,96.06
13.484,109.5
13.500,124.32
13.515,143.04
13.531,168.25
13.546,201.94
13.562,244.5
13.578,293.78
13.593,344.35
13.609,387.96
13.625,415.45
13.640,419.68
13.656,398.41
13.671,355.54
13.687,299.87
13.703,241.76
13.718,189.34
13.734,146.15
13.750,111.17
13.765,80.81
13.781,51.54
13.796,21.48
13.812,-9.24
13.828,-39.28
13.843,-67.07
13.859,-91.37
13.875,-111.43
13.890,-127.18
13.906,-139.32
13.921,-149.05
13.937,-157.77
13.953,-166.16
13.968,-173.62
13.984,-178.45
14.000,-178.83
14.015,-174.05
14.031,-165.16
14.046,-154.44
14.062,-144.2
14.078,-135.4
14.093,-127.5
14.109,-119.23
14.125,-109.93
14.140,-100.14
14.156,-90.98
14.171,-82.83
14.187,-74.36
14.203,-62.87
14.218,-45.92
14.234,-23.27
14.250,2.34
14.265,26.24
14.281,44.07
14.296,54.09
14.312,58.01
14.328,59.86
14.343,63.73
14.359,71.52
14.375,82.18
14.390,92.43
14.406,98.66
14.421,98.69
14.437,92.56
14.453,82.28
14.468,70.85
14.484,61.15
14.500,55.13
14.515,53.42
14.531,55.49
14.546,60.04
14.562,65.43
14.578,70.22
14.593,73.31
14.609,74.18
14.625,72.81
14.640,69.68
14.656,65.46
14.671,60.82
14.687,56.19
14.703,51.56
14.718,46.64
14.734,40.9
14.750,33.9
14.765,25.48
14.781,15.99
14.796,6.26
14.812,-2.47
14.828,-8.86
14.843,-11.77
14.859,-10.47
14.875,-4.96
14.890,4.13
14.906,15.68
14.921,28.43
14.937,41.35
14.953,53.62
14.968,64.53
14.984,73.11
15.000,78.1
15.015,78.16
15.031,72.59
15.046,61.9
15.062,47.9
15.078,33.28
15.093,20.69
15.109,11.83
15.125,7.05
15.140,5.49
15.156,5.75
15.171,6.48
15.187,6.85
15.203,6.62
15.218,6.06
15.234,5.81
15.250,6.85
15.265,10.33
15.281,17.38
15.296,28.81
15.312,44.67
15.328,63.86
15.343,83.91
15.359,101.19
15.375,111.58
15.390,111.73
15.406,100.25
15.421,78.66
15.437,51.09
15.453,23.01
15.468,-0.73
15.484,-17.55
15.500,-27.62
15.515,-33.11
15.531,-36.61
15.546,-39.63
15.562,-42.09
15.578,-42.6
15.593,-39.56
15.609,-32.06
15.625,-20.47
15.640,-6.33
15.656,8.13
15.671,20.65
15.687,29.56
15.703,34.15
15.718,34.79
15.734,32.81
15.750,30.1
15.765,28.46
15.781,29.21
15.796,32.84
15.812,39.04
15.828,46.79
15.843,54.5
15.859,60.28
15.875,62.37
15.890,59.6
15.906,51.83
15.921,40.09
15.937,26.33
15.953,12.79
15.968,1.38
15.984,-6.97
16.000,-12.43
16.015,-15.93
16.031,-18.51
16.046,-20.66
16.062,-22.09
16.078,-22.06
16.093,-20.14
16.109,-16.45
16.125,-11.48
16.140,-5.46
16.156,2.11
16.171,12.37
16.187,26.18
16.203,43.03
16.218,60.4
16.234,74.27
16.250,80.87
16.265,78.58
16.281,68.86
16.296,55.72
16.312,43.97
16.328,37.09
16.343,35.91
16.359,38.73
16.375,42.51
16.390,44.47
16.406,43.15
16.421,38.72
16.437,32.31
16.453,24.94
16.468,16.71
16.484,6.62
16.500,-6.76
16.515,-24.23
16.531,-45.22
16.546,-67.78
16.562,-89.37
16.578,-107.92
16.593,-122.63
16.609,-133.97
16.625,-142.97
16.640,-150.18
16.656,-155.25
16.671,-157.1
16.687,-154.73
16.703,-148.06
16.718,-138.2
16.734,-127.24
16.750,-117.46
16.765,-110.56
16.781,-107.29
16.796,-107.5
16.812,-110.54
16.828,-115.76
16.843,-122.82
16.859,-131.74
16.875,-142.8
16.890,-156.29
16.906,-172.18
16.921,-189.88
16.937,-208.24
16.953,-225.6
16.968,-239.91
16.984,-248.93
17.000,-250.34
17.015,-242.03
17.031,-222.53
17.046,-191.61
17.062,-150.7
17.078,-102.87
17.093,-51.97
17.109,-1.59
17.125,45.84
17.140,89.13
17.156,127.66
17.171,160.58
17.187,186.43
17.203,203.51
17.218,210.89
17.234,209.27
17.250,200.97
17.265,189.11
17.281,176.16
17.296,162.99
17.312,148.93
17.328,132.63
17.343,113.21
17.359,91.22
17.375,68.77
17.390,48.97
17.406,34.88
17.421,28.68
17.437,31.07
17.453,41.2
17.468,56.86
17.484,74.92
17.500,91.82
17.515,104.23
17.531,109.63
17.546,106.97
17.562,96.88
17.578,81.52
17.593,63.85
17.609,46.45
17.625,30.72
17.640,16.38
17.656,1.83
17.671,-14.75
17.687,-34.18
17.703,-55.43
17.718,-75.78
17.734,-91.84
17.750,-101.0
17.765,-102.28
17.781,-96.64
17.796,-86.31
17.812,-73.79
17.828,-61.04
17.843,-49.18
17.859,-38.93
17.875,-30.98
17.890,-26.16
17.906,-25.01
17.921,-27.29
17.937,-31.69
17.953,-36.15
17.968,-38.57
17.984,-37.71
18.000,-33.51
18.015,-26.93
18.031,-19.39
18.046,-12.02
18.062,-5.43
18.078,0.25
18.093,5.22
18.109,9.64
18.125,13.55
18.140,16.91
18.156,19.57
18.171,21.4
18.187,22.27
18.203,22.13
18.218,21.06
18.234,19.32
18.250,17.39
18.265,15.77
18.281,14.85
18.296,14.73
18.312,15.16
18.328,15.65
18.343,15.69
18.359,14.97
18.375,13.46
18.390,11.38
18.406,9.06
18.421,6.76
18.437,4.64
18.453,2.67
18.468,0.7
18.484,-1.52
18.500,-4.23
18.515,-7.63
18.531,-11.72
18.546,-16.27
18.562,-20.75
18.578,-24.43
18.593,-26.57
18.609,-26.65
18.625,-24.55
18.640,-20.62
18.656,-15.54
18.671,-10.11
18.687,-5.02
18.703,-0.73
18.718,2.61
18.734,4.97
18.750,6.42
18.765,7.01
18.781,6.77
18.796,5.84
18.812,4.46
18.828,2.96
18.843,1.71
18.859,0.96
18.875,0.8
18.890,1.07
18.906,1.42
18.921,1.45
18.937,0.85
18.953,-0.48
18.968,-2.34
18.984,-4.37
19.000,-6.15
19.015,-7.47
19.031,-8.36
19.046,-9.16
19.062,-10.28
19.078,-12.03
19.093,-14.58
19.109,-17.82
19.125,-21.49
19.140,-25.2
19.156,-28.46
19.171,-30.67
19.187,-31.28
19.203,-29.88
19.218,-26.42
19.234,-21.25
19.250,-15.08
19.265,-8.72
19.281,-2.89
19.296,2.0
19.312,5.86
19.328,8.76
19.343,10.78
19.359,11.91
19.375,12.08
19.390,11.3
19.406,9.77
19.421,7.87
19.437,6.12
19.453,4.92
19.468,4.4
19.484,4.41
19.500,4.61
19.515,4.62
19.531,4.23
19.546,3.41
19.562,2.28
19.578,1.0
19.593,-0.37
19.609,-1.84
19.625,-3.49
19.640,-5.36
19.656,-7.49
19.671,-9.85
19.687,-12.42
19.703,-15.23
19.718,-18.24
19.734,-21.33
19.750,-24.22
19.765,-26.45
19.781,-27.5
19.796,-26.93
19.812,-24.56
19.828,-20.53
19.843,-15.33
19.859,-9.55
19.875,-3.84
19.890,1.32
19.906,5.62
19.921,8.91
19.937,11.17
19.953,12.48
19.968,13.04
19.984,13.09
20.000,12.93
20.015,12.79
20.031,12.75
20.046,12.8
20.062,12.84
20.078,12.77
20.093,12.55
20.109,12.16
20.125,11.56
20.140,10.72
20.156,9.57
20.171,8.11
20.187,6.38
20.203,4.5
20.218,2.58
20.234,0.71
20.250,-1.12
20.265,-2.98
20.281,-4.94
20.296,-7.12
20.312,-9.56
20.328,-12.27
20.343,-15.13
20.359,-17.88
20.375,-20.13
20.390,-21.34
20.406,-21.03
20.421,-18.95
20.437,-15.16
20.453,-10.05
20.468,-4.23
20.484,1.64
20.500,7.02
20.515,11.52
20.531,14.88
20.546,16.91
20.562,17.57
20.578,16.92
20.593,15.27
20.609,13.11
20.625,11.07
20.640,9.7
20.656,9.29
20.671,9.88
20.687,11.23
20.703,12.95
20.718,14.65
20.734,15.95
20.750,16.54
20.765,16.24
20.781,15.01
20.796,13.01
20.812,10.61
20.828,8.24
20.843,6.3
20.859,4.96
20.875,4.16
20.890,3.56
20.906,2.75
20.921,1.32
20.937,-0.95
20.953,-3.98
20.968,-7.35
20.984,-10.33
21.000,-12.1
21.015,-12.0
21.031,-9.85
21.046,-6.06
21.062,-1.51
21.078,2.79
21.093,6.13
21.109,8.23
21.125,9.31
21.140,9.81
21.156,10.11
21.171,10.38
21.187,10.61
21.203,10.72
21.218,10.72
21.234,10.71
21.250,10.72
21.265,10.73
21.281,10.53
21.296,9.87
21.312,8.63
21.328,6.94
21.343,5.17
21.359,3.76
21.375,3.04
21.390,3.11
21.406,3.81
21.421,4.81
21.437,5.74
21.453,6.38
21.468,6.59
21.484,6.37
21.500,5.7
21.515,4.51
21.531,2.72
21.546,0.27
21.562,-2.77
21.578,-6.16
21.593,-9.42
21.609,-12.0
21.625,-13.35
21.640,-13.13
21.656,-11.28
21.671,-8.07
21.687,-3.95
21.703,0.61
21.718,5.17
21.734,9.42
21.750,13.12
21.765,16.1
21.781,18.16
21.796,19.23
21.812,19.33
21.828,18.6
21.843,17.35
21.859,15.89
21.875,14.56
21.890,13.54
21.906,12.92
21.921,12.57
21.937,12.25
21.953,11.6
21.968,10.28
21.984,8.17
22.000,5.38
22.015,2.26
22.031,-0.74
22.046,-3.29
22.062,-5.35
22.078,-7.15
22.093,-9.08
22.109,-11.52
22.125,-14.67
22.140,-18.46
22.156,-22.59
22.171,-26.63
22.187,-30.03
22.203,-32.26
22.218,-32.87
22.234,-31.61
22.250,-28.53
22.265,-23.96
22.281,-18.48
22.296,-12.75
22.312,-7.28
22.328,-2.32
22.343,2.18
22.359,6.35
22.375,10.31
22.390,13.98
22.406,17.03
22.421,19.08
22.437,19.83
22.453,19.28
22.468,17.72
22.484,15.61
22.500,13.46
22.515,11.56
22.531,10.02
22.546,8.7
22.562,7.39
22.578,5.89
22.593,4.08
22.609,1.92
22.625,-0.55
22.640,-3.24
22.656,-6.05
22.671,-8.94
22.687,-11.95
22.703,-15.12
22.718,-18.55
22.734,-22.22
22.750,-25.88
22.765,-29.1
22.781,-31.35
22.796,-32.19
22.812,-31.47
22.828,-29.37
22.843,-26.34
22.859,-22.86
22.875,-19.3
22.890,-15.8
22.906,-12.38
22.921,-8.98
22.937,-5.63
22.953,-2.42
22.968,0.5
22.984,2.98
23.000,4.94
23.015,6.36
23.031,7.36
23.046,8.13
23.062,8.91
23.078,10.0
23.093,11.61
23.109,13.8
23.125,16.47
23.140,19.36
23.156,22.16
23.171,24.58
23.187,26.41
23.203,27.49
23.218,27.77
23.234,27.25
23.250,26.0
23.265,24.19
23.281,21.93
23.296,19.3
23.312,16.3
23.328,12.89
23.343,9.1
23.359,5.11
23.375,1.24
23.390,-2.05
23.406,-4.31
23.421,-5.19
23.437,-4.49
23.453,-2.23
23.468,1.37
23.484,5.88
23.500,10.7
23.515,15.08
23.531,18.4
23.546,20.31
23.562,20.86
23.578,20.41
23.593,19.46
23.609,18.4
23.625,17.4
23.640,16.49
23.656,15.68
23.671,15.1
23.687,14.98
23.703,15.44
23.718,16.38
23.734,17.42
23.750,18.09
23.765,17.99
23.781,16.96
23.796,15.1
23.812,12.6
23.828,9.66
23.843,6.49
23.859,3.29
23.875,0.34
23.890,-2.09
23.906,-3.79
23.921,-4.75
23.937,-5.12
23.953,-5.16
23.968,-5.12
23.984,-5.11
24.000,-5.1
24.015,-4.98
24.031,-4.54
24.046,-3.63
24.062,-2.11
24.078,-0.04
24.093,2.38
24.109,4.78
24.125,6.76
24.140,8.03
24.156,8.54
24.171,8.49
24.187,8.22
24.203,8.05
24.218,8.19
24.234,8.64
24.250,9.28
24.265,9.97
24.281,10.61
24.296,11.21
24.312,11.78
24.328,12.33
24.343,12.8
24.359,13.11
24.375,13.21
24.390,13.1
24.406,12.95
24.421,12.89
24.437,13.03
24.453,13.3
24.468,13.48
24.484,13.22
24.500,12.2
24.515,10.26
24.531,7.48
24.546,4.18
24.562,0.86
24.578,-1.95
24.593,-3.79
24.609,-4.34
24.625,-3.58
24.640,-1.72
24.656,0.82
24.671,3.55
24.687,6.04
24.703,7.98
24.718,9.24
24.734,9.82
24.750,9.76
24.765,9.1
24.781,7.92
24.796,6.34
24.812,4.57
24.828,2.87
24.843,1.52
24.859,0.65
24.875,0.26
24.890,0.21
24.906,0.3
24.921,0.34
24.937,0.21
24.953,-0.1
24.968,-0.57
24.984,-1.09
25.000,-1.58
25.015,-1.95
25.031,-2.17
25.046,-2.25
25.062,-2.33
25.078,-2.59
25.093,-3.24
25.109,-4.48
25.125,-6.31
25.140,-8.5
25.156,-10.61
25.171,-12.07
25.187,-12.37
25.203,-11.22
25.218,-8.72
25.234,-5.28
25.250,-1.61
25.265,1.6
25.281,3.83
25.296,4.9
25.312,4.89
25.328,4.14
25.343,2.98
25.359,1.68
25.375,0.4
25.390,-0.76
25.406,-1.75
25.421,-2.44
25.437,-2.73
25.453,-2.59
25.468,-2.12
25.484,-1.57
25.500,-1.24
25.515,-1.36
25.531,-1.99
25.546,-2.98
25.562,-4.08
25.578,-5.06
25.593,-5.77
25.609,-6.29
25.625,-6.78
25.640,-7.5
25.656,-8.6
25.671,-10.11
25.687,-11.88
25.703,-13.6
25.718,-14.93
25.734,-15.51
25.750,-15.09
25.765,-13.61
25.781,-11.2
25.796,-8.17
25.812,-4.97
25.828,-2.08
25.843,0.13
25.859,1.49
25.875,2.0
25.890,1.88
25.906,1.37
25.921,0.68
25.937,-0.08
25.953,-0.84
25.968,-1.54
25.984,-2.06
26.000,-2.24
26.015,-1.93
26.031,-1.13
26.046,0.01
26.062,1.17
26.078,2.02
26.093,2.34
26.109,2.07
26.125,1.34
26.140,0.38
26.156,-0.61
26.171,-1.53
26.187,-2.42
26.203,-3.4
26.218,-4.53
26.234,-5.84
26.250,-7.25
26.265,-8.6
26.281,-9.69
26.296,-10.38
26.312,-10.52
26.328,-10.06
26.343,-9.02
26.359,-7.47
26.375,-5.6
26.390,-3.59
26.406,-1.62
26.421,0.21
26.437,1.79
26.453,3.08
26.468,3.96
26.484,4.32
26.500,4.08
26.515,3.26
26.531,2.03
26.546,0.69
26.562,-0.45
26.578,-1.19
26.593,-1.44
26.609,-1.32
26.625,-1.06
26.640,-0.92
26.656,-1.1
26.671,-1.68
26.687,-2.6
26.703,-3.66
26.718,-4.63
26.734,-5.36
26.750,-5.81
26.765,-6.13
26.781,-6.54
26.796,-7.34
26.812,-8.71
26.828,-10.67
26.843,-13.03
26.859,-15.41
26.875,-17.38
26.890,-18.54
26.906,-18.67
26.921,-17.75
26.937,-15.95
26.953,-13.58
26.968,-10.99
26.984,-8.51
27.000,-6.35
27.015,-4.63
27.031,-3.36
27.046,-2.51
27.062,-2.03
27.078,-1.93
27.093,-2.23
27.109,-2.92
27.125,-4.0
27.140,-5.39
27.156,-7.01
27.171,-8.79
27.187,-10.7
27.203,-12.73
27.218,-14.85
27.234,-17.01
27.250,-19.09
27.265,-20.99
27.281,-22.64
27.296,-24.07
27.312,-25.4
27.328,-26.86
27.343,-28.73
27.359,-31.29
27.375,-34.64
27.390,-38.7
27.406,-43.14
27.421,-47.47
27.437,-51.15
27.453,-53.71
27.468,-54.9
27.484,-54.69
27.500,-53.22
27.515,-50.72
27.531,-47.39
27.546,-43.4
27.562,-38.91
27.578,-34.19
27.593,-29.71
27.609,-26.08
27.625,-23.79
27.640,-22.83
27.656,-22.42
27.671,-20.98
27.687,-16.5
27.703,-7.04
27.718,8.63
27.734,30.64
27.750,57.75
27.765,87.6
27.781,117.21
27.796,143.74
27.812,165.3
27.828,181.34
27.843,192.7
27.859,201.07
27.875,208.2
27.890,215.14
27.906,222.05
27.921,228.77
27.937,235.61
27.953,243.79
27.968,254.98
27.984,270.13
28.000,288.52
28.015,307.15
28.031,321.07
28.046,324.76
28.062,313.87
28.078,286.53
28.093,243.55
28.109,187.91
28.125,124.54
28.140,60.36
28.156,3.88
28.171,-36.54
28.187,-55.39
28.203,-52.34
28.218,-33.03
28.234,-7.41
28.250,13.68
28.265,22.37
28.281,16.24
28.296,-2.18
28.312,-28.39
28.328,-59.1
28.343,-93.27
28.359,-131.11
28.375,-171.98
28.390,-213.39
28.406,-251.41
28.421,-281.97
28.437,-300.42
28.453,-302.32
28.468,-286.24
28.484,-255.44
28.500,-216.56
28.515,-175.67
28.531,-136.0
28.546,-98.48
28.562,-62.79
28.578,-28.83
28.593,2.49
28.609,29.33
28.625,50.08
28.640,64.15
28.656,72.69
28.671,78.49
28.687,83.2
28.703,87.82
28.718,92.44
28.734,96.28
28.750,98.04
28.765,96.84
28.781,92.48
28.796,86.1
28.812,79.49
28.828,74.11
28.843,70.87
28.859,69.7
28.875,69.42
28.890,67.84
28.906,65.83
28.921,63.43
28.937,61.0
28.953,59.16
28.968,58.32
28.984,58.81
29.000,60.77
29.015,64.08
29.031,68.61
29.046,74.33
29.062,80.91
29.078,88.39
29.093,96.88
29.109,106.44
29.125,117.03
29.140,128.5
29.156,140.05
29.171,151.07
29.187,161.41
29.203,171.04
29.218,180.16
29.234,189.02
29.250,197.32
29.265,204.68
29.281,210.75
29.296,214.74
29.312,216.04
29.328,214.6
29.343,210.55
29.359,204.21
29.375,195.89
29.390,185.37
29.406,172.34
29.421,156.54
29.437,136.49
29.453,111.12
29.468,80.54
29.484,45.81
29.500,8.35
29.515,-30.38
29.531,-70.17
29.546,-110.84
29.562,-151.9
29.578,-196.08
29.593,-244.74
29.609,-296.03
29.625,-345.26
29.640,-387.19
29.656,-416.98
29.671,-434.16
29.687,-439.45
29.703,-433.85
29.718,-426.0
29.734,-422.67
29.750,-424.87
29.765,-427.97
29.781,-426.39
29.796,-414.82
29.812,-396.16
29.828,-374.54
29.843,-353.38
29.859,-347.02
29.875,-365.83
29.890,-410.07
29.906,-470.5
29.921,-535.89
29.937,-595.02
29.953,-649.62
29.968,-703.34
29.984,-758.66
30.000,-831.67
30.015,-932.66
30.031,-1058.15
30.046,-1191.82
30.062,-1314.83
30.078,-1408.73
30.093,-1472.97
30.109,-1511.02
30.125,-1430.14
30.140,-1185.45
30.156,-804.71
30.171,-377.0
30.187,8.85
30.203,272.13
30.218,442.31
30.234,549.94
30.250,616.1
30.265,654.36
30.281,663.53
30.296,639.87
30.312,589.97
30.328,530.45
30.343,477.95
30.359,447.97
30.375,437.26
30.390,438.64
30.406,446.16
30.421,444.59
30.437,424.1
30.453,386.08
30.468,341.33
30.484,301.93
30.500,282.06
30.515,281.72
30.531,296.69
30.546,322.02
30.562,346.2
30.578,360.95
30.593,365.44
30.609,365.13
30.625,366.72
30.640,381.51
30.656,410.89
30.671,451.25
30.687,496.31
30.703,536.41
30.718,564.92
30.734,580.69
30.750,587.01
30.765,588.34
30.781,595.38
30.796,612.37
30.812,637.74
30.828,665.64
30.843,688.4
30.859,701.02
30.875,702.11
30.890,693.0
30.906,637.42
30.921,521.32
30.937,357.16
30.953,177.93
30.968,14.25
30.984,-119.24
31.000,-221.34
31.015,-297.29
31.031,-353.39
31.046,-395.36
31.062,-421.38
31.078,-430.69
31.093,-426.27
31.109,-414.5
31.125,-401.66
31.140,-390.73
31.156,-383.33
31.171,-377.64
31.187,-371.67
31.203,-359.19
31.218,-336.44
31.234,-304.0
31.250,-266.4
31.265,-229.0
31.281,-195.15
31.296,-166.67
31.312,-144.21
31.328,-128.29
31.343,-116.22
31.359,-106.05
31.375,-97.63
31.390,-92.03
31.406,-93.93
31.421,-104.08
31.437,-120.92
31.453,-141.47
31.468,-162.61
31.484,-180.08
31.500,-190.83
31.515,-193.9
31.531,-190.2
31.546,-181.55
31.562,-169.2
31.578,-154.41
31.593,-138.29
31.609,-122.03
31.625,-106.22
31.640,-91.46
31.656,-78.59
31.671,-68.55
31.687,-62.08
31.703,-59.05
31.718,-59.13
31.734,-61.81
31.750,-66.61
31.765,-73.0
31.781,-80.48
31.796,-88.62
31.812,-97.0
31.828,-105.29
31.843,-112.93
31.859,-119.58
31.875,-124.97
31.890,-128.99
31.906,-131.52
31.921,-132.45
31.937,-131.63
31.953,-128.9
31.968,-124.15
31.984,-117.19
32.000,-108.01
32.015,-96.77
32.031,-83.81
32.046,-69.6
32.062,-54.71
32.078,-39.71
32.093,-25.18
32.109,-11.58
32.125,0.74
32.140,11.5
32.156,20.54
32.171,27.76
32.187,33.22
32.203,37.1
32.218,39.68
32.234,41.35
32.250,42.48
32.265,43.38
32.281,44.25
32.296,45.18
32.312,46.21
32.328,47.42
32.343,49.0
32.359,51.19
32.375,54.25
32.390,58.38
32.406,63.52
32.421,69.39
32.437,75.53
32.453,81.51
32.468,87.03
32.484,92.1
32.500,97.03
32.515,102.26
32.531,108.24
32.546,115.22
32.562,123.26
32.578,132.28
32.593,142.23
32.609,153.19
32.625,165.32
32.640,178.74
32.656,193.42
32.671,209.28
32.687,226.35
32.703,245.06
32.718,265.95
32.734,289.11
32.750,313.31
32.765,335.66
32.781,351.99
32.796,358.17
32.812,351.65
32.828,332.33
32.843,302.43
32.859,265.37
32.875,224.62
32.890,183.19
32.906,143.84
32.921,109.63
32.937,83.97
32.953,69.7
32.968,67.75
32.984,76.27
33.000,90.91
33.015,106.24
33.031,117.54
33.046,121.97
33.062,118.62
33.078,107.95
33.093,91.27
33.109,70.69
33.125,49.46
33.140,31.79
33.156,21.73
33.171,21.56
33.187,30.67
33.203,45.58
33.218,61.13
33.234,72.28
33.250,75.63
33.265,70.18
33.281,57.26
33.296,39.76
33.312,20.81
33.328,2.76
33.343,-13.56
33.359,-28.52
33.375,-42.95
33.390,-56.94
33.406,-69.43
33.421,-78.49
33.437,-82.19
33.453,-79.56
33.468,-70.65
33.484,-56.49
33.500,-38.89
33.515,-21.27
33.531,-9.3
33.546,-10.54
33.562,-31.68
33.578,-74.6
33.593,-133.41
33.609,-195.15
33.625,-244.66
33.640,-271.23
33.656,-273.29
33.671,-258.32
33.687,-237.96
33.703,-221.4
33.718,-211.09
33.734,-202.82
33.750,-189.62
33.765,-166.63
33.781,-133.82
33.796,-95.28
33.812,-56.29
33.828,-20.38
33.843,11.87
33.859,41.97
33.875,71.4
33.890,100.16
33.906,126.37
33.921,147.26
33.937,160.84
33.953,166.99
33.968,167.66
33.984,165.93
34.000,164.75
34.015,165.75
34.031,168.91
34.046,172.97
34.062,176.42
34.078,178.23
34.093,178.27
34.109,176.92
34.125,174.55
34.140,171.07
34.156,165.82
34.171,158.13
34.187,147.91
34.203,136.11
34.218,124.65
34.234,115.95
34.250,112.22
34.265,114.54
34.281,122.23
34.296,132.44
34.312,140.4
34.328,140.77
34.343,129.7
34.359,107.12
34.375,77.67
34.390,49.59
34.406,31.36
34.421,28.0
34.437,38.7
34.453,57.23
34.468,75.04
34.484,85.1
34.500,84.51
34.515,74.53
34.531,58.56
34.546,39.68
34.562,19.24
34.578,-2.7
34.593,-25.85
34.609,-48.51
34.625,-67.52
34.640,-79.61
34.656,-83.08
34.671,-79.0
34.687,-70.84
34.703,-63.08
34.718,-59.52
34.734,-61.95
34.750,-70.08
34.765,-82.43
34.781,-97.97
34.796,-117.07
34.812,-141.38
34.828,-172.41
34.843,-209.27
34.859,-247.34
34.875,-278.78
34.890,-295.16
34.906,-290.74
34.921,-265.16
34.937,-223.94
34.953,-176.69
34.968,-133.71
34.984,-103.01
35.000,-88.46
35.015,-89.93
35.031,-104.37
35.046,-127.0
35.062,-151.8
35.078,-171.92
35.093,-180.76
35.109,-174.24
35.125,-153.37
35.140,-125.49
35.156,-102.64
35.171,-96.94
35.187,-114.62
35.203,-151.9
35.218,-195.22
35.234,-225.91
35.250,-227.65
35.265,-192.8
35.281,-124.92
35.296,-36.26
35.312,57.81
35.328,144.13
35.343,214.93
35.359,267.79
35.375,303.7
35.390,324.7
35.406,332.81
35.421,330.0
35.437,318.88
35.453,303.2
35.468,287.63
35.484,276.43
35.500,271.9
35.515,273.38
35.531,277.13
35.546,277.51
35.562,268.89
35.578,247.6
35.593,213.12
35.609,168.25
35.625,118.22
35.640,69.2
35.656,26.71
35.671,-5.77
35.687,-27.5
35.703,-40.38
35.718,-47.91
35.734,-53.71
35.750,-59.95
35.765,-66.59
35.781,-71.67
35.796,-72.6
35.812,-67.58
35.828,-56.46
35.843,-40.61
35.859,-21.93
35.875,-1.82
35.890,19.29
35.906,41.63
35.921,65.43
35.937,90.17
35.953,114.59
35.968,137.0
35.984,155.79
36.000,169.71
36.015,177.84
36.031,179.28
36.046,173.3
36.062,159.38
36.078,137.56
36.093,108.77
36.109,75.03
36.125,39.48
36.140,6.15
36.156,-20.81
36.171,-38.0
36.187,-43.65
36.203,-38.27
36.218,-24.7
36.234,-7.3
36.250,9.3
36.265,21.75
36.281,28.91
36.296,31.91
36.312,33.08
36.328,34.47
36.343,36.55
36.359,38.0
36.375,36.53
36.390,30.06
36.406,17.78
36.421,0.33
36.437,-20.79
36.453,-44.0
36.468,-68.11
36.484,-92.22
36.500,-115.23
36.515,-135.58
36.531,-151.59
36.546,-162.02
36.562,-166.48
36.578,-165.48
36.593,-160.09
36.609,-151.71
36.625,-142.07
36.640,-133.36
36.656,-128.07
36.671,-128.46
36.687,-135.55
36.703,-148.52
36.718,-164.95
36.734,-181.88
36.750,-197.08
36.765,-209.92
36.781,-221.14
36.796,-231.65
36.812,-241.57
36.828,-249.79
36.843,-254.5
36.859,-253.97
36.875,-247.1
36.890,-233.43
36.906,-212.83
36.921,-185.39
36.937,-151.66
36.953,-113.18
36.968,-72.64
36.984,-33.49
37.000,0.93
37.015,28.29
37.031,47.84
37.046,60.28
37.062,67.21
37.078,70.38
37.093,70.98
37.109,69.33
37.125,65.06
37.140,57.55
37.156,46.64
37.171,33.33
37.187,19.82
37.203,8.94
37.218,3.04
37.234,2.87
37.250,7.32
37.265,13.91
37.281,19.98
37.296,23.74
37.312,24.84
37.328,24.04
37.343,22.42
37.359,20.78
37.375,19.32
37.390,17.98
37.406,16.78
37.421,16.12
37.437,16.82
37.453,19.67
37.468,24.86
37.484,31.75
37.500,38.97
37.515,44.96
37.531,48.53
37.546,49.26
37.562,47.46
37.578,43.82
37.593,39.05
37.609,33.56
37.625,27.51
37.640,21.0
37.656,14.14
37.671,7.18
37.687,0.31
37.703,-6.42
37.718,-13.34
37.734,-21.05
37.750,-30.26
37.765,-41.3
37.781,-53.9
37.796,-66.88
37.812,-78.53
37.828,-87.24
37.843,-92.23
37.859,-93.84
37.875,-93.28
37.890,-91.89
37.906,-90.5
37.921,-89.15
37.937,-87.36
37.953,-84.47
37.968,-79.9
37.984,-73.0
38.000,-63.02
38.015,-49.33
38.031,-31.99
38.046,-12.31
38.062,7.28
38.078,24.07
38.093,36.32
38.109,43.93
38.125,48.24
38.140,50.98
38.156,53.33
38.171,55.68
38.187,58.29
38.203,62.02
38.218,68.31
38.234,78.28
38.250,91.5
38.265,105.65
38.281,117.33
38.296,123.74
38.312,124.28
38.328,120.64
38.343,115.71
38.359,111.95
38.375,110.14
38.390,109.44
38.406,108.45
38.421,106.22
38.437,102.72
38.453,98.39
38.468,93.53
38.484,87.85
38.500,80.71
38.515,71.58
38.531,60.58
38.546,48.49
38.562,36.47
38.578,25.47
38.593,16.04
38.609,8.34
38.625,2.51
38.640,-1.15
38.656,-2.35
38.671,-1.08
38.687,2.01
38.703,5.69
38.718,8.58
38.734,9.75
38.750,9.15
38.765,7.72
38.781,7.09
38.796,9.01
38.812,14.74
38.828,24.55
38.843,37.81
38.859,53.26
38.875,69.71
38.890,86.42
38.906,103.23
38.921,120.27
38.937,137.54
38.953,154.39
38.968,169.54
38.984,181.26
39.000,187.87
39.015,188.34
39.031,182.53
39.046,171.07
39.062,155.03
39.078,135.48
39.093,113.16
39.109,88.45
39.125,61.55
39.140,32.64
39.156,1.97
39.171,-30.28
39.187,-64.05
39.203,-99.19
39.218,-135.02
39.234,-169.82
39.250,-200.96
39.265,-225.6
39.281,-241.93
39.296,-250.26
39.312,-252.93
39.328,-252.9
39.343,-251.85
39.359,-248.9
39.375,-241.34
39.390,-226.72
39.406,-205.11
39.421,-179.77
39.437,-155.64
39.453,-136.63
39.468,-123.35
39.484,-112.88
39.500,-100.74
39.515,-83.61
39.531,-61.24
39.546,-36.49
39.562,-13.57
39.578,4.11
39.593,15.19
39.609,20.24
39.625,20.75
39.640,18.07
39.656,12.89
39.671,5.49
39.687,-3.81
39.703,-14.29
39.718,-24.77
39.734,-33.73
39.750,-39.8
39.765,-42.02
39.781,-40.09
39.796,-34.46
39.812,-26.09
39.828,-16.07
39.843,-5.31
39.859,5.74
39.875,16.95
39.890,28.26
39.906,39.42
39.921,50.06
39.937,59.82
39.953,68.7
39.968,77.15
39.984,85.76
40.000,94.88
40.015,104.32
40.031,113.4
40.046,121.14
40.062,126.72
40.078,129.67
40.093,129.78
40.109,126.95
40.125,121.23
40.140,113.19
40.156,104.22
40.171,96.47
40.187,92.16
40.203,92.55
40.218,97.17
40.234,103.92
40.250,109.96
40.265,112.85
40.281,111.47
40.296,106.21
40.312,98.42
40.328,89.63
40.343,80.9
40.359,72.66
40.375,64.81
40.390,57.21
40.406,49.87
40.421,43.16
40.437,37.41
40.453,32.45
40.468,27.01
40.484,18.67
40.500,4.33
40.515,-18.6
40.531,-51.11
40.546,-92.08
40.562,-138.43
40.578,-185.9
40.593,-229.99
40.609,-266.52
40.625,-292.02
40.640,-303.76
40.656,-300.37
40.671,-282.29
40.687,-252.18
40.703,-214.64
40.718,-175.31
40.734,-139.59
40.750,-111.59
40.765,-93.3
40.781,-84.37
40.796,-82.47
40.812,-83.99
40.828,-84.82
40.843,-81.37
40.859,-71.35
40.875,-54.24
40.890,-31.19
40.906,-4.62
40.921,22.81
40.937,48.44
40.953,69.99
40.968,85.82
40.984,95.09
41.000,97.77
41.015,94.5
41.031,86.23
41.046,73.94
41.062,59.27
41.078,43.62
41.093,28.14
41.109,13.78
41.125,1.68
41.140,-6.75
41.156,-10.2
41.171,-8.04
41.187,-0.91
41.203,11.1
41.218,26.8
41.234,44.04
41.250,60.21
41.265,73.17
41.281,82.15
41.296,87.82
41.312,91.68
41.328,95.42
41.343,103.27
41.359,118.37
41.375,141.61
41.390,170.86
41.406,201.9
41.421,230.4
41.437,253.55
41.453,270.79
41.468,283.78
41.484,298.99
41.500,321.93
41.515,354.33
41.531,392.87
41.546,430.61
41.562,460.49
41.578,477.92
41.593,481.7
41.609,451.49
41.625,377.9
41.640,265.5
41.656,133.28
41.671,4.77
41.687,-103.78
41.703,-186.6
41.718,-245.2
41.734,-283.9
41.750,-307.17
41.765,-315.64
41.781,-310.1
41.796,-292.9
41.812,-268.41
41.828,-242.36
41.843,-218.72
41.859,-198.86
41.875,-182.21
41.890,-167.65
41.906,-151.76
41.921,-132.51
41.937,-110.34
41.953,-88.08
41.968,-70.71
41.984,-61.8
42.000,-62.42
42.015,-71.31
42.031,-85.86
42.046,-102.4
42.062,-118.03
42.078,-131.47
42.093,-143.16
42.109,-156.21
42.125,-173.16
42.140,-195.42
42.156,-223.75
42.171,-252.42
42.187,-277.12
42.203,-294.71
42.218,-303.51
42.234,-292.97
42.250,-258.75
42.265,-202.74
42.281,-133.02
42.296,-60.42
42.312,6.68
42.328,63.86
42.343,110.69
42.359,148.81
42.375,180.15
42.390,204.05
42.406,220.84
42.421,230.34
42.437,231.3
42.453,223.77
42.468,208.93
42.484,189.6
42.500,168.86
42.515,148.52
42.531,126.92
42.546,102.95
42.562,74.99
42.578,39.56
42.593,-4.68
42.609,-56.06
42.625,-109.52
42.640,-159.03
42.656,-199.83
42.671,-230.58
42.687,-252.03
42.703,-266.51
42.718,-280.28
42.734,-298.75
42.750,-324.94
42.765,-358.88
42.781,-398.69
42.796,-441.43
42.812,-483.02
42.828,-517.27
42.843,-515.24
42.859,-460.22
42.875,-356.54
42.890,-229.27
42.906,-108.43
42.921,-13.66
42.937,49.68
42.953,86.16
42.968,104.55
42.984,112.38
43.000,110.22
43.015,96.81
43.031,72.83
43.046,42.74
43.062,13.05
43.078,-10.82
43.093,-26.36
43.109,-34.1
43.125,-35.64
43.140,-36.04
43.156,-39.01
43.171,-44.94
43.187,-50.98
43.203,-53.28
43.218,-49.48
43.234,-39.77
43.250,-25.63
43.265,-9.5
43.281,4.52
43.296,13.8
43.312,18.45
43.328,21.17
43.343,25.71
43.359,35.46
43.375,48.09
43.390,62.04
43.406,75.92
43.421,88.03
43.437,97.78
43.453,105.9
43.468,113.99
43.484,123.4
43.500,134.44
43.515,146.34
43.531,158.5
43.546,170.41
43.562,181.6
43.578,192.21
43.593,202.68
43.609,213.59
43.625,225.31
43.640,237.98
43.656,251.4
43.671,265.33
43.687,278.58
43.703,288.9
43.718,293.55
43.734,290.26
43.750,278.32
43.765,258.83
43.781,234.25
43.796,207.08
43.812,179.24
43.828,151.37
43.843,123.4
43.859,95.68
43.875,69.57
43.890,47.07
43.906,29.67
43.921,16.93
43.937,6.14
43.953,-6.74
43.968,-25.38
43.984,-51.06
44.000,-81.76
44.015,-112.52
44.031,-137.25
44.046,-150.98
44.062,-151.64
44.078,-140.53
44.093,-121.51
44.109,-99.34
44.125,-78.01
44.140,-59.83
44.156,-45.39
44.171,-34.24
44.187,-25.71
44.203,-19.38
44.218,-15.24
44.234,-13.39
44.250,-13.92
44.265,-16.72
44.281,-21.56
44.296,-28.21
44.312,-36.47
44.328,-46.1
44.343,-56.71
44.359,-67.65
44.375,-78.09
44.390,-87.17
44.406,-94.11
44.421,-98.33
44.437,-99.51
44.453,-97.58
44.468,-92.84
44.484,-86.02
44.500,-78.27
44.515,-71.03
44.531,-65.71
44.546,-63.17
44.562,-63.61
44.578,-66.41
44.593,-70.52
44.609,-74.78
44.625,-78.48
44.640,-81.38
44.656,-83.68
44.671,-85.55
44.687,-86.73
44.703,-86.51
44.718,-84.06
44.734,-79.07
44.750,-72.18
44.765,-65.01
44.781,-59.45
44.796,-56.71
44.812,-56.64
44.828,-57.51
44.843,-56.87
44.859,-52.66
44.875,-44.23
44.890,-32.77
44.906,-20.87
44.921,-11.61
44.937,-7.62
44.953,-10.41
44.968,-20.11
44.984,-35.28
45.000,-52.95
45.015,-68.71
45.031,-77.31
45.046,-73.66
45.062,-54.3
45.078,-18.78
45.093,29.69
45.109,84.59
45.125,137.75
45.140,181.4
45.156,210.32
45.171,222.73
45.187,220.27
45.203,206.79
45.218,186.85
45.234,164.46
45.250,142.45
45.265,122.43
45.281,105.21
45.296,91.11
45.312,80.13
45.328,71.92
45.343,65.73
45.359,60.54
45.375,55.35
45.390,49.63
45.406,43.39
45.421,37.18
45.437,31.72
45.453,27.39
45.468,23.94
45.484,20.41
45.500,15.53
45.515,8.21
45.531,-1.84
45.546,-14.0
45.562,-26.8
45.578,-38.52
45.593,-47.75
45.609,-53.83
45.625,-56.92
45.640,-57.71
45.656,-56.88
45.671,-54.7
45.687,-50.91
45.703,-44.86
45.718,-35.93
45.734,-23.84
45.750,-8.87
45.765,8.12
45.781,25.82
45.796,42.64
45.812,56.98
45.828,67.52
45.843,73.55
45.859,75.22
45.875,73.52
45.890,69.91
45.906,65.95
45.921,62.8
45.937,60.99
45.953,60.54
45.968,61.17
45.984,62.58
46.000,64.57
46.015,67.02
46.031,69.85
46.046,72.96
46.062,76.21
46.078,79.28
46.093,81.66
46.109,82.65
46.125,81.51
46.140,77.69
46.156,71.14
46.171,62.32
46.187,52.05
46.203,41.07
46.218,29.78
46.234,18.07
46.250,5.44
46.265,-8.6
46.281,-24.2
46.296,-40.99
46.312,-58.07
46.328,-74.25
46.343,-88.19
46.359,-98.54
46.375,-104.07
46.390,-103.83
46.406,-97.55
46.421,-85.93
46.437,-70.75
46.453,-54.49
46.468,-39.71
46.484,-28.25
46.500,-20.67
46.515,-16.13
46.531,-12.98
46.546,-9.58
46.562,-5.04
46.578,0.49
46.593,6.07
46.609,10.54
46.625,13.11
46.640,13.63
46.656,12.38
46.671,9.79
46.687,6.0
46.703,0.81
46.718,-5.96
46.734,-14.0
46.750,-22.28
46.765,-29.35
46.781,-33.8
46.796,-34.95
46.812,-33.16
46.828,-29.64
46.843,-25.87
46.859,-22.56
46.875,-18.8
46.890,-12.46
46.906,-1.09
46.921,16.77
46.937,40.55
46.953,67.26
46.968,92.13
46.984,109.93
47.000,116.99
47.015,112.97
47.031,100.03
47.046,81.57
47.062,60.76
47.078,39.71
47.093,19.45
47.109,0.62
47.125,-16.04
47.140,-28.73
47.156,-33.95
47.171,-28.86
47.187,-12.49
47.203,13.45
47.218,44.95
47.234,76.63
47.250,103.22
47.265,120.51
47.281,127.36
47.296,126.86
47.312,123.7
47.328,122.18
47.343,124.42
47.359,130.05
47.375,137.19
47.390,143.95
47.406,149.28
47.421,144.99
47.437,127.77
47.453,98.63
47.468,62.2
47.484,23.49
47.500,-14.51
47.515,-50.56
47.531,-80.56
47.546,-105.2
47.562,-124.68
47.578,-137.96
47.593,-145.47
47.609,-149.32
47.625,-152.55
47.640,-157.37
47.656,-163.58
47.671,-168.89
47.687,-170.49
47.703,-165.39
47.718,-151.06
47.734,-127.52
47.750,-97.14
47.765,-63.94
47.781,-32.48
47.796,-6.54
47.812,11.25
47.828,19.36
47.843,18.2
47.859,10.24
47.875,-1.37
47.890,-13.39
47.906,-23.46
47.921,-30.57
47.937,-34.66
47.953,-36.34
47.968,-36.61
47.984,-36.02
48.000,-34.45
48.015,-31.77
48.031,-27.8
48.046,-22.86
48.062,-18.01
48.078,-14.4
48.093,-13.09
48.109,-14.66
48.125,-18.73
48.140,-24.0
48.156,-28.93
48.171,-32.2
48.187,-34.03
48.203,-36.44
48.218,-42.3
48.234,-54.3
48.250,-73.82
48.265,-100.36
48.281,-132.0
48.296,-166.31
48.312,-200.75
48.328,-228.22
48.343,-241.21
48.359,-233.71
48.375,-204.44
48.390,-157.99
48.406,-103.12
48.421,-49.68
48.437,-7.74
48.453,21.56
48.468,40.92
48.484,55.04
48.500,69.03
48.515,86.75
48.531,109.93
48.546,137.58
48.562,167.31
48.578,196.48
48.593,223.2
48.609,241.82
48.625,246.72
48.640,234.12
48.656,204.03
48.671,160.67
48.687,111.17
48.703,63.08
48.718,22.97
48.734,-7.88
48.750,-30.51
48.765,-46.73
48.781,-58.51
48.796,-67.63
48.812,-75.64
48.828,-82.56
48.843,-88.72
48.859,-94.28
48.875,-98.86
48.890,-101.31
48.906,-99.78
48.921,-92.71
48.937,-79.9
48.953,-63.05
48.968,-45.56
48.984,-31.5
49.000,-24.05
49.015,-24.28
49.031,-30.7
49.046,-39.8
49.062,-47.37
49.078,-49.7
49.093,-44.52
49.109,-31.43
49.125,-12.0
49.140,10.67
49.156,32.69
49.171,50.39
49.187,61.36
49.203,65.12
49.218,63.4
49.234,59.39
49.250,56.64
49.265,57.67
49.281,63.29
49.296,72.6
49.312,83.71
49.328,94.61
49.343,103.86
49.359,110.71
49.375,114.84
49.390,115.96
49.406,113.6
49.421,107.4
49.437,97.37
49.453,84.11
49.468,68.57
49.484,51.72
49.500,34.32
49.515,17.22
49.531,1.97
49.546,-9.0
49.562,-13.05
49.578,-8.68
49.593,2.93
49.609,17.53
49.625,28.88
49.640,31.04
49.656,20.49
49.671,-2.99
49.687,-36.8
49.703,-76.78
49.718,-118.14
49.734,-155.75
49.750,-183.99
49.765,-197.28
49.781,-191.61
49.796,-166.69
49.812,-127.36
49.828,-82.94
49.843,-44.19
49.859,-19.42
49.875,-11.72
49.890,-18.5
49.906,-33.65
49.921,-50.54
49.937,-64.3
49.953,-72.7
49.968,-75.4
49.984,-72.74
50.000,-64.97
50.015,-52.42
50.031,-36.29
50.046,-18.88
50.062,-3.02
50.078,9.32
50.093,18.05
50.109,25.08
50.125,33.18
50.140,44.58
50.156,59.46
50.171,75.35
50.187,87.89
50.203,92.42
50.218,85.67
50.234,66.82
50.250,37.35
50.265,0.43
50.281,-38.85
50.296,-73.7
50.312,-97.43
50.328,-106.16
50.343,-100.26
50.359,-83.68
50.375,-61.46
50.390,-37.93
50.406,-16.14
50.421,2.26
50.437,16.9
50.453,28.35
50.468,37.99
50.484,47.71
50.500,59.02
50.515,72.58
50.531,87.53
50.546,101.72
50.562,112.75
50.578,119.14
50.593,120.61
50.609,117.64
50.625,111.97
50.640,103.47
50.656,92.14
50.671,78.45
50.687,63.47
50.703,48.94
50.718,36.88
50.734,28.54
50.750,23.55
50.765,20.14
50.781,15.82
50.796,8.85
50.812,-1.0
50.828,-12.69
50.843,-24.15
50.859,-33.05
50.875,-37.94
50.890,-39.07
50.906,-38.15
50.921,-37.67
50.937,-39.67
50.953,-45.46
50.968,-54.03
50.984,-64.36
51.000,-75.08
51.015,-84.99
51.031,-93.34
51.046,-99.67
51.062,-103.51
51.078,-104.12
51.093,-100.98
51.109,-94.9
51.125,-87.64
51.140,-80.91
51.156,-75.76
51.171,-71.93
51.187,-67.28
51.203,-58.37
51.218,-41.72
51.234,-12.79
51.250,26.42
51.265,67.87
51.281,101.77
51.296,121.63
51.312,126.17
51.328,118.02
51.343,101.19
51.359,79.23
51.375,55.37
51.390,31.96
51.406,12.25
51.421,0.19
51.437,-1.94
51.453,3.3
51.468,9.53
51.484,8.42
51.500,-6.95
51.515,-37.42
51.531,-77.1
51.546,-113.72
51.562,-132.73
51.578,-123.17
51.593,-82.34
51.609,-16.6
51.625,62.12
51.640,140.79
51.656,210.83
51.671,262.75
51.687,288.46
51.703,284.56
51.718,253.5
51.734,202.31
51.750,139.82
51.765,76.67
51.781,15.11
51.796,-44.41
51.812,-102.7
51.828,-160.46
51.843,-217.78
51.859,-271.06
51.875,-311.46
51.890,-330.59
51.906,-323.43
51.921,-291.78
51.937,-242.7
51.953,-186.23
51.968,-130.8
51.984,-80.84
52.000,-37.96
52.015,-3.32
52.031,20.75
52.046,33.04
52.062,32.9
52.078,23.06
52.093,9.1
52.109,-1.79
52.125,-2.72
52.140,10.02
52.156,35.6
52.171,69.56
52.187,105.35
52.203,136.91
52.218,161.5
52.234,179.59
52.250,189.36
52.265,190.03
52.281,181.21
52.296,163.17
52.312,137.01
52.328,104.91
52.343,69.76
52.359,34.88
52.375,3.04
52.390,-24.42
52.406,-47.16
52.421,-65.74
52.437,-81.39
52.453,-95.16
52.468,-107.23
52.484,-117.02
52.500,-123.59
52.515,-126.17
52.531,-124.81
52.546,-119.92
52.562,-112.4
52.578,-103.27
52.593,-93.34
52.609,-83.02
52.625,-72.37
52.640,-61.84
52.656,-52.05
52.671,-43.83
52.687,-37.57
52.703,-33.18
52.718,-30.02
52.734,-27.08
52.750,-23.46
52.765,-18.8
52.781,-13.33
52.796,-7.6
52.812,-2.11
52.828,3.21
52.843,8.86
52.859,15.42
52.875,22.98
52.890,30.84
52.906,37.53
52.921,41.34
52.937,40.98
52.953,36.15
52.968,27.59
52.984,16.71
53.000,5.03
53.015,-6.32
53.031,-16.85
53.046,-26.7
53.062,-36.32
53.078,-46.01
53.093,-55.63
53.109,-64.48
53.125,-71.36
53.140,-74.84
53.156,-73.63
53.171,-67.08
53.187,-55.48
53.203,-39.99
53.218,-22.48
53.234,-5.01
53.250,10.58
53.265,22.97
53.281,31.61
53.296,36.67
53.312,38.94
53.328,39.61
53.343,40.0
53.359,41.16
53.375,43.57
53.390,47.17
53.406,51.44
53.421,55.78
53.437,59.77
53.453,63.25
53.468,66.16
53.484,68.32
53.500,69.35
53.515,68.82
53.531,66.52
53.546,62.7
53.562,57.97
53.578,53.02
53.593,48.28
53.609,43.98
53.625,40.36
53.640,38.14
53.656,38.61
53.671,43.26
53.687,52.86
53.703,66.73
53.718,82.44
53.734,96.24
53.750,104.34
53.765,104.21
53.781,95.26
53.796,78.61
53.812,56.1
53.828,29.44
53.843,0.12
53.859,-29.95
53.875,-57.63
53.890,-78.68
53.906,-89.18
53.921,-87.64
53.937,-76.33
53.953,-60.56
53.968,-45.93
53.984,-35.0
54.000,-25.49
54.015,-11.6
54.031,12.32
54.046,47.63
54.062,89.8
54.078,130.28
54.093,160.7
54.109,176.82
54.125,179.57
54.140,173.05
54.156,161.14
54.171,145.32
54.187,124.8
54.203,98.71
54.218,68.49
54.234,38.5
54.250,14.52
54.265,1.18
54.281,-0.12
54.296,8.41
54.312,22.01
54.328,35.43
54.343,44.47
54.359,46.97
54.375,43.05
54.390,34.83
54.406,25.75
54.421,19.44
54.437,18.31
54.453,22.32
54.468,28.86
54.484,33.74
54.500,32.98
54.515,24.45
54.531,8.72
54.546,-11.43
54.562,-32.29
54.578,-50.64
54.593,-64.6
54.609,-73.71
54.625,-78.34
54.640,-79.1
54.656,-76.66
54.671,-71.77
54.687,-65.41
54.703,-58.8
54.718,-52.94
54.734,-48.21
54.750,-44.14
54.765,-39.71
54.781,-33.9
54.796,-26.21
54.812,-16.94
54.828,-6.98
54.843,2.43
54.859,10.02
54.875,14.57
54.890,14.97
54.906,10.37
54.921,0.58
54.937,-13.5
54.953,-29.85
54.968,-45.61
54.984,-57.95
55.000,-65.01
55.015,-66.54
55.031,-63.87
55.046,-59.47
55.062,-55.99
55.078,-55.43
55.093,-58.58
55.109,-64.84
55.125,-72.5
55.140,-79.02
55.156,-81.63
55.171,-77.88
55.187,-66.38
55.203,-47.39
55.218,-23.12
55.234,2.67
55.250,25.7
55.265,42.44
55.281,51.07
55.296,51.86
55.312,46.65
55.328,37.92
55.343,27.86
55.359,17.96
55.375,9.09
55.390,1.86
55.406,-3.18
55.421,-5.57
55.437,-5.18
55.453,-2.45
55.468,1.69
55.484,6.06
55.500,9.71
55.515,12.19
55.531,13.73
55.546,15.03
55.562,16.97
55.578,20.17
55.593,24.79
55.609,30.34
55.625,35.98
55.640,40.82
55.656,44.27
55.671,46.28
55.687,47.24
55.703,47.73
55.718,48.2
55.734,48.79
55.750,49.45
55.765,50.11
55.781,51.03
55.796,52.83
55.812,56.33
55.828,62.0
55.843,69.63
55.859,78.11
55.875,85.69
55.890,90.65
55.906,91.82
55.921,89.09
55.937,83.28
55.953,75.9
55.968,68.54
55.984,62.46
56.000,58.24
56.015,55.71
56.031,54.05
56.046,52.04
56.062,48.4
56.078,42.19
56.093,33.04
56.109,21.29
56.125,7.92
56.140,-5.71
56.156,-18.29
56.171,-29.07
56.187,-38.31
56.203,-47.38
56.218,-58.45
56.234,-73.47
56.250,-93.0
56.265,-115.34
56.281,-136.69
56.296,-152.24
56.312,-158.0
56.328,-152.29
56.343,-136.16
56.359,-112.77
56.375,-85.99
56.390,-59.16
56.406,-34.62
56.421,-13.83
56.437,2.09
56.453,12.17
56.468,15.82
56.484,13.4
56.500,6.44
56.515,-2.52
56.531,-10.67
56.546,-15.95
56.562,-17.6
56.578,-16.19
56.593,-13.14
56.609,-10.06
56.625,-8.11
56.640,-7.62
56.656,-8.19
56.671,-8.88
56.687,-8.64
56.703,-6.83
56.718,-3.78
56.734,-1.1
56.750,-1.53
56.765,-8.14
56.781,-23.04
56.796,-46.4
56.812,-76.08
56.828,-108.28
56.843,-138.74
56.859,-163.97
56.875,-181.92
56.890,-191.97
56.906,-194.64
56.921,-191.05
56.937,-182.69
56.953,-171.2
56.968,-157.88
56.984,-143.29
57.000,-126.82
57.015,-106.88
57.031,-81.66
57.046,-50.22
57.062,-13.25
57.078,26.81
57.093,66.43
57.109,101.78
57.125,129.35
57.140,146.32
57.156,150.68
57.171,141.57
57.187,119.73
57.203,87.84
57.218,50.47
57.234,13.15
57.250,-18.71
57.265,-41.33
57.281,-53.25
57.296,-55.27
57.312,-49.73
57.328,-39.39
57.343,-26.44
57.359,-12.06
57.375,3.54
57.390,20.68
57.406,39.6
57.421,59.82
57.437,79.81
57.453,97.1
57.468,108.75
57.484,112.26
57.500,106.56
57.515,92.6
57.531,73.2
57.546,52.15
57.562,32.93
57.578,17.56
57.593,6.19
57.609,-2.53
57.625,-10.6
57.640,-19.56
57.656,-29.92
57.671,-41.02
57.687,-51.47
57.703,-59.62
57.718,-63.91
57.734,-63.08
57.750,-56.24
57.765,-43.23
57.781,-24.96
57.796,-3.54
57.812,17.93
57.828,36.23
57.843,49.11
57.859,56.13
57.875,58.85
57.890,60.21
57.906,63.31
57.921,70.24
57.937,81.3
57.953,95.04
57.968,109.07
57.984,121.17
58.000,130.27
58.015,136.76
58.031,142.17
58.046,148.27
58.062,155.96
58.078,164.37
58.093,170.63
58.109,170.92
58.125,161.99
58.140,142.83
58.156,115.56
58.171,84.95
58.187,56.84
58.203,36.01
58.218,24.44
58.234,20.4
58.250,19.9
58.265,18.66
58.281,13.98
58.296,5.64
58.312,-4.65
58.328,-14.31
58.343,-21.0
58.359,-23.56
58.375,-23.09
58.390,-22.13
58.406,-24.2
58.421,-32.87
58.437,-50.1
58.453,-74.87
58.468,-102.52
58.484,-125.7
58.500,-137.15
58.515,-134.44
58.531,-120.64
58.546,-103.59
58.562,-92.76
58.578,-95.36
58.593,-113.96
58.609,-146.11
58.625,-185.75
58.640,-225.41
58.656,-259.99
58.671,-286.19
58.687,-302.61
58.703,-309.68
58.718,-309.51
58.734,-306.08
58.750,-304.38
58.765,-308.67
58.781,-309.33
58.796,-297.1
58.812,-265.29
58.828,-214.27
58.843,-151.73
58.859,-87.78
58.875,-29.7
58.890,20.28
58.906,63.91
58.921,104.26
58.937,141.45
58.953,173.2
58.968,196.13
58.984,207.92
59.000,208.98
59.015,202.35
59.031,192.58
59.046,184.02
59.062,179.12
59.078,177.52
59.093,175.57
59.109,170.18
59.125,160.71
59.140,149.1
59.156,137.94
59.171,128.54
59.187,120.05
59.203,110.18
59.218,96.34
59.234,78.31
59.250,59.3
59.265,44.62
59.281,39.77
59.296,45.82
59.312,58.71
59.328,71.86
59.343,79.8
59.359,80.13
59.375,73.8
59.390,63.38
59.406,50.75
59.421,36.27
59.437,19.47
59.453,1.01
59.468,-16.27
59.484,-28.41
59.500,-32.63
59.515,-29.6
59.531,-23.85
59.546,-22.16
59.562,-30.52
59.578,-51.13
59.593,-81.49
59.609,-114.47
59.625,-141.7
59.640,-156.72
59.656,-157.03
59.671,-144.43
59.687,-123.46
59.703,-99.12
59.718,-75.07
59.734,-52.6
59.750,-31.03
59.765,-9.24
59.781,12.67
59.796,32.68
59.812,47.46
59.828,53.9
59.843,50.74
59.859,39.57
59.875,24.46
59.890,10.21
59.906,0.44
59.921,-3.8
59.937,-3.94
59.953,-2.54
59.968,-1.66
59.984,-1.81
