timestamp,value
00.000,-26.81
00.015,-21.03
00.031,-14.45
00.046,-7.81
00.062,-1.73
00.078,3.44
00.093,7.61
00.109,10.8
00.125,13.17
00.140,14.85
00.156,15.99
00.171,16.71
00.187,17.11
00.203,17.2
00.218,16.99
00.234,16.51
00.250,15.86
00.265,15.16
00.281,14.58
00.296,14.19
00.312,13.91
00.328,13.63
00.343,13.17
00.359,12.46
00.375,11.52
00.390,10.45
00.406,9.34
00.421,8.25
00.437,7.17
00.453,6.02
00.468,4.75
00.484,3.31
00.500,1.71
00.515,-0.04
00.531,-1.95
00.546,-3.99
00.562,-6.12
00.578,-8.28
00.593,-10.4
00.609,-12.41
00.625,-14.32
00.640,-16.23
00.656,-18.25
00.671,-20.51
00.687,-23.04
00.703,-25.75
00.718,-28.38
00.734,-30.5
00.750,-31.6
00.765,-31.21
00.781,-29.02
00.796,-24.99
00.812,-19.43
00.828,-12.91
00.843,-6.22
00.859,-0.05
00.875,5.08
00.890,9.02
00.906,11.86
00.921,13.9
00.937,15.44
00.953,16.69
00.968,17.73
00.984,18.57
01.000,19.14
01.015,19.4
01.031,19.32
01.046,18.92
01.062,18.23
01.078,17.32
01.093,16.28
01.109,15.19
01.125,14.11
01.140,13.07
01.156,12.06
01.171,11.07
01.187,10.07
01.203,9.05
01.218,7.99
01.234,6.81
01.250,5.46
01.265,3.9
01.281,2.16
01.296,0.27
01.312,-1.68
01.328,-3.64
01.343,-5.58
01.359,-7.53
01.375,-9.53
01.390,-11.59
01.406,-13.68
01.421,-15.69
01.437,-17.5
01.453,-19.08
01.468,-20.5
01.484,-22.0
01.500,-23.89
01.515,-26.43
01.531,-29.64
01.546,-33.18
01.562,-36.37
01.578,-38.32
01.593,-38.26
01.609,-35.77
01.625,-30.94
01.640,-24.37
01.656,-16.95
01.671,-9.6
01.687,-3.02
01.703,2.42
01.718,6.61
01.734,9.73
01.750,12.0
01.765,13.71
01.781,15.06
01.796,16.24
01.812,17.39
01.828,18.53
01.843,19.62
01.859,20.56
01.875,21.17
01.890,21.34
01.906,21.02
01.921,20.3
01.937,19.34
01.953,18.35
01.968,17.47
01.984,16.76
02.000,16.15
02.015,15.51
02.031,14.69
02.046,13.64
02.062,12.35
02.078,10.9
02.093,9.38
02.109,7.81
02.125,6.22
02.140,4.57
02.156,2.79
02.171,0.8
02.187,-1.48
02.203,-4.07
02.218,-6.93
02.234,-9.91
02.250,-12.77
02.265,-15.28
02.281,-17.33
02.296,-19.03
02.312,-20.7
02.328,-22.79
02.343,-25.65
02.359,-29.36
02.375,-33.61
02.390,-37.72
02.406,-40.81
02.421,-42.03
02.437,-40.8
02.453,-37.01
02.468,-31.03
02.484,-23.62
02.500,-15.7
02.515,-8.1
02.531,-1.36
02.546,4.29
02.562,8.84
02.578,12.45
02.593,15.25
02.609,17.44
02.625,19.18
02.640,20.62
02.656,21.92
02.671,23.08
02.687,24.02
02.703,24.58
02.718,24.62
02.734,24.14
02.750,23.27
02.765,22.23
02.781,21.26
02.796,20.49
02.812,19.93
02.828,19.52
02.843,19.12
02.859,18.56
02.875,17.69
02.890,16.41
02.906,14.68
02.921,12.61
02.937,10.41
02.953,8.32
02.968,6.5
02.984,4.95
03.000,3.49
03.015,1.87
03.031,-0.14
03.046,-2.56
03.062,-5.25
03.078,-7.95
03.093,-10.46
03.109,-12.7
03.125,-14.78
03.140,-16.94
03.156,-19.43
03.171,-22.38
03.187,-25.78
03.203,-29.34
03.218,-32.57
03.234,-34.74
03.250,-35.09
03.265,-32.99
03.281,-28.25
03.296,-21.22
03.312,-12.77
03.328,-4.04
03.343,3.95
03.359,10.54
03.375,15.55
03.390,19.19
03.406,21.78
03.421,23.58
03.437,24.68
03.453,25.08
03.468,24.74
03.484,23.79
03.500,22.46
03.515,21.02
03.531,19.72
03.546,18.7
03.562,17.99
03.578,17.54
03.593,17.27
03.609,17.08
03.625,16.89
03.640,16.59
03.656,16.07
03.671,15.23
03.687,14.0
03.703,12.43
03.718,10.64
03.734,8.8
03.750,7.03
03.765,5.38
03.781,3.8
03.796,2.15
03.812,0.27
03.828,-1.97
03.843,-4.63
03.859,-7.67
03.875,-10.94
03.890,-14.25
03.906,-17.4
03.921,-20.27
03.937,-22.9
03.953,-25.49
03.968,-28.32
03.984,-31.59
04.000,-35.21
04.015,-38.7
04.031,-41.18
04.046,-41.64
04.062,-39.33
04.078,-34.06
04.093,-26.34
04.109,-17.18
04.125,-7.81
04.140,0.8
04.156,8.1
04.171,13.97
04.187,18.57
04.203,22.12
04.218,24.74
04.234,26.57
04.250,27.71
04.265,28.41
04.281,28.87
04.296,29.26
04.312,29.55
04.328,29.53
04.343,29.02
04.359,27.91
04.375,26.33
04.390,24.58
04.406,23.0
04.421,21.8
04.437,21.04
04.453,20.58
04.468,20.15
04.484,19.47
04.500,18.32
04.515,16.57
04.531,14.27
04.546,11.57
04.562,8.75
04.578,6.02
04.593,3.57
04.609,1.37
04.625,-0.72
04.640,-2.96
04.656,-5.57
04.671,-8.62
04.687,-11.99
04.703,-15.44
04.718,-18.67
04.734,-21.47
04.750,-23.79
04.765,-25.79
04.781,-27.77
04.796,-30.08
04.812,-32.91
04.828,-36.18
04.843,-39.43
04.859,-41.89
04.875,-42.65
04.890,-40.94
04.906,-36.42
04.921,-29.28
04.937,-20.27
04.953,-10.45
04.968,-0.93
04.984,7.43
05.000,14.16
05.015,19.2
05.031,22.75
05.046,25.14
05.062,26.75
05.078,27.86
05.093,28.74
05.109,29.56
05.125,30.37
05.140,31.12
05.156,31.68
05.171,31.85
05.187,31.47
05.203,30.55
05.218,29.23
05.234,27.76
05.250,26.4
05.265,25.3
05.281,24.47
05.296,23.77
05.312,22.99
05.328,21.94
05.343,20.5
05.359,18.64
05.375,16.42
05.390,13.97
05.406,11.47
05.421,9.06
05.437,6.82
05.453,4.73
05.468,2.59
05.484,0.19
05.500,-2.65
05.515,-5.88
05.531,-9.29
05.546,-12.5
05.562,-15.16
05.578,-17.11
05.593,-18.44
05.609,-19.49
05.625,-20.72
05.640,-22.49
05.656,-25.01
05.671,-28.26
05.687,-31.96
05.703,-35.66
05.718,-38.74
05.734,-40.52
05.750,-40.34
05.765,-37.79
05.781,-32.82
05.796,-25.88
05.812,-17.84
05.828,-9.72
05.843,-2.43
05.859,3.5
05.875,8.03
05.890,11.43
05.906,14.13
05.921,16.41
05.937,18.33
05.953,19.83
05.968,20.8
05.984,21.24
06.000,21.31
06.015,21.13
06.031,20.76
06.046,20.11
06.062,19.07
06.078,17.6
06.093,15.85
06.109,14.15
06.125,12.82
06.140,12.07
06.156,11.79
06.171,11.63
06.187,11.19
06.203,10.18
06.218,8.57
06.234,6.59
06.250,4.55
06.265,2.71
06.281,1.12
06.296,-0.33
06.312,-1.9
06.328,-3.79
06.343,-6.06
06.359,-8.59
06.375,-11.11
06.390,-13.31
06.406,-15.03
06.421,-16.27
06.437,-17.2
06.453,-18.16
06.468,-19.46
06.484,-21.34
06.500,-23.84
06.515,-26.74
06.531,-29.59
06.546,-31.78
06.562,-32.63
06.578,-31.55
06.593,-28.28
06.609,-22.96
06.625,-16.12
06.640,-8.61
06.656,-1.3
06.671,5.1
06.687,10.18
06.703,13.89
06.718,16.39
06.734,17.92
06.750,18.69
06.765,18.89
06.781,18.62
06.796,18.05
06.812,17.35
06.828,16.7
06.843,16.21
06.859,15.89
06.875,15.69
06.890,15.54
06.906,15.42
06.921,15.37
06.937,15.43
06.953,15.57
06.968,15.65
06.984,15.47
07.000,14.8
07.015,13.55
07.031,11.73
07.046,9.57
07.062,7.35
07.078,5.35
07.093,3.68
07.109,2.28
07.125,0.93
07.140,-0.62
07.156,-2.54
07.171,-4.88
07.187,-7.53
07.203,-10.34
07.218,-13.13
07.234,-15.8
07.250,-18.33
07.265,-20.76
07.281,-23.15
07.296,-25.59
07.312,-28.16
07.328,-30.83
07.343,-33.46
07.359,-35.71
07.375,-37.06
07.390,-36.93
07.406,-34.84
07.421,-30.68
07.437,-24.68
07.453,-17.5
07.468,-9.99
07.484,-2.96
07.500,3.03
07.515,7.73
07.531,11.2
07.546,13.7
07.562,15.52
07.578,16.87
07.593,17.89
07.609,18.66
07.625,19.21
07.640,19.59
07.656,19.81
07.671,19.87
07.687,19.72
07.703,19.35
07.718,18.76
07.734,18.08
07.750,17.42
07.765,16.92
07.781,16.61
07.796,16.45
07.812,16.29
07.828,15.95
07.843,15.27
07.859,14.13
07.875,12.47
07.890,10.35
07.906,7.92
07.921,5.39
07.937,2.97
07.953,0.82
07.968,-1.1
07.984,-2.9
08.000,-4.81
08.015,-6.98
08.031,-9.41
08.046,-12.02
08.062,-14.6
08.078,-17.02
08.093,-19.27
08.109,-21.45
08.125,-23.75
08.140,-26.34
08.156,-29.26
08.171,-32.44
08.187,-35.62
08.203,-38.4
08.218,-40.29
08.234,-40.75
08.250,-39.32
08.265,-35.8
08.281,-30.33
08.296,-23.42
08.312,-15.82
08.328,-8.33
08.343,-1.6
08.359,4.05
08.375,8.56
08.390,12.08
08.406,14.82
08.421,16.97
08.437,18.66
08.453,19.98
08.468,21.02
08.484,21.83
08.500,22.45
08.515,22.84
08.531,22.96
08.546,22.79
08.562,22.34
08.578,21.7
08.593,20.93
08.609,20.13
08.625,19.33
08.640,18.57
08.656,17.82
08.671,17.05
08.687,16.17
08.703,15.1
08.718,13.73
08.734,12.04
08.750,10.05
08.765,7.9
08.781,5.74
08.796,3.71
08.812,1.87
08.828,0.17
08.843,-1.52
08.859,-3.34
08.875,-5.35
08.890,-7.54
08.906,-9.77
08.921,-11.86
08.937,-13.69
08.953,-15.27
08.968,-16.75
08.984,-18.38
09.000,-20.4
09.015,-23.0
09.031,-26.14
09.046,-29.58
09.062,-32.83
09.078,-35.27
09.093,-36.24
09.109,-35.21
09.125,-32.03
09.140,-26.89
09.156,-20.41
09.171,-13.37
09.187,-6.52
09.203,-0.38
09.218,4.81
09.234,9.06
09.250,12.43
09.265,15.02
09.281,16.86
09.296,17.99
09.312,18.5
09.328,18.54
09.343,18.31
09.359,17.98
09.375,17.66
09.390,17.35
09.406,17.01
09.421,16.59
09.437,16.06
09.453,15.47
09.468,14.92
09.484,14.45
09.500,14.06
09.515,13.59
09.531,12.85
09.546,11.7
09.562,10.1
09.578,8.2
09.593,6.19
09.609,4.25
09.625,2.44
09.640,0.66
09.656,-1.2
09.671,-3.2
09.687,-5.25
09.703,-7.19
09.718,-8.87
09.734,-10.23
09.750,-11.41
09.765,-12.59
09.781,-14.0
09.796,-15.8
09.812,-18.02
09.828,-20.67
09.843,-23.61
09.859,-26.57
09.875,-29.07
09.890,-30.49
09.906,-30.22
09.921,-27.88
09.937,-23.49
09.953,-17.49
09.968,-10.66
09.984,-3.79
10.000,2.48
10.015,7.83
10.031,12.16
10.046,15.52
10.062,17.94
10.078,19.41
10.093,19.97
10.109,19.75
10.125,19.0
10.140,18.01
10.156,17.09
10.171,16.42
10.187,16.1
10.203,16.1
10.218,16.33
10.234,16.68
10.250,17.01
10.265,17.22
10.281,17.21
10.296,16.94
10.312,16.37
10.328,15.44
10.343,14.13
10.359,12.4
10.375,10.3
10.390,7.92
10.406,5.42
10.421,2.89
10.437,0.37
10.453,-2.19
10.468,-4.85
10.484,-7.66
10.500,-10.55
10.515,-13.34
10.531,-15.84
10.546,-17.92
10.562,-19.51
10.578,-20.74
10.593,-21.82
10.609,-23.1
10.625,-24.89
10.640,-27.37
10.656,-30.48
10.671,-33.77
10.687,-36.52
10.703,-37.89
10.718,-37.13
10.734,-33.91
10.750,-28.36
10.765,-21.13
10.781,-13.13
10.796,-5.3
10.812,1.59
10.828,7.16
10.843,11.4
10.859,14.56
10.875,16.98
10.890,18.96
10.906,20.67
10.921,22.13
10.937,23.3
10.953,24.08
10.968,24.44
10.984,24.35
11.000,23.81
11.015,22.87
11.031,21.6
11.046,20.13
11.062,18.65
11.078,17.39
11.093,16.51
11.109,16.07
11.125,16.0
11.140,16.05
11.156,15.91
11.171,15.31
11.187,14.06
11.203,12.19
11.218,9.89
11.234,7.46
11.250,5.2
11.265,3.29
11.281,1.71
11.296,0.32
11.312,-1.13
11.328,-2.84
11.343,-4.85
11.359,-7.05
11.375,-9.26
11.390,-11.25
11.406,-12.91
11.421,-14.31
11.437,-15.65
11.453,-17.24
11.468,-19.37
11.484,-22.18
11.500,-25.59
11.515,-29.25
11.531,-32.6
11.546,-34.97
11.562,-35.75
11.578,-34.49
11.593,-31.08
11.609,-25.8
11.625,-19.24
11.640,-12.2
11.656,-5.44
11.671,0.45
11.687,5.26
11.703,9.06
11.718,12.13
11.734,14.74
11.750,17.1
11.765,19.26
11.781,21.18
11.796,22.82
11.812,24.16
11.828,25.17
11.843,25.78
11.859,25.89
11.875,25.4
11.890,24.25
11.906,22.54
11.921,20.54
11.937,18.55
11.953,16.88
11.968,15.68
11.984,14.96
12.000,14.58
12.015,14.36
12.031,14.13
12.046,13.73
12.062,13.05
12.078,12.01
12.093,10.56
12.109,8.76
12.125,6.77
12.140,4.83
12.156,3.15
12.171,1.8
12.187,0.67
12.203,-0.52
12.218,-2.0
12.234,-3.93
12.250,-6.24
12.265,-8.74
12.281,-11.19
12.296,-13.35
12.312,-15.08
12.328,-16.4
12.343,-17.46
12.359,-18.56
12.375,-20.03
12.390,-22.14
12.406,-24.93
12.421,-28.15
12.437,-31.25
12.453,-33.52
12.468,-34.3
12.484,-33.12
12.500,-29.9
12.515,-24.94
12.531,-18.83
12.546,-12.3
12.562,-6.0
12.578,-0.39
12.593,4.34
12.609,8.22
12.625,11.37
12.640,13.89
12.656,15.81
12.671,17.11
12.687,17.81
12.703,18.0
12.718,17.86
12.734,17.56
12.750,17.18
12.765,16.73
12.781,16.17
12.796,15.48
12.812,14.71
12.828,13.95
12.843,13.32
12.859,12.85
12.875,12.53
12.890,12.28
12.906,11.99
12.921,11.55
12.937,10.89
12.953,9.98
12.968,8.82
12.984,7.46
13.000,5.99
13.015,4.47
13.031,2.95
13.046,1.4
13.062,-0.28
13.078,-2.21
13.093,-4.39
13.109,-6.74
13.125,-9.08
13.140,-11.15
13.156,-12.85
13.171,-14.22
13.187,-15.49
13.203,-17.01
13.218,-19.08
13.234,-21.81
13.250,-24.99
13.265,-28.09
13.281,-30.43
13.296,-31.3
13.312,-30.23
13.328,-27.11
13.343,-22.24
13.359,-16.23
13.375,-9.85
13.390,-3.79
13.406,1.48
13.421,5.76
13.437,9.09
13.453,11.63
13.468,13.52
13.484,14.92
13.500,15.91
13.515,16.56
13.531,16.96
13.546,17.13
13.562,17.08
13.578,16.81
13.593,16.31
13.609,15.66
13.625,14.92
13.640,14.2
13.656,13.59
13.671,13.09
13.687,12.65
13.703,12.22
13.718,11.72
13.734,11.06
13.750,10.18
13.765,9.08
13.781,7.75
13.796,6.25
13.812,4.65
13.828,3.03
13.843,1.44
13.859,-0.1
13.875,-1.6
13.890,-3.14
13.906,-4.81
13.921,-6.69
13.937,-8.79
13.953,-11.07
13.968,-13.42
13.984,-15.71
14.000,-17.86
14.015,-19.94
14.031,-22.08
14.046,-24.48
14.062,-27.27
14.078,-30.39
14.093,-33.55
14.109,-36.24
14.125,-37.78
14.140,-37.56
14.156,-35.18
14.171,-30.66
14.187,-24.44
14.203,-17.31
14.218,-10.12
14.234,-3.57
14.250,1.94
14.265,6.34
14.281,9.75
14.296,12.36
14.312,14.33
14.328,15.8
14.343,16.89
14.359,17.71
14.375,18.35
14.390,18.84
14.406,19.13
14.421,19.17
14.437,18.98
14.453,18.59
14.468,18.08
14.484,17.51
14.500,16.96
14.515,16.49
14.531,16.17
14.546,16.0
14.562,15.91
14.578,15.74
14.593,15.26
14.609,14.32
14.625,12.86
14.640,11.0
14.656,8.88
14.671,6.69
14.687,4.54
14.703,2.45
14.718,0.44
14.734,-1.54
14.750,-3.53
14.765,-5.6
14.781,-7.77
14.796,-10.01
14.812,-12.22
14.828,-14.26
14.843,-16.04
14.859,-17.61
14.875,-19.14
14.890,-20.93
14.906,-23.23
14.921,-26.14
14.937,-29.54
14.953,-33.01
14.968,-35.94
14.984,-37.62
15.000,-37.41
15.015,-35.02
15.031,-30.51
15.046,-24.37
15.062,-17.33
15.078,-10.18
15.093,-3.56
15.109,2.14
15.125,6.77
15.140,10.41
15.156,13.22
15.171,15.42
15.187,17.2
15.203,18.71
15.218,20.0
15.234,21.06
15.250,21.85
15.265,22.37
15.281,22.58
15.296,22.51
15.312,22.15
15.328,21.51
15.343,20.61
15.359,19.53
15.375,18.47
15.390,17.63
15.406,17.16
15.421,17.06
15.437,17.12
15.453,17.06
15.468,16.58
15.484,15.56
15.500,14.0
15.515,12.09
15.531,10.05
15.546,8.09
15.562,6.32
15.578,4.77
15.593,3.4
15.609,2.07
15.625,0.64
15.640,-1.03
15.656,-3.0
15.671,-5.24
15.687,-7.63
15.703,-9.99
15.718,-12.22
15.734,-14.3
15.750,-16.33
15.765,-18.42
15.781,-20.72
15.796,-23.31
15.812,-26.23
15.828,-29.4
15.843,-32.61
15.859,-35.41
15.875,-37.17
15.890,-37.2
15.906,-34.99
15.921,-30.47
15.937,-24.08
15.953,-16.7
15.968,-9.33
15.984,-2.77
16.000,2.61
16.015,6.81
16.031,10.09
16.046,12.73
16.062,14.9
16.078,16.68
16.093,18.08
16.109,19.13
16.125,19.87
16.140,20.38
16.156,20.7
16.171,20.84
16.187,20.79
16.203,20.52
16.218,20.02
16.234,19.31
16.250,18.46
16.265,17.63
16.281,16.96
16.296,16.53
16.312,16.32
16.328,16.13
16.343,15.66
16.359,14.6
16.375,12.83
16.390,10.42
16.406,7.69
16.421,5.01
16.437,2.67
16.453,0.78
16.468,-0.78
16.484,-2.24
16.500,-3.85
16.515,-5.7
16.531,-7.75
16.546,-9.8
16.562,-11.7
16.578,-13.36
16.593,-14.88
16.609,-16.45
16.625,-18.3
16.640,-20.56
16.656,-23.23
16.671,-26.07
16.687,-28.67
16.703,-30.5
16.718,-31.0
16.734,-29.73
16.750,-26.56
16.765,-21.65
16.781,-15.58
16.796,-9.12
16.812,-3.07
16.828,2.03
16.843,5.97
16.859,8.93
16.875,11.26
16.890,13.26
16.906,15.05
16.921,16.57
16.937,17.64
16.953,18.17
16.968,18.21
16.984,17.92
17.000,17.5
17.015,16.99
17.031,16.35
17.046,15.47
17.062,14.35
17.078,13.15
17.093,12.13
17.109,11.55
17.125,11.45
17.140,11.68
17.156,11.86
17.171,11.58
17.187,10.59
17.203,8.84
17.218,6.58
17.234,4.18
17.250,2.02
17.265,0.32
17.281,-0.94
17.296,-1.99
17.312,-3.16
17.328,-4.74
17.343,-6.86
17.359,-9.41
17.375,-12.12
17.390,-14.66
17.406,-16.8
17.421,-18.52
17.437,-19.99
17.453,-21.53
17.468,-23.46
17.484,-25.94
17.500,-28.9
17.515,-31.96
17.531,-34.55
17.546,-35.96
17.562,-35.58
17.578,-33.06
17.593,-28.43
17.609,-22.19
17.625,-15.12
17.640,-8.13
17.656,-1.99
17.671,2.88
17.687,6.44
17.703,8.97
17.718,10.85
17.734,12.45
17.750,13.96
17.765,15.42
17.781,16.79
17.796,17.96
17.812,18.85
17.828,19.4
17.843,19.52
17.859,19.22
17.875,18.54
17.890,17.59
17.906,16.58
17.921,15.68
17.937,15.04
17.953,14.73
17.968,14.69
17.984,14.77
18.000,14.74
18.015,14.39
18.031,13.55
18.046,12.17
18.062,10.34
18.078,8.26
18.093,6.19
18.109,4.29
18.125,2.62
18.140,1.08
18.156,-0.47
18.171,-2.17
18.187,-4.05
18.203,-6.06
18.218,-8.1
18.234,-10.06
18.250,-11.88
18.265,-13.6
18.281,-15.31
18.296,-17.17
18.312,-19.35
18.328,-22.0
18.343,-25.17
18.359,-28.71
18.375,-32.21
18.390,-35.0
18.406,-36.29
18.421,-35.47
18.437,-32.28
18.453,-26.92
18.468,-20.04
18.484,-12.52
18.500,-5.18
18.515,1.37
18.531,6.86
18.546,11.26
18.562,14.73
18.578,17.52
18.593,19.8
18.609,21.69
18.625,23.23
18.640,24.38
18.656,25.09
18.671,25.36
18.687,25.23
18.703,24.79
18.718,24.16
18.734,23.4
18.750,22.57
18.765,21.69
18.781,20.84
18.796,20.09
18.812,19.56
18.828,19.29
18.843,19.22
18.859,19.21
18.875,19.01
18.890,18.37
18.906,17.14
18.921,15.27
18.937,12.9
18.953,10.3
18.968,7.82
18.984,5.69
19.000,3.97
19.015,2.51
19.031,1.06
19.046,-0.64
19.062,-2.71
19.078,-5.08
19.093,-7.56
19.109,-9.94
19.125,-12.07
19.140,-13.97
19.156,-15.79
19.171,-17.77
19.187,-20.12
19.203,-22.98
19.218,-26.33
19.234,-29.94
19.250,-33.33
19.265,-35.88
19.281,-36.83
19.296,-35.61
19.312,-31.96
19.328,-26.12
19.343,-18.8
19.359,-10.94
19.375,-3.47
19.390,3.01
19.406,8.27
19.421,12.4
19.437,15.59
19.453,17.95
19.468,19.52
19.484,20.31
19.500,20.42
19.515,20.07
19.531,19.53
19.546,19.02
19.562,18.6
19.578,18.26
19.593,17.92
19.609,17.61
19.625,17.37
19.640,17.28
19.656,17.35
19.671,17.54
19.687,17.67
19.703,17.62
19.718,17.25
19.734,16.46
19.750,15.21
19.765,13.54
19.781,11.54
19.796,9.34
19.812,7.09
19.828,4.82
19.843,2.53
19.859,0.12
19.875,-2.48
19.890,-5.21
19.906,-7.96
19.921,-10.53
19.937,-12.81
19.953,-14.75
19.968,-16.46
19.984,-18.13
20.000,-19.96
20.015,-22.11
20.031,-24.66
20.046,-27.58
20.062,-30.73
20.078,-33.72
20.093,-36.01
20.109,-36.9
20.125,-35.76
20.140,-32.25
20.156,-26.49
20.171,-19.09
20.187,-11.05
20.203,-3.37
20.218,3.2
20.234,8.37
20.250,12.2
20.265,15.04
20.281,17.19
20.296,18.85
20.312,20.05
20.328,20.8
20.343,21.11
20.359,21.06
20.375,20.73
20.390,20.21
20.406,19.56
20.421,18.8
20.437,17.99
20.453,17.23
20.468,16.64
20.484,16.33
20.500,16.3
20.515,16.44
20.531,16.56
20.546,16.42
20.562,15.83
20.578,14.73
20.593,13.16
20.609,11.25
20.625,9.18
20.640,7.1
20.656,5.16
20.671,3.41
20.687,1.86
20.703,0.41
20.718,-1.1
20.734,-2.85
20.750,-5.0
20.765,-7.55
20.781,-10.3
20.796,-13.0
20.812,-15.39
20.828,-17.42
20.843,-19.2
20.859,-21.04
20.875,-23.26
20.890,-26.11
20.906,-29.63
20.921,-33.56
20.937,-37.42
20.953,-40.45
20.968,-41.87
20.984,-40.98
21.000,-37.49
21.015,-31.63
21.031,-24.09
21.046,-15.89
21.062,-7.99
21.078,-1.07
21.093,4.61
21.109,9.11
21.125,12.65
21.140,15.46
21.156,17.7
21.171,19.53
21.187,21.09
21.203,22.52
21.218,23.88
21.234,25.09
21.250,25.97
21.265,26.33
21.281,26.03
21.296,25.12
21.312,23.8
21.328,22.3
21.343,20.9
21.359,19.74
21.375,18.92
21.390,18.43
21.406,18.15
21.421,17.89
21.437,17.4
21.453,16.48
21.468,15.07
21.484,13.27
21.500,11.3
21.515,9.4
21.531,7.76
21.546,6.41
21.562,5.24
21.578,4.07
21.593,2.75
21.609,1.14
21.625,-0.79
21.640,-3.04
21.656,-5.55
21.671,-8.25
21.687,-11.01
21.703,-13.66
21.718,-16.02
21.734,-18.01
21.750,-19.63
21.765,-21.07
21.781,-22.58
21.796,-24.46
21.812,-26.87
21.828,-29.81
21.843,-32.98
21.859,-35.83
21.875,-37.65
21.890,-37.76
21.906,-35.71
21.921,-31.4
21.937,-25.23
21.953,-17.94
21.968,-10.44
21.984,-3.49
22.000,2.42
22.015,7.13
22.031,10.76
22.046,13.57
22.062,15.81
22.078,17.67
22.093,19.27
22.109,20.66
22.125,21.89
22.140,22.92
22.156,23.72
22.171,24.19
22.187,24.26
22.203,23.95
22.218,23.33
22.234,22.53
22.250,21.68
22.265,20.89
22.281,20.19
22.296,19.55
22.312,18.89
22.328,18.13
22.343,17.15
22.359,15.85
22.375,14.18
22.390,12.16
22.406,9.92
22.421,7.63
22.437,5.48
22.453,3.57
22.468,1.81
22.484,0.05
22.500,-1.92
22.515,-4.2
22.531,-6.72
22.546,-9.24
22.562,-11.51
22.578,-13.37
22.593,-14.91
22.609,-16.35
22.625,-17.99
22.640,-20.04
22.656,-22.54
22.671,-25.36
22.687,-28.24
22.703,-30.88
22.718,-32.93
22.734,-34.0
22.750,-33.7
22.765,-31.68
22.781,-27.78
22.796,-22.15
22.812,-15.29
22.828,-7.95
22.843,-0.96
22.859,5.01
22.875,9.6
22.890,12.8
22.906,14.9
22.921,16.28
22.937,17.26
22.953,18.0
22.968,18.5
22.984,18.71
23.000,18.59
23.015,18.16
23.031,17.51
23.046,16.77
23.062,16.05
23.078,15.39
23.093,14.8
23.109,14.25
23.125,13.69
23.140,13.04
23.156,12.24
23.171,11.24
23.187,10.06
23.203,8.76
23.218,7.41
23.234,6.06
23.250,4.7
23.265,3.29
23.281,1.76
23.296,0.07
23.312,-1.81
23.328,-3.9
23.343,-6.16
23.359,-8.51
23.375,-10.85
23.390,-13.08
23.406,-15.11
23.421,-17.0
23.437,-18.87
23.453,-20.97
23.468,-23.48
23.484,-26.42
23.500,-29.56
23.515,-32.39
23.531,-34.29
23.546,-34.61
23.562,-32.94
23.578,-29.18
23.593,-23.57
23.609,-16.72
23.625,-9.4
23.640,-2.41
23.656,3.61
23.671,8.27
23.687,11.57
23.703,13.74
23.718,15.15
23.734,16.16
23.750,16.99
23.765,17.68
23.781,18.1
23.796,18.09
23.812,17.6
23.828,16.71
23.843,15.62
23.859,14.61
23.875,13.89
23.890,13.53
23.906,13.49
23.921,13.6
23.937,13.68
23.953,13.61
23.968,13.34
23.984,12.87
24.000,12.18
24.015,11.23
24.031,9.97
24.046,8.4
24.062,6.61
24.078,4.72
24.093,2.85
24.109,1.01
24.125,-0.88
24.140,-2.93
24.156,-5.19
24.171,-7.6
24.187,-10.0
24.203,-12.2
24.218,-14.14
24.234,-15.91
24.250,-17.71
24.265,-19.8
24.281,-22.37
24.296,-25.49
24.312,-29.01
24.328,-32.56
24.343,-35.56
24.359,-37.3
24.375,-37.13
24.390,-34.67
24.406,-30.01
24.421,-23.69
24.437,-16.56
24.453,-9.54
24.468,-3.31
24.484,1.83
24.500,5.96
24.515,9.31
24.531,12.17
24.546,14.69
24.562,16.9
24.578,18.78
24.593,20.3
24.609,21.44
24.625,22.23
24.640,22.67
24.656,22.75
24.671,22.46
24.687,21.86
24.703,21.04
24.718,20.2
24.734,19.48
24.750,18.99
24.765,18.73
24.781,18.62
24.796,18.51
24.812,18.22
24.828,17.58
24.843,16.44
24.859,14.79
24.875,12.74
24.890,10.49
24.906,8.29
24.921,6.24
24.937,4.32
24.953,2.33
24.968,0.11
24.984,-2.42
25.000,-5.15
25.015,-7.81
25.031,-10.12
25.046,-11.92
25.062,-13.22
25.078,-14.24
25.093,-15.31
25.109,-16.76
25.125,-18.86
25.140,-21.7
25.156,-25.13
25.171,-28.73
25.187,-31.82
25.203,-33.61
25.218,-33.45
25.234,-31.02
25.250,-26.46
25.265,-20.36
25.281,-13.56
25.296,-6.89
25.312,-0.94
25.328,3.97
25.343,7.87
25.359,10.92
25.375,13.37
25.390,15.39
25.406,17.07
25.421,18.42
25.437,19.41
25.453,20.06
25.468,20.4
25.484,20.51
25.500,20.49
25.515,20.38
25.531,20.18
25.546,19.86
25.562,19.36
25.578,18.69
25.593,17.86
25.609,16.95
25.625,16.08
25.640,15.25
25.656,14.44
25.671,13.55
25.687,12.45
25.703,11.01
25.718,9.24
25.734,7.2
25.750,5.04
25.765,2.86
25.781,0.7
25.796,-1.48
25.812,-3.74
25.828,-6.07
25.843,-8.34
25.859,-10.37
25.875,-12.01
25.890,-13.27
25.906,-14.38
25.921,-15.63
25.937,-17.34
25.953,-19.58
25.968,-22.16
25.984,-24.7
26.000,-26.62
26.015,-27.43
26.031,-26.78
26.046,-24.58
26.062,-21.02
26.078,-16.43
26.093,-11.26
26.109,-5.97
26.125,-0.95
26.140,3.45
26.156,7.01
26.171,9.61
26.187,11.3
26.203,12.27
26.218,12.77
26.234,13.06
26.250,13.23
26.265,13.29
26.281,13.17
26.296,12.88
26.312,12.51
26.328,12.24
26.343,12.18
26.359,12.32
26.375,12.53
26.390,12.58
26.406,12.34
26.421,11.76
26.437,10.89
26.453,9.81
26.468,8.62
26.484,7.33
26.500,5.98
26.515,4.54
26.531,3.0
26.546,1.32
26.562,-0.53
26.578,-2.53
26.593,-4.62
26.609,-6.68
26.625,-8.62
26.640,-10.42
26.656,-12.1
26.671,-13.76
26.687,-15.52
26.703,-17.52
26.718,-19.85
26.734,-22.52
26.750,-25.36
26.765,-28.0
26.781,-29.88
26.796,-30.42
26.812,-29.2
26.828,-26.18
26.843,-21.69
26.859,-16.35
26.875,-10.83
26.890,-5.68
26.906,-1.21
26.921,2.46
26.937,5.38
26.953,7.65
26.968,9.4
26.984,10.74
27.000,11.82
27.015,12.73
27.031,13.51
27.046,14.18
27.062,14.73
27.078,15.13
27.093,15.35
27.109,15.42
27.125,15.34
27.140,15.15
27.156,14.88
27.171,14.59
27.187,14.34
27.203,14.13
27.218,13.91
27.234,13.56
27.250,12.93
27.265,11.88
27.281,10.38
27.296,8.5
27.312,6.42
27.328,4.38
27.343,2.52
27.359,0.83
27.375,-0.79
27.390,-2.5
27.406,-4.39
27.421,-6.43
27.437,-8.47
27.453,-10.33
27.468,-11.96
27.484,-13.43
27.500,-14.95
27.515,-16.75
27.531,-19.0
27.546,-21.73
27.562,-24.8
27.578,-27.92
27.593,-30.62
27.609,-32.36
27.625,-32.62
27.640,-31.06
27.656,-27.67
27.671,-22.81
27.687,-17.11
27.703,-11.26
27.718,-5.81
27.734,-1.08
27.750,2.88
27.765,6.17
27.781,8.9
27.796,11.15
27.812,12.93
27.828,14.26
27.843,15.19
27.859,15.84
27.875,16.31
27.890,16.65
27.906,16.84
27.921,16.8
27.937,16.5
27.953,16.0
27.968,15.42
27.984,14.95
28.000,14.69
28.015,14.62
28.031,14.59
28.046,14.37
28.062,13.79
28.078,12.77
28.093,11.36
28.109,9.73
28.125,8.02
28.140,6.34
28.156,4.7
28.171,3.09
28.187,1.44
28.203,-0.3
28.218,-2.15
28.234,-4.11
28.250,-6.11
28.265,-8.1
28.281,-9.99
28.296,-11.67
28.312,-13.13
28.328,-14.42
28.343,-15.72
28.359,-17.3
28.375,-19.41
28.390,-22.06
28.406,-25.0
28.421,-27.65
28.437,-29.3
28.453,-29.31
28.468,-27.39
28.484,-23.64
28.500,-18.52
28.515,-12.71
28.531,-6.86
28.546,-1.44
28.562,3.29
28.578,7.25
28.593,10.46
28.609,12.96
28.625,14.82
28.640,16.09
28.656,16.85
28.671,17.22
28.687,17.26
28.703,17.06
28.718,16.69
28.734,16.22
28.750,15.76
28.765,15.37
28.781,15.12
28.796,15.0
28.812,14.93
28.828,14.81
28.843,14.56
28.859,14.15
28.875,13.56
28.890,12.82
28.906,11.95
28.921,10.97
28.937,9.89
28.953,8.71
28.968,7.4
28.984,5.97
29.000,4.4
29.015,2.67
29.031,0.78
29.046,-1.25
29.062,-3.39
29.078,-5.56
29.093,-7.65
29.109,-9.56
29.125,-11.22
29.140,-12.64
29.156,-13.95
29.171,-15.34
29.187,-17.02
29.203,-19.06
29.218,-21.38
29.234,-23.65
29.250,-25.42
29.265,-26.16
29.281,-25.47
29.296,-23.15
29.312,-19.32
29.328,-14.36
29.343,-8.88
29.359,-3.48
29.375,1.3
29.390,5.2
29.406,8.22
29.421,10.49
29.437,12.24
29.453,13.62
29.468,14.68
29.484,15.37
29.500,15.63
29.515,15.45
29.531,14.88
29.546,14.07
29.562,13.19
29.578,12.39
29.593,11.73
29.609,11.26
29.625,10.94
29.640,10.7
29.656,10.45
29.671,10.08
29.687,9.51
29.703,8.65
29.718,7.47
29.734,6.0
29.750,4.32
29.765,2.57
29.781,0.9
29.796,-0.61
29.812,-1.94
29.828,-3.14
29.843,-4.31
29.859,-5.56
29.875,-6.95
29.890,-8.5
29.906,-10.21
29.921,-12.07
29.937,-14.09
29.953,-16.31
29.968,-18.78
29.984,-21.52
30.000,-24.43
30.015,-27.33
30.031,-29.84
30.046,-31.52
30.062,-31.85
30.078,-30.47
30.093,-27.25
30.109,-22.4
30.125,-16.47
30.140,-10.12
30.156,-4.0
30.171,1.4
30.187,5.87
30.203,9.39
30.218,12.08
30.234,14.07
30.250,15.48
30.265,16.36
30.281,16.8
30.296,16.85
30.312,16.61
30.328,16.14
30.343,15.51
30.359,14.77
30.375,13.98
30.390,13.23
30.406,12.62
30.421,12.22
30.437,12.05
30.453,12.06
30.468,12.11
30.484,12.03
30.500,11.68
30.515,10.95
30.531,9.81
30.546,8.32
30.562,6.6
30.578,4.78
30.593,2.94
30.609,1.12
30.625,-0.71
30.640,-2.6
30.656,-4.61
30.671,-6.74
30.687,-8.96
30.703,-11.14
30.718,-13.19
30.734,-15.08
30.750,-16.92
30.765,-18.93
30.781,-21.39
30.796,-24.52
30.812,-28.3
30.828,-32.4
30.843,-36.21
30.859,-38.92
30.875,-39.81
30.890,-38.41
30.906,-34.72
30.921,-29.12
30.937,-22.3
30.953,-15.01
30.968,-7.9
30.984,-1.37
31.000,4.39
31.015,9.29
31.031,13.35
31.046,16.58
31.062,19.06
31.078,20.96
31.093,22.46
31.109,23.77
31.125,24.97
31.140,26.03
31.156,26.81
31.171,27.17
31.187,27.07
31.203,26.58
31.218,25.86
31.234,25.07
31.250,24.34
31.265,23.71
31.281,23.15
31.296,22.56
31.312,21.81
31.328,20.78
31.343,19.37
31.359,17.6
31.375,15.55
31.390,13.41
31.406,11.34
31.421,9.44
31.437,7.71
31.453,6.05
31.468,4.33
31.484,2.43
31.500,0.34
31.515,-1.93
31.531,-4.28
31.546,-6.69
31.562,-9.11
31.578,-11.51
31.593,-13.86
31.609,-16.11
31.625,-18.31
31.640,-20.59
31.656,-23.23
31.671,-26.41
31.687,-30.09
31.703,-33.85
31.718,-36.94
31.734,-38.46
31.750,-37.67
31.765,-34.3
31.781,-28.6
31.796,-21.25
31.812,-13.16
31.828,-5.19
31.843,1.99
31.859,7.99
31.875,12.67
31.890,16.12
31.906,18.54
31.921,20.24
31.937,21.54
31.953,22.67
31.968,23.75
31.984,24.76
32.000,25.57
32.015,25.98
32.031,25.89
32.046,25.29
32.062,24.32
32.078,23.19
32.093,22.12
32.109,21.27
32.125,20.7
32.140,20.36
32.156,20.11
32.171,19.76
32.187,19.09
32.203,17.92
32.218,16.2
32.234,14.05
32.250,11.71
32.265,9.48
32.281,7.58
32.296,6.02
32.312,4.62
32.328,3.15
32.343,1.44
32.359,-0.54
32.375,-2.66
32.390,-4.77
32.406,-6.72
32.421,-8.5
32.437,-10.18
32.453,-11.89
32.468,-13.8
32.484,-16.05
32.500,-18.66
32.515,-21.47
32.531,-24.12
32.546,-26.07
32.562,-26.72
32.578,-25.63
32.593,-22.69
32.609,-18.16
32.625,-12.56
32.640,-6.58
32.656,-0.8
32.671,4.33
32.687,8.55
32.703,11.77
32.718,13.99
32.734,15.25
32.750,15.75
32.765,15.69
32.781,15.34
32.796,14.93
32.812,14.54
32.828,14.24
32.843,13.95
32.859,13.64
32.875,13.32
32.890,13.05
32.906,12.91
32.921,12.93
32.937,13.05
32.953,13.12
32.968,12.97
32.984,12.46
33.000,11.55
33.015,10.3
33.031,8.86
33.046,7.38
33.062,5.96
33.078,4.6
33.093,3.28
33.109,1.89
33.125,0.35
33.140,-1.37
33.156,-3.25
33.171,-5.27
33.187,-7.36
33.203,-9.46
33.218,-11.49
33.234,-13.39
33.250,-15.17
33.265,-16.91
33.281,-18.8
33.296,-21.04
33.312,-23.77
33.328,-26.97
33.343,-30.36
33.359,-33.41
33.375,-35.41
33.390,-35.69
33.406,-33.82
33.421,-29.75
33.437,-23.91
33.453,-17.04
33.468,-10.03
33.484,-3.64
33.500,1.65
33.515,5.72
33.531,8.72
33.546,10.9
33.562,12.53
33.578,13.74
33.593,14.62
33.609,15.22
33.625,15.59
33.640,15.82
33.656,15.99
33.671,16.14
33.687,16.25
33.703,16.23
33.718,16.03
33.734,15.68
33.750,15.29
33.765,15.03
33.781,14.97
33.796,15.05
33.812,15.09
33.828,14.87
33.843,14.19
33.859,13.04
33.875,11.5
33.890,9.75
33.906,7.96
33.921,6.25
33.937,4.65
33.953,3.16
33.968,1.74
33.984,0.29
34.000,-1.3
34.015,-3.15
34.031,-5.32
34.046,-7.73
34.062,-10.23
34.078,-12.62
34.093,-14.74
34.109,-16.56
34.125,-18.28
34.140,-20.14
34.156,-22.45
34.171,-25.31
34.187,-28.57
34.203,-31.71
34.218,-34.06
34.234,-34.89
34.250,-33.73
34.265,-30.48
34.281,-25.5
34.296,-19.44
34.312,-13.06
34.328,-6.99
34.343,-1.66
34.359,2.75
34.375,6.24
34.390,8.91
34.406,10.98
34.421,12.63
34.437,14.05
34.453,15.32
34.468,16.4
34.484,17.19
34.500,17.6
34.515,17.65
34.531,17.45
34.546,17.15
34.562,16.89
34.578,16.69
34.593,16.5
34.609,16.22
34.625,15.82
34.640,15.36
34.656,14.9
34.671,14.44
34.687,13.88
34.703,13.08
34.718,11.91
34.734,10.37
34.750,8.58
34.765,6.75
34.781,5.08
34.796,3.66
34.812,2.48
34.828,1.41
34.843,0.29
34.859,-1.04
34.875,-2.68
34.890,-4.62
34.906,-6.76
34.921,-8.92
34.937,-10.93
34.953,-12.68
34.968,-14.22
34.984,-15.72
35.000,-17.44
35.015,-19.61
35.031,-22.3
35.046,-25.34
35.062,-28.29
35.078,-30.53
35.093,-31.41
35.109,-30.44
35.125,-27.45
35.140,-22.66
35.156,-16.64
35.171,-10.11
35.187,-3.82
35.203,1.67
35.218,6.05
35.234,9.29
35.250,11.55
35.265,13.12
35.281,14.24
35.296,15.08
35.312,15.67
35.328,15.98
35.343,15.97
35.359,15.67
35.375,15.18
35.390,14.61
35.406,14.08
35.421,13.58
35.437,13.06
35.453,12.49
35.468,11.85
35.484,11.2
35.500,10.56
35.515,9.91
35.531,9.11
35.546,8.03
35.562,6.6
35.578,4.86
35.593,3.01
35.609,1.24
35.625,-0.33
35.640,-1.7
35.656,-3.02
35.671,-4.45
35.687,-6.08
35.703,-7.86
35.718,-9.61
35.734,-11.19
35.750,-12.59
35.765,-13.96
35.781,-15.57
35.796,-17.65
35.812,-20.24
35.828,-23.19
35.843,-26.14
35.859,-28.6
35.875,-30.07
35.890,-30.15
35.906,-28.57
35.921,-25.29
35.937,-20.53
35.953,-14.75
35.968,-8.6
35.984,-2.67
36.000,2.55
36.015,6.84
36.031,10.18
36.046,12.67
36.062,14.46
36.078,15.69
36.093,16.48
36.109,16.99
36.125,17.33
36.140,17.55
36.156,17.64
36.171,17.49
36.187,17.03
36.203,16.29
36.218,15.46
36.234,14.76
36.250,14.4
36.265,14.42
36.281,14.68
36.296,14.93
36.312,14.87
36.328,14.31
36.343,13.15
36.359,11.5
36.375,9.55
36.390,7.52
36.406,5.61
36.421,3.91
36.437,2.43
36.453,1.06
36.468,-0.34
36.484,-1.95
36.500,-3.86
36.515,-6.08
36.531,-8.53
36.546,-11.03
36.562,-13.4
36.578,-15.44
36.593,-17.12
36.609,-18.52
36.625,-19.91
36.640,-21.63
36.656,-23.91
36.671,-26.72
36.687,-29.69
36.703,-32.14
36.718,-33.27
36.734,-32.45
36.750,-29.4
36.765,-24.35
36.781,-17.93
36.796,-11.02
36.812,-4.46
36.828,1.16
36.843,5.58
36.859,8.84
36.875,11.17
36.890,12.83
36.906,14.02
36.921,14.89
36.937,15.56
36.953,16.14
36.968,16.75
36.984,17.43
37.000,18.16
37.015,18.8
37.031,19.16
37.046,19.12
37.062,18.66
37.078,17.94
37.093,17.19
37.109,16.63
37.125,16.33
37.140,16.2
37.156,16.01
37.171,15.55
37.187,14.67
37.203,13.42
37.218,11.91
37.234,10.35
37.250,8.85
37.265,7.47
37.281,6.16
37.296,4.85
37.312,3.4
37.328,1.72
37.343,-0.26
37.359,-2.55
37.375,-5.02
37.390,-7.48
37.406,-9.68
37.421,-11.47
37.437,-12.87
37.453,-14.09
37.468,-15.48
37.484,-17.42
37.500,-20.1
37.515,-23.43
37.531,-27.01
37.546,-30.19
37.562,-32.2
37.578,-32.41
37.593,-30.46
37.609,-26.41
37.625,-20.8
37.640,-14.41
37.656,-8.09
37.671,-2.5
37.687,2.03
37.703,5.49
37.718,8.13
37.734,10.24
37.750,12.09
37.765,13.8
37.781,15.41
37.796,16.84
37.812,18.02
37.828,18.88
37.843,19.4
37.859,19.62
37.875,19.61
37.890,19.43
37.906,19.16
37.921,18.85
37.937,18.53
37.953,18.21
37.968,17.93
37.984,17.68
38.000,17.41
38.015,16.99
38.031,16.28
38.046,15.15
38.062,13.56
38.078,11.61
38.093,9.49
38.109,7.45
38.125,5.63
38.140,4.06
38.156,2.59
38.171,1.03
38.187,-0.79
38.203,-2.89
38.218,-5.17
38.234,-7.41
38.250,-9.43
38.265,-11.14
38.281,-12.57
38.296,-13.88
38.312,-15.25
38.328,-16.87
38.343,-18.82
38.359,-21.09
38.375,-23.55
38.390,-25.92
38.406,-27.78
38.421,-28.64
38.437,-28.02
38.453,-25.67
38.468,-21.66
38.484,-16.4
38.500,-10.58
38.515,-4.88
38.531,0.15
38.546,4.29
38.562,7.53
38.578,10.07
38.593,12.06
38.609,13.63
38.625,14.79
38.640,15.55
38.656,15.91
38.671,15.94
38.687,15.71
38.703,15.33
38.718,14.87
38.734,14.41
38.750,14.0
38.765,13.66
38.781,13.37
38.796,13.04
38.812,12.53
38.828,11.69
38.843,10.47
38.859,8.93
38.875,7.24
38.890,5.61
38.906,4.17
38.921,2.9
38.937,1.66
38.953,0.25
38.968,-1.44
38.984,-3.39
39.000,-5.43
39.015,-7.42
39.031,-9.24
39.046,-10.9
39.062,-12.51
39.078,-14.16
39.093,-15.93
39.109,-17.82
39.125,-19.82
39.140,-21.9
39.156,-24.0
39.171,-25.98
39.187,-27.6
39.203,-28.49
39.218,-28.22
39.234,-26.49
39.250,-23.21
39.265,-18.59
39.281,-13.17
39.296,-7.58
39.312,-2.44
39.328,1.87
39.343,5.23
39.359,7.78
39.375,9.71
39.390,11.22
39.406,12.37
39.421,13.15
39.437,13.54
39.453,13.54
39.468,13.26
39.484,12.81
39.500,12.33
39.515,11.86
39.531,11.43
39.546,11.04
39.562,10.7
39.578,10.51
39.593,10.52
39.609,10.71
39.625,10.98
39.640,11.13
39.656,10.99
39.671,10.41
39.687,9.42
39.703,8.1
39.718,6.6
39.734,5.09
39.750,3.65
39.765,2.28
39.781,0.89
39.796,-0.64
39.812,-2.46
39.828,-4.65
39.843,-7.18
39.859,-9.93
39.875,-12.71
39.890,-15.34
39.906,-17.74
39.921,-19.94
39.937,-22.12
39.953,-24.47
39.968,-27.16
39.984,-30.16
40.000,-33.19
40.015,-35.76
40.031,-37.23
40.046,-37.07
40.062,-35.01
40.078,-31.13
40.093,-25.86
40.109,-19.84
40.125,-13.7
40.140,-7.92
40.156,-2.79
40.171,1.58
40.187,5.17
40.203,8.03
40.218,10.22
40.234,11.87
40.250,13.12
40.265,14.11
40.281,14.93
40.296,15.64
40.312,16.24
40.328,16.73
40.343,17.1
40.359,17.4
40.375,17.67
40.390,17.94
40.406,18.25
40.421,18.56
40.437,18.81
40.453,18.92
40.468,18.76
40.484,18.26
40.500,17.41
40.515,16.23
40.531,14.84
40.546,13.31
40.562,11.72
40.578,10.07
40.593,8.34
40.609,6.51
40.625,4.57
40.640,2.53
40.656,0.46
40.671,-1.56
40.687,-3.41
40.703,-5.05
40.718,-6.42
40.734,-7.58
40.750,-8.65
40.765,-9.88
40.781,-11.56
40.796,-13.81
40.812,-16.59
40.828,-19.57
40.843,-22.19
40.859,-23.8
40.875,-23.8
40.890,-21.85
40.906,-18.11
40.921,-13.09
40.937,-7.45
40.953,-1.87
40.968,3.2
40.984,7.61
41.000,11.46
41.015,14.98
41.031,18.32
41.046,21.3
41.062,23.65
41.078,25.22
41.093,26.03
41.109,26.31
41.125,26.45
41.140,26.79
41.156,27.63
41.171,28.97
41.187,30.13
41.203,30.45
41.218,29.74
41.234,28.14
41.250,26.13
41.265,24.36
41.281,23.37
41.296,23.73
41.312,25.53
41.328,27.43
41.343,28.13
41.359,27.1
41.375,24.41
41.390,20.78
41.406,17.36
41.421,15.25
41.437,15.58
41.453,18.77
41.468,23.22
41.484,27.37
41.500,30.65
41.515,32.83
41.531,34.02
41.546,34.77
41.562,36.59
41.578,43.17
41.593,59.5
41.609,88.56
41.625,131.45
41.640,186.1
41.656,245.81
41.671,301.06
41.687,342.79
41.703,361.26
41.718,353.09
41.734,332.05
41.750,309.28
41.765,288.3
41.781,270.25
41.796,253.33
41.812,234.53
41.828,211.48
41.843,183.21
41.859,150.4
41.875,113.81
41.890,72.04
41.906,24.42
41.921,-27.09
41.937,-78.74
41.953,-125.9
41.968,-164.89
41.984,-195.03
42.000,-218.82
42.015,-241.37
42.031,-269.58
42.046,-307.37
42.062,-353.56
42.078,-402.76
42.093,-447.18
42.109,-479.25
42.125,-493.88
42.140,-489.3
42.156,-467.43
42.171,-433.94
42.187,-395.46
42.203,-357.73
42.218,-324.86
42.234,-298.98
42.250,-280.6
42.265,-269.26
42.281,-263.3
42.296,-259.62
42.312,-254.03
42.328,-241.45
42.343,-217.72
42.359,-182.09
42.375,-138.38
42.390,-93.99
42.406,-56.98
42.421,-32.27
42.437,-19.34
42.453,-12.72
42.468,-4.28
42.484,13.27
42.500,43.59
42.515,85.81
42.531,135.29
42.546,185.38
42.562,229.18
42.578,261.08
42.593,277.79
42.609,278.94
42.625,267.0
42.640,246.47
42.656,222.48
42.671,199.4
42.687,179.78
42.703,164.13
42.718,151.41
42.734,139.75
42.750,127.3
42.765,112.75
42.781,95.7
42.796,76.68
42.812,57.05
42.828,38.6
42.843,23.0
42.859,11.27
42.875,3.48
42.890,-1.19
42.906,-4.13
42.921,-6.83
42.937,-10.53
42.953,-15.95
42.968,-23.3
42.984,-32.41
43.000,-42.98
43.015,-54.83
43.031,-67.91
43.046,-82.2
43.062,-97.22
43.078,-111.78
43.093,-123.95
43.109,-131.51
43.125,-132.77
43.140,-127.11
43.156,-115.26
43.171,-98.8
43.187,-79.6
43.203,-59.33
43.218,-39.39
43.234,-20.95
43.250,-4.94
43.265,8.24
43.281,18.85
43.296,27.7
43.312,35.77
43.328,43.67
43.343,51.45
43.359,58.8
43.375,65.68
43.390,72.65
43.406,80.93
43.421,91.77
43.437,105.56
43.453,120.98
43.468,134.85
43.484,142.82
43.500,140.91
43.515,127.28
43.531,103.51
43.546,74.96
43.562,49.7
43.578,36.12
43.593,40.05
43.609,62.66
43.625,100.39
43.640,146.56
43.656,194.01
43.671,237.09
43.687,272.2
43.703,297.18
43.718,310.25
43.734,309.83
43.750,295.24
43.765,267.92
43.781,231.87
43.796,192.79
43.812,156.34
43.828,126.18
43.843,103.07
43.859,85.33
43.875,70.23
43.890,55.34
43.906,39.13
43.921,20.84
43.937,0.11
43.953,-22.93
43.968,-47.4
43.984,-71.48
44.000,-92.63
44.015,-108.42
44.031,-117.71
44.046,-121.39
44.062,-122.31
44.078,-124.21
44.093,-130.25
44.109,-141.86
44.125,-158.34
44.140,-177.43
44.156,-196.26
44.171,-212.25
44.187,-223.39
44.203,-228.11
44.218,-225.11
44.234,-213.57
44.250,-193.79
44.265,-167.73
44.281,-139.04
44.296,-112.28
44.312,-91.49
44.328,-79.07
44.343,-75.37
44.359,-78.91
44.375,-87.31
44.390,-98.1
44.406,-109.2
44.421,-118.92
44.437,-125.83
44.453,-128.63
44.468,-126.31
44.484,-118.59
44.500,-106.16
44.515,-90.53
44.531,-73.71
44.546,-57.83
44.562,-44.72
44.578,-35.75
44.593,-31.49
44.609,-31.64
44.625,-35.31
44.640,-41.05
44.656,-46.98
44.671,-51.26
44.687,-52.5
44.703,-50.19
44.718,-45.17
44.734,-39.1
44.750,-33.87
44.765,-31.65
44.781,-33.45
44.796,-38.65
44.812,-45.16
44.828,-50.3
44.843,-51.54
44.859,-47.74
44.875,-38.57
44.890,-24.28
44.906,-7.17
44.921,9.87
44.937,24.4
44.953,34.98
44.968,41.16
44.984,43.88
45.000,43.58
45.015,41.4
45.031,38.91
45.046,35.13
45.062,28.71
45.078,19.32
45.093,8.41
45.109,-1.82
45.125,-8.78
45.140,-13.1
45.156,-16.16
45.171,-19.35
45.187,-26.73
45.203,-42.09
45.218,-66.9
45.234,-99.66
45.250,-136.78
45.265,-172.6
45.281,-204.06
45.296,-228.0
45.312,-223.69
45.328,-180.07
45.343,-102.52
45.359,-11.63
45.375,69.71
45.390,120.29
45.406,144.03
45.421,147.23
45.437,135.18
45.453,111.52
45.468,79.44
45.484,41.47
45.500,2.17
45.515,-31.88
45.531,-54.55
45.546,-54.73
45.562,-30.88
45.578,11.42
45.593,62.41
45.609,110.34
45.625,147.01
45.640,170.02
45.656,181.73
45.671,186.2
45.687,187.6
45.703,185.83
45.718,179.75
45.734,169.15
45.750,153.78
45.765,134.46
45.781,112.46
45.796,90.15
45.812,69.84
45.828,53.41
45.843,39.55
45.859,25.68
45.875,9.76
45.890,-9.64
45.906,-32.45
45.921,-56.47
45.937,-77.59
45.953,-91.3
45.968,-94.29
45.984,-83.54
46.000,-61.04
46.015,-31.94
46.031,-3.34
46.046,17.72
46.062,26.22
46.078,20.53
46.093,2.49
46.109,-23.11
46.125,-50.22
46.140,-73.05
46.156,-86.72
46.171,-88.5
46.187,-78.35
46.203,-58.82
46.218,-33.9
46.234,-7.85
46.250,15.86
46.265,35.14
46.281,49.29
46.296,59.7
46.312,69.27
46.328,81.04
46.343,96.38
46.359,113.61
46.375,127.98
46.390,133.47
46.406,125.58
46.421,103.51
46.437,71.19
46.453,35.63
46.468,4.05
46.484,-18.8
46.500,-31.55
46.515,-35.53
46.531,-33.0
46.546,-25.83
46.562,-15.42
46.578,-3.12
46.593,9.16
46.609,18.98
46.625,24.11
46.640,23.67
46.656,18.41
46.671,10.48
46.687,2.55
46.703,-3.41
46.718,-6.71
46.734,-8.0
46.750,-8.83
46.765,-10.78
46.781,-14.81
46.796,-20.87
46.812,-27.92
46.828,-34.47
46.843,-39.03
46.859,-40.61
46.875,-38.94
46.890,-34.42
46.906,-27.87
46.921,-20.34
46.937,-12.8
46.953,-6.0
46.968,-0.39
46.984,3.88
47.000,6.9
47.015,8.86
47.031,10.0
47.046,10.51
47.062,10.57
47.078,10.33
47.093,9.96
47.109,9.64
47.125,9.5
47.140,9.64
47.156,10.06
47.171,10.76
47.187,11.67
47.203,12.72
47.218,13.82
47.234,14.87
47.250,15.81
47.265,16.6
47.281,17.27
47.296,17.85
47.312,18.33
47.328,18.57
47.343,18.36
47.359,17.45
47.375,15.73
47.390,13.25
47.406,10.27
47.421,7.2
47.437,4.44
47.453,2.19
47.468,0.43
47.484,-1.15
47.500,-2.99
47.515,-5.52
47.531,-8.92
47.546,-13.02
47.562,-17.3
47.578,-20.99
47.593,-23.3
47.609,-23.68
47.625,-21.9
47.640,-18.15
47.656,-12.92
47.671,-6.85
47.687,-0.6
47.703,5.31
47.718,10.58
47.734,15.13
47.750,19.08
47.765,22.66
47.781,26.12
47.796,29.64
47.812,33.24
47.828,36.85
47.843,40.3
47.859,43.42
47.875,46.07
47.890,48.13
47.906,49.5
47.921,50.11
47.937,49.98
47.953,49.25
47.968,48.2
47.984,47.13
48.000,46.22
48.015,45.49
48.031,44.76
48.046,43.77
48.062,42.34
48.078,40.46
48.093,38.26
48.109,35.92
48.125,33.63
48.140,31.47
48.156,29.4
48.171,27.42
48.187,25.53
48.203,23.71
48.218,21.91
48.234,19.93
48.250,17.54
48.265,14.6
48.281,11.16
48.296,7.59
48.312,4.47
48.328,2.37
48.343,1.68
48.359,2.46
48.375,4.4
48.390,7.03
48.406,9.86
48.421,12.54
48.437,14.88
48.453,16.86
48.468,18.52
48.484,19.92
48.500,21.05
48.515,21.88
48.531,22.34
48.546,22.4
48.562,22.04
48.578,21.35
48.593,20.42
48.609,19.31
48.625,17.99
48.640,16.36
48.656,14.34
48.671,11.87
48.687,9.05
48.703,6.03
48.718,3.04
48.734,0.24
48.750,-2.3
48.765,-4.58
48.781,-6.65
48.796,-8.57
48.812,-10.42
48.828,-12.31
48.843,-14.4
48.859,-16.81
48.875,-19.53
48.890,-22.39
48.906,-25.07
48.921,-27.25
48.937,-28.77
48.953,-29.76
48.968,-30.54
48.984,-31.53
49.000,-33.0
49.015,-35.04
49.031,-37.48
49.046,-40.04
49.062,-42.37
49.078,-44.13
49.093,-44.96
49.109,-44.57
49.125,-42.73
49.140,-39.49
49.156,-35.12
49.171,-30.18
49.187,-25.29
49.203,-20.97
49.218,-17.5
49.234,-14.83
49.250,-12.7
49.265,-10.78
49.281,-8.81
49.296,-6.64
49.312,-4.33
49.328,-2.06
49.343,-0.01
49.359,1.68
49.375,2.97
49.390,3.89
49.406,4.54
49.421,4.98
49.437,5.24
49.453,5.36
49.468,5.36
49.484,5.35
49.500,5.42
49.515,5.65
49.531,5.97
49.546,6.19
49.562,6.08
49.578,5.47
49.593,4.37
49.609,2.92
49.625,1.36
49.640,-0.16
49.656,-1.53
49.671,-2.77
49.687,-3.9
49.703,-4.92
49.718,-5.86
49.734,-6.72
49.750,-7.62
49.765,-8.69
49.781,-10.1
49.796,-11.88
49.812,-13.92
49.828,-15.93
49.843,-17.52
49.859,-18.3
49.875,-18.1
49.890,-16.91
49.906,-15.01
49.921,-12.78
49.937,-10.57
49.953,-8.64
49.968,-7.02
49.984,-5.63
50.000,-4.32
50.015,-3.04
50.031,-1.83
50.046,-0.82
50.062,-0.14
50.078,0.24
50.093,0.44
50.109,0.69
50.125,1.19
50.140,2.0
50.156,2.97
50.171,3.86
50.187,4.44
50.203,4.6
50.218,4.36
50.234,3.85
50.250,3.16
50.265,2.33
50.281,1.4
50.296,0.46
50.312,-0.37
50.328,-0.94
50.343,-1.21
50.359,-1.3
50.375,-1.44
50.390,-1.89
50.406,-2.72
50.421,-3.84
50.437,-5.01
50.453,-5.97
50.468,-6.59
50.484,-6.95
50.500,-7.24
50.515,-7.66
50.531,-8.36
50.546,-9.35
50.562,-10.54
50.578,-11.83
50.593,-13.12
50.609,-14.32
50.625,-15.29
50.640,-15.84
50.656,-15.75
50.671,-14.89
50.687,-13.27
50.703,-11.11
50.718,-8.72
50.734,-6.34
50.750,-4.08
50.765,-1.95
50.781,0.19
50.796,2.34
50.812,4.38
50.828,6.11
50.843,7.29
50.859,7.79
50.875,7.65
50.890,7.04
50.906,6.15
50.921,5.15
50.937,4.16
50.953,3.25
50.968,2.52
50.984,2.06
51.000,1.99
51.015,2.35
51.031,3.09
51.046,4.06
51.062,5.0
51.078,5.69
51.093,6.0
51.109,5.89
51.125,5.43
51.140,4.72
51.156,3.79
51.171,2.68
51.187,1.43
51.203,0.13
51.218,-1.09
51.234,-2.12
51.250,-2.92
51.265,-3.63
51.281,-4.45
51.296,-5.51
51.312,-6.76
51.328,-7.96
51.343,-8.85
51.359,-9.34
51.375,-9.58
51.390,-9.93
51.406,-10.63
51.421,-11.63
51.437,-12.54
51.453,-12.78
51.468,-11.95
51.484,-10.02
51.500,-7.4
51.515,-4.74
51.531,-2.58
51.546,-1.1
51.562,-0.19
51.578,0.45
51.593,1.02
51.609,1.56
51.625,1.95
51.640,2.07
51.656,1.94
51.671,1.66
51.687,1.42
51.703,1.37
51.718,1.55
51.734,1.9
51.750,2.31
51.765,2.73
51.781,3.1
51.796,3.41
51.812,3.64
51.828,3.79
51.843,3.84
51.859,3.8
51.875,3.69
51.890,3.5
51.906,3.22
51.921,2.79
51.937,2.17
51.953,1.38
51.968,0.49
51.984,-0.4
52.000,-1.18
52.015,-1.78
52.031,-2.21
52.046,-2.52
52.062,-2.78
52.078,-3.08
52.093,-3.49
52.109,-4.08
52.125,-4.92
52.140,-5.99
52.156,-7.22
52.171,-8.45
52.187,-9.43
52.203,-9.93
52.218,-9.8
52.234,-9.06
52.250,-7.83
52.265,-6.3
52.281,-4.66
52.296,-3.06
52.312,-1.62
52.328,-0.39
52.343,0.55
52.359,1.13
52.375,1.33
52.390,1.15
52.406,0.69
52.421,0.1
52.437,-0.5
52.453,-1.01
52.468,-1.42
52.484,-1.73
52.500,-1.95
52.515,-2.06
52.531,-2.05
52.546,-1.94
52.562,-1.75
52.578,-1.54
52.593,-1.34
52.609,-1.07
52.625,-0.72
52.640,-0.3
52.656,0.04
52.671,0.06
52.687,-0.49
52.703,-1.67
52.718,-3.31
52.734,-5.07
52.750,-6.61
52.765,-7.73
52.781,-8.46
52.796,-8.96
52.812,-9.43
52.828,-9.96
52.843,-10.54
52.859,-11.12
52.875,-11.76
52.890,-12.54
52.906,-13.58
52.921,-14.85
52.937,-16.12
52.953,-17.03
52.968,-17.22
52.984,-16.5
53.000,-14.89
53.015,-12.66
53.031,-10.12
53.046,-7.55
53.062,-5.12
53.078,-2.91
53.093,-0.98
53.109,0.57
53.125,1.59
53.140,2.06
53.156,2.04
53.171,1.76
53.187,1.5
53.203,1.5
53.218,1.87
53.234,2.61
53.250,3.65
53.265,4.91
53.281,6.32
53.296,7.7
53.312,8.84
53.328,9.48
53.343,9.41
53.359,8.59
53.375,7.16
53.390,5.34
53.406,3.35
53.421,1.33
53.437,-0.65
53.453,-2.52
53.468,-4.16
53.484,-5.43
53.500,-6.28
53.515,-6.8
53.531,-7.22
53.546,-7.78
53.562,-8.7
53.578,-10.0
53.593,-11.65
53.609,-13.55
53.625,-15.63
53.640,-17.8
53.656,-19.94
53.671,-21.86
53.687,-23.32
53.703,-24.06
53.718,-23.92
53.734,-22.86
53.750,-20.96
53.765,-18.39
53.781,-15.34
53.796,-12.03
53.812,-8.66
53.828,-5.45
53.843,-2.56
53.859,-0.12
53.875,1.84
53.890,3.35
53.906,4.48
53.921,5.33
53.937,5.95
53.953,6.36
53.968,6.6
53.984,6.65
54.000,6.53
54.015,6.27
54.031,5.89
54.046,5.46
54.062,5.04
54.078,4.75
54.093,4.67
54.109,4.83
54.125,5.13
54.140,5.35
54.156,5.26
54.171,4.65
54.187,3.53
54.203,2.09
54.218,0.65
54.234,-0.56
54.250,-1.49
54.265,-2.32
54.281,-3.36
54.296,-4.86
54.312,-6.96
54.328,-9.62
54.343,-12.66
54.359,-15.83
54.375,-18.84
54.390,-21.33
54.406,-22.9
54.421,-23.16
54.437,-21.9
54.453,-19.12
54.468,-15.14
54.484,-10.5
54.500,-5.77
54.515,-1.49
54.531,2.04
54.546,4.73
54.562,6.66
54.578,7.98
54.593,8.79
54.609,9.18
54.625,9.19
54.640,8.88
54.656,8.38
54.671,7.85
54.687,7.49
54.703,7.42
54.718,7.68
54.734,8.22
54.750,8.94
54.765,9.75
54.781,10.59
54.796,11.36
54.812,11.95
54.828,12.19
54.843,11.89
54.859,10.94
54.875,9.35
54.890,7.27
54.906,4.95
54.921,2.69
54.937,0.7
54.953,-0.94
54.968,-2.3
54.984,-3.6
55.000,-5.07
55.015,-6.94
55.031,-9.32
55.046,-12.21
55.062,-15.38
55.078,-18.41
55.093,-20.77
55.109,-21.94
55.125,-21.56
55.140,-19.54
55.156,-16.17
55.171,-11.9
55.187,-7.31
55.203,-2.86
55.218,1.18
55.234,4.76
55.250,7.91
55.265,10.68
55.281,13.04
55.296,14.86
55.312,16.04
55.328,16.51
55.343,16.4
55.359,15.96
55.375,15.54
55.390,15.39
55.406,15.61
55.421,16.07
55.437,16.51
55.453,16.71
55.468,16.61
55.484,16.34
55.500,16.06
55.515,15.87
55.531,15.68
55.546,15.2
55.562,14.13
55.578,12.34
55.593,9.92
55.609,7.14
55.625,4.3
55.640,1.59
55.656,-1.03
55.671,-3.72
55.687,-6.65
55.703,-9.9
55.718,-13.48
55.734,-17.35
55.750,-21.44
55.765,-25.65
55.781,-29.7
55.796,-33.12
55.812,-35.3
55.828,-35.7
55.843,-34.08
55.859,-30.63
55.875,-25.93
55.890,-20.72
55.906,-15.61
55.921,-10.98
55.937,-6.91
55.953,-3.32
55.968,-0.15
55.984,2.62
56.000,4.89
56.015,6.59
56.031,7.72
56.046,8.37
56.062,8.67
56.078,8.74
56.093,8.68
56.109,8.51
56.125,8.24
56.140,7.93
56.156,7.67
56.171,7.57
56.187,7.74
56.203,8.18
56.218,8.73
56.234,9.11
56.250,8.92
56.265,7.79
56.281,5.49
56.296,2.11
56.312,-1.98
56.328,-6.24
56.343,-10.12
56.359,-13.31
56.375,-15.73
56.390,-17.68
56.406,-19.58
56.421,-21.86
56.437,-24.9
56.453,-28.8
56.468,-33.45
56.484,-38.43
56.500,-43.1
56.515,-46.65
56.531,-48.36
56.546,-47.73
56.562,-44.69
56.578,-39.58
56.593,-33.1
56.609,-26.02
56.625,-19.05
56.640,-12.67
56.656,-7.14
56.671,-2.48
56.687,1.37
56.703,4.56
56.718,7.23
56.734,9.54
56.750,11.64
56.765,13.62
56.781,15.58
56.796,17.51
56.812,19.33
56.828,20.87
56.843,21.95
56.859,22.44
56.875,22.36
56.890,21.89
56.906,21.3
56.921,20.82
56.937,20.53
56.953,20.27
56.968,19.7
56.984,18.46
57.000,16.23
57.015,12.87
57.031,8.5
57.046,3.4
57.062,-1.99
57.078,-7.21
57.093,-11.89
57.109,-15.8
57.125,-18.98
57.140,-21.66
57.156,-24.28
57.171,-27.3
57.187,-31.08
57.203,-35.6
57.218,-40.42
57.234,-44.68
57.250,-47.31
57.265,-47.41
57.281,-44.56
57.296,-39.0
57.312,-31.46
57.328,-22.97
57.343,-14.46
57.359,-6.55
57.375,0.48
57.390,6.55
57.406,11.68
57.421,15.93
57.437,19.39
57.453,22.24
57.468,24.68
57.484,26.9
57.500,28.98
57.515,30.92
57.531,32.61
57.546,33.93
57.562,34.74
57.578,35.0
57.593,34.76
57.609,34.18
57.625,33.52
57.640,32.96
57.656,32.61
57.671,32.34
57.687,31.87
57.703,30.89
57.718,29.15
57.734,26.59
57.750,23.32
57.765,19.53
57.781,15.39
57.796,11.05
57.812,6.71
57.828,2.6
57.843,-1.11
57.859,-4.38
57.875,-7.46
57.890,-10.84
57.906,-15.03
57.921,-20.26
57.937,-26.31
57.953,-32.4
57.968,-37.44
57.984,-40.34
58.000,-40.37
58.015,-37.34
58.031,-31.6
58.046,-23.91
58.062,-15.22
58.078,-6.45
58.093,1.65
58.109,8.69
58.125,14.6
58.140,19.58
58.156,23.95
58.171,27.92
58.187,31.5
58.203,34.5
58.218,36.72
58.234,38.08
58.250,38.71
58.265,38.93
58.281,39.04
58.296,39.17
58.312,39.28
58.328,39.18
58.343,38.73
58.359,37.89
58.375,36.78
58.390,35.55
58.406,34.31
58.421,33.03
58.437,31.62
58.453,29.91
58.468,27.78
58.484,25.15
58.500,22.01
58.515,18.4
58.531,14.4
58.546,10.15
58.562,5.74
58.578,1.26
58.593,-3.3
58.609,-8.03
58.625,-13.1
58.640,-18.63
58.656,-24.63
58.671,-30.89
58.687,-36.93
58.703,-42.06
58.718,-45.5
58.734,-46.59
58.750,-44.98
58.765,-40.77
58.781,-34.49
58.796,-26.89
58.812,-18.74
58.828,-10.68
58.843,-3.07
58.859,3.91
58.875,10.17
58.890,15.63
58.906,20.21
58.921,23.85
58.937,26.58
58.953,28.49
58.968,29.78
58.984,30.69
59.000,31.4
59.015,31.97
59.031,32.37
59.046,32.46
59.062,32.16
59.078,31.5
59.093,30.66
59.109,29.91
59.125,29.47
59.140,29.34
59.156,29.31
59.171,28.95
59.187,27.85
59.203,25.72
59.218,22.57
59.234,18.61
59.250,14.2
59.265,9.74
59.281,5.49
59.296,1.56
59.312,-2.13
59.328,-5.89
59.343,-10.16
59.359,-15.32
59.375,-21.6
59.390,-28.8
59.406,-36.27
59.421,-42.99
59.437,-47.85
59.453,-49.85
59.468,-48.49
59.484,-43.8
59.500,-36.33
59.515,-27.03
59.531,-17.0
59.546,-7.2
59.562,1.63
59.578,9.14
59.593,15.31
59.609,20.34
59.625,24.5
59.640,27.97
59.656,30.84
59.671,33.14
59.687,34.91
59.703,36.27
59.718,37.33
59.734,38.09
59.750,38.41
59.765,38.05
59.781,36.84
59.796,34.84
59.812,32.38
59.828,29.94
59.843,27.95
59.859,26.55
59.875,25.54
59.890,24.42
59.906,22.65
59.921,19.86
59.937,16.0
59.953,11.36
59.968,6.42
59.984,1.67
