timestamp,value
00.000,10.52
00.015,6.51
00.031,3.11
00.046,0.45
00.062,-1.12
00.078,-1.29
00.093,0.03
00.109,2.62
00.125,6.02
00.140,9.85
00.156,13.88
00.171,18.2
00.187,22.7
00.203,27.13
00.218,30.75
00.234,33.02
00.250,33.78
00.265,33.65
00.281,33.72
00.296,35.12
00.312,38.32
00.328,42.68
00.343,46.65
00.359,48.07
00.375,44.97
00.390,36.15
00.406,21.75
00.421,3.03
00.437,-17.69
00.453,-37.65
00.468,-54.27
00.484,-65.65
00.500,-71.03
00.515,-70.79
00.531,-66.2
00.546,-59.07
00.562,-51.34
00.578,-44.67
00.593,-40.25
00.609,-38.75
00.625,-40.44
00.640,-45.38
00.656,-53.46
00.671,-64.21
00.687,-76.69
00.703,-89.46
00.718,-100.99
00.734,-110.03
00.750,-116.05
00.765,-119.14
00.781,-119.84
00.796,-118.61
00.812,-115.7
00.828,-111.25
00.843,-105.62
00.859,-99.52
00.875,-93.81
00.890,-88.96
00.906,-84.54
00.921,-79.52
00.937,-72.81
00.953,-64.24
00.968,-54.68
00.984,-45.8
01.000,-39.21
01.015,-35.61
01.031,-34.45
01.046,-34.16
01.062,-33.18
01.078,-30.74
01.093,-27.52
01.109,-25.13
01.125,-25.21
01.140,-28.52
01.156,-34.42
01.171,-41.24
01.187,-46.89
01.203,-49.98
01.218,-50.25
01.234,-48.75
01.250,-47.18
01.265,-47.11
01.281,-49.32
01.296,-53.56
01.312,-58.78
01.328,-63.37
01.343,-65.66
01.359,-64.16
01.375,-57.99
01.390,-47.15
01.406,-32.73
01.421,-16.71
01.437,-1.28
01.453,11.85
01.468,22.1
01.484,29.95
01.500,36.5
01.515,42.65
01.531,48.77
01.546,54.64
01.562,59.86
01.578,64.35
01.593,68.3
01.609,72.16
01.625,76.34
01.640,81.2
01.656,87.04
01.671,94.27
01.687,103.21
01.703,113.93
01.718,126.12
01.734,138.78
01.750,150.7
01.765,160.54
01.781,167.12
01.796,169.49
01.812,167.07
01.828,159.73
01.843,148.05
01.859,133.24
01.875,116.9
01.890,100.53
01.906,84.98
01.921,70.29
01.937,55.91
01.953,41.34
01.968,26.69
01.984,12.85
02.000,1.26
02.015,-6.9
02.031,-11.12
02.046,-11.87
02.062,-10.34
02.078,-7.83
02.093,-5.4
02.109,-3.61
02.125,-2.71
02.140,-2.8
02.156,-4.01
02.171,-6.47
02.187,-10.32
02.203,-15.51
02.218,-21.57
02.234,-27.81
02.250,-33.43
02.265,-37.8
02.281,-40.63
02.296,-42.11
02.312,-42.73
02.328,-43.13
02.343,-43.66
02.359,-44.14
02.375,-43.93
02.390,-42.2
02.406,-38.37
02.421,-32.43
02.437,-24.99
02.453,-17.01
02.468,-9.41
02.484,-2.71
02.500,3.11
02.515,8.27
02.531,13.14
02.546,17.81
02.562,22.14
02.578,25.81
02.593,28.57
02.609,30.06
02.625,29.94
02.640,27.92
02.656,23.54
02.671,16.66
02.687,7.47
02.703,-3.35
02.718,-14.8
02.734,-26.18
02.750,-37.73
02.765,-50.7
02.781,-66.62
02.796,-86.07
02.812,-107.56
02.828,-127.59
02.843,-141.77
02.859,-146.73
02.875,-141.65
02.890,-128.44
02.906,-110.65
02.921,-91.77
02.937,-73.87
02.953,-57.37
02.968,-41.77
02.984,-26.84
03.000,-13.04
03.015,-1.53
03.031,6.79
03.046,11.65
03.062,13.55
03.078,13.29
03.093,11.65
03.109,9.11
03.125,5.94
03.140,2.58
03.156,-0.37
03.171,-1.91
03.187,-0.99
03.203,3.15
03.218,10.58
03.234,20.76
03.250,32.7
03.265,45.53
03.281,58.63
03.296,71.42
03.312,83.17
03.328,92.43
03.343,97.26
03.359,95.8
03.375,87.11
03.390,71.86
03.406,52.34
03.421,31.93
03.437,14.13
03.453,1.93
03.468,-2.78
03.484,0.74
03.500,11.95
03.515,28.74
03.531,47.47
03.546,63.59
03.562,72.86
03.578,72.8
03.593,63.56
03.609,47.62
03.625,28.71
03.640,10.23
03.656,-5.67
03.671,-18.27
03.687,-27.62
03.703,-33.82
03.718,-36.67
03.734,-35.94
03.750,-31.86
03.765,-25.45
03.781,-18.19
03.796,-11.56
03.812,-6.33
03.828,-2.47
03.843,0.88
03.859,5.05
03.875,11.21
03.890,19.93
03.906,30.89
03.921,42.92
03.937,54.19
03.953,62.99
03.968,68.05
03.984,68.92
04.000,66.08
04.015,60.59
04.031,53.58
04.046,45.92
04.062,37.93
04.078,29.36
04.093,19.93
04.109,9.73
04.125,-0.52
04.140,-9.51
04.156,-15.91
04.171,-18.94
04.187,-18.76
04.203,-16.4
04.218,-13.26
04.234,-10.39
04.250,-7.95
04.265,-5.25
04.281,-1.22
04.296,4.84
04.312,12.84
04.328,21.85
04.343,30.51
04.359,37.39
04.375,41.62
04.390,42.97
04.406,41.85
04.421,39.08
04.437,35.48
04.453,31.48
04.468,27.07
04.484,21.83
04.500,15.26
04.515,7.25
04.531,-1.79
04.546,-11.07
04.562,-19.71
04.578,-27.08
04.593,-33.08
04.609,-37.8
04.625,-41.51
04.640,-44.42
04.656,-46.66
04.671,-48.27
04.687,-49.44
04.703,-50.44
04.718,-51.46
04.734,-52.62
04.750,-53.8
04.765,-54.67
04.781,-54.7
04.796,-53.26
04.812,-49.92
04.828,-44.55
04.843,-37.41
04.859,-29.11
04.875,-20.4
04.890,-11.75
04.906,-3.14
04.921,5.8
04.937,15.52
04.953,25.97
04.968,36.57
04.984,46.36
05.000,54.34
05.015,59.98
05.031,63.12
05.046,63.69
05.062,61.35
05.078,55.58
05.093,46.01
05.109,33.09
05.125,18.18
05.140,3.01
05.156,-11.13
05.171,-23.95
05.187,-36.16
05.203,-48.7
05.218,-61.68
05.234,-73.92
05.250,-83.2
05.265,-87.19
05.281,-84.54
05.296,-75.33
05.312,-60.97
05.328,-43.5
05.343,-24.75
05.359,-5.85
05.375,12.91
05.390,31.6
05.406,50.11
05.421,67.76
05.437,83.18
05.453,94.57
05.468,100.51
05.484,100.45
05.500,95.09
05.515,86.04
05.531,75.25
05.546,63.97
05.562,52.57
05.578,40.8
05.593,28.7
05.609,17.24
05.625,8.12
05.640,2.91
05.656,1.68
05.671,2.76
05.687,3.36
05.703,1.39
05.718,-3.21
05.734,-8.05
05.750,-9.79
05.765,-6.18
05.781,2.39
05.796,13.11
05.812,22.27
05.828,27.16
05.843,27.23
05.859,23.67
05.875,18.29
05.890,12.28
05.906,5.9
05.921,-1.02
05.937,-8.25
05.953,-14.98
05.968,-20.23
05.984,-23.52
06.000,-25.15
06.015,-26.02
06.031,-26.93
06.046,-28.1
06.062,-29.24
06.078,-29.83
06.093,-29.36
06.109,-27.55
06.125,-24.34
06.140,-19.8
06.156,-14.4
06.171,-8.83
06.187,-4.05
06.203,-0.76
06.218,0.75
06.234,0.99
06.250,0.96
06.265,1.79
06.281,3.91
06.296,6.92
06.312,9.71
06.328,11.22
06.343,10.84
06.359,8.78
06.375,5.77
06.390,2.53
06.406,-0.4
06.421,-3.12
06.437,-6.14
06.453,-10.08
06.468,-15.24
06.484,-21.58
06.500,-28.81
06.515,-36.68
06.531,-45.22
06.546,-54.38
06.562,-63.91
06.578,-73.21
06.593,-81.4
06.609,-87.72
06.625,-91.9
06.640,-94.33
06.656,-95.92
06.671,-97.59
06.687,-99.42
06.703,-100.19
06.718,-97.31
06.734,-87.92
06.750,-70.14
06.765,-44.23
06.781,-12.87
06.796,19.56
06.812,48.61
06.828,71.44
06.843,87.22
06.859,96.77
06.875,101.26
06.890,101.17
06.906,96.17
06.921,86.09
06.937,71.94
06.953,56.32
06.968,42.7
06.984,33.71
07.000,29.58
07.015,28.01
07.031,25.57
07.046,19.69
07.062,10.5
07.078,0.7
07.093,-6.06
07.109,-7.38
07.125,-3.47
07.140,3.1
07.156,8.87
07.171,11.45
07.187,10.5
07.203,7.23
07.218,3.08
07.234,-1.61
07.250,-7.55
07.265,-15.74
07.281,-26.03
07.296,-36.87
07.312,-45.72
07.328,-50.21
07.343,-49.24
07.359,-43.3
07.375,-34.25
07.390,-24.59
07.406,-16.72
07.421,-11.92
07.437,-10.03
07.453,-9.26
07.468,-6.66
07.484,0.8
07.500,14.6
07.515,33.39
07.531,52.98
07.546,67.72
07.562,73.05
07.578,67.74
07.593,54.46
07.609,38.28
07.625,24.16
07.640,14.61
07.656,9.07
07.671,5.22
07.687,0.82
07.703,-4.37
07.718,-8.68
07.734,-9.98
07.750,-7.25
07.765,-1.48
07.781,4.88
07.796,9.33
07.812,10.68
07.828,9.43
07.843,7.03
07.859,4.9
07.875,3.36
07.890,1.48
07.906,-2.42
07.921,-9.58
07.937,-20.08
07.953,-32.65
07.968,-45.12
07.984,-55.33
08.000,-61.94
08.015,-64.61
08.031,-63.9
08.046,-60.95
08.062,-56.87
08.078,-52.42
08.093,-48.21
08.109,-44.56
08.125,-41.72
08.140,-39.69
08.156,-38.09
08.171,-36.04
08.187,-32.58
08.203,-27.11
08.218,-19.72
08.234,-11.42
08.250,-3.48
08.265,3.12
08.281,8.24
08.296,12.34
08.312,16.08
08.328,19.64
08.343,22.41
08.359,23.55
08.375,22.51
08.390,19.8
08.406,16.89
08.421,15.51
08.437,16.62
08.453,19.79
08.468,23.5
08.484,25.88
08.500,25.69
08.515,22.75
08.531,17.67
08.546,10.91
08.562,2.33
08.578,-8.4
08.593,-21.02
08.609,-33.86
08.625,-44.08
08.640,-48.89
08.656,-46.87
08.671,-38.8
08.687,-27.0
08.703,-14.16
08.718,-1.91
08.734,9.52
08.750,20.72
08.765,32.09
08.781,43.27
08.796,53.46
08.812,61.95
08.828,68.71
08.843,74.07
08.859,78.2
08.875,80.63
08.890,80.37
08.906,76.54
08.921,69.07
08.937,58.96
08.953,47.74
08.968,37.1
08.984,28.28
09.000,21.91
09.015,17.93
09.031,15.68
09.046,14.07
09.062,12.03
09.078,8.87
09.093,4.67
09.109,0.43
09.125,-2.39
09.140,-2.59
09.156,0.22
09.171,5.38
09.187,11.76
09.203,18.36
09.218,24.65
09.234,30.51
09.250,36.03
09.265,41.06
09.281,45.25
09.296,48.33
09.312,50.27
09.328,51.25
09.343,51.65
09.359,51.9
09.375,52.31
09.390,53.11
09.406,54.15
09.421,54.87
09.437,54.43
09.453,51.94
09.468,46.93
09.484,39.64
09.500,31.08
09.515,22.39
09.531,14.39
09.546,7.21
09.562,0.33
09.578,-6.83
09.593,-14.59
09.609,-22.88
09.625,-31.41
09.640,-39.85
09.656,-47.82
09.671,-54.87
09.687,-60.34
09.703,-63.42
09.718,-63.44
09.734,-60.09
09.750,-53.35
09.765,-43.58
09.781,-31.37
09.796,-17.64
09.812,-3.71
09.828,8.8
09.843,18.32
09.859,23.89
09.875,25.59
09.890,24.5
09.906,22.09
09.921,19.45
09.937,16.85
09.953,13.88
09.968,10.01
09.984,5.01
10.000,-0.93
10.015,-7.35
10.031,-13.79
10.046,-19.78
10.062,-24.79
10.078,-28.11
10.093,-29.01
10.109,-27.12
10.125,-22.79
10.140,-17.18
10.156,-11.75
10.171,-7.67
10.187,-5.47
10.203,-5.12
10.218,-6.5
10.234,-9.79
10.250,-15.33
10.265,-23.3
10.281,-32.99
10.296,-42.87
10.312,-50.85
10.328,-55.1
10.343,-54.76
10.359,-50.11
10.375,-42.39
10.390,-33.06
10.406,-23.53
10.421,-14.96
10.437,-8.28
10.453,-4.18
10.468,-2.9
10.484,-4.15
10.500,-7.18
10.515,-11.28
10.531,-16.08
10.546,-21.92
10.562,-29.47
10.578,-39.24
10.593,-50.96
10.609,-63.41
10.625,-74.78
10.640,-83.26
10.656,-87.8
10.671,-88.41
10.687,-85.79
10.703,-80.94
10.718,-74.57
10.734,-67.06
10.750,-58.37
10.765,-48.37
10.781,-36.9
10.796,-23.84
10.812,-9.19
10.828,6.97
10.843,24.1
10.859,41.18
10.875,56.61
10.890,68.75
10.906,76.43
10.921,79.48
10.937,78.66
10.953,75.1
10.968,69.77
10.984,62.99
11.000,54.56
11.015,44.22
11.031,32.16
11.046,19.03
11.062,5.82
11.078,-6.65
11.093,-17.99
11.109,-28.13
11.125,-37.07
11.140,-44.78
11.156,-51.23
11.171,-56.6
11.187,-61.51
11.203,-66.69
11.218,-72.42
11.234,-78.16
11.250,-82.22
11.265,-82.26
11.281,-76.24
11.296,-63.36
11.312,-44.53
11.328,-22.24
11.343,0.22
11.359,19.89
11.375,34.95
11.390,45.27
11.406,52.35
11.421,58.64
11.437,66.68
11.453,78.11
11.468,92.63
11.484,107.79
11.500,119.38
11.515,122.71
11.531,114.59
11.546,94.68
11.562,66.25
11.578,35.0
11.593,7.28
11.609,-12.38
11.625,-22.45
11.640,-24.34
11.656,-21.17
11.671,-15.96
11.687,-10.63
11.703,-5.96
11.718,-2.23
11.734,-0.03
11.750,-0.38
11.765,-4.17
11.781,-11.36
11.796,-20.57
11.812,-29.45
11.828,-35.66
11.843,-37.92
11.859,-36.39
11.875,-32.27
11.890,-26.83
11.906,-20.7
11.921,-13.82
11.937,-6.09
11.953,2.14
11.968,9.8
11.984,15.73
12.000,19.35
12.015,20.8
12.031,20.68
12.046,19.16
12.062,15.81
12.078,9.74
12.093,0.66
12.109,-10.46
12.125,-21.38
12.140,-29.53
12.156,-33.37
12.171,-33.07
12.187,-30.35
12.203,-27.21
12.218,-24.78
12.234,-22.82
12.250,-20.01
12.265,-14.82
12.281,-6.35
12.296,5.19
12.312,18.55
12.328,31.93
12.343,43.58
12.359,52.43
12.375,58.31
12.390,61.81
12.406,63.77
12.421,64.72
12.437,64.43
12.453,62.04
12.468,56.67
12.484,47.93
12.500,36.39
12.515,23.26
12.531,10.01
12.546,-2.35
12.562,-13.3
12.578,-22.65
12.593,-30.3
12.609,-35.86
12.625,-38.96
12.640,-39.55
12.656,-38.24
12.671,-36.25
12.687,-35.0
12.703,-35.49
12.718,-37.69
12.734,-40.75
12.750,-43.35
12.765,-44.54
12.781,-44.21
12.796,-43.03
12.812,-41.97
12.828,-41.54
12.843,-41.4
12.859,-40.51
12.875,-37.87
12.890,-33.09
12.906,-26.79
12.921,-20.23
12.937,-14.52
12.953,-10.05
12.968,-6.19
12.984,-1.82
13.000,4.14
13.015,11.95
13.031,21.0
13.046,30.09
13.062,37.9
13.078,43.49
13.093,46.51
13.109,47.03
13.125,45.48
13.140,42.47
13.156,38.57
13.171,34.23
13.187,29.7
13.203,25.08
13.218,20.37
13.234,15.69
13.250,11.21
13.265,7.13
13.281,3.71
13.296,1.24
13.312,0.1
13.328,0.74
13.343,3.51
13.359,8.43
13.375,14.96
13.390,22.05
13.406,28.44
13.421,33.11
13.437,35.44
13.453,35.38
13.468,33.19
13.484,29.2
13.500,23.77
13.515,17.41
13.531,10.84
13.546,4.84
13.562,0.11
13.578,-3.3
13.593,-5.78
13.609,-7.96
13.625,-10.41
13.640,-13.27
13.656,-16.28
13.671,-18.98
13.687,-20.9
13.703,-21.87
13.718,-22.18
13.734,-22.26
13.750,-22.42
13.765,-22.78
13.781,-23.04
13.796,-22.77
13.812,-21.53
13.828,-19.09
13.843,-15.37
13.859,-10.53
13.875,-4.71
13.890,1.94
13.906,8.98
13.921,15.81
13.937,21.54
13.953,25.33
13.968,26.53
13.984,25.07
14.000,21.24
14.015,15.61
14.031,8.92
14.046,1.84
14.062,-4.83
14.078,-10.29
14.093,-13.95
14.109,-15.63
14.125,-15.7
14.140,-14.89
14.156,-13.91
14.171,-13.14
14.187,-12.42
14.203,-11.33
14.218,-9.59
14.234,-7.37
14.250,-5.18
14.265,-3.86
14.281,-4.01
14.296,-5.77
14.312,-8.6
14.328,-11.3
14.343,-12.25
14.359,-10.02
14.375,-3.96
14.390,5.51
14.406,16.75
14.421,27.57
14.437,35.86
14.453,40.31
14.468,40.56
14.484,37.18
14.500,31.24
14.515,23.92
14.531,16.43
14.546,9.92
14.562,5.45
14.578,3.73
14.593,4.82
14.609,7.86
14.625,11.23
14.640,12.98
14.656,11.57
14.671,6.48
14.687,-1.65
14.703,-11.24
14.718,-20.42
14.734,-27.58
14.750,-31.9
14.765,-33.43
14.781,-32.87
14.796,-31.13
14.812,-28.79
14.828,-26.05
14.843,-22.68
14.859,-18.44
14.875,-13.33
14.890,-7.7
14.906,-2.31
14.921,1.95
14.937,4.29
14.953,4.4
14.968,2.5
14.984,-0.46
15.000,-3.16
15.015,-4.3
15.031,-3.06
15.046,0.47
15.062,5.43
15.078,10.32
15.093,13.7
15.109,14.61
15.125,12.99
15.140,9.45
15.156,4.91
15.171,0.25
15.187,-4.1
15.203,-8.08
15.218,-11.95
15.234,-16.0
15.250,-20.42
15.265,-25.09
15.281,-29.66
15.296,-33.6
15.312,-36.34
15.328,-37.55
15.343,-37.09
15.359,-35.11
15.375,-31.94
15.390,-27.91
15.406,-23.36
15.421,-18.59
15.437,-13.84
15.453,-9.39
15.468,-5.65
15.484,-3.02
15.500,-1.75
15.515,-1.96
15.531,-3.54
15.546,-6.22
15.562,-9.55
15.578,-12.98
15.593,-15.96
15.609,-18.08
15.625,-19.2
15.640,-19.53
15.656,-19.7
15.671,-20.52
15.687,-22.74
15.703,-26.67
15.718,-32.09
15.734,-38.27
15.750,-44.25
15.765,-49.19
15.781,-52.6
15.796,-54.27
15.812,-54.2
15.828,-52.33
15.843,-48.73
15.859,-43.56
15.875,-37.25
15.890,-30.56
15.906,-24.28
15.921,-19.15
15.937,-15.35
15.953,-12.52
15.968,-9.82
15.984,-6.39
16.000,-1.58
16.015,4.84
16.031,12.49
16.046,20.51
16.062,27.64
16.078,32.53
16.093,34.05
16.109,31.73
16.125,25.79
16.140,17.08
16.156,6.66
16.171,-4.73
16.187,-16.86
16.203,-29.94
16.218,-44.33
16.234,-60.14
16.250,-76.94
16.265,-93.82
16.281,-109.54
16.296,-122.59
16.312,-131.42
16.328,-134.22
16.343,-129.54
16.359,-116.77
16.375,-96.62
16.390,-71.34
16.406,-44.16
16.421,-18.42
16.437,3.49
16.453,20.46
16.468,32.83
16.484,41.68
16.500,48.22
16.515,53.36
16.531,57.64
16.546,61.36
16.562,64.8
16.578,68.45
16.593,72.66
16.609,77.71
16.625,83.65
16.640,90.28
16.656,97.24
16.671,104.0
16.687,109.89
16.703,114.19
16.718,116.2
16.734,115.12
16.750,110.11
16.765,100.61
16.781,86.61
16.796,68.98
16.812,49.35
16.828,29.72
16.843,11.98
16.859,-2.76
16.875,-14.37
16.890,-23.49
16.906,-31.03
16.921,-37.78
16.937,-43.98
16.953,-49.55
16.968,-54.33
16.984,-58.2
17.000,-61.31
17.015,-64.02
17.031,-66.59
17.046,-68.88
17.062,-70.28
17.078,-69.49
17.093,-64.91
17.109,-55.31
17.125,-40.22
17.140,-20.44
17.156,2.13
17.171,24.95
17.187,45.52
17.203,61.92
17.218,73.11
17.234,79.09
17.250,80.61
17.265,78.99
17.281,75.87
17.296,72.73
17.312,70.6
17.328,69.73
17.343,69.59
17.359,69.14
17.375,67.28
17.390,63.11
17.406,56.26
17.421,46.81
17.437,35.32
17.453,22.72
17.468,10.12
17.484,-1.33
17.500,-10.69
17.515,-17.45
17.531,-21.74
17.546,-24.16
17.562,-25.66
17.578,-27.29
17.593,-29.85
17.609,-33.82
17.625,-39.18
17.640,-45.38
17.656,-51.45
17.671,-56.16
17.687,-58.41
17.703,-57.51
17.718,-53.45
17.734,-46.74
17.750,-38.31
17.765,-29.05
17.781,-19.63
17.796,-10.41
17.812,-1.53
17.828,6.83
17.843,14.37
17.859,20.61
17.875,25.19
17.890,27.79
17.906,28.35
17.921,27.08
17.937,24.3
17.953,20.45
17.968,15.92
17.984,11.08
18.000,6.1
18.015,1.17
18.031,-3.69
18.046,-8.44
18.062,-12.88
18.078,-16.65
18.093,-19.26
18.109,-20.26
18.125,-19.54
18.140,-17.45
18.156,-14.63
18.171,-11.9
18.187,-9.89
18.203,-8.87
18.218,-8.78
18.234,-9.41
18.250,-10.55
18.265,-12.08
18.281,-13.89
18.296,-15.62
18.312,-16.8
18.328,-16.85
18.343,-15.25
18.359,-11.93
18.375,-7.25
18.390,-1.92
18.406,3.25
18.421,7.71
18.437,11.33
18.453,14.33
18.468,16.95
18.484,19.42
18.500,21.54
18.515,22.91
18.531,23.17
18.546,22.19
18.562,20.23
18.578,17.78
18.593,15.39
18.609,13.45
18.625,12.19
18.640,11.54
18.656,11.43
18.671,11.69
18.687,12.11
18.703,12.4
18.718,12.16
18.734,11.02
18.750,8.77
18.765,5.56
18.781,1.63
18.796,-2.7
18.812,-7.37
18.828,-12.57
18.843,-18.79
18.859,-26.43
18.875,-35.47
18.890,-45.45
18.906,-55.34
18.921,-64.02
18.937,-70.46
18.953,-73.96
18.968,-74.28
18.984,-71.57
19.000,-66.15
19.015,-58.48
19.031,-49.11
19.046,-38.59
19.062,-27.63
19.078,-16.91
19.093,-6.99
19.109,1.88
19.125,9.77
19.140,16.9
19.156,23.51
19.171,29.58
19.187,34.95
19.203,39.3
19.218,42.35
19.234,44.03
19.250,44.38
19.265,43.59
19.281,41.91
19.296,39.67
19.312,37.27
19.328,35.3
19.343,34.28
19.359,34.54
19.375,36.1
19.390,38.5
19.406,41.25
19.421,43.85
19.437,46.03
19.453,47.65
19.468,48.69
19.484,49.01
19.500,48.42
19.515,46.67
19.531,43.44
19.546,38.63
19.562,32.4
19.578,25.18
19.593,17.58
19.609,10.26
19.625,3.8
19.640,-1.33
19.656,-4.78
19.671,-6.4
19.687,-6.26
19.703,-4.61
19.718,-2.03
19.734,0.79
19.750,3.22
19.765,4.83
19.781,5.56
19.796,5.65
19.812,5.41
19.828,5.04
19.843,4.56
19.859,3.82
19.875,2.74
19.890,1.46
19.906,0.33
19.921,-0.18
19.937,0.26
19.953,1.73
19.968,4.02
19.984,6.68
20.000,9.24
20.015,11.47
20.031,13.42
20.046,15.18
20.062,16.76
20.078,17.92
20.093,18.23
20.109,17.32
20.125,15.03
20.140,11.58
20.156,7.51
20.171,3.45
20.187,-0.29
20.203,-3.77
20.218,-7.5
20.234,-11.91
20.250,-17.22
20.265,-23.13
20.281,-28.92
20.296,-33.82
20.312,-37.26
20.328,-39.04
20.343,-39.21
20.359,-37.95
20.375,-35.29
20.390,-31.25
20.406,-25.96
20.421,-19.86
20.437,-13.58
20.453,-7.72
20.468,-2.54
20.484,2.12
20.500,6.72
20.515,11.68
20.531,17.06
20.546,22.58
20.562,27.6
20.578,31.5
20.593,33.89
20.609,34.73
20.625,34.28
20.640,32.81
20.656,30.57
20.671,27.75
20.687,24.55
20.703,21.24
20.718,18.14
20.734,15.55
20.750,13.66
20.765,12.55
20.781,12.06
20.796,11.99
20.812,12.06
20.828,11.99
20.843,11.59
20.859,10.61
20.875,8.92
20.890,6.59
20.906,3.85
20.921,1.03
20.937,-1.6
20.953,-3.98
20.968,-6.31
20.984,-8.85
21.000,-11.71
21.015,-14.8
21.031,-17.81
21.046,-20.35
21.062,-22.18
21.078,-23.26
21.093,-23.67
21.109,-23.43
21.125,-22.46
21.140,-20.47
21.156,-17.17
21.171,-12.6
21.187,-7.09
21.203,-1.3
21.218,4.0
21.234,8.17
21.250,10.93
21.265,12.4
21.281,12.92
21.296,12.83
21.312,12.41
21.328,11.81
21.343,11.15
21.359,10.54
21.375,10.07
21.390,9.87
21.406,10.0
21.421,10.5
21.437,11.32
21.453,12.37
21.468,13.46
21.484,14.33
21.500,14.77
21.515,14.59
21.531,13.77
21.546,12.35
21.562,10.39
21.578,7.86
21.593,4.65
21.609,0.81
21.625,-3.51
21.640,-7.93
21.656,-11.95
21.671,-15.23
21.687,-17.73
21.703,-19.63
21.718,-21.3
21.734,-22.95
21.750,-24.51
21.765,-25.68
21.781,-26.03
21.796,-25.17
21.812,-22.85
21.828,-18.91
21.843,-13.04
21.859,-4.96
21.875,5.52
21.890,18.28
21.906,32.58
21.921,47.19
21.937,60.59
21.953,71.26
21.968,77.98
21.984,80.05
22.000,77.42
22.015,70.68
22.031,60.98
22.046,49.79
22.062,38.63
22.078,28.65
22.093,20.38
22.109,13.62
22.125,7.76
22.140,2.28
22.156,-2.93
22.171,-7.44
22.187,-10.49
22.203,-11.38
22.218,-9.89
22.234,-6.52
22.250,-2.29
22.265,1.76
22.281,4.81
22.296,6.61
22.312,7.27
22.328,7.08
22.343,6.35
22.359,5.31
22.375,4.1
22.390,2.87
22.406,1.63
22.421,0.06
22.437,-2.43
22.453,-6.54
22.468,-12.55
22.484,-20.01
22.500,-27.52
22.515,-33.35
22.531,-35.97
22.546,-34.83
22.562,-30.52
22.578,-24.42
22.593,-17.92
22.609,-12.06
22.625,-7.24
22.640,-3.48
22.656,-0.69
22.671,1.21
22.687,2.32
22.703,2.8
22.718,3.03
22.734,3.48
22.750,4.53
22.765,6.37
22.781,8.95
22.796,11.99
22.812,15.19
22.828,18.17
22.843,20.65
22.859,22.51
22.875,23.77
22.890,24.61
22.906,25.29
22.921,25.94
22.937,26.31
22.953,25.91
22.968,24.13
22.984,20.5
23.000,15.06
23.015,8.31
23.031,0.97
23.046,-6.27
23.062,-13.1
23.078,-19.72
23.093,-26.53
23.109,-33.84
23.125,-41.55
23.140,-49.13
23.156,-55.83
23.171,-60.99
23.187,-64.27
23.203,-65.63
23.218,-65.29
23.234,-63.47
23.250,-60.5
23.265,-56.74
23.281,-52.71
23.296,-48.87
23.312,-45.29
23.328,-41.61
23.343,-37.08
23.359,-30.99
23.375,-23.06
23.390,-13.76
23.406,-4.15
23.421,4.56
23.437,11.46
23.453,16.34
23.468,19.66
23.484,22.15
23.500,24.74
23.515,28.2
23.531,32.97
23.546,39.13
23.562,46.25
23.578,53.46
23.593,59.65
23.609,63.76
23.625,65.07
23.640,63.48
23.656,59.5
23.671,54.04
23.687,48.12
23.703,42.53
23.718,37.52
23.734,32.93
23.750,28.19
23.765,22.69
23.781,16.06
23.796,8.41
23.812,0.25
23.828,-7.49
23.843,-13.78
23.859,-17.81
23.875,-19.01
23.890,-17.33
23.906,-13.2
23.921,-7.5
23.937,-1.55
23.953,3.27
23.968,5.99
23.984,6.29
24.000,4.58
24.015,1.77
24.031,-1.18
24.046,-3.58
24.062,-5.06
24.078,-5.66
24.093,-5.55
24.109,-4.91
24.125,-3.95
24.140,-2.96
24.156,-2.12
24.171,-1.56
24.187,-1.14
24.203,-0.55
24.218,0.5
24.234,2.11
24.250,4.17
24.265,6.41
24.281,8.55
24.296,10.57
24.312,12.52
24.328,14.56
24.343,16.78
24.359,19.2
24.375,21.82
24.390,24.62
24.406,27.58
24.421,30.6
24.437,33.45
24.453,35.61
24.468,36.52
24.484,35.71
24.500,33.05
24.515,28.89
24.531,23.9
24.546,18.92
24.562,14.58
24.578,11.18
24.593,8.58
24.609,6.4
24.625,4.4
24.640,2.42
24.656,0.7
24.671,-0.53
24.687,-1.04
24.703,-0.82
24.718,-0.04
24.734,1.05
24.750,2.29
24.765,3.75
24.781,5.53
24.796,7.94
24.812,11.03
24.828,14.72
24.843,18.56
24.859,21.78
24.875,23.72
24.890,23.9
24.906,22.22
24.921,19.06
24.937,15.06
24.953,10.99
24.968,7.55
24.984,5.28
25.000,4.35
25.015,4.8
25.031,6.34
25.046,8.57
25.062,11.23
25.078,14.25
25.093,18.06
25.109,23.32
25.125,30.67
25.140,40.25
25.156,51.74
25.171,64.39
25.187,77.33
25.203,89.9
25.218,101.72
25.234,112.51
25.250,122.14
25.265,130.65
25.281,138.2
25.296,145.22
25.312,151.87
25.328,157.53
25.343,160.8
25.359,159.72
25.375,152.61
25.390,139.2
25.406,120.99
25.421,100.97
25.437,82.39
25.453,67.36
25.468,55.98
25.484,46.57
25.500,36.54
25.515,23.54
25.531,6.51
25.546,-14.23
25.562,-37.26
25.578,-61.1
25.593,-84.69
25.609,-107.7
25.625,-130.08
25.640,-151.63
25.656,-171.84
25.671,-189.9
25.687,-205.21
25.703,-217.51
25.718,-226.87
25.734,-233.3
25.750,-236.3
25.765,-234.83
25.781,-227.76
25.796,-214.38
25.812,-194.82
25.828,-170.27
25.843,-142.56
25.859,-113.55
25.875,-84.7
25.890,-56.81
25.906,-30.1
25.921,-4.46
25.937,20.25
25.953,44.0
25.968,66.34
25.984,86.42
26.000,103.09
26.015,115.25
26.031,122.11
26.046,123.49
26.062,119.96
26.078,112.6
26.093,103.0
26.109,92.73
26.125,83.18
26.140,75.25
26.156,69.23
26.171,64.86
26.187,61.64
26.203,59.28
26.218,57.79
26.234,57.7
26.250,59.59
26.265,63.57
26.281,68.95
26.296,74.27
26.312,78.01
26.328,79.31
26.343,78.59
26.359,77.32
26.375,77.27
26.390,79.45
26.406,83.43
26.421,87.46
26.437,89.14
26.453,86.51
26.468,78.82
26.484,66.57
26.500,50.85
26.515,32.82
26.531,13.43
26.546,-6.27
26.562,-24.41
26.578,-38.43
26.593,-45.73
26.609,-45.02
26.625,-37.54
26.640,-27.12
26.656,-18.86
26.671,-16.93
26.687,-22.83
26.703,-34.71
26.718,-48.69
26.734,-61.02
26.750,-69.76
26.765,-75.3
26.781,-79.51
26.796,-83.95
26.812,-88.78
26.828,-92.61
26.843,-93.41
26.859,-90.0
26.875,-82.67
26.890,-73.28
26.906,-64.21
26.921,-57.34
26.937,-53.41
26.953,-52.08
26.968,-52.47
26.984,-53.85
27.000,-56.12
27.015,-59.64
27.031,-64.95
27.046,-72.35
27.062,-81.5
27.078,-91.35
27.093,-100.48
27.109,-107.23
27.125,-110.24
27.140,-108.92
27.156,-103.55
27.171,-95.48
27.187,-86.9
27.203,-80.21
27.218,-77.27
27.234,-78.87
27.250,-84.44
27.265,-92.33
27.281,-100.32
27.296,-106.16
27.312,-108.13
27.328,-105.33
27.343,-97.65
27.359,-85.82
27.375,-71.21
27.390,-55.44
27.406,-39.96
27.421,-25.71
27.437,-12.94
27.453,-1.39
27.468,9.42
27.484,20.03
27.500,30.69
27.515,41.23
27.531,51.4
27.546,60.95
27.562,69.88
27.578,78.61
27.593,87.82
27.609,98.09
27.625,109.79
27.640,122.5
27.656,135.01
27.671,145.86
27.687,153.71
27.703,157.84
27.718,158.21
27.734,155.2
27.750,149.08
27.765,139.93
27.781,127.77
27.796,112.9
27.812,96.14
27.828,78.64
27.843,61.25
27.859,43.93
27.875,25.87
27.890,6.0
27.906,-16.02
27.921,-39.09
27.937,-60.78
27.953,-78.14
27.968,-88.73
27.984,-91.52
28.000,-87.25
28.015,-77.99
28.031,-66.49
28.046,-55.29
28.062,-46.16
28.078,-39.83
28.093,-36.01
28.109,-33.88
28.125,-32.54
28.140,-31.48
28.156,-30.81
28.171,-31.08
28.187,-33.0
28.203,-37.09
28.218,-43.61
28.234,-52.38
28.250,-62.96
28.265,-74.69
28.281,-86.59
28.296,-97.48
28.312,-106.27
28.328,-112.21
28.343,-114.86
28.359,-114.34
28.375,-111.03
28.390,-105.4
28.406,-97.98
28.421,-89.31
28.437,-79.81
28.453,-70.11
28.468,-60.96
28.484,-52.77
28.500,-45.38
28.515,-38.14
28.531,-30.12
28.546,-20.81
28.562,-10.73
28.578,-1.27
28.593,5.89
28.609,9.69
28.625,10.49
28.640,10.02
28.656,10.18
28.671,12.14
28.687,15.41
28.703,18.14
28.718,18.2
28.734,14.4
28.750,7.14
28.765,-1.81
28.781,-10.19
28.796,-16.24
28.812,-19.05
28.828,-18.56
28.843,-15.06
28.859,-8.8
28.875,0.12
28.890,11.63
28.906,25.36
28.921,40.26
28.937,54.75
28.953,67.16
28.968,76.17
28.984,81.29
29.000,83.09
29.015,82.82
29.031,81.97
29.046,81.82
29.062,83.1
29.078,85.95
29.093,90.31
29.109,95.91
29.125,102.34
29.140,108.94
29.156,114.56
29.171,117.66
29.187,116.43
29.203,109.42
29.218,96.08
29.234,77.2
29.250,54.84
29.265,31.77
29.281,10.7
29.296,-6.45
29.312,-18.83
29.328,-26.56
29.343,-30.33
29.359,-30.86
29.375,-28.7
29.390,-24.05
29.406,-17.17
29.421,-8.39
29.437,1.47
29.453,10.97
29.468,18.21
29.484,21.36
29.500,19.19
29.515,11.7
29.531,0.38
29.546,-12.43
29.562,-24.04
29.578,-32.6
29.593,-37.46
29.609,-39.04
29.625,-38.3
29.640,-36.08
29.656,-32.9
29.671,-28.92
29.687,-24.37
29.703,-19.64
29.718,-15.34
29.734,-12.1
29.750,-10.15
29.765,-9.28
29.781,-8.96
29.796,-8.66
29.812,-7.96
29.828,-6.71
29.843,-4.95
29.859,-2.81
29.875,-0.6
29.890,1.41
29.906,2.93
29.921,3.71
29.937,3.56
29.953,2.34
29.968,0.07
29.984,-3.06
30.000,-6.54
30.015,-9.69
30.031,-11.64
30.046,-11.64
30.062,-9.37
30.078,-5.08
30.093,0.41
30.109,5.94
30.125,10.42
30.140,13.07
30.156,13.67
30.171,12.44
30.187,9.93
30.203,6.76
30.218,3.56
30.234,0.8
30.250,-1.18
30.265,-2.22
30.281,-2.33
30.296,-1.67
30.312,-0.53
30.328,0.76
30.343,1.81
30.359,2.41
30.375,2.35
30.390,1.57
30.406,0.01
30.421,-2.14
30.437,-4.24
30.453,-5.34
30.468,-4.38
30.484,-0.57
30.500,6.18
30.515,15.15
30.531,24.85
30.546,33.57
30.562,39.91
30.578,43.11
30.593,43.07
30.609,40.0
30.625,34.0
30.640,25.05
30.656,13.16
30.671,-1.3
30.687,-17.26
30.703,-32.85
30.718,-45.82
30.734,-54.31
30.750,-57.4
30.765,-55.42
30.781,-49.66
30.796,-41.59
30.812,-32.37
30.828,-22.58
30.843,-12.51
30.859,-2.69
30.875,5.79
30.890,11.84
30.906,14.89
30.921,15.49
30.937,15.22
30.953,15.73
30.968,17.53
30.984,19.59
31.000,19.75
31.015,16.12
31.031,8.36
31.046,-2.01
31.062,-12.2
31.078,-19.62
31.093,-22.88
31.109,-22.22
31.125,-18.99
31.140,-14.83
31.156,-10.98
31.171,-8.1
31.187,-6.62
31.203,-6.85
31.218,-9.05
31.234,-13.21
31.250,-18.91
31.265,-25.39
31.281,-31.82
31.296,-37.56
31.312,-42.2
31.328,-45.63
31.343,-47.82
31.359,-48.74
31.375,-48.31
31.390,-46.47
31.406,-43.3
31.421,-39.13
31.437,-34.45
31.453,-29.57
31.468,-24.71
31.484,-19.79
31.500,-14.87
31.515,-10.41
31.531,-7.43
31.546,-7.11
31.562,-10.15
31.578,-16.23
31.593,-23.74
31.609,-30.38
31.625,-34.04
31.640,-33.57
31.656,-29.11
31.671,-21.86
31.687,-13.47
31.703,-5.34
31.718,1.7
31.734,7.51
31.750,12.28
31.765,16.14
31.781,18.99
31.796,20.44
31.812,20.13
31.828,17.94
31.843,14.21
31.859,9.49
31.875,4.41
31.890,-0.78
31.906,-6.18
31.921,-11.85
31.937,-17.56
31.953,-22.44
31.968,-25.49
31.984,-25.97
32.000,-24.09
32.015,-20.92
32.031,-18.08
32.046,-16.86
32.062,-17.5
32.078,-19.25
32.093,-20.82
32.109,-21.25
32.125,-20.38
32.140,-18.86
32.156,-17.59
32.171,-17.22
32.187,-17.81
32.203,-18.89
32.218,-19.95
32.234,-20.74
32.250,-21.35
32.265,-22.04
32.281,-22.93
32.296,-23.74
32.312,-23.88
32.328,-22.7
32.343,-19.74
32.359,-15.02
32.375,-9.0
32.390,-2.36
32.406,4.21
32.421,10.14
32.437,15.19
32.453,19.33
32.468,22.65
32.484,25.28
32.500,27.1
32.515,27.88
32.531,27.31
32.546,25.09
32.562,21.26
32.578,16.16
32.593,10.45
32.609,4.81
32.625,-0.25
32.640,-4.63
32.656,-8.46
32.671,-11.94
32.687,-15.11
32.703,-17.72
32.718,-19.45
32.734,-20.04
32.750,-19.59
32.765,-18.54
32.781,-17.49
32.796,-16.8
32.812,-16.39
32.828,-15.84
32.843,-14.53
32.859,-12.04
32.875,-8.42
32.890,-4.19
32.906,-0.13
32.921,3.0
32.937,4.82
32.953,5.41
32.968,5.11
32.984,4.4
33.000,3.57
33.015,2.67
33.031,1.72
33.046,0.76
33.062,0.09
33.078,0.05
33.093,0.9
33.109,2.43
33.125,4.1
33.140,5.3
33.156,5.68
33.171,5.43
33.187,5.09
33.203,5.19
33.218,5.77
33.234,6.35
33.250,6.12
33.265,4.52
33.281,1.61
33.296,-1.93
33.312,-5.05
33.328,-6.95
33.343,-7.34
33.359,-6.54
33.375,-5.24
33.390,-4.19
33.406,-3.95
33.421,-4.83
33.437,-6.93
33.453,-10.26
33.468,-14.69
33.484,-19.86
33.500,-25.05
33.515,-29.3
33.531,-31.53
33.546,-30.95
33.562,-27.32
33.578,-21.12
33.593,-13.29
33.609,-4.93
33.625,3.05
33.640,10.14
33.656,16.14
33.671,21.07
33.687,24.92
33.703,27.66
33.718,29.3
33.734,29.8
33.750,29.28
33.765,27.9
33.781,25.78
33.796,23.07
33.812,19.99
33.828,16.68
33.843,13.34
33.859,10.12
33.875,7.08
33.890,4.31
33.906,2.12
33.921,0.77
33.937,0.4
33.953,0.81
33.968,1.29
33.984,0.86
34.000,-1.37
34.015,-5.92
34.031,-12.6
34.046,-20.58
34.062,-28.74
34.078,-35.9
34.093,-41.05
34.109,-43.55
34.125,-43.08
34.140,-39.72
34.156,-33.84
34.171,-25.96
34.187,-16.54
34.203,-5.98
34.218,5.41
34.234,17.23
34.250,28.76
34.265,39.29
34.281,48.26
34.296,55.61
34.312,61.8
34.328,67.55
34.343,73.27
34.359,78.83
34.375,83.51
34.390,86.22
34.406,86.14
34.421,82.95
34.437,76.81
34.453,68.09
34.468,57.15
34.484,44.27
34.500,29.88
34.515,14.83
34.531,0.39
34.546,-11.94
34.562,-20.98
34.578,-26.56
34.593,-29.48
34.609,-31.14
34.625,-32.83
34.640,-35.03
34.656,-37.18
34.671,-38.24
34.687,-37.3
34.703,-34.18
34.718,-29.74
34.734,-25.42
34.750,-22.66
34.765,-22.26
34.781,-24.27
34.796,-27.97
34.812,-32.36
34.828,-36.57
34.843,-39.96
34.859,-42.15
34.875,-42.78
34.890,-41.43
34.906,-37.57
34.921,-30.84
34.937,-21.31
34.953,-9.8
34.968,2.08
34.984,12.37
35.000,19.24
35.015,21.79
35.031,20.44
35.046,16.88
35.062,13.64
35.078,13.0
35.093,16.14
35.109,22.59
35.125,30.53
35.140,37.48
35.156,41.46
35.171,41.6
35.187,38.36
35.203,33.06
35.218,27.03
35.234,21.05
35.250,15.09
35.265,8.74
35.281,1.6
35.296,-6.22
35.312,-14.17
35.328,-21.53
35.343,-27.9
35.359,-33.4
35.375,-38.47
35.390,-43.54
35.406,-48.66
35.421,-53.52
35.437,-57.52
35.453,-60.15
35.468,-61.32
35.484,-61.32
35.500,-60.6
35.515,-59.45
35.531,-57.79
35.546,-55.29
35.562,-51.73
35.578,-47.17
35.593,-42.08
35.609,-37.2
35.625,-33.1
35.640,-30.03
35.656,-27.71
35.671,-25.58
35.687,-23.0
35.703,-19.63
35.718,-15.49
35.734,-10.97
35.750,-6.68
35.765,-3.15
35.781,-0.7
35.796,0.71
35.812,1.36
35.828,1.79
35.843,2.38
35.859,3.44
35.875,5.12
35.890,7.56
35.906,10.95
35.921,15.27
35.937,20.03
35.953,24.4
35.968,27.42
35.984,28.64
36.000,28.33
36.015,27.56
36.031,27.55
36.046,28.98
36.062,31.53
36.078,33.98
36.093,34.95
36.109,33.58
36.125,30.21
36.140,25.92
36.156,22.03
36.171,19.41
36.187,18.2
36.203,17.92
36.218,18.0
36.234,18.18
36.250,18.56
36.265,19.54
36.281,21.49
36.296,24.49
36.312,28.32
36.328,32.54
36.343,36.61
36.359,40.06
36.375,42.52
36.390,43.57
36.406,43.11
36.421,41.22
36.437,38.29
36.453,34.82
36.468,31.17
36.484,27.65
36.500,24.42
36.515,21.83
36.531,20.36
36.546,20.6
36.562,23.03
36.578,27.68
36.593,34.23
36.609,41.91
36.625,49.97
36.640,57.68
36.656,64.56
36.671,70.28
36.687,74.57
36.703,77.31
36.718,78.39
36.734,77.77
36.750,75.55
36.765,71.96
36.781,67.33
36.796,62.03
36.812,56.43
36.828,50.79
36.843,45.37
36.859,40.38
36.875,36.33
36.890,33.97
36.906,34.21
36.921,37.69
36.937,44.41
36.953,53.42
36.968,63.12
36.984,71.76
37.000,78.01
37.015,81.58
37.031,83.04
37.046,83.35
37.062,83.36
37.078,83.42
37.093,83.36
37.109,82.79
37.125,81.34
37.140,78.51
37.156,73.92
37.171,67.07
37.187,57.57
37.203,45.47
37.218,31.46
37.234,16.75
37.250,2.6
37.265,-10.14
37.281,-21.59
37.296,-32.52
37.312,-44.04
37.328,-56.95
37.343,-71.24
37.359,-86.21
37.375,-100.8
37.390,-113.97
37.406,-124.91
37.421,-133.19
37.437,-138.57
37.453,-141.03
37.468,-140.64
37.484,-137.6
37.500,-132.26
37.515,-125.13
37.531,-116.83
37.546,-107.96
37.562,-98.94
37.578,-89.98
37.593,-81.24
37.609,-73.0
37.625,-65.6
37.640,-59.57
37.656,-55.23
37.671,-52.61
37.687,-51.37
37.703,-51.02
37.718,-51.04
37.734,-51.05
37.750,-50.98
37.765,-50.63
37.781,-49.84
37.796,-48.35
37.812,-46.05
37.828,-43.05
37.843,-39.79
37.859,-36.79
37.875,-34.41
37.890,-32.81
37.906,-31.83
37.921,-31.17
37.937,-30.62
37.953,-30.08
37.968,-29.56
37.984,-29.06
38.000,-28.47
38.015,-27.55
38.031,-25.94
38.046,-23.34
38.062,-19.41
38.078,-13.78
38.093,-6.01
38.109,4.34
38.125,17.68
38.140,34.02
38.156,52.97
38.171,73.77
38.187,95.58
38.203,117.6
38.218,139.3
38.234,160.27
38.250,179.8
38.265,196.86
38.281,210.24
38.296,218.94
38.312,222.56
38.328,221.44
38.343,216.39
38.359,208.34
38.375,198.19
38.390,186.57
38.406,173.93
38.421,160.46
38.437,145.83
38.453,129.04
38.468,108.61
38.484,83.21
38.500,52.61
38.515,18.39
38.531,-16.33
38.546,-47.75
38.562,-72.67
38.578,-89.36
38.593,-98.02
38.609,-100.27
38.625,-98.27
38.640,-94.02
38.656,-88.8
38.671,-83.32
38.687,-77.8
38.703,-72.17
38.718,-66.05
38.734,-59.07
38.750,-51.07
38.765,-42.39
38.781,-33.92
38.796,-26.71
38.812,-21.48
38.828,-18.09
38.843,-15.53
38.859,-12.41
38.875,-7.52
38.890,-0.35
38.906,8.74
38.921,18.71
38.937,28.52
38.953,37.19
38.968,44.11
38.984,48.81
39.000,50.75
39.015,49.65
39.031,45.5
39.046,38.7
39.062,29.99
39.078,20.38
39.093,10.7
39.109,1.54
39.125,-6.92
39.140,-14.95
39.156,-23.0
39.171,-31.49
39.187,-40.55
39.203,-50.13
39.218,-59.84
39.234,-69.38
39.250,-78.45
39.265,-86.81
39.281,-94.11
39.296,-99.87
39.312,-103.45
39.328,-104.4
39.343,-102.59
39.359,-98.13
39.375,-91.43
39.390,-82.91
39.406,-73.05
39.421,-62.47
39.437,-51.94
39.453,-42.21
39.468,-33.92
39.484,-27.4
39.500,-22.47
39.515,-18.81
39.531,-15.95
39.546,-13.39
39.562,-10.69
39.578,-7.49
39.593,-3.7
39.609,0.29
39.625,3.61
39.640,5.24
39.656,4.53
39.671,1.5
39.687,-2.98
39.703,-7.76
39.718,-11.96
39.734,-15.46
39.750,-18.67
39.765,-22.08
39.781,-25.8
39.796,-29.46
39.812,-32.4
39.828,-34.17
39.843,-34.92
39.859,-35.28
39.875,-36.08
39.890,-37.76
39.906,-40.16
39.921,-42.69
39.937,-45.01
39.953,-47.38
39.968,-50.7
39.984,-55.98
40.000,-63.52
40.015,-72.39
40.031,-80.54
40.046,-85.66
40.062,-86.33
40.078,-82.64
40.093,-75.94
40.109,-68.02
40.125,-60.02
40.140,-52.1
40.156,-43.67
40.171,-34.17
40.187,-23.57
40.203,-12.1
40.218,0.34
40.234,14.39
40.250,30.78
40.265,49.3
40.281,67.96
40.296,83.17
40.312,91.18
40.328,89.85
40.343,79.96
40.359,65.12
40.375,49.81
40.390,37.42
40.406,28.76
40.421,22.24
40.437,15.29
40.453,6.16
40.468,-5.14
40.484,-16.96
40.500,-26.95
40.515,-33.46
40.531,-35.88
40.546,-34.39
40.562,-29.53
40.578,-21.91
40.593,-12.57
40.609,-3.28
40.625,3.69
40.640,6.66
40.656,5.61
40.671,3.05
40.687,3.32
40.703,10.6
40.718,26.69
40.734,49.51
40.750,73.56
40.765,92.22
40.781,100.63
40.796,97.3
40.812,84.22
40.828,65.07
40.843,43.35
40.859,21.39
40.875,0.4
40.890,-18.54
40.906,-33.73
40.921,-43.0
40.937,-44.66
40.953,-38.53
40.968,-26.69
40.984,-12.96
41.000,-1.39
41.015,5.13
41.031,5.98
41.046,2.71
41.062,-1.95
41.078,-5.24
41.093,-5.52
41.109,-2.66
41.125,1.86
41.140,5.8
41.156,6.87
41.171,3.64
41.187,-3.97
41.203,-14.63
41.218,-25.99
41.234,-35.41
41.250,-40.58
41.265,-40.45
41.281,-35.31
41.296,-26.78
41.312,-17.31
41.328,-9.42
41.343,-5.12
41.359,-5.27
41.375,-9.48
41.390,-16.11
41.406,-22.93
41.421,-27.83
41.437,-29.54
41.453,-27.98
41.468,-23.95
41.484,-18.55
41.500,-12.22
41.515,-4.65
41.531,4.94
41.546,16.9
41.562,30.33
41.578,43.12
41.593,52.45
41.609,56.29
41.625,54.3
41.640,47.99
41.656,39.74
41.671,31.53
41.687,23.88
41.703,15.96
41.718,6.69
41.734,-4.29
41.750,-15.82
41.765,-25.56
41.781,-31.01
41.796,-30.67
41.812,-24.47
41.828,-13.53
41.843,0.53
41.859,16.11
41.875,31.64
41.890,45.46
41.906,55.86
41.921,61.26
41.937,60.93
41.953,55.13
41.968,45.21
41.984,32.87
42.000,19.66
42.015,6.48
42.031,-6.42
42.046,-19.07
42.062,-31.57
42.078,-43.76
42.093,-55.26
42.109,-65.64
42.125,-74.45
42.140,-81.29
42.156,-85.96
42.171,-88.53
42.187,-89.25
42.203,-88.66
42.218,-87.26
42.234,-85.46
42.250,-83.41
42.265,-80.96
42.281,-77.82
42.296,-73.6
42.312,-67.94
42.328,-60.56
42.343,-51.33
42.359,-40.33
42.375,-27.97
42.390,-14.97
42.406,-2.32
42.421,8.83
42.437,17.61
42.453,23.54
42.468,26.69
42.484,27.46
42.500,26.39
42.515,23.74
42.531,19.46
42.546,13.19
42.562,4.55
42.578,-6.6
42.593,-19.97
42.609,-34.87
42.625,-50.37
42.640,-65.38
42.656,-78.74
42.671,-89.21
42.687,-95.59
42.703,-96.84
42.718,-92.34
42.734,-82.17
42.750,-67.11
42.765,-48.3
42.781,-26.96
42.796,-3.98
42.812,19.95
42.828,44.11
42.843,67.34
42.859,88.12
42.875,104.79
42.890,116.22
42.906,122.2
42.921,123.48
42.937,121.4
42.953,117.21
42.968,111.62
42.984,104.86
43.000,97.02
43.015,88.3
43.031,79.31
43.046,70.76
43.062,63.08
43.078,55.98
43.093,48.46
43.109,39.25
43.125,27.56
43.140,13.74
43.156,-0.65
43.171,-13.19
43.187,-21.7
43.203,-25.18
43.218,-24.29
43.234,-21.07
43.250,-17.92
43.265,-16.49
43.281,-17.05
43.296,-18.63
43.312,-19.87
43.328,-19.88
43.343,-18.83
43.359,-17.56
43.375,-17.02
43.390,-17.5
43.406,-18.61
43.421,-19.51
43.437,-19.52
43.453,-18.58
43.468,-17.21
43.484,-16.28
43.500,-16.31
43.515,-17.33
43.531,-18.63
43.546,-19.24
43.562,-18.19
43.578,-14.97
43.593,-9.81
43.609,-3.54
43.625,2.63
43.640,7.75
43.656,11.51
43.671,14.4
43.687,17.43
43.703,21.64
43.718,27.71
43.734,35.65
43.750,45.0
43.765,55.04
43.781,65.16
43.796,74.84
43.812,83.71
43.828,91.49
43.843,98.01
43.859,103.22
43.875,107.07
43.890,109.52
43.906,110.25
43.921,108.78
43.937,104.66
43.953,97.56
43.968,87.54
43.984,75.07
44.000,60.9
44.015,45.89
44.031,30.95
44.046,16.84
44.062,4.28
44.078,-6.19
44.093,-14.25
44.109,-19.88
44.125,-23.33
44.140,-25.04
44.156,-25.56
44.171,-25.48
44.187,-25.43
44.203,-26.02
44.218,-27.7
44.234,-30.72
44.250,-35.01
44.265,-40.31
44.281,-46.19
44.296,-52.29
44.312,-58.37
44.328,-64.28
44.343,-69.86
44.359,-74.89
44.375,-79.06
44.390,-81.97
44.406,-83.36
44.421,-83.05
44.437,-80.91
44.453,-76.83
44.468,-70.89
44.484,-63.35
44.500,-54.89
44.515,-46.36
44.531,-38.45
44.546,-31.39
44.562,-24.77
44.578,-17.59
44.593,-8.77
44.609,2.36
44.625,15.56
44.640,29.69
44.656,42.93
44.671,53.21
44.687,58.7
44.703,58.37
44.718,52.48
44.734,42.68
44.750,31.78
44.765,22.83
44.781,18.15
44.796,18.41
44.812,22.61
44.828,28.7
44.843,34.66
44.859,39.47
44.875,43.22
44.890,46.76
44.906,50.77
44.921,55.16
44.937,59.07
44.953,61.48
44.968,61.77
44.984,60.18
45.000,57.55
45.015,54.81
45.031,52.55
45.046,50.87
45.062,49.35
45.078,47.5
45.093,45.06
45.109,42.17
45.125,39.38
45.140,37.41
45.156,36.91
45.171,38.26
45.187,41.36
45.203,45.7
45.218,50.42
45.234,54.7
45.250,57.83
45.265,59.38
45.281,59.18
45.296,57.3
45.312,53.93
45.328,49.42
45.343,44.16
45.359,38.5
45.375,32.59
45.390,26.29
45.406,19.31
45.421,11.5
45.437,3.1
45.453,-5.19
45.468,-12.54
45.484,-18.38
45.500,-22.66
45.515,-25.9
45.531,-28.69
45.546,-31.23
45.562,-33.12
45.578,-33.7
45.593,-32.48
45.609,-29.58
45.625,-25.66
45.640,-21.53
45.656,-17.65
45.671,-13.98
45.687,-10.29
45.703,-6.43
45.718,-2.93
45.734,-0.78
45.750,-1.06
45.765,-4.43
45.781,-10.94
45.796,-19.97
45.812,-30.41
45.828,-41.09
45.843,-50.95
45.859,-59.4
45.875,-66.24
45.890,-71.76
45.906,-76.52
45.921,-81.13
45.937,-85.89
45.953,-90.5
45.968,-94.09
45.984,-95.7
46.000,-94.7
46.015,-91.03
46.031,-85.45
46.046,-79.1
46.062,-72.92
46.078,-67.19
46.093,-61.26
46.109,-53.96
46.125,-44.2
46.140,-31.51
46.156,-16.34
46.171,0.09
46.187,16.16
46.203,30.49
46.218,42.19
46.234,50.98
46.250,57.02
46.265,60.83
46.281,63.03
46.296,64.08
46.312,64.36
46.328,64.01
46.343,63.17
46.359,61.95
46.375,60.47
46.390,58.86
46.406,57.29
46.421,55.88
46.437,54.71
46.453,53.91
46.468,53.72
46.484,54.4
46.500,56.13
46.515,58.91
46.531,62.51
46.546,66.58
46.562,70.86
46.578,75.16
46.593,79.55
46.609,84.26
46.625,89.49
46.640,95.33
46.656,101.55
46.671,107.59
46.687,112.57
46.703,115.48
46.718,115.49
46.734,112.19
46.750,105.66
46.765,96.37
46.781,84.94
46.796,71.94
46.812,57.87
46.828,43.21
46.843,28.44
46.859,14.12
46.875,0.85
46.890,-11.0
46.906,-21.33
46.921,-30.33
46.937,-38.22
46.953,-45.22
46.968,-51.3
46.984,-56.4
47.000,-60.48
47.015,-63.5
47.031,-65.54
47.046,-66.51
47.062,-66.31
47.078,-64.82
47.093,-62.12
47.109,-58.49
47.125,-54.45
47.140,-50.58
47.156,-47.18
47.171,-44.13
47.187,-40.93
47.203,-36.93
47.218,-31.91
47.234,-26.04
47.250,-20.11
47.265,-15.14
47.281,-11.91
47.296,-10.66
47.312,-11.08
47.328,-12.54
47.343,-14.46
47.359,-16.68
47.375,-19.22
47.390,-22.12
47.406,-25.22
47.421,-27.97
47.437,-29.66
47.453,-29.78
47.468,-28.3
47.484,-25.66
47.500,-22.8
47.515,-20.64
47.531,-19.82
47.546,-20.38
47.562,-21.75
47.578,-23.01
47.593,-23.22
47.609,-21.82
47.625,-18.71
47.640,-14.22
47.656,-8.95
47.671,-3.44
47.687,2.15
47.703,8.01
47.718,14.31
47.734,21.11
47.750,28.0
47.765,34.24
47.781,39.02
47.796,41.79
47.812,42.44
47.828,41.33
47.843,38.96
47.859,35.55
47.875,30.88
47.890,24.59
47.906,16.34
47.921,6.45
47.937,-4.03
47.953,-13.53
47.968,-20.58
47.984,-24.45
48.000,-25.48
48.015,-24.95
48.031,-24.24
48.046,-24.27
48.062,-24.96
48.078,-25.53
48.093,-25.21
48.109,-23.77
48.125,-21.82
48.140,-20.27
48.156,-19.81
48.171,-20.37
48.187,-21.26
48.203,-21.64
48.218,-21.14
48.234,-20.08
48.250,-19.26
48.265,-19.3
48.281,-20.11
48.296,-21.0
48.312,-20.95
48.328,-19.35
48.343,-16.24
48.359,-12.4
48.375,-8.89
48.390,-6.5
48.406,-5.5
48.421,-5.6
48.437,-6.36
48.453,-7.47
48.468,-9.04
48.484,-11.32
48.500,-14.49
48.515,-18.31
48.531,-22.13
48.546,-25.12
48.562,-26.6
48.578,-26.31
48.593,-24.41
48.609,-21.6
48.625,-18.76
48.640,-16.77
48.656,-16.27
48.671,-17.41
48.687,-19.81
48.703,-22.68
48.718,-25.18
48.734,-26.68
48.750,-27.19
48.765,-27.18
48.781,-27.32
48.796,-28.02
48.812,-29.24
48.828,-30.53
48.843,-31.29
48.859,-31.14
48.875,-29.95
48.890,-27.82
48.906,-24.9
48.921,-21.11
48.937,-16.15
48.953,-9.78
48.968,-2.14
48.984,6.24
49.000,14.37
49.015,21.33
49.031,26.53
49.046,29.92
49.062,31.87
49.078,32.67
49.093,32.46
49.109,31.05
49.125,28.29
49.140,24.39
49.156,20.06
49.171,16.4
49.187,14.36
49.203,14.44
49.218,16.42
49.234,19.61
49.250,23.23
49.265,26.73
49.281,29.91
49.296,32.74
49.312,35.28
49.328,37.28
49.343,38.36
49.359,38.15
49.375,36.42
49.390,33.21
49.406,28.69
49.421,23.11
49.437,16.64
49.453,9.54
49.468,1.97
49.484,-5.74
49.500,-13.3
49.515,-20.33
49.531,-26.39
49.546,-31.05
49.562,-33.74
49.578,-34.06
49.593,-31.86
49.609,-27.56
49.625,-22.1
49.640,-16.86
49.656,-13.17
49.671,-11.85
49.687,-13.09
49.703,-16.53
49.718,-21.51
49.734,-27.36
49.750,-33.49
49.765,-39.31
49.781,-44.17
49.796,-47.51
49.812,-48.89
49.828,-48.31
49.843,-46.22
49.859,-43.37
49.875,-40.56
49.890,-38.29
49.906,-36.66
49.921,-35.35
49.937,-33.84
49.953,-31.57
49.968,-28.24
49.984,-23.84
50.000,-18.74
50.015,-13.45
50.031,-8.32
50.046,-3.53
50.062,1.04
50.078,5.62
50.093,10.21
50.109,14.51
50.125,18.07
50.140,20.4
50.156,21.2
50.171,20.61
50.187,19.06
50.203,17.11
50.218,15.18
50.234,13.44
50.250,11.71
50.265,9.72
50.281,7.25
50.296,4.18
50.312,0.62
50.328,-3.27
50.343,-7.27
50.359,-11.13
50.375,-14.44
50.390,-16.73
50.406,-17.4
50.421,-16.06
50.437,-12.74
50.453,-7.9
50.468,-2.4
50.484,2.98
50.500,7.74
50.515,11.76
50.531,15.09
50.546,17.79
50.562,19.65
50.578,20.44
50.593,20.02
50.609,18.47
50.625,16.19
50.640,13.63
50.656,11.01
50.671,8.2
50.687,4.81
50.703,0.38
50.718,-5.36
50.734,-12.3
50.750,-20.01
50.765,-27.83
50.781,-34.83
50.796,-40.1
50.812,-42.89
50.828,-42.88
50.843,-40.45
50.859,-36.7
50.875,-33.06
50.890,-30.97
50.906,-31.16
50.921,-33.44
50.937,-36.76
50.953,-39.58
50.968,-40.56
50.984,-39.09
51.000,-35.47
51.015,-30.55
51.031,-25.37
51.046,-20.55
51.062,-16.24
51.078,-12.17
51.093,-8.12
51.109,-4.14
51.125,-0.69
51.140,1.8
51.156,3.2
51.171,3.84
51.187,4.37
51.203,5.32
51.218,6.87
51.234,8.56
51.250,9.81
51.265,10.07
51.281,9.28
51.296,7.91
51.312,6.65
51.328,6.19
51.343,6.87
51.359,8.63
51.375,11.14
51.390,13.98
51.406,16.82
51.421,19.5
51.437,21.98
51.453,24.22
51.468,26.22
51.484,27.92
51.500,29.36
51.515,30.56
51.531,31.54
51.546,32.22
51.562,32.31
51.578,31.54
51.593,29.74
51.609,27.09
51.625,24.1
51.640,21.55
51.656,20.21
51.671,20.62
51.687,22.89
51.703,26.51
51.718,30.56
51.734,33.76
51.750,34.85
51.765,32.76
51.781,26.97
51.796,17.71
51.812,5.97
51.828,-6.79
51.843,-18.88
51.859,-28.89
51.875,-36.06
51.890,-40.29
51.906,-42.12
51.921,-42.36
51.937,-41.75
51.953,-40.63
51.968,-39.11
51.984,-37.12
52.000,-34.67
52.015,-32.06
52.031,-29.73
52.046,-28.14
52.062,-27.51
52.078,-27.7
52.093,-28.29
52.109,-28.69
52.125,-28.34
52.140,-26.86
52.156,-24.21
52.171,-20.55
52.187,-16.25
52.203,-11.72
52.218,-7.3
52.234,-3.33
52.250,-0.02
52.265,2.5
52.281,4.09
52.296,4.72
52.312,4.5
52.328,3.65
52.343,2.52
52.359,1.47
52.375,0.68
52.390,0.24
52.406,0.16
52.421,0.42
52.437,1.01
52.453,1.79
52.468,2.34
52.484,1.93
52.500,-0.28
52.515,-4.8
52.531,-11.51
52.546,-19.5
52.562,-27.62
52.578,-34.74
52.593,-40.35
52.609,-44.58
52.625,-47.89
52.640,-50.67
52.656,-52.88
52.671,-54.09
52.687,-53.77
52.703,-51.79
52.718,-48.49
52.734,-44.67
52.750,-41.23
52.765,-38.75
52.781,-37.2
52.796,-35.97
52.812,-34.22
52.828,-31.28
52.843,-27.06
52.859,-22.1
52.875,-17.39
52.890,-13.73
52.906,-11.35
52.921,-9.7
52.937,-7.84
52.953,-4.96
52.968,-0.81
52.984,4.17
53.000,9.04
53.015,12.99
53.031,15.47
53.046,16.66
53.062,17.12
53.078,17.51
53.093,18.36
53.109,19.85
53.125,21.95
53.140,24.58
53.156,27.72
53.171,31.35
53.187,35.44
53.203,39.82
53.218,44.1
53.234,47.91
53.250,51.02
53.265,53.49
53.281,55.61
53.296,57.78
53.312,60.3
53.328,63.11
53.343,65.94
53.359,68.33
53.375,69.91
53.390,70.53
53.406,70.2
53.421,68.96
53.437,66.7
53.453,63.23
53.468,58.35
53.484,52.09
53.500,44.68
53.515,36.61
53.531,28.28
53.546,19.78
53.562,10.78
53.578,0.56
53.593,-11.66
53.609,-26.21
53.625,-42.65
53.640,-59.51
53.656,-74.55
53.671,-85.26
53.687,-89.55
53.703,-86.3
53.718,-75.78
53.734,-59.48
53.750,-39.76
53.765,-19.22
53.781,-0.09
53.796,16.0
53.812,28.24
53.828,36.36
53.843,40.47
53.859,40.88
53.875,38.1
53.890,32.69
53.906,25.42
53.921,17.0
53.937,7.94
53.953,-1.66
53.968,-11.98
53.984,-23.19
54.000,-35.0
54.015,-46.4
54.031,-55.93
54.046,-62.07
54.062,-63.92
54.078,-61.56
54.093,-55.95
54.109,-48.4
54.125,-40.11
54.140,-31.66
54.156,-23.2
54.171,-14.71
54.187,-6.3
54.203,1.66
54.218,8.59
54.234,13.92
54.250,17.36
54.265,18.89
54.281,18.81
54.296,17.43
54.312,15.04
54.328,11.75
54.343,7.64
54.359,2.85
54.375,-2.21
54.390,-6.88
54.406,-10.34
54.421,-11.81
54.437,-10.99
54.453,-8.24
54.468,-4.61
54.484,-1.34
54.500,0.66
54.515,1.29
54.531,1.19
54.546,1.39
54.562,2.69
54.578,5.24
54.593,8.4
54.609,11.23
54.625,12.96
54.640,13.45
54.656,13.15
54.671,12.65
54.687,12.35
54.703,12.23
54.718,12.07
54.734,11.67
54.750,11.01
54.765,10.27
54.781,9.52
54.796,8.63
54.812,7.17
54.828,4.58
54.843,0.5
54.859,-5.02
54.875,-11.26
54.890,-17.13
54.906,-21.44
54.921,-23.36
54.937,-22.64
54.953,-19.69
54.968,-15.46
54.984,-10.91
55.000,-6.81
55.015,-3.3
55.031,-0.13
55.046,3.11
55.062,6.61
55.078,10.13
55.093,13.18
55.109,15.2
55.125,15.99
55.140,15.78
55.156,15.14
55.171,14.56
55.187,14.34
55.203,14.44
55.218,14.7
55.234,15.12
55.250,16.01
55.265,17.95
55.281,21.42
55.296,26.54
55.312,32.75
55.328,39.08
55.343,44.51
55.359,48.38
55.375,50.72
55.390,52.13
55.406,53.5
55.421,55.36
55.437,57.65
55.453,59.71
55.468,60.53
55.484,59.48
55.500,56.56
55.515,52.58
55.531,48.7
55.546,45.98
55.562,44.85
55.578,44.86
55.593,44.92
55.609,43.71
55.625,40.09
55.640,33.39
55.656,23.6
55.671,11.13
55.687,-3.18
55.703,-18.2
55.718,-32.73
55.734,-45.58
55.750,-56.02
55.765,-63.9
55.781,-69.88
55.796,-75.22
55.812,-81.32
55.828,-89.19
55.843,-98.9
55.859,-109.55
55.875,-119.47
55.890,-126.97
55.906,-130.72
55.921,-130.25
55.937,-125.8
55.953,-118.01
55.968,-107.65
55.984,-95.5
56.000,-82.73
56.015,-71.03
56.031,-62.61
56.046,-59.54
56.062,-62.99
56.078,-72.59
56.093,-86.25
56.109,-100.75
56.125,-112.61
56.140,-119.13
56.156,-118.72
56.171,-111.2
56.187,-97.32
56.203,-78.32
56.218,-55.73
56.234,-30.98
56.250,-5.51
56.265,19.34
56.281,42.31
56.296,62.43
56.312,78.98
56.328,91.62
56.343,100.41
56.359,105.71
56.375,108.25
56.390,108.86
56.406,108.33
56.421,107.23
56.437,105.79
56.453,103.85
56.468,101.12
56.484,97.46
56.500,92.91
56.515,87.88
56.531,82.8
56.546,77.96
56.562,73.39
56.578,68.9
56.593,64.14
56.609,58.79
56.625,52.79
56.640,46.15
56.656,39.17
56.671,32.25
56.687,25.78
56.703,20.05
56.718,15.11
56.734,10.7
56.750,6.28
56.765,1.3
56.781,-4.83
56.796,-12.42
56.812,-21.52
56.828,-31.81
56.843,-42.58
56.859,-52.53
56.875,-59.77
56.890,-61.96
56.906,-56.85
56.921,-43.24
56.937,-21.49
56.953,6.07
56.968,35.77
56.984,63.58
57.000,86.27
57.015,102.19
57.031,111.39
57.046,115.14
57.062,114.93
57.078,111.94
57.093,106.82
57.109,99.9
57.125,91.74
57.140,83.28
57.156,75.64
57.171,69.88
57.187,66.49
57.203,65.16
57.218,65.01
57.234,65.07
57.250,64.62
57.265,63.5
57.281,62.07
57.296,60.73
57.312,59.72
57.328,58.8
57.343,57.28
57.359,54.25
57.375,49.05
57.390,41.47
57.406,32.13
57.421,22.21
57.437,13.02
57.453,5.62
57.468,0.48
57.484,-2.6
57.500,-4.17
57.515,-4.84
57.531,-5.27
57.546,-5.92
57.562,-7.34
57.578,-10.15
57.593,-14.89
57.609,-21.78
57.625,-30.49
57.640,-40.22
57.656,-49.88
57.671,-58.45
57.687,-65.26
57.703,-69.89
57.718,-72.13
57.734,-71.65
57.750,-68.09
57.765,-61.11
57.781,-50.82
57.796,-37.92
57.812,-23.83
57.828,-10.24
57.843,1.4
57.859,10.18
57.875,16.01
57.890,19.34
57.906,20.8
57.921,21.0
57.937,20.55
57.953,19.92
57.968,19.69
57.984,20.45
58.000,22.34
58.015,25.01
58.031,27.66
58.046,29.16
58.062,28.68
58.078,25.92
58.093,21.18
58.109,15.16
58.125,8.83
58.140,2.99
58.156,-1.79
58.171,-5.19
58.187,-7.33
58.203,-8.58
58.218,-9.46
58.234,-10.39
58.250,-11.52
58.265,-12.53
58.281,-12.99
58.296,-12.46
58.312,-10.93
58.328,-8.85
58.343,-6.97
58.359,-5.93
58.375,-6.03
58.390,-7.0
58.406,-8.22
58.421,-9.06
58.437,-9.13
58.453,-8.6
58.468,-7.95
58.484,-7.8
58.500,-8.42
58.515,-9.77
58.531,-11.45
58.546,-13.05
58.562,-14.41
58.578,-15.66
58.593,-17.04
58.609,-18.81
58.625,-21.11
58.640,-24.0
58.656,-27.64
58.671,-32.21
58.687,-37.84
58.703,-44.29
58.718,-50.62
58.734,-55.33
58.750,-56.96
58.765,-54.72
58.781,-49.0
58.796,-41.28
58.812,-33.49
58.828,-27.13
58.843,-22.76
58.859,-19.66
58.875,-16.49
58.890,-11.94
58.906,-5.32
58.921,3.09
58.937,12.26
58.953,20.76
58.968,27.29
58.984,30.64
59.000,29.94
59.015,24.49
59.031,14.06
59.046,-1.07
59.062,-19.8
59.078,-40.28
59.093,-60.01
59.109,-76.34
59.125,-87.08
59.140,-91.0
59.156,-88.18
59.171,-79.8
59.187,-67.76
59.203,-54.07
59.218,-40.38
59.234,-27.59
59.250,-15.93
59.265,-5.09
59.281,5.37
59.296,15.67
59.312,25.67
59.328,34.82
59.343,42.34
59.359,47.58
59.375,50.2
59.390,50.21
59.406,47.91
59.421,43.74
59.437,38.15
59.453,31.57
59.468,24.46
59.484,17.31
59.500,10.62
59.515,4.75
59.531,-0.16
59.546,-4.34
59.562,-8.05
59.578,-11.52
59.593,-14.63
59.609,-16.95
59.625,-17.99
59.640,-17.54
59.656,-15.94
59.671,-13.98
59.687,-12.74
59.703,-13.06
59.718,-15.35
59.734,-19.28
59.750,-23.99
59.765,-28.35
59.781,-31.37
59.796,-32.7
59.812,-32.67
59.828,-32.27
59.843,-32.58
59.859,-34.28
59.875,-37.25
59.890,-40.54
59.906,-42.51
59.921,-41.43
59.937,-35.86
59.953,-24.97
59.968,-8.76
59.984,11.99
