timestamp,value
00.000,6.62
00.015,12.86
00.031,17.82
00.046,21.22
00.062,23.12
00.078,23.9
00.093,24.12
00.109,24.26
00.125,24.54
00.140,24.87
00.156,25.07
00.171,24.8
00.187,23.89
00.203,22.26
00.218,20.06
00.234,17.53
00.250,14.99
00.265,12.74
00.281,11.0
00.296,9.82
00.312,9.02
00.328,8.24
00.343,7.19
00.359,5.68
00.375,3.71
00.390,1.35
00.406,-1.35
00.421,-4.42
00.437,-8.05
00.453,-12.48
00.468,-17.97
00.484,-24.79
00.500,-33.14
00.515,-42.99
00.531,-53.95
00.546,-65.19
00.562,-75.37
00.578,-83.16
00.593,-87.65
00.609,-88.61
00.625,-86.56
00.640,-82.43
00.656,-76.91
00.671,-70.19
00.687,-61.81
00.703,-50.95
00.718,-37.07
00.734,-20.4
00.750,-2.11
00.765,15.95
00.781,31.72
00.796,43.81
00.812,51.76
00.828,56.07
00.843,57.93
00.859,58.38
00.875,57.96
00.890,56.63
00.906,54.06
00.921,50.14
00.937,45.28
00.953,40.26
00.968,35.94
00.984,32.82
01.000,30.8
01.015,29.39
01.031,27.94
01.046,25.96
01.062,23.25
01.078,20.01
01.093,16.59
01.109,13.25
01.125,10.1
01.140,6.94
01.156,3.36
01.171,-1.1
01.187,-6.78
01.203,-13.69
01.218,-21.42
01.234,-29.2
01.250,-36.12
01.265,-41.3
01.281,-44.24
01.296,-44.77
01.312,-43.14
01.328,-39.76
01.343,-35.11
01.359,-29.62
01.375,-23.61
01.390,-17.25
01.406,-10.52
01.421,-3.33
01.437,4.32
01.453,12.14
01.468,19.48
01.484,25.47
01.500,29.3
01.515,30.66
01.531,29.86
01.546,27.84
01.562,25.63
01.578,23.86
01.593,22.64
01.609,21.52
01.625,19.91
01.640,17.52
01.656,14.55
01.671,11.5
01.687,8.83
01.703,6.72
01.718,4.89
01.734,2.93
01.750,0.49
01.765,-2.4
01.781,-5.36
01.796,-7.87
01.812,-9.55
01.828,-10.38
01.843,-10.66
01.859,-10.96
01.875,-11.73
01.890,-13.15
01.906,-15.07
01.921,-17.04
01.937,-18.56
01.953,-19.22
01.968,-18.77
01.984,-17.07
02.000,-14.09
02.015,-9.8
02.031,-4.21
02.046,2.47
02.062,9.79
02.078,17.05
02.093,23.54
02.109,28.73
02.125,32.51
02.140,35.03
02.156,36.54
02.171,37.18
02.187,36.84
02.203,35.38
02.218,32.83
02.234,29.43
02.250,25.67
02.265,22.01
02.281,18.77
02.296,16.08
02.312,13.92
02.328,12.17
02.343,10.85
02.359,9.94
02.375,9.31
02.390,8.75
02.406,7.96
02.421,6.72
02.437,4.93
02.453,2.71
02.468,0.29
02.484,-2.03
02.500,-4.04
02.515,-5.63
02.531,-6.79
02.546,-7.7
02.562,-8.56
02.578,-9.64
02.593,-11.17
02.609,-13.27
02.625,-15.88
02.640,-18.82
02.656,-21.68
02.671,-23.95
02.687,-25.15
02.703,-24.98
02.718,-23.35
02.734,-20.38
02.750,-16.24
02.765,-11.09
02.781,-5.05
02.796,1.71
02.812,8.78
02.828,15.46
02.843,20.96
02.859,24.72
02.875,26.63
02.890,27.24
02.906,27.34
02.921,27.58
02.937,28.14
02.953,28.71
02.968,28.77
02.984,28.1
03.000,26.95
03.015,25.9
03.031,25.52
03.046,25.93
03.062,26.65
03.078,26.82
03.093,25.7
03.109,22.93
03.125,18.78
03.140,13.79
03.156,8.5
03.171,3.26
03.187,-1.97
03.203,-7.36
03.218,-12.97
03.234,-18.64
03.250,-23.98
03.265,-28.43
03.281,-31.55
03.296,-33.24
03.312,-33.69
03.328,-33.37
03.343,-32.76
03.359,-32.12
03.375,-31.51
03.390,-30.71
03.406,-29.5
03.421,-27.77
03.437,-25.69
03.453,-23.55
03.468,-21.71
03.484,-20.39
03.500,-19.63
03.515,-19.29
03.531,-19.25
03.546,-19.36
03.562,-19.6
03.578,-20.0
03.593,-20.44
03.609,-20.68
03.625,-20.38
03.640,-19.23
03.656,-17.14
03.671,-14.32
03.687,-11.23
03.703,-8.51
03.718,-6.62
03.734,-5.6
03.750,-5.12
03.765,-4.62
03.781,-3.56
03.796,-1.75
03.812,0.58
03.828,2.81
03.843,4.37
03.859,4.9
03.875,4.47
03.890,3.47
03.906,2.41
03.921,1.52
03.937,0.73
03.953,-0.32
03.968,-2.12
03.984,-4.91
04.000,-8.66
04.015,-12.91
04.031,-17.11
04.046,-20.58
04.062,-22.78
04.078,-23.44
04.093,-22.49
04.109,-20.06
04.125,-16.42
04.140,-11.85
04.156,-6.63
04.171,-1.06
04.187,4.57
04.203,9.84
04.218,14.3
04.234,17.6
04.250,19.6
04.265,20.55
04.281,20.91
04.296,21.17
04.312,21.67
04.328,22.48
04.343,23.41
04.359,24.17
04.375,24.57
04.390,24.43
04.406,23.85
04.421,22.97
04.437,22.01
04.453,21.25
04.468,20.86
04.484,20.79
04.500,20.74
04.515,20.24
04.531,18.81
04.546,16.17
04.562,12.29
04.578,7.32
04.593,1.61
04.609,-4.44
04.625,-10.4
04.640,-15.78
04.656,-20.06
04.671,-22.97
04.687,-24.49
04.703,-25.03
04.718,-25.24
04.734,-25.63
04.750,-26.33
04.765,-26.92
04.781,-26.75
04.796,-25.12
04.812,-21.83
04.828,-17.16
04.843,-11.75
04.859,-6.37
04.875,-1.33
04.890,3.42
04.906,8.27
04.921,13.54
04.937,19.12
04.953,24.46
04.968,28.73
04.984,31.22
05.000,31.73
05.015,30.67
05.031,28.85
05.046,27.12
05.062,25.97
05.078,25.41
05.093,25.15
05.109,24.91
05.125,24.61
05.140,24.45
05.156,24.7
05.171,25.36
05.187,26.13
05.203,26.39
05.218,25.49
05.234,23.01
05.250,18.93
05.265,13.71
05.281,8.05
05.296,2.67
05.312,-1.89
05.328,-5.42
05.343,-8.06
05.359,-10.2
05.375,-12.31
05.390,-14.8
05.406,-17.83
05.421,-21.39
05.437,-25.21
05.453,-29.01
05.468,-32.44
05.484,-35.24
05.500,-37.2
05.515,-38.14
05.531,-37.96
05.546,-36.63
05.562,-34.29
05.578,-31.13
05.593,-27.46
05.609,-23.53
05.625,-19.49
05.640,-15.43
05.656,-11.32
05.671,-7.25
05.687,-3.34
05.703,0.13
05.718,2.95
05.734,5.01
05.750,6.4
05.765,7.43
05.781,8.41
05.796,9.55
05.812,10.86
05.828,12.19
05.843,13.29
05.859,14.03
05.875,14.45
05.890,14.72
05.906,15.03
05.921,15.4
05.937,15.71
05.953,15.67
05.968,15.05
05.984,13.78
06.000,12.1
06.015,10.35
06.031,8.83
06.046,7.63
06.062,6.5
06.078,5.13
06.093,3.28
06.109,0.99
06.125,-1.46
06.140,-3.81
06.156,-5.9
06.171,-7.85
06.187,-9.84
06.203,-11.94
06.218,-13.89
06.234,-15.34
06.250,-15.9
06.265,-15.37
06.281,-13.68
06.296,-10.72
06.312,-6.31
06.328,-0.28
06.343,7.14
06.359,15.12
06.375,22.3
06.390,27.35
06.406,29.56
06.421,29.19
06.437,27.3
06.453,25.05
06.468,23.08
06.484,21.3
06.500,19.12
06.515,16.13
06.531,12.44
06.546,8.73
06.562,5.84
06.578,4.3
06.593,3.86
06.609,3.82
06.625,3.25
06.640,1.44
06.656,-1.74
06.671,-5.93
06.687,-10.42
06.703,-14.4
06.718,-17.28
06.734,-18.83
06.750,-19.22
06.765,-18.9
06.781,-18.31
06.796,-17.78
06.812,-17.43
06.828,-17.35
06.843,-17.62
06.859,-18.53
06.875,-20.31
06.890,-23.04
06.906,-26.46
06.921,-29.93
06.937,-32.59
06.953,-33.68
06.968,-32.83
06.984,-30.16
07.000,-26.16
07.015,-21.42
07.031,-16.48
07.046,-11.68
07.062,-7.23
07.078,-3.19
07.093,0.37
07.109,3.34
07.125,5.68
07.140,7.39
07.156,8.65
07.171,9.62
07.187,10.52
07.203,11.36
07.218,12.1
07.234,12.62
07.250,12.87
07.265,12.87
07.281,12.82
07.296,12.82
07.312,12.86
07.328,12.7
07.343,11.99
07.359,10.44
07.375,7.96
07.390,4.85
07.406,1.57
07.421,-1.37
07.437,-3.68
07.453,-5.33
07.468,-6.61
07.484,-7.81
07.500,-9.14
07.515,-10.55
07.531,-11.84
07.546,-12.85
07.562,-13.6
07.578,-14.33
07.593,-15.31
07.609,-16.72
07.625,-18.41
07.640,-19.88
07.656,-20.44
07.671,-19.51
07.687,-16.85
07.703,-12.69
07.718,-7.63
07.734,-2.25
07.750,2.94
07.765,7.79
07.781,12.41
07.796,16.91
07.812,21.2
07.828,24.91
07.843,27.45
07.859,28.32
07.875,27.35
07.890,24.81
07.906,21.39
07.921,17.89
07.937,14.87
07.953,12.59
07.968,10.84
07.984,9.21
08.000,7.29
08.015,4.87
08.031,2.07
08.046,-0.8
08.062,-3.43
08.078,-5.67
08.093,-7.6
08.109,-9.45
08.125,-11.48
08.140,-13.72
08.156,-15.98
08.171,-17.85
08.187,-19.1
08.203,-19.74
08.218,-20.24
08.234,-21.21
08.250,-23.03
08.265,-25.67
08.281,-28.51
08.296,-30.74
08.312,-31.71
08.328,-31.42
08.343,-30.48
08.359,-29.76
08.375,-29.83
08.390,-30.57
08.406,-31.14
08.421,-30.39
08.437,-27.45
08.453,-22.16
08.468,-15.26
08.484,-7.91
08.500,-1.34
08.515,3.77
08.531,7.48
08.546,10.31
08.562,12.93
08.578,15.67
08.593,18.35
08.609,20.39
08.625,21.28
08.640,20.86
08.656,19.47
08.671,17.9
08.687,16.88
08.703,16.81
08.718,17.49
08.734,18.36
08.750,18.77
08.765,18.42
08.781,17.29
08.796,15.68
08.812,13.96
08.828,12.36
08.843,10.89
08.859,9.32
08.875,7.41
08.890,5.02
08.906,2.32
08.921,-0.4
08.937,-2.79
08.953,-4.55
08.968,-5.74
08.984,-6.54
09.000,-7.4
09.015,-8.74
09.031,-10.78
09.046,-13.59
09.062,-16.95
09.078,-20.64
09.093,-24.29
09.109,-27.65
09.125,-30.36
09.140,-32.0
09.156,-32.11
09.171,-30.31
09.187,-26.5
09.203,-20.84
09.218,-13.94
09.234,-6.59
09.250,0.41
09.265,6.55
09.281,11.62
09.296,15.73
09.312,19.1
09.328,21.82
09.343,23.88
09.359,25.06
09.375,25.28
09.390,24.63
09.406,23.5
09.421,22.38
09.437,21.7
09.453,21.62
09.468,21.91
09.484,22.19
09.500,22.01
09.515,21.1
09.531,19.55
09.546,17.58
09.562,15.53
09.578,13.6
09.593,11.77
09.609,9.81
09.625,7.56
09.640,4.94
09.656,2.08
09.671,-0.73
09.687,-3.32
09.703,-5.59
09.718,-7.69
09.734,-9.79
09.750,-11.99
09.765,-14.2
09.781,-16.29
09.796,-18.16
09.812,-19.8
09.828,-21.35
09.843,-22.82
09.859,-24.02
09.875,-24.48
09.890,-23.68
09.906,-21.09
09.921,-16.68
09.937,-10.79
09.953,-4.07
09.968,2.68
09.984,8.86
10.000,14.06
10.015,18.17
10.031,21.36
10.046,24.02
10.062,26.58
10.078,29.35
10.093,32.4
10.109,35.31
10.125,37.48
10.140,38.32
10.156,37.56
10.171,35.48
10.187,32.78
10.203,30.26
10.218,28.49
10.234,27.64
10.250,27.34
10.265,27.11
10.281,26.54
10.296,25.37
10.312,23.6
10.328,21.22
10.343,18.13
10.359,14.12
10.375,9.03
10.390,2.83
10.406,-4.11
10.421,-11.13
10.437,-17.46
10.453,-22.41
10.468,-25.74
10.484,-27.64
10.500,-28.59
10.515,-29.14
10.531,-29.63
10.546,-30.06
10.562,-30.29
10.578,-30.14
10.593,-29.44
10.609,-28.15
10.625,-26.21
10.640,-23.56
10.656,-20.07
10.671,-15.78
10.687,-10.8
10.703,-5.42
10.718,-0.13
10.734,4.74
10.750,8.94
10.765,12.36
10.781,15.03
10.796,16.9
10.812,17.81
10.828,17.56
10.843,16.04
10.859,13.34
10.875,9.89
10.890,6.36
10.906,3.43
10.921,1.56
10.937,0.8
10.953,0.78
10.968,0.95
10.984,0.74
11.000,-0.11
11.015,-1.56
11.031,-3.35
11.046,-5.22
11.062,-7.0
11.078,-8.73
11.093,-10.55
11.109,-12.64
11.125,-15.08
11.140,-17.84
11.156,-20.61
11.171,-22.84
11.187,-23.74
11.203,-22.33
11.218,-17.96
11.234,-10.69
11.250,-1.48
11.265,7.85
11.281,15.15
11.296,18.72
11.312,17.89
11.328,13.09
11.343,5.71
11.359,-2.57
11.375,-10.38
11.390,-16.9
11.406,-21.71
11.421,-24.71
11.437,-25.71
11.453,-24.49
11.468,-21.02
11.484,-15.58
11.500,-8.83
11.515,-1.6
11.531,5.55
11.546,12.61
11.562,20.07
11.578,28.46
11.593,37.89
11.609,47.58
11.625,56.02
11.640,61.47
11.656,62.74
11.671,59.64
11.687,53.04
11.703,44.46
11.718,35.27
11.734,26.29
11.750,17.64
11.765,9.03
11.781,0.13
11.796,-9.16
11.812,-18.68
11.828,-28.09
11.843,-37.01
11.859,-45.07
11.875,-51.82
11.890,-56.91
11.906,-60.04
11.921,-61.2
11.937,-60.89
11.953,-59.91
11.968,-59.21
11.984,-59.47
12.000,-60.78
12.015,-62.42
12.031,-63.28
12.046,-62.19
12.062,-58.4
12.078,-52.0
12.093,-43.81
12.109,-35.12
12.125,-27.21
12.140,-20.89
12.156,-16.29
12.171,-13.02
12.187,-10.5
12.203,-8.24
12.218,-6.06
12.234,-3.91
12.250,-1.73
12.265,0.63
12.281,3.45
12.296,7.03
12.312,11.54
12.328,16.88
12.343,22.77
12.359,28.69
12.375,34.21
12.390,39.17
12.406,43.72
12.421,48.41
12.437,53.87
12.453,60.33
12.468,67.42
12.484,74.18
12.500,79.33
12.515,81.94
12.531,81.84
12.546,79.62
12.562,76.25
12.578,72.5
12.593,68.58
12.609,64.12
12.625,58.65
12.640,51.89
12.656,44.13
12.671,36.09
12.687,28.51
12.703,21.89
12.718,16.32
12.734,11.59
12.750,7.49
12.765,3.84
12.781,0.57
12.796,-2.45
12.812,-5.38
12.828,-8.43
12.843,-11.6
12.859,-14.63
12.875,-16.95
12.890,-17.91
12.906,-17.14
12.921,-14.64
12.937,-10.8
12.953,-6.25
12.968,-1.65
12.984,2.45
13.000,5.72
13.015,8.02
13.031,9.3
13.046,9.55
13.062,8.79
13.078,7.01
13.093,4.25
13.109,0.75
13.125,-3.2
13.140,-7.14
13.156,-10.75
13.171,-13.88
13.187,-16.66
13.203,-19.36
13.218,-22.31
13.234,-25.55
13.250,-28.86
13.265,-31.88
13.281,-34.16
13.296,-35.53
13.312,-36.01
13.328,-35.95
13.343,-35.73
13.359,-35.74
13.375,-36.13
13.390,-36.76
13.406,-37.32
13.421,-37.37
13.437,-36.53
13.453,-34.49
13.468,-31.12
13.484,-26.44
13.500,-20.61
13.515,-13.88
13.531,-6.55
13.546,0.95
13.562,8.13
13.578,14.43
13.593,19.33
13.609,22.47
13.625,23.84
13.640,23.84
13.656,23.23
13.671,22.96
13.687,23.91
13.703,26.5
13.718,30.52
13.734,35.23
13.750,39.59
13.765,42.65
13.781,43.9
13.796,43.32
13.812,41.33
13.828,38.43
13.843,34.99
13.859,31.24
13.875,27.23
13.890,23.03
13.906,18.79
13.921,14.62
13.937,10.53
13.953,6.44
13.968,2.18
13.984,-2.31
14.000,-6.83
14.015,-11.01
14.031,-14.39
14.046,-16.72
14.062,-18.07
14.078,-18.83
14.093,-19.49
14.109,-20.39
14.125,-21.57
14.140,-22.67
14.156,-23.15
14.171,-22.36
14.187,-19.86
14.203,-15.56
14.218,-9.73
14.234,-3.02
14.250,3.73
14.265,9.69
14.281,14.26
14.296,17.2
14.312,18.61
14.328,18.82
14.343,18.13
14.359,16.81
14.375,14.98
14.390,12.77
14.406,10.38
14.421,8.06
14.437,6.08
14.453,4.57
14.468,3.45
14.484,2.47
14.500,1.33
14.515,-0.12
14.531,-1.82
14.546,-3.43
14.562,-4.65
14.578,-5.25
14.593,-5.23
14.609,-4.94
14.625,-4.79
14.640,-5.15
14.656,-6.19
14.671,-7.77
14.687,-9.47
14.703,-10.96
14.718,-11.97
14.734,-12.5
14.750,-12.67
14.765,-12.65
14.781,-12.61
14.796,-12.7
14.812,-13.12
14.828,-14.06
14.843,-15.72
14.859,-18.09
14.875,-20.85
14.890,-23.38
14.906,-24.89
14.921,-24.74
14.937,-22.66
14.953,-18.85
14.968,-13.82
14.984,-8.2
15.000,-2.44
15.015,3.2
15.031,8.61
15.046,13.69
15.062,18.16
15.078,21.74
15.093,24.15
15.109,25.26
15.125,25.22
15.140,24.37
15.156,23.05
15.171,21.51
15.187,19.91
15.203,18.15
15.218,16.17
15.234,13.87
15.250,11.23
15.265,8.26
15.281,5.06
15.296,1.74
15.312,-1.7
15.328,-5.29
15.343,-9.11
15.359,-13.15
15.375,-17.16
15.390,-20.56
15.406,-22.61
15.421,-22.73
15.437,-20.76
15.453,-17.32
15.468,-13.64
15.484,-11.28
15.500,-11.49
15.515,-14.8
15.531,-20.77
15.546,-28.29
15.562,-36.13
15.578,-43.41
15.593,-49.87
15.609,-55.63
15.625,-60.85
15.640,-65.19
15.656,-67.92
15.671,-68.01
15.687,-64.69
15.703,-57.98
15.718,-48.75
15.734,-38.52
15.750,-28.79
15.765,-20.57
15.781,-14.02
15.796,-8.69
15.812,-4.05
15.828,0.1
15.843,3.51
15.859,5.77
15.875,6.7
15.890,6.75
15.906,6.81
15.921,7.7
15.937,9.83
15.953,12.72
15.968,15.46
15.984,17.13
16.000,17.38
16.015,16.54
16.031,15.54
16.046,15.36
16.062,16.59
16.078,19.21
16.093,22.64
16.109,25.94
16.125,28.29
16.140,29.17
16.156,28.47
16.171,26.43
16.187,23.41
16.203,19.72
16.218,15.52
16.234,10.85
16.250,5.82
16.265,0.74
16.281,-3.9
16.296,-7.65
16.312,-10.24
16.328,-11.77
16.343,-12.61
16.359,-13.1
16.375,-13.25
16.390,-12.71
16.406,-10.9
16.421,-7.42
16.437,-2.35
16.453,3.71
16.468,9.83
16.484,15.16
16.500,19.3
16.515,22.3
16.531,24.54
16.546,26.4
16.562,27.99
16.578,29.11
16.593,29.5
16.609,28.96
16.625,27.58
16.640,25.81
16.656,24.23
16.671,23.36
16.687,23.41
16.703,24.2
16.718,25.25
16.734,26.11
16.750,26.48
16.765,26.39
16.781,26.08
16.796,25.76
16.812,25.42
16.828,24.74
16.843,23.26
16.859,20.73
16.875,17.36
16.890,13.82
16.906,10.93
16.921,9.34
16.937,9.03
16.953,9.43
16.968,9.59
16.984,8.72
17.000,6.54
17.015,3.4
17.031,-0.08
17.046,-3.27
17.062,-5.72
17.078,-7.26
17.093,-7.58
17.109,-6.29
17.125,-3.0
17.140,2.28
17.156,9.02
17.171,16.12
17.187,22.45
17.203,27.34
17.218,30.68
17.234,32.93
17.250,34.51
17.265,35.38
17.281,34.98
17.296,32.52
17.312,27.51
17.328,20.14
17.343,11.28
17.359,2.1
17.375,-6.1
17.390,-12.4
17.406,-16.28
17.421,-17.67
17.437,-16.88
17.453,-14.44
17.468,-10.98
17.484,-6.99
17.500,-2.66
17.515,2.1
17.531,7.53
17.546,13.66
17.562,20.23
17.578,26.66
17.593,32.56
17.609,38.15
17.625,44.44
17.640,52.76
17.656,63.8
17.671,76.82
17.687,89.43
17.703,98.49
17.718,101.46
17.734,97.72
17.750,88.92
17.765,78.21
17.781,68.9
17.796,63.29
17.812,62.19
17.828,65.3
17.843,71.99
17.859,81.61
17.875,93.59
17.890,107.2
17.906,121.11
17.921,133.63
17.937,143.04
17.953,148.13
17.968,148.34
17.984,143.86
18.000,135.06
18.015,122.35
18.031,105.94
18.046,85.83
18.062,62.18
18.078,35.53
18.093,7.07
18.109,-21.55
18.125,-48.44
18.140,-72.06
18.156,-91.54
18.171,-106.67
18.187,-117.79
18.203,-125.34
18.218,-129.73
18.234,-131.28
18.250,-130.44
18.265,-127.78
18.281,-124.13
18.296,-120.3
18.312,-116.83
18.328,-114.02
18.343,-111.71
18.359,-109.59
18.375,-107.46
18.390,-105.21
18.406,-102.91
18.421,-100.73
18.437,-98.78
18.453,-97.03
18.468,-95.46
18.484,-93.95
18.500,-92.37
18.515,-90.51
18.531,-88.0
18.546,-84.48
18.562,-79.62
18.578,-73.34
18.593,-65.81
18.609,-57.43
18.625,-48.64
18.640,-39.74
18.656,-31.08
18.671,-22.92
18.687,-15.67
18.703,-9.89
18.718,-6.03
18.734,-4.14
18.750,-3.83
18.765,-4.25
18.781,-4.59
18.796,-4.47
18.812,-4.07
18.828,-4.0
18.843,-4.88
18.859,-6.83
18.875,-9.41
18.890,-11.78
18.906,-13.11
18.921,-13.08
18.937,-11.99
18.953,-10.66
18.968,-10.01
18.984,-10.7
19.000,-12.79
19.015,-15.9
19.031,-19.51
19.046,-23.15
19.062,-26.65
19.078,-30.09
19.093,-33.46
19.109,-36.59
19.125,-39.12
19.140,-40.59
19.156,-40.96
19.171,-40.59
19.187,-40.19
19.203,-40.42
19.218,-41.58
19.234,-43.2
19.250,-44.36
19.265,-44.03
19.281,-41.48
19.296,-36.69
19.312,-30.19
19.328,-22.85
19.343,-15.45
19.359,-8.49
19.375,-2.06
19.390,3.87
19.406,9.24
19.421,13.82
19.437,17.19
19.453,18.92
19.468,18.95
19.484,17.63
19.500,15.68
19.515,13.98
19.531,13.23
19.546,13.52
19.562,14.53
19.578,15.59
19.593,16.16
19.609,16.14
19.625,15.78
19.640,15.53
19.656,15.58
19.671,15.74
19.687,15.4
19.703,13.98
19.718,11.2
19.734,7.35
19.750,3.17
19.765,-0.67
19.781,-3.74
19.796,-6.15
19.812,-8.32
19.828,-10.68
19.843,-13.34
19.859,-16.18
19.875,-18.92
19.890,-21.4
19.906,-23.76
19.921,-26.26
19.937,-29.04
19.953,-31.91
19.968,-34.21
19.984,-34.99
20.000,-33.36
20.015,-28.89
20.031,-21.75
20.046,-12.84
20.062,-3.32
20.078,5.67
20.093,13.35
20.109,19.47
20.125,24.15
20.140,27.61
20.156,29.91
20.171,30.97
20.187,30.56
20.203,28.68
20.218,25.62
20.234,22.06
20.250,18.68
20.265,15.99
20.281,14.04
20.296,12.46
20.312,10.82
20.328,8.79
20.343,6.5
20.359,4.32
20.375,2.68
20.390,1.63
20.406,0.88
20.421,-0.13
20.437,-1.91
20.453,-4.65
20.468,-8.12
20.484,-11.82
20.500,-15.26
20.515,-18.21
20.531,-20.73
20.546,-23.12
20.562,-25.67
20.578,-28.49
20.593,-31.41
20.609,-34.18
20.625,-36.58
20.640,-38.55
20.656,-40.18
20.671,-41.51
20.687,-42.36
20.703,-42.23
20.718,-40.59
20.734,-37.04
20.750,-31.56
20.765,-24.66
20.781,-17.09
20.796,-9.58
20.812,-2.67
20.828,3.46
20.843,8.93
20.859,13.82
20.875,18.24
20.890,22.12
20.906,25.29
20.921,27.66
20.937,29.21
20.953,30.05
20.968,30.37
20.984,30.41
21.000,30.39
21.015,30.4
21.031,30.44
21.046,30.31
21.062,29.74
21.078,28.53
21.093,26.73
21.109,24.53
21.125,22.28
21.140,20.19
21.156,18.27
21.171,16.25
21.187,13.72
21.203,10.38
21.218,6.12
21.234,1.13
21.250,-4.23
21.265,-9.52
21.281,-14.42
21.296,-18.73
21.312,-22.44
21.328,-25.7
21.343,-28.73
21.359,-31.83
21.375,-35.1
21.390,-38.43
21.406,-41.41
21.421,-43.51
21.437,-44.15
21.453,-42.85
21.468,-39.4
21.484,-33.86
21.500,-26.56
21.515,-18.05
21.531,-9.0
21.546,-0.03
21.562,8.34
21.578,15.74
21.593,22.11
21.609,27.49
21.625,31.99
21.640,35.6
21.656,38.22
21.671,39.62
21.687,39.63
21.703,38.29
21.718,35.94
21.734,33.24
21.750,30.89
21.765,29.43
21.781,28.97
21.796,29.14
21.812,29.28
21.828,28.79
21.843,27.39
21.859,25.22
21.875,22.73
21.890,20.29
21.906,18.11
21.921,16.0
21.937,13.66
21.953,10.84
21.968,7.48
21.984,3.72
22.000,-0.28
22.015,-4.43
22.031,-8.71
22.046,-12.99
22.062,-16.88
22.078,-19.72
22.093,-20.91
22.109,-20.21
22.125,-18.12
22.140,-15.86
22.156,-14.96
22.171,-16.65
22.187,-21.49
22.203,-29.13
22.218,-38.37
22.234,-47.55
22.250,-54.88
22.265,-58.85
22.281,-58.51
22.296,-53.67
22.312,-44.85
22.328,-33.14
22.343,-19.89
22.359,-6.43
22.375,6.09
22.390,16.82
22.406,25.17
22.421,30.82
22.437,33.77
22.453,34.51
22.468,33.84
22.484,32.63
22.500,31.56
22.515,30.86
22.531,30.29
22.546,29.35
22.562,27.64
22.578,25.02
22.593,21.67
22.609,18.03
22.625,14.54
22.640,11.58
22.656,9.24
22.671,7.35
22.687,5.54
22.703,3.39
22.718,0.63
22.734,-2.68
22.750,-6.2
22.765,-9.52
22.781,-12.29
22.796,-14.55
22.812,-16.61
22.828,-18.87
22.843,-21.62
22.859,-24.9
22.875,-28.57
22.890,-32.4
22.906,-36.16
22.921,-39.56
22.937,-42.23
22.953,-43.66
22.968,-43.18
22.984,-40.35
23.000,-35.09
23.015,-27.85
23.031,-19.41
23.046,-10.65
23.062,-2.26
23.078,5.36
23.093,12.02
23.109,17.73
23.125,22.49
23.140,26.31
23.156,29.15
23.171,31.02
23.187,31.98
23.203,32.08
23.218,31.51
23.234,30.46
23.250,29.16
23.265,27.87
23.281,26.73
23.296,25.81
23.312,25.0
23.328,24.24
23.343,23.54
23.359,23.11
23.375,23.14
23.390,23.64
23.406,24.41
23.421,24.97
23.437,24.93
23.453,24.05
23.468,22.47
23.484,20.46
23.500,18.32
23.515,16.09
23.531,13.59
23.546,10.56
23.562,6.8
23.578,2.37
23.593,-2.49
23.609,-7.5
23.625,-12.47
23.640,-17.39
23.656,-22.46
23.671,-27.87
23.687,-33.58
23.703,-39.22
23.718,-43.89
23.734,-46.46
23.750,-46.05
23.765,-42.37
23.781,-35.88
23.796,-27.67
23.812,-19.0
23.828,-10.78
23.843,-3.46
23.859,3.05
23.875,8.98
23.890,14.29
23.906,18.7
23.921,21.79
23.937,23.36
23.953,23.62
23.968,23.25
23.984,23.04
24.000,23.57
24.015,25.01
24.031,27.0
24.046,28.97
24.062,30.34
24.078,30.85
24.093,30.6
24.109,30.02
24.125,29.57
24.140,29.55
24.156,29.95
24.171,30.46
24.187,30.62
24.203,29.96
24.218,28.27
24.234,25.7
24.250,22.61
24.265,19.4
24.281,16.24
24.296,12.99
24.312,9.35
24.328,5.15
24.343,0.42
24.359,-4.56
24.375,-9.41
24.390,-13.88
24.406,-18.03
24.421,-22.16
24.437,-26.65
24.453,-31.68
24.468,-36.99
24.484,-41.91
24.500,-45.58
24.515,-47.09
24.531,-45.95
24.546,-42.09
24.562,-35.97
24.578,-28.33
24.593,-20.01
24.609,-11.69
24.625,-3.85
24.640,3.22
24.656,9.24
24.671,14.03
24.687,17.4
24.703,19.37
24.718,20.19
24.734,20.23
24.750,19.87
24.765,19.31
24.781,18.48
24.796,17.15
24.812,15.12
24.828,12.43
24.843,9.5
24.859,6.94
24.875,5.27
24.890,4.62
24.906,4.61
24.921,4.53
24.937,3.64
24.953,1.6
24.968,-1.47
24.984,-4.94
25.000,-8.12
25.015,-10.52
25.031,-12.03
25.046,-12.84
25.062,-13.15
25.078,-13.14
25.093,-12.76
25.109,-12.06
25.125,-11.24
25.140,-10.78
25.156,-11.32
25.171,-13.43
25.187,-17.38
25.203,-22.92
25.218,-29.41
25.234,-35.91
25.250,-41.38
25.265,-44.9
25.281,-45.84
25.296,-44.0
25.312,-39.65
25.328,-33.43
25.343,-26.14
25.359,-18.56
25.375,-11.17
25.390,-4.08
25.406,2.73
25.421,9.29
25.437,15.42
25.453,20.69
25.468,24.69
25.484,27.12
25.500,28.05
25.515,27.79
25.531,26.78
25.546,25.3
25.562,23.59
25.578,21.78
25.593,20.07
25.609,18.7
25.625,17.89
25.640,17.64
25.656,17.69
25.671,17.65
25.687,17.1
25.703,16.0
25.718,14.57
25.734,13.22
25.750,12.24
25.765,11.72
25.781,11.45
25.796,11.08
25.812,10.29
25.828,8.91
25.843,7.03
25.859,4.81
25.875,2.48
25.890,0.18
25.906,-2.11
25.921,-4.41
25.937,-6.79
25.953,-9.42
25.968,-12.44
25.984,-15.98
26.000,-20.12
26.015,-24.79
26.031,-29.59
26.046,-33.94
26.062,-36.97
26.078,-37.81
26.093,-35.8
26.109,-30.81
26.125,-23.26
26.140,-14.15
26.156,-4.64
26.171,4.33
26.187,12.15
26.203,18.84
26.218,24.71
26.234,30.09
26.250,35.17
26.265,39.74
26.281,43.43
26.296,45.9
26.312,47.01
26.328,46.93
26.343,46.1
26.359,44.96
26.375,43.84
26.390,42.87
26.406,41.96
26.421,41.0
26.437,39.93
26.453,38.82
26.468,37.76
26.484,36.77
26.500,35.59
26.515,33.84
26.531,31.14
26.546,27.31
26.562,22.52
26.578,17.28
26.593,12.22
26.609,7.8
26.625,4.21
26.640,1.22
26.656,-1.65
26.671,-4.82
26.687,-8.48
26.703,-12.48
26.718,-16.36
26.734,-19.76
26.750,-22.43
26.765,-24.61
26.781,-26.76
26.796,-29.38
26.812,-32.71
26.828,-36.49
26.843,-40.03
26.859,-42.33
26.875,-42.54
26.890,-40.09
26.906,-35.01
26.921,-27.64
26.937,-18.69
26.953,-8.9
26.968,1.06
26.984,10.67
27.000,19.54
27.015,27.32
27.031,33.74
27.046,38.49
27.062,41.46
27.078,42.76
27.093,42.69
27.109,41.7
27.125,40.28
27.140,38.9
27.156,37.89
27.171,37.53
27.187,37.83
27.203,38.65
27.218,39.66
27.234,40.4
27.250,40.5
27.265,39.71
27.281,38.01
27.296,35.42
27.312,32.11
27.328,28.23
27.343,23.82
27.359,18.86
27.375,13.22
27.390,7.01
27.406,0.46
27.421,-5.94
27.437,-11.72
27.453,-16.48
27.468,-20.24
27.484,-23.48
27.500,-26.9
27.515,-31.27
27.531,-36.96
27.546,-43.85
27.562,-51.34
27.578,-58.55
27.593,-64.46
27.609,-68.17
27.625,-69.07
27.640,-66.84
27.656,-61.65
27.671,-54.02
27.687,-44.72
27.703,-34.67
27.718,-24.73
27.734,-15.68
27.750,-8.12
27.765,-2.47
27.781,1.3
27.796,3.55
27.812,4.99
27.828,6.37
27.843,8.22
27.859,10.66
27.875,13.45
27.890,16.09
27.906,18.17
27.921,19.52
27.937,20.17
27.953,20.33
27.968,20.15
27.984,19.74
28.000,19.09
28.015,18.13
28.031,16.77
28.046,14.99
28.062,12.86
28.078,10.55
28.093,8.29
28.109,6.25
28.125,4.4
28.140,2.5
28.156,0.23
28.171,-2.77
28.187,-6.58
28.203,-10.96
28.218,-15.53
28.234,-19.84
28.250,-23.69
28.265,-27.12
28.281,-30.41
28.296,-33.82
28.312,-37.46
28.328,-41.23
28.343,-44.94
28.359,-48.48
28.375,-51.73
28.390,-54.53
28.406,-56.45
28.421,-56.86
28.437,-54.95
28.453,-50.19
28.468,-42.57
28.484,-32.73
28.500,-21.94
28.515,-11.51
28.531,-2.45
28.546,4.88
28.562,10.75
28.578,15.76
28.593,20.4
28.609,24.85
28.625,28.85
28.640,31.86
28.656,33.54
28.671,33.89
28.687,33.41
28.703,32.79
28.718,32.64
28.734,33.12
28.750,33.96
28.765,34.65
28.781,34.65
28.796,33.71
28.812,31.88
28.828,29.41
28.843,26.6
28.859,23.67
28.875,20.64
28.890,17.38
28.906,13.81
28.921,9.79
28.937,5.4
28.953,0.75
28.968,-3.97
28.984,-8.58
29.000,-13.0
29.015,-17.29
29.031,-21.66
29.046,-26.35
29.062,-31.51
29.078,-36.97
29.093,-42.43
29.109,-47.53
29.125,-52.13
29.140,-56.37
29.156,-60.41
29.171,-64.3
29.187,-67.64
29.203,-69.69
29.218,-69.53
29.234,-66.63
29.250,-61.16
29.265,-53.93
29.281,-46.17
29.296,-38.94
29.312,-32.83
29.328,-27.98
29.343,-24.31
29.359,-21.68
29.375,-20.03
29.390,-19.3
29.406,-19.14
29.421,-19.1
29.437,-18.75
29.453,-18.06
29.468,-17.48
29.484,-17.86
29.500,-19.99
29.515,-24.17
29.531,-29.88
29.546,-35.74
29.562,-40.01
29.578,-40.97
29.593,-37.7
29.609,-30.41
29.625,-20.52
29.640,-10.25
29.656,-1.82
29.671,3.41
29.687,5.57
29.703,6.16
29.718,7.41
29.734,11.34
29.750,18.82
29.765,29.23
29.781,40.78
29.796,51.24
29.812,58.67
29.828,61.95
29.843,60.73
29.859,55.31
29.875,46.41
29.890,34.91
29.906,22.01
29.921,9.03
29.937,-2.52
29.953,-11.21
29.968,-15.89
29.984,-16.16
30.000,-12.34
30.015,-5.4
30.031,3.23
30.046,12.19
30.062,20.53
30.078,27.8
30.093,34.05
30.109,39.56
30.125,44.41
30.140,48.43
30.156,51.29
30.171,52.68
30.187,52.56
30.203,51.25
30.218,49.27
30.234,47.05
30.250,44.87
30.265,42.76
30.281,40.69
30.296,38.76
30.312,37.28
30.328,36.63
30.343,36.99
30.359,38.26
30.375,39.91
30.390,41.16
30.406,41.32
30.421,40.05
30.437,37.4
30.453,33.76
30.468,29.64
30.484,25.39
30.500,21.12
30.515,16.83
30.531,12.48
30.546,8.2
30.562,4.22
30.578,0.7
30.593,-2.5
30.609,-5.76
30.625,-9.59
30.640,-14.32
30.656,-19.84
30.671,-25.35
30.687,-29.69
30.703,-31.55
30.718,-29.96
30.734,-24.79
30.750,-16.73
30.765,-7.18
30.781,2.29
30.796,10.37
30.812,16.53
30.828,20.94
30.843,24.16
30.859,26.71
30.875,28.75
30.890,30.08
30.906,30.37
30.921,29.62
30.937,28.22
30.953,26.91
30.968,26.35
30.984,26.64
31.000,27.39
31.015,27.75
31.031,27.02
31.046,24.94
31.062,21.93
31.078,18.81
31.093,16.36
31.109,14.96
31.125,14.38
31.140,14.03
31.156,13.23
31.171,11.57
31.187,8.97
31.203,5.68
31.218,2.03
31.234,-1.81
31.250,-5.76
31.265,-9.87
31.281,-14.04
31.296,-18.16
31.312,-22.02
31.328,-25.6
31.343,-29.01
31.359,-32.54
31.375,-36.42
31.390,-40.54
31.406,-44.38
31.421,-46.98
31.437,-47.35
31.453,-44.8
31.468,-39.27
31.484,-31.47
31.500,-22.52
31.515,-13.68
31.531,-5.83
31.546,0.68
31.562,6.02
31.578,10.59
31.593,14.7
31.609,18.41
31.625,21.38
31.640,23.23
31.656,23.77
31.671,23.19
31.687,22.02
31.703,20.88
31.718,20.17
31.734,19.84
31.750,19.53
31.765,18.74
31.781,17.26
31.796,15.22
31.812,13.13
31.828,11.39
31.843,10.16
31.859,9.11
31.875,7.6
31.890,5.06
31.906,1.3
31.921,-3.39
31.937,-8.36
31.953,-12.91
31.968,-16.62
31.984,-19.51
32.000,-22.03
32.015,-24.72
32.031,-28.0
32.046,-32.0
32.062,-36.58
32.078,-41.44
32.093,-46.2
32.109,-50.49
32.125,-53.84
32.140,-55.78
32.156,-55.77
32.171,-53.41
32.187,-48.58
32.203,-41.63
32.218,-33.31
32.234,-24.59
32.250,-16.36
32.265,-9.14
32.281,-2.98
32.296,2.37
32.312,7.32
32.328,12.09
32.343,16.61
32.359,20.62
32.375,23.78
32.390,25.85
32.406,26.89
32.421,27.21
32.437,27.17
32.453,27.01
32.468,26.76
32.484,26.24
32.500,25.31
32.515,23.93
32.531,22.34
32.546,20.88
32.562,19.83
32.578,19.1
32.593,18.28
32.609,16.76
32.625,14.01
32.640,9.92
32.656,4.76
32.671,-0.76
32.687,-5.93
32.703,-10.22
32.718,-13.52
32.734,-16.16
32.750,-18.7
32.765,-21.72
32.781,-25.49
32.796,-29.88
32.812,-34.26
32.828,-37.78
32.843,-39.53
32.859,-38.9
32.875,-35.67
32.890,-30.08
32.906,-22.61
32.921,-13.89
32.937,-4.45
32.953,5.21
32.968,14.65
32.984,23.43
33.000,31.15
33.015,37.46
33.031,42.14
33.046,45.21
33.062,46.85
33.078,47.27
33.093,46.67
33.109,45.23
33.125,43.08
33.140,40.45
33.156,37.56
33.171,34.79
33.187,32.45
33.203,30.72
33.218,29.5
33.234,28.41
33.250,27.0
33.265,24.84
33.281,21.82
33.296,18.01
33.312,13.75
33.328,9.34
33.343,4.99
33.359,0.63
33.375,-3.9
33.390,-8.68
33.406,-13.62
33.421,-18.32
33.437,-22.31
33.453,-25.25
33.468,-27.23
33.484,-28.76
33.500,-30.61
33.515,-33.47
33.531,-37.59
33.546,-42.65
33.562,-47.81
33.578,-52.06
33.593,-54.53
33.609,-54.76
33.625,-52.68
33.640,-48.45
33.656,-42.32
33.671,-34.5
33.687,-25.26
33.703,-14.97
33.718,-4.28
33.734,5.96
33.750,14.99
33.765,22.35
33.781,28.09
33.796,32.69
33.812,36.71
33.828,40.44
33.843,43.78
33.859,46.26
33.875,47.33
33.890,46.75
33.906,44.68
33.921,41.78
33.937,38.75
33.953,36.19
33.968,34.23
33.984,32.62
34.000,30.97
34.015,28.98
34.031,26.69
34.046,24.41
34.062,22.45
34.078,20.84
34.093,19.26
34.109,17.14
34.125,14.18
34.140,10.56
34.156,6.93
34.171,3.95
34.187,1.81
34.203,-0.01
34.218,-2.53
34.234,-6.71
34.250,-12.98
34.265,-20.91
34.281,-29.46
34.296,-37.41
34.312,-43.86
34.328,-48.43
34.343,-51.19
34.359,-52.47
34.375,-52.45
34.390,-51.09
34.406,-48.19
34.421,-43.5
34.437,-37.02
34.453,-29.06
34.468,-20.29
34.484,-11.59
34.500,-3.7
34.515,3.04
34.531,8.7
34.546,13.62
34.562,18.04
34.578,21.8
34.593,24.33
34.609,24.97
34.625,23.39
34.640,19.91
34.656,15.55
34.671,11.59
34.687,9.07
34.703,8.44
34.718,9.23
34.734,10.48
34.750,11.15
34.765,10.59
34.781,8.76
34.796,6.11
34.812,3.22
34.828,0.5
34.843,-2.0
34.859,-4.54
34.875,-7.35
34.890,-10.47
34.906,-13.59
34.921,-16.21
34.937,-17.89
34.953,-18.63
34.968,-18.85
34.984,-19.25
35.000,-20.48
35.015,-22.81
35.031,-26.04
35.046,-29.73
35.062,-33.35
35.078,-36.53
35.093,-39.08
35.109,-40.77
35.125,-41.26
35.140,-40.04
35.156,-36.55
35.171,-30.56
35.187,-22.4
35.203,-12.86
35.218,-3.05
35.234,5.99
35.250,13.67
35.265,19.89
35.281,24.9
35.296,29.05
35.312,32.52
35.328,35.26
35.343,37.06
35.359,37.87
35.375,37.86
35.390,37.45
35.406,37.15
35.421,37.23
35.437,37.63
35.453,38.0
35.468,37.81
35.484,36.69
35.500,34.52
35.515,31.49
35.531,27.98
35.546,24.43
35.562,21.07
35.578,17.93
35.593,14.8
35.609,11.34
35.625,7.43
35.640,3.12
35.656,-1.17
35.671,-4.83
35.687,-7.42
35.703,-8.85
35.718,-9.5
35.734,-10.03
35.750,-11.18
35.765,-13.33
35.781,-16.51
35.796,-20.34
35.812,-24.44
35.828,-28.45
35.843,-32.07
35.859,-34.89
35.875,-36.26
35.890,-35.41
35.906,-31.74
35.921,-25.15
35.937,-16.31
35.953,-6.48
35.968,2.94
35.984,10.87
36.000,16.92
36.015,21.29
36.031,24.52
36.046,27.04
36.062,28.82
36.078,29.47
36.093,28.4
36.109,25.29
36.125,20.38
36.140,14.4
36.156,8.33
36.171,3.12
36.187,-0.64
36.203,-2.84
36.218,-3.72
36.234,-3.67
36.250,-3.2
36.265,-2.78
36.281,-2.91
36.296,-4.05
36.312,-6.39
36.328,-9.74
36.343,-13.49
36.359,-16.87
36.375,-19.18
36.390,-20.1
36.406,-19.82
36.421,-18.86
36.437,-17.75
36.453,-16.89
36.468,-16.57
36.484,-16.95
36.500,-18.2
36.515,-20.45
36.531,-23.72
36.546,-27.83
36.562,-32.48
36.578,-37.18
36.593,-41.57
36.609,-45.29
36.625,-48.0
36.640,-49.25
36.656,-48.58
36.671,-45.66
36.687,-40.33
36.703,-32.83
36.718,-23.57
36.734,-13.16
36.750,-2.26
36.765,8.45
36.781,18.42
36.796,27.12
36.812,34.16
36.828,39.35
36.843,42.62
36.859,44.1
36.875,44.04
36.890,42.75
36.906,40.67
36.921,38.26
36.937,36.01
36.953,34.28
36.968,33.25
36.984,32.81
37.000,32.65
37.015,32.33
37.031,31.5
37.046,29.93
37.062,27.53
37.078,24.37
37.093,20.56
37.109,16.35
37.125,11.98
37.140,7.7
37.156,3.7
37.171,0.04
37.187,-3.31
37.203,-6.57
37.218,-9.98
37.234,-13.63
37.250,-17.39
37.265,-20.96
37.281,-23.88
37.296,-25.88
37.312,-27.05
37.328,-27.81
37.343,-28.85
37.359,-30.68
37.375,-33.46
37.390,-36.63
37.406,-39.23
37.421,-40.2
37.437,-38.71
37.453,-34.62
37.468,-28.39
37.484,-20.85
37.500,-12.82
37.515,-4.9
37.531,2.7
37.546,10.02
37.562,17.04
37.578,23.5
37.593,28.98
37.609,32.95
37.625,35.16
37.640,35.77
37.656,35.28
37.671,34.33
37.687,33.4
37.703,32.63
37.718,31.8
37.734,30.68
37.750,29.17
37.765,27.42
37.781,25.88
37.796,24.86
37.812,24.44
37.828,24.29
37.843,23.85
37.859,22.58
37.875,20.25
37.890,17.06
37.906,13.49
37.921,10.05
37.937,7.09
37.953,4.62
37.968,2.35
37.984,-0.07
38.000,-2.92
38.015,-6.2
38.031,-9.73
38.046,-13.27
38.062,-16.63
38.078,-19.92
38.093,-23.35
38.109,-27.22
38.125,-31.55
38.140,-36.08
38.156,-40.14
38.171,-42.85
38.187,-43.45
38.203,-41.54
38.218,-37.32
38.234,-31.42
38.250,-24.75
38.265,-18.04
38.281,-11.62
38.296,-5.51
38.312,0.44
38.328,6.17
38.343,11.33
38.359,15.4
38.375,17.97
38.390,19.03
38.406,18.91
38.421,18.18
38.437,17.37
38.453,16.68
38.468,16.07
38.484,15.43
38.500,14.71
38.515,13.97
38.531,13.42
38.546,13.17
38.562,13.15
38.578,13.16
38.593,12.87
38.609,12.02
38.625,10.46
38.640,8.38
38.656,6.01
38.671,3.63
38.687,1.33
38.703,-0.99
38.718,-3.65
38.734,-6.86
38.750,-10.64
38.765,-14.65
38.781,-18.38
38.796,-21.41
38.812,-23.62
38.828,-25.32
38.843,-27.02
38.859,-29.23
38.875,-32.21
38.890,-35.81
38.906,-39.59
38.921,-42.87
38.937,-44.99
38.953,-45.45
38.968,-44.03
38.984,-40.79
39.000,-35.94
39.015,-29.83
39.031,-22.75
39.046,-15.01
39.062,-6.97
39.078,0.91
39.093,8.13
39.109,14.3
39.125,19.14
39.140,22.69
39.156,25.18
39.171,26.89
39.187,27.99
39.203,28.48
39.218,28.33
39.234,27.54
39.250,26.32
39.265,24.98
39.281,23.81
39.296,22.94
39.312,22.29
39.328,21.6
39.343,20.53
39.359,18.94
39.375,16.84
39.390,14.39
39.406,11.76
39.421,9.07
39.437,6.28
39.453,3.29
39.468,-0.02
39.484,-3.69
39.500,-7.58
39.515,-11.43
39.531,-14.96
39.546,-17.95
39.562,-20.43
39.578,-22.64
39.593,-24.93
39.609,-27.61
39.625,-30.77
39.640,-34.28
39.656,-37.81
39.671,-41.0
39.687,-43.47
39.703,-44.88
39.718,-44.95
39.734,-43.43
39.750,-40.14
39.765,-35.11
39.781,-28.57
39.796,-21.07
39.812,-13.3
39.828,-5.9
39.843,0.69
39.859,6.31
39.875,11.11
39.890,15.35
39.906,19.17
39.921,22.57
39.937,25.34
39.953,27.26
39.968,28.28
39.984,28.57
40.000,28.45
40.015,28.26
40.031,28.23
40.046,28.25
40.062,28.13
40.078,27.66
40.093,26.72
40.109,25.48
40.125,24.11
40.140,22.8
40.156,21.64
40.171,20.54
40.187,19.28
40.203,17.64
40.218,15.48
40.234,12.72
40.250,9.39
40.265,5.63
40.281,1.65
40.296,-2.3
40.312,-5.99
40.328,-9.48
40.343,-12.93
40.359,-16.7
40.375,-21.0
40.390,-25.8
40.406,-30.81
40.421,-35.53
40.437,-39.47
40.453,-42.23
40.468,-43.55
40.484,-43.18
40.500,-40.9
40.515,-36.6
40.531,-30.31
40.546,-22.47
40.562,-13.82
40.578,-5.33
40.593,2.22
40.609,8.4
40.625,13.31
40.640,17.32
40.656,20.87
40.671,24.13
40.687,26.92
40.703,28.87
40.718,29.69
40.734,29.46
40.750,28.63
40.765,27.87
40.781,27.7
40.796,28.23
40.812,29.13
40.828,29.84
40.843,29.88
40.859,29.02
40.875,27.44
40.890,25.56
40.906,23.64
40.921,21.73
40.937,19.51
40.953,16.51
40.968,12.4
40.984,7.22
41.000,1.38
41.015,-4.49
41.031,-9.8
41.046,-14.36
41.062,-18.3
41.078,-22.03
41.093,-25.9
41.109,-30.06
41.125,-34.39
41.140,-38.66
41.156,-42.67
41.171,-46.3
41.187,-49.48
41.203,-52.06
41.218,-53.7
41.234,-53.92
41.250,-52.21
41.265,-48.24
41.281,-42.03
41.296,-33.98
41.312,-24.87
41.328,-15.56
41.343,-6.82
41.359,0.95
41.375,7.64
41.390,13.45
41.406,18.56
41.421,22.99
41.437,26.46
41.453,28.6
41.468,29.23
41.484,28.56
41.500,27.2
41.515,25.93
41.531,25.39
41.546,25.75
41.562,26.66
41.578,27.42
41.593,27.3
41.609,25.89
41.625,23.28
41.640,20.03
41.656,17.0
41.671,14.98
41.687,14.42
41.703,15.14
41.718,16.46
41.734,17.21
41.750,16.38
41.765,13.45
41.781,8.76
41.796,3.5
41.812,-0.91
41.828,-3.52
41.843,-4.55
41.859,-5.36
41.875,-8.04
41.890,-14.36
41.906,-24.81
41.921,-38.24
41.937,-52.24
41.953,-63.86
41.968,-70.62
41.984,-70.99
42.000,-64.66
42.015,-52.62
42.031,-37.52
42.046,-23.83
42.062,-17.37
42.078,-23.59
42.093,-44.81
42.109,-78.07
42.125,-114.82
42.140,-143.43
42.156,-153.5
42.171,-139.9
42.187,-104.28
42.203,-53.65
42.218,2.82
42.234,56.78
42.250,102.28
42.265,135.44
42.281,153.68
42.296,155.53
42.312,141.42
42.328,114.48
42.343,80.25
42.359,45.03
42.375,13.62
42.390,-11.95
42.406,-32.1
42.421,-48.1
42.437,-60.49
42.453,-68.67
42.468,-71.45
42.484,-68.09
42.500,-58.66
42.515,-43.58
42.531,-23.06
42.546,2.96
42.562,34.12
42.578,68.91
42.593,104.31
42.609,136.53
42.625,162.21
42.640,179.38
42.656,187.53
42.671,186.55
42.687,175.8
42.703,154.18
42.718,121.1
42.734,77.68
42.750,27.3
42.765,-25.17
42.781,-74.7
42.796,-117.4
42.812,-151.09
42.828,-175.09
42.843,-189.89
42.859,-196.99
42.875,-198.68
42.890,-197.4
42.906,-194.93
42.921,-191.41
42.937,-185.26
42.953,-173.76
42.968,-154.53
42.984,-126.68
43.000,-91.29
43.015,-51.2
43.031,-10.01
43.046,28.66
43.062,61.7
43.078,87.05
43.093,103.97
43.109,113.12
43.125,116.07
43.140,114.59
43.156,110.07
43.171,103.51
43.187,95.77
43.203,87.84
43.218,80.54
43.234,73.7
43.250,65.79
43.265,54.21
43.281,36.95
43.296,14.22
43.312,-10.77
43.328,-32.93
43.343,-47.71
43.359,-53.3
43.375,-51.09
43.390,-44.22
43.406,-35.13
43.421,-23.79
43.437,-7.84
43.453,15.85
43.468,48.63
43.484,88.65
43.500,131.04
43.515,169.63
43.531,199.57
43.546,219.28
43.562,230.66
43.578,237.45
43.593,242.6
43.609,246.34
43.625,246.15
43.640,238.51
43.656,221.64
43.671,197.15
43.687,169.49
43.703,143.38
43.718,120.72
43.734,98.53
43.750,70.06
43.765,27.94
43.781,-31.92
43.796,-107.57
43.812,-190.64
43.828,-268.46
43.843,-327.71
43.859,-358.28
43.875,-355.6
43.890,-321.08
43.906,-260.7
43.921,-183.06
43.937,-97.53
43.953,-13.22
43.968,61.49
43.984,119.93
44.000,158.61
44.015,178.99
44.031,188.0
44.046,195.78
44.062,211.4
44.078,238.18
44.093,271.57
44.109,300.87
44.125,314.3
44.140,304.36
44.156,270.76
44.171,219.67
44.187,159.92
44.203,99.2
44.218,42.18
44.234,-9.44
44.250,-55.15
44.265,-94.18
44.281,-125.48
44.296,-148.6
44.312,-164.64
44.328,-176.24
44.343,-186.56
44.359,-197.97
44.375,-211.41
44.390,-226.68
44.406,-243.14
44.421,-260.39
44.437,-278.32
44.453,-296.41
44.468,-313.1
44.484,-325.29
44.500,-328.85
44.515,-319.89
44.531,-296.04
44.546,-257.64
44.562,-208.12
44.578,-153.4
44.593,-100.63
44.609,-56.58
44.625,-25.98
44.640,-10.63
44.656,-9.54
44.671,-19.9
44.687,-38.63
44.703,-63.35
44.718,-92.44
44.734,-124.16
44.750,-155.64
44.765,-182.78
44.781,-201.23
44.796,-208.25
44.812,-203.9
44.828,-191.07
44.843,-173.98
44.859,-156.14
44.875,-139.09
44.890,-122.55
44.906,-105.88
44.921,-89.35
44.937,-74.53
44.953,-63.13
44.968,-55.51
44.984,-49.75
45.000,-42.04
45.015,-28.35
45.031,-6.08
45.046,24.8
45.062,61.66
45.078,100.3
45.093,136.34
45.109,166.51
45.125,189.33
45.140,205.06
45.156,215.03
45.171,220.83
45.187,223.4
45.203,222.72
45.218,217.84
45.234,207.55
45.250,191.32
45.265,169.63
45.281,143.93
45.296,116.09
45.312,87.91
45.328,60.87
45.343,36.29
45.359,15.46
45.375,-0.45
45.390,-10.73
45.406,-15.53
45.421,-15.72
45.437,-12.72
45.453,-7.89
45.468,-2.1
45.484,4.29
45.500,11.42
45.515,19.43
45.531,28.34
45.546,38.07
45.562,48.63
45.578,60.17
45.593,72.71
45.609,85.6
45.625,97.2
45.640,104.94
45.656,105.95
45.671,98.21
45.687,81.49
45.703,57.74
45.718,30.57
45.734,4.04
45.750,-18.54
45.765,-35.42
45.781,-46.36
45.796,-52.13
45.812,-53.54
45.828,-51.07
45.843,-44.87
45.859,-35.34
45.875,-23.61
45.890,-11.67
45.906,-1.71
45.921,4.85
45.937,8.0
45.953,9.21
45.968,10.76
45.984,14.58
46.000,21.27
46.015,29.92
46.031,38.55
46.046,45.01
46.062,47.91
46.078,46.95
46.093,42.85
46.109,36.65
46.125,29.25
46.140,21.25
46.156,12.97
46.171,4.74
46.187,-2.75
46.203,-8.63
46.218,-11.98
46.234,-12.18
46.250,-9.32
46.265,-4.34
46.281,1.26
46.296,5.97
46.312,8.76
46.328,9.56
46.343,8.99
46.359,7.92
46.375,6.94
46.390,6.0
46.406,4.64
46.421,2.49
46.437,-0.25
46.453,-2.71
46.468,-3.57
46.484,-1.64
46.500,3.5
46.515,11.42
46.531,20.87
46.546,30.28
46.562,38.44
46.578,44.89
46.593,49.93
46.609,54.16
46.625,57.84
46.640,60.11
46.656,59.01
46.671,52.18
46.687,38.09
46.703,17.04
46.718,-8.74
46.734,-35.87
46.750,-61.12
46.765,-82.34
46.781,-98.48
46.796,-108.92
46.812,-112.91
46.828,-109.65
46.843,-99.19
46.859,-83.4
46.875,-66.09
46.890,-51.82
46.906,-44.12
46.921,-43.88
46.937,-49.12
46.953,-56.17
46.968,-61.47
46.984,-62.92
47.000,-60.13
47.015,-53.79
47.031,-44.69
47.046,-33.15
47.062,-18.98
47.078,-1.84
47.093,18.44
47.109,41.74
47.125,67.65
47.140,95.31
47.156,123.31
47.171,149.68
47.187,172.21
47.203,189.07
47.218,199.29
47.234,203.09
47.250,201.54
47.265,196.17
47.281,188.58
47.296,180.28
47.312,172.69
47.328,166.76
47.343,162.67
47.359,159.48
47.375,155.35
47.390,148.24
47.406,136.99
47.421,121.96
47.437,105.0
47.453,88.69
47.468,75.21
47.484,65.48
47.500,59.09
47.515,54.75
47.531,50.83
47.546,45.99
47.562,39.22
47.578,29.85
47.593,17.41
47.609,1.73
47.625,-17.06
47.640,-38.37
47.656,-61.19
47.671,-84.17
47.687,-105.79
47.703,-124.59
47.718,-139.5
47.734,-149.92
47.750,-155.87
47.765,-157.84
47.781,-156.53
47.796,-152.66
47.812,-146.74
47.828,-139.07
47.843,-129.93
47.859,-119.73
47.875,-108.97
47.890,-98.34
47.906,-88.55
47.921,-80.29
47.937,-74.27
47.953,-71.16
47.968,-71.41
47.984,-75.03
48.000,-81.49
48.015,-89.71
48.031,-98.28
48.046,-105.73
48.062,-110.69
48.078,-112.1
48.093,-109.11
48.109,-101.12
48.125,-87.87
48.140,-69.8
48.156,-47.96
48.171,-24.16
48.187,-0.57
48.203,20.78
48.218,38.38
48.234,51.5
48.250,60.23
48.265,65.28
48.281,67.69
48.296,68.65
48.312,69.32
48.328,70.62
48.343,73.08
48.359,76.58
48.375,80.33
48.390,83.03
48.406,83.38
48.421,80.66
48.437,75.24
48.453,68.74
48.468,63.52
48.484,61.92
48.500,65.42
48.515,74.09
48.531,86.74
48.546,101.33
48.562,115.74
48.578,128.18
48.593,137.39
48.609,142.55
48.625,143.23
48.640,139.17
48.656,130.47
48.671,117.39
48.687,100.44
48.703,80.31
48.718,57.96
48.734,34.62
48.750,11.88
48.765,-8.62
48.781,-25.68
48.796,-39.07
48.812,-49.72
48.828,-59.38
48.843,-69.49
48.859,-80.12
48.875,-89.55
48.890,-94.86
48.906,-93.56
48.921,-85.21
48.937,-72.2
48.953,-58.83
48.968,-49.45
48.984,-46.31
49.000,-48.74
49.015,-53.86
49.031,-58.41
49.046,-60.45
49.062,-60.07
49.078,-58.6
49.093,-57.29
49.109,-56.11
49.125,-53.82
49.140,-48.92
49.156,-40.81
49.171,-30.5
49.187,-20.21
49.203,-12.44
49.218,-8.76
49.234,-9.42
49.250,-13.32
49.265,-18.78
49.281,-24.12
49.296,-28.12
49.312,-30.0
49.328,-29.28
49.343,-25.49
49.359,-18.26
49.375,-7.93
49.390,4.32
49.406,16.0
49.421,23.76
49.437,24.15
49.453,14.76
49.468,-4.82
49.484,-32.41
49.500,-63.2
49.515,-91.18
49.531,-110.73
49.546,-118.75
49.562,-115.57
49.578,-104.66
49.593,-91.1
49.609,-79.8
49.625,-74.41
49.640,-76.65
49.656,-86.33
49.671,-101.15
49.687,-116.54
49.703,-126.17
49.718,-123.72
49.734,-105.64
49.750,-73.38
49.765,-33.88
49.781,2.91
49.796,28.19
49.812,38.02
49.828,34.5
49.843,23.76
49.859,12.29
49.875,3.61
49.890,-2.14
49.906,-6.58
49.921,-10.56
49.937,-12.86
49.953,-10.61
49.968,-1.37
49.984,15.11
50.000,36.57
50.015,59.09
50.031,78.97
50.046,93.84
50.062,103.1
50.078,107.56
50.093,108.86
50.109,109.21
50.125,111.32
50.140,118.39
50.156,133.63
50.171,159.39
50.187,195.92
50.203,240.61
50.218,288.04
50.234,330.94
50.250,361.76
50.265,374.2
50.281,364.44
50.296,331.76
50.312,278.49
50.328,209.54
50.343,131.49
50.359,51.66
50.375,-22.61
50.390,-84.44
50.406,-128.21
50.421,-150.49
50.437,-151.16
50.453,-133.81
50.468,-105.05
50.484,-72.56
50.500,-42.55
50.515,-18.21
50.531,0.74
50.546,16.61
50.562,31.7
50.578,46.8
50.593,60.97
50.609,72.3
50.625,79.14
50.640,80.85
50.656,77.62
50.671,70.17
50.687,59.54
50.703,47.29
50.718,35.77
50.734,27.95
50.750,26.64
50.765,33.42
50.781,47.86
50.796,67.37
50.812,87.76
50.828,104.21
50.843,112.52
50.859,109.65
50.875,94.46
50.890,68.19
50.906,34.39
50.921,-1.68
50.937,-34.58
50.953,-60.49
50.968,-78.73
50.984,-91.98
51.000,-105.07
51.015,-122.81
51.031,-147.47
51.046,-177.72
51.062,-209.06
51.078,-236.04
51.093,-254.4
51.109,-262.94
51.125,-263.63
51.140,-260.56
51.156,-258.5
51.171,-261.57
51.187,-272.91
51.203,-294.33
51.218,-325.99
51.234,-365.6
51.250,-407.92
51.265,-445.09
51.281,-468.62
51.296,-471.98
51.312,-453.12
51.328,-415.24
51.343,-364.98
51.359,-309.43
51.375,-253.43
51.390,-198.88
51.406,-146.09
51.421,-96.18
51.437,-52.25
51.453,-18.49
51.468,2.26
51.484,10.95
51.500,12.49
51.515,13.68
51.531,19.85
51.546,32.27
51.562,47.96
51.578,61.75
51.593,69.62
51.609,70.82
51.625,67.96
51.640,65.1
51.656,64.98
51.671,67.56
51.687,70.46
51.703,70.73
51.718,67.04
51.734,60.7
51.750,54.85
51.765,52.74
51.781,55.61
51.796,61.95
51.812,68.33
51.828,71.21
51.843,68.96
51.859,62.47
51.875,54.27
51.890,46.73
51.906,40.79
51.921,35.79
51.937,30.82
51.953,26.22
51.968,24.17
51.984,27.72
52.000,38.1
52.015,53.06
52.031,66.63
52.046,71.51
52.062,62.78
52.078,40.66
52.093,11.11
52.109,-16.46
52.125,-33.09
52.140,-33.8
52.156,-19.17
52.171,5.54
52.187,33.01
52.203,56.6
52.218,72.11
52.234,78.26
52.250,76.08
52.265,68.14
52.281,58.02
52.296,49.91
52.312,47.96
52.328,55.22
52.343,72.23
52.359,96.42
52.375,121.96
52.390,141.55
52.406,148.96
52.421,141.61
52.437,122.26
52.453,98.31
52.468,79.22
52.484,73.02
52.500,83.41
52.515,108.93
52.531,144.19
52.546,182.22
52.562,217.05
52.578,244.76
52.593,263.35
52.609,271.76
52.625,269.08
52.640,254.72
52.656,229.14
52.671,194.76
52.687,155.78
52.703,117.01
52.718,82.09
52.734,52.17
52.750,25.91
52.765,0.91
52.781,-24.34
52.796,-49.04
52.812,-70.08
52.828,-83.68
52.843,-87.57
52.859,-82.35
52.875,-71.63
52.890,-60.23
52.906,-52.15
52.921,-49.12
52.937,-50.8
52.953,-55.83
52.968,-63.13
52.984,-72.71
53.000,-85.16
53.015,-100.7
53.031,-118.13
53.046,-134.58
53.062,-145.8
53.078,-147.09
53.093,-134.3
53.109,-105.25
53.125,-61.35
53.140,-8.35
53.156,43.57
53.171,82.14
53.187,96.51
53.203,81.26
53.218,38.69
53.234,-21.61
53.250,-86.25
53.265,-142.43
53.281,-181.44
53.296,-200.22
53.312,-200.19
53.328,-185.33
53.343,-160.24
53.359,-129.33
53.375,-96.65
53.390,-65.9
53.406,-39.74
53.421,-18.93
53.437,-2.01
53.453,14.12
53.468,32.62
53.484,55.01
53.500,80.2
53.515,104.86
53.531,124.92
53.546,137.27
53.562,140.97
53.578,137.2
53.593,128.64
53.609,118.44
53.625,109.33
53.640,103.26
53.656,101.27
53.671,103.65
53.687,109.86
53.703,118.44
53.718,127.08
53.734,133.04
53.750,133.65
53.765,126.92
53.781,112.24
53.796,90.61
53.812,64.95
53.828,39.64
53.843,19.35
53.859,7.41
53.875,4.29
53.890,6.78
53.906,8.76
53.921,3.62
53.937,-12.87
53.953,-40.15
53.968,-72.63
53.984,-101.71
54.000,-118.92
54.015,-119.04
54.031,-101.83
54.046,-71.59
54.062,-35.57
54.078,-1.89
54.093,22.39
54.109,32.66
54.125,27.33
54.140,8.13
54.156,-20.35
54.171,-51.58
54.187,-78.41
54.203,-94.96
54.218,-98.64
54.234,-91.37
54.250,-79.46
54.265,-71.35
54.281,-73.74
54.296,-87.83
54.312,-108.05
54.328,-123.6
54.343,-123.06
54.359,-99.59
54.375,-54.15
54.390,4.69
54.406,64.01
54.421,111.19
54.437,137.61
54.453,140.39
54.468,122.41
54.484,90.91
54.500,55.67
54.515,26.6
54.531,11.04
54.546,11.57
54.562,25.34
54.578,45.13
54.593,62.08
54.609,68.94
54.625,62.0
54.640,41.48
54.656,10.87
54.671,-24.41
54.687,-57.82
54.703,-82.73
54.718,-93.73
54.734,-88.31
54.750,-68.15
54.765,-39.09
54.781,-9.34
54.796,13.79
54.812,26.68
54.828,30.43
54.843,29.64
54.859,29.54
54.875,33.26
54.890,40.77
54.906,49.44
54.921,56.07
54.937,58.5
54.953,56.54
54.968,51.36
54.984,44.48
55.000,36.81
55.015,28.56
55.031,19.67
55.046,10.28
55.062,0.84
55.078,-8.36
55.093,-17.74
55.109,-28.49
55.125,-42.05
55.140,-59.32
55.156,-79.91
55.171,-102.29
55.187,-124.34
55.203,-143.81
55.218,-158.93
55.234,-168.51
55.250,-172.43
55.265,-171.93
55.281,-169.73
55.296,-169.42
55.312,-174.1
55.328,-184.85
55.343,-199.49
55.359,-213.51
55.375,-222.27
55.390,-223.59
55.406,-218.92
55.421,-211.86
55.437,-205.33
55.453,-198.94
55.468,-188.49
55.484,-168.18
55.500,-134.4
55.515,-88.68
55.531,-37.81
55.546,8.65
55.562,42.78
55.578,61.75
55.593,68.85
55.609,71.51
55.625,77.53
55.640,91.09
55.656,111.14
55.671,132.7
55.687,149.71
55.703,158.3
55.718,158.41
55.734,153.56
55.750,148.38
55.765,146.36
55.781,148.57
55.796,153.87
55.812,160.9
55.828,168.82
55.843,177.96
55.859,189.06
55.875,202.34
55.890,217.09
55.906,231.79
55.921,245.0
55.937,256.04
55.953,264.84
55.968,271.35
55.984,274.92
56.000,274.04
56.015,266.65
56.031,251.24
56.046,227.68
56.062,197.34
56.078,162.54
56.093,125.09
56.109,85.57
56.125,43.91
56.140,-0.01
56.156,-45.45
56.171,-90.81
56.187,-133.98
56.203,-172.63
56.218,-204.24
56.234,-226.06
56.250,-235.58
56.265,-231.77
56.281,-216.42
56.296,-194.74
56.312,-173.43
56.328,-157.78
56.343,-148.89
56.359,-142.92
56.375,-133.39
56.390,-114.57
56.406,-84.27
56.421,-44.36
56.437,1.18
56.453,48.53
56.468,94.86
56.484,137.27
56.500,171.92
56.515,193.71
56.531,198.28
56.546,184.62
56.562,156.0
56.578,119.14
56.593,81.16
56.609,46.63
56.625,16.75
56.640,-9.94
56.656,-35.78
56.671,-62.9
56.687,-93.57
56.703,-130.35
56.718,-175.21
56.734,-227.41
56.750,-281.59
56.765,-327.53
56.781,-353.03
56.796,-349.05
56.812,-314.22
56.828,-256.08
56.843,-188.4
56.859,-125.75
56.875,-77.94
56.890,-47.27
56.906,-29.41
56.921,-16.75
56.937,-2.25
56.953,17.8
56.968,43.13
56.984,70.37
57.000,95.41
57.015,115.29
57.031,129.25
57.046,138.88
57.062,146.81
57.078,155.08
57.093,163.57
57.109,169.48
57.125,168.4
57.140,157.03
57.156,136.13
57.171,111.57
57.187,92.93
57.203,89.38
57.218,105.47
57.234,138.75
57.250,180.64
57.265,220.06
57.281,247.93
57.296,259.88
57.312,256.51
57.328,241.47
57.343,218.76
57.359,190.73
57.375,157.72
57.390,119.37
57.406,76.3
57.421,31.35
57.437,-10.31
57.453,-42.79
57.468,-61.88
57.484,-67.43
57.500,-64.02
57.515,-59.38
57.531,-61.03
57.546,-72.91
57.562,-93.78
57.578,-118.28
57.593,-140.03
57.609,-154.6
57.625,-161.36
57.640,-162.9
57.656,-162.64
57.671,-162.62
57.687,-162.4
57.703,-159.77
57.718,-152.39
57.734,-139.13
57.750,-120.22
57.765,-96.59
57.781,-68.98
57.796,-37.7
57.812,-2.97
57.828,34.23
57.843,71.68
57.859,106.14
57.875,133.91
57.890,151.67
57.906,157.17
57.921,149.56
57.937,129.74
57.953,100.4
57.968,65.93
57.984,31.53
58.000,2.13
58.015,-19.0
58.031,-30.9
58.046,-34.81
58.062,-33.17
58.078,-28.37
58.093,-22.02
58.109,-14.77
58.125,-6.92
58.140,1.25
58.156,8.9
58.171,14.9
58.187,18.17
58.203,18.36
58.218,16.04
58.234,12.64
58.250,9.93
58.265,9.48
58.281,12.27
58.296,18.3
58.312,26.53
58.328,34.93
58.343,40.89
58.359,41.84
58.375,35.82
58.390,22.21
58.406,2.11
58.421,-21.57
58.437,-44.85
58.453,-63.63
58.468,-75.08
58.484,-78.28
58.500,-74.22
58.515,-65.06
58.531,-53.1
58.546,-40.08
58.562,-27.03
58.578,-14.86
58.593,-4.65
58.609,2.12
58.625,4.12
58.640,0.98
58.656,-6.42
58.671,-16.06
58.687,-25.66
58.703,-33.48
58.718,-38.81
58.734,-41.74
58.750,-42.76
58.765,-42.26
58.781,-40.41
58.796,-37.14
58.812,-32.18
58.828,-25.2
58.843,-15.9
58.859,-4.25
58.875,9.23
58.890,23.31
58.906,36.43
58.921,47.38
58.937,55.87
58.953,62.88
58.968,70.21
58.984,79.76
59.000,92.6
59.015,108.62
59.031,126.6
59.046,144.51
59.062,159.87
59.078,169.84
59.093,171.67
59.109,162.95
59.125,142.44
59.140,110.67
59.156,69.95
59.171,23.84
59.187,-24.01
59.203,-70.5
59.218,-113.57
59.234,-151.82
59.250,-184.1
59.265,-209.48
59.281,-227.72
59.296,-240.13
59.312,-249.7
59.328,-260.24
59.343,-274.78
59.359,-293.56
59.375,-312.96
59.390,-326.35
59.406,-325.97
59.421,-305.64
59.437,-262.94
59.453,-199.91
59.468,-122.67
59.484,-40.07
59.500,37.86
59.515,101.61
59.531,144.01
59.546,162.01
59.562,158.23
59.578,140.54
59.593,119.99
59.609,107.69
59.625,111.3
59.640,133.0
59.656,169.55
59.671,214.41
59.687,260.59
59.703,303.45
59.718,340.19
59.734,368.69
59.750,386.28
59.765,389.41
59.781,375.1
59.796,342.12
59.812,292.27
59.828,230.62
59.843,165.16
59.859,103.53
59.875,51.7
59.890,13.34
59.906,-9.21
59.921,-13.74
59.937,1.32
59.953,36.02
59.968,87.83
59.984,153.09
