timestamp,value
00.000,13.32
00.015,6.75
00.031,0.52
00.046,-5.39
00.062,-11.02
00.078,-16.33
00.093,-21.26
00.109,-25.7
00.125,-29.51
00.140,-32.51
00.156,-34.58
00.171,-35.55
00.187,-35.32
00.203,-33.6
00.218,-29.98
00.234,-24.06
00.250,-15.52
00.265,-4.35
00.281,9.12
00.296,24.3
00.312,40.64
00.328,57.64
00.343,74.82
00.359,91.5
00.375,106.61
00.390,118.81
00.406,126.89
00.421,130.2
00.437,129.08
00.453,124.78
00.468,118.92
00.484,112.72
00.500,106.5
00.515,99.71
00.531,91.35
00.546,80.68
00.562,67.56
00.578,52.64
00.593,36.96
00.609,21.52
00.625,6.92
00.640,-6.6
00.656,-19.14
00.671,-30.7
00.687,-41.05
00.703,-49.81
00.718,-56.42
00.734,-60.49
00.750,-61.91
00.765,-61.08
00.781,-58.71
00.796,-55.8
00.812,-53.18
00.828,-51.26
00.843,-49.94
00.859,-48.74
00.875,-47.17
00.890,-45.18
00.906,-43.14
00.921,-41.64
00.937,-41.11
00.953,-41.52
00.968,-42.27
00.984,-42.55
01.000,-41.8
01.015,-39.95
01.031,-37.57
01.046,-35.32
01.062,-33.65
01.078,-32.39
01.093,-31.03
01.109,-29.02
01.125,-26.13
01.140,-22.61
01.156,-19.11
01.171,-16.24
01.187,-14.28
01.203,-13.03
01.218,-12.01
01.234,-10.78
01.250,-9.15
01.265,-7.36
01.281,-5.91
01.296,-5.28
01.312,-5.7
01.328,-6.95
01.343,-8.45
01.359,-9.56
01.375,-9.81
01.390,-9.12
01.406,-7.77
01.421,-6.23
01.437,-4.8
01.453,-3.5
01.468,-2.07
01.484,-0.22
01.500,2.08
01.515,4.49
01.531,6.37
01.546,7.1
01.562,6.42
01.578,4.57
01.593,2.17
01.609,-0.1
01.625,-1.87
01.640,-3.15
01.656,-4.23
01.671,-5.33
01.687,-6.32
01.703,-6.72
01.718,-5.89
01.734,-3.42
01.750,0.58
01.765,5.45
01.781,10.2
01.796,13.86
01.812,15.97
01.828,16.6
01.843,16.33
01.859,15.79
01.875,15.46
01.890,15.3
01.906,14.9
01.921,13.75
01.937,11.43
01.953,7.98
01.968,3.81
01.984,-0.47
02.000,-4.27
02.015,-7.34
02.031,-9.69
02.046,-11.53
02.062,-12.9
02.078,-13.61
02.093,-13.31
02.109,-11.73
02.125,-8.93
02.140,-5.4
02.156,-2.13
02.171,-0.01
02.187,0.33
02.203,-1.02
02.218,-3.49
02.234,-6.3
02.250,-8.81
02.265,-10.82
02.281,-12.46
02.296,-14.1
02.312,-15.84
02.328,-17.57
02.343,-18.86
02.359,-19.28
02.375,-18.63
02.390,-16.99
02.406,-14.84
02.421,-12.7
02.437,-11.04
02.453,-10.01
02.468,-9.47
02.484,-9.25
02.500,-9.17
02.515,-9.44
02.531,-10.31
02.546,-12.12
02.562,-14.86
02.578,-18.21
02.593,-21.65
02.609,-24.81
02.625,-27.78
02.640,-31.09
02.656,-35.67
02.671,-42.04
02.687,-50.1
02.703,-58.83
02.718,-66.64
02.734,-71.92
02.750,-73.72
02.765,-72.0
02.781,-67.42
02.796,-61.14
02.812,-53.95
02.828,-46.18
02.843,-37.67
02.859,-28.16
02.875,-17.67
02.890,-6.64
02.906,4.1
02.921,13.86
02.937,22.25
02.953,29.47
02.968,35.94
02.984,42.07
03.000,47.96
03.015,53.19
03.031,57.06
03.046,58.98
03.062,58.88
03.078,57.25
03.093,55.06
03.109,53.11
03.125,51.81
03.140,50.94
03.156,49.79
03.171,47.6
03.187,44.09
03.203,39.6
03.218,34.82
03.234,30.5
03.250,26.85
03.265,23.61
03.281,20.22
03.296,16.23
03.312,11.76
03.328,7.44
03.343,4.11
03.359,2.33
03.375,2.09
03.390,2.76
03.406,3.48
03.421,3.62
03.437,3.08
03.453,2.41
03.468,2.43
03.484,3.73
03.500,6.43
03.515,10.0
03.531,13.49
03.546,15.98
03.562,16.96
03.578,16.5
03.593,15.28
03.609,14.09
03.625,13.5
03.640,13.6
03.656,13.95
03.671,13.83
03.687,12.8
03.703,10.92
03.718,8.63
03.734,6.64
03.750,5.39
03.765,4.88
03.781,4.67
03.796,4.24
03.812,3.18
03.828,1.59
03.843,-0.11
03.859,-1.48
03.875,-2.31
03.890,-2.71
03.906,-3.09
03.921,-3.9
03.937,-5.27
03.953,-6.96
03.968,-8.44
03.984,-9.14
04.000,-8.84
04.015,-7.8
04.031,-6.63
04.046,-6.06
04.062,-6.49
04.078,-7.76
04.093,-9.24
04.109,-10.08
04.125,-9.69
04.140,-8.01
04.156,-5.49
04.171,-2.85
04.187,-0.68
04.203,0.9
04.218,2.16
04.234,3.45
04.250,5.01
04.265,6.6
04.281,7.74
04.296,7.98
04.312,7.18
04.328,5.76
04.343,4.32
04.359,3.54
04.375,3.63
04.390,4.37
04.406,5.24
04.421,5.76
04.437,5.68
04.453,5.17
04.468,4.57
04.484,4.27
04.500,4.45
04.515,4.88
04.531,5.22
04.546,4.99
04.562,3.96
04.578,2.22
04.593,0.16
04.609,-1.8
04.625,-3.34
04.640,-4.42
04.656,-5.38
04.671,-6.6
04.687,-8.41
04.703,-10.78
04.718,-13.37
04.734,-15.75
04.750,-17.52
04.765,-18.54
04.781,-18.89
04.796,-18.74
04.812,-18.22
04.828,-17.21
04.843,-15.41
04.859,-12.54
04.875,-8.52
04.890,-3.66
04.906,1.32
04.921,5.57
04.937,8.47
04.953,9.8
04.968,9.87
04.984,9.3
05.000,8.7
05.015,8.26
05.031,7.86
05.046,7.19
05.062,6.1
05.078,4.7
05.093,3.46
05.109,2.84
05.125,2.97
05.140,3.64
05.156,4.26
05.171,4.38
05.187,3.88
05.203,3.14
05.218,2.66
05.234,2.86
05.250,3.77
05.265,4.94
05.281,5.73
05.296,5.56
05.312,4.29
05.328,2.15
05.343,-0.28
05.359,-2.44
05.375,-4.04
05.390,-5.07
05.406,-5.89
05.421,-6.9
05.437,-8.4
05.453,-10.43
05.468,-12.84
05.484,-15.31
05.500,-17.46
05.515,-19.08
05.531,-20.04
05.546,-20.34
05.562,-19.89
05.578,-18.5
05.593,-16.0
05.609,-12.3
05.625,-7.63
05.640,-2.49
05.656,2.41
05.671,6.46
05.687,9.24
05.703,10.89
05.718,11.76
05.734,12.27
05.750,12.67
05.765,12.85
05.781,12.44
05.796,11.1
05.812,8.82
05.828,6.0
05.843,3.39
05.859,1.67
05.875,1.06
05.890,1.28
05.906,1.6
05.921,1.41
05.937,0.39
05.953,-1.1
05.968,-2.52
05.984,-3.39
06.000,-3.59
06.015,-3.61
06.031,-4.12
06.046,-5.7
06.062,-8.36
06.078,-11.63
06.093,-14.69
06.109,-16.87
06.125,-17.98
06.140,-18.4
06.156,-18.87
06.171,-20.08
06.187,-22.38
06.203,-25.44
06.218,-28.58
06.234,-31.11
06.250,-32.59
06.265,-33.03
06.281,-32.66
06.296,-31.8
06.312,-30.46
06.328,-28.44
06.343,-25.51
06.359,-21.6
06.375,-17.04
06.390,-12.52
06.406,-8.82
06.421,-6.22
06.437,-4.51
06.453,-2.89
06.468,-0.38
06.484,3.51
06.500,8.58
06.515,13.87
06.531,18.15
06.546,20.48
06.562,20.8
06.578,20.0
06.593,19.49
06.609,20.68
06.625,24.22
06.640,29.8
06.656,36.35
06.671,42.6
06.687,47.57
06.703,50.78
06.718,52.09
06.734,51.37
06.750,48.25
06.765,42.08
06.781,32.44
06.796,19.55
06.812,4.4
06.828,-11.31
06.843,-25.76
06.859,-37.59
06.875,-46.08
06.890,-50.96
06.906,-52.11
06.921,-48.94
06.937,-40.57
06.953,-26.38
06.968,-6.69
06.984,16.84
07.000,41.31
07.015,63.37
07.031,80.39
07.046,91.15
07.062,95.95
07.078,96.31
07.093,93.9
07.109,90.0
07.125,85.29
07.140,79.93
07.156,74.32
07.171,69.36
07.187,66.44
07.203,67.04
07.218,72.13
07.234,81.57
07.250,93.94
07.265,106.79
07.281,117.52
07.296,124.42
07.312,127.15
07.328,126.69
07.343,124.4
07.359,121.04
07.375,116.12
07.390,108.13
07.406,95.51
07.421,77.79
07.437,56.34
07.453,33.89
07.468,13.35
07.484,-3.41
07.500,-16.28
07.515,-26.61
07.531,-36.15
07.546,-45.91
07.562,-55.74
07.578,-64.59
07.593,-71.27
07.609,-75.36
07.625,-77.2
07.640,-77.93
07.656,-78.83
07.671,-80.94
07.687,-84.62
07.703,-89.65
07.718,-95.32
07.734,-100.6
07.750,-104.42
07.765,-105.93
07.781,-104.76
07.796,-101.12
07.812,-95.63
07.828,-89.04
07.843,-81.88
07.859,-74.51
07.875,-67.18
07.890,-60.28
07.906,-54.27
07.921,-49.55
07.937,-46.23
07.953,-43.87
07.968,-41.75
07.984,-39.1
08.000,-35.5
08.015,-31.02
08.031,-26.12
08.046,-21.45
08.062,-17.4
08.078,-14.09
08.093,-11.34
08.109,-8.87
08.125,-6.51
08.140,-4.35
08.156,-2.6
08.171,-1.51
08.187,-1.21
08.203,-1.62
08.218,-2.52
08.234,-3.63
08.250,-4.77
08.265,-5.76
08.281,-6.67
08.296,-7.53
08.312,-8.42
08.328,-9.27
08.343,-10.04
08.359,-10.64
08.375,-11.01
08.390,-11.24
08.406,-11.35
08.421,-11.4
08.437,-11.35
08.453,-10.96
08.468,-9.96
08.484,-8.2
08.500,-5.85
08.515,-3.3
08.531,-1.13
08.546,0.14
08.562,0.24
08.578,-0.8
08.593,-2.58
08.609,-4.42
08.625,-5.65
08.640,-5.7
08.656,-4.25
08.671,-1.42
08.687,2.41
08.703,6.6
08.718,10.59
08.734,13.9
08.750,16.19
08.765,17.28
08.781,17.07
08.796,15.75
08.812,13.71
08.828,11.71
08.843,10.54
08.859,10.84
08.875,12.78
08.890,15.77
08.906,18.95
08.921,21.31
08.937,22.29
08.953,21.82
08.968,20.37
08.984,18.55
09.000,16.64
09.015,14.57
09.031,11.9
09.046,8.43
09.062,4.4
09.078,0.57
09.093,-2.17
09.109,-3.2
09.125,-2.57
09.140,-1.14
09.156,-0.08
09.171,-0.29
09.187,-1.83
09.203,-4.02
09.218,-5.7
09.234,-6.11
09.250,-5.32
09.265,-4.3
09.281,-4.41
09.296,-6.59
09.312,-10.78
09.328,-15.85
09.343,-20.33
09.359,-22.99
09.375,-23.67
09.390,-23.17
09.406,-22.48
09.421,-22.12
09.437,-21.55
09.453,-19.46
09.468,-14.46
09.484,-5.98
09.500,5.28
09.515,17.57
09.531,28.96
09.546,38.5
09.562,46.52
09.578,54.35
09.593,63.12
09.609,73.0
09.625,82.48
09.640,89.24
09.656,91.24
09.671,87.92
09.687,80.76
09.703,72.39
09.718,65.37
09.734,60.91
09.750,58.22
09.765,55.06
09.781,49.2
09.796,39.6
09.812,27.11
09.828,13.97
09.843,2.54
09.859,-5.93
09.875,-11.97
09.890,-17.38
09.906,-24.08
09.921,-32.64
09.937,-41.74
09.953,-48.85
09.968,-51.62
09.984,-49.22
10.000,-42.99
10.015,-35.74
10.031,-30.27
10.046,-27.96
10.062,-28.03
10.078,-28.37
10.093,-26.95
10.109,-22.99
10.125,-17.51
10.140,-12.57
10.156,-10.03
10.171,-10.23
10.187,-11.67
10.203,-11.72
10.218,-8.03
10.234,0.22
10.250,11.72
10.265,23.81
10.281,33.74
10.296,39.99
10.312,42.89
10.328,43.91
10.343,44.62
10.359,45.6
10.375,45.95
10.390,44.0
10.406,38.45
10.421,29.37
10.437,18.38
10.453,7.93
10.468,-0.04
10.484,-4.94
10.500,-7.84
10.515,-10.68
10.531,-15.22
10.546,-22.13
10.562,-30.65
10.578,-39.2
10.593,-46.3
10.609,-51.32
10.625,-54.8
10.640,-57.71
10.656,-60.78
10.671,-63.76
10.687,-65.33
10.703,-63.91
10.718,-58.4
10.734,-48.85
10.750,-36.5
10.765,-23.07
10.781,-9.84
10.796,2.98
10.812,16.39
10.828,31.94
10.843,50.65
10.859,72.31
10.875,95.1
10.890,116.39
10.906,133.66
10.921,145.49
10.937,151.82
10.953,153.31
10.968,150.65
10.984,143.84
11.000,131.87
11.015,113.58
11.031,88.41
11.046,57.11
11.062,21.8
11.078,-14.7
11.093,-49.88
11.109,-82.14
11.125,-111.19
11.140,-137.69
11.156,-162.7
11.171,-186.82
11.187,-209.69
11.203,-230.04
11.218,-245.98
11.234,-255.8
11.250,-258.59
11.265,-254.46
11.281,-244.13
11.296,-228.38
11.312,-207.51
11.328,-181.37
11.343,-149.82
11.359,-113.29
11.375,-73.57
11.390,-33.45
11.406,3.86
11.421,35.89
11.437,61.73
11.453,82.04
11.468,98.39
11.484,112.14
11.500,123.41
11.515,130.94
11.531,133.04
11.546,128.87
11.562,119.37
11.578,107.24
11.593,95.74
11.609,87.27
11.625,82.09
11.640,78.8
11.656,75.21
11.671,70.15
11.687,64.2
11.703,59.15
11.718,56.84
11.734,57.87
11.750,61.01
11.765,63.96
11.781,64.81
11.796,63.01
11.812,59.74
11.828,56.87
11.843,55.46
11.859,54.87
11.875,52.62
11.890,45.57
11.906,31.61
11.921,10.95
11.937,-13.93
11.953,-39.44
11.968,-62.38
11.984,-81.32
12.000,-96.73
12.015,-110.04
12.031,-122.38
12.046,-133.5
12.062,-141.76
12.078,-145.13
12.093,-142.49
12.109,-134.3
12.125,-122.76
12.140,-110.3
12.156,-98.76
12.171,-88.26
12.187,-77.39
12.203,-64.21
12.218,-47.54
12.234,-27.66
12.250,-6.46
12.265,13.49
12.281,30.01
12.296,42.06
12.312,50.01
12.328,55.0
12.343,58.34
12.359,60.7
12.375,61.91
12.390,61.4
12.406,58.73
12.421,54.25
12.437,49.04
12.453,44.54
12.468,41.76
12.484,40.84
12.500,40.88
12.515,40.59
12.531,39.14
12.546,36.85
12.562,35.23
12.578,35.81
12.593,39.57
12.609,46.37
12.625,54.99
12.640,63.95
12.656,72.2
12.671,79.67
12.687,87.17
12.703,95.84
12.718,105.73
12.734,115.72
12.750,123.81
12.765,128.03
12.781,127.43
12.796,122.59
12.812,115.39
12.828,108.07
12.843,102.3
12.859,97.5
12.875,91.6
12.890,82.43
12.906,69.05
12.921,52.61
12.937,35.86
12.953,21.39
12.968,9.55
12.984,-2.23
13.000,-20.68
13.015,-53.56
13.031,-106.61
13.046,-180.98
13.062,-272.35
13.078,-372.43
13.093,-471.66
13.109,-562.45
13.125,-630.61
13.140,-664.5
13.156,-656.34
13.171,-604.63
13.187,-515.22
13.203,-399.51
13.218,-270.97
13.234,-142.53
13.250,-25.52
13.265,71.62
13.281,143.04
13.296,187.44
13.312,208.42
13.328,213.63
13.343,211.52
13.359,209.57
13.375,212.8
13.390,223.08
13.406,239.73
13.421,259.45
13.437,278.06
13.453,291.36
13.468,294.96
13.484,285.58
13.500,260.48
13.515,220.88
13.531,172.11
13.546,122.68
13.562,81.5
13.578,55.25
13.593,46.42
13.609,51.65
13.625,64.15
13.640,77.35
13.656,87.69
13.671,95.39
13.687,102.68
13.703,110.69
13.718,117.67
13.734,119.22
13.750,108.76
13.765,80.89
13.781,33.85
13.796,-29.56
13.812,-103.1
13.828,-179.28
13.843,-251.74
13.859,-316.11
13.875,-363.07
13.890,-384.34
13.906,-374.82
13.921,-334.78
13.937,-270.03
13.953,-189.45
13.968,-102.48
13.984,-17.4
14.000,59.82
14.015,125.97
14.031,179.51
14.046,220.88
14.062,252.43
14.078,275.94
14.093,292.75
14.109,303.37
14.125,307.79
14.140,306.17
14.156,299.66
14.171,289.5
14.187,277.34
14.203,264.57
14.218,250.58
14.234,234.26
14.250,212.95
14.265,182.9
14.281,140.86
14.296,86.71
14.312,24.35
14.328,-37.78
14.343,-88.81
14.359,-119.2
14.375,-123.55
14.390,-102.99
14.406,-64.86
14.421,-20.41
14.437,18.23
14.453,41.02
14.468,42.38
14.484,21.89
14.500,-16.45
14.515,-65.42
14.531,-117.14
14.546,-165.09
14.562,-205.16
14.578,-235.77
14.593,-256.74
14.609,-268.07
14.625,-269.72
14.640,-262.63
14.656,-249.65
14.671,-235.59
14.687,-226.24
14.703,-226.41
14.718,-238.36
14.734,-261.91
14.750,-294.6
14.765,-332.32
14.781,-369.73
14.796,-399.99
14.812,-415.69
14.828,-411.41
14.843,-386.38
14.859,-346.37
14.875,-302.36
14.890,-265.51
14.906,-241.68
14.921,-227.96
14.937,-214.36
14.953,-189.31
14.968,-146.4
14.984,-87.91
15.000,-23.8
15.015,33.31
15.031,74.09
15.046,95.22
15.062,98.72
15.078,88.42
15.093,67.11
15.109,35.64
15.125,-5.31
15.140,-52.95
15.156,-101.82
15.171,-144.43
15.187,-173.77
15.203,-185.71
15.218,-180.15
15.234,-160.89
15.250,-134.02
15.265,-105.45
15.281,-78.99
15.296,-55.96
15.312,-35.32
15.328,-15.34
15.343,5.22
15.359,26.28
15.375,46.48
15.390,63.95
15.406,77.54
15.421,87.55
15.437,95.45
15.453,103.42
15.468,113.23
15.484,125.82
15.500,140.96
15.515,157.5
15.531,174.0
15.546,189.35
15.562,203.38
15.578,216.86
15.593,231.4
15.609,248.69
15.625,269.71
15.640,294.11
15.656,319.58
15.671,342.27
15.687,357.69
15.703,362.24
15.718,354.42
15.734,335.25
15.750,307.61
15.765,275.05
15.781,240.83
15.796,207.38
15.812,176.38
15.828,149.07
15.843,126.35
15.859,108.43
15.875,94.64
15.890,83.35
15.906,72.55
15.921,60.76
15.937,47.5
15.953,33.31
15.968,19.23
15.984,6.2
16.000,-5.36
16.015,-15.33
16.031,-23.66
16.046,-29.81
16.062,-32.89
16.078,-32.03
16.093,-27.05
16.109,-18.82
16.125,-9.17
16.140,-0.28
16.156,6.15
16.171,9.5
16.187,10.22
16.203,9.23
16.218,7.3
16.234,4.66
16.250,1.2
16.265,-2.98
16.281,-7.13
16.296,-9.82
16.312,-9.69
16.328,-6.05
16.343,0.46
16.359,7.9
16.375,13.73
16.390,15.88
16.406,13.56
16.421,7.46
16.437,-0.58
16.453,-8.63
16.468,-15.34
16.484,-20.42
16.500,-24.44
16.515,-28.17
16.531,-31.91
16.546,-35.22
16.562,-37.18
16.578,-36.9
16.593,-34.16
16.609,-29.71
16.625,-24.85
16.640,-20.96
16.656,-18.9
16.671,-18.72
16.687,-19.96
16.703,-22.07
16.718,-24.63
16.734,-27.65
16.750,-31.26
16.765,-35.39
16.781,-39.6
16.796,-43.16
16.812,-45.33
16.828,-45.72
16.843,-44.36
16.859,-41.61
16.875,-37.9
16.890,-33.42
16.906,-28.03
16.921,-21.38
16.937,-13.12
16.953,-3.27
16.968,7.62
16.984,18.5
17.000,28.07
17.015,35.3
17.031,39.82
17.046,42.08
17.062,43.12
17.078,44.01
17.093,45.46
17.109,47.39
17.125,49.19
17.140,50.17
17.156,50.04
17.171,49.27
17.187,48.86
17.203,49.91
17.218,52.95
17.234,57.71
17.250,63.14
17.265,67.75
17.281,70.35
17.296,70.48
17.312,68.53
17.328,65.59
17.343,62.98
17.359,61.72
17.375,62.07
17.390,63.62
17.406,65.52
17.421,67.02
17.437,67.8
17.453,68.17
17.468,68.91
17.484,70.94
17.500,75.23
17.515,82.83
17.531,94.73
17.546,111.54
17.562,132.63
17.578,155.29
17.593,175.11
17.609,187.3
17.625,188.87
17.640,180.46
17.656,166.32
17.671,152.22
17.687,142.1
17.703,135.91
17.718,129.77
17.734,117.94
17.750,96.25
17.765,63.84
17.781,23.28
17.796,-20.53
17.812,-61.66
17.828,-93.7
17.843,-110.05
17.859,-104.9
17.875,-75.95
17.890,-26.18
17.906,35.79
17.921,97.67
17.937,147.79
17.953,178.86
17.968,189.7
17.984,183.88
18.000,166.8
18.015,141.98
18.031,111.16
18.046,75.64
18.062,37.75
18.078,1.22
18.093,-30.75
18.109,-57.77
18.125,-83.03
18.140,-111.89
18.156,-150.64
18.171,-202.18
18.187,-264.76
18.203,-332.65
18.218,-397.76
18.234,-453.48
18.250,-496.91
18.265,-528.7
18.281,-542.89
18.296,-534.33
18.312,-499.75
18.328,-440.46
18.343,-363.17
18.359,-276.62
18.375,-188.86
18.390,-106.06
18.406,-31.74
18.421,32.54
18.437,84.43
18.453,124.61
18.468,154.2
18.484,173.86
18.500,184.59
18.515,186.6
18.531,178.69
18.546,159.7
18.562,129.18
18.578,86.7
18.593,33.28
18.609,-27.7
18.625,-91.39
18.640,-151.4
18.656,-197.36
18.671,-219.79
18.687,-212.15
18.703,-173.63
18.718,-110.59
18.734,-33.52
18.750,46.12
18.765,116.56
18.781,174.6
18.796,218.79
18.812,246.53
18.828,256.61
18.843,249.54
18.859,226.86
18.875,188.98
18.890,137.97
18.906,77.06
18.921,11.48
18.937,-52.8
18.953,-111.41
18.968,-159.8
18.984,-193.99
19.000,-211.9
19.015,-213.54
19.031,-201.5
19.046,-180.82
19.062,-157.61
19.078,-139.11
19.093,-133.85
19.109,-147.42
19.125,-180.21
19.140,-226.45
19.156,-275.13
19.171,-312.95
19.187,-328.5
19.203,-314.99
19.218,-262.93
19.234,-175.6
19.250,-67.47
19.265,42.76
19.281,141.36
19.296,222.82
19.312,285.36
19.328,325.84
19.343,339.18
19.359,321.95
19.375,275.59
19.390,209.43
19.406,138.92
19.421,79.46
19.437,40.68
19.453,23.49
19.468,22.04
19.484,28.02
19.500,35.17
19.515,40.64
19.531,45.18
19.546,52.01
19.562,63.99
19.578,81.43
19.593,102.16
19.609,124.48
19.625,144.23
19.640,158.44
19.656,164.62
19.671,160.96
19.687,146.39
19.703,120.6
19.718,84.61
19.734,39.77
19.750,-5.47
19.765,-42.37
19.781,-64.18
19.796,-69.18
19.812,-61.28
19.828,-47.8
19.843,-36.2
19.859,-31.15
19.875,-32.96
19.890,-38.69
19.906,-45.28
19.921,-50.75
19.937,-55.14
19.953,-59.8
19.968,-65.88
19.984,-73.4
20.000,-81.69
20.015,-89.62
20.031,-96.74
20.046,-103.81
20.062,-111.55
20.078,-120.2
20.093,-128.96
20.109,-136.8
20.125,-141.13
20.140,-139.95
20.156,-132.3
20.171,-118.49
20.187,-100.41
20.203,-80.4
20.218,-60.68
20.234,-42.88
20.250,-27.75
20.265,-15.19
20.281,-4.94
20.296,3.24
20.312,9.34
20.328,12.85
20.343,13.64
20.359,11.69
20.375,7.41
20.390,1.39
20.406,-5.44
20.421,-12.47
20.437,-19.39
20.453,-26.15
20.468,-33.21
20.484,-40.72
20.500,-48.9
20.515,-57.73
20.531,-67.15
20.546,-76.77
20.562,-86.42
20.578,-95.96
20.593,-105.41
20.609,-114.92
20.625,-124.09
20.640,-132.77
20.656,-140.7
20.671,-147.6
20.687,-152.98
20.703,-156.37
20.718,-157.0
20.734,-153.83
20.750,-148.78
20.765,-142.44
20.781,-135.29
20.796,-127.61
20.812,-119.69
20.828,-111.73
20.843,-103.91
20.859,-96.38
20.875,-89.29
20.890,-82.92
20.906,-77.02
20.921,-71.59
20.937,-66.57
20.953,-61.85
20.968,-57.24
20.984,-52.49
21.000,-47.42
21.015,-41.98
21.031,-36.41
21.046,-30.61
21.062,-24.74
21.078,-18.96
21.093,-13.26
21.109,-7.49
21.125,-1.27
21.140,5.72
21.156,13.68
21.171,22.39
21.187,31.74
21.203,41.29
21.218,50.7
21.234,59.93
21.250,69.16
21.265,78.93
21.281,89.76
21.296,102.01
21.312,115.52
21.328,130.03
21.343,145.06
21.359,160.12
21.375,175.03
21.390,189.89
21.406,205.0
21.421,220.92
21.437,238.28
21.453,257.67
21.468,279.38
21.484,302.82
21.500,326.1
21.515,345.99
21.531,358.63
21.546,360.94
21.562,351.68
21.578,332.13
21.593,305.47
21.609,275.67
21.625,246.09
21.640,218.65
21.656,193.99
21.671,172.0
21.687,152.53
21.703,135.7
21.718,121.6
21.734,109.82
21.750,99.51
21.765,89.4
21.781,78.53
21.796,66.75
21.812,54.63
21.828,43.22
21.843,33.44
21.859,25.64
21.875,19.38
21.890,13.91
21.906,8.38
21.921,2.35
21.937,-4.16
21.953,-10.7
21.968,-16.8
21.984,-22.28
22.000,-27.19
22.015,-31.81
22.031,-36.29
22.046,-40.6
22.062,-44.55
22.078,-48.01
22.093,-51.02
22.109,-53.9
22.125,-57.04
22.140,-60.6
22.156,-64.47
22.171,-68.07
22.187,-70.62
22.203,-71.56
22.218,-70.65
22.234,-68.16
22.250,-64.58
22.265,-60.26
22.281,-55.19
22.296,-49.04
22.312,-41.44
22.328,-32.21
22.343,-21.91
22.359,-11.57
22.375,-2.39
22.390,4.83
22.406,10.07
22.421,14.1
22.437,17.8
22.453,21.78
22.468,25.92
22.484,29.33
22.500,30.98
22.515,30.2
22.531,27.09
22.546,22.39
22.562,17.28
22.578,12.53
22.593,8.36
22.609,4.44
22.625,0.17
22.640,-4.72
22.656,-10.03
22.671,-15.37
22.687,-20.29
22.703,-24.5
22.718,-28.11
22.734,-31.41
22.750,-34.62
22.765,-37.75
22.781,-40.53
22.796,-42.52
22.812,-43.58
22.828,-43.65
22.843,-43.06
22.859,-42.31
22.875,-41.81
22.890,-41.68
22.906,-41.53
22.921,-40.55
22.937,-37.74
22.953,-32.42
22.968,-24.43
22.984,-14.29
23.000,-3.18
23.015,7.56
23.031,16.73
23.046,23.55
23.062,27.9
23.078,30.16
23.093,30.81
23.109,30.29
23.125,28.79
23.140,26.36
23.156,23.19
23.171,19.84
23.187,17.09
23.203,15.65
23.218,15.7
23.234,16.5
23.250,16.62
23.265,14.74
23.281,10.27
23.296,3.96
23.312,-2.66
23.328,-7.95
23.343,-11.22
23.359,-12.78
23.375,-13.71
23.390,-15.04
23.406,-17.08
23.421,-19.52
23.437,-21.63
23.453,-23.1
23.468,-24.2
23.484,-25.67
23.500,-28.0
23.515,-31.09
23.531,-34.1
23.546,-35.85
23.562,-35.59
23.578,-33.25
23.593,-29.62
23.609,-25.76
23.625,-22.56
23.640,-20.09
23.656,-17.92
23.671,-15.19
23.687,-11.28
23.703,-6.13
23.718,-0.26
23.734,5.6
23.750,10.9
23.765,15.51
23.781,19.86
23.796,24.39
23.812,29.35
23.828,34.71
23.843,39.98
23.859,44.53
23.875,47.85
23.890,49.51
23.906,49.4
23.921,47.5
23.937,43.81
23.953,38.24
23.968,30.74
23.984,21.3
24.000,10.14
24.015,-2.12
24.031,-14.64
24.046,-26.47
24.062,-36.96
24.078,-45.92
24.093,-53.71
24.109,-60.9
24.125,-67.95
24.140,-74.74
24.156,-80.51
24.171,-84.07
24.187,-84.43
24.203,-81.23
24.218,-74.93
24.234,-66.7
24.250,-57.87
24.265,-49.47
24.281,-41.94
24.296,-35.16
24.312,-28.89
24.328,-23.01
24.343,-17.79
24.359,-13.7
24.375,-11.13
24.390,-9.85
24.406,-9.17
24.421,-8.01
24.437,-5.49
24.453,-1.33
24.468,3.98
24.484,9.45
24.500,13.99
24.515,16.9
24.531,18.38
24.546,19.08
24.562,19.91
24.578,21.39
24.593,23.46
24.609,25.45
24.625,26.68
24.640,26.79
24.656,25.85
24.671,24.55
24.687,23.53
24.703,23.11
24.718,23.13
24.734,23.12
24.750,22.56
24.765,21.41
24.781,20.1
24.796,19.17
24.812,19.02
24.828,19.47
24.843,19.72
24.859,18.87
24.875,16.2
24.890,11.71
24.906,6.1
24.921,0.45
24.937,-4.38
24.953,-8.09
24.968,-10.99
24.984,-13.8
25.000,-16.84
25.015,-20.12
25.031,-23.03
25.046,-24.85
25.062,-25.08
25.078,-23.9
25.093,-22.03
25.109,-20.45
25.125,-20.0
25.140,-20.86
25.156,-22.77
25.171,-24.98
25.187,-26.68
25.203,-27.23
25.218,-26.39
25.234,-24.14
25.250,-20.68
25.265,-16.22
25.281,-10.87
25.296,-4.81
25.312,1.69
25.328,8.07
25.343,13.51
25.359,17.32
25.375,19.29
25.390,19.96
25.406,20.45
25.421,22.14
25.437,25.95
25.453,31.92
25.468,39.13
25.484,46.01
25.500,51.14
25.515,53.64
25.531,53.52
25.546,51.23
25.562,47.66
25.578,43.52
25.593,39.38
25.609,35.69
25.625,32.74
25.640,30.89
25.656,30.24
25.671,30.81
25.687,32.09
25.703,33.46
25.718,34.07
25.734,33.27
25.750,30.8
25.765,26.94
25.781,22.37
25.796,17.8
25.812,13.87
25.828,10.59
25.843,7.59
25.859,4.18
25.875,-0.16
25.890,-5.45
25.906,-11.25
25.921,-16.9
25.937,-21.83
25.953,-25.84
25.968,-29.16
25.984,-32.11
26.000,-34.96
26.015,-37.63
26.031,-39.72
26.046,-40.75
26.062,-40.39
26.078,-38.65
26.093,-35.91
26.109,-32.66
26.125,-29.31
26.140,-26.03
26.156,-22.66
26.171,-19.0
26.187,-14.99
26.203,-10.81
26.218,-6.96
26.234,-4.05
26.250,-2.43
26.265,-1.96
26.281,-2.1
26.296,-2.18
26.312,-1.7
26.328,-0.74
26.343,0.28
26.359,0.82
26.375,0.49
26.390,-0.48
26.406,-1.43
26.421,-1.69
26.437,-0.9
26.453,0.78
26.468,2.64
26.484,3.93
26.500,4.17
26.515,3.44
26.531,2.2
26.546,1.06
26.562,0.3
26.578,-0.27
26.593,-1.13
26.609,-2.77
26.625,-5.26
26.640,-8.28
26.656,-11.07
26.671,-13.06
26.687,-13.94
26.703,-13.97
26.718,-13.8
26.734,-14.06
26.750,-15.06
26.765,-16.64
26.781,-18.34
26.796,-19.6
26.812,-20.26
26.828,-20.61
26.843,-21.17
26.859,-22.29
26.875,-23.94
26.890,-25.44
26.906,-25.81
26.921,-24.28
26.937,-20.61
26.953,-15.33
26.968,-9.54
26.984,-4.4
27.000,-0.56
27.015,1.96
27.031,3.64
27.046,5.09
27.062,6.65
27.078,8.14
27.093,8.99
27.109,8.68
27.125,7.03
27.140,4.44
27.156,1.72
27.171,-0.46
27.187,-1.92
27.203,-3.0
27.218,-4.31
27.234,-6.44
27.250,-9.36
27.265,-12.48
27.281,-14.93
27.296,-15.88
27.312,-15.07
27.328,-12.98
27.343,-10.44
27.359,-8.1
27.375,-6.22
27.390,-4.46
27.406,-2.18
27.421,0.97
27.437,4.79
27.453,8.68
27.468,11.82
27.484,13.55
27.500,13.81
27.515,13.05
27.531,12.08
27.546,11.65
27.562,12.15
27.578,13.5
27.593,15.33
27.609,17.2
27.625,18.74
27.640,19.64
27.656,19.73
27.671,18.84
27.687,16.91
27.703,13.86
27.718,9.74
27.734,4.86
27.750,-0.26
27.765,-4.88
27.781,-8.33
27.796,-10.25
27.812,-10.71
27.828,-10.12
27.843,-9.1
27.859,-8.24
27.875,-7.82
27.890,-7.77
27.906,-7.84
27.921,-7.64
27.937,-7.05
27.953,-6.26
27.968,-5.57
27.984,-5.3
28.000,-5.56
28.015,-6.14
28.031,-6.77
28.046,-7.29
28.062,-7.69
28.078,-8.23
28.093,-9.32
28.109,-11.23
28.125,-13.89
28.140,-16.83
28.156,-19.48
28.171,-21.44
28.187,-22.57
28.203,-23.02
28.218,-23.04
28.234,-22.8
28.250,-22.27
28.265,-21.29
28.281,-19.67
28.296,-17.27
28.312,-14.22
28.328,-10.81
28.343,-7.24
28.359,-3.63
28.375,-0.02
28.390,3.68
28.406,7.45
28.421,11.11
28.437,14.43
28.453,17.06
28.468,18.74
28.484,19.3
28.500,18.84
28.515,17.53
28.531,15.66
28.546,13.47
28.562,11.06
28.578,8.4
28.593,5.33
28.609,1.79
28.625,-2.18
28.640,-6.19
28.656,-9.71
28.671,-12.22
28.687,-13.44
28.703,-13.37
28.718,-12.24
28.734,-10.4
28.750,-8.06
28.765,-5.29
28.781,-2.05
28.796,1.61
28.812,5.4
28.828,8.81
28.843,11.33
28.859,12.79
28.875,13.29
28.890,13.27
28.906,13.19
28.921,13.43
28.937,14.06
28.953,14.92
28.968,15.7
28.984,16.13
29.000,16.27
29.015,16.34
29.031,16.69
29.046,17.53
29.062,18.87
29.078,20.45
29.093,21.88
29.109,22.85
29.125,23.29
29.140,23.35
29.156,23.32
29.171,23.44
29.187,23.63
29.203,23.47
29.218,22.54
29.234,20.56
29.250,17.64
29.265,14.19
29.281,10.78
29.296,7.88
29.312,5.74
29.328,4.27
29.343,3.26
29.359,2.52
29.375,2.1
29.390,2.24
29.406,3.28
29.421,5.54
29.437,9.18
29.453,14.08
29.468,19.97
29.484,26.43
29.500,33.06
29.515,39.4
29.531,45.01
29.546,49.48
29.562,52.34
29.578,53.31
29.593,52.25
29.609,49.35
29.625,45.09
29.640,40.18
29.656,35.24
29.671,30.57
29.687,25.72
29.703,19.56
29.718,10.62
29.734,-2.05
29.750,-18.17
29.765,-35.93
29.781,-52.43
29.796,-64.75
29.812,-71.17
29.828,-71.81
29.843,-68.35
29.859,-63.1
29.875,-57.93
29.890,-53.69
29.906,-50.33
29.921,-47.48
29.937,-45.02
29.953,-43.25
29.968,-42.42
29.984,-42.32
30.000,-42.01
30.015,-40.19
30.031,-35.84
30.046,-28.63
30.062,-19.27
30.078,-9.01
30.093,0.86
30.109,9.69
30.125,17.64
30.140,25.24
30.156,33.03
30.171,41.0
30.187,48.48
30.203,54.53
30.218,58.34
30.234,59.66
30.250,58.79
30.265,56.4
30.281,52.99
30.296,48.82
30.312,43.8
30.328,37.78
30.343,30.94
30.359,23.72
30.375,16.94
30.390,11.16
30.406,6.65
30.421,3.29
30.437,0.77
30.453,-1.23
30.468,-2.76
30.484,-3.57
30.500,-3.33
30.515,-1.88
30.531,0.4
30.546,2.82
30.562,4.47
30.578,4.7
30.593,3.28
30.609,0.47
30.625,-2.97
30.640,-6.31
30.656,-8.97
30.671,-10.79
30.687,-12.04
30.703,-13.3
30.718,-15.06
30.734,-17.55
30.750,-20.57
30.765,-23.5
30.781,-25.74
30.796,-26.83
30.812,-26.81
30.828,-26.14
30.843,-25.39
30.859,-24.91
30.875,-24.66
30.890,-24.17
30.906,-23.1
30.921,-21.46
30.937,-19.76
30.953,-18.72
30.968,-18.82
30.984,-19.85
31.000,-20.95
31.015,-21.13
31.031,-19.74
31.046,-16.97
31.062,-13.85
31.078,-11.65
31.093,-11.33
31.109,-13.06
31.125,-16.02
31.140,-18.94
31.156,-20.71
31.171,-20.85
31.187,-19.57
31.203,-17.63
31.218,-15.71
31.234,-13.99
31.250,-12.29
31.265,-10.13
31.281,-7.36
31.296,-4.4
31.312,-2.17
31.328,-1.51
31.343,-2.74
31.359,-5.3
31.375,-7.91
31.390,-9.18
31.406,-8.38
31.421,-5.63
31.437,-1.8
31.453,1.97
31.468,4.8
31.484,6.56
31.500,7.62
31.515,8.63
31.531,10.0
31.546,11.73
31.562,13.37
31.578,14.4
31.593,14.53
31.609,13.79
31.625,12.57
31.640,11.46
31.656,10.89
31.671,10.78
31.687,10.77
31.703,10.33
31.718,9.13
31.734,7.44
31.750,5.97
31.765,5.53
31.781,6.53
31.796,8.7
31.812,11.04
31.828,12.37
31.843,11.95
31.859,9.71
31.875,6.33
31.890,2.87
31.906,0.13
31.921,-1.74
31.937,-3.06
31.953,-4.47
31.968,-6.38
31.984,-8.68
32.000,-10.9
32.015,-12.46
32.031,-13.02
32.046,-12.72
32.062,-12.16
32.078,-11.99
32.093,-12.6
32.109,-13.97
32.125,-15.67
32.140,-17.21
32.156,-18.24
32.171,-18.75
32.187,-19.1
32.203,-19.73
32.218,-20.88
32.234,-22.41
32.250,-23.9
32.265,-24.9
32.281,-25.23
32.296,-25.06
32.312,-24.78
32.328,-24.62
32.343,-24.4
32.359,-23.45
32.375,-21.16
32.390,-17.32
32.406,-12.49
32.421,-7.89
32.437,-4.71
32.453,-3.6
32.468,-4.27
32.484,-5.66
32.500,-6.4
32.515,-5.65
32.531,-3.21
32.546,0.47
32.562,4.56
32.578,8.46
32.593,11.94
32.609,15.09
32.625,18.08
32.640,20.98
32.656,23.61
32.671,25.65
32.687,26.95
32.703,27.46
32.718,27.42
32.734,27.19
32.750,27.13
32.765,27.32
32.781,27.63
32.796,27.74
32.812,27.25
32.828,26.04
32.843,24.15
32.859,21.97
32.875,19.98
32.890,18.5
32.906,17.49
32.921,16.54
32.937,15.12
32.953,12.85
32.968,9.83
32.984,6.59
33.000,3.92
33.015,2.46
33.031,2.34
33.046,3.13
33.062,4.06
33.078,4.42
33.093,3.84
33.109,2.47
33.125,0.82
33.140,-0.59
33.156,-1.38
33.171,-1.56
33.187,-1.42
33.203,-1.34
33.218,-1.59
33.234,-2.28
33.250,-3.26
33.265,-4.29
33.281,-5.26
33.296,-6.31
33.312,-7.65
33.328,-9.63
33.343,-12.42
33.359,-16.14
33.375,-20.85
33.390,-26.55
33.406,-33.38
33.421,-41.52
33.437,-50.84
33.453,-60.66
33.468,-69.75
33.484,-76.51
33.500,-79.48
33.515,-78.0
33.531,-72.23
33.546,-63.33
33.562,-52.83
33.578,-42.03
33.593,-31.61
33.609,-21.78
33.625,-12.36
33.640,-3.3
33.656,4.99
33.671,11.86
33.687,16.59
33.703,18.83
33.718,19.01
33.734,18.19
33.750,17.51
33.765,17.81
33.781,19.14
33.796,20.66
33.812,21.22
33.828,20.06
33.843,17.31
33.859,14.06
33.875,11.65
33.890,11.0
33.906,12.05
33.921,13.87
33.937,15.36
33.953,15.95
33.968,15.87
33.984,16.06
34.000,17.43
34.015,20.21
34.031,23.66
34.046,26.43
34.062,27.02
34.078,24.61
34.093,19.2
34.109,11.45
34.125,2.25
34.140,-7.83
34.156,-18.56
34.171,-30.11
34.187,-42.37
34.203,-54.78
34.218,-66.02
34.234,-74.38
34.250,-78.44
34.265,-77.43
34.281,-71.74
34.296,-62.47
34.312,-51.04
34.328,-38.56
34.343,-25.77
34.359,-12.99
34.375,-0.57
34.390,10.96
34.406,20.92
34.421,28.62
34.437,33.83
34.453,37.0
34.468,39.02
34.484,40.79
34.500,42.69
34.515,44.4
34.531,45.04
34.546,43.76
34.562,40.16
34.578,34.73
34.593,28.67
34.609,23.3
34.625,19.53
34.640,17.54
34.656,16.95
34.671,17.18
34.687,17.91
34.703,19.01
34.718,20.45
34.734,22.13
34.750,23.78
34.765,25.09
34.781,25.82
34.796,25.84
34.812,25.1
34.828,23.67
34.843,21.6
34.859,18.98
34.875,15.87
34.890,12.37
34.906,8.52
34.921,4.32
34.937,-0.24
34.953,-5.07
34.968,-9.77
34.984,-13.95
35.000,-17.25
35.015,-19.8
35.031,-22.16
35.046,-24.96
35.062,-28.62
35.078,-32.93
35.093,-37.0
35.109,-39.62
35.125,-39.87
35.140,-37.44
35.156,-32.8
35.171,-26.9
35.187,-20.68
35.203,-14.68
35.218,-9.1
35.234,-3.88
35.250,1.07
35.265,5.68
35.281,9.8
35.296,13.37
35.312,16.49
35.328,19.45
35.343,22.58
35.359,26.07
35.375,29.72
35.390,33.09
35.406,35.51
35.421,36.42
35.437,35.51
35.453,32.99
35.468,29.4
35.484,25.44
35.500,21.82
35.515,18.94
35.531,16.85
35.546,15.24
35.562,13.84
35.578,12.38
35.593,10.81
35.609,9.21
35.625,7.68
35.640,6.17
35.656,4.56
35.671,2.72
35.687,0.47
35.703,-1.97
35.718,-4.37
35.734,-6.36
35.750,-7.7
35.765,-8.36
35.781,-8.54
35.796,-8.55
35.812,-8.54
35.828,-8.58
35.843,-8.46
35.859,-7.99
35.875,-7.03
35.890,-5.68
35.906,-4.16
35.921,-2.64
35.937,-1.12
35.953,0.96
35.968,4.26
35.984,9.39
36.000,16.36
36.015,24.52
36.031,32.66
36.046,39.48
36.062,44.24
36.078,46.77
36.093,47.45
36.109,46.68
36.125,44.68
36.140,41.14
36.156,35.72
36.171,28.47
36.187,19.84
36.203,10.86
36.218,2.6
36.234,-4.2
36.250,-9.34
36.265,-12.99
36.281,-15.41
36.296,-16.84
36.312,-17.17
36.328,-16.39
36.343,-14.57
36.359,-12.17
36.375,-9.79
36.390,-8.08
36.406,-7.36
36.421,-7.53
36.437,-8.28
36.453,-9.02
36.468,-9.49
36.484,-9.54
36.500,-9.48
36.515,-9.61
36.531,-10.11
36.546,-11.01
36.562,-12.06
36.578,-12.95
36.593,-13.38
36.609,-13.39
36.625,-12.98
36.640,-12.49
36.656,-12.31
36.671,-12.67
36.687,-13.73
36.703,-15.41
36.718,-17.49
36.734,-19.64
36.750,-21.69
36.765,-23.52
36.781,-25.09
36.796,-26.43
36.812,-27.41
36.828,-27.83
36.843,-27.44
36.859,-26.21
36.875,-24.25
36.890,-22.08
36.906,-20.31
36.921,-19.4
36.937,-19.46
36.953,-20.1
36.968,-20.83
36.984,-21.0
37.000,-20.3
37.015,-18.68
37.031,-16.42
37.046,-13.87
37.062,-11.29
37.078,-8.75
37.093,-6.11
37.109,-3.46
37.125,-0.99
37.140,0.89
37.156,1.88
37.171,2.14
37.187,2.4
37.203,3.75
37.218,6.93
37.234,11.94
37.250,17.75
37.265,22.91
37.281,25.99
37.296,26.44
37.312,24.69
37.328,21.92
37.343,19.35
37.359,17.67
37.375,16.88
37.390,16.39
37.406,15.71
37.421,14.65
37.437,13.39
37.453,12.46
37.468,12.16
37.484,12.59
37.500,13.32
37.515,13.94
37.531,14.06
37.546,13.83
37.562,13.75
37.578,14.43
37.593,16.5
37.609,19.97
37.625,24.5
37.640,29.28
37.656,33.59
37.671,36.79
37.687,38.62
37.703,39.03
37.718,37.99
37.734,35.52
37.750,31.52
37.765,26.07
37.781,19.34
37.796,11.89
37.812,4.29
37.828,-2.84
37.843,-9.06
37.859,-14.26
37.875,-18.4
37.890,-21.69
37.906,-24.3
37.921,-26.35
37.937,-27.87
37.953,-28.83
37.968,-29.18
37.984,-28.82
38.000,-27.81
38.015,-26.07
38.031,-23.76
38.046,-20.97
38.062,-17.72
38.078,-14.08
38.093,-9.93
38.109,-5.31
38.125,-0.31
38.140,4.82
38.156,9.69
38.171,13.85
38.187,17.1
38.203,19.43
38.218,20.99
38.234,21.88
38.250,22.05
38.265,21.32
38.281,19.51
38.296,16.75
38.312,13.43
38.328,10.21
38.343,7.75
38.359,6.39
38.375,6.1
38.390,6.55
38.406,7.37
38.421,8.34
38.437,9.51
38.453,11.02
38.468,12.86
38.484,14.87
38.500,16.52
38.515,17.32
38.531,16.84
38.546,14.94
38.562,11.82
38.578,7.95
38.593,3.77
38.609,-0.45
38.625,-4.75
38.640,-9.23
38.656,-13.86
38.671,-18.42
38.687,-22.35
38.703,-25.07
38.718,-26.04
38.734,-25.13
38.750,-22.55
38.765,-18.96
38.781,-15.13
38.796,-11.67
38.812,-8.91
38.828,-6.91
38.843,-5.46
38.859,-4.35
38.875,-3.51
38.890,-3.0
38.906,-2.99
38.921,-3.67
38.937,-5.04
38.953,-6.9
38.968,-9.18
38.984,-11.84
39.000,-15.13
39.015,-19.31
39.031,-24.47
39.046,-30.34
39.062,-36.37
39.078,-41.94
39.093,-46.46
39.109,-49.76
39.125,-51.94
39.140,-53.27
39.156,-53.92
39.171,-53.73
39.187,-52.37
39.203,-49.41
39.218,-44.72
39.234,-38.51
39.250,-31.34
39.265,-23.87
39.281,-16.59
39.296,-9.74
39.312,-3.24
39.328,3.09
39.343,9.39
39.359,15.62
39.375,21.51
39.390,26.74
39.406,31.12
39.421,34.67
39.437,37.47
39.453,39.57
39.468,40.85
39.484,41.11
39.500,40.14
39.515,37.89
39.531,34.52
39.546,30.44
39.562,26.21
39.578,22.31
39.593,19.08
39.609,16.53
39.625,14.48
39.640,12.64
39.656,10.74
39.671,8.75
39.687,6.77
39.703,5.09
39.718,4.02
39.734,3.64
39.750,3.78
39.765,4.08
39.781,4.18
39.796,3.8
39.812,3.01
39.828,1.87
39.843,0.56
39.859,-0.9
39.875,-2.52
39.890,-4.3
39.906,-6.1
39.921,-7.63
39.937,-8.56
39.953,-8.65
39.968,-7.94
39.984,-6.69
40.000,-5.42
40.015,-4.54
40.031,-4.31
40.046,-4.69
40.062,-5.41
40.078,-6.05
40.093,-6.2
40.109,-5.69
40.125,-4.57
40.140,-3.13
40.156,-1.71
40.171,-0.47
40.187,0.57
40.203,1.56
40.218,2.6
40.234,3.73
40.250,4.75
40.265,5.3
40.281,5.22
40.296,4.42
40.312,3.1
40.328,1.46
40.343,-0.32
40.359,-2.35
40.375,-4.73
40.390,-7.53
40.406,-10.67
40.421,-13.7
40.437,-16.15
40.453,-17.62
40.468,-18.1
40.484,-17.89
40.500,-17.49
40.515,-17.34
40.531,-17.36
40.546,-17.21
40.562,-16.2
40.578,-13.78
40.593,-9.84
40.609,-4.96
40.625,-0.06
40.640,3.96
40.656,6.6
40.671,8.13
40.687,9.23
40.703,10.75
40.718,13.12
40.734,16.15
40.750,19.14
40.765,21.26
40.781,22.04
40.796,21.56
40.812,20.36
40.828,19.08
40.843,18.26
40.859,18.15
40.875,18.75
40.890,20.07
40.906,22.1
40.921,24.78
40.937,27.74
40.953,30.33
40.968,31.6
40.984,30.75
41.000,27.4
41.015,21.9
41.031,15.34
41.046,9.07
41.062,4.34
41.078,1.75
41.093,1.34
41.109,2.44
41.125,4.24
41.140,6.02
41.156,7.31
41.171,8.04
41.187,8.27
41.203,8.12
41.218,7.56
41.234,6.57
41.250,5.03
41.265,3.02
41.281,0.78
41.296,-1.33
41.312,-3.0
41.328,-4.12
41.343,-4.81
41.359,-5.42
41.375,-6.19
41.390,-7.33
41.406,-8.67
41.421,-9.95
41.437,-10.92
41.453,-11.44
41.468,-11.63
41.484,-11.71
41.500,-12.0
41.515,-12.57
41.531,-13.51
41.546,-14.61
41.562,-15.53
41.578,-15.89
41.593,-15.35
41.609,-13.96
41.625,-12.08
41.640,-10.45
41.656,-9.65
41.671,-10.08
41.687,-11.56
41.703,-13.54
41.718,-15.36
41.734,-16.57
41.750,-17.21
41.765,-17.66
41.781,-18.38
41.796,-19.51
41.812,-20.83
41.828,-21.76
41.843,-21.71
41.859,-20.47
41.875,-18.12
41.890,-15.05
41.906,-11.49
41.921,-7.5
41.937,-2.95
41.953,2.33
41.968,8.34
41.984,14.92
42.000,21.7
42.015,28.61
42.031,35.62
42.046,43.05
42.062,51.02
42.078,59.34
42.093,67.28
42.109,73.8
42.125,77.81
42.140,78.48
42.156,75.68
42.171,69.71
42.187,61.41
42.203,51.67
42.218,41.32
42.234,30.79
42.250,20.42
42.265,10.41
42.281,1.03
42.296,-7.17
42.312,-13.76
42.328,-18.27
42.343,-20.57
42.359,-20.93
42.375,-20.01
42.390,-18.58
42.406,-17.3
42.421,-16.48
42.437,-15.97
42.453,-15.58
42.468,-15.11
42.484,-14.66
42.500,-14.5
42.515,-14.82
42.531,-15.54
42.546,-16.38
42.562,-16.87
42.578,-16.58
42.593,-15.63
42.609,-14.32
42.625,-13.23
42.640,-12.75
42.656,-12.89
42.671,-13.32
42.687,-13.68
42.703,-13.69
42.718,-13.49
42.734,-13.55
42.750,-14.29
42.765,-15.95
42.781,-18.24
42.796,-20.52
42.812,-22.27
42.828,-23.29
42.843,-23.91
42.859,-24.86
42.875,-26.97
42.890,-30.48
42.906,-35.22
42.921,-40.43
42.937,-45.11
42.953,-48.44
42.968,-49.86
42.984,-49.09
43.000,-46.04
43.015,-40.78
43.031,-33.28
43.046,-23.95
43.062,-13.36
43.078,-2.35
43.093,8.0
43.109,16.86
43.125,23.74
43.140,28.6
43.156,31.69
43.171,33.56
43.187,34.59
43.203,35.19
43.218,35.6
43.234,35.75
43.250,35.5
43.265,34.55
43.281,32.61
43.296,29.52
43.312,25.37
43.328,20.42
43.343,14.97
43.359,9.37
43.375,3.75
43.390,-1.69
43.406,-6.73
43.421,-11.06
43.437,-14.32
43.453,-16.24
43.468,-16.89
43.484,-16.62
43.500,-15.88
43.515,-15.11
43.531,-14.44
43.546,-13.8
43.562,-13.06
43.578,-12.11
43.593,-10.98
43.609,-9.82
43.625,-8.8
43.640,-7.9
43.656,-7.04
43.671,-6.09
43.687,-5.03
43.703,-4.08
43.718,-3.5
43.734,-3.56
43.750,-4.28
43.765,-5.44
43.781,-6.51
43.796,-7.01
43.812,-6.78
43.828,-6.01
43.843,-5.22
43.859,-5.08
43.875,-5.95
43.890,-7.93
43.906,-10.64
43.921,-13.45
43.937,-15.85
43.953,-17.46
43.968,-18.21
43.984,-18.17
44.000,-17.42
44.015,-15.92
44.031,-13.6
44.046,-10.45
44.062,-6.56
44.078,-2.37
44.093,1.55
44.109,4.53
44.125,6.14
44.140,6.36
44.156,5.69
44.171,4.95
44.187,4.9
44.203,5.96
44.218,8.0
44.234,10.58
44.250,13.08
44.265,15.21
44.281,16.97
44.296,18.7
44.312,20.77
44.328,23.27
44.343,25.97
44.359,28.44
44.375,30.33
44.390,31.58
44.406,32.57
44.421,33.88
44.437,36.11
44.453,39.56
44.468,44.02
44.484,48.98
44.500,53.88
44.515,58.28
44.531,62.04
44.546,65.17
44.562,67.54
44.578,68.64
44.593,67.56
44.609,63.21
44.625,54.69
44.640,41.68
44.656,24.31
44.671,3.02
44.687,-21.69
44.703,-49.45
44.718,-79.91
44.734,-112.29
44.750,-145.18
44.765,-176.31
44.781,-202.83
44.796,-222.04
44.812,-231.88
44.828,-231.49
44.843,-221.27
44.859,-202.58
44.875,-177.34
44.890,-147.62
44.906,-115.37
44.921,-82.3
44.937,-49.99
44.953,-19.96
44.968,6.2
44.984,27.11
45.000,42.03
45.015,51.09
45.031,55.45
45.046,56.86
45.062,57.06
45.078,57.04
45.093,56.98
45.109,56.45
45.125,55.08
45.140,53.13
45.156,51.53
45.171,51.33
45.187,53.03
45.203,56.09
45.218,58.99
45.234,60.14
45.250,58.59
45.265,54.54
45.281,49.15
45.296,43.9
45.312,39.88
45.328,37.23
45.343,35.22
45.359,32.79
45.375,29.21
45.390,24.63
45.406,19.86
45.421,16.0
45.437,13.76
45.453,13.26
45.468,13.8
45.484,14.51
45.500,14.75
45.515,14.46
45.531,14.06
45.546,14.02
45.562,14.58
45.578,15.18
45.593,14.94
45.609,12.93
45.625,8.86
45.640,3.3
45.656,-2.47
45.671,-7.15
45.687,-9.97
45.703,-11.14
45.718,-11.91
45.734,-13.74
45.750,-17.54
45.765,-22.99
45.781,-28.61
45.796,-32.39
45.812,-32.67
45.828,-29.07
45.843,-22.58
45.859,-15.18
45.875,-8.75
45.890,-4.27
45.906,-1.62
45.921,0.1
45.937,1.74
45.953,3.6
45.968,5.25
45.984,6.02
46.000,5.51
46.015,4.22
46.031,3.13
46.046,3.3
46.062,5.22
46.078,8.36
46.093,11.5
46.109,13.39
46.125,13.41
46.140,11.84
46.156,9.81
46.171,8.39
46.187,8.23
46.203,9.06
46.218,9.95
46.234,9.87
46.250,8.41
46.265,6.0
46.281,3.61
46.296,2.23
46.312,2.23
46.328,3.29
46.343,4.45
46.359,4.74
46.375,3.66
46.390,1.52
46.406,-0.84
46.421,-2.51
46.437,-3.0
46.453,-2.56
46.468,-1.87
46.484,-1.79
46.500,-2.72
46.515,-4.42
46.531,-6.14
46.546,-7.0
46.562,-6.52
46.578,-4.94
46.593,-3.09
46.609,-1.76
46.625,-1.35
46.640,-1.51
46.656,-1.45
46.671,-0.47
46.687,1.62
46.703,4.29
46.718,6.46
46.734,7.18
46.750,6.23
46.765,4.17
46.781,2.1
46.796,1.03
46.812,1.26
46.828,2.41
46.843,3.68
46.859,4.37
46.875,4.17
46.890,3.48
46.906,2.95
46.921,3.15
46.937,4.22
46.953,5.63
46.968,6.7
46.984,6.89
47.000,6.12
47.015,4.89
47.031,3.97
47.046,3.96
47.062,4.91
47.078,6.21
47.093,6.82
47.109,6.05
47.125,3.88
47.140,1.11
47.156,-1.06
47.171,-1.69
47.187,-0.6
47.203,1.46
47.218,3.19
47.234,3.38
47.250,1.73
47.265,-1.15
47.281,-4.0
47.296,-5.69
47.312,-5.86
47.328,-5.15
47.343,-4.73
47.359,-5.66
47.375,-8.2
47.390,-11.61
47.406,-14.6
47.421,-16.08
47.437,-15.57
47.453,-13.41
47.468,-10.23
47.484,-6.42
47.500,-1.77
47.515,4.13
47.531,11.44
47.546,19.49
47.562,26.83
47.578,31.91
47.593,33.8
47.609,32.69
47.625,29.73
47.640,26.5
47.656,24.14
47.671,23.04
47.687,22.75
47.703,22.55
47.718,21.94
47.734,20.86
47.750,19.66
47.765,18.76
47.781,18.39
47.796,18.39
47.812,18.37
47.828,17.82
47.843,16.42
47.859,14.15
47.875,11.38
47.890,8.71
47.906,6.61
47.921,5.3
47.937,4.48
47.953,3.56
47.968,1.92
47.984,-0.59
48.000,-3.76
48.015,-6.89
48.031,-9.31
48.046,-10.56
48.062,-10.71
48.078,-10.29
48.093,-9.97
48.109,-10.22
48.125,-11.01
48.140,-11.9
48.156,-12.42
48.171,-12.27
48.187,-11.57
48.203,-10.75
48.218,-10.28
48.234,-10.35
48.250,-10.66
48.265,-10.71
48.281,-10.0
48.296,-8.49
48.312,-6.56
48.328,-5.04
48.343,-4.68
48.359,-6.01
48.375,-8.85
48.390,-12.54
48.406,-16.19
48.421,-18.88
48.437,-20.06
48.453,-19.54
48.468,-17.57
48.484,-14.33
48.500,-10.02
48.515,-4.57
48.531,2.02
48.546,9.45
48.562,17.12
48.578,24.1
48.593,29.58
48.609,33.15
48.625,35.13
48.640,36.42
48.656,38.03
48.671,40.61
48.687,44.04
48.703,47.51
48.718,49.85
48.734,50.08
48.750,47.84
48.765,43.43
48.781,37.58
48.796,31.12
48.812,24.56
48.828,17.98
48.843,11.15
48.859,3.89
48.875,-3.7
48.890,-11.0
48.906,-17.19
48.921,-21.63
48.937,-24.29
48.953,-25.77
48.968,-27.1
48.984,-29.26
49.000,-32.59
49.015,-36.8
49.031,-41.12
49.046,-44.73
49.062,-47.31
49.078,-49.17
49.093,-50.97
49.109,-53.49
49.125,-57.13
49.140,-61.92
49.156,-67.62
49.171,-73.98
49.187,-80.6
49.203,-86.85
49.218,-91.72
49.234,-93.74
49.250,-91.4
49.265,-83.52
49.281,-69.9
49.296,-51.51
49.312,-30.52
49.328,-9.55
49.343,8.99
49.359,23.89
49.375,35.34
49.390,44.6
49.406,53.13
49.421,61.68
49.437,69.82
49.453,76.2
49.468,79.59
49.484,79.69
49.500,77.44
49.515,74.49
49.531,72.1
49.546,70.4
49.562,68.53
49.578,65.4
49.593,60.75
49.609,55.61
49.625,51.7
49.640,50.31
49.656,51.36
49.671,53.11
49.687,52.89
49.703,48.47
49.718,39.03
49.734,25.56
49.750,10.21
49.765,-4.7
49.781,-17.59
49.796,-28.01
49.812,-36.51
49.828,-44.02
49.843,-51.03
49.859,-57.45
49.875,-62.45
49.890,-65.19
49.906,-65.4
49.921,-63.53
49.937,-60.61
49.953,-57.74
49.968,-55.54
49.984,-53.95
50.000,-52.44
50.015,-50.46
50.031,-47.97
50.046,-45.5
50.062,-43.91
50.078,-43.84
50.093,-45.44
50.109,-48.3
50.125,-51.57
50.140,-54.49
50.156,-56.41
50.171,-56.98
50.187,-56.05
50.203,-53.66
50.218,-49.91
50.234,-44.89
50.250,-38.82
50.265,-31.92
50.281,-24.57
50.296,-17.16
50.312,-10.15
50.328,-3.91
50.343,1.39
50.359,5.79
50.375,9.73
50.390,13.75
50.406,18.31
50.421,23.45
50.437,28.91
50.453,34.1
50.468,38.44
50.484,41.64
50.500,43.72
50.515,45.02
50.531,45.98
50.546,46.84
50.562,47.5
50.578,47.7
50.593,47.1
50.609,45.55
50.625,43.25
50.640,40.62
50.656,38.25
50.671,36.47
50.687,35.27
50.703,34.21
50.718,32.74
50.734,30.49
50.750,27.44
50.765,24.11
50.781,21.09
50.796,18.87
50.812,17.38
50.828,16.2
50.843,14.77
50.859,12.71
50.875,10.13
50.890,7.4
50.906,5.18
50.921,3.75
50.937,3.04
50.953,2.57
50.968,1.84
50.984,0.64
51.000,-0.75
51.015,-1.75
51.031,-1.87
51.046,-0.83
51.062,0.93
51.078,2.66
51.093,3.52
51.109,3.11
51.125,1.6
51.140,-0.31
51.156,-1.7
51.171,-1.95
51.187,-0.93
51.203,0.99
51.218,3.04
51.234,4.68
51.250,5.42
51.265,5.12
51.281,3.8
51.296,1.52
51.312,-1.6
51.328,-5.34
51.343,-9.37
51.359,-13.23
51.375,-16.23
51.390,-17.97
51.406,-18.24
51.421,-17.16
51.437,-15.12
51.453,-12.52
51.468,-9.57
51.484,-6.23
51.500,-2.33
51.515,2.32
51.531,7.34
51.546,11.93
51.562,15.04
51.578,15.68
51.593,13.48
51.609,9.02
51.625,3.48
51.640,-1.84
51.656,-5.86
51.671,-8.36
51.687,-9.72
51.703,-10.51
51.718,-11.28
51.734,-12.18
51.750,-13.05
51.765,-13.67
51.781,-13.92
51.796,-13.89
51.812,-13.94
51.828,-14.28
51.843,-14.92
51.859,-15.59
51.875,-15.74
51.890,-14.98
51.906,-13.26
51.921,-10.99
51.937,-8.79
51.953,-7.34
51.968,-6.92
51.984,-7.35
52.000,-8.13
52.015,-8.63
52.031,-8.53
52.046,-7.91
52.062,-7.18
52.078,-6.82
52.093,-7.15
52.109,-8.12
52.125,-9.31
52.140,-10.12
52.156,-9.94
52.171,-8.5
52.187,-5.87
52.203,-2.38
52.218,1.59
52.234,5.64
52.250,9.56
52.265,13.12
52.281,16.13
52.296,18.42
52.312,19.85
52.328,20.44
52.343,20.41
52.359,20.11
52.375,19.93
52.390,20.13
52.406,20.73
52.421,21.45
52.437,21.85
52.453,21.53
52.468,20.36
52.484,18.45
52.500,16.18
52.515,13.99
52.531,12.14
52.546,10.63
52.562,9.23
52.578,7.74
52.593,6.22
52.609,5.12
52.625,4.91
52.640,5.8
52.656,7.57
52.671,9.5
52.687,10.69
52.703,10.49
52.718,8.75
52.734,5.75
52.750,1.97
52.765,-2.35
52.781,-7.18
52.796,-12.84
52.812,-19.65
52.828,-27.83
52.843,-37.4
52.859,-48.03
52.875,-59.06
52.890,-69.34
52.906,-77.28
52.921,-81.12
52.937,-79.48
52.953,-71.8
52.968,-58.6
52.984,-41.25
53.000,-21.49
53.015,-0.9
53.031,19.41
53.046,38.64
53.062,55.89
53.078,70.18
53.093,80.4
53.109,85.89
53.125,86.88
53.140,84.37
53.156,79.89
53.171,74.82
53.187,69.98
53.203,65.42
53.218,60.97
53.234,56.39
53.250,51.76
53.265,47.39
53.281,43.52
53.296,40.24
53.312,37.36
53.328,34.55
53.343,31.52
53.359,28.26
53.375,25.0
53.390,22.06
53.406,19.77
53.421,18.22
53.437,17.3
53.453,16.7
53.468,16.02
53.484,15.07
53.500,13.77
53.515,12.26
53.531,10.81
53.546,9.62
53.562,8.8
53.578,8.29
53.593,7.89
53.609,7.39
53.625,6.62
53.640,5.45
53.656,3.88
53.671,1.97
53.687,-0.01
53.703,-1.75
53.718,-2.96
53.734,-3.46
53.750,-3.28
53.765,-2.73
53.781,-2.32
53.796,-2.49
53.812,-3.44
53.828,-4.86
53.843,-6.14
53.859,-6.56
53.875,-5.66
53.890,-3.58
53.906,-0.97
53.921,1.24
53.937,2.32
53.953,2.15
53.968,1.14
53.984,0.13
54.000,-0.12
54.015,0.72
54.031,2.34
54.046,3.75
54.062,3.13
54.078,-1.91
54.093,-13.94
54.109,-34.82
54.125,-64.4
54.140,-99.91
54.156,-136.24
54.171,-167.32
54.187,-188.28
54.203,-196.93
54.218,-194.12
54.234,-182.7
54.250,-165.7
54.265,-144.95
54.281,-121.12
54.296,-94.46
54.312,-65.89
54.328,-37.19
54.343,-10.44
54.359,12.96
54.375,32.67
54.390,49.07
54.406,62.47
54.421,72.64
54.437,78.99
54.453,81.18
54.468,79.61
54.484,75.62
54.500,70.88
54.515,66.84
54.531,64.03
54.546,62.07
54.562,60.01
54.578,56.83
54.593,52.1
54.609,45.91
54.625,39.08
54.640,32.68
54.656,27.62
54.671,24.33
54.687,22.55
54.703,21.73
54.718,21.3
54.734,21.14
54.750,21.31
54.765,22.06
54.781,23.3
54.796,24.54
54.812,25.28
54.828,25.16
54.843,24.43
54.859,23.75
54.875,23.93
54.890,25.35
54.906,27.85
54.921,30.67
54.937,32.73
54.953,33.21
54.968,31.67
54.984,28.19
55.000,23.15
55.015,16.9
55.031,9.5
55.046,0.62
55.062,-10.3
55.078,-24.0
55.093,-40.83
55.109,-60.78
55.125,-83.18
55.140,-106.68
55.156,-129.41
55.171,-149.2
55.187,-163.92
55.203,-171.79
55.218,-171.87
55.234,-163.96
55.250,-148.97
55.265,-128.44
55.281,-104.35
55.296,-78.68
55.312,-53.11
55.328,-28.92
55.343,-6.92
55.359,12.41
55.375,29.04
55.390,43.1
55.406,54.82
55.421,64.49
55.437,72.26
55.453,78.24
55.468,82.51
55.484,85.08
55.500,85.96
55.515,85.23
55.531,82.92
55.546,79.15
55.562,74.27
55.578,68.65
55.593,62.78
55.609,57.07
55.625,51.6
55.640,46.12
55.656,40.1
55.671,33.04
55.687,24.81
55.703,15.89
55.718,7.11
55.734,-0.63
55.750,-6.74
55.765,-10.99
55.781,-13.6
55.796,-14.86
55.812,-14.97
55.828,-14.0
55.843,-11.93
55.859,-8.88
55.875,-5.24
55.890,-1.56
55.906,1.67
55.921,4.09
55.937,5.79
55.953,7.04
55.968,8.2
55.984,9.5
56.000,11.03
56.015,12.71
56.031,14.3
56.046,15.49
56.062,16.02
56.078,15.83
56.093,15.1
56.109,14.2
56.125,13.58
56.140,13.6
56.156,14.33
56.171,15.35
56.187,15.97
56.203,15.6
56.218,14.02
56.234,11.48
56.250,8.59
56.265,5.92
56.281,3.72
56.296,1.93
56.312,0.36
56.328,-1.11
56.343,-2.4
56.359,-3.22
56.375,-3.48
56.390,-3.27
56.406,-3.0
56.421,-3.24
56.437,-4.26
56.453,-6.01
56.468,-7.93
56.484,-9.48
56.500,-10.29
56.515,-10.46
56.531,-10.33
56.546,-10.45
56.562,-11.07
56.578,-12.07
56.593,-13.03
56.609,-13.39
56.625,-12.83
56.640,-11.46
56.656,-9.78
56.671,-8.25
56.687,-7.28
56.703,-6.84
56.718,-6.62
56.734,-6.24
56.750,-5.52
56.765,-4.53
56.781,-3.67
56.796,-3.32
56.812,-3.62
56.828,-4.38
56.843,-5.15
56.859,-5.5
56.875,-5.26
56.890,-4.64
56.906,-4.04
56.921,-3.93
56.937,-4.41
56.953,-5.32
56.968,-6.21
56.984,-6.63
57.000,-6.35
57.015,-5.49
57.031,-4.41
57.046,-3.54
57.062,-3.11
57.078,-3.03
57.093,-3.06
57.109,-2.95
57.125,-2.56
57.140,-1.99
57.156,-1.65
57.171,-1.83
57.187,-2.69
57.203,-4.1
57.218,-5.73
57.234,-7.15
57.250,-8.14
57.265,-8.77
57.281,-9.18
57.296,-9.66
57.312,-10.23
57.328,-10.66
57.343,-10.63
57.359,-9.94
57.375,-8.62
57.390,-7.1
57.406,-5.94
57.421,-5.54
57.437,-5.92
57.453,-6.69
57.468,-7.3
57.484,-7.27
57.500,-6.5
57.515,-5.22
57.531,-3.77
57.546,-2.57
57.562,-1.76
57.578,-1.26
57.593,-0.87
57.609,-0.43
57.625,0.14
57.640,0.69
57.656,0.96
57.671,0.75
57.687,0.09
57.703,-0.77
57.718,-1.42
57.734,-1.41
57.750,-0.58
57.765,0.89
57.781,2.52
57.796,3.8
57.812,4.34
57.828,4.2
57.843,3.72
57.859,3.38
57.875,3.57
57.890,4.24
57.906,5.09
57.921,5.66
57.937,5.7
57.953,5.37
57.968,5.06
57.984,5.24
58.000,6.06
58.015,7.23
58.031,8.1
58.046,8.13
58.062,7.1
58.078,5.38
58.093,3.6
58.109,2.33
58.125,1.81
58.140,1.76
58.156,1.78
58.171,1.35
58.187,0.38
58.203,-0.95
58.218,-2.24
58.234,-3.2
58.250,-3.84
58.265,-4.37
58.281,-5.16
58.296,-6.36
58.312,-7.9
58.328,-9.46
58.343,-10.68
58.359,-11.37
58.375,-11.54
58.390,-11.63
58.406,-12.02
58.421,-13.0
58.437,-14.47
58.453,-15.97
58.468,-16.89
58.484,-16.81
58.500,-15.7
58.515,-13.84
58.531,-11.86
58.546,-10.18
58.562,-8.99
58.578,-8.03
58.593,-6.78
58.609,-4.87
58.625,-2.26
58.640,0.57
58.656,3.02
58.671,4.62
58.687,5.4
58.703,5.69
58.718,6.01
58.734,6.76
58.750,7.94
58.765,9.21
58.781,10.12
58.796,10.44
58.812,10.29
58.828,10.15
58.843,10.46
58.859,11.4
58.875,12.9
58.890,14.51
58.906,15.69
58.921,16.09
58.937,15.67
58.953,14.72
58.968,13.7
58.984,12.96
59.000,12.6
59.015,12.48
59.031,12.29
59.046,11.8
59.062,10.99
59.078,10.0
59.093,9.0
59.109,8.18
59.125,7.45
59.140,6.61
59.156,5.36
59.171,3.45
59.187,0.99
59.203,-1.66
59.218,-4.01
59.234,-5.73
59.250,-6.7
59.265,-7.21
59.281,-7.67
59.296,-8.4
59.312,-9.5
59.328,-10.74
59.343,-11.76
59.359,-12.39
59.375,-12.77
59.390,-13.26
59.406,-14.32
59.421,-16.04
59.437,-18.15
59.453,-20.03
59.468,-20.97
59.484,-20.53
59.500,-18.66
59.515,-15.77
59.531,-12.36
59.546,-9.0
59.562,-5.89
59.578,-2.99
59.593,-0.19
59.609,2.64
59.625,5.3
59.640,7.52
59.656,9.03
59.671,9.77
59.687,9.89
59.703,9.74
59.718,9.65
59.734,9.77
59.750,10.01
59.765,10.04
59.781,9.63
59.796,8.72
59.812,7.54
59.828,6.5
59.843,6.02
59.859,6.28
59.875,7.1
59.890,8.06
59.906,8.68
59.921,8.68
59.937,8.14
59.953,7.38
59.968,6.89
59.984,7.02
