timestamp,value
00.000,-29.99
00.015,-35.13
00.031,-39.73
00.046,-43.97
00.062,-48.2
00.078,-52.77
00.093,-58.0
00.109,-64.01
00.125,-70.89
00.140,-78.3
00.156,-85.43
00.171,-91.27
00.187,-95.0
00.203,-96.26
00.218,-95.15
00.234,-92.13
00.250,-87.55
00.265,-82.36
00.281,-76.99
00.296,-71.18
00.312,-64.16
00.328,-55.29
00.343,-44.5
00.359,-32.08
00.375,-19.01
00.390,-6.36
00.406,3.2
00.421,7.78
00.437,7.22
00.453,3.1
00.468,-2.26
00.484,-7.0
00.500,-9.62
00.515,-10.09
00.531,-8.73
00.546,-8.88
00.562,-13.38
00.578,-23.34
00.593,-37.99
00.609,-55.72
00.625,-75.1
00.640,-94.13
00.656,-111.85
00.671,-127.06
00.687,-142.26
00.703,-159.41
00.718,-178.4
00.734,-196.89
00.750,-211.95
00.765,-221.92
00.781,-226.06
00.796,-226.44
00.812,-202.7
00.828,-144.92
00.843,-58.16
00.859,39.17
00.875,128.3
00.890,199.75
00.906,247.01
00.921,278.24
00.937,298.77
00.953,311.15
00.968,312.69
00.984,301.09
01.000,277.98
01.015,247.69
01.031,215.94
01.046,187.6
01.062,166.41
01.078,152.58
01.093,144.79
01.109,138.16
01.125,128.48
01.140,114.16
01.156,96.46
01.171,78.1
01.187,61.41
01.203,48.4
01.218,39.26
01.234,34.16
01.250,31.71
01.265,30.95
01.281,31.66
01.296,34.0
01.312,37.7
01.328,41.62
01.343,44.62
01.359,45.14
01.375,42.56
01.390,36.45
01.406,27.23
01.421,16.18
01.437,5.04
01.453,-4.54
01.468,-11.62
01.484,-15.77
01.500,-17.35
01.515,-16.79
01.531,-14.66
01.546,-11.31
01.562,-6.91
01.578,-1.68
01.593,3.88
01.609,8.97
01.625,12.77
01.640,14.76
01.656,15.14
01.671,14.74
01.687,14.64
01.703,15.65
01.718,17.85
01.734,20.62
01.750,22.85
01.765,23.46
01.781,21.92
01.796,18.42
01.812,13.7
01.828,8.69
01.843,4.07
01.859,-0.04
01.875,-3.88
01.890,-7.88
01.906,-12.24
01.921,-16.85
01.937,-21.42
01.953,-25.73
01.968,-29.76
01.984,-33.74
02.000,-37.89
02.015,-42.14
02.031,-46.04
02.046,-48.9
02.062,-50.2
02.078,-49.92
02.093,-48.63
02.109,-47.2
02.125,-46.48
02.140,-46.81
02.156,-48.03
02.171,-49.54
02.187,-50.71
02.203,-51.11
02.218,-50.72
02.234,-49.78
02.250,-48.64
02.265,-47.61
02.281,-46.82
02.296,-46.29
02.312,-45.95
02.328,-45.78
02.343,-45.74
02.359,-45.82
02.375,-45.95
02.390,-45.96
02.406,-45.66
02.421,-44.82
02.437,-43.27
02.453,-41.0
02.468,-38.16
02.484,-35.08
02.500,-32.16
02.515,-29.82
02.531,-28.38
02.546,-27.94
02.562,-28.36
02.578,-29.33
02.593,-30.58
02.609,-32.04
02.625,-33.84
02.640,-36.15
02.656,-38.82
02.671,-41.06
02.687,-41.48
02.703,-38.51
02.718,-31.02
02.734,-18.94
02.750,-3.4
02.765,13.46
02.781,29.07
02.796,41.06
02.812,47.76
02.828,48.48
02.843,43.54
02.859,34.26
02.875,22.74
02.890,11.43
02.906,2.49
02.921,-2.88
02.937,-4.84
02.953,-4.89
02.968,-5.31
02.984,-8.29
03.000,-15.05
03.015,-25.31
03.031,-37.43
03.046,-48.81
03.062,-56.87
03.078,-59.62
03.093,-56.21
03.109,-46.99
03.125,-33.16
03.140,-16.39
03.156,1.44
03.171,18.53
03.187,33.24
03.203,44.31
03.218,51.0
03.234,53.42
03.250,52.61
03.265,50.26
03.281,48.23
03.296,47.78
03.312,49.17
03.328,51.53
03.343,53.45
03.359,53.65
03.375,51.58
03.390,47.52
03.406,42.24
03.421,36.54
03.437,30.9
03.453,25.56
03.468,20.65
03.484,16.48
03.500,13.39
03.515,11.63
03.531,10.9
03.546,10.44
03.562,9.15
03.578,6.15
03.593,1.22
03.609,-5.24
03.625,-12.48
03.640,-19.89
03.656,-27.2
03.671,-34.42
03.687,-41.4
03.703,-47.51
03.718,-51.6
03.734,-52.35
03.750,-48.83
03.765,-40.99
03.781,-29.75
03.796,-16.7
03.812,-3.55
03.828,8.45
03.843,18.68
03.859,27.21
03.875,34.56
03.890,41.46
03.906,48.61
03.921,56.51
03.937,65.27
03.953,74.51
03.968,83.42
03.984,90.99
04.000,96.3
04.015,98.87
04.031,98.75
04.046,96.42
04.062,92.54
04.078,87.62
04.093,81.98
04.109,75.73
04.125,68.94
04.140,61.77
04.156,54.48
04.171,47.37
04.187,40.64
04.203,34.34
04.218,28.37
04.234,22.54
04.250,16.66
04.265,10.65
04.281,4.47
04.296,-1.82
04.312,-8.08
04.328,-14.15
04.343,-19.84
04.359,-24.91
04.375,-29.08
04.390,-32.06
04.406,-33.66
04.421,-33.91
04.437,-33.15
04.453,-31.97
04.468,-31.2
04.484,-31.61
04.500,-33.77
04.515,-37.76
04.531,-43.25
04.546,-49.55
04.562,-55.83
04.578,-61.45
04.593,-66.05
04.609,-69.55
04.625,-72.08
04.640,-73.77
04.656,-74.64
04.671,-74.64
04.687,-73.69
04.703,-71.73
04.718,-68.73
04.734,-64.68
04.750,-59.51
04.765,-53.09
04.781,-45.38
04.796,-36.53
04.812,-27.01
04.828,-17.62
04.843,-9.37
04.859,-3.27
04.875,0.04
04.890,0.52
04.906,-1.35
04.921,-4.61
04.937,-8.27
04.953,-11.59
04.968,-14.26
04.984,-16.42
05.000,-18.43
05.015,-20.72
05.031,-23.6
05.046,-27.25
05.062,-31.68
05.078,-36.81
05.093,-42.35
05.109,-47.89
05.125,-52.95
05.140,-57.09
05.156,-60.01
05.171,-61.58
05.187,-61.85
05.203,-60.91
05.218,-58.88
05.234,-55.84
05.250,-51.92
05.265,-47.24
05.281,-41.85
05.296,-35.62
05.312,-28.02
05.328,-18.15
05.343,-4.96
05.359,12.17
05.375,32.94
05.390,55.72
05.406,77.73
05.421,95.75
05.437,107.02
05.453,110.13
05.468,105.2
05.484,93.66
05.500,77.59
05.515,59.26
05.531,40.95
05.546,24.9
05.562,13.28
05.578,7.77
05.593,9.02
05.609,16.31
05.625,27.68
05.640,40.52
05.656,52.4
05.671,61.73
05.687,67.93
05.703,71.24
05.718,72.25
05.734,71.63
05.750,69.91
05.765,67.58
05.781,65.13
05.796,62.99
05.812,61.48
05.828,60.84
05.843,61.26
05.859,62.89
05.875,65.83
05.890,69.81
05.906,74.12
05.921,77.57
05.937,78.79
05.953,76.71
05.968,70.97
05.984,62.2
06.000,51.72
06.015,41.08
06.031,31.45
06.046,23.13
06.062,15.58
06.078,7.72
06.093,-1.58
06.109,-12.99
06.125,-26.48
06.140,-41.35
06.156,-56.46
06.171,-70.59
06.187,-82.69
06.203,-91.97
06.218,-98.01
06.234,-100.68
06.250,-100.23
06.265,-97.31
06.281,-92.79
06.296,-87.67
06.312,-82.6
06.328,-77.66
06.343,-72.29
06.359,-65.55
06.375,-56.66
06.390,-45.59
06.406,-33.12
06.421,-20.64
06.437,-9.49
06.453,-0.36
06.468,7.01
06.484,13.53
06.500,20.25
06.515,27.7
06.531,35.56
06.546,42.78
06.562,48.16
06.578,50.83
06.593,50.75
06.609,48.66
06.625,45.85
06.640,43.82
06.656,43.89
06.671,46.91
06.687,52.96
06.703,61.27
06.718,70.09
06.734,77.1
06.750,79.8
06.765,76.27
06.781,65.7
06.796,48.84
06.812,27.78
06.828,5.43
06.843,-15.25
06.859,-31.99
06.875,-43.54
06.890,-49.75
06.906,-51.34
06.921,-49.45
06.937,-45.32
06.953,-39.97
06.968,-34.17
06.984,-28.44
07.000,-23.18
07.015,-18.73
07.031,-15.42
07.046,-13.41
07.062,-12.7
07.078,-13.17
07.093,-14.69
07.109,-17.22
07.125,-20.87
07.140,-25.73
07.156,-31.62
07.171,-37.88
07.187,-43.36
07.203,-46.66
07.218,-46.59
07.234,-42.57
07.250,-34.91
07.265,-24.88
07.281,-14.4
07.296,-5.64
07.312,-0.42
07.328,0.33
07.343,-3.09
07.359,-9.15
07.375,-15.51
07.390,-19.65
07.406,-19.67
07.421,-14.86
07.437,-5.75
07.453,6.08
07.468,18.67
07.484,30.22
07.500,39.54
07.515,46.22
07.531,50.43
07.546,52.77
07.562,53.82
07.578,54.04
07.593,53.74
07.609,53.13
07.625,52.55
07.640,52.32
07.656,52.69
07.671,53.55
07.687,54.36
07.703,54.38
07.718,52.91
07.734,49.77
07.750,45.4
07.765,40.77
07.781,36.96
07.796,34.6
07.812,33.7
07.828,33.68
07.843,33.66
07.859,32.94
07.875,31.11
07.890,28.08
07.906,23.89
07.921,18.49
07.937,11.75
07.953,3.55
07.968,-6.05
07.984,-16.63
08.000,-27.52
08.015,-37.96
08.031,-47.39
08.046,-55.48
08.062,-62.21
08.078,-67.68
08.093,-72.0
08.109,-75.32
08.125,-77.76
08.140,-79.55
08.156,-80.93
08.171,-82.1
08.187,-83.13
08.203,-83.95
08.218,-84.35
08.234,-84.02
08.250,-82.64
08.265,-79.9
08.281,-75.45
08.296,-69.02
08.312,-60.53
08.328,-50.25
08.343,-38.85
08.359,-27.29
08.375,-16.56
08.390,-7.42
08.406,-0.12
08.421,5.55
08.437,10.11
08.453,14.09
08.468,17.75
08.484,20.98
08.500,23.36
08.515,24.4
08.531,23.77
08.546,21.51
08.562,18.03
08.578,13.99
08.593,10.09
08.609,6.99
08.625,5.19
08.640,5.03
08.656,6.64
08.671,9.98
08.687,14.7
08.703,20.27
08.718,26.08
08.734,31.65
08.750,36.87
08.765,41.96
08.781,47.33
08.796,53.28
08.812,59.84
08.828,66.69
08.843,73.36
08.859,79.49
08.875,85.04
08.890,90.19
08.906,95.07
08.921,99.45
08.937,102.71
08.953,104.16
08.968,103.48
08.984,101.12
09.000,98.09
09.015,95.46
09.031,93.61
09.046,91.9
09.062,89.01
09.078,83.81
09.093,76.26
09.109,67.54
09.125,59.51
09.140,53.63
09.156,50.2
09.171,48.32
09.187,46.53
09.203,43.61
09.218,39.07
09.234,32.97
09.250,25.59
09.265,16.94
09.281,6.92
09.296,-4.45
09.312,-16.69
09.328,-28.9
09.343,-40.05
09.359,-49.34
09.375,-56.34
09.390,-60.77
09.406,-62.24
09.421,-60.27
09.437,-54.47
09.453,-45.03
09.468,-32.93
09.484,-19.8
09.500,-7.55
09.515,2.25
09.531,8.65
09.546,11.5
09.562,11.09
09.578,7.91
09.593,2.3
09.609,-5.6
09.625,-15.63
09.640,-27.44
09.656,-40.26
09.671,-52.84
09.687,-63.76
09.703,-71.68
09.718,-75.79
09.734,-76.0
09.750,-72.97
09.765,-67.91
09.781,-62.3
09.796,-57.46
09.812,-54.28
09.828,-53.1
09.843,-53.74
09.859,-55.68
09.875,-58.32
09.890,-61.26
09.906,-64.29
09.921,-67.39
09.937,-70.52
09.953,-73.52
09.968,-75.98
09.984,-77.32
10.000,-76.93
10.015,-74.38
10.031,-69.57
10.046,-62.78
10.062,-54.59
10.078,-45.69
10.093,-36.74
10.109,-28.2
10.125,-20.36
10.140,-13.28
10.156,-6.99
10.171,-1.51
10.187,3.17
10.203,7.03
10.218,10.24
10.234,13.05
10.250,15.76
10.265,18.56
10.281,21.42
10.296,24.16
10.312,26.5
10.328,28.3
10.343,29.57
10.359,30.57
10.375,31.56
10.390,32.69
10.406,33.94
10.421,35.18
10.437,36.25
10.453,37.17
10.468,38.15
10.484,39.4
10.500,41.05
10.515,43.05
10.531,45.12
10.546,46.86
10.562,47.85
10.578,47.76
10.593,46.5
10.609,44.26
10.625,41.44
10.640,38.47
10.656,35.52
10.671,32.36
10.687,28.4
10.703,22.95
10.718,15.62
10.734,6.62
10.750,-3.29
10.765,-13.03
10.781,-21.61
10.796,-28.48
10.812,-33.69
10.828,-37.63
10.843,-40.82
10.859,-43.55
10.875,-45.82
10.890,-47.47
10.906,-48.34
10.921,-48.44
10.937,-48.11
10.953,-47.72
10.968,-47.45
10.984,-46.93
11.000,-45.21
11.015,-41.06
11.031,-33.52
11.046,-22.43
11.062,-8.65
11.078,6.21
11.093,20.35
11.109,32.34
11.125,41.6
11.140,48.21
11.156,52.66
11.171,55.35
11.187,56.44
11.203,55.86
11.218,53.53
11.234,49.57
11.250,44.22
11.265,37.73
11.281,30.05
11.296,20.88
11.312,9.84
11.328,-3.18
11.343,-17.72
11.359,-32.69
11.375,-46.65
11.390,-58.26
11.406,-66.87
11.421,-72.67
11.437,-76.5
11.453,-79.42
11.468,-82.03
11.484,-84.15
11.500,-84.8
11.515,-82.59
11.531,-76.24
11.546,-65.11
11.562,-49.49
11.578,-30.62
11.593,-10.5
11.609,8.55
11.625,24.37
11.640,35.39
11.656,40.92
11.671,41.28
11.687,37.67
11.703,31.72
11.718,25.05
11.734,18.8
11.750,13.47
11.765,8.98
11.781,4.87
11.796,0.65
11.812,-3.94
11.828,-8.72
11.843,-13.23
11.859,-16.81
11.875,-19.08
11.890,-20.1
11.906,-20.44
11.921,-20.85
11.937,-21.84
11.953,-23.33
11.968,-24.68
11.984,-25.02
12.000,-23.7
12.015,-20.59
12.031,-16.05
12.046,-10.64
12.062,-4.77
12.078,1.48
12.093,8.18
12.109,15.32
12.125,22.62
12.140,29.61
12.156,35.81
12.171,41.01
12.187,45.27
12.203,48.88
12.218,52.13
12.234,55.08
12.250,57.59
12.265,59.35
12.281,60.05
12.296,59.5
12.312,57.76
12.328,55.06
12.343,51.79
12.359,48.34
12.375,45.0
12.390,41.96
12.406,39.32
12.421,37.03
12.437,34.95
12.453,32.72
12.468,29.82
12.484,25.62
12.500,19.56
12.515,11.46
12.531,1.6
12.546,-9.38
12.562,-20.74
12.578,-31.97
12.593,-43.01
12.609,-54.16
12.625,-65.8
12.640,-78.09
12.656,-90.65
12.671,-102.66
12.687,-113.07
12.703,-120.95
12.718,-125.92
12.734,-128.3
12.750,-129.04
12.765,-129.46
12.781,-130.84
12.796,-134.13
12.812,-139.82
12.828,-147.75
12.843,-157.08
12.859,-166.19
12.875,-172.86
12.890,-174.86
12.906,-170.65
12.921,-160.1
12.937,-144.58
12.953,-126.36
12.968,-107.47
12.984,-88.78
13.000,-69.66
13.015,-48.58
13.031,-24.09
13.046,4.49
13.062,37.03
13.078,72.89
13.093,111.26
13.109,150.98
13.125,189.97
13.140,224.9
13.156,251.65
13.171,266.66
13.187,268.34
13.203,257.87
13.218,238.72
13.234,215.29
13.250,191.31
13.265,169.04
13.281,149.35
13.296,132.54
13.312,118.91
13.328,108.81
13.343,102.18
13.359,97.91
13.375,93.88
13.390,87.37
13.406,76.13
13.421,59.2
13.437,37.25
13.453,12.42
13.468,-12.39
13.484,-34.34
13.500,-51.39
13.515,-62.61
13.531,-68.34
13.546,-69.71
13.562,-68.1
13.578,-64.48
13.593,-59.12
13.609,-51.8
13.625,-42.42
13.640,-31.49
13.656,-20.3
13.671,-10.46
13.687,-3.19
13.703,1.19
13.718,3.31
13.734,4.15
13.750,4.27
13.765,3.4
13.781,0.6
13.796,-5.07
13.812,-13.82
13.828,-24.9
13.843,-36.76
13.859,-47.73
13.875,-56.58
13.890,-62.79
13.906,-66.31
13.921,-67.22
13.937,-65.51
13.953,-61.0
13.968,-53.69
13.984,-43.92
14.000,-32.61
14.015,-21.05
14.031,-10.64
14.046,-2.35
14.062,3.54
14.078,7.46
14.093,10.22
14.109,12.61
14.125,14.97
14.140,17.17
14.156,18.83
14.171,19.63
14.187,19.63
14.203,19.26
14.218,19.16
14.234,19.8
14.250,21.31
14.265,23.4
14.281,25.54
14.296,27.29
14.312,28.38
14.328,28.8
14.343,28.71
14.359,28.23
14.375,27.41
14.390,26.17
14.406,24.37
14.421,21.82
14.437,18.46
14.453,14.29
14.468,9.41
14.484,4.02
14.500,-1.57
14.515,-6.91
14.531,-11.37
14.546,-14.31
14.562,-15.24
14.578,-14.05
14.593,-11.07
14.609,-7.03
14.625,-2.85
14.640,0.74
14.656,3.29
14.671,4.8
14.687,5.48
14.703,5.66
14.718,5.49
14.734,4.86
14.750,3.51
14.765,1.06
14.781,-2.75
14.796,-8.07
14.812,-14.81
14.828,-22.74
14.843,-31.39
14.859,-39.99
14.875,-47.62
14.890,-53.45
14.906,-57.2
14.921,-59.35
14.937,-60.98
14.953,-63.25
14.968,-66.71
14.984,-70.88
15.000,-74.35
15.015,-75.4
15.031,-72.75
15.046,-66.09
15.062,-56.17
15.078,-44.3
15.093,-31.83
15.109,-19.72
15.125,-8.64
15.140,0.93
15.156,8.49
15.171,13.46
15.187,15.45
15.203,14.53
15.218,11.31
15.234,6.88
15.250,2.49
15.265,-0.93
15.281,-3.03
15.296,-4.12
15.312,-4.96
15.328,-6.36
15.343,-8.83
15.359,-12.44
15.375,-16.84
15.390,-21.47
15.406,-25.78
15.421,-29.31
15.437,-31.72
15.453,-32.8
15.468,-32.34
15.484,-30.22
15.500,-26.44
15.515,-21.16
15.531,-14.76
15.546,-7.85
15.562,-1.15
15.578,4.61
15.593,8.86
15.609,11.33
15.625,12.1
15.640,11.62
15.656,10.58
15.671,9.72
15.687,9.59
15.703,10.38
15.718,11.78
15.734,13.09
15.750,13.43
15.765,12.15
15.781,9.12
15.796,4.92
15.812,0.66
15.828,-2.34
15.843,-2.88
15.859,-0.34
15.875,5.39
15.890,13.82
15.906,24.15
15.921,35.38
15.937,46.56
15.953,56.83
15.968,65.58
15.984,72.48
16.000,77.53
16.015,81.0
16.031,83.33
16.046,84.93
16.062,86.0
16.078,86.42
16.093,85.73
16.109,83.3
16.125,78.55
16.140,71.19
16.156,61.36
16.171,49.73
16.187,37.36
16.203,25.43
16.218,14.96
16.234,6.57
16.250,0.41
16.265,-3.84
16.281,-6.73
16.296,-8.93
16.312,-11.09
16.328,-13.72
16.343,-17.2
16.359,-21.64
16.375,-26.9
16.390,-32.6
16.406,-38.25
16.421,-43.47
16.437,-48.2
16.453,-52.67
16.468,-57.28
16.484,-62.35
16.500,-67.93
16.515,-73.76
16.531,-79.41
16.546,-84.53
16.562,-88.89
16.578,-92.34
16.593,-94.65
16.609,-95.54
16.625,-94.84
16.640,-92.66
16.656,-89.54
16.671,-86.2
16.687,-83.18
16.703,-80.46
16.718,-77.43
16.734,-73.21
16.750,-67.19
16.765,-59.34
16.781,-50.23
16.796,-40.56
16.812,-30.59
16.828,-19.81
16.843,-7.02
16.859,9.15
16.875,29.63
16.890,54.27
16.906,81.65
16.921,109.17
16.937,133.5
16.953,151.3
16.968,160.09
16.984,158.78
17.000,147.84
17.015,129.11
17.031,105.32
17.046,79.66
17.062,55.42
17.078,35.74
17.093,23.27
17.109,19.66
17.125,25.1
17.140,38.11
17.156,55.89
17.171,75.09
17.187,92.73
17.203,106.71
17.218,115.84
17.234,119.49
17.250,117.23
17.265,108.87
17.281,94.76
17.296,76.12
17.312,55.17
17.328,34.7
17.343,17.35
17.359,4.97
17.375,-1.82
17.390,-3.53
17.406,-1.44
17.421,2.91
17.437,8.14
17.453,13.26
17.468,17.68
17.484,21.03
17.500,23.01
17.515,23.4
17.531,22.07
17.546,19.13
17.562,15.0
17.578,10.22
17.593,5.22
17.609,0.07
17.625,-5.59
17.640,-12.38
17.656,-20.92
17.671,-31.5
17.687,-43.86
17.703,-57.19
17.718,-70.28
17.734,-81.77
17.750,-90.44
17.765,-95.42
17.781,-96.28
17.796,-93.02
17.812,-86.05
17.828,-76.03
17.843,-63.84
17.859,-50.51
17.875,-37.22
17.890,-25.11
17.906,-15.09
17.921,-7.72
17.937,-2.96
17.953,-0.31
17.968,1.14
17.984,2.31
18.000,3.93
18.015,6.36
18.031,9.6
18.046,13.35
18.062,17.18
18.078,20.66
18.093,23.47
18.109,25.48
18.125,26.73
18.140,27.41
18.156,27.79
18.171,28.18
18.187,28.86
18.203,30.03
18.218,31.73
18.234,33.89
18.250,36.37
18.265,38.92
18.281,41.4
18.296,43.7
18.312,45.79
18.328,47.66
18.343,49.26
18.359,50.46
18.375,51.04
18.390,50.77
18.406,49.58
18.421,47.59
18.437,45.09
18.453,42.41
18.468,39.82
18.484,37.35
18.500,34.91
18.515,32.33
18.531,29.54
18.546,26.61
18.562,23.68
18.578,20.9
18.593,18.22
18.609,15.51
18.625,12.55
18.640,9.3
18.656,5.85
18.671,2.32
18.687,-1.23
18.703,-5.01
18.718,-9.36
18.734,-14.57
18.750,-20.62
18.765,-27.07
18.781,-33.11
18.796,-37.83
18.812,-40.44
18.828,-40.59
18.843,-38.36
18.859,-34.32
18.875,-29.34
18.890,-24.45
18.906,-20.6
18.921,-18.37
18.937,-17.8
18.953,-18.28
18.968,-18.78
18.984,-18.25
19.000,-16.05
19.015,-12.2
19.031,-7.39
19.046,-2.61
19.062,1.31
19.078,4.1
19.093,6.24
19.109,8.69
19.125,12.38
19.140,17.75
19.156,24.37
19.171,30.91
19.187,35.47
19.203,36.06
19.218,31.23
19.234,20.65
19.250,5.29
19.265,-12.5
19.281,-29.59
19.296,-42.84
19.312,-50.23
19.328,-51.47
19.343,-48.13
19.359,-42.99
19.375,-38.89
19.390,-37.75
19.406,-40.15
19.421,-45.46
19.437,-52.51
19.453,-60.16
19.468,-67.67
19.484,-74.63
19.500,-80.83
19.515,-86.08
19.531,-90.33
19.546,-93.72
19.562,-96.54
19.578,-99.03
19.593,-101.06
19.609,-101.86
19.625,-100.06
19.640,-94.02
19.656,-82.36
19.671,-64.64
19.687,-41.76
19.703,-16.02
19.718,9.5
19.734,31.84
19.750,49.17
19.765,61.18
19.781,69.0
19.796,74.35
19.812,78.66
19.828,82.46
19.843,85.46
19.859,87.07
19.875,87.03
19.890,85.75
19.906,84.04
19.921,82.63
19.937,81.74
19.953,81.02
19.968,79.85
19.984,77.81
20.000,74.96
20.015,71.86
20.031,69.27
20.046,67.7
20.062,67.22
20.078,67.47
20.093,67.87
20.109,67.93
20.125,67.43
20.140,66.46
20.156,65.27
20.171,64.08
20.187,62.89
20.203,61.48
20.218,59.44
20.234,56.32
20.250,51.84
20.265,45.89
20.281,38.65
20.296,30.51
20.312,22.0
20.328,13.65
20.343,5.84
20.359,-1.15
20.375,-7.32
20.390,-12.77
20.406,-17.69
20.421,-22.3
20.437,-26.73
20.453,-31.09
20.468,-35.5
20.484,-40.17
20.500,-45.37
20.515,-51.34
20.531,-58.0
20.546,-64.73
20.562,-70.33
20.578,-73.48
20.593,-73.09
20.609,-68.89
20.625,-61.45
20.640,-51.96
20.656,-41.68
20.671,-31.65
20.687,-22.58
20.703,-15.11
20.718,-9.97
20.734,-7.98
20.750,-9.72
20.765,-15.1
20.781,-23.27
20.796,-32.78
20.812,-42.07
20.828,-50.01
20.843,-56.03
20.859,-60.06
20.875,-62.28
20.890,-62.85
20.906,-61.86
20.921,-59.48
20.937,-56.0
20.953,-51.9
20.968,-47.76
20.984,-44.04
21.000,-40.93
21.015,-38.32
21.031,-35.75
21.046,-32.7
21.062,-28.77
21.078,-23.86
21.093,-18.22
21.109,-12.35
21.125,-6.61
21.140,-1.1
21.156,4.36
21.171,10.01
21.187,15.87
21.203,21.62
21.218,26.78
21.234,30.88
21.250,33.69
21.265,35.23
21.281,35.53
21.296,34.67
21.312,33.08
21.328,31.88
21.343,32.94
21.359,38.23
21.375,48.68
21.390,63.1
21.406,78.16
21.421,89.51
21.437,93.67
21.453,89.5
21.468,78.25
21.484,62.38
21.500,43.85
21.515,23.17
21.531,-0.27
21.546,-26.74
21.562,-55.0
21.578,-82.09
21.593,-104.51
21.609,-119.92
21.625,-128.11
21.640,-130.8
21.656,-130.38
21.671,-128.33
21.687,-124.58
21.703,-117.76
21.718,-106.27
21.734,-89.42
21.750,-67.97
21.765,-43.86
21.781,-19.53
21.796,2.88
21.812,21.95
21.828,37.08
21.843,48.22
21.859,55.77
21.875,60.27
21.890,62.4
21.906,62.85
21.921,62.24
21.937,61.05
21.953,59.51
21.968,57.73
21.984,55.69
22.000,53.52
22.015,51.47
22.031,49.91
22.046,49.2
22.062,49.47
22.078,50.52
22.093,51.73
22.109,52.17
22.125,50.74
22.140,46.56
22.156,39.31
22.171,29.48
22.187,18.34
22.203,7.65
22.218,-0.85
22.234,-5.99
22.250,-7.44
22.265,-5.77
22.281,-2.09
22.296,2.3
22.312,6.32
22.328,9.4
22.343,11.45
22.359,12.8
22.375,13.96
22.390,15.19
22.406,16.24
22.421,16.2
22.437,13.6
22.453,6.96
22.468,-4.64
22.484,-20.98
22.500,-40.63
22.515,-61.27
22.531,-80.4
22.546,-96.02
22.562,-107.07
22.578,-113.41
22.593,-115.54
22.609,-114.08
22.625,-109.48
22.640,-101.94
22.656,-91.66
22.671,-79.06
22.687,-65.04
22.703,-50.8
22.718,-37.51
22.734,-26.01
22.750,-16.61
22.765,-9.1
22.781,-2.91
22.796,2.61
22.812,8.13
22.828,14.17
22.843,21.19
22.859,29.43
22.875,38.83
22.890,48.89
22.906,58.75
22.921,67.34
22.937,73.86
22.953,78.17
22.968,80.88
22.984,83.17
23.000,86.28
23.015,90.96
23.031,96.99
23.046,103.41
23.062,108.75
23.078,111.63
23.093,111.09
23.109,106.61
23.125,97.99
23.140,85.15
23.156,68.2
23.171,47.66
23.187,24.89
23.203,2.08
23.218,-18.14
23.234,-33.46
23.250,-42.69
23.265,-46.2
23.281,-45.71
23.296,-43.66
23.312,-42.37
23.328,-43.39
23.343,-47.18
23.359,-53.27
23.375,-60.5
23.390,-67.52
23.406,-72.98
23.421,-75.9
23.437,-75.69
23.453,-72.33
23.468,-66.33
23.484,-58.62
23.500,-50.36
23.515,-42.57
23.531,-36.1
23.546,-31.36
23.562,-28.36
23.578,-26.79
23.593,-26.17
23.609,-26.03
23.625,-26.11
23.640,-26.4
23.656,-27.08
23.671,-28.28
23.687,-29.87
23.703,-31.32
23.718,-31.8
23.734,-30.6
23.750,-27.37
23.765,-22.48
23.781,-16.9
23.796,-11.8
23.812,-8.18
23.828,-6.4
23.843,-6.24
23.859,-6.96
23.875,-7.88
23.890,-8.52
23.906,-8.59
23.921,-7.9
23.937,-6.31
23.953,-3.89
23.968,-1.1
23.984,1.03
24.000,1.23
24.015,-1.73
24.031,-8.41
24.046,-18.49
24.062,-30.8
24.078,-43.85
24.093,-56.43
24.109,-67.81
24.125,-77.68
24.140,-85.76
24.156,-91.74
24.171,-95.09
24.187,-95.17
24.203,-91.4
24.218,-83.48
24.234,-71.74
24.250,-57.01
24.265,-40.33
24.281,-22.6
24.296,-4.85
24.312,12.22
24.328,28.48
24.343,44.69
24.359,62.35
24.375,82.81
24.390,107.11
24.406,135.54
24.421,167.67
24.437,201.06
24.453,231.74
24.468,255.23
24.484,268.1
24.500,268.9
24.515,257.86
24.531,236.91
24.546,208.88
24.562,177.33
24.578,144.1
24.593,109.93
24.609,75.33
24.625,41.68
24.640,11.14
24.656,-14.95
24.671,-36.26
24.687,-53.42
24.703,-66.71
24.718,-77.69
24.734,-87.93
24.750,-98.37
24.765,-108.63
24.781,-112.59
24.796,-105.3
24.812,-85.92
24.828,-64.21
24.843,-43.28
24.859,-23.89
24.875,-4.29
24.890,15.06
24.906,32.73
24.921,46.61
24.937,53.74
24.953,52.09
24.968,41.95
24.984,27.31
25.000,12.63
25.015,1.83
25.031,-3.32
25.046,-3.22
25.062,-0.28
25.078,1.75
25.093,-0.06
25.109,-6.36
25.125,-14.71
25.140,-22.45
25.156,-27.59
25.171,-29.48
25.187,-28.34
25.203,-24.84
25.218,-20.13
25.234,-15.15
25.250,-10.49
25.265,-6.06
25.281,-2.31
25.296,0.04
25.312,0.37
25.328,-1.12
25.343,-3.45
25.359,-5.34
25.375,-5.51
25.390,-3.29
25.406,1.36
25.421,7.17
25.437,12.12
25.453,14.17
25.468,12.23
25.484,6.5
25.500,-1.63
25.515,-9.92
25.531,-15.96
25.546,-17.75
25.562,-14.37
25.578,-6.14
25.593,5.5
25.609,18.32
25.625,29.76
25.640,37.45
25.656,39.79
25.671,36.22
25.687,27.42
25.703,15.04
25.718,1.14
25.734,-12.45
25.750,-24.33
25.765,-33.6
25.781,-39.51
25.796,-41.39
25.812,-38.92
25.828,-32.6
25.843,-24.06
25.859,-15.9
25.875,-10.83
25.890,-10.65
25.906,-15.56
25.921,-24.26
25.937,-34.67
25.953,-44.85
25.968,-53.59
25.984,-60.38
26.000,-65.04
26.015,-67.51
26.031,-67.8
26.046,-66.24
26.062,-63.69
26.078,-61.26
26.093,-60.08
26.109,-60.8
26.125,-63.44
26.140,-67.33
26.156,-71.43
26.171,-74.49
26.187,-75.4
26.203,-73.44
26.218,-68.59
26.234,-61.57
26.250,-53.83
26.265,-47.04
26.281,-42.54
26.296,-40.74
26.312,-41.0
26.328,-41.9
26.343,-41.85
26.359,-39.83
26.375,-35.81
26.390,-30.77
26.406,-26.33
26.421,-24.04
26.437,-24.9
26.453,-28.97
26.468,-35.53
26.484,-43.41
26.500,-51.45
26.515,-58.78
26.531,-64.94
26.546,-69.85
26.562,-73.81
26.578,-77.38
26.593,-81.24
26.609,-85.93
26.625,-91.54
26.640,-97.55
26.656,-102.96
26.671,-106.7
26.687,-108.02
26.703,-106.7
26.718,-102.74
26.734,-96.07
26.750,-86.32
26.765,-73.04
26.781,-56.14
26.796,-36.21
26.812,-14.47
26.828,7.74
26.843,29.43
26.859,50.23
26.875,70.12
26.890,89.11
26.906,107.14
26.921,124.45
26.937,142.08
26.953,161.85
26.968,185.5
26.984,213.35
27.000,243.29
27.015,270.96
27.031,291.41
27.046,301.35
27.062,300.71
27.078,292.64
27.093,281.89
27.109,272.52
27.125,266.01
27.140,260.95
27.156,253.92
27.171,241.4
27.187,221.23
27.203,193.21
27.218,158.74
27.234,120.07
27.250,79.29
27.265,37.93
27.281,-3.09
27.296,-43.25
27.312,-82.03
27.328,-118.78
27.343,-152.51
27.359,-181.91
27.375,-205.47
27.390,-221.84
27.406,-230.2
27.421,-230.53
27.437,-223.81
27.453,-211.68
27.468,-195.98
27.484,-178.03
27.500,-158.29
27.515,-136.44
27.531,-111.94
27.546,-84.71
27.562,-55.52
27.578,-25.93
27.593,2.29
27.609,27.81
27.625,50.1
27.640,69.37
27.656,86.22
27.671,101.22
27.687,114.63
27.703,126.33
27.718,135.93
27.734,142.89
27.750,146.74
27.765,147.31
27.781,144.88
27.796,140.18
27.812,134.28
27.828,128.19
27.843,122.51
27.859,117.14
27.875,111.48
27.890,104.79
27.906,96.81
27.921,87.91
27.937,78.99
27.953,70.84
27.968,63.63
27.984,56.71
28.000,48.92
28.015,39.17
28.031,26.94
28.046,12.51
28.062,-3.19
28.078,-18.89
28.093,-33.26
28.109,-45.09
28.125,-53.55
28.140,-58.31
28.156,-59.67
28.171,-58.52
28.187,-56.02
28.203,-53.24
28.218,-50.87
28.234,-49.16
28.250,-48.1
28.265,-47.7
28.281,-48.15
28.296,-49.75
28.312,-52.78
28.328,-57.28
28.343,-63.05
28.359,-69.7
28.375,-76.76
28.390,-83.75
28.406,-90.27
28.421,-95.99
28.437,-100.49
28.453,-103.17
28.468,-103.18
28.484,-99.6
28.500,-91.75
28.515,-79.67
28.531,-64.4
28.546,-47.81
28.562,-32.11
28.578,-19.18
28.593,-10.0
28.609,-4.54
28.625,-2.03
28.640,-1.39
28.656,-1.54
28.671,-1.51
28.687,-0.32
28.703,2.94
28.718,8.93
28.734,17.6
28.750,27.96
28.765,38.2
28.781,46.33
28.796,51.07
28.812,52.54
28.828,52.29
28.843,52.54
28.859,55.04
28.875,60.12
28.890,66.62
28.906,72.63
28.921,76.62
28.937,78.12
28.953,77.65
28.968,75.91
28.984,73.14
29.000,68.95
29.015,62.83
29.031,54.8
29.046,45.61
29.062,36.29
29.078,27.41
29.093,18.62
29.109,8.85
29.125,-2.87
29.140,-16.64
29.156,-31.39
29.171,-45.41
29.187,-57.12
29.203,-65.83
29.218,-71.73
29.234,-75.48
29.250,-77.69
29.265,-78.63
29.281,-78.38
29.296,-77.09
29.312,-75.27
29.328,-73.77
29.343,-73.47
29.359,-74.97
29.375,-78.07
29.390,-81.73
29.406,-84.2
29.421,-83.56
29.437,-78.52
29.453,-68.97
29.468,-56.1
29.484,-41.99
29.500,-28.78
29.515,-17.96
29.531,-9.96
29.546,-4.4
29.562,-0.63
29.578,1.75
29.593,2.62
29.609,1.63
29.625,-1.38
29.640,-5.99
29.656,-11.17
29.671,-15.67
29.687,-18.39
29.703,-18.91
29.718,-17.52
29.734,-15.1
29.750,-12.78
29.765,-11.53
29.781,-12.02
29.796,-14.58
29.812,-19.15
29.828,-25.33
29.843,-32.3
29.859,-38.89
29.875,-43.84
29.890,-46.36
29.906,-46.77
29.921,-46.6
29.937,-48.07
29.953,-53.15
29.968,-62.65
29.984,-76.05
30.000,-91.85
30.015,-108.43
30.031,-124.55
30.046,-139.46
30.062,-152.63
30.078,-163.43
30.093,-171.35
30.109,-176.24
30.125,-178.6
30.140,-179.32
30.156,-179.03
30.171,-177.47
30.187,-173.37
30.203,-165.03
30.218,-151.36
30.234,-132.62
30.250,-110.57
30.265,-87.64
30.281,-66.17
30.296,-47.51
30.312,-31.95
30.328,-18.91
30.343,-7.47
30.359,3.1
30.375,13.11
30.390,22.46
30.406,30.8
30.421,37.75
30.437,43.12
30.453,47.17
30.468,50.5
30.484,54.02
30.500,58.67
30.515,65.12
30.531,73.46
30.546,83.19
30.562,93.25
30.578,102.33
30.593,109.01
30.609,112.02
30.625,110.59
30.640,104.86
30.656,96.3
30.671,87.67
30.687,82.27
30.703,82.74
30.718,89.87
30.734,102.25
30.750,116.95
30.765,130.97
30.781,142.69
30.796,152.42
30.812,161.81
30.828,172.44
30.843,184.58
30.859,196.7
30.875,206.12
30.890,210.07
30.906,206.85
30.921,196.15
30.937,178.9
30.953,156.58
30.968,130.82
30.984,103.09
31.000,74.76
31.015,47.15
31.031,21.54
31.046,-1.07
31.062,-20.18
31.078,-35.96
31.093,-49.16
31.109,-60.79
31.125,-71.74
31.140,-82.45
31.156,-92.96
31.171,-103.04
31.187,-112.57
31.203,-121.65
31.218,-130.64
31.234,-139.85
31.250,-149.18
31.265,-157.9
31.281,-164.79
31.296,-168.47
31.312,-167.85
31.328,-162.44
31.343,-152.44
31.359,-138.53
31.375,-121.68
31.390,-102.91
31.406,-83.3
31.421,-63.87
31.437,-45.55
31.453,-29.12
31.468,-15.03
31.484,-3.38
31.500,6.09
31.515,13.93
31.531,20.85
31.546,27.43
31.562,34.03
31.578,40.61
31.593,46.91
31.609,52.63
31.625,57.62
31.640,61.93
31.656,65.73
31.671,68.98
31.687,71.42
31.703,72.53
31.718,71.97
31.734,69.67
31.750,66.1
31.765,62.0
31.781,58.12
31.796,55.01
31.812,52.91
31.828,51.79
31.843,51.49
31.859,51.73
31.875,52.07
31.890,52.06
31.906,51.34
31.921,49.93
31.937,48.28
31.953,47.21
31.968,47.64
31.984,50.14
32.000,54.69
32.015,60.6
32.031,66.84
32.046,72.41
32.062,76.84
32.078,80.31
32.093,83.53
32.109,87.41
32.125,92.57
32.140,99.09
32.156,106.28
32.171,112.84
32.187,117.02
32.203,116.91
32.218,110.95
32.234,98.42
32.250,79.97
32.265,57.72
32.281,34.93
32.296,15.02
32.312,0.53
32.328,-7.6
32.343,-10.03
32.359,-8.35
32.375,-4.24
32.390,1.23
32.406,7.63
32.421,14.7
32.437,21.98
32.453,28.59
32.468,33.58
32.484,36.39
32.500,37.12
32.515,36.4
32.531,34.92
32.546,32.93
32.562,30.11
32.578,25.73
32.593,19.04
32.609,9.55
32.625,-2.81
32.640,-17.7
32.656,-34.43
32.671,-51.95
32.687,-68.79
32.703,-83.13
32.718,-93.15
32.734,-97.44
32.750,-95.48
32.765,-87.84
32.781,-76.07
32.796,-62.19
32.812,-48.15
32.828,-35.35
32.843,-24.59
32.859,-16.05
32.875,-9.55
32.890,-4.56
32.906,-0.4
32.921,3.7
32.937,8.32
32.953,13.55
32.968,18.86
32.984,23.16
33.000,25.28
33.015,24.45
33.031,20.64
33.046,14.53
33.062,7.22
33.078,-0.22
33.093,-7.09
33.109,-13.06
33.125,-18.1
33.140,-22.25
33.156,-25.48
33.171,-27.62
33.187,-28.38
33.203,-27.37
33.218,-24.16
33.234,-18.44
33.250,-10.07
33.265,0.81
33.281,13.81
33.296,28.3
33.312,43.44
33.328,58.2
33.343,71.43
33.359,82.0
33.375,89.1
33.390,92.58
33.406,92.87
33.421,90.8
33.437,87.09
33.453,82.08
33.468,75.6
33.484,67.24
33.500,56.71
33.515,44.13
33.531,30.14
33.546,15.68
33.562,1.74
33.578,-10.74
33.593,-20.96
33.609,-28.13
33.625,-31.71
33.640,-31.57
33.656,-28.25
33.671,-22.92
33.687,-17.18
33.703,-12.54
33.718,-10.02
33.734,-9.86
33.750,-11.58
33.765,-14.15
33.781,-16.43
33.796,-17.66
33.812,-17.78
33.828,-17.43
33.843,-17.73
33.859,-19.67
33.875,-23.55
33.890,-28.65
33.906,-33.41
33.921,-36.02
33.937,-35.2
33.953,-30.53
33.968,-22.5
33.984,-12.25
34.000,-1.24
34.015,8.92
34.031,16.6
34.046,20.54
34.062,20.22
34.078,16.33
34.093,10.64
34.109,5.41
34.125,2.32
34.140,1.74
34.156,2.55
34.171,2.81
34.187,0.87
34.203,-3.81
34.218,-10.54
34.234,-17.99
34.250,-25.03
34.265,-31.24
34.281,-36.82
34.296,-42.14
34.312,-47.26
34.328,-51.69
34.343,-54.7
34.359,-55.63
34.375,-54.38
34.390,-51.6
34.406,-48.72
34.421,-47.58
34.437,-49.88
34.453,-56.46
34.468,-66.68
34.484,-78.51
34.500,-89.15
34.515,-96.19
34.531,-98.65
34.546,-97.34
34.562,-94.2
34.578,-91.18
34.593,-89.22
34.609,-87.85
34.625,-85.75
34.640,-81.67
34.656,-75.19
34.671,-66.93
34.687,-58.27
34.703,-50.65
34.718,-45.09
34.734,-41.91
34.750,-40.76
34.765,-40.83
34.781,-41.25
34.796,-41.45
34.812,-41.27
34.828,-40.93
34.843,-40.82
34.859,-41.25
34.875,-42.32
34.890,-43.79
34.906,-45.25
34.921,-46.12
34.937,-45.83
34.953,-43.9
34.968,-40.13
34.984,-34.96
35.000,-29.55
35.015,-25.75
35.031,-25.4
35.046,-29.18
35.062,-35.56
35.078,-40.78
35.093,-40.07
35.109,-30.08
35.125,-11.03
35.140,12.63
35.156,33.82
35.171,45.95
35.187,45.8
35.203,34.77
35.218,17.8
35.234,0.74
35.250,-11.91
35.265,-17.83
35.281,-16.03
35.296,-5.7
35.312,14.03
35.328,42.92
35.343,78.05
35.359,113.37
35.375,141.06
35.390,154.41
35.406,150.7
35.421,132.28
35.437,105.42
35.453,77.71
35.468,55.21
35.484,40.7
35.500,33.59
35.515,30.97
35.531,29.21
35.546,25.33
35.562,17.71
35.578,6.15
35.593,-8.38
35.609,-24.14
35.625,-39.17
35.640,-51.65
35.656,-60.24
35.671,-64.27
35.687,-63.79
35.703,-59.57
35.718,-52.95
35.734,-45.56
35.750,-38.94
35.765,-34.12
35.781,-31.34
35.796,-30.0
35.812,-29.0
35.828,-27.34
35.843,-24.68
35.859,-21.53
35.875,-19.04
35.890,-18.35
35.906,-19.94
35.921,-23.32
35.937,-27.13
35.953,-29.71
35.968,-29.78
35.984,-26.77
36.000,-20.85
36.015,-12.71
36.031,-3.19
36.046,6.85
36.062,16.57
36.078,25.1
36.093,31.6
36.109,35.5
36.125,36.77
36.140,36.04
36.156,34.44
36.171,33.33
36.187,33.79
36.203,36.3
36.218,40.47
36.234,45.27
36.250,49.39
36.265,51.73
36.281,51.9
36.296,50.24
36.312,47.69
36.328,45.27
36.343,43.78
36.359,43.51
36.375,44.34
36.390,45.94
36.406,47.98
36.421,50.17
36.437,52.28
36.453,54.15
36.468,55.66
36.484,56.74
36.500,57.42
36.515,57.68
36.531,57.34
36.546,56.1
36.562,53.56
36.578,49.59
36.593,44.41
36.609,38.69
36.625,33.2
36.640,28.53
36.656,24.73
36.671,21.41
36.687,18.0
36.703,14.11
36.718,9.65
36.734,4.84
36.750,-0.13
36.765,-5.25
36.781,-10.71
36.796,-16.68
36.812,-22.94
36.828,-28.76
36.843,-32.99
36.859,-34.4
36.875,-32.13
36.890,-25.99
36.906,-16.52
36.921,-4.85
36.937,7.63
36.953,19.68
36.968,30.52
36.984,39.99
37.000,48.54
37.015,56.93
37.031,65.78
37.046,75.32
37.062,85.17
37.078,94.49
37.093,102.21
37.109,107.43
37.125,109.54
37.140,108.48
37.156,104.64
37.171,98.76
37.187,91.81
37.203,84.75
37.218,78.29
37.234,72.72
37.250,67.78
37.265,62.78
37.281,56.91
37.296,49.56
37.312,40.66
37.328,30.77
37.343,20.89
37.359,12.1
37.375,5.15
37.390,0.07
37.406,-3.78
37.421,-7.44
37.437,-11.9
37.453,-17.64
37.468,-24.39
37.484,-31.42
37.500,-37.76
37.515,-42.78
37.531,-46.31
37.546,-48.68
37.562,-50.38
37.578,-51.83
37.593,-53.31
37.609,-54.99
37.625,-57.27
37.640,-60.59
37.656,-65.36
37.671,-71.59
37.687,-78.75
37.703,-85.91
37.718,-92.18
37.734,-97.04
37.750,-100.6
37.765,-103.31
37.781,-105.64
37.796,-107.63
37.812,-108.93
37.828,-108.96
37.843,-107.35
37.859,-104.14
37.875,-99.77
37.890,-94.84
37.906,-89.75
37.921,-84.46
37.937,-78.49
37.953,-71.08
37.968,-61.43
37.984,-48.99
38.000,-33.63
38.015,-15.72
38.031,3.9
38.046,24.07
38.062,43.49
38.078,61.13
38.093,76.29
38.109,88.89
38.125,99.1
38.140,107.34
38.156,113.89
38.171,118.88
38.187,122.27
38.203,123.97
38.218,123.87
38.234,121.8
38.250,117.51
38.265,110.57
38.281,100.54
38.296,87.21
38.312,70.89
38.328,52.51
38.343,33.61
38.359,15.83
38.375,0.51
38.390,-11.84
38.406,-21.69
38.421,-30.28
38.437,-39.12
38.453,-49.42
38.468,-61.7
38.484,-75.64
38.500,-90.32
38.515,-104.63
38.531,-117.45
38.546,-128.0
38.562,-135.9
38.578,-141.33
38.593,-145.03
38.609,-148.2
38.625,-152.09
38.640,-157.42
38.656,-163.84
38.671,-169.9
38.687,-173.54
38.703,-173.04
38.718,-168.01
38.734,-159.79
38.750,-150.82
38.765,-143.49
38.781,-138.82
38.796,-135.85
38.812,-132.08
38.828,-124.76
38.843,-112.27
38.859,-94.81
38.875,-74.28
38.890,-53.15
38.906,-33.38
38.921,-15.77
38.937,-0.19
38.953,13.79
38.968,26.15
38.984,36.29
39.000,43.35
39.015,46.84
39.031,46.98
39.046,44.53
39.062,40.21
39.078,34.19
39.093,26.09
39.109,15.38
39.125,2.01
39.140,-13.19
39.156,-28.7
39.171,-42.84
39.187,-54.59
39.203,-63.99
39.218,-71.98
39.234,-79.78
39.250,-88.04
39.265,-96.31
39.281,-103.11
39.296,-106.63
39.312,-105.35
39.328,-98.67
39.343,-86.91
39.359,-70.96
39.375,-51.74
39.390,-29.91
39.406,-5.79
39.421,20.37
39.437,47.98
39.453,75.96
39.468,102.79
39.484,126.85
39.500,146.77
39.515,161.72
39.531,171.48
39.546,176.4
39.562,177.18
39.578,174.72
39.593,169.85
39.609,163.21
39.625,155.36
39.640,146.79
39.656,137.97
39.671,129.28
39.687,120.87
39.703,112.56
39.718,103.97
39.734,94.71
39.750,84.67
39.765,74.15
39.781,63.8
39.796,54.28
39.812,46.03
39.828,39.07
39.843,33.13
39.859,27.92
39.875,23.39
39.890,19.8
39.906,17.54
39.921,16.91
39.937,17.94
39.953,20.31
39.968,23.51
39.984,26.93
40.000,30.09
40.015,32.67
40.031,34.62
40.046,36.11
40.062,37.57
40.078,39.37
40.093,41.65
40.109,44.12
40.125,45.98
40.140,46.31
40.156,44.31
40.171,39.71
40.187,33.02
40.203,25.37
40.218,18.21
40.234,12.8
40.250,9.77
40.265,8.97
40.281,9.6
40.296,10.56
40.312,10.98
40.328,10.42
40.343,8.92
40.359,6.78
40.375,4.31
40.390,1.63
40.406,-1.25
40.421,-4.36
40.437,-7.55
40.453,-10.48
40.468,-12.71
40.484,-13.84
40.500,-13.66
40.515,-12.27
40.531,-10.03
40.546,-7.6
40.562,-5.66
40.578,-4.72
40.593,-4.85
40.609,-5.74
40.625,-6.8
40.640,-7.57
40.656,-7.81
40.671,-7.56
40.687,-6.92
40.703,-6.01
40.718,-4.93
40.734,-3.84
40.750,-2.93
40.765,-2.09
40.781,-0.58
40.796,3.02
40.812,10.29
40.828,22.06
40.843,37.53
40.859,54.06
40.875,67.82
40.890,75.01
40.906,73.2
40.921,62.04
40.937,43.18
40.953,19.49
40.968,-5.89
40.984,-30.35
41.000,-52.1
41.015,-70.22
41.031,-84.4
41.046,-94.85
41.062,-102.06
41.078,-106.77
41.093,-109.79
41.109,-111.83
41.125,-113.29
41.140,-113.99
41.156,-113.22
41.171,-109.91
41.187,-103.11
41.203,-92.43
41.218,-78.2
41.234,-61.22
41.250,-42.34
41.265,-22.11
41.281,-0.81
41.296,21.08
41.312,42.55
41.328,61.83
41.343,76.92
41.359,86.19
41.375,89.03
41.390,86.0
41.406,78.52
41.421,68.37
41.437,57.22
41.453,46.42
41.468,36.99
41.484,29.71
41.500,25.01
41.515,22.85
41.531,22.69
41.546,23.57
41.562,24.4
41.578,24.35
41.593,22.94
41.609,20.13
41.625,16.16
41.640,11.41
41.656,6.35
41.671,1.44
41.687,-2.96
41.703,-6.62
41.718,-9.48
41.734,-11.48
41.750,-12.07
41.765,-10.04
41.781,-3.71
41.796,8.34
41.812,26.35
41.828,48.82
41.843,72.97
41.859,95.74
41.875,115.08
41.890,130.66
41.906,143.55
41.921,155.27
41.937,166.61
41.953,177.2
41.968,185.79
41.984,191.19
42.000,193.19
42.015,192.79
42.031,191.84
42.046,191.99
42.062,193.79
42.078,196.39
42.093,197.79
42.109,195.7
42.125,188.59
42.140,176.3
42.156,160.06
42.171,141.77
42.187,123.07
42.203,104.59
42.218,85.96
42.234,66.3
42.250,44.88
42.265,21.56
42.281,-3.45
42.296,-30.17
42.312,-59.31
42.328,-92.08
42.343,-129.63
42.359,-171.98
42.375,-217.35
42.390,-262.22
42.406,-302.2
42.421,-333.39
42.437,-353.55
42.453,-362.67
42.468,-362.58
42.484,-356.72
42.500,-349.28
42.515,-344.35
42.531,-344.74
42.546,-351.15
42.562,-361.93
42.578,-373.72
42.593,-382.82
42.609,-386.13
42.625,-382.6
42.640,-373.07
42.656,-359.21
42.671,-342.41
42.687,-323.38
42.703,-302.79
42.718,-281.9
42.734,-262.37
42.750,-244.06
42.765,-225.64
42.781,-204.75
42.796,-178.89
42.812,-146.47
42.828,-107.64
42.843,-64.72
42.859,-21.27
42.875,19.25
42.890,57.57
42.906,95.42
42.921,134.12
42.937,173.87
42.953,214.17
42.968,254.91
42.984,296.17
43.000,338.12
43.015,380.66
43.031,427.46
43.046,479.67
43.062,534.22
43.078,584.44
43.093,623.8
43.109,649.76
43.125,664.09
43.140,671.36
43.156,675.68
43.171,683.73
43.187,696.13
43.203,706.97
43.218,707.08
43.234,690.45
43.250,658.83
43.265,619.32
43.281,580.52
43.296,514.4
43.312,409.38
43.328,274.27
43.343,135.4
43.359,18.58
43.375,-63.7
43.390,-111.28
43.406,-132.5
43.421,-138.29
43.437,-138.98
43.453,-135.3
43.468,-124.25
43.484,-106.27
43.500,-85.3
43.515,-66.46
43.531,-52.19
43.546,-44.13
43.562,-42.85
43.578,-49.6
43.593,-60.69
43.609,-74.06
43.625,-82.97
43.640,-84.33
43.656,-88.42
43.671,-99.73
43.687,-121.33
43.703,-146.01
43.718,-169.97
43.734,-187.73
43.750,-195.67
43.765,-193.1
43.781,-182.71
43.796,-168.06
43.812,-150.18
43.828,-129.71
43.843,-106.85
43.859,-83.2
43.875,-58.86
43.890,-34.26
43.906,-10.76
43.921,8.9
43.937,22.19
43.953,29.05
43.968,30.2
43.984,27.12
44.000,20.65
44.015,12.59
44.031,4.75
44.046,-1.5
44.062,-5.81
44.078,-8.26
44.093,-8.23
44.109,-5.58
44.125,-0.52
44.140,5.69
44.156,11.76
44.171,16.54
44.187,19.14
44.203,18.78
44.218,15.08
44.234,8.49
44.250,-0.33
44.265,-10.45
44.281,-21.06
44.296,-31.0
44.312,-38.89
44.328,-43.39
44.343,-43.64
44.359,-39.55
44.375,-31.86
44.390,-22.19
44.406,-12.75
44.421,-5.85
44.437,-3.23
44.453,-5.8
44.468,-13.65
44.484,-26.49
44.500,-44.21
44.515,-67.22
44.531,-96.44
44.546,-132.84
44.562,-176.85
44.578,-227.7
44.593,-283.22
44.609,-340.47
44.625,-396.24
44.640,-448.08
44.656,-494.78
44.671,-536.42
44.687,-574.06
44.703,-609.58
44.718,-645.33
44.734,-683.62
44.750,-725.54
44.765,-769.63
44.781,-811.01
44.796,-841.88
44.812,-853.94
44.828,-841.42
44.843,-803.7
44.859,-745.7
44.875,-676.08
44.890,-603.86
44.906,-535.59
44.921,-474.15
44.937,-419.52
44.953,-370.69
44.968,-326.73
44.984,-287.64
45.000,-253.79
45.015,-225.02
45.031,-200.16
45.046,-177.53
45.062,-155.45
45.078,-133.33
45.093,-111.93
45.109,-92.44
45.125,-75.91
45.140,-62.82
45.156,-52.93
45.171,-45.19
45.187,-38.42
45.203,-31.37
45.218,-23.5
45.234,-15.08
45.250,-5.72
45.265,5.03
45.281,17.58
45.296,32.08
45.312,48.9
45.328,67.97
45.343,89.71
45.359,113.68
45.375,138.3
45.390,163.86
45.406,189.92
45.421,214.3
45.437,233.15
45.453,242.81
45.468,240.01
45.484,225.61
45.500,201.97
45.515,172.01
45.531,144.44
45.546,127.48
45.562,125.04
45.578,135.99
45.593,156.95
45.609,182.48
45.625,212.57
45.640,247.31
45.656,285.48
45.671,333.23
45.687,395.33
45.703,469.39
45.718,545.97
45.734,614.04
45.750,661.81
45.765,689.14
45.781,699.29
45.796,695.96
45.812,694.08
45.828,707.91
45.843,742.38
45.859,792.49
45.875,849.79
45.890,903.05
45.906,954.03
45.921,1006.45
45.937,991.1
45.953,864.21
45.968,632.56
45.984,350.8
46.000,80.06
46.015,-108.87
46.031,-234.72
46.046,-318.45
46.062,-373.04
46.078,-403.9
46.093,-415.62
46.109,-403.49
46.125,-369.04
46.140,-322.36
46.156,-275.99
46.171,-244.21
46.187,-227.02
46.203,-221.01
46.218,-222.92
46.234,-221.72
46.250,-206.87
46.265,-176.41
46.281,-136.9
46.296,-97.89
46.312,-70.66
46.328,-55.31
46.343,-48.77
46.359,-47.54
46.375,-43.14
46.390,-27.34
46.406,1.82
46.421,39.99
46.437,80.43
46.453,114.99
46.468,142.81
46.484,165.47
46.500,185.2
46.515,206.98
46.531,236.25
46.546,275.56
46.562,324.65
46.578,381.38
46.593,440.71
46.609,497.78
46.625,545.58
46.640,576.43
46.656,585.94
46.671,574.68
46.687,547.1
46.703,510.09
46.718,470.51
46.734,432.48
46.750,397.67
46.765,364.9
46.781,332.2
46.796,298.73
46.812,265.49
46.828,233.65
46.843,203.92
46.859,175.69
46.875,146.89
46.890,115.03
46.906,77.67
46.921,34.17
46.937,-13.68
46.953,-62.6
46.968,-110.82
46.984,-157.03
47.000,-200.37
47.015,-240.54
47.031,-277.12
47.046,-311.18
47.062,-343.08
47.078,-372.14
47.093,-397.38
47.109,-421.52
47.125,-446.49
47.140,-472.26
47.156,-497.29
47.171,-518.64
47.187,-536.95
47.203,-553.04
47.218,-567.06
47.234,-579.11
47.250,-594.82
47.265,-617.47
47.281,-645.81
47.296,-674.8
47.312,-696.67
47.328,-709.87
47.343,-714.8
47.359,-712.58
47.375,-705.2
47.390,-701.08
47.406,-703.77
47.421,-709.16
47.437,-707.81
47.453,-688.33
47.468,-650.5
47.484,-599.46
47.500,-542.42
47.515,-442.06
47.531,-287.99
47.546,-99.94
47.562,84.73
47.578,218.26
47.593,310.48
47.609,374.03
47.625,416.92
47.640,446.72
47.656,466.15
47.671,470.95
47.687,460.57
47.703,439.7
47.718,416.03
47.734,398.39
47.750,385.85
47.765,375.15
47.781,363.77
47.796,350.15
47.812,329.08
47.828,298.97
47.843,263.05
47.859,227.72
47.875,200.91
47.890,183.21
47.906,173.0
47.921,168.34
47.937,166.92
47.953,163.52
47.968,154.68
47.984,139.96
48.000,121.28
48.015,102.46
48.031,83.99
48.046,66.42
48.062,51.26
48.078,40.31
48.093,33.63
48.109,31.03
48.125,32.38
48.140,37.5
48.156,46.44
48.171,57.37
48.187,68.36
48.203,77.9
48.218,84.64
48.234,87.06
48.250,84.47
48.265,77.45
48.281,67.83
48.296,58.15
48.312,50.01
48.328,44.13
48.343,40.2
48.359,37.22
48.375,34.09
48.390,30.24
48.406,25.9
48.421,21.99
48.437,19.54
48.453,19.15
48.468,20.8
48.484,23.91
48.500,27.79
48.515,31.99
48.531,36.43
48.546,41.13
48.562,45.86
48.578,49.88
48.593,52.08
48.609,51.52
48.625,47.92
48.640,41.8
48.656,34.33
48.671,26.67
48.687,19.42
48.703,12.32
48.718,4.37
48.734,-5.71
48.750,-19.03
48.765,-36.16
48.781,-57.01
48.796,-80.88
48.812,-106.59
48.828,-132.65
48.843,-157.58
48.859,-180.15
48.875,-199.77
48.890,-216.61
48.906,-231.41
48.921,-245.08
48.937,-258.19
48.953,-270.71
48.968,-282.1
48.984,-291.72
49.000,-299.27
49.015,-304.97
49.031,-309.32
49.046,-312.54
49.062,-314.17
49.078,-312.94
49.093,-307.22
49.109,-295.56
49.125,-277.18
49.140,-252.06
49.156,-220.68
49.171,-183.76
49.187,-142.21
49.203,-97.3
49.218,-50.84
49.234,-5.14
49.250,37.5
49.265,75.47
49.281,108.25
49.296,136.28
49.312,160.29
49.328,180.49
49.343,196.18
49.359,206.05
49.375,209.07
49.390,205.36
49.406,196.5
49.421,185.16
49.437,174.09
49.453,165.17
49.468,158.9
49.484,154.58
49.500,151.02
49.515,147.23
49.531,142.81
49.546,137.85
49.562,132.59
49.578,126.99
49.593,120.63
49.609,112.9
49.625,103.34
49.640,91.98
49.656,79.45
49.671,66.81
49.687,55.2
49.703,45.45
49.718,37.83
49.734,32.05
49.750,27.5
49.765,23.51
49.781,19.64
49.796,15.83
49.812,12.4
49.828,9.84
49.843,8.58
49.859,8.79
49.875,10.27
49.890,12.48
49.906,14.8
49.921,16.67
49.937,17.85
49.953,18.48
49.968,18.91
49.984,19.56
50.000,20.62
50.015,21.9
50.031,22.97
50.046,23.36
50.062,22.97
50.078,22.25
50.093,22.09
50.109,23.51
50.125,27.08
50.140,32.7
50.156,39.46
50.171,46.12
50.187,51.7
50.203,55.92
50.218,59.27
50.234,62.69
50.250,66.98
50.265,72.43
50.281,78.8
50.296,85.56
50.312,92.28
50.328,98.77
50.343,104.94
50.359,110.48
50.375,114.66
50.390,116.29
50.406,114.15
50.421,107.48
50.437,96.28
50.453,81.4
50.468,64.29
50.484,46.48
50.500,29.3
50.515,13.54
50.531,-0.48
50.546,-12.79
50.562,-23.64
50.578,-33.33
50.593,-42.24
50.609,-50.92
50.625,-60.18
50.640,-71.05
50.656,-84.62
50.671,-101.6
50.687,-121.97
50.703,-144.77
50.718,-168.22
50.734,-190.08
50.750,-208.37
50.765,-221.87
50.781,-230.32
50.796,-234.43
50.812,-235.38
50.828,-234.51
50.843,-232.93
50.859,-231.39
50.875,-230.31
50.890,-229.68
50.906,-229.16
50.921,-228.03
50.937,-225.38
50.953,-220.35
50.968,-212.27
50.984,-200.79
51.000,-185.75
51.015,-167.05
51.031,-144.64
51.046,-118.63
51.062,-89.59
51.078,-58.87
51.093,-28.45
51.109,-0.48
51.125,23.34
51.140,42.33
51.156,56.94
51.171,68.39
51.187,78.01
51.203,86.78
51.218,95.11
51.234,102.94
51.250,110.1
51.265,116.48
51.281,122.18
51.296,127.28
51.312,131.82
51.328,135.73
51.343,138.92
51.359,141.44
51.375,143.53
51.390,145.58
51.406,147.94
51.421,150.87
51.437,154.5
51.453,158.89
51.468,164.11
51.484,170.24
51.500,177.17
51.515,184.6
51.531,191.95
51.546,198.65
51.562,204.26
51.578,208.49
51.593,211.04
51.609,211.34
51.625,208.39
51.640,200.92
51.656,188.04
51.671,169.79
51.687,147.53
51.703,123.7
51.718,101.22
51.734,82.68
51.750,69.81
51.765,63.3
51.781,62.72
51.796,66.53
51.812,71.82
51.828,74.45
51.843,69.52
51.859,52.5
51.875,20.66
51.890,-25.96
51.906,-84.17
51.921,-148.46
51.937,-212.39
51.953,-270.04
51.968,-317.13
51.984,-351.46
52.000,-372.99
52.015,-383.66
52.031,-386.84
52.046,-386.47
52.062,-385.94
52.078,-386.8
52.093,-388.15
52.109,-386.62
52.125,-377.49
52.140,-356.18
52.156,-319.79
52.171,-268.01
52.187,-203.36
52.203,-130.51
52.218,-55.28
52.234,16.57
52.250,80.32
52.265,132.89
52.281,173.0
52.296,200.97
52.312,218.27
52.328,227.12
52.343,229.96
52.359,229.08
52.375,226.22
52.390,222.37
52.406,217.55
52.421,210.9
52.437,200.98
52.453,186.17
52.468,165.2
52.484,137.67
52.500,104.43
52.515,67.81
52.531,31.42
52.546,-0.56
52.562,-24.39
52.578,-37.88
52.593,-40.94
52.609,-35.33
52.625,-23.7
52.640,-8.37
52.656,9.23
52.671,28.52
52.687,48.96
52.703,69.46
52.718,88.26
52.734,103.48
52.750,113.94
52.765,119.63
52.781,121.76
52.796,122.22
52.812,122.94
52.828,125.43
52.843,130.43
52.859,137.9
52.875,146.71
52.890,154.79
52.906,159.44
52.921,158.64
52.937,151.63
52.953,139.19
52.968,123.15
52.984,105.57
53.000,88.19
53.015,71.89
53.031,56.82
53.046,42.63
53.062,29.48
53.078,17.77
53.093,7.81
53.109,-0.68
53.125,-8.63
53.140,-16.78
53.156,-25.69
53.171,-35.52
53.187,-46.37
53.203,-57.34
53.218,-67.29
53.234,-75.29
53.250,-81.1
53.265,-84.96
53.281,-86.21
53.296,-84.49
53.312,-80.47
53.328,-77.05
53.343,-76.01
53.359,-78.38
53.375,-84.33
53.390,-93.9
53.406,-106.95
53.421,-121.08
53.437,-134.75
53.453,-148.65
53.468,-167.66
53.484,-193.14
53.500,-223.45
53.515,-254.27
53.531,-280.77
53.546,-298.58
53.562,-300.97
53.578,-284.07
53.593,-249.06
53.609,-205.27
53.625,-158.26
53.640,-110.77
53.656,-62.8
53.671,-14.19
53.687,35.8
53.703,93.0
53.718,161.86
53.734,241.88
53.750,322.23
53.765,396.18
53.781,459.43
53.796,510.54
53.812,548.35
53.828,542.83
53.843,477.7
53.859,361.57
53.875,254.81
53.890,172.97
53.906,116.56
53.921,73.05
53.937,38.68
53.953,10.96
53.968,-12.13
53.984,-27.4
54.000,-32.65
54.015,-28.98
54.031,-25.55
54.046,-25.48
54.062,-28.49
54.078,-31.88
54.093,-34.37
54.109,-35.72
54.125,-32.57
54.140,-23.42
54.156,-9.83
54.171,0.38
54.187,4.1
54.203,0.85
54.218,-7.92
54.234,-21.49
54.250,-39.45
54.265,-58.15
54.281,-74.43
54.296,-86.08
54.312,-94.5
54.328,-99.06
54.343,-99.35
54.359,-95.68
54.375,-90.13
54.390,-85.52
54.406,-82.22
54.421,-80.84
54.437,-81.56
54.453,-85.06
54.468,-89.78
54.484,-93.1
54.500,-91.92
54.515,-84.01
54.531,-69.81
54.546,-47.82
54.562,-24.46
54.578,-11.58
54.593,-19.05
54.609,-47.23
54.625,-87.71
54.640,-128.59
54.656,-159.97
54.671,-182.99
54.687,-198.63
54.703,-209.83
54.718,-219.08
54.734,-227.21
54.750,-234.22
54.765,-240.84
54.781,-249.64
54.796,-258.53
54.812,-268.26
54.828,-277.82
54.843,-285.71
54.859,-289.26
54.875,-285.72
54.890,-273.9
54.906,-254.98
54.921,-231.55
54.937,-205.7
54.953,-178.41
54.968,-147.35
54.984,-109.42
55.000,-61.77
55.015,-3.38
55.031,63.42
55.046,132.7
55.062,196.27
55.078,246.33
55.093,277.52
55.109,289.87
55.125,287.75
55.140,278.17
55.156,268.01
55.171,261.32
55.187,258.27
55.203,255.95
55.218,250.48
55.234,238.57
55.250,219.4
55.265,194.26
55.281,166.12
55.296,138.92
55.312,116.75
55.328,103.05
55.343,99.69
55.359,106.33
55.375,120.03
55.390,136.38
55.406,150.66
55.421,159.34
55.437,161.06
55.453,156.67
55.468,148.46
55.484,138.93
55.500,129.83
55.515,121.76
55.531,114.73
55.546,108.79
55.562,104.58
55.578,103.12
55.593,105.0
55.609,109.64
55.625,115.0
55.640,118.22
55.656,116.87
55.671,109.99
55.687,98.45
55.703,84.47
55.718,70.56
55.734,58.68
55.750,49.72
55.765,43.64
55.781,39.87
55.796,37.82
55.812,37.25
55.828,38.42
55.843,42.07
55.859,49.19
55.875,60.53
55.890,75.92
55.906,94.01
55.921,112.39
55.937,128.57
55.953,141.06
55.968,149.93
55.984,156.54
56.000,162.53
56.015,168.43
56.031,172.93
56.046,173.17
56.062,165.96
56.078,149.54
56.093,124.45
56.109,93.15
56.125,58.72
56.140,23.5
56.156,-11.59
56.171,-46.76
56.187,-82.36
56.203,-118.09
56.218,-152.09
56.234,-181.69
56.250,-204.97
56.265,-221.85
56.281,-234.15
56.296,-244.71
56.312,-256.21
56.328,-270.4
56.343,-288.22
56.359,-308.66
56.375,-329.45
56.390,-348.45
56.406,-364.59
56.421,-378.09
56.437,-390.07
56.453,-402.12
56.468,-415.7
56.484,-432.07
56.500,-449.62
56.515,-464.21
56.531,-471.18
56.546,-467.36
56.562,-451.82
56.578,-425.69
56.593,-391.4
56.609,-351.79
56.625,-309.97
56.640,-265.98
56.656,-217.32
56.671,-161.02
56.687,-95.41
56.703,-20.58
56.718,61.74
56.734,147.99
56.750,237.67
56.765,317.03
56.781,367.63
56.796,379.81
56.812,359.8
56.828,323.9
56.843,288.26
56.859,262.45
56.875,247.84
56.890,240.65
56.906,233.84
56.921,224.53
56.937,214.18
56.953,205.73
56.968,200.65
56.984,198.01
57.000,195.24
57.015,189.64
57.031,178.52
57.046,161.03
57.062,139.28
57.078,117.38
57.093,98.98
57.109,85.51
57.125,75.97
57.140,67.98
57.156,58.96
57.171,47.2
57.187,32.16
57.203,15.1
57.218,-1.08
57.234,-13.59
57.250,-21.05
57.265,-24.07
57.281,-24.73
57.296,-25.56
57.312,-28.43
57.328,-33.96
57.343,-41.84
57.359,-50.13
57.375,-56.78
57.390,-60.45
57.406,-61.14
57.421,-60.16
57.437,-59.18
57.453,-59.27
57.468,-60.46
57.484,-62.85
57.500,-65.63
57.515,-68.65
57.531,-72.24
57.546,-77.31
57.562,-84.62
57.578,-93.99
57.593,-104.28
57.609,-106.64
57.625,-96.46
57.640,-75.94
57.656,-54.4
57.671,-40.96
57.687,-39.49
57.703,-48.12
57.718,-61.54
57.734,-73.87
57.750,-80.47
57.765,-83.29
57.781,-81.44
57.796,-75.34
57.812,-66.32
57.828,-56.38
57.843,-47.47
57.859,-40.91
57.875,-37.05
57.890,-34.79
57.906,-32.42
57.921,-25.25
57.937,-10.48
57.953,13.25
57.968,45.37
57.984,83.68
58.000,124.1
58.015,161.15
58.031,185.21
58.046,187.6
58.062,167.81
58.078,134.5
58.093,101.17
58.109,78.34
58.125,69.64
58.140,73.52
58.156,82.61
58.171,90.81
58.187,95.25
58.203,96.8
58.218,97.54
58.234,99.39
58.250,100.04
58.265,98.3
58.281,93.5
58.296,85.73
58.312,76.56
58.328,68.57
58.343,64.43
58.359,65.21
58.375,69.97
58.390,76.42
58.406,82.59
58.421,87.02
58.437,88.67
58.453,87.18
58.468,82.58
58.484,75.2
58.500,65.43
58.515,54.01
58.531,42.16
58.546,31.83
58.562,24.74
58.578,21.59
58.593,22.16
58.609,25.41
58.625,29.97
58.640,34.59
58.656,38.41
58.671,41.27
58.687,43.88
58.703,47.21
58.718,52.06
58.734,59.07
58.750,68.66
58.765,81.16
58.781,96.63
58.796,114.54
58.812,133.42
58.828,150.91
58.843,164.08
58.859,170.44
58.875,168.97
58.890,160.38
58.906,146.63
58.921,129.81
58.937,111.05
58.953,90.14
58.968,65.98
58.984,37.5
59.000,4.59
59.015,-31.46
59.031,-68.35
59.046,-103.56
59.062,-135.13
59.078,-162.14
59.093,-184.71
59.109,-203.83
59.125,-220.81
59.140,-236.75
59.156,-252.24
59.171,-267.34
59.187,-281.81
59.203,-295.41
59.218,-307.93
59.234,-319.29
59.250,-329.75
59.265,-339.85
59.281,-350.36
59.296,-362.25
59.312,-376.51
59.328,-393.71
59.343,-413.29
59.359,-432.66
59.375,-447.48
59.390,-453.02
59.406,-445.73
59.421,-424.35
59.437,-390.23
59.453,-346.73
59.468,-298.04
59.484,-247.8
59.500,-197.82
59.515,-148.64
59.531,-100.92
59.546,-56.25
59.562,-16.67
59.578,16.28
59.593,42.52
59.609,63.41
59.625,81.5
59.640,100.19
59.656,122.44
59.671,149.46
59.687,180.67
59.703,214.53
59.718,249.16
59.734,282.6
59.750,311.86
59.765,329.1
59.781,327.24
59.796,306.42
59.812,274.62
59.828,242.34
59.843,217.4
59.859,202.46
59.875,196.4
59.890,194.45
59.906,192.27
59.921,187.87
59.937,181.33
59.953,173.37
59.968,164.29
59.984,153.94
