timestamp,value
00.000,-75.71
00.015,-63.53
00.031,-54.57
00.046,-48.35
00.062,-43.96
00.078,-40.31
00.093,-37.0
00.109,-33.65
00.125,-30.31
00.140,-27.32
00.156,-24.39
00.171,-20.74
00.187,-15.61
00.203,-8.86
00.218,-1.0
00.234,6.11
00.250,11.66
00.265,15.16
00.281,16.43
00.296,16.88
00.312,18.54
00.328,23.04
00.343,30.93
00.359,41.73
00.375,53.54
00.390,66.76
00.406,82.73
00.421,102.59
00.437,128.19
00.453,161.03
00.468,201.72
00.484,249.98
00.500,305.45
00.515,366.43
00.531,433.17
00.546,505.15
00.562,569.97
00.578,612.39
00.593,620.63
00.609,592.1
00.625,532.8
00.640,461.1
00.656,377.17
00.671,277.46
00.687,160.3
00.703,27.57
00.718,-112.12
00.734,-244.61
00.750,-356.32
00.765,-438.67
00.781,-489.27
00.796,-512.14
00.812,-511.13
00.828,-490.01
00.843,-452.68
00.859,-402.43
00.875,-343.24
00.890,-280.33
00.906,-219.67
00.921,-166.42
00.937,-125.45
00.953,-97.76
00.968,-82.54
00.984,-78.84
01.000,-85.42
01.015,-101.43
01.031,-127.04
01.046,-163.25
01.062,-210.8
01.078,-269.83
01.093,-336.17
01.109,-402.08
01.125,-457.73
01.140,-493.52
01.156,-503.65
01.171,-488.65
01.187,-455.36
01.203,-414.24
01.218,-375.88
01.234,-346.7
01.250,-328.48
01.265,-319.72
01.281,-317.6
01.296,-319.9
01.312,-325.38
01.328,-332.89
01.343,-340.34
01.359,-344.59
01.375,-341.84
01.390,-329.16
01.406,-305.75
01.421,-273.04
01.437,-234.1
01.453,-192.41
01.468,-150.44
01.484,-109.17
01.500,-68.07
01.515,-25.95
01.531,18.03
01.546,63.59
01.562,109.18
01.578,152.55
01.593,191.7
01.609,225.78
01.625,255.19
01.640,281.52
01.656,306.75
01.671,332.54
01.687,360.0
01.703,389.43
01.718,420.43
01.734,451.77
01.750,481.46
01.765,506.46
01.781,523.52
01.796,530.17
01.812,525.71
01.828,511.83
01.843,491.75
01.859,468.78
01.875,444.93
01.890,420.41
01.906,394.18
01.921,365.23
01.937,334.08
01.953,302.75
01.968,274.24
01.984,250.92
02.000,233.35
02.015,220.1
02.031,208.48
02.046,195.73
02.062,180.09
02.078,161.19
02.093,139.49
02.109,115.8
02.125,90.64
02.140,64.37
02.156,37.65
02.171,11.69
02.187,-11.57
02.203,-30.21
02.218,-42.75
02.234,-48.93
02.250,-49.43
02.265,-45.69
02.281,-39.31
02.296,-31.76
02.312,-24.56
02.328,-19.04
02.343,-16.38
02.359,-17.21
02.375,-21.73
02.390,-29.61
02.406,-40.35
02.421,-53.74
02.437,-69.64
02.453,-88.03
02.468,-108.48
02.484,-130.03
02.500,-151.36
02.515,-171.11
02.531,-187.89
02.546,-200.49
02.562,-207.73
02.578,-208.34
02.593,-201.51
02.609,-187.18
02.625,-166.47
02.640,-141.39
02.656,-114.25
02.671,-86.75
02.687,-59.65
02.703,-32.9
02.718,-6.13
02.734,20.67
02.750,46.84
02.765,71.15
02.781,92.52
02.796,110.57
02.812,125.94
02.828,140.0
02.843,154.32
02.859,170.13
02.875,187.93
02.890,207.26
02.906,226.91
02.921,244.96
02.937,259.42
02.953,268.54
02.968,271.37
02.984,267.85
03.000,258.68
03.015,244.92
03.031,227.55
03.046,207.19
03.062,184.02
03.078,158.25
03.093,130.54
03.109,102.53
03.125,76.65
03.140,55.65
03.156,41.64
03.171,35.28
03.187,35.52
03.203,39.83
03.218,45.12
03.234,48.66
03.250,48.87
03.265,45.31
03.281,38.26
03.296,28.18
03.312,15.3
03.328,-0.13
03.343,-17.74
03.359,-36.88
03.375,-56.84
03.390,-77.1
03.406,-97.33
03.421,-117.32
03.437,-136.46
03.453,-153.62
03.468,-167.13
03.484,-175.36
03.500,-177.27
03.515,-172.99
03.531,-163.82
03.546,-151.66
03.562,-138.51
03.578,-125.72
03.593,-113.84
03.609,-102.71
03.625,-91.94
03.640,-81.38
03.656,-71.27
03.671,-62.18
03.687,-54.7
03.703,-48.96
03.718,-44.4
03.734,-39.99
03.750,-34.8
03.765,-28.58
03.781,-22.13
03.796,-16.97
03.812,-14.63
03.828,-15.79
03.843,-19.91
03.859,-25.37
03.875,-30.52
03.890,-34.62
03.906,-38.21
03.921,-42.81
03.937,-49.92
03.953,-59.98
03.968,-72.03
03.984,-84.08
04.000,-93.85
04.015,-99.64
04.031,-100.71
04.046,-96.92
04.062,-88.63
04.078,-76.25
04.093,-60.51
04.109,-42.46
04.125,-23.68
04.140,-5.99
04.156,8.8
04.171,19.23
04.187,24.45
04.203,24.14
04.218,18.59
04.234,8.54
04.250,-4.69
04.265,-19.48
04.281,-34.0
04.296,-46.65
04.312,-56.07
04.328,-61.08
04.343,-60.95
04.359,-55.38
04.375,-44.6
04.390,-29.5
04.406,-11.67
04.421,6.8
04.437,23.61
04.453,36.81
04.468,45.29
04.484,48.69
04.500,47.03
04.515,40.49
04.531,29.37
04.546,14.34
04.562,-3.3
04.578,-21.43
04.593,-37.49
04.609,-49.01
04.625,-54.4
04.640,-53.83
04.656,-48.78
04.671,-41.18
04.687,-32.64
04.703,-23.93
04.718,-15.19
04.734,-6.51
04.750,1.78
04.765,8.81
04.781,12.27
04.796,9.95
04.812,1.27
04.828,-12.16
04.843,-26.95
04.859,-39.33
04.875,-46.56
04.890,-47.54
04.906,-42.84
04.921,-36.68
04.937,-33.32
04.953,-34.9
04.968,-40.21
04.984,-45.55
05.000,-47.18
05.015,-43.13
05.031,-33.64
05.046,-20.55
05.062,-10.62
05.078,-10.01
05.093,-21.81
05.109,-44.44
05.125,-72.86
05.140,-101.81
05.156,-127.87
05.171,-149.65
05.187,-167.47
05.203,-188.67
05.218,-221.24
05.234,-271.45
05.250,-340.78
05.265,-425.78
05.281,-520.72
05.296,-619.42
05.312,-716.02
05.328,-771.68
05.343,-756.27
05.359,-660.65
05.375,-506.58
05.390,-331.48
05.406,-165.18
05.421,-21.06
05.437,100.09
05.453,202.64
05.468,290.94
05.484,361.93
05.500,412.05
05.515,441.02
05.531,451.12
05.546,447.38
05.562,434.69
05.578,416.51
05.593,395.81
05.609,376.21
05.625,352.11
05.640,325.34
05.656,298.68
05.671,273.84
05.687,250.46
05.703,226.51
05.718,200.32
05.734,172.51
05.750,145.92
05.765,121.17
05.781,98.0
05.796,74.03
05.812,47.55
05.828,18.94
05.843,-9.7
05.859,-35.67
05.875,-56.95
05.890,-72.76
05.906,-84.87
05.921,-95.11
05.937,-106.29
05.953,-118.58
05.968,-130.13
05.984,-138.16
06.000,-140.36
06.015,-135.81
06.031,-124.94
06.046,-110.17
06.062,-94.34
06.078,-80.44
06.093,-70.31
06.109,-64.2
06.125,-61.17
06.140,-59.74
06.156,-58.7
06.171,-56.99
06.187,-54.46
06.203,-51.49
06.218,-48.81
06.234,-46.77
06.250,-44.82
06.265,-41.44
06.281,-34.15
06.296,-23.86
06.312,-10.47
06.328,5.59
06.343,23.37
06.359,41.59
06.375,59.08
06.390,75.27
06.406,90.18
06.421,104.29
06.437,118.3
06.453,133.49
06.468,150.76
06.484,170.56
06.500,192.42
06.515,214.63
06.531,234.16
06.546,247.24
06.562,250.53
06.578,242.21
06.593,223.37
06.609,197.16
06.625,167.98
06.640,139.95
06.656,115.89
06.671,96.67
06.687,81.72
06.703,69.79
06.718,59.58
06.734,50.61
06.750,42.72
06.765,35.92
06.781,30.0
06.796,24.52
06.812,18.83
06.828,12.5
06.843,5.73
06.859,-0.61
06.875,-5.29
06.890,-7.49
06.906,-7.28
06.921,-5.78
06.937,-4.57
06.953,-5.01
06.968,-7.57
06.984,-11.69
07.000,-16.18
07.015,-19.78
07.031,-21.92
07.046,-22.81
07.062,-23.22
07.078,-23.89
07.093,-25.17
07.109,-26.94
07.125,-28.81
07.140,-30.5
07.156,-31.95
07.171,-33.49
07.187,-35.5
07.203,-38.12
07.218,-41.05
07.234,-43.59
07.250,-45.05
07.265,-45.07
07.281,-43.92
07.296,-42.25
07.312,-40.92
07.328,-40.54
07.343,-41.09
07.359,-42.0
07.375,-42.35
07.390,-41.12
07.406,-37.44
07.421,-30.95
07.437,-21.85
07.453,-10.92
07.468,0.55
07.484,11.03
07.500,19.08
07.515,23.8
07.531,24.94
07.546,23.15
07.562,19.59
07.578,15.74
07.593,13.08
07.609,13.0
07.625,16.6
07.640,24.71
07.656,37.76
07.671,55.5
07.687,77.0
07.703,100.48
07.718,123.64
07.734,144.09
07.750,159.82
07.765,169.41
07.781,172.2
07.796,168.27
07.812,158.31
07.828,143.64
07.843,125.95
07.859,107.12
07.875,88.96
07.890,72.77
07.906,59.33
07.921,48.78
07.937,40.84
07.953,34.73
07.968,29.5
07.984,24.06
08.000,17.39
08.015,8.79
08.031,-2.02
08.046,-14.81
08.062,-29.1
08.078,-44.28
08.093,-59.77
08.109,-74.85
08.125,-88.56
08.140,-99.62
08.156,-106.67
08.171,-108.7
08.187,-105.51
08.203,-97.95
08.218,-87.75
08.234,-77.07
08.250,-67.95
08.265,-61.93
08.281,-59.74
08.296,-61.41
08.312,-66.24
08.328,-72.99
08.343,-80.1
08.359,-86.06
08.375,-89.57
08.390,-89.96
08.406,-87.18
08.421,-81.73
08.437,-74.56
08.453,-66.57
08.468,-58.49
08.484,-50.74
08.500,-43.45
08.515,-36.73
08.531,-30.75
08.546,-25.76
08.562,-21.84
08.578,-18.95
08.593,-16.72
08.609,-14.61
08.625,-12.16
08.640,-9.09
08.656,-5.48
08.671,-1.67
08.687,1.65
08.703,3.66
08.718,3.67
08.734,1.75
08.750,-1.01
08.765,-2.89
08.781,-2.35
08.796,1.03
08.812,6.01
08.828,10.39
08.843,12.3
08.859,11.41
08.875,9.33
08.890,8.65
08.906,11.23
08.921,17.01
08.937,23.96
08.953,29.19
08.968,30.57
08.984,27.98
09.000,23.11
09.015,18.42
09.031,15.82
09.046,15.77
09.062,17.44
09.078,19.48
09.093,20.83
09.109,21.32
09.125,21.67
09.140,22.73
09.156,24.91
09.171,27.85
09.187,30.56
09.203,32.03
09.218,31.88
09.234,30.45
09.250,28.72
09.265,27.91
09.281,28.86
09.296,31.77
09.312,36.19
09.328,41.28
09.343,46.11
09.359,50.13
09.375,53.26
09.390,55.84
09.406,58.63
09.421,62.18
09.437,66.71
09.453,72.1
09.468,77.79
09.484,83.35
09.500,88.58
09.515,93.59
09.531,98.51
09.546,103.44
09.562,107.99
09.578,111.68
09.593,114.15
09.609,115.33
09.625,115.53
09.640,115.07
09.656,113.91
09.671,111.44
09.687,106.69
09.703,98.67
09.718,86.93
09.734,71.71
09.750,53.79
09.765,34.3
09.781,14.51
09.796,-4.32
09.812,-21.02
09.828,-34.77
09.843,-45.51
09.859,-54.29
09.875,-63.09
09.890,-74.49
09.906,-90.54
09.921,-112.12
09.937,-138.71
09.953,-168.69
09.968,-200.37
09.984,-232.52
10.000,-264.58
10.015,-295.97
10.031,-325.42
10.046,-350.28
10.062,-367.12
10.078,-372.61
10.093,-365.02
10.109,-344.91
10.125,-314.72
10.140,-277.76
10.156,-236.98
10.171,-194.5
10.187,-151.72
10.203,-110.2
10.218,-72.04
10.234,-39.56
10.250,-14.23
10.265,4.31
10.281,18.32
10.296,30.97
10.312,44.64
10.328,59.83
10.343,75.0
10.359,87.69
10.375,95.98
10.390,99.46
10.406,99.26
10.421,97.3
10.437,95.19
10.453,93.61
10.468,92.42
10.484,91.05
10.500,89.37
10.515,87.68
10.531,86.68
10.546,86.74
10.562,87.59
10.578,88.38
10.593,88.04
10.609,85.75
10.625,81.37
10.640,75.58
10.656,69.48
10.671,64.11
10.687,59.92
10.703,56.58
10.718,53.24
10.734,48.95
10.750,43.31
10.765,36.52
10.781,29.48
10.796,23.22
10.812,18.35
10.828,14.9
10.843,12.31
10.859,9.74
10.875,6.66
10.890,3.14
10.906,-0.24
10.921,-2.64
10.937,-3.65
10.953,-3.52
10.968,-3.01
10.984,-3.11
11.000,-4.5
11.015,-7.22
11.031,-10.78
11.046,-14.22
11.062,-16.81
11.078,-18.33
11.093,-18.9
11.109,-18.95
11.125,-18.82
11.140,-18.51
11.156,-17.69
11.171,-16.06
11.187,-13.42
11.203,-10.01
11.218,-6.5
11.234,-3.61
11.250,-1.74
11.265,-0.77
11.281,-0.06
11.296,1.34
11.312,3.87
11.328,7.33
11.343,10.87
11.359,13.36
11.375,14.06
11.390,12.94
11.406,10.81
11.421,8.83
11.437,7.95
11.453,8.28
11.468,9.18
11.484,9.7
11.500,9.1
11.515,7.37
11.531,5.05
11.546,2.96
11.562,1.57
11.578,0.64
11.593,-0.38
11.609,-2.2
11.625,-4.97
11.640,-8.35
11.656,-11.48
11.671,-13.6
11.687,-14.45
11.703,-14.4
11.718,-14.25
11.734,-14.74
11.750,-16.33
11.765,-18.82
11.781,-21.69
11.796,-24.1
11.812,-25.46
11.828,-25.49
11.843,-24.37
11.859,-22.59
11.875,-20.68
11.890,-18.96
11.906,-17.37
11.921,-15.68
11.937,-13.52
11.953,-10.85
11.968,-7.95
11.984,-5.27
12.000,-3.14
12.015,-1.63
12.031,-0.45
12.046,0.93
12.062,2.87
12.078,5.32
12.093,7.89
12.109,10.02
12.125,11.27
12.140,11.65
12.156,11.44
12.171,11.17
12.187,11.28
12.203,11.69
12.218,12.05
12.234,11.77
12.250,10.43
12.265,7.95
12.281,4.89
12.296,2.08
12.312,0.42
12.328,0.45
12.343,2.0
12.359,4.39
12.375,6.51
12.390,7.68
12.406,7.57
12.421,6.51
12.437,5.04
12.453,3.51
12.468,1.95
12.484,-0.14
12.500,-3.09
12.515,-6.98
12.531,-11.29
12.546,-15.23
12.562,-18.05
12.578,-19.55
12.593,-20.22
12.609,-20.87
12.625,-22.3
12.640,-24.62
12.656,-27.3
12.671,-29.3
12.687,-29.62
12.703,-27.82
12.718,-24.19
12.734,-19.58
12.750,-14.97
12.765,-11.12
12.781,-8.17
12.796,-5.83
12.812,-3.51
12.828,-0.82
12.843,2.25
12.859,5.4
12.875,7.97
12.890,9.62
12.906,10.23
12.921,10.16
12.937,10.01
12.953,10.24
12.968,10.86
12.984,11.56
13.000,11.89
13.015,11.54
13.031,10.77
13.046,10.27
13.062,10.78
13.078,12.69
13.093,15.68
13.109,18.71
13.125,20.6
13.140,20.57
13.156,18.59
13.171,15.5
13.187,12.48
13.203,10.48
13.218,9.72
13.234,9.66
13.250,9.44
13.265,8.43
13.281,6.68
13.296,4.7
13.312,3.3
13.328,2.93
13.343,3.42
13.359,4.07
13.375,3.96
13.390,2.54
13.406,-0.16
13.421,-3.46
13.437,-6.6
13.453,-8.99
13.468,-10.75
13.484,-12.52
13.500,-14.93
13.515,-18.11
13.531,-21.49
13.546,-23.94
13.562,-24.4
13.578,-22.54
13.593,-18.92
13.609,-14.8
13.625,-11.45
13.640,-9.43
13.656,-8.38
13.671,-7.38
13.687,-5.5
13.703,-2.46
13.718,1.21
13.734,4.64
13.750,6.94
13.765,7.84
13.781,7.76
13.796,7.53
13.812,7.94
13.828,9.4
13.843,11.66
13.859,14.03
13.875,15.81
13.890,16.5
13.906,16.1
13.921,15.09
13.937,14.11
13.953,13.62
13.968,13.67
13.984,13.84
14.000,13.33
14.015,11.6
14.031,8.51
14.046,4.63
14.062,0.85
14.078,-1.95
14.093,-3.41
14.109,-3.74
14.125,-3.53
14.140,-3.52
14.156,-4.04
14.171,-5.06
14.187,-6.21
14.203,-7.14
14.218,-7.8
14.234,-8.37
14.250,-9.22
14.265,-10.52
14.281,-12.23
14.296,-13.91
14.312,-15.13
14.328,-15.66
14.343,-15.57
14.359,-15.33
14.375,-15.29
14.390,-15.63
14.406,-16.01
14.421,-15.76
14.437,-14.04
14.453,-10.47
14.468,-5.39
14.484,0.31
14.500,5.22
14.515,8.2
14.531,8.82
14.546,7.55
14.562,5.54
14.578,4.2
14.593,4.45
14.609,6.42
14.625,9.54
14.640,12.78
14.656,15.29
14.671,16.72
14.687,17.38
14.703,17.8
14.718,18.4
14.734,19.18
14.750,19.71
14.765,19.44
14.781,18.07
14.796,15.85
14.812,13.43
14.828,11.65
14.843,10.91
14.859,11.05
14.875,11.37
14.890,11.05
14.906,9.71
14.921,7.53
14.937,5.31
14.953,3.83
14.968,3.46
14.984,3.81
15.000,4.05
15.015,3.29
15.031,1.14
15.046,-2.03
15.062,-5.35
15.078,-7.96
15.093,-9.57
15.109,-10.63
15.125,-12.02
15.140,-14.58
15.156,-18.45
15.171,-23.08
15.187,-27.27
15.203,-29.94
15.218,-30.7
15.234,-30.03
15.250,-29.07
15.265,-28.9
15.281,-29.98
15.296,-31.75
15.312,-33.14
15.328,-32.88
15.343,-30.45
15.359,-26.21
15.375,-21.21
15.390,-16.63
15.406,-13.12
15.421,-10.59
15.437,-8.46
15.453,-6.1
15.468,-3.23
15.484,-0.04
15.500,2.98
15.515,5.48
15.531,7.51
15.546,9.37
15.562,11.56
15.578,14.33
15.593,17.42
15.609,20.11
15.625,21.7
15.640,21.65
15.656,20.07
15.671,17.61
15.687,15.21
15.703,13.84
15.718,13.94
15.734,15.17
15.750,16.67
15.765,17.52
15.781,17.17
15.796,15.82
15.812,14.14
15.828,12.93
15.843,12.51
15.859,12.61
15.875,12.54
15.890,11.57
15.906,9.49
15.921,6.67
15.937,3.79
15.953,1.47
15.968,-0.11
15.984,-1.22
16.000,-2.34
16.015,-3.86
16.031,-5.76
16.046,-7.76
16.062,-9.46
16.078,-10.6
16.093,-11.16
16.109,-11.54
16.125,-12.27
16.140,-13.83
16.156,-16.28
16.171,-19.32
16.187,-22.27
16.203,-24.45
16.218,-25.34
16.234,-24.86
16.250,-23.29
16.265,-21.05
16.281,-18.4
16.296,-15.39
16.312,-11.98
16.328,-8.09
16.343,-3.93
16.359,0.07
16.375,3.49
16.390,5.95
16.406,7.48
16.421,8.33
16.437,8.92
16.453,9.5
16.468,10.18
16.484,10.75
16.500,10.92
16.515,10.5
16.531,9.5
16.546,8.25
16.562,7.32
16.578,7.2
16.593,8.01
16.609,9.48
16.625,10.97
16.640,11.81
16.656,11.63
16.671,10.54
16.687,8.96
16.703,7.45
16.718,6.3
16.734,5.51
16.750,4.77
16.765,3.74
16.781,2.24
16.796,0.39
16.812,-1.58
16.828,-3.41
16.843,-5.06
16.859,-6.71
16.875,-8.61
16.890,-10.95
16.906,-13.67
16.921,-16.46
16.937,-18.83
16.953,-20.44
16.968,-21.21
16.984,-21.51
17.000,-21.91
17.015,-23.08
17.031,-25.32
17.046,-28.41
17.062,-31.6
17.078,-33.85
17.093,-34.29
17.109,-32.53
17.125,-28.81
17.140,-23.69
17.156,-18.03
17.171,-12.29
17.187,-6.76
17.203,-1.39
17.218,3.89
17.234,8.88
17.250,13.41
17.265,17.06
17.281,19.71
17.296,21.5
17.312,22.86
17.328,24.25
17.343,25.87
17.359,27.55
17.375,28.71
17.390,28.83
17.406,27.65
17.421,25.48
17.437,23.07
17.453,21.32
17.468,20.82
17.484,21.53
17.500,22.94
17.515,24.23
17.531,24.68
17.546,24.06
17.562,22.59
17.578,20.82
17.593,19.33
17.609,18.42
17.625,17.97
17.640,17.62
17.656,16.84
17.671,15.4
17.687,13.4
17.703,11.15
17.718,9.09
17.734,7.28
17.750,5.5
17.765,3.24
17.781,0.07
17.796,-4.1
17.812,-8.8
17.828,-13.33
17.843,-17.15
17.859,-19.99
17.875,-22.19
17.890,-24.31
17.906,-26.94
17.921,-30.28
17.937,-34.13
17.953,-37.88
17.968,-40.9
17.984,-42.83
18.000,-43.66
18.015,-43.7
18.031,-43.41
18.046,-43.0
18.062,-42.35
18.078,-41.2
18.093,-39.23
18.109,-36.44
18.125,-33.14
18.140,-29.91
18.156,-27.35
18.171,-25.9
18.187,-25.56
18.203,-25.99
18.218,-26.72
18.234,-27.4
18.250,-27.92
18.265,-28.36
18.281,-28.93
18.296,-29.76
18.312,-30.74
18.328,-31.42
18.343,-31.23
18.359,-29.79
18.375,-27.13
18.390,-23.67
18.406,-20.13
18.421,-17.0
18.437,-14.29
18.453,-11.51
18.468,-7.88
18.484,-3.06
18.500,2.48
18.515,7.59
18.531,10.96
18.546,11.94
18.562,11.14
18.578,9.91
18.593,9.38
18.609,9.29
18.625,7.53
18.640,0.69
18.656,-14.23
18.671,-38.15
18.687,-69.37
18.703,-104.04
18.718,-137.82
18.734,-167.66
18.750,-192.44
18.765,-212.3
18.781,-227.62
18.796,-237.82
18.812,-241.26
18.828,-236.19
18.843,-221.5
18.859,-197.3
18.875,-164.81
18.890,-125.69
18.906,-81.51
18.921,-33.84
18.937,15.39
18.953,63.55
18.968,107.36
18.984,143.75
19.000,170.95
19.015,189.13
19.031,200.39
19.046,207.8
19.062,214.12
19.078,220.73
19.093,227.13
19.109,231.36
19.125,231.06
19.140,224.49
19.156,211.25
19.171,192.24
19.187,169.21
19.203,144.11
19.218,118.86
19.234,95.12
19.250,74.25
19.265,57.37
19.281,45.23
19.296,37.9
19.312,34.69
19.328,34.29
19.343,35.02
19.359,35.4
19.375,34.48
19.390,31.93
19.406,27.95
19.421,23.14
19.437,18.12
19.453,13.28
19.468,8.59
19.484,3.45
19.500,-3.02
19.515,-11.45
19.531,-21.69
19.546,-32.51
19.562,-41.98
19.578,-48.06
19.593,-49.45
19.609,-46.01
19.625,-38.84
19.640,-29.79
19.656,-20.79
19.671,-13.29
19.687,-7.87
19.703,-4.49
19.718,-2.6
19.734,-1.59
19.750,-0.96
19.765,-0.52
19.781,-0.25
19.796,-0.11
19.812,-0.05
19.828,0.2
19.843,0.88
19.859,2.03
19.875,3.3
19.890,4.13
19.906,3.83
19.921,1.99
19.937,-1.16
19.953,-4.72
19.968,-7.23
19.984,-7.19
20.000,-3.52
20.015,3.94
20.031,14.51
20.046,26.77
20.062,39.2
20.078,50.6
20.093,60.3
20.109,68.25
20.125,74.66
20.140,80.02
20.156,85.0
20.171,90.36
20.187,96.67
20.203,104.11
20.218,112.34
20.234,120.76
20.250,128.93
20.265,136.66
20.281,144.07
20.296,151.17
20.312,157.32
20.328,161.15
20.343,160.91
20.359,155.13
20.375,143.12
20.390,124.83
20.406,100.46
20.421,70.19
20.437,34.26
20.453,-6.48
20.468,-50.1
20.484,-93.69
20.500,-134.11
20.515,-169.09
20.531,-197.76
20.546,-220.56
20.562,-238.19
20.578,-250.74
20.593,-257.45
20.609,-257.21
20.625,-249.62
20.640,-235.65
20.656,-217.67
20.671,-198.56
20.687,-180.51
20.703,-164.1
20.718,-148.35
20.734,-131.47
20.750,-112.1
20.765,-90.3
20.781,-67.79
20.796,-47.27
20.812,-31.24
20.828,-20.84
20.843,-15.31
20.859,-12.44
20.875,-9.59
20.890,-5.11
20.906,0.96
20.921,6.88
20.937,9.95
20.953,7.68
20.968,-1.25
20.984,-16.39
21.000,-35.14
21.015,-52.91
21.031,-63.96
21.046,-62.83
21.062,-46.33
21.078,-14.99
21.093,26.15
21.109,68.48
21.125,102.03
21.140,118.59
21.156,114.52
21.171,91.99
21.187,58.23
21.203,22.87
21.218,-5.33
21.234,-21.28
21.250,-24.78
21.265,-19.65
21.281,-11.35
21.296,-4.49
21.312,-0.99
21.328,-0.17
21.343,0.02
21.359,1.2
21.375,3.61
21.390,6.3
21.406,8.19
21.421,9.19
21.437,10.53
21.453,14.13
21.468,21.21
21.484,31.3
21.500,42.09
21.515,50.4
21.531,53.73
21.546,51.58
21.562,45.57
21.578,38.85
21.593,34.58
21.609,34.55
21.625,38.51
21.640,44.51
21.656,49.98
21.671,52.99
21.687,52.98
21.703,50.62
21.718,47.24
21.734,44.19
21.750,42.35
21.765,41.95
21.781,42.82
21.796,44.63
21.812,47.04
21.828,49.79
21.843,52.76
21.859,55.96
21.875,59.55
21.890,63.58
21.906,67.78
21.921,71.47
21.937,73.74
21.953,73.92
21.968,71.98
21.984,68.69
22.000,65.22
22.015,62.66
22.031,61.34
22.046,60.71
22.062,59.65
22.078,57.05
22.093,52.33
22.109,45.76
22.125,38.19
22.140,30.58
22.156,23.63
22.171,17.51
22.187,12.03
22.203,7.02
22.218,2.47
22.234,-1.28
22.250,-3.75
22.265,-4.48
22.281,-3.45
22.296,-0.96
22.312,2.42
22.328,5.98
22.343,9.17
22.359,11.65
22.375,13.46
22.390,15.12
22.406,17.29
22.421,20.52
22.437,24.93
22.453,30.1
22.468,35.09
22.484,39.06
22.500,41.45
22.515,42.4
22.531,42.9
22.546,44.52
22.562,49.41
22.578,60.18
22.593,79.47
22.609,109.43
22.625,150.87
22.640,202.27
22.656,259.56
22.671,316.84
22.687,367.62
22.703,406.46
22.718,429.97
22.734,436.74
22.750,426.85
22.765,401.19
22.781,361.23
22.796,309.25
22.812,249.02
22.828,185.61
22.843,124.94
22.859,72.66
22.875,32.86
22.890,7.59
22.906,-3.25
22.921,-1.6
22.937,9.59
22.953,27.07
22.968,47.67
22.984,68.84
23.000,88.73
23.015,105.84
23.031,118.92
23.046,126.78
23.062,128.43
23.078,123.55
23.093,112.83
23.109,97.77
23.125,80.41
23.140,62.58
23.156,45.06
23.171,27.57
23.187,8.94
23.203,-12.12
23.218,-36.22
23.234,-62.97
23.250,-91.13
23.265,-118.94
23.281,-144.69
23.296,-167.31
23.312,-186.25
23.328,-201.59
23.343,-213.73
23.359,-223.19
23.375,-230.42
23.390,-235.9
23.406,-240.18
23.421,-244.04
23.437,-248.53
23.453,-254.51
23.468,-262.51
23.484,-272.67
23.500,-285.03
23.515,-300.18
23.531,-319.57
23.546,-344.7
23.562,-375.33
23.578,-408.16
23.593,-436.04
23.609,-449.73
23.625,-441.25
23.640,-407.08
23.656,-349.73
23.671,-276.23
23.687,-195.34
23.703,-114.69
23.718,-40.05
23.734,23.64
23.750,70.93
23.765,95.86
23.781,93.87
23.796,64.33
23.812,12.18
23.828,-53.75
23.843,-123.89
23.859,-191.82
23.875,-254.58
23.890,-310.87
23.906,-357.87
23.921,-389.54
23.937,-398.12
23.953,-377.58
23.968,-327.73
23.984,-255.17
24.000,-172.27
24.015,-92.17
24.031,-24.8
24.046,25.05
24.062,57.21
24.078,73.79
24.093,78.24
24.109,74.36
24.125,67.39
24.140,61.6
24.156,60.54
24.171,65.23
24.187,73.44
24.203,80.33
24.218,80.14
24.234,69.67
24.250,47.72
24.265,17.02
24.281,-19.97
24.296,-59.01
24.312,-93.49
24.328,-114.21
24.343,-111.9
24.359,-82.4
24.375,-28.68
24.390,34.78
24.406,88.44
24.421,110.64
24.437,87.86
24.453,19.43
24.468,-82.85
24.484,-200.78
24.500,-318.05
24.515,-422.9
24.531,-513.31
24.546,-563.48
24.562,-552.65
24.578,-473.47
24.593,-340.22
24.609,-181.05
24.625,-22.86
24.640,103.74
24.656,200.92
24.671,273.81
24.687,327.0
24.703,361.07
24.718,377.35
24.734,379.41
24.750,372.02
24.765,361.27
24.781,351.29
24.796,345.26
24.812,340.76
24.828,333.95
24.843,318.43
24.859,288.35
24.875,238.69
24.890,169.93
24.906,90.04
24.921,11.92
24.937,-49.54
24.953,-86.1
24.968,-97.03
24.984,-96.17
25.000,-94.72
25.015,-100.96
25.031,-117.45
25.046,-140.77
25.062,-164.17
25.078,-180.24
25.093,-181.15
25.109,-164.34
25.125,-126.14
25.140,-68.32
25.156,2.12
25.171,76.05
25.187,145.42
25.203,204.6
25.218,250.91
25.234,282.97
25.250,300.43
25.265,305.41
25.281,301.69
25.296,292.67
25.312,280.26
25.328,263.41
25.343,238.51
25.359,202.26
25.375,154.48
25.390,99.2
25.406,45.2
25.421,1.94
25.437,-24.45
25.453,-32.58
25.468,-25.55
25.484,-8.73
25.500,13.1
25.515,36.79
25.531,60.04
25.546,80.94
25.562,97.69
25.578,108.22
25.593,113.03
25.609,115.62
25.625,120.93
25.640,132.37
25.656,148.99
25.671,164.63
25.687,170.51
25.703,159.31
25.718,129.02
25.734,84.79
25.750,36.8
25.765,-3.79
25.781,-28.96
25.796,-35.92
25.812,-26.42
25.828,-4.37
25.843,26.22
25.859,62.3
25.875,101.95
25.890,143.07
25.906,183.13
25.921,219.3
25.937,249.09
25.953,271.07
25.968,285.3
25.984,292.5
26.000,294.23
26.015,291.44
26.031,284.16
26.046,271.81
26.062,253.89
26.078,230.15
26.093,201.25
26.109,168.75
26.125,134.67
26.140,100.96
26.156,68.87
26.171,38.89
26.187,10.78
26.203,-15.87
26.218,-41.55
26.234,-66.17
26.250,-89.15
26.265,-109.62
26.281,-126.68
26.296,-139.86
26.312,-149.18
26.328,-155.0
26.343,-157.74
26.359,-157.89
26.375,-155.64
26.390,-151.1
26.406,-144.18
26.421,-134.95
26.437,-123.65
26.453,-110.75
26.468,-96.96
26.484,-82.97
26.500,-69.49
26.515,-57.11
26.531,-46.22
26.546,-36.99
26.562,-29.45
26.578,-23.47
26.593,-18.82
26.609,-15.09
26.625,-11.84
26.640,-8.68
26.656,-5.23
26.671,-1.29
26.687,3.33
26.703,8.61
26.718,14.49
26.734,20.87
26.750,27.69
26.765,34.83
26.781,42.25
26.796,49.94
26.812,57.82
26.828,65.91
26.843,73.93
26.859,81.61
26.875,88.5
26.890,94.12
26.906,97.87
26.921,99.23
26.937,97.85
26.953,93.51
26.968,86.23
26.984,76.29
27.000,64.32
27.015,50.96
27.031,36.99
27.046,22.94
27.062,9.29
27.078,-3.68
27.093,-16.13
27.109,-28.36
27.125,-40.8
27.140,-53.94
27.156,-68.09
27.171,-83.45
27.187,-99.71
27.203,-116.21
27.218,-131.9
27.234,-145.57
27.250,-155.6
27.265,-160.69
27.281,-159.72
27.296,-152.11
27.312,-138.02
27.328,-118.32
27.343,-94.51
27.359,-68.63
27.375,-43.18
27.390,-20.34
27.406,-2.29
27.421,9.38
27.437,13.78
27.453,10.66
27.468,0.3
27.484,-16.86
27.500,-39.87
27.515,-67.94
27.531,-99.69
27.546,-133.79
27.562,-168.67
27.578,-202.69
27.593,-234.46
27.609,-263.32
27.625,-289.49
27.640,-313.89
27.656,-337.69
27.671,-361.54
27.687,-384.96
27.703,-406.12
27.718,-421.99
27.734,-429.46
27.750,-426.02
27.765,-410.7
27.781,-384.48
27.796,-350.33
27.812,-312.88
27.828,-277.47
27.843,-248.89
27.859,-229.63
27.875,-219.09
27.890,-213.25
27.906,-205.7
27.921,-190.05
27.937,-162.17
27.953,-121.95
27.968,-73.44
27.984,-23.77
28.000,19.41
28.015,50.02
28.031,65.07
28.046,65.0
28.062,52.79
28.078,32.79
28.093,9.69
28.109,-12.25
28.125,-29.67
28.140,-40.31
28.156,-43.31
28.171,-39.41
28.187,-30.52
28.203,-19.25
28.218,-7.85
28.234,2.29
28.250,10.28
28.265,15.25
28.281,15.69
28.296,9.55
28.312,-4.59
28.328,-25.94
28.343,-51.04
28.359,-74.62
28.375,-91.3
28.390,-98.43
28.406,-96.69
28.421,-89.69
28.437,-82.06
28.453,-76.92
28.468,-74.72
28.484,-73.68
28.500,-71.23
28.515,-65.37
28.531,-55.97
28.546,-44.41
28.562,-32.84
28.578,-23.01
28.593,-15.55
28.609,-9.9
28.625,-5.25
28.640,-0.98
28.656,2.66
28.671,4.14
28.687,1.57
28.703,-6.55
28.718,-20.4
28.734,-38.79
28.750,-60.09
28.765,-83.17
28.781,-107.82
28.796,-134.9
28.812,-165.35
28.828,-199.02
28.843,-233.63
28.859,-264.93
28.875,-287.81
28.890,-298.11
28.906,-294.06
28.921,-276.36
28.937,-247.56
28.953,-210.71
28.968,-168.41
28.984,-122.9
29.000,-76.56
29.015,-32.02
29.031,8.57
29.046,44.55
29.062,77.35
29.078,109.96
29.093,145.46
29.109,185.06
29.125,226.82
29.140,266.59
29.156,300.46
29.171,327.11
29.187,348.6
29.203,368.8
29.218,390.62
29.234,413.65
29.250,433.97
29.265,446.12
29.281,446.14
29.296,433.59
29.312,412.12
29.328,387.93
29.343,367.49
29.359,355.85
29.375,355.44
29.390,365.72
29.406,383.17
29.421,402.03
29.437,415.14
29.453,416.09
29.468,401.06
29.484,370.07
29.500,326.46
29.515,275.0
29.531,219.23
29.546,160.01
29.562,95.84
29.578,24.38
29.593,-54.89
29.609,-139.28
29.625,-222.37
29.640,-295.13
29.656,-348.36
29.671,-375.74
29.687,-375.63
29.703,-351.54
29.718,-311.08
29.734,-262.92
29.750,-214.41
29.765,-169.17
29.781,-127.16
29.796,-86.24
29.812,-45.95
29.828,-9.31
29.843,16.98
29.859,25.7
29.875,13.75
29.890,-14.85
29.906,-49.79
29.921,-79.43
29.937,-97.61
29.953,-108.22
29.968,-123.64
29.984,-157.6
30.000,-216.52
30.015,-293.65
30.031,-370.92
30.046,-426.99
30.062,-446.93
30.078,-428.64
30.093,-381.49
30.109,-320.25
30.125,-257.59
30.140,-200.02
30.156,-147.81
30.171,-98.98
30.187,-52.43
30.203,-9.07
30.218,29.31
30.234,62.41
30.250,91.92
30.265,120.69
30.281,150.34
30.296,180.57
30.312,209.0
30.328,233.07
30.343,251.46
30.359,264.74
30.375,274.77
30.390,282.95
30.406,289.33
30.421,292.28
30.437,289.73
30.453,280.04
30.468,262.93
30.484,239.35
30.500,210.87
30.515,178.98
30.531,144.86
30.546,109.57
30.562,74.42
30.578,41.32
30.593,12.44
30.609,-10.03
30.625,-24.57
30.640,-30.74
30.656,-29.36
30.671,-22.32
30.687,-11.99
30.703,-0.69
30.718,9.94
30.734,18.9
30.750,26.08
30.765,31.73
30.781,36.29
30.796,40.22
30.812,43.74
30.828,47.16
30.843,50.8
30.859,55.29
30.875,61.26
30.890,69.11
30.906,78.84
30.921,89.94
30.937,101.46
30.953,112.3
30.968,121.48
30.984,128.14
31.000,132.03
31.015,133.2
31.031,132.0
31.046,128.98
31.062,124.84
31.078,120.73
31.093,118.2
31.109,119.1
31.125,124.84
31.140,135.97
31.156,151.5
31.171,169.19
31.187,186.17
31.203,199.82
31.218,208.36
31.234,210.64
31.250,205.69
31.265,192.16
31.281,168.56
31.296,133.31
31.312,85.32
31.328,24.32
31.343,-49.05
31.359,-132.97
31.375,-224.23
31.390,-318.17
31.406,-408.85
31.421,-489.51
31.437,-553.67
31.453,-596.0
31.468,-612.55
31.484,-601.33
31.500,-562.01
31.515,-496.41
31.531,-408.47
31.546,-303.98
31.562,-189.95
31.578,-73.58
31.593,38.62
31.609,141.57
31.625,231.74
31.640,307.47
31.656,368.9
31.671,417.68
31.687,455.94
31.703,485.09
31.718,504.38
31.734,510.79
31.750,500.43
31.765,470.38
31.781,420.83
31.796,355.69
31.812,281.39
31.828,204.69
31.843,130.73
31.859,62.15
31.875,-0.32
31.890,-56.36
31.906,-105.3
31.921,-145.79
31.937,-176.64
31.953,-197.91
31.968,-211.18
31.984,-219.23
32.000,-224.54
32.015,-228.39
32.031,-230.43
32.046,-229.22
32.062,-223.36
32.078,-212.61
32.093,-198.26
32.109,-182.67
32.125,-168.2
32.140,-156.29
32.156,-147.14
32.171,-139.78
32.187,-132.82
32.203,-124.76
32.218,-114.31
32.234,-100.7
32.250,-83.72
32.265,-63.84
32.281,-42.37
32.296,-21.15
32.312,-2.14
32.328,12.94
32.343,23.04
32.359,28.04
32.375,28.5
32.390,25.52
32.406,20.29
32.421,13.72
32.437,6.52
32.453,-1.08
32.468,-8.86
32.484,-16.47
32.500,-23.28
32.515,-28.43
32.531,-31.21
32.546,-31.27
32.562,-28.8
32.578,-24.27
32.593,-18.45
32.609,-11.95
32.625,-5.2
32.640,1.36
32.656,7.17
32.671,11.55
32.687,13.78
32.703,13.53
32.718,11.01
32.734,6.95
32.750,2.5
32.765,-1.17
32.781,-3.46
32.796,-4.32
32.812,-4.33
32.828,-4.42
32.843,-5.45
32.859,-7.88
32.875,-11.74
32.890,-16.47
32.906,-21.2
32.921,-25.3
32.937,-28.32
32.953,-30.5
32.968,-32.46
32.984,-35.02
33.000,-38.74
33.015,-43.77
33.031,-49.63
33.046,-55.15
33.062,-59.06
33.078,-59.78
33.093,-56.26
33.109,-48.12
33.125,-35.83
33.140,-20.91
33.156,-5.73
33.171,7.17
33.187,15.96
33.203,19.94
33.218,19.96
33.234,18.05
33.250,16.28
33.265,16.23
33.281,18.29
33.296,21.72
33.312,25.46
33.328,28.66
33.343,31.04
33.359,32.85
33.375,34.44
33.390,35.84
33.406,36.94
33.421,37.45
33.437,37.36
33.453,37.01
33.468,37.19
33.484,38.5
33.500,41.35
33.515,45.53
33.531,50.16
33.546,54.28
33.562,57.1
33.578,58.31
33.593,58.27
33.609,57.79
33.625,57.62
33.640,58.28
33.656,59.6
33.671,60.72
33.687,60.88
33.703,59.48
33.718,56.31
33.734,51.55
33.750,45.6
33.765,38.58
33.781,30.6
33.796,21.64
33.812,11.69
33.828,1.02
33.843,-9.77
33.859,-20.05
33.875,-29.19
33.890,-36.66
33.906,-42.44
33.921,-46.46
33.937,-48.85
33.953,-49.9
33.968,-49.93
33.984,-49.39
34.000,-48.9
34.015,-48.91
34.031,-49.48
34.046,-50.22
34.062,-49.95
34.078,-47.24
34.093,-40.88
34.109,-30.3
34.125,-16.0
34.140,0.68
34.156,18.05
34.171,34.32
34.187,48.2
34.203,59.01
34.218,66.63
34.234,71.15
34.250,72.98
34.265,72.57
34.281,70.36
34.296,66.8
34.312,62.23
34.328,56.91
34.343,51.16
34.359,45.34
34.375,39.73
34.390,34.63
34.406,30.02
34.421,25.67
34.437,21.27
34.453,16.61
34.468,11.73
34.484,7.02
34.500,2.79
34.515,-0.72
34.531,-3.59
34.546,-6.26
34.562,-9.28
34.578,-12.92
34.593,-17.19
34.609,-21.55
34.625,-25.11
34.640,-27.33
34.656,-28.04
34.671,-27.77
34.687,-27.58
34.703,-28.37
34.718,-30.5
34.734,-33.63
34.750,-36.74
34.765,-38.48
34.781,-37.97
34.796,-34.91
34.812,-29.78
34.828,-23.52
34.843,-17.04
34.859,-10.94
34.875,-5.49
34.890,-0.64
34.906,3.9
34.921,8.34
34.937,12.95
34.953,17.68
34.968,22.41
34.984,26.9
35.000,30.9
35.015,34.18
35.031,36.54
35.046,37.91
35.062,38.17
35.078,37.5
35.093,36.24
35.109,34.79
35.125,33.75
35.140,33.71
35.156,34.87
35.171,37.12
35.187,39.91
35.203,42.5
35.218,44.3
35.234,45.04
35.250,44.77
35.265,43.83
35.281,42.53
35.296,40.95
35.312,38.95
35.328,36.27
35.343,32.72
35.359,28.46
35.375,23.99
35.390,19.87
35.406,16.5
35.421,13.91
35.437,11.76
35.453,9.54
35.468,6.99
35.484,4.1
35.500,1.18
35.515,-1.42
35.531,-3.66
35.546,-5.84
35.562,-8.68
35.578,-12.96
35.593,-19.17
35.609,-27.32
35.625,-36.83
35.640,-46.3
35.656,-54.12
35.671,-58.69
35.687,-58.86
35.703,-54.2
35.718,-45.21
35.734,-33.07
35.750,-19.44
35.765,-6.21
35.781,5.19
35.796,13.71
35.812,19.01
35.828,21.53
35.843,22.3
35.859,22.38
35.875,22.64
35.890,23.12
35.906,23.19
35.921,22.09
35.937,19.28
35.953,14.97
35.968,10.17
35.984,6.12
36.000,3.72
36.015,2.95
36.031,2.79
36.046,2.01
36.062,-0.41
36.078,-4.93
36.093,-11.16
36.109,-18.31
36.125,-25.66
36.140,-32.59
36.156,-38.64
36.171,-43.51
36.187,-46.82
36.203,-48.31
36.218,-47.89
36.234,-45.74
36.250,-41.89
36.265,-36.41
36.281,-29.02
36.296,-19.27
36.312,-6.94
36.328,7.64
36.343,23.46
36.359,39.01
36.375,53.03
36.390,64.74
36.406,73.84
36.421,80.49
36.437,84.95
36.453,87.06
36.468,86.43
36.484,82.56
36.500,75.25
36.515,64.99
36.531,52.75
36.546,39.89
36.562,27.69
36.578,17.14
36.593,8.68
36.609,2.32
36.625,-2.42
36.640,-6.19
36.656,-9.67
36.671,-13.31
36.687,-17.12
36.703,-20.66
36.718,-23.02
36.734,-23.3
36.750,-20.81
36.765,-15.28
36.781,-6.93
36.796,3.42
36.812,14.72
36.828,25.83
36.843,35.67
36.859,43.56
36.875,49.09
36.890,52.42
36.906,54.05
36.921,54.57
36.937,54.27
36.953,53.18
36.968,50.97
36.984,47.38
37.000,42.48
37.015,36.73
37.031,30.89
37.046,25.77
37.062,21.78
37.078,18.88
37.093,16.67
37.109,14.7
37.125,12.65
37.140,10.43
37.156,8.05
37.171,5.45
37.187,2.51
37.203,-1.07
37.218,-5.4
37.234,-10.29
37.250,-15.34
37.265,-19.97
37.281,-23.71
37.296,-26.45
37.312,-28.47
37.328,-30.13
37.343,-31.99
37.359,-34.08
37.375,-36.22
37.390,-38.16
37.406,-39.91
37.421,-41.94
37.437,-44.81
37.453,-48.95
37.468,-53.81
37.484,-58.22
37.500,-60.62
37.515,-59.9
37.531,-55.95
37.546,-49.55
37.562,-42.05
37.578,-34.55
37.593,-27.62
37.609,-21.1
37.625,-14.55
37.640,-7.86
37.656,-1.28
37.671,4.33
37.687,8.22
37.703,9.93
37.718,9.6
37.734,8.01
37.750,6.04
37.765,4.43
37.781,3.48
37.796,3.17
37.812,3.2
37.828,3.66
37.843,4.55
37.859,5.92
37.875,7.59
37.890,9.11
37.906,10.14
37.921,10.33
37.937,9.8
37.953,8.65
37.968,7.06
37.984,5.05
38.000,2.53
38.015,-0.5
38.031,-3.96
38.046,-7.53
38.062,-10.93
38.078,-13.92
38.093,-16.53
38.109,-18.87
38.125,-21.02
38.140,-23.03
38.156,-24.77
38.171,-26.21
38.187,-27.52
38.203,-29.0
38.218,-31.04
38.234,-33.84
38.250,-37.33
38.265,-41.02
38.281,-44.31
38.296,-46.36
38.312,-46.84
38.328,-45.7
38.343,-43.06
38.359,-39.2
38.375,-34.22
38.390,-28.2
38.406,-21.05
38.421,-12.9
38.437,-3.81
38.453,5.84
38.468,15.58
38.484,24.96
38.500,33.53
38.515,40.91
38.531,47.01
38.546,51.78
38.562,55.29
38.578,57.63
38.593,58.76
38.609,58.34
38.625,56.22
38.640,52.32
38.656,46.86
38.671,40.66
38.687,34.69
38.703,29.92
38.718,27.15
38.734,26.64
38.750,28.03
38.765,30.67
38.781,33.39
38.796,35.25
38.812,35.61
38.828,34.15
38.843,31.1
38.859,27.12
38.875,22.88
38.890,18.94
38.906,15.67
38.921,12.93
38.937,10.44
38.953,7.91
38.968,5.05
38.984,1.75
39.000,-1.92
39.015,-5.82
39.031,-9.82
39.046,-13.74
39.062,-17.47
39.078,-20.97
39.093,-24.21
39.109,-27.25
39.125,-30.28
39.140,-33.29
39.156,-36.22
39.171,-38.95
39.187,-41.19
39.203,-42.82
39.218,-43.45
39.234,-42.82
39.250,-40.72
39.265,-37.04
39.281,-31.91
39.296,-25.86
39.312,-19.43
39.328,-13.2
39.343,-7.77
39.359,-3.14
39.375,0.87
39.390,4.51
39.406,8.02
39.421,11.31
39.437,14.1
39.453,15.98
39.468,16.82
39.484,16.62
39.500,15.75
39.515,14.75
39.531,14.12
39.546,14.15
39.562,14.77
39.578,15.8
39.593,16.86
39.609,17.84
39.625,18.66
39.640,19.39
39.656,20.11
39.671,20.85
39.687,21.43
39.703,21.41
39.718,20.5
39.734,18.56
39.750,15.78
39.765,12.57
39.781,9.51
39.796,6.83
39.812,4.6
39.828,2.69
39.843,0.69
39.859,-1.54
39.875,-4.0
39.890,-6.54
39.906,-9.08
39.921,-11.82
39.937,-15.08
39.953,-19.18
39.968,-24.06
39.984,-29.42
40.000,-34.62
40.015,-39.1
40.031,-42.72
40.046,-45.65
40.062,-48.45
40.078,-51.5
40.093,-55.09
40.109,-58.96
40.125,-62.5
40.140,-64.89
40.156,-65.28
40.171,-63.08
40.187,-58.11
40.203,-50.68
40.218,-41.46
40.234,-31.33
40.250,-21.1
40.265,-11.3
40.281,-2.21
40.296,6.01
40.312,13.18
40.328,19.22
40.343,23.96
40.359,27.48
40.375,29.9
40.390,31.41
40.406,32.36
40.421,32.94
40.437,33.14
40.453,32.88
40.468,31.98
40.484,30.38
40.500,28.17
40.515,25.69
40.531,23.42
40.546,21.74
40.562,20.74
40.578,20.15
40.593,19.59
40.609,18.6
40.625,17.06
40.640,15.04
40.656,12.85
40.671,10.84
40.687,9.13
40.703,7.58
40.718,6.02
40.734,4.27
40.750,2.32
40.765,0.38
40.781,-1.39
40.796,-2.9
40.812,-4.26
40.828,-5.61
40.843,-7.16
40.859,-8.87
40.875,-10.48
40.890,-11.89
40.906,-12.9
40.921,-13.77
40.937,-14.81
40.953,-16.47
40.968,-18.97
40.984,-22.15
41.000,-25.59
41.015,-28.53
41.031,-30.33
41.046,-30.43
41.062,-28.59
41.078,-24.84
41.093,-19.53
41.109,-13.0
41.125,-5.69
41.140,1.99
41.156,9.68
41.171,16.85
41.187,23.13
41.203,28.18
41.218,31.74
41.234,33.71
41.250,34.23
41.265,33.54
41.281,31.99
41.296,29.98
41.312,27.62
41.328,25.16
41.343,22.8
41.359,20.74
41.375,19.2
41.390,18.34
41.406,18.19
41.421,18.7
41.437,19.68
41.453,20.82
41.468,21.84
41.484,22.64
41.500,23.11
41.515,23.32
41.531,23.23
41.546,22.81
41.562,21.94
41.578,20.48
41.593,18.25
41.609,15.27
41.625,11.65
41.640,7.52
41.656,3.1
41.671,-1.45
41.687,-6.16
41.703,-10.92
41.718,-15.55
41.734,-19.9
41.750,-23.53
41.765,-26.23
41.781,-27.93
41.796,-28.88
41.812,-29.56
41.828,-30.63
41.843,-32.44
41.859,-34.86
41.875,-37.47
41.890,-39.43
41.906,-40.12
41.921,-39.14
41.937,-36.39
41.953,-32.09
41.968,-26.69
41.984,-20.55
42.000,-13.84
42.015,-6.81
42.031,0.42
42.046,7.5
42.062,14.05
42.078,19.73
42.093,24.28
42.109,27.58
42.125,29.68
42.140,30.88
42.156,31.26
42.171,31.02
42.187,30.13
42.203,28.63
42.218,26.71
42.234,24.62
42.250,22.71
42.265,21.31
42.281,20.64
42.296,20.64
42.312,21.21
42.328,21.98
42.343,22.55
42.359,22.68
42.375,22.25
42.390,21.19
42.406,19.66
42.421,17.67
42.437,15.06
42.453,11.88
42.468,8.13
42.484,3.86
42.500,-0.57
42.515,-4.73
42.531,-8.32
42.546,-11.22
42.562,-13.64
42.578,-15.96
42.593,-18.48
42.609,-21.46
42.625,-24.83
42.640,-28.29
42.656,-31.44
42.671,-34.07
42.687,-36.12
42.703,-37.88
42.718,-39.65
42.734,-41.64
42.750,-44.0
42.765,-46.56
42.781,-49.06
42.796,-51.17
42.812,-52.53
42.828,-52.94
42.843,-52.21
42.859,-50.24
42.875,-46.87
42.890,-42.13
42.906,-36.15
42.921,-29.23
42.937,-21.99
42.953,-15.0
42.968,-8.68
42.984,-3.3
43.000,1.19
43.015,5.09
43.031,8.74
43.046,12.32
43.062,15.78
43.078,18.64
43.093,20.66
43.109,21.62
43.125,21.58
43.140,20.75
43.156,19.54
43.171,18.16
43.187,16.8
43.203,15.5
43.218,14.26
43.234,13.3
43.250,12.78
43.265,12.84
43.281,13.44
43.296,14.23
43.312,14.81
43.328,14.86
43.343,14.22
43.359,13.04
43.375,11.61
43.390,10.39
43.406,9.65
43.421,9.48
43.437,9.69
43.453,9.74
43.468,9.2
43.484,7.75
43.500,5.43
43.515,2.47
43.531,-0.66
43.546,-3.57
43.562,-6.06
43.578,-8.13
43.593,-9.94
43.609,-11.68
43.625,-13.3
43.640,-14.77
43.656,-16.17
43.671,-17.65
43.687,-19.43
43.703,-21.6
43.718,-24.15
43.734,-26.74
43.750,-28.94
43.765,-30.13
43.781,-29.82
43.796,-27.88
43.812,-24.49
43.828,-20.03
43.843,-14.88
43.859,-9.44
43.875,-3.88
43.890,1.74
43.906,7.5
43.921,13.33
43.937,19.05
43.953,24.26
43.968,28.49
43.984,31.5
44.000,33.3
44.015,34.12
44.031,34.24
44.046,34.01
44.062,33.49
44.078,32.64
44.093,31.44
44.109,29.81
44.125,27.82
44.140,25.69
44.156,23.68
44.171,21.93
44.187,20.49
44.203,19.21
44.218,17.85
44.234,16.32
44.250,14.45
44.265,12.23
44.281,9.8
44.296,7.32
44.312,4.93
44.328,2.69
44.343,0.6
44.359,-1.32
44.375,-3.03
44.390,-4.51
44.406,-5.79
44.421,-6.97
44.437,-8.13
44.453,-9.41
44.468,-11.05
44.484,-13.14
44.500,-15.54
44.515,-18.03
44.531,-20.47
44.546,-22.84
44.562,-25.3
44.578,-28.12
44.593,-31.35
44.609,-34.76
44.625,-37.78
44.640,-39.59
44.656,-39.52
44.671,-37.33
44.687,-33.19
44.703,-27.66
44.718,-21.46
44.734,-15.02
44.750,-8.62
44.765,-2.31
44.781,4.03
44.796,10.34
44.812,16.43
44.828,22.12
44.843,27.13
44.859,31.33
44.875,34.73
44.890,37.42
44.906,39.26
44.921,40.21
44.937,39.93
44.953,38.24
44.968,35.07
44.984,30.36
45.000,24.3
45.015,17.4
45.031,10.36
45.046,3.83
45.062,-1.41
45.078,-5.01
45.093,-7.0
45.109,-7.55
45.125,-7.06
45.140,-5.83
45.156,-4.03
45.171,-1.89
45.187,0.18
45.203,1.69
45.218,2.1
45.234,0.99
45.250,-1.52
45.265,-5.09
45.281,-9.16
45.296,-13.3
45.312,-17.48
45.328,-21.78
45.343,-26.41
45.359,-31.4
45.375,-36.49
45.390,-40.96
45.406,-44.33
45.421,-46.07
45.437,-46.15
45.453,-44.92
45.468,-42.94
45.484,-40.82
45.500,-39.13
45.515,-38.04
45.531,-37.45
45.546,-37.33
45.562,-37.54
45.578,-37.99
45.593,-38.56
45.609,-39.03
45.625,-38.79
45.640,-37.25
45.656,-33.74
45.671,-28.03
45.687,-20.51
45.703,-12.17
45.718,-4.02
45.734,3.0
45.750,8.55
45.765,12.85
45.781,16.28
45.796,19.27
45.812,21.87
45.828,23.88
45.843,25.06
45.859,25.34
45.875,24.91
45.890,24.21
45.906,23.69
45.921,23.66
45.937,24.13
45.953,24.84
45.968,25.46
45.984,25.72
46.000,25.53
46.015,24.97
46.031,24.21
46.046,23.27
46.062,22.06
46.078,20.39
46.093,18.25
46.109,15.74
46.125,13.27
46.140,11.31
46.156,10.1
46.171,9.61
46.187,9.57
46.203,9.39
46.218,8.7
46.234,7.37
46.250,5.57
46.265,3.64
46.281,1.98
46.296,0.65
46.312,-0.56
46.328,-1.9
46.343,-3.69
46.359,-6.0
46.375,-8.76
46.390,-11.79
46.406,-15.06
46.421,-18.61
46.437,-22.66
46.453,-27.29
46.468,-32.29
46.484,-37.29
46.500,-41.68
46.515,-44.9
46.531,-46.42
46.546,-45.86
46.562,-43.09
46.578,-38.19
46.593,-31.35
46.609,-22.85
46.625,-12.97
46.640,-2.03
46.656,9.49
46.671,20.69
46.687,30.66
46.703,38.45
46.718,43.56
46.734,46.1
46.750,46.72
46.765,46.19
46.781,45.29
46.796,44.38
46.812,43.28
46.828,41.78
46.843,39.82
46.859,37.82
46.875,36.34
46.890,36.01
46.906,36.82
46.921,38.61
46.937,40.77
46.953,42.62
46.968,43.72
46.984,43.92
47.000,43.58
47.015,43.08
47.031,42.88
47.046,43.02
47.062,43.31
47.078,43.17
47.093,41.85
47.109,38.67
47.125,33.28
47.140,25.92
47.156,17.35
47.171,8.82
47.187,1.84
47.203,-2.2
47.218,-2.41
47.234,1.25
47.250,7.75
47.265,15.09
47.281,21.09
47.296,23.97
47.312,23.12
47.328,19.16
47.343,13.49
47.359,7.68
47.375,2.91
47.390,-0.12
47.406,-1.37
47.421,-1.03
47.437,0.67
47.453,3.5
47.468,7.11
47.484,10.97
47.500,14.59
47.515,17.68
47.531,20.4
47.546,23.38
47.562,27.26
47.578,32.4
47.593,38.55
47.609,44.73
47.625,49.69
47.640,52.46
47.656,52.72
47.671,50.71
47.687,47.08
47.703,42.31
47.718,36.48
47.734,29.32
47.750,20.43
47.765,9.7
47.781,-2.39
47.796,-15.03
47.812,-27.38
47.828,-38.8
47.843,-49.05
47.859,-58.11
47.875,-66.08
47.890,-73.03
47.906,-78.74
47.921,-83.09
47.937,-86.06
47.953,-88.1
47.968,-89.93
47.984,-92.21
48.000,-95.16
48.015,-98.6
48.031,-102.16
48.046,-105.13
48.062,-107.15
48.078,-108.28
48.093,-109.07
48.109,-110.33
48.125,-112.67
48.140,-116.16
48.156,-120.69
48.171,-125.98
48.187,-131.1
48.203,-134.8
48.218,-135.78
48.234,-133.08
48.250,-126.63
48.265,-117.15
48.281,-105.94
48.296,-95.32
48.312,-87.37
48.328,-82.11
48.343,-77.41
48.359,-69.96
48.375,-56.92
48.390,-37.25
48.406,-11.55
48.421,18.29
48.437,48.31
48.453,74.45
48.468,94.81
48.484,110.05
48.500,122.48
48.515,134.68
48.531,148.8
48.546,166.93
48.562,191.14
48.578,219.0
48.593,245.47
48.609,265.97
48.625,278.21
48.640,281.86
48.656,277.08
48.671,263.57
48.687,240.66
48.703,208.16
48.718,161.24
48.734,94.59
48.750,6.93
48.765,-97.0
48.781,-208.99
48.796,-321.21
48.812,-428.42
48.828,-527.53
48.843,-592.05
48.859,-598.36
48.875,-540.78
48.890,-437.17
48.906,-314.58
48.921,-193.1
48.937,-82.36
48.953,14.07
48.968,95.41
48.984,164.05
49.000,220.31
49.015,260.73
49.031,282.67
49.046,287.59
49.062,280.15
49.078,266.14
49.093,251.22
49.109,230.1
49.125,206.0
49.140,179.58
49.156,148.45
49.171,110.95
49.187,70.01
49.203,32.64
49.218,6.03
49.234,-6.41
49.250,-6.43
49.265,1.37
49.281,8.5
49.296,7.77
49.312,-2.58
49.328,-18.67
49.343,-34.68
49.359,-46.8
49.375,-54.59
49.390,-59.53
49.406,-63.59
49.421,-68.34
49.437,-74.87
49.453,-82.6
49.468,-88.98
49.484,-90.84
49.500,-85.72
49.515,-72.61
49.531,-52.09
49.546,-25.39
49.562,4.43
49.578,33.07
49.593,56.33
49.609,70.97
49.625,75.19
49.640,68.73
49.656,52.9
49.671,30.07
49.687,3.38
49.703,-24.11
49.718,-49.34
49.734,-68.56
49.750,-78.47
49.765,-77.29
49.781,-65.58
49.796,-46.16
49.812,-23.18
49.828,-0.7
49.843,18.62
49.859,33.6
49.875,44.39
49.890,51.48
49.906,55.2
49.921,55.46
49.937,52.18
49.953,45.49
49.968,35.61
49.984,22.81
50.000,6.99
50.015,-12.1
50.031,-34.42
50.046,-59.11
50.062,-84.52
50.078,-108.4
50.093,-128.56
50.109,-143.71
50.125,-153.83
50.140,-160.37
50.156,-165.81
50.171,-172.96
50.187,-183.96
50.203,-199.67
50.218,-219.24
50.234,-240.16
50.250,-258.72
50.265,-270.49
50.281,-271.13
50.296,-257.2
50.312,-226.92
50.328,-180.69
50.343,-120.86
50.359,-50.92
50.375,25.55
50.390,105.61
50.406,186.81
50.421,266.2
50.437,339.34
50.453,400.3
50.468,442.99
50.484,463.36
50.500,461.38
50.515,441.4
50.531,410.59
50.546,376.56
50.562,344.71
50.578,317.11
50.593,293.08
50.609,270.76
50.625,248.72
50.640,226.71
50.656,205.37
50.671,185.35
50.687,166.77
50.703,149.09
50.718,131.64
50.734,114.31
50.750,97.73
50.765,83.14
50.781,71.66
50.796,63.66
50.812,58.47
50.828,54.49
50.843,49.69
50.859,42.39
50.875,31.79
50.890,18.32
50.906,3.45
50.921,-10.89
50.937,-22.94
50.953,-31.65
50.968,-36.91
50.984,-39.55
51.000,-40.94
51.015,-42.51
51.031,-45.31
51.046,-49.64
51.062,-55.23
51.078,-61.41
51.093,-67.56
51.109,-73.22
51.125,-78.31
51.140,-82.91
51.156,-87.14
51.171,-91.05
51.187,-94.54
51.203,-97.49
51.218,-99.73
51.234,-101.17
51.250,-101.72
51.265,-101.37
51.281,-100.15
51.296,-98.29
51.312,-96.06
51.328,-93.76
51.343,-91.61
51.359,-89.58
51.375,-87.41
51.390,-84.64
51.406,-80.79
51.421,-75.51
51.437,-68.8
51.453,-60.97
51.468,-52.58
51.484,-44.27
51.500,-36.35
51.515,-28.79
51.531,-21.17
51.546,-13.05
51.562,-4.3
51.578,4.67
51.593,12.83
51.609,19.06
51.625,22.45
51.640,22.92
51.656,21.38
51.671,19.4
51.687,18.78
51.703,20.87
51.718,26.34
51.734,35.04
51.750,46.39
51.765,59.51
51.781,73.72
51.796,88.77
51.812,105.36
51.828,125.4
51.843,151.77
51.859,187.19
51.875,232.71
51.890,286.26
51.906,341.8
51.921,390.19
51.937,421.37
51.953,427.21
51.968,403.69
51.984,351.46
52.000,274.84
52.015,180.25
52.031,74.66
52.046,-35.35
52.062,-143.75
52.078,-245.1
52.093,-334.74
52.109,-409.16
52.125,-466.39
52.140,-506.05
52.156,-528.94
52.171,-536.55
52.187,-530.78
52.203,-513.63
52.218,-487.06
52.234,-452.97
52.250,-412.84
52.265,-367.94
52.281,-319.53
52.296,-269.16
52.312,-218.98
52.328,-171.56
52.343,-129.33
52.359,-94.04
52.375,-66.51
52.390,-46.51
52.406,-32.99
52.421,-24.44
52.437,-19.2
52.453,-15.57
52.468,-11.9
52.484,-6.64
52.500,1.52
52.515,13.45
52.531,29.61
52.546,49.99
52.562,74.38
52.578,102.17
52.593,132.14
52.609,162.23
52.625,189.68
52.640,211.47
52.656,225.42
52.671,231.11
52.687,230.09
52.703,225.4
52.718,220.34
52.734,217.19
52.750,216.48
52.765,216.95
52.781,216.21
52.796,211.65
52.812,201.32
52.828,184.21
52.843,160.28
52.859,130.0
52.875,94.02
52.890,52.94
52.906,6.91
52.921,-44.35
52.937,-101.52
52.953,-165.09
52.968,-234.6
52.984,-307.56
53.000,-378.79
53.015,-440.41
53.031,-483.0
53.046,-497.84
53.062,-479.3
53.078,-426.8
53.093,-345.25
53.109,-243.96
53.125,-134.47
53.140,-28.28
53.156,65.17
53.171,139.45
53.187,191.47
53.203,221.3
53.218,231.65
53.234,227.1
53.250,213.14
53.265,194.84
53.281,175.87
53.296,158.02
53.312,141.44
53.328,125.39
53.343,109.46
53.359,94.07
53.375,80.5
53.390,70.35
53.406,64.61
53.421,63.1
53.437,64.49
53.453,66.93
53.468,68.73
53.484,68.98
53.500,67.54
53.515,64.61
53.531,60.23
53.546,53.85
53.562,44.6
53.578,31.88
53.593,16.06
53.609,-1.37
53.625,-17.88
53.640,-30.71
53.656,-37.7
53.671,-38.0
53.687,-32.32
53.703,-22.48
53.718,-10.71
53.734,1.2
53.750,12.36
53.765,22.74
53.781,32.63
53.796,41.87
53.812,49.33
53.828,52.92
53.843,49.99
53.859,38.12
53.875,15.99
53.890,-15.81
53.906,-54.48
53.921,-95.21
53.937,-132.07
53.953,-159.2
53.968,-172.25
53.984,-169.63
54.000,-152.86
54.015,-125.9
54.031,-93.28
54.046,-58.27
54.062,-21.85
54.078,16.9
54.093,59.37
54.109,105.44
54.125,152.54
54.140,196.03
54.156,230.87
54.171,253.62
54.187,263.59
54.203,262.62
54.218,253.76
54.234,239.55
54.250,220.98
54.265,197.51
54.281,168.05
54.296,132.12
54.312,90.46
54.328,44.81
54.343,-2.92
54.359,-51.69
54.375,-101.61
54.390,-153.02
54.406,-205.06
54.421,-254.45
54.437,-295.86
54.453,-323.88
54.468,-335.3
54.484,-330.68
54.500,-314.0
54.515,-290.82
54.531,-265.66
54.546,-240.72
54.562,-215.74
54.578,-189.35
54.593,-160.49
54.609,-129.18
54.625,-96.2
54.640,-62.55
54.656,-28.91
54.671,4.36
54.687,36.82
54.703,67.74
54.718,96.1
54.734,120.71
54.750,140.27
54.765,153.59
54.781,159.62
54.796,157.77
54.812,148.14
54.828,131.7
54.843,110.36
54.859,86.54
54.875,62.61
54.890,40.51
54.906,21.63
54.921,6.84
54.937,-3.56
54.953,-9.91
54.968,-13.34
54.984,-15.53
55.000,-18.11
55.015,-22.09
55.031,-27.13
55.046,-31.76
55.062,-33.9
55.078,-31.86
55.093,-25.05
55.109,-14.33
55.125,-1.51
55.140,11.5
55.156,23.29
55.171,33.29
55.187,41.3
55.203,47.0
55.218,49.97
55.234,50.04
55.250,47.74
55.265,44.64
55.281,42.86
55.296,44.3
55.312,49.56
55.328,57.81
55.343,67.12
55.359,75.51
55.375,81.85
55.390,86.06
55.406,88.92
55.421,91.42
55.437,94.29
55.453,97.78
55.468,101.91
55.484,106.71
55.500,112.41
55.515,119.5
55.531,128.48
55.546,139.63
55.562,152.77
55.578,167.09
55.593,181.29
55.609,194.1
55.625,204.58
55.640,212.42
55.656,217.9
55.671,221.62
55.687,224.38
55.703,226.85
55.718,229.24
55.734,230.99
55.750,230.47
55.765,225.15
55.781,212.24
55.796,189.7
55.812,156.99
55.828,115.42
55.843,67.47
55.859,15.85
55.875,-37.4
55.890,-90.91
55.906,-143.4
55.921,-193.16
55.937,-237.97
55.953,-275.59
55.968,-304.91
55.984,-325.89
56.000,-339.08
56.015,-345.01
56.031,-343.48
56.046,-334.23
56.062,-317.1
56.078,-292.72
56.093,-263.29
56.109,-232.77
56.125,-205.18
56.140,-182.82
56.156,-165.18
56.171,-149.29
56.187,-132.07
56.203,-111.86
56.218,-89.0
56.234,-65.63
56.250,-45.07
56.265,-29.49
56.281,-18.84
56.296,-11.88
56.312,-7.28
56.328,-6.23
56.343,-10.48
56.359,-20.23
56.375,-32.99
56.390,-46.66
56.406,-58.06
56.421,-63.68
56.437,-61.3
56.453,-49.67
56.468,-32.72
56.484,-15.01
56.500,0.98
56.515,14.86
56.531,22.23
56.546,20.51
56.562,10.77
56.578,-2.56
56.593,-11.45
56.609,-16.14
56.625,-19.06
56.640,-22.26
56.656,-27.62
56.671,-45.21
56.687,-82.43
56.703,-139.42
56.718,-208.33
56.734,-273.47
56.750,-330.79
56.765,-379.97
56.781,-421.09
56.796,-455.56
56.812,-496.65
56.828,-554.68
56.843,-630.63
56.859,-715.14
56.875,-788.47
56.890,-846.23
56.906,-889.07
56.921,-917.93
56.937,-859.06
56.953,-672.49
56.968,-374.61
56.984,-32.99
57.000,238.11
57.015,439.83
57.031,591.53
57.046,708.99
57.062,809.66
57.078,895.55
57.093,952.92
57.109,970.67
57.125,948.09
57.140,895.42
57.156,833.71
57.171,768.41
57.187,699.79
57.203,627.44
57.218,550.18
57.234,459.39
57.250,350.31
57.265,226.46
57.281,99.34
57.296,-12.55
57.312,-104.34
57.328,-177.03
57.343,-233.53
57.359,-278.52
57.375,-321.63
57.390,-369.92
57.406,-425.61
57.421,-486.02
57.437,-542.94
57.453,-593.67
57.468,-634.84
57.484,-660.51
57.500,-664.64
57.515,-645.98
57.531,-605.88
57.546,-548.89
57.562,-481.91
57.578,-410.91
57.593,-342.97
57.609,-282.2
57.625,-228.99
57.640,-182.41
57.656,-142.36
57.671,-106.21
57.687,-71.47
57.703,-36.94
57.718,-2.12
57.734,31.8
57.750,63.57
57.765,92.31
57.781,117.02
57.796,136.92
57.812,156.58
57.828,180.59
57.843,210.88
57.859,246.14
57.875,284.04
57.890,323.06
57.906,362.6
57.921,402.54
57.937,442.64
57.953,488.63
57.968,545.37
57.984,612.78
58.000,685.6
58.015,756.77
58.031,820.59
58.046,873.42
58.062,912.98
58.078,898.3
58.093,805.64
58.109,641.97
58.125,441.89
58.140,243.34
58.156,69.12
58.171,-73.54
58.187,-186.07
58.203,-273.15
58.218,-339.34
58.234,-385.5
58.250,-410.75
58.265,-417.59
58.281,-413.02
58.296,-405.05
58.312,-398.94
58.328,-397.13
58.343,-399.82
58.359,-405.27
58.375,-407.42
58.390,-401.08
58.406,-385.32
58.421,-363.58
58.437,-340.51
58.453,-319.17
58.468,-300.69
58.484,-284.89
58.500,-271.22
58.515,-256.35
58.531,-237.46
58.546,-214.52
58.562,-190.17
58.578,-167.61
58.593,-148.78
58.609,-134.02
58.625,-122.54
58.640,-113.15
58.656,-103.41
58.671,-91.22
58.687,-76.04
58.703,-58.93
58.718,-41.36
58.734,-24.24
58.750,-7.73
58.765,8.44
58.781,24.68
58.796,41.49
58.812,59.09
58.828,76.97
58.843,94.0
58.859,109.11
58.875,121.88
58.890,132.57
58.906,141.93
58.921,150.88
58.937,160.07
58.953,169.76
58.968,180.03
58.984,190.84
59.000,202.19
59.015,214.45
59.031,228.09
59.046,243.67
59.062,261.74
59.078,282.85
59.093,307.48
59.109,335.64
59.125,366.11
59.140,395.91
59.156,420.47
59.171,434.87
59.187,435.7
59.203,422.74
59.218,399.33
59.234,371.13
59.250,344.01
59.265,321.76
59.281,304.93
59.296,291.5
59.312,278.14
59.328,262.08
59.343,241.96
59.359,217.91
59.375,191.0
59.390,162.83
59.406,134.96
59.421,108.59
59.437,84.36
59.453,61.89
59.468,39.97
59.484,16.91
59.500,-9.08
59.515,-39.58
59.531,-75.21
59.546,-115.59
59.562,-159.25
59.578,-203.85
59.593,-246.59
59.609,-284.82
59.625,-316.43
59.640,-340.13
59.656,-355.22
59.671,-360.41
59.687,-353.11
59.703,-329.49
59.718,-285.92
59.734,-221.6
59.750,-140.39
59.765,-51.36
59.781,33.15
59.796,101.05
59.812,144.38
59.828,161.54
59.843,157.02
59.859,139.01
59.875,115.87
59.890,93.6
59.906,74.92
59.921,59.93
59.937,47.71
59.953,37.64
59.968,29.64
59.984,23.83
