timestamp,value
00.000,20.21
00.015,17.84
00.031,15.46
00.046,12.09
00.062,7.64
00.078,3.2
00.093,0.52
00.109,0.84
00.125,4.22
00.140,9.65
00.156,15.06
00.171,18.31
00.187,17.87
00.203,13.45
00.218,5.98
00.234,-2.75
00.250,-10.83
00.265,-16.93
00.281,-20.65
00.296,-22.65
00.312,-24.27
00.328,-26.98
00.343,-31.7
00.359,-38.48
00.375,-46.38
00.390,-53.82
00.406,-59.46
00.421,-62.64
00.437,-63.9
00.453,-64.5
00.468,-65.94
00.484,-69.27
00.500,-74.6
00.515,-81.18
00.531,-87.53
00.546,-92.3
00.562,-94.64
00.578,-94.5
00.593,-92.41
00.609,-89.07
00.625,-84.95
00.640,-80.06
00.656,-73.84
00.671,-65.49
00.687,-54.56
00.703,-41.05
00.718,-25.43
00.734,-8.2
00.750,10.22
00.765,29.08
00.781,47.2
00.796,63.07
00.812,75.31
00.828,83.31
00.843,88.28
00.859,93.63
00.875,104.35
00.890,125.19
00.906,158.23
00.921,202.22
00.937,253.72
00.953,308.31
00.968,361.91
00.984,411.25
01.000,454.1
01.015,488.79
01.031,513.51
01.046,525.96
01.062,525.24
01.078,513.87
01.093,496.82
01.109,479.01
01.125,461.75
01.140,441.17
01.156,409.39
01.171,357.04
01.187,276.33
01.203,164.88
01.218,27.93
01.234,-123.76
01.250,-278.05
01.265,-424.87
01.281,-557.48
01.296,-667.31
01.312,-738.81
01.328,-759.08
01.343,-727.84
01.359,-657.47
01.375,-566.18
01.390,-470.14
01.406,-380.13
01.421,-301.88
01.437,-236.86
01.453,-184.53
01.468,-144.23
01.484,-115.43
01.500,-95.39
01.515,-80.02
01.531,-65.38
01.546,-48.8
01.562,-29.7
01.578,-8.49
01.593,12.93
01.609,33.04
01.625,48.72
01.640,59.22
01.656,65.41
01.671,68.73
01.687,70.03
01.703,68.8
01.718,63.81
01.734,53.28
01.750,35.16
01.765,6.82
01.781,-29.95
01.796,-71.99
01.812,-114.91
01.828,-152.77
01.843,-179.02
01.859,-187.66
01.875,-175.78
01.890,-145.8
01.906,-105.2
01.921,-63.71
01.937,-30.18
01.953,-9.34
01.968,-0.4
01.984,0.55
02.000,-1.89
02.015,-4.68
02.031,-7.44
02.046,-10.87
02.062,-15.29
02.078,-20.17
02.093,-24.2
02.109,-26.36
02.125,-27.0
02.140,-27.58
02.156,-29.85
02.171,-35.48
02.187,-44.79
02.203,-56.56
02.218,-68.76
02.234,-79.15
02.250,-86.01
02.265,-88.7
02.281,-88.07
02.296,-84.38
02.312,-78.11
02.328,-69.46
02.343,-58.29
02.359,-44.55
02.375,-28.55
02.390,-11.16
02.406,6.32
02.421,22.41
02.437,36.14
02.453,46.9
02.468,54.84
02.484,60.55
02.500,64.63
02.515,67.56
02.531,69.52
02.546,70.65
02.562,71.04
02.578,71.27
02.593,72.1
02.609,74.42
02.625,78.78
02.640,84.92
02.656,91.91
02.671,98.5
02.687,103.68
02.703,107.08
02.718,109.54
02.734,112.82
02.750,118.98
02.765,129.55
02.781,144.66
02.796,162.67
02.812,180.58
02.828,195.09
02.843,203.26
02.859,204.03
02.875,198.85
02.890,191.34
02.906,185.82
02.921,184.94
02.937,187.51
02.953,185.71
02.968,170.23
02.984,132.45
03.000,68.13
03.015,-20.17
03.031,-123.32
03.046,-227.43
03.062,-317.3
03.078,-379.55
03.093,-405.12
03.109,-391.15
03.125,-342.57
03.140,-271.78
03.156,-196.6
03.171,-135.47
03.187,-101.8
03.203,-99.73
03.218,-123.31
03.234,-159.64
03.250,-194.68
03.265,-219.43
03.281,-231.97
03.296,-236.99
03.312,-241.86
03.328,-252.59
03.343,-271.75
03.359,-298.69
03.375,-331.17
03.390,-366.81
03.406,-403.5
03.421,-437.68
03.437,-463.25
03.453,-471.71
03.468,-454.56
03.484,-407.38
03.500,-333.04
03.515,-242.04
03.531,-149.52
03.546,-70.12
03.562,-12.97
03.578,20.44
03.593,35.23
03.609,39.58
03.625,40.88
03.640,43.58
03.656,48.94
03.671,56.46
03.687,65.41
03.703,75.87
03.718,88.49
03.734,104.26
03.750,123.81
03.765,146.88
03.781,172.78
03.796,200.56
03.812,229.38
03.828,258.19
03.843,285.19
03.859,307.42
03.875,321.22
03.890,323.4
03.906,312.57
03.921,290.34
03.937,260.91
03.953,229.9
03.968,202.38
03.984,181.46
04.000,167.73
04.015,159.82
04.031,155.47
04.046,152.39
04.062,148.78
04.078,143.22
04.093,134.5
04.109,121.78
04.125,104.75
04.140,83.99
04.156,61.04
04.171,38.09
04.187,17.65
04.203,1.99
04.218,-7.4
04.234,-9.9
04.250,-5.76
04.265,3.83
04.281,17.11
04.296,31.91
04.312,46.02
04.328,57.44
04.343,64.88
04.359,67.71
04.375,66.12
04.390,61.01
04.406,53.6
04.421,45.43
04.437,37.85
04.453,32.02
04.468,28.55
04.484,27.35
04.500,27.8
04.515,28.81
04.531,29.23
04.546,28.27
04.562,25.78
04.578,22.13
04.593,18.02
04.609,14.23
04.625,11.32
04.640,9.66
04.656,9.31
04.671,10.05
04.687,11.43
04.703,12.9
04.718,13.75
04.734,13.41
04.750,11.6
04.765,8.4
04.781,4.26
04.796,-0.28
04.812,-4.77
04.828,-9.08
04.843,-13.18
04.859,-17.05
04.875,-20.66
04.890,-23.9
04.906,-26.7
04.921,-29.08
04.937,-31.24
04.953,-33.47
04.968,-35.96
04.984,-38.7
05.000,-41.39
05.015,-43.49
05.031,-44.42
05.046,-43.78
05.062,-41.29
05.078,-36.89
05.093,-30.77
05.109,-23.28
05.125,-15.03
05.140,-6.87
05.156,0.23
05.171,5.3
05.187,7.63
05.203,7.04
05.218,3.9
05.234,-0.91
05.250,-6.25
05.265,-11.05
05.281,-14.44
05.296,-15.95
05.312,-15.45
05.328,-13.11
05.343,-9.37
05.359,-4.73
05.375,0.26
05.390,5.23
05.406,9.89
05.421,14.06
05.437,17.6
05.453,20.33
05.468,21.95
05.484,22.28
05.500,21.2
05.515,18.84
05.531,15.62
05.546,12.12
05.562,8.99
05.578,6.83
05.593,5.99
05.609,6.37
05.625,7.56
05.640,8.9
05.656,9.62
05.671,9.08
05.687,6.9
05.703,3.18
05.718,-1.6
05.734,-6.58
05.750,-10.8
05.765,-13.44
05.781,-14.04
05.796,-12.78
05.812,-10.5
05.828,-8.44
05.843,-7.77
05.859,-9.31
05.875,-13.11
05.890,-18.58
05.906,-24.63
05.921,-30.15
05.937,-34.32
05.953,-36.82
05.968,-37.95
05.984,-38.32
06.000,-38.63
06.015,-39.45
06.031,-41.1
06.046,-43.7
06.062,-47.19
06.078,-51.49
06.093,-56.3
06.109,-61.31
06.125,-66.02
06.140,-69.72
06.156,-71.64
06.171,-71.0
06.187,-67.31
06.203,-60.21
06.218,-49.76
06.234,-36.25
06.250,-20.32
06.265,-3.02
06.281,14.23
06.296,29.81
06.312,42.12
06.328,49.96
06.343,52.94
06.359,51.51
06.375,46.78
06.390,40.22
06.406,33.22
06.421,26.66
06.437,20.95
06.453,16.16
06.468,12.32
06.484,9.62
06.500,8.43
06.515,9.13
06.531,11.86
06.546,16.35
06.562,21.83
06.578,27.28
06.593,31.7
06.609,34.33
06.625,34.74
06.640,32.84
06.656,28.66
06.671,22.55
06.687,14.86
06.703,6.27
06.718,-2.37
06.734,-10.01
06.750,-15.56
06.765,-18.13
06.781,-17.3
06.796,-13.36
06.812,-7.22
06.828,-0.43
06.843,5.37
06.859,8.73
06.875,8.69
06.890,4.98
06.906,-2.0
06.921,-11.36
06.937,-21.79
06.953,-31.67
06.968,-39.39
06.984,-43.41
07.000,-42.77
07.015,-37.29
07.031,-27.6
07.046,-15.06
07.062,-1.37
07.078,11.68
07.093,22.63
07.109,30.44
07.125,34.71
07.140,35.64
07.156,33.84
07.171,30.28
07.187,25.85
07.203,21.41
07.218,17.59
07.234,14.73
07.250,13.09
07.265,12.69
07.281,13.41
07.296,14.91
07.312,16.73
07.328,18.29
07.343,19.2
07.359,19.42
07.375,19.28
07.390,19.43
07.406,20.45
07.421,22.64
07.437,25.68
07.453,28.84
07.468,31.01
07.484,31.33
07.500,29.65
07.515,26.54
07.531,23.27
07.546,21.14
07.562,21.19
07.578,23.65
07.593,28.12
07.609,33.64
07.625,39.12
07.640,43.55
07.656,46.12
07.671,46.38
07.687,43.95
07.703,38.97
07.718,31.82
07.734,23.35
07.750,14.54
07.765,6.37
07.781,-0.46
07.796,-5.7
07.812,-9.44
07.828,-12.08
07.843,-14.01
07.859,-15.54
07.875,-16.84
07.890,-17.8
07.906,-18.2
07.921,-17.87
07.937,-16.83
07.953,-15.43
07.968,-14.46
07.984,-14.94
08.000,-17.71
08.015,-23.15
08.031,-30.84
08.046,-39.68
08.062,-48.08
08.078,-54.44
08.093,-57.35
08.109,-55.86
08.125,-49.6
08.140,-38.9
08.156,-24.85
08.171,-9.24
08.187,5.58
08.203,17.37
08.218,24.52
08.234,26.58
08.250,24.54
08.265,20.27
08.281,15.91
08.296,13.17
08.312,12.86
08.328,14.86
08.343,18.39
08.359,22.47
08.375,26.08
08.390,28.53
08.406,29.48
08.421,28.88
08.437,27.0
08.453,24.36
08.468,21.69
08.484,19.72
08.500,18.95
08.515,19.52
08.531,21.01
08.546,22.61
08.562,23.23
08.578,21.85
08.593,17.69
08.609,10.46
08.625,0.34
08.640,-12.12
08.656,-26.03
08.671,-40.36
08.687,-54.0
08.703,-65.79
08.718,-74.38
08.734,-78.55
08.750,-77.12
08.765,-69.41
08.781,-55.51
08.796,-36.53
08.812,-14.7
08.828,7.05
08.843,25.48
08.859,38.03
08.875,43.1
08.890,40.44
08.906,30.99
08.921,16.48
08.937,-0.9
08.953,-18.88
08.968,-35.17
08.984,-47.71
09.000,-54.82
09.015,-55.55
09.031,-50.08
09.046,-39.74
09.062,-26.85
09.078,-14.01
09.093,-3.52
09.109,3.24
09.125,6.02
09.140,5.4
09.156,2.45
09.171,-1.72
09.187,-6.13
09.203,-9.94
09.218,-12.34
09.234,-12.57
09.250,-10.03
09.265,-4.51
09.281,3.57
09.296,13.22
09.312,23.01
09.328,31.52
09.343,37.62
09.359,40.86
09.375,41.34
09.390,39.59
09.406,36.4
09.421,32.5
09.437,28.45
09.453,24.56
09.468,21.04
09.484,17.91
09.500,15.26
09.515,13.21
09.531,12.0
09.546,11.98
09.562,13.48
09.578,16.66
09.593,21.48
09.609,27.5
09.625,33.96
09.640,39.83
09.656,44.03
09.671,45.68
09.687,44.35
09.703,40.19
09.718,33.89
09.734,26.5
09.750,19.2
09.765,13.11
09.781,9.02
09.796,7.37
09.812,8.11
09.828,10.67
09.843,14.04
09.859,16.92
09.875,18.02
09.890,16.3
09.906,11.38
09.921,3.68
09.937,-5.72
09.953,-15.24
09.968,-23.14
09.984,-27.88
10.000,-28.42
10.015,-24.49
10.031,-16.65
10.046,-6.22
10.062,5.02
10.078,15.14
10.093,22.58
10.109,26.38
10.125,26.37
10.140,23.05
10.156,17.51
10.171,11.02
10.187,4.82
10.203,-0.25
10.218,-3.77
10.234,-5.87
10.250,-7.07
10.265,-7.89
10.281,-8.74
10.296,-9.69
10.312,-10.49
10.328,-10.8
10.343,-10.3
10.359,-8.78
10.375,-6.22
10.390,-2.97
10.406,0.35
10.421,2.8
10.437,3.47
10.453,1.88
10.468,-1.64
10.484,-5.85
10.500,-8.8
10.515,-8.58
10.531,-4.04
10.546,4.69
10.562,16.28
10.578,28.64
10.593,39.76
10.609,48.23
10.625,53.48
10.640,55.55
10.656,54.66
10.671,50.79
10.687,43.62
10.703,32.68
10.718,17.88
10.734,-0.18
10.750,-20.02
10.765,-39.45
10.781,-55.91
10.796,-67.0
10.812,-71.05
10.828,-67.5
10.843,-57.13
10.859,-41.85
10.875,-24.29
10.890,-7.3
10.906,6.77
10.921,16.62
10.937,22.25
10.953,24.62
10.968,24.84
10.984,23.2
11.000,18.76
11.015,9.26
11.031,-8.2
11.046,-35.7
11.062,-72.79
11.078,-115.27
11.093,-155.19
11.109,-182.78
11.125,-189.71
11.140,-172.22
11.156,-133.06
11.171,-80.48
11.187,-25.08
11.203,24.06
11.218,62.43
11.234,90.57
11.250,112.63
11.265,133.76
11.281,158.45
11.296,189.81
11.312,229.56
11.328,277.71
11.343,331.6
11.359,385.35
11.375,430.73
11.390,459.59
11.406,467.06
11.421,453.4
11.437,423.69
11.453,385.1
11.468,343.58
11.484,301.63
11.500,258.57
11.515,212.69
11.531,163.39
11.546,112.05
11.562,61.32
11.578,13.4
11.593,-30.94
11.609,-72.05
11.625,-110.03
11.640,-143.54
11.656,-170.06
11.671,-187.16
11.687,-194.34
11.703,-193.78
11.718,-189.51
11.734,-185.63
11.750,-184.37
11.765,-185.45
11.781,-186.81
11.796,-186.16
11.812,-182.31
11.828,-175.71
11.843,-167.72
11.859,-159.67
11.875,-151.96
11.890,-144.15
11.906,-135.71
11.921,-126.93
11.937,-119.11
11.953,-113.85
11.968,-111.84
11.984,-112.03
12.000,-111.61
12.015,-107.14
12.031,-96.19
12.046,-78.57
12.062,-56.49
12.078,-33.56
12.093,-13.11
12.109,2.77
12.125,13.4
12.140,18.78
12.156,18.56
12.171,12.04
12.187,-1.1
12.203,-19.7
12.218,-40.2
12.234,-57.38
12.250,-66.05
12.265,-63.01
12.281,-48.57
12.296,-26.44
12.312,-2.32
12.328,18.08
12.343,30.74
12.359,34.36
12.375,30.07
12.390,20.62
12.406,9.23
12.421,-1.26
12.437,-9.0
12.453,-13.2
12.468,-13.91
12.484,-11.6
12.500,-6.59
12.515,1.09
12.531,11.47
12.546,24.26
12.562,38.33
12.578,51.53
12.593,61.12
12.609,64.4
12.625,59.63
12.640,46.67
12.656,27.05
12.671,3.65
12.687,-20.13
12.703,-41.4
12.718,-58.38
12.734,-70.45
12.750,-77.83
12.765,-80.97
12.781,-80.16
12.796,-75.78
12.812,-68.5
12.828,-59.57
12.843,-50.68
12.859,-43.52
12.875,-39.08
12.890,-37.42
12.906,-37.73
12.921,-38.93
12.937,-40.38
12.953,-42.14
12.968,-44.59
12.984,-48.0
13.000,-52.0
13.015,-55.44
13.031,-56.92
13.046,-55.42
13.062,-50.74
13.078,-43.6
13.093,-35.03
13.109,-25.73
13.125,-15.63
13.140,-4.24
13.156,8.66
13.171,22.32
13.187,34.96
13.203,44.29
13.218,48.37
13.234,46.43
13.250,39.05
13.265,27.77
13.281,14.4
13.296,0.44
13.312,-13.0
13.328,-25.21
13.343,-35.64
13.359,-43.88
13.375,-49.79
13.390,-53.64
13.406,-56.05
13.421,-57.83
13.437,-59.61
13.453,-61.57
13.468,-63.61
13.484,-65.31
13.500,-66.49
13.515,-67.18
13.531,-67.64
13.546,-68.03
13.562,-68.2
13.578,-67.61
13.593,-65.73
13.609,-62.38
13.625,-57.93
13.640,-53.07
13.656,-48.4
13.671,-43.91
13.687,-38.89
13.703,-32.31
13.718,-23.35
13.734,-11.69
13.750,2.48
13.765,18.86
13.781,37.27
13.796,57.44
13.812,78.77
13.828,100.21
13.843,120.23
13.859,137.44
13.875,151.0
13.890,160.93
13.906,167.81
13.921,172.25
13.937,174.41
13.953,173.89
13.968,169.73
13.984,160.76
14.000,145.89
14.015,124.57
14.031,97.3
14.046,65.89
14.062,33.03
14.078,1.24
14.093,-28.52
14.109,-57.7
14.125,-90.05
14.140,-130.17
14.156,-181.84
14.171,-246.11
14.187,-320.12
14.203,-397.02
14.218,-466.89
14.234,-518.44
14.250,-541.36
14.265,-528.98
14.281,-480.56
14.296,-402.52
14.312,-307.74
14.328,-212.48
14.343,-132.04
14.359,-76.24
14.375,-46.67
14.390,-36.67
14.406,-34.1
14.421,-25.88
14.437,-2.7
14.453,38.39
14.468,94.25
14.484,158.34
14.500,223.77
14.515,285.13
14.531,338.54
14.546,380.99
14.562,409.91
14.578,424.0
14.593,424.42
14.609,415.3
14.625,402.41
14.640,390.93
14.656,383.1
14.671,377.49
14.687,370.25
14.703,357.18
14.718,335.65
14.734,304.85
14.750,265.32
14.765,217.89
14.781,163.78
14.796,105.23
14.812,46.02
14.828,-8.86
14.843,-54.62
14.859,-88.07
14.875,-108.7
14.890,-118.43
14.906,-120.73
14.921,-119.05
14.937,-115.64
14.953,-111.38
14.968,-106.26
14.984,-100.18
15.000,-93.62
15.015,-87.59
15.031,-83.18
15.046,-80.88
15.062,-80.31
15.078,-80.33
15.093,-79.74
15.109,-77.65
15.125,-73.86
15.140,-68.79
15.156,-63.34
15.171,-58.28
15.187,-54.07
15.203,-50.62
15.218,-47.35
15.234,-43.64
15.250,-39.02
15.265,-33.57
15.281,-27.93
15.296,-23.05
15.312,-19.69
15.328,-18.07
15.343,-17.71
15.359,-17.67
15.375,-17.13
15.390,-15.64
15.406,-13.41
15.421,-11.09
15.437,-9.36
15.453,-8.56
15.468,-8.57
15.484,-8.85
15.500,-8.8
15.515,-8.14
15.531,-7.05
15.546,-6.01
15.562,-5.5
15.578,-5.66
15.593,-6.25
15.609,-6.71
15.625,-6.58
15.640,-5.62
15.656,-4.05
15.671,-2.25
15.687,-0.59
15.703,0.86
15.718,2.32
15.734,3.91
15.750,5.73
15.765,7.57
15.781,9.17
15.796,10.41
15.812,11.43
15.828,12.54
15.843,14.1
15.859,16.41
15.875,19.52
15.890,23.25
15.906,27.07
15.921,29.84
15.937,29.78
15.953,24.83
15.968,13.35
15.984,-4.82
16.000,-27.83
16.015,-52.33
16.031,-74.62
16.046,-92.32
16.062,-104.99
16.078,-113.91
16.093,-120.73
16.109,-126.22
16.125,-129.63
16.140,-129.31
16.156,-123.92
16.171,-113.28
16.187,-98.66
16.203,-82.06
16.218,-65.21
16.234,-49.24
16.250,-34.63
16.265,-21.66
16.281,-10.84
16.296,-2.82
16.312,1.9
16.328,3.11
16.343,0.78
16.359,-4.83
16.375,-13.61
16.390,-25.32
16.406,-39.31
16.421,-54.16
16.437,-67.75
16.453,-77.78
16.468,-82.54
16.484,-81.98
16.500,-78.03
16.515,-74.38
16.531,-75.28
16.546,-84.26
16.562,-102.55
16.578,-128.27
16.593,-156.49
16.609,-180.35
16.625,-192.82
16.640,-188.62
16.656,-165.67
16.671,-125.26
16.687,-71.56
16.703,-10.36
16.718,52.03
16.734,109.68
16.750,157.74
16.765,193.19
16.781,215.3
16.796,225.55
16.812,227.12
16.828,223.7
16.843,218.03
16.859,211.28
16.875,202.91
16.890,191.62
16.906,176.54
16.921,157.93
16.937,137.24
16.953,116.51
16.968,97.65
16.984,81.96
17.000,70.08
17.015,61.94
17.031,57.09
17.046,54.9
17.062,54.43
17.078,54.64
17.093,54.49
17.109,52.98
17.125,49.39
17.140,43.54
17.156,35.74
17.171,26.75
17.187,17.51
17.203,8.67
17.218,0.53
17.234,-6.95
17.250,-13.97
17.265,-20.84
17.281,-27.74
17.296,-34.88
17.312,-42.41
17.328,-50.37
17.343,-58.67
17.359,-66.88
17.375,-74.28
17.390,-80.2
17.406,-84.1
17.421,-85.89
17.437,-85.8
17.453,-84.15
17.468,-81.04
17.484,-76.36
17.500,-69.95
17.515,-62.03
17.531,-53.47
17.546,-45.46
17.562,-39.02
17.578,-34.49
17.593,-31.15
17.609,-27.69
17.625,-22.83
17.640,-16.06
17.656,-7.93
17.671,0.27
17.687,7.24
17.703,12.35
17.718,15.79
17.734,18.36
17.750,20.85
17.765,23.58
17.781,26.41
17.796,28.74
17.812,30.05
17.828,30.25
17.843,29.66
17.859,28.91
17.875,28.68
17.890,29.31
17.906,30.66
17.921,32.33
17.937,33.65
17.953,34.12
17.968,33.54
17.984,32.11
18.000,30.28
18.015,28.62
18.031,27.43
18.046,26.67
18.062,26.08
18.078,25.21
18.093,23.86
18.109,22.09
18.125,20.21
18.140,18.64
18.156,17.7
18.171,17.38
18.187,17.21
18.203,16.58
18.218,14.74
18.234,11.24
18.250,6.12
18.265,-0.26
18.281,-7.24
18.296,-14.27
18.312,-21.19
18.328,-28.28
18.343,-36.04
18.359,-45.01
18.375,-55.33
18.390,-66.79
18.406,-78.95
18.421,-91.17
18.437,-102.69
18.453,-112.58
18.468,-119.73
18.484,-123.07
18.500,-122.02
18.515,-116.68
18.531,-108.06
18.546,-97.69
18.562,-86.9
18.578,-76.35
18.593,-65.67
18.609,-53.84
18.625,-39.84
18.640,-23.33
18.656,-4.94
18.671,13.9
18.687,31.39
18.703,46.06
18.718,57.09
18.734,64.53
18.750,69.13
18.765,72.06
18.781,74.52
18.796,77.44
18.812,81.19
18.828,85.51
18.843,89.7
18.859,92.94
18.875,94.79
18.890,95.26
18.906,94.68
18.921,93.43
18.937,91.55
18.953,88.81
18.968,84.78
18.984,79.23
19.000,72.29
19.015,64.44
19.031,56.07
19.046,47.36
19.062,38.05
19.078,27.84
19.093,16.71
19.109,5.21
19.125,-5.55
19.140,-14.31
19.156,-20.2
19.171,-23.03
19.187,-23.4
19.203,-22.34
19.218,-20.9
19.234,-19.72
19.250,-19.07
19.265,-18.92
19.281,-19.29
19.296,-20.4
19.312,-22.48
19.328,-25.59
19.343,-29.31
19.359,-32.88
19.375,-35.31
19.390,-35.91
19.406,-34.64
19.421,-32.11
19.437,-29.26
19.453,-26.84
19.468,-25.03
19.484,-23.32
19.500,-20.85
19.515,-16.88
19.531,-11.2
19.546,-4.15
19.562,3.4
19.578,10.67
19.593,17.26
19.609,23.25
19.625,29.03
19.640,35.02
19.656,41.26
19.671,47.5
19.687,53.38
19.703,58.37
19.718,61.95
19.734,63.42
19.750,61.91
19.765,56.47
19.781,46.47
19.796,32.25
19.812,15.28
19.828,-1.86
19.843,-16.23
19.859,-25.31
19.875,-27.91
19.890,-24.29
19.906,-15.88
19.921,-4.7
19.937,7.31
19.953,18.78
19.968,28.89
19.984,37.29
20.000,44.01
20.015,49.17
20.031,52.84
20.046,55.25
20.062,56.51
20.078,56.77
20.093,56.08
20.109,54.52
20.125,52.05
20.140,48.68
20.156,44.44
20.171,39.32
20.187,33.6
20.203,27.62
20.218,21.9
20.234,16.89
20.250,12.93
20.265,10.1
20.281,8.14
20.296,6.76
20.312,5.6
20.328,4.67
20.343,4.08
20.359,4.19
20.375,5.26
20.390,7.3
20.406,10.02
20.421,12.73
20.437,14.71
20.453,15.36
20.468,14.55
20.484,12.59
20.500,10.06
20.515,7.57
20.531,5.38
20.546,3.47
20.562,1.51
20.578,-0.67
20.593,-3.08
20.609,-5.49
20.625,-7.53
20.640,-9.11
20.656,-10.37
20.671,-11.79
20.687,-13.74
20.703,-16.34
20.718,-19.25
20.734,-21.86
20.750,-23.61
20.765,-24.25
20.781,-24.01
20.796,-23.42
20.812,-23.13
20.828,-23.41
20.843,-24.2
20.859,-25.13
20.875,-25.72
20.890,-25.79
20.906,-25.48
20.921,-25.25
20.937,-25.55
20.953,-26.61
20.968,-28.24
20.984,-30.01
21.000,-31.38
21.015,-32.0
21.031,-31.98
21.046,-31.68
21.062,-31.64
21.078,-32.24
21.093,-33.38
21.109,-34.62
21.125,-35.3
21.140,-34.9
21.156,-33.29
21.171,-30.73
21.187,-27.75
21.203,-24.76
21.218,-21.9
21.234,-18.96
21.250,-15.68
21.265,-11.9
21.281,-7.85
21.296,-4.05
21.312,-1.06
21.328,0.75
21.343,1.49
21.359,1.63
21.375,1.79
21.390,2.44
21.406,3.62
21.421,5.07
21.437,6.34
21.453,7.08
21.468,7.25
21.484,7.14
21.500,7.09
21.515,7.34
21.531,7.83
21.546,8.15
21.562,7.86
21.578,6.66
21.593,4.62
21.609,2.2
21.625,0.12
21.640,-1.08
21.656,-1.36
21.671,-1.11
21.687,-1.06
21.703,-1.89
21.718,-3.8
21.734,-6.53
21.750,-9.5
21.765,-12.11
21.781,-14.06
21.796,-15.54
21.812,-16.93
21.828,-18.63
21.843,-20.76
21.859,-23.06
21.875,-25.25
21.890,-27.11
21.906,-28.78
21.921,-30.59
21.937,-32.82
21.953,-35.34
21.968,-37.59
21.984,-38.75
22.000,-38.09
22.015,-35.38
22.031,-31.0
22.046,-25.78
22.062,-20.68
22.078,-16.28
22.093,-12.63
22.109,-9.38
22.125,-6.04
22.140,-2.33
22.156,1.62
22.171,5.32
22.187,8.11
22.203,9.56
22.218,9.67
22.234,8.96
22.250,8.17
22.265,7.92
22.281,8.39
22.296,9.29
22.312,10.0
22.328,9.94
22.343,8.99
22.359,7.64
22.375,6.7
22.390,6.86
22.406,8.35
22.421,10.73
22.437,13.08
22.453,14.46
22.468,14.3
22.484,12.67
22.500,10.24
22.515,7.73
22.531,5.58
22.546,3.9
22.562,2.34
22.578,0.46
22.593,-1.98
22.609,-4.88
22.625,-7.86
22.640,-10.44
22.656,-12.44
22.671,-13.99
22.687,-15.51
22.703,-17.46
22.718,-20.02
22.734,-23.01
22.750,-26.06
22.765,-28.84
22.781,-31.28
22.796,-33.68
22.812,-36.34
22.828,-39.4
22.843,-42.51
22.859,-44.87
22.875,-45.55
22.890,-44.01
22.906,-40.31
22.921,-35.2
22.937,-29.67
22.953,-24.5
22.968,-19.83
22.984,-15.23
23.000,-9.98
23.015,-3.49
23.031,4.16
23.046,12.3
23.062,19.84
23.078,25.74
23.093,29.58
23.109,31.63
23.125,32.63
23.140,33.42
23.156,34.54
23.171,36.01
23.187,37.52
23.203,38.69
23.218,39.36
23.234,39.75
23.250,40.26
23.265,41.2
23.281,42.59
23.296,44.12
23.312,45.26
23.328,45.64
23.343,45.15
23.359,44.09
23.375,42.95
23.390,42.04
23.406,41.35
23.421,40.41
23.437,38.62
23.453,35.45
23.468,31.0
23.484,25.9
23.500,21.15
23.515,17.69
23.531,15.9
23.546,15.46
23.562,15.53
23.578,15.13
23.593,13.62
23.609,10.92
23.625,7.39
23.640,3.5
23.656,-0.55
23.671,-4.93
23.687,-10.1
23.703,-16.4
23.718,-23.72
23.734,-31.31
23.750,-38.01
23.765,-42.71
23.781,-44.85
23.796,-44.51
23.812,-42.41
23.828,-39.47
23.843,-36.38
23.859,-33.37
23.875,-30.29
23.890,-26.9
23.906,-23.23
23.921,-19.62
23.937,-16.52
23.953,-14.28
23.968,-12.8
23.984,-11.53
24.000,-9.78
24.015,-7.03
24.031,-3.25
24.046,1.03
24.062,5.08
24.078,8.28
24.093,10.5
24.109,12.16
24.125,14.09
24.140,16.99
24.156,21.15
24.171,26.32
24.187,31.78
24.203,36.78
24.218,40.89
24.234,44.01
24.250,46.32
24.265,47.95
24.281,48.7
24.296,48.12
24.312,45.9
24.328,42.01
24.343,37.02
24.359,31.74
24.375,26.99
24.390,23.15
24.406,20.11
24.421,17.32
24.437,14.12
24.453,10.15
24.468,5.38
24.484,0.26
24.500,-4.69
24.515,-8.99
24.531,-12.61
24.546,-15.78
24.562,-18.87
24.578,-22.23
24.593,-25.82
24.609,-29.37
24.625,-32.35
24.640,-34.35
24.656,-35.29
24.671,-35.44
24.687,-35.28
24.703,-35.16
24.718,-35.18
24.734,-34.96
24.750,-34.01
24.765,-31.93
24.781,-28.58
24.796,-24.32
24.812,-19.63
24.828,-15.08
24.843,-10.82
24.859,-6.73
24.875,-2.43
24.890,2.32
24.906,7.49
24.921,12.66
24.937,17.2
24.953,20.57
24.968,22.48
24.984,22.96
25.000,22.32
25.015,21.02
25.031,19.25
25.046,17.0
25.062,14.17
25.078,10.66
25.093,6.74
25.109,2.96
25.125,-0.01
25.140,-1.69
25.156,-2.01
25.171,-1.5
25.187,-0.97
25.203,-1.14
25.218,-2.39
25.234,-4.41
25.250,-6.57
25.265,-8.15
25.281,-8.77
25.296,-8.54
25.312,-7.91
25.328,-7.39
25.343,-7.27
25.359,-7.57
25.375,-8.03
25.390,-8.36
25.406,-8.48
25.421,-8.48
25.437,-8.59
25.453,-8.98
25.468,-9.57
25.484,-10.19
25.500,-10.69
25.515,-11.02
25.531,-11.39
25.546,-12.15
25.562,-13.57
25.578,-15.8
25.593,-18.55
25.609,-21.29
25.625,-23.36
25.640,-24.24
25.656,-23.68
25.671,-21.79
25.687,-19.0
25.703,-15.74
25.718,-12.4
25.734,-9.07
25.750,-5.69
25.765,-2.1
25.781,1.53
25.796,4.91
25.812,7.61
25.828,9.34
25.843,10.21
25.859,10.61
25.875,11.13
25.890,12.11
25.906,13.57
25.921,15.15
25.937,16.39
25.953,17.03
25.968,17.07
25.984,16.88
26.000,16.98
26.015,17.71
26.031,18.93
26.046,20.23
26.062,21.01
26.078,20.83
26.093,19.69
26.109,17.87
26.125,15.9
26.140,14.17
26.156,12.84
26.171,11.72
26.187,10.56
26.203,9.25
26.218,7.91
26.234,6.92
26.250,6.58
26.265,7.0
26.281,7.89
26.296,8.65
26.312,8.71
26.328,7.73
26.343,5.74
26.359,3.09
26.375,0.37
26.390,-2.02
26.406,-3.98
26.421,-5.78
26.437,-7.87
26.453,-10.53
26.468,-13.73
26.484,-17.19
26.500,-20.47
26.515,-23.24
26.531,-25.39
26.546,-26.95
26.562,-28.04
26.578,-28.63
26.593,-28.39
26.609,-26.91
26.625,-23.86
26.640,-19.21
26.656,-13.43
26.671,-7.31
26.687,-1.72
26.703,2.72
26.718,5.91
26.734,8.26
26.750,10.44
26.765,12.94
26.781,15.88
26.796,18.75
26.812,20.82
26.828,21.55
26.843,20.92
26.859,19.48
26.875,18.08
26.890,17.43
26.906,17.69
26.921,18.55
26.937,19.31
26.953,19.46
26.968,18.87
26.984,17.87
27.000,17.08
27.015,16.9
27.031,17.28
27.046,17.82
27.062,17.96
27.078,17.23
27.093,15.65
27.109,13.6
27.125,11.59
27.140,10.1
27.156,9.17
27.171,8.47
27.187,7.43
27.203,5.69
27.218,3.23
27.234,0.49
27.250,-1.79
27.265,-3.12
27.281,-3.25
27.296,-2.48
27.312,-1.37
27.328,-0.58
27.343,-0.47
27.359,-1.12
27.375,-2.37
27.390,-3.96
27.406,-6.0
27.421,-8.61
27.437,-11.98
27.453,-15.99
27.468,-20.22
27.484,-23.98
27.500,-26.64
27.515,-27.97
27.531,-28.29
27.546,-28.41
27.562,-29.11
27.578,-30.75
27.593,-32.99
27.609,-34.94
27.625,-35.59
27.640,-34.34
27.656,-31.26
27.671,-27.01
27.687,-22.56
27.703,-18.67
27.718,-15.53
27.734,-12.78
27.750,-9.84
27.765,-6.22
27.781,-1.95
27.796,2.55
27.812,6.61
27.828,9.65
27.843,11.5
27.859,12.41
27.875,12.89
27.890,13.43
27.906,14.24
27.921,15.2
27.937,16.04
27.953,16.57
27.968,16.86
27.984,17.19
28.000,17.87
28.015,19.0
28.031,20.33
28.046,21.49
28.062,22.02
28.078,21.74
28.093,20.86
28.109,19.8
28.125,19.0
28.140,18.62
28.156,18.49
28.171,18.14
28.187,17.13
28.203,15.14
28.218,12.24
28.234,8.9
28.250,5.66
28.265,3.06
28.281,1.27
28.296,0.12
28.312,-0.71
28.328,-1.49
28.343,-2.28
28.359,-2.82
28.375,-2.76
28.390,-2.0
28.406,-0.79
28.421,0.2
28.437,0.3
28.453,-0.9
28.468,-3.22
28.484,-6.05
28.500,-8.59
28.515,-10.34
28.531,-11.44
28.546,-12.43
28.562,-14.08
28.578,-16.73
28.593,-20.27
28.609,-24.06
28.625,-27.34
28.640,-29.66
28.656,-31.01
28.671,-31.83
28.687,-32.53
28.703,-33.26
28.718,-33.64
28.734,-33.01
28.750,-30.82
28.765,-26.95
28.781,-21.89
28.796,-16.53
28.812,-11.79
28.828,-8.12
28.843,-5.48
28.859,-3.29
28.875,-0.99
28.890,1.7
28.906,4.56
28.921,7.1
28.937,8.78
28.953,9.47
28.968,9.41
28.984,9.12
29.000,9.19
29.015,9.85
29.031,10.88
29.046,11.89
29.062,12.36
29.078,12.12
29.093,11.37
29.109,10.61
29.125,10.32
29.140,10.67
29.156,11.41
29.171,11.94
29.187,11.73
29.203,10.55
29.218,8.69
29.234,6.76
29.250,5.34
29.265,4.61
29.281,4.3
29.296,3.92
29.312,2.95
29.328,1.39
29.343,-0.43
29.359,-1.9
29.375,-2.55
29.390,-2.33
29.406,-1.62
29.421,-0.99
29.437,-0.97
29.453,-1.73
29.468,-3.1
29.484,-4.67
29.500,-5.97
29.515,-6.79
29.531,-7.31
29.546,-7.9
29.562,-8.99
29.578,-10.76
29.593,-13.17
29.609,-15.8
29.625,-18.23
29.640,-20.2
29.656,-21.68
29.671,-22.95
29.687,-24.23
29.703,-25.5
29.718,-26.41
29.734,-26.37
29.750,-24.85
29.765,-21.77
29.781,-17.61
29.796,-13.17
29.812,-9.26
29.828,-6.35
29.843,-4.33
29.859,-2.72
29.875,-0.87
29.890,1.54
29.906,4.32
29.921,6.91
29.937,8.69
29.953,9.36
29.968,9.09
29.984,8.49
30.000,8.24
30.015,8.83
30.031,10.24
30.046,12.06
30.062,13.72
30.078,14.88
30.093,15.45
30.109,15.71
30.125,15.97
30.140,16.32
30.156,16.63
30.171,16.59
30.187,15.94
30.203,14.77
30.218,13.46
30.234,12.49
30.250,12.3
30.265,12.94
30.281,14.06
30.296,15.15
30.312,15.69
30.328,15.44
30.343,14.55
30.359,13.32
30.375,12.14
30.390,11.17
30.406,10.24
30.421,9.08
30.437,7.34
30.453,4.92
30.468,2.01
30.484,-0.9
30.500,-3.31
30.515,-4.85
30.531,-5.49
30.546,-5.59
30.562,-5.72
30.578,-6.27
30.593,-7.43
30.609,-9.1
30.625,-10.99
30.640,-12.88
30.656,-14.81
30.671,-17.01
30.687,-19.74
30.703,-23.02
30.718,-26.49
30.734,-29.52
30.750,-31.51
30.765,-32.07
30.781,-31.15
30.796,-28.96
30.812,-25.88
30.828,-22.26
30.843,-18.23
30.859,-13.84
30.875,-9.36
30.890,-5.29
30.906,-2.11
30.921,0.07
30.937,1.83
30.953,4.24
30.968,8.28
30.984,14.45
31.000,22.51
31.015,30.95
31.031,37.66
31.046,41.09
31.062,41.09
31.078,39.42
31.093,38.99
31.109,42.51
31.125,51.72
31.140,66.86
31.156,85.73
31.171,104.72
31.187,120.01
31.203,129.33
31.218,132.98
31.234,133.36
31.250,133.41
31.265,134.99
31.281,137.55
31.296,136.0
31.312,122.06
31.328,86.75
31.343,24.03
31.359,-66.5
31.375,-179.37
31.390,-305.09
31.406,-432.83
31.421,-543.35
31.437,-616.79
31.453,-638.17
31.468,-604.16
31.484,-524.79
31.500,-418.01
31.515,-301.82
31.531,-189.88
31.546,-90.87
31.562,-9.74
31.578,50.23
31.593,87.82
31.609,104.64
31.625,105.51
31.640,97.19
31.656,86.63
31.671,78.63
31.687,75.02
31.703,75.01
31.718,75.51
31.734,72.66
31.750,63.67
31.765,47.94
31.781,27.94
31.796,9.22
31.812,-1.14
31.828,2.96
31.843,24.09
31.859,58.89
31.875,98.92
31.890,134.46
31.906,158.14
31.921,167.62
31.937,165.94
31.953,158.99
31.968,152.22
31.984,148.25
32.000,147.83
32.015,146.72
32.031,142.34
32.046,134.17
32.062,123.26
32.078,111.14
32.093,98.38
32.109,84.46
32.125,68.54
32.140,49.72
32.156,28.15
32.171,6.15
32.187,-13.41
32.203,-28.02
32.218,-36.52
32.234,-39.52
32.250,-39.51
32.265,-39.69
32.281,-43.62
32.296,-54.28
32.312,-72.15
32.328,-96.43
32.343,-125.25
32.359,-156.44
32.375,-187.98
32.390,-218.11
32.406,-245.06
32.421,-267.54
32.437,-283.96
32.453,-291.36
32.468,-287.36
32.484,-270.53
32.500,-241.21
32.515,-201.52
32.531,-154.11
32.546,-101.73
32.562,-46.63
32.578,7.13
32.593,59.34
32.609,111.44
32.625,165.42
32.640,222.31
32.656,281.34
32.671,340.99
32.687,397.9
32.703,447.31
32.718,485.14
32.734,511.19
32.750,526.4
32.765,531.89
32.781,528.11
32.796,514.96
32.812,493.78
32.828,464.65
32.843,425.82
32.859,374.02
32.875,308.28
32.890,228.73
32.906,138.51
32.921,44.17
32.937,-53.42
32.953,-141.26
32.968,-203.63
32.984,-231.16
33.000,-231.9
33.015,-214.39
33.031,-182.14
33.046,-133.34
33.062,-64.66
33.078,23.82
33.093,126.52
33.109,228.74
33.125,309.01
33.140,345.53
33.156,325.55
33.171,248.82
33.187,127.35
33.203,-19.75
33.218,-172.52
33.234,-313.61
33.250,-426.05
33.265,-492.12
33.281,-502.7
33.296,-461.94
33.312,-384.23
33.328,-286.0
33.343,-180.59
33.359,-78.32
33.375,14.27
33.390,92.18
33.406,151.53
33.421,192.87
33.437,218.86
33.453,234.34
33.468,244.68
33.484,253.67
33.500,262.03
33.515,269.27
33.531,273.88
33.546,273.46
33.562,266.07
33.578,252.1
33.593,234.27
33.609,216.19
33.625,200.69
33.640,188.68
33.656,179.8
33.671,172.71
33.687,165.72
33.703,157.16
33.718,146.03
33.734,132.72
33.750,118.33
33.765,103.9
33.781,89.81
33.796,76.02
33.812,62.26
33.828,48.27
33.843,33.89
33.859,19.12
33.875,4.69
33.890,-8.4
33.906,-19.14
33.921,-27.01
33.937,-31.87
33.953,-33.96
33.968,-33.76
33.984,-31.9
34.000,-29.07
34.015,-25.78
34.031,-22.34
34.046,-18.95
34.062,-15.82
34.078,-13.13
34.093,-11.01
34.109,-9.59
34.125,-8.87
34.140,-8.85
34.156,-9.47
34.171,-10.67
34.187,-12.34
34.203,-14.35
34.218,-16.64
34.234,-19.04
34.250,-21.4
34.265,-23.59
34.281,-25.49
34.296,-26.95
34.312,-27.97
34.328,-28.52
34.343,-28.63
34.359,-28.42
34.375,-27.97
34.390,-27.32
34.406,-26.56
34.421,-25.76
34.437,-24.94
34.453,-24.21
34.468,-23.63
34.484,-23.23
34.500,-23.03
34.515,-23.06
34.531,-23.21
34.546,-23.41
34.562,-23.57
34.578,-23.62
34.593,-23.57
34.609,-23.49
34.625,-23.47
34.640,-23.66
34.656,-24.18
34.671,-25.01
34.687,-26.16
34.703,-27.52
34.718,-29.05
34.734,-30.85
34.750,-33.01
34.765,-35.71
34.781,-39.12
34.796,-43.21
34.812,-47.83
34.828,-52.69
34.843,-57.42
34.859,-61.73
34.875,-65.75
34.890,-69.79
34.906,-74.43
34.921,-80.19
34.937,-87.34
34.953,-95.78
34.968,-105.05
34.984,-114.46
35.000,-123.54
35.015,-132.23
35.031,-140.89
35.046,-150.24
35.062,-161.06
35.078,-173.7
35.093,-187.9
35.109,-203.09
35.125,-218.27
35.140,-232.76
35.156,-246.32
35.171,-259.17
35.187,-272.05
35.203,-286.05
35.218,-302.28
35.234,-321.59
35.250,-344.02
35.265,-368.2
35.281,-391.11
35.296,-408.56
35.312,-416.15
35.328,-410.91
35.343,-392.38
35.359,-362.83
35.375,-326.49
35.390,-288.05
35.406,-251.22
35.421,-218.04
35.437,-188.91
35.453,-163.49
35.468,-141.35
35.484,-122.29
35.500,-106.2
35.515,-92.88
35.531,-81.74
35.546,-71.96
35.562,-62.82
35.578,-53.74
35.593,-44.42
35.609,-34.94
35.625,-25.63
35.640,-16.96
35.656,-9.48
35.671,-3.65
35.687,0.33
35.703,2.44
35.718,2.98
35.734,2.37
35.750,1.01
35.765,-0.93
35.781,-3.42
35.796,-6.5
35.812,-10.14
35.828,-13.94
35.843,-17.24
35.859,-19.14
35.875,-18.94
35.890,-16.46
35.906,-12.06
35.921,-6.57
35.937,-0.72
35.953,5.16
35.968,11.41
35.984,18.65
36.000,27.41
36.015,37.47
36.031,47.88
36.046,57.29
36.062,64.68
36.078,69.97
36.093,73.96
36.109,77.93
36.125,82.7
36.140,87.96
36.156,91.95
36.171,92.66
36.187,89.92
36.203,84.42
36.218,77.22
36.234,69.88
36.250,63.66
36.265,59.07
36.281,55.94
36.296,53.14
36.312,49.75
36.328,46.42
36.343,43.81
36.359,42.29
36.375,42.25
36.390,43.94
36.406,47.46
36.421,52.46
36.437,56.93
36.453,59.08
36.468,60.13
36.484,60.94
36.500,61.35
36.515,61.36
36.531,61.07
36.546,60.32
36.562,58.81
36.578,52.55
36.593,39.07
36.609,24.32
36.625,12.67
36.640,4.5
36.656,-0.08
36.671,-1.38
36.687,-0.23
36.703,2.38
36.718,-1.97
36.734,-19.06
36.750,-37.57
36.765,-50.1
36.781,-57.39
36.796,-59.64
36.812,-56.7
36.828,-48.36
36.843,-34.47
36.859,-27.55
36.875,-37.46
36.890,-48.72
36.906,-53.46
36.921,-57.95
36.937,-67.3
36.953,-85.18
36.968,-113.31
36.984,-151.78
37.000,-215.77
37.015,-316.21
37.031,-431.23
37.046,-547.07
37.062,-665.36
37.078,-783.17
37.093,-893.77
37.109,-988.02
37.125,-955.62
37.140,-733.23
37.156,-479.24
37.171,-267.89
37.187,-73.29
37.203,105.19
37.218,266.69
37.234,409.31
37.250,529.93
37.265,624.3
37.281,672.35
37.296,659.87
37.312,604.95
37.328,521.54
37.343,412.82
37.359,288.93
37.375,163.34
37.390,48.97
37.406,-44.27
37.421,-123.01
37.437,-194.45
37.453,-250.1
37.468,-288.97
37.484,-320.14
37.500,-348.14
37.515,-374.57
37.531,-401.46
37.546,-432.18
37.562,-477.46
37.578,-496.76
37.593,-452.01
37.609,-335.52
37.625,-173.84
37.640,-1.54
37.656,155.9
37.671,284.02
37.687,376.03
37.703,427.96
37.718,442.04
37.734,425.65
37.750,385.59
37.765,330.02
37.781,268.13
37.796,209.14
37.812,160.77
37.828,127.82
37.843,111.36
37.859,110.2
37.875,119.73
37.890,135.44
37.906,159.53
37.921,190.52
37.937,225.74
37.953,261.72
37.968,294.59
37.984,321.41
38.000,339.68
38.015,345.8
38.031,338.27
38.046,318.93
38.062,291.62
38.078,261.91
38.093,235.49
38.109,215.87
38.125,209.85
38.140,212.66
38.156,216.18
38.171,211.27
38.187,190.22
38.203,148.93
38.218,90.0
38.234,22.97
38.250,-39.95
38.265,-87.96
38.281,-116.41
38.296,-126.82
38.312,-125.4
38.328,-118.95
38.343,-111.64
38.359,-108.59
38.375,-109.64
38.390,-113.0
38.406,-117.31
38.421,-123.18
38.437,-131.04
38.453,-140.83
38.468,-151.26
38.484,-160.41
38.500,-166.41
38.515,-167.47
38.531,-163.67
38.546,-156.54
38.562,-148.6
38.578,-141.23
38.593,-134.55
38.609,-127.58
38.625,-118.76
38.640,-107.13
38.656,-91.94
38.671,-74.03
38.687,-55.01
38.703,-36.79
38.718,-20.29
38.734,-5.27
38.750,9.34
38.765,24.81
38.781,41.98
38.796,61.38
38.812,82.3
38.828,103.55
38.843,123.78
38.859,142.41
38.875,159.55
38.890,175.94
38.906,192.51
38.921,210.02
38.937,228.89
38.953,248.68
38.968,268.39
38.984,286.62
39.000,301.86
39.015,312.69
39.031,317.95
39.046,317.0
39.062,310.14
39.078,298.63
39.093,284.4
39.109,269.58
39.125,255.82
39.140,243.69
39.156,233.04
39.171,223.24
39.187,213.87
39.203,205.05
39.218,197.28
39.234,190.84
39.250,185.34
39.265,179.52
39.281,171.66
39.296,160.58
39.312,146.05
39.328,129.15
39.343,111.61
39.359,95.33
39.375,81.48
39.390,70.41
39.406,61.66
39.421,54.46
39.437,48.37
39.453,43.03
39.468,38.52
39.484,34.93
39.500,32.53
39.515,31.61
39.531,32.83
39.546,36.86
39.562,44.29
39.578,55.28
39.593,68.63
39.609,81.92
39.625,91.63
39.640,93.7
39.656,84.61
39.671,62.24
39.687,26.84
39.703,-18.67
39.718,-68.53
39.734,-116.07
39.750,-154.65
39.765,-179.98
39.781,-191.22
39.796,-190.98
39.812,-184.03
39.828,-175.1
39.843,-167.3
39.859,-160.87
39.875,-155.43
39.890,-149.37
39.906,-141.58
39.921,-131.58
39.937,-119.08
39.953,-103.68
39.968,-84.89
39.984,-62.66
40.000,-36.88
40.015,-10.79
40.031,13.11
40.046,32.28
40.062,44.82
40.078,49.23
40.093,44.14
40.109,27.96
40.125,-0.74
40.140,-41.01
40.156,-93.7
40.171,-155.91
40.187,-222.47
40.203,-286.08
40.218,-338.33
40.234,-371.15
40.250,-378.56
40.265,-358.51
40.281,-311.22
40.296,-245.04
40.312,-167.91
40.328,-87.01
40.343,-6.82
40.359,71.2
40.375,147.6
40.390,223.48
40.406,284.33
40.421,342.51
40.437,389.07
40.453,415.82
40.468,416.38
40.484,389.84
40.500,342.25
40.515,285.23
40.531,232.5
40.546,194.31
40.562,175.67
40.578,168.59
40.593,162.15
40.609,146.11
40.625,115.89
40.640,73.17
40.656,23.4
40.671,-27.67
40.687,-77.07
40.703,-123.13
40.718,-169.67
40.734,-217.54
40.750,-264.31
40.765,-304.38
40.781,-331.61
40.796,-342.65
40.812,-337.84
40.828,-321.03
40.843,-296.69
40.859,-271.91
40.875,-251.04
40.890,-235.83
40.906,-226.02
40.921,-221.46
40.937,-223.11
40.953,-232.23
40.968,-248.66
40.984,-261.07
41.000,-258.48
41.015,-235.49
41.031,-198.06
41.046,-158.98
41.062,-130.05
41.078,-117.08
41.093,-119.93
41.109,-132.2
41.125,-147.75
41.140,-163.9
41.156,-179.98
41.171,-195.96
41.187,-210.68
41.203,-219.73
41.218,-220.01
41.234,-209.97
41.250,-189.92
41.265,-162.03
41.281,-129.79
41.296,-96.64
41.312,-64.54
41.328,-33.36
41.343,-1.83
41.359,30.89
41.375,64.72
41.390,98.46
41.406,130.32
41.421,158.26
41.437,181.07
41.453,199.25
41.468,214.93
41.484,230.9
41.500,249.23
41.515,271.16
41.531,296.64
41.546,324.87
41.562,354.7
41.578,385.0
41.593,415.25
41.609,446.02
41.625,478.92
41.640,515.56
41.656,556.85
41.671,601.7
41.687,646.35
41.703,684.63
41.718,709.5
41.734,715.38
41.750,699.77
41.765,663.84
41.781,611.49
41.796,547.84
41.812,477.8
41.828,405.12
41.843,332.68
41.859,262.63
41.875,196.85
41.890,136.78
41.906,83.08
41.921,35.8
41.937,-5.42
41.953,-40.93
41.968,-70.88
41.984,-95.37
42.000,-115.08
42.015,-131.19
42.031,-145.48
42.046,-159.81
42.062,-175.62
42.078,-193.38
42.093,-212.55
42.109,-231.93
42.125,-250.28
42.140,-267.02
42.156,-282.69
42.171,-298.81
42.187,-317.36
42.203,-339.75
42.218,-365.83
42.234,-393.36
42.250,-418.28
42.265,-435.74
42.281,-441.43
42.296,-432.97
42.312,-410.79
42.328,-377.95
42.343,-339.4
42.359,-300.83
42.375,-267.48
42.390,-242.52
42.406,-226.12
42.421,-215.2
42.437,-204.57
42.453,-189.17
42.468,-165.84
42.484,-134.23
42.500,-96.25
42.515,-54.57
42.531,-11.02
42.546,34.41
42.562,82.92
42.578,135.24
42.593,189.21
42.609,240.16
42.625,282.19
42.640,310.57
42.656,323.55
42.671,323.13
42.687,314.36
42.703,303.15
42.718,293.56
42.734,284.18
42.750,271.0
42.765,249.96
42.781,219.86
42.796,182.9
42.812,143.9
42.828,108.31
42.843,79.76
42.859,58.65
42.875,38.4
42.890,12.5
42.906,-21.92
42.921,-63.1
42.937,-107.17
42.953,-150.77
42.968,-192.5
42.984,-233.47
43.000,-276.37
43.015,-330.22
43.031,-400.39
43.046,-485.16
43.062,-576.01
43.078,-661.98
43.093,-734.0
43.109,-786.1
43.125,-815.7
43.140,-822.93
43.156,-817.37
43.171,-806.46
43.187,-792.37
43.203,-772.69
43.218,-745.38
43.234,-711.77
43.250,-675.23
43.265,-638.48
43.281,-553.53
43.296,-399.32
43.312,-189.99
43.328,31.46
43.343,222.57
43.359,361.54
43.375,446.93
43.390,489.54
43.406,504.32
43.421,505.11
43.437,493.59
43.453,469.21
43.468,433.67
43.484,392.72
43.500,353.25
43.515,320.13
43.531,295.34
43.546,277.94
43.562,265.45
43.578,249.05
43.593,222.6
43.609,185.98
43.625,144.94
43.640,106.79
43.656,75.85
43.671,55.01
43.687,44.51
43.703,42.74
43.718,43.42
43.734,41.65
43.750,35.92
43.765,28.29
43.781,21.63
43.796,17.65
43.812,16.55
43.828,17.14
43.843,17.75
43.859,14.81
43.875,6.04
43.890,-8.74
43.906,-27.41
43.921,-47.31
43.937,-66.32
43.953,-83.06
43.968,-96.97
43.984,-107.82
44.000,-116.2
44.015,-122.1
44.031,-126.77
44.046,-129.94
44.062,-131.04
44.078,-129.79
44.093,-126.18
44.109,-120.62
44.125,-113.65
44.140,-106.0
44.156,-98.37
44.171,-91.41
44.187,-85.35
44.203,-80.39
44.218,-76.63
44.234,-74.05
44.250,-72.61
44.265,-72.15
44.281,-72.54
44.296,-73.62
44.312,-75.26
44.328,-77.04
44.343,-78.59
44.359,-79.53
44.375,-79.42
44.390,-77.88
44.406,-74.58
44.421,-69.37
44.437,-62.3
44.453,-53.59
44.468,-43.52
44.484,-32.39
44.500,-20.6
44.515,-8.5
44.531,3.58
44.546,15.17
44.562,25.75
44.578,34.73
44.593,41.63
44.609,46.23
44.625,48.81
44.640,50.18
44.656,51.49
44.671,53.97
44.687,58.54
44.703,65.55
44.718,74.65
44.734,85.03
44.750,95.66
44.765,105.93
44.781,115.85
44.796,125.99
44.812,137.16
44.828,150.0
44.843,164.57
44.859,180.33
44.875,196.54
44.890,212.54
44.906,228.34
44.921,244.6
44.937,262.46
44.953,282.97
44.968,306.75
44.984,333.88
45.000,363.83
45.015,395.33
45.031,426.16
45.046,452.98
45.062,471.72
45.078,478.87
45.093,472.64
45.109,453.72
45.125,425.25
45.140,391.57
45.156,356.59
45.171,322.72
45.187,290.68
45.203,260.39
45.218,232.25
45.234,207.42
45.250,187.24
45.265,172.32
45.281,161.77
45.296,153.21
45.312,143.23
45.328,128.64
45.343,107.61
45.359,80.83
45.375,50.97
45.390,21.72
45.406,-2.9
45.421,-19.19
45.437,-24.04
45.453,-15.59
45.468,6.66
45.484,41.61
45.500,87.67
45.515,141.33
45.531,197.14
45.546,248.57
45.562,289.56
45.578,316.03
45.593,326.4
45.609,321.32
45.625,302.75
45.640,274.66
45.656,240.15
45.671,200.51
45.687,156.0
45.703,107.43
45.718,56.73
45.734,6.59
45.750,-40.23
45.765,-80.91
45.781,-110.26
45.796,-123.83
45.812,-119.98
45.828,-101.67
45.843,-75.78
45.859,-52.56
45.875,-42.18
45.890,-51.53
45.906,-96.16
45.921,-176.84
45.937,-278.83
45.953,-377.95
45.968,-453.56
45.984,-496.77
46.000,-511.23
46.015,-505.24
46.031,-485.82
46.046,-455.66
46.062,-412.03
46.078,-352.28
46.093,-278.12
46.109,-197.05
46.125,-117.05
46.140,-47.85
46.156,3.86
46.171,36.26
46.187,52.38
46.203,58.92
46.218,60.36
46.234,56.52
46.250,36.13
46.265,-3.24
46.281,-58.04
46.296,-117.87
46.312,-168.57
46.328,-197.85
46.343,-199.24
46.359,-175.38
46.375,-135.42
46.390,-90.86
46.406,-49.22
46.421,-14.02
46.437,15.51
46.453,41.58
46.468,65.2
46.484,86.66
46.500,103.91
46.515,115.27
46.531,120.24
46.546,120.34
46.562,117.32
46.578,112.95
46.593,108.39
46.609,103.82
46.625,98.59
46.640,92.01
46.656,84.1
46.671,75.77
46.687,68.26
46.703,62.42
46.718,58.31
46.734,55.16
46.750,51.6
46.765,45.32
46.781,34.36
46.796,16.87
46.812,-4.9
46.828,-30.56
46.843,-60.76
46.859,-97.01
46.875,-140.79
46.890,-192.71
46.906,-252.9
46.921,-318.71
46.937,-385.08
46.953,-445.9
46.968,-495.65
46.984,-529.7
47.000,-544.82
47.015,-539.15
47.031,-512.2
47.046,-466.19
47.062,-403.68
47.078,-328.42
47.093,-245.84
47.109,-163.71
47.125,-90.49
47.140,-34.1
47.156,-0.18
47.171,17.41
47.187,20.48
47.203,10.66
47.218,-9.06
47.234,-32.88
47.250,-52.97
47.265,-61.02
47.281,-51.97
47.296,-25.57
47.312,12.22
47.328,49.97
47.343,77.89
47.359,90.44
47.375,87.59
47.390,73.04
47.406,52.52
47.421,28.93
47.437,5.86
47.453,-14.02
47.468,-29.45
47.484,-36.78
47.500,-32.78
47.515,-16.47
47.531,9.56
47.546,40.88
47.562,71.27
47.578,97.52
47.593,119.13
47.609,136.98
47.625,155.93
47.640,181.25
47.656,216.95
47.671,260.17
47.687,307.35
47.703,352.81
47.718,393.42
47.734,427.15
47.750,440.45
47.765,424.76
47.781,378.32
47.796,306.74
47.812,219.23
47.828,133.61
47.843,49.56
47.859,-35.08
47.875,-120.74
47.890,-206.22
47.906,-285.54
47.921,-350.58
47.937,-394.93
47.953,-415.79
47.968,-413.66
47.984,-393.08
48.000,-357.64
48.015,-310.53
48.031,-254.94
48.046,-192.39
48.062,-124.77
48.078,-55.33
48.093,11.8
48.109,72.67
48.125,123.1
48.140,161.78
48.156,189.1
48.171,206.03
48.187,214.9
48.203,217.87
48.218,215.93
48.234,209.19
48.250,197.2
48.265,178.71
48.281,153.95
48.296,124.16
48.312,91.17
48.328,57.72
48.343,26.53
48.359,-0.56
48.375,-22.58
48.390,-39.24
48.406,-51.04
48.421,-57.98
48.437,-59.93
48.453,-56.87
48.468,-49.01
48.484,-37.11
48.500,-22.59
48.515,-7.2
48.531,7.28
48.546,19.21
48.562,27.68
48.578,32.36
48.593,33.38
48.609,31.19
48.625,26.49
48.640,19.96
48.656,12.3
48.671,4.15
48.687,-3.95
48.703,-11.35
48.718,-17.46
48.734,-21.78
48.750,-23.99
48.765,-24.08
48.781,-22.35
48.796,-19.42
48.812,-15.93
48.828,-12.52
48.843,-9.5
48.859,-7.03
48.875,-5.02
48.890,-3.42
48.906,-2.17
48.921,-1.33
48.937,-0.9
48.953,-0.77
48.968,-0.65
48.984,-0.07
49.000,1.22
49.015,3.21
49.031,5.45
49.046,7.34
49.062,8.26
49.078,8.01
49.093,6.77
49.109,5.03
49.125,3.24
49.140,1.66
49.156,0.32
49.171,-0.93
49.187,-2.1
49.203,-3.01
49.218,-3.4
49.234,-3.13
49.250,-2.23
49.265,-0.99
49.281,0.29
49.296,1.48
49.312,2.44
49.328,3.1
49.343,3.48
49.359,3.53
49.375,3.2
49.390,2.5
49.406,1.44
49.421,-0.06
49.437,-1.95
49.453,-4.15
49.468,-6.44
49.484,-8.36
49.500,-9.53
49.515,-9.69
49.531,-8.95
49.546,-7.73
49.562,-6.58
49.578,-5.87
49.593,-5.76
49.609,-6.1
49.625,-6.67
49.640,-7.47
49.656,-8.58
49.671,-10.18
49.687,-12.28
49.703,-14.55
49.718,-16.31
49.734,-16.88
49.750,-15.88
49.765,-13.38
49.781,-10.04
49.796,-6.57
49.812,-3.59
49.828,-1.36
49.843,0.11
49.859,1.05
49.875,1.55
49.890,1.59
49.906,1.18
49.921,0.31
49.937,-0.8
49.953,-1.88
49.968,-2.74
49.984,-3.34
50.000,-3.91
50.015,-4.72
50.031,-6.02
50.046,-7.77
50.062,-9.88
50.078,-12.08
50.093,-14.1
50.109,-15.74
50.125,-16.76
50.140,-16.97
50.156,-16.19
50.171,-14.35
50.187,-11.38
50.203,-7.58
50.218,-3.32
50.234,0.88
50.250,4.6
50.265,7.49
50.281,9.26
50.296,9.78
50.312,8.96
50.328,6.95
50.343,4.04
50.359,0.66
50.375,-2.75
50.390,-5.7
50.406,-7.9
50.421,-9.31
50.437,-9.9
50.453,-9.72
50.468,-8.56
50.484,-6.1
50.500,-2.01
50.515,3.83
50.531,11.21
50.546,19.6
50.562,28.14
50.578,36.03
50.593,42.44
50.609,46.93
50.625,49.26
50.640,49.53
50.656,48.1
50.671,45.42
50.687,42.07
50.703,38.56
50.718,35.46
50.734,33.03
50.750,31.48
50.765,30.84
50.781,31.11
50.796,32.55
50.812,35.46
50.828,40.26
50.843,47.19
50.859,56.13
50.875,65.98
50.890,74.97
50.906,80.76
50.921,80.92
50.937,73.77
50.953,58.86
50.968,37.15
50.984,10.7
51.000,-17.88
51.015,-46.26
51.031,-72.53
51.046,-95.33
51.062,-113.55
51.078,-126.04
51.093,-131.69
51.109,-129.62
51.125,-119.67
51.140,-102.58
51.156,-80.08
51.171,-54.48
51.187,-28.16
51.203,-3.31
51.218,18.67
51.234,37.25
51.250,52.83
51.265,66.67
51.281,80.19
51.296,94.48
51.312,109.9
51.328,126.07
51.343,142.0
51.359,156.56
51.375,168.92
51.390,178.76
51.406,186.7
51.421,193.94
51.437,201.97
51.453,211.93
51.468,224.19
51.484,237.6
51.500,249.18
51.515,254.3
51.531,248.16
51.546,227.7
51.562,193.32
51.578,149.04
51.593,101.14
51.609,55.89
51.625,17.67
51.640,-11.63
51.656,-32.1
51.671,-44.62
51.687,-50.31
51.703,-50.59
51.718,-47.7
51.734,-44.54
51.750,-44.21
51.765,-48.94
51.781,-59.51
51.796,-75.3
51.812,-94.84
51.828,-116.42
51.843,-138.07
51.859,-157.73
51.875,-172.93
51.890,-181.78
51.906,-183.42
51.921,-178.63
51.937,-169.23
51.953,-157.29
51.968,-144.7
51.984,-132.76
52.000,-122.57
52.015,-115.13
52.031,-111.66
52.046,-113.08
52.062,-119.28
52.078,-128.55
52.093,-137.81
52.109,-143.46
52.125,-142.46
52.140,-133.51
52.156,-117.36
52.171,-96.19
52.187,-72.42
52.203,-47.71
52.218,-22.85
52.234,1.91
52.250,25.81
52.265,47.29
52.281,64.21
52.296,74.7
52.312,78.27
52.328,75.98
52.343,70.3
52.359,63.67
52.375,57.86
52.390,53.65
52.406,51.29
52.421,50.76
52.437,52.04
52.453,55.29
52.468,60.35
52.484,66.75
52.500,73.44
52.515,79.12
52.531,82.43
52.546,82.14
52.562,77.24
52.578,66.8
52.593,50.19
52.609,27.36
52.625,-0.87
52.640,-32.73
52.656,-65.68
52.671,-96.97
52.687,-124.25
52.703,-145.97
52.718,-161.77
52.734,-172.17
52.750,-178.19
52.765,-180.85
52.781,-180.81
52.796,-178.33
52.812,-173.49
52.828,-166.74
52.843,-158.83
52.859,-150.78
52.875,-143.56
52.890,-137.44
52.906,-131.97
52.921,-126.17
52.937,-119.26
52.953,-111.1
52.968,-102.75
52.984,-96.09
53.000,-93.2
53.015,-95.62
53.031,-103.41
53.046,-114.56
53.062,-124.77
53.078,-128.65
53.093,-121.46
53.109,-101.18
53.125,-69.77
53.140,-32.9
53.156,1.79
53.171,27.31
53.187,39.64
53.203,38.77
53.218,27.99
53.234,12.62
53.250,-1.81
53.265,-10.89
53.281,-12.15
53.296,-5.4
53.312,7.21
53.328,21.74
53.343,33.64
53.359,39.32
53.375,37.35
53.390,29.03
53.406,17.52
53.421,6.56
53.437,-0.81
53.453,-2.63
53.468,2.02
53.484,13.16
53.500,30.01
53.515,50.65
53.531,71.87
53.546,89.75
53.562,101.11
53.578,104.88
53.593,102.63
53.609,98.03
53.625,95.16
53.640,96.87
53.656,103.9
53.671,114.87
53.687,127.42
53.703,139.22
53.718,148.52
53.734,154.24
53.750,155.81
53.765,152.87
53.781,145.38
53.796,133.82
53.812,119.21
53.828,102.87
53.843,86.31
53.859,70.79
53.875,57.06
53.890,45.46
53.906,35.9
53.921,28.01
53.937,21.28
53.953,15.23
53.968,9.85
53.984,5.76
54.000,3.81
54.015,4.36
54.031,6.38
54.046,7.36
54.062,4.07
54.078,-5.62
54.093,-21.42
54.109,-40.23
54.125,-57.42
54.140,-68.98
54.156,-73.51
54.171,-72.38
54.187,-68.51
54.203,-64.43
54.218,-60.75
54.234,-56.45
54.250,-49.96
54.265,-40.88
54.281,-30.15
54.296,-19.52
54.312,-10.23
54.328,-2.46
54.343,4.21
54.359,9.79
54.375,13.21
54.390,12.72
54.406,6.95
54.421,-3.74
54.437,-17.24
54.453,-30.39
54.468,-40.55
54.484,-46.61
54.500,-48.97
54.515,-48.69
54.531,-46.53
54.546,-42.47
54.562,-36.03
54.578,-26.89
54.593,-15.4
54.609,-2.76
54.625,9.58
54.640,20.36
54.656,28.94
54.671,35.6
54.687,41.2
54.703,46.81
54.718,53.22
54.734,60.39
54.750,67.48
54.765,73.02
54.781,75.59
54.796,74.6
54.812,70.47
54.828,64.51
54.843,58.31
54.859,52.94
54.875,48.5
54.890,44.4
54.906,39.6
54.921,33.33
54.937,25.37
54.953,16.12
54.968,6.3
54.984,-3.38
55.000,-12.52
55.015,-20.97
55.031,-28.45
55.046,-34.52
55.062,-38.56
55.078,-39.99
55.093,-38.47
55.109,-34.24
55.125,-28.13
55.140,-21.3
55.156,-15.08
55.171,-10.4
55.187,-7.61
55.203,-6.53
55.218,-6.49
55.234,-6.66
55.250,-6.3
55.265,-4.91
55.281,-2.28
55.296,1.59
55.312,6.62
55.328,12.88
55.343,20.45
55.359,29.44
55.375,39.8
55.390,51.31
55.406,63.72
55.421,76.6
55.437,89.42
55.453,101.19
55.468,110.38
55.484,115.21
55.500,114.1
55.515,106.39
55.531,92.59
55.546,74.49
55.562,54.47
55.578,34.81
55.593,17.16
55.609,2.42
55.625,-9.18
55.640,-17.6
55.656,-22.97
55.671,-25.53
55.687,-25.58
55.703,-23.62
55.718,-20.07
55.734,-15.28
55.750,-9.25
55.765,-1.96
55.781,6.62
55.796,16.4
55.812,27.09
55.828,38.34
55.843,49.69
55.859,60.53
55.875,70.09
55.890,77.51
55.906,82.06
55.921,83.38
55.937,81.8
55.953,78.55
55.968,75.58
55.984,75.04
56.000,78.5
56.015,86.34
56.031,97.4
56.046,109.34
56.062,119.4
56.078,125.07
56.093,124.74
56.109,117.7
56.125,103.85
56.140,83.37
56.156,56.65
56.171,24.52
56.187,-11.31
56.203,-48.26
56.218,-83.32
56.234,-113.81
56.250,-137.95
56.265,-155.16
56.281,-165.91
56.296,-171.24
56.312,-172.47
56.328,-170.75
56.343,-167.23
56.359,-162.87
56.375,-158.44
56.390,-154.3
56.406,-150.3
56.421,-145.62
56.437,-139.01
56.453,-129.2
56.468,-115.28
56.484,-97.33
56.500,-76.64
56.515,-55.63
56.531,-37.31
56.546,-24.5
56.562,-18.97
56.578,-21.06
56.593,-29.86
56.609,-43.63
56.625,-60.35
56.640,-78.14
56.656,-95.31
56.671,-110.37
56.687,-122.04
56.703,-129.22
56.718,-131.05
56.734,-127.16
56.750,-117.73
56.765,-103.55
56.781,-86.2
56.796,-67.77
56.812,-50.81
56.828,-37.8
56.843,-30.65
56.859,-30.37
56.875,-36.76
56.890,-48.55
56.906,-63.72
56.921,-79.98
56.937,-95.16
56.953,-107.78
56.968,-117.31
56.984,-124.22
57.000,-129.89
57.015,-135.94
57.031,-143.47
57.046,-152.21
57.062,-159.94
57.078,-162.41
57.093,-154.62
57.109,-132.74
57.125,-95.74
57.140,-46.19
57.156,10.63
57.171,68.31
57.187,121.19
57.203,165.19
57.218,198.01
57.234,218.54
57.250,226.34
57.265,221.64
57.281,205.21
57.296,178.58
57.312,143.82
57.328,103.32
57.343,59.82
57.359,16.42
57.375,-23.82
57.390,-58.74
57.406,-87.95
57.421,-113.1
57.437,-136.71
57.453,-160.27
57.468,-183.06
57.484,-201.91
57.500,-212.85
57.515,-212.97
57.531,-201.56
57.546,-180.01
57.562,-150.94
57.578,-117.1
57.593,-80.7
57.609,-43.48
57.625,-6.72
57.640,28.38
57.656,60.74
57.671,89.34
57.687,113.06
57.703,130.69
57.718,141.83
57.734,148.01
57.750,152.8
57.765,160.7
57.781,174.1
57.796,191.18
57.812,206.03
57.828,211.42
57.843,202.92
57.859,181.41
57.875,152.79
57.890,124.61
57.906,102.24
57.921,86.82
57.937,76.07
57.953,67.33
57.968,60.13
57.984,56.66
58.000,59.86
58.015,70.65
58.031,86.19
58.046,100.73
58.062,108.28
58.078,105.24
58.093,91.95
58.109,72.01
58.125,50.64
58.140,32.41
58.156,20.12
58.171,14.61
58.187,15.51
58.203,21.89
58.218,32.3
58.234,44.37
58.250,54.62
58.265,59.27
58.281,55.6
58.296,43.18
58.312,24.16
58.328,2.34
58.343,-18.25
58.359,-34.94
58.375,-46.75
58.390,-54.18
58.406,-58.31
58.421,-60.04
58.437,-59.82
58.453,-58.12
58.468,-55.89
58.484,-54.55
58.500,-55.62
58.515,-59.64
58.531,-65.75
58.546,-71.74
58.562,-74.88
58.578,-72.85
58.593,-64.81
58.609,-51.62
58.625,-35.54
58.640,-19.63
58.656,-6.31
58.671,3.33
58.687,10.04
58.703,15.59
58.718,22.12
58.734,30.85
58.750,41.85
58.765,54.07
58.781,65.73
58.796,75.27
58.812,81.58
58.828,84.38
58.843,83.78
58.859,80.11
58.875,73.68
58.890,64.9
58.906,54.5
58.921,43.42
58.937,32.76
58.953,23.36
58.968,15.59
58.984,9.34
59.000,4.23
59.015,-0.31
59.031,-4.87
59.046,-9.79
59.062,-15.29
59.078,-21.06
59.093,-26.57
59.109,-31.02
59.125,-33.71
59.140,-34.23
59.156,-32.52
59.171,-29.04
59.187,-24.4
59.203,-19.37
59.218,-14.4
59.234,-9.79
59.250,-5.59
59.265,-1.77
59.281,1.5
59.296,4.1
59.312,5.74
59.328,6.23
59.343,5.63
59.359,4.23
59.375,2.6
59.390,1.41
59.406,1.27
59.421,2.48
59.437,5.05
59.453,8.67
59.468,12.79
59.484,16.85
59.500,20.3
59.515,22.76
59.531,23.99
59.546,23.99
59.562,22.79
59.578,20.68
59.593,17.82
59.609,14.4
59.625,10.67
59.640,6.77
59.656,2.94
59.671,-0.56
59.687,-3.48
59.703,-5.66
59.718,-7.01
59.734,-7.64
59.750,-7.79
59.765,-7.57
59.781,-7.11
59.796,-6.34
59.812,-5.24
59.828,-3.8
59.843,-2.09
59.859,-0.38
59.875,0.99
59.890,1.73
59.906,1.64
59.921,0.67
59.937,-1.19
59.953,-3.92
59.968,-7.59
59.984,-12.21
