timestamp,value
00.000,77.13
00.015,83.57
00.031,87.2
00.046,87.52
00.062,84.57
00.078,78.68
00.093,70.39
00.109,60.3
00.125,49.0
00.140,37.5
00.156,26.88
00.171,18.37
00.187,12.98
00.203,11.19
00.218,12.79
00.234,16.91
00.250,22.24
00.265,27.24
00.281,30.48
00.296,30.46
00.312,25.89
00.328,15.73
00.343,-0.74
00.359,-23.56
00.375,-52.21
00.390,-85.59
00.406,-122.03
00.421,-159.25
00.437,-194.32
00.453,-223.55
00.468,-242.96
00.484,-249.2
00.500,-240.53
00.515,-217.56
00.531,-183.39
00.546,-142.86
00.562,-101.1
00.578,-62.34
00.593,-29.23
00.609,-2.78
00.625,16.97
00.640,30.49
00.656,38.63
00.671,42.51
00.687,43.61
00.703,43.45
00.718,43.36
00.734,44.02
00.750,45.4
00.765,46.95
00.781,47.94
00.796,47.73
00.812,45.85
00.828,42.14
00.843,36.38
00.859,28.63
00.875,19.18
00.890,8.64
00.906,-2.03
00.921,-11.81
00.937,-19.82
00.953,-25.69
00.968,-29.58
00.984,-32.05
01.000,-33.75
01.015,-35.08
01.031,-35.96
01.046,-35.68
01.062,-33.34
01.078,-27.96
01.093,-18.94
01.109,-6.16
01.125,10.15
01.140,29.36
01.156,50.8
01.171,73.68
01.187,97.21
01.203,120.59
01.218,143.36
01.234,165.28
01.250,186.29
01.265,205.8
01.281,221.99
01.296,231.67
01.312,231.1
01.328,217.37
01.343,189.75
01.359,150.49
01.375,104.26
01.390,56.63
01.406,12.51
01.421,-24.96
01.437,-54.37
01.453,-75.34
01.468,-87.67
01.484,-91.26
01.500,-86.25
01.515,-73.59
01.531,-55.36
01.546,-34.34
01.562,-13.65
01.578,4.04
01.593,16.78
01.609,23.42
01.625,23.49
01.640,17.09
01.656,4.79
01.671,-12.41
01.687,-32.91
01.703,-54.64
01.718,-75.24
01.734,-92.43
01.750,-104.35
01.765,-109.88
01.781,-108.75
01.796,-101.79
01.812,-90.67
01.828,-77.63
01.843,-64.85
01.859,-53.97
01.875,-45.65
01.890,-39.51
01.906,-34.38
01.921,-28.73
01.937,-21.37
01.953,-11.8
01.968,-0.42
01.984,11.54
02.000,22.45
02.015,30.82
02.031,35.82
02.046,37.44
02.062,36.39
02.078,33.52
02.093,29.63
02.109,25.2
02.125,20.37
02.140,15.22
02.156,9.86
02.171,4.41
02.187,-0.99
02.203,-6.33
02.218,-11.86
02.234,-17.85
02.250,-24.6
02.265,-32.42
02.281,-41.42
02.296,-51.54
02.312,-62.44
02.328,-73.57
02.343,-84.12
02.359,-93.45
02.375,-101.09
02.390,-106.77
02.406,-110.4
02.421,-111.72
02.437,-110.33
02.453,-105.87
02.468,-98.2
02.484,-87.6
02.500,-74.87
02.515,-61.12
02.531,-47.37
02.546,-34.23
02.562,-21.52
02.578,-8.48
02.593,6.0
02.609,22.74
02.625,41.93
02.640,62.82
02.656,83.88
02.671,103.18
02.687,118.74
02.703,129.07
02.718,133.27
02.734,131.25
02.750,123.57
02.765,111.4
02.781,96.27
02.796,79.86
02.812,63.76
02.828,49.12
02.843,36.64
02.859,26.57
02.875,18.92
02.890,13.49
02.906,9.97
02.921,7.81
02.937,6.43
02.953,5.15
02.968,3.5
02.984,1.33
03.000,-1.06
03.015,-3.1
03.031,-4.19
03.046,-3.89
03.062,-2.16
03.078,0.7
03.093,4.09
03.109,7.32
03.125,9.75
03.140,10.92
03.156,10.58
03.171,8.64
03.187,5.17
03.203,0.29
03.218,-5.92
03.234,-13.35
03.250,-21.97
03.265,-31.56
03.281,-41.74
03.296,-51.69
03.312,-60.3
03.328,-66.25
03.343,-68.34
03.359,-65.98
03.375,-59.16
03.390,-48.65
03.406,-35.59
03.421,-21.34
03.437,-7.22
03.453,5.68
03.468,16.45
03.484,24.48
03.500,29.47
03.515,31.64
03.531,31.56
03.546,30.18
03.562,28.42
03.578,26.9
03.593,25.84
03.609,24.93
03.625,23.59
03.640,21.21
03.656,17.53
03.671,12.69
03.687,7.36
03.703,2.37
03.718,-1.56
03.734,-3.96
03.750,-4.79
03.765,-4.25
03.781,-2.77
03.796,-0.69
03.812,1.59
03.828,3.74
03.843,5.53
03.859,6.79
03.875,7.48
03.890,7.61
03.906,7.3
03.921,6.64
03.937,5.73
03.953,4.54
03.968,2.98
03.984,1.0
04.000,-1.44
04.015,-4.21
04.031,-7.13
04.046,-9.97
04.062,-12.54
04.078,-14.79
04.093,-16.88
04.109,-19.03
04.125,-21.49
04.140,-24.47
04.156,-27.93
04.171,-31.68
04.187,-35.4
04.203,-38.81
04.218,-41.65
04.234,-43.78
04.250,-45.13
04.265,-45.56
04.281,-44.98
04.296,-43.24
04.312,-40.2
04.328,-35.85
04.343,-30.35
04.359,-23.96
04.375,-17.18
04.390,-10.49
04.406,-4.32
04.421,0.96
04.437,5.28
04.453,8.74
04.468,11.55
04.484,13.97
04.500,16.08
04.515,17.81
04.531,18.97
04.546,19.43
04.562,19.23
04.578,18.61
04.593,17.92
04.609,17.5
04.625,17.5
04.640,17.8
04.656,18.16
04.671,18.2
04.687,17.73
04.703,16.71
04.718,15.26
04.734,13.64
04.750,12.09
04.765,10.75
04.781,9.66
04.796,8.84
04.812,8.21
04.828,7.76
04.843,7.45
04.859,7.25
04.875,7.08
04.890,6.79
04.906,6.28
04.921,5.46
04.937,4.45
04.953,3.4
04.968,2.53
04.984,2.02
05.000,1.87
05.015,1.95
05.031,2.01
05.046,1.84
05.062,1.3
05.078,0.47
05.093,-0.59
05.109,-1.69
05.125,-2.71
05.140,-3.71
05.156,-4.73
05.171,-5.81
05.187,-6.99
05.203,-8.27
05.218,-9.56
05.234,-10.76
05.250,-11.68
05.265,-12.15
05.281,-12.04
05.296,-11.26
05.312,-9.85
05.328,-7.95
05.343,-5.9
05.359,-4.03
05.375,-2.45
05.390,-1.19
05.406,-0.11
05.421,0.99
05.437,2.29
05.453,3.82
05.468,5.46
05.484,7.02
05.500,8.29
05.515,9.18
05.531,9.67
05.546,9.83
05.562,9.71
05.578,9.37
05.593,8.89
05.609,8.27
05.625,7.71
05.640,7.37
05.656,7.36
05.671,7.7
05.687,8.35
05.703,9.18
05.718,9.99
05.734,10.65
05.750,11.02
05.765,11.13
05.781,11.04
05.796,10.9
05.812,10.78
05.828,10.71
05.843,10.64
05.859,10.37
05.875,9.85
05.890,9.11
05.906,8.27
05.921,7.48
05.937,6.73
05.953,5.85
05.968,4.57
05.984,2.63
06.000,-0.14
06.015,-3.56
06.031,-7.27
06.046,-10.8
06.062,-13.74
06.078,-15.96
06.093,-17.53
06.109,-18.79
06.125,-20.01
06.140,-21.4
06.156,-22.79
06.171,-23.94
06.187,-24.53
06.203,-24.32
06.218,-23.27
06.234,-21.49
06.250,-19.2
06.265,-16.57
06.281,-13.74
06.296,-10.69
06.312,-7.42
06.328,-3.89
06.343,-0.18
06.359,3.47
06.375,6.77
06.390,9.55
06.406,11.72
06.421,13.53
06.437,15.42
06.453,17.73
06.468,20.7
06.484,24.21
06.500,27.74
06.515,30.58
06.531,32.1
06.546,31.83
06.562,29.61
06.578,25.64
06.593,20.27
06.609,14.08
06.625,7.83
06.640,2.3
06.656,-1.7
06.671,-3.44
06.687,-2.44
06.703,1.44
06.718,7.89
06.734,16.25
06.750,25.64
06.765,35.23
06.781,44.31
06.796,52.35
06.812,58.9
06.828,63.47
06.843,65.44
06.859,64.11
06.875,59.05
06.890,50.36
06.906,38.76
06.921,25.46
06.937,11.6
06.953,-2.27
06.968,-16.13
06.984,-30.29
07.000,-44.74
07.015,-58.63
07.031,-70.23
07.046,-77.56
07.062,-79.37
07.078,-75.64
07.093,-67.93
07.109,-58.69
07.125,-50.3
07.140,-44.32
07.156,-41.11
07.171,-40.11
07.187,-40.38
07.203,-41.22
07.218,-42.27
07.234,-43.32
07.250,-44.14
07.265,-44.21
07.281,-42.75
07.296,-39.11
07.312,-33.05
07.328,-24.91
07.343,-15.5
07.359,-5.96
07.375,2.75
07.390,10.07
07.406,15.9
07.421,20.5
07.437,24.25
07.453,27.34
07.468,29.78
07.484,31.44
07.500,32.17
07.515,31.95
07.531,31.0
07.546,29.67
07.562,28.27
07.578,27.02
07.593,25.91
07.609,24.89
07.625,23.96
07.640,23.22
07.656,22.86
07.671,23.07
07.687,23.93
07.703,25.33
07.718,26.96
07.734,28.3
07.750,28.92
07.765,28.51
07.781,27.1
07.796,24.92
07.812,22.32
07.828,19.64
07.843,17.06
07.859,14.64
07.875,12.27
07.890,9.97
07.906,7.75
07.921,5.79
07.937,4.17
07.953,2.93
07.968,2.05
07.984,1.48
08.000,1.26
08.015,1.3
08.031,1.51
08.046,1.65
08.062,1.49
08.078,0.89
08.093,-0.21
08.109,-1.68
08.125,-3.41
08.140,-5.28
08.156,-7.25
08.171,-9.24
08.187,-11.18
08.203,-12.94
08.218,-14.26
08.234,-15.01
08.250,-15.07
08.265,-14.49
08.281,-13.35
08.296,-11.85
08.312,-10.21
08.328,-8.6
08.343,-7.14
08.359,-5.82
08.375,-4.6
08.390,-3.4
08.406,-2.3
08.421,-1.26
08.437,-0.29
08.453,0.72
08.468,1.91
08.484,3.37
08.500,5.14
08.515,7.12
08.531,9.19
08.546,11.15
08.562,12.88
08.578,14.22
08.593,15.14
08.609,15.62
08.625,15.72
08.640,15.59
08.656,15.36
08.671,15.1
08.687,14.74
08.703,14.12
08.718,13.06
08.734,11.55
08.750,9.76
08.765,7.92
08.781,6.35
08.796,5.19
08.812,4.41
08.828,3.92
08.843,3.59
08.859,3.26
08.875,2.85
08.890,2.41
08.906,2.01
08.921,1.82
08.937,1.96
08.953,2.46
08.968,3.24
08.984,4.14
09.000,4.95
09.015,5.46
09.031,5.65
09.046,5.51
09.062,5.13
09.078,4.54
09.093,3.73
09.109,2.69
09.125,1.38
09.140,-0.08
09.156,-1.6
09.171,-3.06
09.187,-4.42
09.203,-5.7
09.218,-7.07
09.234,-8.68
09.250,-10.56
09.265,-12.58
09.281,-14.44
09.296,-15.75
09.312,-16.19
09.328,-15.67
09.343,-14.17
09.359,-11.91
09.375,-9.21
09.390,-6.37
09.406,-3.63
09.421,-1.22
09.437,0.8
09.453,2.4
09.468,3.64
09.484,4.72
09.500,5.72
09.515,6.65
09.531,7.37
09.546,7.75
09.562,7.56
09.578,6.75
09.593,5.35
09.609,3.49
09.625,1.39
09.640,-0.84
09.656,-3.11
09.671,-5.3
09.687,-7.29
09.703,-8.88
09.718,-9.86
09.734,-10.06
09.750,-9.53
09.765,-8.37
09.781,-6.85
09.796,-5.4
09.812,-4.34
09.828,-3.97
09.843,-4.34
09.859,-5.29
09.875,-6.45
09.890,-7.56
09.906,-8.35
09.921,-8.71
09.937,-8.75
09.953,-8.48
09.968,-7.99
09.984,-7.16
10.000,-5.89
10.015,-3.98
10.031,-1.5
10.046,1.43
10.062,4.48
10.078,7.33
10.093,9.71
10.109,11.42
10.125,12.46
10.140,12.93
10.156,13.03
10.171,12.84
10.187,12.4
10.203,11.68
10.218,10.63
10.234,9.27
10.250,7.71
10.265,6.07
10.281,4.6
10.296,3.44
10.312,2.72
10.328,2.51
10.343,2.84
10.359,3.61
10.375,4.7
10.390,5.86
10.406,6.78
10.421,7.35
10.437,7.49
10.453,7.34
10.468,7.08
10.484,6.91
10.500,6.88
10.515,7.02
10.531,7.31
10.546,7.68
10.562,8.06
10.578,8.39
10.593,8.54
10.609,8.43
10.625,8.0
10.640,7.26
10.656,6.29
10.671,5.19
10.687,4.0
10.703,2.74
10.718,1.55
10.734,0.44
10.750,-0.45
10.765,-1.06
10.781,-1.26
10.796,-1.02
10.812,-0.27
10.828,0.94
10.843,2.48
10.859,4.22
10.875,6.02
10.890,7.81
10.906,9.57
10.921,11.25
10.937,12.72
10.953,13.86
10.968,14.52
10.984,14.62
11.000,14.21
11.015,13.4
11.031,12.3
11.046,11.0
11.062,9.45
11.078,7.6
11.093,5.52
11.109,3.37
11.125,1.4
11.140,-0.12
11.156,-1.13
11.171,-1.74
11.187,-2.21
11.203,-2.93
11.218,-4.23
11.234,-6.15
11.250,-8.61
11.265,-11.21
11.281,-13.54
11.296,-15.25
11.312,-16.25
11.328,-16.59
11.343,-16.41
11.359,-15.92
11.375,-15.19
11.390,-14.3
11.406,-13.24
11.421,-12.07
11.437,-10.86
11.453,-9.77
11.468,-8.83
11.484,-8.05
11.500,-7.38
11.515,-6.73
11.531,-6.15
11.546,-5.62
11.562,-5.16
11.578,-4.64
11.593,-3.91
11.609,-2.8
11.625,-1.26
11.640,0.64
11.656,2.71
11.671,4.76
11.687,6.6
11.703,8.16
11.718,9.43
11.734,10.34
11.750,10.75
11.765,10.65
11.781,10.03
11.796,9.05
11.812,7.86
11.828,6.61
11.843,5.39
11.859,4.32
11.875,3.5
11.890,3.04
11.906,3.02
11.921,3.39
11.937,4.07
11.953,4.78
11.968,5.3
11.984,5.48
12.000,5.3
12.015,4.84
12.031,4.19
12.046,3.41
12.062,2.41
12.078,1.12
12.093,-0.52
12.109,-2.43
12.125,-4.4
12.140,-6.16
12.156,-7.5
12.171,-8.37
12.187,-8.84
12.203,-9.22
12.218,-9.69
12.234,-10.31
12.250,-11.02
12.265,-11.62
12.281,-12.02
12.296,-12.14
12.312,-12.08
12.328,-11.87
12.343,-11.62
12.359,-11.29
12.375,-10.85
12.390,-10.28
12.406,-9.61
12.421,-8.95
12.437,-8.39
12.453,-7.97
12.468,-7.61
12.484,-7.27
12.500,-6.82
12.515,-6.28
12.531,-5.71
12.546,-5.15
12.562,-4.68
12.578,-4.29
12.593,-3.89
12.609,-3.39
12.625,-2.7
12.640,-1.74
12.656,-0.54
12.671,0.75
12.687,1.94
12.703,2.82
12.718,3.31
12.734,3.51
12.750,3.69
12.765,4.14
12.781,5.07
12.796,6.45
12.812,8.04
12.828,9.64
12.843,11.06
12.859,12.32
12.875,13.54
12.890,14.78
12.906,15.95
12.921,16.86
12.937,17.27
12.953,17.07
12.968,16.4
12.984,15.39
13.000,14.2
13.015,12.89
13.031,11.38
13.046,9.51
13.062,7.22
13.078,4.59
13.093,1.72
13.109,-1.18
13.125,-4.02
13.140,-6.7
13.156,-9.12
13.171,-11.25
13.187,-13.0
13.203,-14.24
13.218,-14.94
13.234,-15.08
13.250,-14.71
13.265,-13.94
13.281,-12.88
13.296,-11.68
13.312,-10.5
13.328,-9.49
13.343,-8.77
13.359,-8.44
13.375,-8.55
13.390,-9.06
13.406,-9.87
13.421,-10.81
13.437,-11.68
13.453,-12.24
13.468,-12.3
13.484,-11.68
13.500,-10.35
13.515,-8.45
13.531,-6.16
13.546,-3.69
13.562,-1.28
13.578,0.97
13.593,3.04
13.609,4.89
13.625,6.45
13.640,7.58
13.656,8.17
13.671,8.16
13.687,7.69
13.703,7.01
13.718,6.35
13.734,5.87
13.750,5.59
13.765,5.39
13.781,5.15
13.796,4.72
13.812,4.07
13.828,3.23
13.843,2.17
13.859,0.93
13.875,-0.49
13.890,-2.12
13.906,-3.89
13.921,-5.68
13.937,-7.37
13.953,-8.74
13.968,-9.62
13.984,-9.94
14.000,-9.66
14.015,-8.8
14.031,-7.52
14.046,-5.94
14.062,-4.18
14.078,-2.41
14.093,-0.74
14.109,0.7
14.125,1.82
14.140,2.56
14.156,2.96
14.171,3.0
14.187,2.8
14.203,2.43
14.218,2.0
14.234,1.61
14.250,1.39
14.265,1.48
14.281,1.98
14.296,2.89
14.312,4.08
14.328,5.35
14.343,6.46
14.359,7.18
14.375,7.41
14.390,7.06
14.406,6.22
14.421,4.9
14.437,3.23
14.453,1.38
14.468,-0.45
14.484,-2.09
14.500,-3.37
14.515,-4.17
14.531,-4.55
14.546,-4.53
14.562,-4.17
14.578,-3.57
14.593,-2.8
14.609,-1.9
14.625,-0.93
14.640,0.07
14.656,1.12
14.671,2.15
14.687,3.22
14.703,4.38
14.718,5.59
14.734,6.82
14.750,7.91
14.765,8.67
14.781,8.89
14.796,8.53
14.812,7.64
14.828,6.45
14.843,5.25
14.859,4.24
14.875,3.57
14.890,3.22
14.906,3.02
14.921,2.75
14.937,2.28
14.953,1.6
14.968,0.86
14.984,0.27
15.000,0.01
15.015,0.3
15.031,1.17
15.046,2.58
15.062,4.42
15.078,6.52
15.093,8.65
15.109,10.55
15.125,12.01
15.140,12.81
15.156,12.94
15.171,12.44
15.187,11.37
15.203,9.99
15.218,8.33
15.234,6.43
15.250,4.29
15.265,2.0
15.281,-0.34
15.296,-2.63
15.312,-4.72
15.328,-6.56
15.343,-8.0
15.359,-9.1
15.375,-9.96
15.390,-10.73
15.406,-11.52
15.421,-12.41
15.437,-13.41
15.453,-14.47
15.468,-15.4
15.484,-15.94
15.500,-15.96
15.515,-15.36
15.531,-14.2
15.546,-12.52
15.562,-10.41
15.578,-7.96
15.593,-5.3
15.609,-2.6
15.625,-0.06
15.640,2.15
15.656,3.95
15.671,5.35
15.687,6.43
15.703,7.34
15.718,8.2
15.734,8.99
15.750,9.63
15.765,9.95
15.781,9.88
15.796,9.39
15.812,8.55
15.828,7.55
15.843,6.68
15.859,6.25
15.875,6.46
15.890,7.39
15.906,8.9
15.921,10.77
15.937,12.8
15.953,14.73
15.968,16.43
15.984,17.84
16.000,18.9
16.015,19.63
16.031,19.98
16.046,19.86
16.062,19.16
16.078,17.85
16.093,15.88
16.109,13.35
16.125,10.45
16.140,7.36
16.156,4.37
16.171,1.64
16.187,-0.75
16.203,-2.73
16.218,-4.25
16.234,-5.39
16.250,-6.17
16.265,-6.73
16.281,-7.19
16.296,-7.66
16.312,-8.23
16.328,-8.9
16.343,-9.65
16.359,-10.42
16.375,-11.14
16.390,-11.8
16.406,-12.31
16.421,-12.64
16.437,-12.68
16.453,-12.46
16.468,-12.11
16.484,-11.78
16.500,-11.72
16.515,-12.09
16.531,-12.85
16.546,-13.84
16.562,-14.82
16.578,-15.44
16.593,-15.49
16.609,-14.95
16.625,-13.9
16.640,-12.6
16.656,-11.25
16.671,-9.94
16.687,-8.74
16.703,-7.58
16.718,-6.29
16.734,-4.81
16.750,-3.2
16.765,-1.59
16.781,-0.11
16.796,1.12
16.812,2.1
16.828,2.81
16.843,3.3
16.859,3.52
16.875,3.51
16.890,3.2
16.906,2.63
16.921,1.97
16.937,1.4
16.953,1.19
16.968,1.45
16.984,2.25
17.000,3.4
17.015,4.67
17.031,5.72
17.046,6.4
17.062,6.64
17.078,6.59
17.093,6.47
17.109,6.38
17.125,6.35
17.140,6.21
17.156,5.76
17.171,4.86
17.187,3.53
17.203,1.86
17.218,-0.02
17.234,-1.95
17.250,-3.89
17.265,-5.8
17.281,-7.61
17.296,-9.28
17.312,-10.7
17.328,-11.75
17.343,-12.41
17.359,-12.67
17.375,-12.61
17.390,-12.34
17.406,-12.0
17.421,-11.69
17.437,-11.44
17.453,-11.2
17.468,-10.91
17.484,-10.47
17.500,-9.93
17.515,-9.38
17.531,-8.96
17.546,-8.72
17.562,-8.64
17.578,-8.49
17.593,-8.07
17.609,-7.2
17.625,-5.89
17.640,-4.3
17.656,-2.57
17.671,-0.87
17.687,0.81
17.703,2.53
17.718,4.3
17.734,6.07
17.750,7.7
17.765,8.94
17.781,9.66
17.796,9.85
17.812,9.67
17.828,9.34
17.843,9.06
17.859,8.92
17.875,8.91
17.890,8.92
17.906,8.92
17.921,8.88
17.937,8.87
17.953,8.98
17.968,9.22
17.984,9.49
18.000,9.62
18.015,9.39
18.031,8.7
18.046,7.68
18.062,6.56
18.078,5.68
18.093,5.24
18.109,5.32
18.125,5.8
18.140,6.5
18.156,7.23
18.171,7.84
18.187,8.28
18.203,8.48
18.218,8.4
18.234,7.96
18.250,7.04
18.265,5.6
18.281,3.7
18.296,1.49
18.312,-0.84
18.328,-3.0
18.343,-4.77
18.359,-6.04
18.375,-6.82
18.390,-7.27
18.406,-7.55
18.421,-7.74
18.437,-7.84
18.453,-7.86
18.468,-7.9
18.484,-8.13
18.500,-8.78
18.515,-9.9
18.531,-11.4
18.546,-12.94
18.562,-14.13
18.578,-14.68
18.593,-14.55
18.609,-13.89
18.625,-12.94
18.640,-11.93
18.656,-10.9
18.671,-9.71
18.687,-8.18
18.703,-6.27
18.718,-4.14
18.734,-2.14
18.750,-0.59
18.765,0.25
18.781,0.39
18.796,0.09
18.812,-0.38
18.828,-0.65
18.843,-0.65
18.859,-0.36
18.875,0.1
18.890,0.69
18.906,1.39
18.921,2.24
18.937,3.32
18.953,4.56
18.968,5.86
18.984,7.06
19.000,8.03
19.015,8.71
19.031,9.1
19.046,9.21
19.062,8.99
19.078,8.47
19.093,7.66
19.109,6.59
19.125,5.39
19.140,4.22
19.156,3.25
19.171,2.6
19.187,2.35
19.203,2.42
19.218,2.7
19.234,2.99
19.250,3.13
19.265,3.03
19.281,2.77
19.296,2.48
19.312,2.25
19.328,2.18
19.343,2.2
19.359,2.3
19.375,2.4
19.390,2.52
19.406,2.68
19.421,2.88
19.437,2.99
19.453,2.88
19.468,2.49
19.484,1.73
19.500,0.74
19.515,-0.37
19.531,-1.4
19.546,-2.13
19.562,-2.43
19.578,-2.21
19.593,-1.46
19.609,-0.28
19.625,1.13
19.640,2.55
19.656,3.82
19.671,4.94
19.687,6.15
19.703,7.69
19.718,9.71
19.734,12.15
19.750,14.74
19.765,17.04
19.781,18.72
19.796,19.5
19.812,19.35
19.828,18.44
19.843,17.12
19.859,15.84
19.875,15.1
19.890,15.38
19.906,16.88
19.921,19.6
19.937,23.15
19.953,26.85
19.968,29.86
19.984,31.35
20.000,30.63
20.015,27.38
20.031,21.7
20.046,14.08
20.062,5.26
20.078,-3.85
20.093,-12.39
20.109,-19.78
20.125,-25.58
20.140,-29.65
20.156,-31.91
20.171,-32.43
20.187,-31.28
20.203,-28.51
20.218,-24.37
20.234,-19.17
20.250,-13.54
20.265,-8.14
20.281,-3.7
20.296,-0.69
20.312,0.66
20.328,0.44
20.343,-1.01
20.359,-3.31
20.375,-6.06
20.390,-8.96
20.406,-11.74
20.421,-14.18
20.437,-15.98
20.453,-17.0
20.468,-17.29
20.484,-17.08
20.500,-16.76
20.515,-16.61
20.531,-16.83
20.546,-17.24
20.562,-17.58
20.578,-17.46
20.593,-16.66
20.609,-15.25
20.625,-13.49
20.640,-11.82
20.656,-10.56
20.671,-9.91
20.687,-9.83
20.703,-10.16
20.718,-10.69
20.734,-11.27
20.750,-11.87
20.765,-12.42
20.781,-12.96
20.796,-13.36
20.812,-13.43
20.828,-12.99
20.843,-11.99
20.859,-10.55
20.875,-8.93
20.890,-7.47
20.906,-6.25
20.921,-5.31
20.937,-4.46
20.953,-3.51
20.968,-2.36
20.984,-1.1
21.000,0.02
21.015,0.73
21.031,0.79
21.046,0.24
21.062,-0.84
21.078,-2.2
21.093,-3.63
21.109,-4.95
21.125,-6.1
21.140,-7.05
21.156,-7.73
21.171,-8.17
21.187,-8.31
21.203,-8.2
21.218,-7.97
21.234,-7.77
21.250,-7.78
21.265,-8.07
21.281,-8.66
21.296,-9.37
21.312,-9.99
21.328,-10.22
21.343,-9.8
21.359,-8.52
21.375,-6.26
21.390,-3.11
21.406,0.75
21.421,4.93
21.437,9.05
21.453,12.66
21.468,15.46
21.484,17.22
21.500,17.92
21.515,17.65
21.531,16.48
21.546,14.56
21.562,11.96
21.578,8.78
21.593,5.14
21.609,1.33
21.625,-2.33
21.640,-5.51
21.656,-8.0
21.671,-9.79
21.687,-10.89
21.703,-11.42
21.718,-11.42
21.734,-10.88
21.750,-9.76
21.765,-8.13
21.781,-6.16
21.796,-4.11
21.812,-2.36
21.828,-1.12
21.843,-0.41
21.859,-0.07
21.875,0.15
21.890,0.52
21.906,1.08
21.921,1.72
21.937,2.31
21.953,2.61
21.968,2.51
21.984,2.06
22.000,1.34
22.015,0.55
22.031,-0.29
22.046,-1.13
22.062,-2.04
22.078,-3.01
22.093,-4.1
22.109,-5.14
22.125,-5.98
22.140,-6.39
22.156,-6.08
22.171,-4.97
22.187,-2.98
22.203,-0.2
22.218,3.15
22.234,6.68
22.250,10.08
22.265,13.0
22.281,15.18
22.296,16.53
22.312,16.9
22.328,16.32
22.343,14.82
22.359,12.49
22.375,9.44
22.390,5.99
22.406,2.49
22.421,-0.73
22.437,-3.23
22.453,-4.74
22.468,-5.15
22.484,-4.51
22.500,-3.03
22.515,-1.03
22.531,1.11
22.546,3.09
22.562,4.59
22.578,5.5
22.593,5.69
22.609,5.05
22.625,3.54
22.640,1.22
22.656,-1.65
22.671,-4.64
22.687,-7.26
22.703,-9.07
22.718,-9.75
22.734,-9.43
22.750,-8.44
22.765,-7.21
22.781,-6.12
22.796,-5.27
22.812,-4.57
22.828,-3.85
22.843,-3.02
22.859,-1.97
22.875,-0.82
22.890,0.33
22.906,1.42
22.921,2.3
22.937,2.88
22.953,3.0
22.968,2.58
22.984,1.6
23.000,0.14
23.015,-1.54
23.031,-3.21
23.046,-4.58
23.062,-5.51
23.078,-5.98
23.093,-6.09
23.109,-6.0
23.125,-5.87
23.140,-5.77
23.156,-5.67
23.171,-5.55
23.187,-5.31
23.203,-4.9
23.218,-4.3
23.234,-3.47
23.250,-2.41
23.265,-0.99
23.281,0.85
23.296,3.16
23.312,5.88
23.328,8.88
23.343,11.87
23.359,14.53
23.375,16.55
23.390,17.68
23.406,17.85
23.421,17.11
23.437,15.65
23.453,13.63
23.468,11.28
23.484,8.73
23.500,6.05
23.515,3.41
23.531,0.99
23.546,-1.02
23.562,-2.49
23.578,-3.42
23.593,-3.98
23.609,-4.26
23.625,-4.32
23.640,-4.1
23.656,-3.32
23.671,-1.76
23.687,0.61
23.703,3.62
23.718,6.91
23.734,10.14
23.750,13.14
23.765,15.81
23.781,18.06
23.796,19.84
23.812,20.98
23.828,21.32
23.843,20.8
23.859,19.48
23.875,17.58
23.890,15.39
23.906,13.11
23.921,10.92
23.937,8.96
23.953,7.2
23.968,5.69
23.984,4.53
24.000,3.81
24.015,3.67
24.031,4.16
24.046,5.18
24.062,6.45
24.078,7.58
24.093,8.19
24.109,8.06
24.125,7.27
24.140,6.03
24.156,4.66
24.171,3.38
24.187,2.26
24.203,1.35
24.218,0.66
24.234,0.14
24.250,-0.18
24.265,-0.27
24.281,-0.2
24.296,-0.07
24.312,0.02
24.328,-0.08
24.343,-0.38
24.359,-0.85
24.375,-1.51
24.390,-2.2
24.406,-2.86
24.421,-3.44
24.437,-3.92
24.453,-4.33
24.468,-4.73
24.484,-5.16
24.500,-5.63
24.515,-6.13
24.531,-6.55
24.546,-6.82
24.562,-6.87
24.578,-6.77
24.593,-6.52
24.609,-6.11
24.625,-5.44
24.640,-4.37
24.656,-2.84
24.671,-0.82
24.687,1.42
24.703,3.6
24.718,5.42
24.734,6.82
24.750,7.98
24.765,9.31
24.781,11.08
24.796,13.26
24.812,15.66
24.828,17.74
24.843,19.08
24.859,19.52
24.875,19.18
24.890,18.48
24.906,17.96
24.921,17.99
24.937,18.65
24.953,19.85
24.968,21.31
24.984,22.71
25.000,23.85
25.015,24.42
25.031,24.23
25.046,23.02
25.062,20.63
25.078,16.85
25.093,11.64
25.109,5.16
25.125,-2.17
25.140,-9.7
25.156,-16.78
25.171,-22.84
25.187,-27.62
25.203,-31.08
25.218,-33.4
25.234,-34.74
25.250,-35.18
25.265,-34.58
25.281,-32.78
25.296,-29.83
25.312,-25.92
25.328,-21.54
25.343,-17.25
25.359,-13.49
25.375,-10.52
25.390,-8.38
25.406,-7.03
25.421,-6.43
25.437,-6.66
25.453,-7.81
25.468,-9.97
25.484,-13.0
25.500,-16.49
25.515,-19.9
25.531,-22.54
25.546,-23.89
25.562,-23.72
25.578,-22.09
25.593,-19.37
25.609,-16.13
25.625,-12.84
25.640,-9.87
25.656,-7.42
25.671,-5.44
25.687,-3.88
25.703,-2.74
25.718,-2.03
25.734,-1.86
25.750,-2.31
25.765,-3.29
25.781,-4.68
25.796,-6.35
25.812,-8.16
25.828,-10.0
25.843,-11.83
25.859,-13.58
25.875,-15.05
25.890,-16.06
25.906,-16.38
25.921,-15.93
25.937,-14.83
25.953,-13.37
25.968,-11.79
25.984,-10.34
26.000,-9.08
26.015,-7.92
26.031,-6.77
26.046,-5.62
26.062,-4.59
26.078,-3.9
26.093,-3.75
26.109,-4.17
26.125,-5.02
26.140,-5.96
26.156,-6.76
26.171,-7.3
26.187,-7.59
26.203,-7.8
26.218,-8.06
26.234,-8.41
26.250,-8.83
26.265,-9.26
26.281,-9.71
26.296,-10.28
26.312,-11.15
26.328,-12.37
26.343,-13.82
26.359,-15.23
26.375,-16.26
26.390,-16.52
26.406,-15.87
26.421,-14.36
26.437,-12.13
26.453,-9.47
26.468,-6.6
26.484,-3.62
26.500,-0.61
26.515,2.25
26.531,4.83
26.546,6.91
26.562,8.31
26.578,8.98
26.593,8.95
26.609,8.44
26.625,7.76
26.640,7.2
26.656,6.97
26.671,7.17
26.687,7.84
26.703,8.99
26.718,10.7
26.734,12.95
26.750,15.83
26.765,19.32
26.781,23.24
26.796,27.22
26.812,30.8
26.828,33.44
26.843,34.9
26.859,35.26
26.875,34.79
26.890,33.81
26.906,32.53
26.921,30.84
26.937,28.54
26.953,25.45
26.968,21.55
26.984,16.96
27.000,11.97
27.015,6.84
27.031,1.7
27.046,-3.28
27.062,-7.95
27.078,-11.97
27.093,-15.02
27.109,-16.9
27.125,-17.61
27.140,-17.36
27.156,-16.41
27.171,-15.04
27.187,-13.41
27.203,-11.59
27.218,-9.58
27.234,-7.48
27.250,-5.46
27.265,-3.71
27.281,-2.4
27.296,-1.56
27.312,-1.13
27.328,-1.01
27.343,-1.17
27.359,-1.57
27.375,-2.21
27.390,-3.07
27.406,-4.06
27.421,-5.07
27.437,-6.03
27.453,-6.95
27.468,-7.9
27.484,-8.92
27.500,-9.93
27.515,-10.75
27.531,-11.05
27.546,-10.56
27.562,-9.15
27.578,-6.91
27.593,-4.09
27.609,-0.98
27.625,2.14
27.640,5.11
27.656,7.83
27.671,10.26
27.687,12.27
27.703,13.71
27.718,14.51
27.734,14.66
27.750,14.34
27.765,13.81
27.781,13.26
27.796,12.82
27.812,12.57
27.828,12.52
27.843,12.67
27.859,13.04
27.875,13.63
27.890,14.34
27.906,15.03
27.921,15.48
27.937,15.49
27.953,14.93
27.968,13.75
27.984,12.0
28.000,9.87
28.015,7.55
28.031,5.29
28.046,3.36
28.062,1.94
28.078,1.15
28.093,1.02
28.109,1.38
28.125,2.0
28.140,2.58
28.156,2.85
28.171,2.66
28.187,2.02
28.203,0.98
28.218,-0.23
28.234,-1.47
28.250,-2.58
28.265,-3.5
28.281,-4.24
28.296,-4.89
28.312,-5.5
28.328,-6.09
28.343,-6.66
28.359,-7.15
28.375,-7.5
28.390,-7.69
28.406,-7.73
28.421,-7.74
28.437,-7.85
28.453,-8.1
28.468,-8.44
28.484,-8.76
28.500,-8.8
28.515,-8.41
28.531,-7.53
28.546,-6.18
28.562,-4.49
28.578,-2.63
28.593,-0.74
28.609,1.09
28.625,2.75
28.640,4.22
28.656,5.4
28.671,6.24
28.687,6.82
28.703,7.19
28.718,7.53
28.734,7.99
28.750,8.61
28.765,9.35
28.781,10.11
28.796,10.68
28.812,10.91
28.828,10.82
28.843,10.43
28.859,9.9
28.875,9.36
28.890,8.81
28.906,8.25
28.921,7.68
28.937,7.01
28.953,6.23
28.968,5.34
28.984,4.4
29.000,3.54
29.015,2.92
29.031,2.62
29.046,2.67
29.062,3.03
29.078,3.47
29.093,3.77
29.109,3.77
29.125,3.31
29.140,2.46
29.156,1.31
29.171,-0.07
29.187,-1.6
29.203,-3.13
29.218,-4.57
29.234,-5.77
29.250,-6.65
29.265,-7.25
29.281,-7.69
29.296,-8.16
29.312,-8.79
29.328,-9.64
29.343,-10.52
29.359,-11.2
29.375,-11.43
29.390,-11.01
29.406,-10.04
29.421,-8.7
29.437,-7.22
29.453,-5.67
29.468,-4.1
29.484,-2.46
29.500,-0.77
29.515,0.95
29.531,2.61
29.546,4.06
29.562,5.26
29.578,6.24
29.593,7.05
29.609,7.8
29.625,8.47
29.640,9.02
29.656,9.46
29.671,9.69
29.687,9.63
29.703,9.25
29.718,8.66
29.734,7.94
29.750,7.25
29.765,6.7
29.781,6.32
29.796,6.03
29.812,5.82
29.828,5.64
29.843,5.53
29.859,5.55
29.875,5.66
29.890,5.69
29.906,5.5
29.921,4.91
29.937,3.89
29.953,2.51
29.968,0.86
29.984,-0.99
30.000,-3.01
30.015,-5.16
30.031,-7.43
30.046,-9.67
30.062,-11.74
30.078,-13.42
30.093,-14.53
30.109,-15.05
30.125,-15.06
30.140,-14.76
30.156,-14.36
30.171,-14.12
30.187,-14.03
30.203,-14.03
30.218,-13.9
30.234,-13.42
30.250,-12.54
30.265,-11.35
30.281,-10.05
30.296,-8.75
30.312,-7.57
30.328,-6.42
30.343,-5.16
30.359,-3.71
30.375,-2.04
30.390,-0.2
30.406,1.68
30.421,3.36
30.437,4.68
30.453,5.48
30.468,5.76
30.484,5.64
30.500,5.3
30.515,4.97
30.531,4.69
30.546,4.51
30.562,4.31
30.578,4.05
30.593,3.66
30.609,3.19
30.625,2.72
30.640,2.27
30.656,1.88
30.671,1.4
30.687,0.8
30.718,-0.89
30.734,-1.8
30.750,-2.62
30.765,-3.26
30.781,-3.78
30.796,-4.17
30.812,-4.5
30.828,-4.78
30.843,-4.92
30.859,-4.75
30.875,-4.24
30.890,-3.37
30.906,-2.23
30.921,-1.05
30.937,0.1
30.953,1.13
30.968,2.1
30.984,3.06
31.000,4.1
31.015,5.21
31.031,6.3
31.046,7.2
31.062,7.6
31.078,7.35
31.093,6.29
31.109,4.51
31.125,2.15
31.140,-0.46
31.156,-3.06
31.171,-5.5
31.187,-7.68
31.203,-9.68
31.218,-11.44
31.234,-12.89
31.250,-13.93
31.265,-14.58
31.281,-14.97
31.296,-15.33
31.312,-15.79
31.328,-16.29
31.343,-16.56
31.359,-16.26
31.375,-15.23
31.390,-13.47
31.406,-11.18
31.421,-8.69
31.437,-6.2
31.453,-3.86
31.468,-1.62
31.484,0.63
31.500,3.01
31.515,5.55
31.531,8.19
31.546,10.77
31.562,13.12
31.578,15.1
31.593,16.62
31.609,17.79
31.625,18.71
31.640,19.52
31.656,20.29
31.671,20.97
31.687,21.45
31.703,21.71
31.718,21.74
31.734,21.53
31.750,21.16
31.765,20.56
31.781,19.67
31.796,18.4
31.812,16.74
31.828,14.7
31.843,12.42
31.859,10.06
31.875,7.75
31.890,5.65
31.906,3.92
31.921,2.63
31.937,1.91
31.953,1.92
31.968,2.69
31.984,4.25
32.000,6.51
32.015,9.19
32.031,11.89
32.046,14.12
32.062,15.4
32.078,15.44
32.093,14.17
32.109,11.68
32.125,8.28
32.140,4.27
32.156,-0.15
32.171,-4.79
32.187,-9.56
32.203,-14.25
32.218,-18.54
32.234,-22.04
32.250,-24.42
32.265,-25.39
32.281,-24.92
32.296,-23.23
32.312,-20.66
32.328,-17.59
32.343,-14.33
32.359,-11.04
32.375,-7.88
32.390,-4.93
32.406,-2.25
32.421,0.11
32.437,2.11
32.453,3.82
32.468,5.4
32.484,7.04
32.500,8.88
32.515,10.84
32.531,12.63
32.546,13.82
32.562,14.1
32.578,13.42
32.593,12.03
32.609,10.37
32.625,8.89
32.640,7.99
32.656,7.75
32.671,8.14
32.687,9.0
32.703,10.16
32.718,11.46
32.734,12.73
32.750,13.69
32.765,14.0
32.781,13.32
32.796,11.39
32.812,8.22
32.828,4.09
32.843,-0.53
32.859,-5.03
32.875,-8.92
32.890,-11.81
32.906,-13.57
32.921,-14.27
32.937,-14.09
32.953,-13.34
32.968,-12.33
32.984,-11.44
33.000,-11.06
33.015,-11.41
33.031,-12.45
33.046,-13.92
33.062,-15.44
33.078,-16.6
33.093,-17.02
33.109,-16.49
33.125,-15.01
33.140,-12.77
33.156,-10.07
33.171,-7.28
33.187,-4.78
33.203,-2.85
33.218,-1.62
33.234,-1.04
33.250,-0.95
33.265,-1.2
33.281,-1.73
33.296,-2.52
33.312,-3.56
33.328,-4.71
33.343,-5.64
33.359,-6.02
33.375,-5.67
33.390,-4.61
33.406,-3.14
33.421,-1.7
33.437,-0.58
33.453,0.09
33.468,0.42
33.484,0.75
33.500,1.24
33.515,1.92
33.531,2.7
33.546,3.38
33.562,3.84
33.578,3.97
33.593,3.81
33.609,3.37
33.625,2.75
33.640,1.95
33.656,0.99
33.671,-0.05
33.687,-1.1
33.703,-2.04
33.718,-2.9
33.734,-3.71
33.750,-4.5
33.765,-5.4
33.781,-6.49
33.796,-7.88
33.812,-9.59
33.828,-11.57
33.843,-13.69
33.859,-15.75
33.875,-17.67
33.890,-19.36
33.906,-20.88
33.921,-22.27
33.937,-23.57
33.953,-24.62
33.968,-25.26
33.984,-25.28
34.000,-24.59
34.015,-23.4
34.031,-21.97
34.046,-20.64
34.062,-19.6
34.078,-18.88
34.093,-18.33
34.109,-17.8
34.125,-17.19
34.140,-16.56
34.156,-16.13
34.171,-16.11
34.187,-16.6
34.203,-17.35
34.218,-17.88
34.234,-17.65
34.250,-16.22
34.265,-13.42
34.281,-9.37
34.296,-4.47
34.312,0.9
34.328,6.43
34.343,11.89
34.359,17.13
34.375,21.81
34.390,25.57
34.406,28.11
34.421,29.33
34.437,29.44
34.453,28.92
34.468,28.34
34.484,28.09
34.500,28.21
34.515,28.35
34.531,28.05
34.546,26.95
34.562,24.94
34.578,22.29
34.593,19.31
34.609,16.31
34.625,13.44
34.640,10.72
34.656,8.15
34.671,5.85
34.687,3.97
34.703,2.63
34.718,1.88
34.734,1.58
34.750,1.56
34.765,1.66
34.781,1.88
34.796,2.23
34.812,2.72
34.828,3.29
34.843,3.77
34.859,3.94
34.875,3.69
34.890,2.95
34.906,1.74
34.921,0.15
34.937,-1.71
34.953,-3.69
34.968,-5.6
34.984,-7.27
35.000,-8.52
35.015,-9.38
35.031,-9.95
35.046,-10.43
35.062,-10.97
35.078,-11.51
35.093,-11.75
35.109,-11.37
35.125,-10.17
35.140,-8.11
35.156,-5.54
35.171,-2.93
35.187,-0.69
35.203,1.01
35.218,2.23
35.234,3.16
35.250,3.99
35.265,4.74
35.281,5.39
35.296,5.79
35.312,5.98
35.328,6.09
35.343,6.34
35.359,6.87
35.375,7.63
35.390,8.38
35.406,8.87
35.421,8.95
35.437,8.6
35.453,7.96
35.468,7.05
35.484,5.84
35.500,4.24
35.515,2.24
35.531,-0.1
35.546,-2.57
35.562,-4.85
35.578,-6.78
35.593,-8.24
35.609,-9.23
35.625,-9.8
35.640,-9.9
35.656,-9.41
35.671,-8.29
35.687,-6.62
35.703,-4.54
35.718,-2.33
35.734,-0.14
35.750,1.94
35.765,3.77
35.781,5.22
35.796,6.21
35.812,6.54
35.828,6.18
35.843,5.35
35.859,4.27
35.875,3.27
35.890,2.4
35.906,1.55
35.921,0.48
35.937,-0.97
35.953,-2.74
35.968,-4.56
35.984,-6.04
36.000,-6.94
36.015,-7.18
36.031,-6.91
36.046,-6.44
36.062,-5.9
36.078,-5.37
36.093,-4.72
36.109,-3.71
36.125,-2.19
36.140,-0.16
36.156,2.24
36.171,4.73
36.187,6.97
36.203,8.77
36.218,10.1
36.234,10.97
36.250,11.49
36.265,11.85
36.281,12.08
36.296,12.33
36.312,12.68
36.328,13.16
36.343,13.75
36.359,14.36
36.375,14.88
36.390,15.09
36.406,14.96
36.421,14.47
36.437,13.82
36.453,13.28
36.468,13.15
36.484,13.48
36.500,14.19
36.515,15.04
36.531,15.74
36.546,16.08
36.562,15.97
36.578,15.59
36.593,15.15
36.609,14.84
36.625,14.73
36.640,14.73
36.656,14.69
36.671,14.49
36.687,14.08
36.703,13.44
36.718,12.68
36.734,11.85
36.750,10.9
36.765,9.8
36.781,8.47
36.796,6.95
36.812,5.28
36.828,3.61
36.843,1.98
36.859,0.46
36.875,-0.94
36.890,-2.24
36.906,-3.43
36.921,-4.5
36.937,-5.43
36.953,-6.2
36.968,-6.71
36.984,-7.03
37.000,-7.2
37.015,-7.35
37.031,-7.72
37.046,-8.43
37.062,-9.51
37.078,-10.77
37.093,-11.9
37.109,-12.53
37.125,-12.5
37.140,-11.84
37.156,-10.76
37.171,-9.57
37.187,-8.38
37.203,-7.21
37.218,-5.93
37.234,-4.36
37.250,-2.52
37.265,-0.57
37.281,1.26
37.296,2.79
37.312,3.91
37.328,4.74
37.343,5.3
37.359,5.59
37.375,5.59
37.390,5.22
37.406,4.5
37.421,3.56
37.437,2.63
37.453,1.88
37.468,1.51
37.484,1.45
37.500,1.61
37.515,1.92
37.531,2.34
37.546,2.92
37.562,3.72
37.578,4.69
37.593,5.68
37.609,6.52
37.625,6.91
37.640,6.77
37.656,6.1
37.671,4.93
37.687,3.46
37.703,1.84
37.718,0.24
37.734,-1.16
37.750,-2.18
37.765,-2.77
37.781,-2.93
37.796,-2.88
37.812,-2.95
37.828,-3.35
37.843,-4.23
37.859,-5.59
37.875,-7.28
37.890,-9.15
37.906,-11.01
37.921,-12.74
37.937,-14.23
37.953,-15.37
37.968,-16.03
37.984,-16.14
38.000,-15.75
38.015,-14.98
38.031,-14.04
38.046,-13.04
38.062,-11.94
38.078,-10.61
38.093,-8.92
38.109,-6.73
38.125,-4.17
38.140,-1.44
38.156,1.19
38.171,3.44
38.187,5.11
38.203,6.2
38.218,6.79
38.234,6.95
38.250,6.8
38.265,6.28
38.281,5.45
38.296,4.36
38.312,3.21
38.328,2.24
38.343,1.66
38.359,1.58
38.375,1.96
38.390,2.62
38.406,3.23
38.421,3.58
38.437,3.5
38.453,2.98
38.468,2.12
38.484,1.09
38.500,0.07
38.515,-0.75
38.531,-1.27
38.546,-1.5
38.562,-1.49
38.578,-1.36
38.593,-1.23
38.609,-1.22
38.625,-1.44
38.640,-1.98
38.656,-2.8
38.671,-3.79
38.687,-4.89
38.703,-5.95
38.718,-6.85
38.734,-7.52
38.750,-7.96
38.765,-8.28
38.781,-8.64
38.796,-9.22
38.812,-10.06
38.828,-11.15
38.843,-12.38
38.859,-13.62
38.875,-14.7
38.890,-15.48
38.906,-15.86
38.921,-15.67
38.937,-14.79
38.953,-13.12
38.968,-10.67
38.984,-7.61
39.000,-4.25
39.015,-0.92
39.031,2.09
39.046,4.6
39.062,6.59
39.078,8.12
39.093,9.3
39.109,10.23
39.125,10.98
39.140,11.5
39.156,11.74
39.171,11.71
39.187,11.41
39.203,10.94
39.218,10.43
39.234,9.98
39.250,9.63
39.265,9.39
39.281,9.24
39.296,9.17
39.312,9.24
39.328,9.5
39.343,10.0
39.359,10.68
39.375,11.35
39.390,11.84
39.406,11.93
39.421,11.46
39.437,10.45
39.453,8.97
39.468,7.23
39.484,5.44
39.500,3.8
39.515,2.43
39.531,1.38
39.546,0.65
39.562,0.16
39.578,-0.15
39.593,-0.34
39.609,-0.47
39.625,-0.7
39.640,-1.13
39.656,-1.9
39.671,-3.02
39.687,-4.37
39.703,-5.76
39.718,-6.98
39.734,-7.95
39.750,-8.76
39.765,-9.57
39.781,-10.54
39.796,-11.72
39.812,-12.97
39.828,-14.14
39.843,-15.07
39.859,-15.71
39.875,-16.05
39.890,-16.15
39.906,-15.96
39.921,-15.44
39.937,-14.55
39.953,-13.26
39.968,-11.54
39.984,-9.49
40.000,-7.21
40.015,-4.82
40.031,-2.53
40.046,-0.49
40.062,1.17
40.078,2.4
40.093,3.28
40.109,4.0
40.125,4.73
40.140,5.52
40.156,6.34
40.171,7.03
40.187,7.48
40.203,7.66
40.218,7.59
40.234,7.43
40.250,7.32
40.265,7.4
40.281,7.64
40.296,8.01
40.312,8.39
40.328,8.66
40.343,8.8
40.359,8.81
40.375,8.75
40.390,8.66
40.406,8.52
40.421,8.26
40.437,7.83
40.453,7.22
40.468,6.55
40.484,5.93
40.500,5.53
40.515,5.39
40.531,5.39
40.546,5.43
40.562,5.43
40.578,5.34
40.593,5.15
40.609,4.81
40.625,4.35
40.640,3.72
40.656,2.85
40.671,1.73
40.687,0.34
40.703,-1.24
40.718,-2.89
40.734,-4.46
40.750,-5.89
40.765,-7.1
40.781,-8.16
40.796,-9.12
40.812,-10.05
40.828,-10.95
40.843,-11.83
40.859,-12.58
40.875,-13.14
40.890,-13.48
40.906,-13.47
40.921,-13.01
40.937,-11.94
40.953,-10.3
40.968,-8.16
40.984,-5.84
41.000,-3.61
41.015,-1.75
41.031,-0.31
41.046,0.8
41.062,1.81
41.078,2.84
41.093,3.96
41.109,5.05
41.125,5.97
41.140,6.75
41.156,7.42
41.171,8.06
41.187,8.68
41.203,9.2
41.218,9.5
41.234,9.55
41.250,9.38
41.265,9.11
41.281,8.85
41.296,8.56
41.312,8.18
41.328,7.66
41.343,7.02
41.359,6.45
41.375,6.17
41.390,6.25
41.406,6.55
41.421,6.83
41.437,6.83
41.453,6.51
41.468,5.94
41.484,5.27
41.500,4.62
41.515,4.0
41.531,3.34
41.546,2.53
41.562,1.59
41.578,0.55
41.593,-0.52
41.609,-1.59
41.625,-2.79
41.640,-4.18
41.656,-5.78
41.671,-7.43
41.687,-8.94
41.703,-10.07
41.718,-10.7
41.734,-10.91
41.750,-10.82
41.765,-10.7
41.781,-10.76
41.796,-11.11
41.812,-11.73
41.828,-12.55
41.843,-13.42
41.859,-14.14
41.875,-14.56
41.890,-14.49
41.906,-13.86
41.921,-12.63
41.937,-10.9
41.953,-8.78
41.968,-6.44
41.984,-4.04
42.000,-1.76
42.015,0.26
42.031,1.9
42.046,3.0
42.062,3.55
42.078,3.56
42.093,3.22
42.109,2.79
42.125,2.57
42.140,2.79
42.156,3.48
42.171,4.55
42.187,5.76
42.203,6.89
42.218,7.77
42.234,8.38
42.250,8.8
42.265,9.15
42.281,9.47
42.296,9.64
42.312,9.5
42.328,8.88
42.343,7.74
42.359,6.25
42.375,4.69
42.390,3.36
42.406,2.41
42.421,1.82
42.437,1.53
42.453,1.49
42.468,1.69
42.484,2.17
42.500,2.95
42.515,3.82
42.531,4.51
42.546,4.69
42.562,4.23
42.578,3.18
42.593,1.82
42.609,0.39
42.625,-1.01
42.640,-2.39
42.656,-3.85
42.671,-5.43
42.687,-7.08
42.703,-8.56
42.718,-9.65
42.734,-10.22
42.750,-10.37
42.765,-10.43
42.781,-10.77
42.796,-11.64
42.812,-13.03
42.828,-14.75
42.843,-16.48
42.859,-17.88
42.875,-18.83
42.890,-19.21
42.906,-18.98
42.921,-18.1
42.937,-16.57
42.953,-14.43
42.968,-11.86
42.984,-9.14
43.000,-6.46
43.015,-4.02
43.031,-1.78
43.046,0.35
43.062,2.47
43.078,4.56
43.093,6.51
43.109,8.25
43.125,9.72
43.140,10.95
43.156,11.93
43.171,12.63
43.187,12.88
43.203,12.62
43.218,11.87
43.234,10.87
43.250,9.97
43.265,9.5
43.281,9.57
43.296,10.08
43.312,10.76
43.328,11.34
43.343,11.69
43.359,11.86
43.375,11.94
43.390,12.01
43.406,12.04
43.421,11.84
43.437,11.28
43.453,10.34
43.468,9.19
43.484,8.01
43.500,7.06
43.515,6.4
43.531,5.94
43.546,5.45
43.562,4.7
43.578,3.55
43.593,2.07
43.609,0.57
43.625,-0.65
43.640,-1.35
43.656,-1.51
43.671,-1.36
43.687,-1.3
43.703,-1.64
43.718,-2.41
43.734,-3.44
43.750,-4.44
43.765,-5.19
43.781,-5.75
43.796,-6.29
43.812,-7.05
43.828,-8.12
43.843,-9.42
43.859,-10.7
43.875,-11.78
43.890,-12.58
43.906,-13.12
43.921,-13.48
43.937,-13.61
43.953,-13.39
43.968,-12.65
43.984,-11.33
44.000,-9.43
44.015,-7.16
44.031,-4.76
44.046,-2.52
44.062,-0.56
44.078,1.08
44.093,2.44
44.109,3.65
44.125,4.73
44.140,5.72
44.156,6.61
44.171,7.38
44.187,8.03
44.203,8.55
44.218,8.98
44.234,9.29
44.250,9.44
44.265,9.38
44.281,9.1
44.296,8.61
44.312,8.02
44.328,7.45
44.343,7.05
44.359,6.91
44.375,7.08
44.390,7.54
44.406,8.15
44.421,8.77
44.437,9.22
44.453,9.43
44.468,9.41
44.484,9.15
44.500,8.72
44.515,8.05
44.531,7.13
44.546,5.9
44.562,4.43
44.578,2.79
44.593,1.2
44.609,-0.15
44.625,-1.2
44.640,-1.91
44.656,-2.41
44.671,-2.79
44.687,-3.2
44.703,-3.69
44.718,-4.27
44.734,-4.95
44.750,-5.73
44.765,-6.62
44.781,-7.62
44.796,-8.72
44.812,-9.82
44.828,-10.83
44.843,-11.73
44.859,-12.54
44.875,-13.39
44.890,-14.39
44.906,-15.54
44.921,-16.73
44.937,-17.73
44.953,-18.25
44.968,-18.1
44.984,-17.16
45.000,-15.42
45.015,-13.06
45.031,-10.37
45.046,-7.66
45.062,-5.23
45.078,-3.28
45.093,-1.88
45.109,-0.88
45.125,-0.06
45.140,0.88
45.156,2.04
45.171,3.43
45.187,4.88
45.203,6.19
45.218,7.18
45.234,7.81
45.250,8.18
45.265,8.39
45.281,8.61
45.296,8.82
45.312,8.98
45.328,9.08
45.343,9.16
45.359,9.35
45.375,9.73
45.390,10.32
45.406,10.96
45.421,11.46
45.437,11.57
45.453,11.2
45.468,10.38
45.484,9.32
45.500,8.26
45.515,7.44
45.531,6.9
45.546,6.51
45.562,6.08
45.578,5.47
45.593,4.58
45.609,3.43
45.625,2.16
45.640,0.92
45.656,-0.18
45.671,-1.13
45.687,-1.96
45.703,-2.71
45.718,-3.33
45.734,-3.7
45.750,-3.79
45.765,-3.62
45.781,-3.37
45.796,-3.23
45.812,-3.47
45.828,-4.18
45.843,-5.26
45.859,-6.49
45.875,-7.6
45.890,-8.38
45.906,-8.87
45.921,-9.2
45.937,-9.62
45.953,-10.32
45.968,-11.36
45.984,-12.63
46.000,-14.01
46.015,-15.35
46.031,-16.51
46.046,-17.37
46.062,-17.77
46.078,-17.58
46.093,-16.56
46.109,-14.66
46.125,-11.95
46.140,-8.71
46.156,-5.37
46.171,-2.46
46.187,-0.27
46.203,1.1
46.218,1.83
46.234,2.23
46.250,2.56
46.265,2.96
46.281,3.46
46.296,4.01
46.312,4.54
46.328,5.1
46.343,5.78
46.359,6.63
46.375,7.57
46.390,8.51
46.406,9.26
46.421,9.81
46.437,10.13
46.453,10.33
46.468,10.51
46.484,10.74
46.500,11.0
46.515,11.17
46.531,11.13
46.546,10.71
46.562,9.9
46.578,8.76
46.593,7.49
46.609,6.36
46.625,5.51
46.640,4.98
46.656,4.65
46.671,4.33
46.687,3.87
46.703,3.25
46.718,2.57
46.734,2.03
46.750,1.73
46.765,1.62
46.781,1.53
46.796,1.25
46.812,0.68
46.828,-0.24
46.843,-1.47
46.859,-2.92
46.875,-4.5
46.890,-6.19
46.906,-7.97
46.921,-9.81
46.937,-11.7
46.953,-13.54
46.968,-15.26
46.984,-16.72
47.000,-17.82
47.015,-18.47
47.031,-18.63
47.046,-18.31
47.062,-17.49
47.078,-16.2
47.093,-14.43
47.109,-12.19
47.125,-9.51
47.140,-6.5
47.156,-3.4
47.171,-0.49
47.187,1.94
47.203,3.72
47.218,4.86
47.234,5.53
47.250,5.98
47.265,6.43
47.281,6.99
47.296,7.58
47.312,8.05
47.328,8.26
47.343,8.14
47.359,7.83
47.375,7.48
47.390,7.26
47.406,7.24
47.421,7.35
47.437,7.46
47.453,7.47
47.468,7.33
47.484,7.13
47.500,6.93
47.515,6.86
47.531,6.9
47.546,6.95
47.562,6.93
47.578,6.7
47.593,6.36
47.609,5.93
47.625,5.5
47.640,5.1
47.656,4.74
47.671,4.36
47.687,3.87
47.703,3.22
47.718,2.41
47.734,1.56
47.750,0.83
47.765,0.33
47.781,0.1
47.796,0.07
47.812,0.07
47.828,-0.07
47.843,-0.57
47.859,-1.5
47.875,-2.77
47.890,-4.22
47.906,-5.67
47.921,-7.03
47.937,-8.34
47.953,-9.6
47.968,-10.87
47.984,-12.14
48.000,-13.35
48.015,-14.31
48.031,-14.87
48.046,-14.94
48.062,-14.55
48.078,-13.88
48.093,-13.03
48.109,-11.97
48.125,-10.62
48.140,-8.84
48.156,-6.5
48.171,-3.68
48.187,-0.56
48.203,2.52
48.218,5.22
48.234,7.32
48.250,8.87
48.265,10.07
48.281,11.21
48.296,12.56
48.312,14.17
48.328,16.08
48.343,18.16
48.359,20.26
48.375,22.31
48.390,24.28
48.406,26.15
48.421,27.94
48.437,29.53
48.453,30.75
48.468,31.5
48.484,31.74
48.500,31.48
48.515,30.75
48.531,29.66
48.546,28.16
48.562,26.22
48.578,23.68
48.593,20.36
48.609,16.18
48.625,11.27
48.640,5.88
48.656,0.39
48.671,-4.84
48.687,-9.48
48.703,-13.32
48.718,-16.18
48.734,-17.9
48.750,-18.44
48.765,-17.79
48.781,-16.18
48.796,-14.07
48.812,-12.07
48.828,-10.77
48.843,-10.56
48.859,-11.62
48.875,-13.84
48.890,-17.02
48.906,-20.95
48.921,-25.4
48.937,-30.09
48.953,-34.62
48.968,-38.58
48.984,-41.5
49.000,-43.16
49.015,-43.5
49.031,-42.69
49.046,-41.15
49.062,-39.27
49.078,-37.32
49.093,-35.32
49.109,-33.22
49.125,-30.86
49.140,-28.07
49.156,-24.76
49.171,-20.99
49.187,-16.92
49.203,-12.81
49.218,-8.89
49.234,-5.11
49.250,-1.33
49.265,2.9
49.281,8.01
49.296,14.15
49.312,20.94
49.328,27.63
49.343,33.5
49.359,38.17
49.375,41.92
49.390,45.46
49.406,49.67
49.421,55.12
49.437,61.58
49.453,68.0
49.468,73.01
49.484,75.79
49.500,76.54
49.515,76.54
49.531,77.62
49.546,81.46
49.562,88.98
49.578,99.59
49.593,111.4
49.609,121.99
49.625,129.41
49.640,132.99
49.656,133.23
49.671,130.93
49.687,126.67
49.703,120.4
49.718,110.75
49.734,95.52
49.750,71.99
49.765,37.61
49.781,-9.48
49.796,-70.24
49.812,-144.7
49.828,-231.29
49.843,-320.36
49.859,-396.63
49.875,-443.31
49.890,-450.04
49.906,-418.1
49.921,-358.72
49.937,-286.3
49.953,-212.6
49.968,-144.6
49.984,-84.87
50.000,-34.4
50.015,5.92
50.031,34.83
50.046,52.01
50.062,58.8
50.078,58.47
50.093,55.01
50.109,52.06
50.125,52.06
50.140,55.3
50.156,60.24
50.171,64.24
50.187,65.26
50.203,62.77
50.218,57.86
50.234,52.54
50.250,48.83
50.265,48.29
50.281,51.29
50.296,57.07
50.312,64.25
50.328,71.68
50.343,78.9
50.359,86.14
50.375,93.86
50.390,102.19
50.406,110.83
50.421,119.18
50.437,125.72
50.453,128.75
50.468,127.24
50.484,120.77
50.500,109.84
50.515,95.61
50.531,79.43
50.546,62.84
50.562,47.22
50.578,33.61
50.593,22.45
50.609,14.03
50.625,8.19
50.640,4.72
50.656,3.21
50.671,3.16
50.687,4.28
50.703,6.46
50.718,9.76
50.734,13.89
50.750,18.8
50.765,24.23
50.781,29.93
50.796,35.69
50.812,41.21
50.828,46.22
50.843,50.48
50.859,53.88
50.875,56.3
50.890,58.52
50.906,61.77
50.921,67.3
50.937,75.54
50.953,85.49
50.968,94.94
50.984,100.84
51.000,103.69
51.015,102.83
51.031,98.5
51.046,91.61
51.062,83.46
51.078,75.16
51.093,67.21
51.109,59.87
51.125,53.1
51.140,46.87
51.156,40.67
51.171,34.32
51.187,27.8
51.203,21.49
51.218,16.15
51.234,12.5
51.250,11.17
51.265,12.45
51.281,16.13
51.296,21.2
51.312,26.45
51.328,30.72
51.343,33.14
51.359,33.76
51.375,33.41
51.390,33.56
51.406,35.97
51.421,42.06
51.437,51.95
51.453,64.38
51.468,76.88
51.484,86.48
51.500,90.75
51.515,88.73
51.531,81.24
51.546,70.1
51.562,57.09
51.578,43.22
51.593,28.32
51.609,11.84
51.625,-6.88
51.640,-28.23
51.656,-51.98
51.671,-77.43
51.687,-103.63
51.703,-129.78
51.718,-155.02
51.734,-178.75
51.750,-200.84
51.765,-221.77
51.781,-241.98
51.796,-261.4
51.812,-279.11
51.828,-293.25
51.843,-301.9
51.859,-303.71
51.875,-298.23
51.890,-286.18
51.906,-269.07
51.921,-248.54
51.937,-225.75
51.953,-201.54
51.968,-176.49
51.984,-151.27
52.000,-127.03
52.015,-105.15
52.031,-86.9
52.046,-72.9
52.062,-62.88
52.078,-55.72
52.093,-50.18
52.109,-45.15
52.125,-39.54
52.140,-32.01
52.156,-20.53
52.171,-2.58
52.187,23.89
52.203,58.9
52.218,99.6
52.234,140.61
52.250,175.94
52.265,201.01
52.281,214.29
52.296,217.35
52.312,213.7
52.328,206.69
52.343,198.18
52.359,188.36
52.375,176.61
52.390,162.63
52.406,147.11
52.421,131.51
52.437,117.31
52.453,105.42
52.468,95.74
52.484,87.46
52.500,79.45
52.515,70.87
52.531,61.52
52.546,51.63
52.562,41.74
52.578,31.99
52.593,22.01
52.609,10.89
52.625,-2.33
52.640,-18.0
52.656,-35.51
52.671,-53.02
52.687,-68.05
52.703,-78.06
52.718,-81.4
52.734,-77.89
52.750,-68.9
52.765,-56.87
52.781,-44.2
52.796,-32.45
52.812,-21.8
52.828,-11.46
52.843,-0.29
52.859,12.6
52.875,28.11
52.890,47.22
52.906,70.68
52.921,98.38
52.937,128.13
52.953,155.56
52.968,175.26
52.984,183.14
53.000,178.31
53.015,163.75
53.031,144.93
53.046,127.1
53.062,113.18
53.078,102.77
53.093,93.41
53.109,82.49
53.125,68.77
53.140,52.63
53.156,35.13
53.171,17.18
53.187,-0.87
53.203,-18.92
53.218,-36.82
53.234,-54.28
53.250,-71.06
53.265,-87.24
53.281,-103.5
53.296,-120.9
53.312,-140.36
53.328,-162.3
53.343,-186.31
53.359,-211.47
53.375,-236.57
53.390,-260.33
53.406,-281.25
53.421,-297.76
53.437,-308.19
53.453,-311.33
53.468,-306.94
53.484,-295.84
53.500,-279.72
53.515,-260.5
53.531,-240.06
53.546,-219.92
53.562,-201.3
53.578,-185.17
53.593,-172.12
53.609,-162.01
53.625,-153.88
53.640,-146.13
53.656,-137.28
53.671,-126.71
53.687,-114.92
53.703,-103.05
53.718,-92.05
53.734,-82.02
53.750,-72.2
53.765,-61.41
53.781,-49.13
53.796,-35.78
53.812,-22.57
53.828,-10.76
53.843,-0.96
53.859,6.95
53.875,13.45
53.890,18.51
53.906,21.39
53.921,20.77
53.937,15.58
53.953,5.97
53.968,-6.11
53.984,-17.22
54.000,-23.68
54.015,-22.66
54.031,-13.33
54.046,3.0
54.062,23.6
54.078,45.4
54.093,65.85
54.109,83.07
54.125,96.0
54.140,103.77
54.156,105.94
54.171,102.69
54.187,95.24
54.203,86.06
54.218,78.63
54.234,76.34
54.250,81.38
54.265,94.35
54.281,113.82
54.296,136.93
54.312,159.93
54.328,178.86
54.343,190.34
54.359,191.88
54.375,182.15
54.390,160.97
54.406,129.16
54.421,88.27
54.437,40.33
54.453,-12.37
54.468,-67.44
54.484,-122.34
54.500,-174.61
54.515,-221.8
54.531,-261.59
54.546,-292.12
54.562,-312.33
54.578,-322.11
54.593,-322.45
54.609,-315.15
54.625,-302.21
54.640,-285.6
54.656,-266.55
54.671,-245.52
54.687,-222.44
54.703,-197.35
54.718,-170.52
54.734,-142.6
54.750,-114.4
54.765,-86.49
54.781,-59.67
54.796,-34.92
54.812,-13.65
54.828,2.76
54.843,13.53
54.859,19.35
54.875,22.65
54.890,26.75
54.906,34.73
54.921,47.7
54.937,64.35
54.953,81.54
54.968,96.08
54.984,106.34
55.000,112.73
55.015,117.04
55.031,120.67
55.046,123.67
55.062,124.51
55.078,121.55
55.093,114.17
55.109,103.83
55.125,93.52
55.140,86.18
55.156,83.31
55.171,84.35
55.187,87.26
55.203,89.61
55.218,89.96
55.234,88.04
55.250,84.5
55.265,80.39
55.281,76.35
55.296,72.56
55.312,68.64
55.328,64.24
55.343,59.2
55.359,53.67
55.375,48.19
55.390,43.24
55.406,39.16
55.421,35.92
55.437,33.3
55.453,30.85
55.468,28.2
55.484,25.28
55.500,22.24
55.515,19.4
55.531,17.13
55.546,15.71
55.562,15.03
55.578,14.79
55.593,14.48
55.609,13.56
55.625,11.7
55.640,8.92
55.656,5.5
55.671,1.99
55.687,-0.89
55.703,-2.66
55.718,-2.98
55.734,-1.78
55.750,0.77
55.765,4.39
55.781,8.76
55.796,13.53
55.812,18.24
55.828,22.45
55.843,25.79
55.859,28.01
55.875,29.04
55.890,29.15
55.906,28.84
55.921,28.64
55.937,28.98
55.953,30.19
55.968,32.18
55.984,34.73
56.000,37.62
56.015,40.5
56.031,43.13
56.046,45.4
56.062,47.11
56.078,48.1
56.093,48.46
56.109,48.25
56.125,47.68
56.140,47.09
56.156,46.74
56.171,46.86
56.187,47.55
56.203,48.8
56.218,50.37
56.234,52.07
56.250,53.55
56.265,54.58
56.281,55.02
56.296,54.77
56.312,53.97
56.328,52.7
56.343,51.03
56.359,49.03
56.375,46.83
56.390,44.56
56.406,42.48
56.421,40.79
56.437,39.54
56.453,38.7
56.468,38.08
56.484,37.4
56.500,36.58
56.515,35.67
56.531,34.91
56.546,34.59
56.562,34.96
56.578,36.03
56.593,37.64
56.609,39.54
56.625,41.62
56.640,44.03
56.656,47.29
56.671,52.11
56.687,59.09
56.703,68.57
56.718,80.34
56.734,93.75
56.750,107.85
56.765,121.83
56.781,135.31
56.796,148.22
56.812,160.88
56.828,173.65
56.843,186.69
56.859,199.94
56.875,213.17
56.890,225.93
56.906,237.65
56.921,247.31
56.937,253.63
56.953,255.2
56.968,251.15
56.984,241.49
57.000,227.35
57.015,210.39
57.031,191.99
57.046,172.58
57.062,151.39
57.078,127.38
57.093,99.98
57.109,69.77
57.125,38.15
57.140,6.66
57.156,-23.89
57.171,-53.55
57.187,-82.77
57.203,-111.66
57.218,-139.23
57.234,-163.82
57.250,-183.6
57.265,-197.57
57.281,-205.86
57.296,-209.68
57.312,-210.67
57.328,-210.27
57.343,-209.75
57.359,-210.03
57.375,-212.05
57.390,-216.59
57.406,-223.93
57.421,-233.55
57.437,-243.96
57.453,-253.14
57.468,-258.94
57.484,-259.92
57.500,-255.55
57.515,-246.13
57.531,-232.6
57.546,-216.05
57.562,-197.77
57.578,-179.18
57.593,-162.06
57.609,-147.97
57.625,-137.92
57.640,-131.81
57.656,-128.43
57.671,-125.96
57.687,-122.71
57.703,-117.74
57.718,-110.76
57.734,-102.08
57.750,-91.88
57.765,-80.16
57.781,-66.57
57.796,-50.96
57.812,-33.5
57.828,-14.85
57.843,4.06
57.859,22.52
57.875,39.92
57.890,55.97
57.906,70.33
57.921,82.68
57.937,92.7
57.953,100.31
57.968,105.81
57.984,109.76
58.000,112.7
58.015,114.83
58.031,115.94
58.046,115.53
58.062,113.28
58.078,109.3
58.093,104.14
58.109,98.52
58.125,93.1
58.140,88.08
58.156,83.22
58.171,77.96
58.187,71.38
58.203,62.5
58.218,50.56
58.234,35.3
58.250,17.17
58.265,-2.47
58.281,-21.75
58.296,-38.78
58.312,-52.16
58.328,-61.44
58.343,-66.86
58.359,-68.89
58.375,-68.04
58.390,-64.52
58.406,-58.52
58.421,-50.55
58.437,-41.52
58.453,-32.65
58.468,-25.2
58.484,-20.1
58.500,-17.8
58.515,-18.35
58.531,-21.42
58.546,-26.42
58.562,-32.54
58.578,-38.67
58.593,-43.59
58.609,-46.12
58.625,-45.22
58.640,-40.08
58.656,-30.58
58.671,-17.14
58.687,-0.85
58.703,16.6
58.718,33.3
58.734,47.44
58.750,57.55
58.765,63.0
58.781,63.94
58.796,61.2
58.812,56.28
58.828,50.77
58.843,46.07
58.859,43.14
58.875,42.36
58.890,43.38
58.906,45.29
58.921,46.68
58.937,45.97
58.953,41.93
58.968,33.95
58.984,22.23
59.000,7.79
59.015,-7.64
59.031,-21.96
59.046,-32.96
59.062,-38.87
59.078,-38.39
59.093,-31.11
59.109,-17.79
59.125,-0.32
59.140,18.82
59.156,37.09
59.171,52.59
59.187,64.33
59.203,71.76
59.218,74.6
59.234,72.39
59.250,64.58
59.265,51.0
59.281,32.35
59.296,10.17
59.312,-13.54
59.328,-36.85
59.343,-58.49
59.359,-78.0
59.375,-95.45
59.390,-110.89
59.406,-124.04
59.421,-134.21
59.437,-140.8
59.453,-143.75
59.468,-143.49
59.484,-140.73
59.500,-135.95
59.515,-129.07
59.531,-119.66
59.546,-107.43
59.562,-92.77
59.578,-76.81
59.593,-61.05
59.609,-46.87
59.625,-34.94
59.640,-25.19
59.656,-17.24
59.671,-10.64
59.687,-5.3
59.703,-1.23
59.718,1.69
59.734,3.68
59.750,5.0
59.765,5.84
59.781,6.17
59.796,5.83
59.812,4.72
59.828,2.76
59.843,0.02
59.859,-3.17
59.875,-6.5
59.890,-9.53
59.906,-11.79
59.921,-12.83
59.937,-12.31
59.953,-10.07
59.968,-6.17
59.984,-0.81
