timestamp,value
00.000,-13.46
00.015,-15.54
00.031,-17.91
00.046,-20.46
00.062,-22.74
00.078,-24.2
00.093,-24.34
00.109,-22.79
00.125,-19.57
00.140,-15.0
00.156,-9.68
00.171,-4.15
00.187,1.06
00.203,5.69
00.218,9.55
00.234,12.43
00.250,14.23
00.265,14.84
00.281,14.35
00.296,13.03
00.312,11.31
00.328,9.69
00.343,8.53
00.359,8.06
00.375,8.2
00.390,8.91
00.406,10.04
00.421,11.47
00.437,13.13
00.453,14.97
00.468,16.82
00.484,18.46
00.500,19.76
00.515,20.51
00.531,20.68
00.546,20.27
00.562,19.38
00.578,18.25
00.593,17.12
00.609,16.13
00.625,15.32
00.640,14.61
00.656,13.77
00.671,12.65
00.687,11.12
00.703,9.14
00.718,6.78
00.734,4.12
00.750,1.21
00.765,-1.83
00.781,-4.69
00.796,-6.94
00.812,-8.11
00.828,-7.85
00.843,-6.1
00.859,-3.06
00.875,0.79
00.890,4.87
00.906,8.7
00.921,11.91
00.937,14.26
00.953,15.6
00.968,15.93
00.984,15.18
01.000,13.53
01.015,11.21
01.031,8.53
01.046,5.84
01.062,3.44
01.078,1.44
01.093,-0.17
01.109,-1.45
01.125,-2.64
01.140,-3.84
01.156,-5.13
01.171,-6.52
01.187,-7.93
01.203,-9.28
01.218,-10.61
01.234,-11.93
01.250,-13.24
01.265,-14.65
01.281,-16.23
01.296,-18.06
01.312,-20.18
01.328,-22.52
01.343,-24.92
01.359,-27.17
01.375,-29.05
01.390,-30.39
01.406,-31.2
01.421,-31.58
01.437,-31.66
01.453,-31.72
01.468,-31.89
01.484,-32.32
01.500,-33.04
01.515,-33.84
01.531,-34.37
01.546,-34.24
01.562,-33.11
01.578,-30.78
01.593,-27.45
01.609,-23.45
01.625,-19.24
01.640,-15.23
01.656,-11.66
01.671,-8.62
01.687,-6.12
01.703,-4.0
01.718,-2.13
01.734,-0.46
01.750,1.12
01.765,2.61
01.781,3.95
01.796,5.15
01.812,6.16
01.828,7.0
01.843,7.67
01.859,8.23
01.875,8.65
01.890,8.99
01.906,9.27
01.921,9.45
01.937,9.58
01.953,9.49
01.968,9.03
01.984,8.04
02.000,6.5
02.015,4.46
02.031,2.19
02.046,-0.05
02.062,-2.09
02.078,-3.73
02.093,-4.99
02.109,-5.93
02.125,-6.57
02.140,-7.0
02.156,-7.33
02.171,-7.72
02.187,-8.3
02.203,-9.15
02.218,-10.04
02.234,-10.73
02.250,-10.86
02.265,-9.98
02.281,-7.89
02.296,-4.55
02.312,-0.18
02.328,4.76
02.343,9.73
02.359,14.3
02.375,18.16
02.390,21.13
02.406,23.24
02.421,24.46
02.437,24.97
02.453,24.9
02.468,24.47
02.484,23.85
02.500,23.27
02.515,22.81
02.531,22.5
02.546,22.31
02.562,22.09
02.578,21.76
02.593,21.26
02.609,20.48
02.625,19.43
02.640,18.1
02.656,16.49
02.671,14.61
02.687,12.5
02.703,10.15
02.718,7.59
02.734,4.88
02.750,1.93
02.765,-1.24
02.781,-4.66
02.796,-8.32
02.812,-12.18
02.828,-16.1
02.843,-19.9
02.859,-23.46
02.875,-26.72
02.890,-29.74
02.906,-32.6
02.921,-35.43
02.937,-38.16
02.953,-40.55
02.968,-42.25
02.984,-42.84
03.000,-41.98
03.015,-39.47
03.031,-35.34
03.046,-29.74
03.062,-23.13
03.078,-16.04
03.093,-8.99
03.109,-2.56
03.125,2.86
03.140,7.18
03.156,10.55
03.171,13.22
03.187,15.43
03.203,17.17
03.218,18.34
03.234,18.84
03.250,18.56
03.265,17.61
03.281,16.22
03.296,14.71
03.312,13.3
03.328,12.12
03.343,11.16
03.359,10.41
03.375,9.88
03.390,9.54
03.406,9.36
03.421,9.29
03.437,9.22
03.453,9.05
03.468,8.65
03.484,7.9
03.500,6.76
03.515,5.26
03.531,3.47
03.546,1.65
03.562,0.03
03.578,-1.3
03.593,-2.34
03.609,-3.23
03.625,-4.26
03.640,-5.68
03.656,-7.63
03.671,-10.16
03.687,-13.06
03.703,-16.03
03.718,-18.7
03.734,-20.54
03.750,-21.12
03.765,-20.15
03.781,-17.5
03.796,-13.34
03.812,-8.14
03.828,-2.53
03.843,2.85
03.859,7.44
03.875,11.02
03.890,13.59
03.906,15.32
03.921,16.48
03.937,17.23
03.953,17.66
03.968,17.7
03.984,17.34
04.000,16.58
04.015,15.54
04.031,14.39
04.046,13.3
04.062,12.43
04.078,11.8
04.093,11.36
04.109,11.01
04.125,10.65
04.140,10.22
04.156,9.74
04.171,9.2
04.187,8.59
04.203,7.92
04.218,7.08
04.234,5.97
04.250,4.51
04.265,2.65
04.281,0.41
04.296,-2.08
04.312,-4.58
04.328,-6.88
04.343,-8.71
04.359,-9.99
04.375,-10.79
04.390,-11.33
04.406,-12.02
04.421,-13.23
04.437,-15.15
04.453,-17.61
04.468,-20.16
04.484,-22.1
04.500,-22.77
04.515,-21.73
04.531,-18.91
04.546,-14.64
04.562,-9.48
04.578,-3.98
04.593,1.34
04.609,6.17
04.625,10.31
04.640,13.58
04.656,15.89
04.671,17.26
04.687,17.72
04.703,17.55
04.718,17.03
04.734,16.44
04.750,16.0
04.765,15.88
04.781,16.07
04.796,16.49
04.812,17.04
04.828,17.6
04.843,18.15
04.859,18.67
04.875,19.07
04.890,19.32
04.906,19.24
04.921,18.66
04.937,17.48
04.953,15.74
04.968,13.59
04.984,11.22
05.000,8.81
05.015,6.32
05.031,3.75
05.046,1.07
05.062,-1.67
05.078,-4.38
05.093,-6.97
05.109,-9.48
05.125,-12.02
05.140,-14.76
05.156,-17.81
05.171,-21.11
05.187,-24.54
05.203,-27.82
05.218,-30.65
05.234,-32.62
05.250,-33.4
05.265,-32.61
05.281,-30.1
05.296,-25.91
05.312,-20.41
05.328,-14.18
05.343,-7.86
05.359,-2.03
05.375,2.93
05.390,6.87
05.406,9.87
05.421,12.1
05.437,13.75
05.453,14.98
05.468,15.86
05.484,16.39
05.500,16.67
05.515,16.8
05.531,16.9
05.546,17.07
05.562,17.33
05.578,17.57
05.593,17.65
05.609,17.54
05.625,17.31
05.640,17.13
05.656,17.11
05.671,17.17
05.687,17.08
05.703,16.48
05.718,15.11
05.734,12.87
05.750,9.91
05.765,6.53
05.781,3.0
05.796,-0.47
05.812,-3.92
05.828,-7.39
05.843,-10.95
05.859,-14.58
05.875,-18.16
05.890,-21.56
05.906,-24.54
05.921,-26.93
05.937,-28.51
05.953,-29.14
05.968,-28.65
05.984,-26.95
06.000,-24.1
06.015,-20.27
06.031,-15.81
06.046,-11.1
06.062,-6.56
06.078,-2.47
06.093,0.94
06.109,3.61
06.125,5.55
06.140,6.83
06.156,7.56
06.171,7.71
06.187,7.4
06.203,6.66
06.218,5.64
06.234,4.45
06.250,3.2
06.265,1.95
06.281,0.62
06.296,-0.75
06.312,-2.2
06.328,-3.62
06.343,-4.92
06.359,-5.94
06.375,-6.63
06.390,-7.01
06.406,-7.21
06.421,-7.41
06.437,-7.71
06.453,-8.11
06.468,-8.51
06.484,-8.83
06.500,-8.95
06.515,-8.9
06.531,-8.79
06.546,-8.75
06.562,-8.98
06.578,-9.55
06.593,-10.57
06.609,-12.02
06.625,-13.92
06.640,-16.13
06.656,-18.48
06.671,-20.71
06.687,-22.43
06.703,-23.19
06.718,-22.59
06.734,-20.39
06.750,-16.6
06.765,-11.56
06.781,-5.86
06.796,-0.22
06.812,4.74
06.828,8.67
06.843,11.49
06.859,13.37
06.875,14.53
06.890,15.17
06.906,15.44
06.921,15.4
06.937,15.14
06.953,14.79
06.968,14.52
06.984,14.46
07.000,14.63
07.015,14.98
07.031,15.34
07.046,15.54
07.062,15.5
07.078,15.13
07.093,14.46
07.109,13.46
07.125,12.0
07.140,9.99
07.156,7.48
07.171,4.59
07.187,1.57
07.203,-1.33
07.218,-4.03
07.234,-6.52
07.250,-8.89
07.265,-11.16
07.281,-13.35
07.296,-15.37
07.312,-17.26
07.328,-19.17
07.343,-21.3
07.359,-23.79
07.375,-26.5
07.390,-28.98
07.406,-30.53
07.421,-30.53
07.437,-28.57
07.453,-24.75
07.468,-19.59
07.484,-13.85
07.500,-8.34
07.515,-3.57
07.531,0.26
07.546,3.2
07.562,5.38
07.578,6.85
07.593,7.55
07.609,7.4
07.625,6.54
07.640,5.27
07.656,4.11
07.671,3.51
07.687,3.69
07.703,4.59
07.718,5.9
07.734,7.17
07.750,8.0
07.765,8.32
07.781,8.15
07.796,7.76
07.812,7.32
07.828,6.92
07.843,6.49
07.859,5.81
07.875,4.65
07.890,2.98
07.906,0.98
07.921,-1.17
07.937,-3.2
07.953,-5.0
07.968,-6.56
07.984,-7.94
08.000,-9.19
08.015,-10.42
08.031,-11.78
08.046,-13.39
08.062,-15.39
08.078,-17.71
08.093,-19.96
08.109,-21.37
08.125,-21.16
08.140,-18.7
08.156,-13.77
08.171,-6.73
08.187,1.66
08.203,10.34
08.218,18.35
08.234,25.01
08.250,29.91
08.265,33.0
08.281,34.35
08.296,34.24
08.312,32.97
08.328,30.94
08.343,28.51
08.359,26.06
08.375,23.9
08.390,22.25
08.406,21.16
08.421,20.54
08.437,20.16
08.453,19.84
08.468,19.39
08.484,18.73
08.500,17.88
08.515,16.89
08.531,15.83
08.546,14.68
08.562,13.28
08.578,11.36
08.593,8.69
08.609,5.21
08.625,1.09
08.640,-3.34
08.656,-7.69
08.671,-11.74
08.687,-15.35
08.703,-18.66
08.718,-21.92
08.734,-25.35
08.750,-29.09
08.765,-33.05
08.781,-36.92
08.796,-40.12
08.812,-41.98
08.828,-41.75
08.843,-38.96
08.859,-33.66
08.875,-26.37
08.890,-18.09
08.906,-9.84
08.921,-2.47
08.937,3.57
08.953,8.11
08.968,11.22
08.984,12.96
09.000,13.42
09.015,12.7
09.031,10.95
09.046,8.55
09.062,5.92
09.078,3.5
09.093,1.5
09.109,-0.02
09.125,-1.29
09.140,-2.56
09.156,-4.01
09.171,-5.76
09.187,-7.72
09.203,-9.73
09.218,-11.69
09.234,-13.65
09.250,-15.64
09.265,-17.88
09.281,-20.46
09.296,-23.38
09.312,-26.6
09.328,-30.11
09.343,-34.02
09.359,-38.47
09.375,-43.6
09.390,-49.35
09.406,-55.56
09.421,-61.92
09.437,-68.2
09.453,-74.28
09.468,-80.09
09.484,-85.55
09.500,-90.36
09.515,-93.92
09.531,-95.6
09.546,-94.96
09.562,-91.88
09.578,-86.64
09.593,-79.84
09.609,-72.05
09.625,-63.93
09.640,-56.23
09.656,-49.77
09.671,-45.43
09.687,-43.9
09.703,-45.37
09.718,-49.41
09.734,-55.14
09.750,-61.33
09.765,-67.02
09.781,-71.68
09.796,-75.36
09.812,-78.39
09.828,-81.22
09.843,-84.19
09.859,-87.42
09.875,-90.95
09.890,-94.72
09.906,-98.59
09.921,-102.3
09.937,-105.46
09.953,-107.69
09.968,-108.52
09.984,-107.78
10.000,-105.6
10.015,-102.55
10.031,-99.46
10.046,-97.25
10.062,-96.52
10.078,-97.36
10.093,-99.41
10.109,-101.77
10.125,-103.29
10.140,-102.65
10.156,-98.65
10.171,-90.34
10.187,-77.21
10.203,-59.33
10.218,-37.37
10.234,-12.49
10.250,13.93
10.265,40.71
10.281,67.16
10.296,93.06
10.312,118.48
10.328,143.22
10.343,166.57
10.359,187.23
10.375,203.78
10.390,215.23
10.406,221.49
10.421,223.31
10.437,221.96
10.453,218.69
10.468,214.39
10.484,209.53
10.500,204.52
10.515,200.09
10.531,197.28
10.546,197.21
10.562,200.37
10.578,206.39
10.593,213.89
10.609,221.05
10.625,226.22
10.640,228.54
10.656,227.98
10.671,225.18
10.687,220.99
10.703,216.19
10.718,211.31
10.734,206.49
10.750,201.35
10.765,194.72
10.781,184.65
10.796,168.74
10.812,145.21
10.828,113.99
10.843,77.44
10.859,40.16
10.875,7.67
10.890,-15.42
10.906,-26.82
10.921,-27.17
10.937,-19.47
10.953,-7.64
10.968,4.82
10.984,15.58
11.000,23.69
11.015,29.05
11.031,31.97
11.046,32.81
11.062,31.83
11.078,29.22
11.093,25.09
11.109,19.39
11.125,11.8
11.140,1.72
11.156,-11.6
11.171,-28.74
11.187,-49.75
11.203,-73.83
11.218,-99.38
11.234,-124.39
11.250,-147.29
11.265,-167.4
11.281,-184.99
11.296,-200.66
11.312,-214.44
11.328,-225.48
11.343,-232.47
11.359,-234.6
11.375,-232.26
11.390,-227.19
11.406,-221.53
11.421,-216.66
11.437,-212.25
11.453,-206.22
11.468,-195.35
11.484,-176.57
11.500,-147.98
11.515,-109.3
11.531,-62.27
11.546,-10.48
11.562,41.3
11.578,88.15
11.593,126.34
11.609,154.48
11.625,174.25
11.640,188.74
11.656,200.28
11.671,208.08
11.687,207.53
11.703,192.53
11.718,158.52
11.734,105.66
11.750,39.7
11.765,-29.7
11.781,-93.25
11.796,-145.63
11.812,-186.78
11.828,-220.16
11.843,-248.95
11.859,-273.79
11.875,-292.36
11.890,-301.65
11.906,-300.45
11.921,-291.62
11.937,-281.19
11.953,-275.2
11.968,-276.69
11.984,-282.7
12.000,-285.98
12.015,-278.34
12.031,-253.93
12.046,-210.36
12.062,-150.45
12.078,-80.66
12.093,-8.23
12.109,60.21
12.125,122.72
12.140,180.01
12.156,233.15
12.171,282.46
12.187,329.8
12.203,375.84
12.218,420.25
12.234,462.58
12.250,500.33
12.265,534.15
12.281,563.86
12.296,586.41
12.312,597.69
12.328,599.24
12.343,594.46
12.359,587.29
12.375,580.82
12.390,572.66
12.406,563.45
12.421,554.03
12.437,545.18
12.453,540.35
12.468,550.5
12.484,583.0
12.500,635.62
12.515,695.5
12.531,739.9
12.546,755.55
12.562,740.11
12.578,701.15
12.593,610.67
12.609,460.86
12.625,263.74
12.640,48.32
12.656,-120.65
12.671,-237.77
12.687,-313.04
12.703,-355.53
12.718,-380.05
12.734,-390.54
12.750,-381.51
12.765,-349.44
12.781,-296.97
12.796,-241.96
12.812,-206.4
12.828,-200.5
12.843,-223.38
12.859,-266.0
12.875,-314.55
12.890,-352.93
12.906,-368.41
12.921,-363.85
12.937,-346.66
12.953,-327.18
12.968,-308.75
12.984,-292.19
13.000,-280.44
13.015,-279.3
13.031,-292.89
13.046,-324.12
13.062,-373.15
13.078,-435.06
13.093,-502.95
13.109,-565.04
13.125,-608.39
13.140,-622.93
13.156,-601.95
13.171,-541.86
13.187,-444.59
13.203,-318.73
13.218,-178.18
13.234,-40.93
13.250,76.48
13.265,162.3
13.281,209.86
13.296,218.33
13.312,192.37
13.328,139.68
13.343,68.63
13.359,-12.96
13.375,-99.06
13.390,-184.95
13.406,-266.28
13.421,-333.47
13.437,-374.84
13.453,-381.16
13.468,-351.16
13.484,-292.5
13.500,-217.66
13.515,-138.86
13.531,-69.4
13.546,-10.45
13.562,38.36
13.578,75.99
13.593,100.27
13.609,108.93
13.625,101.71
13.640,79.83
13.656,49.1
13.671,17.83
13.687,-5.06
13.703,-14.5
13.718,-10.4
13.734,3.54
13.750,22.4
13.765,43.24
13.781,66.01
13.796,92.33
13.812,122.13
13.828,152.44
13.843,176.77
13.859,188.68
13.875,185.6
13.890,170.69
13.906,151.72
13.921,137.27
13.937,132.96
13.953,138.45
13.968,148.37
13.984,154.49
14.000,150.24
14.015,133.67
14.031,107.99
14.046,80.01
14.062,57.31
14.078,45.53
14.093,46.38
14.109,57.67
14.125,73.87
14.140,88.27
14.156,95.08
14.171,90.42
14.187,72.79
14.203,42.89
14.218,3.03
14.234,-43.63
14.250,-93.44
14.265,-142.59
14.281,-187.01
14.296,-222.48
14.312,-245.35
14.328,-253.25
14.343,-245.76
14.359,-224.43
14.375,-191.96
14.390,-151.28
14.406,-104.74
14.421,-54.36
14.437,-2.7
14.453,46.18
14.468,87.06
14.484,115.0
14.500,127.52
14.515,125.72
14.531,113.55
14.546,95.32
14.562,72.92
14.578,45.07
14.593,8.96
14.609,-36.37
14.625,-87.44
14.640,-136.26
14.656,-173.25
14.671,-191.24
14.687,-188.36
14.703,-167.83
14.718,-135.72
14.734,-97.99
14.750,-58.91
14.765,-21.08
14.781,13.3
14.796,41.92
14.812,62.96
14.828,76.3
14.843,84.29
14.859,91.22
14.875,101.41
14.890,117.24
14.906,138.12
14.921,160.49
14.937,178.96
14.953,187.9
14.968,183.01
14.984,162.69
15.000,129.14
15.015,88.19
15.031,48.08
15.046,16.86
15.062,-0.56
15.078,-3.91
15.093,2.71
15.109,13.14
15.125,22.05
15.140,26.94
15.156,28.28
15.171,28.28
15.187,29.01
15.203,31.03
15.218,33.39
15.234,34.41
15.250,33.25
15.265,31.43
15.281,33.26
15.296,44.5
15.312,69.68
15.328,109.2
15.343,157.4
15.359,203.37
15.375,234.28
15.390,240.18
15.406,217.81
15.421,171.6
15.437,111.4
15.453,48.36
15.468,-8.74
15.484,-55.11
15.500,-89.53
15.515,-112.88
15.531,-126.84
15.546,-133.31
15.562,-134.63
15.578,-133.57
15.593,-133.13
15.609,-135.92
15.625,-143.57
15.640,-156.37
15.656,-173.25
15.671,-192.1
15.687,-210.34
15.703,-225.67
15.718,-236.66
15.734,-242.98
15.750,-244.97
15.765,-242.91
15.781,-236.07
15.796,-222.46
15.812,-199.75
15.828,-166.51
15.843,-123.4
15.859,-73.35
15.875,-20.61
15.890,30.6
15.906,77.25
15.921,117.61
15.937,151.19
15.953,177.94
15.968,197.96
15.984,211.41
16.000,218.6
16.015,220.08
16.031,216.51
16.046,208.92
16.062,198.81
16.078,188.35
16.093,179.98
16.109,175.57
16.125,175.49
16.140,178.05
16.156,179.92
16.171,177.1
16.187,166.3
16.203,145.97
16.218,116.66
16.234,80.48
16.250,40.64
16.265,0.85
16.281,-35.35
16.296,-65.13
16.312,-87.02
16.328,-101.16
16.343,-108.89
16.359,-111.96
16.375,-111.46
16.390,-107.16
16.406,-98.06
16.421,-83.49
16.437,-64.33
16.453,-43.09
16.468,-22.98
16.484,-6.28
16.500,6.78
16.515,17.89
16.531,29.28
16.546,41.93
16.562,54.57
16.578,64.4
16.593,68.43
16.609,65.03
16.625,54.89
16.640,40.29
16.656,23.67
16.671,6.31
16.687,-12.14
16.703,-32.9
16.718,-56.69
16.734,-82.93
16.750,-109.92
16.765,-135.21
16.781,-156.78
16.796,-173.82
16.812,-187.09
16.828,-198.96
16.843,-212.35
16.859,-229.17
16.875,-250.02
16.890,-273.95
16.906,-298.07
16.921,-318.18
16.937,-329.74
16.953,-328.81
16.968,-313.69
16.984,-284.73
17.000,-242.97
17.015,-191.73
17.031,-136.76
17.046,-84.04
17.062,-38.11
17.078,-0.53
17.093,31.05
17.109,60.47
17.125,92.57
17.140,133.57
17.156,185.57
17.171,244.33
17.187,302.47
17.203,352.0
17.218,386.9
17.234,404.66
17.250,403.67
17.265,384.31
17.281,352.43
17.296,312.94
17.312,267.54
17.328,218.0
17.343,166.54
17.359,115.93
17.375,68.77
17.390,23.25
17.406,-24.54
17.421,-73.86
17.437,-125.44
17.453,-182.5
17.468,-245.74
17.484,-312.83
17.500,-378.6
17.515,-417.98
17.531,-409.75
17.546,-376.61
17.562,-334.2
17.578,-280.41
17.593,-219.52
17.609,-157.66
17.625,-101.87
17.640,-58.63
17.656,-32.17
17.671,-25.71
17.687,-37.63
17.703,-55.78
17.718,-66.93
17.734,-63.05
17.750,-41.02
17.765,-4.34
17.781,37.79
17.796,73.15
17.812,88.05
17.828,73.22
17.843,30.79
17.859,-31.28
17.875,-103.35
17.890,-174.54
17.906,-235.74
17.921,-281.38
17.937,-309.73
17.953,-323.41
17.968,-326.24
17.984,-319.17
18.000,-303.49
18.015,-281.93
18.031,-256.7
18.046,-228.91
18.062,-197.81
18.078,-160.98
18.093,-115.85
18.109,-60.52
18.125,6.41
18.140,83.48
18.156,166.42
18.171,250.26
18.187,330.39
18.203,402.92
18.218,463.97
18.234,508.55
18.250,530.89
18.265,526.36
18.281,493.68
18.296,437.18
18.312,367.38
18.328,298.5
18.343,243.85
18.359,211.32
18.375,201.07
18.390,206.71
18.406,218.51
18.421,227.23
18.437,226.49
18.453,212.96
18.468,185.45
18.484,144.31
18.500,91.28
18.515,30.26
18.531,-32.48
18.546,-89.29
18.562,-132.92
18.578,-158.61
18.593,-165.33
18.609,-156.0
18.625,-135.9
18.640,-110.94
18.656,-85.49
18.671,-61.25
18.687,-37.31
18.703,-11.31
18.718,18.76
18.734,52.92
18.750,88.57
18.765,121.55
18.781,147.27
18.796,162.16
18.812,164.29
18.828,153.48
18.843,130.93
18.859,99.61
18.875,64.19
18.890,30.33
18.906,3.97
18.921,-10.19
18.937,-9.54
18.953,5.71
18.968,32.25
18.984,63.79
19.000,91.73
19.015,106.71
19.031,101.1
19.046,72.03
19.062,22.78
19.078,-37.56
19.093,-97.25
19.109,-146.14
19.125,-178.85
19.140,-195.17
19.156,-197.87
19.171,-189.65
19.187,-171.38
19.203,-143.09
19.218,-105.92
19.234,-63.6
19.250,-22.26
19.265,11.86
19.281,34.44
19.296,44.0
19.312,41.36
19.328,28.17
19.343,5.5
19.359,-25.69
19.375,-63.01
19.390,-101.79
19.406,-135.27
19.421,-156.81
19.437,-162.49
19.453,-152.74
19.468,-131.97
19.484,-106.57
19.500,-82.13
19.515,-61.41
19.531,-44.27
19.546,-28.76
19.562,-13.22
19.578,2.4
19.593,16.49
19.609,27.03
19.625,33.06
19.640,35.53
19.656,37.02
19.671,40.06
19.687,45.9
19.703,53.57
19.718,60.28
19.734,62.96
19.750,59.8
19.765,51.42
19.781,40.93
19.796,32.95
19.812,31.69
19.828,39.22
19.843,54.42
19.859,73.09
19.875,89.64
19.890,99.19
19.906,99.49
19.921,91.69
19.937,79.47
19.953,67.59
19.968,60.18
19.984,59.43
20.000,65.12
20.015,74.62
20.031,83.38
20.046,85.62
20.062,75.94
20.078,51.49
20.093,14.13
20.109,-28.32
20.125,-63.29
20.140,-77.23
20.156,-60.68
20.171,-12.41
20.187,59.06
20.203,137.98
20.218,206.44
20.234,250.26
20.250,262.88
20.265,245.65
20.281,205.07
20.296,148.75
20.312,82.28
20.328,8.61
20.343,-69.97
20.359,-149.69
20.375,-223.94
20.390,-284.34
20.406,-323.79
20.421,-339.06
20.437,-332.49
20.453,-311.14
20.468,-284.35
20.484,-261.25
20.500,-248.5
20.515,-249.04
20.531,-261.07
20.546,-278.17
20.562,-290.31
20.578,-286.8
20.593,-260.65
20.609,-212.58
20.625,-151.79
20.640,-93.0
20.656,-51.0
20.671,-35.17
20.687,-46.79
20.703,-79.91
20.718,-124.64
20.734,-170.61
20.750,-208.99
20.765,-232.97
20.781,-237.58
20.796,-219.78
20.812,-179.31
20.828,-119.3
20.843,-45.73
20.859,33.56
20.875,110.58
20.890,178.82
20.906,234.3
20.921,275.54
20.937,303.48
20.953,321.02
20.968,332.22
20.984,341.71
21.000,353.53
21.015,370.6
21.031,394.35
21.046,424.5
21.062,458.37
21.078,490.71
21.093,514.45
21.109,522.28
21.125,508.95
21.140,473.17
21.156,417.96
21.171,349.4
21.187,274.5
21.203,199.06
21.218,126.63
21.234,58.76
21.250,-3.84
21.265,-59.81
21.281,-106.34
21.296,-140.34
21.312,-159.88
21.328,-165.72
21.343,-161.51
21.359,-153.12
21.375,-147.07
21.390,-148.57
21.406,-159.04
21.421,-174.91
21.437,-190.32
21.453,-199.43
21.468,-199.12
21.484,-189.14
21.500,-171.59
21.515,-149.92
21.531,-127.52
21.546,-106.41
21.562,-86.05
21.578,-65.67
21.593,-44.8
21.609,-23.89
21.625,-3.6
21.640,14.62
21.656,26.97
21.671,27.8
21.687,11.68
21.703,-22.4
21.718,-71.65
21.734,-129.63
21.750,-188.68
21.765,-241.41
21.781,-279.2
21.796,-295.32
21.812,-287.46
21.828,-267.47
21.843,-242.94
21.859,-217.62
21.875,-190.34
21.890,-162.48
21.906,-135.55
21.921,-109.52
21.937,-82.6
21.953,-51.58
21.968,-13.37
21.984,34.51
22.000,90.94
22.015,152.01
22.031,212.33
22.046,267.75
22.062,315.27
22.078,351.15
22.093,370.51
22.109,368.43
22.125,343.61
22.140,299.56
22.156,245.37
22.171,193.22
22.187,155.22
22.203,139.01
22.218,144.85
22.234,165.9
22.250,190.52
22.265,206.55
22.281,203.32
22.296,173.76
22.312,115.66
22.328,32.92
22.343,-65.22
22.359,-166.44
22.375,-258.29
22.390,-331.31
22.406,-380.37
22.421,-405.36
22.437,-409.86
22.453,-399.2
22.468,-378.26
22.484,-350.93
22.500,-320.31
22.515,-288.72
22.531,-257.56
22.546,-226.81
22.562,-194.94
22.578,-159.41
22.593,-117.89
22.609,-69.74
22.625,-17.24
22.640,34.31
22.656,78.0
22.671,107.38
22.687,118.52
22.703,111.1
22.718,88.28
22.734,55.75
22.750,20.41
22.765,-11.03
22.781,-33.28
22.796,-43.25
22.812,-40.94
22.828,-29.16
22.843,-12.71
22.859,3.18
22.875,14.39
22.890,19.09
22.906,17.82
22.921,12.81
22.937,6.91
22.953,2.41
22.968,0.55
22.984,1.41
23.000,4.15
23.015,7.19
23.031,8.7
23.046,6.87
23.062,0.49
23.078,-10.42
23.093,-24.33
23.109,-38.17
23.125,-48.27
23.140,-51.4
23.156,-45.72
23.171,-31.29
23.187,-9.58
23.203,17.56
23.218,48.88
23.234,83.81
23.250,121.8
23.265,160.88
23.281,197.0
23.296,224.6
23.312,238.45
23.328,235.87
23.343,218.0
23.359,189.71
23.375,157.49
23.390,127.19
23.406,102.05
23.421,82.51
23.437,67.14
23.453,54.15
23.468,42.5
23.484,31.95
23.500,22.74
23.515,14.93
23.531,8.32
23.546,2.48
23.562,-2.71
23.578,-7.19
23.593,-10.99
23.609,-14.44
23.625,-18.32
23.640,-23.9
23.656,-32.32
23.671,-43.8
23.687,-57.54
23.703,-71.4
23.718,-82.27
23.734,-86.65
23.750,-81.41
23.765,-65.04
23.781,-38.56
23.796,-5.78
23.812,27.73
23.828,56.35
23.843,76.32
23.859,86.92
23.875,89.93
23.890,88.31
23.906,84.27
23.921,78.16
23.937,68.59
23.953,53.69
23.968,32.67
23.984,6.82
24.000,-20.43
24.015,-44.58
24.031,-61.39
24.046,-68.46
24.062,-66.09
24.078,-57.34
24.093,-47.24
24.109,-41.07
24.125,-42.27
24.140,-51.32
24.156,-65.92
24.171,-81.81
24.187,-94.61
24.203,-100.84
24.218,-98.34
24.234,-86.08
24.250,-63.89
24.265,-32.55
24.281,5.73
24.296,46.92
24.312,85.8
24.328,117.16
24.343,137.39
24.359,145.56
24.375,142.95
24.390,131.53
24.406,112.39
24.421,85.34
24.437,49.9
24.453,7.33
24.468,-38.08
24.484,-79.32
24.500,-108.83
24.515,-121.54
24.531,-116.91
24.546,-99.23
24.562,-75.68
24.578,-53.56
24.593,-37.67
24.609,-29.35
24.625,-26.76
24.640,-25.87
24.656,-21.78
24.671,-9.92
24.687,12.56
24.703,45.14
24.718,83.18
24.734,118.68
24.750,142.87
24.765,149.39
24.781,136.78
24.796,108.88
24.812,73.09
24.828,37.52
24.843,8.46
24.859,-10.42
24.875,-17.57
24.890,-12.65
24.906,3.52
24.921,28.31
24.937,56.34
24.953,80.0
24.968,91.47
24.984,85.6
25.000,62.36
25.015,26.9
25.031,-12.47
25.046,-47.93
25.062,-75.07
25.078,-94.06
25.093,-108.46
25.109,-122.62
25.125,-139.21
25.140,-157.87
25.156,-175.63
25.171,-188.45
25.187,-192.81
25.203,-186.72
25.218,-170.19
25.234,-144.77
25.250,-113.07
25.265,-78.26
25.281,-43.83
25.296,-13.04
25.312,11.7
25.328,29.64
25.343,42.06
25.359,51.8
25.375,61.96
25.390,74.35
25.406,88.34
25.421,101.2
25.437,109.42
25.453,110.62
25.468,104.44
25.484,92.1
25.500,75.25
25.515,55.1
25.531,32.73
25.546,10.04
25.562,-9.45
25.578,-21.22
25.593,-21.49
25.609,-9.28
25.625,12.79
25.640,39.53
25.656,65.55
25.671,87.34
25.687,103.64
25.703,114.26
25.718,118.14
25.734,112.76
25.750,94.98
25.765,63.13
25.781,18.66
25.796,-33.59
25.812,-86.36
25.828,-131.9
25.843,-163.88
25.859,-178.56
25.875,-175.14
25.890,-155.44
25.906,-123.18
25.921,-83.25
25.937,-41.02
25.953,-1.58
25.968,31.09
25.984,54.6
26.000,68.42
26.015,73.76
26.031,72.8
26.046,67.66
26.062,59.49
26.078,47.74
26.093,30.64
26.109,6.48
26.125,-24.75
26.140,-60.15
26.156,-94.27
26.171,-120.74
26.187,-134.41
26.203,-132.79
26.218,-116.64
26.234,-89.0
26.250,-53.92
26.265,-15.5
26.281,22.8
26.296,57.92
26.312,87.21
26.328,108.68
26.343,121.41
26.359,125.44
26.375,121.42
26.390,109.66
26.406,89.61
26.421,60.63
26.437,23.23
26.453,-19.57
26.468,-61.73
26.484,-95.51
26.500,-114.13
26.515,-114.15
26.531,-97.06
26.546,-69.27
26.562,-39.58
26.578,-16.41
26.593,-4.61
26.609,-3.94
26.625,-9.42
26.640,-13.62
26.656,-9.84
26.671,5.29
26.687,30.86
26.703,63.09
26.718,96.9
26.734,127.64
26.750,151.28
26.765,164.15
26.781,163.43
26.796,148.91
26.812,125.03
26.828,101.14
26.843,89.37
26.859,99.35
26.875,134.1
26.890,188.35
26.906,250.39
26.921,306.88
26.937,347.25
26.953,365.73
26.968,361.11
26.984,335.45
27.000,292.52
27.015,237.51
27.031,176.72
27.046,116.13
27.062,60.16
27.078,10.17
27.093,-35.41
27.109,-79.7
27.125,-125.33
27.140,-173.15
27.156,-221.69
27.171,-268.05
27.187,-308.97
27.203,-341.36
27.218,-363.19
27.234,-373.79
27.250,-373.85
27.265,-365.09
27.281,-349.41
27.296,-328.01
27.312,-300.9
27.328,-267.28
27.343,-225.65
27.359,-174.9
27.375,-115.31
27.390,-49.32
27.406,17.84
27.421,78.59
27.437,124.58
27.453,149.01
27.468,149.03
27.484,126.99
27.500,89.65
27.515,45.87
27.531,3.75
27.546,-31.41
27.562,-57.67
27.578,-75.38
27.593,-85.99
27.609,-91.08
27.625,-92.01
27.640,-89.84
27.656,-84.98
27.671,-76.54
27.687,-62.32
27.703,-39.71
27.718,-7.16
27.734,34.48
27.750,81.58
27.765,128.48
27.781,169.23
27.796,199.25
27.812,215.97
27.828,218.72
27.843,208.17
27.859,186.71
27.875,158.97
27.890,131.57
27.906,111.17
27.921,101.54
27.937,101.12
27.953,103.04
27.968,98.24
27.984,80.32
28.000,49.15
28.015,10.98
28.031,-24.97
28.046,-51.31
28.062,-65.96
28.078,-71.82
28.093,-73.83
28.109,-75.49
28.125,-77.22
28.140,-77.32
28.156,-74.64
28.171,-70.49
28.187,-68.27
28.203,-71.53
28.218,-81.66
28.234,-96.65
28.250,-111.64
28.265,-121.04
28.281,-121.03
28.296,-111.12
28.312,-94.49
28.328,-76.37
28.343,-62.04
28.359,-54.95
28.375,-55.59
28.390,-61.28
28.406,-66.58
28.421,-64.56
28.437,-48.17
28.453,-12.07
28.468,45.51
28.484,121.16
28.500,206.27
28.515,288.38
28.531,354.41
28.546,394.19
28.562,402.67
28.578,380.18
28.593,330.87
28.609,260.59
28.625,175.69
28.640,83.13
28.656,-9.0
28.671,-91.96
28.687,-157.88
28.703,-202.53
28.718,-227.33
28.734,-239.29
28.750,-248.45
28.765,-263.49
28.781,-288.01
28.796,-318.79
28.812,-347.56
28.828,-364.33
28.843,-361.66
28.859,-337.63
28.875,-296.36
28.890,-246.38
28.906,-197.29
28.921,-157.01
28.937,-129.84
28.953,-116.05
28.968,-112.19
28.984,-111.97
29.000,-107.3
29.015,-90.17
29.031,-55.35
29.046,-2.76
29.062,61.4
29.078,126.49
29.093,181.13
29.109,217.64
29.125,234.31
29.140,234.76
29.156,225.08
29.171,210.17
29.187,192.27
29.203,171.77
29.218,149.84
29.234,130.13
29.250,118.4
29.265,120.39
29.281,138.61
29.296,171.26
29.312,212.96
29.328,257.21
29.343,299.12
29.359,336.44
29.375,368.38
29.390,393.24
29.406,407.08
29.421,403.95
29.437,378.62
29.453,329.41
29.468,259.91
29.484,178.21
29.500,93.97
29.515,14.98
29.531,-54.71
29.546,-114.49
29.562,-165.66
29.578,-209.28
29.593,-245.49
29.609,-273.73
29.625,-293.46
29.640,-304.67
29.656,-307.75
29.671,-302.93
29.687,-290.13
29.703,-269.53
29.718,-241.84
29.734,-209.03
29.750,-174.28
29.765,-141.58
29.781,-114.66
29.796,-96.4
29.812,-87.99
29.828,-88.4
29.843,-94.21
29.859,-99.8
29.875,-98.59
29.890,-85.49
29.906,-59.73
29.921,-26.18
29.937,5.62
29.953,25.19
29.968,25.43
29.984,5.99
30.000,-26.78
30.015,-62.9
30.031,-93.17
30.046,-112.53
30.062,-120.85
30.078,-121.14
30.093,-116.91
30.109,-110.41
30.125,-102.46
30.140,-93.73
30.156,-85.87
30.171,-81.49
30.187,-83.0
30.203,-91.07
30.218,-103.81
30.234,-117.33
30.250,-126.87
30.265,-128.58
30.281,-120.37
30.296,-102.35
30.312,-76.22
30.328,-44.21
30.343,-7.97
30.359,32.16
30.375,77.2
30.390,128.93
30.406,188.5
30.421,255.17
30.437,325.61
30.453,394.14
30.468,453.85
30.484,498.25
30.500,522.77
30.515,525.64
30.531,507.5
30.546,470.36
30.562,416.86
30.578,349.73
30.593,272.3
30.609,188.76
30.625,104.2
30.640,24.05
30.656,-46.92
30.671,-105.52
30.687,-150.7
30.703,-183.16
30.718,-204.78
30.734,-217.82
30.750,-224.59
30.765,-227.38
30.781,-227.79
30.796,-225.87
30.812,-219.33
30.828,-203.78
30.843,-174.43
30.859,-128.53
30.875,-67.25
30.890,3.99
30.906,77.3
30.921,145.31
30.937,203.82
30.953,252.33
30.968,292.21
30.984,323.73
31.000,344.05
31.015,347.83
31.031,330.0
31.046,288.79
31.062,227.36
31.078,152.51
31.093,71.84
31.109,-8.73
31.125,-85.75
31.140,-157.21
31.156,-220.41
31.171,-271.36
31.187,-305.7
31.203,-321.01
31.218,-318.81
31.234,-304.47
31.250,-285.14
31.265,-266.89
31.281,-252.54
31.296,-241.49
31.312,-230.84
31.328,-216.63
31.343,-194.9
31.359,-162.76
31.375,-119.6
31.390,-68.02
31.406,-13.89
31.421,34.95
31.437,71.43
31.453,92.35
31.468,99.66
31.484,99.19
31.500,97.32
31.515,97.13
31.531,96.8
31.546,90.8
31.562,73.42
31.578,42.57
31.593,1.43
31.609,-42.8
31.625,-82.26
31.640,-111.93
31.656,-131.33
31.671,-143.74
31.687,-153.81
31.703,-164.59
31.718,-175.59
31.734,-182.66
31.750,-179.9
31.765,-162.96
31.781,-131.29
31.796,-88.99
31.812,-43.19
31.828,-1.04
31.843,33.04
31.859,58.71
31.875,78.59
31.890,95.71
31.906,111.2
31.921,123.77
31.937,131.49
31.953,134.31
31.968,134.92
31.984,136.91
32.000,142.06
32.015,148.49
32.031,151.53
32.046,146.66
32.062,132.53
32.078,111.75
32.093,88.74
32.109,66.43
32.125,44.01
32.140,17.22
32.156,-18.87
32.171,-66.2
32.187,-122.33
32.203,-181.89
32.218,-239.75
32.234,-293.71
32.250,-343.78
32.265,-389.45
32.281,-426.29
32.296,-445.14
32.312,-434.63
32.328,-385.76
32.343,-296.68
32.359,-174.42
32.375,-33.02
32.390,111.07
32.406,243.26
32.421,352.89
32.437,432.85
32.453,478.64
32.468,488.67
32.484,465.69
32.500,418.05
32.515,358.67
32.531,301.24
32.546,255.02
32.562,221.36
32.578,194.22
32.593,164.34
32.609,124.8
32.625,75.2
32.640,21.51
32.656,-27.61
32.671,-65.5
32.687,-90.51
32.703,-105.85
32.718,-116.6
32.734,-126.95
32.750,-138.14
32.765,-149.02
32.781,-157.43
32.796,-161.94
32.812,-162.62
32.828,-160.59
32.843,-156.96
32.859,-152.15
32.875,-145.84
32.890,-137.3
32.906,-126.0
32.921,-112.11
32.937,-96.36
32.953,-79.92
32.968,-63.76
32.984,-48.24
33.000,-32.89
33.015,-17.0
33.031,-0.5
33.046,15.35
33.062,28.2
33.078,36.37
33.093,40.47
33.109,44.03
33.125,52.14
33.140,68.51
33.156,92.49
33.171,118.65
33.187,138.69
33.203,145.31
33.218,135.72
33.234,112.61
33.250,82.48
33.265,52.49
33.281,27.64
33.296,9.8
33.312,-1.52
33.328,-7.75
33.343,-10.11
33.359,-9.56
33.375,-7.13
33.390,-4.13
33.406,-1.83
33.421,-1.21
33.437,-2.61
33.453,-5.83
33.468,-10.16
33.484,-14.37
33.500,-17.15
33.515,-17.75
33.531,-17.01
33.546,-17.7
33.562,-24.05
33.578,-39.99
33.593,-66.78
33.609,-101.76
33.625,-138.39
33.640,-168.19
33.656,-183.55
33.671,-180.2
33.687,-158.23
33.703,-121.8
33.718,-77.49
33.734,-32.56
33.750,6.33
33.765,34.49
33.781,50.13
33.796,54.86
33.812,53.19
33.828,50.99
33.843,53.15
33.859,61.94
33.875,76.74
33.890,94.76
33.906,112.73
33.921,128.1
33.937,139.43
33.953,145.78
33.968,145.82
33.984,137.23
34.000,117.28
34.015,83.8
34.031,36.31
34.046,-23.43
34.062,-91.81
34.078,-164.32
34.093,-236.63
34.109,-305.09
34.125,-366.54
34.140,-417.77
34.156,-455.33
34.171,-475.75
34.187,-476.25
34.203,-455.52
34.218,-414.05
34.234,-354.16
34.250,-279.32
34.265,-193.84
34.281,-102.54
34.296,-10.6
34.312,76.96
34.328,156.3
34.343,225.41
34.359,284.46
34.375,335.26
34.390,380.23
34.406,421.06
34.421,457.99
34.437,489.64
34.453,513.35
34.468,525.89
34.484,523.99
34.500,505.6
34.515,470.57
34.531,421.24
34.546,361.76
34.562,296.93
34.578,230.84
34.593,165.88
34.609,102.9
34.625,41.92
34.640,-16.51
34.656,-70.89
34.671,-118.75
34.687,-157.75
34.703,-186.99
34.718,-207.73
34.734,-223.48
34.750,-238.77
34.765,-257.12
34.781,-278.78
34.796,-299.93
34.812,-313.55
34.828,-312.31
34.843,-292.25
34.859,-255.29
34.875,-208.89
34.890,-162.75
34.906,-124.2
34.921,-94.87
34.937,-70.21
34.953,-42.34
34.968,-4.51
34.984,45.24
35.000,103.28
35.015,162.29
35.031,214.78
35.046,255.48
35.062,281.63
35.078,291.78
35.093,284.2
35.109,256.56
35.125,207.09
35.140,136.31
35.156,48.1
35.171,-50.73
35.187,-151.71
35.203,-246.46
35.218,-327.54
35.234,-388.72
35.250,-425.25
35.265,-434.66
35.281,-417.68
35.296,-378.47
35.312,-323.45
35.328,-258.89
35.343,-188.63
35.359,-113.52
35.375,-32.47
35.390,55.28
35.406,148.24
35.421,241.68
35.437,328.13
35.453,399.04
35.468,446.89
35.484,467.12
35.500,459.55
35.515,428.89
35.531,384.05
35.546,336.22
35.562,295.87
35.578,269.83
35.593,259.34
35.609,260.21
35.625,264.88
35.640,265.02
35.656,253.83
35.671,227.31
35.687,184.42
35.703,126.44
35.718,56.28
35.734,-22.17
35.750,-104.72
35.765,-187.3
35.781,-266.35
35.796,-338.39
35.812,-399.3
35.828,-443.71
35.843,-465.2
35.859,-457.77
35.875,-418.12
35.890,-347.45
35.906,-252.34
35.921,-143.39
35.937,-32.97
35.953,67.4
35.968,149.02
35.984,206.74
36.000,238.69
36.015,245.81
36.031,231.45
36.046,200.52
36.062,158.7
36.078,110.84
36.093,59.49
36.109,4.25
36.125,-56.93
36.140,-124.9
36.156,-196.63
36.171,-264.27
36.187,-317.18
36.203,-345.99
36.218,-346.74
36.234,-322.65
36.250,-282.77
36.265,-238.32
36.281,-199.04
36.296,-171.03
36.312,-156.77
36.328,-156.08
36.343,-166.82
36.359,-184.75
36.375,-203.63
36.390,-216.17
36.406,-216.69
36.421,-204.04
36.437,-182.54
36.453,-160.12
36.468,-143.96
36.484,-136.45
36.500,-133.63
36.515,-127.54
36.531,-110.4
36.546,-79.04
36.562,-36.57
36.578,9.64
36.593,51.76
36.609,85.23
36.625,110.05
36.640,129.48
36.656,147.5
36.671,167.01
36.687,188.69
36.703,211.63
36.718,235.69
36.734,262.77
36.750,295.9
36.765,336.9
36.781,383.64
36.796,428.81
36.812,462.51
36.828,474.91
36.843,459.21
36.859,414.26
36.875,344.3
36.890,257.49
36.906,164.24
36.921,76.12
36.937,4.42
36.953,-40.87
36.968,-55.43
36.984,-44.03
37.000,-20.32
37.015,-2.96
37.031,-8.74
37.046,-46.25
37.062,-113.15
37.078,-198.73
37.093,-287.95
37.109,-358.12
37.125,-389.01
37.140,-368.88
37.156,-299.57
37.171,-194.68
37.187,-72.18
37.203,52.7
37.218,164.14
37.234,260.68
37.250,341.5
37.265,403.87
37.281,445.13
37.296,464.35
37.312,463.75
37.328,445.48
37.343,413.08
37.359,369.41
37.375,316.88
37.390,255.63
37.406,185.37
37.421,106.78
37.437,23.49
37.453,-57.27
37.468,-128.18
37.484,-183.0
37.500,-218.84
37.515,-235.4
37.531,-235.69
37.546,-223.26
37.562,-203.74
37.578,-183.01
37.593,-166.09
37.609,-159.28
37.625,-167.07
37.640,-190.93
37.656,-227.87
37.671,-272.1
37.687,-314.86
37.703,-351.18
37.718,-379.06
37.734,-398.52
37.750,-414.34
37.765,-432.63
37.781,-458.56
37.796,-494.54
37.812,-540.1
37.828,-589.59
37.843,-639.18
37.859,-684.87
37.875,-702.38
37.890,-673.51
37.906,-591.73
37.921,-467.17
37.937,-322.19
37.953,-195.03
37.968,-89.99
37.984,-0.01
38.000,84.71
38.015,171.87
38.031,262.79
38.046,350.77
38.062,426.76
38.078,483.92
38.093,520.25
38.109,540.2
38.125,546.14
38.140,538.83
38.156,518.08
38.171,481.61
38.187,429.25
38.203,365.54
38.218,299.16
38.234,239.61
38.250,195.08
38.265,165.58
38.281,146.41
38.296,132.54
38.312,119.84
38.328,107.24
38.343,95.86
38.359,87.06
38.375,80.85
38.390,77.23
38.406,74.45
38.421,71.6
38.437,69.21
38.453,67.13
38.468,63.55
38.484,55.32
38.500,39.57
38.515,15.89
38.531,-11.8
38.546,-37.22
38.562,-52.97
38.578,-52.92
38.593,-34.65
38.609,-0.27
38.625,44.28
38.640,90.79
38.656,130.85
38.671,157.85
38.687,168.08
38.703,161.4
38.718,140.51
38.734,109.1
38.750,70.18
38.765,25.29
38.781,-24.85
38.796,-78.87
38.812,-133.81
38.828,-184.99
38.843,-227.48
38.859,-257.74
38.875,-275.04
38.890,-281.28
38.906,-279.92
38.921,-274.29
38.937,-266.15
38.953,-255.62
38.968,-242.06
38.984,-225.12
39.000,-205.54
39.015,-184.74
39.031,-163.67
39.046,-141.69
39.062,-116.36
39.078,-84.75
39.093,-45.92
39.109,-3.04
39.125,37.06
39.140,66.27
39.156,79.29
39.171,76.5
39.187,64.56
39.203,53.78
39.218,54.42
39.234,73.3
39.250,112.2
39.265,168.06
39.281,234.0
39.296,300.71
39.312,357.81
39.328,395.88
39.343,408.66
39.359,395.06
39.375,359.61
39.390,310.87
39.406,258.47
39.421,209.99
39.437,169.49
39.453,137.74
39.468,113.38
39.484,93.92
39.500,76.34
39.515,57.12
39.531,32.91
39.546,1.67
39.562,-36.29
39.578,-77.91
39.593,-118.18
39.609,-151.89
39.625,-174.59
39.640,-183.34
39.656,-176.48
39.671,-153.88
39.687,-117.15
39.703,-69.9
39.718,-17.35
39.734,34.94
39.750,82.68
39.765,123.96
39.781,158.89
39.796,188.21
39.812,211.47
39.828,226.21
39.843,228.7
39.859,215.8
39.875,186.79
39.890,143.81
39.906,91.22
39.921,34.01
39.937,-23.49
39.953,-78.24
39.968,-128.27
39.984,-172.53
40.000,-210.36
40.015,-241.41
40.031,-265.36
40.046,-281.65
40.062,-289.16
40.078,-286.19
40.093,-270.93
40.109,-242.02
40.125,-199.61
40.140,-145.8
40.156,-84.64
40.171,-21.47
40.187,37.98
40.203,88.64
40.218,126.92
40.234,151.08
40.250,161.45
40.265,159.95
40.281,149.33
40.296,132.07
40.312,109.37
40.328,80.37
40.343,42.57
40.359,-6.51
40.375,-66.84
40.390,-133.6
40.406,-196.8
40.421,-243.31
40.437,-261.23
40.453,-244.59
40.468,-196.46
40.484,-128.59
40.500,-57.76
40.515,-0.45
40.531,32.21
40.546,36.78
40.562,17.23
40.578,-17.87
40.593,-58.58
40.609,-95.92
40.625,-122.91
40.640,-134.4
40.656,-126.94
40.671,-98.8
40.687,-50.86
40.703,12.6
40.718,83.3
40.734,150.01
40.750,200.98
40.765,227.31
40.781,225.85
40.796,200.08
40.812,158.7
40.828,112.17
40.843,69.23
40.859,34.49
40.875,8.25
40.890,-11.62
40.906,-27.18
40.921,-38.76
40.937,-44.85
40.953,-43.46
40.968,-33.96
40.984,-18.17
41.000,-0.37
41.015,13.98
41.031,20.12
41.046,15.31
41.062,-0.75
41.078,-26.47
41.093,-59.02
41.109,-94.39
41.125,-127.24
41.140,-151.36
41.156,-160.38
41.171,-148.79
41.187,-113.72
41.203,-55.99
41.218,19.62
41.234,105.8
41.250,194.99
41.265,281.39
41.281,361.43
41.296,433.47
41.312,496.33
41.328,547.55
41.343,582.22
41.359,593.44
41.375,574.8
41.390,523.83
41.406,443.95
41.421,343.48
41.437,233.33
41.453,123.62
41.468,21.02
41.484,-71.93
41.500,-155.78
41.515,-231.73
41.531,-300.01
41.546,-354.98
41.562,-388.77
41.578,-396.02
41.593,-377.27
41.609,-338.87
41.625,-289.41
41.640,-236.66
41.656,-185.96
41.671,-139.77
41.687,-98.83
41.703,-63.69
41.718,-35.97
41.734,-17.0
41.750,-6.01
41.765,0.49
41.781,7.18
41.796,14.6
41.812,23.51
41.828,31.49
41.843,33.59
41.859,25.18
41.875,4.75
41.890,-24.9
41.906,-58.0
41.921,-88.91
41.937,-114.16
41.953,-132.25
41.968,-144.34
41.984,-151.73
42.000,-154.9
42.015,-153.61
42.031,-146.81
42.046,-133.77
42.062,-115.23
42.078,-94.0
42.093,-74.22
42.109,-60.74
42.125,-57.3
42.140,-65.0
42.156,-82.03
42.171,-104.18
42.187,-127.04
42.203,-147.1
42.218,-161.62
42.234,-167.62
42.250,-161.7
42.265,-140.32
42.281,-102.13
42.296,-49.99
42.312,9.48
42.328,66.76
42.343,112.58
42.359,141.97
42.375,155.79
42.390,159.18
42.406,159.05
42.421,161.4
42.437,169.86
42.453,186.76
42.468,211.98
42.484,242.14
42.500,270.81
42.515,289.35
42.531,289.19
42.546,265.03
42.562,217.21
42.578,147.0
42.593,65.91
42.609,-8.49
42.625,-60.3
42.640,-81.9
42.656,-76.13
42.671,-52.3
42.687,-20.18
42.703,13.05
42.718,42.2
42.734,64.09
42.750,75.55
42.765,70.79
42.781,46.53
42.796,3.73
42.812,-51.86
42.828,-110.92
42.843,-163.37
42.859,-201.47
42.875,-220.93
42.890,-222.18
42.906,-209.07
42.921,-185.5
42.937,-153.81
42.953,-115.26
42.968,-72.1
42.984,-29.29
43.000,5.87
43.015,27.33
43.031,33.22
43.046,27.32
43.062,18.39
43.078,16.65
43.093,29.11
43.109,56.88
43.125,95.03
43.140,134.92
43.156,168.25
43.171,189.51
43.187,197.12
43.203,193.48
43.218,183.34
43.234,171.71
43.250,161.63
43.265,152.49
43.281,139.82
43.296,117.18
43.312,79.53
43.328,26.16
43.343,-37.72
43.359,-102.5
43.375,-157.75
43.390,-196.08
43.406,-215.67
43.421,-219.79
43.437,-214.9
43.453,-207.38
43.468,-201.46
43.484,-198.53
43.500,-198.04
43.515,-198.65
43.531,-198.83
43.546,-197.53
43.562,-194.01
43.578,-187.62
43.593,-176.95
43.609,-160.11
43.625,-135.25
43.640,-101.83
43.656,-62.14
43.671,-21.2
43.687,15.12
43.703,43.54
43.718,65.86
43.734,88.64
43.750,118.97
43.765,158.96
43.781,202.18
43.796,234.99
43.812,243.03
43.828,218.91
43.843,166.96
43.859,101.61
43.875,40.55
43.890,-3.77
43.906,-29.32
43.921,-43.36
43.937,-57.25
43.953,-79.52
43.968,-111.55
43.984,-147.64
44.000,-178.7
44.015,-196.99
44.031,-199.31
44.046,-187.23
44.062,-164.36
44.078,-133.17
44.093,-92.66
44.109,-39.34
44.125,29.61
44.140,112.42
44.156,200.64
44.171,280.73
44.187,338.74
44.203,365.95
44.218,362.19
44.234,335.32
44.250,296.98
44.265,257.3
44.281,221.1
44.296,187.37
44.312,151.71
44.328,110.1
44.343,61.5
44.359,8.22
44.375,-45.57
44.390,-96.28
44.406,-142.02
44.421,-181.9
44.437,-214.27
44.453,-235.48
44.468,-240.4
44.484,-225.74
44.500,-193.55
44.515,-152.84
44.531,-117.41
44.546,-99.95
44.562,-105.88
44.578,-129.91
44.593,-157.88
44.609,-173.18
44.625,-164.35
44.640,-129.93
44.656,-78.24
44.671,-23.15
44.687,21.6
44.703,46.26
44.718,46.3
44.734,21.92
44.750,-22.68
44.765,-79.17
44.781,-135.19
44.796,-175.78
44.812,-187.45
44.828,-162.78
44.843,-104.03
44.859,-22.99
44.875,63.16
44.890,137.74
44.906,190.17
44.921,217.87
44.937,225.08
44.953,218.9
44.968,205.74
44.984,188.94
45.000,168.67
45.015,143.02
45.031,109.7
45.046,68.32
45.062,21.48
45.078,-24.74
45.093,-61.86
45.109,-81.12
45.125,-76.28
45.140,-45.82
45.156,6.34
45.171,72.01
45.187,140.99
45.203,203.56
45.218,252.23
45.234,282.39
45.250,292.43
45.265,283.41
45.281,258.68
45.296,223.28
45.312,182.82
45.328,142.47
45.343,105.76
45.359,74.17
45.375,47.2
45.390,22.87
45.406,-1.29
45.421,-27.48
45.437,-56.63
45.453,-88.04
45.468,-119.38
45.484,-147.42
45.500,-169.09
45.515,-182.5
45.531,-187.55
45.546,-185.85
45.562,-180.05
45.578,-173.14
45.593,-167.91
45.609,-166.9
45.625,-172.3
45.640,-185.36
45.656,-205.57
45.671,-229.62
45.687,-251.08
45.703,-261.63
45.718,-253.77
45.734,-224.4
45.750,-177.46
45.765,-124.02
45.781,-79.11
45.796,-56.71
45.812,-65.23
45.828,-105.26
45.843,-170.71
45.859,-251.6
45.875,-337.0
45.890,-416.57
45.906,-480.61
45.921,-519.93
45.937,-526.77
45.953,-496.83
45.968,-431.41
45.984,-338.08
46.000,-228.75
46.015,-116.03
46.031,-9.52
46.046,86.23
46.062,171.5
46.078,249.25
46.093,322.34
46.109,390.96
46.125,451.55
46.140,497.79
46.156,522.98
46.171,523.61
46.187,501.86
46.203,465.67
46.218,426.05
46.234,392.41
46.250,368.61
46.265,351.85
46.281,335.06
46.296,311.12
46.312,277.04
46.328,235.02
46.343,191.23
46.359,153.56
46.375,129.0
46.390,121.76
46.406,131.97
46.421,155.11
46.437,182.31
46.453,202.33
46.468,205.41
46.484,187.31
46.500,152.17
46.515,111.59
46.531,80.17
46.546,69.22
46.562,81.75
46.578,111.4
46.593,145.55
46.609,170.83
46.625,178.2
46.640,165.35
46.656,135.72
46.671,95.95
46.687,53.12
46.703,12.65
46.718,-22.01
46.734,-48.54
46.750,-65.28
46.765,-70.97
46.781,-65.33
46.796,-50.27
46.812,-29.83
46.828,-9.7
46.843,3.97
46.859,6.13
46.875,-5.47
46.890,-29.33
46.906,-60.46
46.921,-92.09
46.937,-118.25
46.953,-135.86
46.968,-145.43
46.984,-150.2
47.000,-153.94
47.015,-158.93
47.031,-164.98
47.046,-169.86
47.062,-170.7
47.078,-165.51
47.093,-153.91
47.109,-137.17
47.125,-117.42
47.140,-96.9
47.156,-77.55
47.171,-60.95
47.187,-48.33
47.203,-40.51
47.218,-37.72
47.234,-39.51
47.250,-44.85
47.265,-52.16
47.281,-59.32
47.296,-63.94
47.312,-64.17
47.328,-59.35
47.343,-50.42
47.359,-39.41
47.375,-28.74
47.390,-20.37
47.406,-15.42
47.421,-14.46
47.437,-17.66
47.453,-24.99
47.468,-35.33
47.484,-45.66
47.500,-50.95
47.515,-45.9
47.531,-27.97
47.546,0.29
47.562,31.25
47.578,55.21
47.593,64.9
47.609,59.26
47.625,43.65
47.640,26.65
47.656,15.28
47.671,11.39
47.687,11.49
47.703,9.22
47.718,-0.57
47.734,-19.38
47.750,-44.66
47.765,-71.85
47.781,-96.88
47.796,-117.25
47.812,-131.93
47.828,-139.95
47.843,-139.78
47.859,-129.4
47.875,-107.74
47.890,-76.08
47.906,-38.39
47.921,-0.84
47.937,30.45
47.953,51.55
47.968,62.31
47.984,66.03
48.000,67.77
48.015,71.82
48.031,79.39
48.046,87.9
48.062,92.06
48.078,86.57
48.093,68.88
48.109,41.0
48.125,8.79
48.140,-20.52
48.156,-41.45
48.171,-52.5
48.187,-56.07
48.203,-56.37
48.218,-56.66
48.234,-57.64
48.250,-57.48
48.265,-53.75
48.281,-45.43
48.296,-33.99
48.312,-22.73
48.328,-14.72
48.343,-11.27
48.359,-11.16
48.375,-11.87
48.390,-10.76
48.406,-5.88
48.421,3.8
48.437,18.53
48.453,37.69
48.468,59.6
48.484,81.07
48.500,97.8
48.515,105.49
48.531,101.34
48.546,85.5
48.562,61.19
48.578,33.35
48.593,6.41
48.609,-17.27
48.625,-37.95
48.640,-57.36
48.656,-77.0
48.671,-97.15
48.687,-117.04
48.703,-135.99
48.718,-154.29
48.734,-173.53
48.750,-195.78
48.765,-222.49
48.781,-252.96
48.796,-283.79
48.812,-310.19
48.828,-327.71
48.843,-334.03
48.859,-328.75
48.875,-313.01
48.890,-288.52
48.906,-257.36
48.921,-221.41
48.937,-181.52
48.953,-138.14
48.968,-91.16
48.984,-40.13
49.000,15.9
49.015,77.71
49.031,145.76
49.046,218.22
49.062,291.54
49.078,361.45
49.093,422.86
49.109,470.77
49.125,501.74
49.140,515.31
49.156,514.14
49.171,503.83
49.187,488.04
49.203,466.94
49.218,436.95
49.234,390.98
49.250,321.58
49.265,225.28
49.281,105.18
49.296,-29.44
49.312,-164.81
49.328,-289.93
49.343,-397.97
49.359,-479.25
49.375,-523.45
49.390,-523.87
49.406,-481.72
49.421,-407.87
49.437,-327.33
49.453,-250.26
49.468,-179.98
49.484,-115.68
49.500,-54.12
49.515,8.57
49.531,73.37
49.546,138.66
49.562,200.49
49.578,253.9
49.593,296.52
49.609,326.79
49.625,345.95
49.640,357.36
49.656,362.98
49.671,360.83
49.687,345.37
49.703,310.48
49.718,253.77
49.734,180.7
49.750,101.71
49.765,30.23
49.781,-21.41
49.796,-46.66
49.812,-46.86
49.828,-29.87
49.843,-6.32
49.859,13.89
49.875,24.9
49.890,23.58
49.906,9.36
49.921,-16.7
49.937,-52.49
49.953,-94.37
49.968,-136.47
49.984,-170.33
50.000,-187.23
50.015,-181.48
50.031,-153.94
50.046,-111.82
50.062,-65.75
50.078,-25.46
50.093,3.82
50.109,21.95
50.125,32.0
50.140,37.12
50.156,38.4
50.171,34.76
50.187,24.76
50.203,8.57
50.218,-11.44
50.234,-31.64
50.250,-48.75
50.265,-61.12
50.281,-69.0
50.296,-73.9
50.312,-77.62
50.328,-81.62
50.343,-86.41
50.359,-91.43
50.375,-95.27
50.390,-96.28
50.406,-93.12
50.421,-85.46
50.437,-74.16
50.453,-60.98
50.468,-48.08
50.484,-37.04
50.500,-28.36
50.515,-21.63
50.531,-15.97
50.546,-10.78
50.562,-6.06
50.578,-2.39
50.593,-0.78
50.609,-2.68
50.625,-10.24
50.640,-26.46
50.656,-54.65
50.671,-96.98
50.687,-152.74
50.703,-217.2
50.718,-282.02
50.734,-337.28
50.750,-374.09
50.765,-386.78
50.781,-373.64
50.796,-336.3
50.812,-278.35
50.828,-204.31
50.843,-119.27
50.859,-28.99
50.875,60.09
50.890,141.57
50.906,209.91
50.921,261.1
50.937,292.84
50.953,304.56
50.968,297.37
50.984,274.31
51.000,240.28
51.015,201.0
51.031,161.28
51.046,123.11
51.062,84.81
51.078,42.31
51.093,-8.12
51.109,-66.92
51.125,-129.94
51.140,-189.5
51.156,-237.23
51.171,-266.85
51.187,-275.51
51.203,-263.36
51.218,-231.8
51.234,-182.56
51.250,-117.87
51.265,-41.7
51.281,39.47
51.296,117.18
51.312,183.46
51.328,233.59
51.343,267.67
51.359,290.12
51.375,306.88
51.390,322.36
51.406,337.56
51.421,350.24
51.437,356.82
51.453,354.94
51.468,344.71
51.484,328.43
51.500,309.12
51.515,288.61
51.531,266.32
51.546,239.58
51.562,204.58
51.578,157.97
51.593,98.26
51.609,26.92
51.625,-51.64
51.640,-130.71
51.656,-202.91
51.671,-262.45
51.687,-306.53
51.703,-335.96
51.718,-354.29
51.734,-365.98
51.750,-374.81
51.765,-382.95
51.781,-390.75
51.796,-396.98
51.812,-398.93
51.828,-392.44
51.843,-372.36
51.859,-333.81
51.875,-274.29
51.890,-195.45
51.906,-103.96
51.921,-9.99
51.937,75.7
51.953,145.05
51.968,194.86
51.984,226.8
52.000,246.26
52.015,259.88
52.031,272.92
52.046,287.1
52.062,299.81
52.078,304.74
52.093,294.07
52.109,261.53
52.125,204.94
52.140,127.47
52.156,37.18
52.171,-55.22
52.187,-139.14
52.203,-206.35
52.218,-252.08
52.234,-274.77
52.250,-275.32
52.265,-255.83
52.281,-218.85
52.296,-167.09
52.312,-103.54
52.328,-31.96
52.343,43.03
52.359,116.15
52.375,182.51
52.390,238.33
52.406,281.81
52.421,313.36
52.437,335.02
52.453,349.42
52.468,358.62
52.484,363.76
52.500,365.33
52.515,364.19
52.531,361.2
52.546,357.04
52.562,351.77
52.578,344.49
52.593,333.23
52.609,314.97
52.625,286.69
52.640,246.38
52.656,194.28
52.671,131.84
52.687,61.49
52.703,-13.63
52.718,-89.79
52.734,-163.05
52.750,-230.09
52.765,-288.69
52.781,-341.02
52.796,-385.93
52.812,-420.68
52.828,-441.8
52.843,-445.62
52.859,-429.4
52.875,-389.9
52.890,-325.02
52.906,-236.88
52.921,-132.68
52.937,-23.13
52.953,79.36
52.968,164.34
52.984,226.01
53.000,264.04
53.015,282.66
53.031,287.99
53.046,285.52
53.062,278.51
53.078,267.56
53.093,250.21
53.109,222.32
53.125,180.31
53.140,123.15
53.156,53.32
53.171,-24.11
53.187,-103.15
53.203,-178.46
53.218,-246.05
53.234,-303.89
53.250,-351.14
53.265,-387.31
53.281,-411.55
53.296,-422.56
53.312,-418.68
53.328,-398.12
53.343,-359.5
53.359,-302.51
53.375,-229.69
53.390,-146.71
53.406,-61.6
53.421,17.75
53.437,85.9
53.453,140.87
53.468,183.14
53.484,213.17
53.500,229.71
53.515,229.53
53.531,209.78
53.546,170.87
53.562,118.09
53.578,60.49
53.593,7.67
53.609,-33.84
53.625,-62.53
53.640,-81.44
53.656,-95.72
53.671,-109.9
53.687,-126.5
53.703,-146.21
53.718,-168.99
53.734,-194.43
53.750,-221.74
53.765,-248.71
53.781,-271.21
53.796,-284.0
53.812,-282.79
53.828,-265.99
53.843,-236.01
53.859,-198.26
53.875,-158.64
53.890,-121.19
53.906,-87.09
53.921,-55.06
53.937,-23.34
53.953,8.62
53.968,39.6
53.984,67.4
54.000,90.63
54.015,110.03
54.031,128.69
54.046,150.8
54.062,180.1
54.078,217.77
54.093,261.37
54.109,305.29
54.125,342.39
54.140,366.39
54.156,373.99
54.171,365.58
54.187,344.66
54.203,316.15
54.218,284.14
54.234,250.95
54.250,217.32
54.265,183.32
54.281,149.17
54.296,115.47
54.312,82.18
54.328,48.17
54.343,12.09
54.359,-26.52
54.375,-65.51
54.390,-99.58
54.406,-121.85
54.421,-126.74
54.437,-112.21
54.453,-80.55
54.468,-37.51
54.484,10.55
54.500,57.87
54.515,99.8
54.531,132.31
54.546,151.65
54.562,155.17
54.578,143.15
54.593,119.94
54.609,93.47
54.625,72.89
54.640,64.95
54.656,71.55
54.671,89.51
54.687,112.09
54.703,131.94
54.718,143.25
54.734,142.69
54.750,129.28
54.765,103.9
54.781,68.68
54.796,26.51
54.812,-19.41
54.828,-66.48
54.843,-112.64
54.859,-156.17
54.875,-195.23
54.890,-227.41
54.906,-249.52
54.921,-258.79
54.937,-254.08
54.953,-236.59
54.968,-210.39
54.984,-180.7
55.000,-151.84
55.015,-125.64
55.031,-101.1
55.046,-74.76
55.062,-42.39
55.078,-0.37
55.093,52.94
55.109,116.08
55.125,184.24
55.140,249.36
55.156,301.65
55.171,332.29
55.187,336.32
55.203,314.13
55.218,271.1
55.234,215.11
55.250,153.39
55.265,90.36
55.281,27.54
55.296,-35.0
55.312,-96.62
55.328,-155.2
55.343,-207.95
55.359,-253.0
55.375,-290.65
55.390,-323.17
55.406,-353.06
55.421,-381.09
55.437,-405.21
55.453,-420.91
55.468,-423.24
55.484,-409.11
55.500,-378.62
55.515,-335.19
55.531,-284.34
55.546,-231.85
55.562,-182.15
55.578,-137.44
55.593,-97.55
55.609,-60.57
55.625,-23.42
55.640,17.58
55.656,65.4
55.671,120.88
55.687,182.01
55.703,243.84
55.718,299.81
55.734,343.9
55.750,372.57
55.765,385.51
55.781,385.06
55.796,374.29
55.812,355.4
55.828,329.0
55.843,294.76
55.859,252.7
55.875,204.37
55.890,153.07
55.906,103.11
55.921,58.62
55.937,22.15
55.953,-5.96
55.968,-27.57
55.984,-45.83
56.000,-63.72
56.015,-82.95
56.031,-103.3
56.046,-122.96
56.062,-139.36
56.078,-150.08
56.093,-153.23
56.109,-147.26
56.125,-130.7
56.140,-102.13
56.156,-61.54
56.171,-11.89
56.187,40.13
56.203,85.4
56.218,115.58
56.234,126.7
56.250,120.66
56.265,103.77
56.281,83.48
56.296,64.68
56.312,47.94
56.328,30.79
56.343,10.45
56.359,-13.89
56.375,-40.62
56.390,-67.46
56.406,-93.24
56.421,-118.2
56.437,-143.25
56.453,-169.08
56.468,-195.11
56.484,-219.39
56.500,-238.96
56.515,-250.35
56.531,-251.41
56.546,-241.27
56.562,-220.01
56.578,-188.51
56.593,-149.05
56.609,-103.96
56.625,-54.5
56.656,62.5
56.671,133.69
56.687,210.84
56.703,287.78
56.718,355.74
56.734,404.54
56.750,426.71
56.765,419.78
56.781,386.79
56.796,336.75
56.812,276.76
56.828,211.0
56.843,141.3
56.859,67.95
56.875,-10.71
56.890,-95.85
56.906,-187.38
56.921,-283.49
56.937,-377.7
56.953,-466.07
56.968,-545.91
56.984,-614.78
57.000,-654.37
57.015,-647.93
57.031,-586.4
57.046,-475.09
57.062,-351.93
57.078,-235.21
57.093,-134.33
57.109,-54.22
57.125,7.85
57.140,53.42
57.156,84.49
57.171,105.95
57.187,124.69
57.203,147.17
57.218,179.54
57.234,218.81
57.250,255.5
57.265,278.78
57.281,280.97
57.296,259.57
57.312,218.22
57.328,164.26
57.343,105.85
57.359,52.05
57.375,6.69
57.390,-29.74
57.406,-57.61
57.421,-77.46
57.437,-90.36
57.453,-98.31
57.468,-104.36
57.484,-112.48
57.500,-124.31
57.515,-140.89
57.531,-160.8
57.546,-179.9
57.562,-193.27
57.578,-197.26
57.593,-191.21
57.609,-177.35
57.625,-159.12
57.640,-138.17
57.656,-114.63
57.671,-87.13
57.687,-53.89
57.703,-14.47
57.718,29.85
57.734,76.46
57.750,123.42
57.765,170.61
57.781,219.56
57.796,270.81
57.812,321.77
57.828,366.16
57.843,395.68
57.859,403.76
57.875,388.76
57.890,355.3
57.906,312.42
57.921,269.47
57.937,231.88
57.953,199.41
57.968,167.53
57.984,131.15
58.000,88.26
58.015,41.18
58.031,-4.7
58.046,-44.0
58.062,-73.88
58.078,-94.67
58.093,-108.84
58.109,-118.98
58.125,-126.63
58.140,-132.05
58.156,-134.83
58.171,-134.61
58.187,-131.35
58.203,-125.12
58.218,-115.59
58.234,-102.27
58.250,-84.97
58.265,-64.21
58.281,-41.62
58.296,-19.83
58.312,-2.01
58.328,8.56
58.343,9.11
58.359,-2.0
58.375,-24.82
58.390,-56.99
58.406,-93.65
58.421,-127.87
58.437,-152.2
58.453,-160.4
58.468,-149.34
58.484,-120.11
58.500,-77.76
58.515,-30.16
58.531,14.1
58.546,47.92
58.562,67.2
58.578,71.39
58.593,62.65
58.609,44.44
58.625,19.94
58.640,-8.83
58.656,-40.91
58.671,-75.8
58.687,-112.59
58.703,-149.74
58.718,-185.07
58.734,-216.21
58.750,-240.71
58.765,-256.13
58.781,-259.94
58.796,-250.01
58.812,-225.42
58.828,-187.14
58.843,-138.2
58.859,-82.92
58.875,-25.67
58.890,30.78
58.906,85.83
58.921,140.42
58.937,195.01
58.953,247.63
58.968,293.29
58.984,325.08
59.000,336.96
59.015,326.62
59.031,296.99
59.046,255.55
59.062,211.64
59.078,173.38
59.093,145.27
59.109,128.39
59.125,121.43
59.140,122.14
59.156,127.83
59.171,134.64
59.187,137.29
59.203,129.79
59.218,108.27
59.234,73.0
59.250,29.91
59.265,-11.27
59.281,-40.73
59.296,-52.18
59.312,-45.13
59.328,-23.97
59.343,4.72
59.359,35.13
59.375,63.44
59.390,88.02
59.406,108.44
59.421,124.72
59.437,137.12
59.453,145.9
59.468,150.83
59.484,150.87
59.500,144.35
59.515,129.72
59.531,107.37
59.546,80.61
59.562,55.27
59.578,37.77
59.593,31.91
59.609,36.64
59.625,45.69
59.640,49.65
59.656,39.32
59.671,8.88
59.687,-42.15
59.703,-109.06
59.718,-182.63
59.734,-252.02
59.750,-307.59
59.765,-343.64
59.781,-359.82
59.796,-360.48
59.812,-352.77
59.828,-343.97
59.843,-339.42
59.859,-341.28
59.875,-348.8
59.890,-358.86
59.906,-366.86
59.921,-367.73
59.937,-356.86
59.953,-330.97
59.968,-289.08
59.984,-233.16
