timestamp,value
00.000,-33.69
00.015,-13.42
00.031,6.91
00.046,26.09
00.062,42.92
00.078,56.67
00.093,67.23
00.109,74.72
00.125,79.39
00.140,81.25
00.156,79.99
00.171,75.13
00.187,66.52
00.203,54.7
00.218,40.95
00.234,27.31
00.250,15.96
00.265,8.67
00.281,6.44
00.296,9.36
00.312,16.79
00.328,27.8
00.343,41.22
00.359,55.83
00.375,70.45
00.390,83.67
00.406,93.89
00.421,99.41
00.437,98.77
00.453,91.35
00.468,77.79
00.484,59.81
00.500,40.07
00.515,21.2
00.531,4.72
00.546,-8.96
00.562,-20.28
00.578,-29.68
00.593,-36.89
00.609,-40.98
00.625,-41.06
00.640,-37.2
00.656,-30.99
00.671,-25.16
00.687,-22.29
00.703,-23.5
00.718,-28.07
00.734,-33.98
00.750,-39.05
00.765,-42.25
00.781,-44.12
00.796,-45.91
00.812,-48.53
00.828,-51.16
00.843,-51.41
00.859,-46.55
00.875,-35.03
00.890,-17.64
00.906,2.22
00.921,20.21
00.937,32.95
00.953,39.6
00.968,42.21
00.984,44.11
01.000,48.03
01.015,54.56
01.031,61.6
01.046,65.8
01.062,64.43
01.078,57.36
01.093,47.27
01.109,38.13
01.125,33.31
01.140,33.66
01.156,37.0
01.171,39.68
01.187,38.72
01.203,33.72
01.218,27.16
01.234,22.73
01.250,23.23
01.265,28.68
01.281,36.0
01.296,40.74
01.312,39.44
01.328,31.63
01.343,20.28
01.359,9.84
01.375,3.89
01.390,3.29
01.406,5.34
01.421,5.85
01.437,1.33
01.453,-8.66
01.468,-21.26
01.484,-31.9
01.500,-36.99
01.515,-35.84
01.531,-31.43
01.546,-28.56
01.562,-31.28
01.578,-40.48
01.593,-53.09
01.609,-64.05
01.625,-68.55
01.640,-64.59
01.656,-53.96
01.671,-40.77
01.687,-29.16
01.703,-20.83
01.718,-14.26
01.734,-6.2
01.750,6.03
01.765,22.61
01.781,40.38
01.796,54.63
01.812,61.51
01.828,60.34
01.843,54.12
01.859,47.74
01.875,45.33
01.890,48.06
01.906,53.33
01.921,56.59
01.937,53.94
01.953,44.75
01.968,32.15
01.984,21.24
02.000,16.33
02.015,18.71
02.031,25.61
02.046,32.08
02.062,33.57
02.078,28.42
02.093,18.89
02.109,9.39
02.125,4.09
02.140,4.64
02.156,8.94
02.171,12.7
02.187,11.84
02.203,4.89
02.218,-6.24
02.234,-17.4
02.250,-24.69
02.265,-26.45
02.281,-24.5
02.296,-22.75
02.312,-25.13
02.328,-33.14
02.343,-44.92
02.359,-56.5
02.375,-63.92
02.390,-65.44
02.406,-62.97
02.421,-60.86
02.437,-63.39
02.453,-72.03
02.468,-83.76
02.484,-92.87
02.500,-93.52
02.515,-82.88
02.531,-63.41
02.546,-41.48
02.562,-24.25
02.578,-15.75
02.593,-14.4
02.609,-14.23
02.625,-8.79
02.640,4.81
02.656,23.32
02.671,39.0
02.687,44.05
02.703,35.65
02.718,18.5
02.734,2.42
02.750,-2.97
02.765,6.18
02.781,25.26
02.796,44.15
02.812,52.88
02.828,47.85
02.843,34.33
02.859,23.22
02.875,24.39
02.890,40.76
02.906,65.9
02.921,87.73
02.937,95.32
02.953,85.02
02.968,63.22
02.984,42.34
03.000,33.55
03.015,40.52
03.031,56.83
03.046,70.23
03.062,69.78
03.078,52.38
03.093,25.01
03.109,0.82
03.125,-8.73
03.140,-0.44
03.156,18.38
03.171,34.35
03.187,35.79
03.203,19.15
03.218,-8.66
03.234,-34.64
03.250,-47.21
03.265,-42.67
03.281,-27.7
03.296,-14.62
03.312,-14.43
03.328,-30.46
03.343,-56.15
03.359,-78.94
03.375,-87.4
03.390,-77.38
03.406,-54.77
03.421,-31.71
03.437,-19.41
03.453,-21.98
03.468,-33.65
03.484,-42.09
03.500,-35.97
03.515,-11.59
03.531,24.07
03.546,57.18
03.562,74.7
03.578,71.77
03.593,54.46
03.609,36.38
03.625,30.44
03.640,41.64
03.656,63.87
03.671,83.94
03.687,89.56
03.703,76.57
03.718,51.51
03.734,27.78
03.750,17.72
03.765,25.79
03.781,45.74
03.796,64.84
03.812,71.14
03.828,60.32
03.843,38.15
03.859,16.76
03.875,7.43
03.890,14.26
03.906,31.46
03.921,47.09
03.937,50.02
03.953,36.29
03.968,11.46
03.984,-12.63
04.000,-24.9
04.015,-21.16
04.031,-6.69
04.046,7.23
04.062,9.94
04.078,-2.43
04.093,-24.63
04.109,-45.48
04.125,-54.53
04.140,-47.92
04.156,-30.91
04.171,-14.51
04.187,-9.26
04.203,-19.26
04.218,-39.83
04.234,-60.57
04.250,-71.52
04.265,-68.91
04.281,-57.69
04.296,-48.11
04.312,-49.47
04.328,-64.31
04.343,-86.02
04.359,-102.21
04.375,-101.67
04.390,-80.49
04.406,-45.16
04.421,-8.79
04.437,15.69
04.453,22.49
04.468,15.93
04.484,7.48
04.500,8.6
04.515,24.09
04.531,48.92
04.546,71.63
04.562,81.09
04.578,73.11
04.593,53.16
04.609,33.13
04.625,24.31
04.640,31.21
04.656,48.54
04.671,65.0
04.687,69.76
04.703,58.84
04.718,37.58
04.734,17.53
04.750,9.57
04.765,17.93
04.781,37.28
04.796,56.11
04.812,63.38
04.828,54.52
04.843,34.3
04.859,13.76
04.875,3.68
04.890,8.61
04.906,23.78
04.921,38.39
04.937,41.82
04.953,29.71
04.968,6.67
04.984,-16.5
05.000,-29.22
05.015,-26.98
05.031,-14.23
05.046,-1.46
05.062,0.96
05.078,-11.25
05.093,-33.56
05.109,-55.33
05.125,-66.15
05.140,-61.55
05.156,-46.15
05.171,-30.67
05.187,-25.85
05.203,-36.29
05.218,-57.49
05.234,-78.32
05.250,-87.42
05.265,-79.23
05.281,-57.36
05.296,-32.16
05.312,-14.58
05.328,-10.1
05.343,-15.47
05.359,-21.03
05.375,-16.95
05.390,0.94
05.406,28.09
05.421,53.76
05.437,67.22
05.453,63.75
05.468,47.64
05.484,29.49
05.500,20.12
05.515,24.63
05.531,39.32
05.546,54.35
05.562,59.61
05.578,50.65
05.593,31.67
05.609,13.06
05.625,5.22
05.640,12.88
05.656,31.88
05.671,51.64
05.687,61.29
05.703,55.65
05.718,38.28
05.734,19.31
05.750,9.25
05.765,13.15
05.781,27.38
05.796,41.92
05.812,46.29
05.828,35.63
05.843,13.72
05.859,-9.26
05.875,-22.78
05.890,-21.76
05.906,-9.89
05.921,2.99
05.937,6.42
05.953,-4.53
05.968,-26.23
05.984,-48.7
06.000,-61.56
06.015,-59.68
06.031,-46.44
06.046,-31.68
06.062,-25.83
06.078,-34.2
06.093,-53.82
06.109,-75.09
06.125,-87.51
06.140,-85.21
06.156,-70.3
06.171,-51.24
06.187,-37.63
06.203,-34.52
06.218,-39.32
06.234,-43.51
06.250,-37.99
06.265,-18.56
06.281,10.93
06.296,40.52
06.312,59.57
06.328,62.61
06.343,52.55
06.359,38.88
06.375,32.02
06.390,37.56
06.406,52.8
06.421,68.6
06.437,74.84
06.453,66.32
06.468,46.14
06.484,23.92
06.500,10.28
06.515,11.0
06.531,23.68
06.546,39.23
06.562,47.38
06.578,42.58
06.593,27.32
06.609,10.58
06.625,2.29
06.640,7.66
06.656,23.7
06.671,41.0
06.687,49.02
06.703,42.1
06.718,22.99
06.734,1.12
06.750,-12.92
06.765,-13.16
06.781,-1.96
06.796,11.62
06.812,17.25
06.828,9.16
06.843,-10.22
06.859,-31.87
06.875,-45.6
06.890,-45.78
06.906,-34.84
06.921,-21.75
06.937,-16.69
06.953,-25.11
06.968,-44.34
06.984,-65.18
07.000,-77.41
07.015,-75.53
07.031,-62.3
07.046,-47.03
07.062,-40.12
07.078,-47.0
07.093,-64.52
07.109,-82.63
07.125,-90.08
07.140,-80.36
07.156,-55.76
07.171,-25.9
07.187,-2.25
07.203,8.0
07.218,5.98
07.234,-0.05
07.250,-0.07
07.265,11.94
07.281,34.04
07.296,57.4
07.312,71.67
07.328,70.89
07.343,57.31
07.359,40.09
07.375,29.85
07.390,32.69
07.406,46.44
07.421,61.98
07.437,68.77
07.453,61.12
07.468,41.97
07.484,21.32
07.500,10.38
07.515,15.38
07.531,33.54
07.546,54.66
07.562,66.94
07.578,63.5
07.593,46.42
07.609,25.32
07.625,11.41
07.640,11.36
07.656,23.25
07.671,37.81
07.687,44.24
07.703,36.42
07.718,16.72
07.734,-5.5
07.750,-19.53
07.765,-19.36
07.781,-7.39
07.796,7.0
07.812,13.05
07.828,4.64
07.843,-15.88
07.859,-39.1
07.875,-54.26
07.890,-55.03
07.906,-43.49
07.921,-28.65
07.937,-21.22
07.953,-27.51
07.968,-45.69
07.984,-67.12
08.000,-81.58
08.015,-82.92
08.031,-72.79
08.046,-59.48
08.062,-52.69
08.078,-57.85
08.093,-72.39
08.109,-87.2
08.125,-91.89
08.140,-80.55
08.156,-55.41
08.171,-25.8
08.187,-2.97
08.203,5.81
08.218,1.25
08.234,-8.88
08.250,-14.69
08.265,-9.7
08.281,5.32
08.296,23.05
08.312,34.23
08.328,32.94
08.343,20.42
08.359,4.26
08.375,-6.07
08.390,-4.33
08.406,8.57
08.421,25.45
08.437,36.98
08.453,37.24
08.468,27.56
08.484,15.8
08.500,11.69
08.515,21.31
08.531,43.01
08.546,67.72
08.562,84.09
08.578,84.61
08.593,70.2
08.609,49.84
08.625,35.36
08.640,34.87
08.656,47.83
08.671,65.19
08.687,74.81
08.703,68.3
08.718,46.24
08.734,17.73
08.750,-5.09
08.765,-13.8
08.781,-8.96
08.796,0.72
08.812,3.61
08.828,-7.92
08.843,-32.52
08.859,-60.66
08.875,-80.31
08.890,-83.47
08.906,-71.24
08.921,-53.1
08.937,-41.21
08.953,-43.4
08.968,-57.92
08.984,-74.0
09.000,-77.76
09.015,-59.94
09.031,-21.61
09.046,25.03
09.062,62.98
09.078,78.94
09.093,70.79
09.109,48.66
09.125,28.96
09.140,25.34
09.156,40.52
09.171,64.67
09.187,81.47
09.203,77.9
09.218,52.66
09.234,17.46
09.250,-9.78
09.265,-15.11
09.281,2.76
09.296,31.54
09.312,52.77
09.328,52.52
09.343,29.97
09.359,-2.08
09.375,-24.99
09.390,-25.16
09.406,-2.2
09.421,30.52
09.437,53.95
09.453,54.12
09.468,30.31
09.484,-4.91
09.500,-33.47
09.515,-42.11
09.531,-29.91
09.546,-8.43
09.562,5.79
09.578,0.75
09.593,-23.84
09.609,-56.91
09.625,-83.02
09.640,-91.07
09.656,-80.56
09.671,-61.32
09.687,-46.83
09.703,-46.22
09.718,-58.66
09.734,-74.02
09.750,-79.36
09.765,-66.61
09.781,-37.88
09.796,-5.18
09.812,16.16
09.828,15.69
09.843,-5.93
09.859,-36.68
09.875,-59.5
09.890,-60.92
09.906,-38.51
09.921,-2.43
09.937,30.3
09.953,44.86
09.968,37.08
09.984,15.71
10.000,-2.95
10.015,-4.27
10.031,15.71
10.046,47.53
10.062,74.09
10.078,80.41
10.093,62.98
10.109,32.08
10.125,5.55
10.140,-1.52
10.156,13.83
10.171,40.29
10.187,59.2
10.203,55.6
10.218,27.46
10.234,-12.81
10.250,-45.77
10.265,-55.99
10.281,-40.97
10.296,-12.47
10.312,10.94
10.328,14.71
10.343,-3.2
10.359,-31.56
10.375,-53.21
10.390,-55.08
10.406,-35.97
10.421,-7.07
10.437,15.02
10.453,17.97
10.468,1.02
10.484,-24.87
10.500,-43.97
10.515,-44.82
10.531,-27.13
10.546,-2.0
10.562,15.03
10.578,12.92
10.593,-7.94
10.609,-35.87
10.625,-54.82
10.640,-53.45
10.656,-32.01
10.671,-2.74
10.687,17.31
10.703,15.76
10.718,-7.76
10.734,-41.11
10.750,-66.62
10.765,-70.82
10.781,-52.25
10.796,-22.41
10.812,0.94
10.828,3.75
10.843,-15.8
10.859,-46.24
10.875,-69.32
10.890,-70.17
10.906,-46.12
10.921,-8.25
10.937,25.21
10.953,39.28
10.968,31.05
10.984,11.08
11.000,-3.49
11.015,0.91
11.031,25.6
11.046,58.63
11.062,82.09
11.078,82.63
11.093,59.73
11.109,26.09
11.140,-5.06
11.156,11.79
11.171,38.36
11.187,57.26
11.203,56.18
11.218,35.27
11.234,7.02
11.250,-11.52
11.265,-8.45
11.281,15.63
11.296,48.04
11.312,71.45
11.328,73.63
11.343,54.53
11.359,25.95
11.375,4.2
11.390,0.78
11.406,15.71
11.421,37.57
11.437,50.81
11.453,44.79
11.468,20.31
11.484,-10.91
11.500,-33.42
11.515,-36.85
11.531,-22.16
11.546,-1.04
11.562,11.2
11.578,4.29
11.593,-20.88
11.609,-52.95
11.625,-77.2
11.640,-83.73
11.656,-73.34
11.671,-56.62
11.687,-47.2
11.703,-53.46
11.718,-73.16
11.734,-94.62
11.750,-103.6
11.765,-91.41
11.781,-60.27
11.796,-22.19
11.812,7.87
11.828,20.1
11.843,15.4
11.859,4.32
11.875,0.43
11.890,12.45
11.906,38.79
11.921,68.43
11.937,87.53
11.953,87.31
11.968,69.47
11.984,45.3
12.000,28.94
12.015,29.51
12.031,45.69
12.046,66.43
12.062,77.95
12.078,71.88
12.093,50.61
12.109,26.15
12.125,12.95
12.140,19.6
12.156,43.21
12.171,70.66
12.187,86.14
12.203,79.82
12.218,53.71
12.234,20.28
12.250,-4.96
12.265,-12.06
12.281,-2.49
12.296,12.28
12.312,17.9
12.328,5.75
12.343,-21.71
12.359,-52.44
12.375,-72.17
12.390,-72.54
12.406,-56.31
12.421,-35.67
12.437,-24.89
12.453,-32.31
12.468,-55.29
12.484,-82.03
12.500,-98.77
12.515,-97.65
12.531,-81.47
12.546,-61.96
12.562,-52.65
12.578,-60.89
12.593,-83.16
12.609,-106.84
12.625,-117.47
12.640,-106.62
12.656,-76.88
12.671,-40.27
12.687,-11.25
12.703,1.12
12.718,-1.83
12.734,-9.75
12.750,-10.07
12.765,4.63
12.781,31.73
12.796,60.26
12.812,77.53
12.828,76.49
12.843,60.22
12.859,40.31
12.875,29.86
12.890,36.22
12.906,56.38
12.921,78.69
12.937,90.15
12.953,83.84
12.968,63.5
12.984,41.46
13.000,31.3
13.015,40.1
13.031,63.62
13.046,88.58
13.062,100.23
13.078,90.61
13.093,63.35
13.109,31.56
13.125,9.93
13.140,6.61
13.156,18.3
13.171,32.63
13.187,35.89
13.203,20.99
13.218,-7.92
13.234,-38.02
13.250,-55.53
13.265,-53.44
13.281,-35.93
13.296,-15.7
13.312,-6.4
13.328,-15.03
13.343,-37.74
13.359,-62.44
13.375,-76.12
13.390,-72.19
13.406,-54.47
13.421,-34.93
13.437,-26.69
13.453,-36.7
13.468,-61.7
13.484,-90.15
13.500,-109.03
13.515,-110.74
13.531,-97.38
13.546,-78.65
13.562,-65.8
13.578,-64.94
13.593,-73.19
13.609,-80.66
13.625,-76.68
13.640,-56.27
13.656,-23.92
13.671,8.89
13.687,30.3
13.703,34.96
13.718,27.58
13.734,20.21
13.750,24.98
13.765,46.91
13.781,80.2
13.796,111.31
13.812,126.61
13.828,119.91
13.843,96.25
13.859,68.96
13.875,51.8
13.890,51.45
13.906,63.62
13.921,76.33
13.937,77.46
13.953,62.07
13.968,35.76
13.984,11.22
14.000,0.52
14.015,8.23
14.031,28.1
14.046,46.94
14.062,52.22
14.078,39.04
14.093,13.03
14.109,-13.06
14.125,-26.97
14.140,-23.57
14.156,-7.93
14.171,8.06
14.187,12.54
14.203,0.44
14.218,-23.75
14.234,-48.75
14.250,-63.17
14.265,-61.71
14.281,-48.3
14.296,-33.24
14.312,-27.47
14.328,-36.55
14.343,-57.59
14.359,-81.45
14.375,-98.01
14.390,-101.53
14.406,-93.8
14.421,-82.11
14.437,-74.35
14.453,-74.33
14.468,-78.96
14.484,-80.02
14.500,-69.43
14.515,-44.26
14.531,-9.81
14.546,22.82
14.562,42.49
14.578,44.43
14.593,33.6
14.609,22.41
14.625,23.64
14.640,43.03
14.656,75.08
14.671,105.65
14.687,120.05
14.703,111.56
14.718,85.86
14.734,57.74
14.750,42.28
14.765,46.01
14.781,62.23
14.796,75.72
14.812,71.68
14.828,44.86
14.843,3.47
14.859,-35.59
14.875,-56.75
14.890,-54.33
14.906,-36.05
14.921,-17.88
14.937,-14.25
14.953,-29.78
14.968,-56.53
14.984,-78.77
15.000,-82.78
15.015,-64.56
15.031,-32.54
15.046,-2.34
15.062,12.04
15.078,6.09
15.093,-13.08
15.109,-31.16
15.125,-35.35
15.140,-21.59
15.156,3.12
15.171,25.15
15.187,32.24
15.203,20.2
15.218,-4.75
15.234,-29.93
15.250,-43.62
15.265,-41.49
15.281,-29.03
15.296,-17.57
15.312,-17.33
15.328,-31.24
15.343,-52.97
15.359,-70.36
15.375,-72.19
15.390,-54.52
15.406,-23.3
15.421,9.2
15.437,30.94
15.453,36.58
15.468,30.12
15.484,22.07
15.500,23.1
15.515,37.63
15.531,60.75
15.546,81.45
15.562,89.0
15.578,79.68
15.593,59.29
15.609,40.16
15.625,33.83
15.640,44.38
15.656,65.24
15.671,83.02
15.687,85.33
15.703,68.22
15.718,39.19
15.734,13.01
15.750,3.38
15.765,14.85
15.781,39.89
15.796,63.44
15.812,71.46
15.828,59.05
15.843,33.3
15.859,8.63
15.875,-1.82
15.890,6.11
15.906,24.9
15.921,40.5
15.937,40.67
15.953,22.22
15.968,-6.83
15.984,-32.16
16.000,-41.56
16.015,-31.96
16.031,-11.46
16.046,5.67
16.062,7.13
16.078,-10.17
16.093,-38.42
16.109,-63.28
16.125,-72.31
16.140,-62.01
16.156,-40.16
16.171,-20.98
16.187,-17.07
16.203,-32.24
16.218,-59.39
16.234,-84.67
16.250,-95.43
16.265,-87.24
16.281,-66.5
16.296,-45.98
16.312,-37.23
16.328,-43.66
16.343,-58.48
16.359,-68.72
16.375,-62.86
16.390,-37.88
16.406,-1.68
16.421,31.53
16.437,48.96
16.453,46.53
16.468,31.12
16.484,16.11
16.500,13.83
16.515,27.95
16.531,51.16
16.546,69.77
16.562,71.87
16.578,54.8
16.593,27.25
16.609,4.47
16.625,-0.4
16.640,15.92
16.656,44.17
16.671,67.99
16.687,72.94
16.703,55.0
16.718,23.16
16.734,-5.62
16.750,-15.99
16.765,-2.96
16.781,24.83
16.796,50.48
16.812,58.57
16.828,44.1
16.843,15.08
16.859,-12.5
16.875,-24.08
16.890,-15.16
16.906,5.93
16.921,23.79
16.937,24.95
16.953,6.01
16.968,-24.3
16.984,-50.72
17.000,-60.25
17.015,-49.75
17.031,-27.79
17.046,-9.27
17.062,-6.74
17.078,-23.27
17.093,-50.94
17.109,-75.83
17.125,-86.06
17.140,-78.63
17.156,-61.06
17.171,-46.33
17.187,-45.34
17.203,-60.2
17.218,-83.03
17.234,-100.8
17.250,-102.34
17.265,-84.83
17.281,-55.61
17.296,-27.28
17.312,-10.74
17.328,-8.75
17.343,-14.16
17.359,-14.68
17.375,0.14
17.390,32.12
17.406,71.94
17.421,103.67
17.437,113.25
17.453,96.13
17.468,60.72
17.484,24.16
17.500,3.34
17.515,5.9
17.531,25.69
17.546,46.22
17.562,50.03
17.578,28.88
17.593,-10.95
17.609,-52.21
17.625,-76.32
17.640,-74.0
17.656,-51.03
17.671,-24.24
17.687,-12.0
17.703,-23.01
17.718,-50.68
17.734,-77.5
17.750,-85.49
17.765,-66.93
17.781,-29.74
17.796,7.58
17.812,27.12
17.828,21.83
17.843,0.08
17.859,-20.12
17.875,-22.45
17.890,-2.19
17.906,30.65
17.921,57.64
17.937,63.2
17.953,43.91
17.968,10.52
17.984,-18.42
18.000,-28.06
18.015,-15.78
18.031,7.2
18.046,22.91
18.062,17.48
18.078,-10.58
18.093,-48.87
18.109,-77.9
18.125,-82.04
18.140,-58.24
18.156,-18.31
18.171,17.67
18.187,32.11
18.203,19.36
18.218,-11.33
18.234,-40.82
18.250,-50.89
18.265,-34.18
18.281,1.56
18.296,38.26
18.312,57.84
18.328,52.72
18.343,29.9
18.359,6.72
18.375,0.3
18.390,16.99
18.406,48.06
18.421,74.81
18.437,79.69
18.453,57.19
18.468,17.93
18.484,-17.02
18.500,-27.76
18.515,-7.19
18.531,34.45
18.546,75.64
18.562,95.57
18.578,86.11
18.593,56.03
18.609,25.24
18.625,12.82
18.640,25.33
18.656,53.06
18.671,76.17
18.687,76.83
18.703,50.46
18.718,8.6
18.734,-27.91
18.750,-41.13
18.765,-26.65
18.781,3.89
18.796,30.5
18.812,36.6
18.828,18.81
18.843,-11.68
18.859,-36.81
18.875,-42.63
18.890,-27.96
18.906,-4.63
18.921,10.15
18.937,4.09
18.953,-22.69
18.968,-58.22
18.984,-86.32
19.000,-96.03
19.015,-87.78
19.031,-72.53
19.046,-63.89
19.062,-70.24
19.078,-89.08
19.093,-108.27
19.109,-113.34
19.125,-95.34
19.140,-56.28
19.156,-7.83
19.171,35.18
19.187,62.96
19.203,75.48
19.218,81.64
19.234,92.66
19.250,114.89
19.265,144.96
19.281,171.01
19.296,179.79
19.312,164.34
19.328,129.18
19.343,88.98
19.359,61.11
19.375,56.93
19.390,75.2
19.406,102.65
19.421,121.09
19.437,117.24
19.453,90.24
19.468,52.48
19.484,22.45
19.500,14.76
19.515,31.34
19.531,59.73
19.546,80.49
19.562,77.83
19.578,49.31
19.593,7.62
19.609,-26.81
19.625,-37.24
19.640,-20.75
19.656,10.04
19.671,34.43
19.687,35.82
19.703,11.81
19.718,-24.29
19.734,-51.79
19.750,-54.71
19.765,-31.72
19.781,2.79
19.796,27.78
19.812,27.72
19.828,2.35
19.843,-33.3
19.859,-58.32
19.875,-58.19
19.890,-33.68
19.906,-0.05
19.921,22.16
19.937,19.28
19.953,-7.31
19.968,-42.1
19.984,-65.27
20.000,-63.9
20.015,-39.53
20.031,-6.7
20.046,16.47
20.062,18.78
20.078,2.79
20.093,-17.22
20.109,-24.4
20.125,-9.3
20.140,23.92
20.156,59.71
20.171,80.44
20.187,76.2
20.203,50.88
20.218,19.9
20.234,0.99
20.250,4.3
20.265,26.46
20.281,52.54
20.296,65.11
20.312,54.19
20.328,23.39
20.343,-12.23
20.359,-35.17
20.375,-35.24
20.390,-16.01
20.406,7.91
20.421,19.56
20.437,9.44
20.453,-18.47
20.468,-49.24
20.484,-66.05
20.500,-59.83
20.515,-34.99
20.531,-6.82
20.546,7.77
20.562,-0.29
20.578,-26.44
20.593,-55.36
20.609,-70.18
20.625,-62.04
20.640,-35.58
20.656,-6.15
20.671,9.2
20.687,1.4
20.703,-25.33
20.718,-56.08
20.734,-74.3
20.750,-71.12
20.765,-50.77
20.781,-27.62
20.796,-17.53
20.812,-28.6
20.828,-55.83
20.843,-84.1
20.859,-97.27
20.875,-87.32
20.890,-59.73
20.906,-29.91
20.921,-13.94
20.937,-19.16
20.953,-39.14
20.968,-57.45
20.984,-57.65
21.000,-33.02
21.015,8.62
21.031,49.27
21.046,71.01
21.062,66.01
21.078,41.24
21.093,14.13
21.109,2.01
21.125,12.42
21.140,38.52
21.156,63.82
21.171,72.23
21.187,57.42
21.203,26.93
21.218,-2.37
21.234,-14.37
21.250,-2.79
21.265,24.75
21.281,51.49
21.296,61.39
21.312,48.16
21.328,19.14
21.343,-9.17
21.359,-21.03
21.375,-10.31
21.390,15.4
21.406,39.65
21.421,46.58
21.437,29.98
21.453,-2.77
21.468,-35.1
21.484,-50.95
21.500,-43.63
21.515,-19.94
21.531,4.27
21.546,13.38
21.562,0.79
21.578,-27.05
21.593,-54.68
21.609,-66.9
21.625,-57.33
21.640,-32.56
21.656,-8.05
21.671,0.98
21.687,-11.9
21.703,-40.09
21.718,-67.92
21.734,-79.99
21.750,-69.85
21.765,-44.29
21.781,-19.02
21.796,-9.32
21.812,-20.96
21.828,-46.05
21.843,-67.52
21.859,-69.24
21.875,-45.49
21.890,-5.28
21.906,32.93
21.921,51.8
21.937,45.07
21.953,21.55
21.968,-0.12
21.984,-2.72
22.000,19.64
22.015,57.58
22.031,92.09
22.046,105.91
22.062,93.23
22.078,63.3
22.093,34.68
22.109,24.09
22.125,37.0
22.140,64.21
22.156,87.84
22.171,91.96
22.187,71.81
22.203,36.68
22.218,4.34
22.234,-9.63
22.250,-0.44
22.265,22.76
22.281,42.86
22.296,44.75
22.312,23.88
22.328,-10.78
22.343,-42.15
22.359,-55.06
22.375,-44.39
22.390,-18.37
22.406,6.76
22.421,16.17
22.437,4.5
22.453,-21.1
22.468,-45.6
22.484,-55.36
22.500,-45.81
22.515,-24.38
22.531,-5.88
22.546,-3.49
22.562,-21.1
22.578,-50.56
22.593,-76.35
22.609,-84.83
22.625,-71.98
22.640,-46.55
22.656,-24.61
22.671,-20.35
22.687,-37.66
22.703,-67.06
22.718,-90.89
22.734,-93.52
22.750,-70.18
22.765,-30.66
22.781,6.32
22.796,23.76
22.812,15.81
22.828,-8.52
22.843,-30.74
22.859,-33.99
22.875,-12.64
22.890,23.9
22.906,56.99
22.921,69.81
22.937,57.15
22.953,28.48
22.968,2.31
22.984,-5.18
23.000,10.65
23.015,39.71
23.031,63.6
23.046,66.82
23.062,45.9
23.078,11.94
23.093,-15.89
23.109,-21.73
23.125,-2.05
23.140,31.73
23.156,60.15
23.171,67.03
23.187,48.46
23.203,15.19
23.218,-14.01
23.234,-23.49
23.250,-9.56
23.265,17.19
23.281,38.62
23.296,39.97
23.312,18.43
23.328,-15.08
23.343,-42.51
23.359,-49.49
23.375,-33.64
23.390,-6.2
23.406,14.79
23.421,15.24
23.437,-6.86
23.453,-40.08
23.468,-66.32
23.484,-71.54
23.500,-53.85
23.515,-24.95
23.531,-3.32
23.546,-3.41
23.562,-27.16
23.578,-62.34
23.593,-89.09
23.609,-91.03
23.625,-64.36
23.640,-20.54
23.656,20.11
23.671,39.56
23.687,32.03
23.703,7.11
23.718,-16.08
23.734,-20.11
23.750,0.56
23.765,36.11
23.781,67.34
23.796,77.07
23.812,60.5
23.828,28.17
23.843,-0.37
23.859,-8.1
23.875,9.25
23.890,40.48
23.906,65.84
23.921,68.71
23.937,45.68
23.953,8.66
23.968,-22.1
23.984,-29.79
24.000,-10.83
24.015,22.87
24.031,51.17
24.046,57.28
24.062,37.51
24.078,3.22
24.093,-26.21
24.109,-34.7
24.125,-18.95
24.140,9.67
24.156,32.27
24.171,33.53
24.187,11.03
24.203,-23.44
24.218,-51.06
24.234,-56.97
24.250,-39.12
24.265,-9.68
24.281,12.64
24.296,13.32
24.312,-9.17
24.328,-42.5
24.343,-68.03
24.359,-71.68
24.375,-52.32
24.390,-22.82
24.406,-2.28
24.421,-5.28
24.437,-33.04
24.453,-72.15
24.468,-101.97
24.484,-105.64
24.500,-79.5
24.515,-35.38
24.531,6.19
24.546,26.94
24.562,21.13
24.578,-1.67
24.593,-22.61
24.609,-24.45
24.625,-1.96
24.640,34.73
24.656,66.4
24.671,75.75
24.687,58.14
24.703,24.58
24.718,-4.9
24.734,-12.77
24.750,5.45
24.765,38.13
24.781,64.97
24.796,68.61
24.812,45.37
24.828,7.64
24.843,-23.55
24.859,-30.5
24.875,-9.43
24.890,27.08
24.906,57.79
24.921,64.73
24.937,43.85
24.953,7.25
24.968,-24.37
24.984,-33.63
25.000,-16.72
25.015,14.26
25.031,39.17
25.046,41.4
25.062,18.13
25.078,-18.05
25.093,-47.05
25.109,-52.96
25.125,-33.74
25.140,-2.6
25.156,20.23
25.171,19.25
25.187,-6.94
25.203,-44.56
25.218,-73.26
25.234,-77.69
25.250,-56.78
25.265,-24.47
25.281,-1.15
25.296,-2.13
25.312,-28.19
25.328,-64.99
25.343,-91.65
25.359,-92.32
25.375,-65.61
25.390,-25.26
25.406,8.3
25.421,19.4
25.437,6.47
25.453,-17.41
25.468,-33.01
25.484,-26.25
25.500,2.91
25.515,40.34
25.531,66.37
25.546,67.29
25.562,43.95
25.578,11.35
25.593,-10.49
25.609,-8.07
25.625,17.36
25.640,50.47
25.656,71.41
25.671,67.27
25.687,40.02
25.703,5.48
25.718,-16.41
25.734,-12.95
25.750,13.42
25.765,46.69
25.781,66.97
25.796,61.87
25.812,34.0
25.828,-0.66
25.843,-22.65
25.859,-20.08
25.875,4.05
25.890,33.83
25.906,50.11
25.921,41.47
25.937,11.24
25.953,-24.71
25.968,-47.56
25.984,-46.2
26.000,-24.05
26.015,3.34
26.031,17.79
26.046,8.87
26.062,-19.65
26.078,-52.13
26.093,-70.65
26.109,-65.26
26.125,-40.13
26.140,-11.08
26.156,3.99
26.171,-4.64
26.187,-32.37
26.203,-62.92
26.218,-78.15
26.234,-68.34
26.250,-38.35
26.265,-4.49
26.281,15.3
26.296,11.88
26.312,-9.33
26.328,-31.74
26.343,-37.9
26.359,-19.78
26.375,15.8
26.390,51.25
26.406,68.67
26.421,60.04
26.437,32.25
26.453,2.93
26.468,-10.14
26.484,1.05
26.500,29.84
26.515,59.15
26.531,71.76
26.546,60.0
26.562,30.45
26.578,0.01
26.593,-14.22
26.609,-4.47
26.625,22.83
26.640,51.18
26.656,63.67
26.671,52.53
26.687,23.85
26.703,-6.16
26.718,-20.95
26.734,-12.87
26.750,11.87
26.765,37.34
26.781,47.21
26.796,34.12
26.812,4.21
26.828,-26.62
26.843,-42.3
26.859,-35.57
26.875,-12.58
26.890,11.1
26.906,19.75
26.921,6.3
26.937,-23.21
26.953,-53.37
26.968,-68.64
26.984,-62.08
27.000,-39.76
27.015,-16.89
27.031,-8.78
27.046,-22.14
27.062,-50.66
27.078,-78.58
27.093,-90.04
27.109,-77.91
27.125,-48.59
27.140,-18.05
27.156,-2.56
27.171,-9.42
27.187,-32.02
27.203,-53.77
27.218,-57.87
27.234,-37.1
27.250,1.12
27.265,39.18
27.281,59.38
27.296,54.01
27.312,30.14
27.328,5.31
27.343,-3.28
27.359,11.51
27.375,41.93
27.390,70.43
27.406,80.17
27.421,64.73
27.437,32.28
27.453,0.68
27.468,-13.11
27.484,-2.54
27.500,24.48
27.515,50.64
27.531,59.59
27.546,45.23
27.562,15.48
27.578,-12.48
27.593,-22.7
27.609,-9.36
27.625,19.17
27.640,45.64
27.656,53.94
27.671,38.23
27.687,6.58
27.703,-23.86
27.718,-37.11
27.734,-27.16
27.750,-1.83
27.765,22.27
27.781,29.58
27.796,14.35
27.812,-15.85
27.828,-44.75
27.843,-57.15
27.859,-47.46
27.875,-23.33
27.890,-0.78
27.906,5.24
27.921,-10.61
27.937,-40.62
27.953,-68.49
27.968,-79.13
27.984,-67.06
28.000,-40.26
28.015,-15.29
28.031,-7.5
28.046,-22.19
28.062,-50.71
28.078,-75.16
28.093,-78.7
28.109,-55.03
28.125,-12.86
28.140,28.98
28.156,52.14
28.171,48.85
28.187,26.5
28.203,3.04
28.218,-3.94
28.234,12.68
28.250,44.77
28.265,74.28
28.281,84.06
28.296,68.01
28.312,35.05
28.328,3.84
28.343,-8.49
28.359,3.97
28.375,32.0
28.390,57.13
28.406,62.85
28.421,44.17
28.437,10.93
28.453,-18.09
28.468,-26.42
28.484,-9.25
28.500,23.22
28.515,51.97
28.531,60.31
28.546,43.25
28.562,10.39
28.578,-19.89
28.593,-31.57
28.609,-20.05
28.625,5.0
28.640,25.82
28.656,27.46
28.671,6.52
28.687,-26.54
28.703,-53.63
28.718,-59.95
28.734,-42.49
28.750,-12.24
28.765,12.5
28.781,16.9
28.796,-1.95
28.812,-33.27
28.828,-58.96
28.843,-64.52
28.859,-47.31
28.875,-18.46
28.890,3.59
28.906,3.95
28.921,-20.15
28.937,-57.11
28.953,-87.04
28.968,-92.63
28.984,-68.53
29.000,-24.63
29.015,19.28
29.031,44.39
29.046,43.01
29.062,22.49
29.078,0.63
29.093,-5.13
29.109,11.98
29.125,43.74
29.140,72.07
29.156,79.87
29.171,61.67
29.187,27.35
29.203,-3.56
29.218,-13.23
29.234,3.71
29.250,36.68
29.265,65.58
29.281,72.45
29.296,52.28
29.312,15.86
29.328,-16.47
29.343,-26.74
29.359,-9.89
29.375,23.26
29.390,52.59
29.406,60.38
29.421,41.78
29.437,7.47
29.453,-22.94
29.468,-32.35
29.484,-16.47
29.500,13.63
29.515,38.38
29.531,41.16
29.546,18.36
29.562,-18.44
29.578,-49.67
29.593,-59.11
29.609,-43.68
29.625,-15.42
29.640,6.06
29.656,4.93
29.671,-21.12
29.687,-59.39
29.703,-89.74
29.718,-96.15
29.734,-76.24
29.750,-42.73
29.765,-15.82
29.781,-11.72
29.796,-32.99
29.812,-66.84
29.828,-92.65
29.843,-93.39
29.859,-65.5
29.875,-21.08
29.890,19.43
29.906,38.4
29.921,31.36
29.937,9.18
29.953,-8.98
29.968,-6.94
29.984,18.53
30.000,55.49
30.015,84.3
30.031,89.05
30.046,67.52
30.062,32.8
30.078,5.27
30.093,0.93
30.109,21.55
30.125,53.66
30.140,76.9
30.156,76.06
30.171,50.42
30.187,14.32
30.203,-11.68
30.218,-12.61
30.234,11.65
30.250,46.32
30.265,70.78
30.281,70.4
30.296,45.25
30.312,10.04
30.328,-15.2
30.343,-16.62
30.359,4.96
30.375,34.69
30.390,52.97
30.406,46.8
30.421,17.76
30.437,-19.03
30.453,-44.37
30.468,-45.95
30.484,-25.9
30.500,0.82
30.515,15.68
30.531,7.37
30.546,-21.32
30.562,-55.3
30.578,-76.58
30.593,-74.63
30.609,-52.96
30.625,-26.89
30.640,-14.22
30.656,-24.93
30.671,-54.69
30.687,-87.21
30.703,-103.82
30.718,-94.03
30.734,-61.98
30.750,-23.9
30.765,1.57
30.781,4.02
30.796,-12.43
30.812,-31.87
30.828,-36.66
30.843,-17.92
30.859,18.43
30.875,55.3
30.890,74.59
30.906,67.68
30.921,40.9
30.937,11.74
30.953,-1.76
30.968,8.81
30.984,37.07
31.000,66.02
31.015,78.31
31.031,66.21
31.046,36.31
31.062,5.57
31.078,-8.96
31.093,0.34
31.109,26.79
31.125,53.84
31.140,64.83
31.156,52.45
31.171,23.31
31.187,-6.16
31.203,-19.57
31.218,-9.83
31.234,16.29
31.250,42.42
31.265,52.22
31.281,38.63
31.296,8.15
31.312,-23.09
31.328,-38.99
31.343,-32.41
31.359,-9.75
31.375,13.41
31.390,21.34
31.406,7.1
31.421,-23.21
31.437,-54.2
31.453,-70.39
31.468,-64.95
31.484,-43.95
31.500,-22.43
31.515,-15.4
31.531,-29.19
31.546,-57.26
31.562,-83.87
31.578,-93.5
31.593,-79.55
31.609,-49.01
31.625,-18.19
31.640,-3.34
31.656,-11.44
31.671,-35.49
31.687,-58.38
31.703,-62.97
31.718,-41.7
31.734,-1.74
31.750,39.17
31.765,62.93
31.781,61.12
31.796,40.11
31.812,16.95
31.828,8.9
31.843,23.52
31.859,53.56
31.875,81.85
31.890,91.62
31.906,76.39
31.921,44.29
31.937,13.27
31.953,0.33
31.968,11.92
31.984,39.68
32.000,65.85
32.015,73.71
32.031,57.19
32.046,24.67
32.062,-5.97
32.078,-18.03
32.093,-5.22
32.109,24.29
32.125,53.0
32.140,64.25
32.156,51.51
32.171,22.1
32.187,-7.4
32.203,-21.14
32.218,-12.91
32.234,10.02
32.250,31.7
32.265,36.91
32.281,20.03
32.296,-11.5
32.312,-41.61
32.328,-55.1
32.343,-46.23
32.359,-22.33
32.375,0.88
32.390,8.5
32.406,-5.13
32.421,-32.93
32.437,-59.42
32.453,-70.17
32.468,-59.85
32.484,-36.1
32.500,-14.53
32.515,-9.46
32.531,-25.54
32.546,-54.27
32.562,-78.6
32.578,-82.93
32.593,-61.96
32.609,-24.6
32.625,11.03
32.640,27.74
32.656,18.98
32.671,-7.03
32.687,-32.05
32.703,-38.45
32.718,-19.19
32.734,17.48
32.750,53.3
32.765,70.58
32.781,62.25
32.796,36.11
32.812,9.89
32.828,0.41
32.843,13.93
32.859,42.1
32.875,67.4
32.890,73.91
32.906,56.53
32.921,24.51
32.937,-3.96
32.953,-12.68
32.968,3.48
32.984,35.09
33.000,63.86
33.015,73.28
33.031,57.8
33.046,26.21
33.062,-3.75
33.078,-15.95
33.093,-4.78
33.109,21.17
33.125,44.69
33.140,50.07
33.156,32.01
33.171,-1.13
33.187,-32.37
33.203,-46.27
33.218,-37.47
33.234,-14.1
33.250,7.54
33.265,12.65
33.281,-3.64
33.296,-33.24
33.312,-60.08
33.328,-69.75
33.343,-57.68
33.359,-32.3
33.375,-9.75
33.390,-4.36
33.406,-20.55
33.421,-49.76
33.437,-75.38
33.453,-82.57
33.468,-66.57
33.484,-36.08
33.500,-8.16
33.515,1.61
33.531,-11.98
33.546,-40.16
33.562,-64.92
33.578,-69.39
33.593,-47.18
33.609,-6.81
33.625,33.33
33.640,55.36
33.656,51.74
33.671,29.74
33.687,6.72
33.703,-0.53
33.718,14.58
33.734,43.92
33.750,70.11
33.765,77.08
33.781,59.53
33.796,26.75
33.812,-2.94
33.828,-13.0
33.843,1.97
33.859,32.53
33.875,60.32
33.890,68.89
33.906,52.97
33.921,21.7
33.937,-6.82
33.953,-16.4
33.968,-1.8
33.984,27.79
34.000,54.41
34.015,61.91
34.031,44.89
34.046,12.03
34.062,-19.26
34.078,-33.19
34.093,-24.31
34.109,-0.94
34.125,20.39
34.140,24.67
34.156,7.01
34.171,-24.35
34.187,-53.13
34.203,-64.76
34.218,-54.5
34.234,-30.61
34.250,-9.11
34.265,-4.32
34.281,-20.75
34.296,-50.12
34.312,-76.14
34.328,-84.23
34.343,-69.67
34.359,-40.92
34.375,-14.69
34.390,-6.15
34.406,-20.32
34.421,-48.5
34.437,-72.89
34.453,-76.86
34.468,-54.15
34.484,-13.26
34.500,27.44
34.515,50.03
34.531,46.87
34.546,25.16
34.562,2.34
34.578,-4.49
34.593,11.6
34.609,42.75
34.625,71.47
34.640,81.21
34.656,66.07
34.671,34.7
34.687,5.18
34.703,-5.82
34.718,7.51
34.734,36.25
34.750,62.51
34.765,69.99
34.781,53.36
34.796,21.6
34.812,-7.32
34.828,-17.2
34.843,-2.7
34.859,27.2
34.875,54.57
34.890,63.09
34.906,47.06
34.921,14.87
34.937,-15.98
34.953,-29.36
34.968,-19.26
34.984,6.34
35.000,30.74
35.015,38.15
35.031,22.64
35.046,-8.38
35.062,-38.69
35.078,-52.95
35.093,-45.18
35.109,-22.52
35.125,-0.57
35.140,5.93
35.156,-8.58
35.171,-36.98
35.187,-63.78
35.203,-74.6
35.218,-64.31
35.234,-40.69
35.250,-19.54
35.265,-15.31
35.281,-32.53
35.296,-62.36
35.312,-87.31
35.328,-91.42
35.343,-69.26
35.359,-29.9
35.375,8.13
35.390,27.34
35.406,20.94
35.421,-2.9
35.437,-25.89
35.453,-30.44
35.468,-9.56
35.484,28.46
35.500,65.24
35.515,83.02
35.531,74.64
35.546,47.77
35.562,20.15
35.578,8.69
35.593,20.02
35.609,46.24
35.625,70.24
35.640,76.02
35.656,58.14
35.671,25.3
35.687,-4.73
35.703,-15.61
35.718,-1.64
35.734,28.52
35.750,57.15
35.765,67.77
35.781,54.19
35.796,24.26
35.812,-4.98
35.828,-17.49
35.843,-7.11
35.859,18.51
35.875,42.85
35.890,50.19
35.906,34.47
35.921,2.99
35.937,-27.87
35.953,-42.43
35.968,-34.29
35.984,-10.36
36.000,13.55
36.015,21.99
36.031,8.5
36.046,-20.44
36.062,-49.35
36.078,-62.99
36.093,-54.8
36.109,-31.23
36.125,-7.58
36.140,0.87
36.156,-12.49
36.171,-41.43
36.187,-70.39
36.203,-83.76
36.218,-74.51
36.234,-48.79
36.250,-22.09
36.265,-9.97
36.281,-19.15
36.296,-42.8
36.312,-64.42
36.328,-67.54
36.343,-45.15
36.359,-4.57
36.375,36.63
36.390,60.58
36.406,58.97
36.421,37.83
36.437,13.72
36.453,3.67
36.468,15.44
36.484,42.8
36.500,69.49
36.515,79.16
36.531,64.75
36.546,33.15
36.562,1.14
36.578,-14.41
36.593,-5.9
36.609,20.2
36.625,47.51
36.640,59.42
36.656,48.39
36.671,20.59
36.687,-7.76
36.703,-20.15
36.718,-8.99
36.734,19.42
36.750,48.64
36.765,61.69
36.781,50.5
36.796,20.81
36.812,-11.27
36.828,-28.74
36.843,-23.18
36.859,0.09
36.875,25.3
36.890,35.59
36.906,22.46
36.921,-8.95
36.937,-42.87
36.953,-62.21
36.968,-57.94
36.984,-34.8
37.000,-8.35
37.015,4.13
37.031,-6.73
37.046,-36.56
37.062,-69.74
37.078,-88.6
37.093,-83.09
37.109,-56.87
37.125,-25.02
37.140,-4.89
37.156,-6.43
37.171,-25.94
37.187,-48.36
37.203,-56.22
37.218,-39.71
37.234,-2.86
37.250,38.4
37.265,65.47
37.281,67.19
37.296,46.47
37.312,18.47
37.328,1.53
37.343,7.02
37.359,32.45
37.375,62.94
37.390,80.19
37.406,72.82
37.421,43.37
37.437,7.08
37.453,-17.02
37.468,-16.49
37.484,6.97
37.500,38.63
37.515,59.4
37.531,56.48
37.546,30.94
37.562,-2.9
37.578,-26.07
37.593,-25.56
37.609,-2.07
37.625,30.1
37.640,51.71
37.656,49.14
37.671,22.66
37.687,-13.75
37.703,-40.66
37.718,-43.96
37.734,-23.23
37.750,7.87
37.765,29.92
37.781,28.53
37.796,2.99
37.812,-33.28
37.828,-60.82
37.843,-65.11
37.859,-45.15
37.875,-14.29
37.890,8.05
37.906,7.22
37.921,-17.74
37.937,-53.48
37.953,-80.37
37.968,-83.52
37.984,-61.66
38.000,-27.98
38.015,-2.21
38.031,0.34
38.046,-22.05
38.062,-56.23
38.078,-81.8
38.093,-82.09
38.109,-53.76
38.125,-9.05
38.140,31.34
38.156,49.17
38.171,39.12
38.187,11.49
38.203,-14.13
38.218,-19.93
38.234,-0.37
38.250,34.41
38.265,65.03
38.281,73.96
38.296,56.2
38.312,22.54
38.328,-7.15
38.343,-15.23
38.359,2.97
38.375,36.11
38.390,64.01
38.406,69.11
38.421,47.15
38.437,9.76
38.453,-22.47
38.468,-31.78
38.484,-13.52
38.500,20.93
38.515,51.44
38.531,60.47
38.546,43.33
38.562,10.8
38.578,-17.94
38.593,-26.35
38.609,-10.46
38.625,18.66
38.640,42.14
38.656,44.17
38.671,21.6
38.687,-14.11
38.703,-44.09
38.718,-52.97
38.734,-37.98
38.750,-10.79
38.765,10.04
38.781,9.77
38.796,-13.6
38.812,-47.97
38.828,-74.6
38.843,-78.98
38.859,-59.35
38.875,-28.35
38.890,-5.16
38.906,-4.88
38.921,-29.5
38.937,-66.24
38.953,-94.79
38.968,-98.35
38.984,-72.98
39.000,-30.35
39.015,9.21
39.031,27.49
39.046,18.58
39.062,-7.8
39.078,-32.42
39.093,-37.35
39.109,-16.35
39.125,21.15
39.140,56.08
39.156,70.63
39.171,58.79
39.187,30.07
39.203,3.51
39.218,-3.59
39.234,13.95
39.250,45.66
39.265,72.02
39.281,76.02
39.296,53.32
39.312,15.38
39.328,-17.33
39.343,-27.04
39.359,-8.92
39.375,25.76
39.390,56.69
39.406,66.12
39.421,48.94
39.437,15.66
39.453,-14.33
39.468,-24.13
39.484,-9.04
39.500,20.38
39.515,45.31
39.531,49.6
39.546,29.19
39.562,-5.36
39.578,-35.56
39.593,-45.95
39.609,-32.91
39.625,-7.09
39.640,13.55
39.656,14.39
39.671,-7.3
39.687,-40.48
39.703,-67.11
39.718,-72.83
39.734,-55.24
39.750,-25.86
39.765,-3.12
39.781,-1.73
39.796,-24.13
39.812,-58.47
39.828,-85.37
39.843,-88.8
39.859,-64.98
39.875,-25.17
39.890,10.85
39.906,25.81
39.921,14.39
39.937,-13.44
39.953,-38.41
39.968,-43.01
39.984,-21.29
40.000,17.12
40.015,53.04
40.031,68.85
40.046,58.42
40.062,30.92
40.078,5.06
40.093,-2.24
40.109,14.39
40.125,45.11
40.140,71.1
40.156,76.0
40.171,55.51
40.187,20.51
40.203,-9.37
40.218,-17.32
40.234,1.15
40.250,34.97
40.265,64.38
40.281,72.28
40.296,53.67
40.312,18.74
40.328,-13.4
40.343,-26.01
40.359,-13.81
40.375,13.69
40.390,38.45
40.406,44.58
40.421,27.26
40.437,-4.33
40.453,-32.76
40.468,-42.82
40.484,-30.04
40.500,-3.67
40.515,19.16
40.531,23.66
40.546,5.66
40.562,-25.75
40.578,-53.68
40.593,-63.69
40.609,-51.82
40.625,-27.43
40.640,-7.42
40.656,-6.14
40.671,-27.03
40.687,-59.78
40.703,-86.02
40.718,-89.92
40.734,-66.92
40.750,-27.32
40.765,9.59
40.781,26.36
40.796,16.86
40.812,-9.89
40.828,-34.95
40.843,-40.56
40.859,-20.0
40.875,18.05
40.890,54.93
40.906,72.86
40.921,65.0
40.937,39.45
40.953,14.09
40.968,5.67
40.984,20.11
41.000,48.63
41.015,73.42
41.031,78.56
41.046,59.36
41.062,25.72
41.078,-3.64
41.093,-12.29
41.109,4.63
41.125,37.03
41.140,66.05
41.156,74.9
41.171,58.23
41.187,25.28
41.203,-5.66
41.218,-18.18
41.234,-6.73
41.250,19.9
41.265,44.19
41.281,50.3
41.296,33.03
41.312,0.86
41.328,-29.11
41.343,-41.48
41.359,-31.03
41.375,-6.15
41.390,16.58
41.406,22.03
41.421,5.02
41.437,-26.53
41.453,-56.43
41.468,-69.82
41.484,-61.35
41.500,-38.6
41.515,-17.22
41.531,-11.63
41.546,-26.92
41.562,-55.48
41.578,-81.37
41.593,-89.9
41.609,-75.72
41.625,-46.71
41.640,-19.22
41.656,-8.63
41.671,-20.51
41.687,-46.83
41.703,-70.18
41.718,-73.89
41.734,-51.4
41.750,-10.81
41.765,29.84
41.781,52.71
41.796,50.16
41.812,29.24
41.828,7.33
41.843,1.46
41.859,18.5
41.875,50.55
41.890,80.05
41.906,90.32
41.921,75.22
41.937,43.22
41.953,12.36
41.968,-0.51
41.984,10.87
42.000,38.24
42.015,64.1
42.031,72.26
42.046,56.97
42.062,26.55
42.078,-1.63
42.093,-11.63
42.109,2.23
42.125,31.42
42.140,58.55
42.156,67.31
42.171,51.61
42.187,19.18
42.203,-13.01
42.218,-28.78
42.234,-21.6
42.250,1.46
42.265,24.38
42.281,31.73
42.296,17.32
42.312,-12.01
42.328,-40.66
42.343,-53.61
42.359,-44.83
42.375,-21.27
42.390,1.66
42.406,9.1
42.421,-4.91
42.437,-33.65
42.453,-61.84
42.468,-74.73
42.484,-66.43
42.500,-43.73
42.515,-21.84
42.531,-15.25
42.546,-29.42
42.562,-56.94
42.578,-81.63
42.593,-87.97
42.609,-69.81
42.625,-34.63
42.640,0.83
42.656,20.14
42.671,16.28
42.687,-3.96
42.703,-24.11
42.718,-27.86
42.734,-8.4
42.750,26.97
42.765,61.3
42.781,77.91
42.796,69.78
42.812,43.85
42.828,16.74
42.843,4.75
42.859,14.58
42.875,39.11
42.890,62.12
42.906,68.08
42.921,51.22
42.937,19.39
42.953,-10.45
42.968,-22.21
42.984,-9.63
43.000,19.68
43.015,48.68
43.031,60.9
43.046,49.39
43.062,20.96
43.078,-7.89
43.093,-20.75
43.109,-10.39
43.125,16.6
43.140,43.94
43.156,55.09
43.171,42.47
43.187,12.01
43.203,-20.37
43.218,-38.25
43.234,-33.75
43.250,-12.32
43.265,10.71
43.281,19.43
43.296,6.27
43.312,-23.17
43.328,-53.5
43.343,-68.72
43.359,-61.21
43.375,-36.76
43.390,-10.96
43.406,-0.25
43.421,-12.54
43.437,-42.31
43.453,-73.56
43.468,-89.22
43.484,-80.54
43.500,-52.38
43.515,-20.27
43.531,-1.18
43.546,-4.0
43.562,-23.98
43.578,-45.59
43.593,-51.75
43.609,-33.6
43.625,3.8
43.640,44.21
43.656,69.7
43.671,70.47
43.687,50.59
43.703,25.47
43.718,12.37
43.734,20.67
43.750,46.08
43.765,73.18
43.781,84.95
43.796,72.4
43.812,40.55
43.828,5.61
43.843,-14.31
43.859,-9.2
43.875,16.74
43.890,47.68
43.906,65.41
43.921,59.47
43.937,33.3
43.953,2.17
43.968,-16.13
43.984,-11.15
44.000,13.68
44.015,42.98
44.031,58.61
44.046,49.81
44.062,19.8
44.078,-15.96
44.093,-38.82
44.109,-37.2
44.125,-13.48
44.140,17.29
44.156,36.37
44.171,31.67
44.187,4.92
44.203,-29.42
44.218,-52.9
44.234,-53.45
44.250,-32.68
44.265,-4.95
44.281,11.29
44.296,4.01
44.312,-24.99
44.328,-60.96
44.343,-84.94
44.359,-84.35
44.375,-60.54
44.390,-28.17
44.406,-6.44
44.421,-8.52
44.437,-33.61
44.453,-67.13
44.468,-89.18
44.484,-85.31
44.500,-54.89
44.515,-11.73
44.531,23.91
44.546,36.14
44.562,22.59
44.578,-4.49
44.593,-25.65
44.609,-25.16
44.625,-0.34
44.640,36.65
44.656,66.16
44.671,72.11
44.687,51.69
44.703,17.3
44.718,-10.89
44.734,-16.1
44.750,4.89
44.765,39.74
44.781,68.03
44.796,72.8
44.812,50.66
44.828,13.99
44.843,-16.56
44.859,-23.59
44.875,-3.27
44.890,32.28
44.906,62.48
44.921,69.8
44.937,50.18
44.953,15.18
44.968,-15.16
44.984,-23.84
45.000,-6.96
45.015,23.87
45.031,49.03
45.046,52.05
45.062,29.61
45.078,-6.49
45.093,-36.75
45.109,-45.02
45.125,-28.17
45.140,1.97
45.156,26.16
45.171,28.69
45.187,6.87
45.203,-27.48
45.218,-55.41
45.234,-61.79
45.250,-44.27
45.265,-15.0
45.281,7.19
45.296,7.4
45.312,-16.31
45.328,-51.69
45.343,-79.75
45.359,-85.52
45.375,-66.82
45.390,-35.77
45.406,-11.37
45.421,-8.83
45.437,-30.58
45.453,-64.37
45.468,-90.34
45.484,-91.79
45.500,-64.67
45.515,-20.43
45.531,20.77
45.546,40.68
45.562,33.25
45.578,7.96
45.593,-16.26
45.609,-21.81
45.625,-2.78
45.640,31.24
45.656,61.46
45.671,70.73
45.687,54.05
45.703,21.91
45.718,-6.18
45.734,-13.01
45.750,6.02
45.765,39.6
45.781,67.7
45.796,73.0
45.812,51.25
45.828,13.98
45.843,-18.32
45.859,-28.02
45.875,-10.44
45.890,23.17
45.906,52.8
45.921,61.03
45.937,43.15
45.953,9.88
45.968,-19.46
45.984,-28.25
46.000,-12.18
46.015,17.85
46.031,42.94
46.046,47.06
46.062,26.56
46.078,-7.59
46.093,-36.71
46.109,-45.31
46.125,-30.11
46.140,-2.17
46.156,20.16
46.171,22.07
46.187,0.85
46.203,-32.19
46.218,-58.73
46.234,-64.21
46.250,-46.26
46.265,-16.56
46.281,6.25
46.296,7.3
46.312,-15.79
46.328,-50.97
46.343,-78.63
46.359,-82.47
46.375,-58.7
46.390,-18.73
46.406,17.59
46.421,32.83
46.437,21.79
46.453,-5.44
46.468,-29.65
46.484,-33.63
46.500,-12.07
46.515,24.87
46.531,57.85
46.546,69.64
46.562,55.17
46.578,24.76
46.593,-2.2
46.609,-8.76
46.625,9.65
46.640,42.13
46.656,69.15
46.671,74.06
46.687,52.94
46.703,17.19
46.718,-13.18
46.734,-21.36
46.750,-3.22
46.765,29.85
46.781,58.12
46.796,64.96
46.812,46.17
46.828,12.64
46.843,-16.53
46.859,-25.25
46.875,-9.44
46.890,20.22
46.906,45.22
46.921,50.05
46.937,31.02
46.953,-1.56
46.968,-29.68
46.984,-38.4
47.000,-24.24
47.015,2.47
47.031,24.2
47.046,26.49
47.062,6.24
47.078,-26.19
47.093,-53.37
47.109,-60.96
47.125,-45.77
47.140,-18.11
47.156,4.7
47.171,8.39
47.187,-10.1
47.203,-40.59
47.218,-65.62
47.234,-70.84
47.250,-52.99
47.265,-22.53
47.281,2.62
47.296,7.46
47.312,-11.55
47.328,-43.72
47.343,-69.99
47.359,-73.74
47.375,-49.99
47.390,-8.89
47.406,30.17
47.421,49.52
47.437,42.97
47.453,19.3
47.468,-3.14
47.484,-7.7
47.500,11.08
47.515,43.63
47.531,71.49
47.546,78.51
47.562,60.23
47.578,27.14
47.593,-1.71
47.609,-9.96
47.625,6.68
47.640,37.54
47.656,63.61
47.671,68.86
47.687,49.34
47.703,15.83
47.718,-12.6
47.734,-19.99
47.750,-2.38
47.765,29.4
47.781,56.36
47.796,62.42
47.812,43.36
47.828,9.4
47.843,-20.94
47.859,-31.8
47.875,-18.7
47.890,8.67
47.906,32.61
47.921,37.98
47.937,20.6
47.953,-10.18
47.968,-37.34
47.984,-46.38
48.000,-33.53
48.015,-8.27
48.031,12.62
48.046,15.04
48.062,-4.42
48.078,-36.16
48.093,-63.31
48.109,-71.85
48.125,-58.38
48.140,-32.74
48.156,-11.85
48.171,-9.76
48.187,-29.37
48.203,-60.15
48.218,-84.02
48.234,-85.88
48.250,-62.09
48.265,-23.41
48.281,11.1
48.296,25.0
48.312,13.48
48.328,-13.5
48.343,-36.98
48.359,-40.26
48.375,-18.19
48.390,19.3
48.406,53.16
48.421,66.43
48.437,53.77
48.453,24.7
48.468,-2.24
48.484,-10.67
48.500,4.26
48.515,32.7
48.531,56.41
48.546,59.92
48.562,39.56
48.578,6.2
48.593,-21.16
48.609,-26.66
48.625,-6.55
48.640,28.03
48.656,57.68
48.671,66.06
48.687,48.89
48.703,16.46
48.718,-12.5
48.734,-22.05
48.750,-7.84
48.765,20.06
48.781,43.49
48.796,46.99
48.812,26.5
48.828,-8.07
48.843,-38.85
48.859,-50.59
48.875,-39.12
48.890,-14.09
48.906,7.28
48.921,10.49
48.937,-7.99
48.953,-38.4
48.968,-63.59
48.984,-69.38
49.000,-52.61
49.015,-23.6
49.031,0.05
49.046,3.88
49.062,-15.2
49.078,-46.55
49.093,-71.77
49.109,-75.46
49.125,-53.82
49.140,-17.41
49.156,14.81
49.171,26.42
49.187,12.72
49.203,-16.26
49.218,-41.42
49.234,-45.74
49.250,-23.81
49.265,14.44
49.281,49.81
49.296,64.92
49.312,54.01
49.328,26.38
49.343,0.65
49.359,-6.59
49.375,9.68
49.390,39.53
49.406,64.32
49.421,68.11
49.437,47.09
49.453,12.3
49.468,-16.8
49.484,-23.91
49.500,-5.17
49.515,28.05
49.531,56.05
49.546,62.31
49.562,42.8
49.578,8.39
49.593,-21.55
49.609,-30.67
49.625,-14.7
49.640,15.9
49.656,42.41
49.671,48.93
49.687,31.36
49.703,-0.33
49.718,-28.17
49.734,-37.13
49.750,-23.55
49.765,2.34
49.781,23.02
49.796,24.15
49.812,2.89
49.828,-30.07
49.843,-56.96
49.859,-63.5
49.875,-47.01
49.890,-18.47
49.906,4.08
49.921,6.16
49.937,-14.78
49.953,-47.54
49.968,-73.51
49.984,-77.46
50.000,-56.12
50.015,-20.66
50.031,9.79
50.046,18.94
50.062,2.45
50.078,-29.22
50.093,-56.64
50.109,-62.51
50.125,-41.34
50.140,-2.86
50.156,33.64
50.171,50.48
50.187,41.61
50.203,16.09
50.218,-7.53
50.234,-12.37
50.250,6.82
50.265,40.03
50.281,68.3
50.296,74.93
50.312,55.5
50.328,20.81
50.343,-9.42
50.359,-18.18
50.375,-1.0
50.390,31.15
50.406,58.56
50.421,64.38
50.437,44.38
50.453,9.56
50.468,-20.44
50.484,-28.89
50.500,-11.51
50.515,20.71
50.531,48.43
50.546,55.15
50.562,36.83
50.578,4.09
50.593,-24.34
50.609,-32.76
50.625,-17.7
50.640,9.97
50.656,31.81
50.671,32.81
50.687,10.36
50.703,-24.16
50.718,-52.23
50.734,-59.1
50.750,-42.47
50.765,-14.11
50.781,7.43
50.796,7.55
50.812,-15.67
50.828,-50.31
50.843,-77.58
50.859,-82.74
50.875,-63.63
50.890,-32.28
50.906,-7.73
50.921,-5.35
50.937,-27.87
50.953,-63.36
50.968,-91.92
50.984,-96.45
51.000,-72.19
51.015,-29.66
51.031,11.39
51.046,32.76
51.062,27.93
51.078,5.44
51.093,-16.48
51.109,-20.74
51.125,-1.43
51.140,32.21
51.156,61.69
51.171,69.97
51.187,52.02
51.203,18.08
51.218,-12.33
51.234,-21.57
51.250,-4.51
51.265,28.3
51.281,57.06
51.296,64.23
51.312,44.91
51.328,9.87
51.343,-21.03
51.359,-30.28
51.375,-13.13
51.390,19.37
51.406,47.2
51.421,52.69
51.437,31.1
51.453,-6.62
51.468,-40.33
51.484,-52.09
51.500,-36.67
51.515,-4.63
51.531,24.32
51.546,32.61
51.562,15.25
51.578,-17.41
51.593,-46.25
51.609,-54.6
51.625,-38.4
51.640,-8.78
51.656,14.87
51.671,16.17
51.687,-8.16
51.703,-46.15
51.718,-77.71
51.734,-86.07
51.750,-67.65
51.765,-34.24
51.781,-5.71
51.796,1.29
51.812,-16.74
51.828,-47.92
51.843,-72.2
51.859,-72.55
51.875,-45.05
51.890,-1.53
51.906,37.64
51.921,54.58
51.937,44.39
51.953,17.7
51.968,-6.12
51.984,-10.1
52.000,10.0
52.015,43.14
52.031,69.9
52.046,73.86
52.062,51.7
52.078,15.56
52.093,-14.35
52.109,-21.25
52.125,-2.02
52.140,30.93
52.156,57.38
52.171,60.9
52.187,38.97
52.203,4.29
52.218,-22.96
52.234,-26.92
52.250,-5.71
52.265,27.42
52.281,52.29
52.296,53.5
52.312,29.73
52.328,-5.5
52.343,-32.4
52.359,-36.32
52.375,-16.85
52.390,12.08
52.406,30.89
52.421,25.82
52.437,-2.47
52.453,-39.17
52.468,-64.34
52.484,-64.32
52.500,-40.09
52.515,-6.65
52.531,16.15
52.546,14.84
52.562,-9.55
52.578,-42.35
52.593,-64.4
52.609,-63.13
52.625,-40.2
52.640,-10.15
52.656,8.77
52.671,5.43
52.687,-17.05
52.703,-43.1
52.718,-54.26
52.734,-40.0
52.750,-4.49
52.765,35.71
52.781,61.52
52.796,62.09
52.812,41.35
52.828,15.49
52.843,2.94
52.859,13.87
52.875,43.78
52.890,76.38
52.906,93.48
52.921,85.38
52.937,56.8
52.953,23.9
52.968,4.51
52.984,7.96
53.000,29.41
53.015,53.23
53.031,62.7
53.046,49.82
53.062,20.42
53.078,-9.26
53.093,-22.4
53.109,-11.17
53.125,18.07
53.140,48.65
53.156,63.25
53.171,53.61
53.187,25.4
53.203,-5.21
53.218,-21.27
53.234,-14.53
53.250,9.54
53.265,35.29
53.281,46.32
53.296,34.66
53.312,5.69
53.328,-25.21
53.343,-42.02
53.359,-37.02
53.375,-15.71
53.390,6.92
53.406,15.47
53.421,3.0
53.437,-24.61
53.453,-52.11
53.468,-64.22
53.484,-54.37
53.500,-29.1
53.515,-4.08
53.531,5.41
53.546,-6.7
53.562,-33.02
53.578,-56.85
53.593,-62.15
53.609,-42.74
53.625,-6.74
53.640,28.24
53.656,45.02
53.671,36.62
53.687,10.46
53.703,-16.03
53.718,-25.93
53.734,-12.23
53.750,17.66
53.765,46.86
53.781,59.1
53.796,47.99
53.812,20.96
53.828,-5.33
53.843,-15.1
53.859,-2.35
53.875,25.22
53.890,51.12
53.906,60.02
53.921,46.45
53.937,18.44
53.953,-7.3
53.968,-15.38
53.984,-0.49
54.000,29.01
54.015,56.05
54.031,64.81
54.046,49.55
54.062,18.13
54.078,-12.64
54.093,-26.97
54.109,-18.78
54.125,4.37
54.140,26.5
54.156,32.5
54.171,16.76
54.187,-13.26
54.203,-41.65
54.218,-53.54
54.234,-43.36
54.250,-18.52
54.265,5.22
54.281,13.18
54.296,-0.12
54.312,-27.41
54.328,-53.04
54.343,-62.44
54.359,-50.38
54.375,-24.67
54.390,-1.33
54.406,4.79
54.421,-11.27
54.437,-40.9
54.453,-66.6
54.468,-72.09
54.484,-51.56
54.500,-13.65
54.515,23.42
54.531,42.37
54.546,36.25
54.562,12.72
54.578,-10.85
54.593,-17.97
54.609,-2.33
54.625,27.93
54.640,55.66
54.656,64.99
54.671,50.55
54.687,20.91
54.703,-6.54
54.718,-16.09
54.734,-2.69
54.750,24.82
54.765,49.11
54.781,54.91
54.796,37.82
54.812,7.33
54.828,-18.6
54.843,-24.32
54.859,-5.17
54.875,28.98
54.890,59.73
54.906,70.6
54.921,55.94
54.937,24.25
54.953,-7.12
54.968,-22.3
54.984,-15.56
55.000,5.31
55.015,24.35
55.031,27.28
55.046,9.8
55.062,-19.56
55.078,-44.55
55.093,-51.07
55.109,-35.24
55.125,-6.33
55.140,18.86
55.156,25.69
55.171,9.85
55.187,-19.92
55.203,-47.04
55.218,-56.99
55.234,-45.38
55.250,-20.99
55.265,-0.32
55.281,2.33
55.296,-16.66
55.312,-47.4
55.328,-71.74
55.343,-73.79
55.359,-48.87
55.375,-7.13
55.390,32.17
55.406,51.42
55.421,44.34
55.437,19.55
55.453,-4.69
55.468,-11.55
55.484,4.7
55.500,34.98
55.515,61.25
55.531,67.52
55.546,49.44
55.562,17.14
55.578,-10.69
55.593,-18.17
55.609,-1.34
55.625,29.03
55.640,54.05
55.656,57.95
55.671,37.24
55.687,2.89
55.703,-25.95
55.718,-33.33
55.734,-15.59
55.750,16.35
55.765,43.46
55.781,49.84
55.796,31.85
55.812,0.11
55.828,-26.86
55.843,-33.62
55.859,-16.79
55.875,12.83
55.890,36.92
55.906,40.42
55.921,20.46
55.937,-12.11
55.953,-39.19
55.968,-46.27
55.984,-30.94
56.000,-4.46
56.015,15.1
56.031,13.56
56.046,-10.72
56.062,-45.76
56.078,-72.79
56.093,-77.05
56.109,-56.46
56.125,-23.12
56.140,3.7
56.156,8.38
56.171,-11.83
56.187,-45.17
56.203,-71.85
56.218,-75.08
56.234,-50.65
56.250,-9.68
56.265,28.0
56.281,44.68
56.296,34.99
56.312,8.7
56.328,-15.35
56.343,-20.29
56.359,-1.25
56.375,31.5
56.390,58.98
56.406,64.6
56.421,44.49
56.437,9.8
56.453,-19.83
56.468,-27.73
56.484,-10.24
56.500,20.95
56.515,45.99
56.531,48.34
56.546,24.9
56.562,-12.05
56.578,-42.11
56.593,-48.34
56.609,-27.36
56.625,8.47
56.640,38.6
56.656,45.81
56.671,26.41
56.687,-7.74
56.703,-36.63
56.718,-43.63
56.734,-25.37
56.750,5.98
56.765,30.42
56.781,31.58
56.796,6.78
56.812,-31.3
56.828,-62.29
56.843,-69.78
56.859,-51.15
56.875,-19.12
56.890,6.13
56.906,8.61
56.921,-13.8
56.937,-48.04
56.953,-74.19
56.968,-76.92
56.984,-54.98
57.000,-21.85
57.015,2.65
57.031,3.87
57.046,-18.39
57.062,-49.68
57.078,-69.65
57.093,-63.66
57.109,-31.78
57.125,11.03
57.140,43.96
57.156,52.0
57.171,34.8
57.187,6.59
57.203,-12.83
57.218,-9.6
57.234,15.66
57.250,48.41
57.265,69.29
57.281,65.47
57.296,38.77
57.312,4.47
57.328,-18.0
57.343,-16.44
57.359,6.61
57.375,35.68
57.390,52.04
57.406,44.59
57.421,16.9
57.437,-15.13
57.453,-33.07
57.468,-26.66
57.484,-0.15
57.500,30.31
57.515,46.58
57.531,38.86
57.546,11.68
57.562,-18.95
57.578,-35.45
57.593,-28.6
57.609,-3.29
57.625,24.6
57.640,37.78
57.656,27.42
57.671,-1.53
57.687,-33.42
57.703,-51.36
57.718,-46.75
57.734,-24.56
57.750,0.02
57.765,10.79
57.781,-0.22
57.796,-27.7
57.812,-56.42
57.828,-70.54
57.843,-62.58
57.859,-38.46
57.875,-13.54
57.890,-3.31
57.906,-14.2
57.921,-39.19
57.937,-61.66
57.953,-65.5
57.968,-44.38
57.984,-6.32
58.000,30.85
58.015,49.82
58.031,43.5
58.046,19.26
58.062,-5.4
58.078,-13.55
58.093,1.64
58.109,32.5
58.125,61.76
58.140,72.83
58.156,59.34
58.171,29.05
58.187,-0.82
58.203,-13.9
58.218,-3.8
58.234,21.75
58.250,46.1
58.265,53.54
58.281,38.45
58.296,8.92
58.312,-18.05
58.328,-26.74
58.343,-11.64
58.359,18.69
58.375,46.83
58.390,56.66
58.406,42.34
58.421,11.99
58.437,-17.19
58.453,-29.22
58.468,-18.2
58.484,7.88
58.500,32.3
58.515,39.52
58.531,24.07
58.546,-6.22
58.562,-34.86
58.578,-46.71
58.593,-36.46
58.609,-12.15
58.625,9.98
58.640,15.14
58.656,-1.61
58.671,-32.13
58.687,-60.1
58.703,-70.77
58.718,-59.36
58.734,-34.34
58.750,-12.27
58.765,-7.9
58.781,-25.51
58.796,-55.63
58.812,-80.17
58.828,-82.92
58.843,-58.6
58.859,-16.92
58.875,22.95
58.890,43.01
58.906,36.43
58.921,11.45
58.937,-13.38
58.953,-20.37
58.968,-2.79
58.984,30.93
59.000,62.35
59.015,74.23
59.031,60.63
59.046,30.58
59.062,2.83
59.078,-5.59
59.093,10.79
59.109,42.21
59.125,69.73
59.140,76.59
59.156,57.97
59.171,24.16
59.187,-5.44
59.203,-13.85
59.218,3.85
59.234,37.23
59.250,66.79
59.265,75.43
59.281,58.12
59.296,24.82
59.312,-5.47
59.328,-16.16
59.343,-2.52
59.359,25.4
59.375,49.01
59.390,52.31
59.406,31.45
59.421,-3.22
59.437,-33.14
59.453,-42.65
59.468,-28.2
59.484,-0.38
59.500,22.42
59.515,25.09
59.531,4.7
59.546,-27.74
59.562,-53.85
59.578,-58.83
59.593,-40.22
59.609,-9.83
59.625,13.32
59.640,13.8
59.656,-10.86
59.671,-48.48
59.687,-78.93
59.703,-85.35
59.718,-63.8
59.734,-25.76
59.750,8.39
59.765,20.78
59.781,6.31
59.796,-24.54
59.812,-51.91
59.828,-57.98
59.843,-37.52
59.859,-1.08
59.875,31.34
59.890,41.92
59.906,25.79
59.921,-6.1
59.937,-33.64
59.953,-39.31
59.968,-18.89
59.984,16.0
