timestamp,value
00.000,8.51
00.015,6.53
00.031,5.66
00.046,6.31
00.062,7.99
00.078,9.52
00.093,9.63
00.109,7.77
00.125,4.23
00.140,0.1
00.156,-3.38
00.171,-5.44
00.187,-6.23
00.203,-6.68
00.218,-7.85
00.234,-10.35
00.250,-13.97
00.265,-17.84
00.281,-20.86
00.296,-22.34
00.312,-22.22
00.328,-21.24
00.343,-20.05
00.359,-19.04
00.375,-17.93
00.390,-16.06
00.406,-12.79
00.421,-8.11
00.437,-2.68
00.453,2.39
00.468,6.03
00.484,7.83
00.500,8.18
00.515,8.03
00.531,8.36
00.546,9.69
00.562,11.72
00.578,13.61
00.593,14.47
00.609,14.04
00.625,12.79
00.640,11.81
00.656,12.04
00.671,13.77
00.687,16.39
00.703,18.61
00.718,19.18
00.734,17.62
00.750,14.48
00.765,11.0
00.781,8.49
00.796,7.58
00.812,7.99
00.828,8.62
00.843,8.31
00.859,6.42
00.875,3.3
00.890,-0.03
00.906,-2.46
00.921,-3.46
00.937,-3.36
00.953,-3.13
00.968,-3.86
00.984,-6.16
01.000,-9.71
01.015,-13.55
01.031,-16.56
01.046,-18.18
01.062,-18.61
01.078,-18.64
01.093,-19.0
01.109,-19.91
01.125,-20.82
01.140,-20.73
01.156,-18.65
01.171,-14.48
01.187,-8.97
01.203,-3.51
01.218,0.63
01.234,2.82
01.250,3.48
01.265,3.7
01.281,4.58
01.296,6.65
01.312,9.45
01.328,12.01
01.343,13.28
01.359,12.8
01.375,11.0
01.390,9.03
01.406,8.12
01.421,8.95
01.437,11.23
01.453,13.88
01.468,15.69
01.484,15.87
01.500,14.48
01.515,12.33
01.531,10.5
01.546,9.6
01.562,9.55
01.578,9.51
01.593,8.47
01.609,5.89
01.625,2.06
01.640,-1.96
01.656,-5.08
01.671,-6.54
01.687,-6.67
01.703,-6.45
01.718,-7.07
01.734,-9.18
01.750,-12.64
01.765,-16.45
01.781,-19.42
01.796,-20.97
01.812,-21.26
01.828,-21.26
01.843,-21.9
01.859,-23.54
01.875,-25.61
01.890,-26.81
01.906,-25.88
01.921,-22.28
01.937,-16.65
01.953,-10.49
01.968,-5.45
01.984,-2.51
02.000,-1.54
02.015,-1.43
02.031,-0.78
02.046,1.22
02.062,4.44
02.078,7.83
02.093,10.31
02.109,11.17
02.125,10.65
02.140,9.75
02.156,9.56
02.171,10.8
02.187,13.16
02.203,15.62
02.218,16.96
02.234,16.59
02.250,14.71
02.265,12.32
02.281,10.58
02.296,10.12
02.312,10.79
02.328,11.68
02.343,11.78
02.359,10.44
02.375,7.84
02.390,4.83
02.406,2.44
02.421,1.28
02.437,1.07
02.453,0.9
02.468,-0.34
02.484,-3.23
02.500,-7.47
02.515,-12.08
02.531,-15.81
02.546,-17.86
02.562,-18.32
02.578,-18.13
02.593,-18.45
02.609,-20.02
02.625,-22.65
02.640,-25.24
02.656,-26.44
02.671,-25.37
02.687,-22.0
02.703,-17.28
02.718,-12.68
02.734,-9.27
02.750,-7.42
02.765,-6.47
02.781,-5.4
02.796,-3.36
02.812,-0.33
02.828,2.98
02.843,5.64
02.859,7.05
02.875,7.36
02.890,7.3
02.906,7.96
02.921,9.92
02.937,12.98
02.953,16.22
02.968,18.41
02.984,18.8
03.000,17.54
03.015,15.46
03.031,13.69
03.046,13.05
03.062,13.5
03.078,14.31
03.093,14.49
03.109,13.37
03.125,11.0
03.140,8.14
03.156,5.72
03.171,4.3
03.187,3.73
03.203,3.24
03.218,1.95
03.234,-0.44
03.250,-3.71
03.265,-6.91
03.281,-9.06
03.296,-9.62
03.312,-8.87
03.328,-7.85
03.343,-7.76
03.359,-9.39
03.375,-12.52
03.390,-16.26
03.406,-19.38
03.421,-20.82
03.437,-20.41
03.453,-18.72
03.468,-16.7
03.484,-15.1
03.500,-14.0
03.515,-12.82
03.531,-10.84
03.546,-7.67
03.562,-3.57
03.578,0.56
03.593,3.74
03.609,5.33
03.625,5.5
03.640,5.11
03.656,5.27
03.671,6.66
03.687,9.24
03.703,12.32
03.718,14.85
03.734,16.22
03.750,16.43
03.765,16.18
03.781,16.36
03.796,17.55
03.812,19.5
03.828,21.31
03.843,21.94
03.859,20.74
03.875,17.82
03.890,14.21
03.906,11.06
03.921,9.19
03.937,8.56
03.953,8.32
03.968,7.32
03.984,4.89
04.000,1.16
04.015,-2.99
04.031,-6.25
04.046,-7.87
04.062,-7.97
04.078,-7.59
04.093,-8.08
04.109,-10.37
04.125,-14.4
04.140,-19.25
04.156,-23.46
04.171,-25.86
04.187,-26.1
04.203,-24.71
04.218,-22.6
04.234,-20.49
04.250,-18.5
04.265,-16.08
04.281,-12.56
04.296,-7.6
04.312,-1.55
04.328,4.52
04.343,9.33
04.359,12.1
04.375,12.85
04.390,12.34
04.406,11.73
04.421,11.97
04.437,13.19
04.453,14.86
04.468,16.01
04.484,15.98
04.500,14.82
04.515,13.3
04.531,12.41
04.546,12.8
04.562,14.37
04.578,16.17
04.593,16.95
04.609,15.88
04.625,13.06
04.640,9.4
04.656,6.1
04.671,4.05
04.687,3.35
04.703,3.25
04.718,2.64
04.734,0.73
04.750,-2.46
04.765,-6.16
04.781,-9.25
04.796,-11.01
04.812,-11.38
04.828,-11.21
04.843,-11.67
04.859,-13.62
04.875,-17.15
04.890,-21.38
04.906,-25.04
04.921,-26.95
04.937,-26.87
04.953,-25.28
04.968,-23.21
04.984,-21.38
05.000,-20.01
05.015,-18.6
05.031,-16.34
05.046,-12.72
05.062,-7.87
05.078,-2.65
05.093,1.78
05.109,4.59
05.125,5.83
05.140,6.36
05.156,7.35
05.171,9.62
05.187,13.14
05.203,16.97
05.218,19.81
05.234,20.67
05.250,19.48
05.265,17.02
05.281,14.66
05.296,13.35
05.312,13.36
05.328,14.0
05.343,14.17
05.359,13.09
05.375,10.68
05.390,7.75
05.406,5.37
05.421,4.51
05.437,5.27
05.453,6.92
05.468,8.16
05.484,7.93
05.500,6.03
05.515,3.1
05.531,0.33
05.546,-1.3
05.562,-1.52
05.578,-0.94
05.593,-0.79
05.609,-2.12
05.625,-5.26
05.640,-9.53
05.656,-13.91
05.671,-17.41
05.687,-19.75
05.703,-21.38
05.718,-23.08
05.734,-25.44
05.750,-28.26
05.765,-30.55
05.781,-30.92
05.796,-28.57
05.812,-23.51
05.828,-16.8
05.843,-10.04
05.859,-4.48
05.875,-0.67
05.890,1.83
05.906,4.11
05.921,7.18
05.937,11.32
05.953,15.91
05.968,19.77
05.984,21.72
06.000,21.44
06.015,19.56
06.031,17.37
06.046,16.19
06.062,16.51
06.078,17.93
06.093,19.37
06.109,19.8
06.125,18.81
06.140,16.95
06.156,15.3
06.171,14.76
06.187,15.54
06.203,16.9
06.218,17.58
06.234,16.6
06.250,13.63
06.265,9.26
06.281,4.72
06.296,1.2
06.312,-0.81
06.328,-1.77
06.343,-2.82
06.359,-4.91
06.375,-8.38
06.390,-12.59
06.406,-16.38
06.421,-18.6
06.437,-19.0
06.453,-18.27
06.468,-17.66
06.484,-18.32
06.500,-20.47
06.515,-23.32
06.531,-25.39
06.546,-25.36
06.562,-22.82
06.578,-18.49
06.593,-13.76
06.609,-9.87
06.625,-7.31
06.640,-5.67
06.656,-3.95
06.671,-1.32
06.687,2.38
06.703,6.59
06.718,10.18
06.734,12.34
06.750,12.87
06.765,12.43
06.781,12.03
06.796,12.55
06.812,14.3
06.828,16.81
06.843,19.07
06.859,20.17
06.875,19.74
06.890,18.23
06.906,16.58
06.921,15.78
06.937,16.19
06.953,17.33
06.968,18.13
06.984,17.56
07.000,15.28
07.015,11.77
07.031,8.14
07.046,5.57
07.062,4.56
07.078,4.78
07.093,5.16
07.109,4.56
07.125,2.46
07.140,-0.7
07.156,-3.95
07.171,-6.24
07.187,-7.15
07.203,-7.08
07.218,-7.0
07.234,-7.89
07.250,-10.24
07.265,-13.68
07.281,-17.06
07.296,-19.22
07.312,-19.45
07.328,-17.83
07.343,-15.16
07.359,-12.39
07.375,-10.19
07.390,-8.54
07.406,-6.9
07.421,-4.55
07.437,-1.1
07.453,3.06
07.468,7.13
07.484,10.11
07.500,11.51
07.515,11.6
07.531,11.24
07.546,11.5
07.562,12.9
07.578,15.3
07.593,17.79
07.609,19.41
07.625,19.5
07.640,18.32
07.656,16.69
07.671,15.69
07.687,16.0
07.703,17.32
07.718,18.7
07.734,19.0
07.750,17.61
07.765,14.6
07.781,10.91
07.796,7.68
07.812,5.53
07.828,4.34
07.843,3.22
07.859,1.22
07.875,-2.15
07.890,-6.51
07.906,-10.84
07.921,-13.99
07.937,-15.32
07.953,-15.21
07.968,-14.76
07.984,-15.27
08.000,-17.44
08.015,-21.08
08.031,-25.31
08.046,-28.79
08.062,-30.67
08.078,-30.76
08.093,-29.65
08.109,-28.06
08.125,-26.49
08.140,-24.7
08.156,-22.03
08.171,-17.87
08.187,-12.13
08.203,-5.46
08.218,0.87
08.234,5.57
08.250,8.2
08.265,9.14
08.281,9.52
08.296,10.54
08.312,12.78
08.328,15.92
08.343,18.91
08.359,20.64
08.375,20.63
08.390,19.42
08.406,18.08
08.421,17.84
08.437,19.19
08.453,21.58
08.468,23.85
08.484,24.68
08.500,23.43
08.515,20.49
08.531,16.95
08.546,14.0
08.562,12.45
08.578,12.09
08.593,12.01
08.609,11.06
08.625,8.58
08.640,4.71
08.656,0.42
08.671,-3.07
08.687,-5.06
08.703,-5.62
08.718,-5.65
08.734,-6.27
08.750,-8.11
08.765,-10.95
08.781,-13.97
08.796,-16.19
08.812,-17.26
08.828,-17.7
08.843,-18.54
08.859,-20.73
08.875,-24.48
08.890,-28.95
08.906,-32.53
08.921,-33.77
08.937,-31.8
08.953,-27.07
08.968,-21.02
08.984,-15.16
09.000,-10.47
09.015,-6.95
09.031,-3.72
09.046,0.24
09.062,5.48
09.078,11.63
09.093,17.57
09.109,21.97
09.125,24.15
09.140,24.38
09.156,23.62
09.171,23.03
09.187,23.19
09.203,23.88
09.218,24.27
09.234,23.48
09.250,21.09
09.265,17.55
09.281,13.88
09.296,11.1
09.312,9.74
09.328,9.57
09.343,9.72
09.359,9.35
09.375,8.06
09.390,6.07
09.406,4.24
09.421,3.33
09.437,3.7
09.453,4.97
09.468,6.07
09.484,5.91
09.500,3.94
09.515,0.43
09.531,-3.67
09.546,-7.07
09.562,-9.15
09.578,-10.02
09.593,-10.62
09.609,-12.12
09.625,-15.21
09.640,-19.61
09.656,-24.19
09.671,-27.49
09.687,-28.36
09.703,-26.8
09.718,-23.65
09.734,-20.18
09.750,-17.36
09.765,-15.41
09.781,-13.69
09.796,-11.25
09.812,-7.5
09.828,-2.63
09.843,2.31
09.859,6.15
09.875,8.21
09.890,8.65
09.906,8.45
09.921,8.7
09.937,10.1
09.953,12.47
09.968,14.91
09.984,16.35
10.000,16.22
10.015,14.83
10.031,13.05
10.046,12.11
10.062,12.61
10.078,14.35
10.093,16.4
10.109,17.55
10.125,17.06
10.140,14.95
10.156,12.04
10.171,9.38
10.187,7.8
10.203,7.33
10.218,7.31
10.234,6.74
10.250,5.01
10.265,2.18
10.281,-0.99
10.296,-3.46
10.312,-4.56
10.328,-4.4
10.343,-3.8
10.359,-3.94
10.375,-5.59
10.390,-8.67
10.406,-12.34
10.421,-15.42
10.437,-17.07
10.453,-17.23
10.468,-16.54
10.484,-15.94
10.500,-15.97
10.515,-16.51
10.531,-16.72
10.546,-15.61
10.562,-12.63
10.578,-8.02
10.593,-2.8
10.609,1.84
10.625,5.04
10.640,6.77
10.656,7.7
10.671,8.81
10.687,10.66
10.703,13.08
10.718,15.26
10.734,16.21
10.750,15.43
10.765,13.23
10.781,10.6
10.796,8.68
10.812,8.16
10.828,8.94
10.843,10.13
10.859,10.63
10.875,9.73
10.890,7.49
10.906,4.65
10.921,2.27
10.937,1.05
10.953,1.0
10.968,1.48
10.984,1.5
11.000,0.38
11.015,-1.89
11.031,-4.62
11.046,-6.91
11.062,-8.02
11.078,-7.99
11.093,-7.48
11.109,-7.44
11.125,-8.5
11.140,-10.71
11.156,-13.44
11.171,-15.91
11.187,-17.49
11.203,-18.06
11.218,-18.12
11.234,-18.31
11.250,-18.98
11.265,-20.0
11.281,-20.65
11.296,-20.02
11.312,-17.58
11.328,-13.57
11.343,-8.8
11.359,-4.45
11.375,-1.3
11.390,0.56
11.406,1.8
11.421,3.36
11.437,6.0
11.453,9.64
11.468,13.34
11.484,15.98
11.500,16.73
11.515,15.67
11.531,13.78
11.546,12.32
11.562,12.24
11.578,13.53
11.593,15.32
11.609,16.24
11.625,15.42
11.640,12.81
11.656,9.38
11.671,6.41
11.687,4.86
11.703,4.85
11.718,5.5
11.734,5.58
11.750,4.22
11.765,1.43
11.781,-1.96
11.796,-4.85
11.812,-6.39
11.828,-6.65
11.843,-6.5
11.859,-7.12
11.875,-9.26
11.890,-12.86
11.906,-17.04
11.921,-20.63
11.937,-22.94
11.953,-23.93
11.968,-24.3
11.984,-25.02
12.000,-26.53
12.015,-28.42
12.031,-29.6
12.046,-28.83
12.062,-25.43
12.078,-19.7
12.093,-12.82
12.109,-6.31
12.125,-1.4
12.140,1.68
12.156,3.52
12.171,5.16
12.187,7.48
12.203,10.63
12.218,14.04
12.234,16.76
12.250,17.97
12.265,17.51
12.281,16.03
12.296,14.48
12.312,13.75
12.328,14.09
12.343,15.04
12.359,15.72
12.375,15.5
12.390,14.25
12.406,12.43
12.421,10.97
12.437,10.51
12.453,11.11
12.468,12.21
12.484,12.81
12.500,12.03
12.515,9.69
12.531,6.38
12.546,3.08
12.562,0.69
12.578,-0.51
12.593,-1.0
12.609,-1.67
12.625,-3.36
12.640,-6.36
12.656,-10.12
12.671,-13.69
12.687,-16.19
12.703,-17.36
12.718,-17.83
12.734,-18.58
12.750,-20.45
12.765,-23.56
12.781,-27.1
12.796,-29.7
12.812,-30.19
12.828,-28.13
12.843,-24.08
12.859,-19.3
12.875,-14.98
12.890,-11.55
12.906,-8.75
12.921,-5.6
12.937,-1.24
12.953,4.48
12.968,10.86
12.984,16.61
13.000,20.46
13.015,21.89
13.031,21.4
13.046,20.16
13.062,19.44
13.078,19.85
13.093,21.14
13.109,22.37
13.125,22.55
13.140,21.22
13.156,18.79
13.171,16.22
13.187,14.54
13.203,14.16
13.218,14.57
13.234,14.72
13.250,13.65
13.265,11.06
13.281,7.5
13.296,4.17
13.312,2.26
13.328,2.25
13.343,3.64
13.359,5.27
13.375,5.89
13.390,4.9
13.406,2.6
13.421,-0.14
13.437,-2.36
13.453,-3.72
13.468,-4.72
13.484,-6.34
13.500,-9.42
13.515,-14.13
13.531,-19.62
13.546,-24.32
13.562,-26.77
13.578,-26.24
13.593,-23.13
13.609,-18.66
13.625,-14.3
13.640,-10.84
13.656,-8.17
13.671,-5.54
13.687,-1.96
13.703,2.87
13.718,8.41
13.734,13.46
13.750,16.86
13.765,18.02
13.781,17.32
13.796,15.84
13.812,14.72
13.828,14.74
13.843,15.65
13.859,16.53
13.875,16.46
13.890,14.97
13.906,12.44
13.921,9.93
13.937,8.53
13.953,8.68
13.968,9.99
13.984,11.35
14.000,11.65
14.015,10.4
14.031,7.88
14.046,5.03
14.062,2.86
14.078,1.78
14.093,1.38
14.109,0.75
14.125,-1.01
14.140,-4.21
14.156,-8.29
14.171,-12.17
14.187,-14.91
14.203,-16.16
14.218,-16.42
14.234,-16.83
14.250,-18.36
14.265,-21.42
14.281,-25.46
14.296,-29.13
14.312,-31.09
14.328,-30.48
14.343,-27.3
14.359,-22.58
14.375,-17.54
14.390,-13.09
14.406,-9.49
14.421,-6.26
14.437,-2.53
14.453,2.13
14.468,7.42
14.484,12.43
14.500,16.02
14.515,17.59
14.531,17.5
14.546,16.77
14.562,16.59
14.578,17.71
14.593,19.8
14.609,21.86
14.625,22.83
14.640,22.15
14.656,20.24
14.671,18.27
14.687,17.31
14.703,17.84
14.718,19.38
14.734,20.75
14.750,20.82
14.765,19.22
14.781,16.41
14.796,13.47
14.812,11.45
14.828,10.56
14.843,10.31
14.859,9.53
14.875,7.16
14.890,2.95
14.906,-2.4
14.921,-7.64
14.937,-11.52
14.953,-13.46
14.968,-13.94
14.984,-14.06
15.000,-14.93
15.015,-17.28
15.031,-20.86
15.046,-24.83
15.062,-28.15
15.078,-30.09
15.093,-30.58
15.109,-30.14
15.125,-29.34
15.140,-28.41
15.156,-27.11
15.171,-24.63
15.187,-20.44
15.203,-14.38
15.218,-7.13
15.234,0.09
15.250,5.99
15.265,9.94
15.281,12.19
15.296,13.63
15.312,15.41
15.328,18.05
15.343,21.26
15.359,24.2
15.375,25.9
15.390,25.94
15.406,24.83
15.421,23.68
15.437,23.56
15.453,25.02
15.468,27.58
15.484,29.95
15.500,31.0
15.515,30.08
15.531,27.57
15.546,24.56
15.562,22.22
15.578,21.14
15.593,21.09
15.609,21.23
15.625,20.61
15.640,18.95
15.656,16.64
15.671,14.67
15.687,13.99
15.703,14.9
15.718,16.87
15.734,18.75
15.750,19.35
15.765,17.92
15.781,14.61
15.796,10.08
15.812,5.25
15.828,0.72
15.843,-3.64
15.859,-8.36
15.875,-14.0
15.890,-20.54
15.906,-27.31
15.921,-33.08
15.937,-36.78
15.953,-37.96
15.968,-37.03
15.984,-35.19
16.000,-33.62
16.015,-32.85
16.031,-32.62
16.046,-31.86
16.062,-29.51
16.078,-25.16
16.093,-19.33
16.109,-13.29
16.125,-8.54
16.140,-5.93
16.156,-5.28
16.171,-5.76
16.187,-6.07
16.203,-5.28
16.218,-3.33
16.234,-1.05
16.250,0.48
16.265,0.48
16.281,-1.0
16.296,-3.07
16.312,-4.64
16.328,-5.0
16.343,-4.26
16.359,-3.42
16.375,-3.87
16.390,-6.5
16.406,-11.38
16.421,-17.62
16.437,-23.87
16.453,-29.01
16.468,-32.67
16.484,-35.25
16.500,-37.63
16.515,-40.62
16.531,-44.39
16.546,-48.53
16.562,-52.19
16.578,-54.68
16.593,-55.86
16.609,-56.25
16.625,-56.77
16.640,-58.24
16.656,-60.9
16.671,-64.26
16.687,-67.56
16.703,-69.95
16.718,-70.98
16.734,-70.64
16.750,-69.03
16.765,-66.03
16.781,-61.33
16.796,-54.4
16.812,-45.04
16.828,-33.71
16.843,-21.63
16.859,-10.35
16.875,-1.15
16.890,5.5
16.906,10.26
16.921,14.65
16.937,20.35
16.953,28.37
16.968,38.3
16.984,48.2
17.000,55.43
17.015,57.96
17.031,55.55
17.046,50.01
17.062,44.56
17.078,41.98
17.093,43.28
17.109,47.16
17.125,50.97
17.140,52.47
17.156,51.18
17.171,48.57
17.187,46.95
17.203,48.18
17.218,52.53
17.234,58.91
17.250,65.62
17.265,71.69
17.281,77.15
17.296,82.77
17.312,89.14
17.328,95.89
17.343,101.46
17.359,103.46
17.375,99.96
17.390,90.18
17.406,75.14
17.421,57.45
17.437,40.2
17.453,25.87
17.468,15.4
17.484,7.97
17.500,1.56
17.515,-5.42
17.531,-13.44
17.546,-21.47
17.562,-27.48
17.578,-29.79
17.593,-27.98
17.609,-23.29
17.625,-17.89
17.640,-14.13
17.656,-13.08
17.671,-14.29
17.687,-16.2
17.703,-17.06
17.718,-16.03
17.734,-13.56
17.750,-11.3
17.765,-10.61
17.781,-11.96
17.796,-14.15
17.812,-14.94
17.828,-12.25
17.843,-5.31
17.859,4.72
17.875,15.38
17.890,24.04
17.906,29.33
17.921,31.66
17.937,32.85
17.953,34.85
17.968,38.52
17.984,43.14
18.000,46.8
18.015,47.66
18.031,44.84
18.046,39.02
18.062,31.92
18.078,25.25
18.093,19.87
18.109,15.25
18.125,10.21
18.140,3.77
18.156,-4.04
18.171,-11.92
18.187,-17.95
18.203,-20.75
18.218,-20.22
18.234,-17.76
18.250,-15.9
18.265,-16.92
18.281,-21.99
18.296,-30.57
18.312,-40.61
18.328,-49.52
18.343,-55.47
18.359,-58.13
18.375,-58.62
18.390,-58.54
18.406,-58.87
18.421,-59.23
18.437,-57.97
18.453,-53.19
18.468,-44.01
18.484,-31.4
18.500,-17.94
18.515,-6.41
18.531,1.44
18.546,5.92
18.562,8.81
18.578,12.24
18.593,17.28
18.609,23.12
18.625,27.55
18.640,28.35
18.656,24.6
18.671,17.49
18.687,9.7
18.703,3.88
18.718,1.43
18.734,1.83
18.750,3.23
18.765,3.74
18.781,2.65
18.796,0.63
18.812,-1.11
18.828,-1.76
18.843,-1.88
18.859,-2.94
18.875,-6.35
18.890,-12.14
18.906,-18.65
18.921,-23.11
18.937,-23.06
18.953,-17.72
18.968,-8.27
18.984,2.74
19.000,12.75
19.015,20.38
19.031,25.62
19.046,29.62
19.062,33.77
19.078,38.72
19.093,44.05
19.109,48.67
19.125,51.14
19.140,50.72
19.156,47.59
19.171,42.96
19.187,38.56
19.203,35.72
19.218,34.64
19.234,34.14
19.250,32.23
19.265,27.28
19.281,18.92
19.296,8.58
19.312,-1.35
19.328,-8.47
19.343,-11.88
19.359,-12.46
19.375,-12.27
19.390,-13.29
19.406,-16.33
19.421,-20.6
19.437,-24.18
19.453,-25.44
19.468,-23.69
19.484,-19.71
19.500,-15.1
19.515,-11.11
19.531,-7.96
19.546,-4.75
19.562,-0.18
19.578,6.56
19.593,14.71
19.609,22.31
19.625,26.88
19.640,26.7
19.656,21.8
19.671,13.94
19.687,5.83
19.703,-0.22
19.718,-3.39
19.734,-4.76
19.750,-6.56
19.765,-10.87
19.781,-18.67
19.796,-29.18
19.812,-40.63
19.828,-51.11
19.843,-59.72
19.859,-66.86
19.875,-73.69
19.890,-81.02
19.906,-88.69
19.921,-95.34
19.937,-99.04
19.953,-98.43
19.968,-93.59
19.984,-86.01
20.000,-78.06
20.015,-71.76
20.031,-67.85
20.046,-65.64
20.062,-63.61
20.078,-60.28
20.093,-55.2
20.109,-49.08
20.125,-43.33
20.140,-39.14
20.156,-36.75
20.171,-35.08
20.187,-32.49
20.203,-27.6
20.218,-20.27
20.234,-11.82
20.250,-4.48
20.265,-0.22
20.281,0.2
20.296,-2.47
20.312,-6.43
20.328,-9.9
20.343,-11.95
20.359,-12.94
20.375,-14.14
20.390,-16.93
20.406,-21.87
20.421,-28.3
20.437,-34.65
20.453,-39.03
20.468,-40.37
20.484,-38.86
20.500,-35.87
20.515,-33.46
20.531,-33.23
20.546,-35.62
20.562,-39.69
20.578,-43.73
20.593,-46.08
20.609,-46.19
20.625,-44.73
20.640,-42.86
20.656,-41.55
20.671,-40.54
20.687,-38.58
20.703,-33.89
20.718,-25.12
20.734,-11.54
20.750,6.81
20.765,29.95
20.781,58.22
20.796,91.92
20.812,130.65
20.828,172.06
20.843,211.85
20.859,244.57
20.875,265.45
20.890,271.9
20.906,264.45
20.921,246.25
20.937,221.62
20.953,194.84
20.968,168.9
20.984,145.42
21.000,125.26
21.015,108.91
21.031,96.94
21.046,89.77
21.062,87.36
21.078,88.62
21.093,91.71
21.109,94.41
21.125,94.74
21.140,91.84
21.156,86.01
21.171,78.5
21.187,70.92
21.203,64.4
21.218,58.96
21.234,53.85
21.250,47.88
21.265,40.31
21.281,31.36
21.296,21.95
21.312,13.26
21.328,6.19
21.343,0.73
21.359,-3.75
21.375,-8.09
21.390,-12.67
21.406,-17.19
21.421,-20.52
21.437,-21.5
21.453,-19.35
21.468,-14.26
21.484,-7.38
21.500,-0.3
21.515,5.44
21.531,9.0
21.546,10.39
21.562,10.34
21.578,9.78
21.593,9.24
21.609,8.61
21.625,7.12
21.640,3.85
21.656,-1.69
21.671,-9.25
21.687,-17.86
21.703,-26.3
21.718,-33.69
21.734,-39.94
21.750,-45.65
21.765,-51.66
21.781,-58.43
21.796,-65.58
21.812,-72.13
21.828,-76.9
21.843,-79.39
21.859,-79.78
21.875,-78.9
21.890,-77.47
21.906,-75.63
21.921,-72.74
21.937,-67.87
21.953,-60.47
21.968,-50.89
21.984,-40.53
22.000,-31.09
22.015,-23.87
22.031,-19.11
22.046,-16.06
22.062,-13.41
22.078,-10.06
22.093,-5.75
22.109,-1.07
22.125,2.89
22.140,5.07
22.156,5.02
22.171,3.06
22.187,-0.08
22.203,-3.38
22.218,-6.25
22.234,-8.56
22.250,-10.74
22.265,-13.23
22.281,-16.15
22.296,-19.17
22.312,-21.63
22.328,-22.83
22.343,-22.58
22.359,-21.24
22.375,-19.6
22.390,-18.52
22.406,-18.54
22.421,-19.47
22.437,-20.66
22.453,-21.41
22.468,-21.31
22.484,-20.58
22.500,-19.82
22.515,-19.71
22.531,-20.46
22.546,-21.8
22.562,-22.9
22.578,-23.01
22.593,-21.78
22.609,-19.59
22.625,-17.37
22.640,-15.97
22.656,-15.83
22.671,-16.55
22.687,-17.37
22.703,-17.36
22.718,-16.1
22.734,-13.81
22.750,-11.2
22.765,-9.13
22.781,-7.94
22.796,-7.48
22.812,-7.02
22.828,-5.9
22.843,-3.94
22.859,-1.59
22.875,0.31
22.890,1.03
22.906,0.42
22.921,-1.02
22.937,-2.39
22.953,-2.87
22.968,-2.15
22.984,-0.57
23.000,1.08
23.015,2.02
23.031,1.82
23.046,0.56
23.062,-1.18
23.078,-2.84
23.093,-4.11
23.109,-4.97
23.125,-5.83
23.140,-7.07
23.156,-8.84
23.171,-10.9
23.187,-12.77
23.203,-13.82
23.218,-13.91
23.234,-13.39
23.250,-12.92
23.265,-13.41
23.281,-15.17
23.296,-18.02
23.312,-21.15
23.328,-23.65
23.343,-24.91
23.359,-24.94
23.375,-24.26
23.390,-23.55
23.406,-23.37
23.421,-23.63
23.437,-23.81
23.453,-23.19
23.468,-21.42
23.484,-18.7
23.500,-15.73
23.515,-13.21
23.531,-11.59
23.546,-10.87
23.562,-10.42
23.578,-9.5
23.593,-7.76
23.609,-5.3
23.625,-2.82
23.640,-1.15
23.656,-0.73
23.671,-1.5
23.687,-2.96
23.703,-4.26
23.718,-4.89
23.734,-4.92
23.750,-4.76
23.765,-5.12
23.781,-6.34
23.796,-8.32
23.812,-10.34
23.828,-11.63
23.843,-11.61
23.859,-10.31
23.875,-8.42
23.890,-6.72
23.906,-5.87
23.921,-6.0
23.937,-6.76
23.953,-7.65
23.968,-8.34
23.984,-8.79
24.000,-9.45
24.015,-10.65
24.031,-12.43
24.046,-14.45
24.062,-16.09
24.078,-16.7
24.093,-16.1
24.109,-14.59
24.125,-12.87
24.140,-11.68
24.156,-11.39
24.171,-11.82
24.187,-12.35
24.203,-12.3
24.218,-11.27
24.234,-9.4
24.250,-7.2
24.265,-5.32
24.281,-4.13
24.296,-3.66
24.312,-3.56
24.328,-3.45
24.343,-3.13
24.359,-2.77
24.375,-2.82
24.390,-3.72
24.406,-5.53
24.421,-7.94
24.437,-10.29
24.453,-11.85
24.468,-12.23
24.484,-11.34
24.500,-9.76
24.515,-8.19
24.531,-7.23
24.546,-6.96
24.562,-7.15
24.578,-7.41
24.593,-7.43
24.609,-7.29
24.625,-7.28
24.640,-7.87
24.656,-9.21
24.671,-11.11
24.687,-12.95
24.703,-13.96
24.718,-13.68
24.734,-12.17
24.750,-9.88
24.765,-7.5
24.781,-5.58
24.796,-4.27
24.812,-3.3
24.828,-2.17
24.843,-0.58
24.859,1.45
24.875,3.57
24.890,5.25
24.906,6.19
24.921,6.44
24.937,6.43
24.953,6.62
24.968,7.28
24.984,8.34
25.000,9.28
25.015,9.6
25.031,8.85
25.046,7.02
25.062,4.6
25.078,2.3
25.093,0.6
25.109,-0.41
25.125,-1.02
25.140,-1.77
25.156,-3.03
25.171,-4.84
25.187,-6.83
25.203,-8.38
25.218,-8.99
25.234,-8.64
25.250,-7.81
25.265,-7.08
25.281,-6.79
25.296,-6.88
25.312,-6.97
25.328,-6.63
25.343,-5.74
25.359,-4.83
25.375,-4.72
25.390,-6.27
25.406,-9.75
25.421,-14.66
25.437,-19.83
25.453,-23.95
25.468,-26.03
25.484,-25.84
25.500,-23.98
25.515,-21.34
25.531,-18.72
25.546,-16.44
25.562,-14.3
25.578,-11.86
25.593,-8.89
25.609,-5.6
25.625,-2.6
25.640,-0.57
25.656,0.12
25.671,-0.28
25.687,-1.1
25.703,-1.57
25.718,-1.2
25.734,-0.01
25.750,1.53
25.765,2.82
25.781,3.44
25.796,3.42
25.812,3.1
25.828,3.03
25.843,3.6
25.859,4.75
25.875,6.06
25.890,6.97
25.906,7.05
25.921,6.35
25.937,5.53
25.953,5.23
25.968,5.92
25.984,7.49
26.000,9.27
26.015,10.29
26.031,9.9
26.046,7.93
26.062,4.91
26.078,1.75
26.093,-0.82
26.109,-2.54
26.125,-3.56
26.140,-4.24
26.156,-4.75
26.171,-4.83
26.187,-3.78
26.203,-0.95
26.218,4.09
26.234,11.16
26.250,19.46
26.265,27.95
26.281,35.64
26.296,42.12
26.312,47.42
26.328,51.96
26.343,56.02
26.359,59.47
26.375,61.3
26.390,60.21
26.406,55.07
26.421,45.28
26.437,31.4
26.453,14.78
26.468,-3.04
26.484,-20.85
26.500,-38.19
26.515,-55.26
26.531,-72.21
26.546,-88.79
26.562,-104.18
26.578,-117.18
26.593,-126.79
26.609,-132.79
26.625,-135.7
26.640,-136.54
26.656,-136.21
26.671,-135.1
26.687,-133.06
26.703,-129.82
26.718,-125.56
26.734,-121.13
26.750,-117.84
26.765,-116.67
26.781,-117.62
26.796,-119.16
26.812,-118.71
26.828,-113.6
26.843,-102.41
26.859,-85.54
26.875,-65.33
26.890,-44.95
26.906,-27.12
26.921,-13.23
26.937,-2.78
26.953,5.89
26.968,14.56
26.984,23.97
27.000,33.75
27.015,42.6
27.031,49.38
27.046,53.83
27.062,56.82
27.078,60.08
27.093,65.56
27.109,74.95
27.125,89.32
27.140,109.41
27.156,135.64
27.171,167.97
27.187,205.4
27.203,245.54
27.218,284.31
27.234,316.56
27.250,337.25
27.265,342.61
27.281,331.27
27.296,304.44
27.312,265.65
27.328,219.79
27.343,172.06
27.359,126.8
27.375,86.9
27.390,53.55
27.406,26.72
27.421,5.35
27.437,-11.74
27.453,-25.66
27.468,-37.09
27.484,-46.53
27.500,-54.47
27.515,-61.29
27.531,-67.31
27.546,-72.54
27.562,-76.73
27.578,-79.53
27.593,-80.94
27.609,-81.45
27.625,-81.87
27.640,-83.17
27.656,-85.53
27.671,-88.2
27.687,-89.51
27.703,-87.42
27.718,-80.44
27.734,-68.48
27.750,-52.87
27.765,-35.77
27.781,-19.35
27.796,-4.94
27.812,7.49
27.828,18.9
27.843,30.62
27.859,43.51
27.875,57.53
27.890,71.94
27.906,85.91
27.921,98.96
27.937,111.4
27.953,124.22
27.968,138.45
27.984,154.55
28.000,171.95
28.015,189.34
28.031,205.23
28.046,218.65
28.062,229.5
28.078,238.56
28.093,246.89
28.109,255.19
28.125,263.56
28.140,271.49
28.156,278.54
28.171,284.69
28.187,290.68
28.203,297.53
28.218,305.86
28.234,315.28
28.250,324.23
28.265,330.59
28.281,332.88
28.296,330.81
28.312,325.62
28.328,319.27
28.343,313.28
28.359,307.71
28.375,301.01
28.390,290.89
28.406,275.75
28.421,255.47
28.437,231.59
28.453,206.64
28.468,182.77
28.484,161.11
28.500,141.5
28.515,123.12
28.531,105.19
28.546,87.0
28.562,68.39
28.578,49.61
28.593,30.98
28.609,12.69
28.625,-5.19
28.640,-22.67
28.656,-39.41
28.671,-54.87
28.687,-68.62
28.703,-80.28
28.718,-89.47
28.734,-96.01
28.750,-99.88
28.765,-101.37
28.781,-100.83
28.796,-98.73
28.812,-95.46
28.828,-92.31
28.843,-90.53
28.859,-90.9
28.875,-93.54
28.890,-98.01
28.906,-103.59
28.921,-109.76
28.937,-116.27
28.953,-122.95
28.968,-132.35
28.984,-146.99
29.000,-167.99
29.015,-194.36
29.031,-223.35
29.046,-251.84
29.062,-277.5
29.078,-299.22
29.093,-316.74
29.109,-335.92
29.125,-362.78
29.140,-400.51
29.156,-447.76
29.171,-499.43
29.187,-549.66
29.203,-594.08
29.218,-630.91
29.234,-660.17
29.250,-691.45
29.265,-734.97
29.281,-796.21
29.296,-873.13
29.312,-957.76
29.328,-1040.52
29.343,-1114.56
29.359,-1177.06
29.375,-1228.29
29.390,-1280.97
29.406,-1349.09
29.421,-1440.3
29.437,-1551.96
29.453,-1673.07
29.468,-1790.12
29.484,-1892.76
29.500,-1975.47
29.515,-1960.84
29.531,-1795.07
29.546,-1463.75
29.562,-1003.26
29.578,-486.22
29.593,13.19
29.609,445.81
29.625,792.12
29.640,1053.64
29.656,1232.3
29.671,1341.84
29.687,1390.47
29.703,1385.84
29.718,1340.23
29.734,1270.48
29.750,1193.47
29.765,1121.5
29.781,1060.82
29.796,1012.77
29.812,968.58
29.828,916.78
29.843,851.54
29.859,775.34
29.875,696.95
29.890,626.47
29.906,570.89
29.921,532.53
29.937,510.33
29.953,496.73
29.968,481.9
29.984,459.47
30.000,428.38
30.015,392.17
30.031,356.11
30.046,324.46
30.062,299.1
30.078,280.32
30.093,265.28
30.109,249.38
30.125,229.75
30.140,206.42
30.156,181.74
30.171,159.03
30.187,141.28
30.203,129.81
30.218,124.76
30.234,124.44
30.250,125.3
30.265,124.34
30.281,119.98
30.296,111.74
30.312,100.03
30.328,87.43
30.343,74.05
30.359,59.6
30.375,43.39
30.390,23.89
30.406,0.39
30.421,-26.25
30.437,-54.35
30.453,-81.65
30.468,-104.8
30.484,-121.46
30.500,-131.15
30.515,-135.21
30.531,-136.52
30.546,-138.21
30.562,-141.87
30.578,-148.81
30.593,-159.81
30.609,-171.94
30.625,-180.24
30.640,-179.04
30.656,-163.37
30.671,-131.4
30.687,-84.97
30.703,-28.36
30.718,31.04
30.734,85.0
30.750,131.4
30.765,172.22
30.781,211.55
30.796,253.98
30.812,303.01
30.828,351.57
30.843,396.1
30.859,433.43
30.875,444.1
30.890,418.4
30.906,357.6
30.921,271.64
30.937,173.51
30.953,72.45
30.968,-27.45
30.984,-122.73
31.000,-211.33
31.015,-294.36
31.031,-370.23
31.046,-434.76
31.062,-484.98
31.078,-519.23
31.093,-537.9
31.109,-542.92
31.125,-534.69
31.140,-500.12
31.156,-439.28
31.171,-357.34
31.187,-264.16
31.203,-172.11
31.218,-90.53
31.234,-25.39
31.250,20.83
31.265,50.2
31.281,65.86
31.296,69.04
31.312,63.9
31.328,61.77
31.343,62.69
31.359,65.87
31.375,69.21
31.390,70.02
31.406,67.97
31.421,62.44
31.437,51.48
31.453,35.51
31.468,16.48
31.484,-4.03
31.500,-21.94
31.515,-32.7
31.531,-43.28
31.546,-54.19
31.562,-65.25
31.578,-77.34
31.593,-90.04
31.609,-102.43
31.625,-114.82
31.640,-126.66
31.656,-138.03
31.671,-149.18
31.687,-158.56
31.703,-165.26
31.718,-169.09
31.734,-169.58
31.750,-165.8
31.765,-157.77
31.781,-144.84
31.796,-127.41
31.812,-106.74
31.828,-83.22
31.843,-58.36
31.859,-33.89
31.875,-10.96
31.890,9.77
31.906,27.34
31.921,41.52
31.937,52.26
31.953,59.81
31.968,65.51
31.984,69.8
32.000,72.97
32.015,75.43
32.031,77.54
32.046,79.2
32.062,80.48
32.078,80.84
32.093,79.8
32.109,77.65
32.125,74.81
32.140,71.91
32.156,69.49
32.171,68.27
32.187,68.25
32.203,69.09
32.218,69.77
32.234,69.41
32.250,67.93
32.265,66.23
32.281,66.27
32.296,70.65
32.312,82.03
32.328,102.09
32.343,131.34
32.359,168.87
32.375,212.88
32.390,261.19
32.406,311.72
32.421,362.84
32.437,413.37
32.453,462.73
32.468,510.9
32.484,558.51
32.500,606.13
32.515,652.95
32.531,695.93
32.546,729.48
32.562,746.87
32.578,742.59
32.593,714.91
32.609,666.83
32.625,605.29
32.640,538.63
32.656,473.28
32.671,412.64
32.687,357.28
32.703,306.83
32.718,261.23
32.734,221.24
32.750,187.51
32.765,159.71
32.781,136.0
32.796,113.67
32.812,90.67
32.828,66.31
32.843,41.68
32.859,18.62
32.875,-1.18
32.890,-17.1
32.906,-29.9
32.921,-41.07
32.937,-52.09
32.953,-63.6
32.968,-75.52
32.984,-87.07
33.000,-97.55
33.015,-106.65
33.031,-114.5
33.046,-121.39
33.062,-127.64
33.078,-133.27
33.093,-138.11
33.109,-142.13
33.125,-145.58
33.140,-149.11
33.156,-153.19
33.171,-157.67
33.187,-161.71
33.203,-163.78
33.218,-162.43
33.234,-156.92
33.250,-147.89
33.265,-137.03
33.281,-126.51
33.296,-118.08
33.312,-112.14
33.328,-107.9
33.343,-103.79
33.359,-98.56
33.375,-91.92
33.390,-84.79
33.406,-78.79
33.421,-75.25
33.437,-74.72
33.453,-76.74
33.468,-80.34
33.484,-84.32
33.500,-87.34
33.515,-87.82
33.531,-83.9
33.546,-73.97
33.562,-57.84
33.578,-37.32
33.593,-16.07
33.609,1.47
33.625,11.92
33.640,14.17
33.656,9.45
33.671,0.48
33.687,-10.01
33.703,-20.4
33.718,-30.15
33.734,-39.39
33.750,-48.24
33.765,-56.63
33.781,-64.39
33.796,-71.68
33.812,-78.95
33.828,-86.55
33.843,-94.41
33.859,-102.0
33.875,-108.21
33.890,-111.99
33.906,-112.77
33.921,-110.53
33.937,-105.87
33.953,-99.94
33.968,-93.82
33.984,-88.41
34.000,-84.23
34.015,-81.57
34.031,-80.47
34.046,-80.9
34.062,-82.73
34.078,-85.69
34.093,-89.53
34.109,-93.93
34.125,-98.78
34.140,-104.07
34.156,-110.0
34.171,-116.73
34.187,-124.17
34.203,-132.02
34.218,-139.76
34.234,-147.21
34.250,-154.71
34.265,-163.66
34.281,-175.62
34.296,-192.06
34.312,-213.77
34.328,-240.42
34.343,-270.51
34.359,-301.71
34.375,-331.4
34.390,-357.07
34.406,-376.7
34.421,-388.55
34.437,-391.11
34.453,-383.29
34.468,-364.64
34.484,-335.7
34.500,-298.17
34.515,-254.75
34.531,-208.64
34.546,-162.85
34.562,-119.58
34.578,-80.05
34.593,-44.75
34.609,-13.66
34.625,13.06
34.640,35.24
34.656,52.74
34.671,65.68
34.687,74.73
34.703,80.93
34.718,85.44
34.734,89.13
34.750,92.43
34.765,94.94
34.781,96.04
34.796,95.16
34.812,92.42
34.828,88.66
34.843,85.04
34.859,82.54
34.875,81.51
34.890,81.55
34.906,81.71
34.921,81.02
34.937,78.88
34.953,75.22
34.968,70.42
34.984,64.86
35.000,58.59
35.015,51.28
35.031,42.5
35.046,31.83
35.062,19.59
35.078,6.58
35.093,-6.15
35.109,-17.78
35.125,-28.18
35.140,-38.05
35.156,-48.42
35.171,-59.99
35.187,-72.77
35.203,-85.56
35.218,-96.41
35.234,-103.21
35.250,-104.62
35.265,-100.47
35.281,-91.54
35.296,-79.04
35.312,-64.29
35.328,-48.42
35.343,-32.39
35.359,-17.67
35.375,-5.91
35.390,0.83
35.406,0.4
35.421,-8.49
35.437,-25.58
35.453,-49.02
35.468,-75.67
35.484,-101.55
35.500,-123.04
35.515,-137.21
35.531,-141.88
35.546,-135.94
35.562,-118.89
35.578,-91.32
35.593,-54.81
35.609,-12.46
35.625,31.65
35.640,73.09
35.656,107.74
35.671,133.06
35.687,148.31
35.703,154.64
35.718,154.42
35.734,150.56
35.750,145.85
35.765,142.17
35.781,140.13
35.796,139.15
35.812,137.83
35.828,134.53
35.843,128.18
35.859,118.44
35.875,105.86
35.890,91.89
35.906,78.12
35.921,65.84
35.937,55.75
35.953,48.33
35.968,44.05
35.984,43.54
36.000,47.44
36.015,55.71
36.031,67.52
36.046,81.07
36.062,94.37
36.078,105.61
36.093,113.93
36.109,119.24
36.125,121.65
36.140,121.36
36.156,118.29
36.171,112.41
36.187,103.63
36.203,92.33
36.218,79.29
36.234,65.55
36.250,52.23
36.265,40.08
36.281,29.37
36.296,20.16
36.312,12.37
36.328,5.95
36.343,0.86
36.359,-3.01
36.375,-5.85
36.390,-8.02
36.406,-10.26
36.421,-12.92
36.437,-16.26
36.453,-20.14
36.468,-24.04
36.484,-27.51
36.500,-30.51
36.515,-33.19
36.531,-36.16
36.546,-39.93
36.562,-44.37
36.578,-48.88
36.593,-52.23
36.609,-52.91
36.625,-49.9
36.640,-43.16
36.656,-33.46
36.671,-21.9
36.687,-9.66
36.703,2.52
36.718,14.26
36.734,25.28
36.750,35.06
36.765,43.01
36.781,48.04
36.796,49.28
36.812,46.52
36.828,40.1
36.843,31.17
36.859,20.9
36.875,10.49
36.890,0.5
36.906,-8.94
36.921,-18.15
36.937,-27.47
36.953,-36.95
36.968,-46.31
36.984,-54.84
37.000,-61.93
37.015,-66.87
37.031,-69.36
37.046,-69.71
37.062,-68.6
37.078,-67.05
37.093,-66.5
37.109,-67.87
37.125,-71.91
37.140,-78.93
37.156,-88.77
37.171,-100.83
37.187,-113.99
37.203,-127.3
37.218,-139.7
37.234,-150.48
37.250,-159.3
37.265,-166.36
37.281,-172.72
37.296,-179.85
37.312,-188.79
37.328,-199.22
37.343,-209.3
37.359,-215.94
37.375,-215.56
37.390,-205.5
37.406,-184.71
37.421,-154.17
37.437,-116.12
37.453,-73.39
37.468,-28.52
37.484,16.37
37.500,59.38
37.515,98.49
37.531,131.7
37.546,157.28
37.562,174.66
37.578,184.58
37.593,188.67
37.609,189.4
37.625,188.61
37.640,186.96
37.656,184.16
37.671,179.21
37.687,171.44
37.703,160.91
37.718,148.78
37.734,136.09
37.750,123.74
37.765,111.86
37.781,99.97
37.796,87.48
37.812,73.85
37.828,59.16
37.843,44.06
37.859,29.68
37.875,17.12
37.890,7.41
37.906,1.37
37.921,-0.72
37.937,1.25
37.953,6.95
37.968,15.88
37.984,26.95
38.000,39.02
38.015,50.9
38.031,61.64
38.046,70.64
38.062,77.52
38.078,82.23
38.093,84.72
38.109,85.23
38.125,83.87
38.140,80.13
38.156,73.16
38.171,62.09
38.187,46.4
38.203,25.82
38.218,0.98
38.234,-27.23
38.250,-57.54
38.265,-88.39
38.281,-118.0
38.296,-144.25
38.312,-164.67
38.328,-176.74
38.343,-178.56
38.359,-169.19
38.375,-149.0
38.390,-119.71
38.406,-84.17
38.421,-45.84
38.437,-7.93
38.453,26.62
38.468,56.02
38.484,79.15
38.500,95.46
38.515,104.95
38.531,107.71
38.546,104.44
38.562,96.43
38.578,85.84
38.593,74.87
38.609,65.62
38.625,59.64
38.640,57.47
38.656,58.75
38.671,62.26
38.687,66.74
38.703,71.3
38.718,75.68
38.734,79.98
38.750,84.33
38.765,88.67
38.781,92.53
38.796,95.62
38.812,97.57
38.828,98.65
38.843,99.6
38.859,101.21
38.875,103.82
38.890,107.29
38.906,111.09
38.921,114.55
38.937,117.6
38.953,120.38
38.968,123.53
38.984,127.59
39.000,132.61
39.015,137.83
39.031,142.02
39.046,143.82
39.062,141.95
39.078,136.11
39.093,126.76
39.109,115.12
39.125,102.57
39.140,90.54
39.156,80.08
39.171,71.67
39.187,65.44
39.203,60.79
39.218,56.93
39.234,52.7
39.250,46.83
39.265,38.23
39.281,26.4
39.296,11.86
39.312,-3.92
39.328,-18.76
39.343,-30.77
39.359,-38.73
39.375,-42.8
39.390,-44.26
39.406,-45.03
39.421,-46.69
39.437,-49.88
39.453,-54.19
39.468,-58.46
39.484,-61.62
39.500,-63.01
39.515,-63.04
39.531,-62.55
39.546,-62.63
39.562,-63.91
39.578,-66.37
39.593,-69.49
39.609,-72.42
39.625,-74.46
39.640,-75.01
39.656,-73.86
39.671,-70.78
39.687,-65.68
39.703,-58.56
39.718,-49.76
39.734,-40.14
39.750,-30.87
39.765,-23.4
39.781,-18.71
39.796,-17.16
39.812,-18.28
39.828,-20.9
39.843,-23.43
39.859,-24.47
39.875,-23.46
39.890,-20.6
39.906,-17.01
39.921,-13.57
39.937,-10.95
39.953,-8.93
39.968,-6.88
39.984,-3.95
40.000,0.43
40.015,6.1
40.031,12.64
40.046,19.45
40.062,26.46
40.078,34.15
40.093,43.53
40.109,55.57
40.125,70.71
40.140,88.69
40.156,108.19
40.171,127.67
40.187,145.28
40.203,159.62
40.218,169.91
40.234,176.09
40.250,178.91
40.265,179.38
40.281,178.64
40.296,177.26
40.312,175.43
40.328,172.03
40.343,165.12
40.359,151.8
40.375,128.74
40.390,93.38
40.406,44.47
40.421,-16.64
40.437,-85.87
40.453,-156.51
40.468,-220.74
40.484,-270.95
40.500,-301.41
40.515,-309.12
40.531,-294.0
40.546,-258.59
40.562,-207.15
40.578,-144.99
40.593,-77.63
40.609,-10.04
40.625,54.2
40.640,113.48
40.656,167.7
40.671,217.82
40.687,264.32
40.703,306.04
40.718,339.92
40.734,361.41
40.750,365.99
40.765,350.85
40.781,315.91
40.796,263.89
40.812,199.77
40.828,129.29
40.843,57.74
40.859,-11.24
40.875,-75.99
40.890,-136.3
40.906,-192.41
40.921,-243.74
40.937,-288.43
40.953,-323.6
40.968,-346.41
40.984,-355.74
41.000,-352.84
41.015,-341.11
41.031,-324.76
41.046,-307.24
41.062,-290.27
41.078,-273.57
41.093,-256.19
41.109,-237.06
41.125,-216.41
41.140,-195.27
41.156,-175.0
41.171,-156.28
41.187,-138.48
41.203,-119.96
41.218,-98.85
41.234,-74.07
41.250,-46.13
41.265,-17.13
41.281,10.28
41.296,33.97
41.312,52.99
41.328,67.73
41.343,79.56
41.359,89.37
41.375,97.12
41.390,101.59
41.406,100.81
41.421,93.24
41.437,78.66
41.453,58.22
41.468,34.38
41.484,9.92
41.500,-13.15
41.515,-33.8
41.531,-51.94
41.546,-67.78
41.562,-81.23
41.578,-91.36
41.593,-97.2
41.609,-97.78
41.625,-93.17
41.640,-84.7
41.656,-74.61
41.671,-65.14
41.687,-57.63
41.703,-52.18
41.718,-47.78
41.734,-43.24
41.750,-37.76
41.765,-31.71
41.781,-26.22
41.796,-22.72
41.812,-21.95
41.828,-23.65
41.843,-26.43
41.859,-28.59
41.875,-28.84
41.890,-26.92
41.906,-23.54
41.921,-20.05
41.937,-17.62
41.953,-16.65
41.968,-16.82
41.984,-17.2
42.000,-17.07
42.015,-16.33
42.031,-15.55
42.046,-15.61
42.062,-17.18
42.078,-20.18
42.093,-23.95
42.109,-27.42
42.125,-30.0
42.140,-31.65
42.156,-33.04
42.171,-35.02
42.187,-38.32
42.203,-42.93
42.218,-48.31
42.234,-53.62
42.250,-58.01
42.265,-61.27
42.281,-63.44
42.296,-64.67
42.312,-64.84
42.328,-63.53
42.343,-60.02
42.359,-53.88
42.375,-45.16
42.390,-34.57
42.406,-23.35
42.421,-12.59
42.437,-3.08
42.453,5.21
42.468,12.71
42.484,20.08
42.500,27.53
42.515,34.81
42.531,41.15
42.546,45.67
42.562,47.98
42.578,48.31
42.593,47.3
42.609,45.95
42.625,44.9
42.640,44.19
42.656,43.42
42.671,42.17
42.687,40.22
42.703,37.89
42.718,35.95
42.734,34.95
42.750,35.23
42.765,36.44
42.781,37.75
42.796,38.15
42.812,36.97
42.828,34.19
42.843,30.44
42.859,26.69
42.875,23.63
42.890,21.52
42.906,19.97
42.921,18.33
42.937,16.06
42.953,12.93
42.968,9.09
42.984,4.82
43.000,0.34
43.015,-4.33
43.031,-9.29
43.046,-14.42
43.062,-19.24
43.078,-22.66
43.093,-23.61
43.109,-21.2
43.125,-15.27
43.140,-6.47
43.156,4.07
43.171,15.11
43.187,25.74
43.203,35.5
43.218,44.44
43.234,52.32
43.250,58.59
43.265,62.15
43.281,61.9
43.296,57.17
43.312,48.2
43.328,36.31
43.343,23.52
43.359,11.93
43.375,3.0
43.390,-2.74
43.406,-5.81
43.421,-7.28
43.437,-8.34
43.453,-9.72
43.468,-11.52
43.484,-13.45
43.500,-15.18
43.515,-16.69
43.531,-18.25
43.546,-20.36
43.562,-23.28
43.578,-26.75
43.593,-30.12
43.609,-32.46
43.625,-33.14
43.640,-32.29
43.656,-30.78
43.671,-29.6
43.687,-29.67
43.703,-31.3
43.718,-34.07
43.734,-37.26
43.750,-40.33
43.765,-43.19
43.781,-46.18
43.796,-49.65
43.812,-53.35
43.828,-56.6
43.843,-58.24
43.859,-57.29
43.875,-53.46
43.890,-47.36
43.906,-40.41
43.921,-33.89
43.937,-28.72
43.953,-24.8
43.968,-21.47
43.984,-17.9
44.000,-13.74
44.015,-9.39
44.031,-5.74
44.046,-3.74
44.062,-3.71
44.078,-5.23
44.093,-7.17
44.109,-8.49
44.125,-8.49
44.140,-7.21
44.156,-5.26
44.171,-3.12
44.187,-0.94
44.203,1.77
44.218,5.69
44.234,11.27
44.250,18.19
44.265,25.29
44.281,30.95
44.296,33.73
44.312,33.18
44.328,29.85
44.343,25.27
44.359,20.78
44.375,17.34
44.390,15.08
44.406,13.25
44.421,11.11
44.437,8.14
44.453,4.54
44.468,0.98
44.484,-1.88
44.500,-3.91
44.515,-5.46
44.531,-7.1
44.546,-9.44
44.562,-12.36
44.578,-15.06
44.593,-16.3
44.609,-14.89
44.625,-10.51
44.640,-3.75
44.656,4.01
44.671,11.46
44.687,17.68
44.703,22.74
44.718,27.3
44.734,32.13
44.750,37.62
44.765,43.4
44.781,48.72
44.796,52.76
44.812,55.26
44.828,56.54
44.843,57.53
44.859,59.08
44.875,61.47
44.890,64.47
44.906,67.33
44.921,69.44
44.937,70.49
44.953,70.69
44.968,70.6
44.984,70.93
45.000,71.9
45.015,73.15
45.031,74.01
45.046,73.92
45.062,72.66
45.078,70.61
45.093,68.22
45.109,66.02
45.125,63.96
45.140,61.66
45.156,58.32
45.171,53.29
45.187,46.4
45.203,38.02
45.218,28.77
45.234,19.17
45.250,9.57
45.265,-0.04
45.281,-9.53
45.296,-18.43
45.312,-25.82
45.328,-30.67
45.343,-32.05
45.359,-29.78
45.375,-24.54
45.390,-17.79
45.406,-11.2
45.421,-6.0
45.437,-2.64
45.453,-0.64
45.468,0.66
45.484,1.83
45.500,2.81
45.515,3.11
45.531,2.0
45.546,-0.8
45.562,-4.94
45.578,-9.39
45.593,-13.01
45.609,-14.99
45.625,-15.37
45.640,-14.73
45.656,-14.04
45.671,-13.95
45.687,-14.82
45.703,-16.28
45.718,-17.72
45.734,-18.74
45.750,-19.39
45.765,-20.26
45.781,-22.2
45.796,-25.81
45.812,-30.92
45.828,-36.88
45.843,-42.65
45.859,-47.25
45.875,-50.16
45.890,-51.68
45.906,-52.44
45.921,-53.13
45.937,-54.18
45.953,-55.49
45.968,-56.64
45.984,-57.33
46.000,-57.52
46.015,-57.4
46.031,-57.37
46.046,-57.39
46.062,-57.06
46.078,-55.34
46.093,-51.32
46.109,-44.48
46.125,-35.21
46.140,-24.55
46.156,-13.8
46.171,-3.83
46.187,5.09
46.203,13.36
46.218,21.79
46.234,30.75
46.250,40.06
46.265,48.92
46.281,56.29
46.296,61.36
46.312,63.9
46.328,64.43
46.343,63.82
46.359,62.77
46.375,61.63
46.390,60.19
46.406,57.98
46.421,54.78
46.437,50.83
46.453,46.58
46.468,42.71
46.484,39.6
46.500,37.04
46.515,34.49
46.531,31.32
46.546,27.19
46.562,22.45
46.578,17.81
46.593,14.02
46.609,11.45
46.625,9.83
46.640,8.25
46.656,5.75
46.671,1.69
46.687,-3.83
46.703,-10.14
46.718,-16.35
46.734,-21.72
46.750,-25.78
46.765,-28.45
46.781,-29.64
46.796,-29.21
46.812,-26.86
46.828,-22.2
46.843,-15.13
46.859,-6.04
46.875,4.09
46.890,14.02
46.906,22.43
46.921,28.56
46.937,32.32
46.953,34.12
46.968,34.72
46.984,34.52
47.000,33.8
47.015,32.34
47.031,30.2
47.046,27.34
47.062,24.4
47.078,22.06
47.093,20.84
47.109,20.89
47.125,21.89
47.140,23.14
47.156,23.98
47.171,24.05
47.187,23.21
47.203,21.87
47.218,20.39
47.234,18.91
47.250,17.19
47.265,14.74
47.281,11.13
47.296,6.42
47.312,0.9
47.328,-4.77
47.343,-9.9
47.359,-14.31
47.375,-18.07
47.390,-21.69
47.406,-25.64
47.421,-30.26
47.437,-35.14
47.453,-39.71
47.468,-43.13
47.484,-44.77
47.500,-44.45
47.515,-42.19
47.531,-38.3
47.546,-33.03
47.562,-26.61
47.578,-18.91
47.593,-10.18
47.609,-0.91
47.625,8.12
47.640,15.85
47.656,21.52
47.671,24.85
47.687,26.3
47.703,26.59
47.718,26.7
47.734,27.05
47.750,27.51
47.765,27.72
47.781,27.11
47.796,25.52
47.812,23.23
47.828,20.87
47.843,19.04
47.859,18.04
47.875,17.73
47.890,17.51
47.906,16.86
47.921,15.49
47.937,13.53
47.953,11.32
47.968,9.29
47.984,7.5
48.000,5.42
48.015,2.6
48.031,-1.44
48.046,-6.59
48.062,-12.42
48.078,-18.07
48.093,-22.92
48.109,-26.77
48.125,-30.04
48.140,-33.46
48.156,-37.54
48.171,-42.41
48.187,-47.2
48.203,-50.9
48.218,-52.22
48.234,-50.39
48.250,-45.27
48.265,-37.5
48.281,-27.93
48.296,-17.37
48.312,-6.49
48.328,4.42
48.343,14.84
48.359,24.24
48.375,31.85
48.390,37.13
48.406,39.55
48.421,39.22
48.437,36.93
48.453,33.6
48.468,30.38
48.484,27.91
48.500,26.19
48.515,24.84
48.531,23.38
48.546,21.48
48.562,19.17
48.578,16.99
48.593,15.18
48.609,14.02
48.625,13.28
48.640,12.55
48.656,11.45
48.671,9.97
48.687,8.51
48.703,7.54
48.718,7.45
48.734,7.82
48.750,7.97
48.765,6.94
48.781,4.02
48.796,-0.85
48.812,-7.03
48.828,-13.5
48.843,-19.57
48.859,-25.01
48.875,-30.36
48.890,-36.19
48.906,-42.76
48.921,-49.64
48.937,-55.62
48.953,-59.25
48.968,-59.28
48.984,-55.39
49.000,-48.15
49.015,-38.95
49.031,-29.19
49.046,-19.87
49.062,-11.31
49.078,-3.34
49.093,4.3
49.109,11.55
49.125,17.88
49.140,22.61
49.156,25.13
49.171,25.45
49.187,24.34
49.203,22.63
49.218,21.15
49.234,20.09
49.250,18.98
49.265,17.22
49.281,14.56
49.296,11.13
49.312,7.61
49.328,4.85
49.343,3.31
49.359,2.88
49.375,2.88
49.390,2.63
49.406,1.43
49.421,-0.76
49.437,-3.5
49.453,-6.13
49.468,-8.2
49.484,-9.83
49.500,-11.49
49.515,-13.9
49.531,-17.28
49.546,-21.64
49.562,-26.32
49.578,-30.7
49.593,-34.44
49.609,-37.91
49.625,-42.17
49.640,-48.64
49.656,-58.44
49.671,-71.92
49.687,-88.7
49.703,-107.78
49.718,-128.22
49.734,-149.05
49.750,-169.35
49.765,-188.03
49.781,-203.61
49.796,-214.04
49.812,-216.95
49.828,-210.36
49.843,-193.04
49.859,-165.25
49.875,-128.85
49.890,-86.7
49.906,-42.27
49.921,1.14
49.937,40.92
49.953,75.45
49.968,103.63
49.984,124.94
50.000,139.12
50.015,146.24
50.031,147.13
50.046,143.25
50.062,136.68
50.078,129.24
50.093,122.43
50.109,116.62
50.125,111.54
50.140,106.6
50.156,101.13
50.171,95.1
50.187,88.74
50.203,82.74
50.218,77.46
50.234,72.68
50.250,67.76
50.265,61.98
50.281,54.87
50.296,46.66
50.312,38.19
50.328,30.36
50.343,23.73
50.359,18.19
50.375,13.1
50.390,7.76
50.406,1.88
50.421,-4.29
50.437,-9.81
50.453,-13.49
50.468,-14.57
50.484,-12.92
50.500,-9.13
50.515,-4.09
50.531,1.47
50.546,7.18
50.562,13.07
50.578,19.23
50.593,25.53
50.609,31.46
50.625,36.2
50.640,39.1
50.656,39.88
50.671,38.89
50.687,36.92
50.703,34.76
50.718,32.96
50.734,31.51
50.750,29.98
50.765,27.95
50.781,25.18
50.796,22.0
50.812,19.12
50.828,17.15
50.843,16.41
50.859,16.58
50.875,16.86
50.890,16.24
50.906,14.19
50.921,10.66
50.937,6.19
50.953,1.53
50.968,-2.81
50.984,-6.82
51.000,-10.87
51.015,-15.42
51.031,-20.61
51.046,-26.09
51.062,-31.11
51.078,-34.89
51.093,-37.18
51.109,-38.33
51.125,-39.15
51.140,-40.32
51.156,-42.01
51.171,-43.5
51.187,-43.63
51.203,-41.43
51.218,-36.43
51.234,-28.97
51.250,-20.13
51.265,-11.06
51.281,-2.55
51.296,5.04
51.312,12.0
51.328,18.59
51.343,24.6
51.359,29.38
51.375,32.23
51.390,32.56
51.406,30.45
51.421,26.74
51.437,22.67
51.453,19.29
51.468,17.09
51.484,15.81
51.500,14.68
51.515,13.04
51.531,10.76
51.546,8.2
51.562,6.15
51.578,5.36
51.593,5.82
51.609,6.97
51.625,7.71
51.640,7.26
51.656,5.38
51.671,2.43
51.687,-0.78
51.703,-3.6
51.718,-5.9
51.734,-8.02
51.750,-10.53
51.765,-13.86
51.781,-18.04
51.796,-22.72
51.812,-27.33
51.828,-31.53
51.843,-35.23
51.859,-38.73
51.875,-42.39
51.890,-46.06
51.906,-49.25
51.921,-50.98
51.937,-50.2
51.953,-46.18
51.968,-39.06
51.984,-29.66
52.000,-19.22
52.015,-9.01
52.031,0.21
52.046,8.17
52.062,15.01
52.078,20.97
52.093,25.93
52.109,29.52
52.125,31.31
52.140,31.11
52.156,29.4
52.171,27.01
52.187,24.82
52.203,23.39
52.218,22.77
52.234,22.51
52.250,21.93
52.265,20.64
52.281,18.67
52.296,16.42
52.312,14.48
52.328,13.14
52.343,12.36
52.359,11.73
52.375,10.53
52.390,8.28
52.406,4.82
52.421,0.59
52.437,-3.76
52.453,-7.68
52.468,-10.98
52.484,-13.98
52.500,-17.12
52.515,-20.79
52.531,-24.92
52.546,-28.98
52.562,-32.48
52.578,-34.89
52.593,-36.41
52.609,-37.58
52.625,-38.96
52.640,-40.97
52.656,-43.15
52.671,-44.58
52.687,-44.1
52.703,-40.89
52.718,-34.94
52.734,-27.08
52.750,-18.47
52.765,-10.05
52.781,-2.39
52.796,4.68
52.812,11.52
52.828,18.26
52.843,24.65
52.859,29.89
52.875,33.04
52.890,33.7
52.906,31.98
52.921,28.61
52.937,24.89
52.953,21.86
52.968,19.97
52.984,19.07
53.000,18.58
53.015,17.74
53.031,16.31
53.046,14.55
53.062,12.85
53.078,11.85
53.093,11.57
53.109,11.38
53.125,10.64
53.140,8.62
53.156,5.25
53.171,1.16
53.187,-2.78
53.203,-5.81
53.218,-7.59
53.234,-8.47
53.250,-9.21
53.265,-10.47
53.281,-12.62
53.296,-15.35
53.312,-18.1
53.328,-20.57
53.343,-22.77
53.359,-25.1
53.375,-28.09
53.390,-31.83
53.406,-35.71
53.421,-38.69
53.437,-39.48
53.453,-37.03
53.468,-31.35
53.484,-23.09
53.500,-13.34
53.515,-3.29
53.531,6.3
53.546,15.35
53.562,23.91
53.578,31.91
53.593,39.02
53.609,44.33
53.625,47.08
53.640,46.87
53.656,44.12
53.671,39.8
53.687,35.23
53.703,31.3
53.718,28.33
53.734,25.91
53.750,23.32
53.765,20.24
53.781,16.62
53.796,13.06
53.812,10.33
53.828,8.87
53.843,8.53
53.859,8.69
53.875,8.38
53.890,6.82
53.906,3.91
53.921,-0.06
53.937,-4.38
53.953,-8.45
53.968,-12.06
53.984,-15.52
54.000,-19.29
54.015,-23.57
54.031,-28.25
54.046,-32.56
54.062,-35.77
54.078,-37.57
54.093,-38.23
54.109,-38.48
54.125,-39.0
54.140,-39.98
54.156,-40.91
54.171,-40.71
54.187,-38.24
54.203,-33.05
54.218,-25.44
54.234,-16.34
54.250,-7.04
54.265,1.65
54.281,9.37
54.296,16.37
54.312,23.14
54.328,29.89
54.343,36.37
54.359,41.84
54.375,45.46
54.390,46.68
54.406,45.66
54.421,43.19
54.437,40.41
54.453,38.08
54.468,36.31
54.484,34.64
54.500,32.38
54.515,29.24
54.531,25.35
54.546,21.31
54.562,17.85
54.578,15.33
54.593,13.46
54.609,11.62
54.625,9.1
54.640,5.57
54.656,1.22
54.671,-3.43
54.687,-7.67
54.703,-11.16
54.718,-14.02
54.734,-16.74
54.750,-19.75
54.765,-23.36
54.781,-27.47
54.796,-31.65
54.812,-35.47
54.828,-38.76
54.843,-41.79
54.859,-44.86
54.875,-48.12
54.890,-51.13
54.906,-52.95
54.921,-52.48
54.937,-48.84
54.953,-41.7
54.968,-31.78
54.984,-20.36
55.000,-8.81
55.015,1.74
55.031,10.9
55.046,18.8
55.062,25.68
55.078,31.47
55.093,35.79
55.109,38.0
55.125,37.78
55.140,35.44
55.156,31.73
55.171,27.93
55.187,24.99
55.203,23.47
55.218,23.04
55.234,23.03
55.250,22.83
55.265,22.18
55.281,21.2
55.296,20.28
55.312,19.74
55.328,19.51
55.343,19.27
55.359,18.39
55.375,16.42
55.390,13.28
55.406,9.22
55.421,4.73
55.437,0.15
55.453,-4.35
55.468,-9.02
55.484,-14.21
55.500,-20.02
55.515,-26.35
55.531,-32.69
55.546,-38.44
55.562,-43.12
55.578,-46.74
55.593,-49.62
55.609,-52.37
55.625,-55.21
55.640,-57.73
55.656,-59.09
55.671,-58.04
55.687,-53.8
55.703,-46.27
55.718,-36.25
55.734,-25.08
55.750,-14.24
55.765,-4.58
55.781,3.7
55.796,10.67
55.812,16.65
55.828,21.6
55.843,25.18
55.859,26.92
55.875,26.66
55.890,24.67
55.906,21.66
55.921,18.61
55.937,16.23
55.953,15.08
55.968,15.02
55.984,15.53
56.000,16.12
56.015,16.47
56.031,16.57
56.046,16.56
56.062,16.54
56.078,16.24
56.093,15.36
56.109,13.36
56.125,10.0
56.140,5.46
56.156,0.31
56.171,-4.74
56.187,-9.09
56.203,-12.62
56.218,-15.77
56.234,-19.05
56.250,-22.92
56.265,-27.33
56.281,-31.72
56.296,-35.34
56.312,-37.68
56.328,-38.85
56.343,-39.36
56.359,-40.11
56.375,-41.49
56.390,-43.26
56.406,-44.5
56.421,-43.99
56.437,-41.02
56.453,-35.41
56.468,-27.79
56.484,-19.14
56.500,-10.36
56.515,-2.0
56.531,5.84
56.546,13.36
56.562,20.55
56.578,27.09
56.593,32.5
56.609,36.14
56.625,37.67
56.640,37.37
56.656,35.88
56.671,34.06
56.687,32.71
56.703,32.02
56.718,31.67
56.734,31.13
56.750,29.85
56.765,27.82
56.781,25.61
56.796,23.96
56.812,23.4
56.828,23.88
56.843,24.77
56.859,25.17
56.875,24.4
56.890,22.23
56.906,18.9
56.921,15.01
56.937,10.97
56.953,7.11
56.968,3.25
56.984,-0.75
57.000,-4.96
57.015,-9.0
57.031,-12.45
57.046,-14.87
57.062,-16.25
57.078,-17.18
57.093,-18.48
57.109,-20.8
57.125,-24.27
57.140,-28.26
57.156,-31.61
57.171,-33.15
57.187,-32.06
57.203,-28.13
57.218,-22.09
57.234,-14.92
57.250,-7.52
57.265,-0.48
57.281,6.13
57.296,12.55
57.312,18.87
57.328,24.93
57.343,30.25
57.359,34.09
57.375,35.92
57.390,35.9
57.406,34.6
57.421,32.9
57.437,31.5
57.453,30.75
57.468,30.26
57.484,29.57
57.500,28.32
57.515,26.47
57.531,24.54
57.546,23.04
57.562,22.3
57.578,22.14
57.593,22.0
57.609,21.03
57.625,18.71
57.640,15.14
57.656,10.78
57.671,6.41
57.687,2.53
57.703,-0.79
57.718,-3.76
57.734,-6.75
57.750,-10.1
57.765,-13.77
57.781,-17.44
57.796,-20.64
57.812,-23.21
57.828,-25.47
57.843,-27.97
57.859,-31.19
57.875,-35.13
57.890,-39.16
57.906,-42.22
57.921,-43.12
57.937,-41.07
57.953,-36.0
57.968,-28.56
57.984,-19.88
58.000,-10.99
58.015,-2.6
58.031,5.18
58.046,12.22
58.062,18.59
58.078,24.01
58.093,28.01
58.109,30.19
58.125,30.35
58.140,28.72
58.156,25.89
58.171,22.65
58.187,19.73
58.203,17.21
58.218,14.89
58.234,12.26
58.250,8.95
58.265,4.96
58.281,0.75
58.296,-2.94
58.312,-5.5
58.328,-6.74
58.343,-7.2
58.359,-7.73
58.375,-9.12
58.390,-11.62
58.406,-14.88
58.421,-18.32
58.437,-21.28
58.453,-23.53
58.468,-25.42
58.484,-27.53
58.500,-30.37
58.515,-34.1
58.531,-38.21
58.546,-42.24
58.562,-45.74
58.578,-48.62
58.593,-51.2
58.609,-53.82
58.625,-56.6
58.640,-59.0
58.656,-60.05
58.671,-58.68
58.687,-54.18
58.703,-46.65
58.718,-36.88
58.734,-26.1
58.750,-15.37
58.765,-5.36
58.781,3.89
58.796,12.51
58.812,20.45
58.828,27.37
58.843,32.58
58.859,35.5
58.875,35.88
58.890,34.15
58.906,31.22
58.921,28.24
58.937,25.99
58.953,24.9
58.968,24.71
58.984,24.94
59.000,25.14
59.015,25.1
59.031,25.11
59.046,25.48
59.062,26.46
59.078,27.78
59.093,28.8
59.109,28.74
59.125,26.98
59.140,23.55
59.156,18.92
59.171,13.98
59.187,9.51
59.203,5.84
59.218,2.76
59.234,-0.23
59.250,-3.54
59.265,-7.32
59.281,-11.08
59.296,-14.28
59.312,-16.57
59.328,-17.83
59.343,-18.34
59.359,-18.46
59.375,-18.28
59.390,-17.5
59.406,-15.58
59.421,-11.89
59.437,-6.22
59.453,1.02
59.468,9.02
59.484,16.72
59.500,23.26
59.515,28.33
59.531,32.19
59.546,35.25
59.562,37.85
59.578,40.03
59.593,41.33
59.609,41.4
59.625,39.94
59.640,37.24
59.656,34.1
59.671,31.41
59.687,29.78
59.703,29.2
59.718,29.19
59.734,28.9
59.750,27.91
59.765,25.93
59.781,23.42
59.796,21.05
59.812,19.1
59.828,17.37
59.843,15.27
59.859,12.06
59.875,7.23
59.890,1.11
59.906,-5.62
59.921,-12.03
59.937,-17.34
59.953,-21.38
59.968,-24.69
59.984,-27.84
