timestamp,value
00.000,13.28
00.015,19.87
00.031,24.1
00.046,28.87
00.062,35.53
00.078,43.38
00.093,50.59
00.109,55.38
00.125,56.98
00.140,55.73
00.156,52.65
00.171,48.56
00.187,44.07
00.203,39.78
00.218,36.35
00.234,34.54
00.250,34.64
00.265,36.17
00.281,37.77
00.296,37.96
00.312,35.74
00.328,31.19
00.343,25.39
00.359,19.8
00.375,15.56
00.390,13.05
00.406,11.95
00.421,11.59
00.437,11.4
00.453,10.88
00.468,9.59
00.484,7.05
00.500,2.88
00.515,-2.98
00.531,-9.86
00.546,-16.36
00.562,-20.96
00.578,-22.65
00.593,-21.77
00.609,-20.17
00.625,-20.67
00.640,-25.79
00.656,-36.61
00.671,-51.99
00.687,-68.81
00.703,-82.85
00.718,-90.23
00.734,-88.75
00.750,-78.52
00.765,-61.92
00.781,-42.61
00.796,-24.37
00.812,-9.83
00.828,0.09
00.843,6.13
00.859,10.19
00.875,14.23
00.890,19.45
00.906,25.87
00.921,32.54
00.937,38.12
00.953,41.35
00.968,41.66
00.984,39.11
01.000,34.57
01.015,29.3
01.031,24.62
01.046,21.67
01.062,20.84
01.078,22.02
01.093,24.39
01.109,26.9
01.125,28.48
01.140,28.6
01.156,27.13
01.171,24.47
01.187,21.28
01.203,18.05
01.218,15.25
01.234,12.92
01.250,10.93
01.265,8.75
01.281,5.85
01.296,1.79
01.312,-3.4
01.328,-9.07
01.343,-14.23
01.359,-17.96
01.375,-19.97
01.390,-20.91
01.406,-22.18
01.421,-25.4
01.437,-31.57
01.453,-40.72
01.468,-51.52
01.484,-61.81
01.500,-69.06
01.515,-71.05
01.531,-66.55
01.546,-55.66
01.562,-40.11
01.578,-22.63
01.593,-6.29
01.609,6.86
01.625,16.16
01.640,22.72
01.656,28.35
01.671,34.51
01.687,41.45
01.703,48.07
01.718,52.66
01.734,53.81
01.750,51.34
01.765,46.06
01.781,39.64
01.796,33.63
01.812,28.96
01.828,25.77
01.843,23.58
01.859,21.71
01.875,19.57
01.890,16.9
01.906,13.64
01.921,9.91
01.937,5.98
01.953,2.03
01.968,-1.68
01.984,-5.01
02.000,-7.92
02.015,-10.67
02.031,-13.78
02.046,-17.8
02.062,-23.06
02.078,-29.21
02.093,-35.52
02.109,-41.08
02.125,-45.49
02.140,-49.12
02.156,-53.02
02.171,-58.53
02.187,-66.66
02.203,-77.64
02.218,-90.74
02.234,-104.43
02.250,-116.37
02.265,-124.16
02.281,-126.05
02.296,-121.57
02.312,-112.01
02.328,-100.18
02.343,-89.45
02.359,-82.4
02.375,-80.03
02.390,-81.26
02.406,-83.94
02.421,-86.05
02.437,-86.9
02.453,-87.42
02.468,-89.7
02.484,-95.89
02.500,-107.21
02.515,-123.51
02.531,-143.53
02.546,-165.24
02.562,-186.53
02.578,-205.65
02.593,-221.25
02.609,-232.52
02.625,-239.25
02.640,-241.99
02.656,-241.97
02.671,-240.93
02.687,-240.24
02.703,-240.22
02.718,-239.56
02.734,-235.72
02.750,-225.7
02.765,-207.44
02.781,-180.69
02.796,-147.09
02.812,-109.38
02.828,-70.2
02.843,-31.3
02.859,6.83
02.875,44.31
02.890,81.36
02.906,117.68
02.921,152.76
02.937,186.07
02.953,217.71
02.968,248.52
02.984,279.79
03.000,313.08
03.015,349.79
03.031,390.63
03.046,435.09
03.062,480.97
03.078,524.19
03.093,559.5
03.109,581.74
03.125,587.66
03.140,577.21
03.156,553.72
03.171,522.6
03.187,489.42
03.203,458.15
03.218,430.04
03.234,404.15
03.250,378.23
03.265,350.07
03.281,318.34
03.296,282.68
03.312,243.75
03.328,203.0
03.343,162.35
03.359,123.76
03.375,88.75
03.390,57.99
03.406,31.07
03.421,6.96
03.437,-15.7
03.453,-37.95
03.468,-60.11
03.484,-81.73
03.500,-101.96
03.515,-119.92
03.531,-134.98
03.546,-146.88
03.562,-155.71
03.578,-161.81
03.593,-165.51
03.609,-166.92
03.625,-166.01
03.640,-162.78
03.656,-157.6
03.671,-151.49
03.687,-145.99
03.703,-142.88
03.718,-143.67
03.734,-148.94
03.750,-158.08
03.765,-169.18
03.781,-179.34
03.796,-185.15
03.812,-183.8
03.828,-174.04
03.843,-156.75
03.859,-134.9
03.875,-112.37
03.890,-92.66
03.906,-77.63
03.921,-67.1
03.937,-59.33
03.953,-52.33
03.968,-44.93
03.984,-37.08
04.000,-29.41
04.015,-22.49
04.031,-16.34
04.046,-10.54
04.062,-4.75
04.078,1.05
04.093,6.47
04.109,11.19
04.125,15.35
04.140,19.58
04.156,24.57
04.171,30.61
04.187,37.21
04.203,43.33
04.218,47.73
04.234,49.55
04.250,48.78
04.265,46.26
04.281,43.2
04.296,40.85
04.312,39.94
04.328,40.36
04.343,41.29
04.359,41.56
04.375,40.28
04.390,37.11
04.406,32.69
04.421,27.89
04.437,23.48
04.453,19.68
04.468,16.07
04.484,11.67
04.500,5.53
04.515,-3.0
04.531,-13.92
04.546,-26.2
04.562,-37.94
04.578,-46.47
04.593,-49.3
04.609,-44.92
04.625,-33.74
04.640,-17.96
04.656,-1.08
04.671,13.57
04.687,24.04
04.703,29.93
04.718,32.33
04.734,32.44
04.750,31.11
04.765,28.49
04.781,24.52
04.796,19.43
04.812,13.93
04.828,8.86
04.843,4.57
04.859,0.86
04.875,-2.97
04.890,-7.26
04.906,-11.4
04.921,-14.19
04.937,-14.5
04.953,-12.27
04.968,-8.85
04.984,-6.35
05.000,-6.48
05.015,-9.64
05.031,-14.71
05.046,-19.61
05.062,-22.69
05.078,-23.26
05.093,-21.84
05.109,-19.63
05.125,-17.78
05.140,-16.82
05.156,-16.89
05.171,-17.95
05.187,-19.8
05.203,-22.41
05.218,-25.35
05.234,-27.86
05.250,-29.0
05.265,-28.28
05.281,-26.14
05.296,-24.09
05.312,-24.24
05.328,-28.25
05.343,-36.79
05.359,-48.62
05.375,-61.01
05.390,-70.56
05.406,-74.24
05.421,-70.59
05.437,-60.2
05.453,-45.38
05.468,-29.31
05.484,-15.01
05.500,-4.08
05.515,3.45
05.531,8.69
05.546,13.22
05.562,18.06
05.578,23.19
05.593,27.94
05.609,31.34
05.625,32.63
05.640,31.74
05.656,29.13
05.671,25.44
05.687,21.73
05.703,18.97
05.718,18.0
05.734,19.12
05.750,21.95
05.765,25.17
05.781,27.26
05.796,26.81
05.812,23.18
05.828,17.0
05.843,9.72
05.859,3.08
05.875,-1.53
05.890,-3.43
05.906,-3.04
05.921,-1.26
05.937,0.66
05.953,1.55
05.968,0.82
05.984,-1.69
06.000,-5.66
06.015,-10.33
06.031,-14.87
06.046,-18.55
06.062,-20.96
06.078,-22.2
06.093,-22.91
06.109,-23.95
06.125,-26.33
06.140,-30.74
06.156,-37.15
06.171,-44.81
06.187,-52.06
06.203,-56.73
06.218,-56.75
06.234,-51.11
06.250,-40.32
06.265,-26.63
06.281,-13.02
06.296,-2.15
06.312,4.79
06.328,8.43
06.343,10.76
06.359,13.92
06.375,19.03
06.390,25.57
06.406,31.82
06.421,35.85
06.437,36.47
06.453,33.73
06.468,28.85
06.484,23.48
06.500,19.07
06.515,16.33
06.531,15.23
06.546,15.18
06.562,15.46
06.578,15.56
06.593,15.13
06.609,14.13
06.625,12.39
06.640,10.02
06.656,7.17
06.671,4.24
06.687,1.75
06.703,0.14
06.718,-0.51
06.734,-0.67
06.750,-1.03
06.765,-2.44
06.781,-5.19
06.796,-8.99
06.812,-13.02
06.828,-16.4
06.843,-18.58
06.859,-19.74
06.875,-20.72
06.890,-22.61
06.906,-26.58
06.921,-33.15
06.937,-42.18
06.953,-52.7
06.968,-62.91
06.984,-70.52
07.000,-73.34
07.015,-70.21
07.031,-61.4
07.046,-49.02
07.062,-36.08
07.078,-25.47
07.093,-18.86
07.109,-15.94
07.125,-15.14
07.140,-14.24
07.156,-11.76
07.171,-7.33
07.187,-1.76
07.203,3.64
07.218,7.74
07.234,9.77
07.250,9.61
07.265,7.56
07.281,4.23
07.296,0.55
07.312,-2.39
07.328,-3.53
07.343,-2.2
07.359,1.86
07.375,8.2
07.390,15.97
07.406,24.08
07.421,31.32
07.437,36.9
07.453,40.56
07.468,42.73
07.484,44.29
07.500,46.39
07.515,49.48
07.531,53.22
07.546,56.4
07.562,57.44
07.578,55.22
07.593,49.58
07.609,41.63
07.625,33.18
07.640,26.19
07.656,21.71
07.671,19.59
07.687,18.45
07.703,16.29
07.718,11.33
07.734,2.48
07.750,-10.15
07.765,-25.1
07.781,-39.91
07.796,-51.59
07.812,-57.59
07.828,-56.73
07.843,-49.72
07.859,-38.96
07.875,-27.61
07.890,-18.57
07.906,-12.99
07.921,-10.45
07.937,-9.3
07.953,-7.78
07.968,-5.01
07.984,-1.27
08.000,2.48
08.015,5.46
08.031,7.2
08.046,7.85
08.062,7.56
08.078,6.42
08.093,4.38
08.109,1.72
08.125,-0.84
08.140,-2.34
08.156,-1.96
08.171,0.39
08.187,3.98
08.203,7.45
08.218,9.44
08.234,9.3
08.250,7.12
08.265,3.83
08.281,0.45
08.296,-2.09
08.312,-3.33
08.328,-3.13
08.343,-1.86
08.359,-0.27
08.375,0.77
08.390,0.22
08.406,-2.33
08.421,-6.75
08.437,-12.14
08.453,-17.17
08.468,-20.39
08.484,-20.86
08.500,-18.77
08.515,-15.12
08.531,-12.01
08.546,-11.56
08.562,-15.38
08.578,-23.91
08.593,-36.05
08.609,-49.25
08.625,-60.09
08.640,-65.45
08.656,-63.39
08.671,-54.2
08.687,-40.17
08.703,-24.9
08.718,-11.83
08.734,-2.94
08.750,1.88
08.765,4.29
08.781,6.29
08.796,9.22
08.812,12.95
08.828,16.61
08.843,19.26
08.859,20.62
08.875,21.12
08.890,21.57
08.906,22.18
08.921,22.8
08.937,23.06
08.953,22.86
08.968,22.68
08.984,23.3
09.000,25.11
09.015,27.8
09.031,30.41
09.046,31.66
09.062,30.88
09.078,28.2
09.093,24.55
09.109,21.11
09.125,18.88
09.140,18.23
09.156,18.99
09.171,20.55
09.187,22.18
09.203,23.16
09.218,22.86
09.234,20.82
09.250,17.08
09.265,12.23
09.281,7.36
09.296,3.84
09.312,2.71
09.328,4.17
09.343,7.37
09.359,10.44
09.375,10.87
09.390,6.52
09.406,-3.73
09.421,-19.28
09.437,-37.7
09.453,-55.18
09.468,-67.69
09.484,-72.11
09.500,-67.45
09.515,-55.36
09.531,-39.48
09.546,-24.07
09.562,-12.43
09.578,-5.75
09.593,-3.05
09.609,-2.18
09.625,-1.05
09.640,1.27
09.656,4.38
09.671,7.24
09.687,9.06
09.703,9.82
09.718,10.12
09.734,10.51
09.750,11.03
09.765,11.44
09.781,11.51
09.796,11.41
09.812,11.8
09.828,13.43
09.843,16.48
09.859,20.28
09.875,23.69
09.890,25.48
09.906,25.08
09.921,22.7
09.937,19.2
09.953,15.48
09.968,12.21
09.984,9.62
10.000,7.67
10.015,6.27
10.031,5.19
10.046,4.08
10.062,2.51
10.078,0.05
10.093,-3.5
10.109,-7.86
10.125,-12.34
10.140,-15.92
10.156,-17.86
10.171,-18.01
10.187,-17.33
10.203,-17.37
10.218,-19.79
10.234,-25.55
10.250,-34.39
10.265,-44.75
10.281,-54.12
10.296,-59.87
10.312,-60.14
10.328,-54.26
10.343,-42.96
10.359,-28.29
10.375,-12.82
10.390,0.98
10.406,11.34
10.421,17.75
10.437,20.98
10.453,22.46
10.468,23.77
10.484,25.91
10.500,28.79
10.515,31.51
10.531,33.04
10.546,32.5
10.562,29.79
10.578,25.43
10.593,20.14
10.609,14.62
10.625,9.3
10.640,4.34
10.656,0.02
10.671,-3.08
10.687,-4.35
10.703,-3.54
10.718,-1.01
10.734,2.17
10.750,4.68
10.765,5.65
10.781,4.88
10.796,3.07
10.812,1.18
10.828,-0.17
10.843,-0.91
10.859,-1.62
10.875,-3.07
10.890,-5.68
10.906,-9.31
10.921,-13.26
10.937,-16.57
10.953,-18.64
10.968,-19.57
10.984,-19.89
11.000,-20.78
11.015,-23.2
11.031,-27.65
11.046,-34.01
11.062,-41.5
11.078,-48.76
11.093,-54.25
11.109,-56.54
11.125,-54.31
11.140,-47.28
11.156,-36.15
11.171,-22.77
11.187,-9.61
11.203,1.1
11.218,8.43
11.234,12.95
11.250,16.12
11.265,19.75
11.281,24.64
11.296,30.29
11.312,35.22
11.328,37.75
11.343,36.94
11.359,33.15
11.375,27.78
11.390,22.35
11.406,18.12
11.421,15.67
11.437,14.79
11.453,15.02
11.468,15.58
11.484,16.09
11.500,16.18
11.515,15.66
11.531,14.45
11.546,12.57
11.562,10.06
11.578,7.23
11.593,4.52
11.609,2.13
11.625,0.24
11.640,-1.43
11.656,-3.4
11.671,-6.1
11.687,-9.61
11.703,-13.6
11.718,-17.39
11.734,-20.1
11.750,-21.41
11.765,-21.68
11.781,-21.95
11.796,-23.79
11.812,-28.47
11.828,-36.48
11.843,-47.18
11.859,-58.97
11.875,-69.09
11.890,-74.65
11.906,-73.38
11.921,-64.41
11.937,-49.06
11.953,-30.39
11.968,-12.22
11.984,2.27
12.000,11.62
12.015,16.66
12.031,19.46
12.046,22.34
12.062,26.48
12.078,31.6
12.093,36.38
12.109,39.41
12.125,39.96
12.140,38.12
12.156,34.71
12.171,30.56
12.187,26.47
12.203,23.14
12.218,21.07
12.234,20.62
12.250,21.83
12.265,24.12
12.281,26.39
12.296,27.39
12.312,26.05
12.328,21.98
12.343,15.85
12.359,8.98
12.375,3.0
12.390,-0.76
12.406,-1.83
12.421,-0.85
12.437,0.83
12.453,1.5
12.468,-0.06
12.484,-3.97
12.500,-9.37
12.515,-14.69
12.531,-18.51
12.546,-20.22
12.562,-20.46
12.578,-20.7
12.593,-22.72
12.609,-27.9
12.625,-36.33
12.640,-46.9
12.656,-57.33
12.671,-64.86
12.687,-67.09
12.703,-62.8
12.718,-52.44
12.734,-38.11
12.750,-22.76
12.765,-8.99
12.781,1.64
12.796,8.96
12.812,13.98
12.828,18.0
12.843,21.93
12.859,25.98
12.875,29.88
12.890,33.11
12.906,35.52
12.921,37.07
12.937,37.63
12.953,37.09
12.968,35.25
12.984,32.44
13.000,29.5
13.015,27.71
13.031,27.81
13.046,29.86
13.062,32.82
13.078,35.02
13.093,35.11
13.109,32.52
13.125,27.97
13.140,22.88
13.156,18.85
13.171,16.77
13.187,16.61
13.203,17.35
13.218,17.65
13.234,16.43
13.250,13.08
13.265,8.06
13.281,2.47
13.296,-2.28
13.312,-5.09
13.328,-5.53
13.343,-4.25
13.359,-2.71
13.375,-2.64
13.390,-5.65
13.406,-12.54
13.421,-23.04
13.437,-35.72
13.453,-48.07
13.468,-57.15
13.484,-60.34
13.500,-56.29
13.515,-45.55
13.531,-30.68
13.546,-15.15
13.562,-1.96
13.578,7.54
13.593,14.05
13.609,19.46
13.625,25.47
13.640,32.53
13.656,39.62
13.671,44.76
13.687,46.34
13.703,43.97
13.718,38.58
13.734,32.08
13.750,26.26
13.765,22.39
13.781,21.02
13.796,22.03
13.812,24.78
13.828,28.39
13.843,31.83
13.859,34.18
13.875,34.81
13.890,33.57
13.906,30.78
13.921,27.06
13.937,23.2
13.953,19.74
13.968,17.07
13.984,15.22
14.000,14.09
14.015,13.31
14.031,12.25
14.046,10.22
14.062,6.6
14.078,1.34
14.093,-5.0
14.109,-11.26
14.125,-16.19
14.140,-19.09
14.156,-20.1
14.171,-20.35
14.187,-21.58
14.203,-25.38
14.218,-32.52
14.234,-42.43
14.250,-53.15
14.265,-61.92
14.281,-65.97
14.296,-63.49
14.312,-54.29
14.328,-40.06
14.343,-23.75
14.359,-8.52
14.375,3.31
14.390,11.08
14.406,15.6
14.421,18.45
14.437,21.22
14.453,24.67
14.468,28.48
14.484,31.73
14.500,33.44
14.515,33.04
14.531,30.56
14.546,26.65
14.562,22.14
14.578,18.11
14.593,15.49
14.609,14.84
14.625,16.14
14.640,18.72
14.656,21.43
14.671,23.28
14.687,23.67
14.703,22.55
14.718,20.43
14.734,17.95
14.750,15.61
14.765,13.71
14.781,12.23
14.796,10.83
14.812,9.1
14.828,6.62
14.843,3.02
14.859,-1.54
14.875,-6.51
14.890,-11.11
14.906,-14.6
14.921,-16.89
14.937,-18.58
14.953,-20.83
14.968,-24.64
14.984,-30.51
15.000,-38.1
15.015,-46.33
15.031,-53.62
15.046,-58.25
15.062,-58.71
15.078,-54.03
15.093,-44.32
15.109,-30.9
15.125,-16.1
15.140,-2.38
15.156,8.34
15.171,15.62
15.187,20.5
15.203,24.72
15.218,29.69
15.234,35.55
15.250,41.11
15.265,44.49
15.281,44.4
15.296,40.72
15.312,34.62
15.328,27.93
15.343,22.21
15.359,18.18
15.375,15.77
15.390,14.31
15.406,13.09
15.421,11.71
15.437,10.18
15.453,8.62
15.468,7.24
15.484,6.19
15.500,5.51
15.515,5.2
15.531,5.19
15.546,5.24
15.562,4.93
15.578,3.89
15.593,1.95
15.609,-0.84
15.625,-4.1
15.640,-7.2
15.656,-9.71
15.671,-11.43
15.687,-12.74
15.703,-14.43
15.718,-17.43
15.734,-22.39
15.750,-29.52
15.765,-38.36
15.781,-47.65
15.796,-55.63
15.812,-60.15
15.828,-59.45
15.843,-52.99
15.859,-41.72
15.875,-28.09
15.890,-15.1
15.906,-5.26
15.921,0.62
15.937,3.39
15.953,5.0
15.968,7.51
15.984,11.77
16.000,17.31
16.015,22.6
16.031,25.94
16.046,26.25
16.062,23.56
16.078,18.75
16.093,13.27
16.109,8.45
16.125,5.15
16.140,3.74
16.156,3.92
16.171,5.02
16.187,6.27
16.203,7.0
16.218,6.66
16.234,5.1
16.250,2.46
16.265,-0.81
16.281,-4.01
16.296,-6.54
16.312,-8.14
16.328,-8.85
16.343,-9.14
16.359,-9.63
16.375,-10.75
16.390,-12.38
16.406,-14.16
16.421,-15.38
16.437,-15.57
16.453,-14.99
16.468,-14.39
16.484,-14.97
16.500,-17.84
16.515,-23.53
16.531,-31.55
16.546,-40.6
16.562,-48.49
16.578,-52.93
16.593,-52.04
16.609,-45.12
16.625,-33.12
16.640,-18.36
16.656,-3.86
16.671,7.84
16.687,15.45
16.703,19.54
16.718,21.62
16.734,23.41
16.750,25.76
16.765,28.44
16.781,30.7
16.796,31.88
16.812,31.97
16.828,31.27
16.843,30.18
16.859,28.75
16.875,26.82
16.890,24.52
16.906,22.32
16.921,21.04
16.937,21.26
16.953,23.0
16.968,25.34
16.984,26.89
17.000,26.61
17.015,24.25
17.031,20.58
17.046,16.77
17.062,14.05
17.078,12.84
17.093,12.91
17.109,13.4
17.125,13.14
17.140,11.31
17.156,7.7
17.171,2.98
17.187,-1.7
17.203,-4.97
17.218,-6.09
17.234,-5.04
17.250,-2.76
17.265,-0.84
17.281,-0.96
17.296,-4.5
17.312,-11.97
17.328,-22.88
17.343,-35.5
17.359,-47.13
17.375,-54.73
17.390,-55.82
17.406,-49.63
17.421,-37.41
17.437,-22.39
17.453,-8.37
17.468,1.95
17.484,7.82
17.500,10.51
17.515,12.3
17.531,14.95
17.546,18.79
17.562,23.03
17.578,26.32
17.593,27.77
17.609,27.39
17.625,25.77
17.640,23.43
17.656,20.73
17.671,17.8
17.687,15.01
17.703,13.06
17.718,12.69
17.734,14.15
17.750,16.85
17.765,19.44
17.781,20.55
17.796,19.46
17.812,16.4
17.828,12.41
17.843,8.61
17.859,5.8
17.875,4.16
17.890,3.36
17.906,2.72
17.921,1.64
17.937,-0.27
17.953,-3.25
17.968,-7.05
17.984,-11.11
18.000,-14.77
18.015,-17.34
18.031,-18.56
18.046,-18.88
18.062,-19.29
18.078,-21.01
18.093,-24.96
18.109,-31.22
18.125,-38.93
18.140,-46.54
18.156,-52.0
18.171,-53.49
18.187,-49.96
18.203,-41.57
18.218,-29.72
18.234,-16.72
18.250,-4.86
18.265,4.19
18.281,9.92
18.296,13.12
18.312,15.21
18.328,17.55
18.343,20.79
18.359,24.66
18.375,28.1
18.390,30.01
18.406,29.59
18.421,26.68
18.437,22.04
18.453,16.86
18.468,12.45
18.484,9.92
18.500,9.57
18.515,10.93
18.531,13.03
18.546,14.77
18.562,15.38
18.578,14.82
18.593,13.4
18.609,11.58
18.625,9.79
18.640,8.17
18.656,6.77
18.671,5.52
18.687,4.19
18.703,2.48
18.718,0.1
18.734,-3.16
18.750,-7.12
18.765,-11.3
18.781,-15.01
18.796,-17.82
18.812,-19.72
18.828,-21.21
18.843,-23.19
18.859,-26.39
18.875,-31.29
18.890,-37.87
18.906,-45.55
18.921,-53.12
18.937,-58.95
18.953,-61.03
18.968,-57.95
18.984,-49.51
19.000,-37.09
19.015,-23.26
19.031,-10.75
19.046,-1.23
19.062,5.37
19.078,10.38
19.093,15.72
19.109,22.28
19.125,29.71
19.140,36.33
19.156,40.36
19.171,40.87
19.187,38.13
19.203,33.57
19.218,28.81
19.234,25.1
19.250,22.81
19.265,21.71
19.281,21.23
19.296,20.87
19.312,20.4
19.328,19.76
19.343,18.9
19.359,17.59
19.375,15.7
19.390,13.13
19.406,10.17
19.421,7.32
19.437,4.98
19.453,3.22
19.468,1.67
19.484,-0.17
19.500,-2.77
19.515,-6.01
19.531,-9.37
19.546,-12.16
19.562,-13.9
19.578,-14.87
19.593,-15.8
19.609,-17.82
19.625,-21.82
19.640,-28.21
19.656,-36.66
19.671,-46.03
19.687,-54.69
19.703,-60.65
19.718,-62.26
19.734,-58.65
19.750,-50.37
19.765,-39.32
19.781,-28.15
19.796,-19.22
19.812,-13.57
19.828,-10.54
19.843,-8.24
19.859,-4.74
19.875,0.9
19.890,8.06
19.906,15.03
19.921,19.92
19.937,21.68
19.953,20.4
19.968,17.13
19.984,13.35
20.000,10.27
20.015,8.6
20.031,8.57
20.046,10.01
20.062,12.59
20.078,15.81
20.093,19.02
20.109,21.53
20.125,22.75
20.140,22.28
20.156,20.23
20.171,17.11
20.187,13.85
20.203,11.54
20.218,10.83
20.234,11.61
20.250,13.06
20.265,13.95
20.281,13.1
20.296,10.07
20.312,5.23
20.328,-0.23
20.343,-4.68
20.359,-6.83
20.375,-6.4
20.390,-4.16
20.406,-1.94
20.421,-2.0
20.437,-6.17
20.453,-15.2
20.468,-28.25
20.484,-42.93
20.500,-55.66
20.515,-62.94
20.531,-62.4
20.546,-53.85
20.562,-39.53
20.578,-23.27
20.593,-8.92
20.609,1.05
20.625,6.32
20.640,8.45
20.656,9.58
20.671,11.26
20.687,13.83
20.703,16.73
20.718,19.24
20.734,21.08
20.750,22.41
20.765,23.35
20.781,23.7
20.796,23.05
20.812,21.23
20.828,18.78
20.843,16.78
20.859,16.35
20.875,17.91
20.890,20.88
20.906,23.91
20.921,25.65
20.937,25.37
20.953,23.17
20.968,19.85
20.984,16.29
21.000,13.18
21.015,10.98
21.031,9.79
21.046,9.46
21.062,9.58
21.078,9.41
21.093,8.1
21.109,5.02
21.125,0.12
21.140,-5.87
21.156,-11.6
21.171,-15.67
21.187,-17.07
21.203,-15.89
21.218,-13.27
21.234,-11.29
21.250,-12.29
21.265,-17.94
21.281,-28.75
21.296,-43.26
21.312,-58.36
21.328,-69.97
21.343,-74.5
21.359,-70.22
21.375,-58.15
21.390,-41.74
21.406,-25.35
21.421,-12.58
21.437,-4.84
21.453,-1.03
21.468,1.42
21.484,4.91
21.500,10.43
21.515,17.3
21.531,23.83
21.546,28.55
21.562,30.86
21.578,31.04
21.593,29.79
21.609,27.63
21.625,24.99
21.640,22.33
21.656,20.57
21.671,20.65
21.687,23.15
21.703,27.64
21.718,32.73
21.734,36.73
21.750,38.26
21.765,37.19
21.781,34.39
21.796,31.23
21.812,28.83
21.828,27.77
21.843,27.8
21.859,28.32
21.875,28.59
21.890,27.91
21.906,25.8
21.921,22.18
21.937,17.39
21.953,12.33
21.968,8.23
21.984,6.18
22.000,6.44
22.015,8.2
22.031,9.69
22.046,8.45
22.062,2.44
22.078,-9.23
22.093,-25.65
22.109,-44.04
22.125,-60.33
22.140,-70.5
22.156,-71.88
22.171,-64.21
22.187,-49.92
22.203,-33.28
22.218,-18.5
22.234,-8.22
22.250,-2.63
22.281,2.08
22.296,5.3
22.312,9.94
22.328,15.16
22.343,19.77
22.359,23.09
22.375,25.03
22.390,25.95
22.406,26.08
22.421,25.49
22.437,24.42
22.453,23.36
22.468,22.92
22.484,23.6
22.500,25.31
22.515,27.23
22.531,28.43
22.546,28.07
22.562,25.88
22.578,22.26
22.593,17.89
22.609,13.31
22.625,8.96
22.640,5.09
22.656,1.68
22.671,-1.22
22.687,-3.66
22.703,-5.79
22.718,-7.77
22.734,-9.55
22.750,-11.04
22.765,-12.12
22.781,-12.99
22.796,-14.18
22.812,-16.46
22.828,-20.46
22.843,-26.26
22.859,-33.23
22.875,-40.19
22.890,-45.74
22.906,-48.27
22.921,-46.81
22.937,-40.85
22.953,-30.84
22.968,-18.29
22.984,-5.35
23.000,5.9
23.015,14.15
23.031,19.3
23.046,22.63
23.062,25.56
23.078,29.24
23.093,33.56
23.109,37.44
23.125,39.39
23.140,38.58
23.156,35.05
23.171,29.88
23.187,24.65
23.203,20.55
23.218,18.22
23.234,17.42
23.250,17.53
23.265,17.61
23.281,17.0
23.296,15.31
23.312,12.63
23.328,9.23
23.343,5.57
23.359,2.17
23.375,-0.65
23.390,-2.77
23.406,-4.41
23.421,-6.02
23.437,-8.08
23.453,-10.77
23.468,-14.01
23.484,-17.34
23.500,-20.15
23.515,-22.0
23.531,-23.03
23.546,-23.89
23.562,-25.61
23.578,-29.02
23.593,-34.43
23.609,-41.42
23.625,-49.04
23.640,-55.85
23.656,-60.24
23.671,-60.79
23.687,-56.56
23.703,-47.61
23.718,-35.09
23.734,-21.21
23.750,-8.39
23.765,1.52
23.781,8.1
23.796,12.38
23.812,16.14
23.828,20.83
23.843,26.82
23.859,33.19
23.875,38.34
23.890,41.04
23.906,40.87
23.921,38.57
23.937,35.37
23.953,32.43
23.968,30.31
23.984,29.01
24.000,28.11
24.015,27.16
24.031,25.86
24.046,24.06
24.062,21.69
24.078,18.72
24.093,15.17
24.109,11.29
24.125,7.53
24.140,4.35
24.156,2.04
24.171,0.44
24.187,-0.93
24.203,-2.68
24.218,-5.14
24.234,-8.16
24.250,-11.16
24.265,-13.55
24.281,-15.18
24.296,-16.51
24.312,-18.57
24.328,-22.4
24.343,-28.54
24.359,-36.75
24.375,-45.93
24.390,-54.22
24.406,-59.64
24.421,-60.43
24.437,-55.67
24.453,-45.69
24.468,-32.25
24.484,-18.05
24.500,-5.78
24.515,2.86
24.531,7.94
24.546,11.02
24.562,14.31
24.578,19.45
24.593,26.56
24.609,34.32
24.625,40.65
24.640,43.73
24.656,42.91
24.671,38.78
24.687,32.75
24.703,26.42
24.718,21.16
24.734,17.7
24.750,16.17
24.765,16.14
24.781,16.85
24.796,17.36
24.812,16.93
24.828,15.08
24.843,11.83
24.859,7.63
24.875,3.02
24.890,-1.21
24.906,-4.66
24.921,-7.25
24.937,-9.27
24.953,-11.24
24.968,-13.71
24.984,-16.95
25.000,-20.73
25.015,-24.56
25.031,-27.74
25.046,-29.87
25.062,-31.22
25.078,-32.56
25.093,-35.18
25.109,-40.28
25.125,-48.32
25.140,-58.79
25.156,-69.86
25.171,-78.82
25.187,-82.73
25.203,-79.62
25.218,-69.1
25.234,-52.98
25.250,-34.57
25.265,-17.45
25.281,-4.2
25.296,4.49
25.312,9.71
25.328,13.57
25.343,17.74
25.359,22.97
25.375,28.66
25.390,33.89
25.406,38.0
25.421,40.73
25.437,42.27
25.453,42.65
25.468,41.75
25.484,39.39
25.500,35.93
25.515,32.16
25.531,29.25
25.546,28.25
25.562,29.13
25.578,31.04
25.593,32.51
25.609,32.31
25.625,30.05
25.640,26.37
25.656,22.43
25.671,19.37
25.687,17.76
25.703,17.29
25.718,17.07
25.734,16.02
25.750,13.37
25.765,9.09
25.781,3.85
25.796,-1.3
25.812,-5.33
25.828,-7.55
25.843,-8.21
25.859,-8.06
25.875,-8.58
25.890,-11.38
25.906,-17.64
25.921,-27.63
25.937,-40.21
25.953,-53.02
25.968,-62.67
25.984,-66.19
26.000,-61.82
26.015,-50.17
26.031,-34.18
26.046,-17.89
26.062,-4.97
26.078,2.89
26.093,6.28
26.109,7.32
26.125,8.33
26.140,10.71
26.156,14.42
26.171,18.51
26.187,22.03
26.203,24.35
26.218,25.48
26.234,25.68
26.250,25.1
26.265,23.94
26.281,22.72
26.296,22.29
26.312,23.49
26.328,26.77
26.343,31.41
26.359,35.99
26.375,38.98
26.390,39.56
26.406,38.01
26.421,35.55
26.437,33.54
26.453,32.77
26.468,33.24
26.484,34.16
26.500,34.51
26.515,33.52
26.531,30.85
26.546,26.67
26.562,21.49
26.578,16.0
26.593,10.87
26.609,6.58
26.625,3.07
26.640,-0.34
26.656,-4.86
26.671,-11.94
26.687,-22.49
26.703,-36.54
26.718,-52.55
26.734,-67.79
26.750,-78.77
26.765,-82.57
26.781,-77.8
26.796,-65.48
26.812,-48.74
26.828,-31.55
26.843,-17.28
26.859,-7.35
26.875,-1.22
26.890,2.99
26.906,6.88
26.921,11.2
26.937,15.44
26.953,18.79
26.968,20.78
26.984,21.59
27.000,21.86
27.015,22.0
27.031,22.04
27.046,21.8
27.062,21.32
27.078,21.09
27.093,21.75
27.109,23.55
27.125,25.89
27.140,27.6
27.156,27.53
27.171,25.12
27.187,20.86
27.203,15.74
27.218,10.9
27.234,6.88
27.250,3.8
27.265,1.14
27.281,-1.51
27.296,-4.27
27.312,-7.06
27.328,-9.52
27.343,-11.45
27.359,-12.68
27.375,-13.49
27.390,-14.3
27.406,-15.77
27.421,-18.57
27.437,-23.07
27.453,-29.19
27.468,-36.27
27.484,-43.4
27.500,-49.23
27.515,-52.46
27.531,-52.0
27.546,-47.13
27.562,-37.99
27.578,-25.79
27.593,-12.6
27.609,-0.61
27.625,8.6
27.640,15.0
27.656,19.79
27.671,24.65
27.687,30.65
27.703,37.51
27.718,43.63
27.734,46.99
27.750,46.46
27.765,42.32
27.781,36.1
27.796,29.84
27.812,25.08
27.828,22.31
27.843,21.02
27.859,20.3
27.875,19.27
27.890,17.47
27.906,15.01
27.921,12.12
27.937,9.02
27.953,5.81
27.968,2.69
27.984,-0.29
28.000,-2.95
28.015,-5.23
28.031,-7.5
28.046,-10.14
28.062,-13.58
28.078,-17.84
28.093,-22.46
28.109,-26.58
28.125,-29.64
28.140,-31.68
28.156,-33.34
28.171,-35.62
28.187,-39.21
28.203,-44.2
28.218,-50.09
28.234,-56.0
28.250,-60.79
28.265,-63.25
28.281,-62.14
28.296,-56.58
28.312,-46.56
28.328,-33.21
28.343,-18.79
28.359,-5.77
28.375,4.15
28.390,10.8
28.406,15.5
28.421,20.23
28.437,26.23
28.453,33.39
28.468,40.29
28.484,44.98
28.500,46.07
28.515,43.51
28.531,38.27
28.546,32.1
28.562,26.82
28.578,23.58
28.593,22.7
28.609,23.67
28.625,25.46
28.640,26.85
28.656,27.06
28.671,25.6
28.687,22.61
28.703,18.6
28.718,14.26
28.734,10.09
28.750,6.52
28.765,3.6
28.781,1.22
28.796,-0.9
28.812,-3.17
28.828,-5.82
28.843,-8.92
28.859,-12.11
28.875,-14.97
28.890,-17.13
28.906,-18.83
28.921,-20.71
28.937,-23.86
28.953,-29.26
28.968,-37.4
28.984,-47.77
29.000,-58.96
29.015,-68.63
29.031,-74.12
29.046,-73.49
29.062,-66.11
29.078,-53.43
29.093,-38.43
29.109,-24.64
29.125,-14.5
29.140,-8.66
29.156,-5.69
29.171,-3.23
29.187,0.68
29.203,6.57
29.218,13.41
29.234,19.38
29.250,22.92
29.265,23.52
29.281,21.57
29.296,18.05
29.312,14.04
29.328,10.53
29.343,8.36
29.359,8.25
29.375,10.47
29.390,14.63
29.406,19.65
29.421,24.0
29.437,26.27
29.453,25.77
29.468,22.71
29.484,18.11
29.500,13.33
29.515,9.4
29.531,6.84
29.546,5.47
29.562,4.69
29.578,3.77
29.593,2.17
29.609,-0.3
29.625,-3.33
29.640,-6.26
29.656,-8.46
29.671,-9.62
29.687,-9.99
29.703,-10.44
29.718,-12.15
29.734,-16.3
29.750,-23.45
29.765,-33.22
29.781,-44.11
29.796,-53.77
29.812,-59.47
29.828,-59.09
29.843,-52.01
29.859,-39.47
29.875,-24.46
29.890,-10.4
29.906,0.15
29.921,6.49
29.937,9.81
29.953,12.2
29.968,15.42
29.984,20.05
30.000,25.5
30.015,30.6
30.031,34.48
30.046,36.75
30.062,37.51
30.078,37.03
30.093,35.48
30.109,33.29
30.125,31.12
30.140,29.92
30.156,30.47
30.171,32.86
30.187,36.14
30.203,38.79
30.218,39.52
30.234,37.8
30.250,34.28
30.265,30.32
30.281,27.28
30.296,25.89
30.312,25.92
30.328,26.41
30.343,26.11
30.359,24.3
30.375,20.92
30.390,16.57
30.406,12.47
30.421,9.54
30.437,8.38
30.453,8.75
30.468,9.66
30.484,9.5
30.500,6.61
30.515,-0.37
30.531,-11.83
30.546,-26.93
30.562,-43.59
30.578,-58.68
30.593,-69.02
30.609,-72.27
30.625,-67.94
30.640,-57.61
30.656,-44.44
30.671,-31.76
30.687,-21.99
30.703,-15.82
30.718,-12.17
30.734,-9.39
30.750,-6.06
30.765,-1.76
30.781,3.1
30.796,7.71
30.812,11.5
30.828,14.41
30.843,16.42
30.859,17.61
30.875,17.98
30.890,17.61
30.906,16.99
30.921,16.85
30.937,17.8
30.953,19.83
30.968,22.29
30.984,24.09
31.000,24.33
31.015,22.73
31.031,19.74
31.046,16.23
31.062,12.94
31.078,10.32
31.093,8.41
31.109,6.97
31.125,5.63
31.140,4.06
31.156,2.08
31.171,-0.32
31.187,-2.92
31.203,-5.5
31.218,-7.83
31.234,-9.96
31.250,-12.24
31.265,-15.29
31.281,-19.7
31.296,-25.7
31.312,-33.03
31.328,-40.84
31.343,-47.97
31.359,-52.88
31.375,-54.16
31.390,-50.77
31.406,-42.49
31.421,-30.17
31.437,-15.77
31.453,-1.66
31.468,10.08
31.484,18.55
31.500,24.31
31.515,28.88
31.531,33.62
31.546,38.96
31.562,43.96
31.578,47.04
31.593,46.9
31.609,43.37
31.625,37.52
31.640,31.13
31.656,25.9
31.671,22.64
31.687,21.25
31.703,20.74
31.718,20.12
31.734,18.66
31.750,16.19
31.765,13.11
31.781,9.87
31.796,6.95
31.812,4.61
31.828,2.91
31.843,1.71
31.859,0.86
31.875,0.19
31.890,-0.72
31.906,-2.24
31.921,-4.61
31.937,-7.83
31.953,-11.42
31.968,-14.81
31.984,-17.63
32.000,-20.04
32.015,-22.67
32.031,-26.39
32.046,-31.82
32.062,-39.1
32.078,-47.65
32.093,-56.28
32.109,-63.29
32.125,-66.84
32.140,-65.47
32.156,-58.53
32.171,-46.75
32.187,-32.06
32.203,-17.17
32.218,-4.47
32.234,4.88
32.250,11.41
32.265,16.74
32.281,22.53
32.296,29.47
32.312,36.89
32.328,43.36
32.343,47.38
32.359,48.25
32.375,46.24
32.390,42.46
32.406,38.04
32.421,33.9
32.437,30.48
32.453,27.85
32.468,25.91
32.484,24.48
32.500,23.33
32.515,22.13
32.531,20.81
32.546,19.16
32.562,17.22
32.578,15.2
32.593,13.27
32.609,11.52
32.625,9.87
32.640,8.0
32.656,5.48
32.671,2.14
32.687,-1.88
32.703,-6.1
32.718,-9.83
32.734,-12.76
32.750,-15.12
32.765,-17.7
32.781,-21.5
32.796,-27.26
32.812,-35.21
32.828,-44.89
32.843,-55.16
32.859,-64.32
32.875,-70.4
32.890,-71.48
32.906,-66.4
32.921,-55.44
32.937,-40.53
32.953,-24.78
32.968,-11.28
32.984,-1.76
33.000,3.99
33.015,7.76
33.031,11.92
33.046,17.9
33.062,25.41
33.078,32.82
33.093,38.0
33.109,39.53
33.125,37.29
33.140,32.29
33.156,26.12
33.171,20.32
33.187,16.1
33.203,14.05
33.218,14.16
33.234,15.78
33.250,17.88
33.265,19.19
33.281,18.72
33.296,16.07
33.312,11.56
33.328,5.97
33.343,0.37
33.359,-4.35
33.375,-7.58
33.390,-9.17
33.406,-9.5
33.421,-9.29
33.437,-9.43
33.453,-10.53
33.468,-12.64
33.484,-15.05
33.500,-16.69
33.515,-16.75
33.531,-15.2
33.546,-13.13
33.562,-12.26
33.578,-14.3
33.593,-20.24
33.609,-29.82
33.625,-41.53
33.640,-52.99
33.656,-61.43
33.671,-64.44
33.687,-60.8
33.703,-50.9
33.718,-36.91
33.734,-22.03
33.750,-9.27
33.765,-0.32
33.781,4.95
33.796,8.06
33.812,10.87
33.828,14.41
33.843,18.64
33.859,22.57
33.875,25.15
33.890,25.93
33.906,24.9
33.921,22.54
33.937,19.2
33.953,15.39
33.968,11.8
33.984,9.47
34.000,9.31
34.015,11.56
34.031,15.52
34.046,19.62
34.062,22.32
34.078,22.72
34.093,21.1
34.109,18.46
34.125,16.11
34.140,14.81
34.156,14.52
34.171,14.66
34.187,14.36
34.203,13.07
34.218,10.64
34.234,7.36
34.250,3.84
34.265,0.93
34.281,-0.69
34.296,-0.64
34.312,0.95
34.328,3.09
34.343,4.34
34.359,3.18
34.375,-1.56
34.390,-10.11
34.406,-21.35
34.421,-32.93
34.437,-41.85
34.453,-45.16
34.468,-41.36
34.484,-30.95
34.500,-16.46
34.515,-1.54
34.531,10.39
34.546,17.63
34.562,20.63
34.578,21.11
34.593,21.15
34.609,21.82
34.625,23.13
34.640,24.51
34.656,25.45
34.671,25.91
34.687,26.29
34.703,26.75
34.718,27.19
34.734,27.31
34.750,27.07
34.765,26.94
34.781,27.53
34.796,29.01
34.812,30.75
34.828,31.59
34.843,30.33
34.859,26.65
34.875,21.31
34.890,15.64
34.906,11.05
34.921,8.19
34.937,6.8
34.953,6.11
34.968,5.24
34.984,3.6
35.000,1.05
35.015,-2.17
35.031,-5.64
35.046,-8.87
35.062,-11.38
35.078,-13.06
35.093,-14.11
35.109,-15.22
35.125,-17.31
35.140,-21.16
35.156,-27.2
35.171,-35.19
35.187,-44.21
35.203,-52.7
35.218,-58.79
35.234,-60.63
35.250,-57.1
35.265,-48.29
35.281,-35.67
35.296,-21.75
35.312,-9.18
35.328,0.35
35.343,6.87
35.359,11.73
35.375,16.75
35.390,22.87
35.406,29.72
35.421,35.78
35.437,39.39
35.453,39.63
35.468,36.75
35.484,32.1
35.500,27.45
35.515,24.14
35.531,22.75
35.546,22.98
35.562,23.97
35.578,24.78
35.593,24.71
35.609,23.63
35.625,21.82
35.640,19.87
35.656,18.23
35.671,17.01
35.687,15.96
35.703,14.69
35.718,13.04
35.734,10.99
35.750,8.66
35.765,6.17
35.781,3.43
35.796,0.46
35.812,-2.48
35.828,-5.1
35.843,-7.13
35.859,-8.48
35.875,-9.68
35.890,-11.62
35.906,-15.2
35.921,-20.99
35.937,-28.94
35.953,-38.11
35.968,-46.79
35.984,-52.95
36.000,-54.61
36.015,-50.6
36.031,-41.21
36.046,-28.2
36.062,-14.27
36.078,-2.13
36.093,6.62
36.109,12.26
36.125,16.26
36.140,20.57
36.156,26.28
36.171,33.03
36.187,39.32
36.203,43.35
36.218,44.09
36.234,41.76
36.250,37.6
36.265,33.09
36.281,29.25
36.296,26.4
36.312,24.24
36.328,22.39
36.343,20.56
36.359,18.82
36.375,17.31
36.390,16.1
36.406,14.93
36.421,13.57
36.437,11.86
36.453,9.82
36.468,7.66
36.484,5.5
36.500,3.21
36.515,0.5
36.531,-2.82
36.546,-6.71
36.562,-10.62
36.578,-13.81
36.593,-15.88
36.609,-16.96
36.625,-17.87
36.640,-19.85
36.656,-23.79
36.671,-29.96
36.687,-37.83
36.703,-46.11
36.718,-53.15
36.734,-57.46
36.750,-57.65
36.765,-53.02
36.781,-43.91
36.796,-31.77
36.812,-18.89
36.828,-7.71
36.843,0.19
36.859,4.83
36.875,7.55
36.890,10.44
36.906,15.08
36.921,21.71
36.937,29.18
36.953,35.59
36.968,39.19
36.984,39.15
37.000,35.81
37.015,30.29
37.031,24.18
37.046,18.84
37.062,15.16
37.078,13.41
37.093,13.27
37.109,14.0
37.125,14.68
37.140,14.5
37.156,13.01
37.171,10.15
37.187,6.27
37.203,1.97
37.218,-2.02
37.234,-4.95
37.250,-6.46
37.265,-6.67
37.281,-6.2
37.296,-6.02
37.312,-7.07
37.328,-9.62
37.343,-13.26
37.359,-16.96
37.375,-19.59
37.390,-20.69
37.406,-20.82
37.421,-21.31
37.437,-23.8
37.453,-29.45
37.468,-38.35
37.484,-49.37
37.500,-60.36
37.515,-68.63
37.531,-71.63
37.546,-67.87
37.562,-57.55
37.578,-42.86
37.593,-27.14
37.609,-13.76
37.625,-4.79
37.640,-0.26
37.656,1.59
37.671,3.03
37.687,5.73
37.703,10.03
37.718,15.0
37.734,19.36
37.750,22.23
37.765,23.26
37.781,22.49
37.796,20.19
37.812,16.66
37.828,12.5
37.843,8.81
37.859,6.89
37.875,7.5
37.890,10.57
37.906,14.92
37.921,18.69
37.937,20.38
37.953,19.39
37.968,16.27
37.984,12.32
38.000,8.94
38.015,6.96
38.031,6.46
38.046,6.99
38.062,7.76
38.078,7.97
38.093,6.97
38.109,4.63
38.125,1.26
38.140,-2.3
38.156,-4.83
38.171,-5.41
38.187,-3.9
38.203,-1.17
38.218,1.13
38.234,0.94
38.250,-3.14
38.265,-11.36
38.281,-22.61
38.296,-34.46
38.312,-43.79
38.328,-47.79
38.343,-45.08
38.359,-35.97
38.375,-22.9
38.390,-9.34
38.406,1.55
38.421,8.05
38.437,10.52
38.453,10.77
38.468,11.01
38.484,12.57
38.500,15.54
38.515,19.06
38.531,21.95
38.546,23.6
38.562,23.83
38.578,22.92
38.593,21.25
38.609,19.24
38.625,17.51
38.640,16.86
38.656,18.14
38.671,21.59
38.687,26.58
38.703,31.58
38.718,34.71
38.734,34.7
38.750,31.26
38.765,25.39
38.781,18.7
38.796,12.87
38.812,8.97
38.828,7.32
38.843,7.37
38.859,8.15
38.875,8.57
38.890,7.75
38.906,5.39
38.921,1.92
38.937,-1.75
38.953,-4.68
38.968,-6.29
38.984,-6.9
39.000,-7.54
39.015,-9.52
39.031,-14.11
39.046,-21.82
39.062,-32.29
39.078,-44.17
39.093,-55.26
39.109,-63.03
39.125,-65.33
39.140,-61.3
39.156,-51.69
39.171,-38.89
39.187,-25.84
39.203,-15.02
39.218,-7.54
39.234,-2.92
39.250,0.17
39.265,3.03
39.281,6.29
39.296,9.67
39.312,12.62
39.328,14.73
39.343,15.93
39.359,16.34
39.375,16.04
39.390,14.95
39.406,13.05
39.421,10.92
39.437,9.4
39.453,9.35
39.468,10.98
39.484,13.59
39.500,15.92
39.515,16.89
39.531,16.05
39.546,13.83
39.562,11.13
39.578,8.64
39.593,6.66
39.609,4.9
39.625,3.07
39.640,0.98
39.656,-1.19
39.671,-3.3
39.687,-5.22
39.703,-7.11
39.718,-9.14
39.734,-11.41
39.750,-13.9
39.765,-16.55
39.781,-19.38
39.796,-22.64
39.812,-26.67
39.828,-31.56
39.843,-37.3
39.859,-43.39
39.875,-48.94
39.890,-52.66
39.906,-53.19
39.921,-49.36
39.937,-40.93
39.953,-28.88
39.968,-15.25
39.984,-2.58
40.000,7.19
40.015,13.5
40.031,17.25
40.046,20.23
40.062,23.87
40.078,28.46
40.093,33.07
40.109,36.05
40.125,36.24
40.140,33.49
40.156,28.84
40.171,23.84
40.187,19.84
40.203,17.46
40.218,16.57
40.234,16.63
40.250,16.97
40.265,17.24
40.281,17.24
40.296,16.91
40.312,16.14
40.328,14.91
40.343,13.24
40.359,11.37
40.375,9.57
40.390,8.01
40.406,6.6
40.421,5.08
40.437,3.01
40.453,0.21
40.468,-3.17
40.484,-6.69
40.500,-9.73
40.515,-11.96
40.531,-13.52
40.546,-15.06
40.562,-17.36
40.578,-21.21
40.593,-26.91
40.609,-34.46
40.625,-43.27
40.640,-52.18
40.656,-59.65
40.671,-63.82
40.687,-63.08
40.703,-56.7
40.718,-45.37
40.734,-31.18
40.750,-17.21
40.765,-6.14
40.781,0.91
40.796,4.58
40.812,7.0
40.828,10.45
40.843,16.13
40.859,23.58
40.875,30.97
40.890,36.14
40.906,37.55
40.921,35.19
40.937,30.23
40.953,24.49
40.968,19.51
40.984,16.21
41.000,14.63
41.015,14.28
41.031,14.54
41.046,14.75
41.062,14.48
41.078,13.46
41.093,11.61
41.109,9.0
41.125,5.88
41.140,2.71
41.156,0.01
41.171,-1.85
41.187,-2.79
41.203,-3.27
41.218,-3.93
41.234,-5.35
41.250,-7.58
41.265,-10.32
41.281,-12.86
41.296,-14.57
41.312,-15.37
41.328,-15.68
41.343,-16.47
41.359,-18.93
41.375,-24.12
41.390,-32.36
41.406,-43.06
41.421,-54.6
41.437,-64.36
41.453,-69.52
41.468,-67.98
41.484,-59.26
41.500,-45.03
41.515,-28.71
41.531,-14.09
41.546,-3.84
41.562,1.54
41.578,3.71
41.593,5.24
41.609,8.16
41.625,13.03
41.640,18.87
41.656,24.18
41.671,27.74
41.687,29.2
41.703,28.79
41.718,26.97
41.734,24.02
41.750,20.29
41.765,16.47
41.781,13.47
41.796,12.25
41.812,13.08
41.828,15.26
41.843,17.5
41.859,18.46
41.875,17.5
41.890,14.94
41.906,11.81
41.921,9.2
41.937,7.9
41.953,7.92
41.968,8.78
41.984,9.79
42.000,10.23
42.015,9.63
42.031,7.84
42.046,5.2
42.062,2.32
42.078,0.12
42.093,-0.76
42.109,-0.34
42.125,0.64
42.140,0.63
42.156,-2.1
42.171,-8.82
42.187,-19.64
42.203,-33.32
42.218,-47.11
42.234,-57.59
42.250,-61.75
42.265,-58.04
42.281,-47.24
42.296,-32.17
42.312,-16.79
42.328,-4.41
42.343,3.41
42.359,7.34
42.375,9.5
42.390,12.11
42.406,16.26
42.421,21.72
42.437,27.48
42.453,32.38
42.468,35.89
42.484,37.89
42.500,38.46
42.515,37.7
42.531,35.74
42.546,33.28
42.562,31.45
42.578,31.49
42.593,34.05
42.609,38.62
42.625,43.55
42.640,46.87
42.656,47.29
42.671,44.6
42.687,40.0
42.703,35.17
42.718,31.55
42.734,29.82
42.750,29.82
42.765,30.53
42.781,30.67
42.796,29.16
42.812,25.18
42.828,18.83
42.843,11.03
42.859,3.35
42.875,-2.54
42.890,-5.31
42.906,-5.08
42.921,-3.25
42.937,-2.15
42.953,-4.33
42.968,-11.46
42.984,-23.8
43.000,-39.89
43.015,-56.91
43.031,-71.37
43.046,-79.98
43.062,-80.64
43.078,-73.3
43.093,-59.95
43.109,-43.97
43.125,-28.99
43.140,-17.43
43.156,-9.84
43.171,-5.1
43.187,-1.4
43.203,2.73
43.218,7.69
43.234,12.94
43.250,17.83
43.265,21.87
43.281,24.97
43.296,27.11
43.312,28.15
43.328,27.87
43.343,26.5
43.359,24.89
43.375,24.18
43.390,25.34
43.406,28.39
43.421,32.38
43.437,35.75
43.453,37.22
43.468,36.3
43.484,33.37
43.500,29.24
43.515,24.7
43.531,20.2
43.546,15.85
43.562,11.89
43.578,8.43
43.593,5.43
43.609,2.65
43.625,-0.37
43.640,-4.05
43.656,-8.29
43.671,-12.61
43.687,-16.26
43.703,-18.72
43.718,-19.94
43.734,-20.67
43.750,-21.97
43.765,-24.78
43.781,-29.5
43.796,-35.67
43.812,-42.12
43.828,-47.1
43.843,-48.82
43.859,-45.85
43.875,-37.89
43.890,-26.05
43.906,-12.57
43.921,-0.18
43.937,9.18
43.953,15.07
43.968,18.66
43.984,21.96
44.000,26.54
44.015,32.65
44.031,39.11
44.046,43.93
44.062,45.45
44.078,43.27
44.093,38.34
44.109,32.37
44.125,27.12
44.140,23.52
44.156,21.77
44.171,21.41
44.187,21.83
44.203,22.35
44.218,22.68
44.234,22.65
44.250,22.07
44.265,20.84
44.281,18.76
44.296,15.91
44.312,12.59
44.328,9.35
44.343,6.47
44.359,3.95
44.375,1.51
44.390,-1.34
44.406,-4.72
44.421,-8.37
44.437,-11.65
44.453,-14.08
44.468,-15.55
44.484,-16.64
44.500,-18.26
44.515,-21.29
44.531,-26.21
44.546,-32.81
44.562,-40.47
44.578,-48.03
44.593,-54.12
44.609,-57.23
44.625,-56.16
44.640,-50.36
44.656,-40.44
44.671,-28.16
44.687,-15.77
44.703,-5.28
44.718,2.46
44.734,8.03
44.750,12.85
44.765,18.35
44.781,25.08
44.796,32.43
44.812,39.04
44.828,43.53
44.843,45.15
44.859,44.07
44.875,40.98
44.890,36.92
44.906,32.8
44.921,29.26
44.937,26.74
44.953,25.36
44.968,24.92
44.984,24.91
45.000,24.62
45.015,23.33
45.031,20.67
45.046,16.75
45.062,12.09
45.078,7.52
45.093,3.82
45.109,1.4
45.125,0.15
45.140,-0.5
45.156,-1.24
45.171,-2.59
45.187,-4.68
45.203,-7.23
45.218,-9.6
45.234,-11.38
45.250,-12.42
45.265,-13.12
45.281,-14.37
45.296,-17.2
45.312,-22.34
45.328,-29.94
45.343,-39.37
45.359,-48.93
45.375,-56.47
45.390,-59.73
45.406,-57.13
45.421,-48.61
45.437,-35.9
45.453,-22.01
45.468,-10.07
45.484,-2.12
45.500,1.85
45.515,3.47
45.531,5.09
45.546,8.43
45.562,13.76
45.578,19.9
45.593,25.16
45.609,28.16
45.625,28.31
45.640,25.9
45.656,21.62
45.671,16.46
45.687,11.44
45.703,7.58
45.718,5.8
45.734,6.4
45.750,8.9
45.765,12.09
45.781,14.48
45.796,14.73
45.812,12.5
45.828,8.32
45.843,3.37
45.859,-1.03
45.875,-4.06
45.890,-5.6
45.906,-6.09
45.921,-6.19
45.937,-6.62
45.953,-7.83
45.968,-9.93
45.984,-12.79
46.000,-15.8
46.015,-18.28
46.031,-19.69
46.046,-19.8
46.062,-19.01
46.078,-18.51
46.093,-19.75
46.109,-24.05
46.125,-31.96
46.140,-42.51
46.156,-53.51
46.171,-61.85
46.187,-64.57
46.203,-60.12
46.218,-49.19
46.234,-34.49
46.250,-19.87
46.265,-8.73
46.281,-2.36
46.296,-0.05
46.312,0.56
46.328,1.81
46.343,4.98
46.359,9.8
46.375,15.09
46.390,19.61
46.406,22.59
46.421,23.99
46.437,23.75
46.453,22.07
46.468,19.1
46.484,15.48
46.500,12.28
46.515,10.83
46.531,11.76
46.546,14.7
46.562,18.35
46.578,20.88
46.593,21.13
46.609,18.95
46.625,15.17
46.640,11.1
46.656,7.89
46.671,6.07
46.687,5.51
46.703,5.77
46.718,6.14
46.734,6.12
46.750,5.45
46.765,4.12
46.781,2.59
46.796,1.53
46.812,1.48
46.828,2.57
46.843,4.36
46.859,5.62
46.875,4.94
46.890,1.04
46.906,-6.65
46.921,-17.38
46.937,-29.22
46.953,-39.37
46.968,-44.92
46.984,-43.79
47.000,-35.84
47.015,-22.81
47.031,-8.1
47.046,4.7
47.062,13.26
47.078,17.2
47.093,17.95
47.109,17.69
47.125,18.1
47.140,19.64
47.156,21.86
47.171,23.77
47.187,24.64
47.203,24.33
47.218,22.97
47.234,20.86
47.250,18.4
47.265,16.09
47.281,14.71
47.296,15.18
47.312,17.82
47.328,21.92
47.343,25.97
47.359,28.17
47.375,27.43
47.390,23.95
47.406,18.91
47.421,13.79
47.437,9.72
47.453,6.96
47.468,5.13
47.484,3.66
47.500,2.07
47.515,0.23
47.531,-1.82
47.546,-4.04
47.562,-6.42
47.578,-8.86
47.593,-11.27
47.609,-13.56
47.625,-15.87
47.640,-18.77
47.656,-22.99
47.671,-28.97
47.687,-36.67
47.703,-45.26
47.718,-53.07
47.734,-58.17
47.750,-58.83
47.765,-54.12
47.781,-44.67
47.796,-32.29
47.812,-19.56
47.828,-8.79
47.843,-1.31
47.859,3.22
47.875,6.2
47.890,9.26
47.906,13.52
47.921,18.88
47.937,24.38
47.953,28.73
47.968,31.05
47.984,30.99
48.000,28.92
48.015,25.63
48.031,22.0
48.046,19.02
48.062,17.44
48.078,17.46
48.093,18.8
48.109,20.65
48.125,22.02
48.140,22.13
48.156,20.73
48.171,18.13
48.187,14.91
48.203,11.68
48.218,8.71
48.234,5.96
48.250,3.24
48.265,0.38
48.281,-2.76
48.296,-6.18
48.312,-9.49
48.328,-12.29
48.343,-14.38
48.359,-15.96
48.375,-17.73
48.390,-20.79
48.406,-25.88
48.421,-33.14
48.437,-41.89
48.453,-50.63
48.468,-57.59
48.484,-61.2
48.500,-60.51
48.515,-55.24
48.531,-46.12
48.546,-34.62
48.562,-22.67
48.578,-12.06
48.593,-3.83
48.609,2.1
48.625,6.97
48.640,12.16
48.656,18.51
48.671,25.73
48.687,32.44
48.703,37.06
48.718,38.69
48.734,37.53
48.750,34.6
48.765,31.27
48.781,28.59
48.796,26.87
48.812,25.91
48.828,25.3
48.843,24.63
48.859,23.8
48.875,22.85
48.890,21.75
48.906,20.42
48.921,18.76
48.937,16.57
48.953,13.76
48.968,10.36
48.984,6.42
49.000,2.07
49.015,-2.39
49.031,-6.58
49.046,-9.87
49.062,-11.85
49.078,-12.51
49.093,-12.41
49.109,-12.89
49.125,-15.35
49.140,-20.93
49.156,-29.77
49.171,-41.01
49.187,-52.59
49.203,-62.21
49.218,-67.79
49.234,-67.81
49.250,-62.14
49.265,-51.83
49.281,-38.98
49.296,-26.0
49.312,-14.84
49.328,-6.3
49.343,0.1
49.359,5.68
49.375,11.84
49.390,19.15
49.406,27.17
49.421,34.61
49.437,40.18
49.453,43.08
49.468,43.37
49.484,41.67
49.500,38.97
49.515,36.17
49.531,33.89
49.546,32.51
49.562,32.06
49.578,32.17
49.593,32.42
49.609,32.14
49.625,30.91
49.640,28.55
49.656,25.28
49.671,21.4
49.687,17.24
49.703,13.02
49.718,8.58
49.734,3.99
49.750,-0.62
49.765,-4.76
49.781,-7.81
49.796,-9.29
49.812,-9.36
49.828,-8.84
49.843,-9.16
49.859,-11.87
49.875,-17.9
49.890,-27.21
49.906,-38.69
49.921,-50.39
49.937,-59.96
49.953,-65.18
49.968,-64.56
49.984,-57.91
50.000,-46.54
50.015,-33.13
50.031,-20.81
50.046,-12.02
50.062,-7.58
50.078,-6.24
50.093,-5.52
50.109,-3.03
50.125,2.36
50.140,10.05
50.156,18.11
50.171,24.34
50.187,27.36
50.203,26.75
50.218,23.26
50.234,18.19
50.250,12.97
50.265,8.88
50.281,6.86
50.296,7.4
50.312,10.16
50.328,14.21
50.343,17.96
50.359,20.03
50.375,19.65
50.390,16.94
50.406,12.9
50.421,8.66
50.437,5.21
50.453,2.89
50.468,1.46
50.484,0.2
50.500,-1.45
50.515,-3.67
50.531,-6.31
50.546,-8.55
50.562,-9.91
50.578,-10.13
50.593,-9.74
50.609,-9.74
50.625,-11.45
50.640,-15.78
50.656,-22.94
50.671,-32.49
50.687,-42.91
50.703,-52.33
50.718,-58.42
50.734,-59.23
50.750,-53.81
50.765,-42.86
50.781,-28.78
50.796,-14.85
50.812,-4.21
50.828,1.75
50.843,3.6
50.859,3.48
50.875,3.84
50.890,6.0
50.906,9.82
50.921,13.96
50.937,17.12
50.953,18.53
50.968,18.52
50.984,17.61
51.000,16.28
51.015,14.95
51.031,13.83
51.046,13.55
51.062,14.7
51.078,17.7
51.093,21.95
51.109,26.29
51.125,29.14
51.140,29.49
51.156,27.45
51.171,24.03
51.187,20.85
51.203,18.95
51.218,18.78
51.234,19.89
51.250,21.42
51.265,22.46
51.281,22.42
51.296,21.18
51.312,18.92
51.328,16.38
51.343,14.27
51.359,13.16
51.375,13.03
51.390,13.19
51.406,12.41
51.421,9.3
51.437,2.98
51.453,-6.67
51.468,-18.4
51.484,-29.97
51.500,-38.48
51.515,-41.51
51.531,-37.76
51.546,-28.04
51.562,-15.04
51.578,-2.27
51.593,7.16
51.609,12.02
51.625,13.17
51.640,12.89
51.656,13.32
51.671,15.45
51.687,18.8
51.703,22.01
51.718,24.04
51.734,24.56
51.750,23.97
51.765,22.82
51.781,21.33
51.796,19.58
51.812,17.68
51.828,16.15
51.843,15.65
51.859,16.66
51.875,18.83
51.890,21.21
51.906,22.69
51.921,22.57
51.937,20.98
51.953,18.57
51.968,16.05
51.984,13.7
52.000,11.67
52.015,9.75
52.031,7.89
52.046,6.12
52.062,4.23
52.078,1.98
52.093,-0.93
52.109,-4.36
52.125,-7.76
52.140,-10.1
52.156,-10.74
52.171,-9.74
52.187,-8.13
52.203,-7.79
52.218,-10.26
52.234,-16.46
52.250,-26.07
52.265,-37.59
52.281,-48.61
52.296,-56.58
52.312,-59.38
52.328,-56.09
52.343,-47.55
52.359,-35.94
52.375,-24.22
52.390,-14.94
52.406,-9.34
52.421,-6.97
52.437,-6.13
52.453,-4.93
52.468,-2.04
52.484,2.55
52.500,8.0
52.515,13.0
52.531,16.38
52.546,17.54
52.562,16.33
52.578,13.34
52.593,9.4
52.609,5.84
52.625,3.84
52.640,4.21
52.656,6.89
52.671,10.92
52.687,14.98
52.703,17.65
52.718,18.25
52.734,16.75
52.750,13.72
52.765,10.0
52.781,6.37
52.796,3.35
52.812,1.26
52.828,0.15
52.843,-0.33
52.859,-0.69
52.875,-1.64
52.890,-3.61
52.906,-6.42
52.921,-9.54
52.937,-12.19
52.953,-13.87
52.968,-14.54
52.984,-14.79
53.000,-15.38
53.015,-17.13
53.031,-20.48
53.046,-25.29
53.062,-31.0
53.078,-36.4
53.093,-39.9
53.109,-39.82
53.125,-35.18
53.140,-26.29
53.156,-14.99
53.171,-4.01
53.187,4.16
53.203,8.42
53.218,9.51
53.234,9.59
53.250,11.0
53.265,14.9
53.281,20.76
53.296,26.59
53.312,30.21
53.328,30.28
53.343,26.98
53.359,21.7
53.375,16.27
53.390,12.15
53.406,9.94
53.421,9.47
53.437,9.99
53.453,10.74
53.468,11.13
53.484,10.99
53.500,10.28
53.515,9.06
53.531,7.34
53.546,5.26
53.562,3.15
53.578,1.42
53.593,0.24
53.609,-0.45
53.625,-1.13
53.640,-2.19
53.656,-3.88
53.671,-5.97
53.687,-7.94
53.703,-9.21
53.718,-9.34
53.734,-8.62
53.750,-7.61
53.765,-7.12
53.781,-7.87
53.796,-10.39
53.812,-14.89
53.828,-21.39
53.843,-29.08
53.859,-36.37
53.875,-41.23
53.890,-41.58
53.906,-36.58
53.921,-27.09
53.937,-15.65
53.953,-5.31
53.968,1.43
53.984,4.18
54.000,4.54
54.015,5.01
54.031,7.76
54.046,13.18
54.062,19.97
54.078,25.96
54.093,29.42
54.109,29.69
54.125,27.21
54.140,23.24
54.156,18.89
54.171,15.07
54.187,12.33
54.203,10.77
54.218,10.43
54.234,11.17
54.250,12.44
54.265,13.57
54.281,13.84
54.296,12.68
54.312,9.98
54.328,6.09
54.343,1.76
54.359,-2.0
54.375,-4.29
54.390,-4.87
54.406,-4.15
54.421,-3.07
54.437,-2.86
54.453,-4.18
54.468,-7.1
54.484,-10.81
54.500,-14.01
54.515,-15.62
54.531,-15.32
54.546,-13.64
54.562,-11.95
54.578,-11.99
54.593,-15.14
54.609,-22.01
54.625,-32.13
54.640,-43.66
54.656,-53.85
54.671,-59.83
54.687,-59.34
54.703,-51.98
54.718,-39.69
54.734,-25.89
54.750,-14.29
54.765,-7.28
54.781,-4.91
54.796,-5.18
54.812,-5.47
54.828,-3.85
54.843,-0.09
54.859,4.53
54.875,8.38
54.890,10.29
54.906,10.0
54.921,7.92
54.937,4.7
54.953,0.87
54.968,-2.82
54.984,-5.48
55.000,-5.83
55.015,-3.0
55.031,2.92
55.046,10.55
55.062,17.48
55.078,21.45
55.093,21.28
55.109,17.52
55.125,11.93
55.140,6.9
55.156,4.2
55.171,4.46
55.187,7.11
55.203,10.65
55.218,13.46
55.234,14.37
55.250,13.01
55.265,10.02
55.281,6.83
55.296,5.08
55.312,6.02
55.328,9.9
55.343,15.55
55.359,20.95
55.375,23.86
55.390,22.59
55.406,16.68
55.421,7.15
55.437,-3.75
55.453,-13.06
55.468,-17.62
55.484,-15.96
55.500,-8.99
55.515,-0.89
55.531,1.62
55.546,-8.0
55.562,-33.12
55.578,-71.43
55.593,-115.08
55.609,-153.12
55.625,-176.42
55.640,-180.85
55.656,-168.52
55.671,-145.66
55.687,-118.71
55.703,-91.51
55.718,-64.73
55.734,-37.29
55.750,-8.63
55.765,19.74
55.781,45.12
55.796,64.82
55.812,77.66
55.828,84.61
55.843,87.77
55.859,89.02
55.875,89.22
55.890,88.04
55.906,84.56
55.921,78.32
55.937,69.85
55.953,60.59
55.968,52.75
55.984,48.12
56.000,47.22
56.015,49.19
56.031,51.74
56.046,52.25
56.062,48.86
56.078,41.23
56.093,30.79
56.109,20.38
56.125,12.94
56.140,10.37
56.156,12.84
56.171,18.45
56.187,24.07
56.203,26.59
56.218,23.78
56.234,15.05
56.250,1.79
56.265,-13.23
56.281,-26.33
56.296,-33.82
56.312,-33.37
56.328,-24.81
56.343,-10.47
56.359,5.56
56.375,18.87
56.390,26.81
56.406,29.41
56.421,29.29
56.437,30.06
56.453,34.28
56.468,42.41
56.484,52.81
56.500,63.04
56.515,71.21
56.531,76.88
56.546,80.66
56.562,83.63
56.578,86.26
56.593,88.36
56.609,89.5
56.625,89.72
56.640,89.45
56.656,89.74
56.671,91.53
56.687,95.1
56.703,99.72
56.718,103.38
56.734,102.95
56.750,94.81
56.765,76.07
56.781,45.24
56.796,3.14
56.812,-47.81
56.828,-104.39
56.843,-163.42
56.859,-222.04
56.875,-277.14
56.890,-324.85
56.906,-360.39
56.921,-379.07
56.937,-377.62
56.953,-355.73
56.968,-316.49
56.984,-265.63
57.000,-210.03
57.015,-156.1
57.031,-108.76
57.046,-70.74
57.062,-42.67
57.078,-23.29
57.093,-10.08
57.109,0.04
57.125,9.92
57.140,21.39
57.156,34.91
57.171,49.47
57.187,63.24
57.203,74.25
57.218,81.3
57.234,84.51
57.250,85.06
57.265,84.8
57.281,85.32
57.296,87.1
57.312,89.5
57.328,91.03
57.343,90.28
57.359,86.55
57.375,80.31
57.390,72.79
57.406,65.59
57.421,60.07
57.437,56.72
57.453,55.19
57.468,54.54
57.484,53.55
57.500,51.23
57.515,47.31
57.531,42.06
57.546,36.19
57.562,30.56
57.578,25.85
57.593,22.28
57.609,19.68
57.625,17.55
57.640,15.2
57.656,12.18
57.671,8.44
57.687,4.17
57.703,-0.01
57.718,-3.56
57.734,-6.08
57.750,-7.66
57.765,-8.86
57.781,-10.46
57.796,-13.24
57.812,-17.73
57.828,-24.12
57.843,-32.05
57.859,-40.64
57.875,-48.24
57.890,-52.88
57.906,-52.92
57.921,-47.65
57.937,-37.74
57.953,-25.37
57.968,-13.24
57.984,-3.39
58.000,3.52
58.015,8.49
58.031,13.41
58.046,19.71
58.062,27.48
58.078,35.47
58.093,41.67
58.109,44.47
58.125,43.58
58.140,40.04
58.156,35.58
58.171,31.92
58.187,29.87
58.203,29.29
58.218,29.39
58.234,29.21
58.250,28.15
58.265,26.09
58.281,23.36
58.296,20.41
58.312,17.66
58.328,15.24
58.343,13.18
58.359,11.31
58.375,9.38
58.390,7.21
58.406,4.59
58.421,1.49
58.437,-1.93
58.453,-5.23
58.468,-7.94
58.484,-9.71
58.500,-10.67
58.515,-11.46
58.531,-13.0
58.546,-16.21
58.562,-21.72
58.578,-29.37
58.593,-38.37
58.609,-47.12
58.625,-53.59
58.640,-55.81
58.656,-52.64
58.671,-44.22
58.687,-32.35
58.703,-19.86
58.718,-9.3
58.734,-2.02
58.750,2.56
58.765,6.29
58.781,11.22
58.796,18.2
58.812,26.74
58.828,34.97
58.843,40.89
58.859,43.21
58.875,41.74
58.890,37.47
58.906,31.79
58.921,26.24
58.937,21.8
58.953,19.0
58.968,17.86
58.984,17.91
59.000,18.5
59.015,18.86
59.031,18.42
59.046,16.92
59.062,14.43
59.078,11.36
59.093,8.13
59.109,5.21
59.125,2.78
59.140,0.88
59.156,-0.86
59.171,-2.87
59.187,-5.62
59.203,-9.27
59.218,-13.5
59.234,-17.57
59.250,-20.64
59.265,-22.4
59.281,-23.13
59.296,-24.0
59.312,-26.31
59.328,-31.25
59.343,-39.26
59.359,-49.7
59.375,-60.83
59.390,-70.08
59.406,-74.92
59.421,-73.37
59.437,-65.26
59.453,-52.27
59.468,-37.58
59.484,-24.54
59.500,-15.46
59.515,-10.53
59.531,-8.15
59.546,-6.19
59.562,-3.05
59.578,1.5
59.593,6.64
59.609,11.22
59.625,14.68
59.640,16.91
59.656,18.2
59.671,18.8
59.687,18.76
59.703,18.26
59.718,17.8
59.734,18.31
59.750,20.57
59.765,24.86
59.781,30.43
59.796,35.74
59.812,39.18
59.828,39.81
59.843,37.84
59.859,34.38
59.875,31.04
59.890,29.08
59.906,28.97
59.921,30.26
59.937,31.82
59.953,32.43
59.968,31.2
59.984,28.16
