timestamp,value
00.000,-85.27
00.015,-83.88
00.031,-85.02
00.046,-87.68
00.062,-90.22
00.078,-91.11
00.093,-89.61
00.109,-85.98
00.125,-80.92
00.140,-75.57
00.156,-71.68
00.171,-71.61
00.187,-77.75
00.203,-91.03
00.218,-109.26
00.234,-126.79
00.250,-136.33
00.265,-132.31
00.281,-114.23
00.296,-87.91
00.312,-63.26
00.328,-49.59
00.343,-50.96
00.359,-63.82
00.375,-78.65
00.390,-84.57
00.406,-74.26
00.421,-46.59
00.437,-6.07
00.453,40.17
00.468,85.51
00.484,125.16
00.500,155.49
00.515,172.49
00.531,171.34
00.546,148.08
00.562,102.44
00.578,39.79
00.593,-29.12
00.609,-91.42
00.625,-136.51
00.640,-159.41
00.656,-161.35
00.671,-147.58
00.687,-123.96
00.703,-94.63
00.718,-61.66
00.734,-26.27
00.750,9.91
00.765,44.52
00.781,75.34
00.796,101.38
00.812,123.18
00.828,141.97
00.843,158.31
00.859,171.4
00.875,179.65
00.890,181.96
00.906,178.78
00.921,172.33
00.937,165.53
00.953,160.6
00.968,158.19
00.984,157.28
01.000,156.06
01.015,152.82
01.031,146.51
01.046,136.74
01.062,123.66
01.078,107.83
01.093,90.19
01.109,71.96
01.125,54.42
01.140,38.68
01.156,25.35
01.171,14.49
01.187,5.74
01.203,-1.36
01.218,-7.26
01.234,-12.37
01.250,-16.97
01.265,-21.33
01.281,-25.67
01.296,-30.15
01.312,-34.8
01.328,-39.49
01.343,-43.81
01.359,-47.16
01.375,-48.93
01.390,-48.77
01.406,-46.86
01.421,-43.85
01.437,-40.77
01.453,-38.52
01.468,-37.56
01.484,-37.68
01.500,-38.26
01.515,-38.59
01.531,-38.31
01.546,-37.55
01.562,-36.66
01.578,-36.06
01.593,-35.9
01.609,-36.11
01.625,-36.52
01.640,-36.96
01.656,-37.27
01.671,-37.1
01.687,-35.88
01.703,-32.91
01.718,-27.7
01.734,-20.21
01.750,-10.79
01.765,-0.03
01.781,11.62
01.796,24.03
01.812,37.41
01.828,52.09
01.843,68.3
01.859,85.92
01.875,104.36
01.890,122.41
01.906,138.38
01.921,150.44
01.937,157.06
01.953,157.5
01.968,152.17
01.984,142.43
02.000,130.19
02.015,117.35
02.031,105.31
02.046,94.74
02.062,85.82
02.078,78.37
02.093,72.01
02.109,66.23
02.125,60.34
02.140,53.55
02.156,45.04
02.171,34.17
02.187,20.75
02.203,5.1
02.218,-11.98
02.234,-29.45
02.250,-46.36
02.265,-62.13
02.281,-76.57
02.296,-89.66
02.312,-101.28
02.328,-111.02
02.343,-118.32
02.359,-122.75
02.375,-124.31
02.390,-123.39
02.406,-120.66
02.421,-116.65
02.437,-111.73
02.453,-106.11
02.468,-100.04
02.484,-93.96
02.500,-88.3
02.515,-83.41
02.531,-79.27
02.546,-75.66
02.562,-72.31
02.578,-69.09
02.593,-66.07
02.609,-63.39
02.625,-61.14
02.640,-59.23
02.656,-57.56
02.671,-56.09
02.687,-54.86
02.703,-53.97
02.718,-53.46
02.734,-53.35
02.750,-53.71
02.765,-54.81
02.781,-56.98
02.796,-60.64
02.812,-66.03
02.828,-73.09
02.843,-81.21
02.859,-89.13
02.875,-95.07
02.890,-97.26
02.906,-94.44
02.921,-86.3
02.937,-73.46
02.953,-57.18
02.968,-38.82
02.984,-19.39
03.000,0.69
03.015,21.38
03.031,42.71
03.046,64.42
03.062,85.75
03.078,105.37
03.093,121.49
03.109,132.32
03.125,136.75
03.140,134.98
03.156,128.66
03.171,120.49
03.187,113.22
03.203,108.67
03.218,107.2
03.234,107.87
03.250,109.12
03.265,109.46
03.281,107.92
03.296,104.14
03.312,98.42
03.328,91.5
03.343,84.38
03.359,78.04
03.375,73.17
03.390,69.88
03.406,67.85
03.421,66.42
03.437,65.11
03.453,63.67
03.468,61.92
03.484,59.56
03.500,55.96
03.515,50.32
03.531,42.04
03.546,30.99
03.562,17.69
03.578,3.34
03.593,-10.62
03.609,-22.82
03.625,-32.46
03.640,-39.55
03.656,-44.87
03.671,-49.68
03.687,-55.31
03.703,-62.57
03.718,-71.57
03.734,-81.77
03.750,-92.19
03.765,-101.67
03.781,-108.94
03.796,-112.86
03.812,-112.67
03.828,-108.52
03.843,-101.72
03.859,-94.62
03.875,-90.05
03.890,-90.6
03.906,-97.92
03.921,-112.32
03.937,-132.53
03.953,-155.67
03.968,-177.76
03.984,-194.44
04.000,-202.32
04.015,-200.19
04.031,-189.33
04.046,-172.84
04.062,-153.83
04.078,-134.01
04.093,-113.33
04.109,-91.29
04.125,-68.48
04.140,-47.35
04.156,-30.91
04.171,-20.23
04.187,-12.8
04.203,-2.98
04.218,15.09
04.234,44.13
04.250,81.62
04.265,120.99
04.281,154.94
04.296,179.08
04.312,193.57
04.328,201.92
04.343,207.93
04.359,212.95
04.375,215.52
04.390,212.82
04.406,203.44
04.421,188.88
04.437,172.95
04.453,159.81
04.468,151.46
04.484,146.72
04.500,142.09
04.515,134.11
04.531,121.56
04.546,106.26
04.562,92.04
04.578,82.36
04.593,78.55
04.609,79.06
04.625,80.74
04.640,80.77
04.656,78.2
04.671,74.15
04.687,70.77
04.703,69.62
04.718,70.55
04.734,71.96
04.750,71.79
04.765,68.69
04.781,62.8
04.796,55.34
04.812,47.7
04.828,40.59
04.843,33.58
04.859,25.25
04.875,13.96
04.890,-1.33
04.906,-20.12
04.921,-40.08
04.937,-57.59
04.953,-68.98
04.968,-72.16
04.984,-67.75
05.000,-59.03
05.015,-50.57
05.031,-46.08
05.046,-46.59
05.062,-50.2
05.078,-53.62
05.093,-54.38
05.109,-52.57
05.125,-50.69
05.140,-51.9
05.156,-57.58
05.171,-66.07
05.187,-73.17
05.203,-74.38
05.218,-67.4
05.234,-53.34
05.250,-36.09
05.265,-20.39
05.281,-9.47
05.296,-3.97
05.312,-2.24
05.328,-1.76
05.343,-0.76
05.359,0.97
05.375,2.3
05.390,1.85
05.406,-1.01
05.421,-5.58
05.437,-10.15
05.453,-12.93
05.468,-12.97
05.484,-10.64
05.500,-7.37
05.515,-4.94
05.531,-4.49
05.546,-5.95
05.562,-8.13
05.578,-9.37
05.593,-8.33
05.609,-4.8
05.625,0.33
05.640,5.5
05.656,9.35
05.671,11.24
05.687,11.48
05.703,10.92
05.718,10.41
05.734,10.38
05.750,10.66
05.765,10.64
05.781,9.68
05.796,7.41
05.812,3.94
05.828,-0.06
05.843,-3.65
05.859,-5.84
05.875,-6.0
05.890,-4.23
05.906,-1.38
05.921,1.22
05.937,2.34
05.953,1.54
05.968,-0.67
05.984,-3.01
06.000,-4.2
06.015,-3.48
06.031,-0.87
06.046,3.19
06.062,8.38
06.078,14.6
06.093,21.85
06.109,29.66
06.125,36.8
06.140,41.36
06.156,41.32
06.171,35.29
06.187,23.03
06.203,5.41
06.218,-15.81
06.234,-38.25
06.250,-59.32
06.265,-76.55
06.281,-88.05
06.296,-93.02
06.312,-91.88
06.328,-85.97
06.343,-76.8
06.359,-65.55
06.375,-52.79
06.390,-38.84
06.406,-24.19
06.421,-9.69
06.437,3.66
06.453,15.27
06.468,25.28
06.484,34.49
06.500,43.68
06.515,52.97
06.531,61.53
06.546,67.94
06.562,71.08
06.578,70.84
06.593,68.32
06.609,65.35
06.625,63.69
06.640,64.34
06.656,67.28
06.671,71.7
06.687,76.42
06.703,80.19
06.718,81.6
06.734,79.0
06.750,70.64
06.765,55.41
06.781,33.88
06.796,8.7
06.812,-16.23
06.828,-37.38
06.843,-53.27
06.859,-64.99
06.875,-75.0
06.890,-85.09
06.906,-94.9
06.921,-102.04
06.937,-103.77
06.953,-99.05
06.968,-89.52
06.984,-78.63
07.000,-69.71
07.015,-63.96
07.031,-60.03
07.046,-55.01
07.062,-46.3
07.078,-33.17
07.093,-16.92
07.109,-0.06
07.125,14.95
07.140,26.6
07.156,34.64
07.171,39.77
07.187,43.04
07.203,45.4
07.218,47.33
07.234,48.85
07.250,49.71
07.265,49.6
07.281,48.7
07.296,47.84
07.312,48.26
07.328,51.08
07.343,56.64
07.359,64.14
07.375,71.84
07.390,77.86
07.406,81.13
07.421,81.99
07.437,81.93
07.453,82.6
07.468,84.68
07.484,87.29
07.500,88.54
07.515,86.64
07.531,81.03
07.546,72.66
07.562,63.45
07.578,55.11
07.593,48.2
07.609,41.97
07.625,34.84
07.640,25.22
07.656,12.33
07.671,-3.63
07.687,-21.65
07.703,-40.29
07.718,-58.03
07.734,-73.46
07.750,-85.4
07.765,-93.07
07.781,-96.22
07.796,-95.33
07.812,-91.4
07.828,-85.69
07.843,-79.34
07.859,-72.92
07.875,-66.31
07.890,-58.75
07.906,-49.28
07.921,-37.38
07.937,-23.41
07.953,-8.85
07.968,4.13
07.984,13.41
08.000,17.88
08.015,17.94
08.031,15.39
08.046,12.76
08.062,12.32
08.078,15.21
08.093,21.15
08.109,28.75
08.125,36.05
08.140,41.17
08.156,42.63
08.171,39.46
08.187,31.22
08.203,18.04
08.218,0.67
08.234,-19.57
08.250,-40.95
08.265,-61.71
08.281,-80.45
08.296,-96.4
08.312,-109.5
08.328,-120.19
08.343,-129.12
08.359,-136.71
08.375,-142.91
08.390,-147.26
08.406,-149.17
08.421,-148.5
08.437,-145.89
08.453,-142.85
08.468,-141.1
08.484,-141.9
08.500,-145.24
08.515,-149.51
08.531,-151.99
08.546,-149.84
08.562,-141.16
08.578,-125.61
08.593,-104.1
08.609,-77.97
08.625,-48.2
08.640,-15.07
08.656,21.38
08.671,60.64
08.687,101.17
08.703,140.58
08.718,176.3
08.734,206.42
08.750,230.16
08.765,247.43
08.781,258.19
08.796,261.8
08.812,257.06
08.828,243.0
08.843,219.89
08.859,189.78
08.875,156.13
08.890,122.83
08.906,92.92
08.921,67.89
08.937,47.67
08.953,31.23
08.968,17.52
08.984,5.99
09.000,-3.4
09.015,-10.57
09.031,-15.57
09.046,-18.69
09.062,-20.35
09.078,-20.96
09.093,-21.12
09.109,-21.73
09.125,-24.14
09.140,-29.7
09.156,-39.44
09.171,-53.14
09.187,-69.28
09.203,-85.45
09.218,-99.19
09.234,-108.82
09.250,-113.81
09.265,-114.65
09.281,-112.22
09.296,-108.09
09.312,-103.61
09.328,-99.98
09.343,-98.02
09.359,-97.94
09.375,-99.21
09.390,-100.69
09.406,-101.13
09.421,-99.3
09.437,-95.67
09.453,-91.0
09.468,-86.25
09.484,-82.02
09.500,-78.24
09.515,-74.39
09.531,-70.0
09.546,-65.09
09.562,-59.51
09.578,-54.83
09.593,-51.71
09.609,-50.26
09.625,-50.12
09.640,-50.72
09.656,-51.68
09.671,-52.97
09.687,-54.59
09.703,-55.16
09.718,-54.47
09.734,-50.89
09.750,-42.99
09.765,-30.27
09.781,-13.25
09.796,7.08
09.812,30.14
09.828,50.17
09.843,74.68
09.859,102.94
09.875,133.78
09.890,164.42
09.906,191.24
09.921,211.31
09.937,223.47
09.953,228.68
09.968,229.14
09.984,227.92
10.000,224.93
10.015,219.4
10.031,209.75
10.046,194.81
10.062,174.91
10.078,152.08
10.093,129.34
10.109,109.46
10.125,94.49
10.140,83.1
10.156,73.17
10.171,62.16
10.187,48.31
10.203,31.4
10.218,12.64
10.234,-6.05
10.250,-22.96
10.265,-36.87
10.281,-48.59
10.296,-59.28
10.312,-70.16
10.328,-81.97
10.343,-94.52
10.359,-106.84
10.375,-117.54
10.390,-125.32
10.406,-129.11
10.421,-128.86
10.437,-124.75
10.453,-117.31
10.468,-107.39
10.484,-96.08
10.500,-84.59
10.515,-74.02
10.531,-65.04
10.546,-57.77
10.562,-52.05
10.578,-47.46
10.593,-43.49
10.609,-39.63
10.625,-35.31
10.640,-29.89
10.656,-22.76
10.671,-13.44
10.687,-1.87
10.703,11.66
10.718,26.52
10.734,41.9
10.750,56.91
10.765,70.83
10.781,83.13
10.796,93.62
10.812,102.34
10.828,109.23
10.843,113.76
10.859,114.57
10.875,109.82
10.890,97.91
10.906,78.68
10.921,53.97
10.937,27.34
10.953,2.62
10.968,-18.02
10.984,-35.08
11.000,-51.21
11.015,-69.32
11.031,-90.4
11.046,-112.55
11.062,-131.83
11.078,-144.48
11.093,-149.13
11.109,-147.48
11.125,-143.23
11.140,-140.0
11.156,-139.54
11.171,-141.21
11.187,-143.0
11.203,-143.07
11.218,-140.91
11.234,-137.53
11.250,-134.77
11.265,-134.05
11.281,-135.73
11.296,-139.06
11.312,-142.6
11.328,-144.97
11.343,-145.41
11.359,-143.96
11.375,-141.15
11.390,-137.46
11.406,-132.66
11.421,-125.95
11.437,-116.62
11.453,-104.81
11.468,-91.89
11.484,-80.13
11.500,-71.58
11.515,-67.05
11.531,-65.84
11.546,-65.78
11.562,-64.46
11.578,-60.25
11.593,-52.59
11.609,-41.73
11.625,-28.21
11.640,-12.03
11.656,7.22
11.671,29.89
11.687,56.68
11.703,87.57
11.718,121.53
11.734,156.56
11.750,190.05
11.765,218.86
11.781,240.98
11.796,255.33
11.812,261.71
11.828,262.33
11.843,260.03
11.859,257.12
11.875,254.7
11.890,252.55
11.906,248.68
11.921,242.43
11.937,233.73
11.953,222.92
11.968,213.27
11.984,208.07
12.000,209.06
12.015,215.7
12.031,225.67
12.046,234.55
12.062,241.02
12.078,245.33
12.093,248.52
12.109,255.23
12.125,269.68
12.140,293.71
12.156,326.05
12.171,363.18
12.187,398.89
12.203,430.75
12.218,457.8
12.234,458.71
12.250,419.48
12.265,337.11
12.281,222.08
12.296,93.15
12.312,-18.54
12.328,-109.6
12.343,-182.9
12.359,-241.88
12.375,-289.21
12.390,-325.3
12.406,-348.72
12.421,-359.63
12.437,-360.61
12.453,-355.66
12.468,-350.5
12.484,-346.34
12.500,-342.48
12.515,-338.03
12.531,-330.04
12.546,-316.33
12.562,-296.6
12.578,-272.37
12.593,-246.13
12.609,-221.85
12.625,-200.18
12.640,-180.32
12.656,-161.1
12.671,-139.96
12.687,-115.07
12.703,-86.48
12.718,-56.17
12.734,-27.24
12.750,-3.83
12.765,12.52
12.781,22.09
12.796,26.24
12.812,27.43
12.828,27.71
12.843,27.92
12.859,27.82
12.875,26.5
12.890,22.4
12.906,15.27
12.921,6.21
12.937,-2.68
12.953,-8.92
12.968,-10.87
12.984,-8.46
13.000,-2.91
13.015,3.88
13.031,9.78
13.046,14.21
13.062,18.7
13.078,26.64
13.093,42.07
13.109,68.06
13.125,105.33
13.140,151.41
13.156,200.15
13.171,241.4
13.187,263.46
13.203,256.78
13.218,217.48
13.234,148.67
13.250,59.46
13.265,-38.02
13.281,-131.67
13.296,-207.06
13.312,-253.33
13.328,-267.76
13.343,-255.91
13.359,-227.04
13.375,-189.53
13.390,-149.24
13.406,-110.3
13.421,-75.87
13.437,-48.14
13.453,-28.67
13.468,-17.55
13.484,-13.02
13.500,-11.72
13.515,-10.33
13.531,-6.81
13.546,-0.88
13.562,6.49
13.578,13.84
13.593,19.52
13.609,22.59
13.625,23.36
13.640,23.34
13.656,24.4
13.671,27.69
13.687,33.33
13.703,40.62
13.718,48.59
13.734,55.93
13.750,61.72
13.765,65.5
13.781,67.62
13.796,68.56
13.812,68.71
13.828,68.0
13.843,66.15
13.859,62.98
13.875,58.55
13.890,53.19
13.906,47.36
13.921,41.85
13.937,37.48
13.953,34.73
13.968,33.75
13.984,34.41
14.000,36.65
14.015,40.42
14.031,45.7
14.046,51.85
14.062,58.29
14.078,64.46
14.093,69.72
14.109,73.68
14.125,76.35
14.140,78.22
14.156,80.23
14.171,83.39
14.187,87.58
14.203,92.21
14.218,96.4
14.234,99.07
14.250,99.38
14.265,97.0
14.281,91.67
14.296,82.42
14.312,72.11
14.328,60.84
14.343,48.33
14.359,35.06
14.375,22.78
14.390,13.92
14.406,10.49
14.421,13.08
14.437,21.11
14.453,33.83
14.468,50.63
14.484,71.98
14.500,98.12
14.515,127.32
14.531,155.36
14.546,176.5
14.562,185.88
14.578,181.97
14.593,167.22
14.609,146.12
14.625,123.32
14.640,101.56
14.656,80.82
14.671,59.57
14.687,36.42
14.703,11.13
14.718,-14.9
14.734,-39.37
14.750,-60.28
14.765,-76.29
14.781,-86.86
14.796,-92.26
14.812,-93.2
14.828,-90.4
14.843,-84.79
14.859,-77.59
14.875,-70.72
14.890,-66.83
14.906,-68.62
14.921,-77.7
14.937,-93.84
14.953,-114.55
14.968,-135.66
14.984,-152.47
15.000,-161.22
15.015,-160.33
15.031,-150.79
15.046,-136.03
15.062,-120.96
15.078,-110.77
15.093,-109.44
15.109,-119.0
15.125,-139.42
15.140,-168.71
15.156,-203.59
15.171,-240.03
15.187,-273.84
15.203,-301.25
15.218,-319.46
15.234,-327.0
15.250,-323.36
15.265,-308.44
15.281,-281.58
15.296,-241.64
15.312,-188.05
15.328,-122.79
15.343,-51.12
15.359,19.15
15.375,80.46
15.390,128.6
15.406,163.82
15.421,189.69
15.437,209.99
15.453,226.21
15.468,237.25
15.484,241.32
15.500,238.45
15.515,231.3
15.531,224.14
15.546,220.27
15.562,220.1
15.578,220.86
15.593,218.65
15.609,210.77
15.625,197.17
15.640,180.08
15.656,162.42
15.671,146.25
15.687,131.78
15.703,117.84
15.718,102.73
15.734,85.24
15.750,65.35
15.765,44.06
15.781,23.03
15.796,3.81
15.812,-12.65
15.828,-26.58
15.843,-38.99
15.859,-51.4
15.875,-65.15
15.890,-81.0
15.906,-99.16
15.921,-119.38
15.937,-141.35
15.953,-165.02
15.968,-190.59
15.984,-218.42
16.000,-248.82
16.015,-281.65
16.031,-315.71
16.046,-348.49
16.062,-375.93
16.078,-393.3
16.093,-396.28
16.109,-382.42
16.125,-351.66
16.140,-306.21
16.156,-249.83
16.171,-186.9
16.187,-122.32
16.203,-61.54
16.218,-10.56
16.234,25.1
16.250,42.12
16.265,40.86
16.281,25.63
16.296,3.13
16.312,-20.23
16.328,-40.68
16.343,-57.73
16.359,-73.01
16.375,-88.03
16.390,-102.82
16.406,-115.95
16.421,-125.77
16.437,-131.89
16.453,-135.62
16.468,-139.22
16.484,-144.28
16.500,-150.73
16.515,-156.71
16.531,-159.51
16.546,-156.96
16.562,-148.18
16.578,-133.53
16.593,-113.94
16.609,-90.1
16.625,-61.82
16.640,-28.31
16.656,11.17
16.671,56.72
16.687,107.53
16.703,162.09
16.718,218.25
16.734,272.91
16.750,321.77
16.765,359.31
16.781,379.55
16.796,377.79
16.812,352.38
16.828,305.5
16.843,242.44
16.859,169.68
16.875,92.8
16.890,15.7
16.906,-59.08
16.921,-128.97
16.937,-190.65
16.953,-240.28
16.968,-274.86
16.984,-293.46
17.000,-297.62
17.015,-290.3
17.031,-274.48
17.046,-251.99
17.062,-223.54
17.078,-189.22
17.093,-149.56
17.109,-105.97
17.125,-60.42
17.140,-14.72
17.156,29.92
17.171,73.01
17.187,114.39
17.203,153.65
17.218,190.33
17.234,224.32
17.250,256.51
17.265,289.1
17.281,324.92
17.296,365.62
17.312,409.85
17.328,452.33
17.343,484.86
17.359,499.32
17.375,490.72
17.390,459.35
17.406,410.33
17.421,351.01
17.437,287.53
17.453,222.56
17.468,155.45
17.484,84.48
17.500,9.77
17.515,-65.17
17.531,-133.85
17.546,-188.9
17.562,-224.6
17.578,-238.6
17.593,-232.27
17.609,-209.98
17.625,-177.91
17.640,-142.75
17.656,-110.6
17.671,-85.9
17.687,-70.35
17.703,-62.49
17.718,-57.69
17.734,-49.47
17.750,-31.61
17.765,-0.59
17.781,42.91
17.796,93.97
17.812,145.01
17.828,188.55
17.843,219.72
17.859,237.84
17.875,245.93
17.890,248.48
17.906,248.96
17.921,248.08
17.937,243.93
17.953,233.75
17.968,216.34
17.984,193.11
18.000,167.8
18.015,144.54
18.031,125.9
18.046,112.01
18.062,101.19
18.078,91.56
18.093,82.46
18.109,74.89
18.125,70.63
18.140,70.8
18.156,74.69
18.171,79.72
18.187,82.77
18.203,81.33
18.218,74.76
18.234,64.4
18.250,52.79
18.265,42.34
18.281,34.16
18.296,27.52
18.312,20.12
18.328,9.2
18.343,-7.28
18.359,-29.71
18.375,-56.59
18.390,-85.27
18.406,-112.86
18.421,-137.19
18.437,-157.2
18.453,-173.3
18.468,-186.76
18.484,-199.62
18.500,-214.51
18.515,-234.3
18.531,-261.27
18.546,-295.82
18.562,-335.47
18.578,-375.04
18.593,-408.48
18.609,-431.02
18.625,-440.93
18.640,-439.5
18.656,-429.57
18.671,-413.48
18.687,-391.92
18.703,-364.29
18.718,-330.32
18.734,-291.62
18.750,-251.65
18.765,-214.09
18.781,-180.77
18.796,-150.98
18.812,-122.91
18.828,-95.78
18.843,-71.29
18.859,-53.15
18.875,-44.87
18.890,-47.52
18.906,-59.13
18.921,-75.58
18.937,-92.75
18.953,-108.05
18.968,-120.19
18.984,-127.53
19.000,-126.96
19.015,-114.37
19.031,-87.14
19.046,-47.02
19.062,-0.86
19.078,41.72
19.093,72.37
19.109,87.72
19.125,90.42
19.140,87.05
19.156,84.8
19.171,88.44
19.187,99.14
19.203,115.17
19.218,133.3
19.234,149.66
19.250,159.78
19.265,158.56
19.281,141.34
19.296,106.13
19.312,55.62
19.328,-2.52
19.343,-57.56
19.359,-99.37
19.375,-121.66
19.390,-123.22
19.406,-107.01
19.421,-77.97
19.437,-41.34
19.453,-1.94
19.468,35.3
19.484,64.83
19.500,81.02
19.515,79.82
19.531,60.51
19.546,26.1
19.562,-17.53
19.578,-63.56
19.593,-106.03
19.609,-140.55
19.625,-164.4
19.640,-176.29
19.656,-176.21
19.671,-165.52
19.687,-146.8
19.703,-123.09
19.718,-97.1
19.734,-70.56
19.750,-44.4
19.765,-19.85
19.781,0.41
19.796,11.93
19.812,9.55
19.828,-10.27
19.843,-46.74
19.859,-93.36
19.875,-138.54
19.890,-168.89
19.906,-173.85
19.921,-149.91
19.937,-102.82
19.953,-46.11
19.968,3.4
19.984,31.66
20.000,31.92
20.015,6.46
20.031,-35.2
20.046,-80.1
20.062,-116.18
20.078,-135.22
20.093,-133.96
20.109,-113.74
20.125,-79.37
20.140,-37.7
20.156,3.89
20.171,38.87
20.187,62.6
20.203,72.87
20.218,69.86
20.234,55.95
20.250,35.32
20.265,13.45
20.281,-3.82
20.296,-11.65
20.312,-7.81
20.328,6.43
20.343,26.65
20.359,46.88
20.375,62.21
20.390,70.61
20.406,73.32
20.421,73.57
20.437,74.68
20.453,78.32
20.468,84.26
20.484,90.96
20.500,96.65
20.515,100.14
20.531,100.9
20.546,99.12
20.562,95.33
20.578,90.36
20.593,85.16
20.609,80.51
20.625,76.77
20.640,73.72
20.656,70.62
20.671,66.68
20.687,61.48
20.703,55.2
20.718,48.51
20.734,42.11
20.750,36.43
20.765,31.38
20.781,26.43
20.796,20.96
20.812,14.41
20.828,6.7
20.843,-1.51
20.859,-9.17
20.875,-15.09
20.890,-18.37
20.906,-18.58
20.921,-15.84
20.937,-10.58
20.953,-3.38
20.968,5.25
20.984,15.02
21.000,25.41
21.015,35.62
21.031,44.61
21.046,51.65
21.062,56.69
21.078,60.28
21.093,63.3
21.109,66.34
21.125,69.72
21.140,72.85
21.156,74.62
21.171,73.93
21.187,70.19
21.203,63.35
21.218,53.72
21.234,41.91
21.250,29.12
21.265,18.33
21.281,12.02
21.296,11.23
21.312,14.85
21.328,20.32
21.343,24.6
21.359,25.37
21.375,21.96
21.390,15.7
21.406,11.82
21.421,14.5
21.437,24.95
21.453,41.48
21.468,61.33
21.484,82.57
21.500,104.47
21.515,126.89
21.531,149.62
21.546,175.85
21.562,206.79
21.578,241.62
21.593,279.41
21.609,321.6
21.625,371.78
21.640,432.2
21.656,500.16
21.671,566.84
21.687,624.63
21.703,663.97
21.718,676.72
21.734,659.52
21.750,616.11
21.765,555.7
21.781,488.63
21.796,422.78
21.812,330.75
21.828,205.45
21.843,61.65
21.859,-72.17
21.875,-173.77
21.890,-237.1
21.906,-268.42
21.921,-278.78
21.937,-278.84
21.953,-275.86
21.968,-268.29
21.984,-254.06
22.000,-233.51
22.015,-209.81
22.031,-186.64
22.046,-166.66
22.062,-151.18
22.078,-140.6
22.093,-134.44
22.109,-127.36
22.125,-115.99
22.140,-100.09
22.156,-82.02
22.171,-64.59
22.187,-49.54
22.203,-37.47
22.218,-28.22
22.234,-21.2
22.250,-12.9
22.265,-0.99
22.281,14.47
22.296,31.67
22.312,48.51
22.328,63.6
22.343,76.19
22.359,85.89
22.375,92.23
22.390,95.65
22.406,98.7
22.421,101.7
22.437,103.96
22.453,104.7
22.468,103.19
22.484,99.38
22.500,93.8
22.515,87.38
22.531,81.39
22.546,76.65
22.562,73.07
22.578,70.26
22.593,67.93
22.609,65.49
22.625,62.7
22.640,59.75
22.656,56.95
22.671,54.46
22.687,52.13
22.703,49.27
22.718,45.43
22.734,40.21
22.750,32.49
22.765,21.76
22.781,8.54
22.796,-6.01
22.812,-21.06
22.828,-36.22
22.843,-51.65
22.859,-67.37
22.875,-83.2
22.890,-101.44
22.906,-122.96
22.921,-146.14
22.937,-168.04
22.953,-186.52
22.968,-201.12
22.984,-212.41
23.000,-221.23
23.015,-228.18
23.031,-239.13
23.046,-257.07
23.062,-279.81
23.078,-302.09
23.093,-319.89
23.109,-332.16
23.125,-339.89
23.140,-344.69
23.156,-348.32
23.171,-361.28
23.187,-389.06
23.203,-427.79
23.218,-466.87
23.234,-496.5
23.250,-511.15
23.265,-509.69
23.281,-494.4
23.296,-469.83
23.312,-453.09
23.328,-454.92
23.343,-473.58
23.359,-498.96
23.375,-522.56
23.390,-542.05
23.406,-559.58
23.421,-578.9
23.437,-528.93
23.453,-383.87
23.468,-177.24
23.484,27.81
23.500,189.88
23.515,300.18
23.531,367.0
23.546,403.11
23.562,420.49
23.578,428.65
23.593,422.3
23.609,398.37
23.625,361.73
23.640,322.69
23.656,289.33
23.671,265.14
23.687,251.02
23.703,246.62
23.718,250.66
23.734,251.51
23.750,240.92
23.765,218.8
23.781,191.58
23.796,165.94
23.812,146.02
23.828,133.88
23.843,129.58
23.859,131.57
23.875,131.17
23.890,121.9
23.906,103.25
23.921,79.71
23.937,56.55
23.953,36.45
23.968,22.51
23.984,16.26
24.000,18.44
24.015,26.34
24.031,37.39
24.046,50.2
24.062,63.82
24.078,76.13
24.093,84.36
24.109,86.83
24.125,83.62
24.140,76.54
24.156,66.88
24.171,55.53
24.187,42.87
24.203,29.31
24.218,15.08
24.234,0.85
24.250,-12.14
24.265,-22.69
24.281,-30.19
24.296,-35.02
24.312,-38.37
24.328,-41.55
24.343,-44.75
24.359,-47.5
24.375,-48.39
24.390,-45.58
24.406,-37.31
24.421,-22.25
24.437,0.19
24.453,29.87
24.468,62.25
24.484,91.95
24.500,112.67
24.515,118.77
24.531,107.26
24.546,79.41
24.562,40.99
24.578,0.73
24.593,-32.52
24.609,-52.68
24.625,-57.63
24.640,-49.82
24.656,-34.57
24.671,-18.1
24.687,-5.52
24.703,0.15
24.718,-1.83
24.734,-10.51
24.750,-24.1
24.765,-40.3
24.781,-56.99
24.796,-72.21
24.812,-84.49
24.828,-92.82
24.843,-96.8
24.859,-97.04
24.875,-95.29
24.890,-94.23
24.906,-96.44
24.921,-103.59
24.937,-115.51
24.953,-130.29
24.968,-144.97
24.984,-157.06
25.000,-165.48
25.015,-170.81
25.031,-174.7
25.046,-178.51
25.062,-182.49
25.078,-185.42
25.093,-185.22
25.109,-179.84
25.125,-168.43
25.140,-151.8
25.156,-132.17
25.171,-112.16
25.187,-93.52
25.203,-76.37
25.218,-59.09
25.234,-39.17
25.250,-14.42
25.265,15.72
25.281,49.83
25.296,84.91
25.312,117.55
25.328,145.22
25.343,167.19
25.359,184.63
25.375,200.06
25.390,216.65
25.406,237.18
25.421,262.78
25.437,291.92
25.453,319.5
25.468,337.03
25.484,334.41
25.500,303.18
25.515,240.48
25.531,151.72
25.546,50.29
25.562,-45.81
25.578,-119.65
25.593,-160.55
25.609,-166.58
25.625,-143.37
25.640,-100.49
25.656,-47.16
25.671,10.45
25.687,69.48
25.703,129.07
25.718,188.89
25.734,248.62
25.750,308.32
25.765,368.88
25.781,431.54
25.796,496.49
25.812,561.32
25.828,620.45
25.843,666.21
25.859,691.2
25.875,690.56
25.890,663.41
25.906,612.62
25.921,543.53
25.937,462.41
25.953,375.41
25.968,287.78
25.984,203.51
26.000,124.88
26.015,52.37
26.031,-14.85
26.046,-77.5
26.062,-134.77
26.078,-183.98
26.093,-221.61
26.109,-245.5
26.125,-256.32
26.140,-257.7
26.156,-254.52
26.171,-250.76
26.187,-248.0
26.203,-245.7
26.218,-242.56
26.234,-238.02
26.250,-232.54
26.265,-226.8
26.281,-220.53
26.296,-211.91
26.312,-197.99
26.328,-176.0
26.343,-144.66
26.359,-104.93
26.375,-59.63
26.390,-12.65
26.406,32.12
26.421,71.43
26.437,103.0
26.453,125.43
26.468,137.58
26.484,138.03
26.500,125.12
26.515,97.91
26.531,57.38
26.546,7.41
26.562,-45.14
26.578,-92.17
26.593,-126.7
26.609,-145.28
26.625,-148.79
26.640,-141.51
26.656,-129.05
26.671,-116.52
26.687,-107.83
26.703,-106.0
26.718,-113.58
26.734,-132.53
26.750,-163.01
26.765,-202.01
26.781,-242.98
26.796,-277.33
26.812,-297.29
26.828,-298.89
26.843,-283.18
26.859,-255.26
26.875,-221.21
26.890,-185.04
26.906,-147.2
26.921,-105.93
26.937,-60.41
26.953,-13.33
26.968,28.4
26.984,56.14
27.000,63.33
27.015,48.81
27.031,17.17
27.046,-23.82
27.062,-67.14
27.078,-109.34
27.093,-150.49
27.109,-191.56
27.125,-231.23
27.140,-264.68
27.156,-285.01
27.171,-286.67
27.187,-268.26
27.203,-233.02
27.218,-187.0
27.234,-136.13
27.250,-84.43
27.265,-33.88
27.281,14.74
27.296,60.98
27.312,104.38
27.328,144.42
27.343,180.67
27.359,212.19
27.375,237.09
27.390,252.38
27.406,255.17
27.421,244.54
27.437,222.82
27.453,195.45
27.468,168.64
27.484,146.33
27.500,128.55
27.515,112.35
27.531,94.47
27.546,73.92
27.562,52.84
27.578,35.29
27.593,25.09
27.609,23.98
27.625,31.06
27.640,43.33
27.656,56.79
27.671,67.42
27.687,72.08
27.703,69.34
27.718,60.15
27.734,48.08
27.750,38.68
27.765,37.89
27.781,49.83
27.796,75.08
27.812,110.41
27.828,150.06
27.843,187.6
27.859,217.71
27.875,237.15
27.890,244.37
27.906,238.98
27.921,221.82
27.937,195.33
27.953,164.1
27.968,134.93
27.984,115.03
28.000,109.57
28.015,119.32
28.031,140.12
28.046,164.77
28.062,186.2
28.078,200.21
28.093,206.42
28.109,206.63
28.125,202.14
28.140,192.25
28.156,175.08
28.171,149.67
28.187,118.01
28.203,84.76
28.218,55.05
28.234,31.77
28.250,14.28
28.265,-0.79
28.281,-17.0
28.296,-35.81
28.312,-56.15
28.328,-75.5
28.343,-91.76
28.359,-104.57
28.375,-115.17
28.390,-125.13
28.406,-135.44
28.421,-145.95
28.437,-155.92
28.453,-164.75
28.468,-172.32
28.484,-178.73
28.500,-183.78
28.515,-186.79
28.531,-186.98
28.546,-183.96
28.562,-178.18
28.578,-170.67
28.593,-162.5
28.609,-154.36
28.625,-146.57
28.640,-139.76
28.656,-135.26
28.671,-135.17
28.687,-141.97
28.703,-158.02
28.718,-185.16
28.734,-224.25
28.750,-274.29
28.765,-331.57
28.781,-389.43
28.796,-438.94
28.812,-471.16
28.828,-480.08
28.843,-464.69
28.859,-429.07
28.875,-380.56
28.890,-326.81
28.906,-273.24
28.921,-222.36
28.937,-174.74
28.953,-130.77
28.968,-91.67
28.984,-59.2
29.000,-34.47
29.015,-16.91
29.031,-4.25
29.046,6.47
29.062,17.35
29.078,28.77
29.093,39.65
29.109,48.09
29.125,52.95
29.140,54.59
29.156,54.82
29.171,56.28
29.187,61.91
29.203,74.41
29.218,95.76
29.234,126.3
29.250,163.77
29.265,202.72
29.281,235.18
29.296,252.66
29.312,248.9
29.328,222.03
29.343,174.74
29.359,112.78
29.375,42.65
29.390,-30.03
29.406,-100.53
29.421,-164.11
29.437,-215.39
29.453,-249.01
29.468,-261.15
29.484,-251.51
29.500,-223.69
29.515,-183.99
29.531,-139.21
29.546,-94.01
29.562,-49.74
29.578,-4.79
29.593,43.62
29.609,97.18
29.625,154.83
29.640,212.35
29.656,263.49
29.671,302.0
29.687,324.78
29.703,334.04
29.718,336.94
29.734,342.78
29.750,359.66
29.765,391.99
29.781,439.49
29.796,497.79
29.812,559.07
29.828,614.35
29.843,655.16
29.859,674.64
29.875,668.26
29.890,634.4
29.906,574.99
29.921,494.67
29.937,399.54
29.953,294.77
29.968,184.7
29.984,73.78
30.000,-32.98
30.015,-130.41
30.031,-214.25
30.046,-281.59
30.062,-329.44
30.078,-350.39
30.093,-340.54
30.109,-304.59
30.125,-253.06
30.140,-195.93
30.156,-139.37
30.171,-87.62
30.187,-40.77
30.203,-0.75
30.218,29.16
30.234,45.03
30.250,44.9
30.265,30.11
30.281,3.33
30.296,-30.35
30.312,-66.42
30.328,-101.68
30.343,-135.11
30.359,-167.14
30.375,-199.91
30.390,-236.02
30.406,-277.27
30.421,-323.79
30.437,-373.2
30.453,-420.86
30.468,-460.16
30.484,-484.91
30.500,-491.39
30.515,-480.75
30.531,-458.5
30.546,-432.0
30.562,-407.55
30.578,-388.0
30.593,-372.67
30.609,-358.5
30.625,-342.51
30.640,-323.12
30.656,-300.69
30.671,-276.67
30.687,-252.23
30.703,-227.59
30.718,-202.09
30.734,-175.15
30.750,-146.58
30.765,-116.86
30.781,-86.96
30.796,-57.94
30.812,-30.75
30.828,-5.98
30.843,16.26
30.859,36.39
30.875,55.17
30.890,73.8
30.906,93.46
30.921,115.05
30.937,138.62
30.953,163.2
30.968,187.01
30.984,208.12
31.000,225.25
31.015,238.29
31.031,248.57
31.046,258.16
31.062,269.46
31.078,284.63
31.093,305.34
31.109,332.2
31.125,364.07
31.140,396.68
31.156,422.13
31.171,430.32
31.187,411.9
31.203,362.62
31.218,286.24
31.234,194.62
31.250,104.21
31.265,30.25
31.281,-18.57
31.296,-42.12
31.312,-46.76
31.328,-40.93
31.343,-31.3
31.359,-21.6
31.375,-13.53
31.390,-8.22
31.406,-6.27
31.421,-6.33
31.437,-3.67
31.453,9.6
31.468,41.92
31.484,98.69
31.500,178.79
31.515,273.83
31.531,370.04
31.546,451.7
31.562,505.32
31.578,522.56
31.593,501.65
31.609,447.5
31.625,370.45
31.640,283.36
31.656,197.89
31.671,121.59
31.687,56.26
31.703,-0.95
31.718,-54.87
31.734,-109.27
31.750,-165.03
31.765,-219.98
31.781,-270.84
31.796,-315.35
31.812,-353.61
31.828,-387.66
31.843,-419.43
31.859,-448.22
31.875,-469.57
31.890,-476.15
31.906,-460.88
31.921,-420.65
31.937,-358.43
31.953,-282.02
31.968,-201.05
31.984,-123.2
32.000,-52.64
32.015,9.29
32.031,62.26
32.046,104.62
32.062,133.2
32.078,144.42
32.093,138.25
32.109,119.48
32.125,96.78
32.140,78.37
32.156,68.08
32.171,64.11
32.187,59.58
32.203,46.49
32.218,19.22
32.234,-20.72
32.250,-65.89
32.265,-106.35
32.281,-135.98
32.296,-154.96
32.312,-167.1
32.328,-176.59
32.343,-184.73
32.359,-190.28
32.375,-189.46
32.390,-179.97
32.406,-162.28
32.421,-141.55
32.437,-124.53
32.453,-113.91
32.468,-107.17
32.484,-97.81
32.500,-80.08
32.515,-49.4
32.531,-4.5
32.546,54.71
32.562,126.43
32.578,198.11
32.593,256.78
32.609,293.41
32.625,329.0
32.640,375.01
32.656,434.47
32.671,490.2
32.687,529.79
32.703,546.42
32.718,541.25
32.734,524.16
32.750,507.6
32.765,480.12
32.781,431.13
32.796,356.05
32.812,258.96
32.828,152.61
32.843,49.93
32.859,-40.99
32.875,-117.74
32.890,-182.88
32.906,-239.82
32.921,-289.57
32.937,-328.87
32.953,-352.35
32.968,-355.98
32.984,-342.68
33.000,-321.9
33.015,-304.61
33.031,-298.7
33.046,-306.56
33.062,-325.04
33.078,-345.41
33.093,-361.64
33.109,-370.9
33.125,-374.4
33.140,-375.17
33.156,-375.04
33.171,-373.74
33.187,-369.97
33.203,-362.03
33.218,-349.64
33.234,-334.56
33.250,-318.86
33.265,-304.04
33.281,-289.89
33.296,-274.2
33.312,-253.97
33.328,-227.05
33.343,-192.72
33.359,-152.32
33.375,-108.98
33.390,-65.91
33.406,-25.6
33.421,11.05
33.437,44.62
33.453,76.68
33.468,108.79
33.484,141.97
33.500,176.04
33.515,209.6
33.531,241.41
33.546,271.14
33.562,299.7
33.578,328.38
33.593,357.59
33.609,386.24
33.625,412.26
33.640,433.71
33.656,449.6
33.671,460.19
33.687,466.12
33.703,467.38
33.718,463.04
33.734,451.74
33.750,432.49
33.765,405.38
33.781,371.37
33.796,331.67
33.812,287.17
33.828,238.7
33.843,187.8
33.859,137.27
33.875,90.77
33.890,51.47
33.906,20.28
33.921,-4.75
33.937,-27.68
33.953,-52.23
33.968,-79.49
33.984,-107.03
34.000,-130.3
34.015,-145.54
34.031,-152.72
34.046,-156.61
34.062,-164.97
34.078,-184.97
34.093,-219.89
34.109,-267.73
34.125,-322.36
34.140,-376.17
34.156,-422.58
34.171,-457.12
34.187,-477.04
34.203,-480.27
34.218,-464.89
34.234,-429.22
34.250,-372.78
34.265,-296.92
34.281,-204.82
34.296,-100.43
34.312,12.7
34.328,132.17
34.343,256.36
34.359,382.95
34.375,507.34
34.390,621.9
34.406,716.91
34.421,783.24
34.437,815.61
34.453,814.91
34.468,787.87
34.484,744.44
34.500,693.83
34.515,641.89
34.531,590.51
34.546,539.02
34.562,486.09
34.578,430.96
34.593,373.05
34.609,311.27
34.625,243.81
34.640,169.22
34.656,88.45
34.671,6.18
34.687,-69.59
34.703,-129.8
34.718,-167.93
34.734,-182.8
34.750,-179.18
34.765,-165.85
34.781,-152.23
34.796,-144.84
34.812,-145.57
34.828,-152.16
34.843,-160.47
34.859,-167.15
34.875,-171.36
34.890,-174.65
34.906,-179.3
34.921,-186.84
34.937,-196.97
34.953,-208.09
34.968,-218.52
34.984,-227.66
35.000,-236.39
35.015,-246.52
35.031,-259.62
35.046,-275.96
35.062,-294.1
35.078,-311.27
35.093,-324.57
35.109,-332.19
35.125,-334.27
35.140,-332.84
35.156,-331.06
35.171,-332.33
35.187,-339.62
35.203,-355.11
35.218,-379.67
35.234,-412.17
35.250,-448.84
35.265,-483.1
35.281,-506.85
35.296,-512.79
35.312,-497.1
35.328,-460.93
35.343,-409.92
35.359,-351.85
35.375,-293.72
35.390,-239.77
35.406,-191.05
35.421,-146.78
35.437,-105.93
35.453,-68.14
35.468,-33.56
35.484,-2.05
35.500,27.59
35.515,57.76
35.531,91.24
35.546,130.33
35.562,175.89
35.578,226.52
35.593,278.69
35.609,327.62
35.625,368.8
35.640,399.37
35.656,418.85
35.671,428.52
35.687,430.07
35.703,424.33
35.718,410.62
35.734,387.42
35.750,353.59
35.765,309.38
35.781,256.67
35.796,198.25
35.812,137.09
35.828,76.14
35.843,18.58
35.859,-31.96
35.875,-71.63
35.890,-97.47
35.906,-108.64
35.921,-107.09
35.937,-97.09
35.953,-83.99
35.968,-72.55
35.984,-65.71
36.000,-64.67
36.015,-69.3
36.031,-79.28
36.046,-94.2
36.062,-112.81
36.078,-132.2
36.093,-148.08
36.109,-156.05
36.125,-153.71
36.140,-142.0
36.156,-124.54
36.171,-105.75
36.187,-88.91
36.203,-74.91
36.218,-62.99
36.234,-51.99
36.250,-40.72
36.265,-27.28
36.281,-7.98
36.296,22.45
36.312,68.21
36.328,129.05
36.343,198.28
36.359,263.53
36.375,311.22
36.390,331.74
36.406,322.94
36.421,289.86
36.437,241.69
36.453,187.91
36.468,135.85
36.484,90.76
36.500,56.38
36.515,35.86
36.531,31.06
36.546,41.03
36.562,60.94
36.578,82.39
36.593,95.46
36.609,92.52
36.625,71.72
36.640,38.41
36.656,3.67
36.671,-19.77
36.687,-22.68
36.703,-3.26
36.718,32.08
36.734,70.85
36.750,99.15
36.765,106.62
36.781,89.53
36.796,51.13
36.812,-1.0
36.828,-58.79
36.843,-116.62
36.859,-172.79
36.875,-229.0
36.890,-288.46
36.906,-353.56
36.921,-423.95
36.937,-495.57
36.953,-561.38
36.968,-613.63
36.984,-646.37
37.000,-657.51
37.015,-649.25
37.031,-626.81
37.046,-596.07
37.062,-561.26
37.078,-523.98
37.093,-483.9
37.109,-440.54
37.125,-394.74
37.140,-348.77
37.156,-304.99
37.171,-263.96
37.187,-223.31
37.203,-178.37
37.218,-124.35
37.234,-58.82
37.250,16.51
37.265,95.68
37.281,169.92
37.296,230.37
37.312,270.35
37.328,286.81
37.343,279.99
37.359,252.1
37.375,206.45
37.390,147.44
37.406,81.21
37.421,15.51
37.437,-41.6
37.453,-84.3
37.468,-111.05
37.484,-124.58
37.500,-129.81
37.515,-130.4
37.531,-126.62
37.546,-115.65
37.562,-93.99
37.578,-60.44
37.593,-17.37
37.609,30.2
37.625,77.2
37.640,120.55
37.656,159.67
37.671,194.97
37.687,226.43
37.703,253.07
37.718,273.54
37.734,287.66
37.750,297.01
37.765,304.64
37.781,313.94
37.796,327.76
37.812,347.57
37.828,373.38
37.843,403.45
37.859,434.11
37.875,460.04
37.890,475.71
37.906,477.68
37.921,466.51
37.937,447.1
37.953,426.39
37.968,409.87
37.984,398.84
38.000,390.1
38.015,378.69
38.031,361.85
38.046,341.29
38.062,322.28
38.078,309.64
38.093,303.71
38.109,298.67
38.125,284.89
38.140,253.74
38.156,201.97
38.171,133.14
38.187,55.8
38.203,-20.7
38.218,-90.39
38.234,-152.14
38.250,-208.18
38.265,-260.81
38.281,-309.73
38.296,-351.31
38.312,-380.06
38.328,-390.96
38.343,-381.47
38.359,-352.35
38.375,-307.03
38.390,-250.41
38.406,-187.48
38.421,-122.88
38.437,-60.66
38.453,-4.25
38.468,43.79
38.484,82.3
38.500,111.94
38.515,135.45
38.531,156.99
38.546,180.65
38.562,208.64
38.578,239.81
38.593,269.59
38.609,291.4
38.625,299.37
38.640,291.2
38.656,269.57
38.671,241.23
38.687,214.48
38.703,196.14
38.718,189.72
38.734,195.32
38.750,210.75
38.765,232.73
38.781,257.93
38.796,282.9
38.812,303.59
38.828,315.43
38.843,314.08
38.859,296.67
38.875,262.48
38.890,213.16
38.906,152.15
38.921,83.63
38.937,11.4
38.953,-61.89
38.968,-134.59
38.984,-205.57
39.000,-273.43
39.015,-336.07
39.031,-390.65
39.046,-434.43
39.062,-465.68
39.078,-484.48
39.093,-492.91
39.109,-494.27
39.125,-491.83
39.140,-487.84
39.156,-482.92
39.171,-476.22
39.187,-466.31
39.203,-451.82
39.218,-432.24
39.234,-407.99
39.250,-380.03
39.265,-349.1
39.281,-315.03
39.296,-276.66
39.312,-233.13
39.328,-185.77
39.343,-139.38
39.359,-101.45
39.375,-79.32
39.390,-76.63
39.406,-91.39
39.421,-116.38
39.437,-142.0
39.453,-159.48
39.468,-162.51
39.484,-147.57
39.500,-113.24
39.515,-60.08
39.531,8.45
39.546,85.0
39.562,159.13
39.578,220.44
39.593,262.26
39.609,284.01
39.625,290.38
39.640,287.72
39.656,280.06
39.671,267.64
39.687,247.79
39.703,217.88
39.718,178.04
39.734,131.58
39.750,83.57
39.765,38.41
39.781,-1.96
39.796,-38.23
39.812,-72.24
39.828,-105.19
39.843,-136.54
39.859,-164.18
39.875,-185.71
39.890,-199.98
39.906,-207.97
39.921,-212.4
39.937,-216.47
39.953,-222.14
39.968,-229.06
39.984,-234.99
40.000,-237.13
40.015,-233.74
40.031,-224.9
40.046,-212.45
40.062,-199.19
40.078,-187.85
40.093,-180.47
40.109,-178.03
40.125,-180.57
40.140,-187.17
40.156,-196.28
40.171,-205.94
40.187,-214.45
40.203,-220.85
40.218,-224.85
40.234,-226.2
40.250,-223.89
40.265,-215.91
40.281,-199.82
40.296,-173.99
40.312,-138.38
40.328,-94.58
40.343,-45.0
40.359,8.07
40.375,62.59
40.390,116.19
40.406,165.27
40.421,205.13
40.437,231.14
40.453,240.72
40.468,234.74
40.484,217.45
40.500,194.83
40.515,172.34
40.531,153.36
40.546,138.86
40.562,128.43
40.578,121.48
40.593,117.85
40.609,117.73
40.625,121.29
40.640,128.18
40.656,137.35
40.671,147.2
40.687,155.88
40.703,161.9
40.718,164.56
40.734,164.2
40.750,162.01
40.765,159.41
40.781,157.45
40.796,156.29
40.812,155.37
40.828,153.7
40.843,150.44
40.859,145.16
40.875,137.58
40.890,127.68
40.906,115.57
40.921,101.84
40.937,87.83
40.953,75.49
40.968,66.72
40.984,62.44
41.000,61.96
41.015,63.01
41.031,62.67
41.046,58.4
41.062,49.1
41.078,35.45
41.093,19.88
41.109,6.25
41.125,-0.73
41.140,3.49
41.156,21.61
41.171,52.68
41.187,91.13
41.203,127.47
41.218,150.81
41.234,152.52
41.250,129.28
41.265,84.32
41.281,26.23
41.296,-34.17
41.312,-87.32
41.328,-127.69
41.343,-154.47
41.359,-170.42
41.375,-179.85
41.390,-186.44
41.406,-192.31
41.421,-197.95
41.437,-203.2
41.453,-208.03
41.468,-213.07
41.484,-219.28
41.500,-227.15
41.515,-235.79
41.531,-242.63
41.546,-243.96
41.562,-236.11
41.578,-216.92
41.593,-186.49
41.609,-147.09
41.625,-102.17
41.640,-54.81
41.656,-6.56
41.671,42.56
41.687,92.86
41.703,143.0
41.718,189.27
41.734,226.73
41.750,251.77
41.765,264.49
41.781,269.11
41.796,271.69
41.812,276.79
41.828,285.09
41.843,293.65
41.859,298.34
41.875,296.5
41.890,288.45
41.906,276.81
41.921,264.65
41.937,254.0
41.953,245.51
41.968,239.18
41.984,235.28
42.000,234.37
42.015,236.47
42.031,240.17
42.046,242.7
42.062,240.64
42.078,231.16
42.093,212.73
42.109,185.21
42.125,149.74
42.140,108.13
42.156,62.7
42.171,15.99
42.187,-29.22
42.203,-70.03
42.218,-103.59
42.234,-127.54
42.250,-140.93
42.265,-145.06
42.281,-143.84
42.296,-142.83
42.312,-147.25
42.328,-159.7
42.343,-178.79
42.359,-199.59
42.375,-215.93
42.390,-223.2
42.406,-220.23
42.421,-209.19
42.437,-193.6
42.453,-176.14
42.468,-157.62
42.484,-137.7
42.500,-116.44
42.515,-95.27
42.531,-76.21
42.546,-59.81
42.562,-43.97
42.578,-24.45
42.593,2.21
42.609,35.4
42.625,69.27
42.640,95.06
42.656,105.82
42.671,100.8
42.687,86.3
42.703,72.43
42.718,67.61
42.734,74.34
42.750,88.5
42.765,102.67
42.781,110.93
42.796,111.88
42.812,108.52
42.828,105.21
42.843,104.36
42.859,105.01
42.875,104.09
42.890,99.23
42.906,90.9
42.921,81.87
42.937,75.2
42.953,71.68
42.968,68.91
42.984,62.71
43.000,49.42
43.015,27.96
43.031,0.27
43.046,-29.78
43.062,-58.52
43.078,-84.09
43.093,-106.76
43.109,-128.28
43.125,-150.48
43.140,-174.21
43.156,-198.78
43.171,-222.05
43.187,-241.04
43.203,-252.85
43.218,-255.52
43.234,-248.66
43.250,-233.54
43.265,-212.52
43.281,-188.13
43.296,-162.41
43.312,-136.69
43.328,-111.74
43.343,-88.09
43.359,-66.11
43.375,-46.03
43.390,-28.2
43.406,-13.05
43.421,-1.12
43.437,7.44
43.453,13.14
43.468,17.05
43.484,20.53
43.500,24.58
43.515,29.45
43.531,34.46
43.546,38.36
43.562,39.76
43.578,37.81
43.593,32.46
43.609,24.42
43.625,14.59
43.640,3.69
43.656,-7.97
43.671,-19.65
43.687,-29.44
43.703,-34.36
43.718,-31.56
43.734,-20.53
43.750,-4.4
43.765,10.66
43.781,18.43
43.796,16.07
43.812,6.22
43.828,-4.46
43.843,-9.0
43.859,-4.13
43.875,8.72
43.890,25.24
43.906,41.79
43.921,57.52
43.937,73.66
43.953,90.76
43.968,106.45
43.984,115.79
44.000,114.16
44.015,100.63
44.031,79.21
44.046,57.04
44.062,41.1
44.078,35.0
44.093,37.72
44.109,44.8
44.125,50.49
44.140,50.2
44.156,41.99
44.171,27.14
44.187,9.48
44.203,-6.0
44.218,-15.04
44.234,-15.79
44.250,-9.43
44.265,0.77
44.281,11.22
44.296,19.67
44.312,26.22
44.328,32.63
44.343,40.97
44.359,52.29
44.375,66.2
44.390,81.27
44.406,95.92
44.421,109.07
44.437,119.96
44.453,127.86
44.468,131.54
44.484,129.44
44.500,120.31
44.515,104.44
44.531,84.35
44.546,64.32
44.562,48.91
44.578,41.15
44.593,41.46
44.609,47.79
44.625,56.82
44.640,65.4
44.656,71.66
44.671,75.33
44.687,77.17
44.703,78.33
44.718,79.84
44.734,82.48
44.750,86.77
44.765,93.21
44.781,102.19
44.796,114.0
44.812,128.79
44.828,146.53
44.843,166.46
44.859,186.64
44.875,203.76
44.890,213.69
44.906,212.97
44.921,200.37
44.937,177.34
44.953,147.02
44.968,112.46
44.984,74.98
45.000,33.64
45.015,-13.62
45.031,-67.66
45.046,-126.24
45.062,-183.75
45.078,-232.42
45.093,-264.7
45.109,-275.27
45.125,-262.19
45.140,-226.74
45.156,-172.44
45.171,-104.04
45.187,-27.17
45.203,51.95
45.218,126.7
45.234,190.87
45.250,239.77
45.265,271.28
45.281,286.06
45.296,286.67
45.312,276.05
45.328,255.96
45.343,226.16
45.359,184.87
45.375,129.93
45.390,60.21
45.406,-23.34
45.421,-117.12
45.437,-215.33
45.453,-310.85
45.468,-396.44
45.484,-465.57
45.500,-513.36
45.515,-536.89
45.531,-535.22
45.546,-509.35
45.562,-462.65
45.578,-401.27
45.593,-333.97
45.609,-271.01
45.625,-221.91
45.640,-193.02
45.656,-186.11
45.671,-198.51
45.687,-224.81
45.703,-259.02
45.718,-296.07
45.734,-331.74
45.750,-361.97
45.765,-382.23
45.781,-388.07
45.796,-376.65
45.812,-348.55
45.828,-308.36
45.843,-263.25
45.859,-220.11
45.875,-182.66
45.890,-150.09
45.906,-117.91
45.921,-80.54
45.937,-34.34
45.953,20.39
45.968,79.18
45.984,135.28
46.000,182.07
46.015,215.23
46.031,233.84
46.046,240.1
46.062,238.41
46.078,233.94
46.093,231.07
46.109,232.09
46.125,236.51
46.140,241.41
46.156,243.17
46.171,239.45
46.187,230.51
46.203,219.08
46.218,208.75
46.234,201.88
46.250,198.29
46.265,195.68
46.281,191.28
46.296,184.01
46.312,175.09
46.328,167.17
46.343,162.25
46.359,160.01
46.375,157.71
46.390,151.71
46.406,139.64
46.421,121.68
46.437,100.45
46.453,79.46
46.468,61.36
46.484,46.95
46.500,35.2
46.515,24.39
46.531,13.23
46.546,1.49
46.562,-10.3
46.578,-21.38
46.593,-31.26
46.609,-39.66
46.625,-46.29
46.640,-50.65
46.656,-52.19
46.671,-50.47
46.687,-45.46
46.703,-37.49
46.718,-26.9
46.734,-13.77
46.750,2.05
46.765,20.52
46.781,40.95
46.796,61.64
46.812,80.14
46.828,93.92
46.843,101.22
46.859,101.61
46.875,95.99
46.890,85.95
46.906,73.18
46.921,58.82
46.937,43.51
46.953,27.69
46.968,11.88
46.984,-3.17
47.000,-16.67
47.015,-28.11
47.031,-37.3
47.046,-44.51
47.062,-50.2
47.078,-54.89
47.093,-58.9
47.109,-62.23
47.125,-64.6
47.140,-65.54
47.156,-64.72
47.171,-62.19
47.187,-58.55
47.203,-54.89
47.218,-52.37
47.234,-51.78
47.250,-52.92
47.265,-54.66
47.281,-55.34
47.296,-53.57
47.312,-49.06
47.328,-42.71
47.343,-36.07
47.359,-30.4
47.375,-26.01
47.390,-22.22
47.406,-18.1
47.421,-13.47
47.437,-9.25
47.453,-7.23
47.468,-9.0
47.484,-15.23
47.500,-25.3
47.515,-37.74
47.531,-50.79
47.546,-62.79
47.562,-72.34
47.578,-78.49
47.593,-81.24
47.609,-82.06
47.625,-83.81
47.640,-89.52
47.656,-100.54
47.671,-115.21
47.687,-129.01
47.703,-136.45
47.718,-133.61
47.734,-119.86
47.750,-97.35
47.765,-69.21
47.781,-37.45
47.796,-2.26
47.812,36.69
47.828,78.53
47.843,120.0
47.859,156.17
47.875,182.42
47.890,196.48
47.906,199.19
47.921,193.68
47.937,183.59
47.953,171.53
47.968,158.71
47.984,145.25
48.000,131.02
48.015,116.14
48.031,100.97
48.046,85.9
48.062,71.07
48.078,56.47
48.093,42.1
48.109,28.33
48.125,16.03
48.140,6.45
48.156,0.94
48.171,0.25
48.187,4.02
48.203,10.55
48.218,17.29
48.234,21.9
48.250,23.43
48.265,22.97
48.281,23.31
48.296,27.77
48.312,38.62
48.328,55.82
48.343,76.82
48.359,97.33
48.375,112.66
48.390,119.3
48.406,116.02
48.421,104.76
48.437,90.44
48.453,79.73
48.468,78.77
48.484,90.52
48.500,113.0
48.515,139.4
48.531,160.29
48.546,167.05
48.562,154.65
48.578,122.87
48.593,75.54
48.609,18.56
48.625,-41.79
48.640,-99.7
48.656,-149.8
48.671,-186.94
48.687,-206.46
48.703,-205.15
48.718,-182.25
48.734,-139.88
48.750,-82.28
48.765,-14.59
48.781,58.01
48.796,130.57
48.812,197.92
48.828,254.51
48.843,294.81
48.859,314.53
48.875,312.04
48.890,289.06
48.906,250.21
48.921,201.31
48.937,147.88
48.953,93.93
48.968,42.08
48.984,-5.73
49.000,-47.6
49.015,-81.89
49.031,-108.15
49.046,-127.82
49.062,-144.35
49.078,-161.94
49.093,-184.02
49.109,-211.82
49.125,-243.87
49.140,-276.46
49.156,-304.76
49.171,-324.34
49.187,-332.4
49.203,-328.5
49.218,-314.79
49.234,-295.26
49.250,-274.66
49.265,-256.79
49.281,-242.89
49.296,-230.82
49.312,-215.77
49.328,-192.45
49.343,-158.14
49.359,-114.87
49.375,-69.67
49.390,-32.59
49.406,-13.26
49.421,-17.85
49.437,-47.24
49.453,-96.94
49.468,-158.41
49.484,-220.97
49.500,-273.44
49.515,-305.81
49.531,-310.73
49.546,-284.66
49.562,-229.11
49.578,-150.7
49.593,-60.26
49.609,29.07
49.625,104.22
49.640,154.49
49.656,173.58
49.671,161.05
49.687,123.26
49.703,72.61
49.718,24.86
49.734,-5.37
49.750,-9.5
49.765,11.78
49.781,48.87
49.796,87.02
49.812,111.9
49.828,114.97
49.843,95.46
49.859,58.98
49.875,13.64
49.890,-34.26
49.906,-82.58
49.921,-133.04
49.937,-188.53
49.953,-249.83
49.968,-313.37
49.984,-371.51
50.000,-414.88
50.015,-435.96
50.031,-432.27
50.046,-407.27
50.062,-369.04
50.078,-326.88
50.093,-287.53
50.109,-253.03
50.125,-221.15
50.140,-187.68
50.156,-149.29
50.171,-105.25
50.187,-57.01
50.203,-6.65
50.218,44.68
50.234,97.42
50.250,152.72
50.265,210.86
50.281,270.41
50.296,328.45
50.312,381.31
50.328,425.7
50.343,459.0
50.359,478.9
50.375,483.2
50.390,470.0
50.406,438.54
50.421,390.32
50.437,329.43
50.453,262.0
50.468,194.78
50.484,133.74
50.500,83.15
50.515,45.43
50.531,21.36
50.546,10.19
50.562,9.38
50.578,14.55
50.593,20.27
50.609,21.68
50.625,16.27
50.640,4.79
50.656,-9.5
50.671,-22.69
50.687,-32.14
50.703,-37.36
50.718,-39.7
50.734,-40.93
50.750,-41.95
50.765,-42.39
50.781,-41.34
50.796,-38.38
50.812,-34.21
50.828,-30.33
50.843,-28.12
50.859,-27.99
50.875,-29.35
50.890,-31.35
50.906,-33.85
50.921,-37.93
50.937,-45.27
50.953,-56.88
50.968,-71.78
50.984,-86.68
51.000,-97.0
51.015,-98.92
51.031,-91.33
51.046,-76.56
51.062,-59.37
51.078,-44.68
51.093,-35.24
51.109,-30.41
51.125,-26.93
51.140,-20.72
51.156,-9.02
51.171,8.56
51.187,30.3
51.203,53.53
51.218,75.82
51.234,95.59
51.250,112.07
51.265,124.8
51.281,133.31
51.296,137.09
51.312,135.8
51.328,129.6
51.343,119.13
51.359,105.44
51.375,89.85
51.390,73.82
51.406,58.68
51.421,45.38
51.437,34.27
51.453,25.0
51.468,16.97
51.484,9.85
51.500,4.01
51.515,0.44
51.531,0.1
51.546,3.06
51.562,8.17
51.578,13.62
51.593,17.87
51.609,20.84
51.625,23.95
51.640,29.28
51.656,38.09
51.671,49.72
51.687,61.63
51.703,70.48
51.718,73.77
51.734,70.71
51.750,62.2
51.765,49.92
51.781,35.5
51.796,20.19
51.812,5.06
51.828,-8.62
51.843,-19.46
51.859,-26.5
51.875,-29.99
51.890,-31.69
51.906,-34.31
51.921,-40.2
51.937,-49.96
51.953,-61.89
51.968,-72.72
51.984,-79.71
52.000,-82.66
52.015,-84.6
52.031,-90.24
52.046,-103.17
52.062,-123.26
52.078,-145.9
52.093,-163.88
52.109,-170.7
52.125,-163.4
52.140,-143.42
52.156,-114.76
52.171,-81.19
52.187,-43.95
52.203,-1.6
52.218,48.2
52.234,106.21
52.250,170.12
52.265,234.91
52.281,294.8
52.296,345.27
52.312,384.38
52.328,412.22
52.343,429.35
52.359,435.14
52.375,427.12
52.390,401.66
52.406,355.83
52.421,289.59
52.437,207.21
52.453,116.81
52.468,28.49
52.484,-48.65
52.500,-108.66
52.515,-149.78
52.531,-173.98
52.546,-185.45
52.562,-189.06
52.578,-189.09
52.593,-188.56
52.609,-189.08
52.625,-191.1
52.640,-194.32
52.656,-198.17
52.671,-202.09
52.687,-205.5
52.703,-207.36
52.718,-205.41
52.734,-195.85
52.750,-173.94
52.765,-135.99
52.781,-81.53
52.796,-14.99
52.812,55.24
52.828,119.96
52.843,172.76
52.859,212.1
52.875,240.52
52.890,261.79
52.906,278.0
52.921,288.28
52.937,289.48
52.953,278.25
52.968,252.71
52.984,212.76
53.000,159.64
53.015,95.56
53.031,23.97
53.046,-49.4
53.062,-116.29
53.078,-167.0
53.093,-192.97
53.109,-189.8
53.125,-158.85
53.140,-106.93
53.156,-44.06
53.171,19.4
53.187,75.18
53.203,118.31
53.218,147.29
53.234,163.61
53.250,170.78
53.265,173.05
53.281,174.33
53.296,176.97
53.312,180.79
53.328,183.06
53.343,179.58
53.359,166.81
53.375,143.95
53.390,113.67
53.406,81.01
53.421,50.91
53.437,25.78
53.453,4.76
53.468,-14.9
53.484,-35.43
53.500,-56.75
53.515,-76.6
53.531,-92.68
53.546,-104.91
53.562,-116.33
53.578,-131.47
53.593,-153.39
53.609,-181.32
53.625,-210.43
53.640,-233.98
53.656,-246.62
53.671,-246.68
53.687,-236.43
53.703,-220.2
53.718,-201.97
53.734,-183.72
53.750,-165.37
53.765,-145.89
53.781,-124.68
53.796,-102.28
53.812,-80.0
53.828,-59.23
53.843,-40.54
53.859,-23.48
53.875,-6.86
53.890,10.6
53.906,29.6
53.921,49.78
53.937,69.61
53.953,87.02
53.968,100.12
53.984,108.06
54.000,111.4
54.015,111.75
54.031,110.78
54.046,109.42
54.062,107.61
54.078,104.64
54.093,99.88
54.109,93.09
54.125,84.31
54.140,73.2
54.156,58.76
54.171,39.6
54.187,14.91
54.203,-14.23
54.218,-44.17
54.234,-69.15
54.250,-83.13
54.265,-82.14
54.281,-66.25
54.296,-39.68
54.312,-9.3
54.328,18.13
54.343,38.33
54.359,50.89
54.375,58.61
54.390,65.34
54.406,73.62
54.421,83.15
54.437,91.16
54.453,94.06
54.468,89.41
54.484,76.96
54.500,58.67
54.515,37.55
54.531,16.47
54.546,-2.69
54.562,-19.08
54.578,-32.16
54.593,-40.95
54.609,-43.68
54.625,-38.28
54.640,-23.54
54.656,-0.32
54.671,27.95
54.687,56.01
54.703,78.38
54.718,91.13
54.734,92.73
54.750,84.13
54.765,67.67
54.781,45.8
54.796,20.34
54.812,-7.33
54.828,-35.57
54.843,-62.07
54.859,-84.13
54.875,-99.32
54.890,-105.95
54.906,-103.56
54.921,-93.14
54.937,-76.89
54.953,-58.27
54.968,-41.62
54.984,-31.33
55.000,-30.84
55.015,-41.71
55.031,-63.51
55.046,-94.15
55.062,-130.39
55.078,-167.95
55.093,-201.08
55.109,-222.79
55.125,-226.37
55.140,-208.22
55.156,-170.41
55.171,-121.19
55.187,-72.29
55.203,-33.72
55.218,-9.36
55.234,4.25
55.250,14.96
55.265,29.53
55.281,49.05
55.296,68.22
55.312,78.65
55.328,74.27
55.343,55.2
55.359,27.6
55.375,0.04
55.390,-21.26
55.406,-35.33
55.421,-46.34
55.437,-60.2
55.453,-80.85
55.468,-107.98
55.484,-137.38
55.500,-163.75
55.515,-183.37
55.531,-194.88
55.546,-197.97
55.562,-191.72
55.578,-173.96
55.593,-142.37
55.609,-96.22
55.625,-37.71
55.640,27.62
55.656,92.76
55.671,151.4
55.687,199.81
55.703,237.55
55.718,266.48
55.734,289.03
55.750,306.44
55.765,317.99
55.781,321.47
55.796,314.94
55.812,298.47
55.828,274.83
55.843,248.77
55.859,224.81
55.875,204.77
55.890,186.78
55.906,166.46
55.921,139.41
55.937,104.14
55.953,62.72
55.968,19.04
55.984,-23.33
56.000,-62.41
56.015,-97.75
56.031,-129.06
56.046,-155.2
56.062,-174.56
56.078,-186.28
56.093,-191.83
56.109,-195.02
56.125,-200.52
56.140,-212.0
56.156,-230.73
56.171,-255.64
56.187,-284.17
56.203,-313.87
56.218,-343.28
56.234,-372.0
56.250,-400.04
56.265,-426.74
56.281,-450.01
56.296,-466.33
56.312,-471.4
56.328,-461.32
56.343,-434.36
56.359,-391.59
56.375,-337.3
56.390,-277.98
56.406,-220.93
56.421,-172.76
56.437,-138.09
56.453,-118.82
56.468,-114.11
56.484,-120.62
56.500,-133.2
56.515,-145.65
56.531,-151.54
56.546,-145.1
56.562,-122.37
56.578,-82.62
56.593,-29.44
56.609,29.43
56.625,84.55
56.640,128.34
56.656,158.73
56.671,180.1
56.687,200.71
56.703,228.43
56.718,266.26
56.734,310.16
56.750,350.17
56.765,374.54
56.781,374.74
56.796,349.12
56.812,302.81
56.828,244.74
56.843,185.36
56.859,134.18
56.875,98.33
56.890,82.0
56.906,86.22
56.921,109.33
56.937,148.31
56.953,197.85
56.968,248.55
56.984,289.34
57.000,310.33
57.015,306.11
57.031,277.41
57.046,230.35
57.062,173.91
57.078,117.36
57.093,65.69
57.109,16.23
57.125,-37.56
57.140,-101.86
57.156,-178.61
57.171,-264.48
57.187,-353.08
57.203,-437.93
57.218,-512.69
57.234,-555.14
57.250,-547.73
57.265,-485.77
57.281,-382.47
57.296,-261.51
57.312,-143.58
57.328,-40.85
57.343,36.42
57.359,92.41
57.375,130.07
57.390,147.38
57.406,141.95
57.421,114.64
57.437,71.37
57.453,23.0
57.468,-18.22
57.484,-44.68
57.500,-52.13
57.515,-41.96
57.531,-21.6
57.546,0.3
57.562,17.82
57.578,29.93
57.593,41.56
57.609,58.37
57.625,81.49
57.640,112.47
57.656,152.7
57.671,201.74
57.687,258.94
57.703,323.64
57.718,394.36
57.734,469.89
57.750,544.84
57.765,606.77
57.781,646.17
57.796,660.09
57.812,651.79
57.828,630.73
57.843,609.07
57.859,580.78
57.875,542.35
57.890,510.39
57.906,480.86
57.921,436.69
57.937,370.39
57.953,283.19
57.968,183.48
57.984,82.59
58.000,-9.72
58.015,-85.36
58.031,-141.54
58.046,-182.81
58.062,-212.48
58.078,-230.95
58.093,-238.45
58.109,-236.08
58.125,-226.49
58.140,-213.74
58.156,-200.16
58.171,-187.7
58.187,-180.17
58.203,-178.55
58.218,-181.29
58.234,-187.27
58.250,-196.3
58.265,-208.8
58.281,-225.53
58.296,-245.58
58.312,-267.74
58.328,-292.37
58.343,-318.52
58.359,-344.39
58.375,-369.31
58.390,-394.21
58.406,-421.23
58.421,-452.22
58.437,-486.16
58.453,-518.67
58.468,-543.22
58.484,-551.96
58.500,-539.0
58.515,-503.76
58.531,-451.63
58.546,-391.89
58.562,-334.17
58.578,-285.0
58.593,-246.85
58.609,-219.3
58.625,-200.53
58.640,-188.93
58.656,-183.72
58.671,-184.23
58.687,-188.95
58.703,-195.23
58.718,-199.79
58.734,-199.85
58.750,-194.16
58.765,-183.22
58.781,-168.95
58.796,-153.58
58.812,-138.79
58.828,-125.24
58.843,-112.56
58.859,-100.02
58.875,-87.08
58.890,-73.9
58.906,-61.39
58.921,-50.69
58.937,-42.57
58.953,-36.84
58.968,-32.1
58.984,-26.17
59.000,-16.72
59.015,-2.21
59.031,17.62
59.046,41.61
59.062,67.71
59.078,93.77
59.093,118.43
59.109,141.59
59.125,164.35
59.140,188.41
59.156,215.23
59.171,245.32
59.187,277.97
59.203,311.67
59.218,344.54
59.234,375.19
59.250,403.17
59.265,428.92
59.281,453.56
59.296,478.86
59.312,507.06
59.328,540.42
59.343,580.08
59.359,624.47
59.375,668.24
59.390,702.89
59.406,718.98
59.421,709.7
59.437,673.7
59.453,615.76
59.468,544.84
59.484,470.42
59.500,399.17
59.515,333.46
59.531,272.23
59.546,213.2
59.562,154.82
59.578,97.27
59.593,41.71
59.609,-10.94
59.625,-60.7
59.640,-108.52
59.656,-155.58
59.671,-202.47
59.687,-249.19
59.703,-295.57
59.718,-342.29
59.734,-391.18
59.750,-444.16
59.765,-501.62
59.781,-560.75
59.796,-615.15
59.812,-656.51
59.828,-677.57
59.843,-675.11
59.859,-651.2
59.875,-612.31
59.890,-566.48
59.906,-520.23
59.921,-476.82
59.937,-436.24
59.953,-396.72
59.968,-356.55
59.984,-315.33
