timestamp,value
00.000,-2.73
00.015,6.91
00.031,14.62
00.046,19.04
00.062,19.67
00.078,16.86
00.093,11.57
00.109,5.08
00.125,-1.49
00.140,-7.4
00.156,-12.43
00.171,-16.67
00.187,-20.06
00.203,-22.16
00.218,-22.02
00.234,-18.64
00.250,-11.21
00.265,0.38
00.281,15.36
00.296,32.03
00.312,48.2
00.328,61.76
00.343,71.32
00.359,76.3
00.375,76.62
00.390,72.88
00.406,66.15
00.421,57.7
00.437,48.55
00.453,39.42
00.468,30.71
00.484,22.5
00.500,14.65
00.515,6.26
00.531,-3.02
00.546,-12.23
00.562,-19.13
00.578,-21.27
00.593,-17.22
00.609,-7.0
00.625,7.59
00.640,23.82
00.656,38.02
00.671,47.94
00.687,53.72
00.703,57.34
00.718,60.89
00.734,65.22
00.750,69.99
00.765,73.47
00.781,73.82
00.796,68.09
00.812,54.84
00.828,34.89
00.843,11.41
00.859,-11.89
00.875,-32.09
00.890,-47.78
00.906,-60.64
00.921,-64.47
00.937,-59.13
00.953,-51.06
00.968,-49.34
00.984,-58.41
01.000,-76.22
01.015,-97.04
01.031,-114.61
01.046,-125.51
01.062,-128.37
01.078,-124.93
01.093,-117.35
01.109,-107.21
01.125,-95.0
01.140,-81.38
01.156,-70.57
01.171,-60.92
01.187,-51.2
01.203,-40.21
01.218,-27.78
01.234,-13.75
01.250,2.31
01.265,21.47
01.281,44.29
01.296,70.36
01.312,99.02
01.328,128.52
01.343,157.28
01.359,183.24
01.375,204.97
01.390,218.09
01.406,219.85
01.421,208.55
01.437,184.15
01.453,149.01
01.468,106.66
01.484,61.25
01.500,15.94
01.515,-27.59
01.531,-69.12
01.546,-108.57
01.562,-145.96
01.578,-180.98
01.593,-212.77
01.609,-240.9
01.625,-265.09
01.640,-285.17
01.656,-300.56
01.671,-310.21
01.687,-312.67
01.703,-307.56
01.718,-296.27
01.734,-281.58
01.750,-267.23
01.765,-256.54
01.781,-251.26
01.796,-251.29
01.812,-255.09
01.828,-260.19
01.843,-264.29
01.859,-265.79
01.875,-263.92
01.890,-258.74
01.906,-250.67
01.921,-240.06
01.937,-226.99
01.953,-211.38
01.968,-192.97
01.984,-171.9
02.000,-149.01
02.015,-125.72
02.031,-103.8
02.046,-84.69
02.062,-68.89
02.078,-55.79
02.093,-43.95
02.109,-31.89
02.125,-19.13
02.140,-6.67
02.156,3.09
02.171,7.16
02.187,3.3
02.203,-9.0
02.218,-28.28
02.234,-51.34
02.250,-74.23
02.265,-93.07
02.281,-104.35
02.296,-105.21
02.312,-94.34
02.328,-73.34
02.343,-47.43
02.359,-24.58
02.375,-12.68
02.390,-15.84
02.406,-32.1
02.421,-53.91
02.437,-71.84
02.453,-79.4
02.468,-76.16
02.484,-67.36
02.500,-60.6
02.515,-61.4
02.531,-70.58
02.546,-84.59
02.562,-98.16
02.578,-107.13
02.593,-109.74
02.609,-106.05
02.625,-96.37
02.640,-80.13
02.656,-56.07
02.671,-23.29
02.687,17.39
02.703,63.01
02.718,108.7
02.734,149.09
02.750,179.75
02.765,198.23
02.781,204.39
02.796,199.85
02.812,187.19
02.828,168.75
02.843,146.16
02.859,120.36
02.875,92.09
02.890,62.53
02.906,33.53
02.921,7.69
02.937,-12.24
02.953,-24.02
02.968,-26.56
02.984,-20.18
03.000,-6.5
03.015,12.05
03.031,32.76
03.046,53.17
03.062,71.29
03.078,85.68
03.093,95.44
03.109,100.06
03.125,99.4
03.140,93.73
03.156,83.81
03.171,70.91
03.187,56.6
03.203,42.64
03.218,30.69
03.234,22.03
03.250,18.52
03.265,21.05
03.281,29.03
03.296,40.56
03.312,53.24
03.328,64.5
03.343,73.12
03.359,78.4
03.375,79.92
03.390,78.84
03.406,76.39
03.421,73.32
03.437,69.85
03.453,66.27
03.468,62.86
03.484,61.07
03.500,62.3
03.515,67.41
03.531,79.46
03.546,99.85
03.562,127.14
03.578,157.51
03.593,186.58
03.609,210.08
03.625,227.21
03.640,238.38
03.656,244.39
03.671,254.4
03.687,275.14
03.703,307.23
03.718,345.65
03.734,384.11
03.750,415.68
03.765,441.77
03.781,465.17
03.796,487.67
03.812,526.14
03.828,591.27
03.843,680.14
03.859,778.07
03.875,868.13
03.890,933.3
03.906,975.09
03.921,999.77
03.937,1012.97
03.953,1045.1
03.968,1117.37
03.984,1229.12
04.000,1360.74
04.015,1488.43
04.031,1586.95
04.046,1659.24
04.062,1714.41
04.078,1759.2
04.093,1830.93
04.109,1954.3
04.125,2124.57
04.140,2312.9
04.156,2485.72
04.171,2608.26
04.187,2683.42
04.203,2723.37
04.218,2523.74
04.234,1988.68
04.250,1171.57
04.265,247.8
04.281,-601.87
04.296,-1195.33
04.312,-1587.82
04.328,-1843.08
04.343,-2004.15
04.359,-2097.86
04.375,-2122.31
04.390,-2067.72
04.406,-1947.39
04.421,-1793.54
04.437,-1641.39
04.453,-1526.93
04.468,-1461.45
04.484,-1441.01
04.500,-1456.24
04.515,-1468.01
04.531,-1433.1
04.546,-1348.79
04.562,-1234.62
04.578,-1114.6
04.593,-1018.01
04.609,-944.12
04.625,-885.13
04.640,-835.65
04.656,-776.72
04.671,-695.04
04.687,-599.37
04.703,-506.25
04.718,-431.13
04.734,-387.17
04.750,-368.37
04.765,-364.65
04.781,-368.91
04.796,-369.02
04.812,-356.29
04.828,-331.17
04.843,-296.34
04.859,-256.93
04.875,-218.97
04.890,-181.04
04.906,-141.42
04.921,-101.42
04.937,-62.49
04.953,-28.07
04.968,-4.39
04.984,0.94
05.000,-12.79
05.015,-39.3
05.031,-66.22
05.046,-82.92
05.062,-85.27
05.078,-75.76
05.093,-59.92
05.109,-43.5
05.125,-28.49
05.140,-13.85
05.156,2.13
05.171,19.24
05.187,34.94
05.203,46.48
05.218,52.23
05.234,52.71
05.250,49.68
05.265,45.79
05.281,42.74
05.296,40.81
05.312,37.89
05.328,30.34
05.343,15.75
05.359,-6.69
05.375,-32.38
05.390,-56.72
05.406,-75.6
05.421,-90.29
05.437,-100.69
05.453,-108.34
05.468,-116.4
05.484,-126.8
05.500,-140.67
05.515,-156.71
05.531,-172.36
05.546,-185.22
05.562,-194.93
05.578,-203.46
05.593,-209.31
05.609,-215.18
05.625,-224.22
05.640,-240.13
05.656,-263.65
05.671,-291.73
05.687,-317.64
05.703,-333.26
05.718,-331.5
05.734,-309.52
05.750,-270.82
05.765,-213.91
05.781,-147.48
05.796,-84.7
05.812,-36.22
05.828,-4.48
05.843,14.82
05.859,27.49
05.875,37.49
05.890,44.43
05.906,46.99
05.921,44.13
05.937,38.16
05.953,32.5
05.968,30.78
05.984,34.78
06.000,44.47
06.015,58.61
06.031,75.19
06.046,92.08
06.062,105.24
06.078,110.43
06.093,104.39
06.109,86.92
06.125,61.82
06.140,36.62
06.156,20.28
06.171,19.63
06.187,37.08
06.203,69.55
06.218,111.61
06.234,158.07
06.250,205.07
06.265,249.48
06.281,286.36
06.296,308.41
06.312,307.77
06.328,279.97
06.343,226.32
06.359,154.28
06.375,74.47
06.390,-3.02
06.406,-70.32
06.421,-123.07
06.437,-158.7
06.453,-175.13
06.468,-170.16
06.484,-143.09
06.500,-96.16
06.515,-34.75
06.531,33.86
06.546,103.51
06.562,167.36
06.578,217.13
06.593,244.17
06.609,242.98
06.625,214.9
06.640,169.7
06.656,123.62
06.671,94.18
06.687,95.91
06.703,132.26
06.718,194.2
06.734,264.25
06.750,323.48
06.765,358.23
06.781,363.14
06.796,340.71
06.812,284.16
06.828,197.79
06.843,95.38
06.859,-4.52
06.875,-87.37
06.890,-147.61
06.906,-186.88
06.921,-209.77
06.937,-221.02
06.953,-225.16
06.968,-223.93
06.984,-219.33
07.000,-213.86
07.015,-209.29
07.031,-206.31
07.046,-204.27
07.062,-201.76
07.078,-198.21
07.093,-194.85
07.109,-192.5
07.125,-192.69
07.140,-196.03
07.156,-200.6
07.171,-201.96
07.187,-194.96
07.203,-175.67
07.218,-144.49
07.234,-106.97
07.250,-70.65
07.265,-43.02
07.281,-27.93
07.296,-24.54
07.312,-29.25
07.328,-38.18
07.343,-47.76
07.359,-56.34
07.375,-63.79
07.390,-69.8
07.406,-73.5
07.421,-72.26
07.437,-63.66
07.453,-48.18
07.468,-29.74
07.484,-11.26
07.500,5.4
07.515,20.36
07.531,35.8
07.546,55.73
07.562,80.21
07.578,109.96
07.593,142.83
07.609,173.17
07.625,199.14
07.640,221.89
07.656,244.05
07.671,267.05
07.687,289.84
07.703,311.76
07.718,330.87
07.734,343.83
07.750,345.8
07.765,337.93
07.781,323.45
07.796,304.5
07.812,280.01
07.828,229.39
07.843,145.6
07.859,39.38
07.875,-53.25
07.890,-125.05
07.906,-178.64
07.921,-222.51
07.937,-261.94
07.953,-300.81
07.968,-340.02
07.984,-374.15
08.000,-396.74
08.015,-404.07
08.031,-398.78
08.046,-382.68
08.062,-358.02
08.078,-326.82
08.093,-291.18
08.109,-252.7
08.125,-210.71
08.140,-166.4
08.156,-123.94
08.171,-90.55
08.187,-68.34
08.203,-54.36
08.218,-41.47
08.234,-21.83
08.250,10.08
08.265,55.83
08.281,109.46
08.296,158.28
08.312,185.67
08.328,180.97
08.343,143.77
08.359,85.91
08.375,26.61
08.390,-14.08
08.406,-22.11
08.421,4.67
08.437,55.95
08.453,112.88
08.468,156.82
08.484,175.75
08.500,168.89
08.515,144.47
08.531,116.17
08.546,98.45
08.562,101.48
08.578,127.7
08.593,170.48
08.609,216.78
08.625,251.63
08.640,265.63
08.656,256.13
08.671,228.1
08.687,192.39
08.703,162.22
08.718,148.88
08.734,158.28
08.750,189.58
08.765,235.78
08.781,288.67
08.796,337.73
08.812,372.42
08.828,384.73
08.843,371.37
08.859,334.22
08.875,279.38
08.890,215.32
08.906,134.95
08.921,43.32
08.937,-46.75
08.953,-120.76
08.968,-170.55
08.984,-196.63
09.000,-205.44
09.015,-204.84
09.031,-201.03
09.046,-197.32
09.062,-191.26
09.078,-180.01
09.093,-162.35
09.109,-139.19
09.125,-113.04
09.140,-87.56
09.156,-66.86
09.171,-53.0
09.187,-46.55
09.203,-44.26
09.218,-42.44
09.234,-38.12
09.250,-29.54
09.265,-16.11
09.281,1.01
09.296,19.5
09.312,36.24
09.328,48.18
09.343,54.57
09.359,55.63
09.375,52.14
09.390,44.76
09.406,36.29
09.421,27.2
09.437,16.49
09.453,2.08
09.468,-18.02
09.484,-44.01
09.500,-74.8
09.515,-108.59
09.531,-143.06
09.546,-175.39
09.562,-202.62
09.578,-221.47
09.593,-229.64
09.609,-227.28
09.625,-217.5
09.640,-205.98
09.656,-199.06
09.671,-201.17
09.687,-213.02
09.703,-231.73
09.718,-251.67
09.734,-266.54
09.750,-271.67
09.765,-265.67
09.781,-250.87
09.796,-232.52
09.812,-216.65
09.828,-207.43
09.843,-205.52
09.859,-207.67
09.875,-208.54
09.890,-203.21
09.906,-189.51
09.921,-168.23
09.937,-141.22
09.953,-109.34
09.968,-71.41
09.984,-25.83
10.000,26.78
10.015,80.58
10.031,124.65
10.046,146.15
10.062,135.63
10.078,92.17
10.093,25.76
10.109,-44.85
10.125,-99.21
10.140,-122.89
10.156,-113.56
10.171,-81.14
10.187,-42.17
10.203,-11.35
10.218,5.22
10.234,11.34
10.250,16.74
10.265,29.97
10.281,53.65
10.296,84.17
10.312,115.58
10.328,144.67
10.343,173.2
10.359,205.44
10.375,242.95
10.390,281.03
10.406,308.53
10.421,313.12
10.437,289.17
10.453,242.81
10.468,190.83
10.484,153.1
10.500,142.84
10.515,159.75
10.531,191.26
10.546,218.21
10.562,224.37
10.578,203.29
10.593,159.24
10.609,102.52
10.625,42.27
10.640,-17.46
10.656,-77.2
10.671,-136.29
10.687,-190.67
10.703,-232.31
10.718,-251.93
10.734,-243.69
10.750,-208.29
10.765,-152.93
10.781,-88.36
10.796,-24.94
10.812,31.83
10.828,79.18
10.843,115.76
10.859,140.79
10.875,154.48
10.890,159.19
10.906,159.65
10.921,161.7
10.937,157.46
10.953,142.27
10.968,114.67
10.984,77.52
11.000,36.2
11.015,-3.98
11.031,-39.26
11.046,-68.05
11.062,-91.36
11.078,-111.91
11.093,-130.34
11.109,-146.25
11.125,-158.62
11.140,-166.25
11.156,-169.05
11.171,-167.69
11.187,-163.8
11.203,-159.41
11.218,-156.04
11.234,-152.66
11.250,-147.49
11.265,-139.07
11.281,-126.44
11.296,-110.22
11.312,-92.06
11.328,-72.99
11.343,-54.36
11.359,-37.17
11.375,-20.25
11.390,-0.87
11.406,19.75
11.421,41.81
11.437,64.98
11.453,88.68
11.468,113.89
11.484,140.67
11.500,168.34
11.515,196.57
11.531,225.76
11.546,256.9
11.562,291.77
11.578,330.95
11.593,373.36
11.609,417.6
11.625,458.09
11.640,486.34
11.656,494.17
11.671,477.0
11.687,435.46
11.703,375.26
11.718,304.09
11.734,215.53
11.750,115.44
11.765,17.18
11.781,-65.1
11.796,-123.71
11.812,-158.59
11.828,-174.53
11.843,-177.8
11.859,-176.54
11.875,-176.18
11.890,-177.42
11.906,-180.7
11.921,-186.71
11.937,-196.23
11.953,-209.88
11.968,-228.84
11.984,-252.08
12.000,-280.15
12.015,-313.94
12.031,-352.64
12.046,-395.74
12.062,-441.81
12.078,-487.03
12.093,-524.7
12.109,-546.86
12.125,-547.46
12.140,-525.5
12.156,-485.13
12.171,-433.33
12.187,-378.67
12.203,-328.2
12.218,-285.48
12.234,-250.47
12.250,-221.18
12.265,-195.54
12.281,-172.56
12.296,-151.48
12.312,-130.63
12.328,-107.89
12.343,-81.16
12.359,-49.35
12.375,-13.02
12.390,25.67
12.406,63.66
12.421,98.03
12.437,127.44
12.453,152.65
12.468,175.88
12.484,199.46
12.500,224.83
12.515,251.72
12.531,278.56
12.546,302.93
12.562,322.93
12.578,338.07
12.593,349.45
12.609,359.68
12.625,372.18
12.640,390.64
12.656,417.98
12.671,455.2
12.687,499.87
12.703,545.46
12.718,582.14
12.734,599.59
12.750,591.16
12.765,557.14
12.781,505.5
12.796,448.69
12.812,398.49
12.828,360.98
12.843,334.88
12.859,313.68
12.875,289.78
12.890,258.45
12.906,219.0
12.921,173.5
12.937,124.82
12.953,76.01
12.968,31.19
12.984,-3.52
13.000,-20.83
13.015,-15.53
13.031,11.98
13.046,53.59
13.062,95.68
13.078,124.23
13.093,130.54
13.109,114.13
13.125,81.74
13.140,43.23
13.156,6.91
13.171,-23.1
13.187,-46.99
13.203,-67.2
13.218,-86.31
13.234,-105.69
13.250,-125.6
13.265,-145.97
13.281,-166.74
13.296,-188.32
13.312,-211.08
13.328,-235.24
13.343,-260.77
13.359,-287.68
13.375,-316.3
13.390,-347.17
13.406,-380.48
13.421,-415.45
13.437,-449.86
13.453,-480.31
13.468,-503.21
13.484,-516.04
13.500,-518.26
13.515,-511.32
13.531,-497.45
13.546,-478.39
13.562,-454.32
13.578,-424.14
13.593,-386.17
13.609,-339.28
13.625,-283.57
13.640,-221.13
13.656,-156.44
13.671,-96.29
13.687,-48.79
13.703,-21.1
13.718,-16.51
13.734,-32.08
13.750,-58.25
13.765,-82.14
13.781,-91.89
13.796,-81.05
13.812,-49.79
13.828,-3.14
13.843,52.62
13.859,112.22
13.875,172.11
13.890,229.08
13.906,278.98
13.921,316.89
13.937,339.01
13.953,344.6
13.968,336.33
13.984,319.07
14.000,297.06
14.015,274.18
14.031,254.48
14.046,241.98
14.062,239.17
14.078,245.51
14.093,257.53
14.109,270.76
14.125,282.43
14.140,290.53
14.156,295.32
14.171,297.6
14.187,296.42
14.203,287.87
14.218,266.88
14.234,230.83
14.250,182.6
14.265,129.39
14.281,75.54
14.296,22.84
14.312,-28.97
14.328,-80.39
14.343,-131.26
14.359,-180.59
14.375,-226.61
14.390,-267.29
14.406,-301.18
14.421,-332.71
14.437,-366.7
14.453,-405.35
14.468,-447.17
14.484,-488.95
14.500,-528.27
14.515,-564.08
14.531,-595.81
14.546,-594.39
14.562,-542.04
14.578,-441.99
14.593,-318.54
14.609,-199.22
14.625,-99.99
14.640,-24.38
14.656,31.0
14.671,72.15
14.687,104.97
14.703,129.11
14.718,143.44
14.734,148.45
14.750,147.54
14.765,144.95
14.781,143.24
14.796,142.52
14.812,141.4
14.828,138.8
14.843,130.83
14.859,116.19
14.875,98.52
14.890,85.51
14.906,84.67
14.921,99.77
14.937,126.19
14.953,154.89
14.968,176.93
14.984,185.02
15.000,177.77
15.015,159.61
15.031,138.17
15.046,120.02
15.062,108.09
15.078,101.71
15.093,99.0
15.109,98.46
15.125,98.37
15.140,97.67
15.156,96.08
15.171,93.94
15.187,91.79
15.203,89.94
15.218,88.93
15.234,90.3
15.250,95.76
15.265,105.54
15.281,117.29
15.296,126.52
15.312,128.04
15.328,118.4
15.343,98.06
15.359,71.31
15.375,45.45
15.390,27.5
15.406,21.17
15.421,25.77
15.437,37.36
15.453,51.18
15.468,64.03
15.484,75.23
15.500,85.0
15.515,94.09
15.531,102.61
15.546,109.85
15.562,115.01
15.578,118.03
15.593,119.79
15.609,121.66
15.625,125.14
15.640,129.97
15.656,135.15
15.671,139.08
15.687,140.07
15.703,136.84
15.718,128.83
15.734,116.03
15.750,98.05
15.765,80.59
15.781,65.85
15.796,54.65
15.812,46.85
15.828,41.69
15.843,38.38
15.859,36.32
15.875,35.45
15.890,36.12
15.906,38.69
15.921,42.1
15.937,44.94
15.953,45.44
15.968,41.75
15.984,32.72
16.000,18.31
16.015,-0.1
16.031,-19.99
16.046,-38.45
16.062,-54.07
16.078,-66.71
16.093,-77.64
16.109,-89.2
16.125,-103.78
16.140,-122.9
16.156,-146.3
16.171,-172.03
16.187,-197.21
16.203,-219.99
16.218,-240.13
16.234,-259.12
16.250,-279.43
16.265,-302.95
16.281,-330.48
16.296,-360.77
16.312,-391.65
16.328,-421.17
16.343,-448.27
16.359,-471.98
16.375,-490.11
16.390,-499.9
16.406,-498.73
16.421,-487.33
16.437,-469.15
16.453,-448.47
16.468,-427.32
16.484,-403.23
16.500,-369.89
16.515,-320.7
16.531,-255.48
16.546,-182.72
16.562,-120.34
16.578,-86.53
16.593,-91.15
16.609,-129.92
16.625,-185.6
16.640,-235.93
16.656,-262.0
16.671,-256.51
16.687,-222.14
16.703,-170.48
16.718,-113.02
16.734,-57.86
16.750,-8.77
16.765,32.1
16.781,61.09
16.796,74.11
16.812,66.6
16.828,58.05
16.843,66.15
16.859,101.84
16.875,161.11
16.890,229.64
16.906,292.82
16.921,334.83
16.937,358.5
16.953,367.6
16.968,365.99
16.984,353.62
17.000,330.93
17.015,299.85
17.031,263.03
17.046,224.09
17.062,186.68
17.078,153.65
17.093,123.99
17.109,96.41
17.125,66.37
17.140,30.58
17.156,-14.54
17.171,-70.45
17.187,-135.73
17.203,-205.86
17.218,-275.37
17.234,-341.28
17.250,-401.3
17.265,-457.14
17.281,-493.24
17.296,-497.35
17.312,-465.12
17.328,-402.3
17.343,-318.74
17.359,-225.03
17.375,-136.79
17.390,-56.4
17.406,11.79
17.421,64.86
17.437,101.35
17.453,124.77
17.468,133.73
17.484,132.36
17.500,125.6
17.515,116.73
17.531,108.46
17.546,101.14
17.562,95.38
17.578,90.04
17.593,83.73
17.609,75.38
17.625,66.18
17.640,57.33
17.656,49.83
17.671,45.14
17.687,43.4
17.703,44.82
17.718,48.26
17.734,52.59
17.750,56.48
17.765,59.89
17.781,62.55
17.796,64.11
17.812,64.89
17.828,64.43
17.843,62.74
17.859,59.31
17.875,53.99
17.890,46.49
17.906,37.28
17.921,26.58
17.937,14.67
17.953,2.04
17.968,-11.17
17.984,-24.62
18.000,-38.18
18.015,-50.53
18.031,-60.81
18.046,-68.47
18.062,-73.79
18.078,-77.28
18.093,-79.12
18.109,-79.62
18.125,-78.6
18.140,-75.82
18.156,-67.84
18.171,-52.33
18.187,-29.18
18.203,-0.61
18.218,30.64
18.234,62.59
18.250,93.31
18.265,122.48
18.281,149.95
18.296,182.19
18.312,223.49
18.328,273.27
18.343,326.39
18.359,376.81
18.375,420.7
18.390,455.42
18.406,482.34
18.421,503.49
18.437,531.28
18.453,574.11
18.468,631.88
18.484,696.62
18.500,759.13
18.515,814.74
18.531,861.59
18.546,903.72
18.562,943.71
18.578,993.48
18.593,1055.96
18.609,1121.86
18.625,1173.85
18.640,1197.75
18.656,1189.77
18.671,1152.68
18.687,1098.43
18.703,955.09
18.718,695.3
18.734,348.78
18.750,-11.29
18.765,-319.63
18.781,-549.35
18.796,-691.25
18.812,-782.41
18.828,-847.79
18.843,-900.53
18.859,-933.27
18.875,-939.61
18.890,-920.71
18.906,-884.8
18.921,-840.99
18.937,-796.0
18.953,-759.84
18.968,-737.91
18.984,-734.3
19.000,-739.64
19.015,-741.95
19.031,-731.03
19.046,-702.0
19.062,-653.79
19.078,-589.33
19.093,-519.96
19.109,-454.35
19.125,-397.87
19.140,-345.48
19.156,-290.12
19.171,-227.46
19.187,-166.97
19.203,-121.14
19.218,-85.08
19.234,-61.34
19.250,-58.71
19.265,-79.04
19.281,-115.03
19.296,-154.65
19.312,-185.23
19.328,-198.0
19.343,-189.36
19.359,-161.98
19.375,-126.51
19.390,-92.71
19.406,-65.73
19.421,-45.33
19.437,-28.28
19.453,-11.46
19.468,5.74
19.484,22.47
19.500,37.2
19.515,46.86
19.531,50.95
19.546,51.69
19.562,51.53
19.578,52.31
19.593,54.9
19.609,59.57
19.625,66.92
19.640,77.84
19.656,91.71
19.671,107.9
19.687,126.24
19.703,146.2
19.718,167.45
19.734,190.23
19.750,215.13
19.765,243.22
19.781,275.75
19.796,312.98
19.812,354.8
19.828,400.0
19.843,444.78
19.859,482.15
19.875,502.74
19.890,498.0
19.906,465.08
19.921,410.42
19.937,349.21
19.953,300.35
19.968,278.51
19.984,286.77
20.000,315.11
20.015,345.11
20.031,358.72
20.046,346.67
20.062,311.67
20.078,265.01
20.093,219.0
20.109,180.68
20.125,149.34
20.140,119.13
20.156,84.21
20.171,42.2
20.187,-4.03
20.203,-48.5
20.218,-85.54
20.234,-112.6
20.250,-130.49
20.265,-141.89
20.281,-149.4
20.296,-155.51
20.312,-164.39
20.328,-180.58
20.343,-206.86
20.359,-242.07
20.375,-280.21
20.390,-311.09
20.406,-323.39
20.421,-309.29
20.437,-268.94
20.453,-213.95
20.468,-161.11
20.484,-124.84
20.500,-111.8
20.515,-120.14
20.531,-142.53
20.546,-170.39
20.562,-197.51
20.578,-221.91
20.593,-248.43
20.609,-282.57
20.625,-325.92
20.640,-374.88
20.656,-422.86
20.671,-462.82
20.687,-488.52
20.703,-495.83
20.718,-464.86
20.734,-389.34
20.750,-284.77
20.765,-180.81
20.781,-100.73
20.796,-50.72
20.812,-24.29
20.828,-11.4
20.843,-4.32
20.859,1.15
20.875,3.11
20.890,0.56
20.906,-3.65
20.921,-4.7
20.937,-0.94
20.953,3.7
20.968,1.94
20.984,-11.82
21.000,-40.59
21.015,-80.22
21.031,-119.5
21.046,-144.48
21.062,-144.9
21.078,-119.4
21.093,-75.74
21.109,-26.35
21.125,17.35
21.140,48.35
21.156,63.92
21.171,65.45
21.187,57.98
21.203,49.16
21.218,47.42
21.234,60.15
21.250,91.19
21.265,138.87
21.281,194.59
21.296,244.24
21.312,273.48
21.328,273.93
21.343,247.81
21.359,207.37
21.375,170.65
21.390,154.38
21.406,168.18
21.421,211.11
21.437,272.91
21.453,337.89
21.468,389.69
21.484,415.9
21.500,411.41
21.515,380.32
21.531,334.88
21.546,291.72
21.562,264.93
21.578,260.15
21.593,271.82
21.609,285.71
21.625,285.86
21.640,262.13
21.656,214.85
21.671,153.86
21.687,93.34
21.703,44.95
21.718,13.98
21.734,-0.95
21.750,-6.03
21.765,-9.09
21.781,-16.82
21.796,-32.6
21.812,-55.57
21.828,-80.32
21.843,-98.96
21.859,-102.39
21.875,-83.42
21.890,-40.72
21.906,19.21
21.921,83.4
21.937,136.96
21.953,168.7
21.968,174.76
21.984,156.69
22.000,121.93
22.015,80.19
22.031,38.8
22.046,0.37
22.062,-36.24
22.078,-72.76
22.093,-109.01
22.109,-142.95
22.125,-175.99
22.140,-209.46
22.156,-243.75
22.171,-278.42
22.187,-312.88
22.203,-346.07
22.218,-376.11
22.234,-400.83
22.250,-419.84
22.265,-440.06
22.281,-467.68
22.296,-503.7
22.312,-542.87
22.328,-576.05
22.343,-593.03
22.359,-585.57
22.375,-550.02
22.390,-460.55
22.406,-318.71
22.421,-153.03
22.437,-1.56
22.453,112.33
22.468,186.42
22.484,230.55
22.500,256.43
22.515,272.85
22.531,284.66
22.546,289.24
22.562,285.69
22.578,277.15
22.593,269.08
22.609,265.56
22.625,268.39
22.640,276.47
22.656,288.68
22.671,304.64
22.687,320.71
22.703,334.95
22.718,347.14
22.734,356.39
22.750,359.43
22.765,351.72
22.781,330.54
22.796,297.52
22.812,258.14
22.828,216.39
22.843,175.76
22.859,141.52
22.875,117.13
22.890,102.7
22.906,95.63
22.921,92.64
22.937,91.18
22.953,89.42
22.968,83.29
22.984,69.98
23.000,49.32
23.015,23.42
23.031,-4.61
23.046,-32.0
23.062,-56.57
23.078,-77.05
23.093,-93.09
23.109,-108.8
23.125,-127.36
23.140,-149.16
23.156,-171.99
23.171,-192.62
23.187,-208.86
23.203,-219.84
23.218,-225.95
23.234,-228.35
23.250,-233.65
23.265,-246.77
23.281,-268.42
23.296,-295.28
23.312,-322.43
23.328,-346.21
23.343,-364.48
23.359,-376.79
23.375,-383.64
23.390,-392.54
23.406,-409.26
23.421,-435.01
23.437,-466.56
23.453,-499.62
23.468,-531.99
23.484,-563.32
23.500,-595.17
23.515,-588.25
23.531,-522.19
23.546,-402.94
23.562,-259.59
23.578,-123.09
23.593,-10.79
23.609,73.59
23.625,134.35
23.640,176.98
23.656,206.79
23.671,221.83
23.687,221.28
23.703,208.24
23.718,184.57
23.734,158.05
23.750,134.24
23.765,116.21
23.781,103.82
23.796,96.9
23.812,90.72
23.828,82.19
23.843,71.68
23.859,69.85
23.875,78.88
23.890,91.14
23.906,104.21
23.921,114.55
23.937,119.12
23.953,111.9
23.968,88.12
23.984,48.33
24.000,-2.65
24.015,-57.66
24.031,-106.01
24.046,-137.16
24.062,-146.11
24.078,-131.84
24.093,-99.36
24.109,-56.67
24.125,-10.98
24.140,33.69
24.156,74.21
24.171,111.93
24.187,149.02
24.203,185.12
24.218,220.95
24.234,257.63
24.250,295.93
24.265,336.79
24.281,381.37
24.296,427.64
24.312,476.85
24.328,530.95
24.343,573.96
24.359,593.28
24.375,585.22
24.390,554.76
24.406,509.62
24.421,471.18
24.437,432.88
24.453,387.71
24.468,334.33
24.484,276.61
24.500,216.85
24.515,163.44
24.531,122.03
24.546,93.4
24.562,74.58
24.578,57.05
24.593,36.7
24.609,12.48
24.625,-14.93
24.640,-42.84
24.656,-68.51
24.671,-91.61
24.687,-113.25
24.703,-134.41
24.718,-159.79
24.734,-190.27
24.750,-223.89
24.765,-257.06
24.781,-285.28
24.796,-304.84
24.812,-314.83
24.828,-316.14
24.843,-310.22
24.859,-303.3
24.875,-299.77
24.890,-301.13
24.906,-306.67
24.921,-315.04
24.937,-325.92
24.953,-341.13
24.968,-363.2
24.984,-368.32
25.000,-342.19
25.015,-285.34
25.031,-212.03
25.046,-138.52
25.062,-73.94
25.078,-20.18
25.093,23.91
25.109,60.22
25.125,82.81
25.140,91.83
25.156,88.19
25.171,75.22
25.187,58.5
25.203,43.25
25.218,32.1
25.234,23.7
25.250,13.03
25.265,1.6
25.281,-15.61
25.296,-43.32
25.312,-80.9
25.328,-121.12
25.343,-152.81
25.359,-164.99
25.375,-150.59
25.390,-108.36
25.406,-43.07
25.421,33.69
25.437,108.05
25.453,168.26
25.468,206.73
25.484,220.09
25.500,208.65
25.515,176.07
25.531,128.54
25.546,73.72
25.562,17.26
25.578,-37.76
25.593,-90.73
25.609,-142.46
25.625,-193.4
25.640,-242.07
25.656,-285.13
25.671,-318.67
25.687,-340.16
25.703,-350.61
25.718,-353.2
25.734,-351.24
25.750,-346.38
25.765,-338.09
25.781,-324.94
25.796,-306.58
25.812,-284.88
25.828,-263.53
25.843,-246.55
25.859,-235.89
25.875,-230.43
25.890,-226.62
25.906,-220.43
25.921,-209.25
25.937,-192.78
25.953,-172.57
25.968,-150.9
25.984,-129.85
26.000,-110.38
26.015,-92.16
26.031,-74.2
26.046,-55.57
26.062,-35.94
26.078,-15.88
26.093,3.33
26.109,20.26
26.125,33.89
26.140,44.05
26.156,51.38
26.171,57.03
26.187,62.02
26.203,66.82
26.218,71.07
26.234,73.96
26.250,74.8
26.265,73.61
26.281,71.53
26.296,70.72
26.312,73.74
26.328,82.66
26.343,98.32
26.359,119.91
26.375,145.31
26.390,171.78
26.406,197.1
26.421,219.96
26.437,240.14
26.453,258.09
26.468,274.34
26.484,289.17
26.500,303.02
26.515,316.97
26.531,332.41
26.546,350.04
26.562,368.66
26.578,385.12
26.593,395.79
26.609,398.74
26.625,395.18
26.640,388.9
26.656,383.59
26.671,379.55
26.687,371.94
26.703,352.43
26.718,313.57
26.734,253.75
26.750,179.91
26.765,105.95
26.781,48.02
26.796,18.69
26.812,23.25
26.828,59.05
26.843,117.42
26.859,186.8
26.875,255.15
26.890,311.73
26.906,348.57
26.921,361.63
26.937,351.31
26.953,322.5
26.968,283.18
26.984,241.48
27.000,203.08
27.015,169.6
27.031,138.95
27.046,107.43
27.062,72.33
27.078,33.76
27.093,-4.61
27.109,-37.09
27.125,-58.58
27.140,-67.39
27.156,-67.02
27.171,-65.97
27.187,-75.23
27.203,-103.91
27.218,-154.98
27.234,-222.42
27.250,-292.18
27.265,-346.7
27.281,-371.75
27.296,-362.42
27.312,-325.85
27.328,-278.82
27.343,-241.47
27.359,-229.14
27.375,-246.43
27.390,-285.98
27.406,-332.34
27.421,-368.56
27.437,-382.51
27.453,-370.3
27.468,-336.19
27.484,-289.76
27.500,-242.28
27.515,-203.48
27.531,-179.36
27.546,-171.13
27.562,-175.34
27.578,-185.3
27.593,-193.0
27.609,-191.67
27.625,-177.58
27.640,-150.55
27.656,-113.43
27.671,-70.75
27.687,-27.35
27.703,12.24
27.718,44.3
27.734,66.78
27.750,80.0
27.765,87.28
27.781,94.51
27.796,108.77
27.812,135.86
27.828,178.16
27.843,232.89
27.859,292.21
27.875,345.31
27.890,381.95
27.906,395.93
27.921,387.15
27.937,361.23
27.953,326.61
27.968,290.27
27.984,254.66
28.000,217.48
28.015,174.48
28.031,123.79
28.046,69.42
28.062,21.36
28.078,-7.99
28.093,-9.62
28.109,17.04
28.125,62.75
28.140,111.38
28.156,146.11
28.171,155.31
28.187,135.85
28.203,91.86
28.218,31.08
28.234,-38.69
28.250,-110.99
28.265,-179.91
28.281,-238.2
28.296,-277.22
28.312,-289.65
28.328,-272.93
28.343,-231.58
28.359,-176.37
28.375,-120.39
28.390,-74.18
28.406,-42.36
28.421,-22.51
28.437,-6.98
28.453,13.29
28.468,44.69
28.484,87.91
28.500,137.19
28.515,182.29
28.531,211.72
28.546,216.62
28.562,194.61
28.578,150.4
28.593,93.02
28.609,32.33
28.625,-23.95
28.640,-71.54
28.656,-108.29
28.671,-134.19
28.687,-151.88
28.703,-164.07
28.718,-172.52
28.734,-177.91
28.750,-178.7
28.765,-171.15
28.781,-150.2
28.796,-110.6
28.812,-51.92
28.828,17.02
28.843,83.2
28.859,134.06
28.875,160.72
28.890,161.98
28.906,144.8
28.921,121.38
28.937,106.81
28.953,111.44
28.968,134.21
28.984,170.41
29.000,215.74
29.015,266.06
29.031,317.43
29.046,364.75
29.062,400.79
29.078,420.53
29.093,420.25
29.109,394.19
29.125,344.67
29.140,282.66
29.156,220.84
29.171,169.74
29.187,134.88
29.203,95.07
29.218,36.71
29.234,-13.15
29.250,-47.57
29.265,-79.3
29.281,-114.66
29.296,-155.98
29.312,-200.82
29.328,-242.4
29.343,-271.35
29.359,-275.33
29.375,-246.16
29.390,-190.73
29.406,-123.04
29.421,-59.02
29.437,-13.57
29.453,4.33
29.468,-5.53
29.484,-35.66
29.500,-80.37
29.515,-126.78
29.531,-165.21
29.546,-189.87
29.562,-201.85
29.578,-207.6
29.593,-212.67
29.609,-217.52
29.625,-217.54
29.640,-204.55
29.656,-171.11
29.671,-117.37
29.687,-47.49
29.703,30.49
29.718,105.79
29.734,166.58
29.750,203.22
29.765,211.13
29.781,193.13
29.796,158.24
29.812,115.56
29.828,73.03
29.843,35.77
29.859,5.99
29.875,-17.63
29.890,-38.28
29.906,-59.32
29.921,-82.91
29.937,-109.69
29.953,-141.56
29.968,-181.04
29.984,-230.84
30.000,-283.09
30.015,-326.66
30.031,-352.6
30.046,-359.45
30.062,-352.6
30.078,-339.21
30.093,-324.46
30.109,-309.57
30.125,-292.16
30.140,-266.73
30.156,-229.44
30.171,-180.29
30.187,-124.17
30.203,-68.63
30.218,-20.96
30.234,13.55
30.250,36.96
30.265,52.59
30.281,64.4
30.296,74.39
30.312,82.45
30.328,87.57
30.343,89.41
30.359,87.88
30.375,84.02
30.390,79.02
30.406,72.77
30.421,64.49
30.437,52.89
30.453,36.74
30.468,16.13
30.484,-7.07
30.500,-29.92
30.515,-49.41
30.531,-63.41
30.546,-71.7
30.562,-75.48
30.578,-75.75
30.593,-73.24
30.609,-67.93
30.625,-59.0
30.640,-45.09
30.656,-25.31
30.671,0.5
30.687,30.84
30.703,62.0
30.718,90.74
30.734,114.79
30.750,133.12
30.765,145.85
30.781,153.73
30.796,157.59
30.812,158.06
30.828,155.19
30.843,149.2
30.859,140.97
30.875,131.73
30.890,122.94
30.906,115.89
30.921,111.21
30.937,108.62
30.953,107.12
30.968,105.22
30.984,102.0
31.000,97.53
31.015,92.64
31.031,88.47
31.046,86.02
31.062,85.8
31.078,87.95
31.093,92.31
31.109,98.0
31.125,103.24
31.140,105.05
31.156,99.72
31.171,84.47
31.187,59.15
31.203,27.01
31.218,-6.23
31.234,-34.14
31.250,-53.64
31.265,-64.18
31.281,-67.87
31.296,-68.01
31.312,-67.35
31.328,-67.3
31.343,-68.19
31.359,-70.07
31.375,-73.13
31.390,-77.79
31.406,-83.66
31.421,-89.3
31.437,-92.53
31.453,-91.29
31.468,-84.78
31.484,-73.92
31.500,-61.11
31.515,-49.01
31.531,-39.57
31.546,-32.92
31.562,-27.64
31.578,-21.67
31.593,-13.39
31.609,-2.72
31.625,8.98
31.640,19.2
31.656,25.47
31.671,25.74
31.687,19.37
31.703,7.96
31.718,-4.24
31.734,-10.5
31.750,-3.48
31.765,21.84
31.781,65.19
31.796,119.65
31.812,172.98
31.828,212.15
31.843,228.43
31.859,220.51
31.875,194.23
31.890,158.83
31.906,122.36
31.921,88.26
31.937,57.55
31.953,29.08
31.968,1.07
31.984,-27.62
32.000,-57.22
32.015,-87.33
32.031,-117.01
32.046,-143.9
32.062,-163.72
32.078,-171.07
32.093,-161.95
32.109,-135.66
32.125,-95.07
32.140,-45.53
32.156,7.47
32.171,59.74
32.187,108.53
32.203,151.85
32.218,188.03
32.234,215.99
32.250,236.4
32.265,252.14
32.281,267.37
32.296,285.31
32.312,306.06
32.328,326.4
32.343,341.24
32.359,346.38
32.375,340.34
32.390,324.46
32.406,301.52
32.421,274.12
32.437,243.99
32.453,212.21
32.468,179.8
32.484,147.64
32.500,116.07
32.515,84.69
32.531,52.37
32.546,18.02
32.562,-18.48
32.578,-55.88
32.593,-91.98
32.609,-124.53
32.625,-152.23
32.640,-175.38
32.656,-195.71
32.671,-215.38
32.687,-235.88
32.703,-257.36
32.718,-278.58
32.734,-297.63
32.750,-312.54
32.765,-321.83
32.781,-324.6
32.796,-320.43
32.812,-309.29
32.828,-291.35
32.843,-266.94
32.859,-236.72
32.875,-201.75
32.890,-163.48
32.906,-123.9
32.921,-85.21
32.937,-49.84
32.953,-20.0
32.968,2.66
32.984,17.19
33.000,23.24
33.015,21.09
33.031,12.03
33.046,-1.58
33.062,-15.98
33.078,-27.01
33.093,-31.18
33.109,-27.3
33.125,-17.06
33.140,-4.5
33.156,5.9
33.171,11.02
33.187,10.25
33.203,5.1
33.218,-2.29
33.234,-10.7
33.250,-20.67
33.265,-33.84
33.281,-51.69
33.296,-74.29
33.312,-100.07
33.328,-126.43
33.343,-150.82
33.359,-171.51
33.375,-187.82
33.390,-199.8
33.406,-208.09
33.421,-213.39
33.437,-216.33
33.453,-217.3
33.468,-216.28
33.484,-212.99
33.500,-207.33
33.515,-200.02
33.531,-192.71
33.546,-187.63
33.562,-186.32
33.578,-189.13
33.593,-195.02
33.609,-202.79
33.625,-211.08
33.640,-218.38
33.656,-222.11
33.671,-218.41
33.687,-202.86
33.703,-172.71
33.718,-129.51
33.734,-79.98
33.750,-34.16
33.765,-0.02
33.781,21.04
33.796,35.23
33.812,52.74
33.828,82.19
33.843,126.38
33.859,181.74
33.875,241.18
33.890,296.75
33.906,343.3
33.921,378.57
33.937,401.55
33.953,410.6
33.968,403.66
33.984,380.23
34.000,343.14
34.015,298.45
34.031,250.22
34.046,202.17
34.062,157.76
34.078,119.98
34.093,90.39
34.109,68.9
34.125,54.48
34.140,45.86
34.156,41.96
34.171,35.4
34.187,20.98
34.203,-1.14
34.218,-26.19
34.234,-49.27
34.250,-68.04
34.265,-82.79
34.281,-94.74
34.296,-105.07
34.312,-124.85
34.328,-161.32
34.343,-213.0
34.359,-270.74
34.375,-324.98
34.390,-370.2
34.406,-405.43
34.421,-431.95
34.437,-452.05
34.453,-481.69
34.468,-532.69
34.484,-605.75
34.500,-691.35
34.515,-778.7
34.531,-861.18
34.546,-937.59
34.562,-1008.95
34.578,-993.09
34.593,-850.2
34.609,-604.9
34.625,-329.75
34.640,-88.41
34.656,92.48
34.671,214.92
34.687,292.37
34.703,341.99
34.718,380.75
34.734,409.58
34.750,428.57
34.765,441.84
34.781,457.0
34.796,474.41
34.812,495.51
34.828,516.07
34.843,530.96
34.859,536.83
34.875,522.93
34.890,484.41
34.906,426.49
34.921,362.76
34.937,306.28
34.953,264.37
34.968,237.2
34.984,221.39
35.000,212.41
35.015,203.02
35.031,191.49
35.046,180.31
35.062,174.94
35.078,178.05
35.093,188.41
35.109,202.61
35.125,218.26
35.140,234.34
35.156,247.49
35.171,254.69
35.187,254.59
35.203,248.2
35.218,238.05
35.234,224.54
35.250,207.57
35.265,187.28
35.281,164.01
35.296,137.01
35.312,105.32
35.328,68.11
35.343,28.62
35.359,-9.54
35.375,-44.02
35.390,-73.49
35.406,-97.27
35.421,-114.92
35.437,-126.25
35.453,-131.48
35.468,-131.34
35.484,-126.8
35.500,-119.64
35.515,-111.95
35.531,-105.28
35.546,-100.56
35.562,-97.82
35.578,-96.32
35.593,-94.89
35.609,-92.42
35.625,-88.17
35.640,-82.53
35.656,-76.79
35.671,-72.19
35.687,-69.67
35.703,-69.54
35.718,-71.65
35.734,-75.51
35.750,-80.31
35.765,-84.5
35.781,-85.96
35.796,-82.35
35.812,-71.96
35.828,-55.02
35.843,-34.42
35.859,-14.92
35.875,-1.17
35.890,4.43
35.906,3.13
35.921,-0.9
35.937,-2.67
35.953,1.16
35.968,10.69
35.984,23.09
36.000,34.3
36.015,41.16
36.031,42.65
36.046,39.88
36.062,34.98
36.078,29.85
36.093,25.41
36.109,21.5
36.125,17.42
36.140,12.63
36.156,7.1
36.171,1.17
36.187,-4.5
36.203,-9.16
36.218,-12.18
36.234,-13.18
36.250,-12.21
36.265,-9.84
36.281,-7.31
36.296,-5.73
36.312,-5.92
36.328,-8.19
36.343,-11.8
36.359,-15.3
36.375,-17.07
36.390,-15.74
36.406,-10.57
36.421,-0.76
36.437,13.87
36.453,32.41
36.468,52.55
36.484,70.7
36.500,83.22
36.515,87.82
36.531,85.38
36.546,79.47
36.562,75.46
36.578,77.41
36.593,85.77
36.609,96.91
36.625,104.91
36.640,104.94
36.656,95.38
36.671,79.08
36.687,61.85
36.703,49.47
36.718,44.7
36.734,45.91
36.750,48.18
36.765,45.66
36.781,34.72
36.796,15.45
36.812,-8.39
36.828,-31.88
36.843,-51.4
36.859,-66.22
36.875,-77.97
36.890,-88.78
36.906,-99.91
36.921,-110.28
36.937,-117.92
36.953,-121.32
36.968,-120.51
36.984,-117.19
37.000,-113.76
37.015,-112.14
37.031,-112.73
37.046,-114.06
37.062,-113.73
37.078,-109.46
37.093,-100.27
37.109,-86.22
37.125,-68.74
37.140,-50.04
37.156,-32.09
37.171,-16.07
37.187,-2.17
37.203,10.09
37.218,21.23
37.234,31.53
37.250,40.73
37.265,48.18
37.281,53.17
37.296,55.35
37.312,54.92
37.328,52.54
37.343,49.15
37.359,45.51
37.375,42.08
37.390,38.96
37.406,35.88
37.421,32.5
37.437,28.53
37.453,23.85
37.468,18.47
37.484,12.59
37.500,6.36
37.515,-0.05
37.531,-6.52
37.546,-12.96
37.562,-19.25
37.578,-25.25
37.593,-30.81
37.609,-35.8
37.625,-40.11
37.640,-43.67
37.656,-46.49
37.671,-48.63
37.687,-50.07
37.703,-50.91
37.718,-51.28
37.734,-51.33
37.750,-51.16
37.765,-50.83
37.781,-50.41
37.796,-49.96
37.812,-49.68
37.828,-49.6
37.843,-49.94
37.859,-51.02
37.875,-53.19
37.890,-56.69
37.906,-61.57
37.921,-67.77
37.937,-74.97
37.953,-82.85
37.968,-90.7
37.984,-98.02
38.000,-104.39
38.015,-109.54
38.031,-113.03
38.046,-114.26
38.062,-112.36
38.078,-106.14
38.093,-96.7
38.109,-84.46
38.125,-70.08
38.140,-54.43
38.156,-38.48
38.171,-22.93
38.187,-7.98
38.203,6.72
38.218,21.84
38.234,37.97
38.250,55.58
38.265,74.32
38.281,93.26
38.296,111.33
38.312,127.91
38.328,143.22
38.343,158.42
38.359,175.15
38.375,194.82
38.390,218.25
38.406,244.93
38.421,273.36
38.437,301.59
38.453,327.99
38.468,351.72
38.484,372.76
38.500,391.78
38.515,409.86
38.531,428.71
38.546,449.87
38.562,474.11
38.578,500.16
38.593,523.97
38.609,538.96
38.625,538.01
38.640,516.23
38.656,473.36
38.671,414.38
38.687,347.48
38.703,281.27
38.718,221.95
38.734,172.06
38.750,131.07
38.765,97.14
38.781,68.62
38.796,44.64
38.812,24.66
38.828,6.9
38.843,-11.19
38.859,-32.18
38.875,-57.56
38.890,-87.11
38.906,-119.07
38.921,-150.91
38.937,-180.45
38.953,-206.63
38.968,-230.84
38.984,-255.38
39.000,-282.31
39.015,-312.42
39.031,-344.83
39.046,-377.46
39.062,-407.81
39.078,-433.86
39.093,-454.49
39.109,-470.93
39.125,-485.03
39.140,-498.0
39.156,-509.68
39.171,-518.32
39.187,-521.2
39.203,-515.55
39.218,-499.34
39.234,-462.87
39.250,-400.89
39.265,-313.31
39.281,-205.96
39.296,-89.15
39.312,25.72
39.328,129.58
39.343,217.04
39.359,286.27
39.375,337.67
39.390,373.1
39.406,394.02
39.421,401.92
39.437,398.82
39.453,387.39
39.468,370.51
39.484,350.61
39.500,329.26
39.515,307.57
39.531,285.38
39.546,262.23
39.562,238.11
39.578,213.71
39.593,190.22
39.609,169.04
39.625,151.22
39.640,137.31
39.656,127.28
39.671,120.0
39.687,113.92
39.703,107.73
39.718,100.64
39.734,92.41
39.750,83.12
39.765,73.04
39.781,62.51
39.796,51.89
39.812,41.19
39.828,30.16
39.843,18.55
39.859,6.34
39.875,-6.3
39.890,-18.98
39.906,-31.2
39.921,-42.38
39.937,-51.93
39.953,-59.46
39.968,-65.06
39.984,-69.26
40.000,-72.87
40.015,-76.91
40.031,-82.19
40.046,-89.05
40.062,-97.2
40.078,-105.81
40.093,-113.91
40.109,-121.11
40.125,-127.68
40.140,-134.62
40.156,-143.3
40.171,-154.94
40.187,-170.06
40.203,-188.21
40.218,-208.37
40.234,-229.2
40.250,-250.04
40.265,-270.72
40.281,-291.51
40.296,-313.15
40.312,-336.92
40.328,-364.94
40.343,-399.65
40.359,-442.7
40.375,-492.83
40.390,-545.61
40.406,-592.69
40.421,-624.2
40.437,-632.32
40.453,-614.75
40.468,-575.82
40.484,-524.75
40.500,-472.0
40.515,-424.96
40.531,-387.5
40.546,-358.94
40.562,-336.12
40.578,-315.63
40.593,-295.6
40.609,-275.98
40.625,-257.62
40.640,-241.21
40.656,-225.82
40.671,-210.8
40.687,-194.42
40.703,-174.22
40.718,-147.35
40.734,-110.83
40.750,-61.7
40.765,2.88
40.781,84.32
40.796,190.84
40.812,318.03
40.828,448.89
40.843,559.42
40.859,629.99
40.875,653.97
40.890,637.78
40.906,598.59
40.921,547.39
40.937,489.26
40.953,424.63
40.968,354.94
40.984,284.8
41.000,221.25
41.015,169.94
41.031,132.88
41.046,106.51
41.062,82.16
41.078,51.84
41.093,11.36
41.109,-36.27
41.125,-84.67
41.140,-125.68
41.156,-153.46
41.171,-166.09
41.187,-165.25
41.203,-154.93
41.218,-137.24
41.234,-114.9
41.250,-89.55
41.265,-62.2
41.281,-32.95
41.296,-2.36
41.312,28.33
41.328,57.11
41.343,81.6
41.359,100.68
41.375,113.77
41.390,120.73
41.406,120.95
41.421,113.54
41.437,97.7
41.453,73.96
41.468,44.92
41.484,14.76
41.500,-11.69
41.515,-31.26
41.531,-43.21
41.546,-49.09
41.562,-51.39
41.578,-52.51
41.593,-54.22
41.609,-58.09
41.625,-66.12
41.640,-80.37
41.656,-102.52
41.671,-132.82
41.687,-169.26
41.703,-207.98
41.718,-244.31
41.734,-273.72
41.750,-292.32
41.765,-298.07
41.781,-291.47
41.796,-276.24
41.812,-258.85
41.828,-246.18
41.843,-242.41
41.859,-246.64
41.875,-252.75
41.890,-252.23
41.906,-238.32
41.921,-209.45
41.937,-169.65
41.953,-126.1
41.968,-85.21
41.984,-49.83
42.000,-19.0
42.015,10.09
42.031,39.49
42.046,69.02
42.062,96.89
42.078,121.47
42.093,142.62
42.109,161.99
42.125,181.86
42.140,203.99
42.156,228.59
42.171,254.2
42.187,278.77
42.203,300.65
42.218,319.38
42.234,336.02
42.250,352.18
42.265,368.81
42.281,385.41
42.296,400.02
42.312,410.27
42.328,414.71
42.343,413.78
42.359,409.41
42.375,403.71
42.390,397.11
42.406,387.53
42.421,371.25
42.437,344.92
42.453,307.99
42.468,263.84
42.484,218.88
42.500,180.23
42.515,153.47
42.531,140.93
42.546,141.9
42.562,153.73
42.578,172.95
42.593,195.28
42.609,215.34
42.625,227.05
42.640,225.85
42.656,212.18
42.671,192.5
42.687,177.3
42.703,176.33
42.718,193.15
42.734,222.44
42.750,251.63
42.765,266.76
42.781,259.23
42.796,231.75
42.812,195.71
42.828,165.48
42.843,151.48
42.859,155.8
42.875,172.47
42.890,191.69
42.906,205.15
42.921,209.5
42.937,209.07
42.953,210.31
42.968,217.75
42.984,231.29
43.000,246.57
43.015,258.08
43.031,262.44
43.046,260.23
43.062,254.87
43.078,253.5
43.093,260.66
43.109,276.36
43.125,296.52
43.140,315.49
43.156,329.01
43.171,336.37
43.187,340.37
43.203,323.32
43.218,274.6
43.234,190.64
43.250,77.9
43.265,-48.84
43.281,-172.87
43.296,-281.18
43.312,-367.07
43.328,-428.87
43.343,-468.57
43.359,-487.18
43.375,-487.05
43.390,-472.09
43.406,-447.54
43.421,-418.92
43.437,-390.35
43.453,-364.85
43.468,-343.65
43.484,-325.84
43.500,-310.28
43.515,-296.31
43.531,-284.37
43.546,-276.47
43.562,-276.0
43.578,-285.92
43.593,-307.79
43.609,-338.23
43.625,-368.85
43.640,-387.81
43.656,-384.91
43.671,-355.93
43.687,-304.57
43.703,-243.51
43.718,-183.19
43.734,-131.63
43.750,-91.58
43.765,-61.64
43.781,-37.52
43.796,-14.88
43.812,8.69
43.828,33.54
43.843,59.16
43.859,85.61
43.875,112.51
43.890,139.87
43.906,164.63
43.921,181.17
43.937,183.7
43.953,166.99
43.968,130.25
43.984,77.9
44.000,18.3
44.015,-39.63
44.031,-86.62
44.046,-118.2
44.062,-134.49
44.078,-137.97
44.093,-132.69
44.109,-123.47
44.125,-115.54
44.140,-114.5
44.156,-126.25
44.171,-153.17
44.187,-197.78
44.203,-261.01
44.218,-340.23
44.234,-420.99
44.250,-484.31
44.265,-512.25
44.281,-496.08
44.296,-455.63
44.312,-405.32
44.328,-356.44
44.343,-316.28
44.359,-282.3
44.375,-252.41
44.390,-224.72
44.406,-198.38
44.421,-174.4
44.437,-154.68
44.453,-137.77
44.468,-122.28
44.484,-106.48
44.500,-88.37
44.515,-67.48
44.531,-44.96
44.546,-23.24
44.562,-5.42
44.578,6.34
44.593,13.8
44.609,19.0
44.625,23.89
44.640,29.95
44.656,36.9
44.671,43.1
44.687,45.99
44.703,42.91
44.718,32.18
44.734,15.16
44.750,-6.04
44.765,-28.84
44.781,-50.53
44.796,-69.28
44.812,-83.91
44.828,-94.06
44.843,-99.95
44.859,-102.06
44.875,-100.26
44.890,-94.86
44.906,-86.57
44.921,-76.34
44.937,-65.55
44.953,-55.64
44.968,-47.86
44.984,-43.14
45.000,-41.91
45.015,-43.86
45.031,-48.48
45.046,-55.17
45.062,-63.33
45.078,-72.61
45.093,-82.74
45.109,-93.51
45.125,-104.88
45.140,-116.92
45.156,-129.73
45.171,-143.34
45.187,-157.66
45.203,-172.38
45.218,-186.97
45.234,-200.76
45.250,-212.87
45.265,-222.4
45.281,-228.56
45.296,-230.76
45.312,-228.69
45.328,-222.16
45.343,-211.04
45.359,-195.08
45.375,-173.99
45.390,-147.54
45.406,-115.81
45.421,-79.38
45.437,-39.37
45.453,2.56
45.468,44.64
45.484,85.3
45.500,123.57
45.515,159.04
45.531,191.76
45.546,221.86
45.562,249.11
45.578,272.84
45.593,291.95
45.609,305.48
45.625,313.18
45.640,315.92
45.656,315.64
45.671,314.91
45.687,316.08
45.703,320.54
45.718,328.37
45.734,338.38
45.750,348.62
45.765,357.22
45.781,363.18
45.796,366.74
45.812,369.48
45.828,374.11
45.843,383.89
45.859,401.26
45.875,426.11
45.890,454.39
45.906,478.1
45.921,487.4
45.937,474.36
45.953,437.07
45.968,381.63
45.984,321.06
46.000,271.13
46.015,244.8
46.031,248.04
46.046,278.06
46.062,324.82
46.078,374.47
46.093,413.21
46.109,430.2
46.125,418.89
46.140,377.42
46.156,308.5
46.171,219.37
46.187,121.03
46.203,26.76
46.218,-50.43
46.234,-100.73
46.250,-119.93
46.265,-110.4
46.281,-79.8
46.296,-38.21
46.312,5.26
46.328,44.7
46.343,77.76
46.359,104.34
46.375,124.9
46.390,139.87
46.406,149.96
46.421,156.94
46.437,163.6
46.453,172.59
46.468,184.58
46.484,197.24
46.500,206.07
46.515,206.46
46.531,197.09
46.546,180.32
46.562,160.94
46.578,143.63
46.593,130.05
46.609,117.79
46.625,101.46
46.640,75.4
46.656,37.03
46.671,-9.57
46.687,-55.03
46.703,-87.08
46.718,-95.26
46.734,-75.43
46.750,-32.29
46.765,21.63
46.781,70.47
46.796,101.0
46.812,109.87
46.828,102.68
46.843,91.04
46.859,87.04
46.875,98.12
46.890,124.82
46.906,162.05
46.921,202.56
46.937,240.13
46.953,273.95
46.968,304.77
46.984,332.89
47.000,356.75
47.015,373.01
47.031,378.45
47.046,372.3
47.062,357.4
47.078,321.18
47.093,258.27
47.109,167.85
47.125,54.74
47.140,-71.21
47.156,-197.96
47.171,-315.01
47.187,-415.55
47.203,-496.24
47.218,-556.26
47.234,-593.81
47.250,-609.07
47.265,-604.6
47.281,-585.35
47.296,-557.68
47.312,-527.83
47.328,-500.16
47.343,-476.62
47.359,-456.85
47.375,-437.54
47.390,-416.13
47.406,-391.84
47.421,-365.97
47.437,-341.16
47.453,-319.99
47.468,-303.66
47.484,-291.62
47.500,-282.21
47.515,-272.11
47.531,-258.93
47.546,-241.69
47.562,-220.97
47.578,-198.47
47.593,-176.61
47.609,-157.86
47.625,-144.24
47.640,-135.85
47.656,-130.3
47.671,-123.59
47.687,-111.32
47.703,-90.94
47.718,-63.69
47.734,-34.71
47.750,-10.8
47.765,1.9
47.781,0.8
47.796,-11.91
47.812,-30.76
47.828,-49.71
47.843,-64.48
47.859,-73.32
47.875,-76.41
47.890,-74.03
47.906,-66.24
47.921,-52.94
47.937,-34.64
47.953,-13.27
47.968,7.32
47.984,22.63
48.000,28.66
48.015,20.81
48.031,-0.24
48.046,-30.95
48.062,-66.6
48.078,-102.59
48.093,-134.46
48.109,-161.5
48.125,-183.81
48.140,-201.62
48.156,-214.72
48.171,-222.25
48.187,-224.0
48.203,-220.53
48.218,-212.71
48.234,-202.07
48.250,-190.91
48.265,-181.11
48.281,-173.46
48.296,-167.36
48.312,-160.45
48.328,-150.17
48.343,-134.23
48.359,-112.14
48.375,-84.18
48.390,-52.13
48.406,-18.3
48.421,15.42
48.437,48.32
48.453,81.14
48.468,115.0
48.484,150.51
48.500,190.15
48.515,234.92
48.531,283.54
48.546,333.34
48.562,381.43
48.578,425.94
48.593,466.8
48.609,505.32
48.625,543.67
48.640,587.2
48.656,638.23
48.671,693.23
48.687,742.76
48.703,774.27
48.718,776.77
48.734,745.22
48.750,682.41
48.765,576.73
48.781,433.35
48.796,269.41
48.812,107.8
48.828,-32.65
48.843,-143.23
48.859,-224.19
48.875,-279.85
48.890,-315.01
48.906,-334.4
48.921,-339.45
48.937,-333.08
48.953,-318.5
48.968,-297.84
48.984,-271.46
49.000,-239.21
49.015,-203.1
49.031,-169.16
49.046,-145.98
49.062,-137.92
49.078,-145.07
49.093,-162.31
49.109,-181.65
49.125,-195.73
49.140,-200.69
49.156,-197.03
49.171,-188.03
49.187,-176.89
49.203,-163.36
49.218,-146.27
49.234,-125.21
49.250,-102.04
49.265,-80.52
49.281,-64.03
49.296,-54.1
49.312,-49.71
49.328,-47.8
49.343,-44.12
49.359,-36.06
49.375,-23.51
49.390,-8.63
49.406,5.07
49.421,14.89
49.437,19.57
49.453,19.68
49.468,17.25
49.484,14.52
49.500,12.54
49.515,10.77
49.531,7.22
49.546,-0.36
49.562,-13.19
49.578,-30.87
49.593,-51.39
49.609,-71.76
49.625,-89.64
49.640,-103.97
49.656,-115.03
49.671,-124.01
49.687,-132.29
49.703,-140.76
49.718,-150.09
49.734,-160.4
49.750,-170.36
49.765,-177.79
49.781,-179.44
49.796,-172.08
49.812,-154.23
49.828,-127.4
49.843,-95.57
49.859,-63.69
49.875,-39.27
49.890,-24.77
49.906,-20.0
49.921,-22.69
49.937,-30.19
49.953,-40.69
49.968,-53.39
49.984,-66.31
50.000,-77.0
50.015,-82.64
50.031,-81.12
50.046,-72.76
50.062,-60.05
50.078,-46.56
50.093,-35.53
50.109,-28.43
50.125,-21.49
50.140,-11.27
50.156,6.27
50.171,34.01
50.187,72.6
50.203,121.03
50.218,176.51
50.234,233.88
50.250,286.03
50.265,328.18
50.281,357.37
50.296,374.35
50.312,383.61
50.328,392.23
50.343,407.69
50.359,434.54
50.375,472.05
50.390,496.78
50.406,489.27
50.421,440.91
50.437,359.37
50.453,262.41
50.468,167.41
50.484,84.98
50.500,18.34
50.515,-34.08
50.531,-75.35
50.546,-105.08
50.562,-122.12
50.578,-125.54
50.593,-117.76
50.609,-103.26
50.625,-87.25
50.640,-74.06
50.656,-66.14
50.671,-63.81
50.687,-63.73
50.703,-62.4
50.718,-57.57
50.734,-49.23
50.750,-38.69
50.765,-26.99
50.781,-15.02
50.796,-3.65
50.812,6.0
50.828,13.8
50.843,19.54
50.859,23.11
50.875,24.43
50.890,24.06
50.906,23.34
50.921,24.3
50.937,28.9
50.953,38.14
50.968,51.94
50.984,67.87
51.000,81.47
51.015,87.54
51.031,82.25
51.046,65.01
51.062,38.77
51.078,8.47
51.093,-21.17
51.109,-47.49
51.125,-70.78
51.140,-93.39
51.156,-118.27
51.171,-147.76
51.187,-183.42
51.203,-225.98
51.218,-274.73
51.234,-326.09
51.250,-372.68
51.265,-404.29
51.281,-411.29
51.296,-388.89
51.312,-339.97
51.328,-273.69
51.343,-200.67
51.359,-127.6
51.375,-54.81
51.390,21.27
51.406,102.76
51.421,186.22
51.437,262.71
51.453,322.37
51.468,360.45
51.484,380.24
51.500,390.74
51.515,400.94
51.531,414.32
51.546,427.64
51.562,434.08
51.578,428.27
51.593,409.98
51.609,384.05
51.625,356.96
51.640,332.82
51.656,311.46
51.671,289.5
51.687,262.96
51.703,230.02
51.718,191.88
51.734,151.93
51.750,113.95
51.765,80.23
51.781,50.83
51.796,24.31
51.812,-1.19
51.828,-26.72
51.843,-51.91
51.859,-75.32
51.875,-95.34
51.890,-111.25
51.906,-123.75
51.921,-134.79
51.937,-146.57
51.953,-160.65
51.968,-177.37
51.984,-195.87
52.000,-214.74
52.015,-232.89
52.031,-250.17
52.046,-267.39
52.062,-285.82
52.078,-306.39
52.093,-329.06
52.109,-352.73
52.125,-375.55
52.140,-395.82
52.156,-412.77
52.171,-426.91
52.187,-439.91
52.203,-454.11
52.218,-472.08
52.234,-496.25
52.250,-528.24
52.265,-567.73
52.281,-611.61
52.296,-653.48
52.312,-684.92
52.328,-697.88
52.343,-687.62
52.359,-654.61
52.375,-604.27
52.390,-544.68
52.406,-483.47
52.421,-425.42
52.437,-372.02
52.453,-322.64
52.468,-276.46
52.484,-233.59
52.500,-194.93
52.515,-161.05
52.531,-131.23
52.546,-103.34
52.562,-74.73
52.578,-43.65
52.593,-10.11
52.609,24.08
52.625,55.99
52.640,83.03
52.656,104.11
52.671,120.23
52.687,134.1
52.703,149.1
52.718,167.86
52.734,191.31
52.750,218.38
52.765,246.86
52.781,274.32
52.796,299.36
52.812,322.1
52.828,343.93
52.843,366.97
52.859,393.49
52.875,425.58
52.890,464.85
52.906,511.52
52.921,563.35
52.937,615.02
52.953,658.65
52.968,686.06
52.984,691.74
53.000,675.14
53.015,641.01
53.031,597.44
53.046,552.61
53.062,511.82
53.078,476.46
53.093,444.93
53.109,414.71
53.125,384.27
53.140,353.46
53.156,322.87
53.171,292.66
53.187,262.1
53.203,229.97
53.218,195.39
53.234,158.54
53.250,120.66
53.265,83.67
53.281,49.08
53.296,17.48
53.312,-11.48
53.328,-38.46
53.343,-63.7
53.359,-86.57
53.375,-105.88
53.390,-120.48
53.406,-129.92
53.421,-134.75
53.437,-136.22
53.453,-135.68
53.468,-134.12
53.484,-131.91
53.500,-128.91
53.515,-124.92
53.531,-119.79
53.546,-113.4
53.562,-105.62
53.578,-96.36
53.593,-85.71
53.609,-74.1
53.625,-62.19
53.640,-50.66
53.656,-39.88
53.671,-29.84
53.687,-20.24
53.703,-10.77
53.718,-1.42
53.734,7.44
53.750,15.15
53.765,21.09
53.781,24.84
53.796,26.35
53.812,25.91
53.828,24.14
53.843,21.78
53.859,19.75
53.875,18.99
53.890,20.43
53.906,24.76
53.921,32.23
53.937,42.6
53.953,55.3
53.968,69.77
53.984,85.76
54.000,103.68
54.015,124.25
54.031,148.18
54.046,175.47
54.062,204.88
54.078,233.93
54.093,259.25
54.109,277.46
54.125,286.2
54.140,284.84
54.156,274.71
54.171,258.71
54.187,240.37
54.203,222.83
54.218,208.07
54.234,196.69
54.250,188.25
54.265,181.78
54.281,176.35
54.296,171.33
54.312,166.36
54.328,161.1
54.343,154.83
54.359,146.21
54.375,133.21
54.390,113.42
54.406,84.43
54.421,44.51
54.437,-6.85
54.453,-68.63
54.468,-138.56
54.484,-213.64
54.500,-290.88
54.515,-367.86
54.531,-442.98
54.546,-515.61
54.562,-586.24
54.578,-656.37
54.593,-728.19
54.609,-803.17
54.625,-880.43
54.640,-955.59
54.656,-1020.88
54.671,-1067.3
54.687,-1087.72
54.703,-1079.6
54.718,-1045.73
54.734,-992.79
54.750,-928.27
54.765,-857.85
54.781,-784.33
54.796,-708.41
54.812,-630.55
54.828,-552.29
54.843,-476.35
54.859,-405.63
54.875,-342.09
54.890,-286.14
54.906,-236.97
54.921,-193.61
54.937,-155.62
54.953,-123.32
54.968,-97.53
54.984,-78.63
55.000,-66.09
55.015,-58.32
55.031,-52.95
55.046,-47.47
55.062,-40.04
55.078,-29.88
55.093,-17.21
55.109,-2.92
55.125,12.08
55.140,27.2
55.156,42.42
55.171,58.06
55.187,74.52
55.203,91.77
55.218,109.27
55.234,126.01
55.250,140.69
55.265,152.14
55.281,159.52
55.296,162.53
55.312,161.35
55.328,156.51
55.343,148.69
55.359,138.47
55.375,126.34
55.390,112.59
55.406,97.43
55.421,81.14
55.437,64.17
55.453,47.33
55.468,31.72
55.484,18.64
55.500,9.28
55.515,4.45
55.531,4.35
55.546,8.54
55.562,16.11
55.578,25.96
55.593,37.46
55.609,50.29
55.625,64.26
55.640,78.77
55.656,93.15
55.671,106.66
55.687,118.69
55.703,129.05
55.718,138.05
55.734,146.64
55.750,155.46
55.765,164.21
55.781,171.31
55.796,175.06
55.812,174.43
55.828,169.56
55.843,161.75
55.859,152.97
55.875,146.07
55.890,143.5
55.906,146.93
55.921,156.24
55.937,170.87
55.953,189.2
55.968,208.13
55.984,223.17
56.000,229.68
56.015,226.63
56.031,215.67
56.046,200.97
56.062,185.75
56.078,174.85
56.093,171.89
56.109,177.5
56.125,187.98
56.140,196.84
56.156,201.14
56.171,199.4
56.187,192.01
56.203,176.72
56.218,156.93
56.234,138.34
56.250,126.62
56.265,123.69
56.281,128.61
56.296,145.36
56.312,177.26
56.328,226.03
56.343,284.36
56.359,350.04
56.375,423.24
56.390,504.86
56.406,591.53
56.421,676.45
56.437,758.74
56.453,836.45
56.468,906.39
56.484,956.68
56.500,986.43
56.515,1001.34
56.531,1009.37
56.546,1011.77
56.562,956.02
56.578,808.07
56.593,563.65
56.609,306.1
56.625,69.76
56.640,-130.97
56.656,-304.85
56.671,-450.06
56.687,-564.7
56.703,-647.64
56.718,-691.1
56.734,-690.5
56.750,-648.11
56.765,-582.19
56.781,-506.18
56.796,-428.52
56.812,-351.77
56.828,-278.35
56.843,-211.28
56.859,-149.51
56.875,-94.9
56.890,-52.3
56.906,-33.71
56.921,-41.17
56.937,-69.03
56.953,-107.3
56.968,-149.24
56.984,-192.06
57.000,-231.31
57.015,-262.69
57.031,-281.88
57.046,-289.97
57.062,-286.76
57.078,-274.21
57.093,-256.82
57.109,-241.85
57.125,-235.35
57.140,-237.47
57.156,-244.61
57.171,-252.19
57.187,-258.98
57.203,-263.92
57.218,-266.26
57.234,-264.83
57.250,-258.78
57.265,-247.43
57.281,-229.9
57.296,-206.27
57.312,-177.75
57.328,-147.22
57.343,-117.31
57.359,-90.54
57.375,-68.84
57.390,-53.7
57.406,-45.88
57.421,-45.57
57.437,-52.93
57.453,-68.2
57.468,-90.92
57.484,-118.72
57.500,-146.43
57.515,-167.1
57.531,-174.58
57.546,-166.46
57.562,-145.46
57.578,-118.47
57.593,-93.47
57.609,-76.18
57.625,-68.45
57.640,-69.31
57.656,-77.2
57.671,-91.67
57.687,-113.13
57.703,-140.79
57.718,-170.68
57.734,-195.89
57.750,-208.96
57.765,-205.15
57.781,-184.62
57.796,-152.03
57.812,-114.14
57.828,-76.75
57.843,-42.86
57.859,-12.82
57.875,14.34
57.890,39.3
57.906,61.76
57.921,80.87
57.937,96.3
57.953,109.06
57.968,121.36
57.984,135.77
58.000,154.41
58.015,178.15
58.031,206.1
58.046,235.55
58.062,262.44
58.078,282.16
58.093,291.0
58.109,287.22
58.125,271.68
58.140,247.41
58.156,218.41
58.171,188.37
58.187,159.98
58.203,135.0
58.218,114.77
58.234,100.47
58.250,92.88
58.265,91.7
58.281,95.19
58.296,100.7
58.312,105.66
58.328,108.69
58.343,110.04
58.359,110.97
58.375,112.8
58.390,116.02
58.406,119.98
58.421,123.3
58.437,124.71
58.453,123.73
58.468,121.09
58.484,118.66
58.500,118.81
58.515,123.47
58.531,133.21
58.546,146.65
58.562,160.52
58.578,170.44
58.593,172.34
58.609,164.15
58.625,147.06
58.640,125.88
58.656,108.25
58.671,102.58
58.687,115.33
58.703,148.36
58.718,197.47
58.734,252.83
58.750,301.82
58.765,332.86
58.781,338.83
58.796,318.89
58.812,277.79
58.828,223.29
58.843,163.06
58.859,102.54
58.875,44.32
58.890,-10.9
58.906,-62.92
58.921,-111.16
58.937,-154.36
58.953,-191.09
58.968,-220.35
58.984,-241.8
59.000,-255.49
59.015,-261.64
59.031,-260.55
59.046,-252.58
59.062,-238.66
59.078,-220.31
59.093,-199.74
59.109,-179.64
59.125,-162.7
59.140,-150.97
59.156,-145.3
59.171,-145.05
59.187,-148.19
59.203,-151.85
59.218,-153.41
59.234,-151.13
59.250,-144.59
59.265,-134.21
59.281,-120.82
59.296,-105.06
59.312,-87.6
59.328,-69.34
59.343,-51.6
59.359,-36.06
59.375,-23.78
59.390,-14.2
59.406,-4.73
59.421,9.0
59.437,31.41
59.453,64.88
59.468,108.16
59.484,156.23
59.500,201.91
59.515,238.21
59.531,260.81
59.546,269.05
59.562,265.64
59.578,255.11
59.593,242.08
59.609,230.11
59.625,221.51
59.640,217.76
59.656,219.81
59.671,227.91
59.687,240.57
59.703,254.53
59.718,265.04
59.734,267.14
59.750,257.37
59.765,234.94
59.781,202.2
59.796,163.46
59.812,123.68
59.828,85.8
59.843,51.27
59.859,20.26
59.875,-7.52
59.890,-32.14
59.906,-53.44
59.921,-70.6
59.937,-83.65
59.953,-93.02
59.968,-101.58
59.984,-111.96
