timestamp,value
00.000,19.47
00.015,14.47
00.031,10.35
00.046,7.19
00.062,4.55
00.078,1.67
00.093,-2.0
00.109,-6.41
00.125,-10.97
00.140,-14.89
00.156,-17.74
00.171,-19.63
00.187,-21.32
00.203,-23.5
00.218,-26.46
00.234,-29.63
00.250,-31.89
00.265,-32.2
00.281,-30.1
00.296,-26.29
00.312,-22.15
00.328,-19.16
00.343,-17.9
00.359,-17.85
00.375,-17.7
00.390,-15.93
00.406,-11.9
00.421,-6.13
00.437,-0.05
00.453,4.88
00.468,7.75
00.484,8.85
00.500,9.26
00.515,10.15
00.531,12.23
00.546,15.25
00.562,18.3
00.578,20.38
00.593,20.92
00.609,20.15
00.625,18.94
00.640,18.25
00.656,18.51
00.671,19.47
00.687,19.97
00.703,18.82
00.718,15.23
00.734,9.34
00.750,2.25
00.765,-4.49
00.781,-9.65
00.796,-12.87
00.812,-14.74
00.828,-16.44
00.843,-18.96
00.859,-22.58
00.875,-26.88
00.890,-31.12
00.906,-34.79
00.921,-37.76
00.937,-40.03
00.953,-41.13
00.968,-39.84
00.984,-34.55
01.000,-24.11
01.015,-8.72
01.031,9.5
01.046,27.11
01.062,40.46
01.078,47.38
01.093,47.71
01.109,43.39
01.125,37.24
01.140,31.87
01.156,28.69
01.171,27.73
01.187,28.0
01.203,28.24
01.218,27.74
01.234,26.36
01.250,24.72
01.265,23.49
01.281,23.12
01.296,23.48
01.312,23.87
01.328,23.55
01.343,22.12
01.359,19.97
01.375,17.96
01.390,17.19
01.406,18.09
01.421,20.06
01.437,21.52
01.453,20.68
01.468,16.4
01.484,8.83
01.500,-0.46
01.515,-9.19
01.531,-15.48
01.546,-18.55
01.562,-19.21
01.578,-19.11
01.593,-19.82
01.609,-21.94
01.625,-24.96
01.640,-27.71
01.656,-29.28
01.671,-29.55
01.687,-29.31
01.703,-29.64
01.718,-31.03
01.734,-32.93
01.750,-33.78
01.765,-32.02
01.781,-26.89
01.796,-19.13
01.812,-10.49
01.828,-3.01
01.843,1.98
01.859,4.64
01.875,6.25
01.890,8.48
01.906,12.2
01.921,17.09
01.937,21.64
01.953,24.24
01.968,24.18
01.984,22.07
02.000,19.71
02.015,18.96
02.031,20.69
02.046,24.31
02.062,28.09
02.078,30.0
02.093,29.14
02.109,26.03
02.125,22.35
02.140,20.01
02.156,19.94
02.171,21.66
02.187,23.57
02.203,23.85
02.218,21.38
02.234,16.3
02.250,10.0
02.265,4.18
02.281,0.06
02.296,-2.38
02.312,-4.24
02.328,-7.0
02.343,-11.64
02.359,-18.12
02.375,-25.33
02.390,-31.54
02.406,-35.45
02.421,-36.65
02.437,-35.79
02.453,-34.06
02.468,-32.37
02.484,-30.86
02.500,-28.96
02.515,-25.73
02.531,-20.73
02.546,-14.34
02.562,-7.6
02.578,-1.86
02.593,2.14
02.609,4.44
02.625,5.85
02.640,7.36
02.656,9.59
02.671,12.27
02.687,14.64
02.703,15.89
02.718,15.68
02.734,14.44
02.750,13.05
02.765,12.34
02.781,12.64
02.796,13.46
02.812,13.81
02.828,12.8
02.843,10.26
02.859,6.75
02.875,3.33
02.890,0.95
02.906,-0.19
02.921,-0.67
02.937,-1.46
02.953,-3.32
02.968,-6.36
02.984,-9.89
03.000,-12.83
03.015,-14.4
03.031,-14.59
03.046,-14.21
03.062,-14.45
03.078,-16.24
03.093,-19.66
03.109,-23.88
03.125,-27.51
03.140,-29.25
03.156,-28.51
03.171,-25.63
03.187,-21.71
03.203,-17.75
03.218,-14.38
03.234,-11.32
03.250,-7.73
03.265,-2.94
03.281,3.11
03.296,9.59
03.312,15.15
03.328,18.59
03.343,19.62
03.359,18.88
03.375,17.6
03.390,17.0
03.406,17.54
03.421,18.89
03.437,20.15
03.453,20.43
03.468,19.55
03.484,17.9
03.500,16.39
03.515,15.72
03.531,16.01
03.546,16.68
03.562,16.84
03.578,15.7
03.593,13.13
03.609,9.87
03.625,6.98
03.640,5.41
03.656,5.36
03.671,6.12
03.687,6.36
03.703,5.08
03.718,1.88
03.734,-2.74
03.750,-7.56
03.765,-11.46
03.781,-13.96
03.796,-15.4
03.812,-16.77
03.828,-19.11
03.843,-22.67
03.859,-26.78
03.875,-30.13
03.890,-31.4
03.906,-30.09
03.921,-26.74
03.937,-22.51
03.953,-18.7
03.968,-15.83
03.984,-13.55
04.000,-10.95
04.015,-7.21
04.031,-2.28
04.046,2.93
04.062,7.06
04.078,9.12
04.093,8.98
04.109,7.52
04.125,6.16
04.140,6.04
04.156,7.37
04.171,9.46
04.187,11.16
04.203,11.5
04.218,10.38
04.234,8.63
04.250,7.29
04.265,7.26
04.281,8.53
04.296,10.27
04.312,11.23
04.328,10.6
04.343,8.28
04.359,5.01
04.375,2.0
04.390,0.17
04.406,-0.24
04.421,0.09
04.437,0.16
04.453,-0.93
04.468,-3.28
04.484,-6.33
04.500,-9.1
04.515,-11.03
04.531,-12.2
04.546,-13.28
04.562,-15.14
04.578,-17.99
04.593,-21.28
04.609,-23.73
04.625,-24.2
04.640,-22.05
04.656,-17.7
04.671,-12.46
04.687,-7.75
04.703,-4.38
04.718,-2.38
04.734,-0.97
04.750,0.87
04.765,3.64
04.781,7.16
04.796,10.58
04.812,12.86
04.828,13.44
04.843,12.58
04.859,11.23
04.875,10.54
04.890,11.27
04.906,13.26
04.921,15.63
04.937,17.19
04.953,17.13
04.968,15.46
04.984,12.97
05.000,10.78
05.015,9.62
05.031,9.48
05.046,9.5
05.062,8.62
05.078,6.08
05.093,1.97
05.109,-2.73
05.125,-6.84
05.140,-9.41
05.156,-10.38
05.171,-10.54
05.187,-11.08
05.203,-12.78
05.218,-15.7
05.234,-19.3
05.250,-22.6
05.265,-24.98
05.281,-26.3
05.296,-26.96
05.312,-27.4
05.328,-27.79
05.343,-27.72
05.359,-26.57
05.375,-23.7
05.390,-19.02
05.406,-13.1
05.421,-7.09
05.437,-2.12
05.453,1.2
05.468,3.11
05.484,4.51
05.500,6.34
05.515,9.17
05.531,12.74
05.546,16.0
05.562,17.85
05.578,17.78
05.593,16.15
05.609,14.15
05.625,13.05
05.640,13.55
05.656,15.41
05.671,17.63
05.687,18.76
05.703,18.06
05.718,15.72
05.734,12.65
05.750,9.99
05.765,8.45
05.781,7.79
05.796,7.0
05.812,5.03
05.828,1.31
05.843,-3.72
05.859,-8.88
05.875,-12.83
05.890,-14.85
05.906,-15.17
05.921,-14.82
05.937,-15.08
05.953,-16.73
05.968,-19.7
05.984,-23.1
06.000,-25.88
06.015,-27.39
06.031,-27.63
06.046,-27.18
06.062,-26.73
06.078,-26.53
06.093,-26.24
06.109,-25.22
06.125,-22.87
06.140,-19.06
06.156,-14.37
06.171,-9.74
06.187,-6.04
06.203,-3.72
06.218,-2.45
06.234,-1.31
06.250,0.52
06.265,3.48
06.281,7.21
06.296,10.63
06.312,12.54
06.328,12.31
06.343,10.23
06.359,7.35
06.375,5.17
06.390,4.64
06.406,5.92
06.421,8.13
06.437,9.95
06.453,10.35
06.468,9.1
06.484,6.95
06.500,5.08
06.515,4.4
06.531,4.97
06.546,5.92
06.562,6.02
06.578,4.37
06.593,0.98
06.609,-3.21
06.625,-6.96
06.640,-9.37
06.656,-10.53
06.671,-11.42
06.687,-13.27
06.703,-16.73
06.718,-21.48
06.734,-26.27
06.750,-29.62
06.765,-30.52
06.781,-28.98
06.796,-25.88
06.812,-22.48
06.828,-19.73
06.843,-17.75
06.859,-16.01
06.875,-13.59
06.890,-9.9
06.906,-5.07
06.921,0.02
06.937,4.26
06.953,6.9
06.968,7.97
06.984,8.29
07.000,8.94
07.015,10.74
07.031,13.61
07.046,16.77
07.062,19.13
07.078,20.0
07.093,19.54
07.109,18.55
07.125,18.11
07.140,18.71
07.156,20.01
07.171,20.93
07.187,20.39
07.203,17.97
07.218,14.09
07.234,10.06
07.250,7.21
07.265,6.24
07.281,6.77
07.296,7.48
07.312,6.94
07.328,4.44
07.343,0.36
07.359,-3.95
07.375,-6.94
07.390,-7.72
07.406,-6.65
07.421,-5.28
07.437,-5.31
07.453,-7.84
07.468,-12.52
07.484,-17.8
07.500,-21.73
07.515,-22.92
07.531,-21.38
07.546,-18.3
07.562,-15.39
07.578,-13.67
07.593,-13.02
07.609,-12.24
07.625,-9.89
07.640,-5.27
07.656,1.04
07.671,7.31
07.687,11.66
07.703,13.06
07.718,11.86
07.734,9.62
07.750,8.31
07.765,9.19
07.781,12.19
07.796,16.04
07.812,18.99
07.828,19.86
07.843,18.59
07.859,16.29
07.875,14.48
07.890,14.23
07.906,15.38
07.921,16.68
07.937,16.64
07.953,14.22
07.968,9.73
07.984,4.43
08.000,0.05
08.015,-2.28
08.031,-2.62
08.046,-2.08
08.062,-2.19
08.078,-3.91
08.093,-7.14
08.109,-10.81
08.125,-13.52
08.140,-14.5
08.156,-14.08
08.171,-13.69
08.187,-14.94
08.203,-18.67
08.218,-24.26
08.234,-29.9
08.250,-33.29
08.265,-32.95
08.281,-28.86
08.296,-22.5
08.312,-15.97
08.328,-10.84
08.343,-7.32
08.359,-4.52
08.375,-1.05
08.390,3.96
08.406,10.14
08.421,16.09
08.437,20.12
08.453,21.11
08.468,19.31
08.484,16.09
08.500,13.31
08.515,12.4
08.531,13.61
08.546,16.06
08.562,18.39
08.578,19.49
08.593,19.15
08.609,18.1
08.625,17.43
08.640,17.86
08.656,19.17
08.671,20.33
08.687,20.01
08.703,17.44
08.718,12.96
08.734,7.83
08.750,3.65
08.765,1.4
08.781,0.95
08.796,1.04
08.812,0.16
08.828,-2.79
08.843,-7.79
08.859,-13.68
08.875,-18.86
08.890,-22.21
08.906,-23.74
08.921,-24.45
08.937,-25.61
08.953,-27.94
08.968,-31.13
08.984,-33.79
09.000,-34.29
09.015,-31.74
09.031,-26.42
09.046,-19.88
09.062,-13.9
09.078,-9.7
09.093,-7.27
09.109,-5.65
09.125,-3.49
09.140,-0.08
09.156,4.19
09.171,8.07
09.187,10.23
09.203,10.06
09.218,8.07
09.234,5.88
09.250,5.2
09.265,7.11
09.281,11.26
09.296,16.08
09.312,19.74
09.328,21.13
09.343,20.43
09.359,18.83
09.375,17.87
09.390,18.37
09.406,20.0
09.421,21.4
09.437,21.05
09.453,18.3
09.468,13.63
09.484,8.52
09.500,4.58
09.515,2.62
09.531,2.25
09.546,2.24
09.562,1.28
09.578,-1.3
09.593,-5.06
09.609,-8.86
09.625,-11.51
09.640,-12.59
09.656,-12.59
09.671,-12.65
09.687,-13.71
09.703,-15.76
09.718,-17.95
09.734,-18.83
09.750,-17.24
09.765,-12.92
09.781,-6.72
09.796,-0.28
09.812,4.78
09.828,7.58
09.843,8.43
09.859,8.46
09.875,8.95
09.890,10.55
09.906,13.0
09.921,15.26
09.937,16.26
09.953,15.5
09.968,13.47
09.984,11.47
10.000,10.78
10.015,12.02
10.031,14.68
10.046,17.47
10.062,19.07
10.078,18.86
10.093,17.24
10.109,15.36
10.125,14.48
10.140,15.23
10.156,17.04
10.171,18.59
10.187,18.56
10.203,16.34
10.218,12.56
10.234,8.55
10.250,5.54
10.265,3.89
10.281,2.95
10.296,1.47
10.312,-1.72
10.328,-6.77
10.343,-12.95
10.359,-18.9
10.375,-23.41
10.390,-26.12
10.406,-27.49
10.421,-28.41
10.437,-29.42
10.453,-30.41
10.468,-30.47
10.484,-28.53
10.500,-24.1
10.515,-17.61
10.531,-10.43
10.546,-4.25
10.562,-0.23
10.578,1.41
10.593,1.67
10.609,2.11
10.625,3.92
10.640,7.42
10.656,11.72
10.671,15.3
10.687,16.95
10.703,16.43
10.718,14.54
10.734,12.82
10.750,12.68
10.765,14.46
10.781,17.37
10.796,19.88
10.812,20.51
10.828,18.84
10.843,15.59
10.859,12.29
10.875,10.35
10.890,10.22
10.906,11.08
10.921,11.21
10.937,9.19
10.953,4.67
10.968,-1.25
10.984,-6.61
11.000,-9.67
11.015,-10.0
11.031,-8.64
11.046,-7.55
11.062,-8.43
11.078,-11.8
11.093,-16.81
11.109,-21.62
11.125,-24.73
11.140,-25.6
11.156,-24.9
11.171,-23.92
11.187,-23.77
11.203,-24.52
11.218,-25.28
11.234,-24.67
11.250,-21.67
11.265,-16.34
11.281,-9.78
11.296,-3.66
11.312,0.69
11.328,2.97
11.343,3.98
11.359,5.09
11.375,7.35
11.390,10.88
11.406,14.74
11.421,17.59
11.437,18.35
11.453,17.01
11.468,14.66
11.484,12.85
11.500,12.78
11.515,14.52
11.531,17.01
11.546,18.69
11.562,18.49
11.578,16.22
11.593,12.79
11.609,9.7
11.625,8.19
11.640,8.37
11.656,9.29
11.671,9.46
11.687,7.75
11.703,4.11
11.718,-0.44
11.734,-4.4
11.750,-6.67
11.765,-7.23
11.781,-7.18
11.796,-8.09
11.812,-11.13
11.828,-16.28
11.843,-22.43
11.859,-27.86
11.875,-31.21
11.890,-32.09
11.906,-31.25
11.921,-29.78
11.937,-28.51
11.953,-27.49
11.968,-26.04
11.984,-23.22
12.000,-18.5
12.015,-12.37
12.031,-6.09
12.046,-1.19
12.062,1.49
12.078,2.18
12.093,2.07
12.109,2.57
12.125,4.65
12.140,8.14
12.156,11.99
12.171,14.8
12.187,15.78
12.203,15.08
12.218,13.73
12.234,13.04
12.250,13.64
12.265,15.24
12.281,16.81
12.296,17.18
12.312,15.86
12.328,13.31
12.343,10.7
12.359,9.19
12.375,9.29
12.390,10.49
12.406,11.68
12.421,11.72
12.437,10.17
12.453,7.56
12.468,4.87
12.484,2.96
12.500,2.0
12.515,1.43
12.531,0.09
12.546,-2.92
12.562,-7.8
12.578,-13.83
12.593,-19.61
12.609,-23.77
12.625,-25.54
12.640,-25.01
12.656,-22.95
12.671,-20.37
12.687,-17.84
12.703,-15.3
12.718,-12.29
12.734,-8.2
12.750,-2.86
12.765,3.14
12.781,8.81
12.796,13.01
12.812,15.16
12.828,15.37
12.843,14.53
12.859,13.58
12.875,13.27
12.890,13.56
12.906,13.91
12.921,13.75
12.937,12.74
12.953,11.34
12.968,10.29
12.984,10.47
13.000,11.98
13.015,14.38
13.031,16.64
13.046,17.81
13.062,17.56
13.078,16.28
13.093,14.93
13.109,14.3
13.125,14.75
13.140,15.73
13.156,16.22
13.171,15.3
13.187,12.61
13.203,8.73
13.218,4.73
13.234,1.76
13.250,0.28
13.265,-0.18
13.281,-0.79
13.296,-2.78
13.312,-6.66
13.328,-12.1
13.343,-17.79
13.359,-22.38
13.375,-24.85
13.390,-25.1
13.406,-23.9
13.421,-22.25
13.437,-20.79
13.453,-19.33
13.468,-17.26
13.484,-13.72
13.500,-8.49
13.515,-2.13
13.531,4.19
13.546,9.28
13.562,12.59
13.578,14.41
13.593,15.72
13.609,17.35
13.625,19.73
13.640,22.38
13.656,24.33
13.671,24.74
13.687,23.48
13.703,21.25
13.718,19.1
13.734,18.0
13.750,18.12
13.765,18.93
13.781,19.32
13.796,18.37
13.812,15.79
13.828,12.12
13.843,8.42
13.859,5.67
13.875,4.23
13.890,3.67
13.906,3.11
13.921,1.68
13.937,-0.91
13.953,-4.21
13.968,-7.34
13.984,-9.45
14.000,-10.31
14.015,-10.34
14.031,-10.55
14.046,-11.87
14.062,-14.67
14.078,-18.66
14.093,-22.86
14.109,-26.22
14.125,-28.05
14.140,-28.42
14.156,-27.92
14.171,-27.37
14.187,-27.16
14.203,-27.04
14.218,-26.18
14.234,-23.67
14.250,-19.24
14.265,-13.41
14.281,-7.41
14.296,-2.54
14.312,0.44
14.328,1.73
14.343,2.23
14.359,3.05
14.375,4.84
14.390,7.4
14.406,9.86
14.421,11.34
14.437,11.43
14.453,10.56
14.468,9.58
14.484,9.43
14.500,10.38
14.515,12.05
14.531,13.48
14.546,13.8
14.562,12.68
14.578,10.43
14.593,7.98
14.609,6.07
14.625,5.05
14.640,4.5
14.656,3.6
14.671,1.59
14.687,-1.67
14.703,-5.5
14.718,-8.94
14.734,-11.07
14.750,-11.66
14.765,-11.31
14.781,-11.16
14.796,-12.23
14.812,-14.9
14.828,-18.71
14.843,-22.58
14.859,-25.46
14.875,-26.73
14.890,-26.48
14.906,-25.24
14.921,-23.67
14.937,-22.09
14.953,-20.22
14.968,-17.5
14.984,-13.33
15.000,-7.84
15.015,-1.63
15.031,4.13
15.046,8.41
15.062,10.76
15.078,11.46
15.093,11.47
15.109,11.76
15.125,12.85
15.140,14.5
15.156,16.1
15.171,17.02
15.187,17.06
15.203,16.73
15.218,16.83
15.234,17.96
15.250,20.14
15.265,22.64
15.281,24.29
15.296,24.28
15.312,22.51
15.328,19.63
15.343,16.79
15.359,14.97
15.375,14.43
15.390,14.58
15.406,14.43
15.421,13.13
15.437,10.6
15.453,7.56
15.468,5.07
15.484,3.97
15.500,4.14
15.515,4.67
15.531,4.19
15.546,1.71
15.562,-2.84
15.578,-8.59
15.593,-14.13
15.609,-18.07
15.625,-19.78
15.640,-19.56
15.656,-18.24
15.671,-16.64
15.687,-15.07
15.703,-13.22
15.718,-10.39
15.734,-6.24
15.750,-0.92
15.765,4.71
15.781,9.43
15.796,12.38
15.812,13.47
15.828,13.5
15.843,13.57
15.859,14.61
15.875,16.74
15.890,19.24
15.906,21.09
15.921,21.44
15.937,20.18
15.953,18.03
15.968,16.01
15.984,14.97
16.000,15.09
16.015,15.74
16.031,15.93
16.046,14.87
16.062,12.45
16.078,9.46
16.093,6.93
16.109,5.65
16.125,5.66
16.140,6.17
16.156,5.96
16.171,4.18
16.187,0.78
16.203,-3.52
16.218,-7.52
16.234,-10.39
16.250,-11.94
16.265,-12.83
16.281,-14.05
16.296,-16.3
16.312,-19.63
16.328,-23.34
16.343,-26.51
16.359,-28.43
16.375,-29.05
16.390,-28.88
16.406,-28.61
16.421,-28.57
16.437,-28.51
16.453,-27.71
16.468,-25.37
16.484,-21.14
16.500,-15.47
16.515,-9.41
16.531,-4.18
16.546,-0.54
16.562,1.39
16.578,2.37
16.593,3.38
16.609,5.14
16.625,7.71
16.640,10.3
16.656,11.83
16.671,11.58
16.687,9.72
16.703,7.17
16.718,5.25
16.734,4.77
16.750,5.8
16.765,7.51
16.781,8.69
16.796,8.48
16.812,6.79
16.828,4.41
16.843,2.49
16.859,1.85
16.875,2.43
16.890,3.41
16.906,3.64
16.921,2.25
16.937,-0.8
16.953,-4.77
16.968,-8.61
16.984,-11.49
17.000,-13.23
17.015,-14.46
17.031,-16.14
17.046,-18.86
17.062,-22.62
17.078,-26.63
17.093,-29.84
17.109,-31.58
17.125,-31.79
17.140,-31.2
17.156,-30.7
17.171,-30.9
17.187,-31.62
17.203,-32.01
17.218,-31.0
17.234,-28.05
17.250,-23.41
17.265,-18.08
17.281,-13.29
17.296,-9.67
17.312,-7.27
17.328,-5.38
17.343,-3.16
17.359,-0.14
17.375,3.43
17.390,6.7
17.406,8.79
17.421,9.21
17.437,8.27
17.453,6.87
17.468,6.16
17.484,6.81
17.500,8.72
17.515,11.13
17.531,12.9
17.546,13.37
17.562,12.56
17.578,11.28
17.593,10.49
17.609,10.78
17.625,11.96
17.640,12.95
17.656,12.77
17.671,10.71
17.687,7.12
17.703,3.02
17.718,-0.36
17.734,-2.32
17.750,-3.1
17.765,-3.53
17.781,-4.89
17.796,-7.75
17.812,-12.01
17.828,-16.77
17.843,-20.9
17.859,-23.63
17.875,-24.81
17.890,-24.96
17.906,-24.6
17.921,-24.1
17.937,-23.1
17.953,-20.92
17.968,-16.9
17.984,-10.82
18.000,-3.4
18.015,4.11
18.031,10.26
18.046,14.29
18.062,16.15
18.078,16.73
18.093,17.12
18.109,18.07
18.125,19.78
18.140,21.55
18.156,22.56
18.171,22.22
18.187,20.67
18.203,18.7
18.218,17.37
18.234,17.37
18.250,18.56
18.265,20.21
18.281,21.27
18.296,21.11
18.312,19.67
18.328,17.58
18.343,15.74
18.359,14.7
18.375,14.35
18.390,13.96
18.406,12.68
18.421,10.03
18.437,6.32
18.453,2.38
18.468,-0.81
18.484,-2.66
18.500,-3.31
18.515,-3.69
18.531,-4.89
18.546,-7.66
18.562,-12.05
18.578,-17.09
18.593,-21.43
18.609,-23.79
18.625,-23.61
18.640,-21.32
18.656,-17.9
18.671,-14.43
18.687,-11.37
18.703,-8.66
18.718,-5.65
18.734,-1.92
18.750,2.43
18.765,6.8
18.781,10.23
18.796,12.21
18.812,12.82
18.828,12.93
18.843,13.53
18.859,15.27
18.875,17.92
18.890,20.68
18.906,22.53
18.921,22.73
18.937,21.46
18.953,19.58
18.968,18.15
18.984,17.96
19.000,18.87
19.015,20.01
19.031,20.28
19.046,19.1
19.062,16.54
19.078,13.51
19.093,11.0
19.109,9.55
19.125,9.01
19.140,8.46
19.156,6.95
19.171,3.97
19.187,-0.17
19.203,-4.6
19.218,-8.26
19.234,-10.66
19.250,-12.12
19.265,-13.51
19.281,-15.89
19.296,-19.76
19.312,-24.71
19.328,-29.66
19.343,-33.24
19.359,-34.38
19.375,-32.96
19.390,-29.77
19.406,-25.78
19.421,-21.93
19.437,-18.42
19.453,-14.69
19.468,-10.18
19.484,-4.52
19.500,1.86
19.515,7.84
19.531,12.18
19.546,14.19
19.562,14.07
19.578,12.8
19.593,11.75
19.609,11.73
19.625,12.81
19.640,14.14
19.656,14.63
19.671,13.58
19.687,11.15
19.703,8.23
19.718,6.01
19.734,5.37
19.750,6.3
19.765,8.02
19.781,9.52
19.796,9.95
19.812,9.32
19.828,8.22
19.843,7.46
19.859,7.49
19.875,8.18
19.890,8.62
19.906,7.88
19.921,5.46
19.937,1.51
19.953,-3.01
19.968,-7.1
19.984,-10.18
20.000,-12.48
20.015,-14.81
20.031,-18.13
20.046,-22.84
20.062,-28.43
20.078,-33.63
20.093,-36.89
20.109,-37.24
20.125,-34.6
20.140,-29.92
20.156,-24.59
20.171,-19.66
20.187,-15.48
20.203,-11.57
20.218,-7.18
20.234,-1.86
20.250,4.02
20.265,9.38
20.281,13.06
20.296,14.45
20.312,13.93
20.328,12.61
20.343,11.82
20.359,12.3
20.375,13.94
20.390,15.81
20.406,16.86
20.421,16.43
20.437,14.73
20.453,12.68
20.468,11.34
20.484,11.34
20.500,12.48
20.515,13.92
20.531,14.59
20.546,13.91
20.562,12.01
20.578,9.76
20.593,8.19
20.609,7.76
20.625,8.15
20.640,8.31
20.656,7.13
20.671,4.06
20.687,-0.53
20.703,-5.65
20.718,-10.09
20.734,-13.18
20.750,-15.17
20.765,-16.89
20.781,-19.2
20.796,-22.4
20.812,-25.9
20.828,-28.42
20.843,-28.78
20.859,-26.41
20.875,-21.67
20.890,-15.81
20.906,-10.17
20.921,-5.55
20.937,-1.93
20.953,1.41
20.968,5.39
20.984,10.34
21.000,15.78
21.015,20.57
21.031,23.49
21.046,24.04
21.062,22.58
21.078,20.22
21.093,18.27
21.109,17.61
21.125,18.21
21.140,19.31
21.156,20.04
21.171,19.78
21.187,18.83
21.203,17.86
21.218,17.72
21.234,18.73
21.250,20.36
21.265,21.43
21.281,20.84
21.296,18.17
21.312,13.77
21.328,8.88
21.343,4.71
21.359,1.9
21.375,0.28
21.390,-1.02
21.406,-2.99
21.421,-6.05
21.437,-9.82
21.453,-13.47
21.468,-16.1
21.484,-17.47
21.500,-18.07
21.515,-18.92
21.531,-21.0
21.546,-24.46
21.562,-28.59
21.578,-32.01
21.593,-33.32
21.609,-31.81
21.625,-27.79
21.640,-22.33
21.656,-16.68
21.671,-11.71
21.687,-7.5
21.703,-3.55
21.718,0.8
21.734,5.9
21.750,11.37
21.765,16.32
21.781,19.81
21.796,21.42
21.812,21.48
21.828,20.88
21.843,20.58
21.859,21.13
21.875,22.38
21.890,23.59
21.906,23.95
21.921,23.18
21.937,21.56
21.953,19.97
21.968,19.19
21.984,19.52
22.000,20.52
22.015,21.25
22.031,20.73
22.046,18.6
22.062,15.33
22.078,11.84
22.093,9.05
22.109,7.27
22.125,6.07
22.140,4.45
22.156,1.55
22.171,-2.85
22.187,-8.11
22.203,-13.02
22.218,-16.56
22.234,-18.32
22.250,-18.86
22.265,-19.29
22.281,-20.66
22.296,-23.36
22.312,-26.96
22.328,-30.46
22.343,-32.69
22.359,-33.07
22.375,-31.62
22.390,-28.98
22.406,-25.95
22.421,-23.01
22.437,-20.14
22.453,-16.91
22.468,-13.03
22.484,-8.37
22.500,-3.39
22.515,1.07
22.531,4.33
22.546,6.1
22.562,6.82
22.578,7.32
22.593,8.41
22.609,10.39
22.625,12.95
22.640,15.28
22.656,16.7
22.671,16.99
22.687,16.54
22.703,16.21
22.718,16.75
22.734,18.25
22.750,20.1
22.765,21.31
22.781,20.98
22.796,18.86
22.812,15.55
22.828,12.02
22.843,9.29
22.859,7.82
22.875,7.3
22.890,6.91
22.906,5.85
22.921,3.69
22.937,0.64
22.953,-2.4
22.968,-4.74
22.984,-6.12
23.000,-6.84
23.015,-7.76
23.031,-9.7
23.046,-12.78
23.062,-16.54
23.078,-20.05
23.093,-22.29
23.109,-22.85
23.125,-22.01
23.140,-20.55
23.156,-19.15
23.171,-18.11
23.187,-17.05
23.203,-15.22
23.218,-11.94
23.234,-7.03
23.250,-1.08
23.265,4.85
23.281,9.61
23.296,12.66
23.312,14.26
23.328,15.23
23.343,16.6
23.359,18.87
23.375,21.8
23.390,24.43
23.406,25.86
23.421,25.67
23.437,24.19
23.453,22.32
23.468,21.09
23.484,21.03
23.500,21.93
23.515,23.15
23.531,23.76
23.546,23.26
23.562,21.84
23.578,20.15
23.593,18.85
23.609,18.33
23.625,18.29
23.640,17.92
23.656,16.38
23.671,13.2
23.687,8.71
23.703,3.88
23.718,-0.12
23.734,-2.67
23.750,-3.93
23.765,-4.73
23.781,-6.16
23.796,-8.88
23.812,-12.78
23.828,-17.13
23.843,-20.92
23.859,-23.71
23.875,-25.66
23.890,-27.41
23.906,-29.43
23.921,-31.69
23.937,-33.32
23.953,-33.28
23.968,-30.76
23.984,-25.78
24.000,-19.25
24.015,-12.57
24.031,-6.92
24.046,-2.82
24.062,-0.04
24.078,2.3
24.093,4.96
24.109,8.24
24.125,11.76
24.140,14.8
24.156,16.71
24.171,17.31
24.187,17.17
24.203,17.09
24.218,17.89
24.234,19.67
24.250,21.84
24.265,23.33
24.281,23.28
24.296,21.48
24.312,18.41
24.328,15.09
24.343,12.54
24.359,11.22
24.375,10.86
24.390,10.63
24.406,9.7
24.421,7.77
24.437,5.21
24.453,2.82
24.468,1.3
24.484,0.79
24.500,0.77
24.515,0.25
24.531,-1.58
24.546,-4.93
24.562,-9.22
24.578,-13.42
24.593,-16.56
24.609,-18.31
24.625,-19.28
24.640,-20.64
24.656,-23.36
24.671,-27.77
24.687,-33.06
24.703,-37.69
24.718,-40.07
24.734,-39.3
24.750,-35.64
24.765,-30.36
24.781,-25.05
24.796,-20.78
24.812,-17.73
24.828,-15.22
24.843,-12.28
24.859,-8.32
24.875,-3.48
24.890,1.38
24.906,5.23
24.921,7.45
24.937,8.18
24.953,8.22
24.968,8.51
24.984,9.57
25.000,11.19
25.015,12.63
25.031,13.06
25.046,12.09
25.062,10.13
25.078,8.06
25.093,6.78
25.109,6.75
25.125,7.67
25.140,8.66
25.156,8.88
25.171,7.83
25.187,5.87
25.203,3.8
25.218,2.53
25.234,2.4
25.250,3.07
25.265,3.7
25.281,3.29
25.296,1.39
25.312,-1.82
25.328,-5.53
25.343,-8.84
25.359,-11.22
25.375,-12.88
25.390,-14.5
25.406,-16.87
25.421,-20.42
25.437,-24.8
25.453,-29.17
25.468,-32.39
25.484,-33.72
25.500,-33.06
25.515,-30.99
25.531,-28.3
25.546,-25.57
25.562,-22.88
25.578,-19.63
25.593,-15.25
25.609,-9.55
25.625,-3.04
25.640,3.17
25.656,7.96
25.671,10.7
25.687,11.62
25.703,11.58
25.718,11.67
25.734,12.6
25.750,14.2
25.765,15.78
25.781,16.51
25.796,16.13
25.812,15.0
25.828,14.13
25.843,14.35
25.859,15.95
25.875,18.41
25.890,20.56
25.906,21.32
25.921,20.24
25.937,17.86
25.953,15.23
25.968,13.46
25.984,12.97
26.000,13.44
26.015,13.85
26.031,13.2
26.046,10.99
26.062,7.48
26.078,3.57
26.093,0.2
26.109,-2.11
26.125,-3.56
26.140,-4.86
26.156,-6.88
26.171,-10.1
26.187,-14.29
26.203,-18.61
26.218,-22.06
26.234,-23.83
26.250,-23.75
26.265,-22.28
26.281,-20.08
26.296,-17.67
26.312,-15.12
26.328,-12.08
26.343,-8.17
26.359,-3.34
26.375,2.08
26.390,7.26
26.406,11.36
26.421,14.02
26.437,15.3
26.453,15.94
26.468,16.79
26.484,18.41
26.500,20.76
26.515,23.2
26.531,24.77
26.546,24.81
26.562,23.37
26.578,21.07
26.593,19.0
26.609,17.9
26.625,17.83
26.640,18.21
26.656,18.15
26.671,16.96
26.687,14.65
26.703,11.9
26.718,9.56
26.734,8.2
26.750,7.66
26.765,7.23
26.781,6.01
26.796,3.61
26.812,0.26
26.828,-3.26
26.843,-6.0
26.859,-7.54
26.875,-8.21
26.890,-8.97
26.906,-10.89
26.921,-14.52
26.937,-19.61
26.953,-25.22
26.968,-30.17
26.984,-33.55
27.000,-35.1
27.015,-35.13
27.031,-34.09
27.046,-32.39
27.062,-29.98
27.078,-26.51
27.093,-21.65
27.109,-15.48
27.125,-8.61
27.140,-2.1
27.156,3.12
27.171,6.53
27.187,8.36
27.203,9.29
27.218,10.26
27.234,11.87
27.250,14.01
27.265,16.12
27.281,17.36
27.296,17.29
27.312,16.11
27.328,14.57
27.343,13.64
27.359,13.85
27.375,15.12
27.390,16.64
27.406,17.41
27.421,16.76
27.437,14.68
27.453,11.88
27.468,9.35
27.484,7.91
27.500,7.57
27.515,7.67
27.531,7.14
27.546,5.27
27.562,1.84
27.578,-2.57
27.593,-6.97
27.609,-10.58
27.625,-13.16
27.640,-15.21
27.656,-17.58
27.671,-20.97
27.687,-25.29
27.703,-29.95
27.718,-33.96
27.734,-36.49
27.750,-37.24
27.765,-36.56
27.781,-34.99
27.796,-32.96
27.812,-30.59
27.828,-27.57
27.843,-23.46
27.859,-18.24
27.875,-12.3
27.890,-6.49
27.906,-1.73
27.921,1.47
27.937,3.27
27.953,4.43
27.968,5.77
27.984,7.94
28.000,10.64
28.015,13.12
28.031,14.3
28.046,13.65
28.062,11.46
28.078,8.72
28.093,6.6
28.109,5.95
28.125,6.81
28.140,8.38
28.156,9.7
28.171,10.04
28.187,9.33
28.203,8.19
28.218,7.41
28.234,7.34
28.250,7.76
28.265,7.95
28.281,6.92
28.296,4.32
28.312,0.48
28.328,-3.76
28.343,-7.16
28.359,-9.04
28.375,-9.5
28.390,-9.42
28.406,-9.89
28.421,-11.82
28.437,-15.27
28.453,-19.51
28.468,-23.41
28.484,-25.67
28.500,-25.77
28.515,-23.94
28.531,-21.01
28.546,-17.74
28.562,-14.62
28.578,-11.44
28.593,-7.74
28.609,-3.2
28.625,2.2
28.640,7.75
28.656,12.47
28.671,15.7
28.687,17.46
28.703,18.25
28.718,19.04
28.734,20.44
28.750,22.4
28.765,24.36
28.781,25.54
28.796,25.24
28.812,23.49
28.828,20.94
28.843,18.39
28.859,16.62
28.875,15.79
28.890,15.43
28.906,14.75
28.921,13.26
28.937,10.98
28.953,8.47
28.968,6.54
28.984,5.61
29.000,5.64
29.015,5.9
29.031,5.38
29.046,3.45
29.062,0.25
29.078,-3.55
29.093,-6.91
29.109,-9.21
29.125,-10.51
29.140,-11.38
29.156,-12.79
29.171,-15.4
29.187,-18.97
29.203,-22.49
29.218,-24.67
29.234,-24.45
29.250,-21.69
29.265,-17.24
29.281,-12.31
29.296,-8.04
29.312,-4.96
29.328,-2.63
29.343,-0.28
29.359,2.75
29.375,6.48
29.390,10.26
29.406,13.02
29.421,14.21
29.437,13.88
29.453,12.85
29.468,12.29
29.484,13.03
29.500,15.12
29.515,17.85
29.531,20.13
29.546,20.95
29.562,20.16
29.578,18.26
29.593,16.21
29.609,14.98
29.625,14.74
29.640,15.02
29.656,14.91
29.671,13.63
29.687,10.88
29.703,7.25
29.718,3.56
29.734,0.63
29.750,-1.25
29.765,-2.54
29.781,-3.99
29.796,-6.18
29.812,-9.14
29.828,-12.44
29.843,-15.35
29.859,-17.43
29.875,-18.78
29.890,-19.98
29.906,-21.83
29.921,-24.66
29.937,-28.21
29.953,-31.48
29.968,-33.3
29.984,-32.77
30.000,-29.74
30.015,-24.94
30.031,-19.54
30.046,-14.62
30.062,-10.63
30.078,-7.37
30.093,-4.04
30.125,4.94
30.140,10.19
30.156,14.66
30.171,17.36
30.187,17.89
30.203,16.8
30.218,15.17
30.234,14.16
30.250,14.35
30.265,15.48
30.281,16.52
30.296,16.52
30.312,15.02
30.328,12.45
30.343,9.86
30.359,8.37
30.375,8.35
30.390,9.33
30.406,10.24
30.421,10.03
30.437,8.24
30.453,5.25
30.468,1.96
30.484,-0.68
30.500,-2.31
30.515,-3.32
30.531,-4.57
30.546,-6.93
30.562,-10.63
30.578,-15.23
30.593,-19.73
30.609,-23.3
30.625,-25.56
30.640,-27.05
30.656,-28.67
30.671,-31.21
30.687,-34.75
30.703,-38.43
30.718,-40.92
30.734,-40.98
30.750,-38.23
30.765,-33.27
30.781,-27.48
30.796,-22.27
30.812,-18.33
30.828,-15.41
30.843,-12.61
30.859,-8.96
30.875,-4.19
30.890,1.13
30.906,5.85
30.921,8.98
30.937,10.09
30.953,9.86
30.968,9.44
30.984,10.12
31.000,12.38
31.015,15.69
31.031,18.74
31.046,20.17
31.062,19.34
31.078,16.71
31.093,13.77
31.109,12.01
31.125,12.23
31.140,13.98
31.156,15.67
31.171,15.64
31.187,13.05
31.203,8.55
31.218,3.82
31.234,0.79
31.250,0.34
31.265,1.87
31.281,3.65
31.296,3.86
31.312,1.52
31.328,-3.0
31.343,-8.33
31.359,-13.0
31.375,-16.22
31.390,-18.02
31.406,-19.01
31.421,-19.51
31.437,-19.41
31.453,-18.02
31.468,-14.97
31.484,-10.39
31.500,-5.1
31.515,-0.35
31.531,3.0
31.546,4.84
31.562,5.8
31.578,6.88
31.593,9.0
31.609,12.43
31.625,16.79
31.640,21.21
31.656,24.69
31.671,26.59
31.687,26.93
31.703,26.21
31.718,25.22
31.734,24.71
31.750,24.94
31.765,25.57
31.781,25.89
31.796,25.25
31.812,23.43
31.828,20.83
31.843,18.15
31.859,16.06
31.875,14.76
31.890,13.76
31.906,12.32
31.921,9.82
31.937,6.25
31.953,2.22
31.968,-1.25
31.984,-3.38
32.000,-3.95
32.015,-3.68
32.031,-3.87
32.046,-5.57
32.062,-9.2
32.078,-14.08
32.093,-18.83
32.109,-21.87
32.125,-22.22
32.140,-19.96
32.156,-16.0
32.171,-11.72
32.187,-7.96
32.203,-4.85
32.218,-1.79
32.234,2.03
32.250,7.03
32.265,12.8
32.281,18.3
32.296,22.4
32.312,24.37
32.328,24.58
32.343,23.91
32.359,23.6
32.375,24.3
32.390,26.0
32.406,27.83
32.421,28.79
32.437,28.32
32.453,26.59
32.468,24.45
32.484,22.86
32.500,22.45
32.515,23.05
32.531,23.82
32.546,23.78
32.562,22.27
32.578,19.42
32.593,15.88
32.609,12.46
32.625,9.69
32.640,7.53
32.656,5.46
32.671,2.77
32.687,-0.89
32.703,-5.29
32.718,-9.74
32.734,-13.44
32.750,-15.87
32.765,-17.19
32.781,-18.13
32.796,-19.53
32.812,-22.0
32.828,-25.21
32.843,-28.21
32.859,-29.68
32.875,-28.8
32.890,-25.57
32.906,-20.89
32.921,-16.05
32.937,-11.94
32.953,-8.7
32.968,-5.63
32.984,-1.86
33.000,3.18
33.015,9.1
33.031,14.96
33.046,19.69
33.062,22.6
33.078,23.89
33.093,24.37
33.109,25.03
33.125,26.34
33.140,28.08
33.156,29.51
33.171,29.72
33.187,28.36
33.203,25.81
33.218,23.01
33.234,20.94
33.250,20.2
33.265,20.49
33.281,20.84
33.296,20.06
33.312,17.42
33.328,13.0
33.343,7.65
33.359,2.58
33.375,-1.37
33.390,-3.98
33.406,-5.8
33.421,-7.69
33.437,-10.29
33.453,-13.63
33.468,-17.13
33.484,-20.11
33.500,-22.1
33.515,-23.32
33.531,-24.39
33.546,-26.0
33.562,-28.34
33.578,-31.04
33.593,-33.12
33.609,-33.51
33.625,-31.68
33.640,-27.93
33.656,-23.14
33.671,-18.48
33.687,-14.64
33.703,-11.66
33.718,-8.86
33.734,-5.37
33.750,-0.61
33.765,5.29
33.781,11.43
33.796,16.63
33.812,19.98
33.828,21.34
33.843,21.33
33.859,21.15
33.875,21.68
33.890,23.13
33.906,24.96
33.921,26.15
33.937,25.93
33.953,24.11
33.968,21.25
33.984,18.31
34.000,16.18
34.015,15.02
34.031,14.34
34.046,13.22
34.062,10.95
34.078,7.4
34.093,3.14
34.109,-0.91
34.125,-4.0
34.140,-5.92
34.156,-7.29
34.171,-9.11
34.187,-11.98
34.203,-15.93
34.218,-20.2
34.234,-23.75
34.250,-25.84
34.265,-26.55
34.281,-26.66
34.296,-27.27
34.312,-29.1
34.328,-31.84
34.343,-34.5
34.359,-35.65
34.375,-34.36
34.390,-30.58
34.406,-25.2
34.421,-19.54
34.437,-14.7
34.453,-11.04
34.468,-8.05
34.484,-4.94
34.500,-1.04
34.515,3.55
34.531,8.05
34.546,11.41
34.562,12.95
34.578,12.76
34.593,11.68
34.609,11.0
34.625,11.55
34.640,13.49
34.656,16.03
34.671,17.98
34.687,18.45
34.703,17.31
34.718,15.24
34.734,13.26
34.750,12.31
34.765,12.42
34.781,12.99
34.796,13.02
34.812,11.69
34.828,8.91
34.843,5.23
34.859,1.78
34.875,-0.52
34.890,-1.26
34.906,-0.9
34.921,-0.32
34.937,-0.41
34.953,-1.71
34.968,-3.95
34.984,-6.47
35.000,-8.41
35.015,-9.47
35.031,-9.83
35.046,-10.23
35.062,-11.22
35.078,-12.82
35.093,-14.4
35.109,-14.92
35.125,-13.65
35.140,-10.52
35.156,-6.38
35.171,-2.42
35.187,0.3
35.203,1.57
35.218,2.05
35.234,2.82
35.250,4.91
35.265,8.52
35.281,12.98
35.296,17.11
35.312,19.92
35.328,21.11
35.343,21.27
35.359,21.51
35.375,22.73
35.390,25.11
35.406,27.92
35.421,29.82
35.437,29.69
35.453,27.21
35.468,23.03
35.484,18.47
35.500,14.83
35.515,12.7
35.531,11.73
35.546,10.92
35.562,9.21
35.578,6.13
35.593,2.03
35.609,-2.06
35.625,-5.13
35.640,-6.62
35.656,-6.9
35.671,-6.78
35.687,-7.25
35.703,-8.8
35.718,-11.26
35.734,-14.02
35.750,-16.36
35.765,-18.01
35.781,-19.07
35.796,-20.16
35.812,-21.65
35.828,-23.38
35.843,-24.63
35.859,-24.41
35.875,-22.03
35.890,-17.54
35.906,-11.85
35.921,-6.24
35.937,-1.91
35.953,0.75
35.968,2.15
35.984,3.38
36.000,5.4
36.015,8.55
36.031,12.37
36.046,15.76
36.062,17.73
36.078,17.96
36.093,16.95
36.109,15.75
36.125,15.42
36.140,16.31
36.156,17.87
36.171,19.01
36.187,18.79
36.203,16.9
36.218,14.0
36.234,11.17
36.250,9.41
36.265,9.01
36.281,9.45
36.296,9.66
36.312,8.69
36.328,6.18
36.343,2.63
36.359,-0.97
36.375,-3.74
36.390,-5.31
36.406,-6.06
36.421,-6.9
36.437,-8.65
36.453,-11.66
36.468,-15.65
36.484,-19.87
36.500,-23.52
36.515,-26.2
36.531,-28.02
36.546,-29.4
36.562,-30.8
36.578,-32.13
36.593,-32.86
36.609,-32.18
36.625,-29.48
36.640,-24.69
36.656,-18.56
36.671,-12.31
36.687,-7.14
36.703,-3.74
36.718,-1.92
36.734,-0.9
36.750,0.26
36.765,2.09
36.781,4.49
36.796,6.75
36.812,8.19
36.828,8.47
36.843,7.91
36.859,7.42
36.875,7.85
36.890,9.46
36.906,11.8
36.921,13.79
36.937,14.38
36.953,13.19
36.968,10.53
36.984,7.44
37.000,5.02
37.015,3.82
37.031,3.58
37.046,3.41
37.062,2.29
37.078,-0.31
37.093,-4.15
37.109,-8.37
37.125,-12.0
37.140,-14.38
37.156,-15.62
37.171,-16.28
37.187,-17.13
37.203,-18.64
37.218,-20.72
37.234,-22.86
37.250,-24.46
37.265,-25.19
37.281,-25.16
37.296,-24.93
37.312,-24.9
37.328,-25.04
37.343,-24.86
37.359,-23.53
37.375,-20.43
37.390,-15.53
37.406,-9.5
37.421,-3.5
37.437,1.23
37.453,4.09
37.468,5.28
37.484,5.51
37.500,5.89
37.515,7.07
37.531,8.97
37.546,10.93
37.562,12.05
37.578,11.77
37.593,10.25
37.609,8.42
37.625,7.25
37.640,7.58
37.656,9.39
37.671,11.86
37.687,13.95
37.703,14.92
37.718,14.75
37.734,14.04
37.750,13.56
37.765,13.68
37.781,14.14
37.796,14.15
37.812,12.79
37.828,9.72
37.843,5.45
37.859,1.11
37.875,-2.17
37.890,-3.81
37.906,-4.22
37.921,-4.44
37.937,-5.58
37.953,-8.24
37.968,-12.12
37.984,-16.28
38.000,-19.55
38.015,-21.1
38.031,-20.82
38.046,-19.25
38.062,-17.12
38.078,-14.93
38.093,-12.84
38.109,-10.47
38.125,-7.47
38.140,-3.77
38.156,0.34
38.171,4.22
38.187,7.21
38.203,8.99
38.218,9.71
38.234,9.92
38.250,10.36
38.265,11.46
38.281,13.17
38.296,14.88
38.312,15.91
38.328,15.79
38.343,14.62
38.359,12.98
38.375,11.7
38.390,11.34
38.406,11.79
38.421,12.32
38.437,11.99
38.453,10.19
38.468,7.05
38.484,3.36
38.500,0.19
38.515,-1.63
38.531,-1.99
38.546,-1.67
38.562,-1.72
38.578,-2.97
38.593,-5.59
38.609,-9.04
38.625,-12.39
38.640,-14.89
38.656,-16.45
38.671,-17.56
38.687,-19.11
38.703,-21.75
38.718,-25.49
38.734,-29.64
38.750,-33.14
38.765,-35.02
38.781,-34.85
38.796,-33.04
38.812,-30.34
38.828,-27.64
38.843,-25.27
38.859,-23.04
38.875,-20.34
38.890,-16.7
38.906,-12.15
38.921,-7.4
38.937,-3.43
38.953,-0.96
38.968,-0.06
38.984,-0.07
39.015,0.88
39.031,2.7
39.046,4.8
39.062,6.25
39.078,6.38
39.093,5.16
39.109,3.2
39.125,1.44
39.140,0.58
39.156,0.67
39.171,1.24
39.187,1.42
39.203,0.66
39.218,-1.15
39.234,-3.46
39.250,-5.48
39.265,-6.67
39.281,-6.88
39.296,-6.56
39.312,-6.4
39.328,-6.83
39.343,-7.78
39.359,-8.78
39.375,-9.11
39.390,-8.33
39.406,-6.56
39.421,-4.58
39.437,-3.37
39.453,-3.67
39.468,-5.6
39.484,-8.5
39.500,-11.32
39.515,-13.08
39.531,-13.29
39.546,-12.24
39.562,-10.76
39.578,-9.57
39.593,-8.94
39.609,-8.57
39.625,-7.77
39.640,-5.91
39.656,-2.99
39.671,0.47
39.687,3.38
39.703,4.9
39.718,4.74
39.734,3.34
39.750,1.77
39.765,0.99
39.781,1.58
39.796,3.35
39.812,5.55
39.828,7.28
39.843,7.98
39.859,7.73
39.875,7.05
39.890,6.65
39.906,7.03
39.921,8.03
39.937,9.1
39.953,9.53
39.968,9.02
39.984,7.55
40.000,5.6
40.015,3.63
40.031,1.92
40.046,0.39
40.062,-1.35
40.078,-3.64
40.093,-6.4
40.109,-9.13
40.125,-11.15
40.140,-11.86
40.156,-11.35
40.171,-10.27
40.187,-9.6
40.203,-10.07
40.218,-11.61
40.234,-13.48
40.250,-14.45
40.265,-13.65
40.281,-10.85
40.296,-6.71
40.312,-2.39
40.328,1.19
40.343,3.61
40.359,5.22
40.375,6.69
40.390,8.6
40.406,11.03
40.421,13.67
40.437,15.95
40.453,17.46
40.468,18.35
40.484,19.03
40.500,20.02
40.515,21.7
40.531,23.86
40.546,25.92
40.562,27.1
40.578,26.77
40.593,24.94
40.609,22.17
40.625,19.29
40.640,16.98
40.656,15.55
40.671,14.59
40.687,13.4
40.703,11.31
40.718,8.1
40.734,4.24
40.750,0.55
40.765,-2.22
40.781,-3.81
40.796,-4.53
40.812,-5.27
40.828,-6.74
40.843,-9.3
40.859,-12.66
40.875,-16.07
40.890,-18.71
40.906,-20.01
40.921,-19.82
40.937,-18.34
40.953,-16.07
40.968,-13.27
40.984,-10.02
41.000,-6.24
41.015,-1.88
41.031,2.8
41.046,7.32
41.062,11.07
41.078,13.53
41.093,14.57
41.109,14.52
41.125,14.04
41.140,13.67
41.156,13.67
41.171,13.82
41.187,13.64
41.203,12.69
41.218,10.9
41.234,8.62
41.250,6.53
41.265,5.28
41.281,5.04
41.296,5.67
41.312,6.59
41.328,7.22
41.343,7.25
41.359,6.76
41.375,6.05
41.390,5.49
41.406,5.23
41.421,4.89
41.437,3.99
41.453,1.99
41.468,-1.24
41.484,-5.46
41.500,-9.96
41.515,-13.99
41.531,-17.12
41.546,-19.3
41.562,-21.06
41.578,-22.94
41.593,-25.25
41.609,-27.74
41.625,-29.71
41.640,-30.22
41.656,-28.71
41.671,-25.31
41.687,-20.76
41.703,-16.07
41.718,-11.94
41.734,-8.53
41.750,-5.46
41.765,-2.05
41.781,2.19
41.796,7.07
41.812,11.91
41.828,15.82
41.843,18.14
41.859,18.89
41.875,18.65
41.890,18.11
41.906,17.91
41.921,18.22
41.937,18.66
41.953,18.78
41.968,18.25
41.984,17.16
42.000,16.03
42.015,15.45
42.031,15.72
42.046,16.6
42.062,17.44
42.078,17.39
42.093,15.93
42.109,13.09
42.125,9.38
42.140,5.65
42.156,2.57
42.171,0.41
42.187,-1.08
42.203,-2.49
42.218,-4.33
42.234,-6.8
42.250,-9.68
42.265,-12.6
42.281,-15.16
42.296,-17.4
42.312,-19.67
42.328,-22.35
42.343,-25.66
42.359,-29.26
42.375,-32.38
42.390,-34.01
42.406,-33.56
42.421,-30.88
42.437,-26.64
42.453,-21.73
42.468,-16.89
42.484,-12.36
42.500,-7.76
42.515,-2.57
42.531,3.5
42.546,10.04
42.562,16.24
42.578,21.0
42.593,23.64
42.609,24.21
42.625,23.47
42.640,22.43
42.656,21.89
42.671,22.04
42.687,22.48
42.703,22.6
42.718,22.05
42.734,20.92
42.750,19.71
42.765,19.01
42.781,19.09
42.796,19.75
42.812,20.27
42.828,19.88
42.843,18.13
42.859,15.14
42.875,11.43
42.890,7.74
42.906,4.49
42.921,1.78
42.937,-0.77
42.953,-3.66
42.968,-7.16
42.984,-11.04
43.000,-14.67
43.015,-17.39
43.031,-18.88
43.046,-19.46
43.062,-19.84
43.078,-20.78
43.093,-22.52
43.109,-24.64
43.125,-26.12
43.140,-25.93
43.156,-23.62
43.171,-19.43
43.187,-14.33
43.203,-9.46
43.218,-5.52
43.234,-2.51
43.250,0.05
43.265,2.88
43.281,6.32
43.296,10.04
43.312,13.35
43.328,15.43
43.343,15.87
43.359,14.91
43.375,13.34
43.390,12.13
43.406,11.97
43.421,12.92
43.437,14.52
43.453,16.11
43.468,17.18
43.484,17.71
43.500,17.98
43.515,18.49
43.531,19.35
43.546,20.33
43.562,20.72
43.578,19.78
43.593,17.32
43.609,13.65
43.625,9.61
43.640,6.16
43.656,3.8
43.671,2.4
43.687,1.34
43.703,-0.06
43.718,-2.36
43.734,-5.39
43.750,-8.67
43.765,-11.45
43.781,-13.19
43.796,-13.91
43.812,-14.23
43.828,-14.91
43.843,-16.51
43.859,-19.02
43.875,-21.76
43.890,-23.82
43.906,-24.25
43.921,-22.69
43.937,-19.53
43.953,-15.69
43.968,-12.14
43.984,-9.34
44.000,-7.18
44.015,-5.03
44.031,-2.41
44.046,0.87
44.062,4.44
44.078,7.53
44.093,9.5
44.109,10.19
44.125,10.06
44.140,9.91
44.156,10.47
44.171,11.98
44.187,14.09
44.203,16.13
44.218,17.54
44.234,18.1
44.250,18.01
44.265,17.69
44.281,17.46
44.296,17.43
44.312,17.34
44.328,16.74
44.343,15.25
44.359,12.88
44.375,10.0
44.390,7.21
44.406,5.03
44.421,3.58
44.437,2.63
44.453,1.62
44.468,0.05
44.484,-2.23
44.500,-4.86
44.515,-7.24
44.531,-8.89
44.546,-9.78
44.562,-10.35
44.578,-11.28
44.593,-12.99
44.609,-15.32
44.625,-17.45
44.640,-18.37
44.656,-17.36
44.671,-14.38
44.687,-10.16
44.703,-5.76
44.718,-2.02
44.734,0.7
44.750,2.76
44.765,4.77
44.781,7.18
44.796,9.97
44.812,12.67
44.828,14.59
44.843,15.22
44.859,14.67
44.875,13.42
44.890,12.32
44.906,12.04
44.921,12.7
44.937,13.92
44.953,15.01
44.968,15.29
44.984,14.45
45.000,12.78
45.015,10.85
45.031,9.3
45.046,8.42
45.062,7.95
45.078,7.37
45.093,6.2
45.109,4.23
45.125,1.85
45.140,-0.36
45.156,-1.87
45.171,-2.5
45.187,-2.61
45.203,-2.86
45.218,-3.82
45.234,-5.71
45.250,-8.26
45.265,-10.88
45.281,-13.04
45.296,-14.62
45.312,-15.87
45.328,-17.29
45.343,-19.22
45.359,-21.43
45.375,-23.3
45.390,-23.97
45.406,-22.77
45.421,-19.74
45.437,-15.6
45.453,-11.36
45.468,-7.83
45.484,-5.31
45.500,-3.4
45.515,-1.42
45.531,1.22
45.546,4.57
45.562,8.19
45.578,11.26
45.593,13.17
45.609,13.72
45.625,13.26
45.640,12.48
45.656,12.0
45.671,12.02
45.687,12.34
45.703,12.39
45.718,11.76
45.734,10.35
45.750,8.47
45.765,6.68
45.781,5.49
45.796,5.03
45.812,5.03
45.828,5.05
45.843,4.62
45.859,3.71
45.875,2.58
45.890,1.62
45.906,1.15
45.921,1.13
45.937,1.26
45.953,0.95
45.968,-0.17
45.984,-2.3
46.000,-5.22
46.015,-8.57
46.031,-11.97
46.046,-15.23
46.062,-18.44
46.078,-21.78
46.093,-25.3
46.109,-28.66
46.125,-31.27
46.140,-32.34
46.156,-31.34
46.171,-28.28
46.187,-23.77
46.203,-18.84
46.218,-14.38
46.234,-10.85
46.250,-8.11
46.265,-5.64
46.281,-2.96
46.296,0.13
46.312,3.29
46.328,5.96
46.343,7.63
46.359,8.22
46.375,8.08
46.390,7.81
46.406,7.88
46.421,8.36
46.437,9.05
46.453,9.42
46.468,9.11
46.484,8.05
46.500,6.59
46.515,5.24
46.531,4.42
46.546,4.18
46.562,4.14
46.578,3.73
46.593,2.62
46.609,0.78
46.625,-1.41
46.640,-3.3
46.656,-4.48
46.671,-4.92
46.687,-5.05
46.703,-5.45
46.718,-6.53
46.734,-8.31
46.750,-10.43
46.765,-12.43
46.781,-13.93
46.796,-14.89
46.812,-15.75
46.828,-17.08
46.843,-19.31
46.859,-22.44
46.875,-25.85
46.890,-28.52
46.906,-29.46
46.921,-28.09
46.937,-24.64
46.953,-19.98
46.968,-15.22
46.984,-11.16
47.000,-8.01
47.015,-5.34
47.031,-2.51
47.046,0.74
47.062,4.17
47.078,6.98
47.093,8.41
47.109,8.1
47.125,6.45
47.140,4.4
47.156,3.01
47.171,2.93
47.187,3.98
47.203,5.51
47.218,6.7
47.234,7.02
47.250,6.46
47.265,5.42
47.281,4.32
47.296,3.38
47.312,2.37
47.328,0.82
47.343,-1.55
47.359,-4.61
47.375,-7.77
47.390,-10.21
47.406,-11.35
47.421,-11.12
47.437,-10.1
47.453,-9.25
47.468,-9.42
47.484,-10.88
47.500,-13.25
47.515,-15.69
47.531,-17.38
47.546,-17.92
47.562,-17.57
47.578,-17.11
47.593,-17.3
47.609,-18.43
47.625,-20.04
47.640,-21.11
47.656,-20.61
47.671,-18.01
47.687,-13.63
47.703,-8.5
47.718,-3.87
47.734,-0.54
47.750,1.52
47.765,2.94
47.781,4.7
47.796,7.2
47.812,10.22
47.828,12.93
47.843,14.57
47.859,14.7
47.875,13.79
47.890,12.84
47.906,12.76
47.921,13.94
47.937,15.93
47.953,17.69
47.968,18.18
47.984,17.06
48.000,14.77
48.015,12.4
48.031,10.95
48.046,10.8
48.062,11.56
48.078,12.25
48.093,11.98
48.109,10.37
48.125,7.79
48.140,5.17
48.156,3.37
48.171,2.72
48.187,2.79
48.203,2.78
48.218,1.88
48.234,-0.18
48.250,-2.96
48.265,-5.7
48.281,-7.53
48.296,-8.2
48.312,-8.11
48.328,-8.2
48.343,-9.2
48.359,-11.25
48.375,-13.63
48.390,-15.13
48.406,-14.65
48.421,-11.82
48.437,-7.22
48.453,-2.06
48.468,2.31
48.484,5.27
48.500,7.01
48.515,8.52
48.531,10.82
48.546,14.25
48.562,18.47
48.578,22.35
48.593,24.91
48.609,25.63
48.625,24.96
48.640,23.81
48.656,23.18
48.671,23.46
48.687,24.07
48.703,24.16
48.718,22.82
48.734,19.96
48.750,16.22
48.765,12.78
48.781,10.65
48.796,10.05
48.812,10.36
48.828,10.32
48.843,9.0
48.859,6.02
48.875,1.93
48.890,-2.28
48.906,-5.68
48.921,-7.88
48.937,-9.28
48.953,-10.54
48.968,-12.25
48.984,-14.32
49.000,-16.24
49.015,-17.25
49.031,-16.98
49.046,-15.76
49.062,-14.38
49.078,-13.99
49.093,-15.15
49.109,-17.82
49.125,-21.06
49.140,-23.73
49.156,-24.83
49.171,-24.04
49.187,-21.81
49.203,-18.95
49.218,-16.28
49.234,-13.96
49.250,-11.7
49.265,-8.93
49.281,-5.23
49.296,-0.69
49.312,3.98
49.328,7.78
49.343,10.05
49.359,10.71
49.375,10.43
49.390,10.12
49.406,10.53
49.421,11.9
49.437,13.81
49.453,15.56
49.468,16.46
49.484,16.29
49.500,15.36
49.515,14.34
49.531,13.82
49.546,14.01
49.562,14.61
49.578,14.93
49.593,14.35
49.609,12.62
49.625,10.16
49.640,7.7
49.656,6.12
49.671,5.74
49.687,6.36
49.703,7.18
49.718,7.37
49.734,6.53
49.750,4.77
49.765,2.73
49.781,1.03
49.796,0.08
49.812,-0.31
49.828,-0.65
49.843,-1.47
49.859,-3.06
49.875,-5.19
49.890,-7.34
49.906,-9.09
49.921,-10.27
49.937,-11.1
49.953,-12.07
49.968,-13.35
49.984,-14.9
50.000,-16.08
50.015,-16.08
50.031,-14.39
50.046,-11.0
50.062,-6.64
50.078,-2.26
50.093,1.32
50.109,3.81
50.125,5.54
50.140,7.16
50.156,9.24
50.171,11.8
50.187,14.38
50.203,16.23
50.218,16.76
50.234,16.01
50.250,14.6
50.265,13.59
50.281,13.8
50.296,15.53
50.312,18.33
50.328,21.21
50.343,23.31
50.359,24.03
50.375,23.56
50.390,22.58
50.406,21.78
50.421,21.41
50.437,21.21
50.453,20.37
50.468,18.27
50.484,14.74
50.500,10.29
50.515,5.91
50.531,2.55
50.546,0.6
50.562,-0.35
50.578,-1.13
50.593,-2.58
50.609,-5.06
50.625,-8.26
50.640,-11.41
50.656,-13.75
50.671,-15.0
50.687,-15.39
50.703,-15.58
50.718,-16.0
50.734,-16.78
50.750,-17.54
50.765,-17.62
50.781,-16.43
50.796,-13.76
50.812,-10.08
50.828,-6.11
50.843,-2.55
50.859,0.31
50.875,2.66
50.890,4.99
50.906,7.83
50.921,11.18
50.937,14.65
50.953,17.41
50.968,18.87
50.984,18.92
51.000,18.15
51.015,17.36
51.031,17.27
51.046,18.0
51.062,18.99
51.078,19.42
51.093,18.55
51.109,16.39
51.125,13.51
51.140,10.97
51.156,9.59
51.171,9.61
51.187,10.52
51.203,11.24
51.218,10.92
51.234,9.09
51.250,6.16
51.265,2.98
51.281,0.42
51.296,-1.12
51.312,-2.01
51.328,-3.08
51.343,-5.18
51.359,-8.47
51.375,-12.52
51.390,-16.46
51.406,-19.41
51.421,-21.12
51.437,-21.96
51.453,-22.75
51.468,-24.01
51.484,-25.8
51.500,-27.37
51.515,-27.84
51.531,-26.44
51.546,-23.08
51.562,-18.39
51.578,-13.39
51.593,-9.12
51.609,-5.93
51.625,-3.59
51.640,-1.41
51.656,1.26
51.671,4.56
51.687,8.14
51.703,11.13
51.718,12.83
51.734,12.97
51.750,12.1
51.765,11.25
51.781,11.35
51.796,12.73
51.812,14.87
51.828,16.7
51.843,17.1
51.859,15.76
51.875,13.16
51.890,10.44
51.906,8.67
51.921,8.3
51.937,8.89
51.953,9.4
51.968,8.81
51.984,6.72
52.000,3.55
52.015,0.18
52.031,-2.46
52.046,-3.92
52.062,-4.54
52.078,-4.99
52.093,-6.06
52.109,-8.15
52.125,-11.02
52.140,-14.0
52.156,-16.41
52.171,-17.81
52.187,-18.39
52.203,-18.76
52.218,-19.45
52.234,-20.74
52.250,-22.37
52.265,-23.53
52.281,-23.33
52.296,-21.33
52.312,-17.65
52.328,-13.09
52.343,-8.61
52.359,-4.68
52.375,-1.24
52.390,2.36
52.406,6.82
52.421,12.35
52.437,18.34
52.453,23.56
52.468,26.74
52.484,27.16
52.500,25.19
52.515,21.93
52.531,18.76
52.546,16.67
52.562,15.66
52.578,15.09
52.593,14.17
52.609,12.45
52.625,10.18
52.640,8.27
52.656,7.56
52.671,8.45
52.687,10.55
52.703,12.76
52.718,14.0
52.734,13.62
52.750,11.81
52.765,9.44
52.781,7.56
52.796,6.71
52.812,6.58
52.828,6.15
52.843,4.29
52.859,0.52
52.875,-4.71
52.890,-10.14
52.906,-14.44
52.921,-16.81
52.937,-17.55
52.953,-17.7
52.968,-18.45
52.984,-20.31
53.000,-22.77
53.015,-24.64
53.031,-24.6
53.046,-22.09
53.062,-17.58
53.078,-12.43
53.093,-8.08
53.109,-5.45
53.125,-4.45
53.140,-4.15
53.156,-3.47
53.171,-1.66
53.187,1.11
53.203,4.01
53.218,6.09
53.234,6.82
53.250,6.42
53.265,5.8
53.281,6.01
53.296,7.61
53.312,10.34
53.328,13.21
53.343,14.9
53.359,14.62
53.375,12.36
53.390,8.91
53.406,5.44
53.421,2.86
53.437,1.24
53.453,0.15
53.468,-1.07
53.484,-2.69
53.500,-4.41
53.515,-5.71
53.531,-6.18
53.546,-6.09
53.562,-6.26
53.578,-7.89
53.593,-11.7
53.609,-17.63
53.625,-24.74
53.640,-31.94
53.656,-38.56
53.671,-44.73
53.687,-51.31
53.703,-59.32
53.718,-69.23
53.734,-80.21
53.750,-90.41
53.765,-97.6
53.781,-100.19
53.796,-98.26
53.812,-93.77
53.828,-89.69
53.843,-89.03
53.859,-93.37
53.875,-102.16
53.890,-112.72
53.906,-121.59
53.921,-125.75
53.937,-123.87
53.953,-116.57
53.968,-106.04
53.984,-95.62
54.000,-88.55
54.015,-86.76
54.031,-89.53
54.046,-93.29
54.062,-92.31
54.078,-80.18
54.093,-51.8
54.109,-5.02
54.125,57.25
54.140,127.9
54.156,198.2
54.171,261.38
54.187,314.54
54.203,358.23
54.218,394.82
54.234,426.73
54.250,455.63
54.265,481.01
54.281,501.59
54.296,516.83
54.312,527.89
54.328,535.81
54.343,539.0
54.359,532.31
54.375,508.17
54.390,459.99
54.406,382.45
54.421,273.89
54.437,136.8
54.453,-21.22
54.468,-189.68
54.484,-357.89
54.500,-516.76
54.515,-659.18
54.531,-765.84
54.546,-814.64
54.562,-792.7
54.578,-708.05
54.593,-584.64
54.609,-448.93
54.625,-320.14
54.640,-208.07
54.656,-115.73
54.671,-42.14
54.687,13.61
54.703,52.61
54.718,75.97
54.734,88.12
54.750,95.65
54.765,104.88
54.781,120.41
54.796,144.29
54.812,176.22
54.828,212.55
54.843,250.9
54.859,284.39
54.875,308.52
54.890,321.49
54.906,322.94
54.921,312.81
54.937,291.13
54.953,258.38
54.968,210.72
54.984,152.71
55.000,88.95
55.015,24.99
55.031,-33.68
55.046,-82.83
55.062,-120.35
55.078,-146.22
55.093,-161.75
55.109,-169.11
55.125,-170.21
55.140,-167.8
55.156,-163.29
55.171,-157.24
55.187,-150.13
55.203,-142.87
55.218,-136.67
55.234,-132.44
55.250,-130.2
55.265,-128.87
55.281,-127.78
55.296,-125.98
55.312,-122.79
55.328,-118.19
55.343,-113.03
55.359,-108.34
55.375,-104.95
55.390,-103.53
55.406,-104.12
55.421,-106.99
55.437,-111.1
55.453,-113.76
55.468,-110.68
55.484,-97.75
55.500,-73.04
55.515,-38.47
55.531,0.1
55.546,35.14
55.562,60.01
55.578,71.91
55.593,72.35
55.609,65.77
55.625,56.6
55.640,47.52
55.656,39.05
55.671,30.44
55.687,21.23
55.703,11.69
55.718,2.76
55.734,-5.11
55.750,-12.08
55.765,-19.52
55.781,-29.32
55.796,-42.24
55.812,-57.73
55.828,-73.82
55.843,-87.93
55.859,-97.31
55.875,-100.9
55.890,-98.07
55.906,-89.6
55.921,-77.21
55.937,-62.65
55.953,-47.38
55.968,-32.16
55.984,-17.44
56.000,-3.3
56.015,9.97
56.031,21.93
56.046,32.1
56.062,40.05
56.078,45.63
56.093,48.96
56.109,50.63
56.125,51.24
56.140,51.13
56.156,50.23
56.171,48.21
56.187,44.52
56.203,38.81
56.218,31.14
56.234,21.75
56.250,11.33
56.265,0.86
56.281,-8.75
56.296,-16.82
56.312,-22.92
56.328,-26.86
56.343,-28.84
56.359,-28.92
56.375,-27.26
56.390,-24.05
56.406,-19.29
56.421,-13.12
56.437,-5.93
56.453,1.6
56.468,8.85
56.484,15.08
56.500,19.72
56.515,22.68
56.531,24.11
56.546,24.56
56.562,24.73
56.578,24.94
56.593,24.97
56.609,24.55
56.625,23.15
56.640,20.53
56.656,16.92
56.671,13.25
56.687,10.78
56.703,10.6
56.718,13.14
56.734,17.96
56.750,24.27
56.765,30.94
56.781,37.26
56.796,43.12
56.812,49.32
56.828,57.23
56.843,68.59
56.859,85.27
56.875,106.34
56.890,131.05
56.906,157.24
56.921,181.36
56.937,198.49
56.953,203.75
56.968,193.93
56.984,169.19
57.000,133.4
57.015,92.94
57.031,54.89
57.046,24.15
57.062,2.51
57.078,-11.15
57.093,-19.33
57.109,-24.41
57.125,-27.96
57.140,-30.76
57.156,-33.48
57.171,-36.83
57.187,-41.82
57.203,-49.28
57.218,-59.39
57.234,-71.37
57.250,-83.77
57.265,-95.0
57.281,-103.84
57.296,-109.66
57.312,-112.46
57.328,-112.68
57.343,-110.85
57.359,-107.25
57.375,-101.81
57.390,-94.35
57.406,-84.82
57.421,-73.58
57.437,-61.6
57.453,-50.18
57.468,-40.71
57.484,-34.16
57.500,-30.63
57.515,-29.29
57.531,-28.4
57.546,-25.85
57.562,-19.65
57.578,-8.9
57.593,6.03
57.609,23.65
57.625,41.97
57.640,59.04
57.656,73.87
57.671,86.45
57.687,97.47
57.703,107.58
57.718,116.72
57.734,124.11
57.750,128.48
57.765,128.54
57.781,123.21
57.796,112.19
57.812,95.9
57.828,75.41
57.843,52.45
57.859,28.77
57.875,6.32
57.890,-12.81
57.906,-26.35
57.921,-32.13
57.937,-28.79
57.953,-16.72
57.968,1.25
57.984,20.22
58.000,33.97
58.015,36.94
58.031,25.53
58.046,-1.06
58.062,-40.99
58.078,-90.81
58.093,-146.46
58.109,-203.75
58.125,-258.47
58.140,-306.63
58.156,-344.47
58.171,-369.19
58.187,-379.14
58.203,-374.14
58.218,-355.44
58.234,-325.48
58.250,-287.53
58.265,-244.85
58.281,-199.94
58.296,-153.88
58.312,-106.28
58.328,-56.33
58.343,-3.95
58.359,49.26
58.375,99.87
58.390,144.14
58.406,180.16
58.421,208.93
58.437,233.35
58.453,255.4
58.468,273.39
58.484,282.0
58.500,275.27
58.515,250.62
58.531,211.71
58.546,167.44
58.562,128.05
58.578,100.09
58.593,83.95
58.609,75.05
58.625,67.69
58.640,58.8
58.656,49.43
58.671,42.94
58.687,41.96
58.703,46.16
58.718,52.09
58.734,55.44
58.750,53.53
58.765,46.59
58.781,37.36
58.796,29.26
58.812,24.7
58.828,24.02
58.843,25.56
58.859,26.75
58.875,25.57
58.890,21.24
58.906,14.52
58.921,6.98
58.937,0.16
58.953,-5.19
58.968,-9.2
58.984,-12.73
59.000,-16.49
59.015,-20.66
59.031,-24.71
59.046,-27.64
59.062,-28.41
59.078,-26.47
59.093,-22.05
59.109,-15.82
59.125,-8.53
59.140,-0.29
59.156,9.4
59.171,21.18
59.187,35.0
59.203,49.7
59.218,63.34
59.234,73.91
59.250,80.44
59.265,83.29
59.281,84.08
59.296,84.77
59.312,86.57
59.328,89.32
59.343,91.38
59.359,90.33
59.375,84.35
59.390,73.06
59.406,57.81
59.421,41.21
59.437,25.9
59.453,13.51
59.468,4.08
59.484,-3.81
59.500,-11.78
59.515,-20.67
59.531,-29.86
59.546,-37.74
59.562,-42.81
59.578,-44.72
59.593,-44.5
59.609,-43.84
59.625,-44.23
59.640,-45.84
59.656,-47.75
59.671,-48.35
59.687,-46.35
59.703,-41.69
59.718,-35.69
59.734,-30.48
59.750,-27.78
59.765,-28.14
59.781,-30.52
59.796,-32.82
59.812,-32.99
59.828,-30.04
59.843,-24.49
59.859,-18.25
59.875,-13.59
59.890,-11.87
59.906,-13.07
59.921,-15.77
59.937,-17.96
59.953,-18.4
59.968,-17.16
59.984,-15.64
