timestamp,value
00.000,-5.37
00.015,-3.65
00.031,0.18
00.046,4.51
00.062,7.9
00.078,9.39
00.093,8.56
00.109,5.33
00.125,-0.18
00.140,-7.64
00.156,-16.27
00.171,-25.21
00.187,-33.5
00.203,-40.15
00.218,-44.06
00.234,-44.08
00.250,-39.5
00.265,-30.41
00.281,-18.09
00.296,-4.89
00.312,6.45
00.328,13.6
00.343,15.84
00.359,14.2
00.375,10.74
00.390,7.65
00.406,6.23
00.421,6.44
00.437,7.44
00.453,8.27
00.468,8.45
00.484,8.37
00.500,8.8
00.515,10.39
00.531,13.22
00.546,16.65
00.562,19.68
00.578,21.44
00.593,21.84
00.609,21.45
00.625,21.4
00.640,22.44
00.656,24.58
00.671,26.67
00.687,26.92
00.703,23.84
00.718,17.13
00.734,8.4
00.750,0.1
00.765,-5.36
00.781,-7.3
00.796,-7.02
00.812,-6.98
00.828,-9.51
00.843,-15.22
00.859,-22.84
00.875,-29.87
00.890,-34.09
00.906,-34.72
00.921,-32.86
00.937,-30.4
00.953,-28.56
00.968,-27.57
00.984,-26.69
01.000,-25.09
01.015,-22.76
01.031,-20.61
01.046,-19.8
01.062,-20.35
01.078,-20.7
01.093,-18.3
01.109,-11.76
01.125,-2.01
01.140,7.65
01.156,13.17
01.171,12.0
01.187,4.69
01.203,-5.52
01.218,-14.57
01.234,-19.54
01.250,-19.95
01.265,-16.98
01.281,-12.25
01.296,-6.81
01.312,-1.0
01.328,5.01
01.343,10.69
01.359,15.2
01.375,17.91
01.390,19.27
01.406,20.33
01.421,21.65
01.437,22.81
01.453,22.58
01.468,19.85
01.484,14.48
01.500,7.44
01.515,0.17
01.531,-5.99
01.546,-10.44
01.562,-13.17
01.578,-14.19
01.593,-13.27
01.609,-10.13
01.625,-5.04
01.640,1.09
01.656,6.61
01.671,9.84
01.687,9.97
01.703,7.32
01.718,3.48
01.734,0.3
01.750,-0.97
01.765,-0.45
01.781,0.54
01.796,0.11
01.812,-3.31
01.828,-10.12
01.843,-19.57
01.859,-29.82
01.875,-38.89
01.890,-45.23
01.906,-47.97
01.921,-47.25
01.937,-43.55
01.953,-37.61
01.968,-30.12
01.984,-21.87
02.000,-13.74
02.015,-6.27
02.031,0.08
02.046,5.37
02.062,9.6
02.078,12.73
02.093,14.58
02.109,15.01
02.125,14.1
02.140,12.31
02.156,10.39
02.171,8.56
02.187,6.72
02.203,4.34
02.218,1.44
02.234,-1.17
02.250,-2.09
02.265,-0.19
02.281,4.28
02.296,9.61
02.312,13.3
02.328,14.12
02.343,13.09
02.359,12.99
02.375,16.65
02.390,24.75
02.406,34.92
02.421,42.61
02.437,43.87
02.453,37.22
02.468,24.88
02.484,11.34
02.500,0.72
02.515,-4.84
02.531,-6.03
02.546,-4.88
02.562,-3.31
02.578,-1.79
02.593,0.19
02.609,3.25
02.625,7.0
02.640,9.81
02.656,9.89
02.671,5.83
02.687,-2.35
02.703,-13.5
02.718,-25.63
02.734,-36.54
02.750,-44.48
02.765,-48.05
02.781,-46.9
02.796,-41.31
02.812,-32.83
02.828,-23.4
02.843,-14.73
02.859,-7.79
02.875,-2.53
02.890,1.77
02.906,5.98
02.921,10.27
02.937,14.38
02.953,17.71
02.968,20.11
02.984,21.98
03.000,23.95
03.015,26.33
03.031,28.35
03.046,28.86
03.062,26.83
03.078,22.66
03.093,18.35
03.109,16.59
03.125,19.23
03.140,26.08
03.156,34.72
03.171,41.28
03.187,42.65
03.203,38.03
03.218,29.45
03.234,20.47
03.250,14.09
03.265,11.41
03.281,11.4
03.296,12.16
03.312,11.98
03.328,10.38
03.343,7.83
03.359,5.4
03.375,3.84
03.390,3.34
03.406,3.48
03.421,3.42
03.437,2.19
03.453,-1.11
03.468,-6.59
03.484,-13.63
03.500,-20.69
03.515,-25.9
03.531,-28.3
03.546,-28.29
03.562,-27.58
03.578,-27.86
03.593,-29.8
03.609,-32.27
03.625,-33.51
03.640,-32.11
03.656,-27.92
03.671,-22.35
03.687,-17.33
03.703,-14.32
03.718,-13.18
03.734,-12.55
03.750,-10.46
03.765,-5.84
03.781,0.52
03.796,6.18
03.812,8.16
03.828,4.73
03.843,-3.45
03.859,-13.18
03.875,-20.4
03.890,-22.17
03.906,-18.6
03.921,-12.37
03.937,-7.14
03.953,-5.3
03.968,-6.49
03.984,-8.33
04.000,-8.09
04.015,-4.16
04.031,2.79
04.046,10.37
04.062,15.49
04.078,15.96
04.093,11.38
04.109,3.6
04.125,-4.16
04.140,-8.83
04.156,-9.09
04.171,-6.11
04.187,-2.59
04.203,-1.08
04.218,-2.19
04.234,-4.51
04.250,-5.69
04.265,-4.34
04.281,-1.12
04.296,1.77
04.312,2.48
04.328,1.03
04.343,-0.71
04.359,-0.34
04.375,3.26
04.390,9.1
04.406,14.57
04.421,16.96
04.437,14.71
04.453,8.03
04.468,-1.12
04.484,-9.86
04.500,-15.47
04.515,-16.03
04.531,-11.73
04.546,-4.92
04.562,0.82
04.578,2.43
04.593,-0.93
04.609,-7.54
04.625,-13.95
04.640,-16.94
04.656,-15.03
04.671,-8.91
04.687,-0.88
04.703,6.81
04.718,12.96
04.734,17.43
04.750,20.64
04.765,23.0
04.781,24.53
04.796,24.96
04.812,23.97
04.828,21.39
04.843,17.35
04.859,12.26
04.875,7.06
04.890,2.98
04.906,1.05
04.921,1.53
04.937,3.85
04.953,6.44
04.968,8.03
04.984,8.52
05.000,9.12
05.015,11.76
05.031,17.61
05.046,25.87
05.062,34.1
05.078,39.63
05.093,41.08
05.109,39.07
05.125,35.46
05.140,31.77
05.156,27.84
05.171,22.04
05.187,12.33
05.203,-1.76
05.218,-18.47
05.234,-34.92
05.250,-48.74
05.265,-59.19
05.281,-67.29
05.296,-74.12
05.312,-79.46
05.328,-81.78
05.343,-79.38
05.359,-72.02
05.375,-61.8
05.390,-51.84
05.406,-44.68
05.421,-40.97
05.437,-39.15
05.453,-36.57
05.468,-31.07
05.484,-21.91
05.500,-9.86
05.515,3.37
05.531,16.05
05.546,26.99
05.562,35.69
05.578,42.57
05.593,48.57
05.609,54.38
05.625,59.87
05.640,63.62
05.656,63.44
05.671,57.56
05.687,45.82
05.703,30.3
05.718,14.9
05.734,3.45
05.750,-2.19
05.765,-2.61
05.781,-0.54
05.796,1.05
05.812,0.9
05.828,-0.12
05.843,0.01
05.859,3.05
05.875,9.0
05.890,15.78
05.906,20.31
05.921,19.8
05.937,12.91
05.953,0.51
05.968,-15.03
05.984,-30.53
06.000,-43.11
06.015,-51.08
06.031,-54.47
06.046,-54.47
06.062,-53.0
06.078,-51.36
06.093,-49.43
06.109,-45.74
06.125,-38.25
06.140,-26.08
06.156,-10.49
06.171,5.27
06.187,17.7
06.203,24.94
06.218,27.79
06.234,29.08
06.250,31.41
06.265,35.47
06.281,38.94
06.296,37.96
06.312,29.72
06.328,14.92
06.343,-1.98
06.359,-14.91
06.375,-19.31
06.390,-14.84
06.406,-5.54
06.421,2.93
06.437,6.55
06.453,5.41
06.468,3.15
06.484,4.21
06.500,10.86
06.515,21.47
06.531,31.36
06.546,35.39
06.562,30.83
06.578,18.72
06.593,3.25
06.609,-10.5
06.625,-18.9
06.640,-21.13
06.656,-19.26
06.671,-16.64
06.687,-16.08
06.703,-18.48
06.718,-22.3
06.734,-24.86
06.750,-24.0
06.765,-19.54
06.781,-13.4
06.796,-8.59
06.812,-7.07
06.828,-8.35
06.843,-9.94
06.859,-8.87
06.875,-4.14
06.890,2.58
06.906,7.45
06.921,7.14
06.937,0.91
06.953,-8.51
06.968,-16.26
06.984,-18.41
07.000,-13.8
07.015,-5.08
07.031,3.14
07.046,6.84
07.062,4.92
07.078,-0.48
07.093,-5.35
07.109,-6.27
07.125,-2.42
07.140,4.36
07.156,10.65
07.171,13.37
07.187,11.57
07.203,6.77
07.218,2.17
07.234,0.96
07.250,5.07
07.265,14.16
07.281,26.31
07.296,39.0
07.312,49.94
07.328,58.19
07.343,63.38
07.359,65.32
07.375,63.35
07.390,56.51
07.406,44.27
07.421,27.72
07.437,9.73
07.453,-5.91
07.468,-15.96
07.484,-19.32
07.500,-17.44
07.515,-13.59
07.531,-11.41
07.546,-13.18
07.562,-19.17
07.578,-27.59
07.593,-35.73
07.609,-41.22
07.625,-43.0
07.640,-41.73
07.656,-39.27
07.671,-37.79
07.687,-38.39
07.703,-40.49
07.718,-41.74
07.734,-39.13
07.750,-30.3
07.765,-15.09
07.781,4.17
07.796,23.56
07.812,38.59
07.828,46.3
07.843,45.67
07.859,37.67
07.875,24.68
07.890,9.6
07.906,-5.0
07.921,-16.85
07.937,-24.22
07.953,-26.42
07.968,-23.92
07.984,-18.58
08.000,-12.91
08.015,-9.11
08.031,-8.01
08.046,-8.83
08.062,-9.53
08.078,-7.82
08.093,-2.47
08.109,6.34
08.125,17.06
08.140,27.46
08.156,35.49
08.171,39.75
08.187,39.73
08.203,35.92
08.218,29.66
08.234,22.68
08.250,16.72
08.265,12.75
08.281,10.51
08.296,8.85
08.312,6.3
08.328,1.99
08.343,-3.96
08.359,-10.63
08.375,-16.89
08.390,-21.97
08.406,-25.87
08.421,-28.95
08.437,-31.05
08.453,-31.43
08.468,-29.06
08.484,-23.67
08.500,-16.45
08.515,-9.99
08.531,-6.8
08.546,-7.87
08.562,-11.83
08.578,-15.3
08.593,-14.88
08.609,-8.94
08.625,1.47
08.640,13.05
08.656,22.02
08.671,25.62
08.687,23.37
08.703,16.65
08.718,7.79
08.734,-1.22
08.750,-9.13
08.765,-15.58
08.781,-20.73
08.796,-24.81
08.812,-27.68
08.828,-28.51
08.843,-26.16
08.859,-19.54
08.875,-8.31
08.890,6.4
08.906,22.28
08.921,36.41
08.937,46.91
08.953,53.79
08.968,58.67
08.984,63.75
09.000,70.07
09.015,76.34
09.031,79.05
09.046,74.23
09.062,59.21
09.078,34.6
09.093,4.51
09.109,-25.18
09.125,-48.73
09.140,-62.77
09.156,-67.1
09.171,-64.62
09.187,-59.15
09.203,-53.77
09.218,-49.65
09.234,-45.93
09.250,-40.92
09.265,-33.65
09.281,-24.77
09.296,-16.32
09.312,-10.64
09.328,-8.55
09.343,-9.01
09.359,-9.3
09.375,-6.54
09.390,0.34
09.406,10.24
09.421,20.06
09.437,26.36
09.453,27.1
09.468,22.72
09.484,15.5
09.500,8.55
09.515,4.39
09.531,3.88
09.546,6.54
09.562,11.07
09.578,16.04
09.593,20.33
09.609,23.36
09.625,24.66
09.640,24.03
09.656,21.86
09.671,18.95
09.687,16.65
09.703,16.06
09.718,17.4
09.734,19.76
09.750,21.81
09.765,22.09
09.781,19.92
09.796,15.62
09.812,9.95
09.828,4.03
09.843,-1.34
09.859,-5.81
09.875,-9.36
09.890,-12.11
09.906,-14.14
09.921,-15.32
09.937,-15.18
09.953,-13.35
09.968,-9.6
09.984,-4.28
10.000,1.48
10.015,5.94
10.031,7.73
10.046,6.58
10.062,3.8
10.078,1.73
10.093,2.2
10.109,5.51
10.125,9.89
10.140,12.67
10.156,11.71
10.171,6.81
10.187,-0.04
10.203,-5.87
10.218,-8.2
10.234,-6.59
10.250,-2.47
10.265,1.46
10.281,3.03
10.296,1.51
10.312,-2.09
10.328,-5.56
10.343,-6.69
10.359,-3.84
10.375,2.99
10.390,12.16
10.406,20.58
10.421,24.81
10.437,22.35
10.453,12.95
10.468,-0.93
10.484,-15.04
10.500,-24.78
10.515,-27.82
10.531,-24.71
10.546,-18.66
10.562,-13.38
10.578,-11.33
10.593,-12.76
10.609,-15.88
10.625,-18.74
10.640,-19.96
10.656,-19.79
10.671,-19.63
10.687,-20.99
10.703,-24.77
10.718,-30.87
10.734,-38.56
10.750,-46.76
10.765,-54.8
10.781,-61.7
10.796,-66.26
10.812,-66.73
10.828,-60.99
10.843,-47.67
10.859,-26.61
10.875,0.36
10.890,29.58
10.906,56.03
10.921,75.11
10.937,84.01
10.953,82.44
10.968,72.59
10.984,57.74
11.000,41.11
11.015,24.78
11.031,9.91
11.046,-3.41
11.062,-14.99
11.078,-24.26
11.093,-30.62
11.109,-33.48
11.125,-32.96
11.140,-29.87
11.156,-25.21
11.171,-19.46
11.187,-12.43
11.203,-3.47
11.218,7.65
11.234,19.98
11.250,31.33
11.265,38.89
11.281,40.72
11.296,36.73
11.312,28.87
11.328,20.45
11.343,14.45
11.359,12.14
11.375,12.52
11.390,13.16
11.406,11.58
11.421,6.79
11.437,-0.1
11.453,-6.67
11.468,-10.68
11.484,-11.04
11.500,-8.48
11.515,-5.06
11.531,-2.54
11.546,-1.7
11.562,-1.94
11.578,-2.04
11.593,-1.08
11.609,0.77
11.625,2.45
11.640,2.71
11.656,0.72
11.671,-3.17
11.687,-7.79
11.703,-11.76
11.718,-14.28
11.734,-15.38
11.750,-16.01
11.765,-17.54
11.781,-20.88
11.796,-26.02
11.812,-31.67
11.828,-35.64
11.843,-35.65
11.859,-30.49
11.875,-20.93
11.890,-9.44
11.906,0.71
11.921,7.13
11.937,9.32
11.953,8.91
11.968,8.09
11.984,8.72
12.000,11.13
12.015,14.2
12.031,16.43
12.046,16.81
12.062,15.55
12.078,13.59
12.093,11.94
12.109,11.05
12.125,10.66
12.140,10.39
12.156,10.14
12.171,10.29
12.187,11.4
12.203,13.91
12.218,17.58
12.234,21.62
12.250,24.78
12.265,25.81
12.281,23.87
12.296,18.94
12.312,12.04
12.328,4.74
12.343,-0.91
12.359,-3.57
12.375,-3.03
12.390,-0.64
12.406,1.45
12.421,1.2
12.437,-2.24
12.453,-7.92
12.468,-13.87
12.484,-17.82
12.500,-18.79
12.515,-17.28
12.531,-14.95
12.546,-13.56
12.562,-13.92
12.578,-15.56
12.593,-17.28
12.609,-18.01
12.625,-17.39
12.640,-16.17
12.656,-15.43
12.671,-15.67
12.687,-16.59
12.703,-16.99
12.718,-15.58
12.734,-11.68
12.750,-5.8
12.765,0.86
12.781,6.79
12.796,11.25
12.812,14.49
12.828,17.23
12.843,20.35
12.859,23.93
12.875,27.29
12.890,29.21
12.906,29.04
12.921,26.6
12.937,22.91
12.953,19.41
12.968,17.16
12.984,16.86
13.000,18.06
13.015,20.0
13.031,21.69
13.046,22.93
13.062,23.97
13.078,25.44
13.093,27.72
13.109,30.35
13.125,32.22
13.140,31.89
13.156,28.54
13.171,22.48
13.187,15.38
13.203,9.37
13.218,5.86
13.234,4.86
13.250,5.01
13.265,4.55
13.281,2.22
13.296,-1.7
13.312,-5.56
13.328,-7.54
13.343,-6.43
13.359,-2.38
13.375,3.33
13.390,9.17
13.406,14.29
13.421,18.6
13.437,22.35
13.453,25.22
13.468,25.85
13.484,22.65
13.500,14.41
13.515,1.34
13.531,-15.07
13.546,-33.13
13.562,-51.71
13.578,-70.82
13.593,-90.64
13.609,-110.88
13.625,-129.71
13.640,-144.49
13.656,-153.39
13.671,-156.77
13.687,-157.26
13.703,-157.46
13.718,-157.95
13.734,-156.35
13.750,-149.09
13.765,-134.02
13.781,-113.08
13.796,-92.05
13.812,-77.4
13.828,-73.04
13.843,-77.69
13.859,-85.8
13.875,-91.07
13.890,-89.63
13.906,-81.49
13.921,-68.97
13.937,-54.31
13.953,-37.83
13.968,-18.31
13.984,5.32
14.000,32.49
14.015,61.0
14.031,88.54
14.046,113.68
14.062,136.23
14.078,155.9
14.093,171.67
14.109,181.31
14.125,182.25
14.140,173.31
14.156,155.66
14.171,132.85
14.187,109.24
14.203,88.66
14.218,73.02
14.234,62.14
14.250,53.8
14.265,44.68
14.281,32.02
14.296,14.87
14.312,-4.79
14.328,-22.58
14.343,-33.48
14.359,-34.41
14.375,-25.49
14.390,-9.88
14.406,7.81
14.421,24.3
14.437,38.4
14.453,50.75
14.468,62.59
14.484,74.47
14.500,86.31
14.515,98.32
14.531,111.59
14.546,126.94
14.562,143.55
14.578,157.32
14.593,162.01
14.609,152.32
14.625,127.53
14.640,93.56
14.656,61.53
14.671,43.22
14.687,45.37
14.703,66.76
14.718,99.06
14.734,131.23
14.750,154.85
14.765,166.9
14.781,169.13
14.796,164.84
14.812,155.9
14.828,141.46
14.843,119.67
14.859,89.61
14.875,52.9
14.890,13.58
14.906,-24.14
14.921,-57.11
14.937,-84.19
14.953,-105.44
14.968,-121.12
14.984,-131.59
15.000,-137.72
15.015,-141.58
15.031,-145.54
15.046,-151.45
15.062,-159.0
15.078,-166.26
15.093,-170.74
15.109,-171.35
15.125,-169.31
15.140,-167.4
15.156,-167.97
15.171,-170.7
15.187,-172.7
15.203,-169.8
15.218,-159.19
15.234,-141.21
15.250,-119.16
15.265,-97.48
15.281,-79.63
15.296,-66.91
15.312,-58.31
15.328,-51.86
15.343,-45.83
15.359,-39.46
15.375,-32.83
15.390,-25.89
15.406,-18.07
15.421,-8.47
15.437,2.96
15.453,15.1
15.468,25.48
15.484,31.43
15.500,31.9
15.515,28.19
15.531,23.9
15.546,23.09
15.562,28.5
15.578,39.73
15.593,53.9
15.609,66.6
15.625,73.75
15.640,72.85
15.656,63.17
15.671,46.05
15.687,24.2
15.703,1.76
15.718,-16.76
15.734,-27.2
15.750,-27.55
15.765,-18.91
15.781,-5.05
15.796,8.64
15.812,17.83
15.828,20.66
15.843,18.6
15.859,14.88
15.875,12.81
15.890,13.81
15.906,17.31
15.921,22.05
15.937,26.81
15.953,31.68
15.968,37.6
15.984,45.09
16.000,53.65
16.015,61.81
16.031,67.83
16.046,70.84
16.062,71.12
16.078,69.01
16.093,64.09
16.109,54.72
16.125,38.9
16.140,16.28
16.156,-10.19
16.171,-34.86
16.187,-51.51
16.203,-56.31
16.218,-50.12
16.234,-37.71
16.250,-24.96
16.265,-16.02
16.281,-11.5
16.296,-9.31
16.312,-6.96
16.328,-3.72
16.343,-0.44
16.359,1.3
16.375,1.3
16.390,0.74
16.406,1.01
16.421,2.13
16.437,2.46
16.453,-0.34
16.468,-7.16
16.484,-16.23
16.500,-24.38
16.515,-28.45
16.531,-27.61
16.546,-23.71
16.562,-20.16
16.578,-19.98
16.593,-24.83
16.609,-34.62
16.625,-47.92
16.640,-63.1
16.656,-77.95
16.671,-90.16
16.687,-97.73
16.703,-99.52
16.718,-95.62
16.734,-87.41
16.750,-76.5
16.765,-63.71
16.781,-48.91
16.796,-31.62
16.812,-12.31
16.828,6.8
16.843,22.38
16.859,31.53
16.875,33.47
16.890,30.1
16.906,25.24
16.921,22.4
16.937,23.34
16.953,27.55
16.968,32.9
16.984,37.46
17.000,40.32
17.015,41.52
17.031,41.24
17.046,39.23
17.062,34.41
17.078,26.2
17.093,15.49
17.109,4.57
17.125,-3.41
17.140,-6.3
17.156,-3.93
17.171,1.85
17.187,8.15
17.203,12.28
17.218,13.01
17.234,10.69
17.250,6.99
17.265,4.34
17.281,5.14
17.296,10.9
17.312,21.47
17.328,34.38
17.343,45.37
17.359,49.85
17.375,45.15
17.390,31.71
17.406,13.19
17.421,-5.52
17.437,-20.47
17.453,-30.07
17.468,-35.23
17.484,-38.25
17.500,-41.0
17.515,-43.95
17.531,-46.44
17.546,-47.1
17.562,-45.09
17.578,-40.15
17.593,-32.84
17.609,-24.34
17.625,-16.06
17.640,-9.31
17.656,-4.48
17.671,-0.72
17.687,3.85
17.703,11.21
17.718,22.16
17.734,35.19
17.750,46.58
17.765,51.97
17.781,48.44
17.796,36.37
17.812,19.62
17.828,4.06
17.843,-5.16
17.859,-5.84
17.875,0.59
17.890,10.6
17.906,20.96
17.921,30.07
17.937,37.74
17.953,43.6
17.968,45.93
17.984,42.01
18.000,30.62
18.015,14.57
18.031,1.25
18.046,-0.11
18.062,16.3
18.078,48.86
18.093,88.01
18.109,120.06
18.125,133.56
18.140,124.09
18.156,95.5
18.171,57.25
18.187,19.39
18.203,-11.34
18.218,-33.15
18.234,-47.86
18.250,-58.68
18.265,-67.97
18.281,-76.61
18.296,-84.06
18.312,-89.21
18.328,-91.29
18.343,-90.72
18.359,-89.21
18.375,-89.6
18.390,-94.66
18.406,-105.62
18.421,-121.45
18.437,-138.98
18.453,-153.91
18.468,-162.97
18.484,-165.06
18.500,-161.52
18.515,-155.18
18.531,-148.03
18.546,-140.11
18.562,-129.5
18.578,-114.37
18.593,-95.2
18.609,-76.1
18.625,-63.34
18.640,-62.42
18.656,-74.92
18.671,-97.1
18.687,-121.86
18.703,-141.87
18.718,-152.81
18.734,-153.93
18.750,-146.29
18.765,-130.95
18.781,-108.17
18.796,-78.34
18.812,-43.32
18.828,-6.47
18.843,28.8
18.859,60.77
18.875,90.14
18.890,119.06
18.906,149.33
18.921,180.95
18.937,212.26
18.953,241.36
18.968,266.58
18.984,286.24
19.000,297.9
19.015,298.2
19.031,284.53
19.046,257.31
19.062,220.62
19.078,181.03
19.093,144.64
19.109,114.7
19.125,91.1
19.140,72.26
19.156,57.24
19.171,46.91
19.187,42.61
19.203,44.0
19.218,48.02
19.234,49.62
19.250,44.58
19.265,32.29
19.281,16.27
19.296,2.37
19.312,-4.58
19.328,-3.49
19.343,2.66
19.359,8.92
19.375,11.33
19.390,8.93
19.406,3.91
19.421,-0.17
19.437,-0.59
19.453,3.22
19.468,9.66
19.484,16.24
19.500,21.22
19.515,24.25
19.531,26.07
19.546,27.95
19.562,30.77
19.578,34.5
19.593,38.22
19.609,40.84
19.625,41.31
19.640,39.27
19.656,35.18
19.671,30.01
19.687,25.23
19.703,21.71
19.718,19.38
19.734,17.12
19.750,13.31
19.765,7.15
19.781,-0.69
19.796,-8.15
19.812,-12.93
19.828,-13.44
19.843,-10.28
19.859,-5.86
19.875,-2.82
19.890,-2.12
19.906,-1.89
19.921,2.06
19.937,14.12
19.953,36.12
19.968,65.86
19.984,97.89
20.000,125.82
20.015,145.37
20.031,155.86
20.046,159.62
20.062,160.14
20.078,160.24
20.093,161.2
20.109,163.53
20.125,167.67
20.140,174.01
20.156,181.57
20.171,186.77
20.187,183.85
20.203,166.94
20.218,133.18
20.234,84.45
20.250,26.73
20.265,-32.45
20.281,-87.04
20.296,-134.02
20.312,-173.18
20.328,-205.51
20.343,-232.18
20.359,-254.15
20.375,-272.46
20.390,-288.36
20.406,-302.36
20.421,-313.64
20.437,-319.53
20.453,-316.73
20.468,-303.11
20.484,-278.9
20.500,-246.51
20.515,-209.26
20.531,-169.94
20.546,-130.08
20.562,-90.97
20.578,-54.78
20.593,-25.34
20.609,-6.77
20.625,-1.46
20.640,-7.62
20.656,-19.56
20.671,-29.97
20.687,-33.24
20.703,-28.53
20.718,-19.43
20.734,-11.35
20.750,-7.72
20.765,-7.98
20.781,-7.86
20.796,-2.19
20.812,11.7
20.828,32.59
20.843,55.76
20.859,75.7
20.875,88.87
20.890,95.1
20.906,96.53
20.921,95.96
20.937,95.53
20.953,95.79
20.968,96.54
20.984,97.4
21.000,98.32
21.015,99.31
21.031,100.2
21.046,100.33
21.062,98.92
21.078,95.43
21.093,89.29
21.109,80.41
21.125,69.07
21.140,56.43
21.156,44.27
21.171,34.48
21.187,28.48
21.203,26.1
21.218,25.59
21.234,23.94
21.250,18.67
21.265,8.98
21.281,-3.86
21.296,-16.86
21.312,-27.01
21.328,-32.45
21.343,-33.31
21.359,-30.98
21.375,-27.51
21.390,-24.15
21.406,-21.33
21.421,-19.02
21.437,-16.81
21.453,-14.72
21.468,-13.07
21.484,-12.47
21.500,-13.15
21.515,-15.07
21.531,-17.35
21.546,-18.73
21.562,-18.1
21.578,-15.07
21.593,-10.77
21.609,-7.32
21.625,-7.21
21.640,-11.8
21.656,-20.61
21.671,-31.08
21.687,-39.64
21.703,-43.71
21.718,-42.7
21.734,-38.51
21.750,-34.12
21.765,-31.9
21.781,-32.5
21.796,-35.08
21.812,-38.05
21.828,-40.28
21.843,-41.61
21.859,-42.43
21.875,-43.19
21.890,-43.98
21.906,-44.47
21.921,-44.5
21.937,-44.17
21.953,-44.1
21.968,-44.84
21.984,-46.43
22.000,-47.87
22.015,-47.68
22.031,-44.74
22.046,-38.71
22.062,-30.28
22.078,-20.91
22.093,-12.1
22.109,-4.91
22.125,0.21
22.140,3.36
22.156,4.67
22.171,3.92
22.187,0.76
22.203,-4.91
22.218,-12.3
22.234,-19.63
22.250,-24.58
22.265,-25.39
22.281,-21.71
22.296,-14.93
22.312,-7.48
22.328,-1.85
22.343,0.49
22.359,-0.32
22.375,-2.63
22.390,-4.19
22.406,-3.15
22.421,0.97
22.437,7.06
22.453,12.98
22.468,16.41
22.484,15.99
22.500,11.97
22.515,6.04
22.531,0.49
22.546,-2.96
22.562,-4.09
22.578,-4.55
22.593,-6.76
22.609,-12.6
22.625,-22.2
22.640,-33.7
22.656,-44.46
22.671,-52.39
22.687,-56.8
22.703,-58.76
22.718,-59.85
22.734,-61.45
22.750,-63.88
22.765,-66.34
22.781,-67.45
22.796,-66.27
22.812,-62.54
22.828,-56.85
22.843,-50.4
22.859,-44.2
22.875,-38.42
22.890,-32.35
22.906,-24.89
22.921,-15.42
22.937,-4.55
22.953,6.08
22.968,14.88
22.984,21.43
23.000,27.25
23.015,35.08
23.031,47.17
23.046,63.67
23.062,81.89
23.078,97.63
23.093,107.3
23.109,109.85
23.125,106.95
23.140,102.02
23.156,98.13
23.171,96.56
23.187,96.62
23.203,96.17
23.218,93.18
23.234,86.49
23.250,76.33
23.265,63.86
23.281,50.93
23.296,39.23
23.312,29.99
23.328,24.12
23.343,22.08
23.359,23.93
23.375,29.1
23.390,36.4
23.406,44.07
23.421,50.63
23.437,55.62
23.453,59.58
23.468,63.84
23.484,69.11
23.500,74.5
23.515,77.42
23.531,74.95
23.546,65.36
23.562,48.95
23.578,27.47
23.593,2.64
23.609,-25.01
23.625,-55.7
23.640,-88.95
23.656,-122.04
23.671,-149.89
23.687,-167.49
23.703,-172.74
23.718,-167.98
23.734,-158.99
23.750,-151.56
23.765,-148.37
23.781,-147.71
23.796,-145.15
23.812,-137.02
23.828,-123.01
23.843,-106.61
23.859,-92.73
23.875,-84.51
23.890,-81.04
23.906,-78.07
23.921,-70.36
23.937,-54.86
23.953,-32.41
23.968,-6.94
23.984,16.58
24.000,34.56
24.015,45.76
24.031,51.01
24.046,52.01
24.062,50.29
24.078,46.66
24.093,41.45
24.109,35.34
24.125,29.37
24.140,24.53
24.156,21.2
24.171,18.94
24.187,16.52
24.203,12.69
24.218,6.95
24.234,-0.28
24.250,-7.42
24.265,-12.36
24.281,-13.44
24.296,-9.93
24.312,-2.57
24.328,6.91
24.343,16.5
24.359,24.88
24.375,31.77
24.390,37.99
24.406,44.36
24.421,50.98
24.437,56.83
24.453,60.47
24.468,60.81
24.484,57.93
24.500,52.9
24.515,46.92
24.531,40.84
24.546,34.87
24.562,28.9
24.578,23.17
24.593,18.53
24.609,16.11
24.625,16.73
24.640,20.07
24.656,24.5
24.671,27.97
24.687,28.94
24.703,27.09
24.718,23.45
24.734,19.75
24.750,17.56
24.765,17.81
24.781,20.32
24.796,23.93
24.812,26.79
24.828,27.41
24.843,25.0
24.859,19.99
24.875,13.74
24.890,7.94
24.906,4.16
24.921,3.42
24.937,5.88
24.953,10.81
24.968,16.95
24.984,22.74
25.000,27.16
25.015,29.91
25.031,31.35
25.046,32.25
25.062,32.96
25.078,32.73
25.093,29.86
25.109,22.58
25.125,10.09
25.140,-6.51
25.156,-24.39
25.171,-40.05
25.187,-51.08
25.203,-56.79
25.218,-58.24
25.234,-57.23
25.250,-54.94
25.265,-51.71
25.281,-47.28
25.296,-41.78
25.312,-36.4
25.328,-32.94
25.343,-32.79
25.359,-35.55
25.375,-39.07
25.390,-40.34
25.406,-37.3
25.421,-30.21
25.437,-21.86
25.453,-16.21
25.468,-16.21
25.484,-22.27
25.500,-31.89
25.515,-41.04
25.531,-46.11
25.546,-45.76
25.562,-40.91
25.578,-34.01
25.593,-27.36
25.609,-21.99
25.625,-17.43
25.640,-12.66
25.656,-6.97
25.671,-0.12
25.687,7.34
25.703,14.95
25.718,22.3
25.734,29.0
25.750,34.48
25.765,37.72
25.781,37.86
25.796,34.5
25.812,28.17
25.828,20.05
25.843,11.6
25.859,4.1
25.875,-1.56
25.890,-4.65
25.906,-4.82
25.921,-1.96
25.937,3.13
25.953,8.91
25.968,13.23
25.984,14.51
26.000,12.26
26.015,7.41
26.031,1.91
26.046,-2.64
26.062,-5.48
26.078,-6.97
26.093,-8.02
26.109,-9.38
26.125,-10.94
26.140,-11.85
26.156,-11.2
26.171,-8.46
26.187,-4.21
26.203,0.14
26.218,2.79
26.234,2.76
26.250,0.36
26.265,-2.89
26.281,-4.9
26.296,-4.36
26.312,-1.33
26.328,2.74
26.343,6.01
26.359,7.19
26.375,6.23
26.390,4.23
26.406,2.55
26.421,2.06
26.437,2.71
26.453,4.06
26.468,5.63
26.484,7.54
26.500,10.17
26.515,13.51
26.531,17.01
26.546,19.42
26.562,19.41
26.578,16.25
26.593,10.46
26.609,3.44
26.625,-2.9
26.640,-7.18
26.656,-9.07
26.671,-9.31
26.687,-9.33
26.703,-10.21
26.718,-12.3
26.734,-14.77
26.750,-16.41
26.765,-16.48
26.781,-15.26
26.796,-14.11
26.812,-14.55
26.828,-17.53
26.843,-22.61
26.859,-28.23
26.875,-32.56
26.890,-34.55
26.906,-34.31
26.921,-32.99
26.937,-31.86
26.953,-31.55
26.968,-31.88
26.984,-31.76
27.000,-30.08
27.015,-26.26
27.031,-20.63
27.046,-14.29
27.062,-8.61
27.078,-4.56
27.093,-2.17
27.109,-0.7
27.125,0.91
27.140,3.31
27.156,6.07
27.171,7.94
27.187,7.46
27.203,4.06
27.218,-1.51
27.234,-7.2
27.250,-10.83
27.265,-11.44
27.281,-9.4
27.296,-6.35
27.312,-3.67
27.328,-1.74
27.343,0.39
27.359,4.06
27.375,10.26
27.390,18.8
27.406,28.81
27.421,39.51
27.437,50.86
27.453,63.51
27.468,77.83
27.484,93.18
27.500,107.62
27.515,118.76
27.531,124.53
27.546,123.97
27.562,117.17
27.578,104.62
27.593,87.08
27.609,65.62
27.625,42.05
27.640,18.77
27.656,-1.57
27.671,-17.51
27.687,-28.9
27.703,-36.53
27.718,-41.32
27.734,-43.19
27.750,-40.81
27.765,-32.98
27.781,-19.8
27.796,-3.33
27.812,12.84
27.828,25.44
27.843,33.07
27.859,36.4
27.875,37.25
27.890,37.11
27.906,35.85
27.921,31.87
27.937,23.46
27.953,9.89
27.968,-7.61
27.984,-26.19
28.000,-42.74
28.015,-54.85
28.031,-61.88
28.046,-64.63
28.062,-64.75
28.078,-63.48
28.093,-61.3
28.109,-58.0
28.125,-53.16
28.140,-46.89
28.156,-39.77
28.171,-33.21
28.187,-28.68
28.203,-27.14
28.218,-28.44
28.234,-31.49
28.250,-34.67
28.265,-36.62
28.281,-36.92
28.296,-36.01
28.312,-34.73
28.328,-33.72
28.343,-32.91
28.359,-31.41
28.375,-28.4
28.390,-23.66
28.406,-18.16
28.421,-13.75
28.437,-12.18
28.453,-14.15
28.468,-19.01
28.484,-25.19
28.500,-31.15
28.515,-35.94
28.531,-39.29
28.546,-41.35
28.562,-42.41
28.578,-42.72
28.593,-42.68
28.609,-42.6
28.625,-42.9
28.640,-43.56
28.656,-44.07
28.671,-43.66
28.687,-41.78
28.703,-38.57
28.718,-34.5
28.734,-30.32
28.750,-26.35
28.765,-22.77
28.781,-20.04
28.796,-18.83
28.812,-19.25
28.828,-19.6
28.843,-16.05
28.859,-3.61
28.875,21.24
28.890,58.73
28.906,104.9
28.921,153.71
28.937,199.99
28.953,241.65
28.968,279.75
28.984,315.53
29.000,347.58
29.015,370.22
29.031,375.73
29.046,357.7
29.062,314.57
29.078,250.82
29.093,175.14
29.109,97.67
29.125,26.79
29.140,-31.93
29.156,-76.44
29.171,-106.94
29.187,-125.33
29.203,-134.31
29.218,-136.31
29.234,-133.44
29.250,-127.16
29.265,-118.8
29.281,-109.71
29.296,-101.93
29.312,-97.69
29.328,-98.24
29.343,-103.01
29.359,-109.13
29.375,-112.75
29.390,-110.61
29.406,-102.06
29.421,-89.09
29.437,-75.53
29.453,-65.02
29.468,-59.02
29.484,-56.3
29.500,-53.66
29.515,-47.9
29.531,-37.49
29.546,-23.62
29.562,-9.29
29.578,2.29
29.593,9.43
29.609,12.7
29.625,13.9
29.640,14.83
29.656,16.06
29.671,17.06
29.687,16.82
29.703,15.11
29.718,12.65
29.734,10.73
29.750,10.54
29.765,12.24
29.781,15.0
29.796,17.65
29.812,19.3
29.828,19.72
29.843,19.39
29.859,18.75
29.875,17.73
29.890,15.89
29.906,12.52
29.921,7.33
29.937,0.6
29.953,-6.93
29.968,-14.26
29.984,-20.18
30.000,-23.78
30.015,-24.57
30.031,-22.66
30.046,-19.04
30.062,-15.36
30.078,-13.27
30.093,-13.54
30.109,-15.82
30.125,-18.57
30.140,-20.19
30.156,-19.66
30.171,-16.89
30.187,-12.7
30.203,-7.87
30.218,-2.86
30.234,2.23
30.250,7.03
30.265,10.84
30.281,12.5
30.296,11.4
30.312,8.15
30.328,4.62
30.343,3.41
30.359,6.23
30.375,13.23
30.390,22.42
30.406,30.75
30.421,35.35
30.437,35.0
30.453,30.75
30.468,25.02
30.484,20.58
30.500,18.8
30.515,19.34
30.531,20.18
30.546,19.12
30.562,14.78
30.578,7.33
30.593,-1.33
30.609,-8.84
30.625,-13.19
30.640,-14.13
30.656,-13.08
30.671,-12.44
30.687,-14.32
30.703,-19.12
30.718,-25.49
30.734,-31.01
30.750,-33.67
30.765,-32.76
30.781,-29.28
30.796,-24.75
30.812,-19.96
30.828,-14.44
30.843,-6.55
30.859,4.81
30.875,19.29
30.890,34.61
30.906,47.81
30.921,56.8
30.937,61.65
30.953,64.42
30.968,67.67
30.984,73.05
31.000,79.86
31.015,85.35
31.031,86.02
31.046,79.39
31.062,64.76
31.078,43.67
31.093,18.94
31.109,-6.62
31.125,-30.51
31.140,-50.97
31.156,-66.89
31.171,-77.2
31.187,-80.86
31.203,-77.22
31.218,-66.49
31.234,-50.29
31.250,-31.76
31.265,-14.81
31.281,-3.21
31.296,0.77
31.312,-2.86
31.328,-11.67
31.343,-22.08
31.359,-30.64
31.375,-35.22
31.390,-35.71
31.406,-33.44
31.421,-30.42
31.437,-28.11
31.453,-26.72
31.468,-25.43
31.484,-23.11
31.500,-18.85
31.515,-12.65
31.531,-5.65
31.546,0.8
31.562,5.52
31.578,8.17
31.593,9.48
31.609,10.46
31.625,11.62
31.640,12.47
31.656,11.68
31.671,7.92
31.687,1.08
31.703,-7.22
31.718,-14.12
31.734,-16.77
31.750,-13.83
31.765,-6.27
31.781,3.1
31.796,11.05
31.812,15.55
31.828,16.73
31.843,16.34
31.859,16.48
31.875,18.52
31.890,22.29
31.906,26.5
31.921,29.81
31.937,31.37
31.953,31.34
31.968,30.61
31.984,30.08
32.000,30.23
32.015,30.94
32.031,31.42
32.046,30.76
32.062,28.64
32.078,25.51
32.093,22.48
32.109,20.96
32.125,21.76
32.140,24.34
32.156,26.98
32.171,27.58
32.187,24.79
32.203,19.12
32.218,12.57
32.234,7.66
32.250,5.89
32.265,6.92
32.281,8.86
32.296,9.67
32.312,8.67
32.328,6.91
32.343,6.52
32.359,9.01
32.375,14.39
32.390,20.94
32.406,26.32
32.421,29.04
32.437,29.2
32.453,28.13
32.468,27.1
32.484,26.52
32.500,25.6
32.515,23.19
32.531,18.66
32.546,12.25
32.562,4.76
32.578,-2.91
32.593,-10.33
32.609,-17.48
32.625,-24.39
32.640,-31.01
32.656,-37.18
32.671,-42.71
32.687,-47.43
32.703,-50.92
32.718,-52.45
32.734,-51.17
32.750,-46.72
32.765,-39.8
32.781,-32.03
32.796,-25.23
32.812,-20.2
32.828,-16.38
32.843,-12.24
32.859,-6.45
32.875,1.08
32.890,8.75
32.906,14.05
32.921,14.72
32.937,10.16
32.953,1.75
32.968,-7.76
32.984,-15.38
33.000,-19.32
33.015,-19.45
33.031,-17.22
33.046,-14.58
33.062,-13.06
33.078,-13.06
33.093,-13.59
33.109,-13.09
33.125,-10.32
33.140,-5.35
33.156,0.6
33.171,5.44
33.187,7.32
33.203,5.52
33.218,0.46
33.234,-6.38
33.250,-13.15
33.265,-18.57
33.281,-22.18
33.296,-24.25
33.312,-25.0
33.328,-24.29
33.343,-21.46
33.359,-16.21
33.375,-9.07
33.390,-1.75
33.406,3.43
33.421,4.82
33.437,2.47
33.453,-1.67
33.468,-4.68
33.484,-3.86
33.500,1.4
33.515,9.61
33.531,17.9
33.546,23.67
33.562,25.82
33.578,24.97
33.593,22.87
33.609,21.21
33.625,21.05
33.640,21.93
33.656,22.76
33.671,22.35
33.687,20.16
33.703,16.67
33.718,12.8
33.734,9.41
33.750,6.79
33.765,4.53
33.781,1.96
33.796,-1.35
33.812,-5.16
33.828,-8.84
33.843,-11.39
33.859,-12.23
33.875,-11.39
33.890,-9.47
33.906,-7.64
33.921,-6.89
33.937,-7.49
33.953,-8.98
33.968,-10.27
33.984,-9.97
34.000,-7.38
34.015,-2.96
34.031,1.65
34.046,4.46
34.062,4.05
34.078,0.67
34.093,-4.14
34.109,-8.14
34.125,-9.69
34.140,-8.6
34.156,-6.12
34.171,-3.92
34.187,-3.01
34.203,-3.21
34.218,-3.39
34.234,-2.48
34.250,0.02
34.265,3.54
34.281,6.91
34.296,9.09
34.312,9.87
34.328,9.77
34.343,9.77
34.359,10.61
34.375,12.29
34.390,14.21
34.406,15.43
34.421,15.27
34.437,13.89
34.453,12.09
34.468,11.01
34.484,11.57
34.500,13.78
34.515,16.66
34.531,18.63
34.546,18.08
34.562,14.31
34.578,7.93
34.593,0.38
34.609,-6.51
34.625,-11.59
34.640,-14.63
34.656,-16.0
34.671,-16.04
34.687,-14.79
34.703,-11.8
34.718,-6.67
34.734,0.04
34.750,6.72
34.765,11.16
34.781,11.48
34.796,7.32
34.812,0.23
34.828,-7.22
34.843,-12.63
34.859,-14.93
34.875,-15.04
34.890,-15.25
34.906,-17.44
34.921,-22.04
34.937,-27.44
34.953,-30.75
34.968,-29.79
34.984,-24.17
35.000,-15.8
35.015,-7.89
35.031,-3.41
35.046,-3.37
35.062,-6.52
35.078,-10.25
35.093,-11.92
35.109,-10.22
35.125,-5.78
35.140,-0.64
35.156,2.78
35.171,3.18
35.187,0.9
35.203,-2.33
35.218,-4.3
35.234,-3.24
35.250,1.14
35.265,7.91
35.281,15.4
35.296,22.01
35.312,27.14
35.328,30.96
35.343,33.92
35.359,36.13
35.375,37.13
35.390,35.91
35.406,31.81
35.421,25.0
35.437,16.54
35.453,8.06
35.468,0.94
35.484,-4.0
35.500,-6.87
35.515,-8.13
35.531,-8.45
35.546,-8.21
35.562,-7.32
35.578,-5.69
35.593,-3.22
35.609,0.01
35.625,3.47
35.640,6.55
35.656,8.54
35.671,9.04
35.687,7.95
35.703,5.69
35.718,2.73
35.734,-0.25
35.750,-2.71
35.765,-4.11
35.781,-3.98
35.796,-1.96
35.812,2.05
35.828,7.58
35.843,13.8
35.859,19.44
35.875,23.44
35.890,25.06
35.906,24.24
35.921,21.38
35.937,17.25
35.953,12.77
35.968,8.71
35.984,5.63
36.000,3.54
36.015,2.01
36.031,0.24
36.046,-2.37
36.062,-5.83
36.078,-9.62
36.093,-12.68
36.109,-14.21
36.125,-14.13
36.140,-13.35
36.156,-13.41
36.171,-15.52
36.187,-19.92
36.203,-25.35
36.218,-29.95
36.234,-31.79
36.250,-30.36
36.265,-26.6
36.281,-22.32
36.296,-19.38
36.312,-18.56
36.328,-19.49
36.343,-21.01
36.359,-22.19
36.375,-22.73
36.390,-23.18
36.406,-24.5
36.421,-27.1
36.437,-30.64
36.453,-34.03
36.468,-36.01
36.484,-35.68
36.500,-33.29
36.515,-30.05
36.531,-27.56
36.546,-27.07
36.562,-28.44
36.578,-30.21
36.593,-30.1
36.609,-26.46
36.625,-19.14
36.640,-9.84
36.656,-1.49
36.671,3.38
36.687,3.83
36.703,0.93
36.718,-3.06
36.734,-5.8
36.750,-5.98
36.765,-3.33
36.781,1.61
36.796,8.31
36.812,16.32
36.828,25.03
36.843,33.48
36.859,40.26
36.875,43.8
36.890,43.3
36.906,38.91
36.921,31.82
36.937,24.07
36.953,17.57
36.968,13.6
36.984,12.34
37.000,12.92
37.015,13.57
37.031,12.78
37.046,9.89
37.062,5.45
37.078,1.03
37.093,-1.6
37.109,-1.68
37.125,0.37
37.140,3.23
37.156,5.45
37.171,6.52
37.187,6.99
37.203,8.07
37.218,10.45
37.234,13.87
37.250,16.86
37.265,17.96
37.281,16.47
37.296,12.81
37.312,8.5
37.328,4.94
37.343,2.54
37.359,0.55
37.375,-2.6
37.390,-7.99
37.406,-15.34
37.421,-22.8
37.437,-27.88
37.453,-28.79
37.468,-25.51
37.484,-19.99
37.500,-15.0
37.515,-12.84
37.531,-13.86
37.546,-16.36
37.562,-17.38
37.578,-14.42
37.593,-6.81
37.609,3.8
37.625,14.17
37.640,21.07
37.656,22.7
37.671,19.51
37.687,13.68
37.703,8.05
37.718,4.68
37.734,4.12
37.750,5.31
37.765,6.44
37.781,6.06
37.796,3.73
37.812,0.27
37.828,-2.92
37.843,-4.75
37.859,-4.78
37.875,-3.7
37.890,-2.53
37.906,-2.34
37.921,-3.32
37.937,-4.82
37.953,-5.78
37.968,-5.03
37.984,-2.26
38.000,2.19
38.015,7.15
38.031,11.35
38.046,13.88
38.062,14.53
38.078,13.75
38.093,12.1
38.109,10.03
38.125,7.35
38.140,3.43
38.156,-2.35
38.171,-10.01
38.187,-18.48
38.203,-25.92
38.218,-30.17
38.234,-29.83
38.250,-24.88
38.265,-16.6
38.281,-7.15
38.296,1.48
38.312,7.95
38.328,12.05
38.343,14.13
38.359,14.75
38.375,13.98
38.390,11.78
38.406,8.29
38.421,4.19
38.437,0.85
38.453,-0.54
38.468,0.6
38.484,3.54
38.500,6.7
38.515,8.27
38.531,7.4
38.546,4.82
38.562,2.23
38.578,1.59
38.593,3.89
38.609,8.76
38.625,14.35
38.640,18.49
38.656,19.64
38.671,17.53
38.687,13.43
38.703,9.32
38.718,6.81
38.734,6.24
38.750,6.64
38.765,6.29
38.781,3.89
38.796,-0.29
38.812,-4.76
38.828,-7.32
38.843,-6.44
38.859,-2.22
38.875,3.58
38.890,8.72
38.906,11.62
38.921,12.29
38.937,12.01
38.953,12.29
38.968,13.67
38.984,15.24
39.000,15.05
39.015,11.29
39.031,3.61
39.046,-6.32
39.062,-15.28
39.078,-20.08
39.093,-18.98
39.109,-12.69
39.125,-3.99
39.140,3.39
39.156,6.69
39.171,5.05
39.187,-0.37
39.203,-7.23
39.218,-13.42
39.234,-17.93
39.250,-20.99
39.265,-23.13
39.281,-24.65
39.296,-25.04
39.312,-23.34
39.328,-19.05
39.343,-12.4
39.359,-4.8
39.375,1.89
39.390,6.06
39.406,7.23
39.421,6.06
39.437,4.07
39.453,2.92
39.468,3.31
39.484,4.96
39.500,6.5
39.515,6.55
39.531,4.05
39.546,-0.84
39.562,-7.16
39.578,-13.55
39.593,-18.78
39.609,-22.47
39.625,-25.01
39.640,-27.23
39.656,-29.78
39.671,-32.63
39.687,-34.95
39.703,-35.56
39.718,-33.7
39.734,-29.65
39.750,-25.0
39.765,-21.72
39.781,-21.11
39.796,-23.06
39.812,-25.89
39.828,-27.4
39.843,-25.98
39.859,-21.54
39.875,-15.32
39.890,-9.06
39.906,-3.8
39.921,0.65
39.937,5.2
39.953,10.66
39.968,16.76
39.984,22.17
40.000,25.13
40.015,24.77
40.031,21.47
40.046,17.0
40.062,13.49
40.078,12.35
40.093,13.91
40.109,17.33
40.125,21.16
40.140,24.06
40.156,25.34
40.171,25.28
40.187,24.76
40.203,24.94
40.218,26.67
40.234,30.04
40.250,34.3
40.265,38.04
40.281,40.08
40.296,39.79
40.312,37.45
40.328,33.81
40.343,29.7
40.359,25.45
40.375,20.91
40.390,15.86
40.406,10.41
40.421,5.37
40.437,1.84
40.453,0.58
40.468,1.79
40.484,4.74
40.500,8.09
40.515,10.65
40.531,11.5
40.546,10.33
40.562,7.33
40.578,2.79
40.593,-3.04
40.609,-10.04
40.625,-18.18
40.640,-27.35
40.656,-36.99
40.671,-45.89
40.687,-52.51
40.703,-55.45
40.718,-54.02
40.734,-48.87
40.750,-41.66
40.765,-34.5
40.781,-28.86
40.796,-24.95
40.812,-21.74
40.828,-17.72
40.843,-11.76
40.859,-3.78
40.875,5.06
40.890,13.04
40.906,18.53
40.921,20.66
40.937,19.64
40.953,16.24
40.968,11.64
40.984,6.95
41.000,2.87
41.015,-0.1
41.031,-1.47
41.046,-0.8
41.062,2.25
41.078,7.62
41.093,14.45
41.109,21.07
41.125,25.62
41.140,26.53
41.156,23.41
41.171,17.3
41.187,10.19
41.203,4.16
41.218,0.59
41.234,-0.57
41.250,-0.61
41.265,-1.15
41.281,-3.27
41.296,-6.74
41.312,-10.09
41.328,-11.47
41.343,-9.87
41.359,-5.81
41.375,-1.24
41.390,1.53
41.406,1.24
41.421,-1.67
41.437,-5.39
41.453,-8.14
41.468,-9.27
41.484,-9.85
41.500,-11.78
41.515,-16.24
41.531,-22.6
41.546,-28.46
41.562,-31.03
41.578,-28.59
41.593,-21.46
41.609,-12.07
41.625,-3.55
41.640,1.71
41.656,3.18
41.671,2.38
41.687,1.71
41.703,3.14
41.718,7.3
41.734,13.2
41.750,18.68
41.765,21.75
41.781,21.47
41.796,18.44
41.812,14.35
41.828,11.07
41.843,9.75
41.859,10.24
41.875,11.56
41.890,12.34
41.906,12.09
41.921,11.08
41.937,10.41
41.953,11.0
41.968,12.99
41.984,15.63
42.000,17.32
42.015,16.61
42.031,12.9
42.046,6.97
42.062,0.37
42.078,-5.13
42.093,-8.31
42.109,-9.13
42.125,-8.27
42.140,-7.02
42.156,-6.47
42.171,-7.2
42.187,-9.02
42.203,-11.47
42.218,-13.97
42.234,-16.03
42.250,-17.69
42.265,-18.99
42.281,-20.22
42.296,-21.52
42.312,-22.83
42.328,-23.92
42.343,-24.29
42.359,-23.69
42.375,-22.0
42.390,-19.79
42.406,-17.44
42.421,-15.39
42.437,-13.64
42.453,-11.91
42.468,-9.93
42.484,-7.74
42.500,-5.89
42.515,-4.89
42.531,-5.2
42.546,-6.37
42.562,-7.4
42.578,-7.09
42.593,-4.61
42.609,-0.27
42.625,4.69
42.640,8.55
42.656,10.21
42.671,9.73
42.687,8.5
42.703,8.25
42.718,10.17
42.734,13.94
42.750,17.71
42.765,19.11
42.781,16.54
42.796,10.15
42.812,1.81
42.828,-5.8
42.843,-10.35
42.859,-10.97
42.875,-8.09
42.890,-3.04
42.906,2.81
42.921,8.76
42.937,14.65
42.953,20.83
42.968,27.79
42.984,35.86
43.000,44.96
43.015,54.5
43.031,63.45
43.046,70.38
43.062,74.19
43.078,74.23
43.093,70.64
43.109,63.91
43.125,54.45
43.140,42.47
43.156,28.28
43.171,13.13
43.187,-0.62
43.203,-9.93
43.218,-12.48
43.234,-8.28
43.250,-0.15
43.265,7.37
43.281,10.03
43.296,5.79
43.312,-4.2
43.328,-16.72
43.343,-28.24
43.359,-36.98
43.375,-43.2
43.390,-48.52
43.406,-54.48
43.421,-61.2
43.437,-67.59
43.453,-71.82
43.468,-72.41
43.484,-68.68
43.500,-60.94
43.515,-49.84
43.531,-36.01
43.546,-20.36
43.562,-4.09
43.578,10.92
43.593,22.72
43.609,29.84
43.625,32.06
43.640,30.41
43.656,26.83
43.671,23.54
43.687,21.93
43.703,22.3
43.718,24.08
43.734,26.11
43.750,27.27
43.765,26.87
43.781,24.72
43.796,20.82
43.812,15.55
43.828,9.55
43.843,3.63
43.859,-1.45
43.875,-5.0
43.890,-6.74
43.906,-6.63
43.921,-4.75
43.937,-1.35
43.953,3.26
43.968,8.23
43.984,12.32
44.000,14.29
44.015,13.46
44.031,10.51
44.046,7.34
44.062,6.39
44.078,9.03
44.093,14.86
44.109,21.27
44.125,24.9
44.140,23.4
44.156,16.56
44.171,6.62
44.187,-2.9
44.203,-8.74
44.218,-9.44
44.234,-5.74
44.250,0.02
44.265,5.27
44.281,8.71
44.296,10.52
44.312,12.18
44.328,15.14
44.343,19.8
44.359,24.75
44.375,27.59
44.390,26.12
44.406,19.81
44.421,10.17
44.437,-0.17
44.453,-8.5
44.468,-13.48
44.484,-15.66
44.500,-16.55
44.515,-17.62
44.531,-19.23
44.546,-20.49
44.562,-20.07
44.578,-17.19
44.593,-12.15
44.609,-6.31
44.625,-1.4
44.640,1.29
44.656,1.37
44.671,-0.73
44.687,-4.17
44.703,-8.23
44.718,-12.59
44.734,-17.54
44.750,-23.53
44.765,-30.81
44.781,-38.91
44.796,-46.69
44.812,-52.64
44.828,-55.41
44.843,-54.33
44.859,-49.59
44.875,-42.21
44.890,-33.34
44.906,-23.97
44.921,-14.77
44.937,-6.32
44.953,0.83
44.968,6.29
44.984,9.71
45.000,11.3
45.015,11.53
45.031,11.15
45.046,10.88
45.062,11.11
45.078,12.04
45.093,13.56
45.109,15.24
45.125,16.43
45.140,16.63
45.156,15.87
45.171,14.88
45.187,14.8
45.203,16.33
45.218,19.27
45.234,22.11
45.250,22.82
45.265,19.9
45.281,13.28
45.296,4.56
45.312,-3.96
45.328,-10.36
45.343,-14.14
45.359,-16.11
45.375,-17.99
45.390,-21.22
45.406,-25.95
45.421,-31.17
45.437,-35.17
45.453,-36.68
45.468,-35.78
45.484,-34.2
45.500,-34.49
45.515,-39.0
45.531,-48.64
45.546,-62.19
45.562,-77.09
45.578,-90.41
45.593,-100.02
45.609,-105.45
45.625,-107.44
45.640,-106.92
45.656,-104.25
45.671,-99.01
45.687,-90.81
45.703,-80.21
45.718,-68.83
45.734,-58.48
45.750,-49.83
45.765,-41.0
45.781,-27.78
45.796,-5.4
45.812,29.05
45.828,74.7
45.843,126.88
45.859,179.09
45.875,225.58
45.890,262.93
45.906,290.34
45.921,308.18
45.937,316.2
45.953,313.17
45.968,297.71
45.984,269.37
46.000,230.15
46.015,183.99
46.031,135.62
46.046,89.2
46.062,47.11
46.078,9.82
46.093,-23.33
46.109,-53.22
46.125,-80.4
46.140,-104.27
46.156,-123.03
46.171,-134.03
46.187,-135.1
46.203,-126.03
46.218,-109.52
46.234,-90.56
46.250,-74.7
46.265,-65.84
46.281,-64.15
46.296,-66.55
46.312,-68.56
46.328,-66.97
46.343,-61.63
46.359,-55.19
46.375,-50.91
46.390,-50.65
46.406,-53.72
46.421,-57.3
46.437,-58.5
46.453,-56.05
46.468,-50.61
46.484,-44.54
46.500,-39.73
46.515,-36.71
46.531,-34.38
46.546,-30.62
46.562,-23.83
46.578,-14.02
46.593,-3.02
46.609,6.37
46.625,11.5
46.640,11.49
46.656,7.43
46.671,1.91
46.687,-2.16
46.703,-2.85
46.718,0.04
46.734,5.21
46.750,10.76
46.765,14.86
46.781,16.82
46.796,17.13
46.812,17.2
46.828,18.56
46.843,22.12
46.859,27.49
46.875,33.5
46.890,38.66
46.906,42.05
46.921,43.77
46.937,44.79
46.953,46.3
46.968,48.85
46.984,51.88
47.000,54.08
47.015,54.4
47.031,52.46
47.046,48.7
47.062,43.59
47.078,36.87
47.093,27.53
47.109,14.46
47.125,-2.52
47.140,-21.89
47.156,-40.71
47.171,-55.85
47.187,-65.42
47.203,-69.58
47.218,-70.08
47.234,-69.3
47.250,-68.94
47.265,-69.42
47.281,-70.03
47.296,-69.48
47.312,-66.44
47.328,-60.12
47.343,-50.59
47.359,-38.9
47.375,-26.92
47.390,-16.77
47.406,-9.79
47.421,-5.67
47.437,-2.58
47.453,2.06
47.468,10.03
47.484,21.12
47.500,33.15
47.515,43.14
47.531,48.89
47.546,49.86
47.562,47.26
47.578,42.79
47.593,37.69
47.609,32.23
47.625,26.22
47.640,19.88
47.656,14.33
47.671,11.24
47.687,11.8
47.703,15.71
47.718,21.21
47.734,25.55
47.750,26.39
47.765,22.71
47.781,15.31
47.796,6.49
47.812,-0.9
47.828,-4.52
47.843,-3.62
47.859,0.68
47.875,6.13
47.890,10.31
47.906,11.63
47.921,9.88
47.937,6.08
47.953,1.86
47.968,-1.57
47.984,-3.92
48.000,-5.93
48.015,-8.65
48.031,-12.64
48.046,-17.47
48.062,-21.95
48.078,-24.6
48.093,-24.71
48.109,-22.89
48.125,-20.8
48.140,-20.27
48.156,-22.3
48.171,-26.26
48.187,-30.18
48.203,-31.95
48.218,-30.46
48.234,-26.48
48.250,-22.32
48.265,-20.44
48.281,-21.92
48.296,-26.03
48.312,-30.41
48.328,-32.54
48.343,-31.14
48.359,-26.95
48.375,-21.89
48.390,-18.0
48.406,-16.05
48.421,-15.29
48.437,-14.4
48.453,-12.3
48.468,-8.89
48.484,-4.89
48.500,-1.26
48.515,1.68
48.531,4.27
48.546,7.04
48.562,10.07
48.578,12.75
48.593,13.78
48.609,11.47
48.625,4.58
48.640,-7.15
48.656,-22.12
48.671,-36.51
48.687,-45.07
48.703,-42.54
48.718,-26.16
48.734,2.88
48.750,39.45
48.765,76.8
48.781,109.55
48.796,135.54
48.812,155.71
48.828,171.56
48.843,182.76
48.859,186.19
48.875,177.63
48.890,154.48
48.906,118.19
48.921,73.88
48.937,28.31
48.953,-12.67
48.968,-45.99
48.984,-71.09
49.000,-88.66
49.015,-99.35
49.031,-103.39
49.046,-101.19
49.062,-94.14
49.078,-84.73
49.093,-75.48
49.109,-68.3
49.125,-63.47
49.140,-59.92
49.156,-56.12
49.171,-50.83
49.187,-43.82
49.203,-35.58
49.218,-27.17
49.234,-19.46
49.250,-13.14
49.265,-8.37
49.281,-4.96
49.296,-2.76
49.312,-1.4
49.328,-0.34
49.343,1.02
49.359,3.23
49.375,6.44
49.390,10.11
49.406,13.37
49.421,15.35
49.437,15.38
49.453,13.47
49.468,10.23
49.484,6.54
49.500,3.41
49.515,1.32
49.531,0.31
49.546,-0.35
49.562,-1.4
49.578,-3.37
49.593,-6.54
49.609,-11.27
49.625,-18.11
49.640,-27.65
49.656,-39.84
49.671,-53.36
49.687,-65.93
49.703,-75.06
49.718,-79.52
49.734,-80.03
49.750,-78.77
49.765,-77.84
49.781,-77.76
49.796,-76.88
49.812,-72.55
49.828,-62.83
49.843,-48.24
49.859,-31.95
49.875,-18.32
49.890,-10.76
49.906,-9.92
49.921,-13.33
49.937,-16.57
49.953,-15.36
49.968,-7.56
49.984,6.41
50.000,23.97
50.015,41.88
50.031,57.96
50.046,71.27
50.062,81.73
50.078,89.42
50.093,93.91
50.109,94.32
50.125,90.35
50.140,82.81
50.156,73.53
50.171,64.33
50.187,56.03
50.203,48.03
50.218,38.53
50.234,25.9
50.250,9.58
50.265,-9.27
50.281,-28.23
50.296,-44.72
50.312,-57.02
50.328,-64.84
50.343,-68.64
50.359,-68.68
50.375,-63.89
50.390,-51.83
50.406,-30.1
50.421,1.81
50.437,41.17
50.453,82.84
50.468,120.72
50.484,150.42
50.500,170.39
50.515,181.17
50.531,183.5
50.546,176.67
50.562,158.71
50.578,128.11
50.593,86.54
50.609,39.76
50.625,-3.82
50.640,-36.47
50.656,-54.16
50.671,-58.28
50.687,-54.58
50.703,-49.86
50.718,-49.5
50.734,-55.26
50.750,-65.47
50.765,-76.28
50.781,-83.7
50.796,-85.26
50.812,-80.61
50.828,-71.49
50.843,-60.52
50.859,-50.19
50.875,-41.58
50.890,-34.47
50.906,-27.74
50.921,-20.52
50.937,-13.19
50.953,-7.1
50.968,-4.26
50.984,-6.05
51.000,-12.63
51.015,-22.46
51.031,-33.17
51.046,-42.49
51.062,-49.24
51.078,-53.66
51.093,-57.34
51.109,-62.33
51.125,-69.88
51.140,-79.55
51.156,-88.37
51.171,-91.25
51.187,-82.4
51.203,-57.4
51.218,-15.44
51.234,39.93
51.250,101.76
51.265,162.31
51.281,215.54
51.296,257.97
51.312,288.05
51.328,304.41
51.343,304.78
51.359,286.41
51.375,248.21
51.390,192.9
51.406,127.28
51.421,60.41
51.437,0.38
51.453,-48.01
51.468,-83.8
51.484,-108.48
51.500,-123.75
51.515,-130.33
51.531,-128.11
51.546,-117.74
51.562,-101.82
51.578,-84.64
51.593,-70.88
51.609,-63.16
51.625,-61.03
51.640,-61.13
51.656,-59.21
51.671,-52.38
51.687,-40.77
51.703,-27.28
51.718,-15.9
51.734,-9.75
51.750,-9.27
51.765,-12.4
51.781,-15.67
51.796,-16.3
51.812,-13.28
51.828,-7.69
51.843,-1.65
51.859,3.01
51.875,5.39
51.890,6.17
51.906,6.81
51.921,8.65
51.937,12.09
51.953,16.31
51.968,19.32
51.984,19.08
52.000,14.66
52.015,6.72
52.031,-2.37
52.046,-9.7
52.062,-13.33
52.078,-13.06
52.093,-10.46
52.109,-7.9
52.125,-7.11
52.140,-8.38
52.156,-10.4
52.171,-11.43
52.187,-10.41
52.203,-7.7
52.218,-5.01
52.234,-4.36
52.250,-6.95
52.265,-12.26
52.281,-18.1
52.296,-21.77
52.312,-21.24
52.328,-16.06
52.343,-7.71
52.359,1.39
52.375,8.81
52.390,13.46
52.406,15.76
52.421,17.39
52.437,20.05
52.453,24.89
52.468,31.7
52.484,39.36
52.500,46.43
52.515,52.06
52.531,56.66
52.546,61.3
52.562,67.52
52.578,75.91
52.593,85.94
52.609,95.76
52.625,103.29
52.640,106.86
52.656,105.82
52.671,100.42
52.687,90.97
52.703,77.66
52.718,60.18
52.734,38.4
52.750,12.97
52.765,-14.07
52.781,-39.69
52.796,-60.66
52.812,-75.02
52.828,-82.7
52.843,-85.39
52.859,-85.47
52.875,-85.09
52.890,-84.85
52.906,-84.0
52.921,-81.18
52.937,-75.62
52.953,-67.87
52.968,-60.03
52.984,-54.62
53.000,-53.04
53.015,-55.06
53.031,-58.67
53.046,-61.57
53.062,-62.38
53.078,-61.21
53.093,-59.31
53.109,-58.08
53.125,-58.01
53.140,-58.14
53.156,-56.78
53.171,-52.45
53.187,-44.87
53.203,-35.13
53.218,-25.1
53.234,-16.42
53.250,-10.05
53.265,-5.97
53.281,-3.5
53.296,-1.84
53.312,-0.11
53.328,2.45
53.343,6.13
53.359,10.55
53.375,14.88
53.390,17.93
53.406,18.88
53.421,17.78
53.437,15.75
53.453,14.6
53.468,15.86
53.484,19.84
53.500,25.3
53.515,30.09
53.531,32.03
53.546,30.21
53.562,25.26
53.578,18.95
53.593,13.22
53.609,9.31
53.625,7.25
53.640,6.22
53.656,5.35
53.671,4.32
53.687,3.64
53.703,4.3
53.718,6.85
53.734,10.98
53.750,15.4
53.765,18.42
53.781,18.83
53.796,16.21
53.812,11.18
53.828,4.78
53.843,-2.08
53.859,-9.08
53.875,-16.49
53.890,-24.62
53.906,-33.06
53.921,-40.6
53.937,-45.28
53.953,-45.23
53.968,-39.93
53.984,-30.47
54.000,-19.32
54.015,-9.14
54.031,-1.74
54.046,2.61
54.062,4.99
54.078,6.95
54.093,9.4
54.109,12.13
54.125,14.28
54.140,15.2
54.156,15.01
54.171,14.53
54.187,14.58
54.203,15.19
54.218,15.65
54.234,15.27
54.250,13.85
54.265,12.22
54.281,11.79
54.296,13.57
54.312,17.55
54.328,22.74
54.343,27.44
54.359,30.24
54.375,30.72
54.390,29.25
54.406,26.79
54.421,24.09
54.437,21.46
54.453,18.67
54.468,15.19
54.484,10.51
54.500,4.31
54.515,-3.17
54.531,-11.14
54.546,-18.56
54.562,-24.33
54.578,-27.78
54.593,-29.02
54.609,-28.91
54.625,-28.61
54.640,-28.85
54.656,-29.53
54.671,-29.75
54.687,-28.51
54.703,-25.49
54.718,-21.57
54.734,-18.35
54.750,-17.19
54.765,-18.29
54.781,-20.27
54.796,-20.83
54.812,-18.16
54.828,-12.03
54.843,-4.1
54.859,2.77
54.875,6.27
54.890,6.13
54.906,4.11
54.921,3.06
54.937,5.19
54.953,10.67
54.968,17.48
54.984,22.68
55.000,23.98
55.015,21.06
55.031,15.78
55.046,10.77
55.062,8.23
55.078,8.94
55.093,12.23
55.109,16.63
55.125,20.89
55.140,24.42
55.156,27.14
55.171,29.14
55.187,30.3
55.203,30.13
55.218,27.91
55.234,23.13
55.250,15.58
55.265,6.11
55.281,-3.63
55.296,-11.5
55.312,-15.62
55.328,-15.42
55.343,-12.04
55.359,-7.78
55.375,-5.0
55.390,-4.7
55.406,-5.87
55.421,-6.4
55.437,-4.38
55.453,0.4
55.468,6.09
55.484,9.74
55.500,9.13
55.515,3.99
55.531,-3.85
55.546,-11.8
55.562,-18.08
55.578,-22.45
55.593,-25.9
55.609,-29.19
55.625,-31.88
55.640,-32.09
55.656,-27.78
55.671,-18.1
55.687,-4.35
55.703,10.11
55.718,21.41
55.734,26.8
55.750,25.96
55.765,20.77
55.781,14.4
55.796,9.61
55.812,7.7
55.828,8.32
55.843,9.74
55.859,10.15
55.875,8.44
55.890,4.87
55.906,0.76
55.921,-2.26
55.937,-3.19
55.953,-2.23
55.968,-0.37
55.984,0.92
56.000,0.99
56.015,0.34
56.031,0.32
56.046,2.24
56.062,6.36
56.078,11.49
56.093,15.33
56.109,15.87
56.125,12.44
56.140,6.25
56.156,-0.37
56.171,-5.02
56.187,-6.45
56.203,-5.2
56.218,-2.95
56.234,-1.86
56.250,-3.18
56.265,-6.73
56.281,-11.08
56.296,-14.56
56.312,-15.85
56.328,-15.05
56.343,-13.5
56.359,-13.07
56.375,-15.4
56.390,-20.69
56.406,-27.74
56.421,-34.3
56.437,-38.22
56.453,-38.31
56.468,-34.94
56.484,-29.66
56.500,-24.31
56.515,-19.97
56.531,-16.41
56.546,-12.6
56.562,-7.41
56.578,-0.78
56.593,6.26
56.609,11.94
56.625,15.1
56.640,15.91
56.656,15.58
56.671,15.72
56.687,17.11
56.703,19.21
56.718,20.59
56.734,20.11
56.750,17.74
56.765,14.7
56.781,12.86
56.796,13.08
56.812,15.07
56.828,17.25
56.843,17.85
56.859,16.05
56.875,12.36
56.890,8.31
56.906,5.35
56.921,4.09
56.937,3.9
56.953,3.66
56.968,2.26
56.984,-0.66
57.000,-4.81
57.015,-9.38
57.031,-13.6
57.046,-16.98
57.062,-19.28
57.078,-20.7
57.093,-21.56
57.109,-22.44
57.125,-23.59
57.140,-24.61
57.156,-24.28
57.171,-21.49
57.187,-15.84
57.203,-8.49
57.218,-1.94
57.234,1.36
57.250,0.32
57.265,-3.9
57.281,-8.34
57.296,-9.89
57.312,-7.28
57.328,-1.67
57.343,3.96
57.359,6.74
57.375,5.72
57.390,2.34
57.406,-0.48
57.421,-0.06
57.437,4.54
57.453,11.76
57.468,18.77
57.484,22.97
57.500,23.2
57.515,20.45
57.531,16.83
57.546,14.26
57.562,13.49
57.578,13.88
57.593,13.96
57.609,12.46
57.625,9.2
57.640,4.92
57.656,1.12
57.671,-0.98
57.687,-1.03
57.703,0.22
57.718,1.53
57.734,1.73
57.750,0.42
57.765,-1.91
57.781,-4.42
57.796,-6.18
57.812,-6.94
57.828,-7.24
57.843,-7.94
57.859,-9.65
57.875,-12.13
57.890,-14.2
57.906,-14.39
57.921,-11.87
57.937,-6.93
57.953,-1.28
57.968,2.91
57.984,4.01
58.000,1.64
58.015,-3.13
58.031,-8.41
58.046,-12.57
58.062,-14.96
58.078,-15.82
58.093,-15.91
58.109,-15.63
58.125,-14.96
58.140,-13.49
58.156,-10.99
58.171,-7.44
58.187,-3.16
58.203,1.17
58.218,5.2
58.234,8.78
58.250,12.18
58.265,15.83
58.281,19.98
58.296,24.49
58.312,28.65
58.328,31.14
58.343,30.49
58.359,26.0
58.375,18.36
58.390,9.79
58.406,3.23
58.421,1.08
58.437,3.89
58.453,10.07
58.468,16.63
58.484,20.78
58.500,21.4
58.515,19.21
58.531,16.22
58.546,14.16
58.562,13.34
58.578,12.64
58.593,10.29
58.609,5.29
58.625,-2.01
58.640,-9.94
58.656,-16.65
58.671,-20.85
58.687,-22.44
58.703,-22.34
58.718,-21.64
58.734,-20.98
58.750,-20.24
58.765,-18.87
58.781,-16.3
58.796,-12.56
58.812,-8.46
58.828,-5.45
58.843,-5.22
58.859,-9.0
58.875,-16.89
58.890,-27.54
58.906,-38.38
58.921,-46.36
58.937,-49.16
58.953,-46.25
58.968,-38.99
58.984,-29.97
59.000,-21.4
59.015,-14.22
59.031,-7.68
59.046,-0.2
59.062,9.07
59.078,19.25
59.093,28.12
59.109,33.15
59.125,33.22
59.140,29.24
59.156,23.55
59.171,18.58
59.187,15.58
59.203,14.13
59.218,12.86
59.234,10.94
59.250,8.9
59.265,8.3
59.281,10.66
59.296,16.35
59.312,23.77
59.328,30.25
59.343,33.27
59.359,31.63
59.375,26.15
59.390,19.18
59.406,13.05
59.421,9.17
59.437,7.36
59.453,6.09
59.468,3.86
59.484,0.1
59.500,-4.43
59.515,-8.04
59.531,-9.38
59.546,-8.19
59.562,-5.62
59.578,-3.74
59.593,-4.29
59.609,-7.59
59.625,-12.62
59.640,-17.57
59.656,-21.05
59.671,-22.92
59.687,-24.22
59.703,-26.06
59.718,-28.83
59.734,-31.72
59.750,-32.72
59.765,-30.32
59.781,-24.28
59.796,-15.87
59.812,-7.52
59.828,-1.51
59.843,1.31
59.859,1.56
59.875,0.82
59.890,0.72
59.906,1.91
59.921,4.1
59.937,6.29
59.953,7.3
59.968,6.51
59.984,4.01
