timestamp,value
00.000,-39.19
00.015,-44.48
00.031,-51.25
00.046,-59.41
00.062,-68.13
00.078,-76.53
00.093,-84.0
00.109,-90.56
00.125,-96.67
00.140,-102.75
00.156,-108.83
00.171,-114.15
00.187,-117.44
00.203,-117.38
00.218,-113.21
00.234,-105.06
00.250,-93.85
00.265,-80.81
00.281,-66.8
00.296,-52.01
00.312,-36.02
00.328,-18.49
00.343,0.29
00.359,19.05
00.375,35.86
00.390,48.74
00.406,56.23
00.421,57.89
00.437,54.25
00.453,46.56
00.468,36.48
00.484,25.76
00.500,15.79
00.515,7.6
00.531,2.09
00.546,-0.16
00.562,1.33
00.578,6.94
00.593,16.68
00.609,30.13
00.625,46.07
00.640,62.73
00.656,78.11
00.671,91.36
00.687,102.16
00.703,110.63
00.718,117.11
00.734,121.96
00.750,125.67
00.765,129.09
00.781,133.74
00.796,141.44
00.812,155.43
00.828,177.66
00.843,208.11
00.859,245.05
00.875,286.05
00.890,329.5
00.906,375.47
00.921,425.55
00.937,481.69
00.953,546.44
00.968,618.63
00.984,692.87
01.000,760.61
01.015,812.55
01.031,841.59
01.046,844.42
01.062,821.58
01.078,776.24
01.093,715.22
01.109,643.78
01.125,564.73
01.140,478.71
01.156,385.01
01.171,283.25
01.187,174.59
01.203,62.16
01.218,-66.93
01.234,-214.12
01.250,-372.12
01.265,-526.36
01.281,-659.96
01.296,-760.49
01.312,-823.53
01.328,-851.94
01.343,-852.75
01.359,-834.29
01.375,-801.75
01.390,-760.33
01.406,-715.21
01.421,-671.17
01.437,-631.6
01.453,-597.84
01.468,-569.02
01.484,-543.0
01.500,-517.77
01.515,-490.45
01.531,-460.49
01.546,-429.52
01.562,-400.13
01.578,-374.43
01.593,-353.13
01.609,-335.26
01.625,-318.98
01.640,-302.61
01.656,-284.27
01.671,-263.86
01.687,-242.76
01.703,-222.8
01.718,-205.78
01.734,-193.05
01.750,-185.18
01.765,-180.58
01.781,-175.56
01.796,-164.25
01.812,-141.53
01.828,-105.45
01.843,-58.28
01.859,-6.11
01.875,43.54
01.890,84.13
01.906,113.38
01.921,133.35
01.937,148.72
01.953,164.72
01.968,180.48
01.984,192.93
02.000,198.38
02.015,195.1
02.031,183.29
02.046,165.13
02.062,143.46
02.078,120.85
02.093,98.29
02.109,75.17
02.125,50.92
02.140,25.32
02.156,-0.89
02.171,-26.6
02.187,-50.34
02.203,-70.75
02.218,-86.47
02.234,-97.09
02.250,-104.25
02.265,-110.06
02.281,-116.57
02.296,-124.45
02.312,-132.86
02.328,-139.27
02.343,-140.18
02.359,-131.16
02.375,-108.5
02.390,-70.39
02.406,-16.89
02.421,48.8
02.437,120.99
02.453,191.54
02.468,251.63
02.484,288.09
02.500,296.85
02.515,280.4
02.531,245.68
02.546,201.88
02.562,157.22
02.578,117.56
02.593,85.67
02.609,61.41
02.625,43.92
02.640,32.65
02.656,26.92
02.671,25.7
02.687,27.91
02.703,32.26
02.718,36.89
02.734,40.69
02.750,41.6
02.765,38.71
02.781,31.78
02.796,20.61
02.812,4.89
02.828,-15.95
02.843,-42.16
02.859,-73.68
02.875,-108.21
02.890,-144.84
02.906,-180.78
02.921,-214.15
02.937,-245.16
02.953,-275.28
02.968,-305.21
02.984,-333.19
03.000,-354.42
03.015,-358.93
03.031,-343.32
03.046,-307.69
03.062,-256.72
03.078,-198.24
03.093,-140.06
03.109,-87.53
03.125,-42.74
03.140,-5.75
03.156,24.14
03.171,46.42
03.187,61.03
03.203,68.62
03.218,70.09
03.234,67.76
03.250,64.28
03.265,62.05
03.281,61.77
03.296,62.86
03.312,63.47
03.328,62.24
03.343,59.12
03.359,54.01
03.375,48.03
03.390,42.59
03.406,38.76
03.421,36.76
03.437,36.01
03.453,35.21
03.468,33.51
03.484,30.57
03.500,26.51
03.515,22.32
03.531,19.18
03.546,18.28
03.562,20.45
03.578,25.92
03.593,34.45
03.609,45.74
03.625,59.33
03.640,74.47
03.656,90.27
03.671,105.47
03.687,118.62
03.703,128.4
03.718,133.15
03.734,131.78
03.750,123.92
03.765,109.99
03.781,91.18
03.796,69.19
03.812,46.03
03.828,23.7
03.843,3.91
03.859,-12.14
03.875,-23.86
03.890,-31.15
03.906,-34.53
03.921,-34.75
03.937,-32.85
03.953,-29.84
03.968,-26.65
03.984,-23.93
04.000,-21.96
04.015,-20.91
04.031,-20.71
04.046,-21.17
04.062,-21.88
04.078,-22.38
04.093,-22.25
04.109,-21.28
04.125,-19.21
04.140,-15.94
04.156,-11.56
04.171,-6.33
04.187,-0.48
04.203,5.77
04.218,12.24
04.234,18.71
04.250,24.92
04.265,30.78
04.281,36.3
04.296,41.24
04.312,45.5
04.328,49.22
04.343,52.72
04.359,56.33
04.375,60.4
04.390,65.32
04.406,71.54
04.421,79.43
04.437,88.77
04.453,99.45
04.468,111.2
04.484,123.7
04.500,136.48
04.515,148.94
04.531,160.54
04.546,171.05
04.562,180.56
04.578,188.78
04.593,196.12
04.609,203.09
04.625,210.49
04.640,219.02
04.656,229.03
04.671,240.29
04.687,251.9
04.703,266.46
04.718,283.9
04.734,302.95
04.750,320.88
04.765,333.89
04.781,337.46
04.796,326.94
04.812,298.46
04.828,249.66
04.843,180.56
04.859,93.47
04.875,-6.41
04.890,-111.91
04.906,-214.8
04.921,-307.21
04.937,-382.62
04.953,-436.76
04.968,-467.91
04.984,-476.81
05.000,-466.69
05.015,-441.96
05.031,-407.72
05.046,-369.27
05.062,-331.61
05.078,-298.96
05.093,-274.57
05.109,-260.89
05.125,-259.41
05.140,-270.5
05.156,-292.17
05.171,-319.71
05.187,-346.47
05.203,-365.35
05.218,-370.66
05.234,-360.08
05.250,-335.55
05.265,-303.06
05.281,-270.68
05.296,-246.28
05.312,-235.44
05.328,-240.6
05.343,-260.61
05.359,-291.27
05.375,-326.34
05.390,-359.26
05.406,-385.08
05.421,-401.25
05.437,-407.68
05.453,-405.94
05.468,-398.55
05.484,-387.12
05.500,-371.51
05.515,-349.62
05.531,-318.55
05.546,-275.7
05.562,-219.85
05.578,-151.74
05.593,-74.5
05.609,4.88
05.625,78.74
05.640,141.65
05.656,192.35
05.671,233.06
05.687,267.93
05.703,301.35
05.718,337.25
05.734,377.95
05.750,420.22
05.765,460.57
05.781,498.27
05.796,536.6
05.812,579.84
05.828,629.88
05.843,684.97
05.859,740.73
05.875,789.79
05.890,816.74
05.906,807.91
05.921,757.28
05.937,668.84
05.953,552.81
05.968,420.45
05.984,281.42
06.000,144.96
06.015,17.43
06.031,-106.86
06.046,-235.23
06.062,-371.31
06.078,-512.87
06.093,-655.37
06.109,-795.7
06.125,-932.29
06.140,-1059.54
06.156,-1120.79
06.171,-1073.17
06.187,-911.33
06.203,-675.45
06.218,-419.87
06.234,-181.84
06.250,23.62
06.265,194.55
06.281,336.51
06.296,464.32
06.312,575.34
06.328,661.52
06.343,717.64
06.359,745.52
06.375,753.48
06.390,751.12
06.406,718.17
06.421,649.58
06.437,552.11
06.453,433.97
06.468,305.6
06.484,176.13
06.500,53.33
06.515,-61.1
06.531,-166.77
06.546,-261.56
06.562,-339.97
06.578,-398.57
06.593,-442.58
06.609,-480.9
06.625,-505.74
06.640,-513.87
06.656,-502.3
06.671,-470.16
06.687,-420.56
06.703,-357.57
06.718,-288.68
06.734,-225.28
06.750,-162.53
06.765,-102.13
06.781,-47.47
06.796,0.9
06.812,44.44
06.828,82.79
06.843,114.6
06.859,136.89
06.875,147.11
06.890,145.59
06.906,134.59
06.921,117.1
06.937,96.29
06.953,74.06
06.968,49.97
06.984,23.96
07.000,-3.4
07.015,-29.85
07.031,-53.49
07.046,-73.82
07.062,-91.49
07.078,-108.95
07.093,-125.15
07.109,-138.66
07.125,-147.65
07.140,-149.98
07.156,-143.96
07.171,-129.06
07.187,-106.9
07.203,-80.43
07.218,-52.77
07.234,-26.34
07.250,-3.31
07.265,14.75
07.281,27.95
07.296,37.27
07.312,44.08
07.328,49.62
07.343,54.96
07.359,61.0
07.375,68.85
07.390,79.59
07.406,90.69
07.421,101.57
07.437,112.17
07.453,122.68
07.468,133.35
07.484,144.64
07.500,157.11
07.515,171.64
07.531,188.79
07.546,208.0
07.562,227.95
07.578,245.61
07.593,257.2
07.609,259.62
07.625,251.72
07.640,234.9
07.656,212.72
07.671,189.15
07.687,166.94
07.703,147.75
07.718,131.59
07.734,118.42
07.750,108.76
07.765,103.09
07.781,101.5
07.796,102.75
07.812,104.5
07.828,103.4
07.843,97.01
07.859,84.1
07.875,66.03
07.890,45.85
07.906,26.58
07.921,11.03
07.937,0.59
07.953,-4.2
07.968,-4.89
07.984,-4.32
08.000,-6.44
08.015,-12.97
08.031,-23.68
08.046,-37.22
08.062,-51.01
08.078,-63.16
08.093,-73.0
08.109,-83.07
08.125,-98.58
08.140,-126.85
08.156,-171.16
08.171,-231.51
08.187,-305.63
08.203,-387.96
08.218,-471.48
08.234,-538.22
08.250,-568.17
08.265,-548.11
08.281,-481.46
08.296,-380.97
08.312,-263.12
08.328,-147.75
08.343,-36.62
08.359,71.71
08.375,177.12
08.390,276.84
08.406,368.05
08.421,439.94
08.437,491.48
08.453,527.16
08.468,552.44
08.484,556.36
08.500,529.0
08.515,466.31
08.531,372.86
08.546,274.38
08.562,175.8
08.578,81.02
08.593,-6.05
08.609,-83.08
08.625,-144.73
08.640,-185.91
08.656,-203.36
08.671,-196.79
08.687,-169.62
08.703,-130.91
08.718,-87.55
08.734,-45.88
08.750,-11.84
08.765,10.62
08.781,20.58
08.796,19.82
08.812,11.95
08.828,0.54
08.843,-13.74
08.859,-28.59
08.875,-42.59
08.890,-55.57
08.906,-67.86
08.921,-79.47
08.937,-89.93
08.953,-98.34
08.968,-104.04
08.984,-107.8
09.000,-108.94
09.015,-107.11
09.031,-102.66
09.046,-96.31
09.062,-88.61
09.078,-79.82
09.093,-70.11
09.109,-60.1
09.125,-51.49
09.140,-45.41
09.156,-42.52
09.171,-42.61
09.187,-44.46
09.203,-45.96
09.218,-44.83
09.234,-39.78
09.250,-30.91
09.265,-19.97
09.281,-8.98
09.296,0.23
09.312,6.82
09.328,10.94
09.343,13.37
09.359,15.26
09.375,17.15
09.390,18.95
09.406,19.99
09.421,19.49
09.437,17.16
09.453,13.49
09.468,9.51
09.484,6.12
09.500,3.89
09.515,2.45
09.531,0.99
09.546,-1.24
09.562,-4.43
09.578,-7.99
09.593,-10.81
09.609,-11.88
09.625,-10.95
09.640,-8.55
09.656,-6.1
09.671,-4.83
09.687,-5.25
09.703,-6.89
09.718,-8.49
09.734,-8.64
09.750,-6.67
09.765,-3.1
09.781,0.77
09.796,3.39
09.812,4.08
09.828,3.41
09.843,2.86
09.859,3.9
09.875,7.01
09.890,11.23
09.906,14.66
09.921,15.61
09.937,13.44
09.953,9.18
09.968,4.91
09.984,2.64
10.000,3.15
10.015,5.55
10.031,7.77
10.046,7.91
10.062,5.21
10.078,0.68
10.093,-3.5
10.109,-4.94
10.125,-2.37
10.140,4.01
10.156,12.77
10.171,22.26
10.187,31.81
10.203,41.98
10.218,54.08
10.234,69.36
10.250,87.84
10.265,107.95
10.281,127.08
10.296,142.6
10.312,152.81
10.328,157.46
10.343,156.99
10.359,151.8
10.375,141.53
10.390,125.18
10.406,101.84
10.421,71.95
10.437,37.51
10.453,1.98
10.468,-30.96
10.484,-58.42
10.500,-79.19
10.515,-93.68
10.531,-103.41
10.546,-110.0
10.562,-114.53
10.578,-117.29
10.593,-117.98
10.609,-116.31
10.625,-112.35
10.640,-106.9
10.656,-101.24
10.671,-96.57
10.687,-93.34
10.703,-91.02
10.718,-88.88
10.734,-86.45
10.750,-84.39
10.765,-84.18
10.781,-87.14
10.796,-93.26
10.812,-100.57
10.828,-105.41
10.843,-103.52
10.859,-92.05
10.875,-70.53
10.890,-41.68
10.906,-10.68
10.921,16.8
10.937,36.46
10.953,46.92
10.968,49.79
10.984,48.52
11.000,46.41
11.015,44.94
11.031,43.28
11.046,39.26
11.062,31.2
11.078,19.31
11.093,6.12
11.109,-4.88
11.125,-11.05
11.140,-12.26
11.156,-10.94
11.171,-10.56
11.187,-13.61
11.203,-19.9
11.218,-26.92
11.234,-30.9
11.250,-29.21
11.265,-21.93
11.281,-11.63
11.296,-2.05
11.312,4.01
11.328,6.07
11.343,5.96
11.359,6.13
11.375,8.57
11.390,13.49
11.406,19.4
11.421,24.29
11.437,26.79
11.453,26.86
11.468,25.78
11.484,25.5
11.500,27.49
11.515,32.11
11.531,38.43
11.546,44.56
11.562,48.48
11.578,49.21
11.593,47.2
11.609,44.2
11.625,42.41
11.640,43.0
11.656,45.77
11.671,49.68
11.687,53.31
11.703,55.92
11.718,58.01
11.734,61.07
11.750,66.26
11.765,73.25
11.781,79.78
11.796,83.19
11.812,82.03
11.828,76.24
11.843,67.4
11.859,57.97
11.875,50.81
11.890,48.02
11.906,50.11
11.921,56.1
11.937,64.91
11.953,76.62
11.968,91.09
11.984,107.49
12.000,123.96
12.015,138.61
12.031,150.5
12.046,159.62
12.062,166.81
12.078,173.38
12.093,180.02
12.109,183.07
12.125,174.2
12.140,142.41
12.156,79.02
12.171,-18.37
12.187,-145.23
12.203,-291.66
12.218,-444.55
12.234,-578.85
12.250,-664.93
12.265,-681.48
12.281,-629.14
12.296,-528.59
12.312,-406.36
12.328,-283.14
12.343,-170.56
12.359,-73.09
12.375,8.51
12.390,73.11
12.406,119.01
12.421,144.68
12.437,152.64
12.453,150.02
12.468,145.04
12.484,144.17
12.500,151.07
12.515,165.97
12.531,185.59
12.546,204.77
12.562,217.0
12.578,219.89
12.593,216.33
12.609,213.45
12.625,215.52
12.640,225.34
12.656,242.44
12.671,263.76
12.687,284.63
12.703,296.5
12.718,294.33
12.734,277.07
12.750,245.86
12.765,202.57
12.781,149.39
12.796,86.31
12.812,13.72
12.828,-66.98
12.843,-157.36
12.859,-254.2
12.875,-349.91
12.890,-435.6
12.906,-503.46
12.921,-547.27
12.937,-567.11
12.953,-566.27
12.968,-518.77
12.984,-423.95
13.000,-294.21
13.015,-148.83
13.031,-6.6
13.046,113.02
13.062,213.26
13.078,297.41
13.093,368.11
13.109,427.67
13.125,473.89
13.140,502.75
13.156,514.34
13.171,511.31
13.187,497.41
13.203,477.16
13.218,452.09
13.234,423.87
13.250,393.93
13.265,360.13
13.281,322.46
13.296,283.26
13.312,245.85
13.328,213.08
13.343,187.26
13.359,167.38
13.375,152.35
13.390,141.01
13.406,129.87
13.421,116.83
13.437,101.59
13.453,84.46
13.468,65.7
13.484,45.28
13.500,21.24
13.515,-7.88
13.531,-42.64
13.546,-84.25
13.562,-132.88
13.578,-187.45
13.593,-246.11
13.609,-306.86
13.625,-367.69
13.640,-427.88
13.656,-485.81
13.671,-539.73
13.687,-589.45
13.703,-636.3
13.718,-682.92
13.734,-731.7
13.750,-783.97
13.765,-838.73
13.781,-894.09
13.796,-945.3
13.812,-986.89
13.828,-1015.29
13.843,-1028.1
13.859,-1022.58
13.875,-994.54
13.890,-938.84
13.906,-851.53
13.921,-733.51
13.937,-587.61
13.953,-419.39
13.968,-238.0
13.984,-53.92
14.000,123.21
14.015,285.4
14.031,426.81
14.046,549.66
14.062,640.05
14.078,684.32
14.093,681.44
14.109,643.09
14.125,584.96
14.140,519.67
14.156,454.3
14.171,391.69
14.187,331.89
14.203,272.17
14.218,211.78
14.234,151.7
14.250,91.83
14.265,31.06
14.281,-31.85
14.296,-96.98
14.312,-165.16
14.328,-233.17
14.343,-298.03
14.359,-354.72
14.375,-397.77
14.390,-423.71
14.406,-431.58
14.421,-422.73
14.437,-400.01
14.453,-365.69
14.468,-322.23
14.484,-273.05
14.500,-219.77
14.515,-163.02
14.531,-103.12
14.546,-39.72
14.562,29.04
14.578,96.87
14.593,160.08
14.609,216.48
14.625,264.09
14.640,302.54
14.656,332.3
14.671,353.93
14.687,368.66
14.703,377.54
14.718,380.82
14.734,379.35
14.750,374.4
14.765,367.19
14.781,358.85
14.796,350.75
14.812,343.56
14.828,339.02
14.843,337.83
14.859,338.66
14.875,339.09
14.890,336.01
14.906,326.83
14.921,309.54
14.937,283.53
14.953,249.28
14.968,212.23
14.984,177.19
15.000,146.61
15.015,120.6
15.031,97.9
15.046,77.73
15.062,60.26
15.078,46.54
15.093,37.61
15.109,41.04
15.125,62.09
15.140,101.04
15.156,152.91
15.171,210.24
15.187,266.94
15.203,319.52
15.218,367.58
15.234,412.0
15.250,463.14
15.265,529.7
15.281,614.14
15.296,711.77
15.312,813.95
15.328,913.17
15.343,1004.53
15.359,1085.68
15.375,1100.15
15.390,1014.49
15.406,830.05
15.421,584.54
15.437,326.97
15.453,91.37
15.468,-108.46
15.484,-273.25
15.500,-409.61
15.515,-525.45
15.531,-618.13
15.546,-684.38
15.562,-724.4
15.578,-746.02
15.593,-759.79
15.609,-771.7
15.625,-782.99
15.640,-791.53
15.656,-793.93
15.671,-779.75
15.687,-740.56
15.703,-674.14
15.718,-577.2
15.734,-460.89
15.750,-338.91
15.765,-222.91
15.781,-121.7
15.796,-42.14
15.812,14.17
15.828,46.54
15.843,54.44
15.859,39.87
15.875,8.12
15.890,-30.29
15.906,-63.29
15.921,-82.47
15.937,-85.04
15.953,-71.57
15.968,-44.84
15.984,-9.4
16.000,30.85
16.015,72.02
16.031,112.88
16.046,151.02
16.062,182.56
16.078,204.13
16.093,214.19
16.109,212.49
16.125,199.23
16.140,174.82
16.156,139.14
16.171,88.57
16.187,26.38
16.203,-43.45
16.218,-113.83
16.234,-174.68
16.250,-215.25
16.265,-227.97
16.281,-214.6
16.296,-179.91
16.312,-133.79
16.328,-86.59
16.343,-47.73
16.359,-20.75
16.375,-3.55
16.390,8.1
16.406,17.15
16.421,23.48
16.437,24.6
16.453,15.99
16.468,-4.75
16.484,-39.38
16.500,-85.38
16.515,-136.89
16.531,-186.84
16.546,-228.67
16.562,-257.81
16.578,-271.21
16.593,-268.19
16.609,-239.99
16.625,-188.16
16.640,-122.39
16.656,-57.42
16.671,-7.5
16.687,19.54
16.703,24.51
16.718,15.35
16.734,2.15
16.750,-7.2
16.765,-11.48
16.781,-13.44
16.796,-16.73
16.812,-22.49
16.828,-27.57
16.843,-25.81
16.859,-11.52
16.875,17.29
16.890,57.25
16.906,98.84
16.921,132.18
16.937,150.86
16.953,154.2
16.968,146.68
16.984,134.78
17.000,123.62
17.015,114.98
17.031,107.5
17.046,98.04
17.062,85.11
17.078,69.92
17.093,55.82
17.109,46.04
17.125,41.87
17.140,42.25
17.156,44.49
17.171,45.75
17.187,43.74
17.203,38.17
17.218,30.6
17.234,24.14
17.250,21.69
17.265,24.82
17.281,33.63
17.296,46.47
17.312,61.21
17.328,75.43
17.343,88.37
17.359,98.18
17.375,105.01
17.390,109.29
17.406,111.13
17.421,109.93
17.437,104.33
17.453,93.23
17.468,76.9
17.484,57.14
17.500,36.34
17.515,16.59
17.531,-2.38
17.546,-22.56
17.562,-46.19
17.578,-73.35
17.593,-100.1
17.609,-120.27
17.625,-128.93
17.640,-125.47
17.656,-114.02
17.671,-100.99
17.687,-90.62
17.703,-83.19
17.718,-75.41
17.734,-63.58
17.750,-46.79
17.765,-28.19
17.781,-12.85
17.796,-4.54
17.812,-2.83
17.828,-2.68
17.843,1.98
17.859,14.42
17.875,33.03
17.890,52.31
17.906,65.79
17.921,69.6
17.937,64.31
17.953,53.97
17.968,44.47
17.984,40.59
18.000,43.82
18.015,52.35
18.031,62.51
18.046,70.95
18.062,75.63
18.078,75.91
18.093,69.7
18.109,56.89
18.125,38.1
18.140,14.49
18.156,-12.26
18.171,-39.84
18.187,-65.55
18.203,-87.36
18.218,-103.65
18.234,-113.42
18.250,-115.77
18.265,-110.94
18.281,-100.98
18.296,-88.61
18.312,-75.73
18.328,-62.8
18.343,-49.21
18.359,-34.31
18.375,-18.17
18.390,-1.2
18.406,14.83
18.421,26.52
18.437,31.1
18.453,28.34
18.468,19.7
18.484,6.55
18.500,-11.66
18.515,-36.64
18.531,-68.44
18.546,-104.81
18.562,-142.58
18.578,-178.35
18.593,-208.66
18.609,-232.01
18.625,-249.73
18.640,-264.71
18.656,-277.51
18.671,-282.19
18.687,-268.55
18.703,-227.46
18.718,-153.63
18.734,-46.93
18.750,87.07
18.765,237.92
18.781,383.9
18.796,489.89
18.812,531.05
18.828,510.47
18.843,451.53
18.859,378.67
18.875,307.2
18.890,242.91
18.906,186.65
18.921,137.73
18.937,97.61
18.953,71.33
18.968,62.39
18.984,68.65
19.000,82.63
19.015,95.09
19.031,98.22
19.046,88.28
19.062,65.29
19.078,33.44
19.093,0.94
19.109,-24.22
19.125,-38.81
19.140,-43.17
19.156,-40.39
19.171,-34.91
19.187,-31.0
19.203,-31.85
19.218,-37.0
19.234,-41.32
19.250,-37.83
19.265,-21.45
19.281,8.68
19.296,49.05
19.312,93.45
19.328,135.43
19.343,170.08
19.359,195.9
19.375,214.55
19.390,228.39
19.406,238.74
19.421,245.05
19.437,245.52
19.453,238.51
19.468,226.03
19.484,210.27
19.500,193.9
19.515,179.23
19.531,167.04
19.546,156.88
19.562,147.39
19.578,136.96
19.593,124.97
19.609,111.74
19.625,97.97
19.640,84.75
19.656,72.72
19.671,61.97
19.687,52.06
19.703,42.44
19.718,32.58
19.734,22.49
19.750,12.73
19.765,3.9
19.781,-3.29
19.796,-8.52
19.812,-11.79
19.828,-13.51
19.843,-14.29
19.859,-14.68
19.875,-15.03
19.890,-15.4
19.906,-15.8
19.921,-16.08
19.937,-16.15
19.953,-15.98
19.968,-15.62
19.984,-15.2
20.000,-14.84
20.015,-14.54
20.031,-14.35
20.046,-14.31
20.062,-14.45
20.078,-14.7
20.093,-15.03
20.109,-15.37
20.125,-15.69
20.140,-15.95
20.156,-16.15
20.171,-16.26
20.187,-16.33
20.203,-16.3
20.218,-15.92
20.234,-15.13
20.250,-13.83
20.265,-12.2
20.281,-10.54
20.296,-9.34
20.312,-9.03
20.328,-9.88
20.343,-11.93
20.359,-14.72
20.375,-17.77
20.390,-20.55
20.406,-22.84
20.421,-24.87
20.437,-27.17
20.453,-30.32
20.468,-34.74
20.484,-40.3
20.500,-46.34
20.515,-51.96
20.531,-56.48
20.546,-59.7
20.562,-62.48
20.578,-66.11
20.593,-71.8
20.609,-80.32
20.625,-91.28
20.640,-103.28
20.656,-114.76
20.671,-124.32
20.687,-131.52
20.703,-137.24
20.718,-142.87
20.734,-149.71
20.750,-158.57
20.765,-169.56
20.781,-182.35
20.796,-196.43
20.812,-210.66
20.828,-223.36
20.843,-232.7
20.859,-237.0
20.875,-235.66
20.890,-229.86
20.906,-222.3
20.921,-216.67
20.937,-216.65
20.953,-224.47
20.968,-240.58
20.984,-263.7
21.000,-291.09
21.015,-319.12
21.031,-344.62
21.046,-365.18
21.062,-379.55
21.078,-387.25
21.093,-387.05
21.109,-376.9
21.125,-355.19
21.140,-322.84
21.156,-285.26
21.171,-251.38
21.187,-229.69
21.203,-224.05
21.218,-231.23
21.234,-242.89
21.250,-251.13
21.265,-253.54
21.281,-254.65
21.296,-263.0
21.312,-285.36
21.328,-321.97
21.343,-365.54
21.359,-404.4
21.375,-427.28
21.390,-427.49
21.406,-404.02
21.421,-360.28
21.437,-302.56
21.453,-237.9
21.468,-172.4
21.484,-110.49
21.500,-55.06
21.515,-7.55
21.531,31.08
21.546,59.65
21.562,77.66
21.578,85.58
21.593,85.66
21.609,81.68
21.625,77.76
21.640,76.64
21.656,78.81
21.671,82.82
21.687,86.36
21.703,87.53
21.718,85.89
21.734,83.31
21.750,82.94
21.765,88.42
21.781,102.35
21.796,125.41
21.812,156.42
21.828,192.74
21.843,230.91
21.859,267.14
21.875,297.67
21.890,319.16
21.906,329.74
21.921,330.29
21.937,324.38
21.953,317.49
21.968,314.79
21.984,319.14
22.000,329.98
22.015,343.9
22.031,356.65
22.046,365.06
22.062,368.27
22.078,367.24
22.093,364.06
22.109,360.74
22.125,358.7
22.140,358.48
22.156,359.78
22.171,361.37
22.187,361.74
22.203,359.7
22.218,354.4
22.234,345.89
22.250,334.37
22.265,319.76
22.281,301.53
22.296,278.73
22.312,250.71
22.328,217.81
22.343,181.38
22.359,142.23
22.375,99.61
22.390,50.88
22.406,-6.72
22.421,-73.4
22.437,-145.78
22.453,-216.87
22.468,-278.79
22.484,-325.25
22.500,-353.87
22.515,-366.41
22.531,-367.8
22.546,-363.89
22.562,-359.36
22.578,-356.97
22.593,-357.09
22.609,-358.52
22.625,-359.24
22.640,-357.5
22.656,-351.99
22.671,-342.2
22.687,-328.3
22.703,-310.83
22.718,-290.75
22.734,-269.55
22.750,-248.81
22.765,-228.74
22.781,-207.37
22.796,-180.43
22.812,-143.33
22.828,-94.08
22.843,-35.04
22.859,27.19
22.875,83.48
22.890,125.14
22.906,146.8
22.921,147.67
22.937,130.41
22.953,99.82
22.968,61.03
22.984,19.21
23.000,-20.35
23.015,-52.29
23.031,-71.78
23.046,-75.73
23.062,-63.75
23.078,-38.53
23.093,-4.77
23.109,32.3
23.125,68.81
23.140,103.04
23.156,135.33
23.171,167.51
23.187,201.85
23.203,239.85
23.218,281.63
23.234,325.02
23.250,364.72
23.265,393.36
23.281,403.49
23.296,390.7
23.312,355.76
23.328,305.0
23.343,247.96
23.359,194.37
23.375,150.74
23.390,118.64
23.406,95.51
23.421,77.3
23.437,61.04
23.453,45.95
23.468,32.87
23.484,22.83
23.500,16.02
23.515,11.51
23.531,7.92
23.546,4.28
23.562,0.56
23.578,-2.52
23.593,-4.02
23.609,-3.48
23.625,-1.37
23.640,0.95
23.656,1.79
23.671,0.06
23.687,-4.31
23.703,-10.01
23.718,-14.72
23.734,-16.11
23.750,-13.01
23.765,-6.04
23.781,2.58
23.796,10.21
23.812,14.96
23.828,16.15
23.843,14.8
23.859,13.15
23.875,13.59
23.890,17.58
23.906,24.71
23.921,32.73
23.937,38.54
23.953,39.72
23.968,35.05
23.984,25.94
24.000,15.71
24.015,7.88
24.031,3.98
24.046,2.68
24.062,0.81
24.078,-4.21
24.093,-12.66
24.109,-24.3
24.125,-37.61
24.140,-50.95
24.156,-63.54
24.171,-75.85
24.187,-88.76
24.203,-102.03
24.218,-113.33
24.234,-119.66
24.250,-123.22
24.265,-128.3
24.281,-138.38
24.296,-153.85
24.312,-171.86
24.328,-188.26
24.343,-199.01
24.359,-201.48
24.375,-195.48
24.390,-189.48
24.406,-192.0
24.421,-205.86
24.437,-226.64
24.453,-246.14
24.468,-258.2
24.484,-260.98
24.500,-256.73
24.515,-250.07
24.531,-254.32
24.546,-280.45
24.562,-331.49
24.578,-401.96
24.593,-483.26
24.609,-569.8
24.625,-659.43
24.640,-751.46
24.656,-790.71
24.671,-737.13
24.687,-586.84
24.703,-377.35
24.718,-157.91
24.734,39.08
24.750,201.24
24.765,329.25
24.781,429.27
24.796,507.76
24.812,562.4
24.828,590.03
24.843,594.47
24.859,584.67
24.875,570.88
24.890,558.63
24.906,548.88
24.921,539.95
24.937,528.4
24.953,504.9
24.968,461.5
24.984,396.57
25.000,315.89
25.015,228.72
25.031,140.12
25.046,56.26
25.062,-15.74
25.078,-69.64
25.093,-105.08
25.109,-124.72
25.125,-131.78
25.140,-126.89
25.156,-108.98
25.171,-78.97
25.187,-37.6
25.203,14.47
25.218,73.94
25.234,133.08
25.250,182.26
25.265,209.05
25.281,204.98
25.296,182.05
25.312,151.55
25.328,116.35
25.343,79.61
25.359,42.89
25.375,6.96
25.390,-27.0
25.406,-57.04
25.421,-79.84
25.437,-92.84
25.453,-96.79
25.468,-93.7
25.484,-84.79
25.500,-71.86
25.515,-56.13
25.531,-38.01
25.546,-17.23
25.562,8.0
25.578,39.91
25.593,78.13
25.609,120.19
25.625,161.35
25.640,194.3
25.656,212.11
25.671,210.64
25.687,190.61
25.703,157.94
25.718,120.62
25.734,84.01
25.750,49.82
25.765,16.92
25.781,-16.84
25.796,-51.74
25.812,-85.31
25.828,-113.87
25.843,-134.46
25.859,-146.84
25.875,-153.85
25.890,-158.95
25.906,-163.94
25.921,-168.41
25.937,-170.77
25.953,-169.53
25.968,-164.87
25.984,-158.2
26.000,-151.0
26.015,-143.47
26.031,-133.79
26.046,-118.81
26.062,-95.69
26.078,-63.74
26.093,-25.19
26.109,15.07
26.125,51.27
26.140,78.73
26.156,95.71
26.171,103.72
26.187,106.54
26.203,108.16
26.218,111.08
26.234,115.22
26.250,118.47
26.265,118.19
26.281,112.87
26.296,102.81
26.312,90.16
26.328,77.95
26.343,69.11
26.359,65.6
26.375,68.02
26.390,75.67
26.406,87.11
26.421,100.6
26.437,114.43
26.453,127.05
26.468,136.88
26.484,142.09
26.500,140.78
26.515,131.6
26.531,114.5
26.546,91.34
26.562,65.62
26.578,41.49
26.593,22.11
26.609,8.65
26.625,-0.04
26.640,-6.26
26.656,-12.0
26.671,-17.92
26.687,-22.95
26.703,-25.37
26.718,-23.78
26.734,-18.3
26.750,-10.55
26.765,-2.9
26.781,2.82
26.796,6.14
26.812,7.76
26.828,8.68
26.843,9.26
26.859,9.01
26.875,6.93
26.890,2.42
26.906,-4.0
26.921,-10.45
26.937,-14.82
26.953,-15.62
26.968,-13.05
26.984,-8.85
27.000,-5.31
27.015,-4.28
27.031,-6.33
27.046,-10.89
27.062,-16.65
27.078,-22.43
27.093,-27.69
27.109,-32.52
27.125,-37.25
27.140,-41.72
27.156,-45.16
27.171,-46.2
27.187,-43.73
27.203,-37.52
27.218,-28.51
27.234,-18.44
27.250,-9.13
27.265,-1.7
27.281,3.75
27.296,7.42
27.312,9.43
27.328,9.13
27.343,5.63
27.359,-1.31
27.375,-10.48
27.390,-19.54
27.406,-26.05
27.421,-28.66
27.437,-28.13
27.453,-26.53
27.468,-26.16
27.484,-28.2
27.500,-31.92
27.515,-35.43
27.531,-36.59
27.546,-34.56
27.562,-29.74
27.578,-23.6
27.593,-17.6
27.609,-12.63
27.625,-9.19
27.640,-7.16
27.656,-6.46
27.671,-6.94
27.687,-8.4
27.703,-10.36
27.718,-12.32
27.734,-13.98
27.750,-15.56
27.765,-17.81
27.781,-20.94
27.796,-24.4
27.812,-26.63
27.828,-25.94
27.843,-21.59
27.859,-14.81
27.875,-8.16
27.890,-4.41
27.906,-5.06
27.921,-9.43
27.937,-15.37
27.953,-20.34
27.968,-22.72
27.984,-22.1
28.000,-19.04
28.015,-14.36
28.031,-8.77
28.046,-2.91
28.062,2.82
28.078,8.12
28.093,12.9
28.109,17.52
28.125,22.45
28.140,27.68
28.156,33.03
28.171,37.9
28.187,41.7
28.203,44.2
28.218,45.29
28.234,44.56
28.250,41.3
28.265,34.65
28.281,24.3
28.296,11.11
28.312,-3.11
28.328,-16.62
28.343,-28.27
28.359,-37.96
28.375,-46.55
28.390,-54.89
28.406,-63.18
28.421,-70.68
28.437,-76.11
28.453,-78.33
28.468,-77.45
28.484,-74.83
28.500,-72.51
28.515,-72.34
28.531,-74.69
28.546,-78.47
28.562,-81.53
28.578,-81.97
28.593,-79.04
28.609,-73.6
28.625,-67.38
28.640,-62.11
28.656,-58.62
28.671,-56.36
28.687,-53.86
28.703,-49.7
28.718,-43.17
28.734,-34.76
28.750,-25.93
28.765,-18.09
28.781,-12.03
28.796,-7.41
28.812,-2.67
28.828,3.98
28.843,13.49
28.859,25.45
28.875,38.05
28.890,48.96
28.906,56.52
28.921,60.51
28.937,61.98
28.953,62.76
28.968,64.22
28.984,66.53
29.000,68.95
29.015,70.21
29.031,69.54
29.046,67.07
29.062,63.95
29.078,61.43
29.093,60.08
29.109,59.43
29.125,58.14
29.140,54.85
29.156,49.02
29.171,41.36
29.187,33.33
29.203,26.59
29.218,22.09
29.234,19.49
29.250,17.53
29.265,14.78
29.281,10.61
29.296,5.4
29.312,0.48
29.328,-2.64
29.343,-3.08
29.359,-1.05
29.375,2.36
29.390,5.81
29.406,8.47
29.421,10.5
29.437,12.86
29.453,16.78
29.468,22.81
29.484,30.4
29.500,38.13
29.515,44.47
29.531,48.76
29.546,51.48
29.562,54.16
29.578,58.32
29.593,64.78
29.609,72.84
29.625,80.62
29.640,85.88
29.656,86.99
29.671,83.86
29.687,77.77
29.703,70.74
29.718,64.54
29.734,59.79
29.750,55.67
29.765,50.74
29.781,43.9
29.796,35.07
29.812,25.41
29.828,16.72
29.843,10.28
29.859,6.24
29.875,3.41
29.890,0.05
29.906,-5.09
29.921,-12.18
29.937,-20.23
29.953,-27.99
29.968,-34.63
29.984,-40.47
30.000,-46.59
30.015,-54.17
30.031,-63.5
30.046,-73.64
30.062,-82.59
30.078,-88.41
30.093,-90.2
30.109,-88.57
30.125,-85.3
30.140,-82.03
30.156,-79.62
30.171,-77.53
30.187,-74.53
30.203,-69.7
30.218,-63.35
30.234,-57.0
30.250,-52.66
30.265,-51.6
30.281,-53.44
30.296,-56.35
30.312,-57.84
30.328,-55.9
30.343,-50.11
30.359,-41.49
30.375,-31.89
30.390,-23.12
30.406,-16.07
30.421,-10.7
30.437,-6.29
30.453,-2.07
30.468,2.41
30.484,6.9
30.500,10.68
30.515,13.05
30.531,13.69
30.546,12.98
30.562,11.87
30.578,11.32
30.593,11.88
30.609,13.15
30.625,13.88
30.640,12.61
30.656,8.54
30.671,2.1
30.687,-5.03
30.703,-10.59
30.718,-13.07
30.734,-12.24
30.750,-9.26
30.765,-5.99
30.781,-3.93
30.796,-3.41
30.812,-3.68
30.828,-3.23
30.843,-0.97
30.859,3.11
30.875,7.94
30.890,11.79
30.906,13.33
30.921,12.34
30.937,9.64
30.953,6.65
30.968,4.74
30.984,4.35
31.000,4.94
31.015,5.45
31.031,5.01
31.046,3.58
31.062,2.07
31.078,1.72
31.093,3.21
31.109,6.19
31.125,9.33
31.140,10.92
31.156,9.95
31.171,6.62
31.187,2.39
31.203,-0.78
31.218,-1.66
31.234,-0.16
31.250,2.69
31.265,5.62
31.281,7.87
31.296,9.62
31.312,11.7
31.328,14.81
31.343,18.96
31.359,23.27
31.375,26.58
31.390,28.23
31.406,28.62
31.421,29.12
31.437,31.32
31.453,36.01
31.468,42.66
31.484,49.46
31.500,53.98
31.515,54.38
31.531,50.17
31.546,42.7
31.562,34.57
31.578,28.3
31.593,25.22
31.609,24.91
31.625,25.7
31.640,25.65
31.656,23.72
31.671,20.15
31.687,16.1
31.703,12.99
31.718,11.39
31.734,11.0
31.750,10.87
31.765,10.09
31.781,8.15
31.796,5.23
31.812,2.07
31.828,-0.54
31.843,-1.86
31.859,-1.55
31.875,0.44
31.890,3.73
31.906,7.77
31.921,12.23
31.937,17.05
31.953,22.4
31.968,28.3
31.984,34.74
32.000,41.46
32.015,48.26
32.031,55.03
32.046,61.54
32.062,67.41
32.078,71.79
32.093,73.64
32.109,72.04
32.125,66.75
32.140,58.27
32.156,47.73
32.171,36.47
32.187,25.47
32.203,15.58
32.218,7.17
32.234,0.69
32.250,-3.67
32.265,-5.91
32.281,-6.42
32.296,-5.99
32.312,-5.33
32.328,-5.09
32.343,-5.6
32.359,-7.43
32.375,-11.16
32.390,-17.58
32.406,-27.1
32.421,-39.33
32.437,-52.93
32.453,-66.01
32.468,-77.32
32.484,-86.69
32.500,-95.25
32.515,-104.33
32.531,-114.34
32.546,-123.81
32.562,-129.8
32.578,-129.24
32.593,-120.43
32.609,-104.21
32.625,-83.38
32.640,-61.44
32.656,-40.87
32.671,-22.53
32.687,-5.95
32.703,9.69
32.718,24.25
32.734,36.7
32.750,45.49
32.765,49.66
32.781,49.48
32.796,46.71
32.812,43.79
32.828,43.01
32.843,45.56
32.859,50.73
32.875,56.68
32.890,61.18
32.906,62.76
32.921,61.33
32.937,58.14
32.953,55.09
32.968,53.55
32.984,53.91
33.000,54.98
33.015,54.89
33.031,51.84
33.046,45.11
33.062,35.47
33.078,24.66
33.093,14.76
33.109,7.04
33.125,1.81
33.140,-1.74
33.156,-4.69
33.171,-7.96
33.187,-11.9
33.203,-16.26
33.218,-20.72
33.234,-25.05
33.250,-29.24
33.265,-33.09
33.281,-36.27
33.296,-38.07
33.312,-38.09
33.328,-36.41
33.343,-33.66
33.359,-30.99
33.375,-29.41
33.390,-29.49
33.406,-30.94
33.421,-33.03
33.437,-34.7
33.453,-35.16
33.468,-34.4
33.484,-32.9
33.500,-31.55
33.515,-31.13
33.531,-32.14
33.546,-34.46
33.562,-37.72
33.578,-41.2
33.593,-44.19
33.609,-46.35
33.625,-47.56
33.640,-47.96
33.656,-47.76
33.671,-47.1
33.687,-45.77
33.703,-43.47
33.718,-39.97
33.734,-35.54
33.750,-30.96
33.765,-27.2
33.781,-24.95
33.796,-24.17
33.812,-24.05
33.828,-23.49
33.843,-21.87
33.859,-19.4
33.875,-17.09
33.890,-16.09
33.906,-16.85
33.921,-18.88
33.937,-21.14
33.953,-22.61
33.968,-22.83
33.984,-22.49
34.000,-22.75
34.015,-24.58
34.031,-28.54
34.046,-34.14
34.062,-40.41
34.078,-46.37
34.093,-51.6
34.109,-56.36
34.125,-61.58
34.140,-68.15
34.156,-76.31
34.171,-85.6
34.187,-94.6
34.203,-101.63
34.218,-105.47
34.234,-105.65
34.250,-102.54
34.265,-96.99
34.281,-89.61
34.296,-80.4
34.312,-68.93
34.328,-54.61
34.343,-37.54
34.359,-18.96
34.375,-0.81
34.390,14.7
34.406,26.15
34.421,33.45
34.437,37.76
34.453,40.65
34.468,43.5
34.484,46.68
34.500,49.53
34.515,51.14
34.531,50.88
34.546,48.92
34.562,46.38
34.578,44.78
34.593,45.32
34.609,48.4
34.625,53.54
34.640,59.69
34.656,66.07
34.671,72.3
34.687,78.56
34.703,85.33
34.718,92.5
34.734,99.2
34.750,103.85
34.765,104.97
34.781,101.95
34.796,95.56
34.812,87.63
34.828,80.22
34.843,74.65
34.859,70.9
34.875,67.85
34.890,63.95
34.906,58.31
34.921,51.23
34.937,44.0
34.953,37.96
34.968,33.7
34.984,30.6
35.000,27.14
35.015,21.97
35.031,14.57
35.046,5.7
35.062,-2.94
35.078,-9.69
35.093,-13.68
35.109,-15.16
35.125,-15.31
35.140,-15.43
35.156,-16.09
35.171,-16.89
35.187,-16.73
35.203,-14.56
35.218,-10.15
35.234,-4.35
35.250,1.24
35.265,4.96
35.281,5.95
35.296,4.67
35.312,2.44
35.328,0.95
35.343,1.19
35.359,3.0
35.375,5.32
35.390,6.75
35.406,6.29
35.421,4.11
35.437,1.34
35.453,-0.64
35.468,-0.88
35.484,0.52
35.500,2.43
35.515,3.45
35.531,2.52
35.546,-0.24
35.562,-3.69
35.578,-6.31
35.593,-7.17
35.609,-6.41
35.625,-5.22
35.640,-5.05
35.656,-6.71
35.671,-9.97
35.687,-13.61
35.703,-16.16
35.718,-16.66
35.734,-15.3
35.750,-13.04
35.765,-11.22
35.781,-10.47
35.796,-10.47
35.812,-10.08
35.828,-8.09
35.843,-3.83
35.859,2.21
35.875,8.57
35.890,13.6
35.906,16.14
35.921,16.16
35.937,14.73
35.953,13.3
35.968,12.91
35.984,13.62
36.000,14.46
36.015,14.21
36.031,12.11
36.046,8.49
36.062,4.5
36.078,1.61
36.093,0.61
36.109,1.13
36.125,1.89
36.140,1.41
36.156,-0.99
36.171,-4.84
36.187,-8.79
36.203,-11.32
36.218,-11.76
36.234,-10.51
36.250,-8.8
36.265,-7.93
36.281,-8.47
36.296,-9.98
36.312,-11.3
36.328,-11.45
36.343,-9.97
36.359,-7.41
36.375,-4.97
36.390,-3.7
36.406,-3.94
36.421,-5.02
36.437,-5.63
36.453,-4.55
36.468,-1.43
36.484,3.15
36.500,7.82
36.515,11.17
36.531,12.47
36.546,12.03
36.562,10.93
36.578,10.44
36.593,11.21
36.609,12.93
36.625,14.49
36.640,14.6
36.656,12.65
36.671,8.98
36.687,4.76
36.703,1.41
36.718,-0.1
36.734,0.19
36.750,1.32
36.765,2.02
36.781,1.38
36.796,-0.56
36.812,-2.89
36.828,-4.53
36.843,-4.84
36.859,-3.97
36.875,-2.98
36.890,-3.12
36.906,-5.01
36.921,-8.31
36.937,-11.7
36.953,-13.66
36.968,-13.29
36.984,-10.94
37.000,-7.84
37.015,-5.65
37.031,-5.45
37.046,-7.28
37.062,-10.34
37.078,-13.33
37.093,-15.46
37.109,-16.62
37.125,-17.5
37.140,-18.82
37.156,-20.81
37.171,-22.85
37.187,-23.7
37.203,-22.19
37.218,-17.79
37.234,-11.16
37.250,-3.64
37.265,3.07
37.281,7.98
37.296,11.02
37.312,12.9
37.328,14.74
37.343,17.08
37.359,19.7
37.375,21.62
37.390,21.9
37.406,20.04
37.421,16.7
37.437,13.2
37.453,10.9
37.468,10.76
37.484,12.56
37.500,15.37
37.515,17.83
37.531,18.97
37.546,18.53
37.562,17.04
37.578,15.3
37.593,13.79
37.609,12.58
37.625,11.05
37.640,8.63
37.656,5.0
37.671,0.51
37.687,-3.93
37.703,-7.26
37.718,-8.58
37.734,-7.77
37.750,-5.02
37.765,-0.67
37.781,5.31
37.796,13.47
37.812,24.74
37.828,39.99
37.843,59.55
37.859,82.99
37.875,109.03
37.890,135.94
37.906,161.76
37.921,184.91
37.937,204.46
37.953,219.57
37.968,229.36
37.984,232.09
38.000,225.41
38.015,207.16
38.031,176.49
38.046,134.86
38.062,86.18
38.078,35.92
38.093,-10.82
38.109,-50.75
38.125,-83.09
38.140,-108.74
38.156,-129.08
38.171,-144.85
38.187,-155.67
38.203,-160.55
38.218,-158.6
38.234,-149.83
38.250,-135.46
38.265,-117.68
38.281,-99.11
38.296,-82.28
38.312,-69.07
38.328,-60.55
38.343,-57.06
38.359,-58.35
38.375,-63.85
38.390,-72.64
38.406,-83.4
38.421,-94.82
38.437,-105.6
38.453,-115.05
38.468,-123.11
38.484,-130.49
38.500,-138.25
38.515,-147.25
38.531,-157.72
38.546,-168.84
38.562,-179.14
38.578,-186.72
38.593,-189.78
38.609,-187.0
38.625,-178.06
38.640,-163.68
38.656,-145.24
38.671,-124.32
38.687,-102.07
38.703,-79.24
38.718,-56.32
38.734,-34.08
38.750,-13.7
38.765,3.34
38.781,15.63
38.796,22.51
38.812,24.43
38.828,22.85
38.843,19.24
38.859,14.79
38.875,9.78
38.890,4.1
38.906,-1.92
38.921,-7.2
38.937,-9.77
38.953,-7.66
38.968,0.3
38.984,13.62
39.000,30.44
39.015,48.12
39.031,64.6
39.046,79.1
39.062,92.19
39.078,104.96
39.093,117.82
39.109,129.99
39.125,139.6
39.140,144.49
39.156,143.25
39.171,136.01
39.187,124.27
39.203,110.5
39.218,96.9
39.234,84.69
39.250,73.81
39.265,63.51
39.281,53.26
39.296,43.08
39.312,33.67
39.328,26.05
39.343,20.78
39.359,17.8
39.375,16.24
39.390,14.92
39.406,13.18
39.421,10.94
39.437,8.81
39.453,7.75
39.468,8.52
39.484,11.36
39.500,16.23
39.515,22.54
39.531,29.7
39.546,37.44
39.562,45.9
39.578,55.42
39.593,66.07
39.609,77.33
39.625,88.19
39.640,97.76
39.656,105.0
39.671,109.27
39.687,110.41
39.703,109.27
39.718,107.15
39.734,105.16
39.750,104.13
39.765,104.3
39.781,106.26
39.796,109.7
39.812,113.6
39.828,116.78
39.843,118.82
39.859,120.08
39.875,121.19
39.890,122.91
39.906,125.91
39.921,131.71
39.937,140.74
39.953,152.49
39.968,166.37
39.984,182.38
40.000,200.54
40.015,219.58
40.031,236.9
40.046,248.89
40.062,253.05
40.078,246.27
40.093,225.52
40.109,188.32
40.125,134.03
40.140,63.51
40.156,-21.35
40.171,-117.28
40.187,-225.68
40.203,-333.85
40.218,-421.05
40.234,-469.64
40.250,-475.88
40.265,-448.26
40.281,-400.42
40.296,-345.12
40.312,-290.81
40.328,-241.64
40.343,-197.55
40.359,-158.46
40.375,-124.96
40.390,-98.49
40.406,-78.4
40.421,-61.51
40.437,-44.23
40.453,-22.98
40.468,4.74
40.484,40.43
40.500,82.51
40.515,128.89
40.531,173.23
40.546,210.41
40.562,237.52
40.578,252.79
40.593,255.65
40.609,246.37
40.625,226.33
40.640,192.63
40.656,149.62
40.671,100.79
40.687,50.08
40.703,2.0
40.718,-40.25
40.734,-74.44
40.750,-99.63
40.765,-115.92
40.781,-124.23
40.796,-125.99
40.812,-124.03
40.828,-123.44
40.843,-123.22
40.859,-122.46
40.875,-120.1
40.890,-115.38
40.906,-107.68
40.921,-96.33
40.937,-80.94
40.953,-62.32
40.968,-41.21
40.984,-17.63
41.000,7.92
41.015,35.15
41.031,63.78
41.046,93.46
41.062,124.05
41.078,155.59
41.093,187.45
41.109,219.21
41.125,251.0
41.140,282.4
41.156,312.59
41.171,340.32
41.187,363.92
41.203,380.94
41.218,390.8
41.234,391.11
41.250,379.69
41.265,355.38
41.281,318.03
41.296,268.59
41.312,209.21
41.328,143.01
41.343,73.45
41.359,4.02
41.375,-62.25
41.390,-122.66
41.406,-174.79
41.421,-216.87
41.437,-248.11
41.453,-268.62
41.468,-279.44
41.484,-282.36
41.500,-279.9
41.515,-275.21
41.531,-270.95
41.546,-269.49
41.562,-272.37
41.578,-280.62
41.593,-294.69
41.609,-314.88
41.625,-340.69
41.640,-370.56
41.656,-402.41
41.671,-433.16
41.687,-459.53
41.703,-478.59
41.718,-488.88
41.734,-491.61
41.750,-489.63
41.765,-487.05
41.781,-488.13
41.796,-496.62
41.812,-515.09
41.828,-544.13
41.843,-581.39
41.859,-621.23
41.875,-655.59
41.890,-673.59
41.906,-664.71
41.921,-622.54
41.937,-547.74
41.953,-447.75
41.968,-334.49
41.984,-219.84
42.000,-112.4
42.015,-17.48
42.031,64.56
42.046,135.71
42.062,198.01
42.078,251.8
42.093,296.7
42.109,332.33
42.125,359.68
42.140,387.77
42.156,417.52
42.171,445.13
42.187,464.95
42.203,473.43
42.218,470.33
42.234,457.54
42.250,437.58
42.265,413.65
42.281,388.12
42.296,361.1
42.312,332.72
42.328,302.96
42.343,272.01
42.359,240.11
42.375,207.49
42.390,174.22
42.406,141.46
42.421,109.71
42.437,77.77
42.453,44.82
42.468,9.94
42.484,-27.34
42.500,-66.89
42.515,-107.53
42.531,-149.83
42.546,-189.79
42.562,-222.93
42.578,-245.64
42.593,-254.75
42.609,-248.19
42.625,-225.35
42.640,-187.36
42.656,-134.32
42.671,-72.82
42.687,-9.03
42.703,51.46
42.718,104.08
42.734,146.09
42.750,176.43
42.765,195.47
42.781,204.51
42.796,205.27
42.812,199.37
42.828,189.45
42.843,177.54
42.859,164.96
42.875,152.62
42.890,141.09
42.906,130.56
42.921,121.06
42.937,112.11
42.953,103.14
42.968,94.42
42.984,86.16
43.000,78.37
43.015,71.22
43.031,64.73
43.046,58.74
43.062,53.06
43.078,47.58
43.093,42.03
43.109,36.71
43.125,31.9
43.140,27.84
43.156,25.02
43.171,23.98
43.187,25.04
43.203,28.34
43.218,34.02
43.234,41.82
43.250,51.37
43.265,63.13
43.281,75.14
43.296,85.93
43.312,94.02
43.328,98.05
43.343,97.15
43.359,91.03
43.375,80.01
43.390,65.08
43.406,47.71
43.421,29.27
43.437,11.24
43.453,-5.14
43.468,-19.18
43.484,-30.36
43.500,-38.36
43.515,-43.04
43.531,-44.29
43.546,-42.25
43.562,-37.68
43.578,-31.44
43.593,-24.59
43.609,-18.26
43.625,-12.95
43.640,-8.61
43.656,-4.57
43.671,0.14
43.687,6.61
43.703,15.05
43.718,25.3
43.734,36.22
43.750,46.71
43.765,55.9
43.781,63.53
43.796,69.91
43.812,75.63
43.828,81.59
43.843,88.65
43.859,97.89
43.875,109.55
43.890,122.88
43.906,135.49
43.921,143.53
43.937,142.8
43.953,130.83
43.968,108.24
43.984,79.1
44.000,49.55
44.015,25.03
44.031,9.03
44.046,2.09
44.062,2.44
44.078,7.41
44.093,14.69
44.109,22.48
44.125,29.04
44.140,35.26
44.156,39.69
44.171,40.59
44.187,37.04
44.203,29.6
44.218,20.35
44.234,11.94
44.250,6.36
44.265,4.19
44.281,4.34
44.296,4.38
44.312,2.25
44.328,-2.9
44.343,-10.46
44.359,-18.94
44.375,-26.94
44.390,-33.8
44.406,-39.21
44.421,-42.6
44.437,-42.97
44.453,-38.61
44.468,-28.32
44.484,-12.58
44.500,5.6
44.515,21.63
44.531,31.24
44.546,32.61
44.562,26.99
44.578,17.78
44.593,8.73
44.609,2.22
44.625,-1.69
44.640,-4.14
44.656,-6.14
44.671,-7.93
44.687,-9.26
44.703,-10.62
44.718,-13.33
44.734,-18.99
44.750,-28.24
44.765,-40.48
44.781,-53.35
44.796,-63.62
44.812,-68.96
44.828,-68.84
44.843,-65.07
44.859,-60.69
44.875,-58.58
44.890,-60.17
44.906,-65.69
44.921,-72.69
44.937,-76.63
44.953,-72.66
44.968,-58.45
44.984,-35.63
45.000,-9.21
45.015,14.8
45.031,32.29
45.046,39.48
45.062,36.48
45.078,26.96
45.093,16.13
45.109,7.58
45.125,2.01
45.140,-1.78
45.156,-4.92
45.171,-7.21
45.187,-13.77
45.203,-28.59
45.218,-52.08
45.234,-80.87
45.250,-110.82
45.265,-139.62
45.281,-166.41
45.296,-189.85
45.312,-207.5
45.328,-226.59
45.343,-253.23
45.359,-288.79
45.375,-328.46
45.390,-366.43
45.406,-400.03
45.421,-430.14
45.437,-458.26
45.453,-484.65
45.468,-522.22
45.484,-580.94
45.500,-663.04
45.515,-760.52
45.531,-862.83
45.546,-962.82
45.562,-1058.34
45.578,-1147.18
45.593,-1151.83
45.609,-1025.82
45.625,-776.99
45.640,-467.47
45.656,-163.77
45.671,96.45
45.687,304.69
45.703,464.77
45.718,582.03
45.734,674.53
45.750,739.19
45.765,770.77
45.781,769.28
45.796,747.89
45.812,724.54
45.828,714.71
45.843,717.72
45.859,720.1
45.875,710.51
45.890,671.43
45.906,610.64
45.921,530.53
45.937,441.13
45.953,350.16
45.968,268.28
45.984,201.83
46.000,154.05
46.015,126.61
46.031,110.88
46.046,98.41
46.062,81.75
46.078,60.96
46.093,39.41
46.109,21.25
46.125,8.18
46.140,1.04
46.156,0.74
46.171,2.65
46.187,3.14
46.203,-0.85
46.218,-7.16
46.234,-11.85
46.250,-11.26
46.265,-4.64
46.281,7.29
46.296,23.67
46.312,42.12
46.328,61.1
46.343,78.99
46.359,96.09
46.375,112.81
46.390,129.24
46.406,144.68
46.421,158.91
46.437,172.93
46.453,187.9
46.468,204.58
46.484,221.99
46.500,238.27
46.515,250.9
46.531,257.49
46.546,256.08
46.562,245.88
46.578,227.47
46.593,202.27
46.609,172.13
46.625,138.52
46.640,102.65
46.656,65.29
46.671,27.06
46.687,-11.12
46.703,-47.59
46.718,-79.54
46.734,-104.04
46.750,-118.75
46.765,-122.95
46.781,-117.83
46.796,-106.28
46.812,-91.85
46.828,-78.07
46.843,-67.64
46.859,-61.97
46.875,-61.37
46.890,-65.05
46.906,-71.58
46.921,-79.17
46.937,-86.45
46.953,-92.55
46.968,-97.44
46.984,-101.67
47.000,-105.81
47.015,-110.18
47.031,-114.29
47.046,-117.18
47.062,-117.39
47.078,-113.33
47.093,-103.28
47.109,-86.1
47.125,-61.89
47.140,-32.61
47.156,-2.22
47.171,24.66
47.187,44.53
47.203,56.41
47.218,61.93
47.234,63.67
47.250,63.15
47.265,59.6
47.281,50.95
47.296,35.71
47.312,14.92
47.328,-7.63
47.343,-27.24
47.359,-40.64
47.375,-47.91
47.390,-51.87
47.406,-56.18
47.421,-62.72
47.437,-70.81
47.453,-77.94
47.468,-81.28
47.484,-79.47
47.500,-73.13
47.515,-64.76
47.531,-57.43
47.546,-53.8
47.562,-54.83
47.578,-59.47
47.593,-64.76
47.609,-66.7
47.625,-61.9
47.640,-48.62
47.656,-27.85
47.671,-2.8
47.687,22.34
47.703,44.22
47.718,61.32
47.734,73.96
47.750,83.3
47.765,89.78
47.781,92.71
47.796,90.85
47.812,83.77
47.828,72.74
47.843,60.43
47.859,49.8
47.875,42.62
47.890,39.07
47.906,38.03
47.921,38.23
47.937,39.29
47.953,41.61
47.968,45.71
47.984,51.38
48.000,57.29
48.015,61.46
48.031,62.01
48.046,57.78
48.062,48.42
48.078,34.56
48.093,17.59
48.109,-0.42
48.125,-16.9
48.140,-29.63
48.156,-37.61
48.171,-41.57
48.187,-43.93
48.203,-47.77
48.218,-55.31
48.234,-67.23
48.250,-82.94
48.265,-101.35
48.281,-121.73
48.296,-144.09
48.312,-168.78
48.328,-195.31
48.343,-222.05
48.359,-246.1
48.375,-264.2
48.390,-273.99
48.406,-274.77
48.421,-267.51
48.437,-254.18
48.453,-236.55
48.468,-215.56
48.484,-191.06
48.500,-162.71
48.515,-130.64
48.531,-96.05
48.546,-60.79
48.562,-26.78
48.578,4.62
48.593,33.11
48.609,59.02
48.625,82.65
48.640,103.87
48.656,121.81
48.671,135.5
48.687,144.65
48.703,149.86
48.718,152.63
48.734,154.83
48.750,157.91
48.765,162.16
48.781,166.89
48.796,170.68
48.812,172.01
48.828,170.12
48.843,164.86
48.859,156.54
48.875,145.42
48.890,131.59
48.906,114.95
48.921,95.86
48.937,75.35
48.953,55.28
48.968,37.73
48.984,24.15
49.000,14.64
49.015,7.67
49.031,0.65
49.046,-9.17
49.062,-23.38
49.078,-42.1
49.093,-63.87
49.109,-86.28
49.125,-107.17
49.140,-125.13
49.156,-140.03
49.171,-152.36
49.187,-162.48
49.203,-169.69
49.218,-172.64
49.234,-169.82
49.250,-160.91
49.265,-147.38
49.281,-131.93
49.296,-117.57
49.312,-106.02
49.328,-97.11
49.343,-88.91
49.359,-79.32
49.375,-67.59
49.390,-54.93
49.406,-44.09
49.421,-37.5
49.437,-35.79
49.453,-37.38
49.468,-39.22
49.484,-38.43
49.500,-33.86
49.515,-26.6
49.531,-19.01
49.546,-13.4
49.562,-10.64
49.578,-9.76
49.593,-8.76
49.609,-5.78
49.625,-0.27
49.640,6.65
49.656,12.98
49.671,16.92
49.687,17.8
49.703,16.29
49.718,13.84
49.734,11.63
49.750,9.72
49.765,7.14
49.781,2.66
49.796,-4.26
49.812,-12.84
49.828,-21.39
49.843,-28.01
49.859,-31.51
49.875,-31.88
49.890,-29.94
49.906,-26.71
49.921,-22.76
49.937,-18.18
49.953,-12.75
49.968,-6.56
49.984,-0.16
50.000,5.53
50.015,9.4
50.031,10.66
50.046,9.16
50.062,5.48
50.078,0.72
50.093,-3.83
50.109,-7.13
50.125,-8.73
50.140,-8.95
50.156,-8.65
50.171,-8.79
50.187,-9.85
50.203,-11.43
50.218,-12.3
50.234,-11.05
50.250,-6.83
50.265,0.08
50.281,8.35
50.296,16.35
50.312,22.99
50.328,28.07
50.343,32.31
50.359,36.55
50.375,40.96
50.390,44.58
50.406,45.73
50.421,43.14
50.437,36.79
50.453,28.29
50.468,20.34
50.484,15.29
50.500,14.26
50.515,16.57
50.531,20.37
50.546,23.54
50.562,25.0
50.578,24.97
50.593,24.62
50.609,25.15
50.625,26.99
50.640,29.42
50.656,31.18
50.671,31.27
50.687,29.67
50.703,27.4
50.718,25.89
50.734,26.23
50.750,28.42
50.765,31.37
50.781,33.33
50.796,32.99
50.812,30.18
50.828,25.89
50.843,21.78
50.859,19.22
50.875,18.67
50.890,19.42
50.906,20.05
50.921,19.18
50.937,16.21
50.953,11.65
50.968,6.8
50.984,3.02
51.000,1.04
51.015,0.61
51.031,0.67
51.046,0.14
51.062,-1.36
51.078,-3.16
51.093,-3.78
51.109,-1.87
51.125,3.0
51.140,9.89
51.156,16.91
51.171,22.05
51.187,24.24
51.203,23.77
51.218,21.89
51.234,20.04
51.250,18.92
51.265,18.1
51.281,16.43
51.296,12.7
51.312,6.8
51.328,-0.34
51.343,-6.96
51.359,-11.33
51.375,-12.54
51.390,-10.94
51.406,-7.81
51.421,-4.61
51.437,-2.41
51.453,-1.15
51.468,0.06
51.484,2.39
51.500,6.52
51.515,12.33
51.531,18.72
51.546,24.24
51.562,27.81
51.578,29.11
51.593,28.82
51.609,28.19
51.625,28.54
51.640,30.67
51.656,34.76
51.671,40.64
51.687,48.12
51.703,57.28
51.718,68.14
51.734,80.63
51.750,94.39
51.765,108.89
51.781,123.83
51.796,139.01
51.812,154.88
51.828,172.01
51.843,190.7
51.859,210.05
51.875,227.85
51.890,240.97
51.906,246.32
51.921,242.14
51.937,228.32
51.953,206.76
51.968,180.58
51.984,153.03
52.000,125.96
52.015,99.39
52.031,71.87
52.046,41.71
52.062,8.37
52.078,-27.63
52.093,-64.39
52.109,-99.48
52.125,-130.62
52.140,-156.65
52.156,-177.25
52.171,-192.4
52.187,-201.72
52.203,-204.26
52.218,-200.88
52.234,-192.94
52.250,-182.0
52.265,-169.18
52.281,-155.59
52.296,-142.29
52.312,-129.79
52.328,-117.63
52.343,-104.6
52.359,-93.17
52.375,-86.07
52.390,-85.06
52.406,-89.59
52.421,-98.16
52.437,-108.99
52.453,-119.93
52.468,-127.95
52.484,-129.93
52.500,-129.78
52.515,-132.06
52.531,-139.55
52.546,-150.99
52.562,-163.01
52.578,-172.49
52.593,-178.15
52.609,-180.39
52.625,-181.57
52.640,-193.17
52.656,-224.46
52.671,-278.89
52.687,-351.56
52.703,-433.95
52.718,-518.66
52.734,-601.81
52.750,-681.7
52.765,-708.62
52.781,-648.45
52.796,-498.31
52.812,-293.71
52.828,-79.53
52.843,114.79
52.859,279.34
52.875,415.19
52.890,527.78
52.906,622.29
52.921,695.04
52.937,745.49
52.953,772.66
52.968,780.09
52.984,773.71
53.000,758.68
53.015,737.42
53.031,710.67
53.046,676.94
53.062,614.27
53.078,519.88
53.093,402.7
53.109,277.97
53.125,154.07
53.140,36.51
53.156,-73.64
53.171,-166.61
53.187,-236.59
53.203,-287.92
53.218,-322.38
53.234,-343.51
53.250,-353.47
53.265,-353.92
53.281,-347.0
53.296,-336.85
53.312,-328.4
53.328,-302.5
53.343,-255.81
53.359,-193.18
53.375,-129.81
53.390,-78.63
53.406,-43.34
53.421,-20.25
53.437,-3.27
53.453,13.39
53.468,32.15
53.484,40.94
53.500,41.57
53.515,35.2
53.531,22.61
53.546,6.0
53.562,-12.24
53.578,-30.44
53.593,-47.91
53.609,-66.9
53.625,-94.85
53.640,-126.81
53.656,-151.08
53.671,-161.86
53.687,-157.59
53.703,-141.11
53.718,-116.26
53.734,-85.48
53.750,-50.05
53.765,-13.14
53.781,23.5
53.796,55.5
53.812,78.15
53.828,89.51
53.843,89.74
53.859,81.47
53.875,68.77
53.890,55.97
53.906,45.78
53.921,40.46
53.937,38.72
53.953,37.07
53.968,32.63
53.984,23.87
54.000,11.34
54.015,-2.34
54.031,-14.28
54.046,-22.94
54.062,-27.94
54.078,-31.19
54.093,-37.02
54.109,-43.43
54.125,-46.93
54.140,-43.74
54.156,-30.68
54.171,-8.41
54.187,18.84
54.203,45.33
54.218,65.21
54.234,75.4
54.250,76.21
54.265,69.01
54.281,55.45
54.296,38.19
54.312,20.84
54.328,8.45
54.343,7.14
54.359,20.99
54.375,49.57
54.390,87.08
54.406,123.96
54.421,147.45
54.437,149.55
54.453,129.82
54.468,93.97
54.484,50.65
54.500,7.61
54.515,-30.38
54.531,-61.45
54.546,-85.35
54.562,-103.75
54.578,-116.21
54.593,-122.71
54.609,-124.48
54.625,-123.69
54.640,-123.59
54.656,-126.49
54.671,-133.28
54.687,-143.55
54.703,-155.16
54.718,-165.43
54.734,-172.4
54.750,-175.56
54.765,-175.63
54.781,-174.31
54.796,-173.3
54.812,-173.62
54.828,-175.72
54.843,-178.18
54.859,-179.44
54.875,-178.3
54.890,-174.44
54.906,-168.06
54.921,-159.91
54.937,-150.71
54.953,-140.81
54.968,-130.4
54.984,-119.45
55.000,-107.86
55.015,-95.57
55.031,-82.92
55.046,-70.41
55.062,-58.69
55.078,-48.37
55.093,-39.61
55.109,-32.34
55.125,-26.12
55.140,-20.54
55.156,-15.22
55.171,-9.95
55.187,-4.67
55.203,0.54
55.218,5.47
55.234,9.91
55.250,13.63
55.265,16.45
55.281,18.22
55.296,18.85
55.312,18.3
55.328,16.67
55.343,14.07
55.359,10.66
55.375,6.76
55.390,2.57
55.406,-1.61
55.421,-5.56
55.437,-9.14
55.453,-12.22
55.468,-14.7
55.484,-16.59
55.500,-17.95
55.515,-18.78
55.531,-19.15
55.546,-19.08
55.562,-18.47
55.578,-17.36
55.593,-15.72
55.609,-13.56
55.625,-10.97
55.640,-8.05
55.656,-4.9
55.671,-1.7
55.687,1.52
55.703,4.75
55.718,8.0
55.734,11.28
55.750,14.57
55.765,17.87
55.781,21.1
55.796,24.27
55.812,27.42
55.828,30.73
55.843,34.49
55.859,38.9
55.875,44.12
55.890,50.06
55.906,56.45
55.921,62.87
55.937,68.99
55.953,74.59
55.968,79.72
55.984,84.7
56.000,89.87
56.015,95.48
56.031,101.42
56.046,107.23
56.062,112.23
56.078,115.95
56.093,118.25
56.109,119.6
56.125,120.97
56.140,123.56
56.156,128.33
56.171,135.63
56.187,145.25
56.203,156.39
56.218,168.2
56.234,179.97
56.250,191.53
56.265,203.26
56.281,216.06
56.296,230.99
56.312,248.98
56.328,270.25
56.343,293.58
56.359,316.16
56.375,333.88
56.390,342.48
56.406,338.91
56.421,322.53
56.437,295.42
56.453,261.82
56.468,226.69
56.484,194.29
56.500,167.04
56.515,145.21
56.531,127.47
56.546,111.63
56.562,95.68
56.578,78.37
56.593,59.59
56.609,40.13
56.625,21.42
56.640,4.97
56.656,-8.26
56.671,-17.99
56.687,-24.62
56.703,-28.99
56.718,-31.9
56.734,-34.02
56.750,-35.84
56.765,-37.73
56.781,-40.08
56.796,-43.3
56.812,-47.52
56.828,-52.3
56.843,-56.53
56.859,-58.6
56.875,-57.15
56.890,-51.9
56.906,-43.96
56.921,-35.48
56.937,-28.72
56.953,-25.05
56.968,-24.42
56.984,-25.51
57.000,-26.52
57.015,-25.92
57.031,-23.06
57.046,-18.22
57.062,-12.17
57.078,-5.83
57.093,0.03
57.109,4.91
57.125,8.63
57.140,11.33
57.156,13.32
57.171,15.03
57.187,16.85
57.203,18.89
57.218,20.99
57.234,22.8
57.250,24.03
57.265,24.52
57.281,24.35
57.296,23.36
57.312,21.27
57.328,17.55
57.343,11.65
57.359,3.57
57.375,-5.9
57.390,-15.56
57.406,-24.47
57.421,-32.88
57.437,-42.33
57.453,-54.5
57.468,-69.3
57.484,-84.15
57.500,-94.92
57.515,-98.28
57.531,-94.13
57.546,-85.79
57.562,-78.14
57.578,-74.43
57.593,-74.48
57.609,-75.33
57.625,-73.64
57.640,-68.44
57.656,-61.82
57.671,-57.35
57.687,-57.16
57.703,-60.37
57.718,-63.37
57.734,-62.34
57.750,-55.62
57.765,-44.65
57.781,-32.75
57.796,-23.22
57.812,-17.68
57.828,-15.79
57.843,-16.09
57.859,-16.94
57.875,-17.3
57.890,-16.93
57.906,-15.88
57.921,-13.99
57.937,-10.76
57.953,-5.58
57.968,1.81
57.984,10.91
58.000,20.64
58.015,29.44
58.031,35.85
58.046,38.99
58.062,38.63
58.078,35.18
58.093,29.58
58.109,23.07
58.125,17.0
58.140,12.81
58.156,11.52
58.171,13.29
58.187,17.49
58.203,22.83
58.218,27.89
58.234,31.81
58.250,34.34
58.265,35.85
58.281,36.84
58.296,37.76
58.312,38.8
58.328,39.92
58.343,41.2
58.359,42.92
58.375,45.65
58.390,49.93
58.406,55.86
58.421,62.85
58.437,69.74
58.453,75.26
58.468,78.7
58.484,80.38
58.500,81.83
58.515,85.12
58.531,91.76
58.546,101.62
58.562,112.56
58.578,121.37
58.593,125.28
58.609,123.47
58.625,117.17
58.640,108.71
58.656,99.87
58.671,91.02
58.687,81.21
58.703,69.42
58.718,55.58
58.734,41.01
58.750,27.57
58.765,16.57
58.781,7.71
58.796,-0.77
58.812,-11.05
58.828,-24.51
58.843,-40.72
58.859,-57.34
58.875,-70.88
58.890,-77.98
58.906,-76.83
58.921,-68.01
58.937,-54.59
58.953,-40.88
58.968,-30.73
58.984,-25.79
59.000,-24.77
59.015,-24.43
59.031,-21.27
59.046,-13.29
59.062,-0.77
59.078,14.3
59.093,29.34
59.109,42.42
59.125,52.75
59.140,60.52
59.156,66.13
59.171,69.62
59.187,70.42
59.203,68.14
59.218,63.12
59.234,56.63
59.250,50.44
59.265,45.81
59.281,42.63
59.296,39.43
59.312,34.09
59.328,25.13
59.343,12.83
59.359,-0.65
59.375,-12.3
59.390,-19.82
59.406,-23.0
59.421,-23.84
59.437,-25.43
59.453,-30.47
59.468,-39.84
59.484,-52.35
59.500,-65.48
59.515,-76.54
59.531,-83.93
59.546,-87.74
59.562,-89.5
59.578,-91.09
59.593,-93.77
59.609,-97.33
59.625,-100.36
59.640,-101.33
59.656,-99.67
59.671,-96.28
59.687,-93.06
59.703,-91.75
59.718,-92.51
59.734,-93.77
59.750,-92.98
59.765,-88.11
59.781,-78.77
59.796,-66.12
59.812,-51.59
59.828,-35.57
59.843,-16.91
59.859,6.38
59.875,35.41
59.890,68.92
59.906,102.84
59.921,131.42
59.937,149.23
59.953,153.19
59.968,143.67
59.984,124.17
