timestamp,value
00.000,-29.18
00.015,-32.27
00.031,-36.11
00.046,-40.5
00.062,-45.09
00.078,-49.09
00.093,-51.73
00.109,-52.31
00.125,-50.36
00.140,-45.81
00.156,-38.98
00.171,-30.5
00.187,-21.11
00.203,-11.57
00.218,-2.52
00.234,5.55
00.250,12.35
00.265,17.8
00.281,21.91
00.296,24.84
00.312,26.82
00.328,27.99
00.343,28.61
00.359,28.89
00.375,28.85
00.390,28.44
00.406,27.68
00.421,26.45
00.437,24.84
00.453,23.04
00.468,21.17
00.484,19.44
00.500,18.12
00.515,17.25
00.531,16.77
00.546,16.58
00.562,16.36
00.578,15.83
00.593,14.85
00.609,13.32
00.625,11.38
00.640,9.15
00.656,6.79
00.671,4.3
00.687,1.64
00.703,-1.3
00.718,-4.55
00.734,-8.01
00.750,-11.6
00.765,-15.06
00.781,-18.38
00.796,-21.47
00.812,-24.35
00.828,-27.18
00.843,-30.19
00.859,-33.41
00.875,-37.04
00.890,-41.06
00.906,-45.18
00.921,-49.05
00.937,-52.02
00.953,-53.21
00.968,-51.9
00.984,-47.86
01.000,-41.17
01.015,-32.61
01.031,-23.23
01.046,-13.95
01.062,-5.47
01.078,1.89
01.093,8.13
01.109,13.36
01.125,17.74
01.140,21.38
01.156,24.42
01.171,26.93
01.187,29.11
01.203,31.0
01.218,32.63
01.234,33.87
01.250,34.53
01.265,34.51
01.281,33.72
01.296,32.29
01.312,30.35
01.328,28.21
01.343,26.06
01.359,24.12
01.375,22.49
01.390,21.1
01.406,19.85
01.421,18.54
01.437,17.01
01.453,15.2
01.468,13.23
01.484,11.13
01.500,9.02
01.515,6.85
01.531,4.57
01.546,2.09
01.562,-0.61
01.578,-3.49
01.593,-6.55
01.609,-9.69
01.625,-12.92
01.640,-16.19
01.656,-19.61
01.671,-23.25
01.687,-27.15
01.703,-31.38
01.718,-35.9
01.734,-40.64
01.750,-45.31
01.765,-49.42
01.781,-52.22
01.796,-52.91
01.812,-50.95
01.828,-46.15
01.843,-38.87
01.859,-29.93
01.875,-20.3
01.890,-10.88
01.906,-2.25
01.921,5.29
01.937,11.65
01.953,16.9
01.968,21.27
01.984,24.89
02.000,28.02
02.015,30.8
02.031,33.28
02.046,35.39
02.062,36.86
02.078,37.48
02.093,37.05
02.109,35.68
02.125,33.5
02.140,30.92
02.156,28.39
02.171,26.18
02.187,24.39
02.203,22.98
02.218,21.76
02.234,20.53
02.250,19.19
02.265,17.64
02.281,15.89
02.296,14.04
02.312,12.13
02.328,10.18
02.343,8.23
02.359,6.22
02.375,4.02
02.390,1.54
02.406,-1.42
02.421,-4.82
02.437,-8.61
02.453,-12.65
02.468,-16.69
02.484,-20.52
02.500,-24.08
02.515,-27.42
02.531,-30.66
02.546,-34.01
02.562,-37.65
02.578,-41.59
02.593,-45.58
02.609,-49.01
02.625,-51.04
02.640,-50.84
02.656,-47.85
02.671,-42.02
02.687,-33.87
02.703,-24.31
02.718,-14.34
02.734,-4.84
02.750,3.66
02.765,10.91
02.781,16.89
02.796,21.68
02.812,25.45
02.828,28.42
02.843,30.8
02.859,32.79
02.875,34.47
02.890,35.94
02.906,37.15
02.921,37.99
02.937,38.33
02.953,38.02
02.968,36.98
02.984,35.23
03.000,33.0
03.015,30.51
03.031,28.13
03.046,26.08
03.062,24.57
03.078,23.5
03.093,22.75
03.109,22.06
03.125,21.09
03.140,19.7
03.156,17.8
03.171,15.46
03.187,12.74
03.203,9.77
03.218,6.59
03.234,3.27
03.250,-0.15
03.265,-3.66
03.281,-7.13
03.296,-10.49
03.312,-13.6
03.328,-16.52
03.343,-19.42
03.359,-22.53
03.375,-26.05
03.390,-30.13
03.406,-34.71
03.421,-39.49
03.437,-44.21
03.453,-48.35
03.468,-51.34
03.484,-52.61
03.500,-51.64
03.515,-48.25
03.531,-42.41
03.546,-34.66
03.562,-25.64
03.578,-16.22
03.593,-7.1
03.609,1.19
03.625,8.44
03.640,14.59
03.656,19.59
03.671,23.68
03.687,26.99
03.703,29.71
03.718,31.81
03.734,33.24
03.750,33.91
03.765,33.69
03.781,32.67
03.796,30.95
03.812,28.81
03.828,26.5
03.843,24.35
03.859,22.44
03.875,20.85
03.890,19.64
03.906,18.7
03.921,17.98
03.937,17.3
03.953,16.51
03.968,15.38
03.984,13.78
04.000,11.7
04.015,9.19
04.031,6.49
04.046,3.79
04.062,1.28
04.078,-1.07
04.093,-3.36
04.109,-5.86
04.125,-8.74
04.140,-11.95
04.156,-15.32
04.171,-18.55
04.187,-21.48
04.203,-23.91
04.218,-26.07
04.234,-28.27
04.250,-30.94
04.265,-34.38
04.281,-38.58
04.296,-43.17
04.312,-47.43
04.328,-50.56
04.343,-51.63
04.359,-50.18
04.375,-46.05
04.390,-39.66
04.406,-31.68
04.421,-22.91
04.437,-14.11
04.453,-5.77
04.468,1.79
04.484,8.56
04.500,14.46
04.515,19.52
04.531,23.78
04.546,27.26
04.562,30.02
04.578,32.13
04.593,33.55
04.609,34.2
04.625,34.11
04.640,33.31
04.656,31.88
04.671,30.0
04.687,27.9
04.703,25.78
04.718,23.77
04.734,21.97
04.750,20.38
04.765,18.97
04.781,17.63
04.796,16.28
04.812,14.73
04.828,12.87
04.843,10.67
04.859,8.14
04.875,5.43
04.890,2.68
04.906,-0.03
04.921,-2.7
04.937,-5.31
04.953,-7.92
04.968,-10.6
04.984,-13.34
05.000,-16.17
05.015,-19.11
05.031,-22.19
05.046,-25.47
05.062,-29.06
05.078,-33.05
05.093,-37.46
05.109,-42.3
05.125,-47.44
05.140,-52.47
05.156,-56.77
05.171,-59.55
05.187,-60.0
05.203,-57.55
05.218,-52.08
05.234,-43.99
05.250,-34.12
05.265,-23.59
05.281,-13.33
05.296,-3.95
05.312,4.33
05.328,11.54
05.343,17.77
05.359,23.06
05.375,27.4
05.390,30.78
05.406,33.26
05.421,34.91
05.437,35.93
05.453,36.46
05.468,36.6
05.484,36.39
05.500,35.76
05.515,34.64
05.531,33.07
05.546,31.19
05.562,29.25
05.578,27.55
05.593,26.23
05.609,25.23
05.625,24.29
05.640,23.1
05.656,21.35
05.671,19.12
05.687,16.54
05.703,13.89
05.718,11.35
05.734,9.0
05.750,6.69
05.765,4.21
05.781,1.4
05.796,-1.89
05.812,-5.66
05.828,-9.76
05.843,-14.02
05.859,-18.24
05.875,-22.25
05.890,-26.01
05.906,-29.44
05.921,-32.54
05.937,-35.53
05.953,-38.62
05.968,-42.09
05.984,-46.02
06.000,-50.08
06.015,-53.6
06.031,-55.71
06.046,-55.54
06.062,-52.52
06.078,-46.74
06.093,-38.71
06.109,-29.29
06.125,-19.4
06.140,-9.78
06.156,-0.91
06.171,7.07
06.187,14.12
06.203,20.35
06.218,25.65
06.234,30.0
06.250,33.36
06.265,35.72
06.281,37.2
06.296,37.95
06.312,38.12
06.328,37.81
06.343,37.09
06.359,35.96
06.375,34.56
06.390,33.01
06.406,31.43
06.421,29.99
06.437,28.79
06.453,27.86
06.468,27.15
06.484,26.46
06.500,25.55
06.515,24.26
06.531,22.54
06.546,20.39
06.562,17.94
06.578,15.39
06.593,12.82
06.609,10.24
06.625,7.58
06.640,4.7
06.656,1.52
06.671,-2.0
06.687,-5.84
06.703,-9.94
06.718,-14.13
06.734,-18.33
06.750,-22.43
06.765,-26.38
06.781,-30.15
06.796,-33.78
06.812,-37.35
06.828,-40.97
06.843,-44.74
06.859,-48.46
06.875,-51.73
06.890,-53.89
06.906,-54.18
06.921,-51.99
06.937,-47.12
06.953,-39.89
06.968,-31.0
06.984,-21.41
07.000,-11.81
07.015,-2.76
07.031,5.51
07.046,12.94
07.062,19.43
07.078,24.93
07.093,29.26
07.109,32.44
07.125,34.46
07.140,35.62
07.156,36.14
07.171,36.22
07.187,36.08
07.203,35.66
07.218,34.89
07.234,33.63
07.250,31.9
07.265,29.87
07.281,27.92
07.296,26.32
07.312,25.3
07.328,24.89
07.343,24.84
07.359,24.86
07.375,24.65
07.390,24.05
07.406,22.97
07.421,21.49
07.437,19.64
07.453,17.53
07.468,15.31
07.484,12.93
07.500,10.37
07.515,7.42
07.531,4.0
07.546,0.13
07.562,-4.04
07.578,-8.2
07.593,-12.1
07.609,-15.58
07.625,-18.77
07.640,-21.82
07.656,-25.03
07.671,-28.6
07.687,-32.58
07.703,-36.87
07.718,-41.18
07.734,-45.09
07.750,-48.06
07.765,-49.53
07.781,-48.86
07.796,-45.68
07.812,-39.97
07.828,-32.14
07.843,-22.95
07.859,-13.27
07.875,-3.98
07.890,4.4
07.906,11.63
07.921,17.79
07.937,22.96
07.953,27.25
07.968,30.71
07.984,33.21
08.000,34.85
08.015,35.66
08.031,35.79
08.046,35.38
08.062,34.51
08.078,33.15
08.093,31.34
08.109,29.21
08.125,26.84
08.140,24.56
08.156,22.59
08.171,21.16
08.187,20.23
08.203,19.72
08.218,19.39
08.234,19.01
08.250,18.42
08.265,17.45
08.281,16.02
08.296,14.11
08.312,11.71
08.328,8.88
08.343,5.72
08.359,2.33
08.375,-1.16
08.390,-4.64
08.406,-7.97
08.421,-11.13
08.437,-14.09
08.453,-16.96
08.468,-19.78
08.484,-22.62
08.500,-25.6
08.515,-28.84
08.531,-32.5
08.546,-36.6
08.562,-41.03
08.578,-45.43
08.593,-49.21
08.609,-51.61
08.625,-51.87
08.640,-49.51
08.656,-44.58
08.671,-37.55
08.687,-29.22
08.703,-20.39
08.718,-11.69
08.734,-3.47
08.750,4.08
08.765,10.9
08.781,16.87
08.796,21.83
08.812,25.73
08.828,28.59
08.843,30.63
08.859,32.07
08.875,33.11
08.890,33.74
08.906,33.87
08.921,33.26
08.937,31.84
08.953,29.74
08.968,27.31
08.984,24.93
09.000,22.97
09.015,21.61
09.031,20.77
09.046,20.28
09.062,19.76
09.078,18.93
09.093,17.64
09.109,15.82
09.125,13.54
09.140,10.93
09.156,8.18
09.171,5.36
09.187,2.48
09.203,-0.48
09.218,-3.65
09.234,-7.04
09.250,-10.63
09.265,-14.29
09.281,-17.9
09.296,-21.31
09.312,-24.52
09.328,-27.68
09.343,-30.92
09.359,-34.47
09.375,-38.5
09.390,-43.07
09.406,-48.01
09.421,-52.94
09.437,-57.11
09.453,-59.86
09.468,-60.38
09.484,-58.19
09.500,-53.18
09.515,-45.76
09.531,-36.72
09.546,-26.92
09.562,-17.12
09.578,-7.78
09.593,0.8
09.609,8.56
09.625,15.47
09.640,21.45
09.656,26.46
09.671,30.51
09.687,33.65
09.703,36.0
09.718,37.71
09.734,38.84
09.750,39.37
09.765,39.18
09.781,38.12
09.796,36.14
09.812,33.43
09.828,30.37
09.843,27.31
09.859,24.65
09.875,22.58
09.890,21.11
09.906,20.0
09.921,18.94
09.937,17.64
09.953,15.9
09.968,13.76
09.984,11.26
10.000,8.64
10.015,6.05
10.031,3.53
10.046,1.01
10.062,-1.7
10.078,-4.68
10.093,-7.95
10.109,-11.43
10.125,-15.01
10.140,-18.53
10.156,-21.98
10.171,-25.42
10.187,-28.88
10.203,-32.47
10.218,-36.33
10.234,-40.58
10.250,-45.2
10.265,-49.94
10.281,-54.09
10.296,-56.77
10.312,-57.2
10.328,-54.76
10.343,-49.44
10.359,-41.78
10.375,-32.65
10.390,-23.03
10.406,-13.7
10.421,-5.02
10.437,2.9
10.453,9.97
10.468,16.18
10.484,21.43
10.500,25.63
10.515,28.9
10.531,31.44
10.546,33.36
10.562,34.84
10.578,35.83
10.593,36.24
10.609,35.94
10.625,34.94
10.640,33.24
10.656,31.15
10.671,28.98
10.687,26.99
10.703,25.58
10.718,24.8
10.734,24.61
10.750,24.73
10.765,24.76
10.781,24.21
10.796,22.94
10.812,20.89
10.828,18.2
10.843,15.16
10.859,11.9
10.875,8.55
10.890,5.12
10.906,1.66
10.921,-1.87
10.937,-5.43
10.953,-8.96
10.968,-12.43
10.984,-15.73
11.000,-18.9
11.015,-22.0
11.031,-25.23
11.046,-28.78
11.062,-32.8
11.078,-37.43
11.093,-42.5
11.109,-47.72
11.125,-52.33
11.140,-55.58
11.156,-56.64
11.171,-54.97
11.187,-50.5
11.203,-43.51
11.218,-34.67
11.234,-24.79
11.250,-14.75
11.265,-5.08
11.281,3.84
11.296,11.8
11.312,18.7
11.328,24.4
11.343,28.87
11.359,32.17
11.375,34.51
11.390,35.95
11.406,36.63
11.421,36.64
11.437,36.03
11.453,34.94
11.468,33.49
11.484,31.84
11.500,30.08
11.515,28.38
11.531,26.68
11.546,25.0
11.562,23.41
11.578,21.92
11.593,20.62
11.609,19.4
11.625,18.27
11.640,17.01
11.656,15.6
11.671,13.97
11.687,12.16
11.703,10.14
11.718,7.94
11.734,5.55
11.750,2.85
11.765,-0.21
11.781,-3.65
11.796,-7.37
11.812,-11.16
11.828,-14.76
11.843,-18.04
11.859,-21.09
11.875,-24.14
11.890,-27.54
11.906,-31.64
11.921,-36.43
11.937,-41.63
11.953,-46.47
11.968,-50.01
11.984,-51.29
12.000,-49.74
12.015,-45.29
12.031,-38.38
12.046,-29.78
12.062,-20.35
12.078,-10.82
12.093,-1.6
12.109,6.86
12.125,14.41
12.140,20.86
12.156,26.17
12.171,30.38
12.187,33.69
12.203,36.26
12.218,38.19
12.234,39.55
12.250,40.14
12.265,39.81
12.281,38.43
12.296,36.15
12.312,33.27
12.328,30.19
12.343,27.3
12.359,24.86
12.375,22.93
12.390,21.46
12.406,20.33
12.421,19.32
12.437,18.29
12.453,17.16
12.468,15.79
12.484,14.1
12.500,12.04
12.515,9.56
12.531,6.76
12.546,3.77
12.562,0.7
12.578,-2.43
12.593,-5.59
12.609,-8.82
12.625,-12.19
12.640,-15.75
12.656,-19.5
12.671,-23.42
12.687,-27.54
12.703,-31.9
12.718,-36.65
12.734,-41.81
12.750,-47.12
12.765,-51.93
12.781,-55.39
12.796,-56.56
12.812,-54.77
12.828,-49.82
12.843,-42.18
12.859,-32.62
12.875,-22.15
12.890,-11.71
12.906,-1.89
12.921,6.9
12.937,14.45
12.953,20.71
12.968,25.74
12.984,29.65
13.000,32.62
13.015,34.84
13.031,36.32
13.046,37.09
13.062,37.04
13.078,36.15
13.093,34.45
13.109,32.08
13.125,29.29
13.140,26.28
13.156,23.35
13.171,20.64
13.187,18.43
13.203,16.74
13.218,15.68
13.234,15.03
13.250,14.46
13.265,13.65
13.281,12.3
13.296,10.51
13.312,8.32
13.328,5.94
13.343,3.3
13.359,0.27
13.375,-3.28
13.390,-7.3
13.406,-11.59
13.421,-15.87
13.437,-19.83
13.453,-23.39
13.468,-26.63
13.484,-29.87
13.500,-33.47
13.515,-37.57
13.531,-41.96
13.546,-46.3
13.562,-49.99
13.578,-52.4
13.593,-52.95
13.609,-51.27
13.625,-47.24
13.640,-41.12
13.656,-33.39
13.671,-24.76
13.687,-15.91
13.703,-7.46
13.718,0.24
13.734,7.06
13.750,12.95
13.765,18.03
13.781,22.34
13.796,26.02
13.812,29.21
13.828,31.97
13.843,34.35
13.859,36.12
13.875,37.05
13.890,36.84
13.906,35.45
13.921,33.14
13.937,30.23
13.953,27.28
13.968,24.67
13.984,22.67
14.000,21.29
14.015,20.31
14.031,19.43
14.046,18.3
14.062,16.75
14.078,14.65
14.093,12.19
14.109,9.59
14.125,7.11
14.140,4.75
14.156,2.44
14.171,-0.05
14.187,-2.91
14.203,-6.06
14.218,-9.51
14.234,-12.97
14.250,-16.39
14.265,-19.76
14.281,-23.22
14.296,-26.93
14.312,-31.08
14.328,-35.82
14.343,-40.95
14.359,-46.23
14.375,-50.97
14.390,-54.47
14.406,-55.97
14.421,-54.91
14.437,-51.09
14.453,-44.59
14.468,-35.98
14.484,-26.02
14.500,-15.64
14.515,-5.58
14.531,3.58
14.546,11.52
14.562,18.18
14.578,23.63
14.593,28.04
14.609,31.53
14.625,34.34
14.640,36.5
14.656,38.08
14.671,39.11
14.687,39.53
14.703,39.27
14.718,38.32
14.734,36.79
14.750,34.8
14.765,32.62
14.781,30.49
14.796,28.64
14.812,27.27
14.828,26.28
14.843,25.53
14.859,24.63
14.875,23.33
14.890,21.45
14.906,18.97
14.921,16.04
14.937,12.88
14.953,9.62
14.968,6.31
14.984,2.99
15.000,-0.37
15.015,-3.72
15.031,-7.04
15.046,-10.28
15.062,-13.48
15.078,-16.63
15.093,-19.68
15.109,-22.72
15.125,-25.78
15.140,-28.94
15.156,-32.37
15.171,-36.3
15.187,-40.66
15.203,-45.06
15.218,-48.73
15.234,-50.64
15.250,-49.98
15.265,-46.39
15.281,-40.11
15.296,-31.9
15.312,-22.74
15.328,-13.5
15.343,-4.78
15.359,3.21
15.375,10.39
15.390,16.74
15.406,22.21
15.421,26.65
15.437,30.01
15.453,32.37
15.468,33.82
15.484,34.6
15.500,34.79
15.515,34.43
15.531,33.47
15.546,31.95
15.562,29.92
15.578,27.59
15.593,25.32
15.609,23.43
15.625,22.17
15.640,21.53
15.656,21.44
15.671,21.56
15.687,21.52
15.703,21.01
15.718,19.84
15.734,18.04
15.750,15.75
15.765,13.19
15.781,10.51
15.796,7.77
15.812,4.91
15.828,1.9
15.843,-1.39
15.859,-4.9
15.875,-8.52
15.890,-12.01
15.906,-15.17
15.921,-17.89
15.937,-20.16
15.953,-22.2
15.968,-24.38
15.984,-27.09
16.000,-30.61
16.015,-34.89
16.031,-39.47
16.046,-43.5
16.062,-46.04
16.078,-46.19
16.093,-43.52
16.109,-38.16
16.125,-30.67
16.140,-21.94
16.156,-12.88
16.171,-4.13
16.187,3.91
16.203,11.0
16.218,17.17
16.234,22.34
16.250,26.51
16.265,29.66
16.281,31.91
16.296,33.45
16.312,34.37
16.328,34.84
16.343,34.77
16.359,34.22
16.375,33.17
16.390,31.71
16.406,29.97
16.421,28.15
16.437,26.57
16.453,25.32
16.468,24.44
16.484,23.66
16.500,22.82
16.515,21.75
16.531,20.4
16.546,18.87
16.562,17.31
16.578,15.81
16.593,14.32
16.609,12.71
16.625,10.66
16.640,8.13
16.656,5.09
16.671,1.66
16.687,-1.95
16.703,-5.62
16.718,-9.29
16.734,-12.89
16.750,-16.28
16.765,-19.49
16.781,-22.51
16.796,-25.41
16.812,-28.45
16.828,-31.81
16.843,-35.57
16.859,-39.62
16.875,-43.48
16.890,-46.34
16.906,-47.38
16.921,-45.99
16.937,-41.9
16.953,-35.43
16.968,-27.22
16.984,-18.17
17.000,-9.13
17.015,-0.7
17.031,6.77
17.046,13.1
17.062,18.25
17.078,22.24
17.093,25.13
17.109,27.11
17.125,28.36
17.140,29.08
17.156,29.33
17.171,29.15
17.187,28.46
17.203,27.25
17.218,25.52
17.234,23.42
17.250,21.22
17.265,19.19
17.281,17.65
17.296,16.67
17.312,16.22
17.328,16.12
17.343,16.1
17.359,15.84
17.375,15.18
17.390,14.05
17.406,12.49
17.421,10.61
17.437,8.52
17.453,6.25
17.468,3.81
17.484,1.14
17.500,-1.77
17.515,-4.88
17.531,-8.1
17.546,-11.24
17.562,-14.26
17.578,-17.17
17.593,-20.08
17.609,-23.06
17.625,-26.32
17.640,-29.89
17.656,-33.78
17.671,-37.94
17.687,-42.2
17.703,-46.22
17.718,-49.54
17.734,-51.54
17.750,-51.53
17.765,-49.15
17.781,-44.26
17.796,-37.22
17.812,-28.73
17.828,-19.59
17.843,-10.55
17.859,-2.18
17.875,5.23
17.890,11.59
17.906,16.77
17.921,20.78
17.937,23.75
17.953,25.71
17.968,26.99
17.984,27.82
18.000,28.29
18.015,28.4
18.031,28.04
18.046,27.05
18.062,25.45
18.078,23.36
18.093,21.0
18.109,18.68
18.125,16.62
18.140,14.88
18.156,13.42
18.171,12.1
18.187,10.73
18.203,9.26
18.218,7.63
18.234,5.89
18.250,4.09
18.265,2.25
18.281,0.43
18.296,-1.47
18.312,-3.52
18.328,-5.84
18.343,-8.36
18.359,-11.07
18.375,-13.89
18.390,-16.7
18.406,-19.5
18.421,-22.33
18.437,-25.21
18.453,-28.22
18.468,-31.54
18.484,-35.21
18.500,-39.28
18.515,-43.54
18.531,-47.54
18.546,-50.59
18.562,-51.9
18.578,-50.88
18.593,-47.26
18.609,-41.26
18.625,-33.46
18.640,-24.75
18.656,-15.87
18.671,-7.42
18.687,0.2
18.703,6.82
18.718,12.42
18.734,17.0
18.750,20.68
18.765,23.56
18.781,25.79
18.796,27.43
18.812,28.64
18.828,29.43
18.843,29.79
18.859,29.74
18.875,29.17
18.890,28.17
18.906,26.78
18.921,25.27
18.937,23.78
18.953,22.57
18.968,21.66
18.984,20.98
19.000,20.38
19.015,19.56
19.031,18.41
19.046,16.85
19.062,14.98
19.078,12.9
19.093,10.7
19.109,8.37
19.125,5.93
19.140,3.4
19.156,0.67
19.171,-2.26
19.187,-5.43
19.203,-8.82
19.218,-12.41
19.234,-16.07
19.250,-19.71
19.265,-23.29
19.281,-26.73
19.296,-30.23
19.312,-33.94
19.328,-38.04
19.343,-42.53
19.359,-47.19
19.375,-51.55
19.390,-54.85
19.406,-56.41
19.421,-55.45
19.437,-51.71
19.453,-45.28
19.468,-36.68
19.484,-26.76
19.500,-16.4
19.515,-6.41
19.531,2.69
19.546,10.51
19.562,17.0
19.578,22.19
19.593,26.17
19.609,29.12
19.625,31.21
19.640,32.65
19.656,33.54
19.671,33.93
19.687,33.7
19.703,32.85
19.718,31.3
19.734,29.17
19.750,26.85
19.765,24.71
19.781,23.12
19.796,22.17
19.812,21.76
19.828,21.58
19.843,21.32
19.859,20.81
19.875,19.94
19.890,18.82
19.906,17.38
19.921,15.64
19.937,13.54
19.953,11.1
19.968,8.41
19.984,5.61
20.000,2.77
20.015,-0.07
20.031,-2.95
20.046,-5.97
20.062,-9.17
20.078,-12.48
20.093,-15.74
20.109,-18.73
20.125,-21.4
20.140,-23.91
20.156,-26.49
20.171,-29.43
20.187,-33.05
20.203,-37.36
20.218,-42.11
20.234,-46.86
20.250,-50.85
20.265,-53.23
20.281,-53.29
20.296,-50.52
20.312,-44.86
20.328,-36.77
20.343,-27.08
20.359,-16.7
20.375,-6.64
20.390,2.53
20.406,10.54
20.421,17.35
20.437,22.97
20.453,27.35
20.468,30.54
20.484,32.69
20.500,34.06
20.515,34.87
20.531,35.33
20.546,35.41
20.562,35.04
20.578,34.08
20.593,32.51
20.609,30.51
20.625,28.47
20.640,26.63
20.656,25.17
20.671,24.26
20.687,23.81
20.703,23.76
20.718,23.91
20.734,23.98
20.750,23.72
20.765,22.98
20.781,21.72
20.796,19.98
20.812,17.99
20.828,15.82
20.843,13.49
20.859,11.01
20.875,8.29
20.890,5.37
20.906,2.24
20.921,-1.0
20.937,-4.33
20.953,-7.67
20.968,-11.05
20.984,-14.45
21.000,-17.81
21.015,-21.17
21.031,-24.55
21.046,-28.09
21.062,-31.97
21.078,-36.36
21.093,-41.11
21.109,-45.92
21.125,-50.05
21.140,-52.59
21.156,-52.72
21.171,-49.93
21.187,-44.17
21.203,-35.94
21.218,-26.17
21.234,-15.87
21.250,-5.95
21.265,3.03
21.281,10.81
21.296,17.27
21.312,22.48
21.328,26.48
21.343,29.44
21.359,31.54
21.375,32.95
21.390,33.83
21.406,34.19
21.421,34.02
21.437,33.19
21.453,31.75
21.468,29.75
21.484,27.44
21.500,24.98
21.515,22.61
21.531,20.6
21.546,19.08
21.562,18.11
21.578,17.61
21.593,17.38
21.609,17.08
21.625,16.46
21.640,15.39
21.656,13.84
21.671,11.95
21.687,9.83
21.703,7.54
21.718,5.06
21.734,2.33
21.750,-0.79
21.765,-4.26
21.781,-7.99
21.796,-11.78
21.812,-15.45
21.828,-18.89
21.843,-22.08
21.859,-25.07
21.875,-27.93
21.890,-30.82
21.906,-33.89
21.921,-37.26
21.937,-40.89
21.953,-44.51
21.968,-47.64
21.984,-49.53
22.000,-49.55
22.015,-47.25
22.031,-42.51
22.046,-35.6
22.062,-27.14
22.078,-17.89
22.093,-8.6
22.109,0.02
22.125,7.46
22.140,13.48
22.156,18.13
22.171,21.69
22.187,24.49
22.203,26.83
22.218,28.79
22.234,30.34
22.250,31.4
22.265,31.83
22.281,31.51
22.296,30.45
22.312,28.82
22.328,26.77
22.343,24.56
22.359,22.34
22.375,20.34
22.390,18.62
22.406,17.23
22.421,16.09
22.437,15.14
22.453,14.21
22.468,13.17
22.484,11.97
22.500,10.46
22.515,8.64
22.531,6.53
22.546,4.16
22.562,1.52
22.578,-1.37
22.593,-4.5
22.609,-7.91
22.625,-11.56
22.640,-15.38
22.656,-19.26
22.671,-23.05
22.687,-26.66
22.703,-30.05
22.718,-33.25
22.734,-36.48
22.750,-39.86
22.765,-43.43
22.781,-47.13
22.796,-50.65
22.812,-53.36
22.828,-54.54
22.843,-53.56
22.859,-49.96
22.875,-43.78
22.890,-35.56
22.906,-26.17
22.921,-16.58
22.937,-7.52
22.953,0.56
22.968,7.55
22.984,13.47
23.000,18.37
23.015,22.3
23.031,25.32
23.046,27.53
23.062,29.01
23.078,29.96
23.093,30.55
23.109,30.73
23.125,30.46
23.140,29.62
23.156,28.32
23.171,26.75
23.187,25.23
23.203,24.06
23.218,23.46
23.234,23.47
23.250,23.85
23.265,24.3
23.281,24.42
23.296,23.79
23.312,22.21
23.328,19.68
23.343,16.4
23.359,12.8
23.375,9.36
23.390,6.34
23.406,3.7
23.421,1.23
23.437,-1.45
23.453,-4.49
23.468,-7.94
23.484,-11.6
23.500,-15.28
23.515,-18.8
23.531,-22.13
23.546,-25.32
23.562,-28.55
23.578,-31.95
23.593,-35.57
23.609,-39.41
23.625,-43.4
23.640,-47.39
23.656,-50.98
23.671,-53.54
23.687,-54.31
23.703,-52.61
23.718,-48.13
23.734,-41.13
23.750,-32.34
23.765,-22.78
23.781,-13.38
23.796,-4.82
23.812,2.74
23.828,9.33
23.843,15.12
23.859,20.18
23.875,24.53
23.890,28.16
23.906,31.1
23.921,33.46
23.937,35.26
23.953,36.59
23.968,37.39
23.984,37.61
24.000,37.16
24.015,36.05
24.031,34.4
24.046,32.4
24.062,30.25
24.078,28.21
24.093,26.45
24.109,24.97
24.125,23.71
24.140,22.53
24.156,21.2
24.171,19.64
24.187,17.86
24.203,15.94
24.218,13.99
24.234,12.14
24.250,10.3
24.265,8.34
24.281,6.08
24.296,3.37
24.312,0.17
24.328,-3.5
24.343,-7.5
24.359,-11.73
24.375,-15.97
24.390,-20.07
24.406,-23.9
24.421,-27.49
24.437,-30.97
24.453,-34.55
24.468,-38.52
24.484,-42.97
24.500,-47.78
24.515,-52.37
24.531,-55.93
24.546,-57.43
24.562,-56.14
24.578,-51.76
24.593,-44.49
24.609,-35.12
24.625,-24.66
24.640,-14.08
24.656,-4.04
24.671,5.02
24.687,13.04
24.703,19.98
24.718,25.69
24.734,30.13
24.750,33.24
24.765,35.21
24.781,36.35
24.796,37.03
24.812,37.49
24.828,37.71
24.843,37.55
24.859,36.84
24.875,35.52
24.890,33.74
24.906,31.82
24.921,30.08
24.937,28.71
24.953,27.71
24.968,26.93
24.984,26.12
25.000,25.11
25.015,23.78
25.031,22.08
25.046,20.1
25.062,17.93
25.078,15.73
25.093,13.63
25.109,11.66
25.125,9.75
25.140,7.76
25.156,5.53
25.171,2.83
25.187,-0.38
25.203,-4.1
25.218,-8.17
25.234,-12.27
25.250,-16.15
25.265,-19.63
25.281,-22.62
25.296,-25.22
25.312,-27.63
25.328,-30.08
25.343,-32.85
25.359,-36.15
25.375,-39.87
25.390,-43.59
25.406,-46.53
25.421,-47.69
25.437,-46.28
25.453,-41.94
25.468,-35.0
25.484,-26.33
25.500,-17.06
25.515,-8.11
25.531,-0.04
25.546,6.96
25.562,13.01
25.578,18.19
25.593,22.59
25.609,26.26
25.625,29.14
25.640,31.25
25.656,32.69
25.671,33.53
25.687,33.81
25.703,33.6
25.718,32.84
25.734,31.45
25.750,29.51
25.765,27.15
25.781,24.7
25.796,22.51
25.812,20.83
25.828,19.68
25.843,19.07
25.859,18.81
25.875,18.65
25.890,18.43
25.906,17.9
25.921,16.96
25.937,15.53
25.953,13.64
25.968,11.33
25.984,8.75
26.000,6.03
26.015,3.19
26.031,0.24
26.046,-2.89
26.062,-6.11
26.078,-9.37
26.093,-12.56
26.109,-15.51
26.125,-18.25
26.140,-20.84
26.156,-23.45
26.171,-26.21
26.187,-29.39
26.203,-32.98
26.218,-37.02
26.234,-41.28
26.250,-45.31
26.265,-48.48
26.281,-50.05
26.296,-49.41
26.312,-46.17
26.328,-40.47
26.343,-32.72
26.359,-23.71
26.375,-14.23
26.390,-5.02
26.406,3.38
26.421,10.73
26.437,16.76
26.453,21.53
26.468,25.14
26.484,27.78
26.500,29.64
26.515,30.91
26.531,31.58
26.546,31.55
26.562,30.79
26.578,29.26
26.593,27.06
26.609,24.47
26.625,21.76
26.640,19.18
26.656,16.98
26.671,15.28
26.687,14.1
26.703,13.43
26.718,13.16
26.734,13.04
26.750,12.85
26.765,12.18
26.781,10.87
26.796,8.89
26.812,6.41
26.828,3.7
26.843,1.01
26.859,-1.65
26.875,-4.34
26.890,-7.24
26.906,-10.55
26.921,-14.18
26.937,-17.89
26.953,-21.45
26.968,-24.63
26.984,-27.43
27.000,-30.13
27.015,-32.98
27.031,-36.33
27.046,-40.31
27.062,-44.84
27.078,-49.48
27.093,-53.61
27.109,-56.3
27.125,-56.73
27.140,-54.36
27.156,-49.05
27.171,-41.26
27.187,-31.78
27.203,-21.61
27.218,-11.59
27.234,-2.36
27.250,5.87
27.265,12.93
27.281,18.76
27.296,23.31
27.312,26.54
27.328,28.65
27.343,29.96
27.359,30.84
27.375,31.5
27.390,31.98
27.406,32.11
27.421,31.63
27.437,30.48
27.453,28.67
27.468,26.51
27.484,24.33
27.500,22.43
27.515,21.02
27.531,20.02
27.546,19.31
27.562,18.56
27.578,17.61
27.593,16.28
27.609,14.65
27.625,12.92
27.640,11.26
27.656,9.73
27.671,8.28
27.687,6.8
27.703,5.1
27.718,3.03
27.734,0.49
27.750,-2.51
27.765,-5.95
27.781,-9.69
27.796,-13.59
27.812,-17.54
27.828,-21.45
27.843,-25.4
27.859,-29.6
27.875,-34.23
27.890,-39.42
27.906,-45.12
27.921,-50.98
27.937,-56.32
27.953,-60.27
27.968,-61.82
27.984,-60.3
28.000,-55.48
28.015,-47.63
28.031,-37.62
28.046,-26.53
28.062,-15.42
28.078,-5.12
28.093,3.83
28.109,11.32
28.125,17.41
28.140,22.38
28.156,26.48
28.171,29.8
28.187,32.42
28.203,34.33
28.218,35.5
28.234,35.93
28.250,35.71
28.265,34.79
28.281,33.31
28.296,31.39
28.312,29.13
28.328,26.82
28.343,24.8
28.359,23.4
28.375,22.67
28.390,22.53
28.406,22.53
28.421,22.29
28.437,21.57
28.453,20.37
28.468,18.9
28.484,17.36
28.500,15.88
28.515,14.36
28.531,12.62
28.546,10.39
28.562,7.56
28.578,4.22
28.593,0.5
28.609,-3.32
28.625,-7.1
28.640,-10.62
28.656,-13.81
28.671,-16.63
28.687,-19.22
28.703,-21.81
28.718,-24.68
28.734,-28.19
28.750,-32.4
28.765,-37.38
28.781,-42.92
28.796,-48.59
28.812,-53.63
28.828,-57.07
28.843,-57.98
28.859,-55.69
28.875,-50.17
28.890,-41.86
28.906,-31.69
28.921,-20.78
28.937,-10.12
28.953,-0.41
28.968,8.01
28.984,15.0
29.000,20.66
29.015,25.07
29.031,28.58
29.046,31.42
29.062,33.79
29.078,35.78
29.093,37.28
29.109,38.29
29.125,38.64
29.140,38.49
29.156,37.79
29.171,36.8
29.187,35.59
29.203,34.2
29.218,32.8
29.234,31.38
29.250,30.06
29.265,28.8
29.281,27.72
29.296,26.63
29.312,25.54
29.328,24.3
29.343,22.75
29.359,20.99
29.375,19.03
29.390,17.01
29.406,14.93
29.421,12.77
29.437,10.3
29.453,7.31
29.468,3.66
29.484,-0.69
29.500,-5.33
29.515,-9.88
29.531,-13.88
29.546,-17.15
29.562,-19.87
29.578,-22.45
29.593,-25.36
29.609,-28.94
29.625,-33.34
29.640,-38.23
29.656,-43.23
29.671,-47.78
29.687,-51.17
29.703,-52.82
29.718,-52.17
29.734,-48.88
29.750,-43.0
29.765,-35.07
29.781,-25.81
29.796,-16.23
29.812,-7.17
29.828,0.93
29.843,7.84
29.859,13.68
29.875,18.5
29.890,22.37
29.906,25.27
29.921,27.28
29.937,28.5
29.953,29.21
29.968,29.71
29.984,30.11
30.000,30.42
30.015,30.46
30.031,30.1
30.046,29.28
30.062,28.08
30.078,26.64
30.093,25.17
30.109,23.87
30.125,22.81
30.140,21.92
30.156,21.09
30.171,20.1
30.187,18.81
30.203,17.1
30.218,15.11
30.234,13.04
30.250,11.04
30.265,9.23
30.281,7.47
30.296,5.56
30.312,3.23
30.328,0.38
30.343,-3.05
30.359,-6.85
30.375,-10.76
30.390,-14.48
30.406,-17.9
30.421,-20.99
30.437,-23.93
30.453,-27.03
30.468,-30.55
30.484,-34.79
30.500,-39.7
30.515,-44.99
30.531,-50.03
30.546,-54.02
30.562,-56.18
30.578,-55.82
30.593,-52.67
30.609,-46.81
30.625,-38.71
30.640,-29.11
30.656,-18.91
30.671,-8.97
30.687,0.1
30.703,7.87
30.718,14.3
30.734,19.58
30.750,23.9
30.765,27.39
30.781,30.07
30.796,31.87
30.812,32.81
30.828,33.01
30.843,32.64
30.859,31.78
30.875,30.46
30.890,28.58
30.906,26.13
30.921,23.24
30.937,20.29
30.953,17.73
30.968,15.93
30.984,14.9
31.000,14.38
31.015,13.93
31.031,13.2
31.046,12.07
31.062,10.62
31.078,9.07
31.093,7.54
31.109,6.11
31.125,4.6
31.140,2.79
31.156,0.48
31.171,-2.32
31.187,-5.49
31.203,-8.94
31.218,-12.53
31.234,-16.27
31.250,-20.18
31.265,-24.34
31.281,-28.63
31.296,-33.08
31.312,-37.64
31.328,-42.36
31.343,-47.2
31.359,-51.99
31.375,-56.17
31.390,-58.9
31.406,-59.37
31.421,-56.94
31.437,-51.62
31.453,-43.78
31.468,-34.27
31.484,-24.0
31.500,-13.69
31.515,-3.87
31.531,5.08
31.546,12.94
31.562,19.62
31.578,25.01
31.593,29.11
31.609,32.14
31.625,34.19
31.640,35.51
31.656,36.21
31.671,36.37
31.687,35.96
31.703,34.99
31.718,33.57
31.734,31.81
31.750,29.94
31.765,28.04
31.781,26.35
31.796,24.9
31.812,23.75
31.828,22.87
31.843,22.16
31.859,21.45
31.875,20.52
31.890,19.22
31.906,17.45
31.921,15.29
31.937,12.69
31.953,9.73
31.968,6.43
31.984,2.72
32.000,-1.4
32.015,-5.86
32.031,-10.41
32.046,-14.86
32.062,-18.89
32.078,-22.42
32.093,-25.52
32.109,-28.24
32.125,-30.75
32.140,-33.24
32.156,-35.95
32.171,-38.99
32.187,-42.47
32.203,-46.25
32.218,-49.9
32.234,-52.68
32.250,-53.73
32.265,-52.38
32.281,-48.27
32.296,-41.65
32.312,-33.17
32.328,-23.74
32.343,-14.19
32.359,-5.12
32.375,3.21
32.390,10.73
32.406,17.37
32.421,23.12
32.437,27.87
32.453,31.56
32.468,34.27
32.484,36.13
32.500,37.34
32.515,38.13
32.531,38.53
32.546,38.45
32.562,37.83
32.578,36.59
32.593,34.83
32.609,32.74
32.625,30.6
32.640,28.6
32.656,26.82
32.671,25.33
32.687,23.98
32.703,22.74
32.718,21.5
32.734,20.21
32.750,18.78
32.765,17.18
32.781,15.43
32.796,13.48
32.812,11.43
32.828,9.23
32.843,6.83
32.859,4.11
32.875,0.97
32.890,-2.6
32.906,-6.45
32.921,-10.38
32.937,-14.25
32.953,-18.04
32.968,-21.88
32.984,-25.98
33.000,-30.5
33.015,-35.51
33.031,-40.89
33.046,-46.41
33.062,-51.6
33.078,-55.8
33.093,-58.24
33.109,-58.27
33.125,-55.42
33.140,-49.58
33.156,-41.19
33.171,-31.05
33.187,-20.17
33.203,-9.56
33.218,0.1
33.234,8.44
33.250,15.36
33.265,20.93
33.281,25.43
33.296,29.07
33.312,32.01
33.328,34.37
33.343,36.13
33.359,37.31
33.375,37.91
33.390,37.94
33.406,37.35
33.421,36.31
33.437,34.91
33.453,33.33
33.468,31.82
33.484,30.51
33.500,29.56
33.515,28.96
33.531,28.69
33.546,28.55
33.562,28.33
33.578,27.82
33.593,26.78
33.609,25.13
33.625,22.81
33.640,20.04
33.656,17.01
33.671,14.01
33.687,11.21
33.703,8.51
33.718,5.72
33.734,2.55
33.750,-1.11
33.765,-5.22
33.781,-9.52
33.796,-13.69
33.812,-17.5
33.828,-20.88
33.843,-23.98
33.859,-27.08
33.875,-30.55
33.890,-34.48
33.906,-38.99
33.921,-43.76
33.937,-48.33
33.953,-52.02
33.968,-54.04
33.984,-53.7
34.000,-50.55
34.015,-44.66
34.031,-36.39
34.046,-26.62
34.062,-16.27
34.078,-6.23
34.093,2.87
34.109,10.75
34.125,17.22
34.140,22.4
34.156,26.26
34.171,29.02
34.187,30.89
34.203,32.15
34.218,33.11
34.234,33.93
34.250,34.62
34.265,34.97
34.281,34.85
34.296,34.01
34.312,32.68
34.328,31.04
34.343,29.31
34.359,27.7
34.375,26.27
34.390,24.99
34.406,23.65
34.421,22.3
34.437,20.81
34.453,19.21
34.468,17.5
34.484,15.58
34.500,13.43
34.515,11.05
34.531,8.56
34.546,6.0
34.562,3.41
34.578,0.77
34.593,-2.03
34.609,-5.0
34.625,-8.18
34.640,-11.44
34.656,-14.72
34.671,-17.91
34.687,-20.97
34.703,-24.03
34.718,-27.23
34.734,-30.81
34.750,-34.87
34.765,-39.47
34.781,-44.22
34.796,-48.75
34.812,-52.35
34.828,-54.18
34.843,-53.7
34.859,-50.56
34.875,-44.81
34.890,-36.82
34.906,-27.44
34.921,-17.39
34.937,-7.52
34.953,1.49
34.968,9.26
34.984,15.6
35.000,20.53
35.015,24.27
35.031,27.04
35.046,29.06
35.062,30.55
35.078,31.62
35.093,32.27
35.109,32.56
35.125,32.47
35.140,31.97
35.156,31.1
35.171,29.87
35.187,28.28
35.203,26.45
35.218,24.58
35.234,22.83
35.250,21.38
35.265,20.21
35.281,19.11
35.296,17.72
35.312,15.84
35.328,13.44
35.343,10.69
35.359,7.87
35.375,5.22
35.390,2.9
35.406,0.78
35.421,-1.4
35.437,-3.91
35.453,-6.88
35.468,-10.27
35.484,-13.92
35.500,-17.69
35.515,-21.4
35.531,-24.93
35.546,-28.36
35.562,-31.81
35.578,-35.45
35.593,-39.41
35.609,-43.79
35.625,-48.46
35.640,-53.19
35.656,-57.33
35.671,-60.01
35.687,-60.37
35.703,-57.74
35.718,-52.0
35.734,-43.54
35.750,-33.32
35.765,-22.33
35.781,-11.53
35.796,-1.62
35.812,7.09
35.828,14.46
35.843,20.55
35.859,25.39
35.875,29.16
35.890,32.03
35.906,34.26
35.921,36.04
35.937,37.34
35.953,38.05
35.968,37.95
35.984,37.08
36.000,35.52
36.015,33.57
36.031,31.58
36.046,29.73
36.062,28.15
36.078,26.76
36.093,25.46
36.109,24.09
36.125,22.73
36.140,21.28
36.156,19.71
36.171,17.89
36.187,15.71
36.203,13.2
36.218,10.51
36.234,7.85
36.250,5.26
36.265,2.81
36.281,0.24
36.296,-2.7
36.312,-6.12
36.328,-10.05
36.343,-14.28
36.359,-18.57
36.375,-22.69
36.390,-26.7
36.406,-30.54
36.421,-34.45
36.437,-38.57
36.453,-42.87
36.468,-47.34
36.484,-51.69
36.500,-55.38
36.515,-57.65
36.531,-57.88
36.546,-55.45
36.562,-50.34
36.578,-42.92
36.593,-33.75
36.609,-23.74
36.625,-13.7
36.640,-4.24
36.656,4.33
36.671,11.81
36.687,18.32
36.703,23.83
36.718,28.31
36.734,31.8
36.750,34.24
36.765,35.82
36.781,36.69
36.796,36.98
36.812,36.79
36.828,36.27
36.843,35.48
36.859,34.49
36.875,33.46
36.890,32.33
36.906,31.24
36.921,30.28
36.937,29.37
36.953,28.52
36.968,27.63
36.984,26.61
37.000,25.29
37.015,23.6
37.031,21.51
37.046,19.13
37.062,16.67
37.078,14.23
37.093,11.94
37.109,9.77
37.125,7.7
37.140,5.45
37.156,2.75
37.171,-0.62
37.187,-4.72
37.203,-9.31
37.218,-14.05
37.234,-18.59
37.250,-22.87
37.265,-26.86
37.281,-30.7
37.296,-34.55
37.312,-38.53
37.328,-42.66
37.343,-46.94
37.359,-51.11
37.375,-54.66
37.390,-56.92
37.406,-57.12
37.421,-54.73
37.437,-49.73
37.453,-42.5
37.468,-33.77
37.484,-24.38
37.500,-14.98
37.515,-6.02
37.531,2.23
37.546,9.61
37.562,16.07
37.578,21.53
37.593,25.98
37.609,29.5
37.625,32.18
37.640,34.2
37.656,35.65
37.671,36.65
37.687,37.23
37.703,37.25
37.718,36.65
37.734,35.39
37.750,33.42
37.765,30.88
37.781,28.12
37.796,25.44
37.812,23.23
37.828,21.66
37.843,20.66
37.859,19.99
37.875,19.4
37.890,18.59
37.906,17.41
37.921,15.89
37.937,14.07
37.953,12.14
37.968,10.15
37.984,8.11
38.000,5.94
38.015,3.52
38.031,0.77
38.046,-2.33
38.062,-5.69
38.078,-9.19
38.093,-12.72
38.109,-16.17
38.125,-19.59
38.140,-23.03
38.156,-26.6
38.171,-30.39
38.187,-34.33
38.203,-38.47
38.218,-42.66
38.234,-46.59
38.250,-49.69
38.265,-51.27
38.281,-50.63
38.296,-47.43
38.312,-41.8
38.328,-34.17
38.343,-25.43
38.359,-16.4
38.375,-7.67
38.390,0.48
38.406,7.99
38.421,14.88
38.437,21.06
38.453,26.36
38.468,30.63
38.484,33.7
38.500,35.64
38.515,36.69
38.531,37.13
38.546,37.2
38.562,36.94
38.578,36.25
38.593,34.94
38.609,33.02
38.625,30.61
38.640,28.08
38.656,25.83
38.671,24.14
38.687,23.17
38.703,22.8
38.718,22.78
38.734,22.72
38.750,22.31
38.765,21.27
38.781,19.56
38.796,17.29
38.812,14.62
38.828,11.91
38.843,9.19
38.859,6.43
38.875,3.47
38.890,0.15
38.906,-3.56
38.921,-7.53
38.937,-11.48
38.953,-15.31
38.968,-18.8
38.984,-21.94
39.000,-24.85
39.015,-27.61
39.031,-30.47
39.046,-33.57
39.062,-37.04
39.078,-40.83
39.093,-44.77
39.109,-48.42
39.125,-51.19
39.140,-52.46
39.156,-51.55
39.171,-48.16
39.187,-42.3
39.203,-34.43
39.218,-25.32
39.234,-15.86
39.250,-6.73
39.265,1.61
39.281,8.87
39.296,15.11
39.312,20.29
39.328,24.44
39.343,27.64
39.359,29.96
39.375,31.53
39.390,32.56
39.406,33.14
39.421,33.18
39.437,32.73
39.453,31.72
39.468,30.2
39.484,28.38
39.500,26.47
39.515,24.7
39.531,23.19
39.546,22.02
39.562,21.02
39.578,20.13
39.593,19.15
39.609,17.95
39.625,16.44
39.640,14.53
39.656,12.21
39.671,9.46
39.687,6.4
39.703,3.11
39.718,-0.24
39.734,-3.59
39.750,-6.88
39.765,-10.09
39.781,-13.16
39.796,-16.14
39.812,-19.05
39.828,-21.96
39.843,-24.94
39.859,-28.0
39.875,-31.21
39.890,-34.66
39.906,-38.45
39.921,-42.64
39.937,-47.09
39.953,-51.31
39.968,-54.64
39.984,-56.36
40.000,-55.81
40.015,-52.73
40.031,-47.3
40.046,-39.95
40.062,-31.4
40.078,-22.4
40.093,-13.54
40.109,-5.18
40.125,2.42
40.140,9.24
40.156,15.29
40.171,20.52
40.187,24.96
40.203,28.58
40.218,31.38
40.234,33.32
40.250,34.49
40.265,34.84
40.281,34.48
40.296,33.42
40.312,31.71
40.328,29.5
40.343,26.96
40.359,24.38
40.375,22.05
40.390,20.17
40.406,18.82
40.421,17.91
40.437,17.23
40.453,16.62
40.468,15.9
40.484,14.88
40.500,13.4
40.515,11.4
40.531,8.83
40.546,5.76
40.562,2.43
40.578,-1.02
40.593,-4.43
40.609,-7.77
40.625,-11.16
40.640,-14.71
40.656,-18.39
40.671,-22.12
40.687,-25.85
40.703,-29.55
40.718,-33.38
40.734,-37.57
40.750,-42.29
40.765,-47.48
40.781,-52.68
40.796,-57.07
40.812,-59.61
40.828,-59.48
40.843,-56.26
40.859,-50.16
40.875,-41.77
40.890,-32.05
40.906,-21.89
40.921,-11.97
40.937,-2.82
40.953,5.36
40.968,12.48
40.984,18.59
41.000,23.71
41.015,27.97
41.031,31.45
41.046,34.2
41.062,36.29
41.078,37.64
41.093,38.26
41.109,38.11
41.125,37.3
41.140,35.85
41.156,34.03
41.171,32.12
41.187,30.35
41.203,28.94
41.218,27.83
41.234,27.05
41.250,26.45
41.265,25.96
41.281,25.32
41.296,24.4
41.312,23.05
41.328,21.14
41.343,18.76
41.359,15.93
41.375,12.82
41.390,9.52
41.406,6.03
41.421,2.31
41.437,-1.75
41.453,-6.1
41.468,-10.64
41.484,-15.12
41.500,-19.34
41.515,-23.1
41.531,-26.41
41.546,-29.4
41.562,-32.24
41.578,-35.37
41.593,-39.03
41.609,-43.35
41.625,-48.06
41.640,-52.65
41.656,-56.31
41.671,-58.08
41.687,-57.28
41.703,-53.39
41.718,-46.6
41.734,-37.55
41.750,-27.21
41.765,-16.56
41.781,-6.47
41.796,2.57
41.812,10.48
41.828,17.27
41.843,23.17
41.859,28.28
41.875,32.62
41.890,36.17
41.906,38.75
41.921,40.29
41.937,40.78
41.953,40.41
41.968,39.33
41.984,37.77
42.000,35.92
42.015,33.89
42.031,31.88
42.046,29.96
42.062,28.23
42.078,26.81
42.093,25.74
42.109,24.89
42.125,24.15
42.140,23.35
42.156,22.29
42.171,20.97
42.187,19.36
42.203,17.4
42.218,15.16
42.234,12.65
42.250,9.85
42.265,6.68
42.281,3.12
42.296,-0.9
42.312,-5.22
42.328,-9.63
42.343,-13.94
42.359,-17.96
42.375,-21.65
42.390,-25.05
42.406,-28.27
42.421,-31.45
42.437,-34.8
42.453,-38.42
42.468,-42.45
42.484,-46.74
42.500,-50.87
42.515,-54.21
42.531,-55.87
42.546,-55.07
42.562,-51.34
42.578,-44.76
42.593,-35.82
42.609,-25.46
42.625,-14.58
42.640,-3.98
42.656,5.76
42.671,14.32
42.687,21.56
42.703,27.51
42.718,32.22
42.734,35.87
42.750,38.66
42.765,40.75
42.781,42.21
42.796,42.99
42.812,42.96
42.828,42.06
42.843,40.34
42.859,37.94
42.875,35.12
42.890,32.24
42.906,29.51
42.921,27.16
42.937,25.31
42.953,24.0
42.968,23.05
42.984,22.24
43.000,21.37
43.015,20.25
43.031,18.89
43.046,17.36
43.062,15.73
43.078,14.03
43.093,12.19
43.109,10.05
43.125,7.52
43.140,4.57
43.156,1.32
43.171,-2.04
43.187,-5.34
43.203,-8.42
43.218,-11.34
43.234,-14.3
43.250,-17.49
43.265,-21.11
43.281,-25.26
43.296,-29.91
43.312,-35.04
43.328,-40.46
43.343,-45.73
43.359,-50.18
43.375,-53.05
43.390,-53.47
43.406,-50.99
43.421,-45.64
43.437,-37.93
43.453,-28.77
43.468,-19.18
43.484,-9.91
43.500,-1.38
43.515,6.22
43.531,12.86
43.546,18.5
43.562,23.15
43.578,26.78
43.593,29.54
43.609,31.48
43.625,32.73
43.640,33.32
43.656,33.35
43.671,32.83
43.687,31.74
43.703,30.25
43.718,28.45
43.734,26.55
43.750,24.68
43.765,22.97
43.781,21.49
43.796,20.34
43.812,19.46
43.828,18.7
43.843,17.86
43.859,16.71
43.875,15.15
43.890,13.21
43.906,11.04
43.921,8.86
43.937,6.78
43.953,4.8
43.968,2.64
43.984,0.03
44.000,-3.25
44.015,-7.14
44.031,-11.47
44.046,-15.9
44.062,-20.15
44.078,-24.17
44.093,-27.98
44.109,-31.7
44.125,-35.48
44.140,-39.41
44.156,-43.43
44.171,-47.4
44.187,-50.9
44.203,-53.23
44.218,-53.65
44.234,-51.46
44.250,-46.46
44.265,-38.93
44.281,-29.71
44.296,-19.84
44.312,-10.4
44.328,-1.95
44.343,5.21
44.359,11.1
44.375,15.93
44.390,19.84
44.406,22.92
44.421,25.23
44.437,26.88
44.453,27.9
44.468,28.51
44.484,28.69
44.500,28.41
44.515,27.68
44.531,26.46
44.546,24.85
44.562,23.07
44.578,21.36
44.593,19.88
44.609,18.77
44.625,17.96
44.640,17.31
44.656,16.68
44.671,15.89
44.687,14.85
44.703,13.42
44.718,11.64
44.734,9.5
44.750,7.01
44.765,4.19
44.781,1.06
44.796,-2.31
44.812,-5.89
44.828,-9.39
44.843,-12.7
44.859,-15.68
44.875,-18.36
44.890,-20.86
44.906,-23.41
44.921,-26.27
44.937,-29.66
44.953,-33.76
44.968,-38.48
44.984,-43.62
45.000,-48.78
45.015,-53.42
45.031,-56.88
45.046,-58.46
45.062,-57.52
45.078,-53.61
45.093,-46.88
45.109,-37.82
45.125,-27.46
45.140,-16.85
45.156,-6.97
45.171,1.61
45.187,8.73
45.203,14.57
45.218,19.49
45.234,23.67
45.250,27.29
45.265,30.3
45.281,32.75
45.296,34.61
45.312,35.89
45.328,36.64
45.343,36.83
45.359,36.62
45.375,35.9
45.390,34.78
45.406,33.35
45.421,31.82
45.437,30.29
45.453,28.85
45.468,27.44
45.484,25.83
45.500,24.01
45.515,21.81
45.531,19.32
45.546,16.74
45.562,14.25
45.578,12.02
45.593,10.09
45.609,8.38
45.625,6.57
45.640,4.42
45.656,1.64
45.671,-1.85
45.687,-5.92
45.703,-10.42
45.718,-15.03
45.734,-19.46
45.750,-23.52
45.765,-27.26
45.781,-30.79
45.796,-34.46
45.812,-38.51
45.828,-42.98
45.843,-47.84
45.859,-52.61
45.875,-56.62
45.890,-59.06
45.906,-59.16
45.921,-56.27
45.937,-50.37
45.953,-41.88
45.968,-31.58
45.984,-20.69
46.000,-10.09
46.015,-0.52
46.031,7.61
46.046,14.32
46.062,19.84
46.078,24.28
46.093,27.89
46.109,30.86
46.125,33.19
46.140,35.01
46.156,36.26
46.171,36.87
46.187,36.74
46.203,35.94
46.218,34.42
46.234,32.43
46.250,30.3
46.265,28.24
46.281,26.57
46.296,25.42
46.312,24.71
46.328,24.36
46.343,24.13
46.359,23.74
46.375,23.04
46.390,21.94
46.406,20.31
46.421,18.26
46.437,15.95
46.453,13.49
46.468,11.08
46.484,8.65
46.500,6.11
46.515,3.32
46.531,0.2
46.546,-3.35
46.562,-7.09
46.578,-10.93
46.593,-14.73
46.609,-18.4
46.625,-22.04
46.640,-25.75
46.656,-29.8
46.671,-34.29
46.687,-39.34
46.703,-44.69
46.718,-50.02
46.734,-54.7
46.750,-57.85
46.765,-58.67
46.781,-56.5
46.796,-51.15
46.812,-43.07
46.828,-33.09
46.843,-22.29
46.859,-11.68
46.875,-1.97
46.890,6.63
46.906,14.12
46.921,20.6
46.937,26.15
46.953,30.71
46.968,34.19
46.984,36.67
47.000,38.32
47.015,39.3
47.031,39.83
47.046,39.91
47.062,39.43
47.078,38.28
47.093,36.52
47.109,34.31
47.125,32.0
47.140,29.88
47.156,28.2
47.171,26.97
47.187,26.11
47.203,25.43
47.218,24.7
47.234,23.74
47.250,22.54
47.265,21.09
47.281,19.33
47.296,17.33
47.312,15.04
47.328,12.55
47.343,9.9
47.359,7.1
47.375,4.08
47.390,0.79
47.406,-2.8
47.421,-6.67
47.437,-10.71
47.453,-14.79
47.468,-18.85
47.484,-22.76
47.500,-26.52
47.515,-30.13
47.531,-33.76
47.546,-37.49
47.562,-41.38
47.578,-45.29
47.593,-48.82
47.609,-51.45
47.625,-52.47
47.640,-51.34
47.656,-47.72
47.671,-41.77
47.687,-33.86
47.703,-24.69
47.718,-14.93
47.734,-5.27
47.750,3.77
47.765,11.86
47.781,18.81
47.796,24.57
47.812,29.07
47.828,32.38
47.843,34.57
47.859,35.84
47.875,36.39
47.890,36.33
47.906,35.7
47.921,34.45
47.937,32.63
47.953,30.31
47.968,27.77
47.984,25.28
48.000,23.08
48.015,21.39
48.031,20.23
48.046,19.52
48.062,19.04
48.078,18.57
48.093,17.87
48.109,16.84
48.125,15.34
48.140,13.36
48.156,10.99
48.171,8.42
48.187,5.82
48.203,3.27
48.218,0.74
48.234,-2.05
48.250,-5.14
48.265,-8.53
48.281,-12.05
48.296,-15.51
48.312,-18.86
48.328,-22.09
48.343,-25.46
48.359,-29.03
48.375,-32.94
48.390,-37.07
48.406,-41.26
48.421,-45.33
48.437,-48.96
48.453,-51.75
48.468,-53.08
48.484,-52.37
48.500,-49.14
48.515,-43.35
48.531,-35.4
48.546,-26.17
48.562,-16.58
48.578,-7.42
48.593,0.75
48.609,7.75
48.625,13.61
48.640,18.42
48.656,22.27
48.671,25.32
48.687,27.58
48.703,29.13
48.718,30.14
48.734,30.63
48.750,30.62
48.765,30.05
48.781,28.91
48.796,27.26
48.812,25.32
48.828,23.35
48.843,21.45
48.859,19.74
48.875,18.2
48.890,16.74
48.906,15.34
48.921,13.9
48.937,12.34
48.953,10.59
48.968,8.68
48.984,6.65
49.000,4.65
49.015,2.75
49.031,0.98
49.046,-0.82
49.062,-2.86
49.078,-5.41
49.093,-8.53
49.109,-12.16
49.125,-15.97
49.140,-19.72
49.156,-23.33
49.171,-26.91
49.187,-30.75
49.203,-35.2
49.218,-40.5
49.234,-46.48
49.250,-52.58
49.265,-57.9
49.281,-61.41
49.296,-62.22
49.312,-59.81
49.328,-54.21
49.343,-45.86
49.359,-35.66
49.375,-24.71
49.390,-13.87
49.406,-3.83
49.421,5.14
49.437,12.92
49.453,19.53
49.468,24.97
49.484,29.29
49.500,32.52
49.515,34.68
49.531,35.89
49.546,36.27
49.562,36.08
49.578,35.38
49.593,34.28
49.609,32.74
49.625,30.81
49.640,28.63
49.656,26.43
49.671,24.48
49.687,22.97
49.703,22.0
49.718,21.47
49.734,21.07
49.750,20.44
49.765,19.3
49.781,17.54
49.796,15.31
49.812,12.92
49.828,10.55
49.843,8.27
49.859,6.07
49.875,3.66
49.890,0.91
49.906,-2.28
49.921,-5.87
49.937,-9.64
49.953,-13.4
49.968,-17.15
49.984,-20.96
50.000,-24.81
50.015,-28.9
50.031,-33.28
50.046,-38.03
50.062,-43.18
50.078,-48.51
50.093,-53.51
50.109,-57.45
50.125,-59.5
50.140,-58.84
50.156,-55.15
50.171,-48.5
50.187,-39.56
50.203,-29.3
50.218,-18.69
50.234,-8.43
50.250,1.01
50.265,9.36
50.281,16.55
50.296,22.4
50.312,26.97
50.328,30.41
50.343,32.91
50.359,34.75
50.375,36.17
50.390,37.22
50.406,37.8
50.421,37.7
50.437,36.75
50.453,35.02
50.468,32.72
50.484,30.14
50.500,27.67
50.515,25.55
50.531,23.96
50.546,22.91
50.562,22.22
50.578,21.61
50.593,20.93
50.609,20.0
50.625,18.73
50.640,17.08
50.656,14.99
50.671,12.52
50.687,9.64
50.703,6.41
50.718,2.8
50.734,-1.02
50.750,-4.97
50.765,-8.98
50.781,-12.98
50.796,-16.93
50.812,-20.75
50.828,-24.42
50.843,-27.87
50.859,-31.33
50.875,-34.94
50.890,-38.92
50.906,-43.42
50.921,-48.24
50.937,-52.91
50.953,-56.54
50.968,-58.24
50.984,-57.13
51.000,-52.87
51.015,-45.71
51.031,-36.4
51.046,-25.94
51.062,-15.35
51.078,-5.45
51.093,3.39
51.109,11.0
51.125,17.52
51.140,23.12
51.156,27.9
51.171,31.97
51.187,35.38
51.203,38.17
51.218,40.2
51.234,41.49
51.250,41.94
51.265,41.58
51.281,40.45
51.296,38.64
51.312,36.37
51.328,33.94
51.343,31.68
51.359,29.75
51.375,28.3
51.390,27.21
51.406,26.36
51.421,25.5
51.437,24.42
51.453,23.02
51.468,21.28
51.484,19.31
51.500,17.19
51.515,14.99
51.531,12.62
51.546,9.89
51.562,6.65
51.578,2.8
51.593,-1.57
51.609,-6.19
51.625,-10.78
51.640,-15.14
51.656,-19.16
51.671,-22.97
51.687,-26.77
51.703,-30.84
51.718,-35.32
51.734,-40.23
51.750,-45.43
51.765,-50.47
51.781,-54.74
51.796,-57.38
51.812,-57.67
51.828,-55.0
51.843,-49.25
51.859,-40.87
51.875,-30.67
51.890,-19.77
51.906,-9.26
51.921,0.1
51.937,8.03
51.953,14.45
51.968,19.7
51.984,24.2
52.000,28.12
52.015,31.56
52.031,34.51
52.046,36.88
52.062,38.49
52.078,39.33
52.093,39.23
52.109,38.26
52.125,36.64
52.140,34.47
52.156,32.05
52.171,29.49
52.187,26.98
52.203,24.64
52.218,22.6
52.234,20.89
52.250,19.45
52.265,18.27
52.281,17.1
52.296,15.87
52.312,14.44
52.328,12.71
52.343,10.66
52.359,8.29
52.375,5.51
52.390,2.29
52.406,-1.35
52.421,-5.44
52.437,-9.72
52.453,-13.99
52.468,-18.06
52.484,-21.76
52.500,-25.05
52.515,-28.17
52.531,-31.47
52.546,-35.19
52.562,-39.57
52.578,-44.36
52.593,-49.1
52.609,-53.16
52.625,-55.75
52.640,-56.11
52.656,-53.7
52.671,-48.35
52.687,-40.33
52.703,-30.45
52.718,-19.67
52.734,-9.04
52.750,0.62
52.765,8.91
52.781,15.73
52.796,21.19
52.812,25.55
52.828,29.02
52.843,31.62
52.859,33.55
52.875,34.97
52.890,35.94
52.906,36.51
52.921,36.65
52.937,36.19
52.953,35.08
52.968,33.44
52.984,31.37
53.000,29.17
53.015,27.03
53.031,25.02
53.046,23.16
53.062,21.41
53.078,19.58
53.093,17.63
53.109,15.55
53.125,13.23
53.140,10.7
53.156,7.92
53.171,4.82
53.187,1.5
53.203,-1.98
53.218,-5.57
53.234,-9.19
53.250,-12.74
53.265,-16.27
53.281,-19.71
53.296,-23.13
53.312,-26.61
53.328,-30.19
53.343,-34.01
53.359,-38.32
53.375,-43.19
53.390,-48.49
53.406,-53.89
53.421,-58.53
53.437,-61.48
53.453,-61.77
53.468,-58.79
53.484,-52.44
53.500,-43.35
53.515,-32.48
53.531,-20.97
53.546,-9.89
53.562,0.22
53.578,8.98
53.593,16.35
53.609,22.45
53.625,27.34
53.640,31.09
53.656,33.85
53.671,35.66
53.687,36.55
53.703,36.72
53.718,36.27
53.734,35.29
53.750,33.93
53.765,32.23
53.781,30.26
53.796,28.21
53.812,26.29
53.828,24.63
53.843,23.41
53.859,22.55
53.875,21.84
53.890,21.07
53.906,20.0
53.921,18.56
53.937,16.75
53.953,14.72
53.968,12.47
53.984,10.07
54.000,7.32
54.015,4.07
54.031,0.25
54.046,-4.12
54.062,-8.76
54.078,-13.36
54.093,-17.66
54.109,-21.55
54.125,-25.03
54.140,-28.36
54.156,-31.82
54.171,-35.71
54.187,-40.36
54.203,-45.74
54.218,-51.47
54.234,-56.83
54.250,-60.76
54.265,-62.16
54.281,-60.28
54.296,-54.95
54.312,-46.62
54.328,-36.28
54.343,-24.96
54.359,-13.68
54.375,-3.19
54.390,6.03
54.406,13.83
54.421,20.28
54.437,25.57
54.453,29.89
54.468,33.41
54.484,36.31
54.500,38.68
54.515,40.52
54.531,41.66
54.546,41.97
54.562,41.33
54.578,39.87
54.593,37.75
54.609,35.28
54.625,32.77
54.640,30.42
54.656,28.4
54.671,26.74
54.687,25.39
54.703,24.27
54.718,23.3
54.734,22.29
54.750,21.08
54.765,19.52
54.781,17.6
54.796,15.35
54.812,12.94
54.828,10.36
54.843,7.59
54.859,4.49
54.875,0.95
54.890,-3.02
54.906,-7.4
54.921,-11.97
54.937,-16.49
54.953,-20.72
54.968,-24.67
54.984,-28.49
55.000,-32.55
55.015,-37.12
55.031,-42.3
55.046,-47.97
55.062,-53.63
55.078,-58.47
55.093,-61.51
55.109,-61.81
55.125,-58.72
55.140,-52.16
55.156,-42.7
55.171,-31.33
55.187,-19.37
55.203,-7.92
55.218,2.29
55.234,11.01
55.250,18.33
55.265,24.37
55.281,29.25
55.296,32.96
55.312,35.49
55.328,36.88
55.343,37.46
55.359,37.56
55.375,37.38
55.390,36.98
55.406,36.22
55.421,34.96
55.437,33.13
55.453,30.98
55.468,28.79
55.484,27.05
55.500,26.02
55.515,25.68
55.531,25.81
55.546,25.97
55.562,25.89
55.578,25.25
55.593,24.06
55.609,22.34
55.625,20.24
55.640,17.91
55.656,15.41
55.671,12.81
55.687,9.97
55.703,6.85
55.718,3.27
55.734,-0.71
55.750,-5.0
55.765,-9.35
55.781,-13.54
55.796,-17.39
55.812,-20.88
55.828,-24.29
55.843,-27.93
55.859,-32.1
55.875,-36.91
55.890,-42.27
55.906,-47.7
55.921,-52.42
55.937,-55.51
55.953,-55.96
55.968,-53.25
55.984,-47.33
56.000,-38.76
56.015,-28.44
56.031,-17.44
56.046,-6.71
56.062,3.11
56.078,11.57
56.093,18.59
56.109,24.15
56.125,28.43
56.140,31.6
56.156,33.85
56.171,35.34
56.187,36.19
56.203,36.55
56.218,36.42
56.234,35.93
56.250,35.05
56.265,33.85
56.281,32.3
56.296,30.49
56.312,28.51
56.328,26.53
56.343,24.73
56.359,23.11
56.375,21.73
56.390,20.47
56.406,19.27
56.421,18.03
56.437,16.71
56.453,15.27
56.468,13.7
56.484,12.02
56.500,10.12
56.515,7.89
56.531,5.17
56.546,1.91
56.562,-1.78
56.578,-5.68
56.593,-9.53
56.609,-13.26
56.625,-16.75
56.640,-20.05
56.656,-23.24
56.671,-26.52
56.687,-30.02
56.703,-33.86
56.718,-38.1
56.734,-42.66
56.750,-47.34
56.765,-51.47
56.781,-54.27
56.796,-54.86
56.812,-52.59
56.828,-47.3
56.843,-39.4
56.859,-29.72
56.875,-19.3
56.890,-9.1
56.906,0.32
56.921,8.56
56.937,15.54
56.953,21.17
56.968,25.49
56.984,28.56
57.000,30.6
57.015,31.94
57.031,32.96
57.046,33.84
57.062,34.41
57.078,34.4
57.093,33.46
57.109,31.53
57.125,28.8
57.140,25.74
57.156,22.85
57.171,20.56
57.187,19.08
57.203,18.25
57.218,17.8
57.234,17.34
57.250,16.47
57.265,15.08
57.281,13.18
57.296,10.93
57.312,8.46
57.328,5.94
57.343,3.33
57.359,0.58
57.375,-2.38
57.390,-5.61
57.406,-8.99
57.421,-12.43
57.437,-15.86
57.453,-19.32
57.468,-22.81
57.484,-26.42
57.500,-30.17
57.515,-34.12
57.531,-38.31
57.546,-42.71
57.562,-47.34
57.578,-51.96
57.593,-56.16
57.609,-59.27
57.625,-60.39
57.640,-58.75
57.656,-53.92
57.671,-46.08
57.687,-35.87
57.703,-24.44
57.718,-12.91
57.734,-2.24
57.750,6.9
57.765,14.39
57.781,20.26
57.796,24.88
57.812,28.47
57.828,31.29
57.843,33.42
57.859,35.03
57.875,36.17
57.890,36.86
57.906,37.09
57.921,36.7
57.937,35.66
57.953,33.97
57.968,31.83
57.984,29.51
58.000,27.4
58.015,25.66
58.031,24.38
58.046,23.41
58.062,22.46
58.078,21.23
58.093,19.57
58.109,17.33
58.125,14.65
58.140,11.74
58.156,8.79
58.171,5.98
58.187,3.41
58.203,0.94
58.218,-1.55
58.234,-4.26
58.250,-7.37
58.265,-10.88
58.281,-14.67
58.296,-18.58
58.312,-22.43
58.328,-26.05
58.343,-29.4
58.359,-32.59
58.375,-35.72
58.390,-39.05
58.406,-42.66
58.421,-46.59
58.437,-50.64
58.453,-54.21
58.468,-56.43
58.484,-56.33
58.500,-53.22
58.515,-46.97
58.531,-38.11
58.546,-27.56
58.562,-16.5
58.578,-5.97
58.593,3.42
58.609,11.39
58.625,17.93
58.640,23.15
58.656,27.2
58.671,30.22
58.687,32.43
58.703,34.05
58.718,35.23
58.734,36.04
58.750,36.47
58.765,36.3
58.781,35.37
58.796,33.64
58.812,31.24
58.828,28.46
58.843,25.76
58.859,23.53
58.875,22.04
58.890,21.37
58.906,21.24
58.921,21.27
58.937,21.15
58.953,20.57
58.968,19.43
58.984,17.76
59.000,15.64
59.015,13.15
59.031,10.36
59.046,7.37
59.062,4.27
59.078,1.14
59.093,-1.98
59.109,-5.19
59.125,-8.54
59.140,-12.09
59.156,-15.74
59.171,-19.28
59.187,-22.51
59.203,-25.34
59.218,-27.98
59.234,-30.8
59.250,-34.15
59.265,-38.16
59.281,-42.84
59.296,-47.86
59.312,-52.72
59.328,-56.6
59.343,-58.67
59.359,-58.12
59.375,-54.46
59.390,-47.67
59.406,-38.26
59.421,-27.3
59.437,-15.92
59.453,-5.17
59.468,4.33
59.484,12.37
59.500,18.96
59.515,24.25
59.531,28.32
59.546,31.24
59.562,33.18
59.578,34.26
59.593,34.74
59.609,34.85
59.625,34.71
59.640,34.34
59.656,33.72
59.671,32.77
59.687,31.44
59.703,29.97
59.718,28.52
59.734,27.29
59.750,26.28
59.765,25.37
59.781,24.31
59.796,22.94
59.812,21.17
59.828,19.04
59.843,16.73
59.859,14.33
59.875,12.0
59.890,9.81
59.906,7.71
59.921,5.73
59.937,3.9
59.953,2.11
59.968,0.29
59.984,-1.66
