timestamp,value
00.000,-16.78
00.015,-11.24
00.031,-5.31
00.046,-0.05
00.062,3.39
00.078,4.28
00.093,2.82
00.109,-0.05
00.125,-2.93
00.140,-4.7
00.156,-4.91
00.171,-3.99
00.187,-2.83
00.203,-2.21
00.218,-2.45
00.234,-3.14
00.250,-3.44
00.265,-2.55
00.281,-0.32
00.296,2.62
00.312,5.23
00.328,6.49
00.343,6.06
00.359,4.29
00.375,2.14
00.390,0.5
00.406,-0.27
00.421,-0.51
00.437,-1.18
00.453,-3.11
00.468,-6.68
00.484,-11.35
00.500,-16.02
00.515,-19.43
00.531,-20.68
00.546,-19.65
00.562,-16.95
00.578,-13.52
00.593,-10.02
00.609,-6.75
00.625,-3.34
00.640,0.73
00.656,5.6
00.671,10.78
00.687,15.27
00.703,17.94
00.718,18.34
00.734,16.75
00.750,14.23
00.765,12.08
00.781,11.31
00.796,11.98
00.812,13.36
00.828,14.4
00.843,14.29
00.859,13.06
00.875,11.36
00.890,10.24
00.906,10.21
00.921,11.14
00.937,12.11
00.953,12.1
00.968,10.49
00.984,7.58
01.000,4.33
01.015,1.91
01.031,0.98
01.046,1.33
01.062,2.0
01.078,1.89
01.093,0.43
01.109,-2.16
01.125,-4.99
01.140,-7.0
01.156,-7.64
01.171,-7.21
01.187,-6.5
01.203,-6.42
01.218,-7.2
01.234,-8.37
01.250,-8.8
01.265,-7.44
01.281,-3.9
01.296,1.19
01.312,6.56
01.328,10.88
01.343,13.34
01.359,14.13
01.375,14.11
01.390,14.46
01.406,15.94
01.421,18.55
01.437,21.39
01.453,23.43
01.468,23.88
01.484,22.8
01.500,20.96
01.515,19.31
01.531,18.57
01.546,18.74
01.562,19.16
01.578,18.96
01.593,17.63
01.609,15.21
01.625,12.39
01.640,10.07
01.656,8.82
01.671,8.45
01.687,8.22
01.703,7.2
01.718,4.9
01.734,1.5
01.750,-2.21
01.765,-5.24
01.781,-6.81
01.796,-6.97
01.812,-6.52
01.828,-6.47
01.843,-7.6
01.859,-9.94
01.875,-12.7
01.890,-14.96
01.906,-15.94
01.921,-15.48
01.937,-14.22
01.953,-12.89
01.968,-12.07
01.984,-11.67
02.000,-10.99
02.015,-9.15
02.031,-5.69
02.046,-0.83
02.062,4.49
02.078,9.07
02.093,12.14
02.109,13.61
02.125,14.12
02.140,14.59
02.156,15.76
02.171,17.58
02.187,19.32
02.203,20.1
02.218,19.28
02.234,17.02
02.250,14.16
02.265,11.79
02.281,10.62
02.296,10.73
02.312,11.33
02.328,11.4
02.343,10.32
02.359,8.05
02.375,5.19
02.390,2.57
02.406,0.81
02.421,-0.03
02.437,-0.55
02.453,-1.56
02.468,-3.57
02.484,-6.57
02.500,-9.89
02.515,-12.74
02.531,-14.49
02.546,-15.22
02.562,-15.55
02.578,-16.36
02.593,-18.36
02.609,-21.5
02.625,-25.13
02.640,-27.94
02.656,-28.88
02.671,-27.47
02.687,-24.17
02.703,-20.07
02.718,-16.24
02.734,-13.36
02.750,-11.29
02.765,-9.4
02.781,-6.94
02.796,-3.69
02.812,0.01
02.828,3.2
02.843,5.09
02.859,5.42
02.875,4.64
02.890,3.58
02.906,3.14
02.921,3.83
02.937,5.45
02.953,7.22
02.968,8.43
02.984,8.69
03.000,8.38
03.015,8.21
03.031,8.95
03.046,10.74
03.062,13.14
03.078,15.21
03.093,15.98
03.109,15.23
03.125,13.12
03.140,10.55
03.156,8.26
03.171,6.56
03.187,5.2
03.203,3.59
03.218,1.24
03.234,-1.8
03.250,-4.97
03.265,-7.51
03.281,-8.91
03.296,-9.13
03.312,-8.78
03.328,-8.75
03.343,-9.48
03.359,-11.0
03.375,-12.54
03.390,-13.29
03.406,-12.59
03.421,-10.35
03.437,-7.09
03.453,-3.63
03.468,-0.69
03.484,1.46
03.500,3.0
03.515,4.57
03.531,6.62
03.546,9.23
03.562,12.0
03.578,14.21
03.593,15.11
03.609,14.35
03.625,12.21
03.640,9.32
03.656,6.51
03.671,4.0
03.687,1.45
03.703,-1.88
03.718,-6.67
03.734,-12.81
03.750,-19.65
03.765,-25.92
03.781,-30.71
03.796,-33.66
03.812,-35.18
03.828,-36.07
03.843,-36.77
03.859,-37.12
03.875,-36.27
03.890,-33.36
03.906,-27.87
03.921,-20.13
03.937,-11.29
03.953,-2.89
03.968,3.72
03.984,8.06
04.000,10.5
04.015,12.17
04.031,14.23
04.046,17.28
04.062,21.06
04.078,24.62
04.093,26.92
04.109,27.51
04.125,26.97
04.140,26.4
04.156,27.1
04.171,29.65
04.187,33.59
04.203,37.68
04.218,40.44
04.234,41.19
04.250,40.31
04.265,39.18
04.281,39.16
04.296,40.98
04.312,44.12
04.328,47.29
04.343,49.3
04.359,49.53
04.375,48.45
04.390,47.1
04.406,46.46
04.421,46.92
04.437,48.07
04.453,49.09
04.468,49.14
04.484,47.9
04.500,45.45
04.515,42.26
04.531,38.67
04.546,34.75
04.562,30.18
04.578,24.58
04.593,17.79
04.609,10.18
04.625,2.67
04.640,-3.62
04.656,-7.93
04.671,-10.36
04.687,-11.75
04.703,-13.54
04.718,-16.84
04.734,-22.07
04.750,-28.71
04.765,-35.53
04.781,-41.2
04.796,-44.98
04.812,-46.96
04.828,-47.87
04.843,-48.59
04.859,-49.52
04.875,-50.49
04.890,-50.8
04.906,-49.8
04.921,-47.29
04.937,-43.65
04.953,-39.72
04.968,-36.19
04.984,-33.23
05.000,-30.3
05.015,-26.39
05.031,-20.67
05.046,-13.02
05.062,-4.25
05.078,3.94
05.093,9.81
05.109,12.36
05.125,11.6
05.140,8.94
05.156,6.22
05.171,4.94
05.187,5.55
05.203,7.3
05.218,8.95
05.234,9.52
05.250,8.94
05.265,7.81
05.281,7.13
05.296,7.35
05.312,8.18
05.328,8.55
05.343,7.37
05.359,4.22
05.375,-0.35
05.390,-5.06
05.406,-8.66
05.421,-10.44
05.437,-10.79
05.453,-10.81
05.468,-11.83
05.484,-14.68
05.500,-19.31
05.515,-24.81
05.531,-29.78
05.546,-33.23
05.562,-34.88
05.578,-35.41
05.593,-36.0
05.609,-37.63
05.625,-40.58
05.640,-44.22
05.656,-47.41
05.671,-49.05
05.687,-48.84
05.703,-47.17
05.718,-44.93
05.734,-42.92
05.750,-41.34
05.765,-39.82
05.781,-37.64
05.796,-34.34
05.812,-29.97
05.828,-25.13
05.843,-20.58
05.859,-16.74
05.875,-13.57
05.890,-10.58
05.906,-7.3
05.921,-3.46
05.937,0.53
05.953,4.09
05.968,6.7
05.984,8.36
06.000,9.75
06.015,11.95
06.031,15.86
06.046,21.49
06.062,27.92
06.078,33.42
06.093,36.42
06.109,36.26
06.125,33.62
06.140,30.13
06.156,27.61
06.171,27.03
06.187,27.93
06.203,28.73
06.218,27.76
06.234,24.31
06.250,19.01
06.265,13.53
06.281,9.54
06.296,7.91
06.312,8.45
06.328,10.13
06.343,11.91
06.359,13.44
06.375,15.02
06.390,17.34
06.406,20.78
06.421,25.14
06.437,29.68
06.453,33.52
06.468,36.17
06.484,37.76
06.500,38.7
06.515,39.4
06.531,39.97
06.546,40.0
06.562,38.91
06.578,36.21
06.593,31.85
06.609,26.26
06.625,20.28
06.640,14.86
06.656,10.9
06.671,8.92
06.687,9.01
06.703,10.75
06.718,13.42
06.734,16.2
06.750,18.58
06.765,20.54
06.781,22.49
06.796,24.96
06.812,28.16
06.828,31.81
06.843,35.21
06.859,37.79
06.875,39.29
06.890,39.89
06.906,40.03
06.921,40.1
06.937,40.07
06.953,39.57
06.968,38.04
06.984,35.06
07.000,30.47
07.015,24.31
07.031,16.7
07.046,7.59
07.062,-3.36
07.078,-16.61
07.093,-32.31
07.109,-49.83
07.125,-67.53
07.140,-83.32
07.156,-95.06
07.171,-101.49
07.187,-102.6
07.203,-99.63
07.218,-94.21
07.234,-87.73
07.250,-80.76
07.265,-72.99
07.281,-64.03
07.296,-53.73
07.312,-42.56
07.328,-31.4
07.343,-21.08
07.359,-12.03
07.375,-4.0
07.390,3.66
07.406,11.65
07.421,20.38
07.437,29.66
07.453,38.68
07.468,46.28
07.484,51.79
07.500,55.19
07.515,57.2
07.531,58.91
07.546,61.0
07.562,63.33
07.578,64.91
07.593,64.54
07.609,61.44
07.625,55.98
07.640,49.4
07.656,43.21
07.671,38.45
07.687,35.06
07.703,32.18
07.718,28.65
07.734,23.81
07.750,17.72
07.765,11.16
07.781,5.13
07.796,0.26
07.812,-3.36
07.828,-6.23
07.843,-8.93
07.859,-11.68
07.875,-14.15
07.890,-15.83
07.906,-16.2
07.921,-15.12
07.937,-13.15
07.953,-11.15
07.968,-9.98
07.984,-10.01
08.000,-10.84
08.015,-11.67
08.031,-11.68
08.046,-10.57
08.062,-8.52
08.078,-6.4
08.093,-4.97
08.109,-4.55
08.125,-4.83
08.140,-4.99
08.156,-4.37
08.171,-2.83
08.187,-1.04
08.203,-0.05
08.218,-0.88
08.234,-3.53
08.250,-7.29
08.265,-10.77
08.281,-12.76
08.296,-12.78
08.312,-11.26
08.328,-9.27
08.343,-7.93
08.359,-7.92
08.375,-8.9
08.390,-10.06
08.406,-10.67
08.421,-10.42
08.437,-9.85
08.453,-10.02
08.468,-12.14
08.484,-16.79
08.500,-23.75
08.515,-31.87
08.531,-39.38
08.546,-44.8
08.562,-47.18
08.578,-46.7
08.593,-44.19
08.609,-40.64
08.625,-36.64
08.640,-32.16
08.656,-26.79
08.671,-20.35
08.687,-13.42
08.703,-7.23
08.718,-3.44
08.734,-2.87
08.750,-5.35
08.765,-9.47
08.781,-13.36
08.796,-15.52
08.812,-15.62
08.828,-14.5
08.843,-13.5
08.859,-13.7
08.875,-15.21
08.890,-17.25
08.906,-18.67
08.921,-18.53
08.937,-16.74
08.953,-13.93
08.968,-11.2
08.984,-9.23
09.000,-8.0
09.015,-6.9
09.031,-5.04
09.046,-2.01
09.062,1.88
09.078,5.65
09.093,8.07
09.109,8.35
09.125,6.62
09.140,3.82
09.156,1.26
09.171,-0.02
09.187,0.3
09.203,1.57
09.218,2.63
09.234,2.59
09.250,1.16
09.265,-1.15
09.281,-3.42
09.296,-4.75
09.312,-4.85
09.328,-4.13
09.343,-3.46
09.359,-3.62
09.375,-4.85
09.390,-6.79
09.406,-8.67
09.421,-9.72
09.437,-9.65
09.453,-8.87
09.468,-8.23
09.484,-8.47
09.500,-9.86
09.515,-11.98
09.531,-13.96
09.546,-14.85
09.562,-14.3
09.578,-12.61
09.593,-10.54
09.609,-8.87
09.625,-7.88
09.640,-7.31
09.656,-6.43
09.671,-4.67
09.687,-1.87
09.703,1.48
09.718,4.46
09.734,6.4
09.750,7.1
09.765,7.16
09.781,7.39
09.796,8.56
09.812,10.83
09.828,13.72
09.843,16.16
09.859,17.15
09.875,16.48
09.890,14.56
09.906,12.36
09.921,10.75
09.937,10.02
09.953,9.73
09.968,8.86
09.984,6.54
10.000,2.69
10.015,-1.88
10.031,-5.88
10.046,-8.07
10.062,-8.15
10.078,-6.8
10.093,-5.38
10.109,-5.27
10.125,-6.9
10.140,-9.84
10.156,-13.0
10.171,-15.3
10.187,-16.29
10.203,-16.3
10.218,-16.16
10.234,-16.5
10.250,-17.55
10.265,-18.68
10.281,-18.91
10.296,-17.5
10.312,-14.4
10.328,-10.25
10.343,-6.15
10.359,-3.04
10.375,-1.29
10.390,-0.6
10.406,-0.22
10.421,0.74
10.437,2.55
10.453,4.87
10.468,6.87
10.484,7.77
10.500,7.28
10.515,5.83
10.531,4.32
10.546,3.64
10.562,4.24
10.578,5.86
10.593,7.7
10.609,8.89
10.625,9.02
10.640,8.38
10.656,7.62
10.671,7.38
10.687,7.88
10.703,8.63
10.718,8.75
10.734,7.6
10.750,5.14
10.765,1.93
10.781,-1.06
10.796,-2.95
10.812,-3.48
10.828,-3.03
10.843,-2.61
10.859,-3.1
10.875,-4.86
10.890,-7.49
10.906,-10.25
10.921,-12.32
10.937,-13.29
10.953,-13.4
10.968,-13.34
10.984,-13.73
11.000,-14.8
11.015,-16.13
11.031,-16.84
11.046,-16.24
11.062,-14.11
11.078,-10.92
11.093,-7.66
11.109,-5.32
11.125,-4.3
11.140,-4.29
11.156,-4.5
11.171,-4.07
11.187,-2.67
11.203,-0.63
11.218,1.3
11.234,2.28
11.250,1.96
11.265,0.73
11.281,-0.59
11.296,-1.13
11.312,-0.46
11.328,1.26
11.343,3.35
11.359,5.14
11.375,6.33
11.390,7.22
11.406,8.46
11.421,10.53
11.437,13.61
11.453,17.23
11.468,20.62
11.484,23.06
11.500,24.19
11.515,24.31
11.531,24.0
11.546,23.87
11.562,24.03
11.578,24.22
11.593,23.95
11.609,22.74
11.625,20.67
11.640,18.41
11.656,16.79
11.671,16.57
11.687,18.01
11.703,20.68
11.718,23.66
11.734,26.26
11.750,28.16
11.765,29.73
11.781,31.86
11.796,35.35
11.812,40.39
11.828,46.44
11.843,52.23
11.859,56.23
11.875,57.28
11.890,54.84
11.906,49.44
11.921,42.16
11.937,34.28
11.953,26.84
11.968,20.58
11.984,15.96
12.000,13.19
12.015,12.59
12.031,14.13
12.046,17.47
12.062,21.64
12.078,25.21
12.093,26.88
12.109,25.91
12.125,22.45
12.140,17.41
12.156,11.97
12.171,6.99
12.187,2.78
12.203,-0.62
12.218,-3.27
12.234,-5.02
12.250,-5.54
12.265,-4.61
12.281,-2.37
12.296,0.62
12.312,3.44
12.328,4.89
12.343,4.1
12.359,0.42
12.375,-6.25
12.390,-15.54
12.406,-26.61
12.421,-38.09
12.437,-48.27
12.453,-55.62
12.468,-59.32
12.484,-59.18
12.500,-55.89
12.515,-50.58
12.531,-44.31
12.546,-38.0
12.562,-32.25
12.578,-27.5
12.593,-24.05
12.609,-22.13
12.625,-21.56
12.640,-21.75
12.656,-21.9
12.671,-21.05
12.687,-18.85
12.703,-15.38
12.718,-11.3
12.734,-7.34
12.750,-3.94
12.765,-0.81
12.781,2.51
12.796,6.43
12.812,10.87
12.828,14.94
12.843,17.36
12.859,17.19
12.875,14.37
12.890,9.84
12.906,5.27
12.921,2.04
12.937,0.5
12.968,-1.0
12.984,-3.85
13.000,-8.8
13.015,-15.05
13.031,-21.04
13.046,-25.2
13.062,-27.0
13.078,-27.09
13.093,-26.75
13.109,-27.34
13.125,-29.36
13.140,-32.15
13.156,-34.37
13.171,-34.6
13.187,-32.3
13.203,-28.05
13.218,-23.09
13.234,-18.79
13.250,-16.02
13.265,-14.68
13.281,-14.12
13.296,-13.48
13.312,-12.28
13.328,-10.56
13.343,-8.95
13.359,-7.95
13.375,-7.66
13.390,-7.7
13.406,-7.28
13.421,-5.53
13.437,-2.23
13.453,2.19
13.468,6.67
13.484,9.97
13.500,11.34
13.515,10.91
13.531,9.49
13.546,8.21
13.562,7.9
13.578,8.48
13.593,9.21
13.609,9.17
13.625,7.7
13.640,5.05
13.656,2.04
13.671,-0.45
13.687,-1.92
13.703,-2.77
13.718,-3.87
13.734,-6.07
13.750,-9.52
13.765,-13.63
13.781,-17.29
13.796,-19.57
13.812,-20.23
13.828,-19.73
13.843,-19.04
13.859,-18.89
13.875,-19.44
13.890,-20.07
13.906,-19.99
13.921,-18.49
13.937,-15.55
13.953,-11.83
13.968,-8.21
13.984,-5.49
14.000,-3.9
14.015,-3.16
14.031,-2.57
14.046,-1.5
14.062,0.44
14.078,3.1
14.093,5.82
14.109,8.03
14.125,9.31
14.140,9.68
14.156,9.63
14.171,9.84
14.187,10.63
14.203,11.95
14.218,13.31
14.234,13.9
14.250,13.36
14.265,11.85
14.281,9.97
14.296,8.51
14.312,7.94
14.328,8.06
14.343,8.17
14.359,7.6
14.375,6.03
14.390,3.91
14.406,2.03
14.421,1.25
14.437,1.84
14.453,3.21
14.468,4.28
14.484,3.96
14.500,1.83
14.515,-1.82
14.531,-6.06
14.546,-10.05
14.562,-13.35
14.578,-16.11
14.593,-18.8
14.609,-21.85
14.625,-25.1
14.640,-27.92
14.656,-29.53
14.671,-29.19
14.687,-26.85
14.703,-23.17
14.718,-19.26
14.734,-16.11
14.750,-14.14
14.765,-12.97
14.781,-11.82
14.796,-9.85
14.812,-6.79
14.828,-3.12
14.843,0.21
14.859,2.17
14.875,2.49
14.890,1.7
14.906,0.85
14.921,0.87
14.937,1.96
14.953,3.64
14.968,4.83
14.984,4.87
15.000,3.65
15.015,1.88
15.031,0.64
15.046,0.79
15.062,2.38
15.078,4.68
15.093,6.62
15.109,7.12
15.125,5.95
15.140,3.6
15.156,1.03
15.171,-0.89
15.187,-1.67
15.203,-1.56
15.218,-1.34
15.234,-1.75
15.250,-3.29
15.265,-5.61
15.281,-8.05
15.296,-9.91
15.312,-10.85
15.328,-11.12
15.343,-11.28
15.359,-11.84
15.375,-12.71
15.390,-13.38
15.406,-13.03
15.421,-10.92
15.437,-6.99
15.453,-1.77
15.468,3.72
15.484,8.61
15.500,12.49
15.515,15.57
15.531,18.41
15.546,21.62
15.562,25.27
15.578,28.89
15.593,31.71
15.609,33.0
15.625,32.58
15.640,30.91
15.656,28.86
15.671,27.21
15.687,26.44
15.703,26.43
15.718,26.59
15.734,26.44
15.750,25.68
15.765,24.6
15.781,23.65
15.796,23.33
15.812,23.69
15.828,24.32
15.843,24.56
15.859,23.72
15.875,21.65
15.890,18.69
15.906,15.5
15.921,12.72
15.937,10.66
15.953,9.05
15.968,7.3
15.984,4.92
16.000,1.71
16.015,-1.92
16.031,-5.46
16.046,-8.23
16.062,-10.19
16.078,-11.61
16.093,-13.21
16.109,-15.49
16.125,-18.48
16.140,-21.63
16.156,-23.96
16.171,-24.61
16.187,-23.23
16.203,-20.18
16.218,-16.26
16.234,-12.41
16.250,-9.21
16.265,-6.62
16.281,-4.23
16.296,-1.62
16.312,1.37
16.328,4.45
16.343,6.99
16.359,8.51
16.375,8.82
16.390,8.38
16.406,7.85
16.421,7.97
16.437,9.05
16.453,10.81
16.468,12.54
16.484,13.68
16.500,13.97
16.515,13.6
16.531,13.11
16.546,12.86
16.562,12.93
16.578,12.86
16.593,11.96
16.609,9.77
16.625,6.5
16.640,2.92
16.656,0.02
16.671,-1.4
16.687,-1.28
16.703,-0.38
16.718,0.31
16.734,0.11
16.750,-1.15
16.765,-2.94
16.781,-4.51
16.796,-5.26
16.812,-5.16
16.828,-4.73
16.843,-4.88
16.859,-6.25
16.875,-8.91
16.890,-12.27
16.906,-15.42
16.921,-17.51
16.937,-18.07
16.953,-17.17
16.968,-15.35
16.984,-13.08
17.000,-10.6
17.015,-7.68
17.031,-3.82
17.046,1.24
17.062,7.34
17.078,13.72
17.093,19.35
17.109,23.32
17.125,25.29
17.140,25.76
17.156,25.6
17.171,25.84
17.187,27.04
17.203,29.08
17.218,31.22
17.234,32.65
17.250,32.91
17.265,32.29
17.281,31.58
17.296,31.54
17.312,32.48
17.328,34.04
17.343,35.41
17.359,35.91
17.375,35.37
17.390,34.24
17.406,33.36
17.421,33.5
17.437,34.77
17.453,36.66
17.468,38.1
17.484,38.19
17.500,36.5
17.515,33.34
17.531,29.54
17.546,26.1
17.562,23.69
17.578,22.29
17.593,21.46
17.609,20.51
17.625,18.95
17.640,16.91
17.656,14.8
17.671,13.25
17.687,12.53
17.703,12.3
17.718,11.89
17.734,10.67
17.750,8.61
17.765,6.41
17.781,5.1
17.796,5.43
17.812,7.52
17.828,10.65
17.843,13.53
17.859,15.25
17.875,15.63
17.890,15.41
17.906,15.73
17.921,17.57
17.937,21.14
17.953,25.85
17.968,30.65
17.984,34.6
18.000,37.32
18.015,39.14
18.031,40.77
18.046,42.88
18.062,45.75
18.078,48.92
18.093,51.47
18.109,52.53
18.125,51.6
18.140,48.96
18.156,45.29
18.171,41.34
18.187,37.39
18.203,33.03
18.218,27.56
18.234,20.37
18.250,11.35
18.265,1.17
18.281,-8.95
18.296,-17.91
18.312,-25.28
18.328,-31.48
18.343,-37.69
18.359,-44.88
18.375,-53.32
18.390,-62.3
18.406,-70.61
18.421,-77.07
18.437,-81.09
18.453,-83.08
18.468,-83.91
18.484,-84.26
18.500,-84.07
18.515,-82.45
18.531,-78.14
18.546,-70.53
18.562,-60.02
18.578,-48.09
18.593,-36.72
18.609,-27.52
18.625,-20.98
18.640,-16.55
18.656,-13.15
18.671,-9.73
18.687,-6.02
18.703,-2.65
18.718,-0.72
18.734,-1.03
18.750,-3.61
18.765,-7.51
18.781,-11.26
18.796,-13.6
18.812,-13.99
18.828,-12.86
18.843,-11.41
18.859,-10.83
18.875,-11.78
18.890,-14.08
18.906,-16.82
18.921,-18.96
18.937,-19.82
18.953,-19.16
18.968,-17.38
18.984,-14.93
19.000,-12.31
19.015,-9.64
19.031,-6.95
19.046,-4.29
19.062,-2.1
19.078,-1.18
19.093,-2.46
19.109,-6.7
19.125,-13.7
19.140,-22.29
19.156,-30.56
19.171,-36.73
19.187,-39.8
19.203,-39.94
19.218,-38.29
19.234,-36.21
19.250,-34.55
19.265,-33.14
19.281,-31.06
19.296,-27.48
19.312,-22.22
19.328,-16.0
19.343,-9.9
19.359,-4.79
19.375,-0.77
19.390,2.64
19.406,6.15
19.421,10.33
19.437,14.95
19.453,19.11
19.468,21.66
19.484,21.8
19.500,19.54
19.515,15.82
19.531,11.92
19.546,9.15
19.562,8.04
19.578,8.35
19.593,9.26
19.609,9.8
19.625,9.53
19.640,8.64
19.656,7.87
19.671,7.9
19.687,8.96
19.703,10.5
19.718,11.63
19.734,11.64
19.750,10.25
19.765,8.02
19.781,5.79
19.796,4.45
19.812,4.36
19.828,5.15
19.843,5.9
19.859,5.8
19.875,4.48
19.890,2.21
19.906,-0.29
19.921,-2.4
19.937,-3.84
19.953,-4.93
19.968,-6.35
19.984,-8.82
20.000,-12.44
20.015,-16.65
20.031,-20.61
20.046,-23.27
20.062,-24.04
20.078,-22.9
20.093,-20.29
20.109,-16.86
20.125,-13.13
20.140,-9.14
20.156,-4.58
20.171,0.75
20.187,6.98
20.203,13.54
20.218,19.59
20.234,24.28
20.250,27.11
20.265,28.34
20.281,28.62
20.296,28.81
20.312,29.38
20.328,30.38
20.343,31.22
20.359,31.46
20.375,31.0
20.390,30.19
20.406,29.72
20.421,30.16
20.437,31.62
20.453,33.64
20.468,35.49
20.484,36.49
20.500,36.47
20.515,35.74
20.531,34.96
20.546,34.54
20.562,34.53
20.578,34.16
20.593,32.58
20.609,29.2
20.625,24.01
20.640,17.89
20.656,12.11
20.671,7.7
20.687,4.72
20.703,2.21
20.718,-1.42
20.734,-7.71
20.750,-17.28
20.765,-29.49
20.781,-42.58
20.796,-54.4
20.812,-63.29
20.828,-68.58
20.843,-70.85
20.859,-71.19
20.875,-70.61
20.890,-69.3
20.906,-66.81
20.921,-62.43
20.937,-55.8
20.953,-47.46
20.968,-38.76
20.984,-31.2
21.000,-25.8
21.015,-22.56
21.031,-20.71
21.046,-19.26
21.062,-17.6
21.078,-15.92
21.093,-14.87
21.109,-14.94
21.125,-15.93
21.140,-17.03
21.156,-17.2
21.171,-15.77
21.187,-13.01
21.203,-10.12
21.218,-8.57
21.234,-9.46
21.250,-12.82
21.265,-17.8
21.281,-22.85
21.296,-26.66
21.312,-28.67
21.328,-29.25
21.343,-29.39
21.359,-30.03
21.375,-31.6
21.390,-33.84
21.406,-36.09
21.421,-37.7
21.437,-38.58
21.453,-39.12
21.468,-40.15
21.484,-42.18
21.500,-45.1
21.515,-47.94
21.531,-49.47
21.546,-48.67
21.562,-45.33
21.578,-40.06
21.593,-33.82
21.609,-27.41
21.625,-20.86
21.640,-13.63
21.656,-4.85
21.671,5.8
21.687,17.99
21.703,30.76
21.718,43.03
21.734,54.1
21.750,63.77
21.765,72.06
21.781,79.03
21.796,84.6
21.812,88.58
21.828,90.84
21.843,91.6
21.859,91.31
21.875,90.74
21.890,90.35
21.906,90.05
21.921,89.14
21.937,86.3
21.953,80.01
21.968,68.82
21.984,52.04
22.000,30.06
22.015,4.64
22.031,-21.56
22.046,-45.46
22.062,-64.24
22.078,-75.91
22.093,-80.02
22.109,-77.63
22.125,-71.13
22.140,-63.53
22.156,-57.39
22.171,-54.2
22.187,-54.3
22.203,-57.14
22.218,-61.98
22.234,-67.98
22.250,-74.23
22.265,-79.71
22.281,-83.08
22.296,-83.03
22.312,-78.69
22.328,-70.21
22.343,-58.75
22.359,-46.15
22.375,-33.83
22.390,-22.04
22.406,-10.27
22.421,2.41
22.437,16.41
22.453,31.18
22.468,45.34
22.484,57.28
22.500,65.69
22.515,70.3
22.531,72.02
22.546,72.01
22.562,71.3
22.578,70.33
22.593,68.86
22.609,66.45
22.625,63.27
22.640,60.03
22.656,57.91
22.671,58.04
22.687,60.56
22.703,64.56
22.718,68.33
22.734,70.21
22.750,69.52
22.765,66.9
22.781,63.72
22.796,61.26
22.812,59.92
22.828,58.84
22.843,56.65
22.859,52.28
22.875,45.55
22.890,37.43
22.906,29.44
22.921,22.83
22.937,17.92
22.953,14.12
22.968,10.26
22.984,5.51
23.000,-0.29
23.015,-6.68
23.031,-12.78
23.046,-17.85
23.062,-21.75
23.078,-24.97
23.093,-27.99
23.109,-31.12
23.125,-33.83
23.140,-35.07
23.156,-33.8
23.171,-29.45
23.187,-22.54
23.203,-14.43
23.218,-6.77
23.234,-0.66
23.250,3.61
23.265,6.74
23.281,9.63
23.296,12.72
23.312,15.93
23.328,18.42
23.343,19.32
23.359,18.32
23.375,15.88
23.390,13.07
23.406,11.02
23.421,10.52
23.437,11.58
23.453,13.53
23.468,15.48
23.484,16.78
23.500,17.26
23.515,17.26
23.531,17.25
23.546,17.52
23.562,17.89
23.578,17.84
23.593,16.71
23.609,14.15
23.625,10.49
23.640,6.35
23.656,2.48
23.671,-0.5
23.687,-2.58
23.703,-4.28
23.718,-6.23
23.734,-8.79
23.750,-11.85
23.765,-14.83
23.781,-17.04
23.796,-18.24
23.812,-18.76
23.828,-19.35
23.843,-20.82
23.859,-23.33
23.875,-26.26
23.890,-28.3
23.906,-28.11
23.921,-25.04
23.937,-19.25
23.953,-11.82
23.968,-4.21
23.984,2.54
24.000,8.29
24.015,13.49
24.031,18.85
24.046,24.76
24.062,30.83
24.078,36.16
24.093,39.86
24.109,41.57
24.125,41.78
24.140,41.78
24.156,42.74
24.171,45.29
24.187,49.11
24.203,53.13
24.218,56.13
24.234,57.28
24.250,56.56
24.265,54.62
24.281,52.38
24.296,50.62
24.312,49.6
24.328,48.92
24.343,47.84
24.359,45.65
24.375,42.08
24.390,37.21
24.406,31.41
24.421,24.87
24.437,17.56
24.453,9.5
24.468,0.9
24.484,-7.6
24.500,-15.09
24.515,-20.62
24.531,-23.96
24.546,-25.87
24.562,-27.86
24.578,-31.56
24.593,-37.95
24.609,-46.81
24.625,-56.95
24.640,-66.67
24.656,-74.76
24.671,-80.78
24.687,-85.21
24.703,-88.96
24.718,-92.64
24.734,-96.11
24.750,-98.52
24.765,-98.74
24.781,-96.11
24.796,-90.84
24.812,-84.12
24.828,-77.49
24.843,-72.15
24.859,-68.5
24.875,-65.88
24.890,-62.99
24.906,-58.54
24.921,-51.86
24.937,-43.41
24.953,-34.49
24.968,-26.7
24.984,-21.13
25.000,-17.95
25.015,-16.51
25.031,-15.66
25.046,-14.66
25.062,-13.51
25.078,-13.08
25.093,-14.38
25.109,-17.99
25.125,-23.7
25.140,-30.43
25.156,-36.95
25.171,-42.28
25.187,-45.89
25.203,-47.72
25.218,-47.7
25.234,-45.69
25.250,-41.52
25.265,-35.34
25.281,-27.76
25.296,-19.71
25.312,-12.21
25.328,-5.96
25.343,-1.15
25.359,2.9
25.375,7.55
25.390,14.5
25.406,25.08
25.421,39.64
25.437,57.07
25.453,74.89
25.468,89.93
25.484,99.38
25.500,101.98
25.515,98.31
25.531,90.42
25.546,80.78
25.562,71.26
25.578,62.52
25.593,54.35
25.609,46.45
25.625,38.82
25.640,32.22
25.656,27.59
25.671,25.39
25.687,25.12
25.703,25.28
25.718,24.19
25.734,20.7
25.750,15.16
25.765,9.09
25.781,4.62
25.796,3.27
25.812,5.12
25.828,8.74
25.843,11.9
25.859,12.73
25.875,10.65
25.890,6.54
25.906,1.95
25.921,-1.75
25.937,-4.33
25.953,-6.7
25.968,-10.12
25.984,-15.18
26.000,-21.27
26.015,-26.67
26.031,-29.44
26.046,-28.59
26.062,-24.58
26.078,-19.25
26.093,-14.76
26.109,-12.56
26.125,-12.68
26.140,-13.91
26.156,-14.53
26.171,-13.45
26.187,-10.77
26.203,-7.75
26.218,-6.05
26.234,-6.68
26.250,-9.51
26.265,-13.25
26.281,-16.38
26.296,-17.85
26.312,-17.56
26.328,-16.48
26.343,-15.7
26.359,-15.97
26.375,-17.05
26.390,-17.85
26.406,-17.14
26.421,-14.23
26.437,-9.53
26.453,-4.16
26.468,0.39
26.484,3.25
26.500,4.55
26.515,5.33
26.531,6.83
26.546,9.86
26.562,14.2
26.578,18.6
26.593,21.7
26.609,22.58
26.625,21.44
26.640,19.35
26.656,17.89
26.671,17.98
26.687,19.58
26.703,21.69
26.718,22.86
26.734,22.25
26.750,19.94
26.765,17.06
26.781,14.89
26.796,14.25
26.812,15.04
26.828,16.32
26.843,17.01
26.859,16.4
26.875,14.72
26.890,12.87
26.906,11.77
26.921,11.8
26.937,12.41
26.953,12.46
26.968,10.93
26.984,7.51
27.000,2.82
27.015,-1.63
27.031,-4.45
27.046,-5.03
27.062,-3.99
27.078,-2.62
27.093,-2.41
27.109,-4.04
27.125,-6.88
27.140,-9.52
27.156,-10.32
27.171,-8.39
27.187,-4.1
27.203,1.14
27.218,5.74
27.234,8.67
27.250,9.95
27.265,10.79
27.281,12.71
27.296,16.72
27.312,22.58
27.328,28.8
27.343,33.48
27.359,35.19
27.375,33.7
27.390,30.0
27.406,25.78
27.421,22.13
27.437,19.11
27.453,15.43
27.468,9.43
27.484,0.23
27.500,-11.7
27.515,-24.57
27.531,-36.02
27.546,-44.17
27.562,-48.59
27.578,-50.04
27.593,-50.06
27.609,-49.94
27.625,-50.27
27.640,-50.71
27.656,-50.73
27.671,-49.89
27.687,-48.51
27.703,-47.48
27.718,-47.61
27.734,-49.33
27.750,-52.05
27.765,-54.69
27.781,-56.12
27.796,-55.97
27.812,-54.69
27.828,-53.36
27.843,-52.78
27.859,-52.83
27.875,-52.27
27.890,-49.27
27.906,-42.42
27.921,-31.67
27.937,-18.46
27.953,-5.37
27.968,4.93
27.984,10.85
28.000,12.52
28.015,11.41
28.031,9.68
28.046,8.92
28.062,9.54
28.078,10.98
28.093,12.34
28.109,13.11
28.125,13.63
28.140,14.91
28.156,17.85
28.171,22.63
28.187,28.27
28.203,33.0
28.218,35.33
28.234,34.54
28.250,31.13
28.265,26.58
28.281,22.56
28.296,20.18
28.312,19.53
28.328,19.74
28.343,19.55
28.359,17.93
28.375,14.73
28.390,10.64
28.406,6.94
28.421,4.71
28.437,4.24
28.453,5.0
28.468,5.96
28.484,6.17
28.500,5.42
28.515,4.1
28.531,2.95
28.546,2.54
28.562,2.8
28.578,2.98
28.593,2.37
28.609,0.64
28.625,-2.07
28.640,-5.0
28.656,-7.5
28.671,-9.36
28.687,-10.81
28.703,-12.47
28.718,-14.76
28.734,-17.44
28.750,-19.57
28.765,-19.94
28.781,-17.6
28.796,-12.44
28.812,-5.43
28.828,1.78
28.843,7.81
28.859,11.94
28.875,14.63
28.890,16.96
28.906,19.93
28.921,23.93
28.937,28.32
28.953,31.93
28.968,33.72
28.984,33.28
29.000,31.07
29.015,28.26
29.031,25.88
29.046,24.49
29.062,23.75
29.078,22.84
29.093,20.81
29.109,17.52
29.125,13.52
29.140,9.92
29.156,7.79
29.171,7.44
29.187,8.3
29.203,9.2
29.218,9.24
29.234,7.96
29.250,5.84
29.265,3.85
29.281,2.89
29.296,3.25
29.312,4.37
29.328,5.1
29.343,4.45
29.359,2.05
29.375,-1.68
29.390,-5.84
29.406,-9.7
29.421,-12.94
29.437,-15.91
29.453,-19.38
29.468,-23.86
29.484,-29.23
29.500,-34.64
29.515,-38.88
29.531,-41.02
29.546,-40.91
29.562,-39.32
29.578,-37.52
29.593,-36.59
29.609,-36.89
29.625,-37.88
29.640,-38.41
29.656,-37.45
29.671,-34.57
29.687,-30.15
29.703,-25.3
29.718,-21.02
29.734,-17.73
29.750,-15.16
29.765,-12.55
29.781,-9.33
29.796,-5.45
29.812,-1.6
29.828,1.39
29.843,2.88
29.859,2.93
29.875,2.38
29.890,2.41
29.906,3.86
29.921,6.75
29.937,10.2
29.953,12.89
29.968,13.92
29.984,13.03
30.000,10.85
30.015,8.54
30.031,7.11
30.046,6.85
30.062,7.28
30.078,7.29
30.093,5.98
30.109,3.01
30.125,-1.06
30.140,-5.23
30.156,-8.53
30.171,-10.57
30.187,-11.76
30.203,-12.89
30.218,-14.81
30.234,-17.6
30.250,-20.83
30.265,-23.39
30.281,-24.32
30.296,-23.17
30.312,-20.4
30.328,-16.91
30.343,-13.66
30.359,-11.08
30.375,-8.73
30.390,-5.91
30.406,-2.04
30.421,2.96
30.437,8.41
30.453,13.15
30.468,16.27
30.484,17.47
30.500,17.27
30.515,16.68
30.531,16.58
30.546,17.24
30.562,18.32
30.578,18.92
30.593,18.46
30.609,16.8
30.625,14.51
30.640,12.68
30.656,12.16
30.671,13.14
30.687,15.0
30.703,16.72
30.718,17.31
30.734,16.57
30.750,15.0
30.765,13.6
30.781,13.3
30.796,14.26
30.812,15.73
30.828,16.47
30.843,15.42
30.859,12.25
30.875,7.81
30.890,3.51
30.906,0.61
30.921,-0.53
30.937,-0.6
30.953,-0.94
30.968,-2.6
30.984,-5.85
31.000,-10.0
31.015,-13.74
31.031,-15.92
31.046,-16.13
31.062,-14.88
31.078,-13.17
31.093,-11.8
31.109,-10.8
31.125,-9.52
31.140,-6.86
31.156,-2.05
31.171,4.84
31.187,12.75
31.203,20.26
31.218,26.07
31.234,29.83
31.250,32.16
31.265,34.15
31.281,36.73
31.296,40.12
31.312,43.79
31.328,46.68
31.343,48.18
31.359,48.27
31.375,47.74
31.390,47.64
31.406,48.6
31.421,50.52
31.437,52.6
31.453,53.84
31.468,53.63
31.484,52.4
31.500,51.05
31.515,50.83
31.531,52.32
31.546,55.01
31.562,57.56
31.578,58.47
31.593,56.91
31.609,53.25
31.625,48.87
31.640,45.19
31.656,42.85
31.671,41.13
31.687,37.99
31.703,31.15
31.718,19.03
31.734,1.57
31.750,-19.73
31.765,-42.28
31.781,-63.51
31.796,-81.6
31.812,-95.69
31.828,-105.83
31.843,-112.04
31.859,-114.08
31.875,-111.33
31.890,-103.25
31.906,-90.0
31.921,-72.86
31.937,-54.07
31.953,-35.89
31.968,-20.09
31.984,-7.18
32.000,3.14
32.015,11.59
32.031,18.56
32.046,23.66
32.062,26.19
32.078,25.52
32.093,21.81
32.109,16.11
32.125,10.06
32.140,4.96
32.156,1.45
32.171,-0.78
32.187,-2.68
32.203,-5.07
32.218,-8.14
32.234,-11.34
32.250,-13.76
32.265,-14.63
32.281,-13.89
32.296,-12.17
32.312,-10.49
32.328,-9.79
32.343,-10.32
32.359,-11.67
32.375,-12.93
32.390,-13.43
32.406,-12.94
32.421,-11.98
32.437,-11.51
32.453,-12.37
32.468,-14.83
32.484,-18.34
32.500,-21.99
32.515,-24.87
32.531,-26.75
32.546,-28.04
32.562,-29.76
32.578,-32.54
32.593,-36.38
32.609,-40.44
32.625,-43.28
32.640,-43.68
32.656,-41.13
32.671,-36.18
32.687,-30.01
32.703,-24.07
32.718,-19.17
32.734,-15.2
32.750,-11.36
32.765,-6.75
32.781,-1.05
32.796,5.18
32.812,10.67
32.828,14.18
32.843,15.09
32.859,13.93
32.875,12.02
32.890,10.97
32.906,11.8
32.921,14.29
32.937,17.31
32.953,19.39
32.968,19.72
32.984,18.39
33.000,16.38
33.015,14.95
33.031,14.68
33.046,15.44
33.062,16.2
33.078,15.81
33.093,13.66
33.109,10.22
33.125,6.67
33.140,4.34
33.156,4.07
33.171,5.6
33.187,7.8
33.203,9.39
33.218,9.44
33.234,7.91
33.250,5.58
33.265,3.46
33.281,2.19
33.296,1.61
33.312,0.88
33.328,-0.94
33.343,-4.19
33.359,-8.28
33.375,-12.0
33.390,-13.96
33.406,-13.37
33.421,-10.44
33.437,-6.13
33.453,-1.75
33.468,1.84
33.484,4.68
33.500,7.46
33.515,11.03
33.531,15.69
33.546,20.86
33.562,25.33
33.578,28.02
33.593,28.39
33.609,26.88
33.625,24.74
33.640,23.26
33.656,23.24
33.671,24.61
33.687,26.49
33.703,27.73
33.718,27.75
33.734,26.6
33.750,25.12
33.765,24.35
33.781,24.85
33.796,26.35
33.812,27.73
33.828,27.78
33.843,25.66
33.859,21.68
33.875,16.94
33.890,12.88
33.906,10.38
33.921,9.3
33.937,8.58
33.953,6.92
33.968,3.7
33.984,-0.89
34.000,-5.7
34.015,-9.52
34.031,-11.73
34.046,-12.6
34.062,-13.2
34.078,-14.6
34.093,-17.29
34.109,-20.71
34.125,-23.76
34.140,-25.16
34.156,-24.33
34.171,-21.54
34.187,-17.85
34.203,-14.4
34.218,-11.82
34.234,-9.99
34.250,-8.21
34.265,-5.68
34.281,-2.17
34.296,1.9
34.312,5.42
34.328,7.32
34.343,6.92
34.359,4.47
34.375,0.85
34.390,-2.78
34.406,-5.67
34.421,-7.71
34.437,-9.43
34.453,-11.73
34.468,-14.88
34.484,-18.49
34.500,-21.41
34.515,-22.33
34.531,-20.5
34.546,-16.23
34.562,-10.69
34.578,-5.2
34.593,-0.55
34.609,3.7
34.625,8.55
34.640,15.02
34.656,23.1
34.671,31.67
34.687,38.69
34.703,42.46
34.718,42.32
34.734,39.09
34.750,34.55
34.765,30.52
34.781,27.85
34.796,26.19
34.812,24.28
34.828,20.86
34.843,15.29
34.859,7.98
34.875,0.07
34.890,-7.06
34.906,-12.5
34.921,-16.19
34.937,-18.74
34.953,-20.89
34.968,-22.98
34.984,-24.6
35.000,-24.76
35.015,-22.63
35.031,-18.05
35.046,-11.79
35.062,-5.21
35.078,0.32
35.093,4.04
35.109,6.16
35.125,7.55
35.140,9.25
35.156,11.76
35.171,14.95
35.187,17.96
35.203,19.99
35.218,20.64
35.234,20.16
35.250,19.24
35.265,18.68
35.281,18.82
35.296,19.32
35.312,19.49
35.328,18.62
35.343,16.56
35.359,13.86
35.375,11.41
35.390,9.96
35.406,9.57
35.421,9.69
35.437,9.18
35.453,7.21
35.468,3.63
35.484,-0.9
35.500,-5.26
35.515,-8.5
35.531,-10.35
35.546,-11.42
35.562,-12.74
35.578,-15.22
35.593,-19.04
35.609,-23.49
35.625,-27.47
35.640,-30.0
35.656,-30.77
35.671,-30.2
35.687,-29.17
35.703,-28.42
35.718,-28.05
35.734,-27.43
35.750,-25.52
35.765,-21.64
35.781,-15.84
35.796,-9.16
35.812,-3.08
35.828,1.04
35.843,2.86
35.859,3.07
35.875,3.04
35.890,4.02
35.906,6.39
35.921,9.5
35.937,12.01
35.953,12.95
35.968,12.24
35.984,10.81
36.000,10.02
36.015,10.78
36.031,12.99
36.046,15.51
36.062,16.85
36.078,16.01
36.093,12.91
36.109,8.52
36.125,4.14
36.140,0.65
36.156,-1.78
36.171,-3.73
36.187,-6.1
36.203,-9.37
36.218,-13.38
36.234,-17.4
36.250,-20.51
36.265,-22.22
36.281,-22.74
36.296,-22.92
36.312,-23.78
36.328,-25.96
36.343,-29.37
36.359,-33.12
36.375,-36.12
36.390,-37.59
36.406,-37.49
36.421,-36.6
36.437,-36.01
36.453,-36.58
36.468,-38.21
36.484,-40.04
36.500,-40.57
36.515,-38.57
36.531,-33.62
36.546,-26.27
36.562,-17.79
36.578,-9.47
36.593,-2.24
36.609,3.91
36.625,9.6
36.640,15.56
36.656,22.01
36.671,28.37
36.687,33.54
36.703,36.43
36.718,36.69
36.734,34.91
36.750,32.48
36.765,30.73
36.781,30.35
36.796,30.96
36.812,31.36
36.828,30.38
36.843,27.51
36.859,23.24
36.875,18.48
36.890,14.08
36.906,10.22
36.921,6.48
36.937,2.22
36.953,-2.86
36.968,-8.38
36.984,-13.75
37.000,-18.47
37.015,-22.5
37.031,-26.34
37.046,-30.72
37.062,-35.77
37.078,-40.95
37.093,-45.09
37.109,-46.95
37.125,-45.85
37.140,-42.13
37.156,-36.92
37.171,-31.82
37.187,-28.11
37.203,-26.1
37.218,-24.94
37.234,-22.92
37.250,-17.99
37.265,-8.72
37.281,5.14
37.296,22.38
37.312,40.62
37.328,57.13
37.343,69.6
37.359,76.83
37.375,78.94
37.390,76.89
37.406,71.85
37.421,64.78
37.437,56.16
37.453,46.28
37.468,35.74
37.484,25.56
37.500,16.98
37.515,11.06
37.531,8.24
37.546,7.75
37.562,8.19
37.578,7.94
37.593,5.95
37.609,2.05
37.625,-2.79
37.640,-7.04
37.656,-9.22
37.671,-8.58
37.687,-5.43
37.703,-0.85
37.718,3.78
37.734,7.46
37.750,9.85
37.765,11.07
37.781,11.4
37.796,10.8
37.812,8.96
37.828,5.43
37.843,0.43
37.859,-5.23
37.875,-10.19
37.890,-13.38
37.906,-14.41
37.921,-13.96
37.937,-13.26
37.953,-13.47
37.968,-15.06
37.984,-17.73
38.000,-20.58
38.015,-22.71
38.031,-23.74
38.046,-23.94
38.062,-23.93
38.078,-24.18
38.093,-24.54
38.109,-24.29
38.125,-22.6
38.140,-19.0
38.156,-13.88
38.171,-8.26
38.187,-3.43
38.203,-0.05
38.218,2.01
38.234,3.53
38.250,5.61
38.265,8.78
38.281,12.82
38.296,16.61
38.312,19.07
38.328,19.47
38.343,18.1
38.359,15.94
38.375,14.28
38.390,13.88
38.406,14.73
38.421,16.04
38.437,16.7
38.453,16.07
38.468,14.34
38.484,12.29
38.500,10.8
38.515,10.46
38.531,10.94
38.546,11.23
38.562,10.18
38.578,7.23
38.593,2.71
38.609,-2.31
38.625,-6.54
38.640,-9.22
38.656,-10.44
38.671,-11.07
38.687,-12.22
38.703,-14.64
38.718,-18.14
38.734,-21.84
38.750,-24.66
38.765,-25.88
38.781,-25.65
38.796,-24.85
38.812,-24.45
38.828,-25.07
38.843,-26.45
38.859,-27.63
38.875,-27.52
38.890,-25.55
38.906,-21.99
38.921,-17.92
38.937,-14.57
38.953,-12.62
38.968,-11.84
38.984,-11.26
39.000,-9.83
39.015,-7.03
39.031,-3.26
39.046,0.42
39.062,2.81
39.078,3.25
39.093,2.12
39.109,0.5
39.125,-0.4
39.140,0.09
39.156,1.71
39.171,3.42
39.187,4.11
39.203,3.23
39.218,1.0
39.234,-1.56
39.250,-3.24
39.265,-3.42
39.281,-2.3
39.296,-0.91
39.312,-0.28
39.328,-1.1
39.343,-3.15
39.359,-5.58
39.375,-7.29
39.390,-7.79
39.406,-7.36
39.421,-6.89
39.437,-7.5
39.453,-9.61
39.468,-12.93
39.484,-16.42
39.500,-18.98
39.515,-19.99
39.531,-19.76
39.546,-19.28
39.562,-19.52
39.578,-20.97
39.593,-23.13
39.609,-24.89
39.625,-25.05
39.640,-22.98
39.656,-19.02
39.671,-14.19
39.687,-9.75
39.703,-6.33
39.718,-3.86
39.734,-1.51
39.750,1.67
39.765,6.05
39.781,11.31
39.796,16.18
39.812,19.58
39.828,20.77
39.843,20.14
39.859,18.8
39.875,18.15
39.890,19.01
39.906,21.12
39.921,23.56
39.937,25.03
39.953,25.01
39.968,23.68
39.984,22.19
40.000,21.64
40.015,22.57
40.031,24.53
40.046,26.27
40.062,26.66
40.078,24.91
40.093,21.44
40.109,17.36
40.125,14.0
40.140,12.18
40.156,11.78
40.171,11.87
40.187,11.26
40.203,9.3
40.218,6.05
40.234,2.36
40.250,-0.65
40.265,-2.4
40.281,-3.03
40.296,-3.44
40.312,-4.59
40.328,-6.89
40.343,-9.87
40.359,-12.47
40.375,-13.41
40.390,-12.01
40.406,-8.7
40.421,-4.62
40.437,-1.1
40.453,1.21
40.468,2.63
40.484,4.17
40.500,6.71
40.515,10.66
40.531,15.4
40.546,19.52
40.562,21.93
40.578,22.16
40.593,20.71
40.609,18.89
40.625,17.84
40.640,18.02
40.656,19.08
40.671,20.0
40.687,19.74
40.703,18.03
40.718,15.36
40.734,12.68
40.750,11.03
40.765,10.69
40.781,11.16
40.796,11.55
40.812,11.0
40.828,9.27
40.843,6.85
40.859,4.53
40.875,3.0
40.890,2.54
40.906,2.62
40.921,2.34
40.937,0.96
40.953,-1.77
40.968,-5.37
40.984,-8.81
41.000,-11.31
41.015,-12.73
41.031,-13.56
41.046,-14.85
41.062,-17.46
41.078,-21.28
41.093,-25.45
41.109,-28.54
41.125,-29.35
41.140,-27.64
41.156,-24.13
41.171,-20.08
41.187,-16.63
41.203,-14.21
41.218,-12.16
41.234,-9.61
41.250,-5.8
41.265,-0.81
41.281,4.4
41.296,8.57
41.312,10.73
41.328,10.83
41.343,9.68
41.359,8.61
41.375,8.51
41.390,9.59
41.406,11.23
41.421,12.37
41.437,12.26
41.453,10.83
41.468,8.74
41.484,6.94
41.500,6.17
41.515,6.42
41.531,6.89
41.546,6.61
41.562,4.85
41.578,1.76
41.593,-1.9
41.609,-5.03
41.625,-6.78
41.640,-7.18
41.656,-7.01
41.671,-7.37
41.687,-8.98
41.703,-11.99
41.718,-15.56
41.734,-18.79
41.750,-21.0
41.765,-22.23
41.781,-23.35
41.796,-25.25
41.812,-28.43
41.828,-32.45
41.843,-36.22
41.859,-38.28
41.875,-37.8
41.890,-34.84
41.906,-30.33
41.921,-25.63
41.937,-21.6
41.953,-18.48
41.968,-15.69
41.984,-12.47
42.000,-8.26
42.015,-3.25
42.031,1.65
42.046,5.4
42.062,7.2
42.078,7.37
42.093,6.75
42.109,6.41
42.125,7.05
42.140,8.67
42.156,10.56
42.171,11.79
42.187,11.93
42.203,11.3
42.218,10.81
42.234,11.46
42.250,13.6
42.265,16.76
42.281,19.61
42.296,20.9
42.312,19.99
42.328,17.45
42.343,14.55
42.359,12.65
42.375,12.51
42.390,13.83
42.406,15.38
42.421,15.77
42.437,14.07
42.453,10.53
42.468,6.34
42.484,2.84
42.500,0.96
42.515,0.77
42.531,1.54
42.546,2.28
42.562,2.4
42.578,2.15
42.593,2.69
42.609,5.43
42.625,11.12
42.640,19.47
42.656,29.39
42.671,39.41
42.687,47.86
42.703,53.97
42.718,57.96
42.734,61.05
42.750,64.54
42.765,69.21
42.781,75.06
42.796,81.72
42.812,88.95
42.828,96.01
42.843,102.58
42.859,108.81
42.875,115.42
42.890,123.17
42.906,131.89
42.921,140.82
42.937,149.14
42.953,156.64
42.968,162.2
42.984,164.71
43.000,163.05
43.015,156.53
43.031,144.42
43.046,125.9
43.062,100.65
43.078,69.44
43.093,34.11
43.109,-5.5
43.125,-51.27
43.140,-105.89
43.156,-170.72
43.171,-244.72
43.187,-324.66
43.203,-405.89
43.218,-483.49
43.234,-539.36
43.250,-557.14
43.265,-530.03
43.281,-466.15
43.296,-382.77
43.312,-295.6
43.328,-213.44
43.343,-139.28
43.359,-73.55
43.375,-16.4
43.390,29.93
43.406,63.02
43.421,82.07
43.437,89.46
43.453,89.73
43.468,87.45
43.484,85.85
43.500,86.64
43.515,90.1
43.531,94.14
43.546,96.01
43.562,93.85
43.578,88.21
43.593,81.06
43.609,74.69
43.625,70.62
43.640,69.67
43.656,71.82
43.671,76.19
43.687,81.79
43.703,87.68
43.718,94.64
43.734,104.06
43.750,117.06
43.765,133.77
43.781,153.93
43.796,175.24
43.812,194.78
43.828,209.2
43.843,215.74
43.859,213.02
43.875,200.75
43.890,179.58
43.906,149.7
43.921,114.36
43.937,76.54
43.953,39.02
43.968,3.54
43.984,-28.75
44.000,-56.92
44.015,-80.53
44.031,-99.65
44.046,-113.92
44.062,-123.88
44.078,-131.39
44.093,-135.03
44.109,-134.02
44.125,-128.1
44.140,-117.31
44.156,-102.48
44.171,-84.87
44.187,-65.62
44.203,-46.48
44.218,-29.2
44.234,-14.9
44.250,-4.51
44.265,1.18
44.281,2.41
44.296,-0.01
44.312,-4.48
44.328,-8.9
44.343,-11.17
44.359,-9.22
44.375,-1.52
44.390,12.09
44.406,30.36
44.421,51.08
44.437,71.88
44.453,90.54
44.468,106.11
44.484,118.43
44.500,128.29
44.515,136.83
44.531,144.37
44.546,150.39
44.562,153.57
44.578,152.16
44.593,144.85
44.609,131.27
44.625,111.89
44.640,87.34
44.656,57.29
44.671,25.31
44.687,-7.74
44.703,-41.74
44.718,-76.82
44.734,-112.77
44.750,-149.39
44.765,-186.85
44.781,-224.64
44.796,-260.8
44.812,-291.21
44.828,-310.65
44.843,-313.73
44.859,-297.4
44.875,-262.56
44.890,-215.03
44.906,-163.87
44.921,-118.11
44.937,-83.74
44.953,-62.65
44.968,-53.57
44.984,-52.92
45.000,-56.35
45.015,-59.55
45.031,-58.16
45.046,-47.71
45.062,-23.22
45.078,19.4
45.093,81.44
45.109,159.17
45.125,243.7
45.140,322.23
45.156,381.87
45.171,414.15
45.187,417.37
45.203,397.31
45.218,364.22
45.234,328.7
45.250,297.84
45.265,273.76
45.281,254.51
45.296,236.8
45.312,218.44
45.328,198.95
45.343,179.57
45.359,161.27
45.375,144.29
45.390,127.98
45.406,111.12
45.421,93.1
45.437,74.07
45.453,55.13
45.468,37.39
45.484,21.42
45.500,6.61
45.515,-8.47
45.531,-25.06
45.546,-43.02
45.562,-60.33
45.578,-73.99
45.593,-81.4
45.609,-82.05
45.625,-78.01
45.640,-73.35
45.656,-72.65
45.671,-78.81
45.687,-92.38
45.703,-111.93
45.718,-134.6
45.734,-157.33
45.750,-177.74
45.765,-194.43
45.781,-207.17
45.796,-217.0
45.812,-225.75
45.828,-236.16
45.843,-250.76
45.859,-271.16
45.875,-297.87
45.890,-330.37
45.906,-367.73
45.921,-408.43
45.937,-450.07
45.953,-489.45
45.968,-523.27
45.984,-549.55
46.000,-569.02
46.015,-584.83
46.031,-600.45
46.046,-616.98
46.062,-631.14
46.078,-636.16
46.093,-624.78
46.109,-593.21
46.125,-543.37
46.140,-482.28
46.156,-418.95
46.171,-360.32
46.187,-309.03
46.203,-264.37
46.218,-223.99
46.234,-186.47
46.250,-152.2
46.265,-122.52
46.281,-98.32
46.296,-79.29
46.312,-63.68
46.328,-49.57
46.343,-35.58
46.359,-21.49
46.375,-8.22
46.390,2.71
46.406,10.37
46.421,14.79
46.437,16.94
46.453,18.43
46.468,20.68
46.484,24.53
46.500,29.89
46.515,36.01
46.531,41.66
46.546,46.2
46.562,49.61
46.578,52.29
46.593,55.06
46.609,58.45
46.625,62.65
46.640,67.35
46.656,72.22
46.671,76.89
46.687,81.66
46.703,87.04
46.718,93.51
46.734,101.43
46.750,110.52
46.765,120.09
46.781,129.18
46.796,137.22
46.812,144.27
46.828,150.9
46.843,158.02
46.859,166.02
46.875,174.65
46.890,182.56
46.906,188.07
46.921,189.97
46.937,188.32
46.953,184.67
46.968,181.73
46.984,182.38
47.000,188.28
47.015,199.28
47.031,213.24
47.046,227.24
47.062,238.9
47.078,247.32
47.093,253.84
47.109,261.17
47.125,272.4
47.140,289.51
47.156,313.01
47.171,341.47
47.187,371.69
47.203,399.01
47.218,417.75
47.234,422.33
47.250,408.78
47.265,376.51
47.281,328.89
47.296,272.99
47.312,217.09
47.328,167.53
47.343,126.51
47.359,91.2
47.375,56.2
47.390,17.11
47.406,-26.03
47.421,-68.03
47.437,-101.15
47.453,-119.84
47.468,-124.05
47.484,-119.9
47.500,-116.51
47.515,-121.06
47.531,-134.71
47.546,-151.65
47.562,-161.6
47.578,-155.58
47.593,-130.27
47.609,-89.23
47.625,-40.48
47.640,7.45
47.656,49.31
47.671,84.11
47.687,114.05
47.703,143.17
47.718,173.95
47.734,206.07
47.750,237.41
47.765,264.74
47.781,285.12
47.796,296.73
47.812,298.34
47.828,290.12
47.843,276.23
47.859,262.12
47.875,252.2
47.890,248.44
47.906,249.94
47.921,253.5
47.937,255.19
47.953,251.62
47.968,240.85
47.984,227.31
48.000,215.46
48.015,206.65
48.031,199.09
48.046,190.07
48.062,178.92
48.078,167.53
48.093,158.14
48.109,151.27
48.125,153.06
48.140,166.98
48.156,192.43
48.171,225.2
48.187,260.13
48.203,293.78
48.218,324.11
48.234,349.28
48.250,368.39
48.265,391.7
48.281,428.26
48.296,481.67
48.312,547.81
48.328,618.71
48.343,688.1
48.359,754.27
48.375,818.51
48.390,821.18
48.406,727.77
48.421,539.1
48.437,292.98
48.453,38.43
48.468,-190.4
48.484,-379.46
48.500,-527.24
48.515,-638.78
48.531,-721.6
48.546,-773.17
48.562,-792.18
48.578,-782.1
48.593,-752.04
48.609,-713.77
48.625,-677.25
48.640,-648.19
48.656,-629.44
48.671,-621.63
48.687,-616.35
48.703,-606.11
48.718,-587.63
48.734,-562.88
48.750,-536.64
48.765,-513.87
48.781,-495.77
48.796,-481.91
48.812,-471.17
48.828,-457.49
48.843,-436.21
48.859,-406.14
48.875,-369.8
48.890,-331.89
48.906,-296.68
48.921,-266.73
48.937,-243.39
48.953,-227.01
48.968,-214.98
48.984,-204.76
49.000,-195.01
49.015,-185.61
49.031,-177.35
49.046,-170.98
49.062,-166.44
49.078,-163.39
49.093,-161.19
49.109,-157.74
49.125,-150.84
49.140,-141.51
49.156,-130.1
49.171,-117.06
49.187,-102.95
49.203,-87.93
49.218,-72.44
49.234,-56.8
49.250,-41.23
49.265,-25.75
49.281,-10.24
49.296,5.95
49.312,23.21
49.328,41.47
49.343,60.2
49.359,78.43
49.375,95.02
49.390,109.13
49.406,120.43
49.421,129.2
49.437,136.47
49.453,143.39
49.468,150.72
49.484,158.9
49.500,168.04
49.515,178.19
49.531,189.72
49.546,203.16
49.562,219.25
49.578,238.79
49.593,262.22
49.609,289.55
49.625,320.51
49.640,353.97
49.656,387.59
49.671,417.8
49.687,439.75
49.703,448.96
49.718,442.62
49.734,420.9
49.750,387.06
49.765,346.38
49.781,304.32
49.796,264.98
49.812,230.58
49.828,201.52
49.843,177.27
49.859,157.09
49.875,140.24
49.890,125.62
49.906,111.59
49.921,96.23
49.937,77.78
49.953,55.5
49.968,29.91
49.984,3.05
50.000,-22.1
50.015,-42.35
50.031,-55.31
50.046,-60.22
50.062,-58.18
50.078,-51.96
50.093,-45.15
50.109,-41.2
50.125,-42.35
50.140,-49.31
50.156,-61.39
50.171,-76.99
50.187,-94.31
50.203,-111.74
50.218,-128.08
50.234,-142.64
50.250,-154.94
50.265,-164.48
50.281,-170.61
50.296,-172.73
50.312,-170.53
50.328,-164.18
50.343,-154.54
50.359,-142.98
50.375,-130.93
50.390,-119.39
50.406,-108.88
50.421,-99.09
50.437,-89.48
50.453,-79.6
50.468,-69.5
50.484,-59.76
50.500,-51.09
50.515,-43.74
50.531,-37.47
50.546,-31.54
50.562,-25.23
50.578,-18.29
50.593,-11.25
50.609,-5.25
50.625,-1.46
50.640,-0.48
50.656,-1.81
50.671,-4.27
50.687,-6.35
50.703,-7.1
50.718,-6.46
50.734,-5.1
50.750,-3.96
50.765,-3.58
50.781,-3.89
50.796,-4.08
50.812,-3.28
50.828,-1.01
50.843,2.25
50.859,5.36
50.875,7.13
50.890,6.87
50.906,4.89
50.921,2.21
50.937,0.16
50.953,-0.44
50.968,0.39
50.984,1.75
51.000,2.5
51.015,2.04
51.031,0.49
51.046,-1.11
51.062,-1.7
51.078,-0.52
51.093,2.26
51.109,5.65
51.125,8.41
51.140,9.69
51.156,9.6
51.171,8.89
51.187,8.74
51.203,9.76
51.218,11.79
51.234,13.9
51.250,14.86
51.265,13.87
51.281,11.09
51.296,7.56
51.312,4.72
51.328,3.81
51.343,5.03
51.359,7.5
51.375,9.73
51.390,10.09
51.406,7.74
51.421,2.78
51.437,-4.01
51.453,-11.61
51.468,-19.17
51.484,-26.36
51.500,-33.19
51.515,-39.51
51.531,-44.85
51.546,-48.34
51.562,-49.24
51.578,-47.34
51.593,-43.12
51.609,-37.84
51.625,-32.86
51.640,-29.08
51.656,-26.51
51.671,-24.41
51.687,-21.66
51.703,-17.61
51.718,-12.47
51.734,-7.29
51.750,-3.34
51.765,-1.36
51.781,-1.2
51.796,-1.89
51.812,-2.23
51.828,-1.59
51.843,-0.28
51.859,0.72
51.875,0.47
51.890,-1.43
51.906,-4.37
51.921,-7.25
51.937,-9.08
51.953,-9.56
51.968,-9.38
51.984,-9.69
52.000,-11.44
52.015,-14.92
52.031,-19.42
52.046,-23.75
52.062,-26.79
52.078,-28.08
52.093,-27.77
52.109,-26.54
52.125,-25.12
52.140,-23.74
52.156,-22.39
52.171,-20.76
52.187,-18.68
52.203,-16.2
52.218,-13.78
52.234,-11.88
52.250,-10.76
52.265,-10.35
52.281,-10.03
52.296,-9.16
52.312,-7.3
52.328,-4.48
52.343,-1.32
52.359,1.21
52.375,2.35
52.390,1.84
52.406,0.14
52.421,-1.77
52.437,-2.99
52.453,-3.02
52.468,-2.05
52.484,-0.83
52.500,-0.05
52.515,-0.03
52.531,-0.3
52.546,-0.04
52.562,1.64
52.578,4.98
52.593,9.36
52.609,13.74
52.625,16.86
52.640,18.24
52.656,18.16
52.671,17.58
52.687,17.32
52.703,17.75
52.718,18.32
52.734,17.86
52.750,15.5
52.765,11.09
52.781,5.37
52.796,-0.27
52.812,-4.6
52.828,-7.0
52.843,-7.78
52.859,-7.76
52.875,-7.84
52.890,-8.38
52.906,-9.12
52.921,-9.38
52.937,-8.47
52.953,-6.32
52.968,-3.44
52.984,-0.9
53.000,0.38
53.015,0.02
53.031,-1.43
53.046,-3.03
53.062,-3.76
53.078,-3.15
53.093,-1.67
53.109,-0.17
53.125,0.49
53.140,0.04
53.156,-0.99
53.171,-1.64
53.187,-1.12
53.203,0.7
53.218,3.39
53.234,5.93
53.250,7.49
53.265,7.78
53.281,7.21
53.296,6.48
53.312,6.22
53.328,6.64
53.343,7.36
53.359,7.76
53.375,7.36
53.390,6.2
53.406,4.73
53.421,3.56
53.437,3.06
53.453,2.99
53.468,2.62
53.484,1.18
53.500,-1.57
53.515,-5.02
53.531,-7.77
53.546,-8.37
53.562,-6.08
53.578,-1.28
53.593,4.54
53.609,9.63
53.625,12.95
53.640,14.74
53.656,16.48
53.671,20.24
53.687,27.61
53.703,38.71
53.718,52.4
53.734,66.44
53.750,78.87
53.765,88.79
53.781,97.0
53.796,105.33
53.812,115.75
53.828,129.18
53.843,144.76
53.859,160.19
53.875,172.6
53.890,180.07
53.906,182.37
53.921,181.03
53.937,178.34
53.953,176.18
53.968,175.13
53.984,174.22
54.000,171.65
54.015,165.31
54.031,153.02
54.046,132.78
54.062,102.65
54.078,61.53
54.093,10.35
54.109,-47.02
54.125,-103.81
54.140,-151.91
54.156,-184.84
54.171,-200.12
54.187,-199.65
54.203,-188.4
54.218,-171.5
54.234,-152.39
54.250,-132.47
54.265,-112.16
54.281,-91.95
54.296,-73.16
54.312,-57.97
54.328,-47.79
54.343,-42.39
54.359,-39.94
54.375,-38.0
54.390,-34.35
54.406,-27.38
54.421,-16.0
54.437,0.15
54.453,18.67
54.468,35.07
54.484,43.95
54.500,41.79
54.515,29.23
54.531,11.2
54.546,-5.15
54.562,-14.52
54.578,-16.49
54.593,-17.59
54.609,-27.49
54.625,-53.59
54.640,-96.63
54.656,-150.52
54.671,-205.79
54.687,-254.41
54.703,-293.87
54.718,-318.34
54.734,-324.93
54.750,-313.52
54.765,-286.93
54.781,-249.07
54.796,-203.25
54.812,-151.98
54.828,-97.36
54.843,-42.71
54.859,9.15
54.875,55.22
54.890,93.79
54.906,124.5
54.921,148.6
54.937,167.85
54.953,182.59
54.968,194.01
54.984,200.96
55.000,203.23
55.015,201.45
55.031,196.52
55.046,190.04
55.062,183.1
55.078,175.46
55.093,165.14
55.109,150.29
55.125,128.97
55.140,102.19
55.156,73.02
55.171,43.65
55.187,15.45
55.203,-11.28
55.218,-34.28
55.234,-52.15
55.250,-63.67
55.265,-70.76
55.281,-76.18
55.296,-82.93
55.312,-96.17
55.328,-119.67
55.343,-154.81
55.359,-199.99
55.375,-251.39
55.390,-303.17
55.406,-353.06
55.421,-399.8
55.437,-427.11
55.453,-422.12
55.468,-379.45
55.484,-305.18
55.500,-212.36
55.515,-122.08
55.531,-34.75
55.546,50.05
55.562,130.86
55.578,205.52
55.593,267.36
55.609,309.39
55.625,328.34
55.640,319.83
55.656,288.47
55.671,248.22
55.687,211.97
55.703,186.42
55.718,170.46
55.734,156.31
55.750,136.32
55.765,107.96
55.781,74.52
55.796,43.22
55.812,20.9
55.828,8.25
55.843,2.2
55.859,-1.0
55.875,-4.83
55.890,-10.5
55.906,-17.03
55.921,-22.98
55.937,-26.36
55.953,-26.0
55.968,-23.72
55.984,-21.95
56.000,-22.17
56.015,-25.18
56.031,-30.64
56.046,-37.54
56.062,-44.87
56.078,-51.91
56.093,-58.47
56.109,-65.56
56.125,-74.15
56.140,-84.24
56.156,-94.99
56.171,-104.9
56.187,-112.8
56.203,-116.95
56.218,-116.09
56.234,-109.86
56.250,-99.0
56.265,-84.76
56.281,-68.51
56.296,-51.52
56.312,-35.2
56.328,-20.65
56.343,-8.76
56.359,-0.13
56.375,5.04
56.390,7.03
56.406,6.5
56.421,4.33
56.437,1.32
56.453,-2.17
56.468,-5.74
56.484,-9.13
56.500,-12.02
56.515,-13.94
56.531,-14.2
56.546,-12.35
56.562,-8.23
56.578,-2.23
56.593,4.61
56.609,11.55
56.625,17.92
56.640,23.61
56.656,29.17
56.671,35.75
56.687,44.81
56.703,58.01
56.718,76.94
56.734,99.96
56.750,125.67
56.765,151.44
56.781,173.34
56.796,186.93
56.812,188.56
56.828,176.6
56.843,152.17
56.859,118.89
56.875,81.42
56.890,44.64
56.906,11.69
56.921,-16.31
56.937,-39.53
56.953,-58.6
56.968,-74.08
56.984,-86.2
57.000,-95.05
57.015,-101.32
57.031,-105.82
57.046,-109.68
57.062,-113.84
57.078,-118.22
57.093,-121.69
57.109,-122.21
57.125,-117.85
57.140,-107.58
57.156,-92.05
57.171,-73.31
57.187,-54.14
57.203,-37.16
57.218,-23.85
57.234,-14.48
57.250,-8.21
57.265,-3.97
57.281,-0.65
57.296,2.41
57.312,5.57
57.328,9.08
57.343,13.13
57.359,18.0
57.375,23.88
57.390,30.85
57.406,38.76
57.421,47.3
57.437,55.75
57.453,63.25
57.468,68.98
57.484,72.45
57.500,73.7
57.515,73.25
57.531,71.62
57.546,68.94
57.562,64.79
57.578,58.45
57.593,49.68
57.609,39.22
57.625,28.8
57.640,20.53
57.656,15.99
57.671,15.36
57.687,17.48
57.703,20.48
57.718,22.75
57.734,23.63
57.750,23.55
57.765,23.39
57.781,23.9
57.796,25.3
57.812,27.22
57.828,29.0
57.843,30.16
57.859,30.48
57.875,30.18
57.890,29.75
57.906,29.58
57.921,29.77
57.937,29.91
57.953,29.21
57.968,26.69
57.984,22.01
58.000,15.63
58.015,8.81
58.031,3.14
58.046,-0.26
58.062,-1.22
58.078,-0.64
58.093,0.08
58.109,-0.32
58.125,-2.25
58.140,-5.28
58.156,-8.46
58.171,-10.95
58.187,-12.51
58.203,-13.57
58.218,-14.83
58.234,-16.7
58.250,-18.75
58.265,-19.89
58.281,-18.91
58.296,-15.19
58.312,-9.14
58.328,-2.08
58.343,4.42
58.359,9.2
58.375,12.06
58.390,13.67
58.406,14.94
58.421,16.38
58.437,17.75
58.453,18.31
58.468,17.24
58.484,14.37
58.500,10.3
58.515,6.13
58.531,2.93
58.546,0.99
58.562,-0.04
58.578,-1.13
58.593,-3.06
58.609,-6.08
58.625,-9.46
58.640,-12.03
58.656,-12.67
58.671,-10.96
58.687,-7.42
58.703,-3.33
58.718,-0.03
58.734,1.53
58.750,1.27
58.765,-0.11
58.781,-1.72
58.796,-3.03
58.812,-4.12
58.828,-5.69
58.843,-8.36
58.859,-12.17
58.875,-16.42
58.890,-19.88
58.906,-21.37
58.921,-20.32
58.937,-17.23
58.953,-13.13
58.968,-9.29
58.984,-6.52
59.000,-4.73
59.015,-3.23
59.031,-1.13
59.046,1.95
59.062,5.68
59.078,9.04
59.093,11.0
59.109,11.04
59.125,9.48
59.140,7.4
59.156,5.98
59.171,5.91
59.187,7.1
59.203,8.69
59.218,9.77
59.234,9.78
59.250,8.86
59.265,7.84
59.281,7.64
59.296,8.58
59.312,10.41
59.328,12.2
59.343,12.87
59.359,11.88
59.375,9.49
59.390,6.48
59.406,3.78
59.421,1.99
59.437,0.85
59.453,-0.51
59.468,-2.9
59.484,-6.84
59.500,-12.11
59.515,-17.85
59.531,-23.1
59.546,-27.38
59.562,-30.78
59.578,-33.99
59.593,-37.68
59.609,-41.9
59.625,-45.84
59.640,-48.0
59.656,-46.92
59.671,-41.89
59.687,-33.49
59.703,-23.25
59.718,-13.02
59.734,-4.03
59.750,3.46
59.765,10.16
59.781,17.17
59.796,24.98
59.812,33.4
59.828,41.45
59.843,48.11
59.859,52.86
59.875,55.85
59.890,57.64
59.906,58.62
59.921,58.83
59.937,58.0
59.953,55.89
59.968,52.89
59.984,49.74
