timestamp,value
00.000,19.61
00.015,21.55
00.031,20.41
00.046,17.56
00.062,14.53
00.078,12.23
00.093,10.72
00.109,9.62
00.125,8.42
00.140,6.97
00.156,5.47
00.171,4.5
00.187,4.36
00.203,4.77
00.218,4.84
00.234,3.29
00.250,-0.75
00.265,-7.23
00.281,-14.88
00.296,-21.81
00.312,-26.17
00.328,-27.21
00.343,-25.61
00.359,-22.98
00.375,-21.08
00.390,-20.71
00.406,-21.43
00.421,-21.74
00.437,-20.37
00.453,-16.91
00.468,-12.43
00.484,-8.78
00.500,-7.34
00.515,-8.43
00.531,-10.75
00.546,-12.41
00.562,-11.77
00.578,-8.59
00.593,-4.2
00.609,-0.54
00.625,0.96
00.640,0.38
00.656,-0.75
00.671,-0.23
00.687,3.52
00.703,10.39
00.718,18.41
00.734,24.79
00.750,27.22
00.765,24.96
00.781,19.24
00.796,12.32
00.812,6.47
00.828,2.69
00.843,0.43
00.859,-1.82
00.875,-5.29
00.890,-9.93
00.906,-14.38
00.921,-16.62
00.937,-15.47
00.953,-11.3
00.968,-6.15
00.984,-2.75
01.000,-2.93
01.015,-6.78
01.031,-12.53
01.046,-17.88
01.062,-21.14
01.078,-22.27
01.093,-22.6
01.109,-23.78
01.125,-26.6
01.140,-30.38
01.156,-33.4
01.171,-34.0
01.187,-31.65
01.203,-27.37
01.218,-23.26
01.234,-21.27
01.250,-22.12
01.265,-24.89
01.281,-27.41
01.296,-27.64
01.312,-24.48
01.328,-18.5
01.343,-11.36
01.359,-4.8
01.375,0.51
01.390,5.49
01.406,11.99
01.421,21.57
01.437,34.11
01.453,47.78
01.468,59.5
01.484,66.58
01.500,67.8
01.515,63.81
01.531,56.53
01.546,47.94
01.562,39.26
01.578,30.58
01.593,21.37
01.609,11.32
01.625,0.86
01.640,-8.8
01.656,-16.1
01.671,-19.75
01.687,-19.29
01.703,-15.27
01.718,-9.25
01.734,-3.18
01.750,0.98
01.765,1.95
01.781,-0.36
01.796,-5.28
01.812,-11.85
01.828,-19.29
01.843,-27.41
01.859,-36.23
01.875,-45.31
01.890,-53.52
01.906,-58.97
01.921,-59.64
01.937,-54.43
01.953,-43.96
01.968,-30.43
01.984,-16.95
02.000,-6.27
02.015,0.22
02.031,2.82
02.046,2.97
02.062,2.27
02.078,1.61
02.093,0.72
02.109,-1.05
02.125,-4.01
02.140,-7.55
02.156,-10.08
02.171,-9.67
02.187,-5.23
02.203,2.8
02.218,12.46
02.234,21.28
02.250,27.21
02.265,29.47
02.281,28.72
02.296,26.43
02.312,23.94
02.328,21.84
02.343,19.84
02.359,17.3
02.375,14.03
02.390,10.74
02.406,8.94
02.421,10.02
02.437,14.45
02.453,21.14
02.468,27.64
02.484,31.24
02.500,30.22
02.515,24.54
02.531,15.87
02.546,6.81
02.562,-0.38
02.578,-4.63
02.593,-6.32
02.609,-6.63
02.625,-6.41
02.640,-5.72
02.656,-3.83
02.671,0.11
02.687,6.28
02.703,13.56
02.718,19.82
02.734,23.04
02.750,22.1
02.765,17.49
02.781,11.07
02.796,5.03
02.812,1.01
02.828,-0.63
02.843,-0.8
02.859,-0.94
02.875,-2.08
02.890,-4.32
02.906,-6.7
02.921,-7.82
02.937,-6.93
02.953,-4.24
02.968,-1.01
02.984,1.09
03.000,1.07
03.015,-0.95
03.031,-3.84
03.046,-6.11
03.062,-6.69
03.078,-5.78
03.093,-4.58
03.109,-4.62
03.125,-6.84
03.140,-10.98
03.156,-15.66
03.171,-19.13
03.187,-20.1
03.203,-18.41
03.218,-15.28
03.234,-12.29
03.250,-10.66
03.265,-10.68
03.281,-11.52
03.296,-11.91
03.312,-11.14
03.328,-9.48
03.343,-8.15
03.359,-8.67
03.375,-11.8
03.390,-17.03
03.406,-22.74
03.421,-26.66
03.437,-27.15
03.453,-23.95
03.468,-18.05
03.484,-11.23
03.500,-5.15
03.515,-0.4
03.531,3.29
03.546,6.53
03.562,9.75
03.578,12.47
03.593,13.46
03.609,11.62
03.625,6.54
03.640,-0.93
03.656,-8.74
03.671,-14.66
03.687,-17.03
03.703,-15.47
03.718,-11.02
03.734,-5.52
03.750,-0.55
03.765,2.99
03.781,5.1
03.796,6.39
03.812,7.26
03.828,7.49
03.843,6.43
03.859,3.26
03.875,-2.21
03.890,-8.97
03.906,-15.31
03.921,-19.35
03.937,-19.75
03.953,-16.57
03.968,-11.13
03.984,-5.09
04.000,-0.09
04.015,3.25
04.031,5.28
04.046,6.76
04.062,8.2
04.078,9.55
04.093,10.11
04.109,9.07
04.125,6.41
04.140,2.78
04.156,-0.3
04.171,-1.31
04.187,0.55
04.203,4.93
04.218,10.48
04.234,15.58
04.250,19.09
04.265,20.86
04.281,21.53
04.296,21.87
04.312,22.14
04.328,21.76
04.343,19.66
04.359,15.01
04.375,7.88
04.390,-0.56
04.406,-8.14
04.421,-12.87
04.437,-13.53
04.453,-10.26
04.468,-4.46
04.484,2.09
04.500,7.79
04.515,11.85
04.531,14.13
04.546,14.93
04.562,14.32
04.578,12.12
04.593,7.93
04.609,1.59
04.625,-6.42
04.640,-14.96
04.656,-22.45
04.671,-27.36
04.687,-28.73
04.703,-26.51
04.718,-21.71
04.734,-15.72
04.750,-9.96
04.765,-5.38
04.781,-2.1
04.796,0.27
04.812,2.24
04.828,3.88
04.843,4.59
04.859,3.52
04.875,0.38
04.890,-4.18
04.906,-8.39
04.921,-10.06
04.937,-7.5
04.953,-0.4
04.968,10.14
04.984,22.04
05.000,33.25
05.015,42.54
05.031,49.86
05.046,55.86
05.062,61.15
05.078,65.85
05.093,69.28
05.109,70.49
05.125,68.92
05.140,64.69
05.156,58.65
05.171,51.94
05.187,45.31
05.203,38.63
05.218,30.95
05.234,20.99
05.250,7.98
05.265,-7.84
05.281,-25.07
05.296,-41.88
05.312,-56.7
05.328,-68.69
05.343,-78.1
05.359,-85.47
05.375,-91.21
05.390,-95.09
05.406,-96.33
05.421,-94.12
05.437,-88.24
05.453,-79.54
05.468,-69.76
05.484,-60.85
05.500,-54.19
05.515,-49.99
05.531,-47.21
05.546,-44.06
05.562,-38.97
05.578,-31.35
05.593,-21.72
05.609,-11.64
05.625,-2.47
05.640,4.99
05.656,11.03
05.671,16.64
05.687,22.85
05.703,29.94
05.718,37.15
05.734,43.37
05.750,47.69
05.765,50.16
05.781,51.84
05.796,54.1
05.812,57.88
05.828,63.06
05.843,68.4
05.859,72.21
05.875,73.22
05.890,71.08
05.906,66.59
05.921,60.91
05.937,54.92
05.953,48.65
05.968,41.18
05.984,31.34
06.000,18.32
06.015,2.38
06.031,-15.24
06.046,-32.72
06.062,-48.36
06.078,-61.13
06.093,-70.89
06.109,-78.11
06.125,-83.24
06.140,-86.45
06.156,-87.49
06.171,-85.92
06.187,-81.61
06.203,-74.93
06.218,-67.09
06.234,-59.43
06.250,-53.12
06.265,-48.45
06.281,-44.85
06.296,-41.32
06.312,-36.8
06.328,-30.89
06.343,-23.94
06.359,-16.84
06.375,-10.26
06.390,-4.32
06.406,1.63
06.421,8.59
06.437,17.2
06.453,27.29
06.468,37.7
06.484,46.83
06.500,53.32
06.515,56.7
06.531,57.6
06.546,57.25
06.562,56.77
06.578,56.57
06.593,56.32
06.609,55.13
06.625,52.24
06.640,47.56
06.656,41.65
06.671,35.37
06.687,29.4
06.703,23.78
06.718,17.88
06.734,10.88
06.750,2.18
06.765,-7.93
06.781,-18.43
06.796,-27.94
06.812,-35.32
06.828,-40.18
06.843,-42.93
06.859,-44.45
06.875,-45.48
06.890,-46.23
06.906,-46.25
06.921,-44.7
06.937,-41.05
06.953,-35.55
06.968,-29.21
06.984,-23.58
07.000,-19.96
07.015,-18.76
07.031,-19.38
07.046,-20.41
07.062,-20.4
07.078,-18.6
07.093,-15.22
07.109,-11.18
07.125,-7.42
07.140,-4.34
07.156,-1.67
07.171,1.15
07.187,4.52
07.203,8.09
07.218,10.9
07.234,12.03
07.250,11.24
07.265,9.31
07.281,7.85
07.296,8.44
07.312,11.87
07.328,17.73
07.343,24.48
07.359,30.35
07.375,34.13
07.390,35.59
07.406,35.47
07.421,35.0
07.437,35.2
07.453,36.25
07.468,37.64
07.484,38.38
07.500,37.69
07.515,35.37
07.531,31.85
07.546,27.88
07.562,24.02
07.578,20.32
07.593,16.18
07.609,10.81
07.625,3.7
07.640,-4.87
07.656,-13.76
07.671,-21.46
07.687,-26.73
07.703,-29.08
07.718,-28.98
07.734,-27.55
07.750,-25.86
07.765,-24.53
07.781,-23.54
07.796,-22.33
07.812,-20.62
07.828,-18.57
07.843,-16.88
07.859,-16.56
07.875,-18.06
07.890,-21.09
07.906,-24.59
07.921,-27.08
07.937,-27.37
07.953,-25.15
07.968,-21.08
07.984,-16.38
08.000,-12.26
08.015,-9.35
08.031,-7.47
08.046,-5.88
08.062,-3.92
08.078,-1.28
08.093,1.67
08.109,4.21
08.125,6.04
08.140,7.39
08.156,9.25
08.171,12.93
08.187,19.23
08.203,27.85
08.218,37.43
08.234,45.98
08.250,51.94
08.265,54.81
08.281,55.15
08.296,54.34
08.312,53.61
08.328,53.42
08.343,53.34
08.359,52.39
08.375,49.68
08.390,45.1
08.406,39.14
08.421,32.66
08.437,26.22
08.453,19.84
08.468,12.9
08.484,4.47
08.500,-5.83
08.515,-17.82
08.531,-30.4
08.546,-41.96
08.562,-51.11
08.578,-57.22
08.593,-60.47
08.609,-61.8
08.625,-62.29
08.640,-62.51
08.656,-62.52
08.671,-61.89
08.687,-60.16
08.703,-57.34
08.718,-53.96
08.734,-50.74
08.750,-47.97
08.765,-45.41
08.781,-42.12
08.796,-37.22
08.812,-30.18
08.828,-21.27
08.843,-11.36
08.859,-1.53
08.875,7.43
08.890,15.41
08.906,22.87
08.921,30.65
08.937,39.09
08.953,47.93
08.968,56.13
08.984,62.21
09.000,65.04
09.015,64.33
09.031,60.73
09.046,55.6
09.062,50.43
09.078,45.95
09.093,42.07
09.109,38.14
09.125,33.43
09.140,27.79
09.156,21.71
09.171,15.94
09.187,10.97
09.203,6.77
09.218,2.54
09.234,-2.76
09.250,-9.63
09.265,-17.94
09.281,-26.65
09.296,-34.43
09.312,-40.18
09.328,-43.57
09.343,-45.01
09.359,-45.41
09.375,-45.75
09.390,-46.36
09.406,-47.07
09.421,-47.1
09.437,-45.7
09.453,-42.33
09.468,-37.13
09.484,-30.69
09.500,-23.59
09.515,-16.36
09.531,-9.07
09.546,-1.64
09.562,6.03
09.578,13.61
09.593,20.57
09.609,26.21
09.625,30.21
09.640,32.98
09.656,35.34
09.671,38.57
09.687,43.36
09.703,49.76
09.718,56.85
09.734,63.27
09.750,67.74
09.765,69.75
09.781,69.59
09.796,68.04
09.812,66.03
09.828,63.8
09.843,60.94
09.859,56.62
09.875,50.11
09.890,41.11
09.906,30.07
09.921,17.76
09.937,4.87
09.953,-8.26
09.968,-21.79
09.984,-36.18
10.000,-51.38
10.015,-66.68
10.031,-80.68
10.046,-91.72
10.062,-98.56
10.078,-100.89
10.093,-99.35
10.109,-95.27
10.125,-89.76
10.140,-83.24
10.156,-75.37
10.171,-65.27
10.187,-52.43
10.203,-37.17
10.218,-20.86
10.234,-5.29
10.250,7.86
10.265,17.84
10.281,24.94
10.296,30.05
10.312,34.26
10.328,38.11
10.343,41.6
10.359,44.24
10.375,45.79
10.390,46.47
10.406,47.15
10.421,48.94
10.437,52.58
10.453,58.06
10.468,64.47
10.484,70.45
10.500,74.65
10.515,76.46
10.531,76.13
10.546,74.48
10.562,72.17
10.578,69.25
10.593,65.15
10.609,58.72
10.625,49.09
10.640,35.94
10.656,19.86
10.671,2.03
10.687,-16.14
10.703,-33.64
10.718,-50.05
10.734,-65.35
10.750,-79.38
10.765,-91.61
10.781,-100.91
10.796,-106.05
10.812,-106.24
10.828,-101.51
10.843,-92.91
10.859,-82.09
10.875,-70.6
10.890,-59.3
10.906,-48.22
10.921,-36.8
10.937,-24.5
10.953,-11.39
10.968,1.58
10.984,12.98
11.000,21.4
11.015,26.11
11.031,27.49
11.046,26.77
11.062,25.53
11.078,24.94
11.093,25.34
11.109,26.23
11.125,26.83
11.140,26.62
11.156,25.84
11.171,25.27
11.187,25.78
11.203,27.64
11.218,30.3
11.234,32.46
11.250,32.81
11.265,30.64
11.281,26.16
11.296,20.31
11.312,14.18
11.328,8.29
11.343,2.46
11.359,-4.15
11.375,-12.25
11.390,-21.88
11.406,-32.28
11.421,-41.92
11.437,-49.42
11.453,-53.92
11.468,-55.56
11.484,-55.18
11.500,-53.74
11.515,-51.91
11.531,-49.52
11.546,-45.79
11.562,-39.8
11.578,-31.1
11.593,-20.02
11.609,-7.58
11.625,5.0
11.640,16.76
11.656,27.31
11.671,36.79
11.687,45.37
11.703,52.8
11.718,58.11
11.734,60.04
11.750,57.52
11.765,50.47
11.781,39.99
11.796,27.88
11.812,16.04
11.828,5.48
11.843,-3.61
11.859,-11.72
11.875,-19.09
11.890,-25.21
11.906,-28.79
11.921,-28.1
11.937,-21.99
11.953,-10.5
11.968,4.9
11.984,21.75
12.000,37.49
12.015,50.14
12.031,58.88
12.046,63.95
12.062,66.33
12.078,67.02
12.093,66.85
12.109,65.91
12.125,64.02
12.140,60.79
12.156,56.05
12.171,49.96
12.187,42.9
12.203,35.07
12.218,26.11
12.234,15.41
12.250,2.22
12.265,-13.63
12.281,-31.42
12.296,-49.6
12.312,-66.25
12.328,-79.82
12.343,-89.69
12.359,-96.14
12.375,-99.68
12.390,-100.47
12.406,-97.71
12.421,-90.11
12.437,-76.59
12.453,-57.42
12.468,-34.61
12.484,-11.58
12.500,8.1
12.515,22.06
12.531,29.66
12.546,32.14
12.562,31.46
12.578,29.21
12.593,25.87
12.609,20.91
12.625,13.68
12.640,4.24
12.656,-6.18
12.671,-15.74
12.687,-22.51
12.703,-25.57
12.718,-25.4
12.734,-23.53
12.750,-21.64
12.765,-20.62
12.781,-20.27
12.796,-19.41
12.812,-16.93
12.828,-12.42
12.843,-6.67
12.859,-1.15
12.875,2.77
12.890,4.5
12.906,4.74
12.921,4.83
12.937,6.0
12.953,8.47
12.968,11.29
12.984,12.79
13.000,11.53
13.015,7.36
13.031,1.57
13.046,-3.49
13.062,-5.71
13.078,-4.12
13.093,0.59
13.109,6.44
13.125,11.08
13.140,12.99
13.156,12.07
13.171,9.54
13.187,7.14
13.203,6.08
13.218,6.56
13.234,7.7
13.250,8.36
13.265,7.85
13.281,6.5
13.296,5.34
13.312,5.58
13.328,7.85
13.343,11.56
13.359,15.23
13.375,17.33
13.390,17.01
13.406,14.71
13.421,11.85
13.437,9.96
13.453,9.88
13.468,11.31
13.484,12.88
13.500,13.09
13.515,11.08
13.531,7.1
13.546,2.49
13.562,-1.06
13.578,-2.63
13.593,-2.45
13.609,-1.86
13.625,-2.52
13.640,-5.51
13.656,-10.67
13.671,-16.8
13.687,-22.22
13.703,-25.78
13.718,-27.51
13.734,-28.61
13.750,-30.48
13.765,-33.88
13.781,-38.35
13.796,-42.28
13.812,-43.82
13.828,-41.97
13.843,-36.98
13.859,-30.25
13.875,-23.48
13.890,-17.63
13.906,-12.53
13.921,-7.15
13.937,-0.44
13.953,7.79
13.968,16.52
13.984,23.92
14.000,28.34
14.015,29.14
14.031,27.0
14.046,23.56
14.062,20.59
14.078,19.07
14.093,18.81
14.109,18.54
14.125,16.93
14.140,13.27
14.156,7.92
14.171,2.14
14.187,-2.58
14.203,-5.53
14.218,-7.05
14.234,-8.46
14.250,-11.32
14.265,-16.37
14.281,-23.14
14.296,-30.28
14.312,-35.94
14.328,-38.99
14.343,-39.58
14.359,-38.7
14.375,-37.73
14.390,-37.53
14.406,-37.82
14.421,-37.49
14.437,-35.29
14.453,-30.48
14.468,-23.32
14.484,-15.0
14.500,-6.72
14.515,0.85
14.531,7.89
14.546,15.13
14.562,23.33
14.578,32.47
14.593,41.65
14.609,49.24
14.625,53.77
14.640,54.61
14.656,52.37
14.671,48.45
14.687,44.38
14.703,40.89
14.718,37.51
14.734,32.9
14.750,25.7
14.765,15.41
14.781,2.94
14.796,-9.87
14.812,-20.89
14.828,-28.6
14.843,-32.59
14.859,-33.46
14.875,-32.11
14.890,-29.16
14.906,-24.61
14.921,-18.04
14.937,-9.12
14.953,1.76
14.968,13.56
14.984,24.65
15.000,33.57
15.015,39.66
15.031,43.25
15.046,45.23
15.062,46.52
15.078,47.42
15.093,47.34
15.109,45.1
15.125,39.54
15.140,30.1
15.156,17.28
15.171,2.46
15.187,-12.71
15.203,-26.91
15.218,-39.62
15.234,-51.02
15.250,-61.44
15.265,-70.73
15.281,-77.89
15.296,-81.29
15.312,-79.49
15.328,-72.14
15.343,-60.46
15.359,-46.79
15.375,-33.61
15.390,-22.46
15.406,-13.34
15.421,-5.0
15.437,4.08
15.453,14.67
15.468,26.1
15.484,36.65
15.500,44.33
15.515,47.95
15.531,47.6
15.546,44.36
15.562,39.68
15.578,34.37
15.593,28.48
15.609,21.51
15.625,13.13
15.640,3.79
15.656,-5.14
15.671,-12.03
15.687,-15.58
15.703,-15.48
15.718,-12.43
15.734,-7.63
15.750,-2.06
15.765,4.02
15.781,11.18
15.796,20.48
15.812,32.61
15.828,47.41
15.843,63.52
15.859,78.75
15.875,90.6
15.890,97.17
15.906,97.31
15.921,91.06
15.937,79.02
15.953,62.1
15.968,41.16
15.984,16.79
16.000,-10.15
16.015,-38.35
16.031,-65.82
16.046,-90.27
16.062,-109.42
16.078,-122.04
16.093,-127.99
16.109,-128.02
16.125,-123.47
16.140,-115.34
16.156,-103.95
16.171,-89.04
16.187,-70.46
16.203,-48.58
16.218,-24.79
16.234,-1.15
16.250,20.27
16.265,37.95
16.281,51.42
16.296,61.09
16.312,67.69
16.328,71.71
16.343,73.02
16.359,70.97
16.375,65.0
16.390,55.21
16.406,42.51
16.421,28.72
16.437,15.9
16.453,5.77
16.468,-0.74
16.484,-3.67
16.500,-3.74
16.515,-1.88
16.531,1.18
16.546,4.99
16.562,9.48
16.578,14.41
16.593,19.18
16.609,22.95
16.625,24.78
16.640,24.04
16.656,20.68
16.671,15.32
16.687,8.65
16.703,1.22
16.718,-6.95
16.734,-16.3
16.750,-27.12
16.765,-39.2
16.781,-51.45
16.796,-62.25
16.812,-69.94
16.828,-73.65
16.843,-73.46
16.859,-70.36
16.875,-65.52
16.890,-59.5
16.906,-51.99
16.921,-41.97
16.937,-28.42
16.953,-11.22
16.968,8.46
16.984,28.56
17.000,46.71
17.015,61.18
17.031,71.29
17.046,77.34
17.062,80.06
17.078,79.97
17.093,77.03
17.109,70.76
17.125,60.91
17.140,47.85
17.156,32.9
17.171,18.08
17.187,5.34
17.203,-4.12
17.218,-10.2
17.234,-13.66
17.250,-15.61
17.265,-16.66
17.281,-16.82
17.296,-15.69
17.312,-12.9
17.328,-8.73
17.343,-4.26
17.359,-0.89
17.375,0.23
17.390,-1.32
17.406,-4.98
17.421,-9.55
17.437,-13.82
17.453,-17.17
17.468,-19.86
17.484,-22.57
17.500,-26.14
17.515,-30.82
17.531,-36.15
17.546,-40.95
17.562,-43.98
17.578,-44.31
17.593,-41.78
17.609,-37.0
17.625,-30.61
17.640,-23.23
17.656,-15.01
17.671,-5.78
17.687,4.66
17.703,16.11
17.718,27.91
17.734,39.11
17.750,48.87
17.765,56.98
17.781,63.8
17.796,70.11
17.812,76.59
17.828,83.33
17.843,89.58
17.859,93.98
17.875,95.16
17.890,92.2
17.906,85.0
17.921,74.33
17.937,61.41
17.953,47.32
17.968,32.68
17.984,17.76
18.000,2.73
18.015,-11.84
18.031,-24.96
18.046,-35.3
18.062,-41.89
18.078,-44.4
18.093,-43.43
18.109,-40.3
18.125,-36.22
18.140,-31.93
18.156,-27.57
18.171,-22.81
18.187,-17.48
18.203,-11.91
18.218,-6.97
18.234,-3.87
18.250,-3.59
18.265,-6.33
18.281,-11.47
18.296,-17.89
18.312,-24.38
18.328,-30.23
18.343,-35.27
18.359,-39.67
18.375,-43.39
18.390,-46.0
18.406,-46.49
18.421,-43.56
18.437,-36.26
18.453,-24.3
18.468,-8.37
18.484,10.04
18.500,29.06
18.515,47.04
18.531,62.68
18.546,75.2
18.562,84.16
18.578,89.04
18.593,89.21
18.609,84.1
18.625,73.59
18.640,58.38
18.656,40.06
18.671,20.84
18.687,2.78
18.703,-12.75
18.718,-25.39
18.734,-35.34
18.750,-42.93
18.765,-48.11
18.781,-50.25
18.796,-48.69
18.812,-43.27
18.828,-34.74
18.843,-24.67
18.859,-15.13
18.875,-7.52
18.890,-2.5
18.906,0.28
18.921,1.75
18.937,2.66
18.953,3.21
18.968,2.98
18.984,1.27
19.000,-2.55
19.015,-8.36
19.031,-15.61
19.046,-23.34
19.062,-30.66
19.078,-37.06
19.093,-42.45
19.109,-46.9
19.125,-50.11
19.140,-51.37
19.156,-49.38
19.171,-42.89
19.187,-31.21
19.203,-14.69
19.218,5.15
19.234,26.03
19.250,45.56
19.265,61.96
19.281,74.27
19.296,82.5
19.312,86.89
19.328,87.44
19.343,83.99
19.359,76.23
19.375,64.15
19.390,48.53
19.406,30.78
19.421,12.66
19.437,-4.17
19.453,-18.73
19.468,-30.57
19.484,-39.57
19.500,-45.44
19.515,-47.55
19.531,-45.26
19.546,-38.15
19.562,-26.76
19.578,-12.53
19.593,2.18
19.609,15.02
19.625,24.4
19.640,29.82
19.656,31.91
19.671,31.83
19.687,30.73
19.703,29.08
19.718,26.71
19.734,22.99
19.750,17.42
19.765,9.99
19.781,1.22
19.796,-7.97
19.812,-16.68
19.828,-24.45
19.843,-31.42
19.859,-38.08
19.875,-44.93
19.890,-51.97
19.906,-58.61
19.921,-63.66
19.937,-65.82
19.953,-64.32
19.968,-59.26
19.984,-51.68
20.000,-42.98
20.015,-34.18
20.031,-25.62
20.046,-16.83
20.062,-7.14
20.078,3.86
20.093,15.79
20.109,27.69
20.125,38.32
20.140,46.77
20.156,52.67
20.171,55.87
20.187,56.31
20.203,53.7
20.218,47.57
20.234,37.8
20.250,25.11
20.265,11.04
20.281,-2.19
20.296,-12.54
20.312,-19.01
20.328,-21.93
20.343,-22.87
20.359,-23.91
20.375,-26.54
20.390,-31.0
20.406,-36.2
20.421,-40.16
20.437,-40.81
20.453,-36.86
20.468,-28.26
20.484,-16.16
20.500,-2.34
20.515,11.13
20.531,22.39
20.546,29.91
20.562,32.67
20.578,30.18
20.593,22.43
20.609,10.1
20.625,-5.3
20.640,-21.65
20.656,-36.4
20.671,-47.11
20.687,-52.03
20.703,-50.34
20.718,-42.37
20.734,-29.52
20.750,-13.77
20.765,2.66
20.781,17.75
20.796,29.88
20.812,37.94
20.828,41.3
20.843,39.86
20.859,33.82
20.875,24.02
20.890,11.78
20.906,-1.13
20.921,-12.67
20.937,-21.06
20.953,-25.05
20.968,-24.26
20.984,-19.3
21.000,-11.53
21.015,-2.6
21.031,6.06
21.046,13.49
21.062,19.18
21.078,22.86
21.093,24.17
21.109,22.59
21.125,17.79
21.140,9.92
21.156,-0.03
21.171,-10.18
21.187,-18.42
21.203,-23.08
21.218,-23.55
21.234,-20.16
21.250,-14.12
21.265,-6.72
21.281,1.16
21.296,9.0
21.312,16.4
21.328,22.6
21.343,26.57
21.359,27.22
21.375,23.95
21.390,17.01
21.406,7.52
21.421,-2.87
21.437,-12.59
21.453,-20.56
21.468,-26.41
21.484,-30.18
21.500,-32.0
21.515,-31.77
21.531,-29.21
21.546,-24.03
21.562,-16.4
21.578,-7.22
21.593,1.95
21.609,9.35
21.625,13.78
21.640,14.91
21.656,13.45
21.671,10.81
21.687,8.19
21.703,6.36
21.718,5.14
21.734,3.96
21.750,2.45
21.765,0.7
21.781,-0.59
21.796,-0.65
21.812,0.96
21.828,3.8
21.843,6.8
21.859,8.72
21.875,8.69
21.890,6.69
21.906,3.38
21.921,-0.21
21.937,-3.34
21.953,-5.71
21.968,-7.57
21.984,-9.18
22.000,-10.56
22.015,-11.3
22.031,-10.81
22.046,-8.74
22.062,-5.36
22.078,-1.52
22.093,1.43
22.109,2.33
22.125,0.76
22.140,-2.84
22.156,-7.42
22.171,-11.84
22.187,-15.72
22.203,-19.29
22.218,-23.28
22.234,-28.13
22.250,-33.68
22.265,-38.81
22.281,-42.04
22.296,-42.25
22.312,-39.13
22.328,-33.53
22.343,-26.94
22.359,-20.56
22.375,-14.84
22.390,-9.05
22.406,-1.52
22.421,9.74
22.437,26.08
22.453,47.52
22.468,72.37
22.484,97.66
22.500,119.86
22.515,135.9
22.531,143.74
22.546,142.69
22.562,133.0
22.578,115.36
22.593,90.69
22.609,60.18
22.625,25.6
22.640,-10.44
22.656,-44.58
22.671,-73.37
22.687,-94.32
22.703,-106.57
22.718,-111.07
22.734,-109.97
22.750,-105.58
22.765,-99.49
22.781,-92.23
22.796,-83.49
22.812,-72.89
22.828,-60.46
22.843,-47.0
22.859,-33.75
22.875,-21.83
22.890,-11.91
22.906,-3.91
22.921,2.62
22.937,8.23
22.953,13.04
22.968,16.75
22.984,18.92
23.000,19.33
23.015,18.21
23.031,16.18
23.046,13.96
23.062,11.72
23.078,9.06
23.093,4.98
23.109,-1.43
23.125,-10.44
23.140,-21.3
23.156,-32.39
23.171,-41.77
23.187,-47.81
23.203,-49.88
23.218,-48.24
23.234,-43.7
23.250,-37.16
23.265,-29.14
23.281,-19.86
23.296,-9.41
23.312,1.77
23.328,12.7
23.343,22.03
23.359,28.61
23.375,31.88
23.390,32.04
23.406,30.21
23.421,27.63
23.437,25.42
23.453,23.96
23.468,22.99
23.484,21.84
23.500,20.0
23.515,17.47
23.531,14.49
23.546,11.55
23.562,8.92
23.578,6.49
23.593,3.87
23.609,0.93
23.625,-2.06
23.640,-4.47
23.656,-5.46
23.671,-4.76
23.687,-2.7
23.703,-0.03
23.718,2.26
23.734,3.71
23.750,4.42
23.765,5.09
23.781,6.41
23.796,8.63
23.812,11.13
23.828,12.71
23.843,12.17
23.859,9.11
23.875,4.31
23.890,-0.61
23.906,-3.85
23.921,-4.31
23.937,-1.98
23.953,2.05
23.968,6.19
23.984,9.31
24.000,10.99
24.015,11.73
24.031,12.36
24.046,13.53
24.062,15.13
24.078,16.53
24.093,16.73
24.109,15.05
24.125,11.62
24.140,7.35
24.156,3.61
24.171,1.38
24.187,0.73
24.203,0.78
24.218,0.23
24.234,-1.67
24.250,-4.7
24.265,-7.47
24.281,-8.24
24.296,-5.79
24.312,-0.25
24.328,6.81
24.343,13.03
24.359,16.24
24.375,15.41
24.390,11.05
24.406,4.73
24.421,-1.83
24.437,-7.53
24.453,-12.23
24.468,-16.47
24.484,-20.76
24.500,-25.01
24.515,-28.15
24.531,-28.79
24.546,-25.8
24.562,-19.25
24.578,-10.51
24.593,-1.95
24.609,4.22
24.625,6.73
24.640,5.77
24.656,2.96
24.671,0.18
24.687,-1.21
24.703,-1.15
24.718,-0.49
24.734,-0.44
24.750,-1.58
24.765,-3.22
24.781,-3.88
24.796,-1.84
24.812,3.54
24.828,11.52
24.843,20.12
24.859,27.2
24.875,31.23
24.890,31.89
24.906,30.12
24.921,27.25
24.937,24.41
24.953,21.85
24.968,19.22
24.984,16.09
25.000,12.38
25.015,8.77
25.031,6.39
25.046,6.38
25.062,9.04
25.078,13.86
25.093,19.34
25.109,23.8
25.125,25.9
25.140,25.1
25.156,21.88
25.171,17.28
25.187,12.46
25.203,7.82
25.218,3.38
25.234,-1.17
25.250,-5.99
25.265,-10.54
25.281,-13.81
25.296,-14.75
25.312,-12.91
25.328,-8.75
25.343,-3.7
25.359,0.78
25.375,3.61
25.390,4.7
25.406,4.84
25.421,5.11
25.437,6.34
25.453,8.52
25.468,11.05
25.484,13.21
25.500,14.65
25.515,15.68
25.531,17.0
25.546,19.35
25.562,22.66
25.578,26.11
25.593,28.25
25.609,27.79
25.625,24.15
25.640,17.73
25.656,9.59
25.671,1.03
25.687,-7.0
25.703,-14.26
25.718,-20.85
25.734,-26.87
25.750,-32.0
25.765,-35.14
25.781,-35.1
25.796,-31.15
25.812,-23.57
25.828,-13.81
25.843,-4.16
25.859,3.32
25.875,7.2
25.890,7.21
25.906,4.06
25.921,-1.24
25.937,-7.69
25.953,-14.72
25.968,-21.9
25.984,-28.81
26.000,-34.47
26.015,-37.59
26.031,-36.87
26.046,-31.48
26.062,-21.74
26.078,-9.13
26.093,4.17
26.109,15.81
26.125,24.09
26.140,28.28
26.156,28.57
26.171,25.65
26.187,20.36
26.203,13.22
26.218,4.53
26.234,-5.23
26.250,-15.34
26.265,-24.37
26.281,-30.61
26.296,-32.59
26.312,-29.77
26.328,-22.87
26.343,-13.86
26.359,-5.04
26.375,1.58
26.390,5.02
26.406,5.66
26.421,4.49
26.437,2.48
26.453,-0.04
26.468,-3.21
26.484,-7.24
26.500,-11.6
26.515,-15.12
26.531,-16.42
26.546,-14.5
26.562,-9.44
26.578,-2.6
26.593,4.09
26.609,8.82
26.625,10.7
26.640,9.98
26.656,7.6
26.671,4.64
26.687,1.85
26.703,-0.61
26.718,-2.92
26.734,-5.1
26.750,-6.7
26.765,-6.69
26.781,-3.92
26.796,2.14
26.812,11.05
26.828,21.09
26.843,29.82
26.859,35.01
26.875,35.53
26.890,31.67
26.906,24.89
26.921,17.19
26.937,9.97
26.953,3.79
26.968,-1.51
26.984,-6.29
27.000,-10.31
27.015,-12.5
27.031,-11.62
27.046,-6.97
27.062,0.83
27.078,9.79
27.093,17.14
27.109,20.53
27.125,18.93
27.140,13.02
27.156,4.7
27.171,-3.88
27.187,-11.2
27.203,-16.81
27.218,-20.92
27.234,-23.84
27.250,-25.47
27.265,-25.36
27.281,-23.01
27.296,-18.46
27.312,-12.62
27.328,-7.07
27.343,-3.5
27.359,-2.94
27.375,-5.26
27.390,-9.2
27.406,-12.9
27.421,-14.72
27.437,-13.79
27.453,-10.43
27.468,-5.57
27.484,-0.42
27.500,4.26
27.515,8.56
27.531,12.97
27.546,17.84
27.562,22.6
27.578,25.93
27.593,26.24
27.609,22.5
27.625,14.94
27.640,5.12
27.656,-4.64
27.671,-12.22
27.687,-16.48
27.703,-17.59
27.718,-16.37
27.734,-13.51
27.750,-9.14
27.765,-2.97
27.781,5.13
27.796,14.58
27.812,23.75
27.828,30.43
27.843,32.38
27.859,28.52
27.875,19.42
27.890,7.13
27.906,-5.48
27.921,-15.88
27.937,-22.67
27.953,-26.02
27.968,-26.87
27.984,-26.35
28.000,-25.01
28.015,-22.47
28.031,-18.12
28.046,-11.71
28.062,-4.03
28.078,2.99
28.093,7.2
28.109,7.29
28.125,3.59
28.140,-2.22
28.156,-7.82
28.171,-11.48
28.187,-12.72
28.203,-12.2
28.218,-10.97
28.234,-9.72
28.250,-8.03
28.265,-4.9
28.281,0.41
28.296,7.59
28.312,14.93
28.328,20.14
28.343,21.26
28.359,17.74
28.375,10.64
28.390,2.16
28.406,-5.59
28.421,-11.68
28.437,-16.33
28.453,-20.64
28.468,-25.25
28.484,-29.71
28.500,-32.5
28.515,-31.94
28.531,-27.04
28.546,-18.61
28.562,-9.03
28.578,-1.17
28.593,2.82
28.609,2.44
28.625,-1.09
28.640,-5.61
28.656,-9.06
28.671,-10.34
28.687,-9.43
28.703,-7.07
28.718,-4.06
28.734,-0.81
28.750,2.89
28.765,7.43
28.781,13.18
28.796,19.82
28.812,26.38
28.828,31.48
28.843,34.05
28.859,33.86
28.875,31.77
28.890,29.39
28.906,28.16
28.921,28.59
28.937,29.83
28.953,30.23
28.968,28.13
28.984,22.99
29.000,15.79
29.015,8.26
29.031,2.13
29.046,-1.85
29.062,-4.19
29.078,-6.04
29.093,-8.34
29.109,-11.21
29.125,-13.94
29.140,-15.32
29.156,-14.43
29.171,-11.21
29.187,-6.58
29.203,-1.91
29.218,1.57
29.234,3.33
29.250,3.92
29.265,4.32
29.281,5.49
29.296,7.7
29.312,10.33
29.328,12.04
29.343,11.68
29.359,8.73
29.375,3.58
29.390,-2.56
29.406,-8.58
29.421,-13.76
29.437,-18.2
29.453,-22.49
29.468,-27.0
29.484,-31.58
29.500,-35.15
29.515,-36.46
29.531,-34.59
29.546,-29.68
29.562,-22.99
29.578,-16.4
29.593,-11.42
29.609,-8.59
29.625,-7.38
29.640,-6.51
29.656,-4.86
29.671,-1.99
29.687,1.52
29.703,4.71
29.718,6.77
29.734,7.53
29.750,7.53
29.765,7.7
29.781,8.69
29.796,10.38
29.812,12.14
29.828,13.08
29.843,12.67
29.859,11.1
29.875,9.09
29.890,7.54
29.906,6.9
29.921,6.86
29.937,6.61
29.953,5.24
29.968,2.39
29.984,-1.65
30.000,-5.8
30.015,-8.96
30.031,-10.49
30.046,-10.49
30.062,-9.8
30.078,-9.46
30.093,-9.98
30.109,-11.07
30.125,-11.8
30.140,-11.12
30.156,-8.51
30.171,-4.37
30.187,0.08
30.203,3.49
30.218,4.87
30.234,4.34
30.250,2.87
30.265,1.76
30.281,2.15
30.296,4.21
30.312,7.3
30.328,10.33
30.343,12.6
30.359,13.91
30.375,14.95
30.390,16.69
30.406,19.75
30.421,23.99
30.437,28.25
30.453,31.13
30.468,31.6
30.484,29.6
30.500,25.98
30.515,22.09
30.531,19.05
30.546,17.23
30.562,16.2
30.578,14.98
30.593,12.84
30.609,9.77
30.625,6.63
30.640,4.61
30.656,4.61
30.671,6.7
30.687,9.83
30.703,12.55
30.718,13.54
30.734,12.31
30.750,9.59
30.765,6.7
30.781,4.86
30.796,4.53
30.812,5.14
30.828,5.45
30.843,4.49
30.859,2.16
30.875,-0.59
30.890,-2.33
30.906,-1.9
30.921,0.94
30.937,5.32
30.953,9.74
30.968,12.82
30.984,14.03
31.000,13.63
31.015,12.43
31.031,10.94
31.046,9.01
31.062,5.95
31.078,1.16
31.093,-5.36
31.109,-12.63
31.125,-18.93
31.140,-22.55
31.156,-22.72
31.171,-19.92
31.187,-15.9
31.203,-12.71
31.218,-11.88
31.234,-13.74
31.250,-17.36
31.265,-21.19
31.281,-23.97
31.296,-25.34
31.312,-25.96
31.328,-26.82
31.343,-28.58
31.359,-31.17
31.375,-33.56
31.390,-34.51
31.406,-33.28
31.421,-30.01
31.437,-25.98
31.453,-22.71
31.468,-21.34
31.484,-21.93
31.500,-23.52
31.515,-24.46
31.531,-23.42
31.546,-19.96
31.562,-14.82
31.578,-9.38
31.593,-4.98
31.609,-2.12
31.625,-0.2
31.640,1.86
31.656,4.77
31.671,8.33
31.687,11.2
31.703,11.88
31.718,9.5
31.734,4.66
31.750,-0.77
31.765,-4.42
31.781,-4.73
31.796,-1.69
31.812,3.45
31.828,9.04
31.843,14.08
31.859,18.76
31.875,23.95
31.890,30.3
31.906,37.52
31.921,44.25
31.937,48.65
31.953,49.32
31.968,45.96
31.984,39.34
32.000,31.01
32.015,22.51
32.031,14.93
32.046,8.66
32.062,3.49
32.078,-0.85
32.093,-4.58
32.109,-7.64
32.125,-9.82
32.140,-10.91
32.156,-11.2
32.171,-11.53
32.187,-12.94
32.203,-16.17
32.218,-20.91
32.234,-25.68
32.250,-28.52
32.265,-27.94
32.281,-23.74
32.296,-17.21
32.312,-10.64
32.328,-6.0
32.343,-4.31
32.359,-5.24
32.375,-7.7
32.390,-10.58
32.406,-13.44
32.421,-16.54
32.437,-20.42
32.453,-25.24
32.468,-30.33
32.484,-34.34
32.500,-35.8
32.515,-33.93
32.531,-29.21
32.546,-23.2
32.562,-17.9
32.578,-14.78
32.593,-14.01
32.609,-14.59
32.625,-14.73
32.640,-12.91
32.656,-8.56
32.671,-2.4
32.687,4.02
32.703,9.16
32.718,12.19
32.734,13.29
32.750,13.49
32.765,13.97
32.781,15.44
32.796,17.9
32.812,20.69
32.828,23.1
32.843,24.76
32.859,25.99
32.875,27.37
32.890,29.38
32.906,31.92
32.921,34.24
32.937,35.41
32.953,34.88
32.968,32.87
32.984,30.22
33.000,28.05
33.015,26.98
33.031,26.7
33.046,26.14
33.062,24.01
33.078,19.53
33.093,13.02
33.109,5.63
33.125,-1.27
33.140,-6.78
33.156,-10.86
33.171,-14.15
33.187,-17.68
33.203,-21.97
33.218,-26.8
33.234,-31.22
33.250,-34.13
33.265,-34.98
33.281,-34.09
33.296,-32.45
33.312,-31.27
33.328,-31.35
33.343,-32.72
33.359,-34.66
33.375,-36.14
33.390,-36.62
33.406,-36.25
33.421,-35.85
33.437,-36.16
33.453,-37.26
33.468,-38.1
33.484,-36.71
33.500,-31.15
33.515,-20.01
33.531,-3.22
33.546,17.97
33.562,41.54
33.578,65.17
33.593,86.56
33.609,103.61
33.625,114.55
33.640,117.74
33.656,112.32
33.671,98.28
33.687,76.76
33.703,49.94
33.718,20.64
33.734,-8.39
33.750,-34.93
33.765,-57.68
33.781,-76.55
33.796,-92.06
33.812,-105.07
33.828,-116.08
33.843,-125.18
33.859,-132.0
33.875,-136.08
33.890,-137.34
33.906,-136.34
33.921,-134.03
33.937,-131.06
33.953,-127.38
33.968,-121.89
33.984,-112.92
34.000,-99.01
34.015,-79.71
34.031,-55.49
34.046,-27.81
34.062,1.67
34.078,31.91
34.093,62.71
34.109,94.23
34.125,126.69
34.140,159.47
34.156,191.12
34.171,219.78
34.187,243.87
34.203,262.47
34.218,275.82
34.234,285.02
34.250,291.18
34.265,295.03
34.281,296.44
34.296,294.54
34.312,288.26
34.328,276.89
34.343,260.13
34.359,238.07
34.375,211.12
34.390,179.57
34.406,143.89
34.421,105.19
34.437,65.49
34.453,27.43
34.468,-5.72
34.484,-31.11
34.500,-46.78
34.515,-52.11
34.531,-47.53
34.546,-34.22
34.562,-14.42
34.578,8.68
34.593,30.87
34.609,47.35
34.625,53.56
34.640,46.61
34.656,25.92
34.671,-6.78
34.687,-47.71
34.703,-92.76
34.718,-138.41
34.734,-182.57
34.750,-224.79
34.765,-266.26
34.781,-308.96
34.796,-354.4
34.812,-402.29
34.828,-449.31
34.843,-489.18
34.859,-514.12
34.875,-517.62
34.890,-497.28
34.906,-456.63
34.921,-403.99
34.937,-349.51
34.953,-301.52
34.968,-263.78
34.984,-235.27
35.000,-211.81
35.015,-188.86
35.031,-163.1
35.046,-132.76
35.062,-97.59
35.078,-58.86
35.093,-19.19
35.109,17.94
35.125,49.38
35.140,73.92
35.156,93.09
35.171,110.16
35.187,128.28
35.203,147.59
35.218,164.67
35.234,174.02
35.250,171.57
35.265,157.42
35.281,136.13
35.296,114.49
35.312,97.72
35.328,86.89
35.343,78.5
35.359,67.15
35.375,49.1
35.390,24.55
35.406,-2.48
35.421,-26.53
35.437,-44.2
35.453,-55.83
35.468,-64.74
35.484,-74.81
35.500,-87.7
35.515,-102.1
35.531,-115.04
35.546,-123.99
35.562,-128.31
35.578,-129.09
35.593,-127.62
35.609,-123.95
35.625,-116.69
35.640,-103.58
35.656,-83.04
35.671,-55.11
35.687,-21.15
35.703,16.88
35.718,57.31
35.734,99.15
35.750,141.79
35.765,184.65
35.781,227.03
35.796,268.14
35.812,306.85
35.828,341.59
35.843,370.03
35.859,388.96
35.875,395.04
35.890,385.65
35.906,360.04
35.921,319.97
35.937,269.39
35.953,213.61
35.968,158.04
35.984,106.93
36.000,62.92
36.015,27.22
36.031,-0.13
36.046,-19.43
36.062,-30.96
36.078,-34.89
36.093,-31.48
36.109,-21.45
36.125,-6.46
36.140,11.18
36.156,28.83
36.171,44.1
36.187,55.53
36.203,62.58
36.218,65.4
36.234,64.57
36.250,60.63
36.265,53.75
36.281,44.19
36.296,32.43
36.312,19.42
36.328,6.52
36.343,-4.91
36.359,-14.06
36.375,-20.95
36.390,-26.41
36.406,-31.61
36.421,-37.38
36.437,-43.75
36.453,-49.9
36.468,-54.5
36.484,-56.48
36.500,-55.7
36.515,-53.07
36.531,-50.32
36.546,-49.19
36.562,-50.56
36.578,-54.32
36.593,-59.44
36.609,-64.54
36.625,-68.74
36.640,-72.06
36.656,-75.26
36.671,-79.39
36.687,-85.01
36.703,-91.79
36.718,-98.62
36.734,-104.04
36.750,-106.76
36.765,-106.5
36.781,-103.8
36.796,-99.59
36.812,-94.58
36.828,-88.78
36.843,-81.57
36.859,-72.12
36.875,-60.16
36.890,-46.24
36.906,-31.81
36.921,-18.52
36.937,-7.48
36.953,1.15
36.968,8.33
36.984,15.55
37.000,24.15
37.015,35.0
37.031,48.45
37.046,64.35
37.062,82.5
37.078,102.53
37.093,123.71
37.109,144.88
37.125,164.36
37.140,180.21
37.156,190.7
37.171,194.82
37.187,192.48
37.203,184.34
37.218,171.64
37.234,155.38
37.250,136.3
37.265,114.69
37.281,90.69
37.296,64.84
37.312,38.38
37.328,13.54
37.343,-6.94
37.359,-20.63
37.375,-26.35
37.390,-24.6
37.406,-17.67
37.421,-8.56
37.453,6.22
37.468,9.64
37.484,10.59
37.500,9.65
37.515,7.09
37.531,3.11
37.546,-1.99
37.562,-7.52
37.578,-12.41
37.593,-15.54
37.609,-16.04
37.625,-13.62
37.640,-8.32
37.656,-0.98
37.671,6.73
37.687,12.1
37.703,11.83
37.718,3.24
37.734,-14.38
37.750,-38.74
37.765,-65.11
37.781,-87.64
37.796,-101.53
37.812,-104.83
37.828,-98.74
37.843,-86.69
37.859,-72.61
37.875,-59.56
37.890,-48.89
37.906,-40.63
37.921,-33.73
37.937,-26.53
37.953,-17.07
37.968,-3.45
37.984,15.17
38.000,37.86
38.015,61.4
38.031,81.03
38.046,92.04
38.062,91.58
38.078,79.4
38.093,57.85
38.109,30.6
38.125,1.02
38.140,-28.6
38.156,-56.95
38.171,-83.0
38.187,-105.36
38.203,-122.17
38.218,-131.7
38.234,-133.06
38.250,-126.71
38.265,-114.63
38.281,-99.92
38.296,-85.82
38.312,-75.05
38.328,-68.91
38.343,-67.46
38.359,-69.56
38.375,-73.72
38.390,-78.73
38.406,-83.9
38.421,-89.03
38.437,-93.84
38.453,-97.61
38.468,-98.85
38.484,-96.16
38.500,-88.72
38.515,-77.18
38.531,-63.62
38.546,-51.03
38.562,-42.14
38.578,-38.73
38.593,-41.02
38.609,-47.92
38.625,-57.51
38.640,-67.32
38.656,-74.85
38.671,-77.47
38.687,-72.62
38.703,-58.01
38.718,-32.53
38.734,3.17
38.750,46.35
38.765,92.76
38.781,137.72
38.796,177.42
38.812,209.65
38.828,234.01
38.843,251.05
38.859,261.38
38.875,264.96
38.890,261.1
38.906,249.16
38.921,229.44
38.937,203.36
38.953,173.38
38.968,142.31
38.984,112.36
39.000,84.6
39.015,59.12
39.031,35.44
39.046,13.25
39.062,-7.19
39.078,-25.24
39.093,-40.34
39.109,-52.66
39.125,-63.33
39.140,-74.1
39.156,-86.34
39.171,-100.13
39.187,-113.9
39.203,-124.76
39.218,-129.69
39.234,-126.8
39.250,-116.26
39.265,-100.19
39.281,-81.65
39.296,-63.36
39.312,-46.66
39.328,-31.37
39.343,-16.41
39.359,-1.02
39.375,14.68
39.390,29.34
39.406,41.16
39.421,48.82
39.437,52.11
39.453,52.21
39.468,51.21
39.484,51.12
39.500,52.9
39.515,56.2
39.531,59.56
39.546,61.35
39.562,60.41
39.578,56.58
39.593,50.57
39.609,43.22
39.625,34.83
39.640,24.97
39.656,12.68
39.671,-2.83
39.687,-21.59
39.703,-42.51
39.718,-63.77
39.734,-83.38
39.750,-100.14
39.765,-113.86
39.781,-125.15
39.796,-134.69
39.812,-142.61
39.828,-148.2
39.843,-150.16
39.859,-147.44
39.875,-139.71
39.890,-127.73
39.906,-113.01
39.921,-97.13
39.937,-81.17
39.953,-65.62
39.968,-50.38
39.984,-35.37
40.000,-21.01
40.015,-8.23
40.031,1.62
40.046,7.32
40.062,8.28
40.078,4.92
40.093,-1.55
40.109,-9.43
40.125,-17.13
40.140,-23.59
40.156,-28.41
40.171,-31.36
40.187,-32.25
40.203,-30.67
40.218,-26.16
40.234,-18.72
40.250,-9.05
40.265,1.35
40.281,10.81
40.296,18.01
40.312,22.74
40.328,25.84
40.343,28.74
40.359,32.67
40.375,37.91
40.390,43.8
40.406,49.09
40.421,52.64
40.437,53.95
40.453,53.31
40.468,51.6
40.484,49.66
40.500,47.95
40.515,46.23
40.531,43.92
40.546,40.66
40.562,36.61
40.578,32.68
40.593,30.1
40.609,30.02
40.625,33.02
40.640,38.74
40.656,46.15
40.671,54.21
40.687,62.2
40.703,70.01
40.718,77.99
40.734,86.28
40.750,94.41
40.765,101.15
40.781,104.97
40.796,104.56
40.812,99.51
40.828,90.53
40.843,79.07
40.859,66.78
40.875,54.7
40.890,43.12
40.906,31.77
40.921,20.59
40.937,10.1
40.953,1.58
40.968,-3.34
40.984,-3.7
41.000,0.27
41.015,7.0
41.031,14.12
41.046,19.55
41.062,22.24
41.078,22.59
41.093,21.99
41.109,21.82
41.125,22.75
41.140,24.45
41.156,25.82
41.171,25.87
41.187,24.32
41.203,21.6
41.218,18.5
41.234,15.32
41.250,11.43
41.265,5.25
41.281,-4.79
41.296,-19.45
41.312,-38.38
41.328,-59.88
41.343,-81.95
41.359,-102.84
41.375,-121.88
41.390,-139.2
41.406,-155.16
41.421,-169.55
41.437,-181.13
41.453,-187.9
41.468,-187.76
41.484,-179.44
41.500,-163.08
41.515,-140.37
41.531,-113.95
41.546,-86.37
41.562,-59.44
41.578,-33.9
41.593,-9.73
41.609,13.44
41.625,35.52
41.640,55.92
41.656,73.72
41.671,88.02
41.687,98.37
41.703,104.87
41.718,107.9
41.734,107.79
41.750,104.56
41.765,97.67
41.781,86.26
41.796,69.92
41.812,49.03
41.828,25.32
41.843,1.47
41.859,-19.73
41.875,-36.5
41.890,-48.93
41.906,-58.56
41.921,-67.44
41.937,-76.63
41.953,-85.44
41.968,-91.48
41.984,-92.09
42.000,-85.76
42.015,-73.0
42.031,-56.44
42.046,-39.46
42.062,-24.88
42.078,-13.92
42.093,-6.43
42.109,-1.42
42.125,1.93
42.140,3.85
42.156,4.3
42.171,3.43
42.187,2.19
42.203,2.22
42.218,5.09
42.234,11.23
42.250,19.42
42.265,26.98
42.281,31.05
42.296,29.99
42.312,24.06
42.328,15.5
42.343,7.41
42.359,2.43
42.375,1.68
42.390,4.52
42.406,9.13
42.421,13.41
42.437,15.93
42.453,16.12
42.468,14.39
42.484,11.56
42.500,8.37
42.515,5.26
42.531,2.43
42.546,0.08
42.562,-1.44
42.578,-1.48
42.593,0.46
42.609,4.62
42.625,10.46
42.640,17.03
42.656,23.39
42.671,29.29
42.687,35.43
42.703,43.18
42.718,54.05
42.734,68.67
42.750,86.78
42.765,107.04
42.781,127.62
42.796,146.79
42.812,163.06
42.828,175.11
42.843,181.67
42.859,181.56
42.875,173.79
42.890,158.1
42.906,135.14
42.921,106.57
42.937,74.76
42.953,42.18
42.968,10.88
42.984,-17.9
43.000,-43.88
43.015,-67.42
43.031,-89.04
43.046,-109.13
43.062,-127.72
43.078,-144.69
43.093,-160.07
43.109,-174.04
43.125,-186.97
43.140,-199.1
43.156,-210.31
43.171,-219.72
43.187,-225.93
43.203,-227.28
43.218,-222.32
43.234,-210.38
43.250,-191.79
43.265,-167.82
43.281,-140.34
43.296,-111.43
43.312,-82.88
43.328,-56.17
43.343,-32.27
43.359,-12.08
43.375,3.54
43.390,13.86
43.406,18.61
43.421,18.6
43.437,15.6
43.453,12.14
43.468,10.48
43.484,12.0
43.500,16.53
43.515,22.71
43.531,28.76
43.546,33.34
43.562,36.2
43.578,38.02
43.593,39.9
43.609,42.61
43.625,46.22
43.640,50.22
43.656,53.91
43.671,56.73
43.687,58.44
43.703,59.22
43.718,59.21
43.734,58.54
43.750,57.23
43.765,55.25
43.781,52.86
43.796,50.7
43.812,49.67
43.828,50.59
43.843,53.89
43.859,58.93
43.875,64.25
43.890,67.84
43.906,67.81
43.921,63.34
43.937,54.94
43.953,44.53
43.968,34.62
43.984,27.36
44.000,23.54
44.015,22.61
44.031,22.91
44.046,22.61
44.062,20.46
44.078,16.14
44.093,10.12
44.109,3.34
44.125,-3.16
44.140,-8.85
44.156,-13.33
44.171,-16.28
44.187,-17.44
44.203,-16.65
44.218,-14.11
44.234,-10.66
44.250,-7.7
44.265,-6.71
44.281,-8.59
44.296,-13.04
44.312,-18.4
44.328,-22.21
44.343,-22.16
44.359,-17.08
44.375,-7.57
44.390,4.19
44.406,15.23
44.421,22.96
44.437,25.98
44.453,24.41
44.468,19.65
44.484,13.75
44.500,8.7
44.515,5.93
44.531,6.21
44.546,9.61
44.562,15.65
44.578,23.34
44.593,31.16
44.609,37.15
44.625,39.3
44.640,36.43
44.656,28.6
44.671,17.6
44.687,6.64
44.703,-0.73
44.718,-1.92
44.734,3.73
44.750,14.54
44.765,26.93
44.781,36.87
44.796,41.1
44.812,38.3
44.828,29.34
44.843,16.74
44.859,3.67
44.875,-7.18
44.890,-14.3
44.906,-17.55
44.921,-17.74
44.937,-16.22
44.953,-14.4
44.968,-13.52
44.984,-14.51
45.000,-17.91
45.015,-23.65
45.031,-30.84
45.046,-37.72
45.062,-42.05
45.078,-41.79
45.093,-35.97
45.109,-25.07
45.125,-11.03
45.140,3.61
45.156,16.58
45.171,26.53
45.187,33.3
45.203,37.7
45.218,40.9
45.234,43.78
45.250,46.88
45.265,50.15
45.281,53.42
45.296,56.52
45.312,59.37
45.328,61.81
45.343,63.51
45.359,63.84
45.375,61.99
45.390,57.27
45.406,49.22
45.421,37.81
45.437,23.53
45.453,7.33
45.468,-9.7
45.484,-26.16
45.500,-40.57
45.515,-51.58
45.531,-58.17
45.546,-60.06
45.562,-57.78
45.578,-52.67
45.593,-46.08
45.609,-39.28
45.625,-33.05
45.640,-27.75
45.656,-23.53
45.671,-20.34
45.687,-18.11
45.703,-16.45
45.718,-14.9
45.734,-12.82
45.750,-9.72
45.765,-5.72
45.781,-1.35
45.796,2.66
45.812,5.79
45.828,8.01
45.843,9.66
45.859,11.2
45.875,12.8
45.890,14.38
45.906,15.64
45.921,16.41
45.937,16.59
45.953,16.34
45.968,15.72
45.984,14.4
46.000,11.6
46.015,6.17
46.031,-2.85
46.046,-15.77
46.062,-31.95
46.078,-50.08
46.093,-68.57
46.109,-86.01
46.125,-101.62
46.140,-115.2
46.156,-126.76
46.171,-135.81
46.187,-141.19
46.203,-141.12
46.218,-133.79
46.234,-118.31
46.250,-95.0
46.265,-65.57
46.281,-32.36
46.296,2.3
46.312,36.63
46.328,69.53
46.343,100.34
46.359,128.35
46.375,152.47
46.390,171.52
46.406,184.37
46.421,190.59
46.437,190.5
46.453,184.92
46.468,174.8
46.484,160.67
46.500,142.64
46.515,120.53
46.531,94.64
46.546,66.07
46.562,36.92
46.578,9.84
46.593,-12.92
46.609,-30.19
46.625,-42.07
46.640,-49.63
46.656,-54.24
46.671,-56.9
46.687,-57.85
46.703,-56.9
46.718,-53.77
46.734,-48.67
46.750,-42.31
46.765,-35.81
46.781,-29.96
46.796,-25.02
46.812,-20.41
46.828,-15.22
46.843,-8.75
46.859,-1.06
46.875,6.81
46.890,13.25
46.906,16.83
46.921,16.99
46.937,14.36
46.953,10.42
46.968,6.79
46.984,4.3
47.000,2.67
47.015,0.68
47.031,-2.98
47.046,-8.91
47.062,-16.47
47.078,-24.03
47.093,-29.73
47.109,-32.28
47.125,-31.53
47.140,-28.37
47.156,-24.13
47.171,-19.89
47.187,-16.05
47.203,-12.34
47.218,-8.32
47.234,-3.87
47.250,0.44
47.265,3.41
47.281,3.96
47.296,1.63
47.312,-2.99
47.328,-8.37
47.343,-12.78
47.359,-15.12
47.375,-15.24
47.390,-13.9
47.406,-12.17
47.421,-10.66
47.437,-9.14
47.453,-6.73
47.468,-2.47
47.484,4.07
47.500,12.27
47.515,20.71
47.531,27.66
47.546,31.9
47.562,33.03
47.578,31.52
47.593,28.34
47.609,24.29
47.625,19.7
47.640,14.34
47.656,7.74
47.671,-0.32
47.687,-9.36
47.703,-18.2
47.718,-25.44
47.734,-29.86
47.750,-31.0
47.765,-29.31
47.781,-25.8
47.796,-21.47
47.812,-17.07
47.828,-12.68
47.843,-8.01
47.859,-3.11
47.875,1.52
47.890,4.78
47.906,5.56
47.921,3.3
47.937,-1.49
47.953,-7.24
47.968,-11.95
47.984,-14.11
48.000,-13.46
48.015,-10.9
48.031,-8.05
48.046,-6.05
48.062,-5.1
48.078,-4.19
48.093,-1.86
48.109,2.89
48.125,9.91
48.140,17.77
48.156,24.67
48.171,29.18
48.187,30.85
48.203,30.33
48.218,28.84
48.234,27.31
48.250,26.05
48.265,24.52
48.281,21.85
48.296,17.65
48.312,12.26
48.328,6.76
48.343,2.65
48.359,1.01
48.375,2.08
48.390,5.01
48.406,8.36
48.421,10.73
48.437,11.34
48.453,10.3
48.468,8.31
48.484,6.2
48.500,4.32
48.515,2.31
48.531,-0.72
48.546,-5.38
48.562,-11.85
48.578,-19.28
48.593,-26.45
48.609,-32.18
48.625,-35.87
48.640,-37.86
48.656,-39.07
48.671,-40.4
48.687,-42.26
48.703,-44.45
48.718,-46.25
48.734,-47.17
48.750,-47.31
48.765,-47.41
48.781,-48.5
48.796,-51.26
48.812,-55.56
48.828,-60.34
48.843,-64.12
48.859,-65.61
48.875,-64.29
48.890,-60.59
48.906,-55.48
48.921,-49.81
48.937,-43.71
48.953,-36.46
48.968,-26.86
48.984,-14.02
49.000,2.05
49.015,20.1
49.031,38.02
49.046,53.82
49.062,66.13
49.078,74.89
49.093,81.16
49.109,86.35
49.125,91.39
49.140,96.33
49.156,100.26
49.171,102.07
49.187,100.97
49.203,96.89
49.218,90.41
49.234,82.39
49.250,73.34
49.265,63.05
49.281,50.96
49.296,36.61
49.312,20.21
49.328,2.89
49.343,-13.67
49.359,-27.89
49.375,-38.92
49.390,-46.94
49.406,-52.84
49.421,-57.5
49.437,-61.35
49.453,-64.05
49.468,-64.73
49.484,-62.59
49.500,-57.45
49.515,-49.9
49.531,-41.16
49.546,-32.28
49.562,-23.71
49.578,-15.3
49.593,-6.33
49.609,3.75
49.625,14.78
49.640,25.77
49.656,35.21
49.671,41.95
49.687,45.69
49.703,47.18
49.718,47.71
49.734,48.48
49.750,49.87
49.765,51.25
49.781,51.33
49.796,49.13
49.812,44.49
49.828,38.2
49.843,31.7
49.859,26.17
49.875,22.01
49.890,18.6
49.906,14.73
49.921,9.32
49.937,2.13
49.953,-6.11
49.968,-14.05
49.984,-20.39
50.000,-24.67
50.015,-27.29
50.031,-29.48
50.046,-32.33
50.062,-36.2
50.078,-40.55
50.093,-44.05
50.109,-45.59
50.125,-44.8
50.140,-42.44
50.156,-39.95
50.171,-38.74
50.187,-39.35
50.203,-41.09
50.218,-42.64
50.234,-42.76
50.250,-41.14
50.265,-38.66
50.281,-36.82
50.296,-36.82
50.312,-38.77
50.328,-41.67
50.343,-43.79
50.359,-43.74
50.375,-41.2
50.390,-37.11
50.406,-32.98
50.421,-29.93
50.437,-28.05
50.453,-26.15
50.468,-22.5
50.484,-15.57
50.500,-5.17
50.515,7.49
50.531,20.2
50.546,30.74
50.562,37.92
50.578,41.69
50.593,43.22
50.609,43.85
50.625,44.4
50.640,44.73
50.656,44.02
50.671,41.55
50.687,37.28
50.703,32.07
50.718,27.17
50.734,23.63
50.750,21.62
50.765,20.34
50.781,18.49
50.796,14.98
50.812,9.69
50.828,3.41
50.843,-2.53
50.859,-7.12
50.875,-10.14
50.890,-12.4
50.906,-15.21
50.921,-19.46
50.937,-25.31
50.953,-31.75
50.968,-37.23
50.984,-40.27
51.000,-40.23
51.015,-37.38
51.031,-32.75
51.046,-27.25
51.062,-21.13
51.078,-14.06
51.093,-5.36
51.109,5.14
51.125,16.73
51.140,27.71
51.156,36.06
51.171,40.12
51.187,39.29
51.203,34.25
51.218,26.43
51.234,17.22
51.250,7.53
51.265,-2.31
51.281,-12.22
51.296,-21.78
51.312,-29.92
51.328,-34.99
51.343,-35.29
51.359,-29.95
51.375,-19.23
51.390,-4.67
51.406,11.41
51.421,26.82
51.437,39.79
51.453,49.35
51.468,55.25
51.484,57.63
51.500,56.7
51.515,52.78
51.531,46.25
51.546,37.79
51.562,28.53
51.578,19.81
51.593,12.85
51.609,8.44
51.625,6.57
51.640,6.46
51.656,6.88
51.671,6.8
51.687,5.68
51.703,3.74
51.718,1.74
51.734,0.42
51.765,0.02
51.781,-0.46
51.796,-2.21
51.812,-5.46
51.828,-9.69
51.843,-13.83
51.859,-16.79
51.875,-18.01
51.890,-17.73
51.906,-16.91
51.921,-16.58
51.937,-17.3
51.953,-18.89
51.968,-20.68
51.984,-21.85
52.000,-22.02
52.015,-21.47
52.031,-20.99
52.046,-21.39
52.062,-23.17
52.078,-26.11
52.093,-29.73
52.109,-33.54
52.125,-37.48
52.140,-41.74
52.156,-46.57
52.171,-51.68
52.187,-56.02
52.203,-57.82
52.218,-55.2
52.234,-47.12
52.250,-33.86
52.265,-17.22
52.281,0.22
52.296,16.13
52.312,29.29
52.328,39.82
52.343,48.64
52.359,56.64
52.375,63.88
52.390,69.5
52.406,72.23
52.421,71.07
52.437,66.04
52.453,58.19
52.468,49.15
52.484,40.36
52.500,32.56
52.515,25.69
52.531,19.14
52.546,12.41
52.562,5.48
52.578,-1.07
52.593,-6.34
52.609,-9.62
52.625,-10.9
52.640,-10.88
52.656,-10.78
52.671,-11.55
52.687,-13.56
52.703,-16.36
52.718,-18.89
52.734,-20.17
52.750,-19.69
52.765,-17.73
52.781,-14.92
52.796,-11.92
52.812,-8.71
52.828,-4.69
52.843,1.09
52.859,9.22
52.875,19.36
52.890,30.05
52.906,39.14
52.921,44.77
52.937,46.0
52.953,43.38
52.968,38.34
52.984,32.6
53.000,27.22
53.015,22.25
53.031,17.13
53.046,11.22
53.062,4.51
53.078,-2.22
53.093,-7.72
53.109,-11.11
53.125,-12.22
53.140,-11.82
53.156,-11.13
53.171,-11.11
53.187,-12.09
53.203,-13.64
53.218,-14.93
53.234,-15.25
53.250,-14.42
53.265,-12.93
53.281,-11.73
53.296,-11.51
53.312,-12.42
53.328,-13.84
53.343,-14.58
53.359,-13.48
53.375,-9.93
53.390,-3.98
53.406,3.72
53.421,12.45
53.437,21.8
53.453,31.88
53.468,42.82
53.484,54.24
53.500,64.91
53.515,72.8
53.531,75.7
53.546,72.19
53.562,62.19
53.578,47.12
53.593,29.32
53.609,11.12
53.625,-5.9
53.640,-21.12
53.656,-34.56
53.671,-46.41
53.687,-56.42
53.703,-63.87
53.718,-67.95
53.734,-68.35
53.750,-65.63
53.765,-61.01
53.781,-56.08
53.796,-51.94
53.812,-48.94
53.828,-46.7
53.843,-44.44
53.859,-41.54
53.875,-37.99
53.890,-34.61
53.906,-32.28
53.921,-31.61
53.937,-32.31
53.953,-33.24
53.968,-32.89
53.984,-30.15
54.000,-24.96
54.015,-18.3
54.031,-11.78
54.046,-6.71
54.062,-3.66
54.078,-2.02
54.093,-0.69
54.109,1.45
54.125,4.73
54.140,8.44
54.156,11.53
54.171,12.99
54.187,12.69
54.203,11.22
54.218,9.82
54.234,9.49
54.250,10.47
54.265,12.13
54.281,13.21
54.296,12.91
54.312,11.09
54.328,8.61
54.343,6.75
54.359,6.45
54.375,7.97
54.390,10.49
54.406,12.8
54.421,13.86
54.437,13.42
54.453,12.05
54.468,10.91
54.484,10.94
54.500,12.37
54.515,14.57
54.531,16.3
54.546,16.58
54.562,15.01
54.578,12.11
54.593,8.75
54.609,5.79
54.625,3.55
54.640,1.46
54.656,-1.28
54.671,-5.4
54.687,-10.84
54.703,-16.75
54.718,-21.91
54.734,-25.35
54.750,-26.84
54.765,-26.97
54.781,-26.97
54.796,-27.78
54.812,-29.89
54.828,-33.0
54.843,-36.31
54.859,-39.15
54.875,-41.51
54.890,-44.13
54.906,-48.19
54.921,-54.75
54.937,-63.92
54.953,-74.85
54.968,-85.78
54.984,-94.7
55.000,-100.2
55.015,-101.88
55.031,-100.07
55.046,-95.15
55.062,-86.86
55.078,-73.86
55.093,-54.33
55.109,-27.14
55.125,7.17
55.140,45.94
55.156,85.06
55.171,120.52
55.187,149.34
55.203,170.29
55.218,183.44
55.234,189.18
55.250,187.6
55.265,178.39
55.281,161.65
55.296,138.43
55.312,111.37
55.328,83.96
55.343,59.6
55.359,40.47
55.375,26.89
55.390,17.51
55.406,10.1
55.421,2.76
55.437,-5.44
55.453,-14.22
55.468,-22.52
55.484,-29.25
55.500,-33.94
55.515,-36.93
55.531,-39.15
55.546,-41.48
55.562,-44.22
55.578,-46.96
55.593,-48.66
55.609,-48.28
55.625,-45.31
55.640,-40.06
55.656,-33.56
55.671,-26.93
55.687,-20.84
55.703,-15.15
55.718,-9.42
55.734,-3.21
55.750,3.14
55.765,8.46
55.781,11.35
55.796,10.84
55.812,6.99
55.828,1.05
55.843,-5.23
55.859,-10.53
55.875,-14.26
55.890,-16.81
55.906,-19.01
55.921,-21.32
55.937,-23.43
55.953,-24.37
55.968,-23.06
55.984,-18.97
56.000,-12.65
56.015,-5.4
56.031,1.21
56.046,6.1
56.062,9.22
56.078,11.29
56.093,13.4
56.109,16.31
56.125,20.1
56.140,24.06
56.156,27.43
56.171,29.74
56.187,31.13
56.203,32.4
56.218,34.3
56.234,37.21
56.250,40.71
56.265,43.77
56.281,45.27
56.296,44.73
56.312,42.37
56.328,39.26
56.343,36.61
56.359,35.01
56.375,34.14
56.390,32.96
56.406,30.18
56.421,25.11
56.437,18.05
56.453,10.21
56.468,3.2
56.484,-1.88
56.500,-4.99
56.515,-7.25
56.531,-10.18
56.546,-15.16
56.562,-22.41
56.578,-31.07
56.593,-39.62
56.609,-46.58
56.625,-51.41
56.640,-54.76
56.656,-57.96
56.671,-62.06
56.687,-67.27
56.703,-72.51
56.718,-75.71
56.734,-74.57
56.750,-67.2
56.765,-52.84
56.781,-32.0
56.796,-6.17
56.812,22.65
56.828,52.36
56.843,81.15
56.859,107.68
56.875,130.87
56.890,149.74
56.906,163.36
56.921,170.81
56.937,171.43
56.953,165.01
56.968,151.98
56.984,133.39
57.000,110.7
57.015,85.36
57.031,58.57
57.046,31.43
57.062,4.95
57.078,-19.61
57.093,-40.98
57.109,-57.93
57.125,-69.65
57.140,-75.96
57.156,-77.25
57.171,-74.08
57.187,-66.83
57.203,-55.69
57.218,-40.91
57.234,-23.46
57.250,-5.23
57.265,11.11
57.281,22.9
57.296,28.51
57.312,28.12
57.328,23.66
57.343,18.0
57.359,13.74
57.375,12.13
57.390,12.7
57.406,13.68
57.421,13.03
57.437,9.34
57.453,2.37
57.468,-7.1
57.484,-17.88
57.500,-29.21
57.515,-41.06
57.531,-53.94
57.546,-68.37
57.562,-84.3
57.578,-101.07
57.593,-117.71
57.609,-133.42
57.625,-147.88
57.640,-161.26
57.656,-173.51
57.671,-184.02
57.687,-191.62
57.703,-194.96
57.718,-193.35
57.734,-187.19
57.750,-177.65
57.765,-165.97
57.781,-152.91
57.796,-138.32
57.812,-121.7
57.828,-102.51
57.843,-80.55
57.859,-56.07
57.875,-29.59
57.890,-1.7
57.906,26.82
57.921,55.23
57.937,82.82
57.953,108.93
57.968,133.13
57.984,155.1
58.000,174.73
58.015,191.71
58.031,205.69
58.046,216.16
58.062,222.73
58.078,225.37
58.093,224.27
58.109,219.6
58.125,211.59
58.140,200.29
58.156,185.77
58.171,168.31
58.187,148.29
58.203,126.21
58.218,102.81
58.234,78.88
58.250,55.22
58.265,32.75
58.281,12.22
58.296,-5.88
58.312,-21.55
58.328,-35.08
58.343,-46.74
58.359,-56.41
58.375,-63.51
58.390,-67.38
58.406,-67.82
58.421,-65.56
58.437,-62.06
58.453,-58.97
58.468,-57.21
58.484,-56.9
58.500,-57.26
58.515,-57.43
58.531,-56.89
58.546,-55.57
58.562,-53.85
58.578,-52.26
58.593,-51.17
58.609,-50.99
58.625,-52.55
58.640,-57.0
58.656,-65.8
58.671,-79.75
58.687,-98.62
58.703,-120.92
58.718,-144.25
58.734,-165.66
58.750,-182.5
58.765,-192.66
58.781,-194.53
58.796,-186.95
58.812,-168.87
58.828,-139.63
58.843,-99.35
58.859,-49.5
58.875,6.91
58.890,65.65
58.906,121.89
58.921,171.34
58.937,210.73
58.953,238.14
58.968,252.81
58.984,254.68
59.000,244.05
59.015,221.44
59.031,187.93
59.046,145.52
59.062,97.4
59.078,47.48
59.093,-0.19
59.109,-42.25
59.125,-76.72
59.140,-103.07
59.156,-121.9
59.171,-134.26
59.187,-141.02
59.203,-142.32
59.218,-137.85
59.234,-127.13
59.250,-110.52
59.265,-89.51
59.281,-66.52
59.296,-44.22
59.312,-24.61
59.328,-8.48
59.343,4.51
59.359,15.25
59.375,24.39
59.390,31.98
59.406,37.47
59.421,40.36
59.437,40.66
59.453,39.07
59.468,36.75
59.484,34.62
59.500,32.88
59.515,30.89
59.531,27.54
59.546,22.08
59.562,14.53
59.578,5.89
59.593,-2.21
59.609,-8.2
59.625,-11.19
59.640,-11.4
59.656,-9.9
59.671,-8.0
59.687,-6.58
59.703,-5.75
59.718,-5.11
59.734,-4.03
59.750,-2.43
59.765,-0.9
59.781,-0.69
59.796,-3.01
59.812,-8.49
59.828,-16.7
59.843,-26.3
59.859,-35.65
59.875,-43.38
59.890,-49.09
59.906,-53.03
59.921,-55.49
59.937,-55.97
59.953,-53.15
59.968,-45.29
59.984,-31.29
