timestamp,value
00.000,0.18
00.015,-0.77
00.031,-1.11
00.046,-0.37
00.062,1.41
00.078,3.53
00.093,5.13
00.109,5.61
00.125,4.97
00.140,3.77
00.156,2.99
00.171,3.36
00.187,4.99
00.203,7.35
00.218,9.56
00.234,10.8
00.250,10.87
00.265,10.05
00.281,8.99
00.296,8.18
00.312,7.69
00.328,7.19
00.343,6.15
00.359,4.42
00.375,2.17
00.390,0.1
00.406,-1.02
00.421,-0.73
00.437,0.77
00.453,2.7
00.468,4.19
00.484,4.64
00.500,4.1
00.515,3.17
00.531,2.59
00.546,2.93
00.562,4.2
00.578,5.86
00.593,7.18
00.609,7.71
00.625,7.49
00.640,6.96
00.656,6.75
00.671,7.19
00.687,8.21
00.703,9.31
00.718,9.98
00.734,9.87
00.750,9.11
00.765,8.16
00.781,7.56
00.796,7.6
00.812,8.16
00.828,8.76
00.843,8.79
00.859,7.93
00.875,6.22
00.890,4.13
00.906,2.27
00.921,1.07
00.937,0.5
00.953,0.1
00.968,-0.75
00.984,-2.5
01.000,-5.13
01.015,-8.18
01.031,-10.89
01.046,-12.66
01.062,-13.31
01.078,-13.12
01.093,-12.69
01.109,-12.56
01.125,-12.98
01.140,-13.6
01.156,-13.69
01.171,-12.3
01.187,-8.67
01.203,-2.61
01.218,5.53
01.234,14.92
01.250,24.49
01.265,33.29
01.281,40.55
01.296,45.61
01.312,47.81
01.328,46.47
01.343,41.12
01.359,31.83
01.375,19.47
01.390,5.66
01.406,-7.65
01.421,-18.8
01.437,-27.02
01.453,-32.48
01.468,-35.97
01.484,-38.26
01.500,-39.67
01.515,-39.9
01.531,-38.27
01.546,-34.39
01.562,-28.56
01.578,-21.85
01.593,-15.71
01.609,-11.19
01.625,-8.61
01.640,-7.38
01.656,-6.44
01.671,-4.96
01.687,-2.79
01.703,-0.66
01.718,0.41
01.734,-0.28
01.750,-2.53
01.765,-5.3
01.781,-7.27
01.796,-7.5
01.812,-6.06
01.828,-3.92
01.843,-2.33
01.859,-2.08
01.875,-3.06
01.890,-4.3
01.906,-4.59
01.921,-3.21
01.937,-0.43
01.953,2.68
01.968,4.76
01.984,5.05
02.000,3.82
02.015,2.21
02.031,1.69
02.046,3.22
02.062,6.76
02.078,11.22
02.093,14.99
02.109,16.84
02.125,16.39
02.140,14.32
02.156,11.87
02.171,10.06
02.187,9.1
02.203,8.37
02.218,6.84
02.234,3.84
02.250,-0.41
02.265,-4.85
02.281,-8.1
02.296,-9.23
02.312,-8.31
02.328,-6.38
02.343,-4.9
02.359,-4.79
02.375,-5.99
02.390,-7.5
02.406,-7.97
02.421,-6.57
02.437,-3.52
02.453,-0.05
02.468,2.22
02.484,2.21
02.500,-0.11
02.515,-3.61
02.531,-6.61
02.546,-7.79
02.562,-6.82
02.578,-4.51
02.593,-2.38
02.609,-1.73
02.625,-3.01
02.640,-5.65
02.656,-8.38
02.671,-10.03
02.687,-10.17
02.703,-9.2
02.718,-8.08
02.734,-7.55
02.750,-7.71
02.765,-7.79
02.781,-6.76
02.796,-4.08
02.812,-0.1
02.828,3.94
02.843,6.55
02.859,6.79
02.875,4.95
02.890,2.29
02.906,0.55
02.921,0.86
02.937,3.12
02.953,6.13
02.968,8.24
02.984,8.21
03.000,5.9
03.015,2.31
03.031,-0.96
03.046,-2.66
03.062,-2.46
03.078,-1.19
03.093,-0.13
03.109,-0.33
03.125,-2.0
03.140,-4.38
03.156,-6.23
03.171,-6.61
03.187,-5.5
03.203,-3.83
03.218,-2.95
03.234,-3.83
03.250,-6.48
03.265,-9.85
03.281,-12.46
03.296,-13.19
03.312,-11.94
03.328,-9.65
03.343,-7.67
03.359,-7.01
03.375,-7.67
03.390,-8.69
03.406,-8.66
03.421,-6.62
03.437,-2.71
03.453,1.87
03.468,5.55
03.484,7.16
03.500,6.63
03.515,4.89
03.531,3.37
03.546,3.13
03.562,4.26
03.578,5.91
03.593,6.79
03.609,6.13
03.625,4.04
03.640,1.67
03.656,0.35
03.671,1.03
03.687,3.52
03.703,6.68
03.718,8.96
03.734,9.28
03.750,7.67
03.765,5.15
03.781,3.03
03.796,2.11
03.812,2.13
03.828,1.94
03.843,0.19
03.859,-3.73
03.875,-9.26
03.890,-14.67
03.906,-18.01
03.921,-18.0
03.937,-14.73
03.953,-9.7
03.968,-4.86
03.984,-1.87
04.000,-1.23
04.015,-2.07
04.031,-2.82
04.046,-2.18
04.062,0.1
04.078,3.13
04.093,5.28
04.109,5.43
04.125,3.43
04.140,0.42
04.156,-1.87
04.171,-2.08
04.187,-0.03
04.203,3.17
04.218,5.9
04.234,6.86
04.250,5.86
04.265,3.86
04.281,2.37
04.296,2.41
04.312,3.92
04.328,5.63
04.343,5.94
04.359,3.87
04.375,-0.41
04.390,-5.43
04.406,-9.35
04.421,-10.92
04.437,-10.11
04.453,-8.11
04.468,-6.63
04.484,-6.76
04.500,-8.48
04.515,-10.69
04.531,-11.8
04.546,-10.82
04.562,-7.86
04.578,-4.15
04.593,-1.29
04.609,-0.41
04.625,-1.53
04.640,-3.51
04.656,-4.82
04.671,-4.39
04.687,-2.15
04.703,0.87
04.718,3.27
04.734,4.14
04.750,3.54
04.765,2.48
04.781,2.31
04.796,3.82
04.812,6.76
04.828,9.95
04.843,11.93
04.859,11.72
04.875,9.49
04.890,6.49
04.906,4.3
04.921,4.11
04.937,5.85
04.953,8.44
04.968,10.31
04.984,10.34
05.000,8.5
05.015,5.9
05.031,4.14
05.046,4.23
05.062,6.06
05.078,8.29
05.093,9.25
05.109,7.77
05.125,3.94
05.140,-0.96
05.156,-5.06
05.171,-7.15
05.187,-7.12
05.203,-6.08
05.218,-5.56
05.234,-6.57
05.250,-9.05
05.265,-11.9
05.281,-13.67
05.296,-13.41
05.312,-11.34
05.328,-8.65
05.343,-6.68
05.359,-6.26
05.375,-7.16
05.390,-8.18
05.406,-7.98
05.421,-5.78
05.437,-1.87
05.453,2.49
05.468,5.76
05.484,7.02
05.500,6.33
05.515,4.72
05.531,3.65
05.546,4.03
05.562,5.81
05.578,8.04
05.593,9.48
05.609,9.38
05.625,7.95
05.640,6.3
05.656,5.78
05.671,7.2
05.687,10.23
05.703,13.54
05.718,15.6
05.734,15.43
05.750,13.19
05.765,10.06
05.781,7.56
05.796,6.75
05.812,7.54
05.828,8.79
05.843,9.01
05.859,7.23
05.875,3.52
05.890,-0.95
05.906,-4.65
05.921,-6.51
05.937,-6.56
05.953,-5.88
05.968,-5.93
05.984,-7.71
06.000,-11.03
06.015,-14.78
06.031,-17.39
06.046,-17.91
06.062,-16.58
06.078,-14.62
06.093,-13.59
06.109,-14.38
06.125,-16.67
06.140,-18.96
06.156,-19.56
06.171,-17.32
06.187,-12.51
06.203,-6.61
06.218,-1.46
06.234,1.67
06.250,2.76
06.265,2.98
06.281,3.93
06.296,6.55
06.312,10.61
06.328,14.71
06.343,17.02
06.359,16.44
06.375,13.19
06.390,8.68
06.406,4.84
06.421,3.01
06.437,3.21
06.453,4.32
06.468,4.86
06.484,3.81
06.500,1.46
06.515,-0.9
06.531,-1.76
06.546,-0.29
06.562,3.01
06.578,6.56
06.593,8.61
06.609,8.25
06.625,5.87
06.640,3.09
06.656,1.73
06.671,2.83
06.687,6.03
06.703,9.72
06.718,11.92
06.734,11.44
06.750,8.41
06.765,4.28
06.781,0.93
06.796,-0.32
06.812,0.54
06.828,2.5
06.843,4.08
06.859,4.33
06.875,3.41
06.890,2.34
06.906,2.27
06.921,3.79
06.937,6.32
06.953,8.47
06.968,8.92
06.984,7.21
07.000,4.16
07.015,1.51
07.031,0.85
07.046,2.79
07.062,6.65
07.078,10.69
07.093,13.17
07.109,13.24
07.125,11.37
07.140,8.98
07.156,7.58
07.171,7.8
07.187,9.08
07.203,10.07
07.218,9.38
07.234,6.4
07.250,1.68
07.265,-3.39
07.281,-7.2
07.296,-8.85
07.312,-8.58
07.328,-7.49
07.343,-6.89
07.359,-7.49
07.375,-9.05
07.390,-10.46
07.406,-10.63
07.421,-9.03
07.437,-6.19
07.453,-3.41
07.468,-2.09
07.484,-2.84
07.500,-5.13
07.515,-7.57
07.531,-8.53
07.546,-7.26
07.562,-4.07
07.578,-0.25
07.593,2.72
07.609,3.87
07.625,3.37
07.640,2.23
07.656,1.77
07.671,2.78
07.687,5.03
07.703,7.46
07.718,8.79
07.734,8.32
07.750,6.32
07.765,3.93
07.781,2.31
07.796,2.06
07.812,2.71
07.828,3.06
07.843,2.0
07.859,-0.82
07.875,-4.55
07.890,-7.53
07.906,-8.18
07.921,-5.84
07.937,-1.25
07.953,3.9
07.968,7.77
07.984,9.41
08.000,9.13
08.015,8.15
08.031,7.81
08.046,8.54
08.062,9.66
08.078,9.58
08.093,6.9
08.109,1.19
08.125,-6.55
08.140,-14.21
08.156,-19.69
08.171,-21.88
08.187,-21.11
08.203,-18.91
08.218,-16.99
08.234,-16.32
08.250,-16.73
08.265,-17.0
08.281,-15.78
08.296,-12.55
08.312,-8.0
08.328,-3.64
08.343,-1.04
08.359,-0.84
08.375,-2.34
08.390,-3.94
08.406,-3.96
08.421,-1.58
08.437,2.65
08.453,7.09
08.468,10.07
08.484,10.64
08.500,9.12
08.515,6.8
08.531,5.15
08.546,4.82
08.562,5.38
08.578,5.58
08.593,4.13
08.609,0.67
08.625,-3.93
08.640,-7.95
08.656,-9.73
08.671,-8.6
08.687,-5.26
08.703,-1.44
08.718,1.02
08.734,1.17
08.750,-0.69
08.765,-3.26
08.781,-4.99
08.796,-5.17
08.812,-4.29
08.828,-3.66
08.843,-4.48
08.859,-7.15
08.875,-10.78
08.890,-13.74
08.906,-14.56
08.921,-12.7
08.937,-8.91
08.953,-4.73
08.968,-1.63
08.984,-0.03
09.000,0.71
09.015,1.95
09.031,4.81
09.046,9.41
09.062,14.8
09.078,19.34
09.093,21.71
09.109,21.5
09.125,19.57
09.140,17.45
09.156,16.52
09.171,17.25
09.187,18.94
09.203,20.29
09.218,20.18
09.234,18.42
09.250,15.98
09.265,14.37
09.281,14.81
09.296,17.35
09.312,20.75
09.328,23.02
09.343,22.59
09.359,19.06
09.375,13.54
09.390,8.02
09.406,4.35
09.421,3.18
09.437,3.78
09.453,4.56
09.468,4.09
09.484,2.35
09.500,0.95
09.515,2.75
09.531,10.56
09.546,26.01
09.562,48.41
09.578,75.22
09.593,103.0
09.609,128.48
09.625,149.73
09.640,166.28
09.656,178.66
09.671,187.7
09.687,193.85
09.703,196.4
09.718,194.3
09.734,186.77
09.750,173.82
09.765,156.58
09.781,136.75
09.796,115.85
09.812,94.53
09.828,72.34
09.843,47.24
09.859,16.63
09.875,-22.05
09.890,-71.24
09.906,-132.88
09.921,-208.41
09.937,-297.95
09.953,-399.47
09.968,-502.19
09.984,-590.67
10.000,-647.13
10.015,-656.91
10.031,-614.48
10.046,-525.55
10.062,-404.46
10.078,-268.12
10.093,-130.66
10.109,-1.24
10.125,114.58
10.140,213.5
10.156,293.38
10.171,353.18
10.187,394.58
10.203,421.22
10.218,437.34
10.234,447.26
10.250,454.2
10.265,459.21
10.281,461.2
10.296,457.17
10.312,443.66
10.328,418.03
10.343,379.41
10.359,328.73
10.375,268.36
10.390,200.72
10.406,128.81
10.421,55.82
10.437,-15.55
10.453,-82.68
10.468,-142.94
10.484,-193.45
10.500,-231.34
10.515,-254.01
10.531,-259.93
10.546,-249.23
10.562,-223.78
10.578,-187.27
10.593,-144.3
10.609,-99.95
10.625,-58.33
10.640,-21.94
10.656,8.5
10.671,33.79
10.687,55.37
10.703,74.77
10.718,92.4
10.734,107.96
10.750,119.47
10.765,125.04
10.781,123.56
10.796,114.7
10.812,98.94
10.828,76.63
10.843,47.97
10.859,11.2
10.875,-35.97
10.890,-97.31
10.906,-174.51
10.921,-265.84
10.937,-366.28
10.953,-467.83
10.968,-560.92
10.984,-635.7
11.000,-685.82
11.015,-707.84
11.031,-703.66
11.046,-677.6
11.062,-635.8
11.078,-586.22
11.093,-536.33
11.109,-491.57
11.125,-453.0
11.140,-420.01
11.156,-374.73
11.171,-306.67
11.187,-214.35
11.203,-106.86
11.218,-0.63
11.234,89.95
11.250,150.21
11.265,185.06
11.281,203.5
11.296,212.14
11.312,210.64
11.328,195.46
11.343,165.63
11.359,120.33
11.375,62.25
11.390,-2.79
11.406,-66.36
11.421,-121.83
11.437,-164.08
11.453,-191.64
11.468,-203.53
11.484,-192.35
11.500,-153.52
11.515,-86.02
11.531,5.79
11.546,113.36
11.562,224.22
11.578,326.27
11.593,409.1
11.609,466.86
11.625,498.51
11.640,506.09
11.656,494.74
11.671,471.06
11.687,442.26
11.703,413.39
11.718,387.86
11.734,366.72
11.750,349.51
11.765,333.62
11.781,313.91
11.796,284.77
11.812,242.36
11.828,187.15
11.843,124.16
11.859,62.0
11.875,9.56
11.890,-27.22
11.906,-47.29
11.921,-54.59
11.937,-54.98
11.953,-53.28
11.968,-51.56
11.984,-49.73
12.000,-46.9
12.015,-42.99
12.031,-39.01
12.046,-36.47
12.062,-36.44
12.078,-38.69
12.093,-41.82
12.109,-44.0
12.125,-43.86
12.140,-41.17
12.156,-36.9
12.171,-32.56
12.187,-29.5
12.203,-28.36
12.218,-28.82
12.234,-29.8
12.250,-30.16
12.265,-29.14
12.281,-26.64
12.296,-23.27
12.312,-19.91
12.328,-17.19
12.343,-15.15
12.359,-13.19
12.375,-10.2
12.390,-5.03
12.406,3.08
12.421,14.45
12.437,28.67
12.453,44.8
12.468,61.54
12.484,77.48
12.500,91.16
12.515,101.35
12.531,106.89
12.546,107.12
12.562,101.83
12.578,91.33
12.593,76.3
12.609,57.67
12.625,36.57
12.640,14.36
12.656,-7.69
12.671,-28.34
12.687,-46.33
12.703,-60.72
12.718,-70.9
12.734,-77.04
12.750,-80.12
12.765,-81.77
12.781,-83.65
12.796,-87.04
12.812,-92.3
12.828,-98.49
12.843,-103.63
12.859,-105.26
12.875,-101.16
12.890,-89.97
12.906,-71.68
12.921,-47.44
12.937,-19.14
12.953,10.5
12.968,38.46
12.984,61.88
13.000,79.01
13.015,89.65
13.031,95.33
13.046,98.61
13.062,101.64
13.078,104.96
13.093,106.64
13.109,103.17
13.125,91.37
13.140,70.85
13.156,44.54
13.171,17.81
13.187,-3.51
13.203,-15.34
13.218,-15.98
13.234,-6.16
13.250,12.0
13.265,36.21
13.281,64.35
13.296,93.94
13.312,121.94
13.328,145.33
13.343,161.82
13.359,170.75
13.375,173.13
13.390,170.95
13.406,166.75
13.421,162.48
13.437,159.33
13.453,157.37
13.468,156.2
13.484,155.12
13.500,153.24
13.515,151.7
13.531,150.64
13.546,149.91
13.562,148.76
13.578,146.12
13.593,140.91
13.609,132.75
13.625,122.06
13.640,109.97
13.656,96.21
13.671,79.83
13.687,60.58
13.703,38.37
13.718,13.23
13.734,-14.73
13.750,-45.17
13.765,-77.57
13.781,-111.25
13.796,-148.07
13.812,-188.31
13.828,-228.59
13.843,-263.36
13.859,-288.18
13.875,-302.52
13.890,-310.0
13.906,-316.65
13.921,-328.13
13.937,-351.36
13.953,-387.8
13.968,-431.92
13.984,-474.54
14.000,-508.38
14.015,-530.77
14.031,-542.9
14.046,-547.41
14.062,-546.6
14.078,-547.01
14.093,-552.26
14.109,-560.72
14.125,-567.02
14.140,-566.7
14.156,-559.14
14.171,-547.84
14.187,-538.34
14.203,-494.97
14.218,-402.41
14.234,-272.05
14.250,-131.63
14.265,-2.35
14.281,109.32
14.296,205.11
14.312,287.73
14.328,358.45
14.343,417.61
14.359,462.51
14.375,492.85
14.390,510.0
14.406,517.98
14.421,520.94
14.437,522.48
14.453,526.1
14.468,535.3
14.484,538.1
14.500,526.42
14.515,495.17
14.531,444.16
14.546,378.73
14.562,306.62
14.578,235.4
14.593,171.18
14.609,117.5
14.625,75.2
14.640,42.3
14.656,15.97
14.671,-5.28
14.687,-21.31
14.703,-32.56
14.718,-42.34
14.734,-52.0
14.750,-62.18
14.765,-72.73
14.781,-82.35
14.796,-89.18
14.812,-90.7
14.828,-84.08
14.843,-68.62
14.859,-46.68
14.875,-22.98
14.890,-3.88
14.906,4.65
14.921,0.25
14.937,-14.27
14.953,-31.72
14.968,-42.25
14.984,-38.78
15.000,-20.26
15.015,7.67
15.031,39.74
15.046,70.94
15.062,98.1
15.078,119.39
15.093,133.9
15.109,141.34
15.125,142.01
15.140,134.17
15.156,118.92
15.171,98.76
15.187,75.79
15.203,51.55
15.218,26.43
15.234,-0.62
15.250,-31.58
15.265,-68.67
15.281,-112.7
15.296,-161.16
15.312,-208.41
15.328,-247.22
15.343,-271.22
15.359,-277.24
15.375,-267.06
15.390,-246.54
15.406,-222.82
15.421,-200.87
15.437,-180.89
15.453,-159.16
15.468,-130.97
15.484,-93.45
15.500,-47.42
15.515,3.1
15.531,52.74
15.546,96.78
15.562,132.25
15.578,158.15
15.593,174.42
15.609,181.06
15.625,178.29
15.640,166.58
15.656,146.75
15.671,119.91
15.687,87.07
15.703,49.25
15.718,8.18
15.734,-33.19
15.750,-70.76
15.765,-100.18
15.781,-118.25
15.796,-124.26
15.812,-120.17
15.828,-109.7
15.843,-96.41
15.859,-81.96
15.875,-65.83
15.890,-46.39
15.906,-22.67
15.921,4.33
15.937,31.53
15.953,55.39
15.968,73.78
15.984,87.17
16.000,98.48
16.015,111.34
16.031,128.27
16.046,149.64
16.062,173.9
16.078,198.76
16.093,222.44
16.109,244.32
16.125,264.66
16.140,283.63
16.156,300.43
16.171,313.29
16.187,319.89
16.203,318.5
16.218,308.81
16.234,292.23
16.250,271.73
16.265,250.5
16.281,230.67
16.296,212.29
16.312,193.42
16.328,171.11
16.343,143.1
16.359,109.26
16.375,71.92
16.390,34.92
16.406,1.56
16.421,-26.88
16.437,-51.64
16.453,-75.43
16.468,-100.78
16.484,-128.4
16.500,-156.64
16.515,-182.11
16.531,-200.93
16.546,-210.13
16.562,-208.05
16.578,-194.25
16.593,-169.32
16.609,-134.78
16.625,-93.45
16.640,-49.52
16.656,-8.27
16.671,25.44
16.687,48.7
16.703,61.83
16.718,68.19
16.734,72.62
16.750,79.18
16.765,89.07
16.781,99.98
16.796,106.92
16.812,104.45
16.828,88.93
16.843,60.01
16.859,20.58
16.875,-24.39
16.890,-69.89
16.906,-112.28
16.921,-149.99
16.937,-183.12
16.953,-212.29
16.968,-238.17
16.984,-261.53
17.000,-284.05
17.015,-308.74
17.031,-338.9
17.046,-376.15
17.062,-417.94
17.078,-456.84
17.093,-482.31
17.109,-484.53
17.125,-458.33
17.140,-404.91
17.156,-330.9
17.171,-245.24
17.187,-156.35
17.203,-70.54
17.218,7.24
17.234,72.45
17.250,120.65
17.265,148.81
17.281,157.03
17.296,149.54
17.312,133.71
17.328,117.43
17.343,106.12
17.359,101.12
17.375,99.98
17.390,98.47
17.406,92.94
17.421,81.97
17.437,66.68
17.453,49.99
17.468,35.12
17.484,24.21
17.500,17.89
17.515,15.19
17.531,14.33
17.546,13.43
17.562,11.07
17.578,6.74
17.593,0.83
17.609,-5.53
17.625,-11.21
17.640,-15.48
17.656,-18.45
17.671,-20.97
17.687,-24.2
17.703,-28.88
17.718,-34.97
17.734,-41.4
17.750,-46.5
17.765,-48.72
17.781,-47.34
17.796,-42.71
17.812,-35.99
17.828,-28.41
17.843,-20.83
17.859,-13.54
17.875,-6.47
17.890,0.24
17.906,6.14
17.921,10.58
17.937,12.92
17.953,12.98
17.968,11.04
17.984,7.59
18.000,3.0
18.015,-2.68
18.031,-9.61
18.046,-17.6
18.062,-25.73
18.078,-32.32
18.093,-35.34
18.109,-33.16
18.125,-25.35
18.140,-12.81
18.156,2.44
18.171,18.13
18.187,32.38
18.203,44.08
18.218,52.78
18.234,58.52
18.250,61.36
18.265,61.39
18.281,58.73
18.296,53.66
18.312,46.61
18.328,37.88
18.343,27.69
18.359,16.1
18.375,3.56
18.390,-9.05
18.406,-20.34
18.421,-28.76
18.437,-33.1
18.453,-32.88
18.468,-28.51
18.484,-20.93
18.500,-11.24
18.515,-0.44
18.531,10.6
18.546,21.03
18.562,29.97
18.578,36.56
18.593,40.45
18.609,41.93
18.625,42.05
18.640,42.06
18.656,42.69
18.671,43.61
18.687,43.69
18.703,41.54
18.718,36.31
18.734,28.38
18.750,19.07
18.765,10.33
18.781,3.7
18.796,0.01
18.812,-0.76
18.828,0.97
18.843,4.76
18.859,10.3
18.875,17.36
18.890,25.37
18.906,33.22
18.921,39.37
18.937,42.3
18.953,41.05
18.968,35.78
18.984,27.79
19.000,19.05
19.015,11.17
19.031,4.54
19.046,-2.02
19.062,-10.5
19.078,-22.35
19.093,-36.97
19.109,-51.57
19.125,-62.05
19.140,-65.09
19.156,-59.74
19.171,-47.87
19.187,-32.92
19.203,-18.11
19.218,-4.75
19.234,7.86
19.250,21.23
19.265,36.14
19.281,51.36
19.296,64.07
19.312,71.26
19.328,71.38
19.343,65.18
19.359,55.36
19.375,45.14
19.390,36.59
19.406,29.92
19.421,23.6
19.437,15.73
19.453,5.5
19.468,-5.99
19.484,-15.88
19.500,-20.89
19.515,-18.83
19.531,-9.93
19.546,3.4
19.562,17.66
19.578,29.76
19.593,38.25
19.609,43.42
19.625,46.51
19.640,48.64
19.656,49.86
19.671,49.15
19.687,45.29
19.703,37.6
19.718,26.49
19.734,13.12
19.750,-1.1
19.765,-15.18
19.781,-28.44
19.796,-40.16
19.812,-49.27
19.828,-54.24
19.843,-53.77
19.859,-47.43
19.875,-35.98
19.890,-21.24
19.906,-5.45
19.921,9.49
19.937,22.38
19.953,32.64
19.968,40.17
19.984,44.89
20.000,46.61
20.015,45.31
20.031,40.96
20.046,33.48
20.062,22.93
20.078,9.73
20.093,-5.0
20.109,-19.04
20.125,-29.63
20.140,-34.34
20.156,-32.16
20.171,-24.06
20.187,-12.7
20.203,-1.15
20.218,8.49
20.234,15.7
20.250,21.34
20.265,26.42
20.281,31.15
20.296,34.61
20.312,35.34
20.328,32.48
20.343,26.41
20.359,18.62
20.375,10.7
20.390,3.33
20.406,-4.01
20.421,-12.52
20.437,-22.82
20.453,-34.29
20.468,-44.89
20.484,-52.07
20.500,-54.06
20.515,-50.74
20.531,-43.57
20.546,-34.82
20.562,-26.34
20.578,-18.66
20.593,-11.28
20.609,-3.22
20.625,5.91
20.640,15.38
20.656,23.55
20.671,28.66
20.687,29.56
20.703,26.35
20.718,20.19
20.734,12.8
20.750,5.67
20.765,-0.37
20.781,-5.32
20.796,-9.43
20.812,-12.61
20.828,-14.37
20.843,-13.61
20.859,-9.38
20.875,-1.5
20.890,9.09
20.906,20.43
20.921,30.17
20.937,36.49
20.953,38.62
20.968,36.86
20.984,32.1
21.000,25.13
21.015,16.23
21.031,5.38
21.046,-7.15
21.062,-20.43
21.078,-32.49
21.093,-40.98
21.109,-43.96
21.125,-40.77
21.140,-32.41
21.156,-21.31
21.171,-10.32
21.187,-1.81
21.203,3.08
21.218,4.55
21.234,3.62
21.250,1.27
21.265,-2.03
21.281,-6.38
21.296,-11.99
21.312,-18.29
21.328,-23.84
21.343,-26.47
21.359,-24.22
21.375,-16.38
21.390,-4.11
21.406,10.03
21.421,22.9
21.437,32.15
21.453,36.84
21.468,37.49
21.484,35.22
21.500,30.99
21.515,24.8
21.531,16.09
21.546,4.59
21.562,-8.72
21.578,-21.43
21.593,-30.21
21.609,-32.16
21.625,-26.16
21.640,-13.41
21.656,2.84
21.671,18.57
21.687,30.59
21.703,37.41
21.718,39.17
21.734,37.01
21.750,31.93
21.765,23.98
21.781,12.46
21.796,-3.38
21.812,-23.18
21.828,-44.63
21.843,-63.55
21.859,-75.13
21.875,-75.74
21.890,-64.84
21.906,-45.41
21.921,-22.95
21.937,-3.26
21.953,10.02
21.968,16.56
21.984,18.79
22.000,20.04
22.015,22.5
22.031,26.05
22.046,28.86
22.062,28.99
22.078,25.96
22.093,21.35
22.109,17.86
22.125,17.63
22.140,20.94
22.156,26.16
22.171,30.65
22.187,32.44
22.203,31.26
22.218,28.48
22.234,26.25
22.250,26.02
22.265,27.69
22.281,29.65
22.296,29.64
22.312,25.99
22.328,18.44
22.343,8.41
22.359,-1.79
22.375,-9.73
22.390,-14.03
22.406,-14.65
22.421,-12.7
22.437,-9.87
22.453,-7.44
22.468,-5.86
22.484,-4.77
22.500,-3.56
22.515,-1.89
22.531,-0.08
22.546,1.18
22.562,1.36
22.578,0.59
22.593,-0.16
22.609,0.38
22.625,3.1
22.640,7.93
22.656,13.77
22.671,19.01
22.687,22.31
22.703,23.15
22.718,21.88
22.734,19.4
22.750,16.49
22.765,13.32
22.781,9.49
22.796,4.41
22.812,-2.25
22.828,-9.99
22.843,-17.53
22.859,-23.25
22.875,-25.76
22.890,-24.56
22.906,-20.29
22.921,-14.23
22.937,-7.8
22.953,-1.94
22.968,3.12
22.984,7.72
23.000,12.21
23.015,16.51
23.031,19.97
23.046,21.77
23.062,21.4
23.078,19.01
23.093,15.5
23.109,12.01
23.125,9.36
23.140,7.56
23.156,5.8
23.171,2.95
23.187,-1.7
23.203,-8.06
23.218,-15.19
23.234,-21.73
23.250,-26.65
23.265,-29.81
23.281,-31.87
23.296,-33.73
23.312,-35.9
23.328,-37.91
23.343,-38.56
23.359,-36.5
23.375,-31.05
23.390,-22.72
23.406,-13.05
23.421,-3.94
23.437,3.28
23.453,8.4
23.468,12.32
23.484,16.34
23.500,21.32
23.515,27.18
23.531,32.88
23.546,37.15
23.562,39.12
23.578,38.77
23.593,36.84
23.609,34.27
23.625,31.65
23.640,28.91
23.656,25.5
23.671,20.8
23.687,14.74
23.703,7.91
23.718,1.21
23.734,-4.5
23.750,-9.0
23.765,-12.9
23.781,-17.3
23.796,-23.25
23.812,-31.07
23.828,-39.86
23.843,-47.76
23.859,-52.7
23.875,-53.23
23.890,-49.28
23.906,-42.04
23.921,-33.4
23.937,-25.01
23.953,-17.71
23.968,-11.34
23.984,-5.14
24.000,1.43
24.015,8.28
24.031,14.5
24.046,19.01
24.062,21.15
24.078,21.16
24.093,20.11
24.109,19.19
24.125,19.12
24.140,19.63
24.156,19.74
24.171,18.29
24.187,14.81
24.203,10.01
24.218,5.32
24.234,2.13
24.250,0.85
24.265,0.57
24.281,-0.49
24.296,-3.87
24.312,-9.77
24.328,-16.95
24.343,-23.03
24.359,-25.77
24.375,-24.19
24.390,-18.99
24.406,-12.09
24.421,-5.71
24.437,-1.23
24.453,1.29
24.468,2.78
24.484,4.31
24.500,6.44
24.515,8.8
24.531,10.47
24.546,10.68
24.562,9.32
24.578,7.19
24.593,5.58
24.609,5.65
24.625,7.72
24.640,11.08
24.656,14.31
24.671,16.03
24.687,15.42
24.703,12.57
24.718,8.22
24.734,3.22
24.750,-1.89
24.765,-7.09
24.781,-12.5
24.796,-18.07
24.812,-22.99
24.828,-25.97
24.843,-25.77
24.859,-21.79
24.875,-14.67
24.890,-6.02
24.906,2.15
24.921,8.5
24.937,12.67
24.953,15.53
24.968,18.37
24.984,21.98
25.000,26.15
25.015,29.66
25.031,30.9
25.046,28.81
25.062,23.56
25.078,16.29
25.093,8.66
25.109,1.99
25.125,-3.52
25.140,-8.57
25.156,-14.35
25.171,-21.73
25.187,-30.85
25.203,-40.85
25.218,-50.5
25.234,-58.57
25.250,-64.25
25.265,-67.3
25.281,-67.65
25.296,-65.32
25.312,-60.2
25.328,-52.22
25.343,-41.52
25.359,-28.65
25.375,-14.61
25.390,-0.55
25.406,12.41
25.421,23.61
25.437,32.79
25.453,40.08
25.468,45.74
25.484,49.92
25.500,52.42
25.515,52.84
25.531,50.94
25.546,46.82
25.562,41.24
25.578,35.35
25.593,30.23
25.609,26.45
25.625,23.78
25.640,21.29
25.656,17.81
25.671,12.57
25.687,5.44
25.703,-2.95
25.718,-11.65
25.734,-19.72
25.750,-26.62
25.765,-32.01
25.781,-35.64
25.796,-37.43
25.812,-37.14
25.828,-34.76
25.843,-30.53
25.859,-25.11
25.875,-19.31
25.890,-14.0
25.906,-9.54
25.921,-5.74
25.937,-1.98
25.953,2.61
25.968,8.52
25.984,15.69
26.000,23.37
26.015,30.34
26.031,35.39
26.046,37.79
26.062,37.53
26.078,35.12
26.093,31.43
26.109,27.09
26.125,22.19
26.140,16.46
26.156,9.5
26.171,1.31
26.187,-7.4
26.203,-15.34
26.218,-21.1
26.234,-23.6
26.250,-22.81
26.265,-19.66
26.281,-15.49
26.296,-11.46
26.312,-7.95
26.328,-4.44
26.359,5.98
26.375,13.38
26.390,21.09
26.406,27.6
26.421,31.77
26.437,33.18
26.453,32.42
26.468,30.53
26.484,28.38
26.500,26.24
26.515,23.7
26.531,19.96
26.546,14.42
26.562,7.03
26.578,-1.76
26.593,-11.35
26.609,-21.28
26.625,-31.57
26.640,-42.54
26.656,-54.24
26.671,-66.03
26.687,-76.28
26.703,-82.68
26.718,-83.24
26.734,-77.29
26.750,-65.88
26.765,-51.5
26.781,-37.01
26.796,-24.46
26.812,-14.31
26.828,-5.67
26.843,2.82
26.859,11.92
26.875,21.26
26.890,29.53
26.906,35.28
26.921,37.7
26.937,36.83
26.953,33.15
26.968,27.01
26.984,18.39
27.000,7.04
27.015,-6.69
27.031,-21.37
27.046,-34.55
27.062,-43.41
27.078,-45.94
27.093,-41.95
27.109,-33.04
27.125,-22.0
27.140,-11.64
27.156,-3.7
27.171,1.49
27.187,4.82
27.203,7.61
27.218,10.91
27.234,14.9
27.250,19.02
27.265,22.32
27.281,23.99
27.296,23.71
27.312,21.88
27.328,19.51
27.343,17.65
27.359,17.11
27.375,17.99
27.390,19.77
27.406,21.65
27.421,22.98
27.437,23.77
27.453,24.56
27.468,26.08
27.484,28.6
27.500,31.64
27.515,34.09
27.531,34.86
27.546,33.42
27.562,30.21
27.578,26.47
27.593,23.43
27.609,21.72
27.625,21.04
27.640,20.53
27.656,19.34
27.671,17.25
27.687,14.63
27.703,12.11
27.718,10.0
27.734,7.81
27.750,4.46
27.765,-0.93
27.781,-8.32
27.796,-16.54
27.812,-23.6
27.828,-27.67
27.843,-28.01
27.859,-25.36
27.875,-21.49
27.890,-18.39
27.906,-17.16
27.921,-17.77
27.937,-19.29
27.953,-20.56
27.968,-20.88
27.984,-20.47
28.000,-20.14
28.015,-20.88
28.031,-22.99
28.046,-25.9
28.062,-28.25
28.078,-28.56
28.093,-25.94
28.109,-20.68
28.125,-14.36
28.140,-9.19
28.156,-7.18
28.171,-9.01
28.187,-13.7
28.203,-19.03
28.218,-22.57
28.234,-22.79
28.250,-19.76
28.265,-14.89
28.281,-9.84
28.296,-5.74
28.312,-2.46
28.328,0.94
28.343,5.49
28.359,11.36
28.375,17.66
28.390,22.83
28.406,25.54
28.421,25.54
28.437,23.64
28.453,21.4
28.468,20.13
28.484,20.38
28.500,21.78
28.515,23.41
28.531,24.3
28.546,23.88
28.562,22.14
28.578,19.5
28.593,16.6
28.609,14.07
28.625,12.42
28.640,11.88
28.656,12.6
28.671,14.47
28.687,17.17
28.703,20.2
28.718,22.83
28.734,24.26
28.750,23.8
28.765,21.15
28.781,16.41
28.796,10.25
28.812,3.7
28.828,-2.19
28.843,-6.57
28.859,-9.19
28.875,-10.31
28.890,-10.57
28.906,-10.41
28.921,-9.97
28.937,-8.88
28.953,-6.49
28.968,-2.48
28.984,2.83
29.000,8.39
29.015,12.78
29.031,14.92
29.046,14.75
29.062,13.15
29.078,11.5
29.093,10.82
29.109,11.23
29.125,11.86
29.140,11.48
29.156,9.21
29.171,5.15
29.187,0.47
29.203,-3.38
29.218,-5.29
29.234,-5.2
29.250,-4.12
29.265,-3.44
29.281,-4.31
29.296,-6.98
29.312,-10.73
29.328,-14.24
29.343,-16.6
29.359,-17.73
29.375,-18.49
29.390,-20.21
29.406,-23.81
29.421,-29.16
29.437,-35.0
29.453,-39.62
29.468,-41.65
29.484,-40.97
29.500,-38.56
29.515,-35.91
29.531,-34.18
29.546,-33.56
29.562,-33.29
29.578,-32.25
29.593,-29.82
29.609,-26.25
29.625,-22.74
29.640,-20.62
29.656,-20.74
29.671,-23.01
29.687,-26.38
29.703,-29.53
29.718,-31.54
29.734,-32.37
29.750,-32.53
29.765,-32.64
29.781,-32.76
29.796,-32.21
29.812,-30.06
29.828,-25.67
29.843,-19.38
29.859,-12.49
29.875,-6.57
29.890,-2.6
29.906,-0.31
29.921,1.55
29.937,4.46
29.953,9.17
29.968,15.19
29.984,20.9
30.000,24.38
30.015,24.4
30.031,21.07
30.046,15.71
30.062,10.25
30.078,6.18
30.093,4.1
30.109,3.54
30.125,3.56
30.140,3.47
30.156,3.23
30.171,3.38
30.187,4.54
30.203,6.84
30.218,9.63
30.234,11.93
30.250,12.86
30.265,12.3
30.281,10.96
30.296,9.94
30.312,10.12
30.328,11.59
30.343,13.54
30.359,14.62
30.375,13.77
30.390,10.7
30.406,6.31
30.421,2.38
30.437,0.87
30.453,3.11
30.468,9.04
30.484,17.13
30.500,24.94
30.515,30.28
30.531,32.09
30.546,30.85
30.562,28.18
30.578,25.76
30.593,24.57
30.609,24.42
30.625,24.37
30.640,23.47
30.656,21.45
30.671,18.96
30.687,17.13
30.703,16.9
30.718,18.21
30.734,20.03
30.750,20.88
30.765,19.59
30.781,15.91
30.796,10.68
30.812,5.37
30.828,1.49
30.843,-0.25
30.859,-0.45
30.875,-0.49
30.890,-2.01
30.906,-6.03
30.921,-12.39
30.937,-19.87
30.953,-26.73
30.968,-31.39
30.984,-33.12
31.000,-32.11
31.015,-28.85
31.031,-23.94
31.046,-17.47
31.062,-9.23
31.078,0.77
31.093,11.86
31.109,22.59
31.125,31.12
31.140,35.89
31.156,36.44
31.171,33.32
31.187,27.88
31.203,21.45
31.218,14.72
31.234,7.55
31.250,-0.41
31.265,-9.13
31.281,-17.62
31.296,-23.97
31.312,-26.09
31.328,-22.67
31.343,-13.79
31.359,-1.24
31.375,12.13
31.390,23.57
31.406,31.17
31.421,34.37
31.437,33.61
31.453,29.61
31.468,22.86
31.484,13.37
31.500,1.07
31.515,-13.53
31.531,-28.91
31.546,-42.75
31.562,-52.66
31.578,-57.21
31.593,-56.58
31.609,-52.31
31.625,-46.57
31.640,-41.11
31.656,-36.58
31.671,-32.57
31.687,-28.32
31.703,-23.45
31.718,-18.33
31.734,-13.84
31.750,-10.68
31.765,-8.81
31.781,-7.33
31.796,-4.92
31.812,-0.46
31.828,6.32
31.843,15.0
31.859,24.68
31.875,34.49
31.890,43.92
31.906,52.71
31.921,60.82
31.937,68.03
31.953,73.82
31.968,77.3
31.984,77.38
32.000,73.17
32.015,64.24
32.031,51.06
32.046,35.08
32.062,18.6
32.078,4.2
32.093,-6.04
32.109,-11.05
32.125,-10.98
32.140,-6.77
32.156,0.16
32.171,8.54
32.187,17.33
32.203,25.6
32.218,32.14
32.234,35.42
32.250,33.87
32.265,26.56
32.281,13.78
32.296,-2.63
32.312,-19.79
32.328,-34.57
32.343,-44.61
32.359,-48.97
32.375,-47.89
32.390,-42.31
32.406,-33.25
32.421,-21.45
32.437,-7.64
32.453,7.08
32.468,21.05
32.484,32.41
32.500,39.63
32.515,42.07
32.531,39.98
32.546,34.25
32.562,25.85
32.578,15.7
32.593,4.96
32.609,-4.79
32.625,-11.24
32.640,-11.98
32.656,-5.23
32.671,9.26
32.687,30.09
32.703,54.46
32.718,79.09
32.734,101.11
32.750,118.62
32.765,130.81
32.781,137.66
32.796,139.29
32.812,135.36
32.828,125.04
32.843,107.3
32.859,81.7
32.875,49.19
32.890,12.43
32.906,-24.53
32.921,-57.35
32.937,-82.6
32.953,-98.87
32.968,-106.83
32.984,-108.81
33.000,-108.0
33.015,-107.76
33.031,-111.27
33.046,-121.09
33.062,-138.65
33.078,-163.31
33.093,-191.74
33.109,-218.21
33.125,-236.02
33.140,-239.39
33.156,-225.52
33.171,-195.47
33.187,-153.6
33.203,-106.21
33.218,-59.28
33.234,-17.14
33.250,18.04
33.265,45.53
33.281,65.34
33.296,77.64
33.312,82.53
33.328,80.49
33.343,72.56
33.359,60.59
33.375,46.84
33.390,33.38
33.406,21.73
33.421,12.44
33.437,5.39
33.453,-0.03
33.468,-4.25
33.484,-7.48
33.500,-9.47
33.515,-9.85
33.531,-8.47
33.546,-5.49
33.562,-1.7
33.578,1.62
33.593,2.97
33.609,1.38
33.625,-3.21
33.640,-9.44
33.656,-14.91
33.671,-17.12
33.687,-14.27
33.703,-6.29
33.718,5.1
33.734,17.1
33.750,26.88
33.765,32.55
33.781,33.66
33.796,30.85
33.812,25.13
33.828,17.54
33.843,8.72
33.859,-0.76
33.875,-10.22
33.890,-18.84
33.906,-25.93
33.921,-31.26
33.937,-35.17
33.953,-38.67
33.968,-42.71
33.984,-48.09
34.000,-54.99
34.015,-62.95
34.031,-71.21
34.046,-79.02
34.062,-85.87
34.078,-91.49
34.093,-95.67
34.109,-98.09
34.125,-98.45
34.140,-96.41
34.156,-91.98
34.171,-85.54
34.187,-77.85
34.203,-69.6
34.218,-61.38
34.234,-53.24
34.250,-45.0
34.265,-36.51
34.281,-27.75
34.296,-18.97
34.312,-10.63
34.328,-3.09
34.343,3.49
34.359,9.16
34.375,14.33
34.390,19.56
34.406,25.51
34.421,32.71
34.437,41.27
34.453,50.55
34.468,59.5
34.484,66.9
34.500,71.88
34.515,74.35
34.531,75.0
34.546,74.99
34.562,75.4
34.578,76.71
34.593,78.68
34.609,80.58
34.625,81.66
34.640,81.6
34.656,80.69
34.671,79.63
34.687,79.21
34.703,79.89
34.718,81.57
34.734,83.67
34.750,85.59
34.765,86.73
34.781,86.95
34.796,86.45
34.812,85.56
34.828,84.62
34.843,83.94
34.859,83.87
34.875,84.86
34.890,87.42
34.906,91.91
34.921,98.43
34.937,106.68
34.953,115.99
34.968,125.67
34.984,135.53
35.000,146.4
35.015,160.0
35.031,178.33
35.046,202.39
35.062,230.81
35.078,259.21
35.093,280.85
35.109,288.62
35.125,277.75
35.140,248.08
35.156,204.38
35.171,154.78
35.187,107.84
35.203,69.51
35.218,41.42
35.234,21.12
35.250,4.05
35.265,-13.99
35.281,-34.99
35.296,-58.75
35.312,-83.99
35.328,-109.37
35.343,-134.05
35.359,-157.09
35.375,-177.01
35.390,-191.86
35.406,-200.26
35.421,-202.61
35.437,-201.4
35.453,-200.38
35.468,-202.77
35.484,-209.77
35.500,-219.89
35.515,-229.8
35.531,-235.89
35.546,-235.77
35.562,-229.07
35.578,-217.49
35.593,-204.27
35.609,-193.53
35.625,-189.52
35.640,-195.15
35.656,-211.17
35.671,-235.54
35.687,-264.33
35.703,-293.0
35.718,-317.69
35.734,-335.89
35.750,-346.11
35.765,-347.33
35.781,-338.17
35.796,-317.26
35.812,-283.47
35.828,-236.6
35.843,-177.61
35.859,-108.27
35.875,-31.25
35.890,49.99
35.906,131.11
35.921,207.37
35.937,273.82
35.953,326.56
35.968,363.33
35.984,383.88
36.000,389.99
36.015,384.81
36.031,372.11
36.046,355.5
36.062,337.92
36.078,320.84
36.093,304.34
36.109,287.04
36.125,266.58
36.140,240.8
36.156,208.74
36.171,171.21
36.187,130.61
36.203,89.87
36.218,51.15
36.234,15.3
36.250,-18.22
36.265,-50.71
36.281,-82.87
36.296,-114.51
36.312,-144.15
36.328,-169.74
36.343,-189.38
36.359,-202.02
36.375,-207.53
36.390,-206.73
36.406,-201.2
36.421,-192.9
36.437,-184.73
36.453,-180.24
36.468,-182.92
36.484,-194.89
36.500,-215.42
36.515,-240.19
36.531,-261.89
36.546,-272.72
36.562,-266.47
36.578,-240.81
36.593,-197.14
36.609,-138.99
36.625,-70.25
36.640,5.96
36.656,86.76
36.671,168.46
36.687,245.63
36.703,312.37
36.718,363.71
36.734,397.82
36.750,416.56
36.765,424.09
36.781,424.58
36.796,420.36
36.812,411.53
36.828,396.89
36.843,375.67
36.859,348.27
36.875,316.27
36.890,281.45
36.906,244.96
36.921,207.17
36.937,168.25
36.953,128.65
36.968,89.44
36.984,52.41
37.000,19.89
37.015,-5.47
37.031,-21.3
37.046,-26.6
37.062,-22.72
37.078,-14.04
37.093,-7.51
37.109,-10.7
37.125,-28.93
37.140,-63.2
37.156,-109.55
37.171,-160.6
37.187,-208.44
37.203,-246.87
37.218,-272.53
37.234,-284.29
37.250,-282.3
37.265,-267.14
37.281,-240.09
37.296,-203.61
37.312,-161.49
37.328,-118.11
37.343,-77.11
37.359,-40.97
37.375,-11.09
37.390,10.91
37.406,22.6
37.421,20.84
37.437,3.62
37.453,-28.19
37.468,-69.89
37.484,-114.17
37.500,-153.56
37.515,-183.11
37.531,-201.37
37.546,-209.72
37.562,-210.86
37.578,-206.92
37.593,-199.05
37.609,-187.78
37.625,-173.79
37.640,-158.21
37.656,-142.45
37.671,-127.38
37.687,-113.01
37.703,-99.01
37.718,-85.35
37.734,-73.03
37.750,-63.72
37.765,-58.96
37.781,-59.37
37.796,-64.19
37.812,-71.43
37.828,-78.72
37.843,-84.26
37.859,-87.18
37.875,-87.71
37.890,-86.18
37.906,-82.42
37.921,-75.38
37.937,-63.94
37.953,-47.81
37.968,-28.32
37.984,-8.1
38.000,10.55
38.015,26.91
38.031,42.8
38.046,61.66
38.062,86.44
38.078,117.21
38.093,150.34
38.109,179.58
38.125,198.94
38.140,205.51
38.156,200.21
38.171,186.51
38.187,168.34
38.203,148.36
38.218,127.86
38.234,107.83
38.250,89.91
38.265,76.65
38.281,70.54
38.296,72.59
38.312,81.54
38.328,94.2
38.343,106.66
38.359,115.65
38.375,119.21
38.390,116.63
38.406,107.92
38.421,93.63
38.437,74.8
38.453,53.15
38.468,31.24
38.484,11.82
38.500,-2.7
38.515,-11.04
38.531,-13.1
38.546,-9.96
38.562,-3.13
38.578,5.75
38.593,15.26
38.609,24.38
38.625,32.28
38.640,38.52
38.656,43.04
38.671,46.03
38.687,47.96
38.703,49.13
38.718,49.61
38.734,49.2
38.750,47.86
38.765,45.88
38.781,44.06
38.796,43.34
38.812,44.28
38.828,46.74
38.843,49.84
38.859,52.37
38.875,53.4
38.890,52.52
38.906,49.75
38.921,45.2
38.937,38.78
38.953,30.46
38.968,20.56
38.984,9.94
39.000,-0.06
39.015,-8.47
39.031,-15.23
39.046,-21.27
39.062,-27.96
39.078,-35.98
39.093,-44.66
39.109,-52.04
39.125,-55.68
39.140,-53.67
39.156,-45.52
39.171,-32.24
39.187,-15.86
39.203,1.07
39.218,16.37
39.234,28.25
39.250,35.86
39.265,39.35
39.281,39.34
39.296,36.27
39.312,29.71
39.328,18.48
39.343,1.29
39.359,-21.9
39.375,-49.21
39.390,-76.95
39.406,-100.74
39.421,-117.35
39.437,-125.89
39.453,-127.44
39.468,-123.95
39.484,-117.02
39.500,-107.06
39.515,-94.24
39.531,-78.76
39.546,-61.37
39.562,-43.22
39.578,-25.51
39.593,-8.64
39.609,7.75
39.625,24.44
39.640,42.27
39.656,60.63
39.671,78.86
39.687,96.82
39.703,114.86
39.718,133.41
39.734,152.7
39.750,172.6
39.765,192.5
39.781,211.36
39.796,225.73
39.812,232.63
39.828,230.11
39.843,216.9
39.859,191.75
39.875,153.54
39.890,101.89
39.906,37.65
39.921,-36.56
39.937,-119.67
39.953,-207.92
39.968,-295.19
39.984,-374.92
40.000,-442.34
40.015,-494.69
40.031,-530.28
40.046,-547.44
40.062,-544.05
40.078,-522.57
40.093,-485.21
40.109,-434.18
40.125,-372.8
40.140,-306.71
40.156,-243.25
40.171,-189.89
40.187,-152.93
40.203,-111.02
40.218,-58.05
40.234,-1.71
40.250,43.52
40.265,68.15
40.281,72.04
40.296,62.01
40.312,48.14
40.328,41.34
40.343,50.6
40.359,76.13
40.375,112.83
40.390,152.34
40.406,185.29
40.421,203.79
40.437,204.71
40.453,190.54
40.468,167.98
40.484,144.72
40.500,121.32
40.515,98.47
40.531,77.79
40.546,61.64
40.562,51.33
40.578,46.92
40.593,45.88
40.609,44.96
40.625,42.33
40.640,40.85
40.656,43.12
40.671,54.35
40.687,79.54
40.703,118.49
40.718,167.03
40.734,216.91
40.750,260.72
40.765,294.34
40.781,314.63
40.796,319.97
40.812,310.47
40.828,287.82
40.843,254.05
40.859,213.23
40.875,169.08
40.890,125.12
40.906,84.99
40.921,51.13
40.937,23.97
40.953,2.64
40.968,-14.99
40.984,-31.75
41.000,-49.94
41.015,-68.42
41.031,-87.62
41.046,-107.11
41.062,-126.56
41.078,-146.08
41.093,-166.62
41.109,-189.86
41.125,-217.96
41.140,-239.87
41.156,-248.82
41.171,-244.87
41.187,-232.19
41.203,-215.45
41.218,-195.96
41.234,-172.4
41.250,-142.89
41.265,-107.28
41.281,-67.11
41.296,-26.98
41.312,7.84
41.328,34.45
41.343,52.12
41.359,61.66
41.375,64.81
41.390,63.72
41.406,60.46
41.421,57.31
41.437,54.51
41.453,51.63
41.468,48.35
41.484,44.6
41.500,40.48
41.515,36.14
41.531,31.92
41.546,28.48
41.562,26.81
41.578,26.44
41.593,26.3
41.609,25.18
41.625,21.89
41.640,15.82
41.656,6.8
41.671,-4.25
41.687,-15.38
41.703,-24.26
41.718,-30.04
41.734,-33.32
41.750,-36.06
41.765,-40.6
41.781,-48.52
41.796,-60.37
41.812,-75.07
41.828,-90.9
41.843,-104.0
41.859,-110.97
41.875,-109.16
41.890,-97.11
41.906,-74.6
41.921,-43.35
41.937,-7.8
41.953,25.8
41.968,51.81
41.984,67.76
42.000,75.96
42.015,82.62
42.031,94.49
42.046,114.62
42.062,139.93
42.078,161.41
42.093,166.84
42.109,148.7
42.125,106.88
42.140,48.79
42.156,-14.3
42.171,-71.78
42.187,-117.91
42.203,-149.92
42.218,-167.28
42.234,-169.77
42.250,-157.09
42.265,-129.9
42.281,-90.71
42.296,-44.7
42.312,1.17
42.328,39.77
42.343,65.74
42.359,76.59
42.375,73.35
42.390,59.46
42.406,39.13
42.421,15.88
42.437,-8.32
42.453,-33.01
42.468,-58.53
42.484,-85.06
42.500,-112.1
42.515,-138.3
42.531,-161.74
42.546,-180.72
42.562,-194.37
42.578,-202.76
42.593,-206.86
42.609,-207.84
42.625,-206.61
42.640,-203.53
42.656,-198.33
42.671,-190.92
42.687,-181.44
42.703,-170.34
42.718,-158.39
42.734,-146.6
42.750,-135.8
42.765,-126.5
42.781,-118.71
42.796,-112.16
42.812,-106.41
42.828,-101.08
42.843,-95.89
42.859,-90.73
42.875,-85.67
42.890,-80.8
42.906,-76.2
42.921,-71.84
42.937,-67.68
42.953,-63.65
42.968,-59.71
42.984,-55.86
43.000,-52.05
43.015,-48.36
43.031,-44.91
43.046,-41.88
43.062,-39.49
43.078,-37.97
43.093,-37.46
43.109,-37.93
43.125,-39.26
43.140,-41.07
43.156,-42.97
43.171,-44.4
43.187,-44.88
43.203,-44.09
43.218,-41.88
43.234,-38.15
43.250,-32.96
43.265,-26.56
43.281,-19.29
43.296,-11.56
43.312,-3.66
43.328,4.24
43.343,11.94
43.359,19.32
43.375,26.48
43.390,33.39
43.406,40.12
43.421,46.76
43.437,53.35
43.453,60.15
43.468,67.36
43.484,75.03
43.500,83.11
43.515,91.72
43.531,100.78
43.546,110.13
43.562,119.8
43.578,129.82
43.593,140.51
43.609,152.23
43.625,165.09
43.640,178.91
43.656,194.08
43.671,210.53
43.687,227.88
43.703,245.72
43.718,263.78
43.734,282.26
43.750,301.58
43.765,322.0
43.781,343.26
43.796,366.66
43.812,392.62
43.828,420.82
43.843,450.41
43.859,480.5
43.875,510.71
43.890,541.57
43.906,574.3
43.921,610.24
43.937,653.55
43.953,705.92
43.968,765.45
43.984,826.37
44.000,880.77
44.015,921.02
44.031,942.56
44.046,944.16
44.062,927.32
44.078,898.57
44.093,862.16
44.109,818.84
44.125,766.24
44.140,701.38
44.156,623.0
44.171,533.66
44.187,439.16
44.203,319.95
44.218,169.95
44.234,-6.44
44.250,-194.01
44.265,-372.1
44.281,-522.64
44.296,-636.47
44.312,-712.92
44.328,-757.41
44.343,-778.47
44.359,-780.57
44.375,-768.47
44.390,-746.52
44.406,-718.36
44.421,-686.3
44.437,-652.04
44.453,-615.57
44.468,-576.37
44.484,-534.65
44.500,-487.85
44.515,-435.33
44.531,-377.87
44.546,-317.65
44.562,-255.16
44.578,-194.31
44.593,-138.92
44.609,-92.98
44.625,-60.4
44.640,-42.26
44.656,-39.2
44.671,-51.15
44.687,-80.83
44.703,-124.4
44.718,-176.49
44.734,-229.24
44.750,-273.41
44.765,-300.49
44.781,-304.27
44.796,-284.68
44.812,-247.95
44.828,-204.47
44.843,-164.68
44.859,-136.61
44.875,-122.82
44.890,-121.51
44.906,-129.18
44.921,-142.45
44.937,-159.75
44.953,-180.32
44.968,-202.61
44.984,-223.59
45.000,-241.18
45.015,-251.87
45.031,-253.56
45.046,-245.94
45.062,-230.1
45.078,-208.07
45.093,-181.65
45.109,-152.08
45.125,-120.17
45.140,-87.02
45.156,-53.97
45.171,-23.12
45.187,3.17
45.203,22.85
45.218,34.81
45.234,39.02
45.250,36.73
45.265,29.75
45.281,20.19
45.296,9.67
45.312,-1.02
45.328,-11.78
45.343,-22.75
45.359,-33.97
45.375,-45.37
45.390,-56.61
45.406,-67.32
45.421,-76.71
45.437,-84.29
45.453,-89.74
45.468,-92.8
45.484,-92.99
45.500,-89.71
45.515,-82.26
45.531,-69.81
45.546,-54.47
45.562,-37.43
45.578,-19.77
45.593,-2.29
45.609,14.69
45.625,31.34
45.640,47.93
45.656,64.55
45.671,80.97
45.687,96.41
45.703,110.38
45.718,122.42
45.734,132.54
45.750,141.3
45.765,149.69
45.781,158.81
45.796,169.74
45.812,183.39
45.828,199.93
45.843,218.85
45.859,238.26
45.875,255.04
45.890,265.42
45.906,266.23
45.921,256.12
45.937,236.26
45.953,210.17
45.968,182.43
45.984,157.54
46.000,138.23
46.015,125.15
46.031,117.13
46.046,112.27
46.062,108.78
46.078,105.43
46.093,101.49
46.109,96.28
46.125,89.09
46.140,79.06
46.156,65.6
46.171,48.78
46.187,29.65
46.203,10.15
46.218,-7.58
46.234,-21.8
46.250,-32.01
46.265,-38.86
46.281,-43.94
46.296,-48.86
46.312,-54.47
46.328,-60.42
46.343,-65.52
46.359,-68.46
46.375,-68.56
46.390,-66.37
46.406,-63.21
46.421,-60.64
46.437,-59.5
46.453,-59.59
46.468,-59.81
46.484,-58.89
46.500,-56.08
46.515,-51.55
46.531,-46.31
46.546,-41.42
46.562,-37.46
46.578,-34.14
46.593,-30.79
46.609,-26.76
46.625,-22.22
46.640,-18.05
46.656,-15.41
46.671,-15.04
46.687,-16.67
46.703,-18.89
46.718,-19.91
46.734,-18.41
46.750,-14.38
46.765,-9.23
46.781,-5.17
46.796,-3.98
46.812,-6.16
46.828,-10.63
46.843,-15.18
46.859,-17.72
46.875,-17.1
46.890,-13.66
46.906,-8.76
46.921,-3.98
46.937,-0.12
46.953,3.06
46.968,6.31
46.984,10.04
47.000,13.71
47.015,15.95
47.031,15.28
47.046,11.06
47.062,4.05
47.078,-3.73
47.093,-10.0
47.109,-13.13
47.125,-13.08
47.140,-11.11
47.156,-8.94
47.171,-7.75
47.187,-7.74
47.203,-8.09
47.218,-7.71
47.234,-6.15
47.250,-3.87
47.265,-2.2
47.281,-2.6
47.296,-5.71
47.312,-10.93
47.328,-16.53
47.343,-20.71
47.359,-22.55
47.375,-22.59
47.390,-22.52
47.406,-24.22
47.421,-28.79
47.437,-35.74
47.453,-43.11
47.468,-48.26
47.484,-48.79
47.500,-43.37
47.515,-31.82
47.531,-15.01
47.546,5.42
47.562,27.07
47.578,47.2
47.593,62.93
47.609,71.86
47.625,72.51
47.640,64.84
47.656,50.23
47.671,31.25
47.687,11.06
47.703,-7.33
47.718,-21.51
47.734,-30.32
47.750,-33.88
47.765,-33.48
47.781,-31.12
47.796,-28.78
47.812,-27.84
47.828,-28.46
47.843,-29.82
47.859,-30.64
47.875,-29.95
47.890,-27.59
47.906,-24.11
47.921,-20.48
47.937,-17.33
47.953,-14.67
47.968,-11.92
47.984,-8.39
48.000,-3.91
48.015,1.04
48.031,5.52
48.046,8.83
48.062,10.77
48.078,11.84
48.093,12.75
48.109,14.02
48.125,15.58
48.140,16.95
48.156,17.61
48.171,17.26
48.187,16.12
48.203,14.45
48.218,12.46
48.234,10.02
48.250,6.73
48.265,2.08
48.281,-4.1
48.296,-11.38
48.312,-18.93
48.328,-25.5
48.343,-30.03
48.359,-31.95
48.375,-31.53
48.390,-29.72
48.406,-27.73
48.421,-26.53
48.437,-26.32
48.453,-26.66
48.468,-26.71
48.484,-25.95
48.500,-24.47
48.515,-22.96
48.531,-22.22
48.546,-22.6
48.562,-23.68
48.578,-24.49
48.593,-24.05
48.609,-21.95
48.625,-18.75
48.640,-15.55
48.656,-13.33
48.671,-12.42
48.687,-12.27
48.703,-11.91
48.718,-10.57
48.734,-8.19
48.750,-5.4
48.765,-3.33
48.781,-2.72
48.796,-3.56
48.812,-5.05
48.828,-5.93
48.843,-5.3
48.859,-3.0
48.875,0.25
48.890,3.45
48.906,5.64
48.921,6.65
48.937,6.97
48.953,7.47
48.968,8.87
48.984,11.15
49.000,13.71
49.015,15.55
49.031,16.05
49.046,15.16
49.062,13.67
49.078,12.53
49.093,12.48
49.109,13.42
49.125,14.43
49.140,14.32
49.156,12.16
49.171,7.94
49.187,2.65
49.203,-2.24
49.218,-5.47
49.234,-6.61
49.250,-6.08
49.265,-4.98
49.281,-4.12
49.296,-3.71
49.312,-3.19
49.328,-1.68
49.343,1.28
49.359,5.44
49.375,9.69
49.390,12.82
49.406,13.94
49.421,13.2
49.437,11.49
49.453,10.0
49.468,9.59
49.484,10.22
49.500,11.25
49.515,11.81
49.531,11.46
49.546,10.33
49.562,9.2
49.578,8.95
49.593,10.19
49.609,13.13
49.625,17.3
49.640,22.21
49.656,27.47
49.671,32.85
49.687,38.16
49.703,43.41
49.718,48.71
49.734,54.34
49.750,60.73
49.765,68.08
49.781,76.52
49.796,85.97
49.812,96.04
49.828,105.99
49.843,115.08
49.859,123.13
49.875,130.6
49.890,138.71
49.906,148.78
49.921,161.87
49.937,178.56
49.953,198.18
49.968,218.87
49.984,237.98
50.000,253.18
50.015,262.99
50.031,267.2
50.046,266.21
50.062,260.5
50.078,250.34
50.093,234.09
50.109,208.1
50.125,167.29
50.140,107.22
50.156,26.11
50.171,-73.47
50.187,-184.98
50.203,-300.34
50.218,-405.9
50.234,-486.75
50.250,-531.5
50.265,-536.46
50.281,-505.66
50.296,-447.82
50.312,-371.78
50.328,-285.07
50.343,-194.0
50.359,-104.46
50.375,-23.59
50.390,43.12
50.406,91.78
50.421,121.14
50.437,133.26
50.453,132.78
50.468,124.42
50.484,111.58
50.500,96.08
50.515,77.54
50.531,54.47
50.546,25.37
50.562,-10.03
50.578,-51.05
50.593,-93.91
50.609,-133.52
50.625,-163.81
50.640,-177.34
50.656,-168.39
50.671,-136.41
50.687,-88.65
50.703,-38.5
50.718,-0.37
50.734,15.83
50.750,6.91
50.765,-23.73
50.781,-68.47
50.796,-119.84
50.812,-172.36
50.828,-222.85
50.843,-269.91
50.859,-310.88
50.875,-341.43
50.890,-357.78
50.906,-358.23
50.921,-343.78
50.937,-318.11
50.953,-286.4
50.968,-253.7
50.984,-223.52
51.000,-197.13
51.015,-173.87
51.031,-152.4
51.046,-131.96
51.062,-112.35
51.078,-94.04
51.093,-77.47
51.109,-62.68
51.125,-49.09
51.140,-35.33
51.156,-19.77
51.171,-1.17
51.187,20.87
51.203,46.22
51.218,73.65
51.234,101.61
51.250,128.43
51.265,152.86
51.281,174.35
51.296,193.07
51.312,209.57
51.328,224.46
51.343,238.56
51.359,252.44
51.375,266.87
51.390,282.57
51.406,299.97
51.421,318.52
51.437,336.2
51.453,349.42
51.468,353.98
51.484,346.59
51.500,325.99
51.515,293.6
51.531,252.9
51.546,208.26
51.562,163.88
51.578,122.86
51.593,87.02
51.609,57.16
51.625,33.55
51.640,15.92
51.656,3.58
51.671,-4.53
51.687,-9.8
51.703,-13.52
51.718,-16.54
51.734,-19.19
51.750,-21.33
51.765,-22.31
51.781,-21.42
51.796,-18.03
51.812,-11.83
51.828,-3.25
51.843,6.93
51.859,17.65
51.875,28.19
51.890,38.5
51.906,49.3
51.921,61.5
51.937,75.74
51.953,91.67
51.968,107.81
51.984,122.21
52.000,133.07
52.015,139.58
52.031,142.21
52.046,142.21
52.062,140.87
52.078,138.78
52.093,135.55
52.109,130.23
52.125,122.18
52.140,111.52
52.156,99.41
52.171,87.98
52.187,79.57
52.203,76.06
52.218,78.47
52.234,86.76
52.250,100.1
52.265,117.41
52.281,136.94
52.296,156.45
52.312,173.42
52.328,185.28
52.343,189.94
52.359,186.29
52.375,174.23
52.390,154.38
52.406,127.48
52.421,93.15
52.437,49.71
52.453,-5.2
52.468,-73.53
52.484,-155.65
52.500,-249.56
52.515,-351.25
52.531,-455.36
52.546,-552.31
52.562,-630.32
52.578,-677.75
52.593,-686.72
52.609,-656.2
52.625,-592.44
52.640,-506.51
52.656,-410.75
52.671,-315.5
52.687,-227.77
52.703,-151.77
52.718,-89.49
52.734,-41.46
52.750,-7.08
52.765,15.41
52.781,28.69
52.796,35.66
52.812,39.11
52.828,41.19
52.843,42.93
52.859,44.44
52.875,45.31
52.890,45.14
52.906,43.66
52.921,41.03
52.937,37.54
52.953,33.54
52.968,29.34
52.984,25.11
53.000,20.96
53.015,17.05
53.031,13.79
53.046,11.18
53.062,9.06
53.078,6.84
53.093,3.7
53.109,-1.03
53.125,-7.35
53.140,-14.55
53.156,-21.26
53.171,-25.72
53.187,-26.86
53.203,-24.1
53.218,-17.53
53.234,-7.51
53.250,5.44
53.265,20.89
53.281,38.23
53.296,56.99
53.312,78.24
53.328,102.59
53.343,131.58
53.359,165.75
53.375,203.34
53.390,239.7
53.406,267.86
53.421,280.69
53.437,271.34
53.453,241.46
53.468,196.28
53.484,143.74
53.500,90.6
53.515,41.02
53.531,-2.81
53.546,-39.54
53.562,-67.5
53.578,-84.23
53.593,-87.64
53.609,-78.64
53.625,-60.41
53.640,-38.2
53.656,-17.21
53.671,-1.78
53.687,4.35
53.703,-2.76
53.718,-26.63
53.734,-68.38
53.750,-125.05
53.765,-187.41
53.781,-242.83
53.796,-279.96
53.812,-293.22
53.828,-284.52
53.843,-260.12
53.859,-226.04
53.875,-183.64
53.890,-133.73
53.906,-76.05
53.921,-13.46
53.937,47.06
53.953,97.15
53.968,130.81
53.984,148.25
54.000,154.85
54.015,156.81
54.031,157.16
54.046,155.09
54.062,146.69
54.078,128.53
54.093,100.24
54.109,65.46
54.125,30.13
54.140,0.54
54.156,-19.39
54.171,-29.25
54.187,-31.12
54.203,-28.68
54.218,-25.12
54.234,-22.07
54.250,-19.45
54.265,-16.16
54.281,-11.05
54.296,-3.67
54.312,5.91
54.328,17.5
54.343,30.72
54.359,45.14
54.375,60.1
54.390,74.37
54.406,86.32
54.421,93.76
54.437,94.73
54.453,88.1
54.468,73.85
54.484,53.05
54.500,27.72
54.515,0.67
54.531,-24.92
54.546,-46.23
54.562,-61.1
54.578,-68.47
54.593,-68.47
54.609,-62.22
54.625,-51.52
54.640,-38.27
54.656,-24.32
54.671,-11.18
54.687,-0.11
54.703,7.94
54.718,12.46
54.734,13.64
54.750,12.39
54.765,9.98
54.781,7.91
54.796,6.92
54.812,6.95
54.828,7.21
54.843,6.42
54.859,3.39
54.875,-2.04
54.890,-8.65
54.906,-14.14
54.921,-15.93
54.937,-12.68
54.953,-4.8
54.968,5.43
54.984,14.9
55.000,20.84
55.015,22.17
55.031,20.02
55.046,16.74
55.062,14.87
55.078,15.76
55.093,19.31
55.109,24.3
55.125,29.23
55.140,32.75
55.156,34.43
55.171,34.78
55.187,34.71
55.203,35.11
55.218,36.24
55.234,37.76
55.250,38.79
55.265,38.53
55.281,36.25
55.296,32.21
55.312,27.31
55.328,22.21
55.343,16.77
55.359,9.58
55.375,-1.34
55.390,-17.95
55.406,-37.29
55.421,-56.76
55.437,-73.54
55.453,-85.4
55.468,-91.51
55.484,-92.44
55.500,-89.55
55.515,-83.9
55.531,-75.63
55.546,-64.03
55.562,-48.69
55.578,-29.63
55.593,-7.9
55.609,14.54
55.625,35.3
55.640,52.45
55.656,65.19
55.671,73.94
55.687,80.07
55.703,84.74
55.718,88.79
55.734,92.27
55.750,94.85
55.765,95.96
55.781,95.34
55.796,93.23
55.812,90.03
55.828,85.82
55.843,79.81
55.859,70.71
55.875,57.48
55.890,40.08
55.906,19.71
55.921,-1.27
55.937,-20.4
55.953,-36.0
55.968,-47.74
55.984,-56.77
56.000,-64.7
56.015,-72.83
56.031,-81.14
56.046,-88.66
56.062,-93.87
56.078,-95.77
56.093,-94.52
56.109,-91.13
56.125,-86.6
56.140,-80.5
56.156,-70.48
56.171,-52.7
56.187,-23.77
56.203,17.34
56.218,68.06
56.234,122.37
56.250,173.23
56.265,214.88
56.281,244.37
56.296,261.35
56.312,266.36
56.328,258.99
56.343,237.73
56.359,201.67
56.375,153.0
56.390,98.64
56.406,49.06
56.421,14.82
56.437,2.03
56.453,9.78
56.468,30.63
56.484,54.08
56.500,71.65
56.515,79.73
56.531,80.29
56.546,78.11
56.562,77.76
56.578,81.52
56.593,89.47
56.609,100.19
56.625,111.85
56.640,122.31
56.656,128.83
56.671,128.31
56.687,118.09
56.703,97.15
56.718,66.78
56.734,30.36
56.750,-7.95
56.765,-44.47
56.781,-76.99
56.796,-104.86
56.812,-128.59
56.828,-149.21
56.843,-167.75
56.859,-185.06
56.875,-201.57
56.890,-217.33
56.906,-232.24
56.921,-246.44
56.937,-260.66
56.953,-275.99
56.968,-293.41
56.984,-312.98
57.000,-333.57
57.015,-353.18
57.031,-369.37
57.046,-379.79
57.062,-382.47
57.078,-375.68
57.093,-358.13
57.109,-329.51
57.125,-291.16
57.140,-246.25
57.156,-199.27
57.171,-155.03
57.187,-117.57
57.203,-89.75
57.218,-72.75
57.234,-66.19
57.250,-68.08
57.265,-74.86
57.281,-81.62
57.296,-82.62
57.312,-73.02
57.328,-50.95
57.343,-19.32
57.359,15.1
57.375,44.05
57.390,61.24
57.406,64.7
57.421,57.26
57.437,44.86
57.453,33.88
57.468,28.39
57.484,28.13
57.500,30.17
57.515,30.99
57.531,28.84
57.546,24.15
57.562,19.04
57.578,15.93
57.593,16.28
57.609,19.85
57.625,22.69
57.640,21.24
57.656,15.43
57.671,9.89
57.687,11.5
57.703,25.73
57.718,54.15
57.734,93.88
57.750,139.07
57.765,178.91
57.781,205.34
57.796,216.87
57.812,218.55
57.828,217.2
57.843,217.02
57.859,218.66
57.875,220.57
57.890,220.45
57.906,208.95
57.921,177.98
57.937,126.06
57.953,60.17
57.968,-8.79
57.984,-71.61
58.000,-123.32
58.015,-163.98
58.031,-198.11
58.046,-241.65
58.062,-309.92
58.078,-408.19
58.093,-528.72
58.109,-657.96
58.125,-784.8
58.140,-903.55
58.156,-1012.61
58.171,-1049.49
58.187,-970.81
58.203,-781.23
58.218,-532.3
58.234,-280.24
58.250,-56.21
58.265,131.9
58.281,287.27
58.296,415.87
58.312,522.99
58.328,607.02
58.343,665.64
58.359,698.1
58.375,709.77
58.390,707.88
58.406,696.66
58.421,677.37
58.437,650.38
58.453,600.45
58.468,524.39
58.484,426.39
58.500,316.68
58.515,209.19
58.531,115.71
58.546,42.34
58.562,-9.89
58.578,-42.57
58.593,-58.47
58.609,-63.07
58.625,-64.0
58.640,-66.68
58.656,-71.86
58.671,-77.88
58.687,-83.65
58.703,-89.3
58.718,-95.16
58.734,-100.34
58.750,-102.55
58.765,-99.48
58.781,-88.25
58.796,-66.27
58.812,-34.15
58.828,2.99
58.843,37.39
58.859,62.19
58.875,74.35
58.890,75.81
58.906,70.49
58.921,62.29
58.937,53.83
58.953,45.9
58.968,37.85
58.984,29.06
59.000,19.75
59.015,10.74
59.031,3.15
59.046,-3.2
59.062,-10.09
59.078,-19.55
59.093,-32.85
59.109,-49.68
59.125,-68.18
59.140,-85.48
59.156,-98.53
59.171,-105.73
59.187,-105.32
59.203,-97.32
59.218,-82.98
59.234,-64.11
59.250,-42.65
59.265,-20.33
59.281,1.35
59.296,21.3
59.312,38.77
59.328,53.51
59.343,65.35
59.359,74.45
59.375,81.14
59.390,85.81
59.406,89.0
59.421,91.3
59.437,93.25
59.453,95.27
59.468,97.76
59.484,100.57
59.500,103.46
59.515,106.24
59.531,108.82
59.546,111.33
59.562,113.69
59.578,114.84
59.593,112.87
59.609,105.54
59.625,91.42
59.640,70.9
59.656,46.76
59.671,23.04
59.687,3.68
59.703,-8.98
59.718,-14.78
59.734,-15.1
59.750,-11.6
59.765,-5.21
59.781,3.9
59.796,16.03
59.812,30.93
59.828,47.44
59.843,63.71
59.859,78.04
59.875,89.62
59.890,98.81
59.906,106.69
59.921,114.11
59.937,121.54
59.953,128.71
59.968,134.87
59.984,139.14
