timestamp,value
00.000,-88.91
00.015,-79.98
00.031,-68.64
00.046,-55.24
00.062,-40.06
00.078,-23.61
00.093,-6.83
00.109,8.96
00.125,22.4
00.140,32.58
00.156,39.35
00.171,43.24
00.187,45.08
00.203,45.62
00.218,45.25
00.234,43.93
00.250,41.44
00.265,37.74
00.281,33.11
00.296,28.19
00.312,23.52
00.328,19.53
00.343,16.21
00.359,13.29
00.375,10.6
00.390,8.22
00.406,6.34
00.421,5.06
00.437,4.23
00.453,3.31
00.468,1.57
00.484,-1.58
00.500,-6.32
00.515,-12.24
00.531,-18.35
00.546,-23.6
00.562,-27.35
00.578,-29.61
00.593,-30.91
00.609,-32.09
00.625,-33.87
00.640,-36.49
00.656,-39.68
00.671,-42.66
00.687,-44.56
00.703,-44.85
00.718,-43.36
00.734,-40.32
00.750,-36.25
00.765,-31.57
00.781,-26.67
00.796,-21.68
00.812,-16.69
00.828,-11.74
00.843,-7.01
00.859,-2.78
00.875,0.69
00.890,3.27
00.906,5.27
00.921,7.05
00.937,9.17
00.953,12.01
00.968,15.69
00.984,20.16
01.000,25.23
01.015,30.84
01.031,37.09
01.046,44.44
01.062,53.26
01.078,63.6
01.093,74.87
01.109,85.87
01.125,95.06
01.140,101.13
01.156,103.58
01.171,102.91
01.187,100.24
01.203,96.6
01.218,92.32
01.234,86.7
01.250,78.4
01.265,66.38
01.281,50.45
01.296,31.67
01.312,12.05
01.328,-6.21
01.343,-21.46
01.359,-32.79
01.375,-40.06
01.390,-43.67
01.406,-44.16
01.421,-42.57
01.437,-40.3
01.453,-39.1
01.468,-40.66
01.484,-45.82
01.500,-54.01
01.515,-63.06
01.531,-69.86
01.546,-71.46
01.562,-66.29
01.578,-54.61
01.593,-38.25
01.609,-19.82
01.625,-1.65
01.640,14.63
01.656,27.99
01.671,37.48
01.687,41.9
01.703,39.72
01.718,30.08
01.734,13.65
01.750,-7.02
01.765,-27.81
01.781,-44.69
01.796,-55.39
01.812,-60.27
01.828,-62.09
01.843,-64.85
01.859,-72.04
01.875,-85.38
01.890,-104.09
01.906,-124.96
01.921,-143.3
01.937,-153.73
01.953,-151.89
01.968,-135.54
01.984,-105.86
02.000,-67.6
02.015,-28.62
02.031,2.49
02.046,18.92
02.062,17.78
02.078,1.06
02.093,-25.51
02.109,-54.68
02.125,-80.5
02.140,-99.63
02.156,-111.4
02.171,-116.24
02.187,-114.06
02.203,-103.66
02.218,-83.74
02.234,-54.38
02.250,-18.43
02.265,19.02
02.281,52.48
02.296,78.35
02.312,96.15
02.328,107.86
02.343,116.35
02.359,123.39
02.375,128.94
02.390,131.85
02.406,131.12
02.421,126.75
02.437,120.1
02.453,113.08
02.468,107.21
02.484,103.02
02.500,100.24
02.515,97.96
02.531,95.3
02.546,91.63
02.562,86.46
02.578,79.53
02.593,70.81
02.609,60.58
02.625,49.44
02.640,38.24
02.656,27.81
02.671,18.85
02.687,11.71
02.703,6.42
02.718,2.63
02.734,-0.15
02.750,-2.45
02.765,-4.77
02.781,-7.34
02.796,-10.18
02.812,-12.85
02.828,-14.57
02.843,-14.34
02.859,-11.21
02.875,-4.68
02.890,5.06
02.906,16.87
02.921,28.99
02.937,39.42
02.953,46.6
02.968,49.61
02.984,48.22
03.000,42.82
03.015,34.02
03.031,22.77
03.046,10.26
03.062,-2.1
03.078,-13.02
03.093,-21.59
03.109,-27.56
03.125,-31.23
03.140,-33.07
03.156,-33.45
03.171,-32.25
03.187,-29.16
03.203,-23.8
03.218,-16.3
03.234,-7.33
03.250,2.01
03.265,10.63
03.281,17.69
03.296,22.65
03.312,25.37
03.328,25.93
03.343,24.5
03.359,21.25
03.375,16.34
03.390,10.11
03.406,3.16
03.421,-3.64
03.437,-9.26
03.453,-12.73
03.468,-13.47
03.484,-11.47
03.500,-7.22
03.515,-1.8
03.531,3.75
03.546,8.39
03.562,11.53
03.578,12.82
03.593,12.21
03.609,9.55
03.625,4.78
03.640,-1.91
03.656,-10.2
03.671,-19.18
03.687,-27.87
03.703,-35.25
03.718,-40.76
03.734,-44.29
03.750,-46.33
03.765,-47.57
03.781,-48.34
03.796,-48.76
03.812,-48.37
03.828,-46.66
03.843,-43.21
03.859,-38.0
03.875,-31.25
03.890,-23.46
03.906,-15.1
03.921,-6.73
03.937,1.04
03.953,7.74
03.968,13.05
03.984,17.17
04.000,20.85
04.015,25.16
04.031,31.32
04.046,40.1
04.062,51.69
04.078,65.5
04.093,80.68
04.109,96.2
04.125,111.15
04.140,124.95
04.156,137.09
04.171,147.11
04.187,154.52
04.203,159.14
04.218,160.98
04.234,160.76
04.250,159.69
04.265,159.21
04.281,160.57
04.296,164.43
04.312,170.6
04.328,178.26
04.343,186.55
04.359,194.86
04.375,203.25
04.390,212.29
04.406,222.8
04.421,235.37
04.437,249.96
04.453,265.75
04.468,280.92
04.484,293.26
04.500,300.43
04.515,300.86
04.531,294.3
04.546,281.86
04.562,265.74
04.578,248.36
04.593,231.89
04.609,217.85
04.625,207.12
04.640,200.0
04.656,196.34
04.671,195.23
04.687,194.91
04.703,193.1
04.718,187.52
04.734,176.84
04.750,161.09
04.765,141.62
04.781,120.34
04.796,99.04
04.812,78.82
04.828,60.02
04.843,42.6
04.859,26.35
04.875,11.19
04.890,-2.99
04.906,-16.49
04.921,-29.74
04.937,-43.2
04.953,-57.13
04.968,-71.7
04.984,-86.84
05.000,-102.33
05.015,-117.91
05.031,-133.28
05.046,-148.15
05.062,-162.26
05.078,-175.37
05.093,-187.13
05.109,-197.17
05.125,-205.1
05.140,-210.59
05.156,-213.45
05.171,-213.74
05.187,-211.63
05.203,-207.44
05.218,-201.58
05.234,-194.45
05.250,-186.38
05.265,-177.55
05.281,-168.1
05.296,-158.14
05.312,-147.63
05.328,-136.6
05.343,-124.98
05.359,-112.72
05.375,-99.78
05.390,-86.13
05.406,-71.75
05.421,-56.78
05.437,-41.49
05.453,-26.22
05.468,-11.39
05.484,2.54
05.500,15.15
05.515,26.12
05.531,35.21
05.546,42.37
05.562,47.63
05.578,51.13
05.593,53.04
05.609,53.62
05.625,53.17
05.640,51.92
05.656,50.11
05.671,47.93
05.687,45.61
05.703,43.28
05.718,40.99
05.734,38.71
05.750,36.44
05.765,34.14
05.781,31.77
05.796,29.33
05.812,26.77
05.828,24.11
05.843,21.28
05.859,18.13
05.875,14.51
05.890,10.53
05.906,6.31
05.921,2.0
05.937,-2.12
05.953,-5.82
05.968,-9.03
05.984,-11.85
06.000,-14.74
06.015,-18.27
06.031,-23.07
06.046,-29.48
06.062,-37.48
06.078,-46.66
06.093,-56.43
06.109,-66.31
06.125,-75.82
06.140,-84.82
06.156,-93.18
06.171,-100.87
06.187,-107.42
06.203,-112.0
06.218,-113.48
06.234,-111.0
06.250,-104.37
06.265,-94.38
06.281,-82.91
06.296,-72.24
06.312,-64.41
06.328,-60.42
06.343,-59.87
06.359,-61.31
06.375,-62.98
06.390,-63.65
06.406,-63.48
06.421,-64.19
06.437,-68.17
06.453,-77.35
06.468,-92.05
06.484,-110.4
06.500,-128.96
06.515,-144.0
06.531,-153.04
06.546,-155.84
06.562,-154.31
06.578,-151.82
06.593,-151.89
06.609,-157.4
06.625,-169.68
06.640,-188.02
06.656,-208.88
06.671,-225.79
06.687,-230.2
06.703,-214.71
06.718,-176.86
06.734,-121.62
06.750,-60.86
06.765,-9.2
06.781,21.64
06.796,27.25
06.812,11.34
06.828,-17.39
06.843,-50.17
06.859,-82.13
06.875,-112.69
06.890,-143.6
06.906,-176.28
06.921,-209.95
06.937,-241.35
06.953,-265.52
06.968,-277.14
06.984,-272.1
07.000,-249.21
07.015,-211.52
07.031,-166.67
07.046,-125.07
07.062,-96.33
07.078,-86.08
07.093,-94.34
07.109,-116.71
07.125,-147.2
07.140,-180.99
07.156,-215.31
07.171,-248.55
07.187,-278.11
07.203,-298.82
07.218,-304.12
07.234,-287.76
07.250,-246.7
07.265,-182.27
07.281,-100.21
07.296,-9.47
07.312,79.94
07.328,158.78
07.343,220.28
07.359,260.39
07.375,278.02
07.390,274.83
07.406,254.96
07.421,224.88
07.437,192.17
07.453,163.67
07.468,143.14
07.484,129.99
07.500,120.0
07.515,108.04
07.531,91.44
07.546,71.71
07.562,53.46
07.578,41.21
07.593,36.53
07.609,36.62
07.625,36.14
07.640,30.39
07.656,17.8
07.671,-0.11
07.687,-20.47
07.703,-41.05
07.718,-61.75
07.734,-83.55
07.750,-107.37
07.765,-132.65
07.781,-157.37
07.796,-178.47
07.812,-192.68
07.828,-197.03
07.843,-188.87
07.859,-166.12
07.875,-127.59
07.890,-74.4
07.906,-11.19
07.921,53.42
07.937,108.26
07.953,142.26
07.968,147.71
07.984,122.74
08.000,71.79
08.015,3.6
08.031,-71.95
08.046,-146.84
08.062,-216.63
08.078,-280.18
08.093,-337.82
08.109,-390.45
08.125,-439.28
08.140,-486.22
08.156,-534.13
08.171,-585.81
08.187,-641.46
08.203,-696.87
08.218,-743.65
08.234,-771.46
08.250,-772.25
08.265,-743.73
08.281,-690.65
08.296,-622.82
08.312,-551.2
08.328,-484.01
08.343,-424.77
08.359,-372.98
08.375,-325.97
08.390,-281.38
08.406,-238.17
08.421,-196.43
08.437,-156.55
08.453,-118.48
08.468,-81.78
08.484,-46.24
08.500,-12.23
08.515,19.32
08.531,46.84
08.546,68.98
08.562,85.13
08.578,95.47
08.593,101.23
08.609,104.14
08.625,105.77
08.640,107.2
08.656,108.83
08.671,110.42
08.687,111.74
08.703,112.8
08.718,113.96
08.734,116.07
08.750,120.3
08.765,127.63
08.781,138.43
08.796,152.36
08.812,168.28
08.828,184.93
08.843,201.23
08.859,216.37
08.875,230.12
08.890,242.92
08.906,255.31
08.921,267.84
08.937,280.73
08.953,293.7
08.968,306.24
08.984,318.08
09.000,329.19
09.015,340.06
09.031,351.49
09.046,364.47
09.062,380.09
09.078,399.47
09.093,423.76
09.109,453.78
09.125,489.2
09.140,527.57
09.156,564.13
09.171,593.16
09.187,610.07
09.203,613.15
09.218,604.42
09.234,587.88
09.250,567.6
09.265,545.97
09.281,523.03
09.296,497.62
09.312,468.65
09.328,435.65
09.343,398.57
09.359,357.3
09.375,311.2
09.390,260.07
09.406,205.08
09.421,149.16
09.437,96.2
09.453,49.34
09.468,9.36
09.484,-24.89
09.500,-55.05
09.515,-81.79
09.531,-104.22
09.546,-120.84
09.562,-130.95
09.578,-135.5
09.593,-136.57
09.609,-136.43
09.625,-135.98
09.640,-134.4
09.656,-130.42
09.671,-122.42
09.687,-109.24
09.703,-90.29
09.718,-64.99
09.734,-32.64
09.750,6.68
09.765,51.68
09.781,99.29
09.796,144.94
09.812,183.95
09.828,212.67
09.843,229.14
09.859,233.4
09.875,226.89
09.890,211.76
09.906,190.12
09.921,163.42
09.937,132.77
09.953,99.03
09.968,63.11
09.984,26.09
10.000,-10.71
10.015,-46.35
10.031,-80.35
10.046,-112.47
10.062,-142.54
10.078,-169.85
10.093,-193.0
10.109,-210.93
10.125,-223.65
10.140,-232.41
10.156,-240.15
10.171,-249.85
10.187,-263.77
10.203,-283.47
10.218,-308.96
10.234,-338.29
10.250,-367.3
10.265,-389.89
10.281,-399.25
10.296,-389.9
10.312,-359.44
10.328,-309.91
10.343,-248.55
10.359,-183.73
10.375,-121.82
10.390,-64.99
10.406,-12.02
10.421,38.87
10.437,86.59
10.453,126.08
10.468,149.09
10.484,145.45
10.500,110.33
10.515,47.1
10.531,-34.15
10.546,-120.64
10.562,-202.32
10.578,-274.76
10.593,-337.9
10.609,-393.42
10.625,-445.68
10.640,-495.5
10.656,-540.61
10.671,-577.47
10.687,-604.11
10.703,-621.35
10.718,-631.19
10.734,-633.85
10.750,-627.03
10.765,-611.54
10.781,-587.18
10.796,-553.09
10.812,-508.7
10.828,-455.16
10.843,-396.41
10.859,-338.18
10.875,-285.62
10.890,-208.57
10.906,-94.87
10.921,48.85
10.937,199.95
10.953,332.88
10.968,431.87
10.984,493.06
11.000,520.76
11.015,522.97
11.031,504.0
11.046,466.04
11.062,410.86
11.078,342.71
11.093,269.69
11.109,201.33
11.125,145.8
11.140,108.64
11.156,92.25
11.171,101.24
11.187,136.49
11.203,192.57
11.218,260.61
11.234,330.95
11.250,394.82
11.265,446.06
11.281,481.86
11.296,502.36
11.312,509.13
11.328,501.77
11.343,480.4
11.359,447.33
11.375,407.06
11.390,364.88
11.406,325.25
11.421,291.09
11.437,263.62
11.453,242.02
11.468,223.37
11.484,204.43
11.500,183.62
11.515,161.33
11.531,139.36
11.546,119.55
11.562,103.41
11.578,91.36
11.593,82.85
11.609,75.99
11.625,68.79
11.640,60.18
11.656,50.41
11.671,40.8
11.687,32.89
11.703,28.36
11.718,28.01
11.734,31.83
11.750,38.53
11.765,46.51
11.781,54.61
11.796,62.28
11.812,71.36
11.828,80.91
11.843,90.57
11.859,99.14
11.875,104.91
11.890,105.59
11.906,99.32
11.921,85.64
11.937,65.46
11.953,41.61
11.968,17.22
11.984,-4.1
12.000,-19.43
12.015,-26.17
12.031,-23.38
12.046,-11.88
12.062,5.54
12.078,23.68
12.093,37.8
12.109,45.07
12.125,46.46
12.140,46.25
12.156,51.02
12.171,65.14
12.187,88.96
12.203,118.76
12.218,147.68
12.234,169.46
12.250,180.05
12.265,177.83
12.281,159.94
12.296,129.8
12.312,91.18
12.328,47.08
12.343,0.63
12.359,-45.01
12.375,-88.63
12.390,-126.22
12.406,-153.72
12.421,-168.64
12.437,-170.09
12.453,-159.07
12.468,-137.65
12.484,-108.3
12.500,-73.92
12.515,-36.65
12.531,1.7
12.546,38.79
12.562,72.34
12.578,100.2
12.593,119.77
12.609,128.78
12.625,130.56
12.640,126.59
12.656,119.05
12.671,110.85
12.687,104.21
12.703,100.43
12.718,99.73
12.734,100.79
12.750,101.32
12.765,99.15
12.781,91.25
12.796,75.68
12.812,51.99
12.828,20.97
12.843,-15.23
12.859,-53.75
12.875,-91.78
12.890,-127.47
12.906,-159.47
12.921,-187.95
12.937,-213.78
12.953,-238.32
12.968,-262.62
12.984,-287.34
13.000,-312.78
13.015,-338.81
13.031,-365.15
13.046,-391.33
13.062,-417.15
13.078,-442.68
13.093,-468.82
13.109,-497.01
13.125,-528.71
13.140,-564.09
13.156,-600.22
13.171,-630.13
13.187,-644.32
13.203,-633.87
13.218,-593.97
13.234,-526.23
13.250,-438.56
13.265,-342.47
13.281,-248.95
13.296,-165.07
13.312,-92.7
13.328,-29.73
13.343,27.89
13.359,83.92
13.375,140.81
13.390,199.4
13.406,258.67
13.421,316.33
13.437,368.49
13.453,410.4
13.468,437.49
13.484,447.47
13.500,442.15
13.515,427.82
13.531,414.23
13.546,411.46
13.562,426.24
13.578,458.66
13.593,501.38
13.609,541.64
13.625,565.97
13.640,565.02
13.656,536.67
13.671,486.35
13.687,423.73
13.703,358.52
13.718,297.13
13.734,241.87
13.750,192.41
13.765,147.96
13.781,109.02
13.796,77.09
13.812,53.14
13.828,35.71
13.843,21.18
13.859,4.97
13.875,-16.16
13.890,-42.7
13.906,-72.63
13.921,-102.5
13.937,-129.85
13.953,-153.99
13.968,-176.54
13.984,-200.07
14.000,-225.93
14.015,-252.96
14.031,-277.12
14.046,-292.88
14.062,-296.11
14.078,-286.71
14.093,-268.66
14.109,-248.19
14.125,-229.81
14.140,-213.58
14.156,-195.1
14.171,-166.8
14.187,-122.14
14.203,-59.08
14.218,18.27
14.234,101.92
14.250,183.04
14.265,254.64
14.281,312.26
14.296,352.02
14.312,371.49
14.328,369.59
14.343,346.68
14.359,304.34
14.375,246.29
14.390,177.79
14.406,104.79
14.421,32.74
14.437,-36.77
14.453,-102.18
14.468,-161.34
14.484,-212.24
14.500,-254.17
14.515,-287.9
14.531,-315.27
14.546,-338.24
14.562,-358.56
14.578,-380.56
14.593,-404.94
14.609,-428.52
14.625,-446.6
14.640,-456.35
14.656,-457.63
14.671,-451.66
14.687,-439.89
14.703,-423.71
14.718,-408.88
14.734,-397.82
14.750,-388.18
14.765,-374.89
14.781,-353.07
14.796,-318.45
14.812,-268.19
14.828,-202.1
14.843,-97.97
14.859,35.82
14.875,166.07
14.890,258.65
14.906,301.39
14.921,302.68
14.937,278.8
14.953,243.37
14.968,204.32
14.984,164.06
15.000,118.83
15.015,68.62
15.031,18.85
15.046,-23.0
15.062,-55.21
15.078,-77.19
15.093,-91.54
15.109,-101.24
15.125,-109.09
15.140,-119.56
15.156,-133.27
15.171,-146.71
15.187,-155.43
15.203,-157.67
15.218,-154.12
15.234,-147.29
15.250,-139.22
15.265,-130.48
15.281,-123.48
15.296,-118.16
15.312,-111.8
15.328,-101.08
15.343,-84.84
15.359,-63.6
15.375,-39.64
15.390,-15.55
15.406,6.72
15.421,25.32
15.437,40.25
15.453,52.77
15.468,64.96
15.484,77.9
15.500,92.02
15.515,106.63
15.531,120.56
15.546,132.66
15.562,141.48
15.578,146.53
15.593,147.39
15.609,144.23
15.625,137.06
15.640,126.12
15.656,111.59
15.671,94.08
15.687,74.51
15.703,53.89
15.718,33.41
15.734,14.11
15.750,-2.85
15.765,-16.85
15.781,-27.37
15.796,-34.33
15.812,-37.95
15.828,-38.67
15.843,-37.32
15.859,-34.85
15.875,-32.53
15.890,-31.72
15.906,-33.8
15.921,-40.02
15.937,-51.2
15.953,-67.85
15.968,-89.8
15.984,-116.37
16.000,-145.96
16.015,-176.53
16.031,-204.79
16.046,-227.57
16.062,-242.54
16.078,-248.29
16.093,-244.29
16.109,-230.38
16.125,-207.15
16.140,-175.82
16.156,-138.6
16.171,-97.1
16.187,-53.49
16.203,-10.3
16.218,29.54
16.234,63.49
16.250,90.08
16.265,108.54
16.281,118.92
16.296,121.88
16.312,120.38
16.328,116.78
16.343,112.14
16.359,106.23
16.375,98.67
16.390,89.62
16.406,79.99
16.421,70.84
16.437,63.3
16.453,63.3
16.468,74.56
16.484,96.72
16.500,125.63
16.515,156.22
16.531,185.42
16.546,212.51
16.562,237.86
16.578,262.44
16.593,297.29
16.609,349.94
16.625,419.47
16.640,497.2
16.656,572.96
16.671,640.68
16.687,698.68
16.703,747.8
16.718,789.51
16.734,840.92
16.750,913.48
16.765,1005.05
16.781,1100.71
16.796,1183.43
16.812,1242.91
16.828,1276.51
16.843,1286.4
16.859,1276.81
16.875,1273.59
16.890,1295.31
16.906,1343.77
16.921,1404.59
16.937,1460.58
16.953,1502.89
16.968,1531.77
16.984,1552.39
17.000,1438.27
17.015,1129.37
17.031,659.2
17.046,139.99
17.062,-320.28
17.078,-671.89
17.093,-915.87
17.109,-1075.57
17.125,-1177.45
17.140,-1243.18
17.156,-1266.45
17.171,-1242.68
17.187,-1179.07
17.203,-1095.35
17.218,-1012.54
17.234,-944.53
17.250,-897.16
17.265,-872.9
17.281,-872.45
17.296,-877.01
17.312,-870.48
17.328,-846.01
17.343,-807.31
17.359,-761.41
17.375,-712.4
17.390,-660.07
17.406,-602.53
17.421,-538.76
17.437,-458.19
17.453,-357.48
17.468,-244.17
17.484,-134.22
17.500,-43.27
17.515,20.43
17.531,56.58
17.546,68.86
17.562,56.21
17.578,31.24
17.593,2.65
17.609,-24.2
17.625,-46.13
17.640,-60.76
17.656,-66.4
17.671,-63.3
17.687,-54.19
17.703,-42.84
17.718,-29.91
17.734,-17.42
17.750,-8.17
17.765,-5.92
17.781,-14.02
17.796,-33.09
17.812,-60.03
17.828,-88.8
17.843,-112.57
17.859,-125.6
17.875,-127.27
17.890,-120.52
17.906,-109.54
17.921,-98.05
17.937,-87.66
17.953,-78.78
17.968,-71.41
17.984,-65.74
18.000,-62.26
18.015,-61.84
18.031,-64.76
18.046,-70.7
18.062,-79.06
18.078,-88.52
18.093,-98.26
18.109,-108.79
18.125,-119.14
18.140,-128.52
18.156,-135.93
18.171,-139.67
18.187,-138.02
18.203,-129.97
18.218,-115.43
18.234,-95.43
18.250,-71.96
18.265,-47.45
18.281,-24.53
18.296,-5.39
18.312,8.93
18.328,18.48
18.343,23.89
18.359,26.42
18.375,27.32
18.390,27.91
18.406,29.36
18.421,31.63
18.437,34.71
18.453,38.69
18.468,43.64
18.484,49.4
18.500,55.66
18.515,61.93
18.531,68.3
18.546,75.31
18.562,82.67
18.578,90.58
18.593,99.4
18.609,109.53
18.625,121.14
18.640,134.23
18.656,148.31
18.671,162.94
18.687,177.7
18.703,191.31
18.718,202.71
18.734,211.14
18.750,216.16
18.765,217.47
18.781,215.28
18.796,210.05
18.812,202.57
18.828,194.02
18.843,184.67
18.859,175.16
18.875,166.18
18.890,158.13
18.906,151.18
18.921,145.24
18.937,139.37
18.953,131.68
18.968,125.59
18.984,121.34
19.000,118.62
19.015,116.64
19.031,114.42
19.046,110.81
19.062,104.83
19.078,95.22
19.093,81.41
19.109,64.01
19.125,43.36
19.140,20.36
19.156,-4.19
19.171,-29.57
19.187,-55.15
19.203,-80.11
19.218,-104.3
19.234,-127.35
19.250,-148.34
19.265,-166.67
19.281,-181.38
19.296,-191.65
19.312,-196.69
19.328,-196.0
19.343,-189.19
19.359,-177.46
19.375,-161.79
19.390,-142.62
19.406,-120.51
19.421,-96.15
19.437,-70.92
19.453,-46.62
19.468,-25.0
19.484,-7.4
19.500,2.55
19.515,3.21
19.531,-3.87
19.546,-15.16
19.562,-27.31
19.578,-38.39
19.593,-48.19
19.609,-57.57
19.625,-67.85
19.640,-85.89
19.656,-115.35
19.671,-154.16
19.687,-196.28
19.703,-235.88
19.718,-269.97
19.734,-298.36
19.750,-322.76
19.765,-345.5
19.781,-377.53
19.796,-424.51
19.812,-482.85
19.828,-542.66
19.843,-594.69
19.859,-634.3
19.875,-660.79
19.890,-675.78
19.906,-681.47
19.921,-691.2
19.937,-712.0
19.953,-740.5
19.968,-766.77
19.984,-782.75
20.000,-785.37
20.015,-773.88
20.031,-747.1
20.046,-632.59
20.062,-408.65
20.078,-115.95
20.093,170.53
20.109,395.46
20.125,542.5
20.140,621.67
20.156,653.32
20.171,657.64
20.187,649.55
20.203,626.02
20.218,584.74
20.234,531.33
20.250,477.52
20.265,433.52
20.281,403.61
20.296,386.92
20.312,379.85
20.328,377.72
20.343,367.69
20.359,342.69
20.375,305.54
20.390,265.65
20.406,231.66
20.421,207.3
20.437,192.12
20.453,183.17
20.468,176.68
20.484,164.2
20.500,141.0
20.515,108.59
20.531,72.97
20.546,39.97
20.562,12.74
20.578,-7.96
20.593,-22.66
20.609,-33.16
20.625,-42.41
20.640,-51.96
20.656,-60.81
20.671,-66.27
20.687,-66.37
20.703,-60.86
20.718,-50.98
20.734,-38.8
20.750,-26.5
20.765,-16.51
20.781,-10.48
20.796,-8.6
20.812,-9.97
20.828,-13.55
20.843,-18.46
20.859,-24.05
20.875,-29.93
20.890,-35.93
20.906,-41.47
20.921,-46.53
20.937,-51.25
20.953,-55.87
20.968,-60.76
20.984,-66.01
21.000,-71.44
21.015,-76.69
21.031,-81.39
21.046,-84.69
21.062,-86.37
21.078,-86.51
21.093,-85.41
21.109,-83.13
21.125,-79.2
21.140,-72.37
21.156,-60.5
21.171,-45.34
21.187,-27.28
21.203,-7.08
21.218,14.12
21.234,35.07
21.250,54.72
21.265,72.66
21.281,89.07
21.296,104.76
21.312,120.86
21.328,139.22
21.343,161.3
21.359,187.65
21.375,217.24
21.390,247.23
21.406,273.25
21.421,290.34
21.437,294.54
21.453,284.13
21.468,260.67
21.484,228.0
21.500,190.93
21.515,153.71
21.531,119.32
21.546,89.23
21.562,63.69
21.578,42.54
21.593,25.7
21.609,13.56
21.625,6.41
21.640,4.12
21.656,6.04
21.671,11.13
21.687,18.29
21.703,26.57
21.718,35.47
21.734,44.85
21.750,54.74
21.765,64.83
21.781,74.29
21.796,81.95
21.812,86.65
21.828,87.5
21.843,83.93
21.859,75.95
21.875,64.03
21.890,49.25
21.906,33.04
21.921,16.95
21.937,2.04
21.953,-11.37
21.968,-23.56
21.984,-35.03
22.000,-45.71
22.015,-54.88
22.031,-61.49
22.046,-64.92
22.062,-65.72
22.078,-65.6
22.093,-66.7
22.109,-70.27
22.125,-76.02
22.140,-82.3
22.156,-86.96
22.171,-88.6
22.187,-87.29
22.203,-84.3
22.218,-81.18
22.234,-79.02
22.250,-77.74
22.265,-76.5
22.281,-74.3
22.296,-70.66
22.312,-65.84
22.328,-60.58
22.343,-55.72
22.359,-51.58
22.375,-48.16
22.390,-45.16
22.406,-42.38
22.421,-40.08
22.437,-38.89
22.453,-39.59
22.468,-42.45
22.484,-46.84
22.500,-51.03
22.515,-52.85
22.531,-50.21
22.546,-42.23
22.562,-29.55
22.578,-13.98
22.593,2.19
22.609,17.02
22.625,29.48
22.640,39.16
22.656,45.76
22.671,48.98
22.687,48.2
22.703,43.13
22.718,34.41
22.734,23.96
22.750,14.5
22.765,8.58
22.781,7.7
22.796,11.72
22.812,19.37
22.828,28.97
22.843,39.12
22.859,48.91
22.875,57.73
22.890,64.89
22.906,69.63
22.921,71.65
22.937,71.19
22.953,69.39
22.968,67.55
22.984,66.43
23.000,65.96
23.015,65.23
23.031,63.54
23.046,60.58
23.062,56.73
23.078,52.31
23.093,47.39
23.109,41.68
23.125,34.93
23.140,27.7
23.156,21.15
23.171,16.9
23.187,16.03
23.203,18.7
23.218,23.82
23.234,29.76
23.250,35.06
23.265,39.06
23.281,42.14
23.296,45.31
23.312,49.76
23.328,56.24
23.343,64.95
23.359,75.49
23.375,87.48
23.390,100.89
23.406,116.4
23.421,135.21
23.437,158.29
23.453,185.64
23.468,215.84
23.484,246.36
23.500,274.25
23.515,296.95
23.531,312.83
23.546,321.06
23.562,321.12
23.578,312.46
23.593,294.64
23.609,267.7
23.625,232.58
23.640,191.17
23.656,145.84
23.671,98.94
23.687,52.1
23.703,6.07
23.718,-39.22
23.734,-84.18
23.750,-129.05
23.765,-173.63
23.781,-217.04
23.796,-257.81
23.812,-294.22
23.828,-324.66
23.843,-347.97
23.859,-363.76
23.875,-372.46
23.890,-375.31
23.906,-374.07
23.921,-370.55
23.937,-366.27
23.953,-361.91
23.968,-357.16
23.984,-350.84
24.000,-341.57
24.015,-328.29
24.031,-310.64
24.046,-288.8
24.062,-262.93
24.078,-232.94
24.093,-198.43
24.109,-159.33
24.125,-116.47
24.140,-72.14
24.156,-29.72
24.171,6.98
24.187,34.65
24.203,51.02
24.218,54.79
24.234,45.73
24.250,24.58
24.265,-6.65
24.281,-44.61
24.296,-84.8
24.312,-122.74
24.328,-154.95
24.343,-179.38
24.359,-195.11
24.375,-201.28
24.390,-196.63
24.406,-179.83
24.421,-150.74
24.437,-111.78
24.453,-68.19
24.468,-26.97
24.484,5.67
24.500,26.23
24.515,34.83
24.531,34.54
24.546,29.28
24.562,22.04
24.578,13.75
24.593,3.61
24.609,-9.47
24.625,-25.32
24.640,-41.83
24.656,-55.35
24.671,-62.27
24.687,-60.87
24.703,-51.94
24.718,-38.1
24.734,-22.03
24.750,-4.77
24.765,14.37
24.781,36.45
24.796,61.16
24.812,85.94
24.828,106.93
24.843,121.05
24.859,127.94
24.875,130.24
24.890,132.15
24.906,137.06
24.921,146.01
24.937,157.57
24.953,169.39
24.968,179.73
24.984,188.38
25.000,196.24
25.015,203.91
25.031,210.63
25.046,213.84
25.062,210.34
25.078,197.61
25.093,175.05
25.109,144.37
25.125,108.9
25.140,72.58
25.156,38.91
25.171,10.56
25.187,-10.92
25.203,-24.65
25.218,-30.49
25.234,-29.08
25.250,-21.86
25.265,-10.96
25.281,1.26
25.296,12.94
25.312,23.19
25.328,31.79
25.343,38.98
25.359,44.68
25.375,48.36
25.390,49.33
25.406,47.14
25.421,41.93
25.437,34.35
25.453,25.29
25.468,15.24
25.484,4.49
25.500,-6.74
25.515,-17.61
25.531,-26.52
25.546,-31.43
25.562,-30.98
25.578,-25.3
25.593,-16.0
25.609,-5.46
25.625,4.39
25.640,12.76
25.656,19.82
25.671,25.99
25.687,30.9
25.703,33.36
25.718,31.9
25.734,25.85
25.750,16.08
25.765,4.92
25.781,-4.76
25.796,-10.75
25.812,-12.5
25.828,-11.33
25.843,-9.31
25.859,-8.23
25.875,-8.58
25.890,-9.52
25.906,-9.68
25.921,-8.07
25.937,-4.89
25.953,-1.22
25.968,1.37
25.984,1.94
26.000,0.32
26.015,-2.89
26.031,-6.93
26.046,-11.09
26.062,-14.85
26.078,-17.61
26.093,-18.45
26.109,-16.44
26.125,-11.02
26.140,-2.6
26.156,7.41
26.171,16.93
26.187,23.99
26.203,27.27
26.218,26.47
26.234,22.23
26.250,15.47
26.265,6.98
26.281,-3.0
26.296,-14.51
26.312,-27.26
26.328,-40.24
26.343,-51.56
26.359,-58.94
26.375,-60.53
26.390,-55.91
26.406,-46.32
26.421,-34.39
26.437,-23.31
26.453,-15.36
26.468,-11.71
26.484,-12.05
26.500,-15.11
26.515,-19.34
26.531,-23.4
26.546,-26.14
26.562,-26.85
26.578,-25.19
26.593,-21.23
26.609,-15.48
26.625,-8.72
26.640,-1.8
26.656,4.66
26.671,10.25
26.687,14.83
26.703,18.42
26.718,21.1
26.734,23.09
26.750,24.69
26.765,26.02
26.781,27.08
26.796,27.48
26.812,26.74
26.828,24.61
26.843,21.17
26.859,16.9
26.875,12.45
26.890,8.41
26.906,4.88
26.921,1.93
26.937,-0.74
26.953,-3.17
26.968,-5.25
26.984,-6.66
27.000,-7.07
27.015,-6.29
27.031,-4.5
27.046,-2.32
27.062,-0.47
27.078,0.41
27.093,0.25
27.109,-0.37
27.125,-0.49
27.140,0.77
27.156,3.83
27.171,8.46
27.187,13.91
27.203,19.4
27.218,24.37
27.234,28.65
27.250,32.31
27.265,35.36
27.281,37.59
27.296,38.52
27.312,37.63
27.328,34.62
27.343,29.79
27.359,24.19
27.375,19.38
27.390,16.97
27.406,17.78
27.421,21.69
27.437,27.59
27.453,34.22
27.468,40.83
27.484,47.51
27.500,54.77
27.515,62.84
27.531,71.16
27.546,78.55
27.562,84.03
27.578,87.76
27.593,91.19
27.609,96.25
27.625,104.32
27.640,115.15
27.656,127.22
27.671,138.79
27.687,149.1
27.703,158.8
27.718,169.39
27.734,181.97
27.750,196.32
27.765,210.92
27.781,224.05
27.796,235.03
27.812,244.84
27.828,255.41
27.843,268.31
27.859,283.47
27.875,298.78
27.890,310.71
27.906,315.6
27.921,310.85
27.937,295.42
27.953,269.81
27.968,235.43
27.984,194.18
28.000,148.09
28.015,99.2
28.031,49.41
28.046,0.4
28.062,-46.66
28.078,-91.1
28.093,-132.6
28.109,-171.04
28.125,-206.27
28.140,-238.64
28.156,-268.9
28.171,-298.07
28.187,-327.27
28.203,-357.33
28.218,-388.15
28.234,-418.64
28.250,-447.05
28.265,-471.43
28.281,-490.44
28.296,-503.65
28.312,-511.16
28.328,-513.04
28.343,-509.3
28.359,-499.81
28.375,-485.17
28.390,-467.23
28.406,-448.56
28.421,-430.99
28.437,-413.95
28.453,-393.77
28.468,-364.97
28.484,-323.03
28.500,-266.81
28.515,-199.62
28.531,-127.86
28.546,-58.24
28.562,4.05
28.578,55.76
28.593,94.46
28.609,116.96
28.625,119.69
28.640,100.54
28.656,61.14
28.671,8.05
28.687,-48.41
28.703,-97.83
28.718,-133.35
28.734,-153.29
28.750,-161.01
28.765,-162.24
28.781,-162.06
28.796,-163.1
28.812,-165.25
28.828,-166.41
28.843,-164.67
28.859,-159.42
28.875,-152.18
28.890,-145.87
28.906,-143.28
28.921,-144.93
28.937,-148.34
28.953,-148.07
28.968,-137.66
28.984,-112.55
29.000,-71.98
29.015,-19.69
29.031,37.49
29.046,92.48
29.062,140.01
29.078,177.53
29.093,204.91
29.109,223.18
29.125,233.14
29.140,235.14
29.156,229.39
29.171,216.45
29.187,198.11
29.203,177.3
29.218,157.1
29.234,140.08
29.250,127.55
29.265,119.24
29.281,113.98
29.296,110.27
29.312,107.09
29.328,104.47
29.343,103.39
29.359,105.4
29.375,112.05
29.390,124.27
29.406,142.12
29.421,165.4
29.437,193.78
29.453,226.84
29.468,263.51
29.484,301.37
29.500,336.52
29.515,364.29
29.531,380.86
29.546,384.61
29.562,377.03
29.578,362.0
29.593,344.14
29.609,327.18
29.625,313.04
29.640,301.97
29.656,293.43
29.671,287.2
29.687,283.62
29.703,283.47
29.718,287.14
29.734,294.16
29.750,303.0
29.765,311.52
29.781,317.8
29.796,320.57
29.812,319.46
29.828,314.73
29.843,306.74
29.859,295.6
29.875,281.21
29.890,263.53
29.906,242.96
29.921,220.59
29.937,197.72
29.953,175.54
29.968,154.49
29.984,134.3
30.000,114.2
30.015,93.56
30.031,72.18
30.046,50.33
30.062,28.25
30.078,5.71
30.093,-18.45
30.109,-46.17
30.125,-79.72
30.140,-120.61
30.156,-168.89
30.171,-222.62
30.187,-278.31
30.203,-331.82
30.218,-379.82
30.234,-420.53
30.250,-453.99
30.265,-481.79
30.281,-505.74
30.296,-527.11
30.312,-546.1
30.328,-562.16
30.343,-574.35
30.359,-581.97
30.375,-584.86
30.390,-583.25
30.406,-577.82
30.421,-569.44
30.437,-559.52
30.453,-549.85
30.468,-541.7
30.484,-534.55
30.500,-525.06
30.515,-507.3
30.531,-474.74
30.546,-423.35
30.562,-353.95
30.578,-272.77
30.593,-189.5
30.609,-113.81
30.625,-52.23
30.640,-6.72
30.656,24.55
30.671,45.23
30.687,58.95
30.703,68.44
30.718,75.81
30.734,83.28
30.750,93.53
30.765,109.18
30.781,132.11
30.796,162.76
30.812,200.24
30.828,242.79
30.843,288.68
30.859,336.82
30.875,386.91
30.890,438.74
30.906,491.17
30.921,541.55
30.937,585.68
30.953,618.61
30.968,636.31
30.984,636.95
31.000,621.51
31.015,593.36
31.031,557.12
31.046,517.19
31.062,476.73
31.078,437.34
31.093,399.47
31.109,363.0
31.125,327.96
31.140,294.63
31.156,263.36
31.171,234.09
31.187,206.46
31.203,179.92
31.218,153.8
31.234,127.53
31.250,100.1
31.265,69.7
31.281,33.98
31.296,-9.29
31.312,-61.29
31.328,-121.28
31.343,-186.26
31.359,-251.93
31.375,-313.95
31.390,-369.35
31.406,-417.16
31.421,-458.08
31.437,-493.38
31.453,-523.88
31.468,-549.38
31.484,-568.68
31.500,-580.27
31.515,-583.18
31.531,-577.49
31.546,-564.23
31.562,-545.02
31.578,-522.09
31.593,-498.11
31.609,-476.11
31.625,-458.31
31.640,-444.78
31.656,-432.38
31.671,-415.27
31.687,-387.02
31.703,-343.68
31.718,-286.29
31.734,-221.12
31.750,-157.57
31.765,-104.68
31.781,-68.0
31.796,-48.02
31.812,-41.23
31.828,-42.27
31.843,-46.33
31.859,-50.11
31.875,-51.58
31.890,-49.25
31.906,-41.56
31.921,-27.01
31.937,-4.79
31.953,24.81
31.968,60.37
31.984,99.78
32.000,141.3
32.015,184.13
32.031,228.17
32.046,273.05
32.062,317.12
32.078,356.99
32.093,388.22
32.109,406.87
32.125,411.2
32.140,402.67
32.156,385.59
32.171,365.52
32.187,347.25
32.203,333.56
32.218,325.0
32.234,320.72
32.250,319.54
32.265,320.7
32.281,324.01
32.296,329.36
32.312,336.48
32.328,344.92
32.343,354.34
32.359,364.68
32.375,376.01
32.390,388.24
32.406,400.66
32.421,411.82
32.437,419.51
32.453,421.34
32.468,415.38
32.484,401.0
32.500,379.04
32.515,351.44
32.531,320.54
32.546,288.41
32.562,256.24
32.578,224.25
32.593,191.97
32.609,158.59
32.625,123.26
32.640,85.35
32.656,44.49
32.671,0.78
32.687,-45.12
32.703,-91.9
32.718,-137.74
32.734,-180.62
32.750,-218.88
32.765,-251.36
32.781,-277.61
32.796,-297.91
32.812,-313.21
32.828,-325.17
32.843,-336.09
32.859,-348.39
32.875,-364.07
32.890,-384.28
32.906,-409.03
32.921,-437.04
32.937,-466.39
32.953,-495.06
32.968,-521.74
32.984,-546.12
33.000,-568.92
33.015,-591.73
33.031,-616.45
33.046,-644.2
33.062,-673.46
33.078,-699.27
33.093,-713.34
33.109,-706.39
33.125,-671.5
33.140,-607.24
33.156,-518.63
33.171,-415.59
33.187,-309.95
33.203,-211.17
33.218,-124.06
33.234,-48.88
33.250,16.63
33.265,75.15
33.281,128.62
33.296,178.27
33.312,224.95
33.328,267.64
33.343,304.21
33.359,332.08
33.375,349.7
33.390,357.8
33.406,359.9
33.421,361.8
33.437,369.67
33.453,387.6
33.468,413.75
33.484,443.14
33.500,470.52
33.515,492.64
33.531,508.22
33.546,516.11
33.562,514.17
33.578,499.68
33.593,471.0
33.609,425.3
33.625,362.74
33.640,287.15
33.656,204.79
33.671,121.83
33.687,41.96
33.703,-33.8
33.718,-105.5
33.734,-173.01
33.750,-240.38
33.765,-311.56
33.781,-388.23
33.796,-468.55
33.812,-548.19
33.828,-622.97
33.843,-690.49
33.859,-750.37
33.875,-772.9
33.890,-736.52
33.906,-637.44
33.921,-494.51
33.937,-337.62
33.953,-190.56
33.968,-63.7
33.984,42.53
34.000,131.46
34.015,207.47
34.031,269.78
34.046,316.27
34.062,347.4
34.078,366.93
34.093,380.17
34.109,391.81
34.125,404.28
34.140,419.02
34.156,434.34
34.171,444.65
34.187,445.06
34.203,434.1
34.218,413.59
34.234,388.28
34.250,363.26
34.265,342.32
34.281,326.86
34.296,316.91
34.312,309.36
34.328,300.76
34.343,288.93
34.359,272.94
34.375,253.13
34.390,229.34
34.406,203.57
34.421,176.25
34.437,147.94
34.453,118.15
34.468,86.87
34.484,55.29
34.500,25.09
34.515,-1.75
34.531,-22.99
34.546,-37.74
34.562,-46.64
34.578,-50.66
34.593,-51.32
34.609,-49.54
34.625,-44.78
34.640,-36.38
34.656,-23.26
34.671,-4.49
34.687,20.1
34.703,49.84
34.718,82.94
34.734,116.53
34.750,147.6
34.765,173.02
34.781,189.15
34.796,192.95
34.812,182.34
34.828,157.11
34.843,118.89
34.859,70.1
34.875,14.03
34.890,-43.92
34.906,-96.81
34.921,-139.7
34.937,-169.3
34.953,-184.73
34.968,-186.67
34.984,-177.35
35.000,-163.34
35.015,-152.25
35.031,-148.84
35.046,-152.7
35.062,-164.62
35.078,-184.35
35.093,-211.16
35.109,-242.14
35.125,-272.53
35.140,-303.17
35.156,-335.44
35.171,-367.56
35.187,-390.53
35.203,-403.43
35.218,-407.4
35.234,-406.03
35.250,-401.13
35.265,-393.8
35.281,-393.71
35.296,-408.68
35.312,-440.22
35.328,-475.03
35.343,-510.22
35.359,-544.13
35.375,-577.15
35.390,-605.75
35.406,-625.59
35.421,-645.26
35.437,-673.31
35.453,-711.7
35.468,-744.76
35.484,-773.16
35.500,-800.88
35.515,-836.81
35.531,-884.19
35.546,-871.85
35.562,-762.33
35.578,-565.27
35.593,-400.07
35.609,-291.57
35.625,-245.43
35.640,-232.07
35.656,-241.93
35.671,-264.73
35.687,-289.1
35.703,-315.24
35.718,-343.94
35.734,-368.96
35.750,-340.1
35.765,-244.5
35.781,-97.4
35.796,64.72
35.812,211.52
35.828,326.31
35.843,410.78
35.859,467.0
35.875,500.49
35.890,530.78
35.906,551.55
35.921,559.58
35.937,553.14
35.953,537.43
35.968,519.46
35.984,499.36
36.000,474.18
36.015,443.38
36.031,415.05
36.046,387.9
36.062,362.0
36.078,337.19
36.093,316.66
36.109,303.55
36.125,296.57
36.140,291.35
36.156,285.04
36.171,279.54
36.187,272.14
36.203,262.25
36.218,249.87
36.234,237.16
36.250,226.12
36.265,216.47
36.281,205.67
36.296,191.66
36.312,174.55
36.328,152.76
36.343,126.63
36.359,97.39
36.375,67.57
36.390,39.65
36.406,15.69
36.421,-3.63
36.437,-18.29
36.453,-28.47
36.468,-35.17
36.484,-38.76
36.500,-39.39
36.515,-37.21
36.531,-32.6
36.546,-26.3
36.562,-19.47
36.578,-13.17
36.593,-8.04
36.609,-4.44
36.625,-1.9
36.640,0.23
36.656,2.79
36.671,6.4
36.687,11.35
36.703,17.51
36.718,24.49
36.734,32.18
36.750,40.68
36.765,50.44
36.781,62.21
36.796,76.61
36.812,93.53
36.828,112.14
36.843,130.93
36.859,148.16
36.875,163.02
36.890,175.52
36.906,186.66
36.921,198.35
36.937,212.28
36.953,229.26
36.968,248.83
36.984,269.59
37.000,289.55
37.015,307.62
37.031,323.86
37.046,339.11
37.062,354.88
37.078,372.92
37.093,394.78
37.109,421.36
37.125,452.36
37.140,485.06
37.156,514.34
37.171,532.95
37.187,533.33
37.203,510.32
37.218,464.23
37.234,401.35
37.250,332.43
37.265,268.51
37.281,216.88
37.296,179.65
37.312,153.83
37.328,134.14
37.343,116.37
37.359,99.08
37.375,83.12
37.390,70.06
37.406,60.37
37.421,53.14
37.437,47.55
37.453,43.96
37.468,44.18
37.484,51.04
37.500,65.88
37.515,87.11
37.531,110.61
37.546,130.86
37.562,143.08
37.578,145.1
37.593,137.75
37.609,123.68
37.625,106.31
37.640,88.12
37.656,70.05
37.671,52.05
37.687,33.84
37.703,14.94
37.718,-4.82
37.734,-25.02
37.750,-44.87
37.765,-63.01
37.781,-78.3
37.796,-90.26
37.812,-98.96
37.828,-105.26
37.843,-110.5
37.859,-116.17
37.875,-123.31
37.890,-132.53
37.906,-143.7
37.921,-156.27
37.937,-169.78
37.953,-184.25
37.968,-200.67
37.984,-220.0
38.000,-242.46
38.015,-266.79
38.031,-290.33
38.046,-309.38
38.062,-319.79
38.078,-317.97
38.093,-301.57
38.109,-270.19
38.125,-225.63
38.140,-171.86
38.156,-114.54
38.171,-59.99
38.187,-13.7
38.203,21.16
38.218,44.1
38.234,56.59
38.250,61.08
38.265,60.05
38.281,55.68
38.296,49.75
38.312,43.74
38.328,39.17
38.343,37.48
38.359,39.03
38.375,41.68
38.390,42.16
38.406,37.91
38.421,28.58
38.437,16.53
38.453,6.08
38.468,3.05
38.484,13.46
38.500,41.22
38.515,83.87
38.531,134.73
38.546,185.24
38.562,227.74
38.578,256.54
38.593,268.07
38.609,261.94
38.625,240.68
38.640,208.16
38.656,163.17
38.671,104.13
38.687,32.32
38.703,-46.48
38.718,-124.5
38.734,-195.82
38.750,-257.65
38.765,-310.2
38.781,-355.97
38.796,-404.49
38.812,-464.11
38.828,-537.06
38.843,-618.17
38.859,-699.06
38.875,-773.78
38.890,-839.49
38.906,-895.66
38.921,-903.62
38.937,-837.61
38.953,-701.54
38.968,-529.35
38.984,-358.7
39.000,-209.81
39.015,-87.33
39.031,12.88
39.046,97.22
39.062,170.65
39.078,231.01
39.093,275.22
39.109,303.9
39.125,322.6
39.140,340.97
39.156,362.28
39.171,385.56
39.187,407.77
39.203,425.29
39.218,430.78
39.234,418.03
39.250,385.63
39.265,332.33
39.281,268.5
39.296,203.49
39.312,143.8
39.328,92.96
39.343,52.6
39.359,20.56
39.375,-6.66
39.390,-31.24
39.406,-52.22
39.421,-67.63
39.437,-78.08
39.453,-85.02
39.468,-89.93
39.484,-97.27
39.500,-105.93
39.515,-115.15
39.531,-124.15
39.546,-130.57
39.562,-132.04
39.578,-128.63
39.593,-121.49
39.609,-112.17
39.625,-101.87
39.640,-90.98
39.656,-79.97
39.671,-69.48
39.687,-59.58
39.703,-50.4
39.718,-43.41
39.734,-40.46
39.750,-43.31
39.765,-53.02
39.781,-69.78
39.796,-88.93
39.812,-109.15
39.828,-130.12
39.843,-152.3
39.859,-176.85
39.875,-205.19
39.890,-238.94
39.906,-279.03
39.921,-324.92
39.937,-374.55
39.953,-423.9
39.968,-465.96
39.984,-492.36
40.000,-496.23
40.015,-475.17
40.031,-432.26
40.046,-374.89
40.062,-312.12
40.078,-251.84
40.093,-199.24
40.109,-155.46
40.125,-119.53
40.140,-90.02
40.156,-66.22
40.171,-48.13
40.187,-35.36
40.203,-26.7
40.218,-20.09
40.234,-14.05
40.250,-7.47
40.265,-0.58
40.281,5.54
40.296,9.66
40.312,11.02
40.328,10.08
40.343,8.01
40.359,6.87
40.375,8.04
40.390,12.13
40.406,18.75
40.421,26.58
40.437,34.0
40.453,39.66
40.468,43.12
40.484,44.48
40.500,44.74
40.515,44.8
40.531,45.48
40.546,47.25
40.562,50.19
40.578,54.28
40.593,59.44
40.609,66.1
40.625,74.68
40.640,85.59
40.656,99.17
40.671,115.15
40.687,132.71
40.703,150.34
40.718,166.57
40.734,180.21
40.750,191.02
40.765,199.54
40.781,207.14
40.796,215.44
40.812,225.68
40.828,238.41
40.843,253.17
40.859,269.52
40.875,287.12
40.890,305.78
40.906,325.68
40.921,346.66
40.937,367.71
40.953,386.61
40.968,400.32
40.984,405.71
41.000,400.81
41.015,384.61
41.031,357.53
41.046,321.41
41.062,279.29
41.078,235.35
41.093,194.2
41.109,160.16
41.125,136.18
41.140,122.93
41.156,118.29
41.171,117.9
41.187,116.19
41.203,108.27
41.218,92.02
41.234,69.04
41.250,44.46
41.265,24.67
41.281,14.57
41.296,15.11
41.312,22.94
41.328,31.93
41.343,35.96
41.359,31.98
41.375,20.97
41.390,6.34
41.406,-7.75
41.421,-18.33
41.437,-24.06
41.453,-24.64
41.468,-20.43
41.484,-12.59
41.500,-2.93
41.515,5.88
41.531,11.09
41.546,10.81
41.562,4.52
41.578,-6.73
41.593,-20.82
41.609,-35.05
41.625,-46.68
41.640,-53.06
41.656,-52.37
41.671,-44.9
41.687,-33.72
41.703,-23.65
41.718,-19.01
41.734,-20.95
41.750,-26.35
41.765,-29.82
41.781,-27.07
41.796,-18.09
41.812,-7.81
41.828,-3.77
41.843,-11.47
41.859,-30.92
41.875,-55.77
41.890,-76.15
41.906,-83.24
41.921,-73.61
41.937,-50.8
41.953,-23.51
41.968,-1.93
41.984,6.93
42.000,1.73
42.015,-13.09
42.031,-30.03
42.046,-42.24
42.062,-46.5
42.078,-43.63
42.093,-36.45
42.109,-27.44
42.125,-17.12
42.140,-5.12
42.156,8.94
42.171,23.74
42.187,35.81
42.203,41.28
42.218,37.56
42.234,24.97
42.250,6.63
42.265,-12.99
42.281,-30.5
42.296,-44.45
42.312,-55.29
42.328,-64.02
42.343,-70.32
42.359,-71.92
42.375,-65.91
42.390,-51.38
42.406,-30.94
42.421,-10.79
42.437,1.81
42.453,2.88
42.468,-5.84
42.484,-17.64
42.500,-25.04
42.515,-24.47
42.531,-18.43
42.546,-13.85
42.562,-17.68
42.578,-32.63
42.593,-55.08
42.609,-76.91
42.625,-89.64
42.640,-89.13
42.656,-76.95
42.671,-59.08
42.687,-42.57
42.703,-31.8
42.718,-27.01
42.734,-24.61
42.750,-20.47
42.765,-12.74
42.781,-3.38
42.796,3.11
42.812,2.62
42.828,-5.82
42.843,-18.74
42.859,-29.93
42.875,-33.8
42.890,-29.01
42.906,-18.7
42.921,-7.95
42.937,-0.09
42.953,5.81
42.968,13.86
42.984,28.28
43.000,50.16
43.015,76.19
43.031,100.27
43.046,117.16
43.062,124.73
43.078,123.7
43.093,115.66
43.109,101.3
43.125,80.61
43.140,54.49
43.156,26.44
43.171,1.72
43.187,-14.81
43.203,-20.93
43.218,-17.77
43.234,-7.97
43.250,5.85
43.265,21.73
43.281,37.24
43.296,48.87
43.312,52.91
43.328,48.1
43.343,37.37
43.359,27.0
43.375,22.9
43.390,26.0
43.406,30.94
43.421,29.28
43.437,15.37
43.453,-9.06
43.468,-35.3
43.484,-53.07
43.500,-56.22
43.515,-45.87
43.531,-28.75
43.546,-12.04
43.562,0.2
43.578,7.64
43.593,11.47
43.609,12.04
43.625,8.24
43.640,-0.58
43.656,-12.4
43.671,-22.56
43.687,-25.66
43.703,-18.92
43.718,-4.13
43.734,13.4
43.750,27.81
43.765,35.33
43.781,34.95
43.796,27.74
43.812,14.95
43.828,-1.63
43.843,-18.97
43.859,-32.04
43.875,-34.61
43.890,-22.12
43.906,5.36
43.921,42.12
43.937,78.65
43.953,105.65
43.968,118.07
43.984,116.33
44.000,104.61
44.015,87.16
44.031,65.93
44.046,40.81
44.062,11.48
44.078,-20.29
44.093,-50.53
44.109,-73.95
44.125,-86.28
44.140,-85.97
44.156,-74.71
44.171,-56.81
44.187,-37.52
44.203,-21.18
44.218,-9.61
44.234,-2.17
44.250,3.12
44.265,7.83
44.281,12.21
44.296,15.79
44.312,17.96
44.328,19.14
44.343,20.2
44.359,21.67
44.375,22.79
44.390,21.45
44.406,15.77
44.421,5.96
44.437,-5.03
44.453,-12.28
44.468,-11.91
44.484,-3.13
44.500,10.93
44.515,24.44
44.531,31.57
44.546,29.66
44.562,20.51
44.578,9.46
44.593,3.09
44.609,6.08
44.625,19.15
44.640,38.8
44.656,58.81
44.671,73.0
44.687,77.29
44.703,70.13
44.718,51.42
44.734,21.94
44.750,-15.77
44.765,-56.02
44.781,-89.25
44.796,-104.06
44.812,-92.53
44.828,-55.24
44.843,-3.22
44.859,45.61
44.875,74.12
44.890,73.15
44.906,44.56
44.921,-0.81
44.937,-49.91
44.953,-93.15
44.968,-127.6
44.984,-155.55
45.000,-181.29
45.015,-207.69
45.031,-235.05
45.046,-261.35
45.062,-282.69
45.078,-294.62
45.093,-292.79
45.109,-274.26
45.125,-239.11
45.140,-191.35
45.156,-138.72
45.171,-90.84
45.187,-57.17
45.203,-44.47
45.218,-56.09
45.234,-91.51
45.250,-146.25
45.265,-211.58
45.281,-275.42
45.296,-324.61
45.312,-349.1
45.328,-345.4
45.343,-317.6
45.359,-275.07
45.375,-227.63
45.390,-181.95
45.406,-139.54
45.421,-98.37
45.437,-56.14
45.453,-12.94
45.468,28.44
45.484,64.24
45.500,92.01
45.515,111.82
45.531,125.49
45.546,135.06
45.562,141.31
45.578,143.3
45.593,139.43
45.609,129.08
45.625,113.59
45.640,96.22
45.656,81.36
45.671,73.15
45.687,74.35
45.703,85.83
45.718,106.54
45.734,133.96
45.750,164.59
45.765,194.49
45.781,219.62
45.796,237.08
45.812,245.78
45.828,247.21
45.843,244.76
45.859,241.93
45.875,240.61
45.890,239.48
45.906,234.16
45.921,220.05
45.937,194.76
45.953,159.37
45.968,118.08
45.984,75.68
46.000,35.9
46.015,1.2
46.031,-25.9
46.046,-41.99
46.062,-43.44
46.078,-28.96
46.093,-2.16
46.109,28.47
46.125,52.65
46.140,63.11
46.156,58.91
46.171,44.91
46.187,27.51
46.203,10.11
46.218,-8.23
46.234,-30.12
46.250,-55.73
46.265,-80.18
46.281,-95.58
46.296,-95.71
46.312,-80.59
46.328,-57.08
46.343,-34.72
46.359,-19.83
46.375,-11.77
46.390,-3.95
46.406,10.44
46.421,33.17
46.437,58.68
46.453,77.38
46.468,81.95
46.484,72.03
46.500,54.74
46.515,39.62
46.531,32.89
46.546,34.0
46.562,36.79
46.578,34.17
46.593,22.87
46.609,5.21
46.625,-12.78
46.640,-25.4
46.656,-30.54
46.671,-29.86
46.687,-26.6
46.703,-23.25
46.718,-20.47
46.734,-17.55
46.750,-14.27
46.765,-11.27
46.781,-9.61
46.796,-9.37
46.812,-8.82
46.828,-5.07
46.843,3.81
46.859,16.68
46.875,29.18
46.890,35.28
46.906,30.64
46.921,15.64
46.937,-4.33
46.953,-21.41
46.968,-29.45
46.984,-27.28
47.000,-18.76
47.015,-10.04
47.031,-5.59
47.046,-5.59
47.062,-6.5
47.078,-4.13
47.093,3.36
47.109,13.74
47.125,22.82
47.140,27.15
47.156,26.54
47.171,24.04
47.187,23.7
47.203,27.83
47.218,35.57
47.234,43.8
47.250,49.0
47.265,49.43
47.281,45.3
47.296,38.42
47.312,30.61
47.328,23.02
47.343,15.99
47.359,9.47
47.375,3.34
47.390,-2.86
47.406,-9.93
47.421,-18.39
47.437,-27.53
47.453,-34.74
47.468,-36.23
47.484,-28.94
47.500,-12.78
47.515,8.84
47.531,30.66
47.546,48.48
47.562,61.44
47.578,71.77
47.593,82.37
47.609,93.69
47.625,103.06
47.640,106.23
47.656,100.77
47.671,88.11
47.687,72.85
47.703,59.73
47.718,50.9
47.734,45.78
47.750,42.86
47.765,42.55
47.781,47.78
47.796,62.2
47.812,86.47
47.828,116.18
47.843,142.32
47.859,154.81
47.875,146.97
47.890,117.88
47.906,72.47
47.921,18.57
47.937,-36.47
47.953,-87.83
47.968,-132.21
47.984,-165.44
48.000,-181.3
48.015,-172.95
48.031,-137.27
48.046,-78.63
48.062,-10.08
48.078,50.24
48.093,86.28
48.109,91.01
48.125,69.84
48.140,37.33
48.156,9.86
48.171,-2.37
48.187,0.76
48.203,11.65
48.218,21.09
48.234,24.52
48.250,23.57
48.265,23.47
48.281,28.19
48.296,38.13
48.312,50.39
48.328,61.98
48.343,72.9
48.359,86.35
48.375,106.46
48.390,133.83
48.406,163.68
48.421,187.19
48.437,195.32
48.453,182.96
48.468,150.62
48.484,103.85
48.500,50.66
48.515,-1.06
48.531,-45.71
48.546,-80.43
48.562,-104.67
48.578,-119.65
48.593,-126.9
48.609,-127.79
48.625,-123.2
48.640,-113.89
48.656,-101.05
48.671,-86.61
48.687,-73.62
48.703,-65.61
48.718,-65.6
48.734,-75.15
48.750,-94.27
48.765,-121.59
48.781,-155.06
48.796,-191.66
48.812,-226.93
48.828,-255.76
48.843,-273.93
48.859,-280.3
48.875,-277.84
48.890,-273.53
48.906,-275.87
48.921,-290.92
48.937,-319.47
48.953,-355.87
48.968,-390.9
48.984,-415.7
49.000,-425.1
49.015,-418.3
49.031,-397.23
49.046,-364.11
49.062,-320.05
49.078,-265.61
49.093,-202.03
49.109,-133.56
49.125,-67.62
49.140,-13.01
49.156,23.5
49.171,39.86
49.187,39.04
49.203,27.5
49.218,13.14
49.234,3.15
49.250,1.0
49.265,5.81
49.281,12.98
49.296,16.83
49.312,13.1
49.328,0.66
49.343,-17.74
49.359,-35.29
49.375,-42.32
49.390,-30.48
49.406,3.75
49.421,58.28
49.437,127.33
49.453,204.09
49.468,282.42
49.484,354.12
49.500,405.68
49.515,426.26
49.531,414.47
49.546,377.33
49.562,324.23
49.578,263.52
49.593,202.29
49.609,146.15
49.625,98.54
49.640,60.98
49.656,33.91
49.671,16.34
49.687,5.8
49.703,-1.17
49.718,-7.73
49.734,-15.6
49.750,-25.56
49.765,-37.48
49.781,-50.69
49.796,-64.06
49.812,-76.75
49.828,-88.89
49.843,-101.22
49.859,-114.32
49.875,-127.77
49.890,-140.55
49.906,-152.62
49.921,-161.9
49.937,-166.44
49.953,-164.98
49.968,-157.74
49.984,-145.97
50.000,-131.54
50.015,-116.2
50.031,-101.41
50.046,-88.38
50.062,-77.39
50.078,-68.43
50.093,-61.31
50.109,-56.08
50.125,-52.99
50.140,-52.27
50.156,-53.89
50.171,-57.73
50.187,-63.57
50.203,-70.45
50.218,-77.42
50.234,-83.63
50.250,-88.49
50.265,-91.82
50.281,-93.51
50.296,-93.27
50.312,-90.3
50.328,-86.24
50.343,-81.05
50.359,-74.38
50.375,-65.81
50.390,-55.15
50.406,-42.65
50.421,-28.85
50.437,-14.61
50.453,-0.59
50.468,12.83
50.484,26.28
50.500,40.58
50.515,56.49
50.531,74.29
50.546,93.73
50.562,114.11
50.578,134.39
50.593,153.77
50.609,171.81
50.625,188.87
50.640,205.66
50.656,223.02
50.671,241.86
50.687,262.98
50.703,286.45
50.718,310.98
50.734,333.55
50.750,349.81
50.765,355.29
50.781,347.11
50.796,325.24
50.812,292.73
50.828,254.83
50.843,216.83
50.859,182.54
50.875,153.35
50.890,128.9
50.906,108.09
50.921,90.2
50.937,75.13
50.953,62.88
50.968,53.27
50.984,45.4
51.000,38.07
51.015,30.27
51.031,21.73
51.046,12.92
51.062,4.83
51.078,-1.51
51.093,-5.7
51.109,-7.69
51.125,-7.91
51.140,-6.83
51.156,-4.83
51.171,-2.22
51.187,0.53
51.203,2.68
51.218,3.6
51.234,2.87
51.250,0.75
51.265,-2.02
51.281,-4.55
51.296,-6.34
51.312,-7.62
51.328,-8.95
51.343,-10.99
51.359,-13.68
51.375,-16.58
51.390,-19.04
51.406,-20.9
51.421,-22.93
51.437,-26.39
51.453,-32.82
51.468,-43.15
51.484,-57.48
51.500,-74.8
51.515,-93.48
51.531,-111.52
51.546,-126.94
51.562,-138.51
51.578,-145.8
51.593,-149.47
51.609,-150.77
51.625,-150.88
51.640,-150.21
51.656,-148.39
51.671,-144.57
51.687,-137.89
51.703,-128.27
51.718,-116.32
51.734,-103.07
51.750,-89.49
51.765,-76.18
51.781,-63.26
51.796,-50.75
51.812,-38.88
51.828,-27.95
51.843,-18.33
51.859,-10.09
51.875,-2.86
51.890,3.99
51.906,11.02
51.921,18.48
51.937,26.2
51.953,33.58
51.968,40.03
51.984,45.02
52.000,48.58
52.015,51.04
52.031,52.86
52.046,54.19
52.062,54.81
52.078,54.32
52.093,52.58
52.109,50.01
52.125,47.16
52.140,44.59
52.156,42.3
52.171,39.76
52.187,36.24
52.203,31.25
52.218,25.01
52.234,18.33
52.250,12.28
52.265,7.49
52.281,3.88
52.296,0.84
52.312,-2.2
52.328,-5.37
52.343,-8.29
52.359,-10.63
52.375,-12.19
52.390,-12.81
52.406,-12.17
52.421,-9.64
52.437,-4.36
52.453,4.39
52.468,16.5
52.484,31.11
52.500,46.62
52.515,61.22
52.531,73.67
52.546,83.31
52.562,90.09
52.578,94.11
52.593,95.54
52.609,94.53
52.625,91.48
52.640,86.75
52.656,80.5
52.671,72.58
52.687,62.67
52.703,50.5
52.718,36.38
52.734,21.1
52.750,5.73
52.765,-8.53
52.781,-20.88
52.796,-31.16
52.812,-39.62
52.828,-46.61
52.843,-52.25
52.859,-56.18
52.875,-57.77
52.890,-56.4
52.906,-51.68
52.921,-43.69
52.937,-33.18
52.953,-21.12
52.968,-8.74
52.984,2.96
53.000,13.48
53.015,22.66
53.031,30.65
53.046,37.64
53.062,43.58
53.078,48.13
53.093,50.8
53.109,51.04
53.125,48.44
53.140,42.86
53.156,34.36
53.171,23.28
53.187,10.4
53.203,-3.31
53.218,-16.67
53.234,-28.51
53.250,-38.12
53.265,-45.24
53.281,-50.08
53.296,-53.19
53.312,-55.22
53.328,-56.44
53.343,-56.94
53.359,-56.66
53.375,-55.45
53.390,-53.37
53.406,-50.56
53.421,-47.11
53.437,-43.06
53.453,-38.48
53.468,-33.43
53.484,-28.17
53.500,-23.11
53.515,-18.66
53.531,-15.15
53.546,-12.69
53.562,-11.12
53.578,-10.03
53.593,-8.94
53.609,-7.47
53.625,-5.37
53.640,-2.65
53.656,0.69
53.671,4.58
53.687,9.05
53.703,14.17
53.718,20.03
53.734,26.69
53.750,33.97
53.765,41.58
53.781,49.12
53.796,56.39
53.812,63.35
53.828,70.33
53.843,77.89
53.859,86.63
53.875,97.15
53.890,109.86
53.906,125.0
53.921,142.43
53.937,161.71
53.953,181.99
53.968,202.01
53.984,220.42
54.000,235.9
54.015,247.42
54.031,254.36
54.046,256.86
54.062,255.51
54.078,251.31
54.093,245.39
54.109,238.51
54.125,230.85
54.140,221.91
54.156,210.85
54.171,196.77
54.187,179.5
54.203,159.61
54.218,138.32
54.234,117.0
54.250,96.65
54.265,77.64
54.281,59.62
54.296,41.7
54.312,22.49
54.328,0.39
54.343,-26.3
54.359,-58.72
54.375,-97.12
54.390,-140.74
54.406,-187.84
54.421,-236.32
54.437,-284.38
54.453,-330.64
54.468,-374.19
54.484,-414.4
54.500,-450.52
54.515,-481.84
54.531,-508.11
54.546,-529.53
54.562,-546.77
54.578,-561.31
54.593,-575.0
54.609,-589.69
54.625,-606.13
54.640,-623.02
54.656,-636.15
54.671,-639.15
54.687,-625.34
54.703,-590.33
54.718,-534.61
54.734,-464.04
54.750,-387.88
54.765,-315.43
54.781,-252.73
54.796,-201.08
54.812,-157.97
54.828,-119.52
54.843,-82.49
54.859,-45.52
54.875,-8.87
54.890,26.56
54.906,60.11
54.921,91.66
54.937,121.34
54.953,148.9
54.968,173.26
54.984,193.14
55.000,208.42
55.015,220.97
55.031,234.55
55.046,253.15
55.062,279.13
55.078,311.59
55.093,346.05
55.109,376.02
55.125,395.68
55.140,401.92
55.156,394.9
55.171,377.03
55.187,350.82
55.203,318.0
55.218,280.0
55.234,239.04
55.250,198.89
55.265,164.06
55.281,137.97
55.296,121.28
55.312,111.71
55.328,105.16
55.343,98.08
55.359,89.2
55.375,79.37
55.390,70.31
55.406,62.99
55.421,56.69
55.437,49.74
55.453,41.28
55.468,32.18
55.484,24.76
55.500,21.55
55.515,23.65
55.531,29.75
55.546,36.66
55.562,40.61
55.578,38.91
55.593,30.9
55.609,17.68
55.625,1.1
55.640,-17.36
55.656,-36.95
55.671,-57.59
55.687,-78.91
55.703,-99.74
55.718,-118.26
55.734,-132.53
55.750,-141.37
55.765,-144.75
55.781,-143.81
55.796,-140.03
55.812,-134.68
55.828,-128.5
55.843,-121.7
55.859,-114.29
55.875,-106.41
55.890,-98.31
55.906,-90.4
55.921,-83.09
55.937,-76.68
55.953,-71.32
55.968,-66.98
55.984,-63.43
56.000,-60.31
56.015,-57.19
56.031,-53.74
56.046,-49.85
56.062,-45.64
56.078,-41.3
56.093,-37.04
56.109,-32.94
56.125,-29.0
56.140,-25.45
56.156,-22.58
56.171,-20.69
56.187,-20.03
56.203,-20.5
56.218,-21.66
56.234,-22.92
56.250,-23.78
56.265,-23.96
56.281,-23.56
56.296,-23.06
56.312,-23.0
56.328,-23.89
56.343,-26.08
56.359,-29.38
56.375,-33.19
56.390,-36.63
56.406,-38.7
56.421,-38.62
56.437,-35.87
56.453,-30.09
56.468,-20.85
56.484,-7.63
56.500,10.27
56.515,33.2
56.531,60.75
56.546,91.66
56.562,123.97
56.578,155.66
56.593,185.07
56.609,211.27
56.625,234.19
56.640,254.45
56.656,273.06
56.671,291.14
56.687,309.09
56.703,326.22
56.718,340.36
56.734,348.42
56.750,347.29
56.765,335.1
56.781,312.06
56.796,280.34
56.812,243.47
56.828,205.11
56.843,167.98
56.859,133.09
56.875,99.72
56.890,65.37
56.906,26.56
56.921,-19.79
56.937,-74.72
56.953,-135.67
56.968,-196.11
56.984,-246.84
57.000,-279.24
57.015,-288.46
57.031,-275.55
57.046,-247.06
57.062,-212.51
57.078,-180.65
57.093,-156.73
57.109,-141.85
57.125,-133.83
57.140,-129.63
57.156,-127.23
57.171,-126.42
57.187,-128.41
57.203,-135.09
57.218,-148.08
57.234,-168.25
57.250,-195.56
57.265,-229.19
57.281,-267.93
57.296,-310.25
57.312,-353.96
57.328,-395.9
57.343,-431.52
57.359,-455.39
57.375,-462.14
57.390,-448.3
57.406,-413.65
57.421,-361.88
57.437,-299.59
57.453,-234.17
57.468,-171.8
57.484,-115.96
57.500,-67.45
57.515,-25.21
57.531,12.23
57.546,46.25
57.562,77.6
57.578,106.85
57.593,134.69
57.609,162.12
57.625,190.14
57.640,219.4
57.656,249.64
57.671,278.95
57.687,304.03
57.703,320.81
57.718,326.11
57.734,319.04
57.750,301.86
57.765,279.54
57.781,257.59
57.796,239.83
57.812,226.66
57.828,215.34
57.843,202.03
57.859,184.27
57.875,162.58
57.890,139.74
57.906,119.15
57.921,102.62
57.937,89.52
57.953,77.55
57.968,64.55
57.984,50.26
58.000,36.64
58.015,27.15
58.031,24.5
58.046,29.1
58.062,38.52
58.078,48.6
58.093,55.53
58.109,57.68
58.125,56.34
58.140,54.54
58.156,55.33
58.171,59.92
58.187,67.14
58.203,74.17
58.218,78.49
58.234,79.46
58.250,78.49
58.265,78.0
58.281,79.34
58.296,81.49
58.312,81.32
58.328,75.5
58.343,62.43
58.359,43.41
58.375,22.15
58.390,2.94
58.406,-11.15
58.421,-19.26
58.437,-22.69
58.453,-23.6
58.468,-23.87
58.484,-24.83
58.500,-27.35
58.515,-32.17
58.531,-39.55
58.546,-48.65
58.562,-57.06
58.578,-61.68
58.593,-60.22
58.609,-52.65
58.625,-41.62
58.640,-31.1
58.656,-24.32
58.671,-22.05
58.687,-22.59
58.703,-22.87
58.718,-20.73
58.734,-15.9
58.750,-9.51
58.765,-2.8
58.781,4.42
58.796,13.5
58.812,25.48
58.828,39.62
58.843,53.04
58.859,61.53
58.875,61.81
58.890,53.05
58.906,37.14
58.921,17.99
58.937,-0.39
58.953,-15.32
58.968,-25.74
58.984,-31.89
59.000,-34.64
59.015,-34.82
59.031,-33.06
59.046,-29.99
59.062,-26.26
59.078,-22.71
59.093,-20.18
59.109,-19.12
59.125,-19.31
59.140,-19.85
59.156,-19.48
59.171,-17.04
59.187,-12.35
59.203,-6.02
59.218,0.68
59.234,6.41
59.250,10.31
59.265,12.3
59.281,12.75
59.296,12.26
59.312,11.53
59.328,11.03
59.343,11.4
59.359,13.25
59.375,16.82
59.390,21.84
59.406,27.33
59.421,32.06
59.437,34.96
59.453,35.86
59.468,35.11
59.484,33.64
59.500,32.11
59.515,30.69
59.531,29.14
59.546,27.17
59.562,25.14
59.578,24.0
59.593,25.18
59.609,29.66
59.625,37.68
59.640,48.25
59.656,59.49
59.671,69.31
59.687,75.96
59.703,78.72
59.718,77.77
59.734,74.28
59.750,69.64
59.765,65.34
59.781,62.56
59.796,61.99
59.812,63.94
59.828,68.03
59.843,73.46
59.859,78.98
59.875,83.32
59.890,85.5
59.906,84.99
59.921,81.72
59.937,75.82
59.953,67.46
59.968,56.61
59.984,43.29
