timestamp,value
00.000,14.8
00.015,9.43
00.031,6.57
00.046,6.72
00.062,8.78
00.078,10.7
00.093,10.67
00.109,8.13
00.125,4.07
00.140,0.49
00.156,-0.84
00.171,0.51
00.187,3.31
00.203,5.33
00.218,4.59
00.234,0.59
00.250,-5.48
00.265,-11.55
00.281,-15.82
00.296,-17.87
00.312,-18.93
00.328,-20.95
00.343,-25.32
00.359,-31.9
00.375,-38.88
00.390,-43.73
00.406,-44.55
00.421,-41.07
00.437,-34.83
00.453,-28.36
00.468,-23.92
00.484,-22.49
00.500,-23.37
00.515,-24.77
00.531,-24.85
00.546,-22.8
00.562,-19.16
00.578,-15.55
00.593,-13.52
00.609,-13.64
00.625,-15.18
00.640,-16.51
00.656,-16.07
00.671,-13.44
00.687,-9.62
00.703,-6.41
00.718,-5.4
00.734,-7.0
00.750,-10.18
00.765,-13.17
00.781,-14.52
00.796,-13.92
00.812,-12.33
00.828,-11.27
00.843,-11.71
00.859,-13.69
00.875,-16.08
00.890,-17.37
00.906,-16.51
00.921,-13.55
00.937,-9.72
00.953,-6.65
00.968,-5.61
00.984,-6.75
01.000,-9.23
01.015,-11.6
01.031,-12.78
01.046,-12.8
01.062,-12.64
01.078,-13.81
01.093,-17.22
01.109,-22.54
01.125,-28.11
01.140,-31.78
01.156,-31.89
01.171,-28.23
01.187,-22.18
01.203,-16.01
01.218,-11.7
01.234,-9.96
01.250,-10.05
01.265,-10.34
01.281,-9.41
01.296,-6.89
01.312,-3.84
01.328,-1.97
01.343,-2.5
01.359,-5.3
01.375,-8.79
01.390,-10.86
01.406,-9.98
01.421,-6.25
01.437,-1.31
01.453,2.51
01.468,3.55
01.484,1.75
01.500,-1.41
01.515,-3.7
01.531,-3.6
01.546,-1.08
01.562,2.29
01.578,4.45
01.593,3.98
01.609,0.96
01.625,-3.07
01.640,-6.11
01.656,-6.78
01.671,-5.17
01.687,-2.75
01.703,-1.58
01.718,-2.95
01.734,-6.79
01.750,-11.6
01.765,-15.36
01.781,-16.7
01.796,-15.5
01.812,-12.92
01.828,-10.61
01.843,-9.71
01.859,-10.08
01.875,-10.42
01.890,-9.24
01.906,-5.67
01.921,-0.37
01.937,5.15
01.953,9.0
01.968,10.1
01.984,8.68
02.000,6.06
02.015,4.01
02.031,3.57
02.046,4.76
02.062,6.39
02.078,7.11
02.093,6.07
02.109,3.56
02.125,0.69
02.140,-1.16
02.156,-1.27
02.171,-0.07
02.187,1.08
02.203,0.48
02.218,-2.53
02.234,-7.3
02.250,-11.81
02.265,-13.67
02.281,-11.23
02.296,-4.17
02.312,5.99
02.328,16.79
02.343,25.99
02.359,33.12
02.375,39.54
02.390,47.63
02.406,59.45
02.421,75.29
02.437,94.04
02.453,112.81
02.468,128.53
02.484,139.47
02.500,146.33
02.515,151.57
02.531,157.75
02.546,166.46
02.562,177.41
02.578,189.98
02.593,202.65
02.609,214.04
02.625,223.51
02.640,231.31
02.656,237.47
02.671,240.88
02.687,239.62
02.703,231.51
02.718,216.57
02.734,195.41
02.750,168.49
02.765,135.32
02.781,94.31
02.796,42.61
02.812,-22.34
02.828,-100.87
02.843,-193.02
02.859,-286.14
02.875,-359.7
02.890,-395.97
02.906,-389.87
02.921,-349.39
02.937,-288.57
02.953,-220.03
02.968,-151.99
02.984,-88.37
03.000,-30.23
03.015,21.0
03.031,62.39
03.046,91.33
03.062,109.97
03.078,120.31
03.093,125.65
03.109,129.47
03.125,134.13
03.140,140.89
03.156,148.81
03.171,154.76
03.187,155.62
03.203,149.91
03.218,138.02
03.234,121.97
03.250,103.72
03.265,84.03
03.281,61.71
03.296,34.67
03.312,-0.25
03.328,-45.02
03.343,-98.43
03.359,-155.14
03.375,-206.23
03.390,-242.2
03.406,-256.17
03.421,-246.33
03.437,-216.21
03.453,-173.17
03.468,-125.63
03.484,-81.33
03.500,-46.87
03.515,-27.52
03.531,-27.2
03.546,-47.08
03.562,-84.66
03.578,-133.14
03.593,-183.64
03.609,-228.08
03.625,-262.04
03.640,-285.26
03.656,-299.05
03.671,-303.73
03.687,-297.41
03.703,-277.99
03.718,-246.19
03.734,-206.98
03.750,-168.16
03.765,-136.39
03.781,-113.62
03.796,-96.38
03.812,-78.85
03.828,-57.03
03.843,-31.63
03.859,-7.14
03.875,11.54
03.890,22.21
03.906,26.56
03.921,28.61
03.937,31.5
03.953,35.37
03.968,38.15
03.984,37.7
04.000,34.28
04.015,30.81
04.031,31.45
04.046,38.84
04.062,52.35
04.078,68.27
04.093,81.21
04.109,86.99
04.125,84.29
04.140,74.75
04.156,61.58
04.171,47.5
04.187,33.45
04.203,19.19
04.218,4.39
04.234,-9.7
04.250,-20.47
04.265,-26.14
04.281,-27.88
04.296,-30.12
04.312,-38.14
04.328,-54.75
04.343,-77.4
04.359,-99.14
04.375,-111.94
04.390,-111.44
04.406,-100.08
04.421,-85.67
04.437,-76.73
04.453,-77.08
04.468,-83.66
04.484,-88.1
04.500,-82.14
04.515,-62.25
04.531,-30.73
04.546,6.3
04.562,42.92
04.578,76.09
04.593,105.47
04.609,131.42
04.625,153.27
04.640,169.34
04.656,178.13
04.671,179.87
04.687,176.56
04.703,170.43
04.718,162.59
04.734,153.01
04.750,141.6
04.765,129.52
04.781,118.93
04.796,110.93
04.812,104.12
04.828,94.84
04.843,79.52
04.859,57.41
04.875,31.28
04.890,5.78
04.906,-15.29
04.921,-30.8
04.937,-41.58
04.953,-48.14
04.968,-49.0
04.984,-41.44
05.000,-24.24
05.015,-0.69
05.031,21.29
05.046,32.48
05.062,27.15
05.078,6.43
05.093,-22.11
05.109,-48.45
05.125,-65.39
05.140,-71.79
05.156,-72.05
05.171,-72.58
05.187,-77.24
05.203,-85.07
05.218,-91.04
05.234,-89.35
05.250,-77.22
05.265,-56.76
05.281,-33.57
05.296,-13.44
05.312,0.75
05.328,10.43
05.343,19.5
05.359,31.52
05.375,46.99
05.390,62.9
05.406,74.59
05.421,78.99
05.437,76.61
05.453,70.76
05.468,65.37
05.484,62.01
05.500,59.36
05.515,54.68
05.531,46.13
05.546,34.27
05.562,22.04
05.578,13.11
05.593,9.91
05.609,12.92
05.625,20.91
05.640,31.78
05.656,43.49
05.671,54.54
05.687,63.53
05.703,69.22
05.718,70.86
05.734,68.39
05.750,62.95
05.765,56.5
05.781,50.9
05.796,46.94
05.812,43.64
05.828,38.62
05.843,28.93
05.859,12.83
05.875,-9.68
05.890,-36.69
05.906,-65.39
05.921,-93.5
05.937,-119.85
05.953,-144.35
05.968,-167.16
05.984,-187.82
06.000,-205.19
06.015,-218.13
06.031,-226.2
06.046,-230.29
06.062,-232.31
06.078,-233.88
06.093,-235.74
06.109,-237.51
06.125,-238.44
06.140,-238.53
06.156,-239.09
06.171,-242.1
06.187,-249.17
06.203,-260.25
06.218,-272.65
06.234,-281.55
06.250,-281.62
06.265,-268.95
06.281,-242.81
06.296,-205.94
06.312,-163.42
06.328,-120.61
06.343,-81.15
06.359,-46.2
06.375,-15.11
06.390,13.15
06.406,39.09
06.421,62.36
06.437,82.44
06.453,99.76
06.468,116.03
06.484,133.85
06.500,155.28
06.515,180.42
06.531,207.04
06.546,231.61
06.562,250.75
06.578,262.47
06.593,266.76
06.609,264.76
06.625,257.86
06.640,246.91
06.656,232.02
06.671,213.1
06.687,190.4
06.703,164.78
06.718,137.5
06.734,110.35
06.750,84.87
06.765,62.2
06.781,42.75
06.796,26.35
06.812,12.92
06.828,2.48
06.843,-4.55
06.859,-7.58
06.875,-6.17
06.890,-0.42
06.906,8.82
06.921,20.06
06.937,31.47
06.953,41.56
06.968,49.39
06.984,54.75
07.000,58.01
07.015,59.5
07.031,59.15
07.046,56.42
07.062,50.68
07.078,41.47
07.093,29.13
07.109,15.07
07.125,1.57
07.140,-8.51
07.156,-12.28
07.171,-7.24
07.187,8.26
07.203,34.44
07.218,69.37
07.234,109.02
07.250,148.21
07.265,182.05
07.281,207.49
07.296,223.96
07.312,232.83
07.328,236.03
07.343,234.82
07.359,229.29
07.375,219.14
07.390,204.48
07.406,186.59
07.421,167.59
07.437,149.73
07.453,134.64
07.468,122.97
07.484,114.32
07.500,107.33
07.515,99.66
07.531,88.23
07.546,70.14
07.562,44.14
07.578,11.74
07.593,-22.88
07.609,-54.06
07.625,-76.58
07.640,-87.57
07.656,-87.25
07.671,-78.36
07.687,-64.95
07.703,-50.69
07.718,-37.89
07.734,-27.34
07.750,-18.82
07.765,-11.72
07.781,-6.01
07.796,-2.41
07.812,-1.99
07.828,-5.64
07.843,-13.24
07.859,-23.8
07.875,-35.81
07.890,-48.18
07.906,-60.67
07.921,-73.74
07.937,-87.78
07.953,-102.01
07.968,-114.54
07.984,-122.82
08.000,-125.01
08.015,-120.98
08.031,-112.52
08.046,-102.63
08.062,-94.3
08.078,-89.27
08.093,-87.16
08.109,-86.05
08.125,-83.31
08.140,-77.09
08.156,-67.31
08.171,-55.53
08.187,-44.26
08.203,-35.73
08.218,-31.06
08.234,-29.66
08.250,-29.9
08.265,-29.99
08.281,-28.82
08.296,-26.52
08.312,-24.11
08.328,-22.9
08.343,-23.44
08.359,-25.17
08.375,-26.57
08.390,-25.99
08.406,-22.69
08.421,-17.29
08.437,-11.54
08.453,-7.03
08.468,-4.3
08.484,-2.24
08.500,0.92
08.515,6.27
08.531,13.36
08.546,20.48
08.562,25.81
08.578,28.53
08.593,29.11
08.609,28.54
08.625,27.29
08.640,24.76
08.656,19.93
08.671,12.43
08.687,3.56
08.703,-4.03
08.718,-7.74
08.734,-6.49
08.750,-1.27
08.765,5.46
08.781,11.06
08.796,14.07
08.812,14.29
08.828,12.47
08.843,9.62
08.859,6.8
08.875,5.1
08.890,5.73
08.906,9.72
08.921,17.48
08.937,28.43
08.953,41.0
08.968,52.92
08.984,61.72
09.000,65.56
09.015,63.65
09.031,56.84
09.046,47.31
09.062,38.36
09.078,33.32
09.093,34.25
09.109,40.59
09.125,48.77
09.140,53.31
09.156,49.19
09.171,34.39
09.187,11.37
09.203,-13.3
09.218,-31.29
09.234,-35.75
09.250,-23.93
09.265,2.02
09.281,36.29
09.296,72.18
09.312,104.74
09.328,132.03
09.343,154.47
09.359,173.3
09.375,189.02
09.390,200.8
09.406,207.08
09.421,206.92
09.437,200.59
09.453,189.75
09.468,176.8
09.484,163.62
09.500,150.71
09.515,136.96
09.531,120.33
09.546,98.67
09.562,71.11
09.578,38.96
09.593,5.84
09.609,-23.06
09.625,-42.93
09.640,-51.56
09.656,-50.43
09.671,-44.43
09.687,-40.09
09.703,-43.31
09.718,-57.36
09.734,-81.99
09.750,-113.75
09.765,-146.75
09.781,-174.42
09.796,-190.49
09.812,-190.58
09.828,-172.98
09.843,-139.58
09.859,-95.47
09.875,-47.31
09.890,-1.57
09.906,36.87
09.921,65.13
09.937,82.6
09.953,90.58
09.968,92.01
09.984,90.11
10.000,87.92
10.015,87.99
10.031,91.98
10.046,99.95
10.062,109.33
10.078,115.69
10.093,114.25
10.109,101.55
10.125,75.45
10.140,35.43
10.156,-17.18
10.171,-79.4
10.187,-147.19
10.203,-216.79
10.218,-284.8
10.234,-348.35
10.250,-398.93
10.265,-425.99
10.281,-423.07
10.296,-392.59
10.312,-344.51
10.328,-289.73
10.343,-235.55
10.359,-184.83
10.375,-137.86
10.390,-94.46
10.406,-55.1
10.421,-21.34
10.437,5.7
10.453,26.1
10.468,41.81
10.484,55.21
10.500,68.76
10.515,84.54
10.531,103.14
10.546,123.68
10.562,143.82
10.578,161.13
10.593,173.9
10.609,183.29
10.625,188.56
10.640,189.19
10.656,185.29
10.671,177.13
10.687,164.74
10.703,147.9
10.718,126.85
10.734,103.15
10.750,79.45
10.765,58.26
10.781,42.07
10.796,32.33
10.812,29.05
10.828,30.81
10.843,34.39
10.859,35.92
10.875,32.65
10.890,23.03
10.906,6.76
10.921,-15.54
10.937,-42.97
10.953,-75.53
10.968,-109.87
10.984,-144.63
11.000,-179.73
11.015,-214.74
11.031,-248.78
11.046,-280.14
11.062,-307.22
11.078,-328.44
11.093,-343.07
11.109,-351.41
11.125,-355.19
11.140,-357.22
11.156,-361.04
11.171,-370.58
11.187,-389.75
11.203,-420.84
11.218,-463.32
11.234,-512.78
11.250,-561.42
11.265,-600.69
11.281,-623.55
11.296,-627.42
11.312,-614.71
11.328,-591.45
11.343,-563.8
11.359,-535.96
11.375,-509.12
11.390,-482.69
11.406,-456.23
11.421,-429.98
11.437,-405.16
11.453,-382.66
11.468,-362.32
11.484,-341.87
11.500,-318.19
11.515,-288.16
11.531,-250.13
11.546,-203.26
11.562,-148.35
11.578,-87.52
11.593,-23.31
11.609,41.76
11.625,105.93
11.640,167.7
11.656,225.42
11.671,277.11
11.687,321.23
11.703,356.48
11.718,381.89
11.734,397.49
11.750,404.42
11.765,404.66
11.781,400.49
11.796,393.74
11.812,385.44
11.828,377.31
11.843,369.95
11.859,362.29
11.875,352.33
11.890,338.38
11.906,320.03
11.921,297.98
11.937,273.71
11.953,249.03
11.968,230.16
11.984,221.9
12.000,224.96
12.015,236.13
12.031,251.08
12.046,266.45
12.062,280.26
12.078,291.29
12.093,298.57
12.109,310.47
12.125,332.62
12.140,363.39
12.156,394.38
12.171,416.85
12.187,426.48
12.203,423.8
12.218,412.18
12.234,396.01
12.250,394.59
12.265,421.8
12.281,478.36
12.296,552.09
12.312,628.43
12.328,698.27
12.343,759.03
12.359,812.28
12.375,861.04
12.390,928.31
12.406,1030.48
12.421,1167.47
12.437,1322.53
12.453,1476.08
12.468,1615.2
12.484,1735.0
12.500,1835.26
12.515,1791.25
12.531,1539.2
12.546,1106.23
12.562,596.7
12.578,114.69
12.593,-285.19
12.609,-594.83
12.625,-828.6
12.640,-1005.31
12.656,-1142.15
12.671,-1231.81
12.687,-1268.67
12.703,-1260.3
12.718,-1229.58
12.734,-1197.26
12.750,-1174.04
12.765,-1160.7
12.781,-1150.78
12.796,-1137.29
12.812,-1098.79
12.828,-1020.63
12.843,-893.98
12.859,-735.87
12.875,-571.0
12.890,-419.81
12.906,-294.34
12.921,-192.83
12.937,-110.38
12.953,-32.7
12.968,50.98
12.984,143.99
13.000,240.89
13.015,335.99
13.031,427.27
13.046,501.9
13.062,553.34
13.078,575.72
13.093,570.8
13.109,543.19
13.125,499.11
13.140,443.6
13.156,382.66
13.171,321.94
13.187,264.97
13.203,214.57
13.218,170.82
13.234,134.85
13.250,107.62
13.265,89.04
13.281,76.43
13.296,66.52
13.312,56.49
13.328,44.24
13.343,30.29
13.359,15.3
13.375,-0.07
13.390,-15.67
13.406,-32.23
13.421,-51.85
13.437,-76.81
13.453,-108.71
13.468,-148.22
13.484,-193.15
13.500,-240.14
13.515,-284.79
13.531,-322.47
13.546,-349.24
13.562,-362.66
13.578,-361.85
13.593,-347.25
13.609,-320.66
13.625,-284.16
13.640,-240.62
13.656,-193.2
13.671,-145.18
13.687,-99.56
13.703,-58.99
13.718,-25.33
13.734,0.56
13.750,18.68
13.765,30.18
13.781,36.76
13.796,40.17
13.812,41.99
13.828,43.28
13.843,44.59
13.859,45.92
13.875,47.18
13.890,48.01
13.906,48.26
13.921,47.89
13.937,46.87
13.953,45.38
13.968,43.48
13.984,41.22
14.000,38.54
14.015,35.35
14.031,31.63
14.046,27.56
14.062,23.31
14.078,19.08
14.093,15.01
14.109,10.93
14.125,6.37
14.140,0.68
14.156,-6.72
14.171,-16.17
14.187,-27.54
14.203,-40.32
14.218,-53.82
14.234,-67.45
14.250,-81.03
14.265,-94.85
14.281,-109.55
14.296,-125.78
14.312,-143.74
14.328,-163.13
14.343,-182.92
14.359,-201.91
14.375,-219.08
14.390,-234.1
14.406,-247.37
14.421,-259.99
14.437,-273.37
14.453,-288.83
14.468,-307.05
14.484,-327.52
14.500,-348.52
14.515,-367.18
14.531,-380.04
14.546,-384.33
14.562,-378.11
14.578,-360.66
14.593,-332.97
14.609,-297.95
14.625,-259.84
14.640,-223.0
14.656,-190.51
14.671,-163.44
14.687,-141.63
14.703,-124.14
14.718,-109.87
14.734,-98.28
14.750,-89.38
14.765,-83.17
14.781,-78.98
14.796,-75.17
14.812,-69.88
14.828,-63.53
14.843,-57.72
14.859,-54.06
14.875,-53.26
14.890,-54.94
14.906,-58.08
14.921,-61.32
14.937,-63.03
14.953,-62.08
14.968,-62.39
14.984,-67.9
15.000,-79.84
15.015,-96.07
15.031,-113.0
15.046,-127.45
15.062,-137.12
15.078,-140.04
15.093,-135.1
15.109,-131.52
15.125,-138.0
15.140,-157.3
15.156,-184.59
15.171,-211.89
15.187,-232.37
15.203,-241.57
15.218,-236.6
15.234,-216.97
15.250,-198.85
15.265,-196.29
15.281,-212.89
15.296,-240.3
15.312,-266.98
15.328,-286.4
15.343,-298.37
15.359,-305.49
15.375,-312.7
15.390,-344.33
15.406,-418.44
15.421,-537.01
15.437,-685.09
15.453,-843.27
15.468,-998.31
15.484,-1144.53
15.500,-1276.9
15.515,-1284.06
15.531,-1101.36
15.546,-743.77
15.562,-302.76
15.578,124.02
15.593,483.13
15.609,763.05
15.625,973.01
15.640,1126.61
15.656,1251.01
15.671,1340.87
15.687,1385.98
15.703,1386.13
15.718,1355.35
15.734,1312.11
15.750,1269.92
15.765,1214.14
15.781,1141.22
15.796,1056.41
15.812,955.91
15.828,839.86
15.843,715.35
15.859,596.57
15.875,497.69
15.890,426.64
15.906,376.59
15.921,348.25
15.937,341.63
15.953,344.56
15.968,345.79
15.984,340.37
16.000,330.49
16.015,319.77
16.031,307.37
16.046,300.33
16.062,299.95
16.078,303.22
16.093,300.27
16.109,282.39
16.125,246.02
16.140,193.78
16.156,131.58
16.171,65.92
16.187,2.78
16.203,-51.85
16.218,-94.08
16.234,-124.14
16.250,-143.58
16.265,-154.19
16.281,-157.08
16.296,-153.44
16.312,-144.65
16.328,-132.14
16.343,-117.07
16.359,-101.22
16.375,-86.63
16.390,-74.78
16.406,-66.93
16.421,-63.98
16.437,-66.63
16.453,-74.86
16.468,-88.04
16.484,-105.52
16.500,-126.94
16.515,-152.08
16.531,-180.89
16.546,-213.04
16.562,-248.04
16.578,-285.69
16.593,-325.77
16.609,-367.94
16.625,-411.92
16.640,-457.27
16.656,-501.97
16.671,-542.27
16.687,-573.46
16.703,-591.21
16.718,-593.46
16.734,-581.09
16.750,-557.25
16.765,-526.36
16.781,-494.59
16.796,-466.35
16.812,-443.04
16.828,-423.92
16.843,-407.23
16.859,-391.55
16.875,-376.22
16.890,-360.18
16.906,-341.58
16.921,-322.03
16.937,-302.22
16.953,-280.76
16.968,-254.66
16.984,-221.68
17.000,-181.86
17.015,-137.2
17.031,-90.28
17.046,-43.14
17.062,-3.54
17.078,22.68
17.093,34.01
17.109,33.21
17.125,23.82
17.140,6.62
17.156,-20.49
17.171,-60.64
17.187,-116.17
17.203,-195.8
17.218,-303.03
17.234,-432.32
17.250,-569.61
17.265,-697.16
17.281,-800.42
17.296,-870.28
17.312,-902.42
17.328,-843.77
17.343,-670.43
17.359,-400.13
17.375,-88.73
17.390,202.51
17.406,437.12
17.421,605.6
17.437,714.88
17.453,777.8
17.468,807.42
17.484,806.25
17.500,776.85
17.515,726.2
17.531,665.5
17.546,607.44
17.562,559.84
17.578,525.27
17.593,502.37
17.609,488.22
17.625,472.87
17.640,448.72
17.656,418.41
17.671,383.72
17.687,350.0
17.703,320.58
17.718,296.19
17.734,275.06
17.750,254.94
17.765,229.74
17.781,195.56
17.796,152.69
17.812,104.87
17.828,58.14
17.843,16.49
17.859,-17.65
17.875,-44.47
17.890,-64.79
17.906,-81.47
17.921,-96.32
17.937,-108.91
17.953,-116.92
17.968,-116.2
17.984,-109.32
18.000,-98.22
18.015,-86.5
18.031,-77.88
18.046,-76.52
18.062,-84.95
18.078,-103.19
18.093,-128.82
18.109,-157.06
18.125,-183.07
18.140,-201.52
18.156,-208.22
18.171,-199.11
18.187,-171.9
18.203,-125.76
18.218,-60.67
18.234,22.37
18.250,121.66
18.265,234.26
18.281,357.27
18.296,485.39
18.312,611.79
18.328,725.5
18.343,812.89
18.359,862.35
18.375,867.95
18.390,831.5
18.406,761.6
18.421,672.59
18.437,577.18
18.453,485.25
18.468,399.43
18.484,316.52
18.500,232.63
18.515,146.3
18.531,58.89
18.546,-26.96
18.562,-105.76
18.578,-186.08
18.593,-262.39
18.609,-321.36
18.625,-352.22
18.640,-352.84
18.656,-327.55
18.671,-283.18
18.687,-227.08
18.703,-161.42
18.718,-89.17
18.734,-13.82
18.750,57.77
18.765,117.99
18.781,161.79
18.796,188.4
18.812,200.8
18.828,182.08
18.843,131.57
18.859,57.38
18.875,-24.29
18.890,-99.96
18.906,-162.9
18.921,-211.73
18.937,-247.45
18.953,-271.87
18.968,-286.81
18.984,-290.19
19.000,-283.76
19.015,-269.52
19.031,-251.89
19.046,-235.94
19.062,-225.35
19.078,-221.15
19.093,-221.94
19.109,-228.84
19.125,-232.88
19.140,-229.5
19.156,-216.16
19.171,-194.14
19.187,-167.21
19.203,-139.77
19.218,-115.65
19.234,-97.8
19.250,-88.36
19.265,-81.1
19.281,-77.66
19.296,-77.16
19.312,-76.03
19.328,-69.3
19.343,-53.15
19.359,-27.46
19.375,3.48
19.390,32.67
19.406,54.68
19.421,65.27
19.437,65.41
19.453,58.87
19.468,49.73
19.484,40.25
19.500,30.27
19.515,18.44
19.531,3.99
19.546,-12.07
19.562,-29.03
19.578,-45.24
19.593,-59.94
19.609,-73.35
19.625,-86.03
19.640,-98.25
19.656,-110.43
19.671,-119.92
19.687,-123.97
19.703,-121.0
19.718,-110.35
19.734,-93.0
19.750,-71.38
19.765,-48.61
19.781,-27.72
19.796,-10.75
19.812,1.7
19.828,9.68
19.843,13.59
19.859,14.23
19.875,12.06
19.890,7.16
19.906,-0.08
19.921,-9.31
19.937,-19.9
19.953,-30.87
19.968,-41.41
19.984,-50.81
20.000,-58.53
20.015,-64.57
20.031,-69.45
20.046,-73.33
20.062,-76.49
20.078,-79.03
20.093,-80.88
20.109,-81.77
20.125,-81.25
20.140,-78.6
20.156,-72.64
20.171,-65.19
20.187,-56.63
20.203,-47.04
20.218,-36.36
20.234,-24.71
20.250,-12.27
20.265,0.43
20.281,12.55
20.296,22.94
20.312,30.39
20.328,34.26
20.343,33.93
20.359,29.08
20.375,19.72
20.390,6.3
20.406,-10.49
20.421,-29.64
20.437,-50.05
20.453,-70.55
20.468,-89.61
20.484,-106.17
20.500,-119.42
20.515,-128.99
20.531,-134.78
20.546,-137.02
20.562,-136.18
20.578,-132.93
20.593,-127.99
20.609,-121.78
20.625,-114.83
20.640,-107.51
20.656,-100.17
20.671,-92.93
20.687,-85.89
20.703,-79.14
20.718,-72.67
20.734,-66.59
20.750,-60.87
20.765,-55.71
20.781,-51.21
20.796,-47.53
20.812,-44.71
20.828,-42.72
20.843,-41.44
20.859,-40.64
20.875,-40.07
20.890,-39.43
20.906,-38.59
20.921,-37.37
20.937,-35.71
20.953,-33.66
20.968,-31.27
20.984,-28.66
21.000,-25.91
21.015,-23.11
21.031,-20.39
21.046,-17.85
21.062,-15.63
21.078,-13.75
21.093,-12.16
21.109,-10.64
21.125,-8.89
21.140,-6.55
21.156,-3.35
21.171,0.87
21.187,6.03
21.203,11.85
21.218,17.89
21.234,23.99
21.250,30.17
21.265,36.71
21.281,44.03
21.296,52.54
21.312,62.31
21.328,73.01
21.343,83.99
21.359,94.54
21.375,104.16
21.390,112.9
21.406,121.34
21.421,130.37
21.437,140.83
21.453,153.11
21.468,166.97
21.484,181.7
21.500,196.4
21.515,210.55
21.531,224.13
21.546,237.74
21.562,252.32
21.578,268.78
21.593,287.92
21.609,309.96
21.625,334.33
21.640,359.22
21.656,381.59
21.671,397.6
21.687,403.57
21.703,397.28
21.718,378.75
21.734,350.57
21.750,316.97
21.765,282.69
21.781,251.3
21.796,224.65
21.812,202.71
21.828,184.37
21.843,168.17
21.859,153.24
21.875,139.37
21.890,126.82
21.906,115.87
21.921,106.42
21.937,97.85
21.953,89.31
21.968,80.18
21.984,70.48
22.000,60.96
22.015,52.67
22.031,46.36
22.046,41.76
22.062,37.74
22.078,32.6
22.093,25.2
22.109,15.52
22.125,4.91
22.140,-4.54
22.156,-11.01
22.171,-13.93
22.187,-14.35
22.203,-14.36
22.218,-16.04
22.234,-20.34
22.250,-26.65
22.265,-33.17
22.281,-37.94
22.296,-39.82
22.312,-39.14
22.328,-37.45
22.343,-36.44
22.359,-37.0
22.375,-38.86
22.390,-40.71
22.406,-41.0
22.421,-39.0
22.437,-35.06
22.453,-30.59
22.468,-27.05
22.484,-25.34
22.500,-25.18
22.515,-25.5
22.531,-25.09
22.546,-23.3
22.562,-20.5
22.578,-17.91
22.593,-16.8
22.609,-17.66
22.625,-19.99
22.640,-22.39
22.656,-23.45
22.671,-22.58
22.687,-20.37
22.703,-18.28
22.718,-17.81
22.734,-19.66
22.750,-23.24
22.765,-27.02
22.781,-29.44
22.796,-29.53
22.812,-27.56
22.828,-24.78
22.843,-22.56
22.859,-21.54
22.875,-21.17
22.890,-20.2
22.906,-17.24
22.921,-11.88
22.937,-4.7
22.953,2.76
22.968,8.98
22.984,13.13
23.000,15.66
23.015,17.92
23.031,21.34
23.046,26.58
23.062,33.19
23.078,40.04
23.093,45.77
23.109,49.83
23.125,52.61
23.140,55.42
23.156,59.74
23.171,66.25
23.187,74.48
23.203,83.2
23.218,91.75
23.234,99.72
23.250,107.36
23.265,115.09
23.281,123.2
23.296,131.58
23.312,139.53
23.328,146.14
23.343,150.81
23.359,155.01
23.375,160.29
23.390,167.73
23.406,177.42
23.421,188.53
23.437,199.96
23.453,210.7
23.468,220.47
23.484,229.6
23.500,241.14
23.515,256.98
23.531,276.79
23.546,297.9
23.562,316.52
23.578,329.5
23.593,335.19
23.609,333.82
23.625,326.49
23.640,317.03
23.656,306.81
23.671,293.65
23.687,272.42
23.703,237.56
23.718,185.72
23.734,117.28
23.750,36.48
23.765,-66.76
23.781,-189.33
23.796,-317.81
23.812,-433.05
23.828,-519.11
23.843,-569.88
23.859,-588.61
23.875,-583.26
23.890,-562.33
23.906,-532.73
23.921,-497.02
23.937,-457.87
23.953,-418.67
23.968,-383.16
23.984,-353.98
24.000,-331.52
24.015,-314.21
24.031,-299.64
24.046,-285.64
24.062,-269.14
24.078,-249.32
24.093,-227.52
24.109,-206.5
24.125,-188.73
24.140,-174.97
24.156,-164.36
24.171,-155.18
24.187,-145.42
24.203,-132.36
24.218,-115.02
24.234,-93.74
24.250,-69.87
24.265,-44.74
24.281,-18.81
24.296,7.9
24.312,34.97
24.328,61.62
24.343,87.65
24.359,109.78
24.375,124.15
24.390,127.36
24.406,117.68
24.421,95.71
24.437,64.09
24.453,26.27
24.468,-13.23
24.484,-49.89
24.500,-81.37
24.515,-105.6
24.531,-122.01
24.546,-130.96
24.562,-133.53
24.578,-131.73
24.593,-127.56
24.609,-120.94
24.625,-109.62
24.640,-92.42
24.656,-69.32
24.671,-44.1
24.687,-23.59
24.703,-15.47
24.718,-25.9
24.734,-56.81
24.750,-103.24
24.765,-155.31
24.781,-203.03
24.796,-238.41
24.812,-257.22
24.828,-258.12
24.843,-240.95
24.859,-199.44
24.875,-136.25
24.890,-57.56
24.906,29.77
24.921,117.63
24.937,199.0
24.953,268.71
24.968,324.12
24.984,372.04
25.000,414.09
25.015,450.68
25.031,483.16
25.046,514.11
25.062,543.83
25.078,570.29
25.093,589.38
25.109,595.01
25.125,582.06
25.140,546.19
25.156,486.99
25.171,400.16
25.187,294.29
25.203,182.58
25.218,78.63
25.234,-7.04
25.250,-68.68
25.265,-104.84
25.281,-117.97
25.296,-112.04
25.312,-90.94
25.328,-57.52
25.343,-16.55
25.359,25.94
25.375,63.89
25.390,92.8
25.406,110.78
25.421,117.76
25.437,115.4
25.453,106.43
25.468,94.48
25.484,81.52
25.500,68.38
25.515,55.05
25.531,41.52
25.546,28.17
25.562,15.45
25.578,3.81
25.593,-6.3
25.609,-14.2
25.625,-20.33
25.640,-25.32
25.656,-29.97
25.671,-34.75
25.687,-39.76
25.703,-45.1
25.718,-50.85
25.734,-57.14
25.750,-63.93
25.765,-71.46
25.781,-79.86
25.796,-89.07
25.812,-98.77
25.828,-108.57
25.843,-118.36
25.859,-128.36
25.875,-139.05
25.890,-150.85
25.906,-164.06
25.921,-178.56
25.937,-194.01
25.953,-209.89
25.968,-225.73
25.984,-241.38
26.000,-256.92
26.015,-272.48
26.031,-288.29
26.046,-304.75
26.062,-322.56
26.078,-342.42
26.093,-364.36
26.109,-386.82
26.125,-406.39
26.140,-418.52
26.156,-419.11
26.171,-406.42
26.187,-381.89
26.203,-349.61
26.218,-314.51
26.234,-280.26
26.250,-248.33
26.265,-218.44
26.281,-189.92
26.296,-163.04
26.312,-139.04
26.328,-119.28
26.343,-104.11
26.359,-92.26
26.375,-81.45
26.390,-69.73
26.406,-56.74
26.421,-43.74
26.437,-32.85
26.453,-25.66
26.468,-22.25
26.484,-21.15
26.500,-20.13
26.515,-17.47
26.531,-12.7
26.546,-6.69
26.562,-0.9
26.578,3.59
26.593,6.73
26.609,9.45
26.625,13.14
26.640,18.77
26.656,26.25
26.671,34.41
26.687,41.62
26.703,46.66
26.718,49.29
26.734,50.47
26.750,51.69
26.765,54.12
26.781,57.81
26.796,61.64
26.812,64.09
26.828,64.26
26.843,62.56
26.859,60.63
26.875,60.5
26.890,63.45
26.906,69.11
26.921,75.67
26.937,80.66
26.953,82.42
26.968,80.84
26.984,77.21
27.000,73.4
27.015,70.54
27.031,68.44
27.046,65.72
27.062,60.8
27.078,52.92
27.093,42.88
27.109,32.63
27.125,24.28
27.140,19.02
27.156,16.33
27.171,14.53
27.187,11.67
27.203,6.8
27.218,0.26
27.234,-6.37
27.250,-11.28
27.265,-13.51
27.281,-13.43
27.296,-12.55
27.312,-12.53
27.328,-14.32
27.343,-17.48
27.359,-20.5
27.375,-21.72
27.390,-20.19
27.406,-16.34
27.421,-11.77
27.437,-8.18
27.453,-6.49
27.468,-6.22
27.484,-5.79
27.500,-3.55
27.515,1.1
27.531,7.19
27.546,12.62
27.562,15.28
27.578,14.3
27.593,10.53
27.609,6.2
27.625,3.6
27.640,4.0
27.656,6.96
27.671,10.68
27.687,13.23
27.703,13.59
27.718,12.26
27.734,10.76
27.750,10.76
27.765,12.84
27.781,16.1
27.796,18.8
27.812,19.37
27.828,17.39
27.843,14.0
27.859,11.26
27.875,11.03
27.890,13.91
27.906,18.96
27.921,24.19
27.937,27.72
27.953,28.76
27.968,27.99
27.984,27.02
28.000,27.52
28.015,30.17
28.031,34.24
28.046,38.16
28.062,40.3
28.078,39.98
28.093,37.8
28.109,35.37
28.125,34.42
28.140,35.84
28.156,39.33
28.171,43.36
28.187,46.3
28.203,47.07
28.218,45.81
28.234,43.81
28.250,42.8
28.265,44.14
28.281,47.78
28.296,52.33
28.312,55.56
28.328,55.56
28.343,51.86
28.359,45.57
28.375,38.89
28.390,33.46
28.406,29.33
28.421,24.71
28.437,17.15
28.453,5.6
28.468,-8.22
28.484,-20.29
28.500,-26.42
28.515,-24.66
28.531,-16.41
28.546,-5.61
28.562,3.69
28.578,9.45
28.593,12.6
28.609,16.07
28.625,22.36
28.640,31.65
28.656,41.68
28.671,49.3
28.687,52.77
28.703,53.08
28.718,52.86
28.734,55.24
28.750,62.08
28.765,72.7
28.781,84.24
28.796,93.31
28.812,97.94
28.828,98.58
28.843,97.59
28.859,95.69
28.875,92.82
28.890,88.55
28.906,82.35
28.921,73.68
28.937,61.87
28.953,46.65
28.968,28.59
28.984,9.65
29.000,-11.0
29.015,-33.08
29.031,-54.83
29.046,-74.11
29.062,-90.27
29.078,-104.77
29.093,-119.02
29.109,-132.55
29.125,-142.53
29.140,-151.94
29.156,-164.11
29.171,-181.26
29.187,-203.08
29.203,-227.75
29.218,-253.73
29.234,-280.51
29.250,-309.06
29.265,-341.07
29.281,-386.24
29.296,-449.57
29.312,-526.61
29.328,-604.66
29.343,-669.89
29.359,-716.44
29.375,-748.67
29.390,-777.26
29.406,-762.09
29.421,-680.07
29.437,-532.79
29.453,-346.87
29.468,-154.31
29.484,23.7
29.500,175.59
29.515,296.27
29.531,386.25
29.546,453.62
29.562,499.43
29.578,523.77
29.593,529.65
29.609,519.37
29.625,495.64
29.640,459.46
29.656,411.96
29.671,356.19
29.687,301.08
29.703,247.86
29.718,195.68
29.734,143.73
29.750,93.35
29.765,55.31
29.781,39.13
29.796,48.94
29.812,78.35
29.828,130.8
29.843,205.0
29.859,296.9
29.875,396.77
29.890,492.99
29.906,575.66
29.921,635.67
29.937,666.37
29.953,643.65
29.968,561.82
29.984,434.63
30.000,289.72
30.015,151.5
30.031,33.66
30.046,-59.46
30.062,-129.88
30.078,-182.04
30.093,-219.68
30.109,-241.87
30.125,-248.77
30.140,-243.37
30.156,-232.4
30.171,-222.21
30.187,-216.64
30.203,-217.37
30.218,-224.61
30.234,-236.52
30.250,-248.12
30.265,-258.11
30.281,-260.65
30.296,-252.8
30.312,-231.95
30.328,-195.79
30.343,-144.34
30.359,-81.59
30.375,-11.77
30.390,53.38
30.406,105.0
30.421,138.89
30.437,154.09
30.453,153.33
30.468,140.86
30.484,120.46
30.500,94.39
30.515,64.47
30.531,32.73
30.546,2.51
30.562,-23.43
30.578,-45.17
30.593,-64.16
30.609,-82.53
30.625,-101.73
30.640,-122.21
30.656,-142.46
30.671,-161.63
30.687,-175.49
30.703,-180.63
30.718,-176.25
30.734,-163.14
30.750,-143.61
30.765,-120.36
30.781,-96.17
30.796,-73.16
30.812,-53.12
30.828,-36.25
30.843,-22.59
30.859,-12.48
30.875,-6.27
30.890,-4.36
30.906,-6.57
30.921,-12.48
30.937,-21.23
30.953,-31.91
30.968,-43.2
30.984,-54.17
31.000,-64.49
31.015,-74.23
31.031,-83.69
31.046,-92.91
31.062,-101.94
31.078,-110.61
31.093,-118.61
31.109,-125.28
31.125,-129.92
31.140,-131.77
31.156,-129.69
31.171,-125.99
31.187,-121.46
31.203,-116.52
31.218,-111.38
31.234,-106.12
31.250,-100.74
31.265,-95.33
31.281,-89.97
31.296,-84.7
31.312,-79.82
31.328,-74.98
31.343,-70.01
31.359,-64.74
31.375,-59.16
31.390,-53.38
31.406,-47.51
31.421,-41.81
31.437,-36.56
31.453,-32.15
31.468,-28.26
31.484,-24.65
31.500,-20.94
31.515,-16.85
31.531,-12.2
31.546,-6.88
31.562,-1.08
31.578,4.96
31.593,10.9
31.609,16.94
31.625,23.29
31.640,30.17
31.656,37.78
31.671,46.25
31.687,55.35
31.703,64.78
31.718,74.24
31.734,83.5
31.750,92.86
31.765,102.64
31.781,113.28
31.796,125.11
31.812,138.09
31.828,151.83
31.843,165.82
31.859,179.61
31.875,193.04
31.890,206.22
31.906,219.32
31.921,232.51
31.937,245.99
31.953,260.06
31.968,275.33
31.984,292.55
32.000,311.8
32.015,331.76
32.031,349.3
32.046,360.28
32.062,360.95
32.078,349.55
32.093,327.24
32.109,297.47
32.125,264.54
32.140,231.77
32.156,200.8
32.171,171.88
32.187,145.15
32.203,121.4
32.218,102.01
32.234,88.01
32.250,78.89
32.265,72.41
32.281,65.51
32.296,55.84
32.312,43.11
32.328,28.93
32.343,16.21
32.359,7.14
32.375,2.2
32.390,0.12
32.406,-1.24
32.421,-3.4
32.437,-6.44
32.453,-8.83
32.468,-8.75
32.484,-4.89
32.500,2.24
32.515,10.62
32.531,17.76
32.546,21.85
32.562,22.72
32.578,21.57
32.593,20.17
32.609,19.43
32.625,18.84
32.640,16.75
32.656,11.55
32.671,2.74
32.687,-8.52
32.703,-19.81
32.718,-28.69
32.734,-33.87
32.750,-35.89
32.765,-36.64
32.781,-38.26
32.796,-41.94
32.812,-47.19
32.828,-52.34
32.843,-55.37
32.859,-55.21
32.875,-52.39
32.890,-48.85
32.906,-46.71
32.921,-47.3
32.937,-50.37
32.953,-54.11
32.968,-56.46
32.984,-56.01
33.000,-52.95
33.015,-48.87
33.031,-45.75
33.046,-44.69
33.062,-45.43
33.078,-46.34
33.093,-45.65
33.109,-42.57
33.125,-37.81
33.140,-33.31
33.156,-30.91
33.171,-31.36
33.187,-33.64
33.203,-35.67
33.218,-35.38
33.234,-32.07
33.250,-26.8
33.265,-21.67
33.281,-18.5
33.296,-17.7
33.312,-18.13
33.328,-17.78
33.343,-15.13
33.359,-9.88
33.375,-3.09
33.390,3.43
33.406,8.38
33.421,11.48
33.437,13.47
33.453,15.49
33.468,18.39
33.484,22.32
33.500,26.55
33.515,30.05
33.531,31.83
33.546,31.61
33.562,29.67
33.578,27.0
33.593,24.62
33.609,23.18
33.625,22.49
33.640,21.43
33.656,18.7
33.671,13.56
33.687,6.57
33.703,-0.69
33.718,-6.18
33.734,-8.7
33.750,-8.42
33.765,-6.97
33.781,-6.43
33.796,-8.15
33.812,-12.1
33.828,-16.93
33.843,-20.93
33.859,-22.99
33.875,-23.21
33.890,-22.55
33.906,-22.1
33.921,-22.44
33.937,-23.06
33.953,-23.08
33.968,-21.67
33.984,-18.82
34.000,-15.38
34.015,-12.61
34.031,-11.38
34.046,-11.65
34.062,-12.5
34.078,-12.48
34.093,-10.73
34.109,-7.32
34.125,-3.67
34.140,-1.62
34.156,-2.58
34.171,-6.52
34.187,-11.83
34.203,-16.07
34.218,-17.22
34.234,-14.93
34.250,-10.54
34.265,-6.64
34.281,-5.61
34.296,-8.34
34.312,-13.82
34.328,-19.65
34.343,-23.36
34.359,-23.62
34.375,-20.86
34.390,-16.9
34.406,-13.82
34.421,-13.03
34.437,-14.44
34.453,-16.89
34.468,-18.8
34.484,-19.33
34.500,-18.69
34.515,-18.06
34.531,-18.83
34.546,-21.62
34.562,-25.84
34.578,-29.86
34.593,-32.11
34.609,-31.64
34.625,-28.87
34.640,-25.12
34.656,-21.85
34.671,-19.75
34.687,-18.39
34.703,-16.39
34.718,-12.51
34.734,-6.59
34.750,0.29
34.765,6.23
34.781,9.68
34.796,10.34
34.812,9.3
34.828,8.42
34.843,9.29
34.859,12.03
34.875,15.43
34.890,17.52
34.906,16.77
34.921,12.87
34.937,6.92
34.953,0.68
34.968,-4.18
34.984,-7.06
35.000,-8.46
35.015,-9.42
35.031,-10.68
35.046,-12.37
35.062,-13.78
35.078,-13.87
35.093,-12.06
35.109,-8.69
35.125,-5.01
35.140,-2.63
35.156,-2.54
35.171,-4.55
35.187,-7.43
35.203,-9.42
35.218,-9.3
35.234,-7.15
35.250,-4.12
35.265,-1.62
35.281,-0.36
35.296,0.37
35.312,2.18
35.328,6.73
35.343,14.58
35.359,24.74
35.375,34.92
35.390,42.87
35.406,47.53
35.421,49.61
35.437,51.31
35.453,54.79
35.468,61.23
35.484,69.8
35.500,78.28
35.515,84.19
35.531,86.28
35.546,85.07
35.562,82.31
35.578,79.62
35.593,77.33
35.609,74.18
35.625,68.19
35.640,58.15
35.656,44.53
35.671,29.63
35.687,16.37
35.703,6.92
35.718,1.71
35.734,-0.62
35.750,-2.42
35.765,-5.7
35.781,-11.3
35.796,-18.43
35.812,-25.32
35.828,-30.22
35.843,-32.38
35.859,-32.52
35.875,-32.45
35.890,-34.15
35.906,-38.62
35.921,-45.37
35.937,-52.45
35.953,-57.53
35.968,-59.05
35.984,-57.03
36.000,-53.0
36.015,-49.05
36.031,-46.69
36.046,-46.17
36.062,-46.38
36.078,-45.64
36.093,-42.9
36.109,-38.35
36.125,-33.67
36.140,-30.92
36.156,-31.29
36.171,-34.18
36.187,-37.36
36.203,-38.42
36.218,-36.04
36.234,-30.96
36.250,-25.25
36.265,-21.29
36.281,-20.13
36.296,-21.15
36.312,-22.63
36.328,-23.03
36.343,-21.84
36.359,-19.56
36.375,-17.2
36.390,-15.05
36.406,-12.8
36.421,-9.48
36.437,-4.05
36.453,4.05
36.468,14.22
36.484,25.0
36.500,34.82
36.515,42.88
36.531,50.06
36.546,57.73
36.562,67.48
36.578,80.6
36.593,97.18
36.609,115.36
36.625,132.13
36.640,144.98
36.656,153.48
36.671,160.13
36.687,167.17
36.703,175.75
36.718,185.77
36.734,195.75
36.750,202.76
36.765,204.04
36.781,198.18
36.796,185.63
36.812,169.0
36.828,147.71
36.843,118.5
36.859,77.77
36.875,23.24
36.890,-45.7
36.906,-126.74
36.921,-215.24
36.937,-305.13
36.953,-388.8
36.968,-463.26
36.984,-528.52
37.000,-584.45
37.015,-617.84
37.031,-614.52
37.046,-566.59
37.062,-479.7
37.078,-384.01
37.093,-291.99
37.109,-207.61
37.125,-130.83
37.140,-57.78
37.156,11.94
37.171,75.72
37.187,129.74
37.203,170.63
37.218,197.53
37.234,214.7
37.250,225.51
37.265,232.6
37.281,238.0
37.296,242.1
37.312,243.28
37.328,238.76
37.343,225.79
37.359,203.82
37.375,176.82
37.390,149.01
37.406,125.02
37.421,109.63
37.437,105.98
37.453,114.18
37.468,131.28
37.484,151.63
37.500,169.28
37.515,180.55
37.531,182.5
37.546,174.62
37.562,159.83
37.578,144.13
37.593,134.94
37.609,138.67
37.625,158.36
37.640,192.5
37.656,235.49
37.671,278.32
37.687,311.71
37.703,328.59
37.718,325.08
37.734,300.43
37.750,256.98
37.765,199.95
37.781,137.73
37.796,80.2
37.812,35.54
37.828,7.47
37.843,-6.48
37.859,-13.63
37.875,-22.77
37.890,-39.96
37.906,-66.53
37.921,-99.43
37.937,-134.12
37.953,-166.98
37.968,-196.44
37.984,-222.44
38.000,-244.98
38.015,-263.43
38.031,-276.69
38.046,-284.31
38.062,-287.53
38.078,-289.32
38.093,-293.3
38.109,-302.94
38.125,-320.22
38.140,-344.86
38.156,-374.03
38.171,-401.74
38.187,-420.05
38.203,-421.3
38.218,-401.0
38.234,-360.69
38.250,-308.22
38.265,-255.39
38.281,-213.16
38.296,-187.15
38.312,-175.78
38.328,-172.12
38.343,-168.33
38.359,-159.39
38.375,-144.65
38.390,-126.23
38.406,-105.91
38.421,-83.25
38.437,-56.57
38.453,-25.44
38.468,7.47
38.484,36.98
38.500,58.21
38.515,68.78
38.531,69.59
38.546,63.28
38.562,51.97
38.578,36.1
38.593,15.27
38.609,-9.9
38.625,-36.63
38.640,-59.93
38.656,-74.93
38.671,-79.16
38.687,-73.54
38.703,-62.11
38.718,-49.88
38.734,-41.2
38.750,-38.53
38.765,-42.5
38.781,-52.29
38.796,-66.13
38.812,-81.61
38.828,-95.64
38.843,-104.92
38.859,-106.37
38.875,-97.65
38.890,-77.85
38.906,-47.96
38.921,-10.97
38.937,28.76
38.953,66.83
38.968,100.25
38.984,128.01
39.000,151.01
39.015,171.38
39.031,191.45
39.046,212.79
39.062,235.2
39.078,256.46
39.093,272.44
39.109,278.82
39.125,272.91
39.140,254.79
39.156,227.69
39.171,197.03
39.187,168.76
39.203,147.58
39.218,136.0
39.234,133.29
39.250,135.92
39.265,139.01
39.281,138.36
39.296,132.17
39.312,121.44
39.328,108.72
39.343,96.02
39.359,82.97
39.375,66.96
39.390,44.76
39.406,15.78
39.421,-16.2
39.437,-44.25
39.453,-61.44
39.468,-64.72
39.484,-56.25
39.500,-41.82
39.515,-27.22
39.531,-15.6
39.546,-6.69
39.562,1.25
39.578,9.44
39.593,17.61
39.609,24.61
39.625,30.26
39.640,35.93
39.656,43.61
39.671,53.94
39.687,64.75
39.703,71.76
39.718,71.15
39.734,62.28
39.750,48.34
39.765,34.74
39.781,26.31
39.796,25.09
39.812,29.95
39.828,37.67
39.843,44.87
39.859,49.04
39.875,48.9
39.890,43.76
39.906,33.44
39.921,18.31
39.937,-0.49
39.953,-20.93
39.968,-40.78
39.984,-57.27
40.000,-67.22
40.015,-67.6
40.031,-56.91
40.046,-36.25
40.062,-9.67
40.078,17.31
40.093,39.93
40.109,54.9
40.125,62.14
40.140,63.82
40.156,62.22
40.171,58.37
40.187,52.02
40.203,43.34
40.218,34.3
40.234,28.13
40.250,24.95
40.265,23.04
40.281,20.06
40.296,15.21
40.312,10.21
40.328,8.66
40.343,14.59
40.359,31.6
40.375,61.44
40.390,98.75
40.406,135.72
40.421,164.09
40.437,177.02
40.453,169.41
40.468,137.8
40.484,81.48
40.500,4.3
40.515,-85.83
40.531,-185.94
40.546,-294.17
40.562,-408.79
40.578,-526.29
40.593,-641.45
40.609,-748.7
40.625,-843.33
40.640,-921.27
40.656,-947.32
40.671,-897.45
40.687,-768.88
40.703,-586.29
40.718,-387.42
40.734,-203.21
40.750,-49.11
40.765,71.53
40.781,159.09
40.796,224.41
40.812,268.57
40.828,289.76
40.843,287.81
40.859,267.07
40.875,234.74
40.890,197.93
40.906,159.74
40.921,123.34
40.937,91.48
40.953,60.89
40.968,28.3
40.984,-7.36
41.000,-43.89
41.015,-77.74
41.031,-106.6
41.046,-130.81
41.062,-152.0
41.078,-171.1
41.093,-189.8
41.109,-205.74
41.125,-211.81
41.140,-198.9
41.156,-160.48
41.171,-97.03
41.187,-16.73
41.203,67.71
41.218,143.83
41.234,202.01
41.250,239.16
41.265,258.34
41.281,266.59
41.296,271.92
41.312,280.41
41.328,294.29
41.343,311.79
41.359,327.67
41.375,334.61
41.390,327.57
41.406,307.1
41.421,280.5
41.437,259.34
41.453,254.58
41.468,271.79
41.484,309.21
41.500,358.78
41.515,408.83
41.531,447.58
41.546,465.49
41.562,456.25
41.578,417.4
41.593,351.06
41.609,264.07
41.625,166.88
41.640,70.75
41.656,-15.7
41.671,-89.0
41.687,-150.79
41.703,-205.54
41.718,-257.86
41.734,-310.35
41.750,-362.67
41.765,-412.31
41.781,-456.22
41.796,-492.04
41.812,-518.54
41.828,-535.32
41.843,-541.29
41.859,-534.04
41.875,-510.57
41.890,-468.89
41.906,-409.87
41.921,-338.06
41.937,-260.34
41.953,-183.72
41.968,-112.89
41.984,-49.35
42.000,7.77
42.015,59.73
42.031,106.68
42.046,147.99
42.062,183.53
42.078,215.26
42.093,246.18
42.109,278.5
42.125,312.47
42.140,346.21
42.156,377.08
42.171,402.67
42.187,421.3
42.203,431.61
42.218,432.85
42.234,425.67
42.250,413.61
42.265,403.58
42.281,404.21
42.296,421.52
42.312,454.61
42.328,494.16
42.343,524.84
42.359,531.69
42.375,506.1
42.390,449.17
42.406,370.24
42.421,281.94
42.437,194.92
42.453,115.01
42.468,43.54
42.484,-20.51
42.500,-78.08
42.515,-129.31
42.531,-173.91
42.546,-212.28
42.562,-246.69
42.578,-280.65
42.593,-317.36
42.609,-358.0
42.625,-400.94
42.640,-442.37
42.656,-477.59
42.671,-502.89
42.687,-516.71
42.703,-520.27
42.718,-517.49
42.734,-513.11
42.750,-510.5
42.765,-509.99
42.781,-507.69
42.796,-496.66
42.812,-470.45
42.828,-426.13
42.843,-367.08
42.859,-303.5
42.875,-249.25
42.890,-217.64
42.906,-217.33
42.921,-249.64
42.937,-308.81
42.953,-383.64
42.968,-459.59
42.984,-521.5
43.000,-555.84
43.015,-552.65
43.031,-508.03
43.046,-425.42
43.062,-314.9
43.078,-190.92
43.093,-68.9
43.109,38.42
43.125,122.59
43.140,180.07
43.156,211.68
43.171,220.85
43.187,212.43
43.203,192.48
43.218,167.16
43.234,142.07
43.250,121.32
43.265,106.83
43.281,98.49
43.296,94.87
43.312,93.74
43.328,92.44
43.343,89.29
43.359,83.17
43.375,73.71
43.390,61.0
43.406,45.1
43.421,26.62
43.437,6.62
43.453,-13.12
43.468,-30.41
43.484,-42.42
43.500,-46.8
43.515,-41.75
43.531,-26.64
43.546,-2.24
43.562,29.78
43.578,66.75
43.593,106.08
43.609,145.02
43.625,181.22
43.640,212.3
43.656,236.44
43.671,252.56
43.687,259.9
43.703,258.68
43.718,249.7
43.734,236.89
43.750,224.22
43.765,215.23
43.781,212.31
43.796,217.1
43.812,230.87
43.828,253.73
43.843,284.56
43.859,321.02
43.875,364.54
43.890,414.96
43.906,470.42
43.921,527.14
43.937,581.33
43.953,630.64
43.968,674.0
43.984,710.74
44.000,739.84
44.015,767.27
44.031,796.13
44.046,825.43
44.062,850.11
44.078,864.55
44.093,866.05
44.109,855.59
44.125,836.47
44.140,811.66
44.156,790.95
44.171,777.56
44.187,767.09
44.203,749.49
44.218,716.15
44.234,665.57
44.250,603.43
44.265,539.0
44.281,426.38
44.296,247.49
44.312,15.08
44.328,-229.93
44.343,-444.78
44.359,-605.53
44.375,-708.32
44.390,-761.79
44.406,-779.19
44.421,-773.76
44.437,-745.64
44.453,-698.34
44.468,-636.72
44.484,-568.94
44.500,-503.87
44.515,-447.04
44.531,-401.02
44.546,-366.01
44.562,-341.14
44.578,-318.01
44.593,-293.15
44.609,-265.64
44.625,-238.65
44.640,-217.12
44.656,-204.28
44.671,-201.23
44.687,-207.06
44.703,-219.64
44.718,-231.94
44.734,-238.87
44.750,-238.11
44.765,-231.51
44.781,-223.3
44.796,-217.42
44.812,-216.6
44.828,-222.0
44.843,-233.81
44.859,-249.43
44.875,-266.86
44.890,-285.01
44.906,-304.78
44.921,-328.36
44.937,-357.51
44.953,-393.22
44.968,-435.53
44.984,-483.54
45.000,-534.1
45.015,-581.82
45.031,-618.32
45.046,-634.02
45.062,-620.89
45.078,-575.12
45.093,-499.0
45.109,-401.13
45.125,-293.07
45.140,-186.58
45.156,-90.64
45.171,-9.33
45.187,56.35
45.203,106.14
45.218,139.1
45.234,154.0
45.250,149.99
45.265,129.68
45.281,97.86
45.296,60.13
45.312,23.24
45.328,-7.4
45.343,-29.14
45.359,-42.24
45.375,-48.28
45.390,-49.37
45.406,-44.27
45.421,-30.69
45.437,-6.57
45.453,30.8
45.468,82.52
45.484,146.67
45.500,218.1
45.515,289.98
45.531,354.81
45.546,409.16
45.562,451.43
45.578,467.8
45.593,447.65
45.609,389.62
45.625,304.29
45.640,207.92
45.656,122.72
45.671,50.0
45.687,-12.35
45.703,-66.34
45.718,-113.64
45.734,-154.48
45.750,-187.73
45.765,-213.64
45.781,-234.45
45.796,-253.41
45.812,-274.49
45.828,-298.08
45.843,-323.03
45.859,-347.92
45.875,-369.57
45.890,-384.97
45.906,-392.53
45.921,-392.6
45.937,-386.73
45.953,-377.45
45.968,-365.17
45.984,-349.82
46.000,-331.45
46.015,-309.47
46.031,-283.65
46.046,-254.54
46.062,-223.84
46.078,-193.85
46.093,-167.09
46.109,-144.41
46.125,-125.93
46.140,-111.34
46.156,-99.6
46.171,-89.45
46.187,-79.88
46.203,-70.25
46.218,-60.28
46.234,-50.08
46.250,-39.29
46.265,-27.69
46.281,-15.47
46.296,-2.89
46.312,9.61
46.328,21.51
46.343,32.33
46.359,41.69
46.375,49.32
46.390,55.21
46.406,59.54
46.421,62.25
46.437,63.45
46.453,63.28
46.468,62.36
46.484,61.68
46.500,62.34
46.515,65.39
46.531,71.26
46.546,79.62
46.562,89.34
46.578,99.04
46.593,107.57
46.609,114.55
46.625,120.65
46.640,127.29
46.656,135.87
46.671,147.22
46.687,160.96
46.703,175.76
46.718,189.84
46.734,201.68
46.750,210.82
46.765,217.99
46.781,224.96
46.796,233.45
46.812,244.72
46.828,258.7
46.843,273.73
46.859,286.88
46.875,294.13
46.890,291.69
46.906,276.87
46.921,249.36
46.937,211.6
46.953,168.83
46.968,127.88
46.984,95.57
47.000,77.04
47.015,73.86
47.031,84.09
47.046,103.16
47.062,126.22
47.078,150.17
47.093,174.97
47.109,202.4
47.125,234.27
47.140,270.62
47.156,308.67
47.171,343.97
47.187,372.22
47.203,391.24
47.218,401.41
47.234,404.91
47.250,404.18
47.265,400.55
47.281,394.47
47.296,385.48
47.312,373.31
47.328,358.55
47.343,342.51
47.359,327.29
47.375,314.56
47.390,304.6
47.406,295.07
47.421,281.08
47.437,256.34
47.453,215.86
47.468,158.74
47.484,89.09
47.500,15.49
47.515,-52.34
47.531,-106.88
47.546,-145.4
47.562,-170.02
47.578,-185.71
47.593,-197.14
47.609,-206.35
47.625,-212.7
47.640,-213.58
47.656,-206.97
47.671,-192.73
47.687,-172.83
47.703,-150.4
47.718,-128.02
47.734,-106.82
47.750,-86.45
47.765,-66.25
47.781,-45.91
47.796,-26.17
47.812,-8.59
47.828,5.36
47.843,14.86
47.859,19.99
47.875,21.32
47.890,19.28
47.906,13.45
47.921,2.96
47.937,-13.14
47.953,-34.84
47.968,-60.4
47.984,-86.49
48.000,-108.97
48.015,-124.34
48.031,-131.38
48.046,-131.34
48.062,-127.13
48.078,-122.05
48.093,-118.54
48.109,-117.19
48.125,-117.24
48.140,-116.71
48.156,-113.31
48.171,-105.47
48.187,-92.87
48.203,-76.78
48.218,-59.79
48.234,-45.25
48.250,-36.01
48.265,-34.11
48.281,-40.38
48.296,-54.58
48.312,-76.04
48.328,-103.61
48.343,-135.25
48.359,-167.82
48.375,-197.65
48.390,-221.8
48.406,-239.73
48.421,-253.36
48.437,-266.0
48.453,-280.35
48.468,-296.74
48.484,-312.87
48.500,-325.09
48.515,-329.97
48.531,-325.63
48.546,-311.9
48.562,-289.64
48.578,-259.49
48.593,-222.04
48.609,-178.02
48.625,-129.18
48.640,-78.36
48.656,-28.48
48.671,18.66
48.687,62.68
48.703,104.02
48.718,143.48
48.734,181.13
48.750,216.36
48.765,248.4
48.781,276.4
48.796,299.93
48.812,318.79
48.828,332.82
48.843,341.64
48.859,344.86
48.875,342.79
48.890,336.57
48.906,328.49
48.921,320.42
48.937,313.37
48.953,307.52
48.968,303.07
48.984,300.58
49.000,300.98
49.015,304.97
49.031,312.36
49.046,323.16
49.062,336.04
49.078,349.2
49.093,361.28
49.109,372.14
49.125,382.1
49.140,390.87
49.156,396.45
49.171,395.5
49.187,387.18
49.203,372.34
49.218,353.81
49.234,334.89
49.250,316.99
49.265,298.24
49.281,274.59
49.296,242.55
49.312,201.87
49.328,157.83
49.343,115.43
49.359,75.62
49.375,34.37
49.390,-15.03
49.406,-77.78
49.421,-154.03
49.437,-238.34
49.453,-332.72
49.468,-428.94
49.484,-514.75
49.500,-579.09
49.515,-616.15
49.531,-626.25
49.546,-613.21
49.562,-581.77
49.578,-536.91
49.593,-483.88
49.609,-425.89
49.625,-366.79
49.640,-310.8
49.656,-262.33
49.671,-224.35
49.687,-197.88
49.703,-181.95
49.718,-174.92
49.734,-175.17
49.750,-180.42
49.765,-190.52
49.781,-206.94
49.796,-232.58
49.812,-266.71
49.828,-305.2
49.843,-341.52
49.859,-368.9
49.875,-382.46
49.890,-379.28
49.906,-359.63
49.921,-325.95
49.937,-281.86
49.953,-231.67
49.968,-180.54
49.984,-133.92
50.000,-96.9
50.015,-72.16
50.031,-58.56
50.046,-52.12
50.062,-47.62
50.078,-41.45
50.093,-33.11
50.109,-24.8
50.125,-18.74
50.140,-15.15
50.156,-11.08
50.171,-1.33
50.187,18.32
50.203,48.7
50.218,86.52
50.234,126.34
50.250,162.47
50.265,190.68
50.281,207.87
50.296,211.71
50.312,200.33
50.328,173.88
50.343,136.26
50.359,96.27
50.375,66.29
50.390,57.91
50.406,77.55
50.421,123.7
50.437,188.21
50.453,260.03
50.468,329.4
50.484,390.38
50.500,440.5
50.515,478.9
50.531,504.93
50.546,517.86
50.562,517.64
50.578,505.34
50.593,483.23
50.609,453.97
50.625,419.96
50.640,382.68
50.656,342.63
50.671,299.7
50.687,253.64
50.703,204.59
50.718,153.09
50.734,100.77
50.750,50.16
50.765,4.16
50.781,-34.79
50.796,-65.91
50.812,-90.46
50.828,-111.01
50.843,-130.27
50.859,-150.0
50.875,-170.33
50.890,-190.52
50.906,-209.6
50.921,-227.16
50.937,-243.49
50.953,-259.48
50.968,-275.93
50.984,-292.73
51.000,-308.29
51.015,-319.89
51.031,-324.83
51.046,-321.82
51.062,-312.54
51.078,-301.8
51.093,-296.62
51.109,-302.87
51.125,-322.03
51.140,-349.74
51.156,-377.72
51.171,-398.28
51.187,-408.54
51.203,-411.55
51.218,-413.42
51.234,-419.01
51.250,-428.13
51.265,-435.77
51.281,-435.28
51.296,-422.92
51.312,-400.42
51.328,-373.73
51.343,-349.43
51.359,-330.78
51.375,-316.25
51.390,-301.1
51.406,-280.99
51.421,-254.64
51.437,-224.59
51.453,-195.7
51.468,-172.04
51.484,-154.62
51.500,-140.78
51.515,-125.7
51.531,-105.11
51.546,-77.56
51.562,-44.83
51.578,-10.5
51.593,22.51
51.609,54.0
51.625,87.07
51.640,126.18
51.656,174.37
51.671,231.75
51.687,295.48
51.703,361.62
51.718,426.12
51.734,485.79
51.750,538.9
51.765,585.09
51.781,624.94
51.796,659.17
51.812,687.93
51.828,710.91
51.843,728.36
51.859,739.51
51.875,742.93
51.890,737.67
51.906,724.02
51.921,703.69
51.937,679.22
51.953,652.13
51.968,622.83
51.984,591.44
52.000,555.27
52.015,508.94
52.031,445.6
52.046,359.15
52.062,246.44
52.078,108.86
52.093,-47.31
52.109,-217.6
52.125,-384.3
52.140,-523.31
52.156,-614.24
52.171,-649.97
52.187,-638.0
52.203,-593.92
52.218,-533.19
52.234,-467.01
52.250,-402.05
52.265,-341.04
52.281,-286.89
52.296,-242.65
52.312,-210.36
52.328,-189.7
52.343,-177.76
52.359,-170.05
52.375,-162.58
52.390,-152.72
52.406,-138.86
52.421,-122.35
52.437,-106.07
52.453,-92.92
52.468,-84.23
52.484,-79.28
52.500,-75.97
52.515,-72.18
52.531,-66.59
52.546,-58.41
52.562,-48.45
52.578,-38.55
52.593,-30.71
52.609,-25.78
52.625,-23.43
52.640,-22.39
52.656,-21.26
52.671,-19.02
52.687,-14.83
52.703,-8.54
52.718,-0.41
52.734,8.95
52.750,19.51
52.765,31.48
52.781,45.18
52.796,60.56
52.812,76.88
52.828,92.94
52.843,107.25
52.859,118.63
52.875,125.37
52.890,126.48
52.906,121.76
52.921,111.78
52.937,97.66
52.953,80.74
52.968,62.52
52.984,44.54
53.000,27.95
53.015,13.56
53.031,1.99
53.046,-6.55
53.062,-12.35
53.078,-15.68
53.093,-17.03
53.109,-16.74
53.125,-14.99
53.140,-11.99
53.156,-8.03
53.171,-3.0
53.187,3.01
53.203,9.53
53.218,16.43
53.234,23.41
53.250,30.38
53.265,37.34
53.281,44.26
53.296,51.19
53.312,58.44
53.328,66.02
53.343,73.55
53.359,80.72
53.375,87.33
53.390,93.24
53.406,98.31
53.421,102.55
53.437,106.1
53.453,109.44
53.468,112.93
53.484,116.49
53.500,120.21
53.515,124.16
53.531,128.26
53.546,132.21
53.562,135.34
53.578,136.52
53.593,133.92
53.609,130.63
53.625,127.07
53.640,123.42
53.656,119.61
53.671,115.49
53.687,110.94
53.703,105.89
53.718,100.41
53.734,94.81
53.750,89.54
53.765,84.33
53.781,79.37
53.796,74.99
53.812,71.55
53.828,69.35
53.843,68.54
53.859,69.01
53.875,70.56
53.890,72.99
53.906,75.35
53.921,76.86
53.937,77.0
53.953,75.35
53.968,71.84
53.984,66.64
54.000,60.04
54.015,52.59
54.031,44.99
54.046,37.63
54.062,30.93
54.078,25.06
54.093,19.89
54.109,15.17
54.125,10.32
54.140,4.45
54.156,-3.39
54.171,-14.36
54.187,-29.52
54.203,-49.62
54.218,-75.07
54.234,-105.9
54.250,-141.36
54.265,-180.14
54.281,-220.13
54.296,-258.56
54.312,-292.32
54.328,-318.11
54.343,-332.82
54.359,-334.08
54.375,-320.88
54.390,-293.62
54.406,-254.34
54.421,-206.21
54.437,-152.96
54.453,-98.61
54.468,-46.58
54.484,0.59
54.500,41.12
54.515,73.76
54.531,97.72
54.546,112.34
54.562,117.36
54.578,113.35
54.593,101.38
54.609,83.34
54.625,61.5
54.640,37.97
54.656,14.08
54.671,-10.2
54.687,-36.12
54.703,-65.53
54.718,-99.49
54.734,-137.79
54.750,-178.57
54.765,-219.17
54.781,-256.47
54.796,-288.07
54.812,-312.85
54.828,-330.98
54.843,-343.6
54.859,-352.09
54.875,-357.79
54.890,-361.62
54.906,-363.43
54.921,-360.91
54.937,-349.63
54.953,-324.15
54.968,-280.47
54.984,-218.42
55.000,-142.93
55.015,-63.81
55.031,6.77
55.046,58.15
55.062,84.12
55.078,84.6
55.093,64.75
55.109,32.59
55.125,-3.8
55.140,-38.43
55.156,-68.6
55.171,-94.67
55.187,-118.74
55.203,-142.91
55.218,-168.03
55.234,-192.69
55.250,-214.0
55.265,-229.31
55.281,-237.07
55.296,-236.78
55.312,-227.73
55.328,-207.94
55.343,-175.08
55.359,-128.53
55.375,-71.74
55.390,-13.03
55.406,37.04
55.421,70.62
55.437,86.21
55.453,89.3
55.468,89.03
55.484,92.93
55.500,103.57
55.515,118.49
55.531,132.2
55.546,139.89
55.562,138.92
55.578,128.8
55.593,110.13
55.609,84.22
55.625,53.61
55.640,23.01
55.656,-1.13
55.671,-13.67
55.687,-14.04
55.703,-7.63
55.718,-3.74
55.734,-10.65
55.750,-31.0
55.765,-60.71
55.781,-91.56
55.796,-115.57
55.812,-128.48
55.828,-130.36
55.843,-123.09
55.859,-107.14
55.875,-80.64
55.890,-41.61
55.906,8.38
55.921,62.17
55.937,109.1
55.953,140.63
55.968,155.09
55.984,157.82
56.000,157.56
56.015,160.39
56.031,165.44
56.046,166.28
56.062,155.6
56.078,130.12
56.093,93.45
56.109,55.01
56.125,25.36
56.140,11.34
56.156,13.02
56.171,23.35
56.187,31.85
56.203,29.49
56.218,13.12
56.234,-13.09
56.250,-39.89
56.265,-57.99
56.281,-63.12
56.296,-57.41
56.312,-47.18
56.328,-38.32
56.343,-33.38
56.359,-31.7
56.375,-32.04
56.390,-34.91
56.406,-41.99
56.421,-53.27
56.437,-64.6
56.453,-68.14
56.468,-55.68
56.484,-23.63
56.500,24.58
56.515,80.2
56.531,132.44
56.546,172.2
56.562,194.78
56.578,200.18
56.593,192.53
56.609,179.2
56.625,169.01
56.640,169.81
56.656,185.2
56.671,211.71
56.687,239.33
56.703,255.54
56.718,250.69
56.734,222.22
56.750,175.9
56.765,122.92
56.781,75.73
56.796,43.99
56.812,32.41
56.828,41.08
56.843,67.26
56.859,106.56
56.875,153.41
56.890,201.22
56.906,242.04
56.921,267.76
56.937,272.41
56.953,254.13
56.968,215.94
56.984,164.81
57.000,109.5
57.015,58.59
57.031,20.18
57.046,0.35
57.062,1.79
57.078,22.86
57.093,57.29
57.109,95.93
57.125,129.87
57.140,153.57
57.156,166.23
57.171,170.7
57.187,170.13
57.203,165.91
57.218,157.76
57.234,145.38
57.250,130.91
57.265,118.38
57.281,111.66
57.296,111.25
57.312,113.42
57.328,111.56
57.343,100.57
57.359,79.76
57.375,53.09
57.390,26.83
57.406,5.84
57.421,-8.6
57.437,-18.46
57.453,-26.58
57.468,-35.27
57.484,-45.35
57.500,-56.75
57.515,-70.25
57.531,-87.52
57.546,-110.89
57.562,-142.31
57.578,-182.33
57.593,-229.55
57.609,-281.09
57.625,-333.44
57.640,-383.6
57.656,-430.07
57.671,-472.75
57.687,-512.75
57.703,-551.87
57.718,-591.8
57.734,-633.23
57.750,-674.84
57.765,-712.35
57.781,-739.07
57.796,-747.46
57.812,-731.3
57.828,-688.65
57.843,-623.1
57.859,-542.78
57.875,-457.58
57.890,-375.84
57.906,-301.99
57.921,-236.65
57.937,-178.48
57.953,-125.97
57.968,-79.0
57.984,-38.61
58.000,-5.85
58.015,19.55
58.031,39.57
58.046,57.33
58.062,75.77
58.078,96.25
58.093,118.64
58.109,140.96
58.125,160.65
58.140,175.45
58.156,184.11
58.171,186.48
58.187,182.79
58.203,173.08
58.218,156.95
58.234,134.52
58.250,106.62
58.265,75.34
58.281,43.0
58.296,11.39
58.312,-18.82
58.328,-47.54
58.343,-73.61
58.359,-94.19
58.375,-105.19
58.390,-103.64
58.406,-89.73
58.421,-68.01
58.437,-46.06
58.453,-31.69
58.468,-30.04
58.484,-41.39
58.500,-61.41
58.515,-82.63
58.531,-96.82
58.546,-96.46
58.562,-76.52
58.578,-35.68
58.593,23.96
58.609,97.07
58.625,176.63
58.640,255.24
58.656,326.1
58.671,383.02
58.687,420.52
58.703,434.3
58.718,421.8
58.734,383.83
58.750,324.72
58.765,251.85
58.781,173.55
58.796,97.64
58.812,30.33
58.828,-24.62
58.843,-64.97
58.859,-89.64
58.875,-98.08
58.890,-90.26
58.906,-66.82
58.921,-29.5
58.937,18.65
58.953,73.44
58.968,129.62
58.984,181.75
59.000,224.74
59.015,254.66
59.031,268.56
59.046,264.77
59.062,243.03
59.078,204.97
59.093,154.53
59.109,97.74
59.125,41.66
59.140,-7.02
59.156,-43.83
59.171,-67.34
59.187,-79.05
59.203,-81.88
59.218,-78.67
59.234,-71.32
59.250,-61.18
59.265,-49.94
59.281,-39.33
59.296,-30.24
59.312,-20.93
59.328,-7.23
59.343,15.82
59.359,50.93
59.375,95.96
59.390,143.87
59.406,185.6
59.421,214.25
59.437,228.34
59.453,231.93
59.468,231.6
59.484,232.16
59.500,234.2
59.515,234.71
59.531,229.09
59.546,214.85
59.562,192.39
59.578,164.68
59.593,135.84
59.609,109.49
59.625,87.17
59.640,68.37
59.656,50.97
59.671,32.48
59.687,11.91
59.703,-9.7
59.718,-29.18
59.734,-42.04
59.750,-44.14
59.765,-33.67
59.781,-12.31
59.796,14.38
59.812,38.14
59.828,50.63
59.843,45.81
59.859,22.0
59.875,-17.61
59.890,-66.25
59.906,-115.98
59.921,-160.09
59.937,-194.7
59.953,-219.63
59.968,-236.95
59.984,-249.45
