timestamp,value
00.000,28.73
00.015,30.09
00.031,31.33
00.046,32.23
00.062,32.49
00.078,31.84
00.093,30.27
00.109,28.01
00.125,25.46
00.140,23.07
00.156,21.13
00.171,19.69
00.187,18.61
00.203,17.67
00.218,16.67
00.234,15.57
00.250,14.39
00.265,13.15
00.281,11.88
00.296,10.48
00.312,8.83
00.328,6.74
00.343,4.16
00.359,1.07
00.375,-2.41
00.390,-6.19
00.406,-10.19
00.421,-14.26
00.437,-18.38
00.453,-22.41
00.468,-26.27
00.484,-29.76
00.500,-32.95
00.515,-35.99
00.531,-39.19
00.546,-42.88
00.562,-47.03
00.578,-51.28
00.593,-54.74
00.609,-56.4
00.625,-55.46
00.640,-51.66
00.656,-45.34
00.671,-37.28
00.687,-28.32
00.703,-19.05
00.718,-9.91
00.734,-1.08
00.750,7.34
00.765,15.13
00.781,22.02
00.796,27.78
00.812,32.3
00.828,35.6
00.843,37.82
00.859,39.1
00.875,39.67
00.890,39.67
00.906,39.17
00.921,38.13
00.937,36.57
00.953,34.5
00.968,32.11
00.984,29.68
01.000,27.59
01.015,26.13
01.031,25.4
01.046,25.17
01.062,24.9
01.078,24.2
01.093,22.79
01.109,20.73
01.125,18.24
01.140,15.68
01.156,13.27
01.171,10.99
01.187,8.68
01.203,6.11
01.218,3.15
01.234,-0.26
01.250,-4.0
01.265,-7.92
01.281,-11.85
01.296,-15.72
01.312,-19.5
01.328,-23.21
01.343,-26.99
01.359,-30.89
01.375,-35.04
01.390,-39.49
01.406,-44.23
01.421,-49.09
01.437,-53.62
01.453,-57.18
01.468,-58.95
01.484,-58.27
01.500,-54.75
01.515,-48.49
01.531,-40.05
01.546,-30.13
01.562,-19.59
01.578,-9.1
01.593,0.83
01.609,9.94
01.625,18.0
01.640,24.9
01.656,30.52
01.671,34.76
01.687,37.72
01.703,39.61
01.718,40.79
01.734,41.54
01.750,41.94
01.765,41.88
01.781,41.17
01.796,39.65
01.812,37.39
01.828,34.74
01.843,32.12
01.859,29.91
01.875,28.36
01.890,27.41
01.906,26.8
01.921,26.29
01.937,25.68
01.953,24.74
01.968,23.47
01.984,21.89
02.000,20.02
02.015,18.02
02.031,16.0
02.046,14.02
02.062,11.93
02.078,9.51
02.093,6.42
02.109,2.55
02.125,-1.97
02.140,-6.76
02.156,-11.39
02.171,-15.65
02.187,-19.48
02.203,-23.24
02.218,-27.31
02.234,-31.86
02.250,-36.95
02.265,-42.33
02.281,-47.67
02.296,-52.61
02.312,-56.74
02.328,-59.44
02.343,-60.09
02.359,-58.26
02.375,-53.7
02.390,-46.64
02.406,-37.73
02.421,-27.76
02.437,-17.46
02.453,-7.47
02.468,1.82
02.484,10.2
02.500,17.53
02.515,23.76
02.531,28.94
02.546,33.19
02.562,36.6
02.578,39.3
02.593,41.26
02.609,42.42
02.625,42.73
02.640,42.22
02.656,41.07
02.671,39.45
02.687,37.53
02.703,35.49
02.718,33.49
02.734,31.7
02.750,30.25
02.765,29.2
02.781,28.51
02.796,27.94
02.812,27.26
02.828,26.16
02.843,24.56
02.859,22.48
02.875,20.15
02.890,17.76
02.906,15.4
02.921,13.03
02.937,10.38
02.953,7.29
02.968,3.63
02.984,-0.57
03.000,-5.12
03.015,-9.75
03.031,-14.23
03.046,-18.46
03.062,-22.44
03.078,-26.39
03.093,-30.51
03.109,-34.92
03.125,-39.71
03.140,-44.73
03.156,-49.68
03.171,-53.95
03.187,-56.89
03.203,-57.89
03.218,-56.58
03.234,-52.81
03.250,-46.76
03.265,-38.79
03.281,-29.38
03.296,-19.3
03.312,-9.16
03.328,0.43
03.343,9.04
03.359,16.39
03.375,22.52
03.390,27.46
03.406,31.27
03.421,34.02
03.437,35.66
03.453,36.24
03.468,35.91
03.484,34.94
03.500,33.56
03.515,32.01
03.531,30.41
03.546,28.76
03.562,27.11
03.578,25.58
03.593,24.28
03.609,23.34
03.625,22.78
03.640,22.51
03.656,22.32
03.671,21.95
03.687,21.19
03.703,19.86
03.718,17.84
03.734,15.18
03.750,11.99
03.765,8.52
03.781,4.95
03.796,1.44
03.812,-2.08
03.828,-5.67
03.843,-9.37
03.859,-13.21
03.875,-17.17
03.890,-21.18
03.906,-25.27
03.921,-29.52
03.937,-34.04
03.953,-38.89
03.968,-43.97
03.984,-49.01
04.000,-53.62
04.015,-57.4
04.031,-59.71
04.046,-59.94
04.062,-57.66
04.078,-52.69
04.093,-45.29
04.109,-36.04
04.125,-25.8
04.140,-15.43
04.156,-5.73
04.171,2.8
04.187,10.05
04.203,16.1
04.218,21.17
04.234,25.48
04.250,29.2
04.265,32.35
04.281,34.85
04.296,36.58
04.312,37.46
04.328,37.51
04.343,36.75
04.359,35.34
04.375,33.36
04.390,31.01
04.406,28.51
04.421,26.13
04.437,24.07
04.453,22.43
04.468,21.23
04.484,20.26
04.500,19.39
04.515,18.41
04.531,17.14
04.546,15.52
04.562,13.61
04.578,11.44
04.593,9.08
04.609,6.56
04.625,3.79
04.640,0.7
04.656,-2.78
04.671,-6.67
04.687,-10.86
04.703,-15.14
04.718,-19.39
04.734,-23.59
04.750,-27.85
04.765,-32.33
04.781,-37.16
04.796,-42.45
04.812,-48.07
04.828,-53.73
04.843,-58.91
04.859,-62.9
04.875,-65.02
04.890,-64.61
04.906,-61.4
04.921,-55.37
04.937,-46.9
04.953,-36.72
04.968,-25.59
04.984,-14.37
05.000,-3.66
05.015,6.12
05.031,14.83
05.046,22.44
05.062,28.96
05.078,34.45
05.093,38.89
05.109,42.26
05.125,44.55
05.140,45.78
05.156,46.04
05.171,45.42
05.187,44.06
05.203,42.21
05.218,40.1
05.234,38.07
05.250,36.36
05.265,35.13
05.281,34.41
05.296,34.07
05.312,33.89
05.328,33.5
05.343,32.6
05.359,30.91
05.375,28.33
05.390,24.97
05.406,21.16
05.421,17.28
05.437,13.65
05.453,10.34
05.468,7.19
05.484,3.94
05.500,0.27
05.515,-3.96
05.531,-8.68
05.546,-13.62
05.562,-18.47
05.578,-22.98
05.593,-27.11
05.609,-31.02
05.625,-34.93
05.640,-39.18
05.656,-43.98
05.671,-49.34
05.687,-55.07
05.703,-60.54
05.718,-65.03
05.734,-67.68
05.750,-67.83
05.765,-65.0
05.781,-59.24
05.796,-50.98
05.812,-40.93
05.828,-30.05
05.843,-19.08
05.859,-8.67
05.875,0.92
05.890,9.59
05.906,17.42
05.921,24.52
05.937,30.95
05.953,36.66
05.968,41.45
05.984,45.22
06.000,47.75
06.015,49.02
06.031,49.12
06.046,48.1
06.062,46.21
06.078,43.64
06.093,40.7
06.109,37.64
06.125,34.75
06.140,32.26
06.156,30.29
06.171,28.95
06.187,28.03
06.203,27.45
06.218,26.92
06.234,26.24
06.250,25.21
06.265,23.82
06.281,22.1
06.296,20.15
06.312,18.05
06.328,15.7
06.343,13.02
06.359,9.9
06.375,6.3
06.390,2.31
06.406,-1.92
06.421,-6.22
06.437,-10.46
06.453,-14.59
06.468,-18.71
06.484,-22.87
06.500,-27.13
06.515,-31.58
06.531,-36.21
06.546,-41.11
06.562,-46.26
06.578,-51.5
06.593,-56.35
06.609,-60.16
06.625,-62.2
06.640,-61.8
06.656,-58.73
06.671,-53.06
06.687,-45.34
06.703,-36.21
06.718,-26.26
06.734,-15.94
06.750,-5.66
06.765,4.28
06.781,13.48
06.796,21.53
06.812,28.15
06.828,33.24
06.843,36.81
06.859,39.11
06.875,40.43
06.890,40.94
06.906,40.66
06.921,39.69
06.937,37.99
06.953,35.74
06.968,33.32
06.984,31.0
07.000,29.14
07.015,27.86
07.031,27.15
07.046,26.7
07.062,26.24
07.078,25.42
07.093,24.09
07.109,22.27
07.125,20.06
07.140,17.66
07.156,15.12
07.171,12.52
07.187,9.8
07.203,6.9
07.218,3.77
07.234,0.46
07.250,-2.97
07.265,-6.5
07.281,-10.12
07.296,-13.92
07.312,-17.94
07.328,-22.08
07.343,-26.3
07.359,-30.58
07.375,-35.03
07.390,-39.76
07.406,-44.91
07.421,-50.35
07.437,-55.65
07.453,-60.08
07.468,-62.74
07.484,-62.87
07.500,-60.02
07.515,-54.21
07.531,-45.77
07.546,-35.41
07.562,-23.97
07.578,-12.37
07.593,-1.34
07.609,8.53
07.625,16.95
07.640,23.91
07.656,29.45
07.671,33.78
07.687,37.08
07.703,39.39
07.718,40.78
07.734,41.23
07.750,40.77
07.765,39.49
07.781,37.63
07.796,35.45
07.812,33.25
07.828,31.25
07.843,29.56
07.859,28.22
07.875,27.1
07.890,25.99
07.906,24.68
07.921,23.09
07.937,21.22
07.953,19.13
07.968,17.01
07.984,15.0
08.000,13.2
08.015,11.58
08.031,10.0
08.046,8.18
08.062,5.84
08.078,2.8
08.093,-0.98
08.109,-5.31
08.125,-9.92
08.140,-14.52
08.156,-19.03
08.171,-23.48
08.187,-27.96
08.203,-32.61
08.218,-37.43
08.234,-42.44
08.250,-47.61
08.265,-52.92
08.281,-58.22
08.296,-63.05
08.312,-66.71
08.328,-68.31
08.343,-67.16
08.359,-63.01
08.375,-56.1
08.390,-47.01
08.406,-36.57
08.421,-25.47
08.437,-14.29
08.453,-3.47
08.468,6.62
08.484,15.71
08.500,23.59
08.515,30.16
08.531,35.45
08.546,39.55
08.562,42.6
08.578,44.65
08.593,45.81
08.609,46.14
08.625,45.72
08.640,44.69
08.656,43.22
08.671,41.44
08.687,39.51
08.703,37.57
08.718,35.82
08.734,34.4
08.750,33.45
08.765,33.02
08.781,32.96
08.796,32.98
08.812,32.7
08.828,31.68
08.843,29.74
08.859,26.93
08.875,23.42
08.890,19.52
08.906,15.45
08.921,11.3
08.937,7.03
08.953,2.65
08.968,-1.91
08.984,-6.51
09.000,-11.02
09.015,-15.29
09.031,-19.26
09.046,-23.01
09.062,-26.62
09.078,-30.29
09.093,-34.17
09.109,-38.37
09.125,-42.87
09.140,-47.56
09.156,-52.14
09.171,-56.13
09.187,-58.92
09.203,-59.78
09.218,-58.12
09.234,-53.75
09.250,-46.9
09.265,-38.19
09.281,-28.45
09.296,-18.48
09.312,-8.8
09.328,0.35
09.343,8.97
09.359,17.16
09.375,24.8
09.390,31.66
09.406,37.38
09.421,41.7
09.437,44.51
09.453,45.95
09.468,46.29
09.484,45.84
09.500,44.84
09.515,43.47
09.531,41.86
09.546,40.08
09.562,38.23
09.578,36.44
09.593,34.8
09.609,33.32
09.625,32.02
09.640,30.9
09.656,29.89
09.671,28.87
09.687,27.61
09.703,25.88
09.718,23.62
09.734,20.88
09.750,17.87
09.765,14.8
09.781,11.84
09.796,8.97
09.812,6.01
09.828,2.75
09.843,-0.97
09.859,-5.07
09.875,-9.38
09.890,-13.75
09.906,-18.13
09.921,-22.43
09.937,-26.61
09.953,-30.68
09.968,-34.66
09.984,-38.67
10.000,-42.95
10.015,-47.64
10.031,-52.72
10.046,-57.7
10.062,-61.75
10.078,-63.72
10.093,-62.65
10.109,-58.22
10.125,-50.76
10.140,-41.22
10.156,-30.73
10.171,-20.22
10.187,-10.26
10.203,-1.12
10.218,7.15
10.234,14.45
10.250,20.58
10.265,25.38
10.281,28.82
10.296,30.99
10.312,32.15
10.328,32.6
10.343,32.45
10.359,31.78
10.375,30.73
10.390,29.41
10.406,27.97
10.421,26.65
10.437,25.53
10.453,24.61
10.468,23.86
10.484,23.23
10.500,22.59
10.515,21.89
10.531,20.94
10.546,19.59
10.562,17.73
10.578,15.31
10.593,12.49
10.609,9.47
10.625,6.46
10.640,3.47
10.656,0.46
10.671,-2.61
10.687,-5.75
10.703,-8.85
10.718,-11.88
10.734,-14.82
10.750,-17.8
10.765,-20.92
10.781,-24.27
10.796,-27.91
10.812,-31.83
10.828,-35.99
10.843,-40.33
10.859,-44.87
10.875,-49.35
10.890,-53.53
10.906,-56.91
10.921,-58.73
10.937,-58.32
10.953,-55.22
10.968,-49.36
10.984,-41.11
11.000,-31.27
11.015,-20.73
11.031,-10.43
11.046,-1.11
11.062,6.86
11.078,13.4
11.093,18.6
11.109,22.78
11.125,26.24
11.140,29.13
11.156,31.46
11.171,33.05
11.187,33.74
11.203,33.57
11.218,32.77
11.234,31.57
11.250,30.22
11.265,28.81
11.281,27.29
11.296,25.67
11.312,24.0
11.328,22.41
11.343,21.07
11.359,19.92
11.375,18.85
11.390,17.65
11.406,16.07
11.421,14.09
11.437,11.84
11.453,9.46
11.468,6.99
11.484,4.38
11.500,1.43
11.515,-1.99
11.531,-5.86
11.546,-10.01
11.562,-14.28
11.578,-18.41
11.593,-22.37
11.609,-26.23
11.625,-30.09
11.640,-34.18
11.656,-38.54
11.671,-43.21
11.687,-48.03
11.703,-52.74
11.718,-56.83
11.734,-59.75
11.750,-60.9
11.765,-59.74
11.781,-56.14
11.796,-50.2
11.812,-42.41
11.828,-33.4
11.843,-23.81
11.859,-14.21
11.875,-4.92
11.890,3.77
11.906,11.76
11.921,18.89
11.937,25.04
11.953,30.13
11.968,34.11
11.984,37.05
12.000,39.06
12.015,40.23
12.031,40.52
12.046,39.96
12.062,38.53
12.078,36.37
12.093,33.75
12.109,30.91
12.125,28.12
12.140,25.58
12.156,23.44
12.171,21.63
12.187,20.15
12.203,18.87
12.218,17.66
12.234,16.47
12.250,15.16
12.265,13.73
12.281,12.14
12.296,10.43
12.312,8.51
12.328,6.34
12.343,3.8
12.359,0.7
12.375,-3.03
12.390,-7.41
12.406,-12.22
12.421,-17.14
12.437,-21.82
12.453,-26.04
12.468,-29.74
12.484,-33.13
12.500,-36.61
12.515,-40.52
12.531,-45.06
12.546,-50.12
12.562,-55.26
12.578,-59.74
12.593,-62.64
12.609,-63.06
12.625,-60.41
12.640,-54.56
12.656,-45.87
12.671,-35.25
12.687,-23.81
12.703,-12.59
12.718,-2.34
12.734,6.57
12.750,14.16
12.765,20.56
12.781,25.94
12.796,30.4
12.812,33.95
12.828,36.55
12.843,38.3
12.859,39.29
12.875,39.64
12.890,39.39
12.906,38.53
12.921,37.06
12.937,35.08
12.953,32.75
12.968,30.32
12.984,28.13
13.000,26.39
13.015,25.22
13.031,24.54
13.046,24.16
13.062,23.8
13.078,23.3
13.093,22.56
13.109,21.5
13.125,20.12
13.140,18.31
13.156,16.05
13.171,13.24
13.187,9.86
13.203,5.92
13.218,1.44
13.234,-3.48
13.250,-8.63
13.265,-13.74
13.281,-18.56
13.296,-22.95
13.312,-26.97
13.328,-30.87
13.343,-34.91
13.359,-39.3
13.375,-44.07
13.390,-49.14
13.406,-54.26
13.421,-59.08
13.437,-62.99
13.453,-65.2
13.468,-64.97
13.484,-61.64
13.500,-55.1
13.515,-45.74
13.531,-34.49
13.546,-22.46
13.562,-10.71
13.578,-0.02
13.593,9.41
13.609,17.55
13.625,24.6
13.640,30.69
13.656,35.84
13.671,39.92
13.687,42.86
13.703,44.73
13.718,45.57
13.734,45.58
13.750,44.9
13.765,43.64
13.781,41.86
13.796,39.72
13.812,37.41
13.828,35.11
13.843,33.04
13.859,31.24
13.875,29.75
13.890,28.42
13.906,27.1
13.921,25.59
13.937,23.73
13.953,21.52
13.968,18.97
13.984,16.26
14.000,13.56
14.015,10.93
14.031,8.26
14.046,5.43
14.062,2.21
14.078,-1.52
14.093,-5.67
14.109,-10.05
14.125,-14.43
14.140,-18.69
14.156,-22.79
14.171,-26.9
14.187,-31.22
14.203,-35.88
14.218,-40.9
14.234,-46.16
14.250,-51.43
14.265,-56.25
14.281,-60.17
14.296,-62.58
14.312,-62.79
14.328,-60.28
14.343,-54.8
14.359,-46.57
14.375,-36.17
14.390,-24.62
14.406,-12.96
14.421,-2.08
14.437,7.4
14.453,15.28
14.468,21.65
14.484,26.74
14.500,30.86
14.515,34.25
14.531,37.02
14.546,39.22
14.562,40.77
14.578,41.54
14.593,41.45
14.609,40.44
14.625,38.65
14.640,36.3
14.656,33.82
14.671,31.59
14.687,29.84
14.703,28.61
14.718,27.67
14.734,26.7
14.750,25.36
14.765,23.49
14.781,21.12
14.796,18.37
14.812,15.44
14.828,12.47
14.843,9.51
14.859,6.43
14.875,3.19
14.890,-0.31
14.906,-4.07
14.921,-7.99
14.937,-12.03
14.953,-16.22
14.968,-20.61
14.984,-25.19
15.000,-30.0
15.015,-34.91
15.031,-39.77
15.046,-44.47
15.062,-49.11
15.078,-53.8
15.093,-58.58
15.109,-63.16
15.125,-66.79
15.140,-68.59
15.156,-67.65
15.171,-63.53
15.187,-56.29
15.203,-46.55
15.218,-35.21
15.234,-23.2
15.250,-11.24
15.265,0.16
15.281,10.54
15.296,19.66
15.312,27.2
15.328,33.02
15.343,37.22
15.359,40.1
15.375,41.99
15.390,43.24
15.406,43.99
15.421,44.13
15.437,43.52
15.453,42.1
15.468,39.95
15.484,37.35
15.500,34.73
15.515,32.4
15.531,30.5
15.546,29.01
15.562,27.76
15.578,26.54
15.593,25.15
15.609,23.44
15.625,21.36
15.640,18.86
15.656,16.0
15.671,12.88
15.687,9.64
15.703,6.4
15.718,3.21
15.734,0.04
15.750,-3.28
15.765,-6.91
15.781,-11.01
15.796,-15.58
15.812,-20.53
15.828,-25.66
15.843,-30.87
15.859,-36.22
15.875,-41.81
15.890,-47.8
15.906,-54.11
15.921,-60.44
15.937,-66.16
15.953,-70.47
15.968,-72.5
15.984,-71.58
16.000,-67.44
16.015,-60.25
16.031,-50.67
16.046,-39.57
16.062,-27.78
16.078,-15.94
16.093,-4.49
16.109,6.38
16.125,16.49
16.140,25.51
16.156,33.15
16.171,39.14
16.187,43.52
16.203,46.54
16.218,48.5
16.234,49.61
16.250,49.98
16.265,49.55
16.281,48.26
16.296,46.25
16.312,43.81
16.328,41.39
16.343,39.4
16.359,38.03
16.375,37.21
16.390,36.78
16.406,36.46
16.421,35.94
16.437,34.94
16.453,33.25
16.468,30.69
16.484,27.33
16.500,23.34
16.515,19.06
16.531,14.83
16.546,10.83
16.562,7.08
16.578,3.38
16.593,-0.51
16.609,-4.83
16.625,-9.63
16.640,-14.83
16.656,-20.17
16.671,-25.44
16.687,-30.52
16.703,-35.48
16.718,-40.53
16.734,-45.94
16.750,-51.8
16.765,-57.85
16.781,-63.64
16.796,-68.34
16.812,-71.15
16.828,-71.22
16.843,-68.04
16.859,-61.39
16.875,-51.7
16.890,-39.77
16.906,-26.6
16.921,-13.36
16.937,-0.89
16.953,10.2
16.968,19.67
16.984,27.54
17.000,34.0
17.015,39.21
17.031,43.34
17.046,46.49
17.062,48.69
17.078,49.94
17.093,50.21
17.109,49.46
17.125,47.82
17.140,45.45
17.156,42.63
17.171,39.7
17.187,36.98
17.203,34.69
17.218,33.01
17.234,31.96
17.250,31.33
17.265,30.95
17.281,30.41
17.296,29.46
17.312,27.94
17.328,25.83
17.343,23.28
17.359,20.53
17.375,17.76
17.390,14.91
17.406,11.89
17.421,8.39
17.437,4.21
17.453,-0.58
17.468,-5.78
17.484,-11.06
17.500,-16.12
17.515,-20.87
17.531,-25.45
17.546,-30.06
17.562,-34.94
17.578,-40.28
17.593,-46.0
17.609,-51.92
17.625,-57.58
17.640,-62.24
17.656,-65.13
17.671,-65.45
17.687,-62.65
17.703,-56.65
17.718,-47.9
17.734,-37.14
17.750,-25.27
17.765,-13.19
17.781,-1.54
17.796,9.11
17.812,18.39
17.828,26.16
17.843,32.45
17.859,37.4
17.875,41.27
17.890,44.2
17.906,46.15
17.921,47.08
17.937,46.85
17.953,45.51
17.968,43.38
17.984,40.78
18.000,38.09
18.015,35.59
18.031,33.34
18.046,31.27
18.062,29.47
18.078,27.72
18.093,26.01
18.109,24.18
18.125,22.0
18.140,19.4
18.156,16.41
18.171,13.15
18.187,9.83
18.203,6.75
18.218,3.86
18.234,1.02
18.250,-2.06
18.265,-5.71
18.281,-10.04
18.296,-14.92
18.312,-19.98
18.328,-24.83
18.343,-29.14
18.359,-32.91
18.375,-36.44
18.390,-40.21
18.406,-44.64
18.421,-49.79
18.437,-55.38
18.453,-60.65
18.468,-64.67
18.484,-66.47
18.500,-65.38
18.515,-61.18
18.531,-54.02
18.546,-44.51
18.562,-33.3
18.578,-21.35
18.593,-9.51
18.609,1.41
18.625,10.98
18.640,18.96
18.656,25.41
18.671,30.54
18.687,34.53
18.703,37.63
18.718,39.85
18.734,41.16
18.750,41.43
18.765,40.68
18.781,38.99
18.796,36.57
18.812,33.68
18.828,30.69
18.843,28.01
18.859,25.97
18.875,24.79
18.890,24.32
18.906,24.23
18.921,23.98
18.937,23.1
18.953,21.34
18.968,18.75
18.984,15.55
19.000,11.97
19.015,8.26
19.031,4.44
19.046,0.58
19.062,-3.36
19.078,-7.3
19.093,-11.23
19.109,-15.16
19.125,-19.18
19.140,-23.35
19.156,-27.58
19.171,-31.93
19.187,-36.33
19.203,-40.92
19.218,-45.84
19.234,-51.16
19.250,-56.8
19.265,-62.39
19.281,-67.3
19.296,-70.53
19.312,-71.27
19.328,-68.8
19.343,-62.91
19.359,-53.92
19.375,-42.54
19.390,-29.83
19.406,-16.79
19.421,-4.33
19.437,7.12
19.453,17.25
19.468,26.08
19.484,33.77
19.500,40.33
19.515,45.82
19.531,50.08
19.546,53.02
19.562,54.56
19.578,54.85
19.593,54.0
19.609,52.31
19.625,50.06
19.640,47.39
19.656,44.53
19.671,41.52
19.687,38.56
19.703,35.81
19.718,33.51
19.734,31.67
19.750,30.16
19.765,28.61
19.781,26.53
19.796,23.69
19.812,20.05
19.828,15.91
19.843,11.62
19.859,7.37
19.875,3.23
19.890,-0.98
19.906,-5.4
19.921,-10.11
19.937,-14.97
19.953,-19.87
19.968,-24.63
19.984,-29.21
20.000,-33.73
20.015,-38.3
20.031,-43.08
20.046,-48.25
20.062,-53.9
20.078,-59.78
20.093,-65.47
20.109,-70.15
20.125,-72.93
20.140,-72.94
20.156,-69.67
20.171,-63.02
20.187,-53.48
20.203,-41.81
20.218,-28.91
20.234,-15.72
20.250,-2.94
20.265,8.76
20.281,18.93
20.296,27.33
20.312,34.01
20.328,39.14
20.343,43.15
20.359,46.36
20.375,48.94
20.390,50.91
20.406,52.09
20.421,52.26
20.437,51.39
20.453,49.55
20.468,46.97
20.484,44.03
20.500,41.1
20.515,38.34
20.531,35.86
20.546,33.57
20.562,31.3
20.578,28.94
20.593,26.42
20.609,23.81
20.625,21.19
20.640,18.72
20.656,16.34
20.671,13.95
20.687,11.27
20.703,8.05
20.718,4.15
20.734,-0.39
20.750,-5.32
20.765,-10.37
20.781,-15.31
20.796,-20.08
20.812,-24.7
20.828,-29.34
20.843,-34.17
20.859,-39.31
20.875,-44.92
20.890,-50.94
20.906,-57.1
20.921,-62.86
20.937,-67.28
20.953,-69.34
20.968,-68.24
20.984,-63.7
21.000,-55.99
21.015,-45.83
21.031,-34.16
21.046,-21.86
21.062,-9.67
21.078,1.94
21.093,12.55
21.109,21.92
21.125,29.86
21.140,36.34
21.156,41.41
21.171,45.2
21.187,47.8
21.203,49.23
21.218,49.58
21.234,48.92
21.250,47.41
21.265,45.3
21.281,42.81
21.296,40.09
21.312,37.31
21.328,34.65
21.343,32.28
21.359,30.39
21.375,29.05
21.390,28.14
21.406,27.52
21.421,26.79
21.437,25.71
21.453,24.1
21.468,21.95
21.484,19.3
21.500,16.23
21.515,12.76
21.531,8.85
21.546,4.51
21.562,-0.33
21.578,-5.62
21.593,-11.14
21.609,-16.66
21.625,-21.89
21.640,-26.68
21.656,-31.1
21.671,-35.46
21.687,-40.13
21.703,-45.44
21.718,-51.41
21.734,-57.54
21.750,-62.96
21.765,-66.53
21.781,-67.32
21.796,-64.73
21.812,-58.9
21.828,-50.43
21.843,-40.22
21.859,-29.25
21.875,-18.34
21.890,-8.01
21.906,1.49
21.921,9.91
21.937,17.19
21.953,23.28
21.968,28.14
21.984,31.82
22.000,34.33
22.015,35.6
22.031,35.61
22.046,34.43
22.062,32.18
22.078,29.14
22.093,25.69
22.109,22.16
22.125,18.95
22.140,16.28
22.156,14.27
22.171,12.9
22.187,11.94
22.203,11.08
22.218,9.96
22.234,8.32
22.250,5.92
22.265,2.85
22.281,-0.84
22.296,-4.98
22.312,-9.44
22.328,-14.22
22.343,-19.29
22.359,-24.66
22.375,-30.22
22.390,-35.9
22.406,-41.56
22.421,-47.23
22.437,-52.97
22.453,-58.83
22.468,-64.86
22.484,-71.03
22.500,-77.28
22.515,-83.54
22.531,-89.67
22.546,-95.24
22.562,-99.69
22.578,-102.16
22.593,-101.69
22.609,-97.59
22.625,-89.53
22.640,-77.74
22.656,-62.95
22.671,-46.16
22.687,-28.35
22.703,-10.37
22.718,7.14
22.734,23.71
22.750,38.85
22.765,52.25
22.781,63.63
22.796,72.84
22.812,79.81
22.828,84.58
22.843,87.27
22.859,88.07
22.875,87.39
22.890,85.77
22.906,83.9
22.921,82.36
22.937,81.5
22.953,81.29
22.968,81.48
22.984,81.54
23.000,81.03
23.015,79.52
23.031,76.76
23.046,72.66
23.062,67.26
23.078,60.79
23.093,53.52
23.109,45.94
23.125,38.35
23.140,30.98
23.156,23.86
23.171,16.86
23.187,9.82
23.203,2.65
23.218,-4.53
23.234,-11.54
23.250,-18.16
23.265,-24.3
23.281,-29.99
23.296,-35.45
23.312,-41.05
23.328,-47.13
23.343,-53.85
23.359,-61.04
23.375,-68.01
23.390,-73.72
23.406,-77.05
23.421,-77.0
23.437,-73.08
23.453,-65.39
23.468,-54.57
23.484,-41.55
23.500,-27.44
23.515,-13.21
23.531,0.54
23.546,13.27
23.562,24.78
23.578,34.87
23.593,43.42
23.609,50.35
23.625,55.75
23.640,59.7
23.656,62.25
23.671,63.49
23.687,63.32
23.703,61.64
23.718,58.52
23.734,54.24
23.750,49.33
23.765,44.47
23.781,40.16
23.796,36.63
23.812,33.85
23.828,31.48
23.843,29.19
23.859,26.73
23.875,24.09
23.890,21.36
23.906,18.62
23.921,15.89
23.937,12.98
23.953,9.73
23.968,5.95
23.984,1.61
24.000,-3.22
24.015,-8.4
24.031,-13.81
24.046,-19.39
24.062,-25.03
24.078,-30.64
24.093,-36.01
24.109,-41.01
24.125,-45.6
24.140,-49.92
24.156,-54.19
24.171,-58.55
24.187,-62.84
24.203,-66.44
24.218,-68.36
24.234,-67.38
24.250,-62.64
24.265,-53.88
24.281,-41.64
24.296,-27.19
24.312,-12.07
24.328,2.37
24.343,15.23
24.359,26.09
24.375,35.01
24.390,42.12
24.406,47.46
24.421,51.13
24.437,53.12
24.453,53.58
24.468,52.81
24.484,51.23
24.500,49.06
24.515,46.49
24.531,43.58
24.546,40.24
24.562,36.58
24.578,32.73
24.593,29.01
24.609,25.77
24.625,23.29
24.640,21.59
24.656,20.38
24.671,19.3
24.687,17.82
24.703,15.78
24.718,13.12
24.734,10.05
24.750,6.84
24.765,3.58
24.781,0.28
24.796,-3.15
24.812,-6.87
24.828,-10.95
24.843,-15.19
24.859,-19.47
24.875,-23.59
24.890,-27.43
24.906,-31.04
24.921,-34.52
24.937,-38.01
24.953,-41.68
24.968,-45.76
24.984,-50.19
25.000,-54.82
25.015,-59.18
25.031,-62.41
25.046,-63.57
25.062,-61.81
25.078,-56.71
25.093,-48.51
25.109,-37.98
25.125,-26.18
25.140,-14.16
25.156,-2.64
25.171,8.01
25.187,17.58
25.203,25.98
25.218,33.08
25.234,38.67
25.250,42.72
25.265,45.33
25.281,46.65
25.296,46.98
25.312,46.54
25.328,45.37
25.343,43.53
25.359,41.09
25.375,38.21
25.390,35.15
25.406,32.3
25.421,29.95
25.437,28.37
25.453,27.71
25.468,27.88
25.484,28.67
25.500,29.71
25.515,30.59
25.531,30.96
25.546,30.5
25.562,28.98
25.578,26.37
25.593,22.7
25.609,18.15
25.625,13.09
25.640,7.88
25.656,2.92
25.671,-1.44
25.687,-4.95
25.703,-7.72
25.718,-9.96
25.734,-12.14
25.750,-14.88
25.765,-18.55
25.781,-23.33
25.796,-29.01
25.812,-35.01
25.828,-40.37
25.843,-44.12
25.859,-45.31
25.875,-43.26
25.890,-37.85
25.906,-29.41
25.921,-18.87
25.937,-7.43
25.953,3.64
25.968,13.4
25.984,21.35
26.000,27.39
26.015,31.75
26.031,34.73
26.046,36.66
26.062,37.63
26.078,37.72
26.093,36.95
26.109,35.31
26.125,32.98
26.140,30.17
26.156,27.07
26.171,23.85
26.187,20.84
26.203,18.15
26.218,15.81
26.234,13.81
26.250,11.97
26.265,10.16
26.281,8.38
26.296,6.72
26.312,5.22
26.328,3.94
26.343,2.76
26.359,1.32
26.375,-0.62
26.390,-3.26
26.406,-6.61
26.421,-10.48
26.437,-14.56
26.453,-18.56
26.468,-22.31
26.484,-25.72
26.500,-28.91
26.515,-32.0
26.531,-35.2
26.546,-38.64
26.562,-42.27
26.578,-45.82
26.593,-48.68
26.609,-50.17
26.625,-49.57
26.640,-46.35
26.656,-40.33
26.671,-31.84
26.687,-21.62
26.703,-10.63
26.718,0.16
26.734,10.04
26.750,18.5
26.765,25.37
26.781,30.72
26.796,34.59
26.812,37.05
26.828,38.11
26.843,37.94
26.859,36.69
26.875,34.69
26.890,32.18
26.906,29.41
26.921,26.52
26.937,23.44
26.953,20.11
26.968,16.47
26.984,12.71
27.000,9.06
27.015,5.72
27.031,2.81
27.046,0.34
27.062,-1.8
27.078,-3.74
27.093,-5.5
27.109,-7.12
27.125,-8.55
27.140,-9.77
27.156,-10.86
27.171,-12.03
27.187,-13.44
27.203,-15.28
27.218,-17.66
27.234,-20.41
27.250,-23.43
27.265,-26.59
27.281,-29.8
27.296,-33.03
27.312,-36.4
27.328,-40.01
27.343,-43.91
27.359,-47.92
27.375,-51.53
27.390,-54.11
27.406,-54.93
27.421,-53.34
27.437,-49.03
27.453,-42.12
27.468,-33.16
27.484,-23.08
27.500,-12.82
27.515,-3.07
27.531,5.65
27.546,13.08
27.562,19.22
27.578,24.09
27.593,27.87
27.609,30.8
27.625,33.08
27.640,34.77
27.656,35.95
27.671,36.41
27.687,36.03
27.703,34.73
27.718,32.55
27.734,29.75
27.750,26.69
27.765,23.78
27.781,21.21
27.796,19.13
27.812,17.46
27.828,16.07
27.843,14.75
27.859,13.33
27.875,11.74
27.890,9.98
27.906,8.1
27.921,6.09
27.937,3.84
27.953,1.11
27.968,-2.31
27.984,-6.45
28.000,-11.22
28.015,-16.29
28.031,-21.29
28.046,-25.9
28.062,-30.02
28.078,-33.77
28.093,-37.4
28.109,-41.21
28.125,-45.34
28.140,-49.81
28.156,-54.37
28.171,-58.59
28.187,-61.83
28.203,-63.2
28.218,-61.89
28.234,-57.34
28.250,-49.67
28.265,-39.65
28.281,-28.45
28.296,-17.31
28.312,-7.14
28.328,1.58
28.343,8.8
28.359,14.64
28.375,19.28
28.390,22.78
28.406,25.15
28.421,26.49
28.437,26.95
28.453,26.73
28.468,25.93
28.484,24.55
28.500,22.63
28.515,20.21
28.531,17.44
28.546,14.63
28.562,12.05
28.578,9.94
28.593,8.4
28.609,7.36
28.625,6.56
28.640,5.73
28.656,4.65
28.671,3.28
28.687,1.67
28.703,-0.08
28.718,-1.9
28.734,-3.8
28.750,-5.82
28.765,-8.01
28.781,-10.42
28.796,-13.08
28.812,-15.87
28.828,-18.75
28.843,-21.63
28.859,-24.45
28.875,-27.25
28.890,-30.12
28.906,-33.13
28.921,-36.39
28.937,-39.96
28.953,-43.6
28.968,-46.93
28.984,-49.26
29.000,-49.86
29.015,-48.08
29.031,-43.78
29.046,-37.1
29.062,-28.65
29.078,-19.25
29.093,-9.62
29.109,-0.4
29.125,8.09
29.140,15.59
29.156,21.97
29.171,27.06
29.187,30.77
29.203,33.14
29.218,34.32
29.234,34.64
29.250,34.31
29.265,33.56
29.281,32.41
29.296,30.75
29.312,28.43
29.328,25.44
29.343,21.99
29.359,18.46
29.375,15.29
29.390,12.71
29.406,10.82
29.421,9.43
29.437,8.29
29.453,7.12
29.468,5.78
29.484,4.22
29.500,2.39
29.515,0.33
29.531,-2.1
29.546,-4.9
29.562,-8.08
29.578,-11.54
29.593,-15.05
29.609,-18.52
29.625,-21.91
29.640,-25.29
29.656,-28.68
29.671,-32.2
29.687,-35.93
29.703,-39.95
29.718,-44.19
29.734,-48.29
29.750,-51.59
29.765,-53.29
29.781,-52.69
29.796,-49.36
29.812,-43.47
29.828,-35.61
29.843,-26.63
29.859,-17.35
29.875,-8.4
29.890,-0.12
29.906,7.33
29.921,13.8
29.937,19.31
29.953,23.82
29.968,27.4
29.984,30.07
30.000,31.83
30.015,32.58
30.031,32.28
30.046,31.0
30.062,28.85
30.078,26.1
30.093,22.99
30.109,19.75
30.125,16.59
30.140,13.57
30.156,10.77
30.171,8.28
30.187,6.07
30.203,4.17
30.218,2.53
30.234,1.02
30.250,-0.51
30.265,-2.18
30.281,-4.21
30.296,-6.74
30.312,-9.79
30.328,-13.29
30.343,-17.02
30.359,-20.68
30.375,-24.09
30.390,-27.23
30.406,-30.18
30.421,-33.29
30.437,-36.92
30.453,-41.39
30.468,-46.75
30.484,-52.67
30.500,-58.4
30.515,-62.9
30.531,-65.02
30.546,-63.64
30.562,-58.3
30.578,-49.11
30.593,-36.74
30.609,-22.22
30.625,-6.36
30.640,10.55
30.656,28.61
30.671,48.16
30.687,69.28
30.703,91.33
30.718,112.94
30.734,132.42
30.750,148.01
30.765,158.63
30.781,163.96
30.796,164.21
30.812,160.03
30.828,152.07
30.843,140.85
30.859,126.84
30.875,110.62
30.890,92.76
30.906,73.96
30.921,54.83
30.937,35.9
30.953,17.66
30.968,0.64
30.984,-14.58
31.000,-27.35
31.015,-37.09
31.031,-43.64
31.046,-47.22
31.062,-48.49
31.078,-48.38
31.093,-47.84
31.109,-47.45
31.125,-47.61
31.140,-48.3
31.156,-49.32
31.171,-50.44
31.187,-51.4
31.203,-52.05
31.218,-52.36
31.234,-52.32
31.250,-52.01
31.265,-51.56
31.281,-51.05
31.296,-50.56
31.312,-50.15
31.328,-49.79
31.343,-49.42
31.359,-49.11
31.375,-48.83
31.390,-48.62
31.406,-48.47
31.421,-48.34
31.437,-48.25
31.453,-48.33
31.468,-48.71
31.484,-49.59
31.500,-51.19
31.515,-53.56
31.531,-56.74
31.546,-60.63
31.562,-65.06
31.578,-69.78
31.593,-74.68
31.609,-79.56
31.625,-84.36
31.640,-89.2
31.656,-94.1
31.671,-99.17
31.687,-104.23
31.703,-108.94
31.718,-112.83
31.734,-115.41
31.750,-116.3
31.765,-115.43
31.781,-112.92
31.796,-109.13
31.812,-104.55
31.828,-99.66
31.843,-94.72
31.859,-89.84
31.875,-84.88
31.890,-79.46
31.906,-73.47
31.921,-67.06
31.937,-60.94
31.953,-56.16
31.968,-53.79
31.984,-54.43
32.000,-57.96
32.015,-63.47
32.031,-69.3
32.046,-73.33
32.062,-73.43
32.078,-67.8
32.093,-55.58
32.109,-37.18
32.125,-14.39
32.140,9.8
32.156,32.11
32.171,49.88
32.187,61.91
32.203,68.53
32.218,71.2
32.234,71.68
32.250,71.36
32.265,71.12
32.281,71.46
32.296,72.88
32.312,76.04
32.328,81.47
32.343,89.28
32.359,98.97
32.375,109.44
32.390,119.49
32.406,128.33
32.421,135.67
32.437,141.42
32.453,145.42
32.468,147.07
32.484,145.28
32.500,139.11
32.515,128.28
32.531,113.46
32.546,96.35
32.562,79.03
32.578,63.22
32.593,49.89
32.609,39.06
32.625,30.08
32.640,22.24
32.656,15.02
32.671,8.25
32.687,2.07
32.703,-3.35
32.718,-8.05
32.734,-12.2
32.750,-16.13
32.765,-20.25
32.781,-24.81
32.796,-29.86
32.812,-35.25
32.828,-40.43
32.843,-44.69
32.859,-47.23
32.875,-47.35
32.890,-44.67
32.906,-39.17
32.921,-31.2
32.937,-21.34
32.953,-10.35
32.968,1.09
32.984,12.32
33.000,22.81
33.015,32.21
33.031,40.28
33.046,47.04
33.062,52.63
33.078,57.21
33.093,60.81
33.109,63.42
33.125,64.84
33.140,65.02
33.156,63.92
33.171,61.59
33.187,58.2
33.203,53.84
33.218,48.76
33.234,43.24
33.250,37.71
33.265,32.58
33.281,28.18
33.296,24.59
33.312,21.59
33.328,18.83
33.343,15.81
33.359,12.31
33.375,8.21
33.390,3.56
33.406,-1.46
33.421,-6.74
33.437,-12.16
33.453,-17.73
33.468,-23.36
33.484,-29.14
33.500,-35.03
33.515,-41.09
33.531,-47.52
33.546,-54.39
33.562,-61.5
33.578,-68.16
33.593,-73.22
33.609,-75.21
33.625,-73.04
33.640,-66.23
33.656,-55.12
33.671,-41.01
33.687,-25.41
33.703,-9.78
33.718,4.85
33.734,18.0
33.750,29.47
33.765,39.23
33.781,47.27
33.796,53.67
33.812,58.38
33.828,61.57
33.843,63.32
33.859,63.79
33.875,63.16
33.890,61.58
33.906,59.2
33.921,56.11
33.937,52.5
33.953,48.42
33.968,44.12
33.984,39.73
34.000,35.47
34.015,31.51
34.031,27.97
34.046,24.75
34.062,21.66
34.078,18.46
34.093,14.83
34.109,10.7
34.125,6.05
34.140,0.97
34.156,-4.33
34.171,-9.67
34.187,-15.02
34.203,-20.36
34.218,-25.68
34.234,-31.03
34.250,-36.5
34.265,-42.26
34.281,-48.62
34.296,-55.71
34.312,-63.41
34.328,-71.15
34.343,-77.78
34.359,-81.88
34.375,-82.17
34.390,-77.94
34.406,-69.34
34.421,-57.29
34.437,-43.12
34.453,-28.17
34.468,-13.53
34.484,0.12
34.500,12.43
34.515,23.12
34.531,31.99
34.546,38.86
34.562,43.72
34.578,46.73
34.593,48.21
34.609,48.54
34.625,48.03
34.640,46.84
34.656,44.87
34.671,42.0
34.687,38.1
34.703,33.22
34.718,27.69
34.734,22.01
34.750,16.78
34.765,12.43
34.781,9.15
34.796,6.82
34.812,5.24
34.828,4.06
34.843,2.91
34.859,1.49
34.875,-0.44
34.890,-3.0
34.906,-6.16
34.921,-9.79
34.937,-13.82
34.953,-18.06
34.968,-22.52
34.984,-27.2
35.000,-32.17
35.015,-37.5
35.031,-43.28
35.046,-49.45
35.062,-55.75
35.078,-61.58
35.093,-65.88
35.109,-67.41
35.125,-65.03
35.140,-58.0
35.156,-46.41
35.171,-31.1
35.187,-13.46
35.203,4.87
35.218,22.45
35.234,38.27
35.250,51.78
35.265,62.76
35.281,71.34
35.296,77.68
35.312,82.03
35.328,84.62
35.343,85.63
35.359,85.24
35.375,83.67
35.390,81.03
35.406,77.39
35.421,72.89
35.437,67.63
35.453,61.84
35.468,55.82
35.484,50.01
35.500,44.85
35.515,40.72
35.531,37.71
35.546,35.63
35.562,34.09
35.578,32.48
35.593,30.26
35.609,27.11
35.625,22.99
35.640,18.06
35.656,12.62
35.671,6.88
35.687,1.03
35.703,-4.77
35.718,-10.44
35.734,-15.93
35.750,-21.24
35.765,-26.53
35.781,-32.1
35.796,-38.26
35.812,-45.2
35.828,-52.75
35.843,-60.12
35.859,-66.18
35.875,-69.52
35.890,-68.97
35.906,-63.95
35.921,-54.75
35.937,-42.4
35.953,-28.31
35.968,-13.97
35.984,-0.4
36.000,11.75
36.015,22.36
36.031,31.48
36.046,39.08
36.062,45.16
36.078,49.72
36.093,52.89
36.109,54.88
36.125,55.92
36.140,56.2
36.156,55.74
36.171,54.5
36.187,52.38
36.203,49.38
36.218,45.67
36.234,41.57
36.250,37.39
36.265,33.36
36.281,29.53
36.296,25.95
36.312,22.55
36.328,19.26
36.343,15.98
36.359,12.63
36.375,9.08
36.390,5.24
36.406,1.14
36.421,-3.19
36.437,-7.63
36.453,-12.09
36.468,-16.49
36.484,-20.89
36.500,-25.32
36.515,-29.92
36.531,-34.87
36.546,-40.31
36.562,-46.34
36.578,-52.88
36.593,-59.6
36.609,-65.78
36.625,-70.42
36.640,-72.34
36.656,-70.57
36.671,-64.68
36.687,-54.94
36.703,-42.3
36.718,-28.08
36.734,-13.73
36.750,-0.3
36.765,11.6
36.781,21.78
36.796,30.38
36.812,37.5
36.828,43.21
36.843,47.44
36.859,50.21
36.875,51.55
36.890,51.62
36.906,50.72
36.921,48.99
36.937,46.53
36.953,43.29
36.968,39.25
36.984,34.46
37.000,29.25
37.015,24.1
37.031,19.51
37.046,15.81
37.062,13.03
37.078,10.95
37.093,9.22
37.109,7.42
37.125,5.27
37.140,2.67
37.156,-0.37
37.171,-3.67
37.187,-7.04
37.203,-10.4
37.218,-13.66
37.234,-16.85
37.250,-20.12
37.265,-23.63
37.281,-27.59
37.296,-32.28
37.312,-37.91
37.328,-44.43
37.343,-51.56
37.359,-58.4
37.375,-63.77
37.390,-66.38
37.406,-65.12
37.421,-59.56
37.437,-50.08
37.453,-37.67
37.468,-23.8
37.484,-9.9
37.500,3.03
37.515,14.43
37.531,24.17
37.546,32.37
37.562,39.15
37.578,44.53
37.593,48.51
37.609,50.98
37.625,51.9
37.640,51.38
37.656,49.61
37.671,46.94
37.687,43.74
37.703,40.25
37.718,36.66
37.734,33.05
37.750,29.47
37.765,25.99
37.781,22.81
37.796,20.12
37.812,17.98
37.828,16.36
37.843,14.85
37.859,13.09
37.875,10.78
37.890,7.8
37.906,4.3
37.921,0.54
37.937,-3.3
37.953,-7.11
37.968,-10.92
37.984,-14.77
38.000,-18.64
38.015,-22.4
38.031,-26.11
38.046,-29.89
38.062,-33.95
38.078,-38.43
38.093,-43.01
38.109,-47.05
38.125,-49.56
38.140,-49.56
38.156,-46.37
38.171,-39.96
38.187,-30.89
38.203,-20.19
38.218,-9.02
38.234,1.72
38.250,11.38
38.265,19.68
38.281,26.52
38.296,31.99
38.312,36.13
38.328,39.11
38.343,41.02
38.359,41.99
38.375,42.12
38.390,41.42
38.406,39.86
38.421,37.44
38.437,34.26
38.453,30.62
38.468,26.93
38.484,23.58
38.500,20.8
38.515,18.64
38.531,17.03
38.546,15.74
38.562,14.54
38.578,13.16
38.593,11.47
38.609,9.32
38.625,6.6
38.640,3.25
38.656,-0.73
38.671,-5.21
38.687,-9.87
38.703,-14.48
38.718,-18.96
38.734,-23.34
38.750,-27.81
38.765,-32.64
38.781,-38.02
38.796,-43.96
38.812,-50.17
38.828,-55.95
38.843,-60.54
38.859,-63.03
38.875,-62.75
38.890,-59.4
38.906,-53.07
38.921,-44.21
38.937,-33.62
38.953,-22.22
38.968,-10.77
38.984,-0.08
39.000,9.38
39.015,17.26
39.031,23.41
39.046,27.9
39.062,31.07
39.078,33.27
39.093,34.73
39.109,35.59
39.125,35.71
39.140,35.05
39.156,33.62
39.171,31.59
39.187,29.16
39.203,26.62
39.218,24.15
39.234,21.73
39.250,19.41
39.265,17.23
39.281,15.28
39.296,13.65
39.312,12.25
39.328,10.94
39.343,9.48
39.359,7.68
39.375,5.43
39.390,2.71
39.406,-0.44
39.421,-3.83
39.437,-7.29
39.453,-10.7
39.468,-13.95
39.484,-17.01
39.500,-20.02
39.515,-23.18
39.531,-26.77
39.546,-31.13
39.562,-36.39
39.578,-42.41
39.593,-48.61
39.609,-54.11
39.625,-57.74
39.640,-58.48
39.656,-55.74
39.671,-49.53
39.687,-40.53
39.703,-29.87
39.718,-18.67
39.734,-7.8
39.750,2.12
39.765,10.87
39.781,18.36
39.796,24.51
39.812,29.36
39.828,32.95
39.843,35.31
39.859,36.63
39.875,37.06
39.890,36.68
39.906,35.56
39.921,33.86
39.937,31.75
39.953,29.54
39.968,27.43
39.984,25.51
40.000,23.78
40.015,22.17
40.031,20.58
40.046,18.99
40.062,17.46
40.078,16.01
40.093,14.63
40.109,13.12
40.125,11.2
40.140,8.69
40.156,5.48
40.171,1.62
40.187,-2.67
40.203,-7.1
40.218,-11.5
40.234,-15.68
40.250,-19.55
40.265,-23.26
40.281,-26.82
40.296,-30.32
40.312,-33.8
40.328,-37.24
40.343,-40.61
40.359,-43.95
40.375,-47.02
40.390,-49.38
40.406,-50.43
40.421,-49.37
40.437,-45.73
40.453,-39.43
40.468,-30.97
40.484,-21.19
40.500,-11.19
40.515,-1.78
40.531,6.52
40.546,13.47
40.562,19.12
40.578,23.54
40.593,26.87
40.609,29.24
40.625,30.79
40.640,31.6
40.656,31.78
40.671,31.37
40.687,30.32
40.703,28.61
40.718,26.26
40.734,23.4
40.750,20.32
40.765,17.32
40.781,14.65
40.796,12.46
40.812,10.78
40.828,9.53
40.843,8.61
40.859,7.92
40.875,7.27
40.890,6.43
40.906,5.11
40.921,3.14
40.937,0.48
40.953,-2.7
40.968,-6.19
40.984,-9.69
41.000,-13.08
41.015,-16.29
41.031,-19.45
41.046,-22.71
41.062,-26.24
41.078,-30.13
41.093,-34.36
41.109,-38.84
41.125,-43.25
41.140,-47.22
41.156,-50.16
41.171,-51.52
41.187,-50.76
41.203,-47.64
41.218,-42.17
41.234,-34.6
41.250,-25.52
41.265,-15.64
41.281,-5.76
41.296,3.42
41.312,11.42
41.328,18.04
41.343,23.25
41.359,27.08
41.375,29.59
41.390,30.88
41.406,30.98
41.421,30.1
41.437,28.46
41.453,26.29
41.468,23.85
41.484,21.25
41.500,18.53
41.515,15.77
41.531,13.14
41.546,10.81
41.562,8.86
41.578,7.24
41.593,5.77
41.609,4.32
41.625,2.93
41.640,1.57
41.656,0.26
41.671,-1.15
41.687,-2.81
41.703,-5.01
41.718,-7.85
41.734,-11.32
41.750,-15.14
41.765,-19.03
41.781,-22.78
41.796,-26.29
41.812,-29.68
41.828,-33.01
41.843,-36.4
41.859,-39.9
41.875,-43.59
41.890,-47.35
41.906,-50.96
41.921,-53.89
41.937,-55.39
41.953,-54.8
41.968,-51.61
41.984,-45.77
42.000,-37.65
42.015,-28.03
42.031,-17.74
42.046,-7.52
42.062,2.03
42.078,10.56
42.093,17.74
42.109,23.4
42.125,27.5
42.140,30.19
42.156,31.71
42.171,32.27
42.187,32.15
42.203,31.44
42.218,30.24
42.234,28.6
42.250,26.7
42.265,24.8
42.281,23.1
42.296,21.76
42.312,20.7
42.328,19.79
42.343,18.78
42.359,17.53
42.375,15.92
42.390,13.99
42.406,11.8
42.421,9.43
42.437,7.01
42.453,4.53
42.468,1.96
42.484,-0.87
42.500,-4.01
42.515,-7.59
42.531,-11.45
42.546,-15.36
42.562,-19.13
42.578,-22.57
42.593,-25.73
42.609,-28.84
42.625,-32.33
42.640,-36.43
42.656,-41.28
42.671,-46.74
42.687,-52.33
42.703,-57.37
42.718,-61.01
42.734,-62.34
42.750,-60.71
42.765,-55.8
42.781,-47.82
42.796,-37.48
42.812,-25.79
42.828,-13.87
42.843,-2.65
42.859,7.32
42.875,15.88
42.890,23.13
42.906,29.3
42.921,34.49
42.937,38.7
42.953,41.87
42.968,43.9
42.984,44.74
43.000,44.53
43.015,43.38
43.031,41.46
43.046,38.98
43.062,36.13
43.078,33.08
43.093,30.15
43.109,27.59
43.125,25.48
43.140,23.9
43.156,22.64
43.171,21.44
43.187,20.05
43.203,18.35
43.218,16.27
43.234,13.96
43.250,11.59
43.265,9.19
43.281,6.78
43.296,4.07
43.312,0.8
43.328,-3.21
43.343,-7.89
43.359,-13.05
43.375,-18.27
43.390,-23.28
43.406,-27.99
43.421,-32.56
43.437,-37.38
43.453,-42.68
43.468,-48.41
43.484,-54.06
43.500,-58.91
43.515,-61.98
43.531,-62.47
43.546,-59.83
43.562,-53.9
43.578,-45.11
43.593,-34.21
43.609,-22.18
43.625,-10.03
43.640,1.38
43.656,11.53
43.671,20.14
43.687,27.22
43.703,32.97
43.718,37.52
43.734,41.14
43.750,43.95
43.765,46.05
43.781,47.43
43.796,48.08
43.812,47.78
43.828,46.53
43.843,44.4
43.859,41.5
43.875,38.23
43.890,34.9
43.906,31.78
43.921,29.05
43.937,26.78
43.953,24.73
43.968,22.8
43.984,20.89
44.000,18.79
44.015,16.55
44.031,14.01
44.046,11.13
44.062,7.89
44.078,4.37
44.093,0.64
44.109,-3.17
44.125,-6.83
44.140,-10.32
44.156,-13.52
44.171,-16.65
44.187,-19.92
44.203,-23.52
44.218,-27.67
44.234,-32.44
44.250,-37.8
44.265,-43.49
44.281,-49.06
44.296,-53.66
44.312,-56.52
44.328,-56.79
44.343,-53.89
44.359,-47.84
44.375,-39.08
44.390,-28.56
44.406,-17.35
44.421,-6.48
44.437,3.6
44.453,12.53
44.468,20.32
44.484,27.02
44.500,32.54
44.515,36.89
44.531,40.01
44.546,41.91
44.562,42.56
44.578,42.07
44.593,40.51
44.609,38.05
44.625,35.04
44.640,31.79
44.656,28.72
44.671,26.09
44.687,23.96
44.703,22.24
44.718,20.78
44.734,19.46
44.750,18.22
44.765,17.04
44.781,15.76
44.796,14.24
44.812,12.34
44.828,9.96
44.843,7.05
44.859,3.71
44.875,0.04
44.890,-3.88
44.906,-8.01
44.921,-12.39
44.937,-16.96
44.953,-21.66
44.968,-26.4
44.984,-31.19
45.000,-36.14
45.015,-41.44
45.031,-47.24
45.046,-53.36
45.062,-59.2
45.078,-63.74
45.093,-65.79
45.109,-64.48
45.125,-59.46
45.140,-51.09
45.156,-40.31
45.171,-28.29
45.187,-16.09
45.203,-4.54
45.218,5.92
45.234,15.06
45.250,22.79
45.265,29.11
45.281,34.16
45.296,38.09
45.312,41.23
45.328,43.84
45.343,45.81
45.359,46.93
45.375,46.87
45.390,45.37
45.406,42.63
45.421,39.17
45.437,35.67
45.453,32.71
45.468,30.58
45.484,29.04
45.500,27.72
45.515,26.2
45.531,24.34
45.546,22.28
45.562,20.25
45.578,18.39
45.593,16.64
45.609,14.78
45.625,12.4
45.640,9.36
45.656,5.53
45.671,1.01
45.687,-3.95
45.703,-9.22
45.718,-14.57
45.734,-19.89
45.750,-25.08
45.765,-30.16
45.781,-35.12
45.796,-40.16
45.812,-45.49
45.828,-51.12
45.843,-56.91
45.859,-62.29
45.875,-66.26
45.890,-67.75
45.906,-65.88
45.921,-60.36
45.937,-51.59
45.953,-40.52
45.968,-28.27
45.984,-15.9
46.000,-4.18
46.015,6.43
46.031,15.66
46.046,23.46
46.062,29.8
46.078,34.85
46.093,38.94
46.109,42.4
46.125,45.34
46.140,47.68
46.156,49.14
46.171,49.47
46.187,48.59
46.203,46.59
46.218,43.74
46.234,40.43
46.250,37.06
46.265,34.01
46.281,31.56
46.296,29.78
46.312,28.54
46.328,27.55
46.343,26.38
46.359,24.69
46.375,22.41
46.390,19.6
46.406,16.49
46.421,13.19
46.437,9.7
46.453,5.86
46.468,1.54
46.484,-3.19
46.500,-8.21
46.515,-13.29
46.531,-18.28
46.546,-23.16
46.562,-28.0
46.578,-32.8
46.593,-37.54
46.609,-42.25
46.625,-46.97
46.640,-51.84
46.656,-56.93
46.671,-61.98
46.687,-66.35
46.703,-68.97
46.718,-68.78
46.734,-64.99
46.750,-57.59
46.765,-47.28
46.781,-35.22
46.796,-22.73
46.812,-10.74
46.828,0.18
46.843,9.96
46.859,18.56
46.875,26.07
46.890,32.35
46.906,37.39
46.921,41.25
46.937,44.06
46.953,46.03
46.968,47.09
46.984,47.11
47.000,45.9
47.015,43.45
47.031,40.01
47.046,36.27
47.062,32.86
47.078,30.3
47.093,28.82
47.109,28.16
47.125,27.92
47.140,27.71
47.156,27.12
47.171,25.93
47.187,24.12
47.203,21.66
47.218,18.6
47.234,15.08
47.250,11.13
47.265,6.83
47.281,2.25
47.296,-2.58
47.312,-7.55
47.328,-12.41
47.343,-16.97
47.359,-21.12
47.375,-24.9
47.390,-28.6
47.406,-32.54
47.421,-37.13
47.437,-42.53
47.453,-48.56
47.468,-54.69
47.484,-60.11
47.500,-63.85
47.515,-64.94
47.531,-62.84
47.546,-57.31
47.562,-48.77
47.578,-38.04
47.593,-26.05
47.609,-13.75
47.625,-1.93
47.640,8.85
47.656,18.23
47.671,25.96
47.687,32.0
47.703,36.45
47.718,39.48
47.734,41.34
47.750,42.23
47.765,42.23
47.781,41.46
47.796,40.06
47.812,38.14
47.828,35.92
47.843,33.52
47.859,31.0
47.875,28.39
47.890,25.72
47.906,23.13
47.921,20.72
47.937,18.56
47.953,16.55
47.968,14.6
47.984,12.58
48.000,10.4
48.015,8.11
48.031,5.68
48.046,3.1
48.062,0.24
48.078,-3.14
48.093,-7.19
48.109,-11.81
48.125,-16.64
48.140,-21.45
48.156,-26.05
48.171,-30.48
48.187,-34.99
48.203,-39.8
48.218,-45.12
48.234,-50.85
48.250,-56.62
48.265,-61.63
48.281,-65.05
48.296,-65.98
48.312,-63.82
48.328,-58.34
48.343,-49.77
48.359,-38.92
48.375,-26.74
48.390,-14.38
48.406,-2.72
48.421,7.58
48.437,16.27
48.453,23.31
48.468,28.83
48.484,33.1
48.500,36.28
48.515,38.6
48.531,40.06
48.546,40.67
48.562,40.36
48.578,39.19
48.593,37.27
48.609,34.72
48.625,31.89
48.640,29.01
48.656,26.38
48.671,24.12
48.687,22.3
48.703,20.8
48.718,19.4
48.734,17.91
48.750,16.09
48.765,13.96
48.781,11.63
48.796,9.36
48.812,7.25
48.828,5.3
48.843,3.38
48.859,1.14
48.875,-1.66
48.890,-5.18
48.906,-9.3
48.921,-13.85
48.937,-18.57
48.953,-23.38
48.968,-28.31
48.984,-33.46
49.000,-39.1
49.015,-45.38
49.031,-52.23
49.046,-59.2
49.062,-65.42
49.078,-69.82
49.093,-71.31
49.109,-69.22
49.125,-63.4
49.140,-54.38
49.156,-43.15
49.171,-30.85
49.187,-18.35
49.203,-6.27
49.218,4.98
49.234,15.16
49.250,24.01
49.265,31.37
49.281,37.17
49.296,41.56
49.312,44.63
49.328,46.56
49.343,47.43
49.359,47.26
49.375,46.1
49.390,44.04
49.406,41.35
49.421,38.35
49.437,35.45
49.453,32.88
49.468,30.76
49.484,29.13
49.500,27.92
49.515,26.99
49.531,26.13
49.546,25.09
49.562,23.63
49.578,21.74
49.593,19.38
49.609,16.61
49.625,13.44
49.640,9.9
49.656,5.87
49.671,1.35
49.687,-3.61
49.703,-8.89
49.718,-14.29
49.734,-19.64
49.750,-24.92
49.765,-30.18
49.781,-35.46
49.796,-40.85
49.812,-46.43
49.828,-52.21
49.843,-57.99
49.859,-63.32
49.875,-67.36
49.890,-69.2
49.906,-67.99
49.921,-63.3
49.937,-55.34
49.953,-44.85
49.968,-32.97
49.984,-20.74
50.000,-8.89
50.015,2.09
50.031,12.1
50.046,21.07
50.062,28.92
50.078,35.62
50.093,41.12
50.109,45.35
50.125,48.3
50.140,50.1
50.156,50.74
50.171,50.35
50.187,49.05
50.203,46.93
50.218,44.24
50.234,41.32
50.250,38.44
50.265,35.82
50.281,33.69
50.296,31.93
50.312,30.42
50.328,28.9
50.343,27.07
50.359,24.78
50.375,22.05
50.390,19.0
50.406,15.75
50.421,12.46
50.437,9.12
50.453,5.65
50.468,1.87
50.484,-2.3
50.500,-6.8
50.515,-11.51
50.531,-16.2
50.546,-20.72
50.562,-25.06
50.578,-29.43
50.593,-34.04
50.609,-39.16
50.625,-44.93
50.640,-51.18
50.656,-57.53
50.671,-63.34
50.687,-67.7
50.703,-69.64
50.718,-68.4
50.734,-63.51
50.750,-55.17
50.765,-44.23
50.781,-31.81
50.796,-19.18
50.812,-7.32
50.828,3.26
50.843,12.45
50.859,20.4
50.875,27.36
50.890,33.42
50.906,38.53
50.921,42.62
50.937,45.58
50.953,47.39
50.968,48.07
50.984,47.69
51.000,46.36
51.015,44.33
51.031,41.86
51.046,39.33
51.062,37.23
51.078,35.73
51.093,34.86
51.109,34.35
51.125,33.78
51.140,32.77
51.156,31.19
51.171,29.07
51.187,26.58
51.203,23.95
51.218,21.24
51.234,18.44
51.250,15.42
51.265,12.08
51.281,8.28
51.296,4.1
51.312,-0.42
51.328,-5.06
51.343,-9.63
51.359,-14.02
51.375,-18.16
51.390,-22.12
51.406,-26.03
51.421,-30.16
51.437,-34.58
51.453,-39.32
51.468,-44.05
51.484,-48.05
51.500,-50.44
51.515,-50.25
51.531,-46.99
51.546,-40.66
51.562,-31.91
51.578,-21.63
51.593,-10.85
51.609,-0.33
51.625,9.43
51.640,18.09
51.656,25.55
51.671,31.66
51.687,36.46
51.703,39.97
51.718,42.36
51.734,43.74
51.750,44.18
51.765,43.74
51.781,42.4
51.796,40.25
51.812,37.39
51.828,34.0
51.843,30.28
51.859,26.43
51.875,22.69
51.890,19.21
51.906,16.17
51.921,13.58
51.937,11.45
51.953,9.59
51.968,7.72
51.984,5.56
52.000,2.91
52.015,-0.21
52.031,-3.65
52.046,-7.19
52.062,-10.64
52.078,-13.92
52.093,-17.13
52.109,-20.47
52.125,-24.11
52.140,-28.08
52.156,-32.25
52.171,-36.45
52.187,-40.69
52.203,-45.11
52.218,-49.96
52.234,-55.42
52.250,-61.28
52.265,-66.71
52.281,-70.45
52.296,-71.19
52.312,-68.01
52.328,-60.86
52.343,-50.54
52.359,-38.34
52.375,-25.7
52.390,-13.62
52.406,-2.59
52.421,7.2
52.437,15.8
52.453,23.19
52.468,29.26
52.484,33.96
52.500,37.47
52.515,39.97
52.531,41.82
52.546,43.21
52.562,44.09
52.578,44.26
52.593,43.54
52.609,41.95
52.625,39.77
52.640,37.45
52.656,35.35
52.671,33.72
52.687,32.49
52.703,31.49
52.718,30.43
52.734,29.18
52.750,27.63
52.765,25.86
52.781,23.91
52.796,21.75
52.812,19.31
52.828,16.42
52.843,12.9
52.859,8.71
52.875,3.96
52.890,-1.11
52.906,-6.1
52.921,-10.76
52.937,-14.89
52.953,-18.54
52.968,-22.01
52.984,-25.76
53.000,-30.25
53.015,-35.74
53.031,-42.17
53.046,-49.04
53.062,-55.47
53.078,-60.38
53.093,-62.66
53.109,-61.62
53.125,-57.04
53.140,-49.32
53.156,-39.3
53.171,-28.03
53.187,-16.56
53.203,-5.6
53.218,4.35
53.234,13.16
53.250,20.71
53.265,26.91
53.281,31.72
53.296,35.15
53.312,37.37
53.328,38.62
53.343,39.19
53.359,39.17
53.375,38.62
53.390,37.45
53.406,35.72
53.421,33.51
53.437,31.14
53.453,29.04
53.468,27.49
53.484,26.64
53.500,26.25
53.515,25.93
53.531,25.24
53.546,23.96
53.562,21.98
53.578,19.39
53.593,16.41
53.609,13.16
53.625,9.71
53.640,5.99
53.656,2.01
53.671,-2.29
53.687,-6.71
53.703,-11.07
53.718,-15.3
53.734,-19.33
53.750,-23.28
53.765,-27.33
53.781,-31.73
53.796,-36.64
53.812,-42.21
53.828,-48.4
53.843,-54.89
53.859,-61.24
53.875,-66.71
53.890,-70.49
53.906,-71.7
53.921,-69.75
53.937,-64.49
53.953,-56.3
53.968,-45.98
53.984,-34.52
54.000,-22.85
54.015,-11.67
54.031,-1.54
54.046,7.37
54.062,15.02
54.078,21.37
54.093,26.38
54.109,30.02
54.125,32.28
54.140,33.05
54.156,32.43
54.171,30.41
54.187,27.18
54.203,22.99
54.218,18.19
54.234,13.08
54.250,8.04
54.265,3.36
54.281,-0.74
54.296,-4.01
54.312,-6.39
54.328,-7.85
54.343,-8.49
54.359,-8.36
54.375,-7.59
54.390,-6.29
54.406,-4.52
54.421,-2.42
54.437,-0.1
54.453,2.19
54.468,4.34
54.484,6.15
54.500,7.65
54.515,8.99
54.531,10.22
54.546,11.31
54.562,12.11
54.578,12.36
54.593,11.72
54.609,9.86
54.625,6.61
54.640,1.84
54.656,-4.15
54.671,-10.75
54.687,-17.01
54.703,-21.87
54.718,-24.12
54.734,-23.06
54.750,-18.71
54.765,-11.71
54.781,-3.3
54.796,5.26
54.812,12.89
54.828,19.04
54.843,23.43
54.859,26.25
54.875,27.87
54.890,28.66
54.906,29.11
54.921,29.52
54.937,30.26
54.953,31.39
54.968,32.96
54.984,34.67
55.000,36.13
55.015,36.94
55.031,36.94
55.046,36.33
55.062,35.55
55.078,35.21
55.093,35.71
55.109,37.22
55.125,39.53
55.140,42.17
55.156,44.51
55.171,46.13
55.187,46.84
55.203,46.43
55.218,44.72
55.234,41.47
55.250,36.38
55.265,29.43
55.281,20.93
55.296,11.48
55.312,1.87
55.328,-6.99
55.343,-14.62
55.359,-20.87
55.375,-26.07
55.390,-30.77
55.406,-35.48
55.421,-40.46
55.437,-45.59
55.453,-50.36
55.468,-53.96
55.484,-55.63
55.500,-54.68
55.515,-50.85
55.531,-44.37
55.546,-35.8
55.562,-25.95
55.578,-15.6
55.593,-5.51
55.609,3.78
55.625,11.85
55.640,18.47
55.656,23.52
55.671,26.97
55.687,28.94
55.703,29.59
55.718,29.21
55.734,28.0
55.750,26.05
55.765,23.35
55.781,20.03
55.796,16.37
55.812,12.72
55.828,9.61
55.843,7.44
55.859,6.43
55.875,6.6
55.890,7.72
55.906,9.33
55.921,10.99
55.937,12.3
55.953,13.0
55.968,12.96
55.984,12.1
56.000,10.41
56.015,7.92
56.031,4.57
56.046,0.31
56.062,-4.76
56.078,-10.44
56.093,-16.37
56.109,-22.14
56.125,-27.37
56.140,-31.93
56.156,-35.85
56.171,-39.47
56.187,-43.19
56.203,-47.33
56.218,-51.92
56.234,-56.63
56.250,-60.72
56.265,-63.32
56.281,-63.53
56.296,-60.87
56.312,-55.31
56.328,-47.51
56.343,-38.36
56.359,-29.0
56.375,-20.27
56.390,-12.55
56.406,-5.92
56.421,-0.13
56.437,5.11
56.453,10.04
56.468,14.7
56.484,19.11
56.500,23.11
56.515,26.62
56.531,29.49
56.546,31.46
56.562,32.41
56.578,32.25
56.593,31.23
56.609,29.69
56.625,28.18
56.640,27.04
56.656,26.49
56.671,26.36
56.687,26.18
56.703,25.4
56.718,23.62
56.734,20.81
56.750,17.17
56.765,13.13
56.781,9.1
56.796,5.32
56.812,1.88
56.828,-1.39
56.843,-4.61
56.859,-7.97
56.875,-11.61
56.890,-15.52
56.906,-19.58
56.921,-23.54
56.937,-27.21
56.953,-30.42
56.968,-33.37
56.984,-36.42
57.000,-39.99
57.015,-44.44
57.031,-49.78
57.046,-55.45
57.062,-60.52
57.078,-63.82
57.093,-64.24
57.109,-61.15
57.125,-54.45
57.140,-44.66
57.156,-32.73
57.171,-19.79
57.187,-6.85
57.203,5.29
57.218,16.11
57.234,25.31
57.250,32.75
57.265,38.46
57.281,42.6
57.296,45.38
57.312,47.06
57.328,47.74
57.343,47.45
57.359,46.14
57.375,43.8
57.390,40.56
57.406,36.68
57.421,32.5
57.437,28.38
57.453,24.57
57.468,21.12
57.484,17.95
57.500,15.1
57.515,12.64
57.531,10.72
57.546,9.58
57.562,9.14
57.578,9.18
57.593,9.28
57.609,8.93
57.625,7.72
57.640,5.55
57.656,2.55
57.671,-1.02
57.687,-4.77
57.703,-8.49
57.718,-12.21
57.734,-15.97
57.750,-20.05
57.765,-24.63
57.781,-29.88
57.796,-35.76
57.812,-42.12
57.828,-48.5
57.843,-54.22
57.859,-58.51
57.875,-60.47
57.890,-59.51
57.906,-55.3
57.921,-48.16
57.937,-38.78
57.953,-28.23
57.968,-17.51
57.984,-7.41
58.000,1.61
58.015,9.46
58.031,16.15
58.046,21.91
58.062,26.81
58.078,30.93
58.093,34.2
58.109,36.69
58.125,38.31
58.140,39.04
58.156,38.86
58.171,37.72
58.187,35.73
58.203,33.05
58.218,29.96
58.234,26.78
58.250,23.92
58.265,21.68
58.281,20.16
58.296,19.34
58.312,18.83
58.328,18.17
58.343,16.99
58.359,15.09
58.375,12.38
58.390,9.0
58.406,5.15
58.421,0.97
58.437,-3.34
58.453,-7.69
58.468,-12.06
58.484,-16.34
58.500,-20.43
58.515,-24.34
58.531,-28.06
58.546,-31.64
58.562,-35.3
58.578,-39.17
58.593,-43.5
58.609,-48.31
58.625,-53.18
58.640,-57.32
58.656,-59.73
58.671,-59.57
58.687,-56.37
58.703,-50.37
58.718,-42.2
58.734,-32.8
58.750,-23.07
58.765,-13.63
58.781,-4.88
58.796,3.09
58.812,10.28
58.828,16.79
58.843,22.66
58.859,27.94
58.875,32.54
58.890,36.19
58.906,38.61
58.921,39.58
58.937,38.99
58.953,37.12
58.968,34.32
58.984,31.05
59.000,27.72
59.015,24.59
59.031,21.78
59.046,19.32
59.062,17.28
59.078,15.67
59.093,14.53
59.109,13.73
59.125,13.07
59.140,12.21
59.156,10.86
59.171,8.74
59.187,5.81
59.203,2.14
59.218,-2.07
59.234,-6.5
59.250,-10.88
59.265,-15.01
59.281,-18.73
59.296,-22.03
59.312,-25.02
59.328,-27.92
59.343,-31.06
59.359,-34.77
59.375,-39.23
59.390,-44.37
59.406,-49.82
59.421,-54.81
59.437,-58.4
59.453,-59.58
59.468,-57.66
59.484,-52.41
59.500,-44.17
59.515,-33.74
59.531,-22.13
59.546,-10.33
59.562,0.92
59.578,11.23
59.593,20.46
59.609,28.51
59.625,35.27
59.640,40.53
59.656,44.15
59.671,46.13
59.687,46.68
59.703,46.14
59.718,44.81
59.734,42.85
59.750,40.27
59.765,37.07
59.781,33.39
59.796,29.58
59.812,26.12
59.828,23.38
59.843,21.49
59.859,20.3
59.875,19.33
59.890,18.11
59.906,16.25
59.921,13.66
59.937,10.5
59.953,7.02
59.968,3.46
59.984,-0.08
