timestamp,value
00.000,2.82
00.015,9.43
00.031,14.68
00.046,18.13
00.062,19.61
00.078,19.32
00.093,17.78
00.109,15.69
00.125,13.85
00.140,12.67
00.156,12.15
00.171,11.81
00.187,11.0
00.203,9.04
00.218,5.51
00.234,0.48
00.250,-5.55
00.265,-11.58
00.281,-16.44
00.296,-19.04
00.312,-18.9
00.328,-16.4
00.343,-12.82
00.359,-9.8
00.375,-8.56
00.390,-9.36
00.406,-11.44
00.421,-13.66
00.437,-15.07
00.453,-15.59
00.468,-15.81
00.484,-16.64
00.500,-18.7
00.515,-21.99
00.531,-25.98
00.546,-29.9
00.562,-33.1
00.578,-35.17
00.593,-35.91
00.609,-35.31
00.625,-33.49
00.640,-30.54
00.656,-26.62
00.671,-21.83
00.687,-16.18
00.703,-9.6
00.718,-2.11
00.734,5.92
00.750,13.71
00.765,20.11
00.781,24.05
00.796,25.04
00.812,23.52
00.828,20.95
00.843,19.4
00.859,20.63
00.875,25.21
00.890,32.18
00.906,39.45
00.921,44.81
00.937,46.93
00.953,45.92
00.968,43.08
00.984,40.01
01.000,37.83
01.015,36.66
01.031,35.93
01.046,34.93
01.062,33.42
01.078,31.64
01.093,29.94
01.109,28.4
01.125,26.4
01.140,23.1
01.156,17.83
01.171,10.79
01.187,3.07
01.203,-3.73
01.218,-8.41
01.234,-10.83
01.250,-11.89
01.265,-13.18
01.281,-15.99
01.296,-20.48
01.312,-25.51
01.328,-29.29
01.343,-30.31
01.359,-28.21
01.375,-23.91
01.390,-19.02
01.406,-14.99
01.421,-12.44
01.437,-11.05
01.453,-9.91
01.468,-8.36
01.484,-6.42
01.500,-4.88
01.515,-4.71
01.531,-6.28
01.546,-8.94
01.562,-10.99
01.578,-10.46
01.593,-6.1
01.609,2.06
01.625,12.59
01.640,23.32
01.656,32.15
01.671,37.82
01.687,40.07
01.703,39.56
01.718,37.15
01.734,33.51
01.750,29.01
01.765,23.71
01.781,17.71
01.796,11.08
01.812,3.98
01.828,-3.37
01.843,-10.71
01.859,-17.72
01.875,-24.07
01.890,-29.53
01.906,-34.09
01.921,-37.93
01.937,-41.39
01.953,-44.77
01.968,-48.17
01.984,-51.49
02.000,-54.39
02.015,-56.46
02.031,-57.16
02.046,-56.16
02.062,-53.28
02.078,-48.57
02.093,-42.33
02.109,-34.93
02.125,-26.82
02.140,-18.34
02.156,-9.97
02.171,-2.22
02.187,4.24
02.203,8.87
02.218,11.5
02.234,12.46
02.250,12.5
02.265,12.47
02.281,13.05
02.296,14.52
02.312,16.98
02.328,20.4
02.343,24.69
02.359,29.69
02.375,34.82
02.390,39.22
02.406,41.98
02.421,42.45
02.437,40.61
02.453,37.11
02.468,32.95
02.484,29.09
02.500,26.22
02.515,24.42
02.531,23.46
02.546,22.87
02.562,22.12
02.578,20.82
02.593,18.74
02.609,15.79
02.625,11.94
02.640,7.16
02.656,1.3
02.671,-5.62
02.687,-13.29
02.703,-20.97
02.718,-27.54
02.734,-31.84
02.750,-33.02
02.765,-30.97
02.781,-26.27
02.796,-19.94
02.812,-13.0
02.828,-6.09
02.843,0.58
02.859,7.17
02.875,13.76
02.890,20.17
02.906,25.81
02.921,30.02
02.937,32.33
02.953,32.89
02.968,32.36
02.984,31.68
03.000,31.61
03.015,32.35
03.031,33.37
03.046,33.81
03.062,32.98
03.078,30.78
03.093,27.81
03.109,25.04
03.125,23.4
03.140,23.27
03.156,24.44
03.171,26.25
03.187,27.98
03.203,28.99
03.218,28.83
03.234,27.18
03.250,23.9
03.265,19.02
03.281,12.72
03.296,5.5
03.312,-2.08
03.328,-9.53
03.343,-16.56
03.359,-23.06
03.375,-28.95
03.390,-33.86
03.406,-37.22
03.421,-38.48
03.437,-37.38
03.453,-34.22
03.468,-29.8
03.484,-24.95
03.500,-20.24
03.515,-15.68
03.531,-10.87
03.546,-5.37
03.562,0.9
03.578,7.57
03.593,13.9
03.609,19.08
03.625,22.62
03.640,24.42
03.656,24.81
03.671,24.31
03.687,23.4
03.703,22.52
03.718,22.05
03.734,22.34
03.750,23.73
03.765,26.37
03.781,30.04
03.796,34.06
03.812,37.38
03.828,38.89
03.843,37.99
03.859,34.83
03.875,30.3
03.890,25.72
03.906,22.11
03.921,19.75
03.937,18.04
03.953,15.86
03.968,12.01
03.984,5.74
04.000,-3.2
04.015,-14.62
04.031,-28.0
04.046,-42.58
04.062,-57.28
04.078,-70.77
04.093,-81.33
04.109,-87.41
04.125,-87.99
04.140,-82.93
04.156,-72.98
04.171,-59.5
04.187,-44.11
04.203,-28.29
04.218,-13.2
04.234,0.33
04.250,11.78
04.265,20.85
04.281,27.44
04.296,31.76
04.312,34.3
04.328,35.85
04.343,37.2
04.359,38.95
04.375,41.28
04.390,43.97
04.406,46.45
04.421,48.07
04.437,48.25
04.453,46.67
04.468,43.29
04.484,38.32
04.500,32.23
04.515,25.71
04.531,19.71
04.546,15.12
04.562,12.64
04.578,12.44
04.593,14.07
04.609,16.58
04.625,18.8
04.640,19.74
04.656,18.86
04.671,16.12
04.687,11.9
04.703,6.76
04.718,1.26
04.734,-4.23
04.750,-9.58
04.765,-14.76
04.781,-19.76
04.796,-24.35
04.812,-28.16
04.828,-30.71
04.843,-31.84
04.859,-31.81
04.875,-31.46
04.890,-31.89
04.906,-33.95
04.921,-37.79
04.937,-42.7
04.953,-47.29
04.968,-49.99
04.984,-49.68
05.000,-45.93
05.015,-39.22
05.031,-30.45
05.046,-20.77
05.062,-11.11
05.078,-2.26
05.093,5.29
05.109,11.29
05.125,15.7
05.140,18.92
05.156,21.43
05.171,23.59
05.187,25.33
05.203,26.04
05.218,24.84
05.234,21.33
05.250,16.01
05.265,10.25
05.281,6.04
05.296,4.86
05.312,7.1
05.328,11.9
05.343,17.62
05.359,22.6
05.375,25.79
05.390,26.84
05.406,25.73
05.421,22.65
05.437,17.81
05.453,11.6
05.468,4.73
05.484,-1.9
05.500,-7.63
05.515,-12.3
05.531,-16.21
05.546,-19.99
05.562,-23.88
05.578,-27.73
05.593,-31.02
05.609,-33.18
05.625,-34.01
05.640,-33.74
05.656,-32.86
05.671,-31.64
05.687,-30.13
05.703,-27.83
05.718,-24.37
05.734,-19.65
05.750,-14.03
05.765,-8.38
05.781,-3.8
05.796,-1.05
05.812,-0.4
05.828,-1.41
05.843,-3.08
05.859,-4.39
05.875,-4.49
05.890,-3.01
05.906,-0.18
05.921,3.52
05.937,7.58
05.953,11.63
05.968,15.43
05.984,18.86
06.000,21.73
06.015,23.82
06.031,25.01
06.046,25.24
06.062,24.71
06.078,23.65
06.093,22.21
06.109,20.19
06.125,17.4
06.140,13.76
06.156,9.54
06.171,5.34
06.187,1.73
06.203,-1.1
06.218,-3.44
06.234,-5.89
06.250,-8.88
06.265,-12.18
06.281,-14.95
06.296,-16.2
06.312,-15.4
06.328,-13.04
06.343,-10.43
06.359,-9.07
06.375,-9.76
06.390,-12.13
06.406,-14.83
06.421,-16.24
06.437,-15.24
06.453,-11.72
06.468,-6.41
06.484,-0.48
06.500,4.97
06.515,9.29
06.531,12.27
06.546,14.02
06.562,14.71
06.578,14.64
06.593,14.18
06.609,13.77
06.625,13.86
06.640,14.64
06.656,15.95
06.671,17.25
06.687,17.87
06.703,17.21
06.718,14.98
06.734,11.31
06.750,6.57
06.765,1.33
06.781,-3.76
06.796,-8.05
06.812,-10.93
06.828,-11.9
06.843,-10.87
06.859,-8.22
06.875,-4.86
06.890,-1.88
06.906,-0.3
06.921,-0.55
06.937,-2.54
06.953,-5.87
06.968,-10.03
06.984,-14.71
07.000,-19.75
07.015,-24.85
07.031,-29.43
07.046,-32.67
07.062,-33.77
07.078,-32.29
07.093,-28.41
07.109,-22.79
07.125,-16.32
07.140,-9.91
07.156,-4.17
07.171,0.49
07.187,3.87
07.203,5.89
07.218,6.67
07.234,6.43
07.250,5.68
07.265,4.98
07.281,4.86
07.296,5.65
07.312,7.27
07.328,9.39
07.343,11.42
07.359,12.93
07.375,13.67
07.390,13.92
07.406,14.06
07.421,14.55
07.437,15.57
07.453,16.86
07.468,17.92
07.484,18.26
07.500,17.73
07.515,16.64
07.531,15.58
07.546,14.99
07.562,14.83
07.578,14.56
07.593,13.36
07.609,10.48
07.625,5.76
07.640,-0.34
07.656,-6.74
07.671,-12.25
07.687,-15.84
07.703,-17.06
07.718,-16.05
07.734,-13.48
07.750,-10.38
07.765,-7.91
07.781,-7.06
07.796,-8.41
07.812,-12.03
07.828,-17.27
07.843,-22.96
07.859,-27.61
07.875,-29.98
07.890,-29.31
07.906,-25.95
07.921,-21.03
07.937,-16.11
07.953,-12.57
07.968,-11.02
07.984,-11.16
08.000,-12.01
08.015,-12.47
08.031,-11.67
08.046,-9.24
08.062,-5.13
08.078,0.41
08.093,7.02
08.109,14.09
08.125,20.92
08.140,26.76
08.156,31.16
08.171,33.94
08.187,35.26
08.203,35.41
08.218,34.54
08.234,32.8
08.250,30.48
08.265,28.05
08.281,26.02
08.296,24.67
08.312,23.74
08.328,22.48
08.343,20.04
08.359,15.87
08.375,10.03
08.390,3.12
08.406,-4.14
08.421,-11.37
08.437,-18.51
08.453,-25.59
08.468,-32.44
08.484,-38.46
08.500,-42.84
08.515,-44.92
08.531,-44.62
08.546,-42.56
08.562,-39.77
08.578,-37.15
08.593,-35.06
08.609,-33.24
08.625,-31.15
08.640,-28.48
08.656,-25.34
08.671,-22.3
08.687,-19.9
08.703,-18.22
08.718,-16.77
08.734,-14.91
08.750,-12.19
08.765,-8.65
08.781,-4.81
08.796,-1.1
08.812,2.36
08.828,5.99
08.843,10.36
08.859,15.65
08.875,21.3
08.890,26.2
08.906,29.34
08.921,30.34
08.937,29.81
08.953,28.93
08.968,28.78
08.984,29.77
09.000,31.32
09.015,32.29
09.031,31.52
09.046,28.69
09.062,24.4
09.078,20.12
09.093,17.48
09.109,17.48
09.125,20.06
09.140,24.03
09.156,27.56
09.171,28.73
09.187,26.48
09.203,20.75
09.218,12.73
09.234,4.16
09.250,-3.25
09.265,-8.3
09.281,-10.63
09.296,-10.46
09.312,-8.35
09.328,-4.93
09.343,-1.0
09.359,2.53
09.375,4.64
09.390,4.33
09.406,1.25
09.421,-4.1
09.437,-10.31
09.453,-15.53
09.468,-18.24
09.484,-17.86
09.500,-14.79
09.515,-10.17
09.531,-5.35
09.546,-1.32
09.562,1.52
09.578,3.35
09.593,4.76
09.609,6.47
09.625,8.97
09.640,12.35
09.656,16.16
09.671,19.42
09.687,21.16
09.703,20.8
09.718,18.58
09.734,15.52
09.750,12.89
09.765,11.48
09.781,11.19
09.796,11.11
09.812,9.93
09.828,6.58
09.843,0.62
09.859,-7.82
09.875,-18.1
09.890,-29.34
09.906,-40.38
09.921,-49.96
09.937,-56.93
09.953,-60.49
09.968,-60.55
09.984,-57.64
10.000,-52.66
10.015,-46.52
10.031,-39.96
10.046,-33.51
10.062,-27.67
10.078,-23.11
10.093,-20.3
10.109,-19.45
10.125,-20.12
10.140,-21.41
10.156,-22.26
10.171,-21.81
10.187,-19.54
10.203,-15.27
10.218,-9.24
10.234,-2.03
10.250,5.33
10.265,11.64
10.281,15.77
10.296,17.22
10.312,16.45
10.328,14.86
10.343,14.29
10.359,16.29
10.375,21.46
10.390,29.07
10.406,37.49
10.421,44.7
10.437,49.08
10.453,49.87
10.468,47.29
10.484,42.35
10.500,36.4
10.515,30.65
10.531,25.9
10.546,22.43
10.562,20.17
10.578,18.67
10.593,17.31
10.609,15.25
10.625,11.75
10.640,6.47
10.656,-0.38
10.671,-7.99
10.687,-15.39
10.703,-21.81
10.718,-27.05
10.734,-31.33
10.750,-34.91
10.765,-37.6
10.781,-38.71
10.796,-37.48
10.812,-33.59
10.828,-27.66
10.843,-20.95
10.859,-15.0
10.875,-10.71
10.890,-8.2
10.906,-6.78
10.921,-5.45
10.937,-3.51
10.953,-0.67
10.968,2.8
10.984,6.48
11.000,9.88
11.015,12.76
11.031,15.01
11.046,16.63
11.062,17.66
11.078,18.17
11.093,18.37
11.109,18.53
11.125,19.02
11.140,20.14
11.156,22.01
11.171,24.58
11.187,27.66
11.203,31.01
11.218,34.39
11.234,37.52
11.250,39.86
11.265,40.8
11.281,39.92
11.296,37.24
11.312,33.4
11.328,29.4
11.343,26.1
11.359,23.64
11.375,21.32
11.390,17.88
11.406,12.38
11.421,4.6
11.437,-4.73
11.453,-14.37
11.468,-23.21
11.484,-30.55
11.500,-36.29
11.515,-40.62
11.531,-43.84
11.546,-46.01
11.562,-47.23
11.578,-47.58
11.593,-47.26
11.609,-46.5
11.625,-45.45
11.640,-44.12
11.656,-42.33
11.671,-39.89
11.687,-36.6
11.703,-32.59
11.718,-28.34
11.734,-24.6
11.750,-22.09
11.765,-21.07
11.781,-20.97
11.796,-20.53
11.812,-18.4
11.828,-13.84
11.843,-7.19
11.859,0.16
11.875,6.45
11.890,10.36
11.906,11.67
11.921,11.25
11.937,10.6
11.953,11.13
11.968,13.63
11.984,18.16
12.000,24.31
12.015,31.43
12.031,38.78
12.046,45.54
12.062,50.57
12.078,52.61
12.093,50.67
12.109,44.49
12.125,34.78
12.140,23.19
12.156,11.64
12.171,1.6
12.187,-6.39
12.203,-12.8
12.218,-18.5
12.234,-24.16
12.250,-29.84
12.265,-35.29
12.281,-40.31
12.296,-45.26
12.312,-50.88
12.328,-57.73
12.343,-65.49
12.359,-72.71
12.375,-77.44
12.390,-78.03
12.406,-73.87
12.421,-65.58
12.437,-54.63
12.453,-42.49
12.468,-30.19
12.484,-18.2
12.500,-6.58
12.515,4.62
12.531,15.18
12.546,24.86
12.562,33.38
12.578,40.52
12.593,46.03
12.609,49.67
12.625,51.38
12.640,51.52
12.656,50.97
12.671,50.8
12.687,51.75
12.703,53.77
12.718,56.04
12.734,57.32
12.750,56.75
12.765,54.18
12.781,50.34
12.796,46.27
12.812,42.84
12.828,40.23
12.843,37.85
12.859,34.71
12.875,29.88
12.890,23.0
12.906,14.51
12.921,5.49
12.937,-2.83
12.953,-9.45
12.968,-13.88
12.984,-16.17
13.000,-16.59
13.015,-15.5
13.031,-13.17
13.046,-9.98
13.062,-6.54
13.078,-3.72
13.093,-2.53
13.109,-3.75
13.125,-7.68
13.140,-14.18
13.156,-22.72
13.171,-32.58
13.187,-43.08
13.203,-53.67
13.218,-64.13
13.234,-74.72
13.250,-86.24
13.265,-99.75
13.281,-116.12
13.296,-135.55
13.312,-157.15
13.328,-179.4
13.343,-200.74
13.359,-220.27
13.375,-238.02
13.390,-254.49
13.406,-269.66
13.421,-281.99
13.437,-288.16
13.453,-283.52
13.468,-263.67
13.484,-226.18
13.500,-171.72
13.515,-104.37
13.531,-30.63
13.546,42.53
13.562,109.52
13.578,167.27
13.593,215.23
13.609,254.48
13.625,286.61
13.640,313.17
13.656,335.57
13.671,355.22
13.687,373.31
13.703,390.05
13.718,403.75
13.734,410.97
13.750,407.8
13.765,391.89
13.781,363.87
13.796,327.24
13.812,286.52
13.828,245.14
13.843,204.21
13.859,163.19
13.875,121.81
13.890,81.7
13.906,46.54
13.921,20.35
13.937,5.17
13.953,-0.38
13.968,-0.73
13.984,-1.62
14.000,-7.65
14.015,-20.87
14.031,-40.56
14.046,-64.07
14.062,-88.1
14.078,-109.7
14.093,-126.81
14.109,-138.39
14.125,-144.39
14.140,-145.26
14.156,-141.4
14.171,-132.79
14.187,-118.97
14.203,-99.66
14.218,-75.46
14.234,-48.4
14.250,-21.27
14.265,3.35
14.281,24.19
14.296,41.8
14.312,57.85
14.328,74.16
14.343,92.02
14.359,112.43
14.375,136.63
14.390,166.16
14.406,201.66
14.421,240.92
14.437,277.92
14.453,303.89
14.468,310.31
14.484,292.69
14.500,252.68
14.515,197.4
14.531,136.61
14.546,78.97
14.562,29.68
14.578,-9.64
14.593,-39.66
14.609,-61.66
14.625,-76.75
14.640,-86.07
14.656,-91.54
14.671,-96.14
14.687,-103.26
14.703,-115.97
14.718,-135.83
14.734,-162.59
14.750,-194.15
14.765,-227.22
14.781,-258.11
14.796,-283.64
14.812,-301.69
14.828,-311.24
14.843,-312.28
14.859,-305.21
14.875,-290.62
14.890,-269.28
14.906,-242.43
14.921,-212.24
14.937,-181.66
14.953,-153.82
14.968,-130.8
14.984,-112.81
15.000,-97.8
15.015,-82.43
15.031,-63.57
15.046,-39.89
15.062,-12.46
15.078,16.05
15.093,42.73
15.109,65.6
15.125,84.0
15.140,98.34
15.156,109.52
15.171,118.84
15.187,128.39
15.203,141.08
15.218,159.85
15.234,186.04
15.250,217.94
15.265,250.79
15.281,278.81
15.296,298.01
15.312,307.95
15.328,311.41
15.343,311.63
15.359,309.48
15.375,302.11
15.390,284.65
15.406,253.24
15.421,208.04
15.437,153.7
15.453,97.28
15.468,44.98
15.484,-0.62
15.500,-41.06
15.515,-80.01
15.531,-120.33
15.546,-161.74
15.562,-200.3
15.578,-229.59
15.593,-243.31
15.609,-237.6
15.625,-212.82
15.640,-173.65
15.656,-127.78
15.671,-83.64
15.687,-47.94
15.703,-24.2
15.718,-12.56
15.734,-10.85
15.750,-15.95
15.765,-25.08
15.781,-36.26
15.796,-47.95
15.812,-58.47
15.828,-65.86
15.843,-68.31
15.859,-64.92
15.875,-56.54
15.890,-45.54
15.906,-34.95
15.921,-26.97
15.937,-21.74
15.953,-17.35
15.968,-10.91
15.984,-0.31
16.000,14.52
16.015,31.63
16.031,48.52
16.046,63.69
16.062,77.33
16.078,90.72
16.093,104.32
16.109,116.49
16.125,123.59
16.140,121.52
16.156,107.73
16.171,82.57
16.187,49.09
16.203,11.48
16.218,-26.67
16.234,-63.36
16.250,-97.99
16.265,-130.3
16.281,-159.48
16.296,-184.08
16.312,-202.35
16.328,-212.99
16.343,-215.75
16.359,-211.24
16.375,-200.71
16.390,-185.64
16.406,-167.41
16.421,-147.15
16.437,-125.65
16.453,-103.39
16.468,-80.75
16.484,-58.34
16.500,-37.16
16.515,-18.74
16.531,-4.82
16.546,3.24
16.562,4.99
16.578,1.16
16.593,-6.6
16.609,-16.48
16.625,-27.32
16.640,-39.03
16.656,-52.59
16.671,-69.38
16.687,-90.21
16.703,-114.64
16.718,-140.97
16.734,-166.85
16.750,-190.09
16.765,-209.28
16.781,-223.67
16.796,-232.64
16.812,-235.26
16.828,-230.26
16.843,-216.84
16.859,-195.35
16.875,-167.54
16.890,-135.74
16.906,-101.65
16.921,-65.32
16.937,-25.18
16.953,20.93
16.968,74.25
16.984,133.91
17.000,196.6
17.015,257.31
17.031,310.69
17.046,352.31
17.062,379.89
17.078,393.62
17.093,395.84
17.109,390.03
17.125,379.35
17.140,365.44
17.156,347.85
17.171,324.71
17.187,294.0
17.203,255.1
17.218,209.38
17.234,159.69
17.250,109.38
17.265,61.18
17.281,16.57
17.296,-24.21
17.312,-61.84
17.328,-97.76
17.343,-133.81
17.359,-171.63
17.375,-212.12
17.390,-254.54
17.406,-296.0
17.421,-331.95
17.437,-357.13
17.453,-367.24
17.468,-360.52
17.484,-338.66
17.500,-306.44
17.515,-270.27
17.531,-235.61
17.546,-204.88
17.562,-176.68
17.578,-147.03
17.593,-112.02
17.609,-70.5
17.625,-25.15
17.640,18.55
17.656,54.61
17.671,78.91
17.687,90.15
17.703,89.46
17.718,79.03
17.734,60.99
17.750,37.06
17.765,9.05
17.781,-20.86
17.796,-50.39
17.812,-77.46
17.828,-100.7
17.843,-118.92
17.859,-130.53
17.875,-133.1
17.890,-123.88
17.906,-101.14
17.921,-65.53
17.937,-20.7
17.953,27.41
17.968,72.22
17.984,108.58
18.000,134.1
18.015,148.89
18.031,154.66
18.046,153.49
18.062,147.43
18.078,138.69
18.093,130.21
18.109,125.6
18.125,128.44
18.140,140.96
18.156,162.98
18.171,191.95
18.187,223.38
18.203,252.16
18.218,273.54
18.234,283.93
18.250,281.38
18.265,266.05
18.281,240.19
18.296,207.74
18.312,173.37
18.328,141.09
18.343,113.23
18.359,90.16
18.375,71.15
18.390,55.29
18.406,42.29
18.421,32.4
18.437,25.86
18.453,22.51
18.468,21.5
18.484,21.95
18.500,23.46
18.515,25.98
18.531,28.73
18.546,29.52
18.562,24.87
18.578,11.11
18.593,-13.41
18.609,-47.44
18.625,-87.3
18.640,-128.94
18.656,-169.63
18.671,-208.24
18.687,-243.76
18.703,-273.67
18.718,-294.1
18.734,-301.81
18.750,-297.49
18.765,-287.1
18.781,-280.23
18.796,-285.56
18.812,-306.03
18.828,-336.9
18.843,-367.89
18.859,-388.38
18.875,-391.92
18.890,-378.32
18.906,-351.79
18.921,-317.59
18.937,-279.03
18.953,-236.46
18.968,-188.88
18.984,-135.89
19.000,-79.21
19.015,-21.98
19.031,32.35
19.046,81.6
19.062,124.9
19.078,161.43
19.093,188.93
19.109,203.22
19.125,199.74
19.140,176.34
19.156,136.31
19.171,89.22
19.187,48.91
19.203,28.64
19.218,35.45
19.234,66.6
19.250,110.12
19.265,149.36
19.281,169.49
19.296,162.97
19.312,131.54
19.328,84.46
19.343,34.27
19.359,-7.42
19.375,-32.6
19.390,-38.03
19.406,-25.18
19.421,0.27
19.437,29.34
19.453,51.72
19.468,59.14
19.484,48.73
19.500,24.74
19.515,-2.67
19.531,-21.72
19.546,-24.15
19.562,-8.67
19.578,19.33
19.593,51.03
19.609,78.84
19.625,99.53
19.640,114.69
19.656,128.56
19.671,144.68
19.687,163.75
19.703,183.21
19.718,198.75
19.734,206.43
19.750,204.46
19.765,193.34
19.781,174.85
19.796,150.43
19.812,120.75
19.828,86.19
19.843,48.48
19.859,11.53
19.875,-19.06
19.890,-37.73
19.906,-41.43
19.921,-30.93
19.937,-10.55
19.953,13.8
19.968,36.72
19.984,55.08
20.000,68.13
20.015,76.94
20.031,83.46
20.046,89.57
20.062,96.88
20.078,106.15
20.093,117.07
20.109,127.6
20.125,133.87
20.140,130.91
20.156,114.14
20.171,81.08
20.187,32.84
20.203,-25.52
20.218,-86.13
20.234,-140.31
20.250,-181.17
20.265,-205.69
20.281,-215.23
20.296,-214.5
20.312,-209.44
20.328,-205.35
20.343,-205.44
20.359,-210.66
20.375,-220.01
20.390,-230.94
20.406,-239.88
20.421,-242.79
20.437,-236.2
20.453,-218.32
20.468,-190.24
20.484,-155.68
20.500,-119.66
20.515,-86.21
20.531,-56.24
20.546,-27.1
20.562,6.07
20.578,47.79
20.593,100.28
20.609,162.28
20.625,229.57
20.640,296.37
20.656,357.03
20.671,407.37
20.687,444.89
20.703,468.43
20.718,477.06
20.734,470.07
20.750,447.37
20.765,410.69
20.781,364.3
20.796,314.74
20.812,269.16
20.828,232.91
20.843,207.79
20.859,191.6
20.875,179.84
20.890,167.94
20.906,153.19
20.921,135.07
20.937,114.46
20.953,92.28
20.968,68.46
20.984,42.23
21.000,12.76
21.015,-20.34
21.031,-56.62
21.046,-95.0
21.062,-134.28
21.078,-173.41
21.093,-211.75
21.109,-248.87
21.125,-284.04
21.140,-315.64
21.156,-340.76
21.171,-355.85
21.187,-357.75
21.203,-345.38
21.218,-320.56
21.234,-287.6
21.250,-251.88
21.265,-217.82
21.281,-188.0
21.296,-163.39
21.312,-144.68
21.328,-133.38
21.343,-131.78
21.359,-141.77
21.375,-163.13
21.390,-192.47
21.406,-223.54
21.421,-249.11
21.437,-263.01
21.453,-261.73
21.468,-244.85
21.484,-214.05
21.500,-171.96
21.515,-121.15
21.531,-64.18
21.546,-4.47
21.562,52.57
21.578,99.48
21.593,127.96
21.609,131.4
21.625,107.38
21.640,58.98
21.656,-5.76
21.671,-76.14
21.687,-141.56
21.703,-193.76
21.718,-227.74
21.734,-241.41
21.750,-235.01
21.765,-210.2
21.781,-170.03
21.796,-118.62
21.812,-60.82
21.828,-1.47
21.843,55.39
21.859,107.0
21.875,152.0
21.890,190.01
21.906,221.19
21.921,245.64
21.937,263.33
21.953,273.98
21.968,277.6
21.984,275.06
22.000,268.53
22.015,261.0
22.031,255.39
22.046,253.64
22.062,256.15
22.078,261.84
22.093,268.53
22.109,273.59
22.125,274.37
22.140,268.8
22.156,255.88
22.171,236.21
22.187,211.95
22.203,186.16
22.218,161.54
22.234,139.23
22.250,118.3
22.265,96.5
22.281,71.76
22.296,43.79
22.312,14.44
22.328,-13.01
22.343,-35.41
22.359,-51.47
22.375,-61.97
22.390,-69.29
22.406,-76.3
22.421,-85.37
22.437,-97.57
22.453,-112.51
22.468,-128.8
22.484,-144.48
22.500,-157.94
22.515,-168.42
22.531,-176.42
22.546,-183.45
22.562,-191.28
22.578,-200.84
22.593,-211.33
22.609,-220.17
22.625,-223.73
22.640,-218.93
22.656,-204.7
22.671,-182.67
22.687,-156.61
22.703,-130.97
22.718,-109.18
22.734,-92.76
22.750,-81.13
22.765,-72.23
22.781,-63.38
22.796,-51.88
22.812,-35.71
22.828,-14.3
22.843,10.62
22.859,34.65
22.875,51.72
22.890,56.52
22.906,47.47
22.921,28.42
22.937,8.06
22.953,-3.36
22.968,1.97
22.984,26.55
23.000,67.02
23.015,116.33
23.031,167.47
23.046,216.25
23.062,261.93
23.078,305.39
23.093,346.43
23.109,381.86
23.125,405.77
23.140,411.59
23.156,395.03
23.171,356.26
23.187,299.97
23.203,233.67
23.218,164.89
23.234,98.71
23.250,36.82
23.265,-21.51
23.281,-77.66
23.296,-131.8
23.312,-182.24
23.328,-226.09
23.343,-260.5
23.359,-283.92
23.375,-296.3
23.390,-298.84
23.406,-292.78
23.421,-278.71
23.437,-256.33
23.453,-225.06
23.468,-185.34
23.484,-139.35
23.500,-91.13
23.515,-45.68
23.531,-7.25
23.546,22.24
23.562,43.72
23.578,60.17
23.593,74.92
23.609,89.9
23.625,105.05
23.640,118.74
23.656,128.86
23.671,134.0
23.687,133.87
23.703,129.02
23.718,120.29
23.734,108.38
23.750,93.85
23.765,77.36
23.781,59.94
23.796,42.66
23.812,26.49
23.828,12.18
23.843,0.21
23.859,-9.1
23.875,-15.65
23.890,-19.98
23.906,-23.55
23.921,-28.61
23.937,-37.63
23.953,-52.2
23.968,-72.16
23.984,-95.29
24.000,-117.89
24.015,-135.58
24.031,-144.7
24.046,-143.2
24.062,-131.2
24.078,-110.94
24.093,-86.13
24.109,-60.98
24.125,-39.02
24.140,-22.37
24.156,-11.3
24.171,-4.51
24.187,0.12
24.203,4.76
24.218,11.04
24.234,19.58
24.250,30.0
24.265,41.14
24.281,51.45
24.296,59.25
24.312,62.95
24.328,61.5
24.343,54.55
24.359,42.71
24.375,27.46
24.390,10.82
24.406,-5.2
24.421,-19.3
24.437,-31.27
24.453,-41.93
24.468,-52.59
24.484,-64.24
24.500,-77.18
24.515,-90.78
24.531,-103.54
24.546,-113.47
24.562,-118.57
24.578,-117.46
24.593,-109.82
24.609,-96.85
24.625,-80.86
24.640,-64.68
24.656,-50.52
24.671,-39.29
24.687,-30.46
24.703,-22.74
24.718,-14.76
24.734,-5.75
24.750,4.35
24.765,15.18
24.781,26.23
24.796,37.12
24.812,47.39
24.828,56.53
24.843,63.78
24.859,68.36
24.875,69.54
24.890,66.78
24.906,59.72
24.921,48.43
24.937,33.54
24.953,16.42
24.968,-0.98
24.984,-16.52
25.000,-28.44
25.015,-36.0
25.031,-39.96
25.046,-42.62
25.062,-47.21
25.078,-57.07
25.093,-74.18
25.109,-98.1
25.125,-125.79
25.140,-152.42
25.156,-172.95
25.171,-183.75
25.187,-183.62
25.203,-173.69
25.218,-156.65
25.234,-135.96
25.250,-114.88
25.265,-95.75
25.281,-79.56
25.296,-65.64
25.312,-51.87
25.328,-35.41
25.343,-13.66
25.359,14.8
25.375,49.86
25.390,90.36
25.406,134.65
25.421,181.06
25.437,227.62
25.453,271.42
25.468,308.23
25.484,332.99
25.500,341.01
25.515,329.66
25.531,299.4
25.546,253.63
25.562,197.53
25.578,136.28
25.593,73.9
25.609,13.02
25.625,-44.35
25.640,-95.84
25.656,-138.27
25.671,-168.21
25.687,-183.38
25.703,-183.75
25.718,-171.87
25.734,-151.99
25.750,-128.64
25.765,-105.24
25.781,-83.58
25.796,-64.04
25.812,-46.22
25.828,-29.59
25.843,-13.85
25.859,1.01
25.875,14.72
25.890,26.82
25.906,36.88
25.921,44.82
25.937,51.07
25.953,56.44
25.968,61.58
25.984,66.4
26.000,70.06
26.015,71.43
26.031,69.82
26.046,65.52
26.062,59.74
26.078,53.99
26.093,49.34
26.109,46.08
26.125,43.66
26.140,41.24
26.156,38.14
26.171,34.08
26.187,29.26
26.203,24.4
26.218,20.4
26.234,18.08
26.250,17.88
26.265,19.49
26.281,21.74
26.296,22.82
26.312,20.96
26.328,14.93
26.343,4.58
26.359,-9.35
26.375,-25.54
26.390,-42.46
26.406,-58.67
26.421,-73.01
26.437,-84.92
26.453,-94.77
26.468,-103.82
26.484,-113.86
26.500,-126.29
26.515,-140.74
26.531,-154.52
26.546,-163.04
26.562,-161.15
26.578,-145.05
26.593,-113.7
26.609,-69.31
26.625,-16.99
26.640,36.34
26.656,83.13
26.671,116.55
26.687,131.46
26.703,125.44
26.718,99.27
26.734,56.8
26.750,4.53
26.765,-49.53
26.781,-97.18
26.796,-131.56
26.812,-148.47
26.828,-147.47
26.843,-131.86
26.859,-107.68
26.875,-81.76
26.890,-59.21
26.906,-41.9
26.921,-28.72
26.937,-17.32
26.953,-6.17
26.968,4.2
26.984,11.94
27.000,15.5
27.015,15.43
27.031,14.58
27.046,16.89
27.062,25.64
27.078,42.1
27.093,65.39
27.109,93.26
27.125,123.15
27.140,152.64
27.156,179.67
27.171,202.28
27.187,218.75
27.203,227.88
27.218,229.36
27.234,223.66
27.250,211.64
27.265,194.18
27.281,171.98
27.296,145.87
27.312,117.07
27.328,87.36
27.343,58.71
27.359,32.93
27.375,11.21
27.390,-6.01
27.406,-18.74
27.421,-27.35
27.437,-32.34
27.453,-34.32
27.468,-34.01
27.484,-32.26
27.500,-30.08
27.515,-28.5
27.531,-28.51
27.546,-30.79
27.562,-35.5
27.578,-42.28
27.593,-50.35
27.609,-58.88
27.625,-67.18
27.640,-74.96
27.656,-82.15
27.671,-88.84
27.687,-95.08
27.703,-101.08
27.718,-107.37
27.734,-114.67
27.750,-123.7
27.765,-134.3
27.781,-145.14
27.796,-153.37
27.812,-155.31
27.828,-147.31
27.843,-126.94
27.859,-93.57
27.875,-48.42
27.890,5.59
27.906,64.39
27.921,122.78
27.937,174.77
27.953,214.09
27.968,235.22
27.984,234.79
28.000,212.69
28.015,172.15
28.031,118.89
28.046,59.49
28.062,-0.06
28.078,-55.29
28.093,-103.2
28.109,-141.83
28.125,-169.95
28.140,-187.04
28.156,-193.42
28.171,-190.43
28.187,-180.12
28.203,-164.79
28.218,-146.53
28.234,-126.78
28.250,-106.25
28.265,-85.13
28.281,-63.48
28.296,-41.56
28.312,-20.09
28.328,-0.18
28.343,17.09
28.359,31.16
28.375,42.37
28.390,51.64
28.406,60.01
28.421,67.84
28.437,74.63
28.453,79.31
28.468,81.04
28.484,79.95
28.500,77.3
28.515,75.09
28.531,75.01
28.546,77.88
28.562,83.16
28.578,89.35
28.593,94.54
28.609,97.45
28.625,98.16
28.640,98.07
28.656,99.42
28.671,103.91
28.687,111.77
28.703,121.26
28.718,129.41
28.734,133.44
28.750,132.11
28.765,126.19
28.781,117.75
28.796,108.95
28.812,100.87
28.828,93.21
28.843,84.64
28.859,73.71
28.875,59.8
28.890,43.42
28.906,26.26
28.921,10.82
28.937,-0.44
28.953,-5.98
28.968,-6.09
28.984,-3.08
29.000,-0.6
29.015,-1.88
29.031,-8.27
29.046,-18.39
29.062,-28.88
29.078,-36.12
29.093,-38.21
29.109,-35.74
29.125,-31.33
29.140,-28.25
29.156,-28.9
29.171,-34.19
29.187,-43.62
29.203,-56.02
29.218,-70.21
29.234,-85.31
29.250,-100.59
29.265,-115.29
29.281,-128.66
29.296,-140.21
29.312,-150.11
29.328,-159.41
29.343,-169.61
29.359,-181.92
29.375,-196.1
29.390,-209.58
29.406,-217.76
29.421,-215.29
29.437,-197.93
29.453,-164.33
29.468,-116.6
29.484,-59.11
29.500,3.31
29.515,67.04
29.531,129.59
29.546,188.41
29.562,239.19
29.578,275.67
29.593,291.33
29.609,282.28
29.625,249.64
29.640,199.91
29.656,142.8
29.671,87.77
29.687,41.16
29.703,5.1
29.718,-21.46
29.734,-40.85
29.750,-54.86
29.765,-64.13
29.781,-68.65
29.796,-68.47
29.812,-64.05
29.828,-56.4
29.843,-46.83
29.859,-37.16
29.875,-29.77
29.890,-27.44
29.906,-32.54
29.921,-45.95
29.937,-66.12
29.953,-89.11
29.968,-109.91
29.984,-123.96
30.000,-128.44
30.015,-122.51
30.031,-106.7
30.046,-82.29
30.062,-51.39
30.078,-17.36
30.093,14.95
30.109,39.81
30.125,52.49
30.140,51.57
30.156,39.94
30.171,23.96
30.187,10.36
30.203,3.19
30.218,2.61
30.234,5.95
30.250,10.05
30.265,13.39
30.281,16.19
30.296,19.09
30.312,21.52
30.328,21.25
30.343,15.68
30.359,3.87
30.375,-12.04
30.390,-27.32
30.406,-36.71
30.421,-36.88
30.437,-27.92
30.453,-12.87
30.468,4.1
30.484,19.88
30.500,33.56
30.515,45.96
30.531,58.49
30.546,72.08
30.562,86.74
30.578,102.01
30.593,117.63
30.609,133.95
30.625,151.39
30.640,169.58
30.656,186.63
30.671,199.61
30.687,205.78
30.703,204.07
30.718,195.53
30.734,182.56
30.750,167.28
30.765,150.14
30.781,129.95
30.796,105.27
30.812,75.99
30.828,43.95
30.843,12.27
30.859,-16.55
30.875,-41.85
30.890,-65.16
30.906,-89.12
30.921,-115.81
30.937,-145.81
30.953,-178.09
30.968,-210.51
30.984,-240.27
31.000,-264.15
31.015,-278.58
31.031,-280.3
31.046,-267.67
31.062,-241.87
31.078,-207.32
31.093,-170.49
31.109,-137.58
31.125,-112.14
31.140,-94.3
31.156,-81.7
31.171,-71.4
31.187,-61.48
31.203,-51.3
31.218,-40.83
31.234,-29.74
31.250,-17.01
31.265,-1.33
31.281,18.1
31.296,41.62
31.312,69.74
31.328,103.23
31.343,142.56
31.359,186.64
31.375,231.82
31.390,272.11
31.406,301.07
31.421,314.53
31.437,312.24
31.453,297.29
31.468,273.59
31.484,243.45
31.500,206.95
31.515,163.82
31.531,115.98
31.546,68.79
31.562,29.66
31.578,4.44
31.593,-5.87
31.609,-5.93
31.625,-3.62
31.640,-5.78
31.656,-14.84
31.671,-28.22
31.687,-40.79
31.703,-48.14
31.718,-48.91
31.734,-44.8
31.750,-38.85
31.765,-33.37
31.781,-29.59
31.796,-28.31
31.812,-30.7
31.828,-38.14
31.843,-50.63
31.859,-65.43
31.875,-76.81
31.890,-78.04
31.906,-64.32
31.921,-35.15
31.937,5.31
31.953,49.87
31.968,91.07
31.984,123.32
32.000,143.57
32.015,150.71
32.031,144.52
32.046,125.39
32.062,94.61
32.078,55.04
32.093,11.15
32.109,-31.95
32.125,-69.96
32.140,-100.36
32.156,-122.79
32.171,-138.24
32.187,-148.02
32.203,-153.09
32.218,-153.93
32.234,-150.9
32.250,-144.93
32.265,-137.63
32.281,-130.93
32.296,-126.3
32.312,-124.03
32.328,-123.04
32.343,-121.32
32.359,-116.68
32.375,-107.54
32.390,-93.43
32.406,-75.27
32.421,-54.93
32.437,-34.79
32.453,-16.93
32.468,-2.48
32.484,8.51
32.500,16.54
32.515,21.85
32.531,23.86
32.546,21.44
32.562,14.06
32.578,2.69
32.593,-9.79
32.609,-19.77
32.625,-24.92
32.640,-25.65
32.656,-25.07
32.671,-27.13
32.687,-34.29
32.703,-45.79
32.718,-57.99
32.734,-66.05
32.750,-66.11
32.765,-56.57
32.781,-38.07
32.796,-12.49
32.812,18.05
32.828,51.55
32.843,86.03
32.859,119.11
32.875,148.24
32.890,171.47
32.906,188.09
32.921,198.93
32.937,205.62
32.953,209.31
32.968,209.72
32.984,205.14
33.000,193.57
33.015,174.14
33.031,148.29
33.046,119.55
33.062,92.62
33.078,71.56
33.093,58.5
33.109,52.99
33.125,52.15
33.140,51.71
33.156,47.08
33.171,34.73
33.187,12.89
33.203,-17.74
33.218,-54.47
33.234,-93.49
33.250,-131.16
33.265,-164.96
33.281,-193.81
33.296,-217.64
33.312,-236.83
33.328,-251.82
33.343,-263.2
33.359,-272.2
33.375,-280.65
33.390,-290.43
33.406,-302.17
33.421,-314.21
33.437,-322.27
33.453,-320.94
33.468,-305.81
33.484,-275.51
33.500,-232.55
33.515,-182.22
33.531,-130.23
33.546,-80.51
33.562,-34.04
33.578,10.41
33.593,54.55
33.609,98.75
33.625,141.13
33.640,178.09
33.656,205.97
33.671,223.07
33.687,230.75
33.703,233.31
33.718,236.06
33.734,242.88
33.750,254.11
33.765,266.35
33.781,274.0
33.796,272.03
33.812,258.37
33.828,234.34
33.843,203.24
33.859,167.78
33.875,128.74
33.890,85.66
33.906,39.0
33.921,-7.88
33.937,-48.57
33.953,-76.02
33.968,-85.66
33.984,-77.33
34.000,-55.16
34.015,-25.29
34.031,6.77
34.046,37.61
34.062,65.76
34.078,90.61
34.093,111.42
34.109,127.23
34.125,137.73
34.140,143.86
34.156,147.75
34.171,151.75
34.187,157.01
34.203,162.77
34.218,166.62
34.234,165.91
34.250,159.21
34.265,147.37
34.281,133.26
34.296,120.45
34.312,111.54
34.328,106.91
34.343,104.57
34.359,101.15
34.375,93.32
34.390,79.1
34.406,58.22
34.421,31.66
34.437,0.89
34.453,-32.79
34.468,-68.22
34.484,-104.18
34.500,-139.2
34.515,-171.56
34.531,-199.45
34.546,-221.21
34.562,-235.61
34.578,-242.01
34.593,-240.69
34.609,-232.89
34.625,-220.68
34.640,-206.55
34.656,-192.62
34.671,-180.03
34.687,-168.65
34.703,-157.26
34.718,-144.41
34.734,-129.15
34.750,-111.67
34.765,-93.29
34.781,-75.65
34.796,-60.09
34.812,-47.06
34.828,-36.09
34.843,-26.26
34.859,-16.77
34.875,-7.54
34.890,0.79
34.906,7.05
34.921,10.4
34.937,10.63
34.953,8.4
34.968,4.91
34.984,1.39
35.000,-1.34
35.015,-3.15
35.031,-4.34
35.046,-5.38
35.062,-6.48
35.078,-7.59
35.093,-8.52
35.109,-9.13
35.125,-9.62
35.140,-10.52
35.156,-12.56
35.171,-16.23
35.187,-21.6
35.203,-28.09
35.218,-34.85
35.234,-40.95
35.250,-45.77
35.265,-49.2
35.281,-51.51
35.296,-53.13
35.312,-54.32
35.328,-55.04
35.343,-55.01
35.359,-53.99
35.375,-51.98
35.390,-49.29
35.406,-46.5
35.421,-44.15
35.437,-42.62
35.453,-41.97
35.468,-42.1
35.484,-42.73
35.500,-43.74
35.515,-45.12
35.531,-47.0
35.546,-49.52
35.562,-52.77
35.578,-56.6
35.593,-60.63
35.609,-64.29
35.625,-66.92
35.640,-68.07
35.656,-67.6
35.671,-65.82
35.687,-63.24
35.703,-60.45
35.718,-57.86
35.734,-55.54
35.750,-53.4
35.765,-51.28
35.781,-49.14
35.796,-47.14
35.812,-45.59
35.828,-44.69
35.843,-44.45
35.859,-44.67
35.875,-45.08
35.890,-45.48
35.906,-45.97
35.921,-46.7
35.937,-47.77
35.953,-49.04
35.968,-49.97
35.984,-49.73
36.000,-47.6
36.015,-43.11
36.031,-36.35
36.046,-27.95
36.062,-18.87
36.078,-10.16
36.093,-2.59
36.109,3.41
36.125,7.76
36.140,10.49
36.156,11.6
36.171,10.99
36.187,8.48
36.203,4.25
36.218,-1.0
36.234,-6.05
36.250,-9.53
36.265,-10.56
36.281,-9.01
36.296,-5.53
36.312,-1.1
36.328,3.4
36.343,7.57
36.359,11.4
36.375,15.01
36.390,18.34
36.406,21.06
36.421,22.73
36.437,23.08
36.453,22.11
36.468,20.02
36.484,17.0
36.500,13.12
36.515,8.33
36.531,2.86
36.546,-2.85
36.562,-8.21
36.578,-12.75
36.593,-16.36
36.609,-19.26
36.625,-21.8
36.640,-24.16
36.656,-26.17
36.671,-27.24
36.687,-26.83
36.703,-24.64
36.718,-20.89
36.734,-16.17
36.750,-11.06
36.765,-5.99
36.781,-1.08
36.796,3.66
36.812,8.2
36.828,12.46
36.843,16.3
36.859,19.64
36.875,22.57
36.890,25.29
36.906,27.96
36.921,30.69
36.937,33.49
36.953,36.28
36.968,39.02
36.984,41.67
37.000,44.17
37.015,46.43
37.031,48.33
37.046,49.76
37.062,50.66
37.078,50.94
37.093,50.52
37.109,49.28
37.125,47.2
37.140,44.33
37.156,40.95
37.171,37.34
37.187,33.82
37.203,30.48
37.218,27.25
37.234,23.87
37.250,20.1
37.265,15.78
37.281,10.86
37.296,5.51
37.312,-0.03
37.328,-5.43
37.343,-10.37
37.359,-14.52
37.375,-17.5
37.390,-18.85
37.406,-18.21
37.421,-15.47
37.437,-10.78
37.453,-4.62
37.468,2.4
37.484,9.72
37.500,16.99
37.515,24.11
37.531,31.13
37.546,38.0
37.562,44.52
37.578,50.39
37.593,55.24
37.609,58.85
37.625,61.12
37.640,62.01
37.656,61.61
37.671,60.01
37.687,57.41
37.703,54.03
37.718,50.0
37.734,45.38
37.750,40.2
37.765,34.51
37.781,28.51
37.796,22.5
37.812,16.81
37.828,11.62
37.843,6.96
37.859,2.69
37.875,-1.31
37.890,-4.97
37.906,-8.07
37.921,-10.34
37.937,-11.71
37.953,-12.37
37.968,-12.7
37.984,-13.14
38.000,-13.98
38.015,-15.31
38.031,-17.02
38.046,-19.11
38.062,-21.66
38.078,-24.86
38.093,-28.72
38.109,-32.93
38.125,-36.65
38.140,-38.91
38.156,-38.87
38.171,-36.18
38.187,-31.28
38.203,-24.98
38.218,-18.17
38.234,-11.44
38.250,-4.93
38.265,1.54
38.281,8.03
38.296,14.25
38.312,19.68
38.328,23.78
38.343,26.34
38.359,27.66
38.375,28.28
38.390,28.91
38.406,29.96
38.421,31.46
38.437,33.11
38.453,34.54
38.468,35.41
38.484,35.65
38.500,35.38
38.515,34.8
38.531,34.13
38.546,33.53
38.562,33.04
38.578,32.6
38.593,32.2
38.609,31.77
38.625,31.31
38.640,30.82
38.656,30.2
38.671,29.34
38.687,28.01
38.703,25.99
38.718,23.16
38.734,19.5
38.750,15.13
38.765,10.23
38.781,5.06
38.796,-0.22
38.812,-5.46
38.828,-10.55
38.843,-15.22
38.859,-19.0
38.875,-21.34
38.890,-21.68
38.906,-19.71
38.921,-15.52
38.937,-9.56
38.953,-2.49
38.968,5.14
38.984,12.89
39.000,20.65
39.015,28.34
39.031,35.94
39.046,43.27
39.062,50.08
39.078,55.99
39.093,60.72
39.109,64.13
39.125,66.1
39.140,66.61
39.156,65.56
39.171,62.92
39.187,58.84
39.203,53.68
39.218,48.09
39.234,42.85
39.250,38.74
39.265,36.14
39.281,35.06
39.296,34.97
39.312,35.14
39.328,34.89
39.343,33.79
39.359,31.89
39.375,29.5
39.390,27.03
39.406,24.73
39.421,22.62
39.437,20.52
39.453,18.3
39.468,16.0
39.484,13.67
39.500,11.45
39.515,9.21
39.531,6.58
39.546,3.05
39.562,-1.68
39.578,-7.65
39.593,-14.45
39.609,-21.43
39.625,-27.91
39.640,-33.2
39.656,-36.78
39.671,-38.34
39.687,-37.72
39.703,-34.94
39.718,-30.21
39.734,-23.86
39.750,-16.35
39.765,-8.25
39.781,-0.15
39.796,7.35
39.812,13.74
39.828,18.75
39.843,22.34
39.859,24.65
39.875,25.94
39.890,26.48
39.906,26.42
39.921,25.94
39.937,25.31
39.953,24.86
39.968,25.05
39.984,26.14
40.000,28.01
40.015,30.33
40.031,32.64
40.046,34.52
40.062,35.82
40.078,36.64
40.093,37.13
40.109,37.32
40.125,36.98
40.140,35.67
40.156,32.93
40.171,28.69
40.187,23.23
40.203,17.12
40.218,11.1
40.234,5.66
40.250,0.95
40.265,-3.13
40.281,-6.85
40.296,-10.42
40.312,-13.96
40.328,-17.6
40.343,-21.61
40.359,-26.22
40.375,-31.66
40.390,-37.78
40.406,-43.94
40.421,-49.09
40.437,-52.15
40.453,-52.4
40.468,-49.66
40.484,-44.35
40.500,-37.15
40.515,-28.9
40.531,-20.32
40.546,-11.95
40.562,-4.24
40.578,2.4
40.593,7.77
40.609,11.82
40.625,14.67
40.640,16.63
40.656,18.0
40.671,18.97
40.687,19.69
40.703,20.2
40.718,20.43
40.734,20.47
40.750,20.34
40.765,20.06
40.781,19.62
40.796,18.92
40.812,17.85
40.828,16.43
40.843,14.7
40.859,12.82
40.875,11.02
40.890,9.37
40.906,7.8
40.921,6.1
40.937,3.98
40.953,1.2
40.968,-2.21
40.984,-6.08
41.000,-9.99
41.015,-13.46
41.031,-16.14
41.046,-17.91
41.062,-18.92
41.078,-19.73
41.093,-20.99
41.109,-23.2
41.125,-26.55
41.140,-30.73
41.156,-34.99
41.171,-38.43
41.187,-40.26
41.203,-39.98
41.218,-37.57
41.234,-33.32
41.250,-27.79
41.265,-21.68
41.281,-15.58
41.296,-9.86
41.312,-4.62
41.328,0.41
41.343,5.62
41.359,11.25
41.375,17.16
41.390,22.85
41.406,27.51
41.421,30.52
41.437,31.61
41.453,30.97
41.468,29.24
41.484,27.1
41.500,25.07
41.515,23.37
41.531,21.96
41.546,20.64
41.562,19.32
41.578,17.91
41.593,16.4
41.609,14.89
41.625,13.39
41.640,11.89
41.656,10.3
41.671,8.46
41.687,6.24
41.703,3.67
41.718,0.91
41.734,-1.86
41.750,-4.49
41.765,-6.95
41.781,-9.34
41.796,-11.7
41.812,-13.95
41.828,-15.94
41.843,-17.45
41.859,-18.42
41.875,-19.15
41.890,-20.07
41.906,-21.77
41.921,-24.56
41.937,-28.2
41.953,-31.9
41.968,-34.55
41.984,-35.05
42.000,-32.68
42.015,-27.51
42.031,-20.28
42.046,-12.15
42.062,-4.26
42.078,2.72
42.093,8.72
42.109,14.18
42.125,19.71
42.140,25.79
42.156,32.35
42.171,38.75
42.187,43.85
42.203,46.33
42.218,45.31
42.234,40.63
42.250,33.03
42.265,23.75
42.281,14.02
42.296,4.58
42.312,-4.56
42.328,-13.98
42.343,-24.34
42.359,-35.88
42.375,-48.31
42.390,-60.92
42.406,-72.89
42.421,-83.72
42.437,-93.23
42.453,-101.47
42.468,-108.74
42.484,-115.47
42.500,-122.19
42.515,-129.43
42.531,-137.5
42.546,-146.25
42.562,-155.06
42.578,-163.11
42.593,-169.71
42.609,-174.91
42.625,-179.58
42.640,-185.12
42.656,-192.82
42.671,-203.0
42.687,-214.55
42.703,-224.91
42.718,-230.79
42.734,-229.24
42.750,-218.79
42.765,-200.5
42.781,-178.02
42.796,-157.05
42.812,-143.54
42.828,-141.8
42.843,-152.74
42.859,-173.27
42.875,-197.0
42.890,-216.24
42.906,-224.38
42.921,-217.84
42.937,-196.67
42.953,-163.78
42.968,-123.4
42.984,-79.38
43.000,-34.3
43.015,10.57
43.031,54.57
43.046,96.86
43.062,136.11
43.078,170.72
43.093,199.54
43.109,222.53
43.125,240.84
43.140,256.45
43.156,271.54
43.171,287.83
43.187,306.19
43.203,326.79
43.218,348.96
43.234,371.14
43.250,391.0
43.265,405.45
43.281,411.5
43.296,407.16
43.312,392.46
43.328,369.77
43.343,343.56
43.359,319.14
43.375,300.99
43.390,291.27
43.406,288.8
43.421,289.5
43.437,287.73
43.453,278.38
43.468,258.8
43.484,229.53
43.500,193.56
43.515,154.67
43.531,115.73
43.546,77.87
43.562,41.07
43.578,5.53
43.593,-27.44
43.609,-55.55
43.625,-76.8
43.640,-91.21
43.656,-101.27
43.671,-110.81
43.687,-123.03
43.703,-138.33
43.718,-153.78
43.734,-164.51
43.750,-166.22
43.765,-157.35
43.781,-139.85
43.796,-117.79
43.812,-94.95
43.828,-73.13
43.843,-51.58
43.859,-28.14
43.875,-1.34
43.890,28.2
43.906,57.87
43.921,84.23
43.937,104.84
43.953,118.8
43.968,126.82
43.984,130.52
44.000,131.74
44.015,131.8
44.031,131.23
44.046,129.43
44.062,124.66
44.078,114.74
44.093,98.31
44.109,76.13
44.125,51.92
44.140,31.14
44.156,18.54
44.171,15.78
44.187,20.57
44.203,28.26
44.218,34.63
44.234,38.34
44.250,41.02
44.265,45.56
44.281,53.71
44.296,65.04
44.312,77.78
44.328,90.75
44.343,104.48
44.359,121.03
44.375,142.24
44.390,167.68
44.406,194.06
44.421,216.23
44.437,229.39
44.453,230.95
44.468,221.13
44.484,202.22
44.500,177.26
44.515,148.85
44.531,118.57
44.546,87.13
44.562,54.72
44.578,21.6
44.593,-11.32
44.609,-42.5
44.625,-70.01
44.640,-91.93
44.656,-106.82
44.671,-113.89
44.687,-112.88
44.703,-103.8
44.718,-86.8
44.734,-62.1
44.750,-30.27
44.765,7.46
44.781,49.18
44.796,92.39
44.812,134.36
44.828,172.56
44.843,205.0
44.859,230.32
44.875,247.83
44.890,257.37
44.906,259.08
44.921,253.47
44.937,241.29
44.953,223.67
44.968,202.15
44.984,178.57
45.000,154.78
45.015,132.52
45.031,113.04
45.046,97.13
45.062,85.18
45.078,77.24
45.093,73.34
45.109,73.54
45.125,77.75
45.140,85.47
45.156,95.41
45.171,105.25
45.187,111.7
45.203,110.96
45.218,99.51
45.234,74.89
45.250,36.35
45.265,-14.94
45.281,-76.14
45.296,-143.54
45.312,-213.23
45.328,-281.94
45.343,-347.23
45.359,-407.46
45.375,-461.51
45.390,-508.44
45.406,-547.46
45.421,-578.1
45.437,-600.8
45.453,-616.89
45.468,-628.63
45.484,-638.65
45.500,-649.43
45.515,-663.13
45.531,-681.43
45.546,-705.26
45.562,-734.23
45.578,-765.88
45.593,-795.29
45.609,-815.9
45.625,-821.63
45.640,-809.15
45.656,-779.56
45.671,-737.96
45.687,-691.04
45.703,-644.28
45.718,-599.97
45.734,-557.21
45.750,-513.52
45.765,-467.09
45.781,-417.7
45.796,-366.57
45.812,-315.1
45.828,-263.56
45.843,-211.03
45.859,-156.3
45.875,-99.17
45.890,-41.28
45.906,13.97
45.921,62.44
45.937,100.47
45.953,125.79
45.968,137.97
45.984,138.02
46.000,127.84
46.015,109.55
46.031,85.18
46.046,56.67
46.062,26.1
46.078,-4.25
46.093,-31.96
46.109,-54.7
46.125,-70.81
46.140,-79.66
46.156,-81.75
46.171,-78.56
46.187,-72.09
46.203,-64.26
46.218,-56.49
46.234,-49.39
46.250,-42.87
46.265,-36.5
46.281,-29.91
46.296,-22.94
46.312,-15.8
46.328,-8.9
46.343,-2.62
46.359,2.89
46.375,7.88
46.390,12.9
46.406,18.6
46.421,25.45
46.437,33.55
46.453,42.64
46.468,52.2
46.484,61.73
46.500,71.03
46.515,80.25
46.531,89.75
46.546,100.03
46.562,111.28
46.578,123.3
46.593,135.55
46.609,147.36
46.625,158.22
46.640,168.05
46.656,177.12
46.671,185.94
46.687,195.1
46.703,205.14
46.718,216.55
46.734,229.67
46.750,244.25
46.765,259.04
46.781,271.62
46.796,278.68
46.812,276.87
46.828,263.84
46.843,238.82
46.859,202.74
46.875,157.82
46.890,106.75
46.906,52.18
46.921,-3.35
46.937,-57.38
46.953,-106.91
46.968,-148.44
46.984,-178.51
47.000,-194.57
47.015,-195.92
47.031,-184.09
47.046,-162.5
47.062,-135.37
47.078,-106.69
47.093,-79.02
47.109,-53.22
47.125,-28.89
47.140,-5.15
47.156,18.56
47.171,42.35
47.187,66.01
47.203,89.53
47.218,113.05
47.234,136.84
47.250,160.79
47.265,184.25
47.281,206.04
47.296,224.65
47.312,238.69
47.328,247.18
47.343,249.76
47.359,246.46
47.375,237.69
47.390,223.99
47.406,205.89
47.421,184.26
47.437,160.18
47.453,135.03
47.468,110.36
47.484,87.66
47.500,67.98
47.515,51.82
47.531,39.11
47.546,29.4
47.562,22.3
47.578,17.67
47.593,15.8
47.609,17.15
47.625,22.11
47.640,30.66
47.656,42.43
47.671,56.77
47.687,73.05
47.703,90.97
47.718,110.55
47.734,132.26
47.750,156.67
47.765,184.5
47.781,216.26
47.796,251.96
47.812,290.31
47.828,328.24
47.843,360.98
47.859,383.12
47.875,390.54
47.890,381.94
47.906,359.54
47.921,327.91
47.937,292.12
47.953,255.65
47.968,219.63
47.984,183.47
48.000,146.27
48.015,108.39
48.031,71.52
48.046,38.03
48.062,9.57
48.078,-13.61
48.093,-32.63
48.109,-49.34
48.125,-65.74
48.140,-83.81
48.156,-105.18
48.171,-131.03
48.187,-161.38
48.203,-194.46
48.218,-226.53
48.234,-252.28
48.250,-266.5
48.265,-265.45
48.281,-248.23
48.296,-216.6
48.312,-174.19
48.328,-125.17
48.343,-73.08
48.359,-20.46
48.375,31.14
48.390,80.89
48.406,128.34
48.421,173.04
48.437,214.36
48.453,251.46
48.468,283.34
48.484,309.22
48.500,328.74
48.515,342.24
48.531,350.8
48.546,355.87
48.562,358.82
48.578,360.75
48.593,362.48
48.609,364.9
48.625,369.04
48.640,375.76
48.656,385.5
48.671,397.95
48.687,412.1
48.703,426.42
48.718,439.14
48.734,448.77
48.750,453.96
48.765,453.74
48.781,447.36
48.796,434.45
48.812,415.2
48.828,390.66
48.843,362.63
48.859,333.16
48.875,303.9
48.890,275.25
48.906,246.38
48.921,215.51
48.937,181.02
48.953,142.34
48.968,100.34
48.984,56.97
49.000,14.43
49.015,-25.7
49.031,-62.82
49.046,-96.85
49.062,-127.8
49.078,-155.0
49.093,-177.16
49.109,-192.91
49.125,-201.4
49.140,-202.84
49.156,-198.31
49.171,-189.55
49.187,-178.15
49.203,-165.41
49.218,-152.06
49.234,-138.48
49.250,-124.94
49.265,-111.9
49.281,-99.95
49.296,-89.51
49.312,-80.82
49.328,-73.68
49.343,-67.56
49.359,-61.75
49.375,-55.66
49.390,-48.97
49.406,-41.69
49.421,-34.25
49.437,-27.28
49.453,-21.65
49.468,-18.11
49.484,-17.26
49.500,-19.36
49.515,-24.3
49.531,-31.67
49.546,-40.81
49.562,-51.24
49.578,-62.74
49.593,-75.73
49.609,-91.03
49.625,-109.81
49.640,-132.87
49.656,-160.3
49.671,-191.16
49.687,-223.69
49.703,-255.77
49.718,-285.4
49.734,-311.18
49.750,-332.29
49.765,-348.32
49.781,-358.48
49.796,-361.16
49.812,-353.89
49.828,-334.24
49.843,-300.77
49.859,-254.06
49.875,-197.19
49.890,-135.59
49.906,-76.14
49.921,-26.21
49.937,7.2
49.953,18.52
49.968,4.7
49.984,-33.47
50.000,-90.81
50.015,-158.4
50.031,-225.94
50.046,-284.62
50.062,-329.47
50.078,-359.84
50.093,-377.98
50.109,-386.29
50.125,-385.74
50.140,-375.44
50.156,-353.95
50.171,-320.74
50.187,-277.18
50.203,-225.96
50.218,-169.73
50.234,-109.95
50.250,-46.23
50.265,22.8
50.281,98.7
50.296,181.87
50.312,270.76
50.328,360.87
50.343,444.83
50.359,513.62
50.375,559.11
50.390,576.87
50.406,567.92
50.421,538.61
50.437,498.07
50.453,454.95
50.468,414.67
50.484,378.81
50.500,346.33
50.515,315.77
50.531,286.7
50.546,259.81
50.562,235.88
50.578,214.49
50.593,193.54
50.609,169.94
50.625,140.88
50.640,105.11
50.656,63.12
50.671,17.17
50.687,-29.89
50.703,-75.52
50.718,-118.23
50.734,-157.84
50.750,-195.0
50.765,-230.65
50.781,-265.2
50.796,-298.32
50.812,-328.89
50.828,-355.98
50.843,-379.3
50.859,-399.57
50.875,-418.0
50.890,-435.36
50.906,-451.45
50.921,-464.81
50.937,-473.69
50.953,-476.93
50.968,-474.87
50.984,-469.19
51.000,-462.07
51.015,-455.19
51.031,-449.47
51.046,-445.57
51.062,-444.64
51.078,-448.64
51.093,-459.56
51.109,-478.14
51.125,-502.74
51.140,-529.16
51.156,-551.68
51.171,-564.81
51.187,-565.07
51.203,-551.88
51.218,-527.55
51.234,-496.31
51.250,-462.89
51.265,-431.15
51.281,-403.1
51.296,-378.76
51.312,-356.54
51.328,-334.45
51.343,-311.01
51.359,-285.99
51.375,-260.13
51.390,-234.32
51.406,-208.95
51.421,-183.56
51.437,-157.34
51.453,-129.76
51.468,-101.03
51.484,-71.95
51.500,-43.46
51.515,-16.01
51.531,10.68
51.546,37.32
51.562,64.48
51.578,92.04
51.593,118.99
51.609,143.58
51.625,163.95
51.640,178.55
51.656,186.53
51.671,187.95
51.687,183.46
51.703,174.15
51.718,161.0
51.734,144.96
51.750,126.68
51.765,106.9
51.781,86.36
51.796,65.89
51.812,46.36
51.828,28.44
51.843,12.55
51.859,-1.3
51.875,-13.3
51.890,-23.83
51.906,-33.19
51.921,-41.5
51.937,-48.64
51.953,-54.33
51.968,-58.21
51.984,-59.89
52.000,-59.01
52.015,-55.2
52.031,-48.23
52.046,-37.96
52.062,-24.49
52.078,-8.35
52.093,9.58
52.109,28.08
52.125,45.87
52.140,62.0
52.156,76.09
52.171,88.5
52.187,100.08
52.203,111.9
52.218,124.65
52.234,138.46
52.250,152.82
52.265,166.9
52.281,180.07
52.296,192.25
52.312,204.13
52.328,216.82
52.343,231.42
52.359,248.21
52.375,266.54
52.390,284.88
52.406,301.51
52.421,315.22
52.437,325.91
52.453,334.59
52.468,342.78
52.484,352.08
52.500,363.51
52.515,377.43
52.531,393.38
52.546,409.8
52.562,423.73
52.578,431.13
52.593,427.96
52.609,411.91
52.625,384.08
52.640,349.26
52.656,314.31
52.671,285.62
52.687,266.32
52.703,255.26
52.718,248.04
52.734,239.61
52.750,227.04
52.765,210.98
52.781,195.27
52.796,184.77
52.812,183.15
52.828,191.1
52.843,206.38
52.859,224.89
52.875,242.12
52.890,254.45
52.906,259.57
52.921,256.33
52.937,244.55
52.953,225.02
52.968,199.25
52.984,169.56
53.000,138.75
53.015,109.24
53.031,82.47
53.046,58.36
53.062,35.61
53.078,12.52
53.093,-11.98
53.109,-38.0
53.125,-64.7
53.140,-90.43
53.156,-113.18
53.171,-130.8
53.187,-141.38
53.203,-143.96
53.218,-139.1
53.234,-128.98
53.250,-116.94
53.265,-106.23
53.281,-98.47
53.296,-93.22
53.312,-88.24
53.328,-80.82
53.343,-69.17
53.359,-53.28
53.375,-34.23
53.390,-13.12
53.406,9.98
53.421,36.07
53.437,66.36
53.453,101.15
53.468,139.2
53.484,177.98
53.500,214.52
53.515,246.35
53.531,271.85
53.546,290.15
53.562,301.16
53.578,305.72
53.593,305.79
53.609,304.23
53.625,303.91
53.640,306.4
53.656,311.19
53.671,315.75
53.687,316.57
53.703,310.65
53.718,296.42
53.734,273.95
53.750,244.46
53.765,209.72
53.781,171.78
53.796,132.91
53.812,95.73
53.828,62.89
53.843,36.57
53.859,17.64
53.875,5.52
53.890,-1.67
53.906,-6.32
53.921,-10.68
53.937,-16.3
53.953,-23.88
53.968,-33.17
53.984,-43.02
54.000,-51.55
54.015,-56.19
54.031,-54.34
54.046,-44.03
54.062,-24.78
54.078,1.82
54.093,32.32
54.109,62.05
54.125,86.49
54.140,102.21
54.156,107.65
54.171,102.85
54.187,88.93
54.203,67.44
54.218,39.86
54.234,7.74
54.250,-27.4
54.265,-63.85
54.281,-99.68
54.296,-133.02
54.312,-162.42
54.328,-187.01
54.343,-206.6
54.359,-221.73
54.375,-233.2
54.390,-242.06
54.406,-249.41
54.421,-256.28
54.437,-263.31
54.453,-270.5
54.468,-276.92
54.484,-280.82
54.500,-280.4
54.515,-275.0
54.531,-265.98
54.546,-256.98
54.562,-252.45
54.578,-255.87
54.593,-267.61
54.609,-284.33
54.625,-299.96
54.640,-307.99
54.656,-303.7
54.671,-285.5
54.687,-255.15
54.703,-216.7
54.718,-175.67
54.734,-138.05
54.750,-109.8
54.765,-96.03
54.781,-99.59
54.796,-119.52
54.812,-150.15
54.828,-181.94
54.843,-203.94
54.859,-207.33
54.875,-188.33
54.890,-149.25
54.906,-97.36
54.921,-42.38
54.937,6.33
54.953,41.54
54.968,58.87
54.984,56.89
55.000,37.08
55.015,3.92
55.031,-35.47
55.046,-72.33
55.062,-98.24
55.078,-107.39
55.093,-98.12
55.109,-73.31
55.125,-39.4
55.140,-4.76
55.156,22.18
55.171,34.64
55.187,28.87
55.203,5.33
55.218,-30.97
55.234,-71.19
55.250,-104.96
55.265,-123.27
55.281,-121.21
55.296,-99.09
55.312,-61.88
55.328,-17.08
55.343,27.48
55.359,64.98
55.375,90.38
55.390,100.55
55.406,95.14
55.421,77.25
55.437,53.8
55.453,34.14
55.468,27.06
55.484,37.56
55.500,64.56
55.515,101.37
55.531,138.17
55.546,165.92
55.562,179.04
55.578,176.21
55.593,159.01
55.609,129.79
55.625,90.59
55.640,43.56
55.656,-7.6
55.671,-56.81
55.687,-96.07
55.703,-118.03
55.718,-118.93
55.734,-100.33
55.750,-68.8
55.765,-33.46
55.781,-3.0
55.796,16.64
55.812,22.79
55.828,15.43
55.843,-3.7
55.859,-31.31
55.875,-62.11
55.890,-88.6
55.906,-101.75
55.921,-93.42
55.937,-59.39
55.953,-2.02
55.968,69.31
55.984,140.33
56.000,196.48
56.015,228.17
56.031,234.36
56.046,222.98
56.062,207.38
56.078,200.69
56.093,210.24
56.109,235.07
56.125,267.3
56.140,296.78
56.156,315.91
56.171,322.27
56.187,318.12
56.203,307.35
56.218,292.56
56.234,273.78
56.250,249.59
56.265,219.26
56.281,184.47
56.296,149.23
56.312,118.04
56.328,93.72
56.343,75.85
56.359,61.09
56.375,44.86
56.390,23.48
56.406,-4.23
56.421,-36.68
56.437,-70.36
56.453,-101.6
56.468,-128.2
56.484,-150.3
56.500,-170.23
56.515,-191.48
56.531,-217.19
56.546,-248.81
56.562,-285.67
56.578,-325.32
56.593,-364.78
56.609,-401.69
56.625,-435.24
56.640,-466.2
56.656,-496.31
56.671,-527.61
56.687,-561.76
56.703,-600.1
56.718,-643.37
56.734,-691.19
56.750,-740.89
56.765,-787.05
56.781,-822.05
56.796,-838.07
56.812,-830.14
56.828,-798.05
56.843,-746.83
56.859,-684.75
56.875,-620.16
56.890,-558.81
56.906,-503.0
56.921,-452.35
56.937,-405.67
56.953,-362.43
56.968,-322.97
56.984,-287.75
57.000,-256.6
57.015,-228.25
57.031,-201.05
57.046,-173.88
57.062,-146.66
57.078,-120.4
57.093,-96.65
57.109,-76.56
57.125,-60.19
57.140,-46.41
57.156,-33.21
57.171,-18.5
57.187,-0.91
57.203,19.92
57.218,43.25
57.234,67.72
57.250,91.97
57.265,115.09
57.281,136.83
57.296,157.4
57.312,177.05
57.328,195.74
57.343,212.99
57.359,227.89
57.375,239.49
57.390,247.18
57.406,250.85
57.421,250.98
57.437,248.43
57.453,244.06
57.468,238.45
57.484,231.72
57.500,223.61
57.515,213.67
57.531,201.57
57.546,187.35
57.562,171.45
57.578,154.62
57.593,137.68
57.609,121.2
57.625,105.43
57.640,90.3
57.656,75.62
57.671,61.43
57.687,48.16
57.703,36.72
57.718,28.14
57.734,23.33
57.750,22.56
57.765,25.38
57.781,30.71
57.796,37.4
57.812,44.75
57.828,53.0
57.843,63.26
57.859,77.16
57.875,96.13
57.890,120.63
57.906,149.87
57.921,182.2
57.937,215.59
57.953,248.46
57.968,280.22
57.984,311.23
58.000,342.7
58.015,376.48
58.031,414.77
58.046,459.67
58.062,512.06
58.078,570.13
58.093,628.61
58.109,679.34
58.125,713.56
58.140,725.12
58.156,713.12
58.171,682.28
58.187,641.08
58.203,598.28
58.218,559.73
58.234,527.41
58.250,500.07
58.265,475.52
58.281,452.27
58.296,430.06
58.312,409.14
58.328,389.11
58.343,368.36
58.359,344.38
58.375,314.89
58.390,278.81
58.406,236.63
58.421,190.42
58.437,142.94
58.453,96.62
58.468,52.91
58.484,12.07
58.500,-26.56
58.515,-63.89
58.531,-100.41
58.546,-135.91
58.562,-169.9
58.578,-202.07
58.593,-232.54
58.609,-261.43
58.625,-288.02
58.640,-310.25
58.656,-325.07
58.671,-329.71
58.687,-323.2
58.703,-307.14
58.718,-285.21
58.734,-261.6
58.750,-239.3
58.765,-219.38
58.781,-201.51
58.796,-185.29
58.812,-171.2
58.828,-160.51
58.843,-154.14
58.859,-151.32
58.875,-149.26
58.890,-144.06
58.906,-132.35
58.921,-112.85
58.937,-86.78
58.953,-57.27
58.968,-28.11
58.984,-2.54
59.000,17.46
59.015,31.06
59.031,38.32
59.046,39.89
59.062,36.99
59.078,31.4
59.093,25.37
59.109,21.04
59.125,19.8
59.140,21.66
59.156,25.34
59.171,28.85
59.187,30.48
59.203,29.64
59.218,27.17
59.234,24.72
59.250,23.98
59.265,25.76
59.281,29.77
59.296,34.98
59.312,40.08
59.328,43.93
59.343,45.6
59.359,44.1
59.375,38.08
59.390,26.02
59.406,6.47
59.421,-21.17
59.437,-56.17
59.453,-96.48
59.468,-139.28
59.484,-181.83
59.500,-222.33
59.515,-260.1
59.531,-294.91
59.546,-326.1
59.562,-351.95
59.578,-370.16
59.593,-379.05
59.609,-378.8
59.625,-371.76
59.640,-361.72
59.656,-352.39
59.671,-346.1
59.687,-343.16
59.703,-342.15
59.718,-340.37
59.734,-334.73
59.750,-322.47
59.765,-301.97
59.781,-273.86
59.796,-241.73
59.812,-211.84
59.828,-191.72
59.843,-187.6
59.859,-202.12
59.875,-233.49
59.890,-276.06
59.906,-322.19
59.921,-363.94
59.937,-394.54
59.953,-408.97
59.968,-404.43
59.984,-380.58
