timestamp,value
00.000,-2.3
00.015,0.24
00.031,1.91
00.046,1.79
00.062,0.02
00.078,-2.3
00.093,-3.75
00.109,-3.45
00.125,-1.53
00.140,0.91
00.156,2.48
00.171,2.3
00.187,0.51
00.203,-1.76
00.218,-3.18
00.234,-2.91
00.250,-1.17
00.265,0.9
00.281,2.0
00.296,1.38
00.312,-0.63
00.328,-2.85
00.343,-3.9
00.359,-3.01
00.375,-0.44
00.390,2.54
00.406,4.49
00.421,4.54
00.437,2.85
00.453,0.53
00.468,-1.14
00.484,-1.33
00.500,-0.2
00.515,1.27
00.531,1.91
00.546,1.04
00.562,-1.03
00.578,-3.21
00.593,-4.25
00.609,-3.46
00.625,-1.15
00.640,1.51
00.656,3.25
00.671,3.29
00.687,1.89
00.703,0.12
00.718,-0.75
00.750,2.04
00.765,4.23
00.781,5.25
00.796,4.38
00.812,1.98
00.828,-0.74
00.843,-2.38
00.859,-2.16
00.875,-0.35
00.890,1.81
00.906,2.95
00.921,2.31
00.937,0.22
00.953,-2.12
00.968,-3.35
00.984,-2.79
01.000,-0.85
01.015,1.19
01.031,2.02
01.046,0.99
01.062,-1.42
01.078,-3.91
01.093,-5.08
01.109,-4.23
01.125,-1.82
01.140,0.83
01.156,2.28
01.171,1.78
01.187,-0.32
01.203,-2.72
01.218,-4.05
01.234,-3.5
01.250,-1.39
01.265,1.03
01.281,2.39
01.296,1.95
01.312,0.08
01.328,-1.94
01.343,-2.74
01.359,-1.61
01.375,0.96
01.390,3.63
01.406,4.92
01.421,4.14
01.437,1.76
01.453,-0.88
01.468,-2.31
01.484,-1.83
01.500,0.13
01.515,2.24
01.531,3.17
01.546,2.26
01.562,0.02
01.578,-2.26
01.593,-3.26
01.609,-2.39
01.625,-0.13
01.640,2.23
01.656,3.37
01.671,2.7
01.687,0.7
01.703,-1.33
01.718,-2.1
01.734,-1.04
01.750,1.31
01.765,3.62
01.781,4.49
01.796,3.32
01.812,0.66
01.828,-2.11
01.843,-3.59
01.859,-3.07
01.875,-0.98
01.890,1.38
01.906,2.65
01.921,2.06
01.937,0.02
01.953,-2.25
01.968,-3.43
01.984,-2.77
02.000,-0.61
02.015,1.79
02.031,3.09
02.046,2.52
02.062,0.37
02.078,-2.11
02.093,-3.55
02.109,-3.15
02.125,-1.24
02.140,0.97
02.156,2.11
02.171,1.45
02.187,-0.62
02.203,-2.88
02.218,-3.99
02.234,-3.24
02.250,-1.13
02.265,1.11
02.281,2.16
02.296,1.4
02.312,-0.63
02.328,-2.66
02.343,-3.43
02.359,-2.37
02.375,-0.01
02.390,2.36
02.406,3.48
02.421,2.77
02.437,0.74
02.453,-1.38
02.468,-2.37
02.484,-1.69
02.500,0.21
02.515,2.12
02.531,2.8
02.546,1.73
02.562,-0.58
02.578,-2.9
02.593,-3.94
02.609,-3.09
02.625,-0.87
02.640,1.45
02.656,2.51
02.671,1.67
02.687,-0.55
02.703,-2.82
02.718,-3.79
02.734,-2.84
02.750,-0.53
02.765,1.76
02.781,2.66
02.796,1.61
02.812,-0.76
02.828,-2.99
02.843,-3.67
02.859,-2.27
02.875,0.56
02.890,3.31
02.906,4.58
02.921,3.84
02.937,1.71
02.953,-0.32
02.968,-0.9
02.984,0.45
03.000,2.98
03.015,5.25
03.031,5.84
03.046,4.31
03.062,1.39
03.078,-1.4
03.093,-2.71
03.109,-2.0
03.125,0.07
03.140,2.11
03.156,2.87
03.171,1.84
03.187,-0.33
03.203,-2.34
03.218,-3.03
03.234,-1.98
03.250,0.11
03.265,1.96
03.281,2.45
03.296,1.26
03.312,-0.92
03.328,-2.77
03.343,-3.13
03.359,-1.68
03.375,0.88
03.390,3.17
03.406,3.91
03.421,2.61
03.437,-0.14
03.453,-3.02
03.468,-4.66
03.484,-4.39
03.500,-2.66
03.515,-0.56
03.531,0.63
03.546,0.3
03.562,-1.18
03.578,-2.69
03.593,-3.12
03.609,-1.96
03.625,0.32
03.640,2.5
03.656,3.37
03.671,2.4
03.687,0.1
03.703,-2.28
03.718,-3.47
03.734,-2.87
03.750,-0.94
03.765,1.14
03.781,2.12
03.796,1.42
03.812,-0.51
03.828,-2.49
03.843,-3.28
03.859,-2.35
03.875,-0.16
03.890,2.02
03.906,2.99
03.921,2.14
03.937,0.01
03.953,-2.23
03.968,-3.33
03.984,-2.67
04.000,-0.7
04.015,1.49
04.031,2.71
04.046,2.42
04.062,1.02
04.078,-0.37
04.093,-0.64
04.109,0.64
04.125,2.92
04.140,4.95
04.156,5.45
04.171,3.94
04.187,1.05
04.203,-1.85
04.218,-3.39
04.234,-2.95
04.250,-1.04
04.265,1.05
04.281,2.04
04.296,1.37
04.312,-0.44
04.328,-2.11
04.343,-2.49
04.359,-1.13
04.375,1.3
04.390,3.52
04.406,4.3
04.421,3.19
04.437,0.85
04.453,-1.37
04.468,-2.26
04.484,-1.35
04.500,0.69
04.515,2.53
04.531,2.95
04.546,1.52
04.562,-1.02
04.578,-3.29
04.593,-4.02
04.609,-2.81
04.625,-0.35
04.640,1.94
04.656,2.78
04.671,1.75
04.687,-0.46
04.703,-2.44
04.718,-2.95
04.734,-1.61
04.750,0.84
04.765,2.96
04.781,3.45
04.796,1.88
04.812,-1.0
04.828,-3.74
04.843,-5.0
04.859,-4.25
04.875,-2.12
04.890,0.01
04.906,0.86
04.921,-0.06
04.937,-2.1
04.953,-3.87
04.968,-4.15
04.984,-2.49
05.000,0.36
05.015,2.94
05.031,3.9
05.046,2.76
05.062,0.26
05.078,-2.07
05.093,-2.78
05.109,-1.32
05.125,1.55
05.140,4.31
05.156,5.48
05.171,4.46
05.187,1.94
05.203,-0.6
05.218,-1.75
05.234,-0.96
05.250,1.08
05.265,2.93
05.281,3.28
05.296,1.7
05.312,-0.99
05.328,-3.25
05.343,-3.76
05.359,-2.15
05.375,0.66
05.390,3.04
05.406,3.61
05.421,2.04
05.437,-0.75
05.453,-3.13
05.468,-3.76
05.484,-2.38
05.500,0.07
05.515,2.0
05.531,2.13
05.546,0.26
05.562,-2.61
05.578,-4.9
05.593,-5.39
05.609,-3.82
05.625,-1.12
05.640,1.26
05.656,2.19
05.671,1.4
05.687,-0.28
05.703,-1.54
05.718,-1.41
05.734,0.23
05.750,2.48
05.765,3.95
05.781,3.64
05.796,1.51
05.812,-1.41
05.828,-3.56
05.843,-3.73
05.859,-1.73
05.875,1.42
05.890,4.09
05.906,4.91
05.921,3.55
05.937,0.9
05.953,-1.54
05.968,-2.47
05.984,-1.5
06.000,0.55
06.015,2.34
06.031,2.65
06.046,1.19
06.062,-1.2
06.078,-3.15
06.093,-3.52
06.109,-2.05
06.125,0.45
06.140,2.62
06.156,3.31
06.171,2.19
06.203,-1.94
06.218,-2.49
06.234,-1.36
06.250,0.73
06.265,2.48
06.281,2.82
06.296,1.52
06.312,-0.63
06.328,-2.24
06.343,-2.22
06.359,-0.36
06.375,2.42
06.390,4.61
06.406,4.95
06.421,3.18
06.437,0.22
06.453,-2.36
06.468,-3.18
06.484,-1.9
06.500,0.65
06.515,2.98
06.531,3.75
06.546,2.57
06.562,0.22
06.578,-1.87
06.593,-2.49
06.609,-1.33
06.625,0.73
06.640,2.34
06.656,2.35
06.671,0.58
06.687,-2.01
06.703,-3.97
06.718,-4.18
06.734,-2.49
06.750,0.08
06.765,2.01
06.781,2.13
06.796,0.29
06.812,-2.46
06.828,-4.54
06.843,-4.7
06.859,-2.79
06.875,0.13
06.890,2.47
06.906,2.96
06.921,1.51
06.937,-0.79
06.953,-2.3
06.968,-1.85
06.984,0.6
07.000,3.8
07.015,6.04
07.031,6.09
07.046,3.9
07.062,0.7
07.078,-1.78
07.093,-2.32
07.109,-0.86
07.125,1.4
07.140,2.84
07.156,2.3
07.171,-0.2
07.187,-3.5
07.203,-5.93
07.218,-6.29
07.234,-4.5
07.250,-1.68
07.265,0.6
07.281,1.13
07.296,-0.18
07.312,-2.34
07.328,-3.9
07.343,-3.72
07.359,-1.75
07.375,1.03
07.390,3.12
07.406,3.41
07.421,1.79
07.437,-0.75
07.453,-2.78
07.468,-3.2
07.484,-1.88
07.500,0.25
07.515,1.81
07.531,1.77
07.546,0.04
07.562,-2.42
07.578,-4.18
07.593,-4.17
07.609,-2.29
07.625,0.48
07.640,2.68
07.656,3.19
07.671,1.9
07.687,-0.19
07.703,-1.65
07.718,-1.4
07.734,0.6
07.750,3.26
07.765,5.06
07.781,4.89
07.796,2.76
07.812,-0.18
07.828,-2.32
07.843,-2.55
07.859,-0.89
07.875,1.53
07.890,3.14
07.906,2.9
07.921,0.88
07.937,-1.69
07.953,-3.32
07.968,-3.01
07.984,-0.94
08.000,1.62
08.015,3.17
08.031,2.75
08.046,0.57
08.062,-2.1
08.078,-3.73
08.093,-3.43
08.109,-1.43
08.125,1.04
08.140,2.51
08.156,2.16
08.171,0.26
08.187,-1.91
08.203,-2.9
08.218,-1.93
08.234,0.68
08.250,3.6
08.265,5.32
08.281,4.97
08.296,2.83
08.312,0.13
08.328,-1.64
08.343,-1.56
08.359,0.15
08.375,2.3
08.390,3.45
08.406,2.74
08.421,0.37
08.437,-2.44
08.453,-4.27
08.468,-4.18
08.484,-2.31
08.500,0.18
08.515,1.93
08.531,2.04
08.546,0.66
08.562,-1.12
08.578,-2.01
08.593,-1.25
08.609,0.85
08.625,3.06
08.640,4.01
08.656,2.95
08.671,0.3
08.687,-2.62
08.703,-4.33
08.718,-4.03
08.734,-2.05
08.750,0.31
08.765,1.65
08.781,1.17
08.796,-0.81
08.812,-3.07
08.828,-4.25
08.843,-3.56
08.859,-1.3
08.875,1.31
08.890,2.92
08.906,2.7
08.921,0.86
08.937,-1.41
08.953,-2.76
08.968,-2.33
08.984,-0.33
09.000,2.05
09.015,3.42
09.031,2.91
09.046,0.76
09.062,-1.81
09.078,-3.35
09.093,-2.92
09.109,-0.75
09.125,1.94
09.140,3.68
09.156,3.52
09.171,1.61
09.187,-0.88
09.203,-2.48
09.218,-2.22
09.234,-0.23
09.250,2.33
09.265,3.96
09.281,3.66
09.296,1.51
09.312,-1.32
09.328,-3.34
09.343,-3.52
09.359,-1.9
09.375,0.38
09.390,1.89
09.406,1.68
09.421,-0.04
09.437,-2.11
09.453,-3.06
09.468,-2.08
09.484,0.43
09.500,3.06
09.515,4.23
09.531,3.1
09.546,0.17
09.562,-2.99
09.578,-4.66
09.593,-3.9
09.609,-1.07
09.625,2.28
09.640,4.45
09.656,4.43
09.671,2.48
09.687,-0.12
09.703,-1.75
09.718,-1.45
09.734,0.58
09.750,3.08
09.765,4.51
09.781,3.92
09.796,1.47
09.812,-1.56
09.828,-3.63
09.843,-3.68
09.859,-1.91
09.875,0.46
09.890,1.94
09.906,1.62
09.921,-0.22
09.937,-2.32
09.953,-3.32
09.968,-2.48
09.984,-0.28
10.000,1.91
10.015,2.71
10.031,1.52
10.046,-1.11
10.062,-3.69
10.078,-4.79
10.093,-3.77
10.109,-1.14
10.125,1.63
10.140,3.07
10.156,2.46
10.171,0.28
10.187,-2.1
10.203,-3.19
10.218,-2.25
10.234,0.27
10.250,3.0
10.265,4.49
10.281,3.96
10.296,1.82
10.312,-0.62
10.328,-1.98
10.343,-1.53
10.359,0.27
10.375,2.14
10.390,2.79
10.406,1.62
10.421,-0.84
10.437,-3.26
10.453,-4.29
10.468,-3.32
10.484,-0.82
10.500,1.83
10.515,3.24
10.531,2.62
10.546,0.33
10.562,-2.37
10.578,-4.07
10.593,-3.89
10.609,-2.06
10.625,0.27
10.640,1.69
10.656,1.38
10.671,-0.42
10.687,-2.55
10.703,-3.6
10.718,-2.75
10.734,-0.33
10.750,2.39
10.765,3.93
10.781,3.46
10.796,1.38
10.812,-1.02
10.828,-2.26
10.843,-1.54
10.859,0.79
10.875,3.43
10.890,4.95
10.906,4.57
10.921,2.6
10.937,0.26
10.953,-1.11
10.968,-0.78
10.984,0.95
11.000,2.9
11.015,3.73
11.031,2.71
11.046,0.18
11.062,-2.66
11.078,-4.41
11.093,-4.24
11.109,-2.4
11.125,-0.08
11.140,1.34
11.156,1.02
11.171,-0.81
11.187,-2.94
11.203,-4.0
11.218,-3.19
11.234,-0.85
11.250,1.77
11.265,3.22
11.281,2.73
11.296,0.68
11.312,-1.6
11.328,-2.69
11.343,-1.89
11.359,0.37
11.375,2.67
11.390,3.6
11.406,2.44
11.421,-0.24
11.437,-2.96
11.453,-4.22
11.468,-3.31
11.484,-0.75
11.500,2.02
11.515,3.47
11.531,2.83
11.546,0.51
11.562,-2.09
11.578,-3.56
11.593,-3.13
11.609,-1.23
11.625,0.84
11.640,1.74
11.656,0.82
11.671,-1.42
11.687,-3.67
11.703,-4.55
11.718,-3.42
11.734,-0.83
11.750,1.81
11.765,3.06
11.781,2.21
11.796,-0.23
11.812,-2.84
11.828,-4.14
11.843,-3.35
11.859,-0.87
11.875,1.9
11.890,3.5
11.906,3.08
11.921,1.0
11.937,-1.45
11.953,-2.82
11.968,-2.24
12.000,2.67
12.015,4.28
12.031,4.05
12.046,2.21
12.062,0.01
12.078,-1.19
12.093,-0.58
12.109,1.5
12.125,3.82
12.140,4.97
12.156,4.14
12.171,1.75
12.187,-0.94
12.203,-2.51
12.218,-2.21
12.234,-0.4
12.250,1.6
12.265,2.44
12.281,1.46
12.296,-0.83
12.312,-3.06
12.328,-3.87
12.343,-2.67
12.359,-0.02
12.375,2.66
12.390,4.0
12.406,3.39
12.421,1.33
12.437,-0.85
12.453,-1.89
12.468,-1.19
12.484,0.74
12.500,2.68
12.515,3.39
12.531,2.31
12.546,-0.08
12.562,-2.53
12.578,-3.75
12.593,-3.08
12.609,-0.93
12.625,1.46
12.640,2.76
12.656,2.24
12.671,0.22
12.687,-2.04
12.703,-3.2
12.718,-2.51
12.734,-0.33
12.750,2.03
12.765,3.22
12.781,2.5
12.796,0.27
12.812,-2.23
12.828,-3.63
12.843,-3.21
12.859,-1.36
12.875,0.7
12.890,1.66
12.906,0.88
12.921,-1.23
12.937,-3.45
12.953,-4.49
12.968,-3.66
12.984,-1.32
13.000,1.34
13.015,3.01
13.031,2.95
13.046,1.46
13.062,-0.39
13.078,-1.32
13.093,-0.67
13.109,1.25
13.125,3.26
13.140,4.09
13.156,3.1
13.171,0.7
13.187,-1.84
13.203,-3.22
13.218,-2.76
13.234,-0.92
13.250,0.98
13.265,1.61
13.281,0.32
13.296,-2.33
13.312,-4.98
13.328,-6.17
13.343,-5.18
13.359,-2.45
13.375,0.68
13.390,2.78
13.406,3.06
13.421,1.82
13.437,0.26
13.453,-0.37
13.468,0.58
13.484,2.71
13.500,4.77
13.515,5.48
13.531,4.21
13.546,1.43
13.562,-1.53
13.578,-3.26
13.593,-2.95
13.609,-0.92
13.625,1.61
13.640,3.28
13.656,3.22
13.671,1.58
13.687,-0.55
13.703,-1.89
13.718,-1.66
13.734,-0.08
13.750,1.77
13.765,2.61
13.781,1.72
13.796,-0.59
13.812,-3.15
13.828,-4.56
13.843,-4.08
13.859,-1.98
13.875,0.46
13.890,1.85
13.906,1.41
13.921,-0.52
13.937,-2.62
13.953,-3.44
13.968,-2.2
13.984,0.63
14.000,3.62
14.015,5.19
14.031,4.53
14.046,2.07
14.062,-0.74
14.078,-2.33
14.093,-1.9
14.109,0.17
14.125,2.48
14.140,3.57
14.156,2.69
14.171,0.29
14.187,-2.33
14.203,-3.77
14.218,-3.34
14.234,-1.47
14.250,0.63
14.265,1.65
14.281,0.96
14.296,-1.02
14.312,-3.1
14.328,-4.01
14.343,-3.12
14.359,-0.87
14.375,1.47
14.390,2.6
14.406,1.82
14.421,-0.48
14.437,-3.04
14.453,-4.51
14.468,-4.07
14.484,-1.99
14.500,0.54
14.515,2.19
14.531,2.12
14.546,0.56
14.562,-1.35
14.578,-2.28
14.593,-1.4
14.609,1.06
14.625,3.92
14.640,5.79
14.656,5.77
14.671,4.0
14.687,1.61
14.703,-0.03
14.718,-0.05
14.734,1.36
14.750,3.09
14.765,3.81
14.781,2.79
14.796,0.32
14.812,-2.37
14.828,-3.92
14.843,-3.49
14.859,-1.38
14.875,1.16
14.890,2.71
14.906,2.47
14.921,0.68
14.937,-1.46
14.953,-2.58
14.968,-1.92
14.984,0.21
15.000,2.53
15.015,3.65
15.031,2.77
15.046,0.21
15.062,-2.73
15.078,-4.61
15.093,-4.56
15.109,-2.85
15.125,-0.68
15.140,0.54
15.171,-2.0
15.187,-4.28
15.203,-5.43
15.218,-4.66
15.234,-2.25
15.250,0.61
15.265,2.53
15.281,2.68
15.296,1.29
15.312,-0.54
15.328,-1.53
15.343,-0.94
15.359,0.97
15.375,3.06
15.390,4.05
15.406,3.23
15.421,0.94
15.437,-1.63
15.453,-3.13
15.468,-2.76
15.484,-0.84
15.500,1.46
15.515,2.77
15.531,2.33
15.546,0.4
15.562,-1.85
15.578,-3.09
15.593,-2.54
15.609,-0.51
15.625,1.83
15.640,3.1
15.656,2.53
15.671,0.37
15.687,-2.14
15.703,-3.57
15.718,-3.03
15.734,-0.71
15.750,2.14
15.765,4.0
15.781,3.83
15.796,1.76
15.812,-1.05
15.828,-3.03
15.843,-3.13
15.859,-1.38
15.875,1.04
15.890,2.67
15.906,2.49
15.921,0.66
15.937,-1.59
15.953,-2.81
15.968,-2.06
15.984,0.36
16.000,3.05
16.015,4.44
16.031,3.57
16.046,0.8
16.062,-2.4
16.078,-4.34
16.093,-3.97
16.109,-1.56
16.125,1.45
16.140,3.35
16.156,3.09
16.171,0.86
16.187,-2.03
16.203,-3.93
16.218,-3.81
16.234,-1.82
16.250,0.73
16.265,2.32
16.281,1.98
16.296,-0.03
16.312,-2.46
16.328,-3.78
16.343,-3.02
16.359,-0.45
16.375,2.62
16.390,4.61
16.406,4.49
16.421,2.44
16.437,-0.29
16.453,-2.12
16.468,-2.0
16.484,0.01
16.500,2.73
16.515,4.65
16.531,4.74
16.546,3.01
16.562,0.53
16.578,-1.24
16.593,-1.36
16.609,0.15
16.625,2.18
16.640,3.38
16.656,2.86
16.671,0.79
16.687,-1.71
16.703,-3.27
16.718,-3.01
16.734,-1.15
16.750,1.13
16.765,2.37
16.781,1.69
16.796,-0.66
16.812,-3.41
16.828,-5.09
16.843,-4.77
16.859,-2.71
16.875,-0.14
16.890,1.45
16.906,1.17
16.921,-0.7
16.937,-2.9
16.953,-4.0
16.968,-3.21
16.984,-0.86
17.000,1.71
17.015,3.06
17.031,2.44
17.046,0.26
17.062,-2.16
17.078,-3.33
17.093,-2.49
17.109,0.02
17.125,2.83
17.140,4.48
17.156,4.11
17.171,2.03
17.187,-0.52
17.203,-2.12
17.218,-1.91
17.234,-0.14
17.250,2.03
17.265,3.24
17.281,2.64
17.296,0.5
17.312,-2.05
17.328,-3.62
17.343,-3.34
17.359,-1.38
17.375,1.09
17.390,2.72
17.406,2.63
17.421,0.94
17.437,-1.23
17.453,-2.51
17.468,-2.06
17.484,-0.08
17.500,2.27
17.515,3.6
17.531,3.08
17.546,0.95
17.562,-1.58
17.578,-3.09
17.593,-2.72
17.609,-0.7
17.625,1.76
17.640,3.18
17.656,2.64
17.671,0.37
17.687,-2.41
17.703,-4.19
17.718,-3.95
17.734,-1.84
17.750,1.01
17.765,3.1
17.781,3.36
17.796,1.83
17.812,-0.42
17.828,-1.94
17.843,-1.74
17.859,0.13
17.875,2.53
17.890,4.01
17.906,3.67
17.921,1.62
17.937,-0.94
17.953,-2.57
17.968,-2.34
17.984,-0.41
18.000,2.06
18.015,3.6
18.031,3.31
18.046,1.36
18.062,-1.09
18.078,-2.63
18.093,-2.37
18.109,-0.52
18.125,1.73
18.140,2.98
18.156,2.34
18.171,0.03
18.187,-2.75
18.203,-4.46
18.218,-4.13
18.234,-1.92
18.250,0.91
18.265,2.77
18.281,2.61
18.296,0.56
18.312,-2.14
18.328,-3.87
18.343,-3.58
18.359,-1.41
18.375,1.34
18.390,3.07
18.406,2.73
18.421,0.52
18.437,-2.27
18.453,-4.05
18.468,-3.81
18.484,-1.75
18.500,0.88
18.515,2.58
18.531,2.39
18.546,0.51
18.562,-1.88
18.578,-3.37
18.593,-3.05
18.609,-1.1
18.625,1.41
18.640,3.09
18.656,3.09
18.671,1.53
18.687,-0.56
18.703,-1.93
18.718,-1.76
18.734,-0.2
18.750,1.7
18.765,2.73
18.781,2.13
18.796,0.16
18.812,-2.1
18.828,-3.38
18.843,-2.9
18.859,-0.94
18.875,1.38
18.890,2.73
18.906,2.43
18.921,0.73
18.937,-1.18
18.953,-1.99
18.968,-0.99
18.984,1.52
19.000,4.29
19.015,5.9
19.031,5.51
19.046,3.33
19.062,0.53
19.078,-1.48
19.093,-1.82
19.109,-0.62
19.125,1.07
19.140,1.97
19.156,1.24
19.171,-0.93
19.187,-3.48
19.203,-5.11
19.218,-4.97
19.234,-3.17
19.250,-0.79
19.265,0.89
19.281,0.96
19.296,-0.5
19.312,-2.52
19.328,-3.83
19.343,-3.61
19.359,-1.93
19.375,0.27
19.390,1.74
19.406,1.67
19.421,0.16
19.437,-1.76
19.453,-2.8
19.468,-2.13
19.484,0.08
19.500,2.7
19.515,4.32
19.531,4.0
19.546,1.87
19.562,-0.97
19.578,-3.04
19.593,-3.39
19.609,-2.06
19.625,-0.07
19.640,1.24
19.656,1.02
19.671,-0.57
19.687,-2.47
19.703,-3.37
19.718,-2.43
19.734,0.09
19.750,2.99
19.765,4.83
19.781,4.69
19.796,2.71
19.812,0.06
19.828,-1.79
19.843,-1.8
19.859,-0.07
19.875,2.3
19.890,3.8
19.906,3.47
19.921,1.43
19.937,-1.17
19.953,-2.83
19.968,-2.57
19.984,-0.57
20.000,1.96
20.015,3.5
20.031,3.13
20.046,1.03
20.062,-1.54
20.078,-3.11
20.093,-2.77
20.109,-0.68
20.125,1.88
20.140,3.46
20.156,3.07
20.171,0.91
20.187,-1.82
20.203,-3.6
20.218,-3.38
20.234,-1.23
20.250,1.72
20.265,3.91
20.281,4.15
20.296,2.33
20.312,-0.57
20.328,-3.03
20.343,-3.81
20.359,-2.65
20.375,-0.44
20.390,1.42
20.406,1.74
20.421,0.32
20.437,-1.9
20.453,-3.48
20.468,-3.3
20.484,-1.2
20.500,1.76
20.515,4.01
20.531,4.34
20.546,2.6
20.562,-0.16
20.578,-2.29
20.593,-2.57
20.609,-0.85
20.625,1.82
20.640,3.85
20.656,4.01
20.671,2.19
20.687,-0.55
20.703,-2.69
20.718,-3.09
20.734,-1.64
20.750,0.58
20.765,2.13
20.781,1.88
20.796,-0.17
20.812,-2.97
20.828,-5.01
20.843,-5.15
20.859,-3.29
20.875,-0.38
20.890,2.12
20.906,3.09
20.921,2.28
20.937,0.53
20.953,-0.87
20.968,-0.93
20.984,0.44
21.000,2.31
21.015,3.36
21.031,2.67
21.046,0.29
21.062,-2.67
21.078,-4.74
21.093,-4.88
21.109,-3.16
21.125,-0.75
21.140,0.83
21.156,0.55
21.171,-1.48
21.187,-4.04
21.203,-5.51
21.218,-4.85
21.234,-2.14
21.250,1.34
21.265,3.95
21.281,4.52
21.296,3.01
21.312,0.58
21.328,-1.17
21.343,-1.14
21.359,0.68
21.375,3.18
21.390,4.85
21.406,4.64
21.421,2.6
21.437,-0.17
21.453,-2.15
21.468,-2.38
21.484,-0.91
21.500,1.18
21.515,2.51
21.531,2.17
21.546,0.24
21.562,-2.19
21.578,-3.73
21.593,-3.48
21.609,-1.49
21.625,1.18
21.640,3.15
21.656,3.42
21.671,1.96
21.687,-0.3
21.703,-2.0
21.718,-2.16
21.734,-0.72
21.750,1.41
21.765,2.92
21.781,2.83
21.796,1.11
21.812,-1.26
21.828,-2.87
21.843,-2.7
21.859,-0.71
21.875,2.03
21.890,4.06
21.906,4.25
21.921,2.47
21.937,-0.29
21.953,-2.47
21.968,-2.89
21.984,-1.32
22.000,1.24
22.015,3.27
22.031,3.53
22.046,1.8
22.062,-0.93
22.078,-3.1
22.093,-3.5
22.109,-1.92
22.125,0.6
22.140,2.49
22.156,2.48
22.171,0.43
22.187,-2.55
22.203,-4.79
22.218,-4.98
22.234,-2.94
22.250,0.26
22.265,2.97
22.281,3.87
22.296,2.77
22.312,0.63
22.328,-1.03
22.343,-1.09
22.359,0.55
22.375,2.84
22.390,4.31
22.406,3.84
22.421,1.38
22.437,-1.96
22.453,-4.58
22.468,-5.28
22.484,-3.86
22.500,-1.32
22.515,0.84
22.531,1.42
22.546,0.18
22.562,-1.98
22.578,-3.64
22.593,-3.68
22.609,-1.97
22.625,0.57
22.640,2.58
22.656,2.98
22.671,1.69
22.687,-0.33
22.703,-1.68
22.718,-1.32
22.734,0.78
22.750,3.56
22.765,5.51
22.781,5.48
22.796,3.34
22.812,0.18
22.828,-2.43
22.843,-3.23
22.859,-2.0
22.875,0.29
22.890,2.14
22.906,2.33
22.921,0.65
22.937,-1.92
22.953,-3.84
22.968,-4.01
22.984,-2.27
23.000,0.35
23.015,2.35
23.031,2.57
23.046,0.88
23.062,-1.76
23.078,-3.87
23.093,-4.28
23.109,-2.86
23.125,-0.53
23.140,1.3
23.156,1.52
23.171,0.04
23.187,-2.17
23.203,-3.67
23.218,-3.41
23.234,-1.33
23.250,1.49
23.265,3.54
23.281,3.65
23.296,1.71
23.312,-1.22
23.328,-3.55
23.343,-4.1
23.359,-2.66
23.375,-0.18
23.390,1.9
23.406,2.46
23.421,1.32
23.437,-0.61
23.453,-1.95
23.468,-1.63
23.484,0.43
23.500,3.25
23.515,5.45
23.531,5.94
23.546,4.57
23.562,2.24
23.578,0.3
23.593,-0.23
23.609,0.82
23.625,2.59
23.640,3.81
23.656,3.53
23.671,1.66
23.687,-0.91
23.703,-2.8
23.718,-2.98
23.734,-1.32
23.750,1.24
23.765,3.26
23.781,3.56
23.796,1.88
23.812,-0.91
23.828,-3.31
23.843,-4.07
23.859,-2.82
23.875,-0.37
23.890,1.9
23.906,2.71
23.921,1.7
23.937,-0.36
23.953,-2.09
23.968,-2.29
23.984,-0.68
24.000,1.9
24.015,4.0
24.031,4.37
24.046,2.7
24.062,-0.12
24.078,-2.59
24.093,-3.43
24.109,-2.35
24.125,-0.22
24.140,1.44
24.156,1.41
24.171,-0.56
24.187,-3.52
24.203,-5.91
24.218,-6.47
24.234,-4.92
24.250,-2.19
24.265,0.25
24.281,1.15
24.296,0.23
24.312,-1.6
24.328,-2.9
24.343,-2.58
24.359,-0.49
24.375,2.39
24.390,4.55
24.406,4.82
24.421,3.06
24.437,0.28
24.453,-1.95
24.468,-2.42
24.484,-0.93
24.500,1.52
24.515,3.41
24.531,3.51
24.546,1.59
24.562,-1.39
24.578,-3.84
24.593,-4.48
24.609,-2.93
24.625,-0.02
24.640,2.72
24.656,3.93
24.671,3.1
24.687,0.96
24.703,-1.06
24.718,-1.63
24.734,-0.26
24.750,2.37
24.765,4.85
24.781,5.84
24.796,4.8
24.812,2.38
24.828,-0.08
24.843,-1.31
24.859,-0.9
24.875,0.52
24.890,1.63
24.906,1.28
24.921,-0.75
24.937,-3.63
24.953,-5.88
24.968,-6.29
24.984,-4.56
25.000,-1.63
25.015,0.94
25.031,1.84
25.046,0.67
25.062,-1.72
25.078,-3.8
25.093,-4.33
25.109,-2.94
25.125,-0.48
25.140,1.58
25.156,2.01
25.171,0.5
25.187,-2.03
25.203,-4.05
25.218,-4.3
25.234,-2.5
25.250,0.43
25.265,2.96
25.281,3.81
25.296,2.7
25.312,0.55
25.328,-1.2
25.343,-1.38
25.359,0.15
25.375,2.43
25.390,4.05
25.406,3.96
25.421,2.1
25.437,-0.5
25.453,-2.35
25.468,-2.43
25.484,-0.68
25.500,1.83
25.515,3.54
25.531,3.37
25.546,1.22
25.562,-1.81
25.578,-4.09
25.593,-4.38
25.609,-2.52
25.625,0.41
25.640,2.82
25.656,3.47
25.671,2.19
25.687,0.01
25.703,-1.6
25.718,-1.57
25.734,0.13
25.750,2.43
25.765,3.91
25.781,3.59
25.796,1.57
25.812,-1.05
25.828,-2.79
25.843,-2.68
25.859,-0.77
25.875,1.82
25.890,3.55
25.906,3.32
25.921,1.06
25.937,-2.18
25.953,-4.76
25.968,-5.42
25.984,-3.89
26.000,-1.11
26.015,1.39
26.031,2.31
26.046,1.31
26.062,-0.73
26.078,-2.37
26.093,-2.45
26.109,-0.79
26.125,1.67
26.140,3.44
26.156,3.4
26.171,1.41
26.187,-1.49
26.203,-3.7
26.218,-4.02
26.234,-2.28
26.250,0.52
26.265,2.87
26.281,3.53
26.296,2.31
26.312,0.09
26.328,-1.68
26.343,-1.93
26.359,-0.49
26.375,1.69
26.390,3.23
26.406,3.05
26.421,1.01
26.437,-1.92
26.453,-4.28
26.468,-4.87
26.484,-3.45
26.500,-0.86
26.515,1.51
26.531,2.49
26.546,1.79
26.562,0.2
26.578,-1.01
26.593,-0.81
26.609,0.94
26.625,3.3
26.640,4.92
26.656,4.77
26.671,2.73
26.687,-0.22
26.703,-2.64
26.718,-3.42
26.734,-2.37
26.750,-0.33
26.765,1.32
26.781,1.54
26.796,0.17
26.812,-1.94
26.828,-3.42
26.843,-3.24
26.859,-1.29
26.875,1.49
26.890,3.66
26.906,4.08
26.921,2.58
26.937,0.06
26.953,-2.04
26.968,-2.56
26.984,-1.28
27.000,0.97
27.015,2.89
27.031,3.41
27.046,2.32
27.062,0.4
27.078,-1.08
27.093,-1.17
27.109,0.22
27.125,2.18
27.140,3.36
27.156,2.78
27.171,0.36
27.187,-2.88
27.203,-5.36
27.218,-5.91
27.234,-4.33
27.250,-1.62
27.265,0.65
27.281,1.23
27.296,-0.13
27.312,-2.45
27.328,-4.23
27.343,-4.25
27.359,-2.32
27.375,0.58
27.390,2.97
27.406,3.66
27.421,2.53
27.437,0.51
27.453,-0.96
27.468,-0.77
27.484,1.18
27.500,3.89
27.515,5.84
27.531,5.89
27.546,3.85
27.562,0.69
27.578,-2.05
27.593,-3.16
27.609,-2.35
27.625,-0.49
27.640,1.02
27.656,1.06
27.671,-0.53
27.687,-2.8
27.703,-4.31
27.718,-4.05
27.734,-2.04
27.750,0.64
27.765,2.52
27.781,2.59
27.796,0.89
27.812,-1.48
27.828,-3.08
27.843,-2.96
27.859,-1.27
27.875,0.9
27.890,2.2
27.906,1.81
27.921,-0.03
27.937,-2.17
27.953,-3.28
27.968,-2.59
27.984,-0.36
28.000,2.21
28.015,3.74
28.031,3.35
28.046,1.22
28.062,-1.5
28.078,-3.32
28.093,-3.24
28.109,-1.28
28.125,1.52
28.140,3.7
28.156,4.16
28.171,2.8
28.187,0.55
28.203,-1.17
28.218,-1.27
28.234,0.37
28.250,2.76
28.265,4.46
28.281,4.28
28.296,2.14
28.312,-0.94
28.328,-3.44
28.343,-4.18
28.359,-2.99
28.375,-0.84
28.390,0.82
28.406,0.96
28.421,-0.51
28.437,-2.57
28.453,-3.86
28.468,-3.44
28.484,-1.41
28.500,1.11
28.515,2.73
28.531,2.51
28.546,0.59
28.562,-1.92
28.578,-3.56
28.593,-3.37
28.609,-1.39
28.625,1.34
28.640,3.42
28.656,3.82
28.671,2.5
28.687,0.36
28.703,-1.31
28.718,-1.53
28.734,-0.22
28.750,1.75
28.765,3.12
28.781,2.95
28.796,1.15
28.812,-1.43
28.828,-3.53
28.843,-4.23
28.859,-3.41
28.875,-1.84
28.890,-0.64
28.906,-0.61
28.921,-1.69
28.937,-3.04
28.953,-3.49
28.968,-2.31
28.984,0.3
29.000,3.26
29.015,5.22
29.031,5.29
29.046,3.58
29.062,1.13
29.078,-0.69
29.093,-1.0
29.109,0.18
29.125,1.87
29.140,2.82
29.156,2.2
29.171,0.13
29.187,-2.37
29.203,-3.96
29.218,-3.71
29.234,-1.69
29.250,1.09
29.265,3.21
29.281,3.62
29.296,2.25
29.312,-0.02
29.328,-1.84
29.343,-2.18
29.359,-0.92
29.375,1.04
29.390,2.42
29.406,2.27
29.421,0.57
29.437,-1.68
29.453,-3.15
29.468,-2.91
29.484,-0.99
29.500,1.5
29.515,3.15
29.531,2.96
29.546,0.98
29.562,-1.71
29.578,-3.67
29.593,-3.89
29.609,-2.36
29.625,-0.07
29.640,1.6
29.656,1.72
29.671,0.31
29.687,-1.66
29.703,-2.88
29.718,-2.46
29.734,-0.48
29.750,2.01
29.765,3.69
29.781,3.59
29.796,1.8
29.812,-0.63
29.828,-2.27
29.843,-2.12
29.859,-0.12
29.875,2.67
29.890,4.81
29.906,5.15
29.921,3.51
29.937,0.8
29.953,-1.56
29.968,-2.43
29.984,-1.54
30.000,0.3
30.015,1.83
30.031,2.01
30.046,0.67
30.062,-1.37
30.078,-2.84
30.093,-2.75
30.109,-1.02
30.125,1.42
30.140,3.21
30.156,3.27
30.171,1.5
30.187,-1.17
30.203,-3.32
30.218,-3.84
30.234,-2.58
30.250,-0.49
30.265,1.01
30.281,0.84
30.296,-1.03
30.312,-3.57
30.328,-5.29
30.343,-5.13
30.359,-3.04
30.375,-0.12
30.390,2.14
30.406,2.64
30.421,1.32
30.437,-0.78
30.453,-2.27
30.468,-2.12
30.484,-0.32
30.500,2.12
30.515,3.81
30.531,3.73
30.546,1.84
30.562,-0.88
30.578,-3.02
30.593,-3.54
30.609,-2.28
30.625,-0.13
30.640,1.58
30.656,1.8
30.671,0.4
30.687,-1.74
30.703,-3.26
30.718,-3.14
30.734,-1.33
30.750,1.22
30.765,3.11
30.781,3.3
30.796,1.75
30.812,-0.51
30.828,-2.01
30.843,-1.77
30.859,0.25
30.875,2.99
30.890,5.03
30.906,5.29
30.921,3.72
30.937,1.3
30.953,-0.59
30.968,-0.92
30.984,0.39
31.000,2.44
31.015,3.85
31.031,3.58
31.046,1.49
31.062,-1.47
31.078,-3.85
31.093,-4.5
31.109,-3.19
31.125,-0.82
31.140,1.22
31.156,1.72
31.171,0.48
31.187,-1.6
31.203,-3.14
31.218,-3.01
31.234,-1.1
31.250,1.61
31.265,3.65
31.281,3.88
31.296,2.18
31.312,-0.53
31.328,-2.77
31.343,-3.44
31.359,-2.4
31.375,-0.52
31.390,0.91
31.406,0.86
31.421,-0.73
31.437,-2.93
31.453,-4.39
31.468,-4.17
31.484,-2.24
31.500,0.35
31.515,2.16
31.531,2.16
31.546,0.33
31.562,-2.29
31.578,-4.17
31.593,-4.16
31.609,-2.16
31.625,0.87
31.640,3.43
31.656,4.34
31.671,3.36
31.687,1.33
31.703,-0.35
31.718,-0.56
31.734,0.89
31.750,3.14
31.765,4.79
31.781,4.66
31.796,2.59
31.812,-0.51
31.828,-3.09
31.843,-3.88
31.859,-2.59
31.875,-0.18
31.890,1.83
31.906,2.18
31.921,0.61
31.937,-1.9
31.953,-3.8
31.968,-3.81
31.984,-1.7
32.000,1.5
32.015,4.15
32.031,4.9
32.046,3.5
32.062,0.9
32.078,-1.32
32.093,-1.94
32.109,-0.74
32.125,1.29
32.140,2.66
32.156,2.27
32.171,0.06
32.187,-2.85
32.203,-4.85
32.218,-4.84
32.234,-2.77
32.250,0.21
32.265,2.51
32.281,2.93
32.296,1.4
32.312,-1.02
32.328,-2.79
32.343,-2.8
32.359,-0.96
32.375,1.69
32.390,3.69
32.406,3.92
32.421,2.33
32.437,-0.05
32.453,-1.8
32.468,-1.89
32.484,-0.27
32.500,2.02
32.515,3.58
32.531,3.35
32.546,1.24
32.562,-1.75
32.578,-4.17
32.593,-4.91
32.609,-3.75
32.625,-1.51
32.640,0.47
32.656,1.11
32.671,0.16
32.687,-1.59
32.703,-2.87
32.718,-2.68
32.734,-0.85
32.750,1.73
32.765,3.76
32.781,4.21
32.796,2.86
32.812,0.55
32.828,-1.34
32.843,-1.75
32.859,-0.45
32.875,1.74
32.890,3.5
32.906,3.69
32.921,2.1
32.937,-0.53
32.953,-2.83
32.968,-3.64
32.984,-2.62
33.000,-0.46
33.015,1.53
33.031,2.18
33.046,1.12
33.062,-0.97
33.078,-2.75
33.093,-3.1
33.109,-1.69
33.125,0.74
33.140,2.82
33.156,3.32
33.171,1.91
33.187,-0.59
33.203,-2.68
33.218,-3.05
33.234,-1.34
33.250,1.55
33.265,4.02
33.281,4.67
33.296,3.08
33.312,0.1
33.328,-2.64
33.343,-3.67
33.359,-2.5
33.375,0.11
33.390,2.64
33.406,3.66
33.421,2.69
33.437,0.44
33.453,-1.69
33.468,-2.46
33.484,-1.48
33.500,0.52
33.515,2.21
33.531,2.45
33.546,0.97
33.562,-1.38
33.578,-3.21
33.593,-3.43
33.609,-1.84
33.625,0.63
33.640,2.53
33.656,2.73
33.671,0.97
33.687,-1.8
33.703,-4.1
33.718,-4.69
33.734,-3.23
33.750,-0.5
33.765,2.04
33.781,3.14
33.796,2.35
33.812,0.26
33.828,-1.76
33.843,-2.51
33.859,-1.47
33.875,0.74
33.890,2.9
33.906,3.8
33.921,3.0
33.937,1.08
33.953,-0.77
33.968,-1.39
33.984,-0.41
34.000,1.54
34.015,3.15
34.031,3.27
34.046,1.53
34.062,-1.32
34.078,-3.85
34.093,-4.82
34.109,-3.75
34.125,-1.32
34.140,1.13
34.156,2.31
34.171,1.7
34.187,-0.11
34.203,-1.86
34.218,-2.33
34.234,-1.12
34.250,1.14
34.265,3.16
34.281,3.75
34.296,2.53
34.312,0.18
34.328,-1.93
34.343,-2.64
34.359,-1.5
34.375,0.78
34.390,2.87
34.406,3.5
34.421,2.26
34.437,-0.23
34.453,-2.6
34.468,-3.61
34.484,-2.77
34.500,-0.64
34.515,1.48
34.531,2.33
34.546,1.33
34.562,-0.99
34.578,-3.35
34.593,-4.46
34.609,-3.76
34.625,-1.77
34.640,0.25
34.656,1.03
34.671,0.05
34.687,-2.12
34.703,-4.16
34.718,-4.78
34.734,-3.51
34.750,-0.91
34.765,1.66
34.781,2.94
34.796,2.42
34.812,0.66
34.828,-1.08
34.843,-1.61
34.859,-0.51
34.875,1.65
34.890,3.7
34.906,4.5
34.921,3.66
34.937,1.69
34.953,-0.26
34.968,-1.12
34.984,-0.44
35.000,1.27
35.015,2.91
35.031,3.45
35.046,2.41
35.062,0.28
35.078,-1.86
35.093,-2.91
35.109,-2.36
35.125,-0.58
35.140,1.38
35.156,2.42
35.171,1.93
35.187,0.23
35.203,-1.77
35.218,-3.03
35.234,-2.97
35.250,-1.79
35.265,-0.33
35.281,0.48
35.296,0.12
35.312,-1.18
35.328,-2.5
35.343,-2.83
35.359,-1.58
35.375,0.97
35.390,3.77
35.406,5.6
35.421,5.65
35.437,4.07
35.453,1.83
35.468,0.2
35.484,0.03
35.500,1.21
35.515,2.75
35.531,3.42
35.546,2.43
35.562,0.01
35.578,-2.72
35.593,-4.39
35.609,-4.14
35.625,-2.17
35.640,0.36
35.656,2.1
35.671,2.14
35.687,0.65
35.703,-1.27
35.718,-2.36
35.734,-1.83
35.750,0.04
35.765,2.12
35.781,3.12
35.796,2.35
35.812,0.19
35.828,-2.13
35.843,-3.25
35.859,-2.48
35.875,-0.14
35.890,2.49
35.906,4.02
35.921,3.65
35.937,1.62
35.953,-0.93
35.968,-2.63
35.984,-2.63
36.000,-1.1
36.015,0.87
36.031,1.93
36.046,1.24
36.062,-1.05
36.078,-3.83
36.093,-5.71
36.109,-5.71
36.125,-3.92
36.140,-1.43
36.156,0.39
36.171,0.58
36.187,-0.72
36.203,-2.43
36.218,-3.21
36.234,-2.24
36.250,0.25
36.265,3.03
36.281,4.7
36.296,4.41
36.312,2.39
36.328,-0.17
36.343,-1.9
36.359,-1.95
36.375,-0.48
36.390,1.4
36.406,2.38
36.421,1.65
36.437,-0.6
36.453,-3.29
36.468,-5.03
36.484,-4.95
36.500,-3.13
36.515,-0.62
36.531,1.27
36.546,1.63
36.562,0.57
36.578,-0.91
36.593,-1.55
36.609,-0.58
36.625,1.79
36.640,4.39
36.656,5.81
36.671,5.17
36.687,2.68
36.703,-0.47
36.718,-2.74
36.734,-3.14
36.750,-1.74
36.765,0.37
36.781,1.74
36.796,1.39
36.812,-0.65
36.828,-3.29
36.843,-5.11
36.859,-5.06
36.875,-3.13
36.890,-0.31
36.906,2.01
36.921,2.82
36.937,2.11
36.953,0.77
36.968,0.04
36.984,0.68
37.000,2.48
37.015,4.39
37.031,5.17
37.046,4.16
37.062,1.73
37.078,-0.88
37.093,-2.32
37.109,-1.86
37.125,0.14
37.140,2.47
37.156,3.75
37.171,3.25
37.187,1.22
37.203,-1.19
37.218,-2.69
37.234,-2.55
37.250,-1.0
37.265,0.86
37.281,1.79
37.296,1.03
37.312,-1.17
37.328,-3.71
37.343,-5.33
37.359,-5.18
37.375,-3.41
37.390,-1.06
37.406,0.61
37.421,0.71
37.437,-0.66
37.453,-2.52
37.468,-3.55
37.484,-2.85
37.500,-0.49
37.515,2.54
37.531,4.8
37.546,5.19
37.562,3.6
37.578,0.98
37.593,-1.21
37.609,-1.8
37.625,-0.59
37.640,1.53
37.656,3.17
37.671,3.22
37.687,1.56
37.703,-0.8
37.718,-2.41
37.734,-2.21
37.750,-0.13
37.765,2.71
37.781,4.78
37.796,4.94
37.812,3.1
37.828,0.3
37.843,-1.95
37.859,-2.57
37.875,-1.41
37.890,0.6
37.906,2.06
37.921,1.93
37.937,0.08
37.953,-2.54
37.968,-4.57
37.984,-4.92
38.000,-3.44
38.015,-1.02
38.031,1.03
38.046,1.64
38.062,0.62
38.078,-1.22
38.093,-2.63
38.109,-2.66
38.125,-1.24
38.140,0.79
38.156,2.22
38.171,2.17
38.187,0.65
38.203,-1.42
38.218,-2.79
38.234,-2.62
38.250,-0.96
38.265,1.23
38.281,2.63
38.296,2.29
38.312,0.2
38.328,-2.65
38.343,-4.81
38.359,-5.19
38.375,-3.63
38.390,-1.07
38.406,1.09
38.421,1.7
38.437,0.52
38.453,-1.58
38.468,-3.22
38.484,-3.29
38.500,-1.57
38.515,1.07
38.531,3.26
38.546,3.87
38.562,2.7
38.578,0.59
38.593,-1.1
38.609,-1.3
38.625,0.11
38.640,2.29
38.656,3.9
38.671,3.93
38.687,2.27
38.703,-0.14
38.718,-1.9
38.734,-1.97
38.750,-0.21
38.765,2.41
38.781,4.45
38.796,4.8
38.812,3.26
38.828,0.72
38.843,-1.42
38.859,-2.07
38.875,-0.99
38.890,1.01
38.906,2.62
38.921,2.82
38.937,1.37
38.953,-0.91
38.968,-2.71
38.984,-2.99
39.000,-1.54
39.015,0.83
39.031,2.75
39.046,3.09
39.062,1.6
39.078,-0.88
39.093,-3.0
39.109,-3.58
39.125,-2.36
39.140,-0.13
39.156,1.77
39.171,2.25
39.187,1.08
39.203,-0.94
39.218,-2.41
39.234,-2.25
39.250,-0.25
39.265,2.74
39.281,5.22
39.296,5.95
39.312,4.61
39.328,2.04
39.343,-0.37
39.359,-1.35
39.375,-0.59
39.390,1.12
39.406,2.38
39.421,2.04
39.437,-0.11
39.453,-3.18
39.468,-5.64
39.484,-6.29
39.500,-4.87
39.515,-2.28
39.546,0.74
39.562,-0.34
39.578,-2.41
39.593,-4.04
39.609,-4.04
39.625,-2.11
39.640,0.91
39.656,3.58
39.671,4.62
39.687,3.64
39.703,1.38
39.718,-0.79
39.734,-1.66
39.750,-0.84
39.765,1.0
39.781,2.61
39.796,2.88
39.812,1.51
39.828,-0.76
39.843,-2.62
39.859,-2.99
39.875,-1.55
39.890,0.95
39.906,3.22
39.921,4.11
39.937,3.29
39.953,1.38
39.968,-0.37
39.984,-0.88
40.000,0.15
40.015,2.02
40.031,3.52
40.046,3.59
40.062,1.99
40.078,-0.55
40.093,-2.75
40.109,-3.48
40.125,-2.41
40.140,-0.22
40.156,1.85
40.171,2.67
40.187,1.87
40.203,0.06
40.218,-1.57
40.234,-1.96
40.250,-0.75
40.265,1.42
40.281,3.28
40.296,3.71
40.312,2.3
40.328,-0.31
40.343,-2.83
40.359,-4.04
40.375,-3.46
40.390,-1.62
40.406,0.28
40.421,1.12
40.437,0.46
40.453,-1.18
40.468,-2.66
40.484,-2.99
40.500,-1.85
40.515,0.11
40.531,1.65
40.546,1.75
40.562,0.13
40.578,-2.43
40.593,-4.58
40.609,-5.18
40.625,-3.86
40.640,-1.41
40.656,0.79
40.671,1.5
40.687,0.35
40.703,-1.9
40.718,-3.82
40.734,-4.15
40.750,-2.51
40.765,0.39
40.781,3.1
40.796,4.33
40.812,3.58
40.828,1.45
40.843,-0.71
40.859,-1.64
40.875,-0.87
40.890,1.05
40.906,2.86
40.921,3.36
40.937,2.1
40.953,-0.38
40.968,-2.79
40.984,-3.93
41.000,-3.29
41.015,-1.38
41.031,0.56
41.046,1.34
41.062,0.47
41.078,-1.48
41.093,-3.2
41.109,-3.46
41.125,-1.75
41.140,1.27
41.156,4.17
41.171,5.56
41.187,4.79
41.203,2.36
41.218,-0.33
41.234,-1.84
41.250,-1.46
41.265,0.42
41.281,2.51
41.296,3.53
41.312,2.79
41.328,0.68
41.343,-1.63
41.359,-2.9
41.375,-2.51
41.390,-0.81
41.406,1.05
41.421,1.91
41.437,1.19
41.453,-0.66
41.468,-2.5
41.484,-3.16
41.500,-2.06
41.515,0.32
41.531,2.76
41.546,3.92
41.562,3.11
41.578,0.69
41.593,-2.13
41.609,-3.96
41.625,-3.98
41.640,-2.31
41.656,-0.01
41.671,1.66
41.687,1.85
41.703,0.62
41.718,-1.09
41.734,-2.12
41.750,-1.69
41.765,0.11
41.781,2.28
41.796,3.61
41.812,3.29
41.828,1.48
41.843,-0.86
41.859,-2.48
41.875,-2.57
41.890,-1.27
41.906,0.49
41.921,1.56
41.937,1.2
41.953,-0.39
41.968,-2.25
41.984,-3.25
42.000,-2.7
42.015,-0.81
42.031,1.43
42.046,2.88
42.062,2.78
42.078,1.23
42.093,-0.84
42.109,-2.26
42.125,-2.22
42.140,-0.75
42.156,1.28
42.171,2.7
42.187,2.64
42.203,1.07
42.218,-1.15
42.234,-2.83
42.250,-3.06
42.265,-1.78
42.281,0.17
42.296,1.58
42.312,1.55
42.328,0.02
42.343,-2.15
42.359,-3.68
42.375,-3.61
42.390,-1.84
42.406,0.74
42.421,2.83
42.437,3.39
42.453,2.29
42.468,0.38
42.484,-1.03
42.500,-0.93
42.515,0.75
42.531,3.07
42.546,4.66
42.562,4.5
42.578,2.51
42.593,-0.31
42.609,-2.55
42.625,-3.1
42.640,-1.79
42.656,0.45
42.671,2.26
42.687,2.48
42.703,0.93
42.718,-1.52
42.734,-3.47
42.750,-3.75
42.765,-2.14
42.781,0.58
42.796,3.04
42.812,4.08
42.828,3.42
42.843,1.76
42.859,0.33
42.875,0.12
42.890,1.26
42.906,2.91
42.921,3.8
42.937,2.99
42.953,0.5
42.968,-2.6
42.984,-4.82
43.000,-5.08
43.015,-3.29
43.031,-0.51
43.046,1.69
43.062,2.07
43.078,0.42
43.093,-2.31
43.109,-4.52
43.125,-4.97
43.140,-3.41
43.156,-0.75
43.171,1.54
43.187,2.29
43.203,1.3
43.218,-0.56
43.234,-1.94
43.250,-1.81
43.265,-0.07
43.281,2.35
43.296,4.09
43.312,4.13
43.328,2.42
43.343,-0.11
43.359,-2.11
43.375,-2.54
43.390,-1.33
43.406,0.65
43.421,2.06
43.437,1.88
43.453,0.03
43.468,-2.51
43.484,-4.34
43.500,-4.35
43.515,-2.43
43.531,0.49
43.546,2.95
43.562,3.76
43.578,2.69
43.593,0.6
43.609,-1.11
43.625,-1.32
43.640,0.19
43.656,2.59
43.671,4.5
43.687,4.76
43.703,3.15
43.718,0.48
43.734,-1.82
43.750,-2.58
43.765,-1.46
43.781,0.75
43.796,2.7
43.812,3.18
43.828,1.8
43.843,-0.7
43.859,-2.96
43.875,-3.73
43.890,-2.65
43.906,-0.42
43.921,1.56
43.937,2.08
43.953,0.76
43.968,-1.66
43.984,-3.77
44.000,-4.35
44.015,-3.03
44.031,-0.57
44.046,1.64
44.062,2.39
44.078,1.34
44.093,-0.7
44.109,-2.39
44.125,-2.58
44.140,-1.04
44.156,1.38
44.171,3.27
44.187,3.54
44.203,1.96
44.218,-0.57
44.234,-2.63
44.250,-3.1
44.265,-1.78
44.281,0.43
44.296,2.19
44.312,2.4
44.328,0.91
44.343,-1.45
44.359,-3.29
44.375,-3.59
44.390,-2.12
44.406,0.31
44.421,2.4
44.437,3.04
44.453,1.98
44.468,-0.11
44.484,-1.97
44.500,-2.58
44.515,-1.61
44.531,0.3
44.546,1.97
44.562,2.38
44.578,1.25
44.593,-0.73
44.609,-2.37
44.625,-2.66
44.640,-1.35
44.656,0.86
44.671,2.71
44.687,3.18
44.703,2.05
44.718,0.03
44.734,-1.62
44.750,-1.87
44.765,-0.49
44.781,1.8
44.796,3.72
44.812,4.21
44.828,2.93
44.843,0.51
44.859,-1.78
44.875,-2.81
44.890,-2.06
44.906,-0.06
44.921,2.07
44.937,3.19
44.953,2.79
44.968,1.29
44.984,-0.24
45.000,-0.85
45.015,-0.17
45.031,1.27
45.046,2.38
45.062,2.24
45.078,0.63
45.093,-1.77
45.109,-3.78
45.125,-4.46
45.140,-3.56
45.156,-1.78
45.171,-0.25
45.187,0.06
45.203,-1.03
45.218,-2.86
45.234,-4.24
45.250,-4.24
45.265,-2.63
45.281,-0.06
45.296,2.29
45.312,3.39
45.328,2.87
45.343,1.25
45.359,-0.39
45.375,-1.06
45.390,-0.36
45.406,1.17
45.421,2.54
45.437,2.74
45.453,1.47
45.468,-0.76
45.484,-2.76
45.500,-3.43
45.515,-2.34
45.531,-0.01
45.546,2.31
45.562,3.42
45.578,2.74
45.593,0.76
45.609,-1.32
45.625,-2.31
45.640,-1.67
45.656,0.12
45.671,1.93
45.687,2.57
45.703,1.61
45.718,-0.46
45.734,-2.42
45.750,-3.15
45.765,-2.16
45.781,0.02
45.796,2.19
45.812,3.24
45.828,2.68
45.843,0.99
45.859,-0.68
45.875,-1.24
45.890,-0.19
45.906,1.95
45.921,4.0
45.937,4.74
45.953,3.64
45.968,1.15
45.984,-1.55
46.000,-3.21
46.015,-3.2
46.031,-1.88
46.046,-0.35
46.062,0.26
46.078,-0.6
46.093,-2.5
46.109,-4.28
46.125,-4.77
46.140,-3.47
46.156,-0.87
46.171,1.78
46.187,3.22
46.203,2.86
46.218,1.14
46.234,-0.78
46.250,-1.69
46.265,-1.03
46.281,0.79
46.296,2.64
46.312,3.34
46.328,2.35
46.343,0.07
46.359,-2.34
46.375,-3.64
46.390,-3.16
46.406,-1.25
46.421,0.95
46.437,2.19
46.453,1.76
46.468,-0.06
46.484,-2.16
46.500,-3.33
46.515,-2.88
46.531,-1.1
46.546,0.91
46.562,1.97
46.578,1.49
46.593,-0.15
46.609,-1.8
46.625,-2.34
46.640,-1.33
46.656,0.72
46.671,2.54
46.687,3.0
46.703,1.68
46.718,-0.75
46.734,-3.03
46.750,-3.94
46.765,-3.02
46.781,-0.85
46.796,1.3
46.812,2.22
46.828,1.38
46.843,-0.76
46.859,-3.0
46.875,-4.14
46.890,-3.54
46.906,-1.57
46.921,0.68
46.937,2.02
46.953,1.81
46.968,0.4
46.984,-1.12
47.000,-1.55
47.015,-0.33
47.031,2.14
47.046,4.59
47.062,5.73
47.078,4.93
47.093,2.62
47.109,0.06
47.125,-1.43
47.140,-1.16
47.156,0.46
47.171,2.22
47.187,2.88
47.203,1.86
47.218,-0.35
47.234,-2.54
47.250,-3.48
47.265,-2.54
47.281,-0.19
47.296,2.37
47.312,3.85
47.328,3.55
47.343,1.78
47.359,-0.32
47.375,-1.53
47.390,-1.13
47.406,0.6
47.421,2.52
47.437,3.43
47.453,2.63
47.468,0.41
47.484,-2.12
47.500,-3.66
47.515,-3.44
47.531,-1.68
47.546,0.47
47.562,1.71
47.578,1.23
47.593,-0.76
47.609,-3.19
47.625,-4.76
47.640,-4.62
47.656,-2.95
47.671,-0.77
47.687,0.68
47.703,0.64
47.718,-0.67
47.734,-2.23
47.750,-2.89
47.765,-1.97
47.781,0.17
47.796,2.4
47.812,3.47
47.828,2.77
47.843,0.66
47.859,-1.62
47.875,-2.72
47.890,-1.97
47.906,0.34
47.921,2.93
47.937,4.41
47.953,3.99
47.968,1.95
47.984,-0.56
48.000,-2.16
48.015,-1.99
48.031,-0.26
48.046,1.91
48.062,3.16
48.078,2.62
48.093,0.54
48.109,-1.92
48.125,-3.31
48.140,-2.73
48.156,-0.33
48.171,2.65
48.187,4.73
48.203,4.83
48.218,3.07
48.234,0.62
48.250,-1.05
48.265,-0.96
48.281,0.75
48.296,2.91
48.312,4.04
48.328,3.29
48.343,0.93
48.359,-1.8
48.375,-3.4
48.390,-3.07
48.406,-1.14
48.421,1.05
48.437,2.08
48.453,1.11
48.468,-1.46
48.484,-4.3
48.500,-5.91
48.515,-5.41
48.531,-3.11
48.546,-0.26
48.562,1.64
48.578,1.73
48.593,0.18
48.609,-1.89
48.625,-3.12
48.640,-2.67
48.656,-0.68
48.671,1.79
48.687,3.4
48.703,3.31
48.718,1.6
48.734,-0.71
48.750,-2.37
48.765,-2.52
48.781,-1.27
48.796,0.42
48.812,1.36
48.828,0.81
48.843,-1.01
48.859,-3.02
48.875,-3.95
48.890,-3.09
48.906,-0.75
48.921,1.86
48.937,3.41
48.953,3.08
48.968,1.18
48.984,-1.11
49.000,-2.37
49.015,-1.74
49.031,0.5
49.046,3.17
49.062,4.76
49.078,4.38
49.093,2.18
49.109,-0.65
49.125,-2.64
49.140,-2.84
49.156,-1.27
49.171,1.0
49.187,2.69
49.203,2.92
49.218,1.79
49.234,0.28
49.250,-0.45
49.265,0.25
49.281,2.11
49.296,4.03
49.312,4.8
49.328,3.76
49.343,1.23
49.359,-1.66
49.375,-3.56
49.390,-3.62
49.406,-2.05
49.421,0.07
49.437,1.4
49.453,1.05
49.468,-0.88
49.484,-3.33
49.500,-4.95
49.515,-4.78
49.531,-2.83
49.546,-0.18
49.562,1.82
49.578,2.19
49.593,0.91
49.609,-1.08
49.625,-2.45
49.640,-2.29
49.656,-0.62
49.671,1.63
49.687,3.21
49.703,3.32
49.718,2.0
49.734,0.21
49.750,-0.86
49.765,-0.47
49.781,1.19
49.796,3.02
49.812,3.78
49.828,2.68
49.843,0.01
49.859,-3.07
49.875,-5.11
49.890,-5.14
49.906,-3.28
49.921,-0.68
49.937,1.19
49.953,1.29
49.968,-0.36
49.984,-2.72
50.000,-4.32
50.015,-4.19
50.031,-2.31
50.046,0.28
50.062,2.18
50.078,2.41
50.093,1.01
50.109,-1.02
50.125,-2.38
50.140,-2.21
50.156,-0.6
50.171,1.42
50.187,2.62
50.203,2.23
50.218,0.48
50.234,-1.59
50.250,-2.71
50.265,-2.18
50.281,-0.2
50.296,2.12
50.312,3.54
50.328,3.29
50.343,1.58
50.359,-0.53
50.375,-1.77
50.390,-1.34
50.406,0.54
50.421,2.82
50.437,4.18
50.453,3.74
50.468,1.62
50.484,-1.12
50.500,-3.09
50.515,-3.29
50.531,-1.71
50.546,0.63
50.562,2.35
50.578,2.42
50.593,0.76
50.609,-1.64
50.625,-3.39
50.640,-3.52
50.656,-1.97
50.671,0.26
50.687,1.82
50.703,1.76
50.718,0.15
50.734,-1.95
50.750,-3.14
50.765,-2.5
50.781,-0.18
50.796,2.71
50.812,4.66
50.828,4.68
50.843,2.76
50.859,0.02
50.875,-2.07
50.890,-2.41
50.906,-0.87
50.921,1.57
50.937,3.52
50.953,3.87
50.968,2.45
50.984,0.13
51.000,-1.74
51.015,-2.11
51.031,-0.81
51.046,1.27
51.062,2.76
51.078,2.64
51.093,0.8
51.109,-1.78
51.125,-3.67
51.140,-3.83
51.156,-2.23
51.171,0.09
51.187,1.66
51.203,1.47
51.218,-0.44
51.234,-2.92
51.250,-4.42
51.265,-3.95
51.281,-1.54
51.296,1.58
51.312,3.79
51.328,3.95
51.343,2.03
51.359,-0.8
51.375,-2.91
51.390,-3.05
51.406,-1.08
51.421,1.89
51.437,4.27
51.453,4.79
51.468,3.25
51.484,0.65
51.500,-1.42
51.515,-1.74
51.531,-0.16
51.546,2.31
51.562,4.12
51.578,4.05
51.593,1.98
51.609,-1.04
51.625,-3.45
51.640,-4.03
51.656,-2.62
51.671,-0.25
51.687,1.56
51.703,1.63
51.718,-0.18
51.734,-2.81
51.750,-4.72
51.765,-4.74
51.781,-2.76
51.796,0.13
51.812,2.32
51.828,2.59
51.843,0.8
51.859,-1.93
51.875,-3.95
51.890,-4.02
51.906,-2.02
51.921,0.92
51.937,3.17
51.953,3.5
51.968,1.83
51.984,-0.73
52.000,-2.59
52.015,-2.62
52.031,-0.79
52.046,1.76
52.062,3.46
52.078,3.19
52.093,0.97
52.109,-1.99
52.125,-4.1
52.140,-4.18
52.156,-2.2
52.171,0.74
52.187,3.08
52.203,3.61
52.218,2.19
52.234,-0.23
52.250,-2.14
52.265,-2.48
52.281,-1.05
52.296,1.22
52.312,2.96
52.328,3.13
52.343,1.6
52.359,-0.65
52.375,-2.22
52.390,-2.04
52.406,-0.08
52.421,2.6
52.437,4.43
52.453,4.26
52.468,1.96
52.484,-1.34
52.500,-3.88
52.515,-4.34
52.531,-2.46
52.546,0.71
52.562,3.52
52.578,4.54
52.593,3.39
52.609,0.95
52.625,-1.22
52.640,-1.83
52.656,-0.58
52.671,1.63
52.687,3.3
52.703,3.25
52.718,1.31
52.734,-1.54
52.750,-3.73
52.765,-4.05
52.781,-2.35
52.796,0.32
52.812,2.37
52.828,2.55
52.843,0.74
52.859,-1.98
52.875,-3.98
52.890,-4.08
52.906,-2.19
52.921,0.56
52.937,2.57
52.953,2.64
52.968,0.72
52.984,-2.01
53.000,-3.94
53.015,-3.92
53.031,-1.96
53.046,0.77
53.062,2.72
53.078,2.79
53.093,1.07
53.109,-1.28
53.125,-2.69
53.140,-2.16
53.156,0.22
53.171,3.23
53.187,5.22
53.203,5.06
53.218,2.71
53.234,-0.69
53.250,-3.48
53.265,-4.39
53.281,-3.24
53.296,-1.01
53.312,0.82
53.328,1.04
53.343,-0.47
53.359,-2.76
53.375,-4.32
53.390,-4.04
53.406,-1.8
53.421,1.33
53.437,3.8
53.453,4.39
53.468,2.9
53.484,0.33
53.500,-1.81
53.515,-2.28
53.531,-0.82
53.546,1.65
53.562,3.66
53.578,3.99
53.593,2.36
53.609,-0.36
53.625,-2.65
53.640,-3.25
53.656,-1.85
53.671,0.65
53.687,2.77
53.703,3.21
53.718,1.71
53.734,-0.81
53.750,-2.77
53.765,-2.9
53.781,-0.97
53.796,2.0
53.812,4.38
53.828,4.85
53.843,3.16
53.859,0.33
53.875,-2.01
53.890,-2.59
53.906,-1.18
53.921,1.19
53.937,2.98
53.953,3.02
53.968,1.16
53.984,-1.52
54.000,-3.5
54.015,-3.61
54.031,-1.74
54.046,0.99
54.062,3.0
54.078,3.09
54.093,1.12
54.109,-1.86
54.125,-4.17
54.140,-4.58
54.156,-2.88
54.171,-0.16
54.187,2.0
54.203,2.31
54.218,0.59
54.234,-2.13
54.250,-4.22
54.265,-4.41
54.281,-2.54
54.296,0.38
54.312,2.79
54.328,3.47
54.343,2.21
54.359,-0.02
54.375,-1.76
54.390,-1.88
54.406,-0.27
54.421,2.06
54.437,3.63
54.453,3.3
54.468,1.01
54.484,-2.13
54.500,-4.45
54.515,-4.67
54.531,-2.59
54.546,0.68
54.562,3.47
54.578,4.36
54.593,3.05
54.609,0.51
54.625,-1.62
54.640,-2.01
54.656,-0.42
54.671,2.14
54.687,4.07
54.703,4.15
54.718,2.26
54.734,-0.52
54.750,-2.61
54.765,-2.88
54.781,-1.29
54.796,0.98
54.812,2.39
54.828,1.87
54.843,-0.5
54.859,-3.45
54.875,-5.39
54.890,-5.24
54.906,-3.12
54.921,-0.25
54.937,1.75
54.953,1.81
54.968,0.04
54.984,-2.36
55.000,-3.78
55.015,-3.17
55.031,-0.63
55.046,2.59
55.062,4.86
55.078,5.02
55.093,3.12
55.109,0.32
55.125,-1.74
55.140,-1.91
55.156,-0.14
55.171,2.44
55.187,4.25
55.203,4.15
55.218,2.1
55.234,-0.75
55.250,-2.79
55.265,-2.91
55.281,-1.07
55.296,1.56
55.312,3.33
55.328,3.07
55.343,0.75
55.359,-2.39
55.375,-4.67
55.390,-4.84
55.406,-2.86
55.421,0.09
55.437,2.35
55.453,2.68
55.468,0.99
55.484,-1.58
55.500,-3.42
55.515,-3.34
55.531,-1.27
55.546,1.65
55.562,3.84
55.578,4.16
55.593,2.51
55.609,0.01
55.625,-1.78
55.640,-1.78
55.656,0.05
55.671,2.58
55.687,4.28
55.703,4.03
55.718,1.84
55.734,-1.12
55.750,-3.25
55.765,-3.36
55.781,-1.45
55.796,1.3
55.812,3.2
55.828,2.98
55.843,0.57
55.859,-2.86
55.875,-5.52
55.890,-6.01
55.906,-4.08
55.921,-0.83
55.937,2.02
55.953,3.04
55.968,1.91
55.984,-0.44
56.000,-2.38
56.015,-2.63
56.031,-0.96
56.046,1.59
56.062,3.43
56.078,3.33
56.093,1.2
56.109,-1.85
56.125,-4.17
56.140,-4.48
56.156,-2.71
56.171,0.03
56.187,2.15
56.203,2.46
56.218,0.92
56.234,-1.36
56.250,-2.86
56.265,-2.5
56.281,-0.38
56.296,2.32
56.312,4.03
56.328,3.71
56.343,1.46
56.359,-1.47
56.375,-3.48
56.390,-3.51
56.406,-1.68
56.421,0.82
56.437,2.45
56.453,2.21
56.468,0.24
56.484,-2.26
56.500,-3.72
56.515,-3.17
56.531,-0.76
56.546,2.25
56.562,4.33
56.578,4.37
56.593,2.51
56.609,-0.06
56.625,-1.74
56.640,-1.47
56.656,0.67
56.671,3.46
56.687,5.25
56.703,4.92
56.718,2.46
56.734,-0.93
56.750,-3.58
56.765,-4.33
56.781,-3.08
56.796,-0.91
56.812,0.7
56.828,0.69
56.843,-0.94
56.859,-3.16
56.875,-4.54
56.890,-4.18
56.906,-2.23
56.921,0.17
56.937,1.59
56.953,1.21
56.968,-0.72
56.984,-2.92
57.000,-3.94
57.015,-2.9
57.031,-0.1
57.046,3.07
57.062,5.04
57.078,4.82
57.093,2.65
57.109,-0.15
57.125,-1.94
57.140,-1.7
57.156,0.48
57.171,3.35
57.187,5.27
57.203,5.2
57.218,3.15
57.234,0.24
57.250,-1.99
57.265,-2.47
57.281,-1.17
57.296,0.91
57.312,2.42
57.328,2.41
57.343,0.95
57.359,-0.95
57.375,-1.98
57.390,-1.25
57.406,1.07
57.421,3.79
57.437,5.43
57.453,5.0
57.468,2.61
57.484,-0.54
57.500,-2.82
57.515,-3.14
57.531,-1.5
57.546,0.96
57.562,2.69
57.578,2.59
57.593,0.64
57.609,-2.04
57.625,-3.94
57.640,-4.07
57.656,-2.49
57.671,-0.35
57.687,0.89
57.703,0.3
57.718,-1.93
57.734,-4.6
57.750,-6.21
57.765,-5.82
57.781,-3.64
57.796,-0.88
57.812,1.0
57.828,1.03
57.843,-0.6
57.859,-2.73
57.875,-3.91
57.890,-3.23
57.906,-0.84
57.921,2.03
57.937,3.89
57.953,3.77
57.968,1.8
57.984,-0.83
58.000,-2.62
58.015,-2.52
58.031,-0.64
58.046,1.89
58.062,3.59
58.078,3.47
58.093,1.58
58.109,-0.95
58.125,-2.65
58.140,-2.6
58.156,-0.9
58.171,1.27
58.187,2.55
58.203,2.08
58.218,0.17
58.234,-1.95
58.250,-2.88
58.265,-1.81
58.281,0.85
58.296,3.77
58.312,5.43
58.328,4.98
58.343,2.73
58.359,-0.03
58.375,-1.81
58.390,-1.78
58.406,-0.18
58.421,1.78
58.437,2.71
58.453,1.84
58.468,-0.49
58.484,-3.02
58.500,-4.32
58.515,-3.6
58.531,-1.21
58.546,1.53
58.562,3.18
58.578,2.9
58.593,1.02
58.609,-1.21
58.625,-2.36
58.640,-1.65
58.656,0.51
58.671,2.79
58.687,3.74
58.703,2.61
58.718,-0.18
58.734,-3.22
58.750,-4.97
58.765,-4.53
58.781,-2.21
58.796,0.66
58.812,2.54
58.828,2.51
58.843,0.75
58.859,-1.53
58.875,-2.88
58.890,-2.41
58.906,-0.36
58.921,2.07
58.937,3.47
58.953,2.96
58.968,0.78
58.984,-1.88
59.000,-3.6
59.015,-3.45
59.031,-1.61
59.046,0.74
59.062,2.25
59.078,2.02
59.093,0.31
59.109,-1.68
59.125,-2.61
59.140,-1.72
59.156,0.61
59.171,3.07
59.187,4.23
59.203,3.37
59.218,0.93
59.234,-1.71
59.250,-3.09
59.265,-2.52
59.281,-0.44
59.296,1.82
59.312,2.89
59.328,2.08
59.343,-0.11
59.359,-2.39
59.375,-3.4
59.390,-2.45
59.406,0.02
59.421,2.7
59.437,4.21
59.453,3.77
59.468,1.75
59.484,-0.6
59.500,-1.87
59.515,-1.25
59.531,0.92
59.546,3.34
59.562,4.54
59.578,3.68
59.593,1.12
59.609,-1.79
59.625,-3.49
59.640,-3.1
59.656,-0.9
59.671,1.76
59.687,3.35
59.703,2.95
59.718,0.81
59.734,-1.87
59.750,-3.67
59.765,-3.7
59.781,-2.15
59.796,-0.1
59.812,1.18
59.828,0.93
59.843,-0.62
59.859,-2.41
59.875,-3.28
59.890,-2.61
59.906,-0.68
59.921,1.38
59.937,2.39
59.953,1.72
59.968,-0.27
59.984,-2.4
