timestamp,value
00.000,-24.4
00.015,-27.99
00.031,-29.9
00.046,-30.44
00.062,-30.12
00.078,-29.52
00.093,-28.95
00.109,-28.53
00.125,-28.13
00.140,-27.65
00.156,-26.94
00.171,-25.76
00.187,-23.67
00.203,-20.08
00.218,-14.38
00.234,-6.32
00.250,3.7
00.265,14.57
00.281,24.73
00.296,32.71
00.312,37.59
00.328,39.27
00.343,38.25
00.359,35.29
00.375,31.09
00.390,26.08
00.406,20.47
00.421,14.57
00.437,8.87
00.453,4.08
00.468,0.9
00.484,-0.39
00.500,-0.05
00.515,1.07
00.531,1.82
00.546,1.18
00.562,-1.48
00.578,-6.26
00.593,-12.7
00.609,-19.92
00.625,-26.8
00.640,-32.06
00.656,-34.46
00.671,-33.05
00.687,-27.39
00.703,-17.77
00.718,-5.38
00.734,7.99
00.750,20.25
00.765,29.62
00.781,34.91
00.796,35.77
00.812,32.49
00.828,25.88
00.843,17.0
00.859,6.89
00.875,-3.47
00.890,-13.19
00.906,-21.69
00.921,-28.5
00.937,-33.39
00.953,-36.41
00.968,-37.71
00.984,-37.65
01.000,-36.73
01.015,-35.46
01.031,-34.18
01.046,-33.05
01.062,-31.67
01.078,-29.28
01.093,-24.9
01.109,-17.77
01.125,-7.83
01.140,4.06
01.156,16.13
01.171,26.26
01.187,32.48
01.203,33.77
01.218,30.15
01.234,22.83
01.250,13.56
01.265,4.26
01.281,-3.5
01.296,-8.62
01.312,-10.45
01.328,-8.83
01.343,-3.87
01.359,3.83
01.375,13.16
01.390,22.62
01.406,30.53
01.421,35.43
01.437,36.39
01.453,33.25
01.468,26.41
01.484,16.84
01.500,5.76
01.515,-5.5
01.531,-15.27
01.546,-21.78
01.562,-23.41
01.578,-19.21
01.593,-9.37
01.609,4.31
01.625,18.91
01.640,31.01
01.656,37.66
01.671,37.41
01.687,30.54
01.703,18.89
01.718,5.09
01.734,-8.22
01.750,-19.18
01.765,-26.73
01.781,-30.59
01.796,-30.94
01.812,-28.18
01.828,-22.79
01.843,-15.4
01.859,-6.82
01.875,1.96
01.890,9.73
01.906,15.37
01.921,17.99
01.937,17.0
01.953,12.27
01.968,4.16
01.984,-6.38
02.000,-17.9
02.015,-28.62
02.031,-36.82
02.046,-41.16
02.062,-41.0
02.078,-36.38
02.093,-27.91
02.109,-16.61
02.125,-3.65
02.140,9.65
02.156,21.82
02.171,31.39
02.187,37.13
02.203,38.17
02.218,34.36
02.234,26.14
02.250,14.48
02.265,0.71
02.281,-13.64
02.296,-27.09
02.312,-38.32
02.328,-46.28
02.343,-50.48
02.359,-50.84
02.375,-47.63
02.390,-41.39
02.406,-32.77
02.421,-22.46
02.437,-11.24
02.453,0.12
02.468,10.78
02.484,19.93
02.500,26.89
02.515,31.27
02.531,33.07
02.546,32.68
02.562,30.86
02.578,28.54
02.593,26.64
02.609,25.8
02.625,26.18
02.640,27.64
02.656,29.82
02.671,32.39
02.687,35.11
02.703,37.67
02.718,39.53
02.734,39.83
02.750,37.47
02.765,31.31
02.781,20.72
02.796,5.84
02.812,-12.34
02.828,-32.14
02.843,-51.55
02.859,-68.7
02.875,-81.99
02.890,-90.2
02.906,-92.49
02.921,-88.48
02.937,-78.37
02.953,-63.13
02.968,-44.42
02.984,-24.4
03.000,-5.24
03.015,11.2
03.031,23.78
03.046,32.1
03.062,36.46
03.078,37.48
03.093,35.92
03.109,32.47
03.125,27.53
03.140,21.47
03.156,14.51
03.171,7.01
03.187,-0.54
03.203,-7.53
03.218,-13.41
03.234,-17.87
03.250,-20.93
03.265,-23.0
03.281,-24.55
03.296,-26.02
03.312,-27.46
03.328,-28.52
03.343,-28.5
03.359,-26.64
03.375,-22.52
03.390,-16.23
03.406,-8.4
03.421,-0.02
03.437,7.91
03.453,14.71
03.468,20.01
03.484,23.77
03.500,25.96
03.515,26.53
03.531,25.43
03.546,22.77
03.562,19.03
03.578,14.9
03.593,11.16
03.609,8.31
03.625,6.37
03.640,4.9
03.656,3.21
03.671,0.62
03.687,-3.2
03.703,-8.11
03.718,-13.7
03.734,-19.15
03.750,-23.57
03.765,-26.01
03.781,-25.55
03.796,-21.52
03.812,-13.8
03.828,-3.01
03.843,9.51
03.859,21.77
03.875,31.89
03.890,38.38
03.906,40.59
03.921,38.74
03.937,33.65
03.953,26.32
03.968,17.61
03.984,8.18
04.000,-1.52
04.015,-10.95
04.031,-19.46
04.046,-26.31
04.062,-30.85
04.078,-32.92
04.093,-32.94
04.109,-31.93
04.125,-31.11
04.140,-31.47
04.156,-33.29
04.171,-36.05
04.187,-38.57
04.203,-39.28
04.218,-36.81
04.234,-30.3
04.250,-19.71
04.265,-5.91
04.281,9.44
04.296,24.33
04.312,36.75
04.328,45.17
04.343,48.98
04.359,48.4
04.375,44.5
04.390,38.74
04.406,32.61
04.421,27.37
04.437,23.93
04.453,22.72
04.468,23.57
04.484,25.93
04.500,28.73
04.515,30.73
04.531,30.71
04.546,27.83
04.562,21.83
04.578,13.14
04.593,2.88
04.609,-7.33
04.625,-15.54
04.640,-19.79
04.656,-18.42
04.671,-10.65
04.687,3.01
04.703,20.59
04.718,38.98
04.734,54.65
04.750,64.58
04.765,66.92
04.781,61.23
04.796,48.43
04.812,30.19
04.828,8.48
04.843,-14.73
04.859,-37.54
04.875,-58.01
04.890,-74.31
04.906,-84.79
04.921,-88.41
04.937,-84.88
04.953,-74.91
04.968,-60.09
04.984,-42.44
05.000,-23.97
05.015,-6.22
05.031,9.66
05.046,22.97
05.062,33.03
05.078,39.2
05.093,41.04
05.109,38.49
05.125,32.13
05.140,23.18
05.156,13.28
05.171,4.01
05.187,-3.29
05.203,-7.86
05.218,-9.46
05.234,-8.38
05.250,-5.28
05.265,-1.03
05.281,3.53
05.296,7.78
05.312,11.34
05.328,14.0
05.343,15.56
05.359,15.7
05.375,13.99
05.390,10.07
05.406,3.86
05.421,-4.34
05.437,-13.83
05.453,-23.63
05.468,-32.62
05.484,-39.65
05.500,-43.63
05.515,-43.73
05.531,-39.62
05.546,-31.63
05.562,-20.8
05.578,-8.87
05.593,2.24
05.609,10.87
05.625,15.99
05.640,17.51
05.656,16.19
05.671,13.26
05.687,10.0
05.703,7.22
05.718,5.07
05.734,3.08
05.750,0.52
05.765,-3.11
05.781,-7.9
05.796,-13.4
05.812,-18.91
05.828,-23.81
05.843,-27.84
05.859,-31.08
05.875,-33.75
05.890,-35.76
05.906,-36.55
05.921,-35.05
05.937,-29.99
05.953,-20.51
05.968,-6.67
05.984,10.24
06.000,27.96
06.015,43.68
06.031,54.95
06.046,60.15
06.062,58.98
06.078,52.23
06.093,41.4
06.109,28.2
06.125,14.2
06.140,0.69
06.156,-11.21
06.171,-20.55
06.187,-26.63
06.203,-29.23
06.218,-28.71
06.234,-26.07
06.250,-22.61
06.265,-19.66
06.281,-18.14
06.296,-18.3
06.312,-19.81
06.328,-21.95
06.343,-23.89
06.359,-24.84
06.375,-24.19
06.390,-21.41
06.406,-16.19
06.421,-8.62
06.437,0.68
06.453,10.55
06.468,19.62
06.484,26.68
06.500,31.16
06.515,32.98
06.531,32.59
06.546,30.45
06.562,26.81
06.578,21.72
06.593,15.17
06.609,7.42
06.625,-1.01
06.640,-9.3
06.656,-16.67
06.671,-22.56
06.687,-26.72
06.703,-29.27
06.718,-30.45
06.734,-30.63
06.750,-30.04
06.765,-28.76
06.781,-26.56
06.796,-22.98
06.812,-17.51
06.828,-9.83
06.843,-0.23
06.859,10.39
06.875,20.57
06.890,28.76
06.906,33.82
06.921,35.46
06.937,34.2
06.953,31.07
06.968,27.1
06.984,22.86
07.000,18.46
07.015,13.77
07.031,8.71
07.046,3.55
07.062,-1.29
07.078,-5.33
07.093,-8.45
07.109,-10.84
07.125,-13.0
07.140,-15.39
07.156,-18.23
07.171,-21.44
07.187,-24.69
07.203,-27.61
07.218,-29.74
07.234,-30.59
07.250,-29.51
07.265,-25.87
07.281,-19.32
07.296,-10.05
07.312,1.01
07.328,12.39
07.343,22.42
07.359,29.71
07.375,33.46
07.390,33.66
07.406,30.74
07.421,25.51
07.437,18.78
07.453,11.34
07.468,4.02
07.484,-2.31
07.500,-6.93
07.515,-9.37
07.531,-9.44
07.546,-7.38
07.562,-3.71
07.578,0.87
07.593,5.54
07.609,9.6
07.625,12.67
07.640,14.76
07.656,16.41
07.671,18.52
07.687,22.0
07.703,27.33
07.718,34.19
07.734,41.32
07.750,46.96
07.765,49.49
07.781,47.91
07.796,42.2
07.812,33.12
07.828,21.77
07.843,9.2
07.859,-3.76
07.875,-16.58
07.890,-28.65
07.906,-39.22
07.921,-47.39
07.937,-52.48
07.953,-54.28
07.968,-53.22
07.984,-50.19
08.000,-46.16
08.015,-41.88
08.031,-37.59
08.046,-33.12
08.062,-28.13
08.078,-22.29
08.093,-15.4
08.109,-7.41
08.125,1.66
08.140,11.65
08.156,21.99
08.171,31.79
08.187,39.82
08.203,44.78
08.218,45.88
08.234,42.96
08.250,36.61
08.265,27.93
08.281,18.21
08.296,8.47
08.312,-0.58
08.328,-8.41
08.343,-14.72
08.359,-19.15
08.375,-21.41
08.390,-21.41
08.406,-19.44
08.421,-16.11
08.437,-12.32
08.453,-9.08
08.468,-7.12
08.484,-6.85
08.500,-8.22
08.515,-10.7
08.531,-13.33
08.546,-14.97
08.562,-14.56
08.578,-11.43
08.593,-5.67
08.609,1.91
08.625,9.97
08.640,17.12
08.656,22.31
08.671,25.12
08.687,25.67
08.703,24.23
08.718,21.19
08.734,16.7
08.750,11.06
08.765,4.69
08.781,-1.7
08.796,-7.32
08.812,-11.53
08.828,-14.13
08.843,-15.42
08.859,-15.96
08.875,-16.45
08.890,-17.32
08.906,-18.72
08.921,-20.45
08.937,-22.08
08.953,-22.93
08.968,-22.05
08.984,-18.44
09.000,-11.32
09.015,-0.66
09.031,12.77
09.046,27.31
09.062,40.8
09.078,51.25
09.093,57.17
09.109,58.04
09.125,54.22
09.140,46.71
09.156,36.75
09.171,25.67
09.187,14.79
09.203,5.12
09.218,-2.5
09.234,-7.62
09.250,-10.14
09.265,-10.33
09.281,-8.72
09.296,-6.16
09.312,-3.58
09.328,-1.92
09.343,-1.91
09.359,-3.94
09.375,-8.03
09.390,-13.74
09.406,-20.17
09.421,-26.11
09.437,-30.29
09.453,-31.71
09.468,-29.95
09.484,-25.34
09.500,-18.88
09.515,-12.07
09.531,-6.3
09.546,-2.51
09.562,-1.04
09.578,-1.64
09.593,-3.73
09.609,-6.68
09.625,-9.88
09.640,-12.77
09.656,-14.88
09.671,-15.77
09.687,-15.2
09.703,-13.18
09.718,-9.95
09.734,-5.83
09.750,-1.19
09.765,3.62
09.781,8.14
09.796,11.7
09.812,13.56
09.828,13.17
09.843,10.49
09.859,6.3
09.875,2.12
09.890,-0.39
09.906,0.1
09.921,3.98
09.937,10.63
09.953,18.68
09.968,26.59
09.984,33.04
10.000,37.38
10.015,39.56
10.031,39.88
10.046,38.93
10.062,37.29
10.078,35.33
10.093,33.3
10.109,31.23
10.125,29.01
10.140,26.41
10.156,23.19
10.171,19.06
10.187,13.83
10.203,7.42
10.218,-0.27
10.234,-9.19
10.250,-19.12
10.265,-29.63
10.281,-40.05
10.296,-49.3
10.312,-56.25
10.328,-59.73
10.343,-59.01
10.359,-53.97
10.375,-45.27
10.390,-34.17
10.406,-22.32
10.421,-11.23
10.437,-2.01
10.453,4.77
10.468,9.08
10.484,11.22
10.500,11.64
10.515,10.86
10.531,9.36
10.546,7.6
10.562,6.03
10.578,5.02
10.593,4.81
10.609,5.39
10.625,6.64
10.640,8.15
10.656,9.56
10.671,10.53
10.687,10.83
10.703,10.44
10.718,9.52
10.734,8.33
10.750,7.39
10.765,7.37
10.781,8.96
10.796,12.83
10.812,19.23
10.828,27.74
10.843,37.33
10.859,46.66
10.875,54.41
10.890,59.8
10.906,62.55
10.921,62.69
10.937,60.39
10.953,55.58
10.968,47.99
10.984,37.41
11.000,24.02
11.015,8.43
11.031,-8.2
11.046,-24.5
11.062,-39.22
11.078,-51.42
11.093,-60.76
11.109,-67.41
11.125,-71.79
11.140,-74.36
11.156,-75.39
11.171,-74.93
11.187,-72.98
11.203,-69.71
11.218,-65.35
11.234,-60.16
11.250,-53.94
11.265,-45.97
11.281,-35.32
11.296,-21.36
11.312,-4.34
11.328,14.29
11.343,32.34
11.359,47.6
11.375,58.59
11.390,65.03
11.406,67.52
11.421,66.97
11.437,64.16
11.453,59.4
11.468,52.66
11.484,44.05
11.500,34.05
11.515,23.62
11.531,13.98
11.546,6.18
11.562,0.63
11.578,-2.75
11.593,-4.68
11.609,-6.07
11.625,-7.68
11.640,-10.03
11.656,-13.13
11.671,-16.73
11.687,-20.44
11.703,-23.93
11.718,-26.99
11.734,-29.58
11.750,-31.8
11.765,-33.78
11.781,-35.8
11.796,-38.07
11.812,-40.8
11.828,-44.0
11.843,-47.49
11.859,-50.84
11.875,-53.47
11.890,-54.74
11.906,-54.18
11.921,-51.64
11.937,-47.26
11.953,-41.49
11.968,-34.93
11.984,-28.15
12.000,-21.63
12.015,-15.72
12.031,-10.49
12.046,-5.85
12.062,-1.61
12.078,2.47
12.093,6.61
12.109,11.01
12.125,15.95
12.140,21.75
12.156,28.66
12.171,36.72
12.187,45.42
12.203,53.7
12.218,60.07
12.234,63.07
12.250,61.69
12.265,55.78
12.281,45.94
12.296,33.4
12.312,19.57
12.328,5.8
12.343,-6.76
12.359,-17.21
12.375,-24.91
12.390,-29.46
12.406,-30.79
12.421,-29.27
12.437,-25.56
12.453,-20.57
12.468,-15.21
12.484,-10.14
12.500,-5.84
12.515,-2.54
12.531,-0.37
12.546,0.57
12.562,0.22
12.578,-1.19
12.593,-3.0
12.609,-4.26
12.625,-3.88
12.640,-1.21
12.656,3.65
12.671,9.9
12.687,16.24
12.703,21.39
12.718,24.61
12.734,25.81
12.750,25.51
12.765,24.49
12.781,23.34
12.796,22.29
12.812,21.25
12.828,19.92
12.843,18.05
12.859,15.49
12.875,12.24
12.890,8.37
12.906,3.96
12.921,-1.07
12.937,-6.74
12.953,-13.08
12.968,-19.94
12.984,-26.92
13.000,-33.34
13.015,-38.3
13.031,-40.76
13.046,-39.77
13.062,-34.89
13.078,-26.22
13.093,-14.67
13.109,-1.71
13.125,10.9
13.140,21.65
13.156,29.44
13.171,33.76
13.187,34.72
13.203,32.71
13.218,28.31
13.234,22.2
13.250,15.11
13.265,7.83
13.281,1.16
13.296,-4.35
13.312,-8.48
13.328,-11.35
13.343,-13.39
13.359,-15.11
13.375,-17.02
13.390,-19.46
13.406,-22.55
13.421,-26.3
13.437,-30.59
13.453,-35.07
13.468,-39.06
13.484,-41.62
13.500,-41.62
13.515,-38.15
13.531,-31.05
13.546,-21.05
13.562,-9.78
13.578,0.74
13.593,8.8
13.609,13.53
13.625,15.03
13.640,14.15
13.656,11.98
13.671,9.35
13.687,6.67
13.703,4.01
13.718,1.42
13.734,-0.99
13.750,-2.96
13.765,-4.34
13.781,-5.18
13.796,-5.82
13.812,-6.79
13.828,-8.57
13.843,-11.23
13.859,-14.58
13.875,-18.03
13.890,-20.85
13.906,-22.28
13.921,-21.7
13.937,-18.65
13.953,-12.97
13.968,-4.88
13.984,5.02
14.000,15.62
14.015,25.63
14.031,33.82
14.046,39.24
14.062,41.41
14.078,40.35
14.093,36.43
14.109,30.34
14.125,22.94
14.140,15.19
14.156,8.01
14.171,2.2
14.187,-1.85
14.203,-4.14
14.218,-4.99
14.234,-4.99
14.250,-4.67
14.265,-4.51
14.281,-4.81
14.296,-5.81
14.312,-7.62
14.328,-10.19
14.343,-13.1
14.359,-15.38
14.375,-15.84
14.390,-13.36
14.406,-7.41
14.421,1.6
14.437,12.35
14.453,22.98
14.468,31.67
14.484,37.32
14.500,39.78
14.515,39.49
14.531,37.24
14.546,33.61
14.562,28.8
14.578,22.86
14.593,16.0
14.609,8.82
14.625,2.2
14.640,-2.96
14.656,-6.19
14.671,-7.63
14.687,-7.98
14.703,-8.29
14.718,-9.45
14.734,-11.92
14.750,-15.7
14.765,-20.4
14.781,-25.33
14.796,-29.58
14.812,-32.1
14.828,-31.86
14.843,-28.23
14.859,-21.17
14.875,-11.42
14.890,-0.5
14.906,9.72
14.921,17.48
14.937,21.66
14.953,21.92
14.968,18.86
14.984,13.53
15.000,7.28
15.015,1.34
15.031,-3.35
15.046,-6.2
15.062,-6.95
15.078,-5.69
15.093,-2.78
15.109,1.21
15.125,5.59
15.140,9.64
15.156,12.63
15.171,14.05
15.187,13.57
15.203,11.27
15.218,7.6
15.234,3.41
15.250,-0.19
15.265,-2.08
15.281,-1.51
15.296,1.65
15.312,6.85
15.328,12.97
15.343,18.74
15.359,23.13
15.375,25.62
15.390,26.2
15.406,25.2
15.421,22.96
15.437,19.76
15.453,15.75
15.468,11.16
15.484,6.48
15.500,2.38
15.515,-0.48
15.531,-1.65
15.546,-1.2
15.562,0.27
15.578,1.86
15.593,2.61
15.609,1.73
15.625,-1.13
15.640,-5.84
15.656,-11.89
15.671,-18.3
15.687,-23.9
15.703,-27.43
15.718,-27.81
15.734,-24.54
15.750,-17.96
15.765,-9.23
15.781,-0.05
15.796,7.78
15.812,13.02
15.828,15.11
15.843,14.23
15.859,11.11
15.875,6.54
15.890,1.23
15.906,-4.18
15.921,-9.22
15.937,-13.37
15.953,-16.21
15.968,-17.54
15.984,-17.47
16.000,-16.41
16.015,-15.03
16.031,-14.0
16.046,-13.77
16.062,-14.51
16.078,-15.94
16.093,-17.34
16.109,-17.71
16.125,-16.01
16.140,-11.36
16.156,-3.5
16.171,7.03
16.187,18.93
16.203,30.36
16.218,39.48
16.234,45.08
16.250,46.73
16.265,44.73
16.281,39.88
16.296,32.95
16.312,24.55
16.328,15.21
16.343,5.5
16.359,-3.79
16.375,-11.6
16.390,-17.02
16.406,-19.57
16.421,-19.4
16.437,-17.33
16.453,-14.56
16.468,-12.29
16.484,-11.43
16.500,-12.35
16.515,-14.72
16.531,-17.62
16.546,-19.73
16.562,-19.63
16.578,-16.15
16.593,-8.72
16.609,2.56
16.625,16.86
16.640,32.95
16.656,49.45
16.671,65.2
16.687,79.43
16.703,91.92
16.718,102.89
16.734,112.85
16.750,122.36
16.765,131.68
16.781,140.69
16.796,148.98
16.812,156.16
16.828,162.19
16.843,167.5
16.859,172.9
16.875,179.17
16.890,186.54
16.906,194.45
16.921,201.57
16.937,206.27
16.953,207.17
16.968,203.71
16.984,196.36
17.000,186.42
17.015,175.46
17.031,164.77
17.046,154.86
17.062,145.27
17.078,134.9
17.093,122.49
17.109,107.29
17.125,89.49
17.140,70.36
17.156,51.83
17.171,35.84
17.187,23.8
17.203,15.98
17.218,11.68
17.234,9.57
17.250,8.17
17.265,6.22
17.281,2.92
17.296,-2.27
17.312,-9.8
17.328,-19.93
17.343,-32.75
17.359,-47.77
17.375,-63.99
17.390,-79.98
17.406,-94.24
17.421,-105.37
17.437,-112.28
17.453,-114.25
17.468,-110.79
17.484,-101.99
17.500,-88.5
17.515,-71.79
17.531,-53.87
17.546,-36.99
17.562,-22.95
17.578,-12.81
17.593,-6.71
17.609,-3.96
17.625,-3.58
17.640,-4.49
17.656,-5.75
17.671,-6.55
17.687,-6.17
17.703,-4.0
17.718,0.23
17.734,6.27
17.750,13.11
17.765,19.08
17.781,22.29
17.796,21.25
17.812,15.47
17.828,5.78
17.843,-5.84
17.859,-16.62
17.875,-23.78
17.890,-25.16
17.906,-19.81
17.921,-8.25
17.937,7.67
17.953,25.08
17.968,40.79
17.984,51.82
18.000,55.93
18.015,51.84
18.031,39.29
18.046,18.76
18.062,-8.49
18.078,-40.58
18.093,-75.06
18.109,-109.13
18.125,-140.17
18.140,-166.33
18.156,-187.08
18.171,-203.2
18.187,-216.4
18.203,-228.51
18.218,-240.74
18.234,-253.49
18.250,-265.93
18.265,-276.95
18.281,-285.35
18.296,-289.87
18.312,-288.96
18.328,-280.83
18.343,-263.76
18.359,-236.87
18.375,-200.85
18.390,-157.4
18.406,-109.29
18.421,-59.23
18.437,-9.4
18.453,38.62
18.468,83.24
18.484,122.41
18.500,153.82
18.515,175.18
18.531,186.92
18.546,190.96
18.562,190.88
18.578,190.87
18.593,194.67
18.609,204.51
18.625,220.62
18.640,240.81
18.656,258.94
18.671,270.17
18.687,267.93
18.703,247.58
18.718,208.04
18.734,152.34
18.750,86.01
18.765,15.06
18.781,-56.34
18.796,-129.79
18.812,-202.01
18.828,-272.83
18.843,-340.16
18.859,-400.54
18.875,-449.75
18.890,-484.3
18.906,-502.18
18.921,-502.97
18.937,-493.18
18.953,-470.88
18.968,-441.85
18.984,-413.36
19.000,-392.5
19.015,-383.55
19.031,-386.44
19.046,-396.86
19.062,-408.93
19.078,-425.02
19.093,-437.41
19.109,-448.47
19.125,-460.95
19.140,-474.56
19.156,-484.38
19.171,-482.5
19.187,-462.19
19.203,-379.95
19.218,-292.52
19.234,-202.55
19.250,-121.32
19.265,-55.92
19.281,-6.52
19.296,33.19
19.312,72.1
19.328,116.45
19.343,166.82
19.359,210.91
19.375,246.42
19.390,264.39
19.406,259.43
19.421,231.4
19.437,184.77
19.453,126.85
19.468,65.62
19.484,8.55
19.500,-43.26
19.515,-79.73
19.531,-97.77
19.546,-96.05
19.562,-75.31
19.578,-38.57
19.593,9.13
19.609,61.23
19.625,110.69
19.640,148.25
19.656,173.39
19.671,185.63
19.687,187.7
19.703,184.23
19.718,180.01
19.734,178.24
19.750,179.72
19.765,182.97
19.781,184.02
19.796,182.18
19.812,176.38
19.828,166.86
19.843,154.7
19.859,141.18
19.875,127.39
19.890,114.21
19.906,102.28
19.921,91.61
19.937,83.1
19.953,76.67
19.968,71.83
19.984,68.05
20.000,65.08
20.015,63.22
20.031,63.47
20.046,66.91
20.062,74.25
20.078,85.19
20.093,98.16
20.109,110.56
20.125,119.57
20.140,123.08
20.156,120.17
20.171,111.63
20.187,99.57
20.203,86.82
20.218,76.13
20.234,69.55
20.250,67.96
20.265,70.92
20.281,76.91
20.296,83.58
20.312,88.37
20.328,89.17
20.343,84.91
20.359,75.94
20.375,63.98
20.390,51.81
20.406,42.24
20.421,37.29
20.437,37.5
20.453,41.91
20.468,48.52
20.484,55.31
20.500,61.06
20.515,65.48
20.531,69.03
20.546,72.17
20.562,74.8
20.578,76.33
20.593,76.07
20.609,73.61
20.625,69.21
20.640,63.71
20.656,57.97
20.671,52.52
20.687,47.2
20.703,41.33
20.718,34.03
20.734,24.71
20.750,13.3
20.765,0.41
20.781,-12.82
20.796,-25.2
20.812,-35.77
20.828,-44.29
20.843,-51.25
20.859,-57.61
20.875,-64.35
20.890,-71.87
20.906,-79.75
20.921,-86.72
20.937,-91.14
20.953,-91.38
20.968,-86.27
20.984,-75.25
21.000,-58.31
21.015,-36.03
21.031,-9.57
21.046,19.02
21.062,46.82
21.078,70.43
21.093,86.78
21.109,94.09
21.125,92.59
21.140,84.34
21.156,72.38
21.171,59.64
21.187,48.13
21.203,38.66
21.218,31.17
21.234,25.23
21.250,20.36
21.265,16.03
21.281,11.63
21.296,6.39
21.312,-0.22
21.328,-8.07
21.343,-16.23
21.359,-23.14
21.375,-27.21
21.390,-27.5
21.406,-24.05
21.421,-17.66
21.437,-9.61
21.453,-1.03
21.468,7.29
21.484,14.92
21.500,21.63
21.515,27.17
21.531,31.22
21.546,33.47
21.562,33.78
21.578,32.24
21.593,29.12
21.609,24.71
21.625,19.28
21.640,13.12
21.656,6.73
21.671,0.75
21.687,-4.04
21.703,-7.11
21.718,-8.46
21.734,-8.79
21.750,-9.33
21.765,-11.26
21.781,-15.08
21.796,-20.18
21.812,-24.97
21.828,-27.33
21.843,-25.45
21.859,-18.44
21.875,-6.7
21.890,8.27
21.906,24.31
21.921,39.33
21.937,51.86
21.953,61.25
21.968,67.68
21.984,71.87
22.000,74.76
22.015,77.24
22.031,79.85
22.046,82.52
22.062,84.42
22.078,83.9
22.093,78.94
22.109,67.89
22.125,50.27
22.140,27.32
22.156,1.88
22.171,-22.43
22.187,-42.31
22.203,-55.53
22.218,-61.42
22.234,-60.6
22.250,-54.52
22.265,-45.08
22.281,-34.4
22.296,-24.51
22.312,-17.05
22.328,-12.84
22.343,-11.57
22.359,-12.06
22.375,-12.7
22.390,-12.12
22.406,-9.94
22.421,-6.9
22.437,-4.62
22.453,-5.02
22.468,-9.67
22.484,-19.19
22.500,-33.16
22.515,-50.15
22.531,-68.31
22.546,-85.92
22.562,-101.83
22.578,-115.5
22.593,-126.74
22.609,-135.24
22.625,-140.13
22.640,-140.01
22.656,-133.08
22.671,-117.89
22.687,-93.89
22.703,-61.87
22.718,-24.08
22.734,15.95
22.750,54.02
22.765,86.03
22.781,108.78
22.796,120.63
22.812,121.69
22.828,113.71
22.843,99.57
22.859,82.61
22.875,65.82
22.890,51.52
22.906,40.97
22.921,34.24
22.937,30.35
22.953,27.59
22.968,24.01
22.984,18.02
23.000,8.99
23.015,-2.53
23.031,-14.78
23.046,-25.24
23.062,-31.46
23.078,-31.91
23.093,-26.54
23.109,-16.81
23.125,-5.0
23.140,6.56
23.156,16.4
23.171,24.08
23.187,30.03
23.203,34.76
23.218,38.4
23.234,40.33
23.250,39.88
23.265,36.86
23.281,32.11
23.296,27.5
23.312,25.29
23.328,27.33
23.343,34.22
23.359,45.05
23.375,57.34
23.390,67.81
23.406,73.13
23.421,70.81
23.437,60.14
23.453,42.5
23.468,21.55
23.484,2.62
23.500,-8.35
23.515,-6.82
23.531,8.96
23.546,37.02
23.562,71.88
23.578,106.36
23.593,133.51
23.609,148.83
23.625,151.19
23.640,142.74
23.656,126.71
23.671,106.63
23.687,85.06
23.703,63.23
23.718,42.17
23.734,22.71
23.750,5.53
23.765,-9.32
23.781,-22.07
23.796,-34.84
23.812,-49.31
23.828,-66.54
23.843,-87.04
23.859,-110.09
23.875,-134.52
23.890,-159.32
23.906,-183.94
23.921,-207.32
23.937,-230.43
23.953,-253.52
23.968,-276.75
23.984,-299.68
24.000,-320.32
24.015,-335.04
24.031,-338.99
24.046,-327.61
24.062,-297.64
24.078,-252.15
24.093,-196.68
24.109,-138.41
24.125,-83.25
24.140,-33.02
24.156,14.55
24.171,63.78
24.187,109.62
24.203,157.88
24.218,199.21
24.234,223.85
24.250,225.78
24.265,206.31
24.281,174.55
24.296,143.27
24.312,123.46
24.328,120.34
24.343,133.08
24.359,153.89
24.375,175.39
24.390,192.27
24.406,201.5
24.421,201.37
24.437,190.36
24.453,167.54
24.468,133.81
24.484,93.79
24.500,52.78
24.515,17.35
24.531,-7.95
24.546,-21.98
24.562,-26.42
24.578,-24.66
24.593,-19.83
24.609,-13.98
24.625,-7.48
24.640,-0.9
24.656,6.18
24.671,14.27
24.687,23.6
24.703,33.89
24.718,44.15
24.734,53.01
24.750,59.15
24.765,62.14
24.781,62.09
24.796,60.46
24.812,59.24
24.828,60.43
24.843,65.28
24.859,74.02
24.875,85.77
24.890,98.77
24.906,110.63
24.921,118.52
24.937,119.99
24.953,113.28
24.968,98.03
24.984,75.54
25.000,48.65
25.015,21.14
25.031,-3.27
25.046,-21.91
25.062,-33.72
25.078,-39.31
25.093,-40.54
25.109,-39.72
25.125,-38.91
25.140,-39.62
25.156,-42.71
25.171,-48.52
25.187,-56.98
25.203,-67.58
25.218,-79.24
25.234,-90.39
25.250,-99.09
25.265,-103.52
25.281,-102.56
25.296,-96.08
25.312,-85.2
25.328,-71.82
25.343,-58.32
25.359,-46.9
25.375,-39.16
25.390,-35.76
25.406,-36.24
25.421,-39.24
25.437,-42.64
25.453,-44.25
25.468,-42.36
25.484,-36.33
25.500,-26.8
25.515,-15.34
25.531,-3.89
25.546,6.02
25.562,13.75
25.578,19.74
25.593,25.3
25.609,32.05
25.625,41.67
25.640,55.45
25.656,74.1
25.671,97.33
25.687,123.57
25.703,149.67
25.718,171.28
25.734,183.68
25.750,183.03
25.765,167.67
25.781,138.62
25.796,99.33
25.812,54.66
25.828,9.45
25.843,-32.51
25.859,-69.08
25.875,-99.6
25.890,-124.49
25.906,-144.58
25.921,-160.68
25.937,-173.32
25.953,-182.58
25.968,-188.24
25.984,-189.74
26.000,-186.54
26.015,-178.26
26.031,-164.82
26.046,-146.49
26.062,-123.81
26.078,-97.59
26.093,-68.64
26.109,-38.04
26.125,-7.29
26.140,21.68
26.156,46.48
26.171,65.07
26.187,76.33
26.203,80.66
26.218,79.89
26.234,76.76
26.250,73.85
26.265,72.72
26.281,73.78
26.296,76.53
26.312,80.57
26.328,85.82
26.343,92.6
26.359,100.64
26.375,108.47
26.390,113.12
26.406,110.99
26.421,99.36
26.437,77.74
26.453,48.65
26.468,16.94
26.484,-11.48
26.500,-31.57
26.515,-40.58
26.531,-38.57
26.546,-28.12
26.562,-13.34
26.578,1.15
26.593,11.3
26.609,14.39
26.625,9.43
26.640,-2.58
26.656,-19.23
26.671,-37.23
26.687,-53.33
26.703,-64.89
26.718,-70.42
26.734,-69.4
26.750,-62.22
26.765,-50.07
26.781,-34.73
26.796,-18.72
26.812,-5.02
26.828,3.21
26.843,3.38
26.859,-6.05
26.875,-24.93
26.890,-51.56
26.906,-82.97
26.921,-115.61
26.937,-145.83
26.953,-170.34
26.968,-186.62
26.984,-193.1
27.000,-189.43
27.015,-176.52
27.031,-156.42
27.046,-131.79
27.062,-105.23
27.078,-78.54
27.093,-52.33
27.109,-26.21
27.125,0.56
27.140,28.33
27.156,56.5
27.171,83.31
27.187,106.2
27.203,122.31
27.218,128.96
27.234,123.94
27.250,105.69
27.265,73.61
27.281,28.61
27.296,-26.39
27.312,-86.32
27.328,-144.56
27.343,-194.01
27.359,-228.54
27.375,-244.22
27.390,-239.92
27.406,-217.32
27.421,-180.44
27.437,-134.94
27.453,-87.16
27.468,-43.16
27.484,-7.49
27.500,17.64
27.515,32.57
27.531,39.61
27.546,41.84
27.562,41.76
27.578,40.54
27.593,38.24
27.609,34.68
27.625,30.26
27.640,26.3
27.656,24.62
27.671,26.74
27.687,33.09
27.703,42.79
27.718,54.01
27.734,64.68
27.750,73.26
27.765,79.06
27.781,82.35
27.796,84.21
27.812,86.52
27.828,91.55
27.843,101.44
27.859,117.46
27.875,139.1
27.890,163.5
27.906,185.73
27.921,200.08
27.937,201.78
27.953,189.05
27.968,163.77
27.984,131.02
28.000,97.41
28.015,68.83
28.031,48.84
28.046,38.07
28.062,34.92
28.078,36.69
28.093,40.71
28.109,44.92
28.125,48.04
28.140,49.16
28.156,47.78
28.171,43.79
28.187,37.84
28.203,31.35
28.218,26.31
28.234,24.75
28.250,27.89
28.265,35.85
28.281,47.56
28.296,61.24
28.312,75.17
28.328,88.2
28.343,99.84
28.359,109.71
28.375,116.83
28.390,119.11
28.406,113.74
28.421,98.23
28.437,71.78
28.453,36.22
28.468,-3.98
28.484,-42.82
28.500,-74.53
28.515,-95.22
28.531,-103.82
28.546,-101.96
28.562,-93.25
28.578,-82.09
28.593,-72.69
28.609,-68.37
28.625,-70.82
28.640,-79.89
28.656,-93.48
28.671,-108.06
28.687,-119.44
28.703,-124.02
28.718,-119.75
28.734,-106.62
28.750,-86.74
28.765,-63.48
28.781,-40.59
28.796,-21.31
28.812,-7.73
28.828,-0.62
28.843,0.43
28.859,-3.37
28.875,-10.41
28.890,-19.16
28.906,-28.31
28.921,-37.0
28.937,-44.81
28.953,-51.77
28.968,-58.26
28.984,-64.94
29.000,-72.41
29.015,-81.16
29.031,-91.18
29.046,-101.95
29.062,-112.5
29.078,-121.71
29.093,-128.63
29.109,-132.72
29.125,-133.8
29.140,-131.66
29.156,-125.88
29.171,-115.62
29.187,-99.8
29.203,-77.6
29.218,-49.07
29.234,-15.43
29.250,20.92
29.265,56.74
29.281,88.5
29.296,112.93
29.312,127.48
29.328,130.81
29.343,123.07
29.359,106.02
29.375,82.84
29.390,57.59
29.406,34.49
29.421,17.04
29.437,7.39
29.453,5.82
29.468,10.9
29.484,19.9
29.500,29.72
29.515,37.68
29.531,42.33
29.546,43.7
29.562,43.19
29.578,43.06
29.593,45.44
29.609,51.55
29.625,60.84
29.640,70.73
29.656,76.71
29.671,73.52
29.687,56.58
29.703,23.9
29.718,-22.66
29.734,-77.39
29.750,-132.21
29.765,-178.86
29.781,-211.34
29.796,-227.33
29.812,-228.29
29.828,-218.5
29.843,-203.49
29.859,-188.64
29.875,-178.17
29.890,-174.71
29.906,-178.88
29.921,-189.25
29.937,-202.37
29.953,-213.41
29.968,-217.27
29.984,-209.8
30.000,-188.92
30.015,-155.03
30.031,-110.65
30.046,-59.52
30.062,-5.63
30.078,47.64
30.093,97.79
30.109,142.79
30.125,180.7
30.140,209.51
30.156,227.38
30.171,233.48
30.187,228.57
30.203,215.28
30.218,197.62
30.234,180.02
30.250,166.03
30.265,157.57
30.281,154.71
30.296,156.09
30.312,159.65
30.328,163.39
30.343,165.89
30.359,166.45
30.375,165.15
30.390,162.63
30.406,159.84
30.421,157.82
30.437,157.4
30.453,159.1
30.468,163.07
30.484,169.12
30.500,176.74
30.515,185.26
30.531,193.95
30.546,202.17
30.562,209.31
30.578,214.66
30.593,217.15
30.609,215.22
30.625,206.89
30.640,189.94
30.656,162.58
30.671,124.09
30.687,75.57
30.703,20.25
30.718,-36.73
30.734,-89.13
30.750,-130.89
30.765,-157.63
30.781,-167.61
30.796,-162.14
30.812,-145.08
30.828,-121.76
30.843,-97.74
30.859,-77.65
30.875,-64.56
30.890,-59.53
30.906,-61.68
30.921,-68.58
30.937,-76.91
30.953,-83.43
30.968,-85.86
30.984,-83.49
31.000,-77.34
31.015,-69.66
31.031,-63.08
31.046,-59.77
31.062,-60.85
31.078,-66.19
31.093,-74.71
31.109,-84.89
31.125,-95.06
31.140,-103.93
31.156,-110.55
31.171,-114.55
31.187,-116.0
31.203,-115.33
31.218,-113.14
31.234,-110.04
31.250,-106.49
31.265,-102.81
31.281,-99.24
31.296,-95.99
31.312,-93.35
31.328,-91.38
31.343,-89.67
31.359,-87.26
31.375,-82.65
31.390,-74.53
31.406,-62.24
31.421,-46.24
31.437,-28.07
31.453,-9.91
31.468,6.14
31.484,18.59
31.500,26.72
31.515,30.6
31.531,30.55
31.546,27.15
31.562,21.13
31.578,13.51
31.593,5.87
31.609,0.33
31.625,-0.74
31.640,4.73
31.656,17.93
31.671,38.53
31.687,64.68
31.703,93.27
31.718,120.61
31.734,143.45
31.750,159.74
31.765,169.2
31.781,173.01
31.796,173.37
31.812,172.28
31.828,170.59
31.843,167.42
31.859,160.08
31.875,145.0
31.890,119.05
31.906,81.01
31.921,32.47
31.937,-22.05
31.953,-76.26
31.968,-123.59
31.984,-158.82
32.000,-179.2
32.015,-184.53
32.031,-176.77
32.046,-159.21
32.062,-135.58
32.078,-109.47
32.093,-84.06
32.109,-61.86
32.125,-44.53
32.140,-32.83
32.156,-26.51
32.171,-24.64
32.187,-25.78
32.203,-28.23
32.218,-30.38
32.234,-30.87
32.250,-28.97
32.265,-24.49
32.281,-17.88
32.296,-10.08
32.312,-2.39
32.328,3.66
32.343,6.52
32.359,4.81
32.375,-2.24
32.390,-14.62
32.406,-31.23
32.421,-50.08
32.437,-68.55
32.453,-83.89
32.468,-93.9
32.484,-97.12
32.500,-93.23
32.515,-82.74
32.531,-67.04
32.546,-47.99
32.562,-27.87
32.578,-8.97
32.593,6.62
32.609,17.15
32.625,21.55
32.640,19.33
32.656,10.81
32.671,-3.03
32.687,-20.54
32.703,-39.56
32.718,-57.68
32.734,-72.55
32.750,-82.45
32.765,-86.52
32.781,-84.99
32.796,-79.02
32.812,-70.33
32.828,-60.7
32.843,-51.41
32.859,-42.95
32.875,-34.99
32.890,-26.68
32.906,-17.15
32.921,-6.01
32.937,6.45
32.953,19.29
32.968,31.2
32.984,40.9
33.000,47.27
33.015,49.73
33.031,48.25
33.046,43.44
33.062,36.51
33.078,28.95
33.093,22.19
33.109,17.1
33.125,13.78
33.140,11.5
33.156,9.1
33.171,5.54
33.187,0.25
33.203,-6.65
33.218,-14.49
33.234,-22.46
33.250,-29.96
33.265,-36.59
33.281,-42.18
33.296,-46.4
33.312,-48.55
33.328,-47.78
33.343,-43.36
33.359,-35.18
33.375,-23.93
33.390,-10.91
33.406,2.63
33.421,16.01
33.437,29.35
33.453,43.38
33.468,58.61
33.484,74.79
33.500,90.52
33.515,103.68
33.531,112.17
33.546,114.72
33.562,111.43
33.578,103.71
33.593,93.71
33.609,83.71
33.625,75.45
33.640,69.86
33.656,66.97
33.671,66.11
33.687,66.01
33.703,65.31
33.718,62.87
33.734,58.22
33.750,51.83
33.765,45.09
33.781,39.83
33.796,37.49
33.812,38.78
33.828,43.32
33.843,50.11
33.859,58.13
33.875,66.8
33.890,75.93
33.906,85.3
33.921,94.01
33.937,100.24
33.953,101.98
33.968,97.71
33.984,87.53
34.000,73.23
34.015,57.8
34.031,44.35
34.046,35.18
34.062,31.37
34.078,32.87
34.093,38.9
34.109,47.94
34.125,57.56
34.140,64.19
34.156,63.4
34.171,51.19
34.187,25.44
34.203,-12.54
34.218,-57.65
34.234,-101.9
34.250,-136.36
34.265,-153.55
34.281,-149.26
34.296,-123.61
34.312,-80.89
34.328,-28.82
34.343,23.02
34.359,65.18
34.375,90.22
34.390,94.34
34.406,78.14
34.421,46.08
34.437,4.97
34.453,-37.8
34.468,-76.11
34.484,-105.98
34.500,-125.74
34.515,-135.73
34.531,-137.73
34.546,-134.32
34.562,-128.17
34.578,-121.56
34.593,-115.5
34.609,-109.58
34.625,-102.14
34.640,-91.08
34.656,-74.92
34.671,-53.55
34.687,-28.47
34.703,-2.21
34.718,22.42
34.734,43.17
34.750,58.63
34.765,68.15
34.781,71.44
34.796,68.28
34.812,58.63
34.828,42.97
34.843,22.74
34.859,0.38
34.875,-21.07
34.890,-38.78
34.906,-50.9
34.921,-56.91
34.937,-57.56
34.953,-54.2
34.968,-48.12
34.984,-40.25
35.000,-31.03
35.015,-20.81
35.031,-9.94
35.046,1.23
35.062,12.81
35.078,25.47
35.093,40.08
35.109,57.02
35.125,75.31
35.140,92.3
35.156,104.44
35.171,108.65
35.187,103.7
35.203,91.05
35.218,74.46
35.234,58.71
35.250,48.02
35.265,44.94
35.281,49.77
35.296,60.71
35.312,74.3
35.328,86.02
35.343,91.17
35.359,86.0
35.375,68.91
35.390,41.18
35.406,7.04
35.421,-27.56
35.437,-56.55
35.453,-75.59
35.468,-83.02
35.484,-80.05
35.500,-69.97
35.515,-57.05
35.531,-45.39
35.546,-38.03
35.562,-36.61
35.578,-41.1
35.593,-50.02
35.609,-60.99
35.625,-71.43
35.640,-79.48
35.656,-84.43
35.671,-86.82
35.687,-88.16
35.703,-90.32
35.718,-94.97
35.734,-103.13
35.750,-115.03
35.765,-129.89
35.781,-145.94
35.796,-160.48
35.812,-170.22
35.828,-171.99
35.843,-163.57
35.859,-144.37
35.875,-115.86
35.890,-81.33
35.906,-45.13
35.921,-11.77
35.937,15.08
35.953,33.08
35.968,41.4
35.984,40.63
36.000,32.36
36.015,18.96
36.031,3.12
36.046,-12.42
36.062,-25.43
36.078,-34.52
36.093,-39.34
36.109,-40.47
36.125,-39.03
36.140,-36.26
36.156,-33.18
36.171,-30.43
36.187,-28.37
36.203,-27.1
36.218,-26.45
36.234,-25.81
36.250,-23.96
36.265,-19.27
36.281,-10.12
36.296,4.56
36.312,24.87
36.328,49.82
36.343,77.14
36.359,103.57
36.375,125.18
36.390,138.12
36.406,139.52
36.421,128.31
36.437,105.76
36.453,75.34
36.468,42.05
36.484,11.13
36.500,-12.98
36.515,-27.58
36.531,-31.93
36.546,-27.1
36.562,-15.6
36.578,-0.76
36.593,14.0
36.609,26.1
36.625,34.43
36.640,39.58
36.656,43.28
36.671,47.68
36.687,54.21
36.703,63.2
36.718,73.74
36.734,84.2
36.750,92.8
36.765,98.19
36.781,99.61
36.796,96.92
36.812,90.53
36.828,81.24
36.843,70.18
36.859,58.52
36.875,47.32
36.890,37.15
36.906,28.03
36.921,19.6
36.937,11.32
36.953,2.87
36.968,-5.65
36.984,-13.59
37.000,-19.87
37.015,-23.31
37.031,-22.96
37.046,-18.54
37.062,-10.48
37.078,0.1
37.093,11.75
37.109,22.88
37.125,32.15
37.140,38.6
37.156,41.55
37.171,40.75
37.187,36.37
37.203,29.13
37.218,20.29
37.234,11.42
37.250,3.88
37.265,-1.71
37.281,-5.75
37.296,-9.65
37.312,-15.12
37.328,-23.35
37.343,-34.26
37.359,-46.37
37.375,-57.11
37.390,-63.64
37.406,-63.9
37.421,-57.22
37.437,-44.64
37.453,-28.45
37.468,-11.45
37.484,3.93
37.500,16.25
37.515,25.24
37.531,31.76
37.546,37.24
37.562,43.04
37.578,49.87
37.593,57.43
37.609,64.46
37.625,69.2
37.640,70.07
37.656,66.26
37.671,58.16
37.687,47.28
37.703,35.89
37.718,26.19
37.734,19.53
37.750,16.1
37.765,14.9
37.781,14.29
37.796,12.69
37.812,9.15
37.828,3.62
37.843,-3.0
37.859,-9.41
37.875,-14.3
37.890,-16.67
37.906,-16.06
37.921,-12.6
37.937,-7.07
37.953,-0.95
37.968,3.69
37.984,4.7
38.000,0.4
38.015,-9.69
38.031,-24.46
38.046,-41.48
38.062,-57.67
38.078,-70.26
38.093,-77.55
38.109,-79.2
38.125,-75.88
38.140,-68.76
38.156,-59.02
38.171,-47.77
38.187,-36.02
38.203,-24.95
38.218,-15.7
38.234,-9.26
38.250,-6.12
38.265,-6.01
38.281,-7.94
38.296,-10.4
38.312,-11.76
38.328,-10.78
38.343,-6.79
38.359,0.2
38.375,9.6
38.390,20.4
38.406,31.46
38.421,41.66
38.437,50.15
38.453,56.55
38.468,60.95
38.484,63.93
38.500,66.19
38.515,68.25
38.531,69.79
38.546,69.69
38.562,66.01
38.578,56.85
38.593,41.16
38.609,19.45
38.625,-6.1
38.640,-32.01
38.656,-54.53
38.671,-70.65
38.687,-78.45
38.703,-77.3
38.718,-67.58
38.734,-50.43
38.750,-27.74
38.765,-2.27
38.781,22.53
38.796,42.89
38.812,55.46
38.828,58.16
38.843,50.81
38.859,35.1
38.875,14.05
38.890,-8.81
38.906,-30.28
38.921,-48.11
38.937,-61.15
38.953,-69.16
38.968,-72.52
38.984,-71.77
39.000,-67.5
39.015,-60.28
39.031,-50.8
39.046,-39.97
39.062,-28.87
39.078,-18.62
39.093,-10.17
39.109,-4.04
39.125,-0.32
39.140,1.32
39.156,1.62
39.171,1.43
39.187,1.6
39.203,2.77
39.218,5.12
39.234,8.23
39.250,11.16
39.265,12.55
39.281,10.98
39.296,5.43
39.312,-4.38
39.328,-17.78
39.343,-33.27
39.359,-48.84
39.375,-62.27
39.390,-71.68
39.406,-75.72
39.421,-73.82
39.437,-66.19
39.453,-53.75
39.468,-38.09
39.484,-21.23
39.500,-5.39
39.515,7.47
39.531,16.08
39.546,20.18
39.562,20.63
39.578,19.14
39.593,17.7
39.609,17.96
39.625,20.64
39.640,25.38
39.656,30.75
39.671,34.85
39.687,35.86
39.703,32.84
39.718,25.93
39.734,16.37
39.750,6.08
39.765,-2.8
39.781,-8.33
39.796,-9.11
39.812,-4.53
39.828,5.2
39.843,18.9
39.859,34.53
39.875,49.53
39.890,61.29
39.906,67.93
39.921,68.7
39.937,64.09
39.953,55.51
39.968,44.68
39.984,33.14
40.000,21.85
40.015,11.34
40.031,1.9
40.046,-6.2
40.062,-12.6
40.078,-17.01
40.093,-19.57
40.109,-20.98
40.125,-22.4
40.140,-24.97
40.156,-29.22
40.171,-34.66
40.187,-39.89
40.203,-43.12
40.218,-42.89
40.234,-38.71
40.250,-31.22
40.265,-21.81
40.281,-12.06
40.296,-3.19
40.312,4.06
40.328,9.42
40.343,12.82
40.359,14.23
40.375,13.82
40.390,12.03
40.406,9.61
40.421,7.57
40.437,6.81
40.453,7.7
40.468,9.92
40.484,12.52
40.500,14.38
40.515,14.92
40.531,14.57
40.546,14.93
40.562,18.36
40.578,27.09
40.593,42.05
40.609,62.21
40.625,84.42
40.640,104.3
40.656,117.59
40.671,121.54
40.687,115.8
40.703,102.3
40.718,84.34
40.734,65.32
40.750,47.66
40.765,32.29
40.781,18.91
40.796,6.67
40.812,-5.23
40.828,-17.21
40.843,-29.27
40.859,-41.26
40.875,-52.86
40.890,-63.5
40.906,-72.25
40.921,-77.83
40.937,-78.94
40.953,-74.85
40.968,-65.96
40.984,-53.88
41.000,-41.21
41.015,-30.73
41.031,-24.49
41.046,-23.18
41.062,-25.85
41.078,-30.35
41.093,-34.07
41.109,-34.95
41.125,-32.31
41.140,-27.09
41.156,-21.47
41.171,-18.04
41.187,-18.69
41.203,-23.81
41.218,-32.33
41.234,-42.23
41.250,-51.33
41.265,-58.11
41.281,-61.88
41.296,-62.5
41.312,-59.84
41.328,-53.68
41.343,-43.8
41.359,-30.6
41.375,-15.32
41.390,-0.04
41.406,12.89
41.421,21.66
41.437,25.53
41.453,25.04
41.468,21.64
41.484,17.14
41.500,13.09
41.515,10.48
41.531,9.5
41.546,9.58
41.562,9.7
41.578,8.58
41.593,5.22
41.609,-0.83
41.625,-9.07
41.640,-18.31
41.656,-26.85
41.671,-32.96
41.687,-35.5
41.703,-33.94
41.718,-28.48
41.734,-19.97
41.750,-9.55
41.765,1.54
41.781,12.2
41.796,21.6
41.812,29.48
41.828,36.08
41.843,42.16
41.859,48.68
41.875,56.16
41.890,64.41
41.906,72.16
41.921,77.38
41.937,77.98
41.953,72.67
41.968,61.62
41.984,46.48
42.000,29.85
42.015,14.35
42.031,1.93
42.046,-6.37
42.062,-10.3
42.078,-9.93
42.093,-5.51
42.109,2.39
42.125,12.55
42.140,23.05
42.156,31.61
42.171,36.3
42.187,36.4
42.203,32.61
42.218,26.87
42.234,21.32
42.250,17.22
42.265,14.34
42.281,11.12
42.296,5.53
42.312,-3.8
42.328,-16.75
42.343,-31.78
42.359,-46.46
42.375,-58.63
42.390,-67.05
42.406,-71.64
42.421,-72.99
42.437,-71.7
42.453,-68.01
42.468,-61.84
42.484,-53.21
42.500,-42.64
42.515,-31.29
42.531,-20.52
42.546,-11.38
42.562,-4.27
42.578,1.04
42.593,4.97
42.609,7.78
42.625,9.34
42.640,9.33
42.656,7.59
42.671,4.31
42.687,0.07
42.703,-4.44
42.718,-8.77
42.734,-12.85
42.750,-16.86
42.765,-21.04
42.781,-25.38
42.796,-29.39
42.812,-32.21
42.828,-32.63
42.843,-29.49
42.859,-22.09
42.875,-10.63
42.890,3.55
42.906,17.86
42.921,29.18
42.937,34.74
42.953,33.12
42.968,24.79
42.984,11.93
43.000,-2.19
43.015,-14.15
43.031,-21.16
43.046,-21.67
43.062,-15.33
43.078,-3.07
43.093,13.05
43.109,30.08
43.125,44.58
43.140,53.43
43.156,54.61
43.171,47.9
43.187,34.92
43.203,18.72
43.218,3.05
43.234,-8.71
43.250,-14.19
43.265,-12.52
43.281,-4.41
43.296,8.14
43.312,22.28
43.328,34.98
43.343,43.69
43.359,46.86
43.375,44.16
43.390,36.42
43.406,25.14
43.421,12.0
43.437,-1.38
43.453,-13.68
43.468,-23.99
43.484,-31.84
43.500,-37.44
43.515,-41.66
43.531,-45.82
43.546,-51.43
43.562,-59.51
43.578,-70.1
43.593,-82.03
43.609,-92.95
43.625,-100.0
43.640,-100.53
43.656,-92.93
43.671,-77.0
43.687,-54.11
43.703,-26.95
43.718,1.24
43.734,27.22
43.750,48.42
43.765,63.23
43.781,71.09
43.796,72.41
43.812,68.37
43.828,60.8
43.843,51.64
43.859,42.61
43.875,34.69
43.890,27.96
43.906,21.58
43.921,14.31
43.937,5.19
43.953,-5.84
43.968,-17.68
43.984,-28.3
44.000,-35.48
44.015,-37.7
44.031,-34.67
44.046,-27.6
44.062,-18.77
44.078,-10.8
44.093,-5.81
44.109,-4.86
44.125,-7.81
44.140,-13.29
44.156,-19.32
44.171,-23.9
44.187,-25.5
44.203,-23.51
44.218,-18.43
44.234,-11.57
44.250,-4.77
44.265,0.02
44.281,1.37
44.296,-1.25
44.312,-7.31
44.328,-15.14
44.343,-22.33
44.359,-26.31
44.375,-24.93
44.390,-16.87
44.406,-2.04
44.421,18.39
44.437,42.05
44.453,65.85
44.468,86.35
44.484,100.36
44.500,105.59
44.515,101.15
44.531,87.84
44.546,68.01
44.562,45.04
44.578,22.31
44.593,2.52
44.609,-12.92
44.625,-24.03
44.640,-32.0
44.656,-38.51
44.671,-45.11
44.687,-52.73
44.703,-61.23
44.718,-69.56
44.734,-75.92
44.750,-78.18
44.765,-74.54
44.781,-64.16
44.796,-47.47
44.812,-26.27
44.828,-3.35
44.843,18.27
44.859,36.1
44.875,48.76
44.890,56.34
44.906,60.18
44.921,62.16
44.937,63.78
44.953,65.32
44.968,65.59
44.984,62.45
45.000,53.85
45.015,38.84
45.031,18.31
45.046,-5.27
45.062,-28.6
45.078,-48.59
45.093,-62.96
45.109,-70.51
45.125,-70.69
45.140,-63.51
45.156,-49.54
45.171,-30.11
45.187,-7.56
45.203,14.99
45.218,34.15
45.234,47.13
45.250,52.45
45.265,50.26
45.281,42.08
45.296,30.3
45.312,17.34
45.328,5.0
45.343,-5.84
45.359,-15.2
45.375,-23.59
45.390,-31.53
45.406,-39.24
45.421,-46.48
45.437,-52.54
45.453,-56.51
45.468,-57.51
45.484,-54.87
45.500,-48.2
45.515,-37.55
45.531,-23.42
45.546,-6.66
45.562,11.82
45.578,31.14
45.593,50.61
45.609,69.72
45.625,87.9
45.640,104.28
45.656,117.44
45.671,125.5
45.687,126.52
45.703,119.52
45.718,104.95
45.734,85.07
45.750,63.48
45.765,43.83
45.781,28.61
45.796,18.36
45.812,11.99
45.828,7.57
45.843,3.81
45.859,0.6
45.875,-1.05
45.890,0.14
45.906,4.62
45.921,11.61
45.937,19.27
45.953,25.69
45.968,29.61
45.984,30.94
46.000,30.46
46.015,29.13
46.031,27.49
46.046,25.34
46.062,22.1
46.078,17.18
46.093,10.45
46.109,2.26
46.125,-6.72
46.140,-15.81
46.156,-24.53
46.171,-32.23
46.187,-37.97
46.203,-40.41
46.218,-38.19
46.234,-30.53
46.250,-17.71
46.265,-1.2
46.281,16.86
46.296,34.11
46.312,48.69
46.328,59.36
46.343,65.32
46.359,66.09
46.375,61.37
46.390,51.39
46.406,37.04
46.421,20.08
46.437,2.62
46.453,-13.36
46.468,-26.78
46.484,-37.78
46.500,-47.36
46.515,-56.95
46.531,-67.58
46.546,-79.4
46.562,-91.45
46.578,-101.9
46.593,-108.61
46.609,-109.77
46.625,-104.58
46.640,-93.29
46.656,-77.36
46.671,-58.88
46.687,-40.14
46.703,-23.04
46.718,-8.81
46.734,1.95
46.750,9.17
46.765,12.79
46.781,12.72
46.796,8.85
46.812,1.26
46.828,-9.45
46.843,-22.13
46.859,-35.3
46.875,-47.62
46.890,-58.25
46.906,-66.96
46.921,-73.63
46.937,-77.76
46.953,-78.17
46.968,-73.05
46.984,-60.84
47.000,-41.12
47.015,-15.22
47.031,13.79
47.046,41.84
47.062,65.07
47.078,80.88
47.093,88.32
47.109,88.01
47.125,81.6
47.140,71.08
47.156,58.46
47.171,45.61
47.187,34.12
47.203,25.23
47.218,19.7
47.234,17.35
47.250,17.21
47.265,17.62
47.281,16.9
47.296,13.99
47.312,8.97
47.328,3.14
47.343,-1.42
47.359,-2.43
47.375,1.76
47.390,11.61
47.406,26.09
47.421,42.64
47.437,57.59
47.453,66.94
47.468,67.36
47.484,57.23
47.500,37.29
47.515,10.45
47.531,-18.9
47.546,-46.36
47.562,-68.68
47.578,-84.27
47.593,-93.12
47.609,-96.13
47.625,-94.48
47.640,-89.15
47.656,-80.97
47.671,-70.52
47.687,-58.11
47.703,-43.77
47.718,-27.24
47.734,-8.33
47.750,12.49
47.765,33.78
47.781,53.06
47.796,67.47
47.812,74.57
47.828,73.22
47.843,63.9
47.859,48.67
47.875,30.46
47.890,12.24
47.906,-3.67
47.921,-16.05
47.937,-24.77
47.953,-30.47
47.968,-34.03
47.984,-36.37
48.000,-38.08
48.015,-39.44
48.031,-40.37
48.046,-40.28
48.062,-38.18
48.078,-32.92
48.093,-23.66
48.109,-10.42
48.125,5.48
48.140,21.7
48.156,35.58
48.171,44.96
48.187,48.82
48.203,47.26
48.218,40.93
48.234,30.17
48.250,14.71
48.265,-6.09
48.281,-32.33
48.296,-62.48
48.312,-92.86
48.328,-118.32
48.343,-133.85
48.359,-136.64
48.375,-127.51
48.390,-110.81
48.406,-92.49
48.421,-77.49
48.437,-67.52
48.453,-60.58
48.468,-52.38
48.484,-38.82
48.500,-18.39
48.515,7.04
48.531,33.08
48.546,54.84
48.562,68.99
48.578,74.81
48.593,73.79
48.609,68.49
48.625,61.25
48.640,53.42
48.656,45.43
48.671,37.46
48.687,30.01
48.703,24.09
48.718,21.07
48.734,21.97
48.750,26.75
48.765,34.35
48.781,42.93
48.796,50.76
48.812,57.0
48.828,61.88
48.843,66.37
48.859,71.41
48.875,77.19
48.890,82.75
48.906,86.48
48.921,86.68
48.937,82.36
48.953,73.72
48.968,61.96
48.984,48.77
49.000,35.77
49.015,24.13
49.031,14.5
49.046,7.14
49.062,2.07
49.078,-0.9
49.093,-2.11
49.109,-1.99
49.125,-0.96
49.140,0.88
49.156,3.85
49.171,8.55
49.187,15.57
49.203,24.81
49.218,35.21
49.234,44.78
49.250,51.15
49.265,52.31
49.281,47.3
49.296,36.51
49.312,21.38
49.328,4.06
49.343,-13.31
49.359,-28.9
49.375,-41.43
49.390,-50.22
49.406,-55.16
49.421,-56.79
49.437,-56.3
49.453,-55.4
49.468,-55.83
49.484,-58.9
49.500,-64.81
49.515,-72.45
49.531,-79.63
49.546,-83.71
49.562,-82.44
49.578,-74.78
49.593,-61.29
49.609,-43.93
49.625,-25.5
49.640,-8.8
49.656,4.04
49.671,11.95
49.687,14.93
49.703,13.86
49.718,10.08
49.734,5.11
49.750,0.15
49.765,-4.07
49.781,-7.54
49.796,-10.81
49.812,-14.79
49.828,-20.25
49.843,-27.54
49.859,-36.11
49.875,-44.49
49.890,-50.58
49.906,-52.03
49.921,-47.04
49.937,-34.87
49.953,-16.38
49.968,6.13
49.984,29.23
50.000,49.36
50.015,63.78
50.031,71.33
50.046,72.59
50.062,69.33
50.078,63.8
50.093,57.78
50.109,52.2
50.125,46.99
50.140,41.51
50.156,34.97
50.171,26.89
50.187,17.36
50.203,6.93
50.218,-3.38
50.234,-12.27
50.250,-18.31
50.265,-20.27
50.281,-17.29
50.296,-9.11
50.312,3.79
50.328,20.46
50.343,39.64
50.359,60.03
50.375,80.35
50.390,99.11
50.406,114.43
50.421,123.82
50.437,124.74
50.453,115.24
50.468,94.89
50.484,65.39
50.500,30.36
50.515,-5.58
50.531,-38.21
50.546,-64.71
50.562,-84.13
50.578,-96.92
50.593,-104.02
50.609,-105.96
50.625,-102.59
50.640,-93.24
50.656,-77.48
50.671,-55.85
50.687,-30.02
50.703,-2.7
50.718,23.03
50.734,44.19
50.750,58.43
50.765,64.14
50.781,60.54
50.796,47.89
50.812,27.48
50.828,1.7
50.843,-26.22
50.859,-52.76
50.875,-74.83
50.890,-90.43
50.906,-98.92
50.921,-101.01
50.937,-98.27
50.953,-92.55
50.968,-85.34
50.984,-77.56
51.000,-69.29
51.015,-59.86
51.031,-48.43
51.046,-34.54
51.062,-18.75
51.078,-2.88
51.093,10.35
51.109,18.29
51.125,19.38
51.140,13.79
51.156,3.53
51.171,-8.24
51.187,-18.19
51.203,-23.79
51.218,-23.73
51.234,-18.16
51.250,-8.36
51.265,3.66
51.281,15.5
51.296,25.04
51.312,30.86
51.328,32.83
51.343,32.04
51.359,30.58
51.375,30.79
51.390,34.46
51.406,42.28
51.421,53.58
51.437,66.53
51.453,78.62
51.468,87.35
51.484,90.64
51.500,87.22
51.515,76.78
51.531,59.91
51.546,38.02
51.562,13.16
51.578,-12.26
51.593,-35.97
51.609,-56.13
51.625,-71.77
51.640,-82.72
51.656,-89.45
51.671,-92.62
51.687,-92.67
51.703,-89.49
51.718,-82.45
51.734,-70.77
51.750,-54.18
51.765,-33.37
51.781,-10.11
51.796,12.96
51.812,32.98
51.828,47.63
51.843,55.55
51.859,56.54
51.875,51.37
51.890,41.29
51.906,27.79
51.921,12.62
51.937,-2.32
51.953,-15.06
51.968,-23.96
51.984,-28.32
52.000,-28.6
52.015,-26.4
52.031,-23.71
52.046,-21.97
52.062,-21.21
52.078,-19.88
52.093,-15.56
52.109,-5.87
52.125,10.37
52.140,32.6
52.156,58.44
52.171,84.32
52.187,106.27
52.203,120.87
52.218,125.92
52.234,120.84
52.250,106.67
52.265,85.63
52.281,60.45
52.296,33.65
52.312,7.19
52.328,-17.59
52.343,-39.75
52.359,-58.47
52.375,-72.8
52.390,-81.64
52.406,-84.01
52.421,-79.24
52.437,-67.41
52.453,-49.64
52.468,-28.25
52.484,-6.48
52.500,12.2
52.515,24.98
52.531,30.59
52.546,29.44
52.562,23.4
52.578,14.82
52.593,5.7
52.609,-2.79
52.625,-10.23
52.640,-16.5
52.656,-21.38
52.671,-24.4
52.687,-25.17
52.703,-23.77
52.718,-20.92
52.734,-17.91
52.750,-16.04
52.765,-15.98
52.781,-17.31
52.796,-18.64
52.812,-18.07
52.828,-14.05
52.843,-6.26
52.859,4.14
52.875,14.69
52.890,22.6
52.906,25.67
52.921,23.3
52.937,16.52
52.953,7.63
52.968,-0.76
52.984,-6.76
53.000,-9.75
53.015,-10.36
53.031,-9.86
53.046,-9.43
53.062,-9.67
53.078,-10.57
53.093,-11.89
53.109,-13.67
53.125,-16.33
53.140,-20.29
53.156,-25.57
53.171,-31.39
53.187,-36.32
53.203,-38.88
53.218,-38.27
53.234,-34.75
53.250,-29.51
53.265,-24.07
53.281,-19.56
53.296,-16.45
53.312,-14.66
53.328,-13.84
53.343,-13.77
53.359,-14.39
53.375,-15.71
53.390,-17.54
53.406,-19.48
53.421,-20.97
53.437,-21.63
53.453,-21.48
53.468,-21.0
53.484,-20.86
53.500,-21.47
53.515,-22.56
53.531,-22.91
53.546,-20.76
53.562,-14.28
53.578,-2.66
53.593,13.47
53.609,31.88
53.625,49.47
53.640,63.29
53.656,71.52
53.671,73.92
53.687,71.41
53.703,65.51
53.718,57.59
53.734,48.72
53.750,39.85
53.765,32.18
53.781,27.02
53.796,25.38
53.812,27.42
53.828,32.0
53.843,37.25
53.859,41.4
53.875,43.8
53.890,45.23
53.906,47.53
53.921,52.31
53.937,59.91
53.953,69.14
53.968,77.47
53.984,82.27
54.000,81.63
54.015,74.9
54.031,62.54
54.046,45.75
54.062,25.98
54.078,4.58
54.093,-16.91
54.109,-37.03
54.125,-54.39
54.140,-68.07
54.156,-78.01
54.171,-85.16
54.187,-91.15
54.203,-97.63
54.218,-105.59
54.234,-114.61
54.250,-122.99
54.265,-128.21
54.281,-127.9
54.296,-120.75
54.312,-107.09
54.328,-88.71
54.343,-68.23
54.359,-48.32
54.375,-30.8
54.390,-16.48
54.406,-5.19
54.421,3.69
54.437,10.65
54.453,15.69
54.468,18.22
54.484,17.16
54.500,11.44
54.515,0.49
54.531,-15.42
54.546,-34.95
54.562,-55.92
54.578,-75.73
54.593,-91.82
54.609,-101.93
54.625,-104.4
54.640,-98.22
54.656,-83.29
54.671,-60.82
54.687,-33.37
54.703,-4.69
54.718,21.03
54.734,40.35
54.750,51.56
54.765,55.13
54.781,53.31
54.796,49.31
54.812,45.97
54.828,45.11
54.843,47.24
54.859,51.76
54.875,57.46
54.890,63.01
54.906,67.35
54.921,69.98
54.937,71.15
54.953,71.77
54.968,73.21
54.984,76.79
55.000,83.16
55.015,91.8
55.031,101.03
55.046,108.39
55.062,111.41
55.078,108.44
55.093,99.02
55.109,83.96
55.125,64.92
55.140,43.96
55.156,23.09
55.171,3.97
55.187,-12.27
55.203,-25.16
55.218,-34.89
55.234,-42.27
55.250,-48.29
55.265,-53.76
55.281,-58.99
55.296,-63.41
55.312,-65.79
55.328,-64.66
55.343,-58.9
55.359,-48.32
55.375,-33.96
55.390,-17.83
55.406,-2.46
55.421,9.67
55.437,16.82
55.453,18.34
55.468,14.72
55.484,7.37
55.500,-1.65
55.515,-10.28
55.531,-16.82
55.546,-20.19
55.562,-20.22
55.578,-17.46
55.593,-12.95
55.609,-7.89
55.625,-3.31
55.640,0.23
55.656,2.68
55.671,4.59
55.687,6.97
55.703,10.93
55.718,17.29
55.734,25.94
55.750,35.76
55.765,44.7
55.781,50.45
55.796,51.05
55.812,45.5
55.828,34.09
55.843,18.15
55.859,-0.27
55.875,-18.96
55.890,-35.96
55.906,-49.71
55.921,-59.05
55.937,-63.4
55.953,-62.69
55.968,-57.42
55.984,-48.62
56.000,-37.43
56.015,-24.85
56.031,-11.37
56.046,3.2
56.062,19.49
56.078,38.06
56.093,58.82
56.109,80.56
56.125,100.95
56.140,117.19
56.156,126.85
56.171,128.62
56.187,122.83
56.203,111.08
56.218,95.61
56.234,78.53
56.250,61.26
56.265,44.27
56.281,27.41
56.296,10.15
56.312,-8.16
56.328,-27.93
56.343,-49.05
56.359,-70.61
56.375,-90.63
56.390,-106.3
56.406,-114.86
56.421,-114.49
56.437,-105.2
56.453,-89.17
56.468,-70.08
56.484,-52.01
56.500,-38.3
56.515,-30.84
56.531,-29.83
56.546,-34.39
56.562,-43.01
56.578,-54.06
56.593,-65.93
56.609,-76.99
56.625,-85.69
56.640,-90.75
56.656,-91.42
56.671,-87.78
56.687,-80.66
56.703,-71.19
56.718,-60.3
56.734,-48.24
56.750,-34.54
56.765,-18.61
56.781,-0.4
56.796,19.03
56.812,37.55
56.828,52.67
56.843,62.67
56.859,67.26
56.875,67.57
56.890,65.52
56.906,62.68
56.921,59.56
56.937,55.75
56.953,50.59
56.968,43.93
56.984,36.62
57.000,30.28
57.015,26.25
57.031,24.95
57.046,25.64
57.062,27.02
57.078,28.33
57.093,30.22
57.109,34.66
57.125,44.17
57.140,60.45
57.156,83.03
57.171,109.08
57.187,134.21
57.203,154.0
57.218,165.43
57.234,167.43
57.250,160.57
57.265,146.29
57.281,126.12
57.296,101.34
57.312,73.27
57.328,43.6
57.343,14.44
57.359,-12.09
57.375,-34.43
57.390,-52.17
57.406,-65.82
57.421,-76.38
57.437,-84.61
57.453,-90.52
57.468,-93.47
57.484,-92.55
57.500,-87.31
57.515,-78.04
57.531,-65.87
57.546,-52.44
57.562,-39.41
57.578,-28.12
57.593,-19.27
57.609,-13.11
57.625,-9.54
57.640,-8.23
57.656,-8.83
57.671,-10.91
57.687,-13.96
57.703,-17.41
57.718,-20.72
57.734,-23.4
57.750,-25.18
57.765,-26.2
57.781,-26.86
57.796,-27.77
57.812,-29.35
57.828,-31.47
57.843,-33.23
57.859,-33.2
57.875,-29.82
57.890,-22.17
57.906,-10.53
57.921,3.51
57.937,17.49
57.953,28.95
57.968,36.1
57.984,38.43
58.000,36.57
58.015,31.82
58.031,25.75
58.046,19.56
58.062,14.1
58.078,9.65
58.093,6.34
58.109,3.96
58.125,2.21
58.140,0.95
58.156,0.18
58.171,0.32
58.187,2.17
58.203,6.81
58.218,15.05
58.234,27.18
58.250,42.49
58.265,59.28
58.281,75.41
58.296,88.81
58.312,98.15
58.328,103.0
58.343,103.67
58.359,100.66
58.375,94.38
58.390,84.99
58.406,72.68
58.421,57.98
58.437,41.75
58.453,24.98
58.468,8.4
58.484,-7.86
58.500,-24.2
58.515,-41.13
58.531,-58.68
58.546,-76.2
58.562,-92.16
58.578,-104.84
58.593,-112.85
58.609,-115.71
58.625,-113.95
58.640,-108.89
58.656,-102.06
58.671,-94.75
58.687,-87.8
58.703,-81.53
58.718,-76.13
58.734,-71.82
58.750,-68.89
58.765,-67.57
58.781,-67.67
58.796,-68.52
58.812,-69.04
58.828,-68.37
58.843,-66.02
58.859,-62.25
58.875,-57.68
58.890,-52.8
58.906,-47.55
58.921,-41.27
58.937,-33.22
58.953,-23.19
58.968,-12.08
58.984,-1.65
59.000,5.98
59.015,9.41
59.031,8.46
59.046,4.17
59.062,-1.87
59.078,-8.35
59.093,-14.69
59.109,-21.04
59.125,-27.61
59.140,-34.27
59.156,-40.27
59.171,-44.54
59.187,-46.2
59.203,-45.0
59.218,-41.36
59.234,-35.93
59.250,-29.21
59.265,-21.19
59.281,-11.37
59.296,0.85
59.312,15.75
59.328,32.91
59.343,51.04
59.359,68.3
59.375,82.72
59.390,92.76
59.406,97.57
59.421,97.25
59.437,92.56
59.453,84.55
59.468,74.26
59.484,62.55
59.500,50.19
59.515,37.96
59.531,26.66
59.546,16.94
59.562,9.09
59.578,2.9
59.593,-2.16
59.609,-6.46
59.625,-9.75
59.640,-11.03
59.656,-8.99
59.671,-2.72
59.687,7.44
59.703,19.91
59.718,32.14
59.734,41.62
59.750,46.78
59.765,47.34
59.781,44.13
59.796,38.48
59.812,31.58
59.828,24.22
59.843,16.94
59.859,10.25
59.875,4.76
59.890,1.26
59.906,0.23
59.921,1.7
59.937,5.07
59.953,9.19
59.968,12.61
59.984,14.11
