timestamp,value
00.000,-71.39
00.015,-8.96
00.031,42.95
00.046,83.97
00.062,115.95
00.078,142.41
00.093,168.03
00.109,197.26
00.125,232.64
00.140,273.51
00.156,315.78
00.171,353.56
00.187,381.22
00.203,395.46
00.218,395.97
00.234,384.72
00.250,364.86
00.265,339.69
00.281,312.1
00.296,284.33
00.312,258.61
00.328,236.47
00.343,218.38
00.359,203.23
00.375,188.05
00.390,169.17
00.406,143.42
00.421,109.7
00.437,69.01
00.453,24.26
00.468,-21.49
00.484,-65.82
00.500,-107.18
00.515,-144.63
00.531,-177.18
00.546,-203.97
00.562,-224.73
00.578,-240.73
00.593,-255.04
00.609,-271.44
00.625,-292.09
00.640,-315.32
00.656,-335.07
00.671,-342.32
00.687,-329.03
00.703,-291.36
00.718,-231.48
00.734,-157.01
00.750,-78.17
00.765,-4.48
00.781,57.38
00.796,103.35
00.812,131.63
00.828,141.41
00.843,132.96
00.859,108.46
00.875,72.02
00.890,28.9
00.906,-16.66
00.921,-62.75
00.937,-110.14
00.953,-159.53
00.968,-209.37
00.984,-254.07
01.000,-284.89
01.015,-293.19
01.031,-273.94
01.046,-227.98
01.062,-161.36
01.078,-83.0
01.093,-1.54
01.109,75.87
01.125,143.67
01.140,197.09
01.156,232.23
01.171,247.35
01.187,244.53
01.203,230.24
01.218,213.86
01.234,204.52
01.250,207.39
01.265,221.92
01.281,242.66
01.296,262.37
01.312,275.33
01.328,279.23
01.343,274.92
01.359,264.6
01.375,249.68
01.390,229.58
01.406,202.38
01.421,166.29
01.437,120.95
01.453,68.15
01.468,11.36
01.484,-44.98
01.500,-96.58
01.515,-140.32
01.531,-174.98
01.546,-201.32
01.562,-221.7
01.578,-239.87
01.593,-259.88
01.609,-284.56
01.625,-313.97
01.640,-344.68
01.656,-370.54
01.671,-385.19
01.687,-383.72
01.703,-364.38
01.718,-329.76
01.734,-286.04
01.750,-240.93
01.765,-201.16
01.781,-169.85
01.796,-146.38
01.812,-128.69
01.828,-112.89
01.843,-94.71
01.859,-72.08
01.875,-45.58
01.890,-18.55
01.906,4.22
01.921,19.85
01.937,27.29
01.953,25.54
01.968,17.83
01.984,12.02
02.000,16.2
02.015,37.26
02.031,78.12
02.046,137.29
02.062,212.73
02.078,299.82
02.093,387.22
02.109,464.35
02.125,523.99
02.140,559.64
02.156,568.84
02.171,552.46
02.187,514.83
02.203,465.81
02.218,415.5
02.234,365.83
02.250,318.62
02.265,279.2
02.281,251.34
02.296,239.69
02.312,245.23
02.328,242.04
02.343,210.54
02.359,179.9
02.375,164.92
02.390,160.12
02.406,167.79
02.421,188.78
02.437,224.15
02.453,270.46
02.468,321.29
02.484,371.52
02.500,417.36
02.515,450.5
02.531,466.72
02.546,469.39
02.562,442.15
02.578,382.06
02.593,296.21
02.609,196.02
02.625,90.34
02.640,-15.92
02.656,-120.68
02.671,-227.64
02.687,-333.07
02.703,-432.65
02.718,-521.64
02.734,-601.33
02.750,-664.17
02.765,-707.05
02.781,-728.4
02.796,-730.94
02.812,-718.96
02.828,-696.12
02.843,-668.41
02.859,-639.77
02.875,-612.82
02.890,-587.06
02.906,-559.39
02.921,-523.79
02.937,-475.95
02.953,-414.84
02.968,-343.07
02.984,-268.42
03.000,-199.23
03.015,-142.25
03.031,-99.61
03.046,-68.83
03.062,-42.81
03.078,-13.65
03.093,24.66
03.109,75.37
03.125,137.25
03.140,205.96
03.156,274.49
03.171,334.26
03.187,376.5
03.203,395.52
03.218,390.16
03.234,363.63
03.250,322.9
03.265,275.72
03.281,228.58
03.296,185.34
03.312,147.16
03.328,113.47
03.343,83.96
03.359,58.62
03.375,36.94
03.390,17.5
03.406,-1.94
03.421,-22.69
03.437,-43.59
03.453,-60.72
03.468,-69.11
03.484,-65.13
03.500,-49.01
03.515,-25.15
03.531,0.26
03.546,22.45
03.562,40.83
03.578,59.46
03.593,84.59
03.609,120.92
03.625,167.95
03.640,218.5
03.656,260.22
03.671,279.93
03.687,269.25
03.703,228.56
03.718,168.01
03.734,104.13
03.750,54.35
03.765,31.34
03.781,39.73
03.796,76.35
03.812,132.55
03.828,197.16
03.843,258.97
03.859,308.46
03.875,338.4
03.890,344.74
03.906,327.11
03.921,289.1
03.937,237.61
03.953,180.93
03.968,126.78
03.984,79.93
04.000,41.38
04.015,8.41
04.031,-24.01
04.046,-61.53
04.062,-108.43
04.078,-166.03
04.093,-232.4
04.109,-301.74
04.125,-366.08
04.140,-416.83
04.156,-446.88
04.171,-452.21
04.187,-432.47
04.203,-390.81
04.218,-332.97
04.234,-266.18
04.250,-197.67
04.265,-133.75
04.281,-79.19
04.296,-36.91
04.312,-8.31
04.328,6.52
04.343,8.27
04.359,-1.79
04.375,-22.43
04.390,-52.53
04.406,-90.98
04.421,-135.51
04.437,-181.54
04.453,-222.43
04.468,-250.09
04.484,-257.93
04.500,-244.04
04.515,-212.87
04.531,-173.98
04.546,-138.69
04.562,-115.47
04.578,-106.41
04.593,-107.93
04.609,-112.66
04.625,-112.96
04.640,-103.23
04.656,-80.74
04.671,-45.3
04.687,1.04
04.703,54.22
04.718,108.09
04.734,154.93
04.750,187.66
04.765,201.8
04.781,196.76
04.796,176.02
04.812,145.31
04.828,109.99
04.843,73.28
04.859,36.15
04.875,-1.01
04.890,-36.24
04.906,-65.16
04.921,-82.21
04.937,-83.31
04.953,-68.3
04.968,-41.7
04.984,-10.65
05.000,18.63
05.015,43.92
05.031,68.23
05.046,97.15
05.062,134.7
05.078,179.77
05.093,225.3
05.109,260.8
05.125,276.82
05.140,269.13
05.156,240.09
05.171,197.08
05.187,148.59
05.203,100.58
05.218,54.59
05.234,8.51
05.250,-40.89
05.265,-95.27
05.281,-153.06
05.296,-210.09
05.312,-261.36
05.328,-303.6
05.343,-336.06
05.359,-359.99
05.375,-376.74
05.390,-386.54
05.406,-388.68
05.421,-382.96
05.437,-371.6
05.453,-359.53
05.468,-352.92
05.484,-355.62
05.500,-366.34
05.515,-377.93
05.531,-379.67
05.546,-362.25
05.562,-322.07
05.578,-263.16
05.593,-195.17
05.609,-129.22
05.625,-73.43
05.640,-31.13
05.656,-1.76
05.671,16.87
05.687,26.51
05.703,28.13
05.718,22.53
05.734,11.97
05.750,0.77
05.765,-5.33
05.781,-0.83
05.796,17.84
05.812,51.23
05.828,96.73
05.843,149.19
05.859,201.71
05.875,246.8
05.890,278.0
05.906,291.21
05.921,285.5
05.937,262.98
05.953,227.89
05.968,184.62
05.984,136.45
06.000,85.01
06.015,31.02
06.031,-23.86
06.046,-75.83
06.062,-118.98
06.078,-147.1
06.093,-155.86
06.109,-145.22
06.125,-119.19
06.140,-84.26
06.156,-46.96
06.171,-11.82
06.187,19.14
06.203,45.58
06.218,67.19
06.234,82.77
06.250,89.85
06.265,85.73
06.281,68.6
06.296,37.96
06.312,-5.48
06.328,-59.62
06.343,-120.42
06.359,-181.25
06.375,-233.21
06.390,-267.27
06.406,-276.86
06.421,-260.65
06.437,-222.87
06.453,-171.11
06.468,-112.57
06.484,-51.3
06.500,12.08
06.515,77.77
06.531,143.53
06.546,203.42
06.562,249.89
06.578,277.89
06.593,288.73
06.609,290.22
06.625,293.02
06.640,305.5
06.656,329.85
06.671,362.21
06.687,395.72
06.703,425.22
06.718,449.26
06.734,469.45
06.750,487.2
06.765,500.52
06.781,503.96
06.796,491.35
06.812,459.61
06.828,410.87
06.843,351.85
06.859,290.58
06.875,232.92
06.890,180.44
06.906,131.1
06.921,81.69
06.937,30.66
06.953,-20.25
06.968,-66.48
06.984,-102.39
07.000,-123.86
07.015,-129.95
07.031,-123.53
07.046,-110.42
07.062,-97.61
07.078,-91.27
07.093,-95.15
07.109,-109.79
07.125,-132.6
07.140,-158.86
07.156,-183.52
07.171,-202.66
07.187,-214.54
07.203,-219.62
07.218,-220.04
07.234,-218.63
07.250,-217.99
07.265,-219.9
07.281,-224.68
07.296,-231.26
07.312,-237.31
07.328,-240.36
07.343,-239.38
07.359,-236.19
07.375,-235.38
07.390,-242.44
07.406,-260.71
07.421,-288.95
07.437,-321.3
07.453,-349.88
07.468,-368.67
07.484,-376.04
07.500,-374.63
07.515,-368.17
07.531,-357.83
07.546,-340.79
07.562,-311.47
07.578,-265.15
07.593,-201.3
07.609,-124.34
07.625,-41.83
07.640,38.86
07.656,113.13
07.671,179.61
07.687,238.81
07.703,291.41
07.718,337.31
07.734,376.04
07.750,407.97
07.765,434.73
07.781,458.51
07.796,480.62
07.812,500.2
07.828,514.47
07.843,520.29
07.859,515.8
07.875,500.86
07.890,476.14
07.906,441.7
07.921,396.22
07.937,338.22
07.953,267.93
07.968,188.9
07.984,107.77
08.000,32.28
08.015,-31.58
08.031,-81.41
08.046,-118.22
08.062,-145.12
08.078,-165.33
08.093,-181.42
08.109,-195.21
08.125,-208.1
08.140,-220.95
08.156,-233.45
08.171,-243.65
08.187,-248.56
08.203,-245.46
08.218,-233.54
08.234,-214.6
08.250,-192.32
08.265,-170.76
08.281,-152.97
08.296,-140.13
08.312,-131.77
08.328,-126.9
08.343,-124.62
08.359,-124.51
08.375,-126.4
08.390,-130.25
08.406,-136.37
08.421,-145.25
08.437,-157.17
08.453,-171.29
08.468,-184.9
08.484,-193.85
08.500,-193.95
08.515,-183.11
08.531,-162.23
08.546,-134.58
08.562,-103.28
08.578,-69.06
08.593,-29.88
08.609,17.16
08.625,72.27
08.640,130.7
08.656,183.15
08.671,219.55
08.687,233.94
08.703,228.11
08.718,211.15
08.734,195.65
08.750,192.34
08.765,205.92
08.781,234.16
08.796,270.36
08.812,307.15
08.828,339.24
08.843,364.11
08.859,380.14
08.875,384.68
08.890,373.42
08.906,341.78
08.921,287.77
08.937,214.2
08.953,128.89
08.968,42.2
08.984,-36.68
09.000,-102.77
09.015,-156.14
09.031,-200.08
09.046,-238.13
09.062,-271.23
09.078,-297.13
09.093,-311.85
09.109,-312.5
09.125,-299.7
09.140,-278.63
09.156,-257.54
09.171,-244.88
09.187,-245.86
09.203,-259.58
09.218,-279.02
09.234,-293.48
09.250,-292.61
09.265,-270.59
09.281,-228.62
09.296,-173.98
09.312,-116.98
09.328,-67.22
09.343,-30.52
09.359,-8.27
09.375,1.67
09.390,3.29
09.406,1.21
09.421,-0.3
09.437,2.07
09.453,9.98
09.468,22.52
09.484,36.4
09.500,46.88
09.515,49.93
09.531,44.15
09.546,31.18
09.562,15.18
09.578,0.75
09.593,-8.76
09.609,-12.39
09.625,-11.18
09.640,-7.41
09.656,-3.08
09.671,1.15
09.687,5.63
09.703,11.23
09.718,18.47
09.734,27.38
09.750,37.99
09.765,51.52
09.781,70.7
09.796,99.11
09.812,139.75
09.828,192.61
09.843,253.52
09.859,314.75
09.875,367.28
09.890,403.8
09.906,420.78
09.921,418.83
09.937,401.04
09.953,370.91
09.968,329.96
09.984,277.15
10.000,209.99
10.015,126.83
10.031,29.57
10.046,-74.99
10.062,-176.17
10.078,-262.67
10.093,-326.23
10.109,-364.6
10.125,-381.58
10.140,-384.54
10.156,-380.83
10.171,-374.62
10.187,-365.81
10.203,-351.07
10.218,-326.23
10.234,-288.72
10.250,-239.42
10.265,-182.87
10.281,-126.12
10.296,-76.37
10.312,-38.46
10.328,-13.03
10.343,3.15
10.359,15.23
10.375,27.28
10.390,40.71
10.406,54.14
10.421,64.99
10.437,71.74
10.453,74.51
10.468,74.27
10.484,70.79
10.500,61.7
10.515,42.96
10.531,11.19
10.546,-33.99
10.562,-88.91
10.578,-146.42
10.593,-197.97
10.609,-235.79
10.625,-254.71
10.640,-252.82
10.656,-231.25
10.671,-193.27
10.687,-143.11
10.703,-84.63
10.718,-20.28
10.734,48.97
10.750,122.77
10.765,199.95
10.781,277.53
10.796,351.05
10.812,415.66
10.828,468.22
10.843,508.06
10.859,536.62
10.875,555.39
10.890,564.97
10.906,564.67
10.921,553.35
10.937,530.5
10.953,496.49
10.968,452.03
10.984,397.39
11.000,332.25
11.015,255.89
11.031,168.61
11.046,72.68
11.062,-27.61
11.078,-126.73
11.093,-219.01
11.109,-299.38
11.125,-363.65
11.140,-408.08
11.156,-429.57
11.171,-425.88
11.187,-396.69
11.203,-344.5
11.218,-274.68
11.234,-194.69
11.250,-112.25
11.265,-33.91
11.281,36.1
11.296,95.58
11.312,143.42
11.328,178.21
11.343,197.66
11.359,199.46
11.375,182.68
11.390,149.53
11.406,105.44
11.421,58.16
11.437,15.08
11.453,-19.12
11.468,-43.7
11.484,-61.4
11.500,-76.49
11.515,-92.97
11.531,-113.26
11.546,-138.0
11.562,-165.99
11.578,-194.32
11.593,-218.41
11.609,-232.47
11.625,-231.07
11.640,-211.46
11.656,-175.59
11.671,-130.1
11.687,-84.33
11.703,-46.46
11.718,-20.74
11.734,-6.6
11.750,-0.68
11.765,-0.14
11.781,-4.56
11.796,-15.54
11.812,-33.6
11.828,-55.45
11.843,-73.27
11.859,-77.28
11.875,-60.3
11.890,-21.52
11.906,32.38
11.921,90.22
11.937,141.07
11.953,178.73
11.968,202.83
11.984,216.64
12.000,223.24
12.015,222.83
12.031,212.66
12.046,190.23
12.062,156.91
12.078,119.3
12.093,87.14
12.109,68.65
12.125,66.19
12.140,74.56
12.156,83.04
12.171,80.0
12.187,57.62
12.203,14.81
12.218,-43.43
12.234,-108.65
12.250,-172.41
12.265,-228.53
12.281,-273.66
12.296,-306.96
12.312,-329.11
12.328,-341.8
12.343,-347.09
12.359,-346.79
12.375,-341.62
12.390,-330.78
12.406,-312.16
12.421,-283.45
12.437,-243.62
12.453,-193.98
12.468,-138.13
12.484,-81.22
12.500,-28.18
12.515,17.73
12.531,55.05
12.546,84.0
12.562,105.66
12.578,121.49
12.593,132.66
12.609,139.74
12.625,142.35
12.640,139.7
12.656,131.93
12.671,121.03
12.687,110.75
12.703,104.65
12.718,103.48
12.734,103.56
12.750,98.49
12.765,82.91
12.781,56.8
12.796,26.84
12.812,3.56
12.828,-4.14
12.843,6.08
12.859,28.78
12.875,54.04
12.890,73.18
12.906,83.46
12.921,88.91
12.937,97.31
12.953,115.48
12.968,145.8
12.984,185.31
13.000,227.76
13.015,266.62
13.031,297.13
13.046,316.64
13.062,323.28
13.078,314.8
13.093,288.4
13.109,242.6
13.125,179.2
13.140,104.69
13.156,29.42
13.171,-35.4
13.187,-81.56
13.203,-106.84
13.218,-115.17
13.234,-114.96
13.250,-115.09
13.265,-122.07
13.281,-138.26
13.296,-162.16
13.312,-189.77
13.328,-216.56
13.343,-238.66
13.359,-253.23
13.375,-258.46
13.390,-253.19
13.406,-237.23
13.421,-211.65
13.437,-178.85
13.453,-141.97
13.468,-103.72
13.484,-65.19
13.500,-25.5
13.515,16.95
13.531,62.6
13.546,108.71
13.562,149.36
13.578,177.07
13.593,185.94
13.609,174.55
13.625,147.19
13.640,112.9
13.656,81.95
13.671,62.05
13.687,55.03
13.703,56.55
13.718,58.22
13.734,51.6
13.750,32.02
13.765,0.5
13.781,-36.99
13.796,-72.17
13.812,-97.69
13.828,-109.15
13.843,-105.45
13.859,-88.36
13.875,-61.22
13.890,-28.61
13.906,4.06
13.921,31.27
13.937,48.73
13.953,55.04
13.968,53.07
13.984,49.63
14.000,53.53
14.015,72.63
14.031,111.28
14.046,168.66
14.062,239.24
14.078,314.72
14.093,386.31
14.109,446.89
14.125,491.54
14.140,517.14
14.156,521.67
14.171,503.86
14.187,463.77
14.203,403.65
14.218,328.33
14.234,244.34
14.250,158.03
14.265,73.61
14.281,-8.03
14.296,-87.76
14.312,-166.49
14.328,-242.99
14.343,-313.52
14.359,-372.98
14.375,-416.93
14.390,-442.81
14.406,-450.61
14.421,-442.45
14.437,-421.22
14.453,-390.1
14.468,-352.27
14.484,-311.48
14.500,-272.2
14.515,-238.74
14.531,-213.33
14.546,-194.66
14.562,-177.8
14.578,-155.89
14.593,-123.13
14.609,-77.44
14.625,-21.5
14.640,38.22
14.656,93.89
14.671,138.83
14.687,169.13
14.703,183.56
14.718,183.04
14.734,169.96
14.750,147.68
14.765,119.96
14.781,90.0
14.796,59.41
14.812,27.77
14.828,-6.47
14.843,-44.4
14.859,-85.07
14.875,-125.75
14.890,-162.66
14.906,-192.08
14.921,-210.83
14.937,-216.34
14.953,-206.58
14.968,-181.11
14.984,-142.68
15.000,-98.08
15.015,-57.37
15.031,-30.34
15.046,-22.02
15.062,-29.76
15.078,-43.62
15.093,-50.24
15.109,-38.36
15.125,-3.16
15.140,52.79
15.156,121.73
15.171,194.34
15.187,262.96
15.203,322.54
15.218,369.88
15.234,402.87
15.250,420.2
15.265,422.15
15.281,411.3
15.296,391.68
15.312,366.98
15.328,338.0
15.343,301.63
15.359,252.4
15.375,186.08
15.390,103.12
15.406,10.14
15.421,-81.58
15.437,-160.34
15.453,-218.08
15.468,-252.64
15.484,-267.56
15.500,-269.74
15.515,-266.74
15.531,-264.81
15.546,-267.64
15.562,-275.91
15.578,-287.48
15.593,-297.8
15.609,-301.11
15.625,-292.24
15.640,-268.48
15.656,-230.29
15.671,-181.01
15.687,-125.6
15.703,-69.0
15.718,-15.34
15.734,32.3
15.750,71.44
15.765,99.7
15.781,114.95
15.796,115.62
15.812,101.43
15.828,73.34
15.843,33.47
15.859,-15.26
15.875,-68.87
15.890,-122.02
15.906,-168.17
15.921,-200.51
15.937,-213.74
15.953,-206.11
15.968,-180.26
15.984,-142.11
16.000,-98.13
16.015,-52.5
16.031,-5.98
16.046,42.83
16.062,95.04
16.078,149.14
16.093,200.84
16.109,244.98
16.125,278.53
16.140,302.47
16.156,321.46
16.171,341.7
16.187,367.84
16.203,401.36
16.218,440.52
16.234,482.08
16.250,523.11
16.265,561.68
16.281,595.96
16.296,622.02
16.312,632.79
16.328,618.85
16.343,571.38
16.359,486.38
16.375,367.45
16.390,226.11
16.406,78.69
16.421,-58.29
16.437,-172.76
16.453,-258.94
16.468,-316.83
16.484,-349.6
16.500,-360.8
16.515,-352.84
16.531,-327.45
16.546,-286.81
16.562,-234.89
16.578,-177.79
16.593,-122.64
16.609,-76.45
16.625,-44.86
16.640,-31.24
16.656,-36.47
16.671,-58.61
16.687,-92.79
16.703,-131.54
16.718,-166.41
16.734,-190.13
16.750,-199.24
16.765,-195.64
16.781,-185.81
16.796,-178.25
16.812,-179.89
16.828,-193.62
16.843,-217.64
16.859,-247.5
16.875,-278.92
16.890,-309.77
16.906,-340.61
16.921,-373.0
16.937,-408.08
16.953,-445.17
16.968,-481.25
16.984,-511.15
17.000,-528.44
17.015,-526.36
17.031,-499.33
17.046,-444.5
17.062,-362.78
17.078,-260.19
17.093,-147.17
17.109,-36.75
17.125,58.8
17.140,131.52
17.156,180.33
17.171,211.02
17.187,233.44
17.203,257.45
17.218,288.99
17.234,328.69
17.250,373.02
17.265,416.81
17.281,455.56
17.296,485.97
17.312,505.24
17.328,509.56
17.343,494.53
17.359,457.13
17.375,398.48
17.390,324.83
17.406,245.81
17.421,170.65
17.437,104.64
17.453,47.91
17.468,-3.47
17.484,-54.1
17.500,-106.52
17.515,-159.6
17.531,-209.46
17.546,-251.14
17.562,-280.96
17.578,-297.79
17.593,-302.72
17.609,-298.42
17.625,-288.49
17.640,-277.27
17.656,-269.03
17.671,-266.95
17.687,-271.18
17.703,-277.82
17.718,-279.49
17.734,-267.82
17.750,-236.74
17.765,-185.08
17.781,-117.59
17.796,-43.63
17.812,25.88
17.828,81.49
17.843,117.12
17.859,130.75
17.875,123.85
17.890,100.39
17.906,65.88
17.921,26.04
17.937,-15.2
17.953,-56.06
17.968,-96.91
17.984,-139.14
18.000,-183.76
18.015,-230.29
18.031,-276.58
18.046,-318.47
18.062,-350.24
18.078,-366.14
18.093,-361.72
18.109,-335.45
18.125,-289.52
18.140,-229.32
18.156,-161.7
18.171,-92.84
18.187,-26.25
18.203,37.24
18.218,98.45
18.234,158.23
18.250,216.44
18.265,271.91
18.281,323.36
18.296,369.83
18.312,410.6
18.328,445.19
18.343,472.8
18.359,492.53
18.375,503.3
18.390,503.5
18.406,491.27
18.421,465.13
18.437,425.07
18.453,373.53
18.468,315.77
18.484,258.27
18.500,206.57
18.515,162.69
18.531,123.93
18.546,84.73
18.562,39.88
18.578,-11.98
18.593,-67.47
18.609,-120.05
18.625,-163.46
18.640,-194.53
18.656,-213.93
18.671,-225.13
18.687,-231.61
18.703,-235.25
18.718,-236.16
18.734,-233.86
18.750,-228.09
18.765,-219.03
18.781,-206.56
18.796,-189.54
18.812,-166.17
18.828,-134.97
18.843,-96.22
18.859,-52.49
18.875,-7.73
18.890,34.26
18.906,71.53
18.921,103.79
18.937,131.51
18.953,154.23
18.968,169.73
18.984,174.21
19.000,163.81
19.015,136.94
19.031,95.56
19.046,45.48
19.062,-5.28
19.078,-48.54
19.093,-78.38
19.109,-93.39
19.125,-96.99
19.140,-96.07
19.156,-97.79
19.171,-106.28
19.187,-121.23
19.203,-138.81
19.218,-154.42
19.234,-165.47
19.250,-172.23
19.265,-176.07
19.281,-176.45
19.296,-169.06
19.312,-147.0
19.328,-104.43
19.343,-40.46
19.359,39.0
19.375,122.79
19.390,198.8
19.406,258.51
19.421,299.29
19.437,323.94
19.453,337.38
19.468,343.21
19.484,342.23
19.500,332.98
19.515,313.42
19.531,282.94
19.546,243.0
19.562,196.35
19.578,146.1
19.593,94.72
19.609,43.61
19.625,-6.25
19.640,-53.33
19.656,-95.02
19.671,-127.53
19.687,-147.06
19.703,-151.4
19.718,-141.28
19.734,-121.07
19.750,-97.6
19.765,-77.69
19.781,-65.46
19.796,-60.34
19.812,-56.95
19.828,-47.87
19.843,-27.28
19.859,5.74
19.875,46.69
19.890,87.59
19.906,120.01
19.921,137.26
19.937,135.48
19.953,113.84
19.968,73.9
19.984,19.8
20.000,-41.74
20.015,-101.99
20.031,-152.1
20.046,-185.54
20.062,-200.62
20.078,-201.02
20.093,-193.3
20.109,-183.75
20.125,-175.26
20.140,-166.59
20.156,-154.42
20.171,-136.34
20.187,-113.33
20.203,-90.23
20.218,-74.0
20.234,-70.39
20.250,-81.7
20.265,-105.52
20.281,-135.83
20.296,-165.22
20.312,-186.47
20.328,-193.43
20.343,-180.73
20.359,-144.44
20.375,-82.75
20.390,2.35
20.406,104.22
20.421,212.45
20.437,314.78
20.453,400.48
20.468,462.75
20.484,500.18
20.500,515.98
20.515,515.86
20.531,504.93
20.546,485.47
20.562,456.18
20.578,413.26
20.593,353.23
20.609,275.49
20.625,183.82
20.640,85.8
20.656,-9.7
20.671,-95.25
20.687,-166.76
20.703,-223.29
20.718,-265.92
20.734,-295.94
20.750,-314.31
20.765,-322.06
20.781,-321.47
20.796,-316.45
20.812,-311.99
20.828,-311.74
20.843,-315.98
20.859,-320.83
20.875,-319.49
20.890,-305.38
20.906,-275.21
20.921,-230.72
20.937,-177.99
20.953,-124.66
20.968,-76.59
20.984,-36.11
21.000,-2.64
21.015,25.24
21.031,47.85
21.046,64.38
21.062,74.31
21.078,79.17
21.093,82.92
21.109,89.95
21.125,102.04
21.140,116.26
21.156,125.55
21.171,121.86
21.187,100.15
21.203,61.17
21.218,11.0
21.234,-41.56
21.250,-88.95
21.265,-127.07
21.281,-155.53
21.296,-176.13
21.312,-191.11
21.328,-201.93
21.343,-209.03
21.359,-211.93
21.375,-209.07
21.390,-198.14
21.406,-176.28
21.421,-141.06
21.437,-91.79
21.453,-30.53
21.468,38.18
21.484,108.59
21.500,175.36
21.515,234.72
21.531,284.57
21.546,323.94
21.562,352.24
21.578,368.75
21.593,372.55
21.609,363.1
21.625,340.76
21.640,307.6
21.656,267.76
21.671,227.05
21.687,191.26
21.703,164.33
21.718,146.36
21.734,133.44
21.750,119.09
21.765,97.16
21.781,64.58
21.796,22.56
21.812,-24.07
21.828,-69.38
21.843,-108.61
21.859,-139.79
21.875,-163.58
21.890,-182.41
21.906,-199.32
21.921,-217.12
21.937,-237.34
21.953,-259.5
21.968,-280.55
21.984,-294.92
22.000,-295.95
22.015,-278.12
22.031,-239.31
22.046,-181.95
22.062,-112.54
22.078,-39.74
22.093,27.75
22.109,83.02
22.125,121.84
22.140,142.65
22.156,146.13
22.171,134.92
22.187,113.28
22.203,86.28
22.218,58.82
22.234,34.29
22.250,13.63
22.265,-4.86
22.281,-24.56
22.296,-49.36
22.312,-81.82
22.328,-121.78
22.343,-166.13
22.359,-209.17
22.375,-244.02
22.390,-264.63
22.406,-267.41
22.421,-252.21
22.437,-222.18
22.453,-183.05
22.468,-141.7
22.484,-104.98
22.500,-77.74
22.515,-61.19
22.531,-52.19
22.546,-43.77
22.562,-27.35
22.578,4.03
22.593,52.83
22.609,115.89
22.625,185.79
22.640,253.9
22.656,313.69
22.671,362.36
22.687,400.4
22.703,429.43
22.718,449.92
22.734,460.33
22.750,457.88
22.765,440.36
22.781,407.56
22.796,361.64
22.812,306.27
22.828,245.38
22.843,181.93
22.859,117.64
22.875,53.51
22.890,-9.15
22.906,-67.94
22.921,-119.79
22.937,-161.52
22.953,-191.28
22.968,-209.34
22.984,-218.25
23.000,-222.33
23.015,-226.4
23.031,-234.8
23.046,-250.2
23.062,-272.38
23.078,-297.59
23.093,-318.96
23.109,-328.35
23.125,-318.93
23.140,-287.62
23.156,-236.19
23.171,-170.65
23.187,-99.4
23.203,-30.93
23.218,27.76
23.234,71.87
23.250,98.74
23.265,108.05
23.281,101.59
23.296,82.73
23.312,55.26
23.328,22.12
23.343,-15.05
23.359,-55.27
23.375,-96.39
23.390,-134.26
23.406,-162.99
23.421,-177.53
23.437,-176.33
23.453,-162.1
23.468,-140.25
23.484,-115.44
23.500,-89.33
23.515,-60.51
23.531,-27.13
23.546,9.96
23.562,46.29
23.578,75.6
23.593,93.8
23.609,101.84
23.625,105.95
23.640,114.41
23.656,133.21
23.671,163.19
23.687,199.74
23.703,235.49
23.718,263.9
23.734,281.93
23.750,290.13
23.765,291.28
23.781,287.91
23.796,280.86
23.812,269.31
23.828,251.89
23.843,228.37
23.859,200.27
23.875,170.61
23.890,142.3
23.906,116.63
23.921,92.4
23.937,66.37
23.953,35.09
23.968,-3.44
23.984,-48.27
24.000,-95.67
24.015,-140.78
24.031,-179.57
24.046,-210.56
24.062,-235.19
24.078,-256.67
24.093,-277.96
24.109,-299.88
24.125,-320.2
24.140,-334.09
24.156,-336.14
24.171,-322.53
24.187,-292.58
24.203,-249.16
24.218,-197.58
24.234,-143.7
24.250,-92.65
24.265,-47.95
24.281,-11.53
24.296,15.81
24.312,34.06
24.328,43.99
24.343,47.32
24.359,46.45
24.375,43.57
24.390,39.23
24.406,31.69
24.421,17.53
24.437,-6.14
24.453,-39.06
24.468,-76.58
24.484,-110.76
24.500,-133.37
24.515,-139.39
24.531,-128.95
24.546,-106.3
24.562,-77.21
24.578,-46.15
24.593,-15.33
24.609,14.08
24.625,39.99
24.640,59.0
24.656,67.84
24.671,66.38
24.687,59.27
24.703,55.2
24.718,63.42
24.734,89.65
24.750,133.68
24.765,189.86
24.781,250.06
24.796,307.1
24.812,356.69
24.828,396.73
24.843,425.32
24.859,439.11
24.875,433.47
24.890,404.86
24.906,353.26
24.921,283.27
24.937,203.01
24.953,121.25
24.968,44.52
24.984,-24.11
25.000,-84.51
25.015,-137.68
25.031,-184.2
25.046,-223.66
25.062,-255.36
25.078,-279.32
25.093,-296.83
25.109,-310.16
25.125,-321.18
25.140,-330.2
25.156,-335.43
25.171,-333.29
25.187,-319.74
25.203,-292.15
25.218,-250.6
25.234,-198.31
25.250,-140.78
25.265,-84.01
25.281,-32.73
25.296,10.47
25.312,44.79
25.328,70.16
25.343,86.22
25.359,92.52
25.375,89.24
25.390,78.09
25.406,62.67
25.421,47.28
25.437,35.12
25.453,26.48
25.468,18.11
25.484,4.81
25.500,-17.77
25.515,-50.04
25.531,-87.27
25.546,-120.73
25.562,-141.3
25.578,-143.34
25.593,-126.86
25.609,-97.31
25.625,-62.71
25.640,-30.24
25.656,-3.74
25.671,16.2
25.687,30.68
25.703,40.13
25.718,43.45
25.734,39.45
25.750,28.9
25.765,16.38
25.781,9.8
25.796,17.68
25.812,45.46
25.828,93.06
25.843,154.61
25.859,220.99
25.875,282.97
25.890,333.59
25.906,368.74
25.921,386.68
25.937,387.36
25.953,371.91
25.968,343.07
25.984,305.14
26.000,263.21
26.015,221.37
26.031,181.09
26.046,141.13
26.062,98.52
26.078,50.86
26.093,-2.42
26.109,-59.43
26.125,-116.38
26.140,-168.94
26.156,-213.28
26.171,-247.13
26.187,-269.93
26.203,-282.66
26.218,-287.55
26.234,-287.64
26.250,-286.4
26.265,-287.06
26.281,-291.61
26.296,-299.58
26.312,-307.46
26.328,-309.52
26.343,-299.71
26.359,-274.37
26.375,-234.04
26.390,-183.44
26.406,-129.46
26.421,-78.41
26.437,-33.53
26.453,5.03
26.468,38.33
26.484,66.05
26.500,85.18
26.515,90.39
26.531,76.1
26.546,39.5
26.562,-17.44
26.578,-86.94
26.593,-156.74
26.609,-212.94
26.625,-244.01
26.640,-243.93
26.656,-213.59
26.671,-159.66
26.687,-91.39
26.703,-17.31
26.718,56.69
26.734,126.9
26.750,190.4
26.765,243.62
26.781,282.88
26.796,306.18
26.812,315.1
26.828,314.92
26.843,312.79
26.859,314.47
26.875,321.75
26.890,331.95
26.906,339.59
26.921,339.17
26.937,327.72
26.953,305.71
26.968,276.2
26.984,243.08
27.000,209.34
27.015,176.47
27.031,144.57
27.046,113.12
27.062,81.93
27.078,51.32
27.093,22.06
27.109,-4.94
27.125,-29.14
27.140,-50.3
27.156,-68.58
27.171,-84.66
27.187,-99.88
27.203,-116.04
27.218,-134.99
27.234,-158.07
27.250,-185.2
27.265,-214.64
27.281,-242.95
27.296,-265.78
27.312,-278.66
27.328,-278.43
27.343,-263.78
27.359,-235.81
27.375,-197.83
27.390,-154.67
27.406,-111.79
27.421,-73.94
27.437,-44.27
27.453,-24.08
27.468,-13.31
27.484,-10.85
27.500,-14.95
27.515,-23.28
27.531,-32.84
27.546,-40.64
27.562,-44.5
27.578,-44.24
27.593,-41.97
27.609,-41.04
27.625,-43.83
27.640,-49.54
27.656,-53.38
27.671,-47.8
27.687,-25.98
27.703,14.53
27.718,69.55
27.734,128.97
27.750,180.08
27.765,211.92
27.781,218.64
27.796,200.39
27.812,161.8
27.828,109.44
27.843,50.03
27.859,-9.97
27.875,-63.59
27.890,-103.1
27.906,-121.13
27.921,-113.02
27.937,-78.93
27.953,-24.67
27.968,39.73
27.984,103.2
28.000,156.9
28.015,196.31
28.031,220.97
28.046,233.03
28.062,235.25
28.078,229.86
28.093,218.48
28.109,202.78
28.125,185.06
28.140,167.92
28.156,153.07
28.171,140.22
28.187,127.02
28.203,110.09
28.218,86.91
28.234,57.29
28.250,23.38
28.265,-11.55
28.281,-45.01
28.296,-76.54
28.312,-107.73
28.328,-140.81
28.343,-176.73
28.359,-213.78
28.375,-247.45
28.390,-271.72
28.406,-281.08
28.421,-272.46
28.437,-246.1
28.453,-205.69
28.468,-157.25
28.484,-107.72
28.500,-63.46
28.515,-28.88
28.531,-5.94
28.546,5.35
28.562,5.98
28.578,-2.28
28.593,-17.23
28.609,-36.14
28.625,-55.7
28.640,-72.73
28.656,-85.33
28.671,-93.89
28.687,-101.53
28.703,-112.98
28.718,-131.77
28.734,-157.36
28.750,-183.91
28.765,-201.66
28.781,-200.89
28.796,-176.07
28.812,-128.32
28.828,-64.9
28.843,4.12
28.859,69.58
28.875,125.55
28.890,169.3
28.906,199.74
28.921,215.92
28.937,216.96
28.953,203.37
28.968,178.16
28.984,147.18
29.000,117.44
29.015,94.62
29.031,81.46
29.046,77.33
29.062,79.09
29.078,83.15
29.093,86.8
29.109,89.02
29.125,90.05
29.140,90.19
29.156,88.71
29.171,84.12
29.187,74.91
29.203,61.01
29.218,44.94
29.234,31.5
29.250,26.08
29.265,32.35
29.281,50.07
29.296,74.76
29.312,99.43
29.328,117.06
29.343,123.02
29.359,115.84
29.375,96.6
29.390,67.38
29.406,30.51
29.421,-11.5
29.437,-55.44
29.453,-96.81
29.468,-130.78
29.484,-153.27
29.500,-162.14
29.515,-157.73
29.531,-142.14
29.546,-118.47
29.562,-90.1
29.578,-60.47
29.593,-32.94
29.609,-10.66
29.625,4.3
29.640,11.41
29.656,11.54
29.671,6.63
29.687,-1.38
29.703,-11.3
29.718,-22.94
29.734,-36.33
29.750,-51.52
29.765,-68.36
29.781,-86.82
29.796,-107.26
29.812,-129.65
29.828,-152.54
29.843,-172.4
29.859,-184.12
29.875,-182.85
29.890,-166.42
29.906,-136.62
29.921,-98.5
29.937,-58.35
29.953,-21.14
29.968,10.71
29.984,36.77
30.000,57.14
30.015,71.17
30.031,77.68
30.046,76.23
30.062,68.81
30.078,59.98
30.093,55.39
30.109,59.24
30.125,72.3
30.140,91.75
30.156,112.71
30.171,130.78
30.187,144.44
30.203,155.82
30.218,169.77
30.234,191.46
30.250,223.77
30.265,265.46
30.281,311.23
30.296,353.34
30.312,383.8
30.328,396.31
30.343,387.2
30.359,355.39
30.375,302.16
30.390,230.95
30.406,147.0
30.421,57.05
30.437,-31.26
30.453,-110.87
30.468,-176.56
30.484,-226.06
30.500,-260.29
30.515,-282.35
30.531,-295.61
30.546,-302.32
30.562,-302.56
30.578,-294.84
30.593,-277.5
30.609,-250.24
30.625,-214.92
30.640,-175.51
30.656,-137.02
30.671,-103.82
30.687,-78.53
30.703,-61.81
30.718,-52.86
30.734,-50.33
30.750,-52.7
30.765,-58.53
30.781,-66.04
30.796,-73.1
30.812,-77.61
30.828,-78.25
30.843,-75.29
30.859,-70.71
30.875,-67.32
30.890,-67.24
30.906,-70.75
30.921,-76.11
30.937,-80.36
30.953,-80.97
30.968,-77.28
30.984,-70.54
31.000,-62.93
31.015,-55.88
31.031,-48.88
31.046,-39.83
31.062,-26.66
31.078,-9.03
31.093,11.08
31.109,30.26
31.125,45.99
31.140,58.57
31.156,71.29
31.171,89.0
31.187,115.51
31.203,151.38
31.218,193.58
31.234,236.86
31.250,276.09
31.265,307.92
31.281,331.51
31.296,347.35
31.312,355.93
31.328,356.87
31.343,348.83
31.359,330.51
31.375,301.47
31.390,262.58
31.406,215.47
31.421,162.0
31.437,103.84
31.453,42.59
31.468,-19.78
31.484,-80.75
31.500,-137.43
31.515,-187.14
31.531,-228.3
31.546,-260.72
31.562,-285.31
31.578,-303.11
31.593,-314.12
31.609,-316.84
31.625,-308.98
31.640,-288.62
31.656,-255.92
31.671,-213.8
31.687,-167.29
31.703,-121.97
31.718,-82.37
31.734,-50.74
31.750,-27.06
31.765,-10.02
31.781,1.84
31.796,9.54
31.812,13.53
31.828,14.15
31.843,12.0
31.859,7.91
31.875,2.72
31.890,-3.42
31.906,-11.34
31.921,-22.59
31.937,-38.45
31.953,-58.55
31.968,-80.08
31.984,-97.99
32.000,-106.39
32.015,-100.49
32.031,-78.81
32.046,-44.13
32.062,-3.25
32.078,34.87
32.093,61.82
32.109,72.3
32.125,65.65
32.140,45.88
32.156,20.65
32.171,-1.35
32.187,-12.66
32.203,-9.49
32.218,7.69
32.234,34.91
32.250,66.89
32.265,99.29
32.281,129.52
32.296,156.8
32.312,181.33
32.328,203.62
32.343,223.76
32.359,241.08
32.375,253.69
32.390,258.09
32.406,249.63
32.421,223.68
32.437,177.78
32.453,113.84
32.468,38.96
32.484,-36.04
32.500,-100.14
32.515,-146.0
32.531,-172.39
32.546,-183.73
32.562,-187.62
32.578,-191.32
32.593,-198.91
32.609,-210.6
32.625,-223.42
32.640,-233.49
32.656,-237.44
32.671,-233.6
32.687,-221.63
32.703,-202.15
32.718,-175.58
32.734,-142.09
32.750,-101.79
32.765,-55.53
32.781,-5.94
32.796,42.53
32.812,84.48
32.828,115.58
32.843,134.24
32.859,142.47
32.875,144.63
32.890,145.36
32.906,147.15
32.921,149.6
32.937,150.36
32.953,146.95
32.968,138.67
32.984,126.63
33.000,112.7
33.015,98.29
33.031,84.16
33.046,71.22
33.062,61.19
33.078,56.24
33.093,57.56
33.109,63.94
33.125,71.7
33.140,75.82
33.156,72.13
33.171,58.62
33.187,35.88
33.203,6.28
33.218,-26.65
33.234,-58.65
33.250,-85.06
33.265,-101.28
33.281,-104.19
33.296,-93.32
33.312,-71.6
33.328,-44.23
33.343,-16.57
33.359,7.81
33.375,27.78
33.390,44.25
33.406,59.0
33.421,73.98
33.437,91.04
33.453,111.26
33.468,134.51
33.484,158.79
33.500,180.41
33.515,195.49
33.531,201.68
33.546,198.82
33.562,188.17
33.578,170.3
33.593,143.65
33.609,105.05
33.625,51.9
33.640,-15.29
33.656,-91.4
33.671,-167.76
33.687,-235.14
33.703,-286.97
33.718,-321.11
33.734,-339.43
33.750,-346.27
33.765,-346.57
33.781,-344.74
33.796,-343.56
33.812,-343.33
33.828,-341.37
33.843,-332.54
33.859,-311.01
33.875,-273.0
33.890,-218.91
33.906,-153.65
33.921,-84.91
33.937,-19.88
33.953,37.23
33.968,85.92
33.984,127.87
34.000,164.3
34.015,194.09
34.031,214.12
34.046,220.92
34.062,212.69
34.078,189.9
34.093,154.56
34.109,109.38
34.125,57.74
34.140,4.22
34.156,-45.13
34.171,-83.27
34.187,-103.89
34.203,-103.84
34.218,-84.66
34.234,-52.71
34.250,-17.42
34.265,11.65
34.281,27.47
34.296,27.26
34.312,12.93
34.328,-9.59
34.343,-32.12
34.359,-46.45
34.375,-46.48
34.390,-29.42
34.406,4.08
34.421,50.99
34.437,107.38
34.453,169.4
34.468,233.13
34.484,293.8
34.500,345.81
34.515,383.63
34.531,403.75
34.546,405.8
34.562,392.39
34.578,367.25
34.593,332.56
34.609,287.64
34.625,229.69
34.640,156.64
34.656,70.08
34.671,-23.33
34.687,-113.63
34.703,-190.93
34.718,-248.71
34.734,-285.45
34.750,-304.03
34.765,-309.51
34.781,-306.82
34.796,-299.76
34.812,-291.34
34.828,-284.69
34.843,-283.23
34.859,-289.56
34.875,-303.75
34.890,-321.86
34.906,-336.11
34.921,-337.28
34.937,-318.28
34.953,-277.28
34.968,-218.57
34.984,-150.83
35.000,-83.44
35.015,-23.07
35.031,28.09
35.046,71.24
35.062,108.55
35.078,140.97
35.093,167.71
35.109,187.15
35.125,198.14
35.140,200.29
35.156,193.45
35.171,176.94
35.187,149.56
35.203,110.49
35.218,60.74
35.234,4.2
35.250,-52.96
35.265,-103.74
35.281,-142.62
35.296,-167.1
35.312,-178.2
35.328,-179.53
35.343,-176.17
35.359,-173.41
35.375,-175.17
35.390,-182.85
35.406,-193.83
35.421,-201.58
35.437,-197.26
35.453,-173.04
35.468,-125.45
35.484,-57.24
35.500,23.29
35.515,105.39
35.531,179.44
35.546,239.62
35.562,284.1
35.578,313.67
35.593,329.74
35.609,333.73
35.625,327.32
35.640,313.15
35.656,294.83
35.671,275.39
35.687,255.53
35.703,232.51
35.718,201.32
35.734,157.08
35.750,98.1
35.765,27.19
35.781,-48.91
35.796,-121.92
35.812,-184.63
35.828,-232.25
35.843,-262.38
35.859,-274.31
35.875,-268.42
35.890,-246.38
35.906,-211.75
35.921,-169.96
35.937,-127.45
35.953,-90.05
35.968,-61.28
35.984,-41.58
36.000,-28.87
36.015,-19.56
36.031,-9.67
36.046,4.24
36.062,24.66
36.078,52.87
36.093,88.92
36.109,132.2
36.125,181.69
36.140,235.49
36.156,290.26
36.171,340.78
36.187,380.45
36.203,403.28
36.218,406.49
36.234,392.06
36.250,366.17
36.265,336.73
36.281,309.91
36.296,288.48
36.312,272.65
36.328,262.36
36.343,259.65
36.359,268.55
36.375,292.96
36.390,333.82
36.406,387.86
36.421,447.91
36.437,504.92
36.453,549.94
36.468,575.32
36.484,575.48
36.500,547.31
36.515,490.73
36.531,409.24
36.546,310.09
36.562,202.81
36.578,97.08
36.593,0.2
36.609,-84.63
36.625,-157.89
36.640,-222.48
36.656,-281.82
36.671,-337.69
36.687,-389.22
36.703,-432.6
36.718,-462.12
36.734,-472.12
36.750,-460.05
36.765,-428.2
36.781,-384.38
36.796,-340.3
36.812,-308.24
36.828,-297.34
36.843,-310.38
36.859,-343.03
36.875,-385.12
36.890,-424.11
36.906,-448.7
36.921,-451.6
36.937,-430.6
36.953,-388.22
36.968,-330.2
36.984,-263.89
37.000,-197.04
37.015,-137.15
37.031,-91.3
37.046,-65.14
37.062,-61.7
37.078,-79.79
37.093,-113.57
37.109,-153.33
37.125,-188.39
37.140,-210.48
37.156,-216.13
37.171,-207.39
37.187,-190.19
37.203,-171.52
37.218,-156.83
37.234,-148.56
37.250,-146.7
37.265,-150.45
37.281,-159.8
37.296,-175.86
37.312,-199.43
37.328,-229.42
37.343,-261.45
37.359,-288.57
37.375,-303.24
37.390,-299.6
37.406,-275.36
37.421,-232.01
37.437,-173.36
37.453,-103.26
37.468,-24.33
37.484,61.78
37.500,151.99
37.515,239.56
37.531,313.88
37.546,363.47
37.562,380.94
37.578,367.52
37.593,334.11
37.609,297.74
37.625,275.23
37.640,276.66
37.656,302.25
37.671,343.4
37.687,387.01
37.703,420.55
37.718,435.03
37.734,425.92
37.750,392.29
37.765,335.85
37.781,260.8
37.796,173.39
37.812,81.15
37.828,-9.01
37.843,-92.28
37.859,-166.71
37.875,-232.06
37.890,-288.47
37.906,-335.23
37.921,-370.76
37.937,-394.05
37.953,-405.57
37.968,-407.9
37.984,-404.66
38.000,-398.76
38.015,-390.49
38.031,-377.47
38.046,-355.68
38.062,-322.02
38.078,-276.9
38.093,-224.82
38.109,-173.38
38.125,-130.44
38.140,-101.15
38.156,-86.04
38.171,-81.25
38.187,-80.72
38.203,-78.7
38.218,-71.9
38.234,-59.68
38.250,-43.08
38.265,-23.43
38.281,-1.4
38.296,22.7
38.312,48.21
38.328,72.94
38.343,93.14
38.359,103.75
38.375,100.52
38.390,81.84
38.406,50.29
38.421,12.76
38.437,-21.44
38.453,-43.35
38.468,-46.72
38.484,-29.25
38.500,7.62
38.515,60.36
38.531,124.22
38.546,193.89
38.562,263.14
38.578,324.89
38.593,372.03
38.609,399.33
38.625,405.66
38.640,394.66
38.656,374.02
38.671,353.11
38.687,339.99
38.703,339.05
38.718,349.87
38.734,367.68
38.750,384.58
38.765,391.64
38.781,380.61
38.796,345.71
38.812,285.19
38.828,201.93
38.843,103.38
38.859,0.18
38.875,-96.15
38.890,-176.07
38.906,-234.48
38.921,-271.7
38.937,-292.75
38.953,-305.08
38.968,-315.52
38.984,-327.98
39.000,-342.76
39.015,-357.21
39.031,-367.77
39.046,-371.21
39.062,-365.17
39.078,-347.86
39.093,-317.78
39.109,-274.22
39.125,-218.27
39.140,-153.84
39.156,-87.46
39.171,-26.96
39.187,20.98
39.203,52.87
39.218,69.29
39.234,74.01
39.250,72.0
39.265,67.54
39.281,62.91
39.296,58.37
39.312,53.09
39.328,46.41
39.343,38.57
39.359,31.2
39.375,26.58
39.390,26.54
39.406,30.9
39.421,36.77
39.437,39.16
39.453,33.14
39.468,16.53
39.484,-8.97
39.500,-38.18
39.515,-64.91
39.531,-84.91
39.546,-96.98
39.562,-101.92
39.578,-99.76
39.593,-87.89
39.609,-61.64
39.625,-17.78
39.640,41.63
39.656,107.65
39.671,166.83
39.687,207.03
39.703,222.83
39.718,217.95
39.734,203.08
39.750,190.51
39.765,189.06
39.781,201.69
39.796,226.07
39.812,257.29
39.828,289.84
39.843,318.09
39.859,335.67
39.875,335.76
39.890,312.62
39.906,264.64
39.921,196.46
39.937,118.05
39.953,41.61
39.968,-23.12
39.984,-72.11
40.000,-107.16
40.015,-133.08
40.031,-154.58
40.046,-173.83
40.062,-190.31
40.078,-202.7
40.093,-210.54
40.109,-215.11
40.125,-218.87
40.140,-224.33
40.156,-233.13
40.171,-245.98
40.187,-262.51
40.203,-280.84
40.218,-297.42
40.234,-306.65
40.250,-302.49
40.265,-280.56
40.281,-240.02
40.296,-184.29
40.312,-119.77
40.328,-53.61
40.343,8.74
40.359,63.84
40.375,110.06
40.390,145.83
40.406,169.03
40.421,177.48
40.437,169.73
40.453,146.37
40.468,110.17
40.484,65.69
40.500,18.13
40.515,-27.22
40.531,-65.85
40.546,-94.58
40.562,-112.09
40.578,-119.7
40.593,-120.89
40.609,-120.11
40.625,-120.51
40.640,-122.38
40.656,-122.88
40.671,-117.95
40.687,-105.11
40.703,-85.06
40.718,-61.73
40.734,-39.42
40.750,-20.01
40.765,-1.5
40.781,20.71
40.796,50.92
40.812,89.88
40.828,133.68
40.843,175.87
40.859,210.4
40.875,234.59
40.890,249.53
40.906,258.46
40.921,264.2
40.937,267.61
40.953,267.52
40.968,261.73
40.984,248.46
41.000,226.93
41.015,197.74
41.031,162.62
41.046,124.05
41.062,84.63
41.078,46.22
41.093,9.33
41.109,-27.06
41.125,-64.59
41.140,-104.14
41.156,-144.63
41.171,-182.67
41.187,-213.33
41.203,-231.88
41.218,-235.53
41.234,-224.19
41.250,-200.43
41.265,-168.24
41.281,-131.65
41.296,-93.92
41.312,-57.41
41.328,-23.75
41.343,5.73
41.359,29.84
41.375,47.64
41.390,58.49
41.406,62.43
41.421,60.31
41.437,53.93
41.453,45.47
41.468,36.99
41.484,29.19
41.500,20.68
41.515,7.85
41.531,-13.82
41.546,-47.09
41.562,-90.56
41.578,-137.33
41.593,-176.72
41.609,-198.11
41.625,-195.42
41.640,-169.5
41.656,-127.45
41.671,-79.26
41.687,-33.59
41.703,4.52
41.718,33.77
41.734,54.5
41.750,67.0
41.765,70.86
41.781,65.97
41.796,53.96
41.812,38.33
41.828,23.66
41.843,13.55
41.859,9.59
41.875,11.18
41.890,16.68
41.906,24.88
41.921,35.63
41.937,50.05
41.953,69.49
41.968,94.59
41.984,124.37
42.000,155.84
42.015,184.36
42.031,204.9
42.046,213.44
42.062,207.86
42.078,188.42
42.093,157.25
42.109,117.56
42.125,73.01
42.140,27.19
42.156,-16.64
42.171,-55.53
42.187,-87.44
42.203,-111.84
42.218,-129.6
42.234,-142.62
42.250,-152.46
42.265,-159.13
42.281,-160.73
42.296,-154.16
42.312,-136.9
42.328,-108.5
42.343,-71.61
42.359,-31.24
42.375,6.59
42.390,36.89
42.406,57.15
42.421,67.57
42.437,70.29
42.453,68.03
42.468,62.86
42.484,55.61
42.500,46.43
42.515,35.14
42.531,21.74
42.546,6.34
42.562,-10.96
42.578,-30.01
42.593,-49.77
42.609,-67.18
42.625,-76.89
42.640,-72.46
42.656,-49.63
42.671,-9.47
42.687,39.87
42.703,85.02
42.718,112.19
42.734,112.94
42.750,87.94
42.765,46.61
42.781,2.71
42.796,-31.65
42.812,-50.23
42.828,-53.48
42.843,-45.78
42.859,-31.53
42.875,-12.6
42.890,11.81
42.906,43.48
42.921,82.87
42.937,128.21
42.953,176.22
42.968,223.68
42.984,268.38
43.000,309.22
43.015,345.0
43.031,372.99
43.046,388.47
43.062,385.79
43.078,360.53
43.093,311.55
43.109,242.21
43.125,159.67
43.140,73.15
43.156,-8.84
43.171,-80.54
43.187,-140.04
43.203,-188.45
43.218,-228.29
43.234,-261.71
43.250,-289.51
43.265,-311.21
43.281,-325.69
43.296,-332.18
43.312,-330.31
43.328,-319.69
43.343,-299.51
43.359,-268.56
43.375,-226.19
43.390,-173.68
43.406,-114.95
43.421,-55.94
43.437,-2.87
43.453,39.85
43.468,71.02
43.484,92.26
43.500,106.39
43.515,115.61
43.531,120.49
43.546,120.56
43.562,115.82
43.578,107.94
43.593,100.52
43.609,97.79
43.625,102.22
43.640,112.29
43.656,122.1
43.671,123.53
43.687,109.95
43.703,79.83
43.718,38.08
43.734,-5.79
43.750,-41.78
43.765,-63.62
43.781,-70.66
43.796,-66.55
43.812,-55.85
43.828,-41.29
43.843,-23.13
43.859,-1.16
43.875,22.76
43.890,43.95
43.906,56.78
43.921,58.31
43.937,50.78
43.953,41.39
43.968,38.72
43.984,48.61
44.000,71.53
44.015,103.05
44.031,136.88
44.046,167.98
44.062,194.46
44.078,216.31
44.093,233.33
44.109,243.14
44.125,241.39
44.140,223.75
44.156,188.19
44.171,136.59
44.187,74.04
44.203,7.08
44.218,-58.74
44.234,-120.19
44.250,-176.31
44.265,-227.28
44.281,-273.09
44.296,-313.14
44.312,-346.13
44.328,-370.83
44.343,-386.24
44.359,-391.48
44.375,-385.66
44.390,-367.97
44.406,-338.34
44.421,-297.96
44.437,-249.67
44.453,-197.2
44.468,-144.5
44.484,-94.74
44.500,-49.97
44.515,-11.12
44.531,21.8
44.546,49.23
44.562,72.08
44.578,91.03
44.593,106.16
44.609,116.83
44.625,121.85
44.640,120.58
44.656,113.75
44.671,103.86
44.687,94.18
44.703,87.23
44.718,83.21
44.734,79.96
44.750,74.3
44.765,64.07
44.781,49.79
44.796,34.18
44.812,20.41
44.828,10.05
44.843,1.87
44.859,-7.35
44.875,-20.62
44.890,-38.73
44.906,-59.69
44.921,-79.61
44.937,-94.65
44.953,-102.46
44.968,-102.01
44.984,-92.51
45.000,-72.17
45.015,-38.13
45.031,12.41
45.046,79.97
45.062,161.7
45.078,251.47
45.093,341.0
45.109,421.82
45.125,486.38
45.140,528.14
45.156,541.49
45.171,522.6
45.187,470.64
45.203,389.82
45.218,289.88
45.234,184.53
45.250,87.74
45.265,9.16
45.281,-48.78
45.296,-90.64
45.312,-124.79
45.328,-158.82
45.343,-196.07
45.359,-235.04
45.375,-271.15
45.390,-299.71
45.406,-318.55
45.421,-328.58
45.437,-332.59
45.453,-333.78
45.468,-334.81
45.484,-337.55
45.500,-343.11
45.515,-351.37
45.531,-359.97
45.546,-364.06
45.562,-357.16
45.578,-333.39
45.593,-290.05
45.609,-228.9
45.625,-155.48
45.640,-77.29
45.656,-1.68
45.671,65.64
45.687,120.56
45.703,160.6
45.718,184.77
45.734,193.95
45.750,191.15
45.765,180.77
45.781,166.85
45.796,151.26
45.812,133.67
45.828,112.51
45.843,87.49
45.859,60.63
45.875,35.72
45.890,16.03
45.906,2.02
45.921,-9.4
45.937,-23.13
45.953,-42.45
45.968,-66.7
45.984,-91.03
46.000,-108.94
46.015,-115.73
46.031,-110.52
46.046,-95.47
46.062,-72.72
46.078,-41.59
46.093,1.84
46.109,62.28
46.125,141.47
46.140,235.5
46.156,334.87
46.171,427.91
46.187,504.46
46.203,558.38
46.218,586.92
46.234,588.4
46.250,560.55
46.265,500.84
46.281,409.24
46.296,290.67
46.312,155.94
46.328,19.44
46.343,-105.09
46.359,-208.18
46.375,-286.34
46.390,-340.88
46.406,-375.64
46.421,-394.27
46.437,-399.75
46.453,-394.52
46.468,-381.36
46.484,-363.95
46.500,-345.95
46.515,-329.78
46.531,-315.61
46.546,-301.26
46.562,-283.07
46.578,-257.38
46.593,-221.85
46.609,-176.38
46.625,-123.44
46.640,-67.32
46.656,-13.17
46.671,34.19
46.687,71.21
46.703,96.16
46.718,109.27
46.734,112.44
46.750,108.8
46.765,101.69
46.781,94.11
46.796,88.0
46.812,83.77
46.828,80.46
46.843,75.79
46.859,67.1
46.875,52.34
46.890,31.23
46.906,5.61
46.921,-21.15
46.937,-45.46
46.953,-65.6
46.968,-82.15
46.984,-97.78
47.000,-115.14
47.015,-134.78
47.031,-154.43
47.046,-169.78
47.062,-176.8
47.078,-173.72
47.093,-161.33
47.109,-140.98
47.125,-112.76
47.140,-74.08
47.156,-20.9
47.171,49.25
47.187,134.53
47.203,227.51
47.218,317.18
47.234,392.36
47.250,445.93
47.265,476.36
47.281,486.52
47.296,480.11
47.312,458.45
47.328,419.63
47.343,359.8
47.359,277.02
47.375,174.01
47.390,59.27
47.406,-54.67
47.421,-154.96
47.437,-232.49
47.453,-284.63
47.468,-314.71
47.484,-329.58
47.500,-336.0
47.515,-338.26
47.531,-337.57
47.546,-332.56
47.562,-320.49
47.578,-298.26
47.593,-263.15
47.609,-213.36
47.625,-148.98
47.640,-72.2
47.656,11.79
47.671,95.01
47.687,168.31
47.703,224.1
47.718,258.01
47.734,269.7
47.750,262.19
47.765,240.02
47.781,208.98
47.796,173.54
47.812,136.34
47.828,98.75
47.843,62.75
47.859,30.63
47.875,4.2
47.890,-17.0
47.906,-36.8
47.921,-58.19
47.937,-83.02
47.953,-109.72
47.968,-133.38
47.984,-147.1
48.000,-147.14
48.015,-135.04
48.031,-117.55
48.046,-102.33
48.062,-88.85
48.078,-71.25
48.093,-40.86
48.109,8.1
48.125,76.18
48.140,156.63
48.156,239.74
48.171,315.34
48.187,377.09
48.203,428.47
48.218,473.67
48.234,515.39
48.250,537.84
48.265,525.21
48.281,469.27
48.296,376.55
48.312,272.28
48.328,160.74
48.343,41.47
48.359,-90.95
48.375,-238.64
48.390,-395.25
48.406,-547.4
48.421,-680.37
48.437,-781.11
48.453,-846.24
48.468,-879.83
48.484,-860.81
48.500,-780.65
48.515,-647.54
48.531,-484.85
48.546,-318.44
48.562,-179.47
48.578,-65.42
48.593,28.73
48.609,105.19
48.625,168.24
48.640,218.29
48.656,255.83
48.671,284.14
48.687,309.63
48.703,338.59
48.718,376.03
48.734,418.58
48.750,457.67
48.765,484.77
48.781,488.96
48.796,462.2
48.812,402.05
48.828,312.97
48.843,204.91
48.859,92.37
48.875,-12.79
48.890,-101.93
48.906,-169.75
48.921,-217.68
48.937,-251.01
48.953,-275.67
48.968,-295.89
48.984,-312.88
49.000,-324.8
49.015,-330.79
49.031,-330.97
49.046,-325.42
49.062,-314.3
49.078,-295.83
49.093,-266.41
49.109,-223.68
49.125,-169.84
49.140,-113.19
49.156,-66.94
49.171,-42.21
49.187,-41.69
49.203,-57.49
49.218,-73.65
49.234,-73.05
49.250,-45.79
49.265,6.84
49.281,73.72
49.296,139.04
49.312,189.28
49.328,217.51
49.343,223.42
49.359,210.69
49.375,184.3
49.390,148.31
49.406,106.32
49.421,62.54
49.437,22.75
49.453,-5.96
49.468,-16.82
49.484,-5.59
49.500,27.63
49.515,77.42
49.531,132.97
49.546,180.55
49.562,206.87
49.578,203.01
49.593,167.56
49.609,106.81
49.625,32.46
49.640,-42.65
49.656,-108.49
49.671,-160.19
49.687,-197.22
49.703,-221.44
49.718,-235.05
49.734,-239.8
49.750,-237.91
49.765,-232.81
49.781,-228.67
49.796,-228.37
49.812,-231.21
49.828,-231.75
49.843,-221.6
49.859,-193.19
49.875,-143.42
49.890,-75.95
49.906,0.01
49.921,73.13
49.937,133.94
49.953,177.3
49.968,203.17
49.984,215.06
50.000,218.06
50.015,217.42
50.031,217.21
50.046,220.04
50.062,226.27
50.078,233.9
50.093,238.6
50.109,234.88
50.125,217.64
50.140,183.99
50.156,135.09
50.171,76.37
50.187,17.06
50.203,-32.23
50.218,-62.35
50.234,-68.49
50.250,-51.33
50.265,-16.17
50.281,29.53
50.296,79.05
50.312,127.57
50.328,172.11
50.343,209.94
50.359,237.57
50.375,250.77
50.390,246.15
50.406,222.99
50.421,184.45
50.437,137.34
50.453,89.96
50.468,49.99
50.484,22.74
50.500,10.58
50.515,12.94
50.531,26.55
50.546,45.71
50.562,62.93
50.578,70.47
50.593,62.19
50.609,35.38
50.625,-8.61
50.640,-64.94
50.656,-126.68
50.671,-186.88
50.687,-239.96
50.703,-282.49
50.718,-313.35
50.734,-333.6
50.750,-346.12
50.765,-354.28
50.781,-360.5
50.796,-364.39
50.812,-362.55
50.828,-349.84
50.843,-322.15
50.859,-278.65
50.875,-222.47
50.890,-159.19
50.906,-94.35
50.921,-31.98
50.937,25.41
50.953,75.37
50.968,114.44
50.984,138.58
51.000,145.34
51.015,135.92
51.031,115.66
51.046,92.18
51.062,72.51
51.078,60.97
51.093,58.95
51.109,65.73
51.125,79.1
51.140,95.23
51.156,108.43
51.171,111.86
51.187,99.97
51.203,71.47
51.218,30.72
51.234,-13.41
51.250,-51.47
51.265,-77.15
51.281,-89.15
51.296,-89.94
51.312,-82.76
51.328,-69.4
51.343,-49.86
51.359,-23.91
51.375,7.26
51.390,40.39
51.406,71.63
51.421,98.09
51.437,119.14
51.453,136.15
51.468,151.34
51.484,166.3
51.500,181.1
51.515,194.46
51.531,204.59
51.546,210.5
51.562,212.85
51.578,213.93
51.593,216.67
51.609,222.92
51.625,231.81
51.640,239.06
51.656,238.07
51.671,222.15
51.687,187.11
51.703,133.11
51.718,64.57
51.734,-11.11
51.750,-85.83
51.765,-152.82
51.781,-207.72
51.796,-248.83
51.812,-276.44
51.828,-292.21
51.843,-298.49
51.859,-297.68
51.875,-291.53
51.890,-280.88
51.906,-265.61
51.921,-245.15
51.937,-219.36
51.953,-188.9
51.968,-155.5
51.984,-121.6
52.000,-90.09
52.015,-63.62
52.031,-44.32
52.046,-33.39
52.062,-30.73
52.078,-34.94
52.093,-43.58
52.109,-53.87
52.125,-63.32
52.140,-70.16
52.156,-73.01
52.171,-70.58
52.187,-61.41
52.203,-44.14
52.218,-18.59
52.234,13.44
52.250,48.37
52.265,81.95
52.281,110.8
52.296,133.59
52.312,150.76
52.328,163.11
52.343,170.25
52.359,169.92
52.375,158.77
52.390,134.45
52.406,98.08
52.421,55.21
52.437,14.72
52.453,-13.99
52.468,-24.22
52.484,-13.82
52.500,14.93
52.515,57.32
52.531,108.25
52.546,163.63
52.562,220.7
52.578,277.27
52.593,331.16
52.609,379.83
52.625,420.71
52.640,451.22
52.656,469.22
52.671,472.72
52.687,459.94
52.703,430.03
52.718,383.93
52.734,324.74
52.750,257.34
52.765,187.57
52.781,120.7
52.796,61.09
52.812,12.01
52.828,-24.15
52.843,-46.09
52.859,-54.32
52.875,-51.91
52.890,-44.84
52.906,-40.72
52.921,-46.97
52.937,-68.53
52.953,-106.22
52.968,-156.39
52.984,-212.08
53.000,-265.36
53.015,-309.42
53.031,-340.4
53.046,-357.77
53.062,-363.97
53.078,-363.33
53.093,-360.78
53.109,-360.98
53.125,-367.36
53.140,-381.37
53.156,-401.77
53.171,-424.14
53.187,-441.83
53.203,-448.01
53.218,-438.64
53.234,-414.48
53.250,-381.6
53.265,-349.09
53.281,-325.32
53.296,-314.26
53.312,-313.88
53.328,-317.23
53.343,-315.7
53.359,-302.64
53.375,-275.67
53.390,-236.82
53.406,-190.55
53.421,-141.24
53.437,-91.43
53.453,-41.84
53.468,7.6
53.484,56.33
53.500,102.82
53.515,145.33
53.531,182.99
53.546,216.92
53.562,249.95
53.578,285.09
53.593,323.63
53.609,364.32
53.625,403.62
53.640,437.53
53.656,462.89
53.671,477.84
53.687,481.34
53.703,472.57
53.718,450.87
53.734,416.71
53.750,372.81
53.765,323.84
53.781,275.06
53.796,229.9
53.812,188.27
53.828,146.86
53.843,101.47
53.859,50.04
53.875,-5.4
53.890,-59.09
53.906,-104.11
53.921,-135.71
53.937,-153.43
53.953,-161.3
53.968,-165.23
53.984,-169.88
54.000,-175.97
54.015,-179.54
54.031,-173.89
54.046,-153.0
54.062,-114.78
54.078,-62.38
54.093,-3.06
54.109,55.04
54.125,105.61
54.140,145.35
54.156,173.07
54.171,187.6
54.187,186.83
54.203,168.83
54.218,134.06
54.234,87.16
54.250,36.45
54.265,-9.6
54.281,-46.36
54.296,-74.82
54.312,-100.1
54.328,-127.36
54.343,-157.75
54.359,-187.12
54.375,-207.96
54.390,-212.95
54.406,-198.64
54.421,-167.11
54.437,-125.25
54.453,-82.75
54.468,-49.5
54.484,-33.21
54.500,-37.68
54.515,-61.33
54.531,-96.94
54.546,-132.68
54.562,-155.21
54.578,-153.41
54.593,-121.98
54.609,-62.65
54.625,17.08
54.640,106.85
54.656,196.76
54.671,279.07
54.687,348.64
54.703,401.94
54.718,436.28
54.734,449.54
54.750,441.2
54.765,413.86
54.781,373.42
54.796,328.07
54.812,285.33
54.828,249.01
54.843,217.82
54.859,186.42
54.875,148.08
54.890,98.43
54.906,37.63
54.921,-29.68
54.937,-96.36
54.953,-155.55
54.968,-202.93
54.984,-237.56
55.000,-261.19
55.015,-277.1
55.031,-288.78
55.046,-299.02
55.062,-309.46
55.078,-320.32
55.093,-330.12
55.109,-335.88
55.125,-333.74
55.140,-320.37
55.156,-294.61
55.171,-258.53
55.187,-216.99
55.203,-175.87
55.218,-140.0
55.234,-111.37
55.250,-89.09
55.265,-70.38
55.281,-52.71
55.296,-35.14
55.312,-18.47
55.328,-4.34
55.343,6.03
55.359,11.72
55.375,11.6
55.390,3.52
55.406,-14.58
55.421,-42.64
55.437,-76.33
55.453,-106.95
55.468,-124.43
55.484,-122.26
55.500,-101.27
55.515,-69.76
55.531,-39.37
55.546,-18.85
55.562,-9.76
55.578,-6.77
55.593,-1.91
55.609,9.78
55.625,27.47
55.640,45.91
55.656,59.92
55.671,68.6
55.687,76.08
55.703,89.24
55.718,113.43
55.734,149.75
55.750,194.77
55.765,243.04
55.781,290.26
55.796,334.76
55.812,377.33
55.828,419.12
55.843,459.81
55.859,496.28
55.875,523.16
55.890,534.08
55.906,523.28
55.921,487.17
55.937,424.99
55.953,339.03
55.968,234.14
55.984,117.09
56.000,-4.49
56.015,-122.79
56.031,-230.6
56.046,-321.88
56.062,-392.05
56.078,-438.78
56.093,-462.26
56.109,-464.98
56.125,-450.7
56.140,-423.13
56.156,-384.85
56.171,-337.41
56.187,-282.31
56.203,-221.96
56.218,-160.28
56.234,-102.24
56.250,-52.59
56.265,-14.4
56.281,11.63
56.296,26.94
56.312,33.67
56.328,33.64
56.343,28.0
56.359,17.64
56.375,3.93
56.390,-10.82
56.406,-23.58
56.421,-31.9
56.437,-35.11
56.453,-35.07
56.468,-35.63
56.484,-40.61
56.500,-51.52
56.515,-66.15
56.531,-79.23
56.546,-85.25
56.562,-81.58
56.578,-70.39
56.593,-57.92
56.609,-51.19
56.625,-54.15
56.640,-65.61
56.656,-79.58
56.671,-88.24
56.687,-85.89
56.703,-70.91
56.718,-45.27
56.734,-12.22
56.750,26.34
56.765,71.28
56.781,125.27
56.796,190.71
56.812,267.59
56.828,352.35
56.843,438.14
56.859,516.16
56.875,577.15
56.890,612.34
56.906,614.44
56.921,578.57
56.937,503.61
56.953,393.86
56.968,259.86
56.984,117.18
57.000,-16.98
57.015,-128.35
57.031,-209.53
57.046,-261.06
57.062,-289.65
57.078,-304.09
57.093,-311.49
57.109,-315.34
57.125,-316.06
57.140,-313.21
57.156,-307.18
57.171,-299.43
57.187,-291.19
57.203,-282.02
57.218,-268.98
57.234,-247.73
57.250,-214.92
57.265,-170.24
57.281,-117.29
57.296,-62.44
57.312,-12.77
57.328,26.47
57.343,53.05
57.359,67.82
57.375,73.64
57.390,73.74
57.406,70.52
57.421,64.99
57.437,57.29
57.453,47.2
57.468,35.07
57.484,22.06
57.500,9.9
57.515,0.25
57.531,-6.07
57.546,-8.99
57.562,-9.27
57.578,-7.86
57.593,-6.07
57.609,-5.81
57.625,-9.84
57.640,-21.68
57.656,-44.18
57.671,-77.1
57.687,-115.4
57.703,-149.28
57.718,-166.52
57.734,-157.04
57.750,-117.02
57.765,-50.66
57.781,31.02
57.796,113.91
57.812,185.24
57.828,236.63
57.843,264.86
57.859,271.1
57.875,259.18
57.890,233.87
57.906,200.41
57.921,163.91
57.937,129.2
57.953,100.47
57.968,80.7
57.984,71.38
58.000,72.34
58.015,81.65
58.031,95.66
58.046,109.88
58.062,119.85
58.078,122.26
58.093,115.73
58.109,100.46
58.125,77.62
58.140,48.5
58.156,13.95
58.171,-25.24
58.187,-67.69
58.203,-111.21
58.218,-153.08
58.234,-190.85
58.250,-223.4
58.265,-250.97
58.281,-274.1
58.296,-292.92
58.312,-306.01
58.328,-310.74
58.343,-304.32
58.359,-285.04
58.375,-252.77
58.390,-209.14
58.406,-156.89
58.421,-99.03
58.437,-38.93
58.453,19.74
58.468,72.86
58.484,116.15
58.500,146.04
58.515,160.7
58.531,160.77
58.546,149.17
58.562,130.5
58.578,109.39
58.593,89.46
58.609,72.28
58.625,57.09
58.640,41.08
58.656,20.15
58.671,-9.46
58.687,-49.31
58.703,-96.96
58.718,-146.03
58.734,-187.54
58.750,-213.21
58.765,-218.83
58.781,-205.71
58.796,-179.88
58.812,-148.96
58.828,-118.85
58.843,-91.72
58.859,-66.67
58.875,-41.65
58.890,-15.42
58.906,11.78
58.921,39.63
58.937,69.23
58.953,103.81
58.968,147.32
58.984,201.83
59.000,265.33
59.015,331.35
59.031,390.74
59.046,434.43
59.062,456.55
59.078,455.47
59.093,433.28
59.109,394.49
59.125,344.8
59.140,290.62
59.156,238.57
59.171,194.53
59.187,161.97
59.203,140.45
59.218,124.89
59.234,106.72
59.250,77.15
59.265,30.6
59.281,-32.47
59.296,-105.55
59.312,-178.5
59.328,-241.18
59.343,-286.55
59.359,-312.34
59.375,-320.47
59.390,-315.45
59.406,-303.02
59.421,-288.96
59.437,-278.68
59.453,-276.2
59.468,-282.74
59.484,-295.24
59.500,-306.45
59.515,-307.18
59.531,-290.31
59.546,-254.77
59.562,-206.36
59.578,-155.15
59.593,-110.48
59.609,-76.81
59.625,-52.18
59.640,-30.56
59.656,-5.83
59.671,24.61
59.687,59.13
59.703,93.49
59.718,123.17
59.734,144.72
59.750,155.53
59.765,153.25
59.781,136.27
59.796,105.28
59.812,64.4
59.828,20.77
59.843,-17.95
59.859,-46.97
59.875,-65.71
59.890,-76.62
59.906,-81.92
59.921,-81.02
59.937,-70.52
59.953,-47.02
59.968,-10.57
59.984,33.82
