timestamp,value
00.000,-1.9
00.015,-2.99
00.031,-2.05
00.046,0.36
00.062,2.7
00.078,3.46
00.093,1.98
00.109,-1.11
00.125,-4.21
00.140,-5.71
00.156,-4.87
00.171,-2.23
00.187,0.7
00.203,2.34
00.218,1.96
00.234,0.09
00.250,-1.9
00.265,-2.61
00.281,-1.45
00.296,0.96
00.312,3.22
00.328,4.01
00.343,2.78
00.359,0.22
00.375,-2.22
00.390,-3.15
00.406,-2.05
00.421,0.42
00.437,2.77
00.453,3.6
00.468,2.37
00.484,-0.26
00.500,-2.82
00.515,-3.91
00.531,-3.04
00.546,-0.84
00.562,1.23
00.578,1.93
00.593,0.84
00.609,-1.25
00.625,-2.88
00.640,-2.78
00.656,-0.61
00.671,2.75
00.687,5.71
00.703,6.82
00.718,5.58
00.734,2.72
00.750,-0.22
00.765,-1.82
00.781,-1.52
00.796,0.05
00.812,1.51
00.828,1.55
00.843,-0.27
00.859,-3.22
00.875,-5.87
00.890,-6.86
00.906,-5.77
00.921,-3.28
00.937,-0.89
00.953,0.1
00.968,-0.8
00.984,-2.87
01.000,-4.67
01.015,-4.94
01.031,-3.18
01.046,-0.11
01.062,2.82
01.078,4.24
01.093,3.64
01.109,1.68
01.125,-0.21
01.140,-0.67
01.156,0.76
01.171,3.38
01.187,5.7
01.203,6.32
01.218,4.76
01.234,1.82
01.250,-0.96
01.265,-2.14
01.281,-1.25
01.296,0.86
01.312,2.65
01.328,2.78
01.343,0.91
01.359,-2.0
01.375,-4.33
01.390,-4.71
01.406,-2.83
01.421,0.34
01.437,3.09
01.453,4.0
01.468,2.63
01.484,-0.19
01.500,-2.91
01.515,-4.17
01.531,-3.51
01.546,-1.62
01.562,0.15
01.578,0.66
01.593,-0.38
01.609,-2.16
01.625,-3.33
01.640,-2.79
01.656,-0.43
01.671,2.73
01.687,5.14
01.703,5.59
01.718,3.93
01.734,1.2
01.750,-0.97
01.765,-1.33
01.781,0.31
01.796,2.81
01.812,4.5
01.828,4.08
01.843,1.46
01.859,-2.14
01.875,-4.87
01.890,-5.31
01.906,-3.27
01.921,0.1
01.937,2.98
01.953,3.9
01.968,2.58
01.984,0.06
02.000,-1.99
02.015,-2.27
02.031,-0.62
02.046,1.88
02.062,3.6
02.078,3.36
02.093,1.13
02.109,-1.9
02.125,-4.01
02.140,-3.97
02.156,-1.73
02.171,1.5
02.187,4.01
02.203,4.49
02.218,2.84
02.234,0.15
02.250,-1.89
02.265,-2.03
02.281,-0.16
02.296,2.58
02.312,4.47
02.328,4.23
02.343,1.74
02.359,-1.78
02.375,-4.53
02.390,-5.16
02.406,-3.57
02.421,-0.93
02.437,1.02
02.453,1.02
02.468,-0.89
02.484,-3.42
02.500,-4.86
02.515,-4.09
02.531,-1.25
02.546,2.24
02.562,4.59
02.578,4.59
02.593,2.33
02.609,-0.86
02.625,-3.22
02.640,-3.53
02.656,-1.82
02.671,0.7
02.687,2.36
02.703,2.07
02.718,-0.08
02.734,-2.81
02.750,-4.44
02.765,-3.86
02.781,-1.26
02.796,1.98
02.812,4.06
02.828,3.82
02.843,1.44
02.859,-1.71
02.875,-3.83
02.890,-3.73
02.906,-1.49
02.921,1.55
02.937,3.65
02.953,3.6
02.968,1.41
02.984,-1.61
03.000,-3.74
03.015,-3.7
03.031,-1.48
03.046,1.7
03.062,4.12
03.078,4.48
03.093,2.71
03.125,-1.95
03.140,-1.9
03.156,0.16
03.171,2.98
03.187,4.84
03.203,4.55
03.218,2.21
03.234,-0.86
03.250,-2.94
03.265,-2.9
03.281,-0.98
03.296,1.46
03.312,2.7
03.328,1.69
03.343,-1.27
03.359,-4.67
03.375,-6.75
03.390,-6.42
03.406,-3.89
03.421,-0.58
03.437,1.81
03.453,2.2
03.468,0.74
03.484,-1.35
03.500,-2.6
03.515,-2.11
03.531,-0.15
03.546,2.03
03.562,3.03
03.578,2.05
03.593,-0.53
03.609,-3.37
03.625,-4.95
03.640,-4.4
03.656,-2.01
03.671,0.86
03.687,2.69
03.703,2.58
03.718,0.82
03.734,-1.3
03.750,-2.33
03.765,-1.47
03.781,0.9
03.796,3.41
03.812,4.58
03.828,3.67
03.843,1.18
03.859,-1.43
03.875,-2.6
03.890,-1.56
03.906,1.21
03.921,4.24
03.937,5.95
03.953,5.48
03.968,3.19
03.984,0.42
04.000,-1.36
04.015,-1.32
04.031,0.23
04.046,2.07
04.062,2.84
04.078,1.83
04.093,-0.54
04.109,-2.97
04.125,-4.01
04.140,-2.98
04.156,-0.38
04.171,2.34
04.187,3.61
04.203,2.66
04.218,0.03
04.234,-2.77
04.250,-4.19
04.265,-3.49
04.281,-1.25
04.296,1.07
04.312,1.96
04.328,0.82
04.343,-1.72
04.359,-4.15
04.375,-5.04
04.390,-3.86
04.406,-1.31
04.421,1.16
04.437,2.27
04.453,1.51
04.468,-0.45
04.484,-2.26
04.500,-2.7
04.515,-1.37
04.531,1.01
04.546,3.05
04.562,3.5
04.578,1.97
04.593,-0.81
04.609,-3.36
04.625,-4.27
04.640,-3.03
04.656,-0.27
04.671,2.54
04.687,3.93
04.703,3.26
04.718,1.08
04.734,-1.21
04.750,-2.22
04.765,-1.36
04.781,0.78
04.796,2.79
04.812,3.29
04.828,1.75
04.843,-1.07
04.859,-3.64
04.875,-4.47
04.890,-2.98
04.906,0.08
04.921,3.08
04.937,4.43
04.953,3.45
04.968,0.81
04.984,-1.91
05.000,-3.12
05.015,-2.12
05.031,0.47
05.046,3.11
05.062,4.26
05.078,3.27
05.093,0.77
05.109,-1.77
05.125,-2.94
05.140,-2.21
05.156,-0.24
05.171,1.51
05.187,1.76
05.203,0.15
05.218,-2.47
05.234,-4.56
05.250,-4.85
05.265,-3.07
05.281,-0.13
05.296,2.42
05.312,3.26
05.328,2.1
05.343,-0.15
05.359,-1.94
05.375,-2.0
05.390,-0.1
05.406,2.77
05.421,5.01
05.437,5.32
05.453,3.44
05.468,0.37
05.484,-2.23
05.500,-2.94
05.515,-1.44
05.531,1.29
05.546,3.57
05.562,3.97
05.578,2.14
05.593,-0.94
05.609,-3.59
05.625,-4.34
05.640,-2.85
05.656,-0.08
05.671,2.31
05.687,2.93
05.703,1.49
05.718,-0.98
05.734,-2.84
05.750,-2.78
05.765,-0.6
05.781,2.54
05.796,4.96
05.812,5.28
05.828,3.29
05.843,0.11
05.859,-2.53
05.875,-3.19
05.890,-1.57
05.906,1.3
05.921,3.72
05.937,4.22
05.953,2.46
05.968,-0.6
05.984,-3.29
06.000,-4.2
06.015,-3.0
06.031,-0.61
06.046,1.34
06.062,1.49
06.078,-0.42
06.093,-3.32
06.109,-5.54
06.125,-5.7
06.140,-3.62
06.156,-0.43
06.171,2.12
06.187,2.66
06.203,1.04
06.218,-1.55
06.234,-3.33
06.250,-2.96
06.265,-0.33
06.281,3.25
06.296,5.82
06.312,5.95
06.328,3.47
06.343,-0.25
06.359,-3.27
06.375,-4.05
06.390,-2.41
06.406,0.43
06.421,2.59
06.437,2.65
06.453,0.52
06.468,-2.52
06.484,-4.63
06.500,-4.45
06.515,-1.96
06.531,1.49
06.546,4.03
06.562,4.36
06.578,2.43
06.593,-0.42
06.609,-2.4
06.625,-2.29
06.640,-0.14
06.656,2.71
06.671,4.51
06.687,4.07
06.703,1.51
06.718,-1.84
06.734,-4.18
06.750,-4.35
06.765,-2.37
06.781,0.46
06.796,2.48
06.812,2.46
06.828,0.41
06.843,-2.46
06.859,-4.56
06.875,-4.7
06.890,-2.87
06.906,-0.19
06.921,1.79
06.937,1.95
06.953,0.3
06.968,-1.99
06.984,-3.32
07.000,-2.67
07.015,-0.13
07.031,3.03
07.046,5.12
07.062,5.02
07.078,2.83
07.093,-0.17
07.109,-2.29
07.125,-2.35
07.140,-0.42
07.156,2.28
07.171,4.14
07.187,4.02
07.203,1.96
07.218,-0.82
07.234,-2.68
07.250,-2.57
07.265,-0.52
07.281,2.17
07.296,3.88
07.312,3.51
07.328,1.09
07.343,-2.06
07.359,-4.23
07.375,-4.18
07.390,-1.96
07.406,1.15
07.421,3.39
07.437,3.5
07.453,1.5
07.468,-1.37
07.484,-3.37
07.500,-3.31
07.515,-1.19
07.531,1.69
07.546,3.62
07.562,3.4
07.578,1.08
07.593,-2.03
07.609,-4.18
07.625,-4.14
07.640,-1.93
07.656,1.16
07.671,3.4
07.687,3.52
07.703,1.47
07.718,-1.53
07.734,-3.73
07.750,-3.83
07.765,-1.78
07.781,1.23
07.796,3.42
07.812,3.52
07.828,1.49
07.843,-1.39
07.859,-3.38
07.875,-3.2
07.890,-0.93
07.906,2.06
07.921,4.01
07.937,3.68
07.953,1.25
07.968,-1.81
07.984,-3.66
08.000,-3.16
08.015,-0.52
08.031,2.74
08.046,4.78
08.062,4.45
08.078,1.95
08.093,-1.3
08.109,-3.52
08.125,-3.59
08.140,-1.64
08.156,0.99
08.171,2.67
08.187,2.36
08.203,0.22
08.218,-2.43
08.234,-4.0
08.250,-3.44
08.265,-0.97
08.281,2.12
08.296,4.15
08.312,4.05
08.328,1.95
08.343,-0.8
08.359,-2.53
08.375,-2.15
08.390,0.18
08.406,3.07
08.421,4.79
08.437,4.2
08.453,1.43
08.468,-2.09
08.484,-4.58
08.500,-4.83
08.515,-2.94
08.531,-0.24
08.546,1.52
08.562,1.2
08.578,-1.1
08.593,-4.03
08.609,-5.88
08.625,-5.49
08.640,-2.96
08.656,0.36
08.671,2.78
08.687,3.09
08.703,1.36
08.718,-1.14
08.734,-2.74
08.750,-2.32
08.765,0.02
08.781,2.93
08.796,4.69
08.812,4.15
08.828,1.42
08.843,-2.15
08.859,-4.75
08.875,-5.16
08.890,-3.37
08.906,-0.61
08.921,1.51
08.937,1.83
08.953,0.41
08.968,-1.63
08.984,-2.83
09.000,-2.2
09.015,0.08
09.031,2.82
09.046,4.53
09.062,4.28
09.078,2.26
09.093,-0.25
09.109,-1.7
09.125,-1.14
09.140,1.19
09.156,3.86
09.171,5.21
09.187,4.23
09.203,1.24
09.218,-2.25
09.234,-4.41
09.250,-4.07
09.265,-1.51
09.281,1.79
09.296,3.94
09.312,3.77
09.328,1.45
09.343,-1.59
09.359,-3.57
09.375,-3.36
09.390,-1.11
09.406,1.81
09.421,3.75
09.437,3.63
09.453,1.62
09.468,-0.97
09.484,-2.56
09.500,-2.14
09.515,0.11
09.531,2.86
09.546,4.45
09.562,3.81
09.578,1.08
09.593,-2.41
09.609,-4.88
09.625,-5.09
09.640,-3.01
09.656,0.12
09.671,2.57
09.687,2.99
09.703,1.25
09.718,-1.54
09.734,-3.7
09.750,-3.91
09.765,-2.09
09.781,0.64
09.796,2.65
09.812,2.72
09.828,0.88
09.843,-1.59
09.859,-3.08
09.875,-2.45
09.890,0.12
09.906,3.2
09.921,5.09
09.937,4.65
09.953,2.06
09.968,-1.23
09.984,-3.47
10.000,-3.49
10.015,-1.42
10.031,1.36
10.046,3.09
10.062,2.59
10.078,-0.01
10.093,-3.38
10.109,-5.68
10.125,-5.67
10.140,-3.4
10.156,-0.2
10.171,2.14
10.187,2.37
10.203,0.55
10.218,-1.98
10.234,-3.51
10.250,-2.9
10.265,-0.38
10.281,2.61
10.296,4.32
10.312,3.72
10.328,1.13
10.343,-1.94
10.359,-3.67
10.375,-3.0
10.390,-0.16
10.406,3.3
10.421,5.58
10.437,5.54
10.453,3.36
10.468,0.49
10.484,-1.3
10.500,-0.89
10.515,1.57
10.531,4.6
10.546,6.36
10.562,5.61
10.578,2.46
10.593,-1.64
10.609,-4.75
10.625,-5.49
10.640,-3.78
10.656,-0.87
10.671,1.45
10.687,1.9
10.703,0.35
10.718,-2.08
10.734,-3.77
10.750,-3.53
10.765,-1.39
10.781,1.49
10.796,3.48
10.812,3.41
10.828,1.32
10.843,-1.58
10.859,-3.68
10.875,-3.84
10.890,-2.11
10.906,0.33
10.921,1.92
10.937,1.61
10.953,-0.49
10.968,-3.11
10.984,-4.62
11.000,-3.97
11.015,-1.35
11.031,1.85
11.046,3.86
11.062,3.52
11.078,0.99
11.093,-2.26
11.109,-4.33
11.125,-3.93
11.140,-1.17
11.156,2.45
11.171,5.02
11.187,5.18
11.203,3.01
11.218,-0.11
11.234,-2.39
11.250,-2.58
11.265,-0.78
11.281,1.68
11.296,3.14
11.312,2.53
11.328,0.02
11.343,-3.04
11.359,-5.01
11.375,-4.85
11.390,-2.68
11.406,0.25
11.421,2.38
11.437,2.6
11.453,1.0
11.468,-1.23
11.484,-2.59
11.500,-2.04
11.515,0.25
11.531,2.98
11.546,4.53
11.562,3.8
11.578,1.03
11.593,-2.37
11.609,-4.58
11.625,-4.43
11.640,-2.06
11.656,1.09
11.671,3.24
11.687,3.21
11.703,1.11
11.718,-1.66
11.734,-3.4
11.750,-3.05
11.765,-0.78
11.781,2.01
11.796,3.68
11.812,3.18
11.828,0.72
11.843,-2.36
11.859,-4.4
11.875,-4.3
11.890,-2.18
11.906,0.7
11.921,2.7
11.937,2.7
11.953,0.75
11.968,-1.87
11.984,-3.57
12.000,-3.22
12.015,-0.96
12.031,1.93
12.046,3.77
12.062,3.42
12.078,1.01
12.093,-2.15
12.109,-4.32
12.125,-4.32
12.140,-2.16
12.156,0.89
12.171,3.17
12.187,3.53
12.203,2.03
12.218,-0.13
12.234,-1.39
12.250,-0.7
12.265,1.77
12.281,4.68
12.296,6.31
12.312,5.55
12.328,2.58
12.343,-1.18
12.359,-3.86
12.375,-4.19
12.390,-2.16
12.406,0.89
12.421,3.18
12.437,3.39
12.453,1.44
12.468,-1.43
12.484,-3.53
12.500,-3.6
12.515,-1.6
12.531,1.33
12.546,3.5
12.562,3.74
12.578,2.02
12.593,-0.43
12.609,-1.98
12.625,-1.53
12.640,0.78
12.656,3.58
12.671,5.2
12.687,4.52
12.703,1.78
12.718,-1.6
12.734,-3.87
12.750,-3.96
12.765,-2.08
12.781,0.36
12.796,1.76
12.812,1.11
12.828,-1.26
12.843,-3.94
12.859,-5.27
12.875,-4.32
12.890,-1.44
12.906,1.84
12.921,3.8
12.937,3.38
12.953,0.92
12.968,-2.09
12.984,-3.87
13.000,-3.34
13.015,-0.76
13.031,2.38
13.046,4.29
13.062,3.9
13.078,1.45
13.093,-1.61
13.109,-3.59
13.125,-3.48
13.140,-1.54
13.156,0.81
13.171,2.02
13.187,1.21
13.203,-1.18
13.218,-3.71
13.234,-4.79
13.250,-3.57
13.265,-0.51
13.281,2.83
13.296,4.77
13.312,4.33
13.328,1.95
13.343,-0.88
13.359,-2.44
13.375,-1.78
13.390,0.78
13.406,3.72
13.421,5.33
13.437,4.61
13.453,1.9
13.468,-1.32
13.484,-3.27
13.500,-2.9
13.515,-0.49
13.531,2.5
13.546,4.28
13.562,3.8
13.578,1.29
13.593,-1.79
13.609,-3.73
13.625,-3.47
13.640,-1.25
13.656,1.52
13.671,3.16
13.687,2.61
13.703,0.15
13.718,-2.83
13.734,-4.68
13.750,-4.42
13.765,-2.31
13.781,0.3
13.796,1.87
13.812,1.48
13.828,-0.59
13.843,-3.04
13.859,-4.37
13.875,-3.69
13.890,-1.35
13.906,1.28
13.921,2.63
13.937,1.86
13.953,-0.65
13.968,-3.44
13.984,-4.87
14.000,-4.04
14.015,-1.31
14.031,1.84
14.046,3.77
14.062,3.49
14.078,1.32
14.093,-1.3
14.109,-2.74
14.125,-2.04
14.140,0.49
14.156,3.43
14.171,5.14
14.187,4.63
14.203,2.14
14.218,-0.96
14.234,-2.99
14.250,-2.83
14.265,-0.63
14.281,2.31
14.296,4.31
14.312,4.21
14.328,2.09
14.343,-0.8
14.359,-2.78
14.375,-2.71
14.390,-0.7
14.406,1.95
14.421,3.59
14.437,3.13
14.453,0.73
14.468,-2.26
14.484,-4.14
14.500,-3.85
14.515,-1.56
14.531,1.31
14.546,3.12
14.562,2.78
14.578,0.56
14.593,-2.21
14.609,-3.92
14.625,-3.6
14.640,-1.53
14.656,0.98
14.671,2.49
14.687,2.16
14.703,0.4
14.718,-1.54
14.734,-2.27
14.750,-1.2
14.765,1.14
14.781,3.33
14.796,4.04
14.812,2.72
14.828,-0.01
14.843,-2.66
14.859,-3.8
14.875,-2.75
14.890,-0.05
14.906,2.93
14.921,4.69
14.937,4.46
14.953,2.58
14.968,0.28
14.984,-1.1
15.000,-0.82
15.015,0.86
15.031,2.77
15.046,3.65
15.062,2.77
15.078,0.51
15.093,-1.95
15.109,-3.31
15.125,-2.89
15.140,-1.11
15.156,0.73
15.171,1.34
15.187,0.12
15.203,-2.41
15.218,-4.84
15.234,-5.74
15.250,-4.47
15.265,-1.56
15.281,1.57
15.296,3.43
15.312,3.23
15.328,1.42
15.343,-0.71
15.359,-1.73
15.375,-0.91
15.390,1.33
15.406,3.63
15.421,4.58
15.437,3.43
15.453,0.67
15.468,-2.31
15.484,-3.95
15.500,-3.39
15.515,-1.01
15.531,1.77
15.546,3.41
15.562,2.97
15.578,0.82
15.593,-1.73
15.609,-3.16
15.625,-2.63
15.640,-0.48
15.656,1.94
15.671,3.17
15.687,2.44
15.703,0.17
15.718,-2.33
15.734,-3.66
15.750,-3.14
15.765,-1.25
15.781,0.67
15.796,1.29
15.812,0.01
15.828,-2.54
15.843,-4.96
15.859,-5.82
15.875,-4.52
15.890,-1.6
15.906,1.46
15.921,3.2
15.937,2.92
15.953,1.07
15.968,-1.02
15.984,-1.95
16.000,-1.03
16.015,1.24
16.031,3.55
16.046,4.54
16.062,3.55
16.078,1.12
16.093,-1.4
16.109,-2.58
16.125,-1.74
16.140,0.59
16.156,2.94
16.171,3.87
16.187,2.72
16.203,0.04
16.218,-2.64
16.234,-3.82
16.250,-2.8
16.265,-0.15
16.281,2.62
16.296,3.97
16.312,3.13
16.328,0.62
16.343,-2.15
16.359,-3.64
16.375,-3.17
16.390,-1.18
16.406,0.95
16.421,1.82
16.437,0.81
16.453,-1.52
16.468,-3.77
16.484,-4.57
16.500,-3.27
16.515,-0.47
16.531,2.39
16.546,3.88
16.562,3.29
16.578,1.19
16.593,-1.05
16.609,-2.07
16.625,-1.26
16.640,0.9
16.656,3.06
16.671,3.89
16.687,2.77
16.703,0.23
16.718,-2.39
16.734,-3.71
16.750,-3.02
16.765,-0.79
16.781,1.66
16.796,2.94
16.812,2.32
16.828,0.28
16.843,-1.91
16.859,-2.84
16.875,-1.88
16.890,0.44
16.906,2.72
16.921,3.51
16.937,2.2
16.953,-0.56
16.968,-3.27
16.984,-4.46
17.000,-3.53
17.015,-1.16
17.031,1.13
17.046,1.99
17.062,0.91
17.078,-1.3
17.093,-3.15
17.109,-3.3
17.125,-1.4
17.140,1.63
17.156,4.16
17.171,4.8
17.187,3.23
17.203,0.38
17.218,-2.06
17.234,-2.69
17.250,-1.2
17.265,1.42
17.281,3.48
17.296,3.62
17.312,1.54
17.328,-1.71
17.343,-4.39
17.359,-5.04
17.375,-3.3
17.390,-0.17
17.406,2.64
17.421,3.67
17.437,2.46
17.453,-0.12
17.468,-2.48
17.484,-3.26
17.500,-2.05
17.515,0.3
17.531,2.29
17.546,2.6
17.562,0.84
17.578,-2.1
17.593,-4.66
17.609,-5.42
17.625,-3.94
17.640,-1.06
17.656,1.67
17.671,2.8
17.687,1.84
17.703,-0.38
17.718,-2.28
17.734,-2.44
17.750,-0.47
17.765,2.73
17.781,5.43
17.796,6.15
17.812,4.39
17.828,1.17
17.843,-1.79
17.859,-2.88
17.875,-1.62
17.890,1.07
17.906,3.51
17.921,4.21
17.937,2.82
17.953,0.29
17.968,-1.71
17.984,-1.84
18.000,0.1
18.015,3.01
18.031,5.15
18.046,5.15
18.062,2.8
18.078,-0.76
18.093,-3.74
18.109,-4.72
18.125,-3.41
18.140,-0.85
18.156,1.26
18.171,1.58
18.187,-0.14
18.203,-2.83
18.218,-4.79
18.234,-4.7
18.250,-2.34
18.265,1.15
18.281,4.03
18.296,4.89
18.312,3.44
18.328,0.68
18.343,-1.73
18.359,-2.48
18.375,-1.3
18.390,0.87
18.406,2.58
18.421,2.66
18.437,1.0
18.453,-1.34
18.468,-2.88
18.484,-2.57
18.500,-0.45
18.515,2.31
18.531,4.15
18.546,3.93
18.562,1.63
18.578,-1.55
18.593,-3.94
18.609,-4.32
18.625,-2.6
18.640,0.12
18.656,2.19
18.671,2.33
18.687,0.4
18.703,-2.51
18.718,-4.68
18.734,-4.73
18.750,-2.43
18.765,1.11
18.781,4.13
18.796,5.14
18.812,3.8
18.828,1.14
18.843,-1.14
18.859,-1.63
18.875,-0.07
18.890,2.48
18.906,4.35
18.921,4.23
18.937,1.93
18.953,-1.36
18.968,-3.9
18.984,-4.37
19.000,-2.68
19.015,-0.02
19.031,1.87
19.046,1.75
19.062,-0.46
19.078,-3.53
19.093,-5.75
19.109,-5.85
19.125,-3.82
19.140,-0.9
19.156,1.24
19.171,1.4
19.187,-0.38
19.203,-2.76
19.218,-4.04
19.234,-3.05
19.250,0.05
19.265,3.84
19.281,6.48
19.296,6.7
19.312,4.6
19.328,1.53
19.343,-0.69
19.359,-0.83
19.375,1.0
19.390,3.45
19.406,4.83
19.421,4.0
19.437,1.15
19.453,-2.3
19.468,-4.56
19.484,-4.53
19.500,-2.38
19.515,0.45
19.531,2.22
19.546,1.85
19.562,-0.46
19.578,-3.3
19.593,-4.98
19.609,-4.48
19.625,-2.06
19.640,0.83
19.656,2.5
19.671,1.97
19.687,-0.42
19.703,-3.19
19.718,-4.64
19.734,-3.78
19.750,-0.98
19.765,2.24
19.781,4.18
19.796,3.79
19.812,1.46
19.828,-1.31
19.843,-2.81
19.859,-2.03
19.875,0.6
19.890,3.53
19.906,5.02
19.921,4.14
19.937,1.31
19.953,-1.86
19.968,-3.61
19.984,-2.99
20.000,-0.43
20.015,2.46
20.031,3.9
20.046,2.99
20.062,0.19
20.078,-2.95
20.093,-4.74
20.109,-4.3
20.125,-2.04
20.140,0.59
20.156,2.08
20.171,1.64
20.187,-0.29
20.203,-2.35
20.218,-3.18
20.234,-2.13
20.250,0.24
20.265,2.57
20.281,3.48
20.296,2.36
20.312,-0.27
20.328,-2.99
20.343,-4.32
20.359,-3.49
20.375,-0.88
20.390,2.11
20.406,3.93
20.421,3.74
20.437,1.85
20.453,-0.48
20.468,-1.73
20.484,-1.06
20.500,1.19
20.515,3.72
20.531,5.07
20.546,4.44
20.562,2.23
20.578,-0.24
20.593,-1.54
20.609,-0.99
20.625,0.89
20.640,2.79
20.656,3.35
20.671,2.02
20.687,-0.59
20.703,-3.09
20.718,-4.17
20.734,-3.28
20.750,-1.09
20.765,1.04
20.781,1.79
20.796,0.67
20.812,-1.66
20.828,-3.78
20.843,-4.42
20.859,-3.11
20.875,-0.53
20.890,1.87
20.906,2.73
20.921,1.52
20.937,-1.12
20.953,-3.75
20.968,-4.91
20.984,-3.97
21.000,-1.48
21.015,1.13
21.031,2.45
21.046,1.82
21.062,-0.19
21.078,-2.21
21.093,-2.81
21.109,-1.4
21.125,1.33
21.140,3.92
21.156,4.87
21.171,3.59
21.187,0.82
21.203,-1.86
21.218,-2.89
21.234,-1.7
21.250,0.96
21.265,3.45
21.281,4.26
21.296,2.84
21.312,0.02
21.328,-2.53
21.343,-3.3
21.359,-1.8
21.375,1.13
21.390,3.77
21.406,4.59
21.421,3.1
21.437,0.18
21.453,-2.52
21.468,-3.52
21.484,-2.36
21.500,0.08
21.515,2.21
21.531,2.67
21.546,1.14
21.562,-1.4
21.578,-3.36
21.593,-3.44
21.609,-1.46
21.625,1.48
21.640,3.7
21.656,3.87
21.671,1.84
21.687,-1.26
21.703,-3.65
21.718,-3.98
21.734,-2.11
21.750,0.81
21.765,3.01
21.781,3.19
21.796,1.25
21.812,-1.6
21.828,-3.58
21.843,-3.39
21.859,-1.01
21.875,2.24
21.890,4.54
21.906,4.59
21.921,2.37
21.937,-0.8
21.953,-3.08
21.968,-3.17
21.984,-1.02
22.000,2.06
22.015,4.32
22.031,4.49
22.046,2.58
22.062,-0.19
22.078,-2.15
22.093,-2.17
22.109,-0.36
22.125,2.01
22.140,3.38
22.156,2.75
22.171,0.35
22.187,-2.52
22.203,-4.24
22.218,-3.82
22.234,-1.48
22.250,1.42
22.265,3.25
22.281,3.01
22.296,0.89
22.312,-1.85
22.328,-3.64
22.343,-3.5
22.359,-1.59
22.375,0.87
22.390,2.35
22.406,1.91
22.421,-0.24
22.437,-2.85
22.453,-4.37
22.468,-3.86
22.484,-1.57
22.500,1.2
22.515,2.87
22.531,2.44
22.546,0.13
22.562,-2.73
22.578,-4.51
22.593,-4.11
22.609,-1.71
22.625,1.39
22.640,3.49
22.656,3.5
22.671,1.54
22.687,-1.11
22.703,-2.86
22.718,-2.67
22.734,-0.71
22.750,1.73
22.765,3.13
22.781,2.52
22.796,0.22
22.812,-2.42
22.828,-3.87
22.843,-3.24
22.859,-0.93
22.875,1.71
22.890,3.15
22.906,2.58
22.921,0.42
22.937,-1.94
22.953,-3.01
22.968,-2.02
22.984,0.57
23.000,3.35
23.015,4.83
23.031,4.26
23.046,2.08
23.062,-0.32
23.078,-1.54
23.093,-0.88
23.109,1.19
23.125,3.32
23.140,4.12
23.156,2.96
23.171,0.4
23.187,-2.2
23.203,-3.44
23.218,-2.71
23.234,-0.5
23.250,1.78
23.265,2.81
23.281,1.97
23.296,-0.18
23.312,-2.28
23.328,-3.0
23.343,-1.83
23.359,0.57
23.375,2.74
23.390,3.35
23.406,1.92
23.421,-0.8
23.437,-3.28
23.453,-4.12
23.468,-2.87
23.484,-0.28
23.500,2.11
23.515,2.89
23.531,1.56
23.546,-1.08
23.562,-3.51
23.578,-4.32
23.593,-3.03
23.609,-0.38
23.625,2.15
23.640,3.17
23.656,2.24
23.671,0.11
23.687,-1.74
23.703,-2.0
23.718,-0.34
23.734,2.41
23.750,4.64
23.765,5.0
23.781,3.13
23.796,-0.03
23.812,-2.77
23.828,-3.7
23.843,-2.44
23.859,0.06
23.875,2.15
23.890,2.44
23.906,0.62
23.921,-2.31
23.937,-4.64
23.953,-4.99
23.968,-3.08
23.984,0.02
24.000,2.58
24.015,3.19
24.031,1.57
24.046,-1.24
24.062,-3.49
24.078,-3.74
24.093,-1.72
24.109,1.5
24.125,4.17
24.140,4.84
24.156,3.2
24.171,0.28
24.187,-2.22
24.203,-2.89
24.218,-1.44
24.234,1.1
24.250,3.1
24.265,3.26
24.281,1.42
24.296,-1.36
24.312,-3.42
24.328,-3.49
24.343,-1.46
24.359,1.53
24.375,3.82
24.390,4.15
24.406,2.39
24.421,-0.36
24.437,-2.44
24.453,-2.64
24.468,-0.83
24.484,1.8
24.500,3.59
24.515,3.27
24.531,0.78
24.546,-2.67
24.562,-5.38
24.578,-6.01
24.593,-4.45
24.609,-1.85
24.625,0.15
24.640,0.3
24.656,-1.41
24.671,-3.85
24.687,-5.4
24.703,-4.96
24.718,-2.57
24.734,0.53
24.750,2.74
24.765,2.96
24.781,1.29
24.796,-1.01
24.812,-2.41
24.828,-1.88
24.843,0.4
24.859,3.13
24.875,4.73
24.890,4.18
24.906,1.72
24.921,-1.33
24.937,-3.33
24.953,-3.25
24.968,-1.24
24.984,1.43
25.000,3.23
25.015,3.2
25.031,1.53
25.046,-0.62
25.062,-1.82
25.078,-1.26
25.093,0.75
25.109,2.95
25.125,3.94
25.140,2.96
25.156,0.48
25.171,-2.1
25.187,-3.21
25.203,-2.06
25.218,0.87
25.234,4.02
25.250,5.7
25.265,4.93
25.281,2.09
25.296,-1.29
25.312,-3.48
25.328,-3.39
25.343,-1.28
25.359,1.49
25.375,3.26
25.390,3.06
25.406,1.18
25.421,-1.07
25.437,-2.18
25.453,-1.3
25.468,1.15
25.484,3.77
25.500,5.02
25.515,4.11
25.531,1.48
25.546,-1.46
25.562,-3.2
25.578,-2.99
25.593,-1.26
25.609,0.57
25.625,1.14
25.640,-0.17
25.656,-2.7
25.671,-5.02
25.687,-5.74
25.703,-4.35
25.718,-1.57
25.734,1.09
25.750,2.21
25.765,1.27
25.781,-1.02
25.796,-3.2
25.812,-3.95
25.828,-2.8
25.843,-0.47
25.859,1.65
25.875,2.29
25.890,1.02
25.906,-1.39
25.921,-3.56
25.937,-4.2
25.953,-2.83
25.968,-0.14
25.984,2.41
26.000,3.49
26.015,2.58
26.031,0.3
26.046,-1.97
26.062,-2.87
26.078,-1.88
26.093,0.45
26.109,2.7
26.125,3.58
26.140,2.53
26.156,0.24
26.171,-1.89
26.187,-2.57
26.203,-1.38
26.218,0.9
26.234,2.77
26.250,2.92
26.265,1.03
26.281,-1.94
26.296,-4.31
26.312,-4.71
26.328,-2.78
26.343,0.53
26.359,3.55
26.375,4.87
26.390,4.07
26.406,2.05
26.421,0.32
26.437,0.17
26.453,1.85
26.468,4.44
26.484,6.4
26.500,6.43
26.515,4.28
26.531,0.92
26.546,-2.03
26.562,-3.21
26.578,-2.22
26.593,0.08
26.609,2.19
26.625,2.79
26.640,1.5
26.656,-0.84
26.671,-2.77
26.687,-3.09
26.703,-1.65
26.718,0.62
26.734,2.15
26.750,1.81
26.765,-0.47
26.781,-3.48
26.796,-5.49
26.812,-5.19
26.828,-2.5
26.843,1.28
26.859,4.27
26.875,4.98
26.890,3.15
26.906,-0.06
26.921,-2.85
26.937,-3.78
26.953,-2.54
26.968,-0.16
26.984,1.77
27.000,2.02
27.015,0.43
27.031,-1.9
27.046,-3.45
27.062,-3.12
27.078,-0.95
27.093,1.82
27.109,3.62
27.125,3.35
27.140,1.14
27.156,-1.74
27.171,-3.66
27.187,-3.49
27.203,-1.35
27.218,1.5
27.234,3.46
27.250,3.43
27.265,1.46
27.281,-1.2
27.296,-3.03
27.312,-2.94
27.328,-1.03
27.343,1.48
27.359,3.06
27.375,2.68
27.390,0.44
27.406,-2.44
27.421,-4.34
27.437,-4.23
27.453,-2.21
27.468,0.42
27.484,2.0
27.500,1.49
27.515,-0.93
27.531,-3.88
27.546,-5.66
27.562,-5.17
27.578,-2.61
27.593,0.62
27.609,2.86
27.625,2.97
27.640,1.19
27.656,-1.14
27.671,-2.34
27.687,-1.38
27.703,1.46
27.718,4.77
27.734,6.8
27.750,6.49
27.765,4.04
27.781,0.83
27.796,-1.47
27.812,-1.77
27.828,-0.22
27.843,1.89
27.859,3.02
27.875,2.24
27.890,-0.16
27.906,-2.87
27.921,-4.36
27.937,-3.76
27.953,-1.36
27.968,1.48
27.984,3.2
28.000,2.91
28.015,0.89
28.031,-1.56
28.046,-2.99
28.062,-2.57
28.078,-0.6
28.093,1.63
28.109,2.73
28.125,1.95
28.140,-0.28
28.156,-2.66
28.171,-3.77
28.187,-2.88
28.203,-0.45
28.218,2.15
28.234,3.46
28.250,2.76
28.265,0.47
28.281,-2.07
28.296,-3.38
28.312,-2.73
28.328,-0.53
28.343,1.9
28.359,3.11
28.375,2.32
28.390,-0.06
28.406,-2.7
28.421,-4.12
28.437,-3.49
28.453,-1.14
28.468,1.59
28.484,3.24
28.500,2.98
28.515,1.13
28.531,-1.02
28.546,-2.09
28.562,-1.33
28.578,0.83
28.593,3.03
28.609,3.84
28.625,2.56
28.640,-0.22
28.656,-3.02
28.671,-4.3
28.687,-3.33
28.703,-0.67
28.718,2.12
28.734,3.51
28.750,2.72
28.765,0.31
28.781,-2.24
28.796,-3.41
28.812,-2.5
28.828,-0.08
28.843,2.39
28.859,3.45
28.875,2.5
28.890,0.12
28.906,-2.27
28.921,-3.27
28.937,-2.31
28.953,0.02
28.968,2.33
28.984,3.25
29.000,2.22
29.015,-0.17
29.031,-2.52
29.046,-3.45
29.062,-2.38
29.078,0.08
29.093,2.59
29.109,3.78
29.125,3.04
29.140,0.99
29.156,-0.99
29.171,-1.59
29.187,-0.31
29.203,2.19
29.218,4.46
29.234,5.16
29.250,3.81
29.265,1.1
29.281,-1.51
29.296,-2.71
29.312,-2.03
29.328,-0.15
29.343,1.59
29.359,1.93
29.375,0.47
29.390,-2.07
29.406,-4.33
29.421,-5.05
29.437,-3.86
29.453,-1.48
29.468,0.71
29.484,1.51
29.500,0.48
29.515,-1.69
29.531,-3.64
29.546,-4.2
29.562,-3.0
29.578,-0.78
29.593,1.1
29.609,1.52
29.625,0.17
29.640,-2.1
29.656,-3.86
29.671,-3.97
29.687,-2.2
29.703,0.58
29.718,2.84
29.734,3.38
29.750,1.87
29.765,-0.79
29.781,-3.07
29.796,-3.67
29.812,-2.18
29.828,0.56
29.843,3.1
29.859,4.12
29.875,3.2
29.890,1.08
29.906,-0.84
29.921,-1.33
29.937,-0.08
29.953,2.14
29.968,3.92
29.984,4.07
30.000,2.37
30.015,-0.3
30.031,-2.41
30.046,-2.73
30.062,-1.02
30.078,1.75
30.093,3.99
30.109,4.41
30.125,2.71
30.140,-0.14
30.156,-2.55
30.171,-3.18
30.187,-1.72
30.203,0.86
30.218,2.96
30.234,3.27
30.250,1.53
30.265,-1.22
30.281,-3.3
30.296,-3.41
30.312,-1.36
30.328,1.73
30.343,4.12
30.359,4.48
30.375,2.63
30.390,-0.24
30.406,-2.43
30.421,-2.64
30.437,-0.79
30.453,1.95
30.468,3.89
30.484,3.79
30.500,1.62
30.515,-1.45
30.531,-3.75
30.546,-4.08
30.562,-2.41
30.578,0.11
30.593,1.86
30.609,1.7
30.625,-0.39
30.640,-3.26
30.656,-5.23
30.671,-5.14
30.687,-2.9
30.703,0.36
30.718,2.97
30.734,3.69
30.750,2.38
30.765,0.12
30.781,-1.52
30.796,-1.37
30.812,0.61
30.828,3.27
30.843,5.0
30.859,4.68
30.875,2.33
30.890,-0.8
30.906,-3.02
30.921,-3.18
30.937,-1.28
30.953,1.45
30.968,3.38
30.984,3.34
31.000,1.35
31.015,-1.41
31.031,-3.39
31.046,-3.48
31.062,-1.69
31.078,0.83
31.093,2.51
31.109,2.3
31.125,0.25
31.140,-2.43
31.156,-4.11
31.171,-3.71
31.187,-1.28
31.203,1.93
31.218,4.22
31.234,4.3
31.250,2.08
31.265,-1.27
31.281,-4.05
31.296,-4.89
31.312,-3.5
31.328,-0.88
31.343,1.41
31.359,2.03
31.375,0.7
31.390,-1.69
31.406,-3.59
31.421,-3.78
31.437,-2.08
31.453,0.51
31.468,2.44
31.484,2.48
31.500,0.53
31.515,-2.26
31.531,-4.25
31.546,-4.15
31.562,-1.91
31.578,1.27
31.593,3.65
31.609,3.96
31.625,2.1
31.640,-0.76
31.656,-2.91
31.671,-3.09
31.687,-1.16
31.703,1.75
31.718,4.06
31.734,4.55
31.750,3.08
31.765,0.74
31.781,-0.96
31.796,-0.91
31.812,0.92
31.828,3.41
31.843,5.08
31.859,4.81
31.875,2.62
31.890,-0.41
31.906,-2.72
31.921,-3.19
31.937,-1.8
31.953,0.36
31.968,1.81
31.984,1.53
32.000,-0.48
32.015,-3.05
32.031,-4.68
32.046,-4.33
32.062,-2.05
32.078,0.96
32.093,3.14
32.109,3.37
32.125,1.7
32.140,-0.73
32.156,-2.37
32.171,-2.13
32.187,-0.04
32.203,2.72
32.218,4.58
32.234,4.46
32.250,2.37
32.265,-0.5
32.281,-2.54
32.296,-2.61
32.312,-0.76
32.328,1.8
32.343,3.46
32.359,3.1
32.375,0.78
32.390,-2.29
32.406,-4.45
32.421,-4.61
32.437,-2.83
32.453,-0.39
32.468,1.09
32.484,0.57
32.500,-1.78
32.515,-4.6
32.531,-6.22
32.546,-5.58
32.562,-2.9
32.578,0.43
32.593,2.69
32.609,2.77
32.625,0.9
32.640,-1.58
32.656,-3.07
32.671,-2.61
32.687,-0.5
32.703,1.95
32.718,3.29
32.734,2.73
32.750,0.7
32.765,-1.47
32.781,-2.39
32.796,-1.36
32.812,1.16
32.828,3.8
32.843,5.19
32.859,4.62
32.875,2.51
32.890,0.13
32.906,-1.16
32.921,-0.67
32.937,1.23
32.953,3.26
32.968,4.07
32.984,2.92
33.000,0.27
33.015,-2.57
33.031,-4.14
33.046,-3.65
33.062,-1.48
33.078,0.96
33.093,2.15
33.109,1.2
33.125,-1.53
33.140,-4.62
33.156,-6.48
33.171,-6.11
33.187,-3.74
33.203,-0.7
33.218,1.47
33.234,1.73
33.250,0.28
33.265,-1.71
33.281,-2.71
33.296,-1.85
33.312,0.65
33.328,3.52
33.343,5.26
33.359,4.98
33.375,2.92
33.390,0.37
33.406,-1.23
33.421,-1.0
33.437,0.72
33.453,2.67
33.468,3.4
33.484,2.18
33.500,-0.54
33.515,-3.37
33.531,-4.79
33.546,-4.04
33.562,-1.55
33.578,1.3
33.593,2.98
33.609,2.67
33.625,0.73
33.640,-1.52
33.656,-2.63
33.671,-1.82
33.687,0.51
33.703,3.0
33.718,4.16
33.734,3.24
33.750,0.68
33.765,-2.11
33.781,-3.57
33.796,-2.95
33.812,-0.64
33.828,1.93
33.843,3.3
33.859,2.73
33.875,0.69
33.890,-1.45
33.906,-2.31
33.921,-1.26
33.937,1.09
33.953,3.36
33.968,4.12
33.984,2.77
34.000,-0.05
34.015,-2.9
34.031,-4.34
34.046,-3.73
34.062,-1.62
34.078,0.56
34.093,1.48
34.109,0.55
34.125,-1.63
34.140,-3.66
34.156,-4.16
34.171,-2.64
34.187,0.27
34.203,3.13
34.218,4.53
34.234,3.86
34.250,1.7
34.265,-0.62
34.281,-1.8
34.296,-1.28
34.312,0.41
34.328,2.03
34.343,2.4
34.359,1.05
34.375,-1.36
34.390,-3.52
34.406,-4.22
34.421,-3.02
34.437,-0.62
34.453,1.55
34.468,2.2
34.484,0.8
34.500,-1.99
34.515,-4.67
34.531,-5.79
34.546,-4.71
34.562,-2.02
34.578,0.87
34.593,2.58
34.609,2.53
34.625,1.27
34.640,0.08
34.656,0.17
34.671,1.89
34.687,4.54
34.703,6.7
34.718,7.12
34.734,5.45
34.750,2.49
34.765,-0.29
34.781,-1.57
34.796,-0.87
34.812,1.11
34.828,2.97
34.843,3.46
34.859,2.05
34.875,-0.55
34.890,-2.94
34.906,-3.79
34.921,-2.52
34.937,0.19
34.953,2.87
34.968,4.04
34.984,3.05
35.000,0.45
35.015,-2.33
35.031,-3.76
35.046,-3.09
35.062,-0.8
35.078,1.69
35.093,2.84
35.109,1.89
35.125,-0.64
35.140,-3.3
35.156,-4.58
35.171,-3.75
35.187,-1.36
35.203,1.13
35.218,2.25
35.234,1.34
35.250,-0.97
35.265,-3.25
35.281,-4.1
35.296,-2.97
35.312,-0.54
35.328,1.72
35.343,2.47
35.359,1.25
35.375,-1.14
35.390,-3.17
35.406,-3.52
35.421,-1.77
35.437,1.25
35.453,3.92
35.468,4.82
35.484,3.51
35.500,0.79
35.515,-1.78
35.531,-2.77
35.546,-1.7
35.562,0.68
35.578,2.89
35.593,3.57
35.609,2.3
35.625,-0.16
35.640,-2.35
35.656,-3.01
35.671,-1.78
35.687,0.58
35.703,2.63
35.718,3.14
35.734,1.77
35.750,-0.63
35.765,-2.66
35.781,-3.12
35.796,-1.71
35.812,0.71
35.828,2.68
35.843,2.95
35.859,1.22
35.875,-1.59
35.890,-3.88
35.906,-4.31
35.921,-2.51
35.937,0.62
35.953,3.41
35.968,4.38
35.984,3.05
36.000,0.25
36.015,-2.41
36.031,-3.45
36.046,-2.31
36.062,0.27
36.078,2.75
36.093,3.72
36.109,2.62
36.125,0.15
36.140,-2.24
36.156,-3.2
36.171,-2.3
36.187,-0.22
36.203,1.64
36.218,2.06
36.234,0.68
36.250,-1.71
36.265,-3.65
36.281,-3.9
36.296,-2.18
36.312,0.59
36.328,2.91
36.343,3.44
36.359,1.89
36.375,-0.86
36.390,-3.34
36.406,-4.24
36.421,-3.27
36.437,-1.24
36.453,0.42
36.468,0.57
36.484,-1.01
36.500,-3.42
36.515,-5.17
36.531,-5.13
36.546,-3.11
36.562,-0.1
36.578,2.35
36.593,3.01
36.609,1.62
36.625,-0.86
36.640,-2.89
36.656,-3.18
36.671,-1.45
36.687,1.39
36.703,3.76
36.718,4.35
36.734,2.88
36.750,0.27
36.765,-1.9
36.781,-2.29
36.796,-0.6
36.812,2.24
36.828,4.66
36.843,5.33
36.859,3.9
36.875,1.3
36.890,-0.96
36.906,-1.59
36.921,-0.31
36.937,1.95
36.953,3.68
36.968,3.7
36.984,1.84
37.000,-0.85
37.015,-2.77
37.031,-2.7
37.046,-0.52
37.062,2.66
37.078,5.08
37.093,5.37
37.109,3.27
37.125,-0.11
37.140,-2.99
37.156,-3.88
37.171,-2.48
37.187,0.18
37.203,2.37
37.218,2.62
37.234,0.65
37.250,-2.52
37.265,-5.14
37.281,-5.8
37.296,-4.15
37.312,-1.16
37.328,1.52
37.343,2.59
37.359,1.69
37.375,-0.3
37.390,-1.94
37.406,-2.05
37.421,-0.43
37.437,1.95
37.453,3.66
37.468,3.54
37.484,1.45
37.500,-1.51
37.515,-3.72
37.531,-3.84
37.546,-1.66
37.562,1.75
37.578,4.6
37.593,5.45
37.609,3.94
37.625,1.07
37.640,-1.43
37.656,-2.14
37.671,-0.73
37.687,1.8
37.703,3.85
37.718,4.07
37.734,2.24
37.750,-0.65
37.765,-3.01
37.781,-3.63
37.796,-2.33
37.812,-0.12
37.828,1.53
37.843,1.51
37.859,-0.27
37.875,-2.75
37.890,-4.43
37.906,-4.21
37.921,-2.02
37.937,1.02
37.953,3.28
37.968,3.49
37.984,1.49
38.000,-1.63
38.015,-4.15
38.031,-4.67
38.046,-2.89
38.062,0.2
38.078,2.92
38.093,3.82
38.109,2.5
38.125,-0.11
38.140,-2.38
38.156,-2.93
38.171,-1.45
38.187,1.04
38.203,2.94
38.218,2.97
38.234,0.96
38.250,-1.95
38.265,-4.06
38.281,-4.08
38.296,-1.89
38.312,1.27
38.328,3.62
38.343,3.82
38.359,1.74
38.375,-1.39
38.390,-3.71
38.406,-3.86
38.421,-1.72
38.437,1.49
38.453,3.91
38.468,4.15
38.484,2.1
38.500,-0.97
38.515,-3.18
38.531,-3.13
38.546,-0.78
38.562,2.54
38.578,4.94
38.593,5.0
38.609,2.66
38.625,-0.76
38.640,-3.41
38.656,-3.95
38.671,-2.3
38.687,0.29
38.703,2.15
38.718,2.13
38.734,0.3
38.750,-2.08
38.765,-3.43
38.781,-2.71
38.796,-0.16
38.812,2.88
38.828,4.75
38.843,4.41
38.859,2.05
38.875,-1.01
38.890,-3.1
38.906,-3.11
38.921,-1.11
38.937,1.63
38.953,3.48
38.968,3.29
38.984,1.07
39.000,-1.95
39.015,-4.16
39.031,-4.39
39.046,-2.66
39.062,-0.14
39.078,1.62
39.093,1.53
39.109,-0.3
39.125,-2.65
39.140,-3.95
39.156,-3.19
39.171,-0.53
39.187,2.7
39.203,4.91
39.218,5.05
39.234,3.23
39.250,0.72
39.265,-0.97
39.281,-0.86
39.296,0.89
39.312,3.06
39.328,4.13
39.343,3.17
39.359,0.41
39.375,-2.82
39.390,-4.83
39.406,-4.57
39.421,-2.22
39.437,0.82
39.453,2.72
39.468,2.24
39.484,-0.53
39.500,-4.18
39.515,-6.79
39.531,-6.97
39.546,-4.65
39.562,-1.16
39.578,1.68
39.593,2.52
39.609,1.28
39.625,-0.75
39.640,-1.85
39.656,-0.82
39.671,2.16
39.687,5.56
39.703,7.48
39.718,6.67
39.734,3.3
39.750,-1.05
39.765,-4.34
39.781,-5.16
39.796,-3.49
39.812,-0.69
39.828,1.43
39.843,1.61
39.859,-0.08
39.875,-2.37
39.890,-3.6
39.906,-2.77
39.921,-0.11
39.937,3.0
39.953,4.89
39.968,4.51
39.984,2.1
40.000,-0.91
40.015,-2.83
40.031,-2.57
40.046,-0.28
40.062,2.68
40.078,4.66
40.093,4.57
40.109,2.55
40.125,-0.13
40.140,-1.86
40.156,-1.64
40.171,0.32
40.187,2.72
40.203,3.94
40.218,2.99
40.234,0.11
40.250,-3.31
40.265,-5.63
40.281,-5.76
40.296,-3.93
40.312,-1.43
40.328,0.18
40.343,-0.05
40.359,-1.84
40.375,-3.86
40.390,-4.58
40.406,-3.17
40.421,-0.09
40.437,3.11
40.453,4.74
40.468,3.91
40.484,1.08
40.500,-2.18
40.515,-4.06
40.531,-3.55
40.546,-1.01
40.562,2.03
40.578,3.82
40.593,3.36
40.609,0.97
40.625,-1.88
40.640,-3.45
40.656,-2.74
40.671,-0.1
40.687,3.0
40.703,4.81
40.718,4.3
40.734,1.79
40.750,-1.26
40.765,-3.15
40.781,-2.87
40.796,-0.71
40.812,1.9
40.828,3.37
40.843,2.8
40.859,0.55
40.875,-1.96
40.890,-3.14
40.906,-2.18
40.921,0.48
40.937,3.33
40.953,4.7
40.968,3.69
40.984,0.67
41.000,-2.84
41.015,-5.07
41.031,-4.92
41.046,-2.58
41.062,0.54
41.078,2.68
41.093,2.71
41.109,0.78
41.125,-1.77
41.140,-3.27
41.156,-2.65
41.171,-0.15
41.187,2.77
41.203,4.44
41.218,3.81
41.234,1.21
41.250,-1.86
41.265,-3.68
41.281,-3.21
41.296,-0.76
41.312,2.2
41.328,3.95
41.343,3.5
41.359,1.06
41.375,-2.0
41.390,-4.08
41.406,-4.21
41.421,-2.55
41.437,-0.28
41.453,1.2
41.468,1.01
41.484,-0.55
41.500,-2.33
41.515,-2.95
41.531,-1.66
41.546,1.14
41.562,4.08
41.578,5.6
41.593,4.81
41.609,2.09
41.625,-1.1
41.640,-3.08
41.656,-2.82
41.671,-0.58
41.687,2.2
41.703,3.84
41.718,3.34
41.734,0.94
41.750,-1.94
41.765,-3.64
41.781,-3.19
41.796,-0.87
41.812,1.93
41.828,3.59
41.843,3.2
41.859,1.06
41.875,-1.45
41.890,-2.74
41.906,-1.95
41.921,0.56
41.937,3.36
41.953,4.88
41.968,4.17
41.984,1.57
42.000,-1.5
42.015,-3.43
42.031,-3.23
42.046,-1.11
42.062,1.61
42.078,3.36
42.093,3.11
42.109,0.98
42.125,-1.79
42.140,-3.7
42.156,-3.72
42.171,-1.9
42.187,0.59
42.203,2.3
42.218,2.2
42.234,0.35
42.250,-2.18
42.265,-3.94
42.281,-3.95
42.296,-2.27
42.312,0.03
42.328,1.52
42.343,1.28
42.359,-0.53
42.375,-2.74
42.390,-3.92
42.406,-3.18
42.421,-0.76
42.437,2.07
42.453,3.87
42.468,3.7
42.484,1.85
42.500,-0.43
42.515,-1.72
42.531,-1.18
42.546,0.87
42.562,3.15
42.578,4.24
42.593,3.33
42.609,0.69
42.625,-2.4
42.640,-4.46
42.656,-4.57
42.671,-2.83
42.687,-0.41
42.703,1.24
42.718,1.08
42.734,-0.85
42.750,-3.46
42.765,-5.29
42.781,-5.24
42.796,-3.32
42.812,-0.59
42.828,1.44
42.843,1.72
42.859,0.24
42.875,-1.9
42.890,-3.14
42.906,-2.37
42.921,0.37
42.937,3.83
42.953,6.29
42.968,6.5
42.984,4.4
43.000,1.22
43.015,-1.32
43.031,-1.9
43.046,-0.39
43.062,2.07
43.078,3.87
43.093,3.82
43.109,1.87
43.125,-0.77
43.140,-2.48
43.156,-2.17
43.171,0.06
43.187,2.86
43.203,4.52
43.218,3.88
43.234,1.07
43.250,-2.55
43.265,-5.18
43.281,-5.6
43.296,-3.85
43.312,-1.19
43.328,0.67
43.343,0.59
43.359,-1.34
43.375,-3.91
43.390,-5.43
43.406,-4.82
43.421,-2.24
43.437,1.06
43.453,3.39
43.468,3.61
43.484,1.77
43.500,-0.85
43.515,-2.65
43.531,-2.48
43.546,-0.39
43.562,2.33
43.578,4.06
43.593,3.66
43.609,1.23
43.625,-1.91
43.640,-3.98
43.656,-3.81
43.671,-1.44
43.687,1.77
43.703,4.06
43.718,4.22
43.734,2.28
43.750,-0.48
43.765,-2.39
43.781,-2.29
43.796,-0.25
43.812,2.53
43.828,4.42
43.843,4.32
43.859,2.29
43.875,-0.48
43.890,-2.35
43.906,-2.25
43.921,-0.22
43.937,2.44
43.953,4.11
43.968,3.66
43.984,1.17
44.000,-2.02
44.015,-4.18
44.031,-4.11
44.046,-1.9
44.062,1.11
44.078,3.15
44.093,3.02
44.109,0.76
44.125,-2.28
44.140,-4.35
44.156,-4.26
44.171,-1.98
44.187,1.22
44.203,3.61
44.218,3.92
44.234,2.01
44.250,-0.97
44.265,-3.34
44.281,-3.76
44.296,-2.01
44.312,0.93
44.328,3.44
44.343,4.19
44.359,2.91
44.375,0.52
44.390,-1.47
44.406,-1.87
44.421,-0.5
44.437,1.65
44.453,3.06
44.468,2.63
44.484,0.32
44.500,-2.69
44.515,-4.77
44.531,-4.69
44.546,-2.4
44.562,0.89
44.578,3.45
44.593,3.96
44.609,2.24
44.625,-0.6
44.640,-2.89
44.656,-3.33
44.671,-1.7
44.687,0.95
44.703,3.01
44.718,3.2
44.734,1.31
44.750,-1.6
44.765,-3.9
44.781,-4.31
44.796,-2.61
44.812,0.18
44.828,2.45
44.843,2.94
44.859,1.44
44.875,-1.04
44.890,-2.94
44.906,-2.98
44.921,-0.97
44.937,2.01
44.953,4.31
44.968,4.61
44.984,2.65
45.000,-0.48
45.015,-3.06
45.031,-3.69
45.046,-2.08
45.062,0.73
45.078,3.02
45.093,3.4
45.109,1.55
45.125,-1.48
45.140,-3.98
45.156,-4.53
45.171,-2.85
45.187,0.05
45.203,2.5
45.218,3.17
45.234,1.77
45.250,-0.71
45.265,-2.7
45.281,-2.94
45.296,-1.24
45.312,1.37
45.328,3.36
45.343,3.49
45.359,1.62
45.375,-1.21
45.390,-3.36
45.406,-3.58
45.421,-1.61
45.437,1.49
45.453,4.1
45.468,4.86
45.484,3.41
45.500,0.73
45.515,-1.56
45.531,-2.09
45.546,-0.53
45.562,2.17
45.578,4.34
45.593,4.56
45.609,2.48
45.625,-0.94
45.640,-3.97
45.656,-5.12
45.671,-3.89
45.687,-1.11
45.703,1.65
45.718,2.94
45.734,2.24
45.750,0.28
45.765,-1.53
45.781,-1.91
45.796,-0.51
45.812,1.87
45.828,3.83
45.843,4.14
45.859,2.51
45.875,-0.21
45.890,-2.54
45.906,-3.27
45.921,-2.09
45.937,0.14
45.953,1.93
45.968,2.11
45.984,0.39
46.000,-2.26
46.015,-4.35
46.031,-4.64
46.046,-2.88
46.062,-0.02
46.078,2.39
46.093,3.08
46.109,1.77
46.125,-0.64
46.140,-2.6
46.156,-2.84
46.171,-1.04
46.187,1.93
46.203,4.48
46.218,5.27
46.234,3.84
46.250,0.99
46.265,-1.75
46.281,-2.95
46.296,-2.11
46.312,0.1
46.328,2.21
46.343,2.83
46.359,1.44
46.375,-1.27
46.390,-3.79
46.406,-4.74
46.421,-3.5
46.437,-0.75
46.453,2.04
46.468,3.46
46.484,2.85
46.500,0.79
46.515,-1.43
46.531,-2.52
46.546,-1.94
46.562,-0.22
46.578,1.4
46.593,1.77
46.609,0.5
46.625,-1.76
46.640,-3.66
46.656,-4.05
46.671,-2.57
46.687,0.04
46.703,2.39
46.718,3.18
46.734,1.97
46.750,-0.56
46.765,-3.06
46.781,-4.21
46.796,-3.46
46.812,-1.38
46.828,0.76
46.843,1.68
46.859,0.81
46.875,-1.32
46.890,-3.48
46.906,-4.39
46.921,-3.45
46.937,-1.12
46.953,1.33
46.968,2.66
46.984,2.23
47.000,0.51
47.015,-1.25
47.031,-1.8
47.046,-0.64
47.062,1.7
47.078,3.88
47.093,4.61
47.109,3.38
47.125,0.82
47.140,-1.7
47.156,-2.84
47.171,-2.04
47.187,0.15
47.203,2.4
47.218,3.43
47.234,2.72
47.250,0.8
47.265,-1.03
47.281,-1.55
47.296,-0.26
47.312,2.26
47.328,4.7
47.343,5.76
47.359,4.84
47.375,2.4
47.390,-0.33
47.406,-2.03
47.421,-1.96
47.437,-0.41
47.453,1.49
47.468,2.52
47.484,1.91
47.500,-0.04
47.515,-2.27
47.531,-3.53
47.546,-3.13
47.562,-1.38
47.578,0.51
47.593,1.24
47.609,0.09
47.625,-2.49
47.640,-5.13
47.656,-6.31
47.671,-5.22
47.687,-2.29
47.703,0.99
47.718,2.94
47.734,2.61
47.750,0.32
47.765,-2.47
47.781,-4.01
47.796,-3.34
47.812,-0.74
47.828,2.3
47.843,4.1
47.859,3.64
47.875,1.26
47.890,-1.56
47.906,-3.11
47.921,-2.38
47.937,0.31
47.953,3.52
47.968,5.53
47.984,5.27
48.000,3.01
48.015,0.08
48.031,-1.87
48.046,-1.87
48.062,-0.15
48.078,2.01
48.093,3.11
48.109,2.28
48.125,-0.16
48.140,-2.88
48.156,-4.37
48.171,-3.75
48.187,-1.35
48.203,1.48
48.218,3.15
48.234,2.74
48.250,0.5
48.265,-2.23
48.281,-3.91
48.296,-3.54
48.312,-1.33
48.328,1.41
48.343,3.14
48.359,2.87
48.375,0.79
48.390,-1.87
48.406,-3.59
48.421,-3.39
48.437,-1.42
48.453,1.14
48.468,2.81
48.484,2.59
48.500,0.59
48.515,-2.08
48.531,-3.95
48.546,-3.99
48.562,-2.22
48.578,0.31
48.593,2.19
48.609,2.37
48.625,0.86
48.640,-1.32
48.656,-2.74
48.671,-2.36
48.687,-0.22
48.703,2.52
48.718,4.31
48.734,4.07
48.750,1.88
48.765,-0.94
48.781,-2.75
48.796,-2.44
48.812,-0.15
48.828,2.74
48.843,4.48
48.859,3.92
48.875,1.24
48.890,-2.13
48.906,-4.4
48.921,-4.35
48.937,-2.05
48.953,1.15
48.968,3.51
48.984,3.79
49.000,1.97
49.015,-0.75
49.031,-2.75
49.046,-2.87
49.062,-1.07
49.078,1.48
49.093,3.21
49.109,2.95
49.125,0.75
49.140,-2.16
49.156,-4.11
49.171,-3.9
49.187,-1.56
49.203,1.62
49.218,3.91
49.234,4.07
49.250,2.05
49.265,-0.88
49.281,-3.01
49.296,-3.11
49.312,-1.11
49.328,1.79
49.343,3.94
49.359,4.08
49.375,2.15
49.390,-0.69
49.406,-2.81
49.421,-2.97
49.437,-1.12
49.453,1.58
49.468,3.43
49.484,3.21
49.500,0.9
49.515,-2.27
49.531,-4.52
49.546,-4.56
49.562,-2.31
49.578,1.01
49.593,3.64
49.609,4.27
49.625,2.72
49.640,0.09
49.656,-2.05
49.671,-2.53
49.687,-1.23
49.703,0.84
49.718,2.19
49.734,1.77
49.750,-0.42
49.765,-3.23
49.781,-5.09
49.796,-4.88
49.812,-2.56
49.828,0.68
49.843,3.16
49.859,3.63
49.875,1.92
49.890,-0.89
49.906,-3.2
49.921,-3.75
49.937,-2.32
49.953,0.15
49.968,2.21
49.984,2.7
50.000,1.45
50.015,-0.65
50.031,-2.22
50.046,-2.22
50.062,-0.6
50.078,1.64
50.093,3.03
50.109,2.51
50.125,0.08
50.140,-3.07
50.156,-5.32
50.171,-5.44
50.187,-3.39
50.203,-0.32
50.218,2.06
50.234,2.44
50.250,0.68
50.265,-2.04
50.281,-3.98
50.296,-3.81
50.312,-1.35
50.328,2.26
50.343,5.3
50.359,6.32
50.375,4.99
50.390,2.25
50.406,-0.24
50.421,-1.08
50.437,0.14
50.453,2.58
50.468,4.7
50.484,5.12
50.500,3.42
50.515,0.49
50.531,-2.12
50.546,-3.0
50.562,-1.69
50.578,0.92
50.593,3.29
50.609,4.0
50.625,2.67
50.640,0.19
50.656,-1.83
50.671,-2.08
50.687,-0.27
50.703,2.6
50.718,4.87
50.734,5.21
50.750,3.33
50.765,0.23
50.781,-2.46
50.796,-3.4
50.812,-2.3
50.828,-0.13
50.843,1.61
50.859,1.63
50.875,-0.33
50.890,-3.35
50.906,-5.83
50.921,-6.4
50.937,-4.7
50.953,-1.6
50.968,1.31
50.984,2.59
51.000,1.73
51.015,-0.54
51.031,-2.68
51.046,-3.35
51.062,-2.06
51.078,0.42
51.093,2.59
51.109,3.15
51.125,1.67
51.140,-1.02
51.156,-3.39
51.171,-4.08
51.187,-2.69
51.203,0.01
51.218,2.5
51.234,3.4
51.250,2.29
51.265,-0.05
51.281,-2.12
51.296,-2.6
51.312,-1.04
51.328,1.72
51.343,4.18
51.359,4.97
51.375,3.65
51.390,1.02
51.406,-1.39
51.421,-2.25
51.437,-1.13
51.453,1.18
51.468,3.19
51.484,3.6
51.500,2.06
51.515,-0.63
51.531,-2.97
51.546,-3.68
51.562,-2.43
51.578,-0.05
51.593,1.95
51.609,2.28
51.625,0.6
51.640,-2.21
51.656,-4.66
51.671,-5.42
51.687,-4.08
51.703,-1.39
51.718,1.21
51.734,2.46
51.750,1.91
51.765,0.26
51.781,-1.17
51.796,-1.28
51.812,0.26
51.828,2.65
51.843,4.47
51.859,4.56
51.875,2.56
51.890,-0.69
51.906,-3.62
51.921,-4.88
51.937,-3.9
51.953,-1.36
51.968,1.33
51.984,2.81
52.000,2.5
52.015,0.94
52.031,-0.58
52.046,-0.89
52.062,0.41
52.078,2.64
52.093,4.4
52.109,4.48
52.125,2.51
52.140,-0.73
52.156,-3.74
52.171,-5.18
52.187,-4.54
52.203,-2.51
52.218,-0.48
52.234,0.28
52.250,-0.72
52.265,-2.77
52.281,-4.51
52.296,-4.69
52.312,-2.94
52.328,-0.02
52.343,2.6
52.359,3.65
52.375,2.69
52.390,0.42
52.406,-1.75
52.421,-2.56
52.437,-1.58
52.453,0.53
52.468,2.45
52.484,2.97
52.500,1.72
52.515,-0.6
52.531,-2.64
52.546,-3.18
52.562,-1.78
52.578,0.86
52.593,3.32
52.609,4.3
52.625,3.24
52.640,0.76
52.656,-1.74
52.671,-2.9
52.687,-2.11
52.703,0.08
52.718,2.28
52.734,3.18
52.750,2.22
52.765,0.03
52.781,-1.98
52.796,-2.51
52.812,-1.07
52.828,1.59
52.843,3.97
52.859,4.71
52.875,3.31
52.890,0.47
52.906,-2.35
52.921,-3.75
52.937,-3.13
52.953,-1.08
52.968,1.07
52.984,2.0
53.000,1.15
53.015,-0.93
53.031,-2.91
53.046,-3.5
53.062,-2.11
53.078,0.71
53.093,3.59
53.109,5.12
53.125,4.56
53.140,2.35
53.156,-0.21
53.171,-1.75
53.187,-1.48
53.203,0.25
53.218,2.23
53.234,3.14
53.250,2.28
53.265,0.02
53.281,-2.45
53.296,-3.84
53.312,-3.5
53.328,-1.84
53.343,-0.05
53.359,0.67
53.375,-0.24
53.390,-2.24
53.406,-4.09
53.421,-4.57
53.437,-3.17
53.453,-0.51
53.468,2.08
53.484,3.29
53.500,2.57
53.515,0.5
53.531,-1.61
53.546,-2.41
53.562,-1.32
53.578,1.09
53.593,3.44
53.609,4.38
53.625,3.29
53.640,0.73
53.656,-1.86
53.671,-3.09
53.687,-2.28
53.703,0.01
53.718,2.39
53.734,3.43
53.750,2.49
53.765,0.06
53.781,-2.55
53.796,-4.01
53.812,-3.69
53.828,-2.09
53.843,-0.45
53.859,0.02
53.875,-1.19
53.890,-3.51
53.906,-5.63
53.921,-6.24
53.937,-4.79
53.953,-1.85
53.968,1.2
53.984,2.98
54.000,2.84
54.015,1.33
54.031,-0.22
54.046,-0.52
54.062,1.02
54.078,3.76
54.093,6.27
54.109,7.16
54.125,5.85
54.140,2.95
54.156,-0.03
54.171,-1.59
54.187,-1.02
54.203,1.22
54.218,3.71
54.234,4.94
54.250,4.13
54.265,1.63
54.281,-1.28
54.296,-3.14
54.312,-3.1
54.328,-1.46
54.343,0.57
54.359,1.68
54.375,1.17
54.390,-0.53
54.406,-2.17
54.421,-2.49
54.437,-0.97
54.453,1.77
54.468,4.25
54.484,5.09
54.500,3.71
54.515,0.8
54.531,-2.15
54.546,-3.71
54.562,-3.31
54.578,-1.57
54.593,0.11
54.609,0.44
54.625,-1.03
54.640,-3.54
54.656,-5.66
54.671,-6.04
54.687,-4.27
54.703,-1.16
54.718,1.68
54.734,2.78
54.750,1.6
54.765,-1.09
54.781,-3.69
54.796,-4.73
54.812,-3.59
54.828,-0.91
54.843,1.82
54.859,3.2
54.875,2.62
54.890,0.65
54.906,-1.36
54.921,-2.04
54.937,-0.84
54.953,1.67
54.968,4.13
54.984,5.23
55.000,4.39
55.015,2.18
55.031,-0.09
55.046,-1.14
55.062,-0.42
55.078,1.48
55.093,3.2
55.109,3.48
55.125,1.82
55.140,-1.12
55.156,-3.88
55.171,-5.13
55.187,-4.27
55.203,-1.92
55.218,0.51
55.234,1.69
55.250,0.98
55.265,-1.02
55.281,-2.94
55.296,-3.39
55.312,-1.82
55.328,1.21
55.343,4.2
55.359,5.68
55.375,4.99
55.390,2.65
55.406,0.1
55.421,-1.21
55.437,-0.56
55.453,1.49
55.468,3.56
55.484,4.22
55.500,2.87
55.515,0.11
55.531,-2.62
55.546,-3.89
55.562,-3.11
55.578,-0.87
55.593,1.37
55.609,2.21
55.625,1.1
55.640,-1.31
55.656,-3.55
55.671,-4.25
55.687,-2.85
55.703,-0.04
55.718,2.66
55.734,3.78
55.750,2.66
55.765,-0.1
55.781,-3.03
55.796,-4.6
55.812,-4.02
55.828,-1.76
55.843,0.82
55.859,2.22
55.875,1.63
55.890,-0.5
55.906,-2.84
55.921,-3.92
55.937,-2.95
55.953,-0.39
55.968,2.38
55.984,3.9
56.000,3.42
56.015,1.34
56.031,-1.02
56.046,-2.29
56.062,-1.76
56.078,0.14
56.093,2.13
56.109,2.87
56.125,1.71
56.140,-0.86
56.156,-3.5
56.171,-4.81
56.187,-4.08
56.203,-1.81
56.218,0.65
56.234,1.88
56.250,1.15
56.265,-1.01
56.281,-3.24
56.296,-4.09
56.312,-2.92
56.328,-0.23
56.343,2.57
56.359,4.1
56.375,3.73
56.390,1.95
56.406,0.07
56.421,-0.65
56.437,0.29
56.453,2.34
56.468,4.18
56.484,4.61
56.500,3.16
56.515,0.47
56.531,-2.15
56.546,-3.38
56.562,-2.71
56.578,-0.68
56.593,1.37
56.609,2.14
56.625,1.08
56.640,-1.24
56.656,-3.45
56.671,-4.25
56.687,-3.05
56.703,-0.46
56.718,2.02
56.734,2.98
56.750,1.78
56.765,-0.92
56.781,-3.59
56.796,-4.68
56.812,-3.47
56.828,-0.53
56.843,2.6
56.859,4.31
56.875,3.82
56.890,1.58
56.906,-0.97
56.921,-2.28
56.937,-1.51
56.953,0.92
56.968,3.65
56.984,5.2
57.000,4.69
57.015,2.45
57.031,-0.22
57.046,-1.88
57.062,-1.67
57.078,0.05
57.093,2.0
57.109,2.73
57.125,1.51
57.140,-1.21
57.156,-3.98
57.171,-5.31
57.187,-4.47
57.203,-1.94
57.218,0.78
57.234,2.18
57.250,1.46
57.265,-0.87
57.281,-3.34
57.296,-4.42
57.312,-3.38
57.328,-0.69
57.343,2.27
57.359,3.96
57.375,3.6
57.390,1.54
57.406,-0.92
57.421,-2.32
57.437,-1.8
57.453,0.34
57.468,2.82
57.484,4.21
57.500,3.61
57.515,1.29
57.531,-1.51
57.546,-3.3
57.562,-3.13
57.578,-1.2
57.593,1.26
57.609,2.73
57.625,2.23
57.640,-0.07
57.656,-2.89
57.671,-4.68
57.687,-4.42
57.703,-2.26
57.718,0.56
57.734,2.48
57.750,2.5
57.765,0.84
57.781,-1.26
57.796,-2.27
57.812,-1.31
57.828,1.28
57.843,4.03
57.859,5.33
57.875,4.29
57.890,1.33
57.906,-2.02
57.921,-4.01
57.937,-3.69
57.953,-1.4
57.968,1.36
57.984,2.95
58.000,2.42
58.015,0.17
58.031,-2.39
58.046,-3.74
58.062,-3.06
58.078,-0.74
58.093,1.83
58.109,3.16
58.125,2.51
58.140,0.27
58.156,-2.19
58.171,-3.41
58.187,-2.55
58.203,-0.02
58.218,2.85
58.234,4.56
58.250,4.14
58.265,1.88
58.281,-0.96
58.296,-2.87
58.312,-2.88
58.328,-1.15
58.343,1.15
58.359,2.58
58.375,2.29
58.390,0.48
58.406,-1.61
58.421,-2.56
58.437,-1.46
58.453,1.4
58.468,4.63
58.484,6.56
58.500,6.08
58.515,3.36
58.531,-0.25
58.546,-3.0
58.562,-3.65
58.578,-2.16
58.593,0.29
58.609,2.07
58.625,2.01
58.640,0.15
58.656,-2.33
58.671,-3.91
58.687,-3.53
58.703,-1.31
58.718,1.51
58.734,3.39
58.750,3.25
58.765,1.19
58.781,-1.6
58.796,-3.62
58.812,-3.84
58.828,-2.3
58.843,-0.12
58.859,1.3
58.875,1.02
58.890,-0.84
58.906,-3.17
58.921,-4.62
58.937,-4.34
58.953,-2.52
58.968,-0.27
58.984,1.05
59.000,0.66
59.015,-1.19
59.031,-3.29
59.046,-4.28
59.062,-3.32
59.078,-0.68
59.093,2.4
59.109,4.47
59.125,4.6
59.140,2.91
59.156,0.55
59.171,-1.02
59.187,-0.82
59.203,1.1
59.218,3.58
59.234,5.17
59.250,4.82
59.265,2.58
59.281,-0.42
59.296,-2.64
59.312,-2.94
59.328,-1.23
59.343,1.41
59.359,3.43
59.375,3.62
59.390,1.8
59.406,-1.03
59.421,-3.34
59.437,-3.92
59.453,-2.54
59.468,-0.15
59.484,1.8
59.500,2.14
59.515,0.67
59.531,-1.67
59.546,-3.47
59.562,-3.59
59.578,-1.89
59.593,0.68
59.609,2.71
59.625,3.09
59.640,1.72
59.656,-0.48
59.671,-2.11
59.687,-2.11
59.703,-0.38
59.718,2.09
59.734,3.87
59.750,3.86
59.765,1.93
59.781,-0.95
59.796,-3.28
59.812,-3.91
59.828,-2.66
59.843,-0.48
59.859,1.2
59.875,1.26
59.890,-0.41
59.906,-2.81
59.921,-4.48
59.937,-4.29
59.953,-2.14
59.968,0.89
59.984,3.22
