timestamp,value
00.000,-10.59
00.015,-13.46
00.031,-16.05
00.046,-18.32
00.062,-20.37
00.078,-22.54
00.093,-25.11
00.109,-28.25
00.125,-31.87
00.140,-35.67
00.156,-39.2
00.171,-41.94
00.187,-43.47
00.203,-43.46
00.218,-41.76
00.234,-38.46
00.250,-33.9
00.265,-28.63
00.281,-23.24
00.296,-18.19
00.312,-13.71
00.328,-9.67
00.343,-5.78
00.359,-1.77
00.375,2.49
00.390,6.9
00.406,11.18
00.421,15.03
00.437,18.22
00.453,20.64
00.468,22.34
00.484,23.49
00.500,24.29
00.515,24.93
00.531,25.58
00.546,26.26
00.562,26.91
00.578,27.39
00.593,27.53
00.609,27.21
00.625,26.38
00.640,25.07
00.656,23.45
00.671,21.73
00.687,20.12
00.703,18.75
00.718,17.55
00.734,16.34
00.750,14.9
00.765,13.12
00.781,11.02
00.796,8.78
00.812,6.55
00.828,4.38
00.843,2.22
00.859,-0.06
00.875,-2.47
00.890,-4.93
00.906,-7.26
00.921,-9.34
00.937,-11.2
00.953,-12.99
00.968,-14.95
00.984,-17.2
01.000,-19.75
01.015,-22.49
01.031,-25.29
01.046,-28.13
01.062,-31.12
01.078,-34.34
01.093,-37.7
01.109,-40.84
01.125,-43.15
01.140,-43.97
01.156,-42.89
01.171,-39.95
01.187,-35.59
01.203,-30.55
01.218,-25.47
01.234,-20.7
01.250,-16.24
01.265,-11.84
01.281,-7.27
01.296,-2.46
01.312,2.44
01.328,7.2
01.343,11.61
01.359,15.58
01.375,19.09
01.390,22.12
01.406,24.64
01.421,26.57
01.437,27.86
01.453,28.52
01.468,28.68
01.484,28.5
01.500,28.14
01.515,27.74
01.531,27.37
01.546,27.03
01.562,26.66
01.578,26.21
01.593,25.58
01.609,24.71
01.625,23.55
01.640,22.09
01.656,20.41
01.671,18.61
01.687,16.8
01.703,15.03
01.718,13.27
01.734,11.48
01.750,9.61
01.765,7.69
01.781,5.81
01.796,4.07
01.812,2.56
01.828,1.24
01.843,0.07
01.859,-1.04
01.875,-2.09
01.890,-3.05
01.906,-3.88
01.921,-4.63
01.937,-5.45
01.953,-6.59
01.968,-8.34
01.984,-10.88
02.000,-14.28
02.015,-18.47
02.031,-23.24
02.046,-28.21
02.062,-32.86
02.078,-36.65
02.093,-39.12
02.109,-40.0
02.125,-39.24
02.140,-37.07
02.156,-33.81
02.171,-29.79
02.187,-25.22
02.203,-20.22
02.218,-14.91
02.234,-9.44
02.250,-4.04
02.265,1.08
02.281,5.77
02.296,10.04
02.312,13.94
02.328,17.51
02.343,20.69
02.359,23.29
02.375,25.12
02.390,26.1
02.406,26.33
02.421,26.11
02.437,25.79
02.453,25.62
02.468,25.68
02.484,25.87
02.500,26.03
02.515,26.07
02.531,25.97
02.546,25.73
02.562,25.29
02.578,24.46
02.593,22.97
02.609,20.63
02.625,17.53
02.640,14.04
02.656,10.66
02.671,7.81
02.687,5.66
02.703,4.05
02.718,2.71
02.734,1.4
02.750,0.02
02.765,-1.38
02.781,-2.78
02.796,-4.24
02.812,-5.95
02.828,-8.07
02.843,-10.61
02.859,-13.37
02.875,-15.99
02.890,-18.17
02.906,-19.78
02.921,-20.97
02.937,-22.09
02.953,-23.5
02.968,-25.46
02.984,-28.02
03.000,-31.09
03.015,-34.47
03.031,-37.96
03.046,-41.37
03.062,-44.5
03.078,-47.12
03.093,-48.93
03.109,-49.57
03.125,-48.73
03.140,-46.29
03.156,-42.37
03.171,-37.34
03.187,-31.7
03.203,-25.91
03.218,-20.2
03.234,-14.59
03.250,-8.97
03.265,-3.3
03.281,2.3
03.296,7.56
03.312,12.14
03.328,15.82
03.343,18.56
03.359,20.42
03.375,21.55
03.390,22.1
03.406,22.24
03.421,22.19
03.437,22.19
03.453,22.43
03.468,23.02
03.484,23.84
03.500,24.69
03.515,25.3
03.531,25.48
03.546,25.23
03.562,24.63
03.578,23.83
03.593,22.98
03.609,22.11
03.625,21.18
03.640,20.15
03.656,18.93
03.671,17.47
03.687,15.82
03.703,14.0
03.718,12.06
03.734,10.05
03.750,8.0
03.765,5.91
03.781,3.79
03.796,1.61
03.812,-0.65
03.828,-3.02
03.843,-5.5
03.859,-8.04
03.875,-10.62
03.890,-13.2
03.906,-15.79
03.921,-18.44
03.937,-21.22
03.953,-24.17
03.968,-27.32
03.984,-30.64
04.000,-33.94
04.015,-36.9
04.031,-39.02
04.046,-39.78
04.062,-38.79
04.078,-35.95
04.093,-31.57
04.109,-26.26
04.125,-20.77
04.140,-15.6
04.156,-10.95
04.171,-6.69
04.187,-2.54
04.203,1.68
04.218,5.99
04.234,10.17
04.250,13.91
04.265,16.97
04.281,19.23
04.296,20.73
04.312,21.65
04.328,22.24
04.343,22.75
04.359,23.37
04.375,24.18
04.390,25.12
04.406,25.97
04.421,26.47
04.437,26.48
04.453,26.01
04.468,25.25
04.484,24.44
04.500,23.73
04.515,23.08
04.531,22.37
04.546,21.45
04.562,20.31
04.578,19.09
04.593,17.93
04.609,16.89
04.625,15.86
04.640,14.64
04.656,13.07
04.671,11.08
04.687,8.79
04.703,6.36
04.718,3.88
04.734,1.36
04.750,-1.23
04.765,-3.92
04.781,-6.63
04.796,-9.23
04.812,-11.58
04.828,-13.59
04.843,-15.32
04.859,-16.95
04.875,-18.75
04.890,-21.03
04.906,-24.01
04.921,-27.73
04.937,-32.02
04.953,-36.44
04.968,-40.39
04.984,-43.26
05.000,-44.56
05.015,-44.05
05.031,-41.86
05.046,-38.37
05.062,-34.09
05.078,-29.5
05.093,-24.88
05.109,-20.31
05.125,-15.73
05.140,-11.0
05.156,-6.08
05.171,-1.03
05.187,3.95
05.203,8.61
05.218,12.74
05.234,16.21
05.250,19.04
05.265,21.38
05.281,23.4
05.296,25.23
05.312,26.84
05.328,28.13
05.343,28.98
05.359,29.35
05.375,29.3
05.390,28.97
05.406,28.51
05.421,28.0
05.437,27.42
05.453,26.69
05.468,25.73
05.484,24.54
05.500,23.24
05.515,21.97
05.531,20.88
05.546,19.98
05.562,19.21
05.578,18.38
05.593,17.32
05.609,15.88
05.625,14.09
05.640,12.07
05.656,10.0
05.671,8.03
05.687,6.17
05.703,4.34
05.718,2.4
05.734,0.26
05.750,-2.11
05.765,-4.63
05.781,-7.18
05.796,-9.66
05.812,-12.02
05.828,-14.28
05.843,-16.52
05.859,-18.85
05.875,-21.41
05.890,-24.37
05.906,-27.87
05.921,-31.91
05.937,-36.28
05.953,-40.48
05.968,-43.91
05.984,-45.95
06.000,-46.25
06.015,-44.76
06.031,-41.74
06.046,-37.61
06.062,-32.86
06.078,-27.88
06.093,-22.96
06.109,-18.28
06.125,-13.85
06.140,-9.57
06.156,-5.28
06.171,-0.8
06.187,3.93
06.203,8.83
06.218,13.65
06.234,18.01
06.250,21.52
06.265,23.88
06.281,24.98
06.296,24.99
06.312,24.28
06.328,23.41
06.343,22.88
06.359,23.0
06.375,23.74
06.390,24.78
06.406,25.72
06.421,26.27
06.437,26.34
06.453,26.05
06.468,25.53
06.484,24.85
06.500,23.99
06.515,22.88
06.531,21.54
06.546,20.1
06.562,18.73
06.578,17.55
06.593,16.5
06.609,15.43
06.625,14.16
06.640,12.61
06.656,10.9
06.671,9.18
06.687,7.56
06.703,5.95
06.718,4.13
06.734,1.87
06.750,-0.89
06.765,-3.97
06.781,-7.07
06.796,-9.81
06.812,-12.05
06.828,-13.86
06.843,-15.51
06.859,-17.35
06.875,-19.64
06.890,-22.5
06.906,-25.87
06.921,-29.55
06.937,-33.28
06.953,-36.72
06.968,-39.47
06.984,-41.08
07.000,-41.16
07.015,-39.52
07.031,-36.28
07.046,-31.86
07.062,-26.91
07.078,-22.04
07.093,-17.65
07.109,-13.77
07.125,-10.19
07.140,-6.61
07.156,-2.85
07.171,1.05
07.187,4.85
07.203,8.27
07.218,11.13
07.234,13.44
07.250,15.33
07.265,16.91
07.281,18.23
07.296,19.28
07.312,20.04
07.328,20.58
07.343,21.02
07.359,21.5
07.375,22.09
07.390,22.74
07.406,23.3
07.421,23.65
07.437,23.68
07.453,23.38
07.468,22.8
07.484,21.99
07.500,21.07
07.515,20.13
07.531,19.23
07.546,18.31
07.562,17.27
07.578,15.9
07.593,14.08
07.609,11.89
07.625,9.54
07.640,7.3
07.656,5.38
07.671,3.8
07.687,2.4
07.703,0.96
07.718,-0.71
07.734,-2.68
07.750,-4.96
07.765,-7.49
07.781,-10.24
07.796,-13.12
07.812,-16.07
07.828,-18.99
07.843,-21.91
07.859,-24.9
07.875,-28.08
07.890,-31.54
07.906,-35.22
07.921,-38.86
07.937,-42.01
07.953,-44.15
07.968,-44.78
07.984,-43.68
08.000,-40.84
08.015,-36.59
08.031,-31.43
08.046,-25.96
08.062,-20.69
08.078,-15.94
08.093,-11.79
08.109,-8.07
08.125,-4.52
08.140,-0.83
08.156,3.14
08.171,7.38
08.187,11.71
08.203,15.78
08.218,19.29
08.234,21.99
08.250,23.8
08.265,24.81
08.281,25.21
08.296,25.26
08.312,25.19
08.328,25.24
08.343,25.46
08.359,25.84
08.375,26.21
08.390,26.35
08.406,26.1
08.421,25.37
08.437,24.19
08.453,22.68
08.468,21.03
08.484,19.4
08.500,17.93
08.515,16.63
08.531,15.48
08.546,14.35
08.562,13.12
08.578,11.66
08.593,9.91
08.609,7.93
08.625,5.82
08.640,3.77
08.656,1.87
08.671,0.13
08.687,-1.61
08.703,-3.56
08.718,-5.93
08.734,-8.81
08.750,-12.07
08.765,-15.44
08.781,-18.56
08.796,-21.17
08.812,-23.29
08.828,-25.21
08.843,-27.37
08.859,-30.13
08.875,-33.55
08.890,-37.31
08.906,-40.77
08.921,-43.21
08.937,-44.04
08.953,-43.05
08.968,-40.37
08.984,-36.5
09.000,-32.01
09.015,-27.45
09.031,-23.11
09.046,-19.07
09.062,-15.21
09.078,-11.36
09.093,-7.34
09.109,-3.14
09.125,1.15
09.140,5.4
09.156,9.42
09.171,13.07
09.187,16.21
09.203,18.71
09.218,20.5
09.234,21.55
09.250,22.0
09.265,22.12
09.281,22.25
09.296,22.67
09.312,23.44
09.328,24.36
09.343,25.1
09.359,25.34
09.375,25.02
09.390,24.28
09.406,23.44
09.421,22.74
09.437,22.27
09.453,21.84
09.468,21.22
09.484,20.27
09.500,19.01
09.515,17.64
09.531,16.35
09.546,15.21
09.562,14.13
09.578,12.98
09.593,11.66
09.609,10.22
09.625,8.75
09.640,7.3
09.656,5.79
09.671,4.05
09.687,1.97
09.703,-0.43
09.718,-2.99
09.734,-5.55
09.750,-8.04
09.765,-10.56
09.781,-13.34
09.796,-16.58
09.812,-20.37
09.828,-24.64
09.843,-29.13
09.859,-33.51
09.875,-37.41
09.890,-40.42
09.906,-42.2
09.921,-42.52
09.937,-41.33
09.953,-38.76
09.968,-35.13
09.984,-30.76
10.000,-26.01
10.015,-21.19
10.031,-16.52
10.046,-12.18
10.062,-8.21
10.078,-4.49
10.093,-0.8
10.109,3.08
10.125,7.24
10.140,11.47
10.156,15.4
10.171,18.65
10.187,21.02
10.203,22.64
10.218,23.78
10.234,24.73
10.250,25.56
10.265,26.09
10.281,26.06
10.296,25.34
10.312,24.06
10.328,22.66
10.343,21.66
10.359,21.38
10.375,21.82
10.390,22.63
10.406,23.32
10.421,23.42
10.437,22.67
10.453,21.07
10.468,18.77
10.484,16.06
10.500,13.21
10.515,10.42
10.531,7.84
10.546,5.51
10.562,3.42
10.578,1.55
10.593,-0.17
10.609,-1.79
10.625,-3.38
10.640,-5.07
10.656,-6.97
10.671,-9.2
10.687,-11.77
10.703,-14.58
10.718,-17.46
10.734,-20.27
10.750,-22.99
10.765,-25.75
10.781,-28.7
10.796,-31.85
10.812,-34.99
10.828,-37.69
10.843,-39.46
10.859,-39.9
10.875,-38.87
10.890,-36.47
10.906,-33.02
10.921,-28.92
10.937,-24.49
10.953,-19.95
10.968,-15.43
10.984,-10.88
11.000,-6.32
11.015,-1.77
11.031,2.66
11.046,6.86
11.062,10.7
11.078,14.17
11.093,17.25
11.109,19.88
11.125,22.01
11.140,23.46
11.156,24.14
11.171,24.1
11.187,23.56
11.203,22.92
11.218,22.54
11.234,22.58
11.250,22.95
11.265,23.35
11.281,23.42
11.296,22.99
11.312,22.07
11.328,20.88
11.343,19.7
11.359,18.65
11.375,17.65
11.390,16.51
11.406,15.04
11.421,13.23
11.437,11.23
11.453,9.28
11.468,7.52
11.484,5.93
11.500,4.33
11.515,2.51
11.531,0.34
11.546,-2.12
11.562,-4.76
11.578,-7.45
11.593,-10.13
11.609,-12.81
11.625,-15.51
11.640,-18.22
11.656,-20.9
11.671,-23.55
11.687,-26.22
11.703,-29.03
11.718,-32.0
11.734,-35.01
11.750,-37.79
11.765,-39.9
11.781,-40.95
11.796,-40.68
11.812,-39.05
11.828,-36.24
11.843,-32.53
11.859,-28.22
11.875,-23.55
11.890,-18.68
11.906,-13.75
11.921,-8.85
11.937,-4.08
11.953,0.56
11.968,5.07
11.984,9.45
12.000,13.62
12.015,17.39
12.031,20.52
12.046,22.89
12.062,24.57
12.078,25.78
12.093,26.78
12.109,27.74
12.125,28.65
12.140,29.38
12.156,29.76
12.171,29.75
12.187,29.39
12.203,28.79
12.218,28.07
12.234,27.27
12.250,26.38
12.265,25.36
12.281,24.23
12.296,23.03
12.312,21.85
12.328,20.81
12.343,19.97
12.359,19.26
12.375,18.48
12.390,17.29
12.406,15.44
12.421,12.82
12.437,9.68
12.453,6.49
12.468,3.71
12.484,1.55
12.500,-0.1
12.515,-1.6
12.531,-3.27
12.546,-5.26
12.562,-7.47
12.578,-9.64
12.593,-11.61
12.609,-13.45
12.625,-15.38
12.640,-17.67
12.656,-20.52
12.671,-23.94
12.687,-27.75
12.703,-31.69
12.718,-35.37
12.734,-38.37
12.750,-40.32
12.765,-40.89
12.781,-39.9
12.796,-37.47
12.812,-33.88
12.828,-29.59
12.843,-24.99
12.859,-20.38
12.875,-15.86
12.890,-11.42
12.906,-6.99
12.921,-2.52
12.937,1.93
12.953,6.24
12.968,10.24
12.984,13.83
13.000,16.94
13.015,19.57
13.031,21.74
13.046,23.44
13.062,24.67
13.078,25.44
13.093,25.83
13.109,25.95
13.125,26.01
13.140,26.16
13.156,26.46
13.171,26.82
13.187,27.05
13.203,26.92
13.218,26.27
13.234,25.08
13.250,23.42
13.265,21.49
13.281,19.47
13.296,17.48
13.312,15.59
13.328,13.74
13.343,11.86
13.359,9.87
13.375,7.76
13.390,5.54
13.406,3.33
13.421,1.26
13.437,-0.56
13.453,-2.1
13.468,-3.45
13.484,-4.8
13.500,-6.36
13.515,-8.28
13.531,-10.55
13.546,-13.05
13.562,-15.58
13.578,-18.03
13.593,-20.42
13.609,-22.97
13.625,-25.91
13.640,-29.39
13.656,-33.34
13.671,-37.44
13.687,-41.19
13.703,-44.07
13.718,-45.63
13.734,-45.61
13.750,-43.95
13.765,-40.8
13.781,-36.53
13.796,-31.62
13.812,-26.62
13.828,-21.95
13.843,-17.87
13.859,-14.33
13.875,-11.11
13.890,-7.98
13.906,-4.85
13.921,-1.84
13.937,0.8
13.953,2.84
13.968,4.23
13.984,5.15
14.000,5.85
14.015,6.55
14.031,7.32
14.046,8.09
14.062,8.81
14.078,9.46
14.093,10.16
14.109,11.05
14.125,12.23
14.140,13.64
14.156,15.12
14.171,16.47
14.187,17.53
14.203,18.31
14.218,18.88
14.234,19.37
14.250,19.83
14.265,20.26
14.281,20.51
14.296,20.42
14.312,19.82
14.328,18.68
14.343,17.08
14.359,15.15
14.375,13.05
14.390,10.82
14.406,8.43
14.421,5.8
14.437,2.92
14.453,-0.12
14.468,-3.18
14.484,-6.06
14.500,-8.71
14.515,-11.19
14.531,-13.64
14.546,-16.24
14.562,-19.09
14.578,-22.1
14.593,-25.02
14.609,-27.41
14.625,-28.83
14.640,-28.93
14.656,-27.59
14.671,-24.95
14.687,-21.37
14.703,-17.3
14.718,-13.13
14.734,-9.14
14.750,-5.51
14.765,-2.3
14.781,0.51
14.796,3.05
14.812,5.58
14.828,8.43
14.843,11.86
14.859,15.95
14.875,20.45
14.890,24.86
14.906,28.66
14.921,31.42
14.937,32.96
14.953,33.38
14.968,32.99
14.984,32.21
15.000,31.5
15.015,31.2
15.031,31.47
15.046,32.29
15.062,33.39
15.078,34.42
15.093,35.02
15.109,34.96
15.125,34.19
15.140,32.77
15.156,30.91
15.171,28.8
15.187,26.7
15.203,24.81
15.218,23.22
15.234,21.83
15.250,20.4
15.265,18.64
15.281,16.41
15.296,13.8
15.312,11.13
15.328,8.75
15.343,6.79
15.359,5.07
15.375,3.13
15.390,0.57
15.406,-2.8
15.421,-6.71
15.437,-10.69
15.453,-14.25
15.468,-17.17
15.484,-19.64
15.500,-22.04
15.515,-24.81
15.531,-28.22
15.546,-32.24
15.562,-36.58
15.578,-40.78
15.593,-44.38
15.609,-46.95
15.625,-48.15
15.640,-47.74
15.656,-45.62
15.671,-41.9
15.687,-36.9
15.703,-31.12
15.718,-25.18
15.734,-19.61
15.750,-14.72
15.765,-10.54
15.781,-6.81
15.796,-3.14
15.812,0.74
15.828,4.88
15.843,8.99
15.859,12.64
15.875,15.49
15.890,17.39
15.906,18.48
15.921,19.07
15.937,19.44
15.953,19.75
15.968,20.0
15.984,20.1
16.000,19.98
16.015,19.69
16.031,19.33
16.046,18.99
16.062,18.76
16.078,18.64
16.093,18.59
16.109,18.56
16.125,18.45
16.140,18.2
16.156,17.7
16.171,16.92
16.187,15.86
16.203,14.56
16.218,13.08
16.234,11.46
16.250,9.73
16.265,7.88
16.281,5.94
16.296,3.96
16.312,2.01
16.328,0.11
16.343,-1.77
16.359,-3.74
16.375,-5.93
16.390,-8.4
16.406,-11.09
16.421,-13.86
16.437,-16.51
16.453,-18.89
16.468,-20.99
16.484,-22.98
16.500,-25.1
16.515,-27.65
16.531,-30.78
16.546,-34.41
16.562,-38.16
16.578,-41.4
16.593,-43.43
16.609,-43.67
16.625,-41.89
16.640,-38.29
16.656,-33.36
16.671,-27.82
16.687,-22.31
16.703,-17.24
16.718,-12.79
16.734,-8.82
16.750,-5.1
16.765,-1.38
16.781,2.48
16.796,6.49
16.812,10.44
16.828,14.0
16.843,16.86
16.859,18.77
16.875,19.75
16.890,19.98
16.906,19.81
16.921,19.63
16.937,19.71
16.953,20.16
16.968,20.85
16.984,21.49
17.000,21.78
17.015,21.51
17.031,20.69
17.046,19.5
17.062,18.25
17.078,17.14
17.093,16.19
17.109,15.26
17.125,14.16
17.140,12.8
17.156,11.24
17.171,9.66
17.187,8.19
17.203,6.88
17.218,5.62
17.234,4.29
17.250,2.8
17.265,1.12
17.281,-0.72
17.296,-2.66
17.312,-4.64
17.328,-6.66
17.343,-8.63
17.359,-10.56
17.375,-12.51
17.390,-14.62
17.406,-17.08
17.421,-20.06
17.437,-23.5
17.453,-27.15
17.468,-30.55
17.484,-33.22
17.500,-34.77
17.515,-34.98
17.531,-33.83
17.546,-31.45
17.562,-28.09
17.578,-24.06
17.593,-19.67
17.609,-15.25
17.625,-11.02
17.640,-7.09
17.656,-3.44
17.671,0.04
17.687,3.51
17.703,6.95
17.718,10.29
17.734,13.31
17.750,15.82
17.765,17.72
17.781,19.01
17.796,19.8
17.812,20.16
17.828,20.22
17.843,20.05
17.859,19.79
17.875,19.58
17.890,19.52
17.906,19.59
17.921,19.64
17.937,19.37
17.953,18.53
17.968,17.06
17.984,15.11
18.000,13.05
18.015,11.25
18.031,9.95
18.046,9.13
18.062,8.56
18.078,7.86
18.093,6.74
18.109,5.04
18.125,2.79
18.140,0.17
18.156,-2.55
18.171,-5.08
18.187,-7.24
18.203,-9.01
18.218,-10.55
18.234,-12.2
18.250,-14.28
18.265,-16.99
18.281,-20.33
18.296,-24.01
18.312,-27.57
18.328,-30.48
18.343,-32.25
18.359,-32.54
18.375,-31.27
18.390,-28.57
18.406,-24.75
18.421,-20.22
18.437,-15.42
18.453,-10.68
18.468,-6.28
18.484,-2.34
18.500,1.13
18.515,4.21
18.531,6.95
18.546,9.41
18.562,11.54
18.578,13.28
18.593,14.53
18.609,15.27
18.625,15.59
18.640,15.68
18.656,15.75
18.671,16.0
18.687,16.5
18.703,17.22
18.718,18.02
18.734,18.75
18.750,19.27
18.765,19.53
18.781,19.45
18.796,19.02
18.812,18.19
18.828,17.0
18.843,15.52
18.859,13.92
18.875,12.38
18.890,10.96
18.906,9.63
18.921,8.19
18.937,6.44
18.953,4.27
18.968,1.8
18.984,-0.75
19.000,-3.11
19.015,-5.17
19.031,-6.98
19.046,-8.81
19.062,-10.89
19.078,-13.39
19.093,-16.28
19.109,-19.35
19.125,-22.29
19.140,-24.76
19.156,-26.5
19.171,-27.31
19.187,-27.16
19.203,-26.1
19.218,-24.18
19.234,-21.53
19.250,-18.32
19.265,-14.76
19.281,-11.11
19.296,-7.62
19.312,-4.42
19.328,-1.49
19.343,1.29
19.359,4.05
19.375,6.75
19.390,9.2
19.406,11.14
19.421,12.37
19.437,12.92
19.453,13.0
19.468,12.96
19.484,13.07
19.500,13.46
19.515,14.08
19.531,14.8
19.546,15.48
19.562,15.99
19.578,16.23
19.593,16.06
19.609,15.46
19.625,14.45
19.640,13.15
19.656,11.73
19.671,10.35
19.687,9.03
19.703,7.68
19.718,6.12
19.734,4.2
19.750,1.95
19.765,-0.54
19.781,-3.04
19.796,-5.34
19.812,-7.37
19.828,-9.17
19.843,-10.89
19.859,-12.72
19.875,-14.79
19.890,-17.17
19.906,-19.89
19.921,-22.87
19.937,-26.05
19.953,-29.29
19.968,-32.33
19.984,-34.78
20.000,-36.14
20.015,-35.95
20.031,-33.93
20.046,-30.22
20.062,-25.28
20.078,-19.87
20.093,-14.73
20.109,-10.34
20.125,-6.72
20.140,-3.58
20.156,-0.46
20.171,2.98
20.187,6.7
20.203,10.43
20.218,13.74
20.234,16.31
20.250,18.08
20.265,19.17
20.281,19.79
20.296,20.12
20.312,20.22
20.328,20.07
20.343,19.73
20.359,19.36
20.375,19.13
20.390,19.18
20.406,19.47
20.421,19.77
20.437,19.75
20.453,19.13
20.468,17.78
20.484,15.81
20.500,13.49
20.515,11.17
20.531,9.14
20.546,7.53
20.562,6.24
20.578,5.03
20.593,3.65
20.609,1.88
20.625,-0.32
20.640,-2.85
20.656,-5.56
20.671,-8.32
20.687,-11.04
20.703,-13.66
20.718,-16.13
20.734,-18.46
20.750,-20.7
20.765,-22.97
20.781,-25.43
20.796,-28.06
20.812,-30.67
20.828,-32.8
20.843,-33.91
20.859,-33.55
20.875,-31.58
20.890,-28.2
20.906,-23.86
20.921,-19.07
20.937,-14.26
20.953,-9.67
20.968,-5.37
20.984,-1.3
21.000,2.58
21.015,6.27
21.031,9.68
21.046,12.67
21.062,15.11
21.078,16.95
21.093,18.26
21.109,19.18
21.125,19.91
21.140,20.6
21.156,21.29
21.171,21.95
21.187,22.48
21.203,22.75
21.218,22.67
21.234,22.23
21.250,21.45
21.265,20.41
21.281,19.22
21.296,17.97
21.312,16.71
21.328,15.42
21.343,14.08
21.359,12.67
21.375,11.23
21.390,9.8
21.406,8.34
21.421,6.75
21.437,4.82
21.453,2.42
21.468,-0.44
21.484,-3.51
21.500,-6.44
21.515,-8.9
21.531,-10.74
21.546,-12.08
21.562,-13.29
21.578,-14.78
21.593,-16.91
21.609,-19.84
21.625,-23.51
21.640,-27.64
21.656,-31.72
21.671,-35.15
21.687,-37.3
21.703,-37.73
21.718,-36.39
21.734,-33.57
21.750,-29.88
21.765,-25.93
21.781,-22.11
21.796,-18.45
21.812,-14.77
21.828,-10.86
21.843,-6.7
21.859,-2.41
21.875,1.79
21.890,5.79
21.906,9.61
21.921,13.28
21.937,16.68
21.953,19.52
21.968,21.47
21.984,22.35
22.000,22.33
22.015,21.88
22.031,21.51
22.046,21.5
22.062,21.83
22.078,22.22
22.093,22.39
22.109,22.25
22.125,21.86
22.140,21.33
22.156,20.66
22.171,19.7
22.187,18.28
22.203,16.35
22.218,14.12
22.234,11.88
22.250,9.92
22.265,8.21
22.281,6.54
22.296,4.63
22.312,2.33
22.328,-0.21
22.343,-2.74
22.359,-4.93
22.375,-6.68
22.390,-8.13
22.406,-9.59
22.421,-11.36
22.437,-13.61
22.453,-16.34
22.468,-19.48
22.484,-22.93
22.500,-26.59
22.515,-30.21
22.531,-33.43
22.546,-35.68
22.562,-36.44
22.578,-35.41
22.593,-32.66
22.609,-28.59
22.625,-23.76
22.640,-18.66
22.656,-13.59
22.671,-8.67
22.687,-3.95
22.703,0.45
22.718,4.39
22.734,7.74
22.750,10.47
22.765,12.67
22.781,14.47
22.796,15.95
22.812,17.08
22.828,17.81
22.843,18.13
22.859,18.14
22.875,18.01
22.890,17.93
22.906,18.01
22.921,18.25
22.937,18.58
22.953,18.87
22.968,19.01
22.984,18.9
23.000,18.5
23.015,17.76
23.031,16.7
23.046,15.34
23.062,13.75
23.078,12.04
23.093,10.26
23.109,8.5
23.125,6.76
23.140,4.98
23.156,3.09
23.171,1.03
23.187,-1.25
23.203,-3.68
23.218,-6.12
23.234,-8.42
23.250,-10.46
23.265,-12.27
23.281,-14.07
23.296,-16.13
23.312,-18.72
23.328,-21.94
23.343,-25.7
23.359,-29.68
23.375,-33.51
23.390,-36.77
23.406,-39.11
23.421,-40.28
23.437,-40.11
23.453,-38.55
23.468,-35.67
23.484,-31.71
23.500,-27.06
23.515,-22.12
23.531,-17.22
23.546,-12.55
23.562,-8.12
23.578,-3.82
23.593,0.47
23.609,4.76
23.625,8.94
23.640,12.79
23.656,16.05
23.671,18.59
23.687,20.35
23.703,21.43
23.718,22.03
23.734,22.38
23.750,22.67
23.765,23.03
23.781,23.51
23.796,24.08
23.812,24.68
23.828,25.2
23.843,25.57
23.859,25.7
23.875,25.5
23.890,24.91
23.906,23.92
23.921,22.56
23.937,20.93
23.953,19.15
23.968,17.32
23.984,15.53
24.000,13.8
24.015,12.11
24.031,10.42
24.046,8.71
24.062,6.93
24.078,4.99
24.093,2.78
24.109,0.18
24.125,-2.87
24.140,-6.29
24.156,-9.88
24.171,-13.37
24.187,-16.55
24.203,-19.36
24.218,-21.95
24.234,-24.62
24.250,-27.67
24.265,-31.24
24.281,-35.19
24.296,-39.1
24.312,-42.36
24.328,-44.37
24.343,-44.78
24.359,-43.56
24.375,-40.93
24.390,-37.31
24.406,-33.1
24.421,-28.64
24.437,-24.09
24.453,-19.53
24.468,-14.91
24.484,-10.15
24.500,-5.22
24.515,-0.1
24.531,5.12
24.546,10.25
24.562,15.03
24.578,19.2
24.593,22.53
24.609,24.95
24.625,26.5
24.640,27.33
24.656,27.7
24.671,27.84
24.687,27.97
24.703,28.26
24.718,28.74
24.734,29.38
24.750,30.01
24.765,30.41
24.781,30.36
24.796,29.69
24.812,28.34
24.828,26.39
24.843,24.08
24.859,21.69
24.875,19.47
24.890,17.56
24.906,15.93
24.921,14.52
24.937,13.22
24.953,11.92
24.968,10.54
24.984,8.99
25.000,7.13
25.015,4.88
25.031,2.26
25.046,-0.61
25.062,-3.54
25.078,-6.29
25.093,-8.79
25.109,-11.06
25.125,-13.28
25.140,-15.79
25.156,-18.89
25.171,-22.83
25.187,-27.54
25.203,-32.64
25.218,-37.39
25.234,-41.0
25.250,-42.84
25.265,-42.6
25.281,-40.43
25.296,-36.74
25.312,-32.07
25.328,-26.92
25.343,-21.68
25.359,-16.58
25.375,-11.73
25.390,-7.13
25.406,-2.66
25.421,1.75
25.437,6.14
25.453,10.36
25.468,14.11
25.484,17.08
25.500,19.11
25.515,20.28
25.531,20.92
25.546,21.46
25.562,22.19
25.578,23.21
25.593,24.35
25.609,25.35
25.625,25.95
25.640,26.06
25.656,25.73
25.671,25.17
25.687,24.53
25.703,23.88
25.718,23.21
25.734,22.46
25.750,21.59
25.765,20.62
25.781,19.59
25.796,18.51
25.812,17.34
25.828,16.02
25.843,14.49
25.859,12.76
25.875,10.87
25.890,8.85
25.906,6.74
25.921,4.47
25.937,2.04
25.953,-0.54
25.968,-3.13
25.984,-5.63
26.000,-8.06
26.015,-10.52
26.031,-13.25
26.046,-16.41
26.062,-20.03
26.078,-23.98
26.093,-28.04
26.109,-32.05
26.125,-35.85
26.140,-39.28
26.156,-42.16
26.171,-44.18
26.187,-45.02
26.203,-44.42
26.218,-42.37
26.234,-39.04
26.250,-34.75
26.265,-29.87
26.281,-24.66
26.296,-19.28
26.312,-13.87
26.328,-8.5
26.343,-3.21
26.359,2.0
26.375,7.08
26.390,11.93
26.406,16.35
26.421,20.06
26.437,22.88
26.453,24.79
26.468,25.99
26.484,26.81
26.500,27.52
26.515,28.25
26.531,28.95
26.546,29.5
26.562,29.79
26.578,29.87
26.593,29.84
26.609,29.8
26.625,29.75
26.640,29.6
26.656,29.25
26.671,28.63
26.687,27.76
26.703,26.75
26.718,25.66
26.734,24.48
26.750,23.08
26.765,21.29
26.781,19.04
26.796,16.4
26.812,13.6
26.828,10.87
26.843,8.42
26.859,6.25
26.875,4.24
26.890,2.21
26.906,0.04
26.921,-2.37
26.937,-4.95
26.953,-7.65
26.968,-10.39
26.984,-13.11
27.000,-15.8
27.015,-18.55
27.031,-21.51
27.046,-24.89
27.062,-28.88
27.078,-33.46
27.093,-38.28
27.109,-42.74
27.125,-46.11
27.140,-47.77
27.156,-47.5
27.171,-45.41
27.187,-41.91
27.203,-37.49
27.218,-32.53
27.234,-27.3
27.250,-22.0
27.265,-16.82
27.281,-11.88
27.296,-7.23
27.312,-2.74
27.328,1.77
27.343,6.39
27.359,11.07
27.375,15.5
27.390,19.29
27.406,22.18
27.421,24.17
27.437,25.54
27.453,26.66
27.468,27.78
27.484,28.95
27.500,30.02
27.515,30.82
27.531,31.27
27.546,31.42
27.562,31.34
27.578,31.08
27.593,30.63
27.609,29.96
27.625,29.05
27.640,27.97
27.656,26.81
27.671,25.56
27.687,24.18
27.703,22.61
27.718,20.84
27.734,19.01
27.750,17.25
27.765,15.66
27.781,14.15
27.796,12.54
27.812,10.6
27.828,8.29
27.843,5.69
27.859,3.04
27.875,0.56
27.890,-1.65
27.906,-3.67
27.921,-5.66
27.937,-7.78
27.953,-10.1
27.968,-12.54
27.984,-15.02
28.000,-17.54
28.015,-20.25
28.031,-23.39
28.046,-27.16
28.062,-31.47
28.078,-35.9
28.093,-39.79
28.109,-42.42
28.125,-43.32
28.140,-42.41
28.156,-39.95
28.171,-36.38
28.187,-32.1
28.203,-27.38
28.218,-22.39
28.234,-17.28
28.250,-12.17
28.265,-7.19
28.281,-2.39
28.296,2.23
28.312,6.77
28.328,11.2
28.343,15.42
28.359,19.21
28.375,22.31
28.390,24.64
28.406,26.23
28.421,27.32
28.437,28.19
28.453,29.11
28.468,30.26
28.484,31.69
28.500,33.39
28.515,35.26
28.531,37.22
28.546,39.17
28.562,40.99
28.578,42.6
28.593,43.94
28.609,45.0
28.625,45.82
28.640,46.46
28.656,46.84
28.671,46.85
28.687,46.23
28.703,44.73
28.718,42.15
28.734,38.49
28.750,33.89
28.765,28.55
28.781,22.61
28.796,16.03
28.812,8.71
28.828,0.59
28.843,-8.09
28.859,-16.8
28.875,-24.79
28.890,-31.36
28.906,-36.22
28.921,-39.51
28.937,-41.86
28.953,-44.02
28.968,-46.61
28.984,-49.89
29.000,-53.69
29.015,-57.57
29.031,-60.96
29.046,-63.36
29.062,-64.45
29.078,-64.18
29.093,-62.69
29.109,-60.3
29.125,-57.33
29.140,-54.03
29.156,-50.56
29.171,-46.95
29.187,-43.2
29.203,-39.27
29.218,-35.18
29.234,-30.95
29.250,-26.62
29.265,-22.29
29.281,-18.08
29.296,-14.22
29.312,-10.95
29.328,-8.36
29.343,-6.41
29.359,-4.81
29.375,-3.17
29.390,-1.11
29.406,1.64
29.421,5.16
29.437,9.35
29.453,13.97
29.468,18.77
29.484,23.51
29.500,28.02
29.515,32.21
29.531,36.01
29.546,39.31
29.562,41.98
29.578,43.84
29.593,44.75
29.609,44.7
29.625,43.81
29.640,42.29
29.656,40.25
29.671,37.7
29.687,34.56
29.703,30.75
29.718,26.3
29.734,21.4
29.750,16.34
29.765,11.39
29.781,6.78
29.796,2.62
29.812,-1.07
29.828,-4.3
29.843,-7.15
29.859,-9.7
29.875,-12.1
29.890,-14.51
29.906,-17.03
29.921,-19.7
29.937,-22.52
29.953,-25.49
29.968,-28.63
29.984,-31.99
30.000,-35.49
30.015,-38.89
30.031,-41.73
30.046,-43.51
30.062,-43.75
30.078,-42.26
30.093,-39.2
30.109,-35.0
30.125,-30.23
30.140,-25.36
30.156,-20.66
30.171,-16.08
30.187,-11.46
30.203,-6.56
30.218,-1.32
30.234,4.16
30.250,9.62
30.265,14.74
30.281,19.23
30.296,22.93
30.312,25.81
30.328,27.94
30.343,29.45
30.359,30.48
30.375,31.22
30.390,31.76
30.406,32.15
30.421,32.35
30.437,32.28
30.453,31.88
30.468,31.19
30.484,30.35
30.500,29.48
30.515,28.61
30.531,27.65
30.546,26.44
30.562,24.91
30.578,23.14
30.593,21.34
30.609,19.69
30.625,18.18
30.640,16.64
30.656,14.83
30.671,12.63
30.687,10.12
30.703,7.58
30.718,5.33
30.734,3.56
30.750,2.24
30.765,1.17
30.781,0.1
30.796,-1.16
30.812,-2.72
30.828,-4.56
30.843,-6.61
30.859,-8.76
30.875,-10.9
30.890,-12.93
30.906,-14.86
30.921,-16.73
30.937,-18.69
30.953,-20.94
30.968,-23.63
30.984,-26.81
31.000,-30.36
31.015,-34.01
31.031,-37.35
31.046,-39.93
31.062,-41.36
31.078,-41.37
31.093,-39.93
31.109,-37.22
31.125,-33.59
31.140,-29.45
31.156,-25.12
31.171,-20.75
31.187,-16.35
31.203,-11.84
31.218,-7.19
31.234,-2.44
31.250,2.27
31.265,6.73
31.281,10.77
31.296,14.23
31.312,17.01
31.328,19.07
31.343,20.42
31.359,21.16
31.375,21.47
31.390,21.57
31.406,21.64
31.421,21.79
31.437,22.04
31.453,22.37
31.468,22.72
31.484,23.01
31.500,23.14
31.515,23.04
31.531,22.66
31.546,22.05
31.562,21.34
31.578,20.72
31.593,20.26
31.609,19.93
31.625,19.53
31.640,18.79
31.656,17.51
31.671,15.69
31.687,13.51
31.703,11.27
31.718,9.24
31.734,7.52
31.750,5.97
31.765,4.34
31.781,2.35
31.796,-0.13
31.812,-3.01
31.828,-6.04
31.843,-8.94
31.859,-11.49
31.875,-13.69
31.890,-15.69
31.906,-17.8
31.921,-20.37
31.937,-23.6
31.953,-27.52
31.968,-31.85
31.984,-36.05
32.000,-39.44
32.015,-41.37
32.031,-41.42
32.046,-39.52
32.062,-35.97
32.078,-31.27
32.093,-25.99
32.109,-20.61
32.125,-15.45
32.140,-10.63
32.156,-6.07
32.171,-1.59
32.187,2.99
32.203,7.71
32.218,12.42
32.234,16.74
32.250,20.25
32.265,22.64
32.281,23.86
32.296,24.11
32.312,23.77
32.328,23.27
32.343,22.93
32.359,22.95
32.375,23.39
32.390,24.18
32.406,25.18
32.421,26.16
32.437,26.85
32.453,26.99
32.468,26.44
32.484,25.25
32.500,23.61
32.515,21.81
32.531,20.11
32.546,18.69
32.562,17.62
32.578,16.82
32.593,16.18
32.609,15.52
32.625,14.62
32.640,13.29
32.656,11.42
32.671,9.08
32.687,6.46
32.703,3.91
32.718,1.62
32.734,-0.35
32.750,-2.17
32.765,-4.16
32.781,-6.52
32.796,-9.29
32.812,-12.31
32.828,-15.36
32.843,-18.24
32.859,-20.95
32.875,-23.62
32.890,-26.44
32.906,-29.54
32.921,-32.97
32.937,-36.7
32.953,-40.59
32.968,-44.38
32.984,-47.6
33.000,-49.72
33.015,-50.22
33.031,-48.88
33.046,-45.9
33.062,-41.84
33.078,-37.42
33.093,-33.16
33.109,-29.24
33.125,-25.4
33.140,-21.2
33.156,-16.34
33.171,-10.77
33.187,-4.79
33.203,1.14
33.218,6.6
33.234,11.34
33.250,15.23
33.265,18.27
33.281,20.44
33.296,21.74
33.312,22.27
33.328,22.24
33.343,21.99
33.359,21.85
33.375,22.0
33.390,22.41
33.406,22.9
33.421,23.24
33.437,23.36
33.453,23.31
33.468,23.26
33.484,23.34
33.500,23.58
33.515,23.88
33.531,24.11
33.546,24.14
33.562,23.86
33.578,23.27
33.593,22.35
33.609,21.13
33.625,19.65
33.640,17.99
33.656,16.21
33.671,14.39
33.687,12.6
33.703,10.91
33.718,9.34
33.734,7.95
33.750,6.64
33.765,5.27
33.781,3.69
33.796,1.77
33.812,-0.49
33.828,-2.9
33.843,-5.17
33.859,-7.13
33.875,-8.77
33.890,-10.37
33.906,-12.31
33.921,-14.87
33.937,-18.11
33.953,-21.86
33.968,-25.76
33.984,-29.51
34.000,-32.95
34.015,-36.03
34.031,-38.68
34.046,-40.7
34.062,-41.74
34.078,-41.41
34.093,-39.5
34.109,-36.12
34.125,-31.73
34.140,-26.94
34.156,-22.23
34.171,-17.85
34.187,-13.74
34.203,-9.66
34.218,-5.42
34.234,-0.96
34.250,3.63
34.265,8.08
34.281,12.18
34.296,15.75
34.312,18.76
34.328,21.24
34.343,23.27
34.359,24.88
34.375,26.11
34.390,26.95
34.406,27.4
34.421,27.49
34.437,27.29
34.453,26.86
34.468,26.35
34.484,25.83
34.500,25.41
34.515,25.14
34.531,24.96
34.546,24.73
34.562,24.27
34.578,23.47
34.593,22.29
34.609,20.89
34.625,19.49
34.640,18.32
34.656,17.47
34.671,16.85
34.687,16.19
34.703,15.16
34.718,13.54
34.734,11.31
34.750,8.65
34.765,5.9
34.781,3.36
34.796,1.19
34.812,-0.65
34.828,-2.38
34.843,-4.17
34.859,-6.16
34.875,-8.32
34.890,-10.56
34.906,-12.77
34.921,-14.92
34.937,-17.08
34.953,-19.34
34.968,-21.8
34.984,-24.52
35.000,-27.55
35.015,-30.89
35.031,-34.48
35.046,-38.14
35.062,-41.58
35.078,-44.36
35.093,-46.05
35.109,-46.32
35.125,-44.97
35.140,-42.05
35.156,-37.84
35.171,-32.78
35.187,-27.42
35.203,-22.29
35.218,-17.73
35.234,-13.8
35.250,-10.3
35.265,-6.85
35.281,-3.08
35.296,1.12
35.312,5.58
35.328,9.84
35.343,13.41
35.359,15.93
35.375,17.33
35.390,17.81
35.406,17.79
35.421,17.68
35.437,17.8
35.453,18.33
35.468,19.26
35.484,20.46
35.500,21.68
35.515,22.63
35.531,23.03
35.546,22.73
35.562,21.78
35.578,20.43
35.593,19.05
35.609,17.96
35.625,17.34
35.640,17.07
35.656,16.87
35.671,16.43
35.687,15.51
35.703,14.02
35.718,12.08
35.734,9.89
35.750,7.69
35.765,5.66
35.781,3.9
35.796,2.36
35.812,0.91
35.828,-0.7
35.843,-2.66
35.859,-5.09
35.875,-7.91
35.890,-10.94
35.906,-13.95
35.921,-16.78
35.937,-19.41
35.953,-21.98
35.968,-24.74
35.984,-27.96
36.000,-31.75
36.015,-35.88
36.031,-39.84
36.046,-42.96
36.062,-44.56
36.078,-44.27
36.093,-42.11
36.109,-38.46
36.125,-33.87
36.140,-28.88
36.156,-23.87
36.171,-19.04
36.187,-14.44
36.203,-10.02
36.218,-5.72
36.234,-1.43
36.250,2.88
36.265,7.14
36.281,11.14
36.296,14.56
36.312,17.12
36.328,18.73
36.343,19.58
36.359,19.98
36.375,20.36
36.390,20.96
36.406,21.91
36.421,23.16
36.437,24.61
36.453,26.16
36.468,27.66
36.484,28.89
36.500,29.51
36.515,29.28
36.531,28.15
36.546,26.36
36.562,24.42
36.578,22.8
36.593,21.76
36.609,21.18
36.625,20.66
36.640,19.78
36.656,18.33
36.671,16.36
36.687,14.1
36.703,11.78
36.718,9.51
36.734,7.24
36.750,4.95
36.765,2.65
36.781,0.41
36.796,-1.7
36.812,-3.67
36.828,-5.61
36.843,-7.66
36.859,-9.93
36.875,-12.44
36.890,-15.15
36.906,-18.03
36.921,-21.08
36.937,-24.34
36.953,-27.86
36.968,-31.64
36.984,-35.56
37.000,-39.41
37.015,-42.89
37.031,-45.63
37.046,-47.28
37.062,-47.53
37.078,-46.26
37.093,-43.57
37.109,-39.81
37.125,-35.42
37.140,-30.85
37.156,-26.38
37.171,-22.04
37.187,-17.67
37.203,-13.06
37.218,-8.07
37.234,-2.77
37.250,2.61
37.265,7.75
37.281,12.37
37.296,16.26
37.312,19.34
37.328,21.61
37.343,23.12
37.359,23.99
37.375,24.43
37.390,24.71
37.406,25.11
37.421,25.77
37.437,26.76
37.453,27.99
37.468,29.29
37.484,30.45
37.500,31.24
37.515,31.47
37.531,31.05
37.546,30.03
37.562,28.57
37.578,26.93
37.593,25.29
37.609,23.73
37.625,22.21
37.640,20.62
37.656,18.96
37.671,17.3
37.687,15.83
37.703,14.65
37.718,13.65
37.734,12.57
37.750,11.12
37.765,9.11
37.781,6.6
37.796,3.81
37.812,0.98
37.828,-1.73
37.843,-4.28
37.859,-6.77
37.875,-9.27
37.890,-11.79
37.906,-14.24
37.921,-16.54
37.937,-18.71
37.953,-20.96
37.968,-23.56
37.984,-26.76
38.000,-30.6
38.015,-34.84
38.031,-39.08
38.046,-42.8
38.062,-45.64
38.078,-47.37
38.093,-47.84
38.109,-47.02
38.125,-44.88
38.140,-41.54
38.156,-37.18
38.171,-32.13
38.187,-26.75
38.203,-21.31
38.218,-15.98
38.234,-10.78
38.250,-5.71
38.265,-0.78
38.281,3.95
38.296,8.39
38.312,12.4
38.328,15.9
38.343,18.81
38.359,21.1
38.375,22.77
38.390,23.96
38.406,24.85
38.421,25.67
38.437,26.61
38.453,27.74
38.468,28.99
38.484,30.2
38.500,31.17
38.515,31.69
38.531,31.66
38.546,31.13
38.562,30.25
38.578,29.19
38.593,28.08
38.609,26.88
38.625,25.55
38.640,24.09
38.656,22.58
38.671,21.16
38.687,19.89
38.703,18.73
38.718,17.54
38.734,16.17
38.750,14.53
38.765,12.63
38.781,10.55
38.796,8.36
38.812,6.12
38.828,3.84
38.843,1.57
38.859,-0.62
38.875,-2.75
38.890,-4.9
38.906,-7.26
38.921,-10.01
38.937,-13.22
38.953,-16.86
38.968,-20.76
38.984,-24.78
39.000,-28.78
39.015,-32.71
39.031,-36.53
39.046,-40.24
39.062,-43.82
39.078,-47.25
39.093,-50.37
39.109,-52.89
39.125,-54.38
39.140,-54.41
39.156,-52.7
39.171,-49.23
39.187,-44.29
39.203,-38.32
39.218,-31.81
39.234,-25.07
39.250,-18.28
39.265,-11.53
39.281,-4.89
39.296,1.52
39.312,7.58
39.328,13.18
39.343,18.29
39.359,22.89
39.375,26.98
39.390,30.55
39.406,33.56
39.421,35.95
39.437,37.63
39.453,38.57
39.468,38.83
39.484,38.57
39.500,38.02
39.515,37.37
39.531,36.7
39.546,35.97
39.562,35.08
39.578,33.93
39.593,32.53
39.609,30.99
39.625,29.46
39.640,28.01
39.656,26.68
39.671,25.42
39.687,24.18
39.703,22.95
39.718,21.76
39.734,20.62
39.750,19.41
39.765,18.01
39.781,16.28
39.796,14.19
39.812,11.83
39.828,9.33
39.843,6.89
39.859,4.57
39.875,2.4
39.890,0.28
39.906,-1.91
39.921,-4.32
39.937,-7.01
39.953,-9.98
39.968,-13.12
39.984,-16.24
40.000,-19.17
40.015,-21.82
40.031,-24.29
40.046,-26.81
40.062,-29.6
40.078,-32.74
40.093,-36.08
40.109,-39.17
40.125,-41.48
40.140,-42.57
40.156,-42.21
40.171,-40.47
40.187,-37.5
40.203,-33.61
40.218,-29.09
40.234,-24.23
40.250,-19.28
40.265,-14.4
40.281,-9.7
40.296,-5.17
40.312,-0.79
40.328,3.44
40.343,7.47
40.359,11.12
40.375,14.26
40.390,16.78
40.406,18.69
40.421,20.08
40.437,21.13
40.453,21.97
40.468,22.73
40.484,23.43
40.500,24.08
40.515,24.66
40.531,25.11
40.546,25.44
40.562,25.65
40.578,25.77
40.593,25.85
40.609,25.87
40.625,25.76
40.640,25.45
40.656,24.9
40.671,24.07
40.687,22.97
40.703,21.64
40.718,20.12
40.734,18.45
40.750,16.68
40.765,14.83
40.781,12.92
40.796,10.92
40.812,8.8
40.828,6.62
40.843,4.47
40.859,2.49
40.875,0.74
40.890,-0.79
40.906,-2.27
40.921,-3.87
40.937,-5.76
40.953,-7.98
40.968,-10.41
40.984,-12.92
41.000,-15.39
41.015,-17.82
41.031,-20.3
41.046,-23.02
41.062,-26.14
41.078,-29.77
41.093,-33.83
41.109,-38.05
41.125,-42.02
41.140,-45.21
41.156,-47.13
41.171,-47.49
41.187,-46.22
41.203,-43.53
41.218,-39.76
41.234,-35.32
41.250,-30.58
41.265,-25.8
41.281,-21.11
41.296,-16.54
41.312,-12.07
41.328,-7.69
41.343,-3.33
41.359,1.02
41.375,5.37
41.390,9.65
41.406,13.72
41.421,17.38
41.437,20.41
41.453,22.66
41.468,24.09
41.484,24.89
41.500,25.31
41.515,25.61
41.531,25.96
41.546,26.37
41.562,26.77
41.578,27.07
41.593,27.29
41.609,27.46
41.625,27.65
41.640,27.8
41.656,27.7
41.671,27.13
41.687,25.96
41.703,24.26
41.718,22.24
41.734,20.15
41.750,18.14
41.765,16.19
41.781,14.24
41.796,12.27
41.812,10.44
41.828,8.91
41.843,7.79
41.859,6.96
41.875,6.08
41.890,4.74
41.906,2.69
41.921,-0.05
41.937,-3.23
41.953,-6.43
41.968,-9.38
41.984,-11.88
42.000,-13.97
42.015,-15.74
42.031,-17.31
42.046,-18.75
42.062,-20.16
42.078,-21.73
42.093,-23.68
42.109,-26.33
42.125,-29.8
42.140,-33.93
42.156,-38.21
42.171,-41.85
42.187,-44.05
42.203,-44.32
42.218,-42.67
42.234,-39.5
42.250,-35.45
42.265,-31.08
42.281,-26.68
42.296,-22.33
42.312,-17.98
42.328,-13.63
42.343,-9.36
42.359,-5.33
42.375,-1.54
42.390,2.09
42.406,5.79
42.421,9.7
42.437,13.75
42.453,17.65
42.468,20.93
42.484,23.24
42.500,24.42
42.515,24.71
42.531,24.56
42.546,24.46
42.562,24.7
42.578,25.26
42.593,25.88
42.609,26.25
42.625,26.21
42.640,25.81
42.656,25.23
42.671,24.62
42.687,23.98
42.703,23.18
42.718,22.13
42.734,20.87
42.750,19.56
42.765,18.38
42.781,17.4
42.796,16.5
42.812,15.44
42.828,14.0
42.843,12.07
42.859,9.72
42.875,7.14
42.890,4.54
42.906,2.08
42.921,-0.17
42.937,-2.2
42.953,-4.11
42.968,-5.95
42.984,-7.72
43.000,-9.42
43.015,-11.0
43.031,-12.48
43.046,-13.97
43.062,-15.69
43.078,-17.86
43.093,-20.66
43.109,-24.17
43.125,-28.23
43.140,-32.51
43.156,-36.51
43.171,-39.65
43.187,-41.4
43.203,-41.34
43.218,-39.4
43.234,-35.84
43.250,-31.24
43.265,-26.3
43.281,-21.58
43.296,-17.35
43.312,-13.52
43.328,-9.77
43.343,-5.78
43.359,-1.43
43.375,3.16
43.390,7.67
43.406,11.72
43.421,14.97
43.437,17.26
43.453,18.61
43.468,19.16
43.484,19.22
43.500,19.12
43.515,19.19
43.531,19.65
43.546,20.57
43.562,21.83
43.578,23.14
43.593,24.17
43.609,24.61
43.625,24.35
43.640,23.43
43.656,22.15
43.671,20.84
43.687,19.77
43.703,19.05
43.718,18.61
43.734,18.24
43.750,17.69
43.765,16.83
43.781,15.66
43.796,14.23
43.812,12.62
43.828,10.83
43.843,8.91
43.859,6.92
43.875,4.98
43.890,3.23
43.906,1.72
43.921,0.29
43.937,-1.26
43.953,-3.14
43.968,-5.46
43.984,-8.11
44.000,-10.89
44.015,-13.6
44.031,-16.22
44.046,-18.84
44.062,-21.65
44.078,-24.72
44.093,-28.03
44.109,-31.4
44.125,-34.63
44.140,-37.62
44.156,-40.32
44.171,-42.63
44.187,-44.38
44.203,-45.27
44.218,-44.96
44.234,-43.24
44.250,-40.2
44.265,-36.17
44.281,-31.69
44.296,-27.2
44.312,-22.95
44.328,-18.9
44.343,-14.83
44.359,-10.5
44.375,-5.83
44.390,-0.92
44.406,3.98
44.421,8.54
44.437,12.48
44.453,15.62
44.468,17.93
44.484,19.49
44.500,20.51
44.515,21.18
44.531,21.71
44.546,22.28
44.562,22.99
44.578,23.93
44.593,25.09
44.609,26.38
44.625,27.62
44.640,28.56
44.656,28.99
44.671,28.79
44.687,28.03
44.703,26.88
44.718,25.53
44.734,24.1
44.750,22.59
44.765,21.0
44.781,19.39
44.796,17.93
44.812,16.82
44.828,16.13
44.843,15.73
44.859,15.34
44.875,14.65
44.890,13.46
44.906,11.72
44.921,9.43
44.937,6.6
44.953,3.18
44.968,-0.81
44.984,-5.15
45.000,-9.44
45.015,-13.25
45.031,-16.32
45.046,-18.69
45.062,-20.71
45.078,-22.78
45.093,-25.19
45.109,-27.93
45.125,-30.82
45.140,-33.61
45.156,-36.12
45.171,-38.24
45.187,-39.83
45.203,-40.65
45.218,-40.38
45.234,-38.8
45.250,-35.84
45.265,-31.82
45.281,-27.24
45.296,-22.63
45.312,-18.41
45.328,-14.61
45.343,-11.05
45.359,-7.36
45.375,-3.29
45.390,1.25
45.406,6.08
45.421,10.85
45.437,15.11
45.453,18.43
45.468,20.56
45.484,21.5
45.500,21.54
45.515,21.13
45.531,20.73
45.546,20.65
45.562,20.94
45.578,21.47
45.593,22.06
45.609,22.6
45.625,23.09
45.640,23.66
45.656,24.38
45.671,25.19
45.687,25.86
45.703,26.09
45.718,25.71
45.734,24.67
45.750,23.12
45.765,21.25
45.781,19.19
45.796,17.01
45.812,14.68
45.828,12.24
45.843,9.77
45.859,7.42
45.875,5.33
45.890,3.52
45.906,1.83
45.921,0.01
45.937,-2.21
45.953,-4.94
45.968,-8.09
45.984,-11.39
46.000,-14.46
46.015,-16.98
46.031,-18.72
46.046,-19.7
46.062,-20.13
46.078,-20.4
46.093,-20.97
46.109,-22.22
46.125,-24.36
46.140,-27.36
46.156,-30.93
46.171,-34.57
46.187,-37.65
46.203,-39.55
46.218,-39.83
46.234,-38.32
46.250,-35.21
46.265,-30.96
46.281,-26.18
46.296,-21.38
46.312,-16.87
46.328,-12.63
46.343,-8.45
46.359,-4.09
46.375,0.63
46.390,5.64
46.406,10.63
46.421,15.15
46.437,18.82
46.453,21.43
46.468,23.1
46.484,24.18
46.500,25.1
46.515,26.16
46.531,27.37
46.546,28.46
46.562,29.12
46.578,29.16
46.593,28.7
46.609,28.06
46.625,27.57
46.640,27.32
46.656,27.17
46.671,26.83
46.687,26.09
46.703,24.97
46.718,23.71
46.734,22.58
46.750,21.72
46.765,21.09
46.781,20.46
46.796,19.62
46.812,18.47
46.828,17.09
46.843,15.56
46.859,14.0
46.875,12.43
46.890,10.83
46.906,9.18
46.921,7.47
46.937,5.71
46.953,3.88
46.968,1.97
46.984,-0.1
47.000,-2.38
47.015,-4.9
47.031,-7.6
47.046,-10.39
47.062,-13.22
47.078,-16.02
47.093,-18.8
47.109,-21.56
47.125,-24.34
47.140,-27.16
47.156,-30.04
47.171,-33.08
47.187,-36.24
47.203,-39.37
47.218,-42.13
47.234,-43.96
47.250,-44.31
47.265,-42.85
47.281,-39.63
47.296,-35.2
47.312,-30.3
47.328,-25.59
47.343,-21.45
47.359,-17.78
47.375,-14.24
47.390,-10.43
47.406,-6.16
47.421,-1.45
47.437,3.4
47.453,8.08
47.468,12.28
47.484,15.86
47.500,18.78
47.515,21.02
47.531,22.65
47.546,23.67
47.562,24.14
47.578,24.15
47.593,23.91
47.609,23.65
47.625,23.59
47.640,23.87
47.656,24.45
47.671,25.18
47.687,25.81
47.703,26.14
47.718,26.07
47.734,25.65
47.750,25.02
47.765,24.34
47.781,23.7
47.796,23.1
47.812,22.44
47.828,21.63
47.843,20.54
47.859,19.14
47.875,17.47
47.890,15.68
47.906,13.95
47.921,12.46
47.937,11.26
47.953,10.21
47.968,9.05
47.984,7.5
48.000,5.4
48.015,2.8
48.031,-0.05
48.046,-2.83
48.062,-5.35
48.078,-7.6
48.093,-9.77
48.109,-12.09
48.125,-14.68
48.140,-17.53
48.156,-20.52
48.171,-23.58
48.187,-26.72
48.203,-29.95
48.218,-33.19
48.234,-36.21
48.250,-38.6
48.265,-39.97
48.281,-40.06
48.296,-38.84
48.312,-36.53
48.328,-33.45
48.343,-29.97
48.359,-26.36
48.375,-22.72
48.390,-19.0
48.406,-15.06
48.421,-10.8
48.437,-6.28
48.453,-1.79
48.468,2.28
48.484,5.6
48.500,7.99
48.515,9.54
48.531,10.45
48.546,10.95
48.562,11.17
48.578,11.11
48.593,10.8
48.609,10.37
48.625,10.04
48.640,10.04
48.656,10.48
48.671,11.29
48.687,12.26
48.703,13.09
48.718,13.56
48.734,13.57
48.750,13.13
48.765,12.39
48.781,11.54
48.796,10.75
48.812,10.17
48.828,9.84
48.843,9.7
48.859,9.61
48.875,9.4
48.890,8.95
48.906,8.17
48.921,7.12
48.937,5.85
48.953,4.39
48.968,2.75
48.984,0.92
49.000,-1.08
49.015,-3.24
49.031,-5.53
49.046,-7.91
49.062,-10.36
49.078,-12.83
49.093,-15.25
49.109,-17.53
49.125,-19.55
49.140,-21.3
49.156,-22.83
49.171,-24.27
49.187,-25.74
49.203,-27.27
49.218,-28.66
49.234,-29.6
49.250,-29.68
49.265,-28.56
49.281,-26.11
49.296,-22.47
49.312,-18.0
49.328,-13.18
49.343,-8.45
49.359,-4.09
49.375,-0.14
49.390,3.52
49.406,7.05
49.421,10.53
49.437,13.95
49.453,17.24
49.468,20.34
49.484,23.25
49.500,25.98
49.515,28.49
49.531,30.67
49.546,32.38
49.562,33.48
49.578,33.97
49.593,33.94
49.609,33.59
49.625,33.12
49.640,32.68
49.656,32.34
49.671,32.14
49.687,32.05
49.703,31.99
49.718,31.83
49.734,31.44
49.750,30.69
49.765,29.61
49.781,28.32
49.796,26.99
49.812,25.74
49.828,24.6
49.843,23.46
49.859,22.14
49.875,20.46
49.890,18.41
49.906,16.08
49.921,13.67
49.937,11.41
49.953,9.43
49.968,7.66
49.984,5.88
50.000,3.79
50.015,1.14
50.031,-2.19
50.046,-6.12
50.062,-10.45
50.078,-15.01
50.093,-19.6
50.109,-24.15
50.125,-28.56
50.140,-32.73
50.156,-36.5
50.171,-39.84
50.187,-42.8
50.203,-45.62
50.218,-48.52
50.234,-51.58
50.250,-54.58
50.265,-56.91
50.281,-57.82
50.296,-56.67
50.312,-53.25
50.328,-47.83
50.343,-41.05
50.359,-33.68
50.375,-26.31
50.390,-19.29
50.406,-12.67
50.421,-6.43
50.437,-0.57
50.453,4.83
50.468,9.62
50.484,13.67
50.500,16.89
50.515,19.31
50.531,21.06
50.546,22.37
50.562,23.52
50.578,24.75
50.593,26.18
50.609,27.81
50.625,29.41
50.640,30.74
50.656,31.64
50.671,32.12
50.687,32.31
50.703,32.33
50.718,32.2
50.734,31.72
50.750,30.69
50.765,28.94
50.781,26.56
50.796,23.83
50.812,21.11
50.828,18.7
50.843,16.65
50.859,14.84
50.875,13.07
50.890,11.19
50.906,9.2
50.921,7.18
50.937,5.27
50.953,3.47
50.968,1.79
50.984,0.18
51.000,-1.35
51.015,-2.78
51.031,-4.09
51.046,-5.37
51.062,-6.75
51.078,-8.32
51.093,-10.16
51.109,-12.16
51.125,-14.17
51.140,-16.02
51.156,-17.65
51.171,-19.12
51.187,-20.59
51.203,-22.22
51.218,-24.05
51.234,-26.08
51.250,-28.13
51.265,-29.97
51.281,-31.29
51.296,-31.76
51.312,-31.1
51.328,-29.12
51.343,-25.83
51.359,-21.37
51.375,-16.04
51.390,-10.15
51.406,-3.95
51.421,2.31
51.437,8.44
51.453,14.28
51.468,19.74
51.484,24.77
51.500,29.37
51.515,33.42
51.531,36.72
51.546,38.97
51.562,39.89
51.578,39.37
51.593,37.57
51.609,34.83
51.625,31.51
51.640,27.86
51.656,23.97
51.671,19.82
51.687,15.47
51.703,11.08
51.718,6.91
51.734,3.14
51.750,-0.18
51.765,-3.21
51.781,-6.14
51.796,-9.21
51.812,-12.43
51.828,-15.63
51.843,-18.53
51.859,-20.81
51.875,-22.32
51.890,-23.05
51.906,-23.22
51.921,-23.11
51.937,-22.98
51.953,-22.97
51.968,-23.1
51.984,-23.25
52.000,-23.35
52.015,-23.38
52.031,-23.47
52.046,-23.78
52.062,-24.47
52.078,-25.62
52.093,-27.13
52.109,-28.78
52.125,-30.33
52.140,-31.59
52.156,-32.46
52.171,-33.05
52.187,-33.65
52.203,-34.56
52.218,-36.01
52.234,-37.96
52.250,-40.08
52.265,-41.8
52.281,-42.51
52.296,-41.77
52.312,-39.49
52.328,-35.91
52.343,-31.5
52.359,-26.71
52.375,-21.8
52.390,-16.84
52.406,-11.8
52.421,-6.64
52.437,-1.45
52.453,3.52
52.468,8.01
52.484,11.78
52.500,14.67
52.515,16.64
52.531,17.8
52.546,18.34
52.562,18.58
52.578,18.85
52.593,19.39
52.609,20.27
52.625,21.33
52.640,22.22
52.656,22.62
52.671,22.34
52.687,21.47
52.703,20.27
52.718,19.09
52.734,18.17
52.750,17.52
52.765,16.98
52.781,16.33
52.796,15.47
52.812,14.46
52.828,13.5
52.843,12.83
52.859,12.49
52.875,12.37
52.890,12.2
52.906,11.73
52.921,10.83
52.937,9.65
52.953,8.38
52.968,7.29
52.984,6.45
53.000,5.76
53.015,5.01
53.031,3.99
53.046,2.58
53.062,0.78
53.078,-1.31
53.093,-3.59
53.109,-5.95
53.125,-8.31
53.140,-10.65
53.156,-13.02
53.171,-15.58
53.187,-18.54
53.203,-22.06
53.218,-26.18
53.234,-30.73
53.250,-35.39
53.265,-39.75
53.281,-43.41
53.296,-46.1
53.312,-47.59
53.328,-47.71
53.343,-46.36
53.359,-43.54
53.375,-39.43
53.390,-34.43
53.406,-29.03
53.421,-23.69
53.437,-18.64
53.453,-13.91
53.468,-9.4
53.484,-4.98
53.500,-0.64
53.515,3.55
53.531,7.46
53.546,11.01
53.562,14.12
53.578,16.73
53.593,18.77
53.609,20.16
53.625,20.9
53.640,21.11
53.656,21.08
53.671,21.12
53.687,21.51
53.703,22.42
53.718,23.82
53.734,25.49
53.750,27.14
53.765,28.4
53.781,29.05
53.796,29.01
53.812,28.3
53.828,27.13
53.843,25.69
53.859,24.13
53.875,22.57
53.890,21.1
53.906,19.8
53.921,18.73
53.937,17.93
53.953,17.3
53.968,16.66
53.984,15.79
54.000,14.51
54.015,12.78
54.031,10.72
54.046,8.52
54.062,6.38
54.078,4.43
54.093,2.62
54.109,0.82
54.125,-1.18
54.140,-3.51
54.156,-6.19
54.171,-9.09
54.187,-12.1
54.203,-15.12
54.218,-18.15
54.234,-21.31
54.250,-24.7
54.265,-28.32
54.281,-32.03
54.296,-35.54
54.312,-38.49
54.328,-40.54
54.343,-41.36
54.359,-40.77
54.375,-38.78
54.390,-35.6
54.406,-31.6
54.421,-27.2
54.437,-22.77
54.453,-18.47
54.468,-14.3
54.484,-10.22
54.500,-6.12
54.515,-2.02
54.531,1.99
54.546,5.8
54.562,9.29
54.578,12.4
54.593,15.11
54.609,17.42
54.625,19.35
54.640,20.98
54.656,22.36
54.671,23.56
54.687,24.61
54.703,25.5
54.718,26.19
54.734,26.67
54.750,26.92
54.765,26.98
54.781,26.88
54.796,26.61
54.812,26.14
54.828,25.38
54.843,24.3
54.859,22.93
54.875,21.42
54.890,19.98
54.906,18.76
54.921,17.8
54.937,16.96
54.953,16.04
54.968,14.89
54.984,13.43
55.000,11.67
55.015,9.73
55.031,7.68
55.046,5.63
55.062,3.6
55.078,1.63
55.093,-0.28
55.109,-2.1
55.125,-3.86
55.140,-5.64
55.156,-7.51
55.171,-9.55
55.187,-11.77
55.203,-14.25
55.218,-17.08
55.234,-20.44
55.250,-24.41
55.265,-28.92
55.281,-33.55
55.296,-37.66
55.312,-40.53
55.328,-41.61
55.343,-40.71
55.359,-37.97
55.375,-33.81
55.390,-28.75
55.406,-23.29
55.421,-17.85
55.437,-12.81
55.453,-8.38
55.468,-4.58
55.484,-1.23
55.500,2.0
55.515,5.38
55.531,8.93
55.546,12.41
55.562,15.42
55.578,17.64
55.593,19.0
55.609,19.71
55.625,20.11
55.640,20.51
55.656,21.11
55.671,21.97
55.687,23.03
55.703,24.21
55.718,25.39
55.734,26.38
55.750,26.99
55.765,27.03
55.781,26.43
55.796,25.3
55.812,23.87
55.828,22.39
55.843,21.0
55.859,19.72
55.875,18.45
55.890,17.08
55.906,15.59
55.921,14.05
55.937,12.58
55.953,11.24
55.968,9.96
55.984,8.63
56.000,7.13
56.015,5.43
56.031,3.58
56.046,1.65
56.062,-0.34
56.078,-2.47
56.093,-4.84
56.109,-7.51
56.125,-10.41
56.140,-13.46
56.156,-16.61
56.171,-19.9
56.187,-23.47
56.203,-27.38
56.218,-31.55
56.234,-35.78
56.250,-39.72
56.265,-43.04
56.281,-45.51
56.296,-46.94
56.312,-47.21
56.328,-46.18
56.343,-43.8
56.359,-40.11
56.375,-35.32
56.390,-29.79
56.406,-24.0
56.421,-18.36
56.437,-13.16
56.453,-8.42
56.468,-4.01
56.484,0.29
56.500,4.63
56.515,9.04
56.531,13.35
56.546,17.33
56.562,20.75
56.578,23.45
56.593,25.48
56.609,26.92
56.625,27.99
56.640,28.87
56.656,29.72
56.671,30.64
56.687,31.63
56.703,32.55
56.718,33.23
56.734,33.46
56.750,33.09
56.765,32.17
56.781,30.85
56.796,29.36
56.812,27.86
56.828,26.4
56.843,24.95
56.859,23.43
56.875,21.8
56.890,20.09
56.906,18.38
56.921,16.74
56.937,15.16
56.953,13.57
56.968,11.87
56.984,9.99
57.000,7.9
57.015,5.62
57.031,3.12
57.046,0.38
57.062,-2.64
57.078,-5.85
57.093,-9.09
57.109,-12.11
57.125,-14.71
57.140,-16.86
57.156,-18.76
57.171,-20.74
57.187,-23.09
57.203,-26.01
57.218,-29.4
57.234,-33.0
57.250,-36.42
57.265,-39.26
57.281,-41.19
57.296,-42.01
57.312,-41.58
57.328,-39.83
57.343,-36.78
57.359,-32.56
57.375,-27.41
57.390,-21.71
57.406,-15.83
57.421,-10.11
57.437,-4.68
57.453,0.49
57.468,5.5
57.484,10.43
57.500,15.18
57.515,19.53
57.531,23.17
57.546,25.89
57.562,27.67
57.578,28.71
57.593,29.26
57.609,29.6
57.625,29.87
57.640,30.19
57.656,30.57
57.671,31.02
57.687,31.5
57.703,31.94
57.718,32.19
57.734,32.1
57.750,31.49
57.765,30.34
57.781,28.77
57.796,27.0
57.812,25.31
57.828,23.87
57.843,22.66
57.859,21.49
57.875,20.08
57.890,18.21
57.906,15.91
57.921,13.34
57.937,10.82
57.953,8.61
57.968,6.85
57.984,5.44
58.000,4.15
58.015,2.76
58.031,1.14
58.046,-0.68
58.062,-2.62
58.078,-4.56
58.093,-6.41
58.109,-8.22
58.125,-10.08
58.140,-12.13
58.156,-14.48
58.171,-17.16
58.187,-20.08
58.203,-23.14
58.218,-26.28
58.234,-29.46
58.250,-32.61
58.265,-35.56
58.281,-37.9
58.296,-39.11
58.312,-38.66
58.328,-36.32
58.343,-32.32
58.359,-27.27
58.375,-21.92
58.390,-16.91
58.406,-12.45
58.421,-8.37
58.437,-4.34
58.453,-0.12
58.468,4.23
58.484,8.44
58.500,12.14
58.515,15.09
58.531,17.29
58.546,18.98
58.562,20.39
58.578,21.7
58.593,22.86
58.609,23.72
58.625,24.17
58.640,24.27
58.656,24.25
58.671,24.35
58.687,24.75
58.703,25.39
58.718,26.03
58.734,26.35
58.750,26.13
58.765,25.33
58.781,24.11
58.796,22.7
58.812,21.33
58.828,20.07
58.843,18.88
58.859,17.62
58.875,16.17
58.890,14.47
58.906,12.58
58.921,10.59
58.937,8.64
58.953,6.85
58.968,5.19
58.984,3.56
59.000,1.75
59.015,-0.41
59.031,-2.98
59.046,-5.82
59.062,-8.69
59.078,-11.31
59.093,-13.49
59.109,-15.23
59.125,-16.75
59.140,-18.42
59.156,-20.56
59.171,-23.38
59.187,-26.79
59.203,-30.46
59.218,-33.82
59.234,-36.27
59.250,-37.36
59.265,-36.89
59.281,-34.94
59.296,-31.83
59.312,-27.9
59.328,-23.45
59.343,-18.69
59.359,-13.74
59.375,-8.75
59.390,-3.89
59.406,0.67
59.421,4.84
59.437,8.62
59.453,12.03
59.468,15.1
59.484,17.71
59.500,19.68
59.515,20.88
59.531,21.3
59.546,21.1
59.562,20.6
59.578,20.13
59.593,19.93
59.609,20.09
59.625,20.54
59.640,21.1
59.656,21.62
59.671,21.93
59.687,21.99
59.703,21.78
59.718,21.38
59.734,20.88
59.750,20.34
59.765,19.8
59.781,19.23
59.796,18.57
59.812,17.67
59.828,16.47
59.843,14.95
59.859,13.14
59.875,11.14
59.890,9.02
59.906,6.82
59.921,4.56
59.937,2.3
59.953,0.13
59.968,-1.84
59.984,-3.57
