timestamp,value
00.000,-41.57
00.015,-28.74
00.031,-14.99
00.046,-1.9
00.062,9.55
00.078,19.03
00.093,26.72
00.109,33.06
00.125,38.39
00.140,42.88
00.156,46.49
00.171,49.17
00.187,50.92
00.203,51.85
00.218,52.19
00.234,52.04
00.250,51.45
00.265,50.4
00.281,48.87
00.296,46.92
00.312,44.79
00.328,42.73
00.343,40.98
00.359,39.61
00.375,38.46
00.390,37.19
00.406,35.46
00.421,33.12
00.437,30.18
00.453,26.98
00.468,23.86
00.484,21.07
00.500,18.61
00.515,16.23
00.531,13.54
00.546,10.18
00.562,6.05
00.578,1.25
00.593,-3.88
00.609,-8.93
00.625,-13.56
00.640,-17.56
00.656,-20.94
00.671,-23.91
00.687,-26.81
00.703,-30.04
00.718,-33.88
00.734,-38.29
00.750,-42.84
00.765,-46.62
00.781,-48.41
00.796,-47.07
00.812,-41.86
00.828,-32.76
00.843,-20.6
00.859,-6.88
00.875,6.66
00.890,18.5
00.906,27.67
00.921,33.89
00.937,37.37
00.953,38.57
00.968,37.94
00.984,35.82
01.000,32.39
01.015,27.93
01.031,22.81
01.046,17.65
01.062,13.24
01.078,10.41
01.093,9.77
01.109,11.57
01.125,15.59
01.140,21.18
01.156,27.55
01.171,33.95
01.187,39.91
01.203,45.16
01.218,49.59
01.234,52.98
01.250,55.0
01.265,55.35
01.281,53.92
01.296,50.95
01.312,46.95
01.328,42.41
01.343,37.58
01.359,32.33
01.375,26.31
01.390,19.03
01.406,10.26
01.421,0.11
01.437,-10.99
01.453,-22.49
01.468,-33.95
01.484,-45.12
01.500,-56.04
01.515,-66.94
01.531,-78.05
01.546,-89.27
01.562,-100.05
01.578,-109.29
01.593,-115.54
01.609,-117.28
01.625,-113.32
01.640,-103.15
01.656,-87.21
01.671,-66.75
01.687,-43.51
01.703,-19.36
01.718,4.09
01.734,25.68
01.750,44.82
01.765,61.18
01.781,74.57
01.796,84.61
01.812,90.78
01.828,92.54
01.843,89.65
01.859,82.45
01.875,72.05
01.890,60.15
01.906,48.67
01.921,39.34
01.937,33.26
01.953,30.78
01.968,31.34
01.984,33.87
02.000,36.85
02.015,38.76
02.031,38.28
02.046,34.64
02.062,27.87
02.078,18.84
02.093,8.99
02.109,-0.06
02.125,-6.98
02.140,-11.06
02.156,-12.28
02.171,-11.2
02.187,-8.67
02.203,-5.54
02.218,-2.34
02.234,0.71
02.250,3.75
02.265,7.07
02.281,10.81
02.296,14.61
02.312,17.39
02.328,17.43
02.343,12.93
02.359,2.82
02.375,-12.52
02.390,-31.08
02.406,-49.71
02.421,-65.14
02.437,-75.1
02.453,-78.94
02.468,-77.63
02.484,-73.04
02.500,-67.07
02.515,-60.97
02.531,-55.41
02.546,-50.83
02.562,-47.93
02.578,-47.91
02.593,-52.24
02.609,-62.02
02.625,-77.5
02.640,-97.67
02.656,-120.49
02.671,-143.23
02.687,-162.99
02.703,-177.09
02.718,-183.5
02.734,-181.09
02.750,-169.85
02.765,-151.13
02.781,-127.46
02.796,-102.03
02.812,-77.73
02.828,-56.24
02.843,-37.49
02.859,-20.08
02.875,-2.22
02.890,16.98
02.906,36.82
02.921,55.17
02.937,69.33
02.953,77.35
02.968,78.72
02.984,74.36
03.000,65.96
03.015,55.15
03.031,42.9
03.046,29.57
03.062,15.3
03.078,0.45
03.093,-14.2
03.109,-27.52
03.125,-38.47
03.140,-46.2
03.156,-50.29
03.171,-50.64
03.187,-47.5
03.203,-41.19
03.218,-32.23
03.234,-21.23
03.250,-8.91
03.265,4.0
03.281,16.8
03.296,28.92
03.312,39.97
03.328,49.67
03.343,57.89
03.359,64.47
03.375,69.22
03.390,71.9
03.406,72.31
03.421,70.5
03.437,66.76
03.453,61.74
03.468,56.18
03.484,50.89
03.500,46.35
03.515,42.8
03.531,40.17
03.546,38.21
03.562,36.73
03.578,35.53
03.593,34.44
03.609,33.19
03.625,31.34
03.640,28.36
03.656,23.81
03.671,17.66
03.687,10.2
03.703,2.08
03.718,-6.15
03.734,-14.12
03.750,-21.81
03.765,-29.48
03.781,-37.39
03.796,-45.71
03.812,-54.35
03.828,-63.18
03.843,-71.85
03.859,-79.94
03.875,-86.69
03.890,-90.95
03.906,-91.49
03.921,-87.15
03.937,-77.46
03.953,-62.73
03.968,-44.24
03.984,-23.72
04.000,-3.04
04.015,16.3
04.031,33.41
04.046,47.88
04.062,59.68
04.078,68.86
04.093,75.47
04.109,79.49
04.125,81.03
04.140,80.32
04.156,77.72
04.171,73.67
04.187,68.64
04.203,63.07
04.218,57.29
04.234,51.59
04.250,46.21
04.265,41.33
04.281,37.11
04.296,33.58
04.312,30.66
04.328,28.06
04.343,25.35
04.359,21.98
04.375,17.44
04.390,11.51
04.406,4.26
04.421,-3.83
04.437,-12.15
04.453,-20.11
04.468,-27.39
04.484,-33.97
04.500,-40.02
04.515,-45.88
04.531,-51.86
04.546,-58.28
04.562,-65.41
04.578,-73.39
04.593,-81.96
04.609,-90.28
04.625,-96.94
04.640,-100.22
04.656,-98.65
04.671,-91.49
04.687,-79.02
04.703,-62.55
04.718,-43.96
04.734,-25.09
04.750,-7.3
04.765,8.72
04.781,22.86
04.796,35.23
04.812,45.91
04.828,54.77
04.843,61.54
04.859,65.91
04.875,67.81
04.890,67.49
04.906,65.39
04.921,62.06
04.937,57.85
04.953,52.9
04.968,47.21
04.984,40.84
05.000,34.16
05.015,27.74
05.031,22.19
05.046,17.85
05.062,14.62
05.078,11.95
05.093,9.1
05.109,5.42
05.125,0.58
05.140,-5.28
05.156,-11.7
05.171,-18.12
05.187,-24.0
05.203,-29.08
05.218,-33.42
05.234,-37.43
05.250,-41.72
05.265,-46.99
05.281,-53.65
05.296,-61.81
05.312,-70.96
05.328,-80.07
05.343,-87.64
05.359,-91.99
05.375,-91.63
05.390,-85.6
05.406,-73.91
05.421,-57.51
05.437,-38.16
05.453,-17.93
05.468,1.29
05.484,18.23
05.500,32.32
05.515,43.48
05.531,51.93
05.546,57.75
05.562,60.93
05.578,61.49
05.593,59.64
05.609,55.93
05.625,51.08
05.640,45.79
05.656,40.54
05.671,35.45
05.687,30.34
05.703,25.0
05.718,19.36
05.734,13.67
05.750,8.39
05.765,3.94
05.781,0.47
05.796,-2.34
05.812,-5.07
05.828,-8.42
05.843,-12.66
05.859,-17.66
05.875,-22.91
05.890,-27.83
05.906,-32.09
05.921,-35.77
05.937,-39.28
05.953,-43.14
05.968,-47.87
05.984,-53.67
06.000,-60.51
06.015,-67.98
06.031,-75.2
06.046,-80.85
06.062,-83.32
06.078,-81.08
06.093,-73.23
06.109,-59.95
06.125,-42.46
06.140,-22.76
06.156,-3.0
06.171,15.18
06.187,30.91
06.203,44.12
06.218,55.16
06.234,64.39
06.250,71.86
06.265,77.35
06.281,80.52
06.296,81.16
06.312,79.43
06.328,75.81
06.343,71.01
06.359,65.77
06.375,60.68
06.390,56.08
06.406,52.19
06.421,49.09
06.437,46.82
06.453,45.37
06.468,44.56
06.484,44.02
06.500,43.08
06.515,41.03
06.531,37.28
06.546,31.62
06.562,24.3
06.578,15.95
06.593,7.45
06.609,-0.42
06.625,-7.14
06.640,-12.54
06.656,-16.78
06.671,-20.24
06.687,-23.49
06.703,-27.19
06.718,-31.92
06.734,-37.99
06.750,-45.19
06.765,-52.67
06.781,-58.97
06.796,-62.38
06.812,-61.44
06.828,-55.44
06.843,-44.72
06.859,-30.55
06.875,-14.7
06.890,1.04
06.906,15.36
06.921,27.61
06.937,37.71
06.953,45.93
06.968,52.56
06.984,57.74
07.000,61.48
07.015,63.7
07.031,64.4
07.046,63.71
07.062,61.97
07.078,59.52
07.093,56.73
07.109,53.82
07.125,50.83
07.140,47.69
07.156,44.23
07.171,40.42
07.187,36.31
07.203,32.12
07.218,28.07
07.234,24.37
07.250,21.04
07.265,17.93
07.281,14.74
07.296,11.12
07.312,6.8
07.328,1.66
07.343,-4.29
07.359,-10.84
07.375,-17.66
07.390,-24.39
07.406,-30.82
07.421,-36.84
07.437,-42.61
07.453,-48.48
07.468,-54.76
07.484,-61.63
07.500,-68.82
07.515,-75.44
07.531,-80.22
07.546,-81.74
07.562,-78.85
07.578,-71.18
07.593,-59.21
07.609,-44.17
07.625,-27.69
07.640,-11.39
07.656,3.47
07.671,16.15
07.687,26.27
07.703,33.92
07.718,39.28
07.734,42.71
07.750,44.59
07.765,45.22
07.781,44.86
07.796,43.68
07.812,41.87
07.828,39.61
07.843,37.14
07.859,34.65
07.875,32.3
07.890,30.15
07.906,28.15
07.921,26.25
07.937,24.4
07.953,22.59
07.968,20.81
07.984,19.05
08.000,17.16
08.015,14.88
08.031,11.96
08.046,8.14
08.062,3.38
08.078,-2.15
08.093,-8.02
08.109,-13.76
08.125,-18.94
08.140,-23.5
08.156,-27.66
08.171,-31.86
08.187,-36.55
08.203,-42.01
08.218,-48.21
08.234,-54.83
08.250,-61.25
08.265,-66.62
08.281,-69.96
08.296,-70.28
08.312,-66.74
08.328,-58.92
08.343,-47.01
08.359,-31.94
08.375,-15.15
08.390,1.69
08.406,17.07
08.421,29.99
08.437,40.08
08.453,47.56
08.468,52.92
08.484,56.77
08.500,59.5
08.515,61.26
08.531,62.03
08.546,61.72
08.562,60.31
08.578,57.98
08.593,55.02
08.609,51.77
08.625,48.52
08.640,45.4
08.656,42.42
08.671,39.54
08.687,36.74
08.703,33.99
08.718,31.32
08.734,28.67
08.750,25.94
08.765,22.9
08.781,19.38
08.796,15.26
08.812,10.44
08.828,4.98
08.843,-0.97
08.859,-7.2
08.875,-13.47
08.890,-19.47
08.906,-25.01
08.921,-29.99
08.937,-34.49
08.953,-38.71
08.968,-43.0
08.984,-47.68
09.000,-53.03
09.015,-59.21
09.031,-65.95
09.046,-72.55
09.062,-77.8
09.078,-80.16
09.093,-78.19
09.109,-71.05
09.125,-58.83
09.140,-42.69
09.156,-24.53
09.171,-6.44
09.187,9.83
09.203,23.16
09.218,33.24
09.234,40.37
09.250,45.15
09.265,48.21
09.281,50.05
09.296,50.94
09.312,50.99
09.328,50.22
09.343,48.66
09.359,46.43
09.375,43.72
09.390,40.78
09.406,37.81
09.421,34.97
09.437,32.33
09.453,29.95
09.468,27.83
09.484,25.94
09.500,24.21
09.515,22.49
09.531,20.55
09.546,18.2
09.562,15.32
09.578,11.86
09.593,7.88
09.609,3.48
09.625,-1.21
09.640,-6.06
09.656,-11.02
09.671,-16.05
09.687,-21.11
09.703,-26.09
09.718,-30.92
09.734,-35.53
09.750,-39.95
09.765,-44.32
09.781,-48.94
09.796,-54.18
09.812,-60.25
09.828,-66.98
09.843,-73.59
09.859,-78.73
09.875,-80.77
09.890,-78.29
09.906,-70.59
09.921,-58.02
09.937,-41.9
09.953,-24.16
09.968,-6.74
09.984,8.93
10.000,22.06
10.015,32.52
10.031,40.54
10.046,46.42
10.062,50.39
10.078,52.59
10.093,53.21
10.109,52.56
10.125,51.02
10.140,48.96
10.156,46.68
10.171,44.34
10.187,41.92
10.203,39.45
10.218,36.98
10.234,34.69
10.250,32.78
10.265,31.35
10.281,30.27
10.296,29.18
10.312,27.64
10.328,25.23
10.343,21.83
10.359,17.59
10.375,12.91
10.390,8.19
10.406,3.62
10.421,-0.8
10.437,-5.3
10.453,-10.13
10.468,-15.39
10.484,-20.94
10.500,-26.52
10.515,-31.82
10.531,-36.69
10.546,-41.23
10.562,-45.68
10.578,-50.44
10.593,-55.88
10.609,-62.15
10.625,-69.11
10.640,-76.21
10.656,-82.45
10.671,-86.43
10.687,-86.78
10.703,-82.37
10.718,-72.77
10.734,-58.49
10.750,-40.88
10.765,-21.89
10.781,-3.58
10.796,12.35
10.812,24.95
10.828,34.0
10.843,39.92
10.859,43.38
10.875,45.05
10.890,45.42
10.906,44.72
10.921,43.08
10.937,40.65
10.953,37.71
10.968,34.63
10.984,31.78
11.000,29.4
11.015,27.58
11.031,26.26
11.046,25.21
11.062,24.15
11.078,22.86
11.093,21.21
11.109,19.19
11.125,16.9
11.140,14.43
11.156,11.74
11.171,8.74
11.187,5.22
11.203,1.01
11.218,-3.95
11.234,-9.55
11.250,-15.63
11.265,-22.01
11.281,-28.56
11.296,-35.2
11.312,-41.8
11.328,-48.25
11.343,-54.38
11.359,-60.17
11.375,-65.75
11.390,-71.44
11.406,-77.51
11.421,-83.97
11.437,-90.26
11.453,-95.16
11.468,-97.04
11.484,-94.27
11.500,-85.93
11.515,-72.15
11.531,-54.26
11.546,-34.32
11.562,-14.64
11.578,3.0
11.593,17.59
11.609,29.03
11.625,37.74
11.640,44.37
11.656,49.39
11.671,53.1
11.687,55.6
11.703,56.92
11.718,57.12
11.734,56.38
11.750,54.95
11.765,53.12
11.781,51.04
11.796,48.8
11.812,46.4
11.828,43.84
11.843,41.15
11.859,38.42
11.875,35.73
11.890,33.04
11.906,30.24
11.921,27.06
11.937,23.31
11.953,18.96
11.968,14.17
11.984,9.25
12.000,4.45
12.015,-0.19
12.031,-4.89
12.046,-9.99
12.062,-15.79
12.078,-22.29
12.093,-29.24
12.109,-36.21
12.125,-42.82
12.140,-48.95
12.156,-54.85
12.171,-61.05
12.187,-68.1
12.203,-76.24
12.218,-85.07
12.234,-93.47
12.250,-99.75
12.265,-102.03
12.281,-98.83
12.296,-89.5
12.312,-74.5
12.328,-55.3
12.343,-33.94
12.359,-12.5
12.375,7.33
12.390,24.48
12.406,38.54
12.421,49.51
12.437,57.68
12.453,63.45
12.468,67.19
12.484,69.25
12.500,69.97
12.515,69.61
12.531,68.37
12.546,66.42
12.562,63.88
12.578,60.9
12.593,57.73
12.609,54.68
12.625,52.01
12.640,49.88
12.656,48.19
12.671,46.68
12.687,44.97
12.703,42.67
12.718,39.6
12.734,35.79
12.750,31.5
12.765,26.99
12.781,22.39
12.796,17.65
12.812,12.62
12.828,7.12
12.843,1.07
12.859,-5.46
12.875,-12.27
12.890,-19.13
12.906,-25.89
12.921,-32.47
12.937,-38.94
12.953,-45.45
12.968,-52.18
12.984,-59.36
13.000,-67.16
13.015,-75.53
13.031,-84.02
13.046,-91.53
13.062,-96.5
13.078,-97.06
13.093,-91.74
13.109,-79.97
13.125,-62.39
13.140,-40.8
13.156,-17.7
13.171,4.46
13.187,23.85
13.203,39.56
13.218,51.67
13.234,60.68
13.250,67.29
13.265,71.97
13.281,74.98
13.296,76.34
13.312,76.13
13.328,74.56
13.343,71.95
13.359,68.73
13.375,65.24
13.390,61.73
13.406,58.31
13.421,55.09
13.437,52.15
13.453,49.54
13.468,47.29
13.484,45.26
13.500,43.19
13.515,40.76
13.531,37.7
13.546,33.84
13.562,29.2
13.578,23.92
13.593,18.18
13.609,12.16
13.625,5.95
13.640,-0.37
13.656,-6.75
13.671,-13.1
13.687,-19.24
13.703,-25.07
13.718,-30.51
13.734,-35.63
13.750,-40.72
13.765,-46.28
13.781,-52.77
13.796,-60.51
13.812,-69.29
13.828,-78.24
13.843,-85.83
13.859,-90.16
13.875,-89.47
13.890,-82.72
13.906,-70.01
13.921,-52.54
13.937,-32.35
13.953,-11.72
13.968,7.39
13.984,23.75
14.000,36.94
14.015,47.1
14.031,54.6
14.046,59.8
14.062,62.9
14.078,64.02
14.093,63.39
14.109,61.38
14.125,58.48
14.140,55.19
14.156,51.88
14.171,48.67
14.187,45.65
14.203,42.87
14.218,40.35
14.234,38.15
14.250,36.18
14.265,34.25
14.281,32.11
14.296,29.51
14.312,26.38
14.328,22.78
14.343,18.79
14.359,14.44
14.375,9.71
14.390,4.57
14.406,-1.0
14.421,-6.88
14.437,-12.89
14.453,-18.85
14.468,-24.64
14.484,-30.21
14.500,-35.67
14.515,-41.09
14.531,-46.7
14.546,-52.77
14.562,-59.56
14.578,-67.17
14.593,-75.2
14.609,-82.68
14.625,-88.07
14.640,-89.62
14.656,-85.9
14.671,-76.33
14.687,-61.43
14.703,-42.74
14.718,-22.42
14.734,-2.59
14.750,15.08
14.765,29.72
14.781,41.11
14.796,49.54
14.812,55.55
14.828,59.59
14.843,62.03
14.859,63.03
14.875,62.68
14.890,61.06
14.906,58.32
14.921,54.74
14.937,50.66
14.953,46.5
14.968,42.61
14.984,39.28
15.000,36.6
15.015,34.5
15.031,32.77
15.046,31.14
15.062,29.34
15.078,27.17
15.093,24.53
15.109,21.32
15.125,17.46
15.140,12.85
15.156,7.46
15.171,1.36
15.187,-5.22
15.203,-11.86
15.218,-18.19
15.234,-23.9
15.250,-28.99
15.265,-33.66
15.281,-38.25
15.296,-43.16
15.312,-48.68
15.328,-55.04
15.343,-62.17
15.359,-69.79
15.375,-77.16
15.390,-83.05
15.406,-85.91
15.421,-84.17
15.437,-76.82
15.453,-63.73
15.468,-45.96
15.484,-25.43
15.500,-4.56
15.515,14.47
15.531,30.29
15.546,42.48
15.562,51.53
15.578,58.35
15.593,63.85
15.609,68.48
15.625,72.21
15.640,74.51
15.656,74.81
15.671,72.84
15.687,68.85
15.703,63.65
15.718,58.31
15.734,53.85
15.750,50.74
15.765,48.93
15.781,47.7
15.796,46.15
15.812,43.52
15.828,39.29
15.843,33.34
15.859,25.81
15.875,17.33
15.890,8.86
15.906,1.72
15.921,-2.92
15.937,-4.62
15.953,-4.08
15.968,-3.15
15.984,-3.88
16.000,-7.61
16.015,-14.0
16.031,-21.17
16.046,-26.46
16.062,-27.85
16.078,-24.89
16.093,-18.9
16.109,-12.34
16.125,-7.61
16.140,-6.2
16.156,-8.21
16.171,-12.73
16.187,-18.15
16.203,-22.95
16.218,-25.82
16.234,-25.98
16.250,-23.14
16.265,-17.46
16.281,-9.47
16.296,-0.12
16.312,9.44
16.328,18.05
16.343,24.71
16.359,28.83
16.375,30.35
16.390,29.73
16.406,27.75
16.421,25.3
16.437,23.04
16.453,21.38
16.468,20.31
16.484,19.65
16.500,19.1
16.515,18.44
16.531,17.6
16.546,16.75
16.562,16.12
16.578,15.89
16.593,16.09
16.609,16.43
16.625,16.36
16.640,15.26
16.656,12.69
16.671,8.58
16.687,3.35
16.703,-2.29
16.718,-7.66
16.734,-12.33
16.750,-16.27
16.765,-19.8
16.781,-23.34
16.796,-27.13
16.812,-31.21
16.828,-35.32
16.843,-39.21
16.859,-42.69
16.875,-45.85
16.890,-48.92
16.906,-52.33
16.921,-56.45
16.937,-61.49
16.953,-67.34
16.968,-73.41
16.984,-78.69
17.000,-81.8
17.015,-81.37
17.031,-76.45
17.046,-66.85
17.062,-53.16
17.078,-36.77
17.093,-19.46
17.109,-2.93
17.125,11.52
17.140,23.25
17.156,32.21
17.171,38.81
17.187,43.51
17.203,46.77
17.218,48.88
17.234,49.94
17.250,50.07
17.265,49.41
17.281,48.17
17.296,46.61
17.312,44.98
17.328,43.38
17.343,41.86
17.359,40.43
17.375,39.02
17.390,37.67
17.406,36.32
17.421,34.9
17.437,33.25
17.453,31.13
17.468,28.33
17.484,24.83
17.500,20.67
17.515,16.06
17.531,11.29
17.546,6.56
17.562,2.0
17.578,-2.41
17.593,-6.79
17.609,-11.24
17.625,-15.84
17.640,-20.51
17.656,-25.2
17.671,-29.68
17.687,-33.87
17.703,-37.73
17.718,-41.38
17.734,-45.1
17.750,-49.2
17.765,-53.82
17.781,-58.72
17.796,-63.2
17.812,-66.07
17.828,-66.08
17.843,-62.26
17.859,-54.34
17.875,-42.92
17.890,-29.3
17.906,-15.08
17.921,-1.72
17.937,9.83
17.953,19.22
17.968,26.49
17.984,31.9
18.000,35.68
18.015,38.03
18.031,39.11
18.046,39.15
18.062,38.44
18.078,37.33
18.093,36.1
18.109,34.89
18.125,33.78
18.140,32.72
18.156,31.7
18.171,30.74
18.187,29.86
18.203,29.03
18.218,28.16
18.234,27.11
18.250,25.63
18.265,23.59
18.281,20.89
18.296,17.55
18.312,13.69
18.328,9.47
18.343,5.01
18.359,0.37
18.375,-4.47
18.390,-9.57
18.406,-14.97
18.421,-20.54
18.437,-26.02
18.453,-31.09
18.468,-35.5
18.484,-39.19
18.500,-42.36
18.515,-45.41
18.531,-48.81
18.546,-52.87
18.562,-57.59
18.578,-62.47
18.593,-66.61
18.609,-68.82
18.625,-68.0
18.640,-63.42
18.656,-55.06
18.671,-43.61
18.687,-30.33
18.703,-16.66
18.718,-3.83
18.734,7.39
18.750,16.7
18.765,24.25
18.781,30.4
18.796,35.48
18.812,39.72
18.828,43.13
18.843,45.56
18.859,46.86
18.875,46.91
18.890,45.76
18.906,43.67
18.921,41.02
18.937,38.29
18.953,35.93
18.968,34.2
18.984,33.15
19.000,32.63
19.015,32.34
19.031,31.91
19.046,30.94
19.062,29.13
19.078,26.33
19.093,22.63
19.109,18.29
19.125,13.69
19.140,9.16
19.156,4.94
19.171,1.17
19.187,-2.28
19.203,-5.59
19.218,-8.99
19.234,-12.61
19.250,-16.44
19.265,-20.33
19.281,-24.14
19.296,-27.8
19.312,-31.35
19.328,-35.1
19.343,-39.4
19.359,-44.55
19.375,-50.57
19.390,-56.95
19.406,-62.7
19.421,-66.46
19.437,-66.99
19.453,-63.41
19.468,-55.58
19.484,-44.15
19.500,-30.47
19.515,-16.11
19.531,-2.49
19.546,9.38
19.562,19.12
19.578,26.75
19.593,32.57
19.609,36.96
19.625,40.26
19.640,42.66
19.656,44.26
19.671,45.17
19.687,45.41
19.703,45.05
19.718,44.11
19.734,42.61
19.750,40.64
19.765,38.37
19.781,36.09
19.796,34.08
19.812,32.64
19.828,31.8
19.843,31.39
19.859,31.02
19.875,30.19
19.890,28.47
19.906,25.68
19.921,21.96
19.937,17.66
19.953,13.25
19.968,9.13
19.984,5.52
20.000,2.29
20.015,-0.87
20.031,-4.35
20.046,-8.41
20.062,-13.12
20.078,-18.25
20.093,-23.49
20.109,-28.48
20.125,-33.02
20.140,-37.08
20.156,-40.87
20.171,-44.67
20.187,-48.73
20.203,-53.3
20.218,-58.32
20.234,-63.37
20.250,-67.65
20.265,-70.06
20.281,-69.46
20.296,-65.07
20.312,-56.77
20.328,-45.17
20.343,-31.51
20.359,-17.31
20.375,-3.94
20.390,7.66
20.406,17.05
20.421,24.27
20.437,29.65
20.453,33.58
20.468,36.44
20.484,38.54
20.500,40.02
20.515,40.89
20.531,41.12
20.546,40.66
20.562,39.54
20.578,37.88
20.593,35.85
20.609,33.62
20.625,31.36
20.640,29.15
20.656,27.04
20.671,25.07
20.687,23.24
20.703,21.54
20.718,19.81
20.734,17.82
20.750,15.41
20.765,12.5
20.781,9.22
20.796,5.87
20.812,2.77
20.828,0.07
20.843,-2.28
20.859,-4.59
20.875,-7.24
20.890,-10.45
20.906,-14.22
20.921,-18.32
20.937,-22.39
20.953,-26.16
20.968,-29.63
20.984,-32.99
21.000,-36.61
21.015,-40.86
21.031,-45.94
21.046,-51.73
21.062,-57.83
21.078,-63.44
21.093,-67.59
21.109,-69.26
21.125,-67.55
21.140,-62.05
21.156,-52.93
21.171,-40.97
21.187,-27.46
21.203,-13.85
21.218,-1.32
21.234,9.33
21.250,17.82
21.265,24.29
21.281,29.09
21.296,32.55
21.312,34.96
21.328,36.41
21.343,37.01
21.359,36.85
21.375,36.12
21.390,35.01
21.406,33.7
21.421,32.28
21.437,30.72
21.453,28.99
21.468,27.05
21.484,25.02
21.500,23.07
21.515,21.3
21.531,19.73
21.546,18.21
21.562,16.5
21.578,14.39
21.593,11.84
21.609,8.95
21.625,5.97
21.640,3.14
21.656,0.56
21.671,-1.82
21.687,-4.18
21.703,-6.81
21.718,-9.95
21.734,-13.71
21.750,-18.03
21.765,-22.66
21.781,-27.25
21.796,-31.49
21.812,-35.22
21.828,-38.55
21.843,-41.81
21.859,-45.4
21.875,-49.63
21.890,-54.52
21.906,-59.66
21.921,-64.22
21.937,-67.05
21.953,-66.97
21.968,-63.14
21.984,-55.3
22.000,-43.96
22.015,-30.27
22.031,-15.78
22.046,-2.0
22.062,9.93
22.078,19.48
22.093,26.66
22.109,31.79
22.125,35.27
22.140,37.45
22.156,38.53
22.171,38.66
22.187,37.99
22.203,36.78
22.218,35.22
22.234,33.56
22.250,31.91
22.265,30.32
22.281,28.82
22.296,27.48
22.312,26.36
22.328,25.51
22.343,24.86
22.359,24.21
22.375,23.31
22.390,21.91
22.406,19.8
22.421,16.95
22.437,13.44
22.453,9.47
22.468,5.34
22.484,1.25
22.500,-2.68
22.515,-6.45
22.531,-10.17
22.546,-13.97
22.562,-17.94
22.578,-22.09
22.593,-26.3
22.609,-30.41
22.625,-34.31
22.640,-37.96
22.656,-41.46
22.671,-45.08
22.687,-49.16
22.703,-53.96
22.718,-59.53
22.734,-65.46
22.750,-70.85
22.765,-74.42
22.781,-74.83
22.796,-71.15
22.812,-63.15
22.828,-51.51
22.843,-37.55
22.859,-22.81
22.875,-8.66
22.890,4.05
22.906,14.96
22.921,24.1
22.937,31.63
22.953,37.69
22.968,42.37
22.984,45.75
23.000,47.91
23.015,48.95
23.031,49.02
23.046,48.26
23.062,46.79
23.078,44.77
23.093,42.33
23.109,39.67
23.125,37.02
23.140,34.65
23.156,32.79
23.171,31.59
23.187,31.0
23.203,30.77
23.218,30.42
23.234,29.38
23.250,27.26
23.265,23.96
23.281,19.79
23.296,15.21
23.312,10.71
23.328,6.52
23.343,2.55
23.359,-1.53
23.375,-6.09
23.390,-11.23
23.406,-16.81
23.421,-22.47
23.437,-27.82
23.453,-32.6
23.468,-36.79
23.484,-40.58
23.500,-44.3
23.515,-48.36
23.531,-53.1
23.546,-58.66
23.562,-64.78
23.578,-70.75
23.593,-75.37
23.609,-77.29
23.625,-75.37
23.640,-69.01
23.656,-58.43
23.671,-44.65
23.687,-29.2
23.703,-13.71
23.718,0.5
23.734,12.71
23.750,22.74
23.765,30.79
23.781,37.33
23.796,42.73
23.812,47.18
23.828,50.78
23.843,53.47
23.859,55.21
23.875,56.01
23.890,55.91
23.906,55.03
23.921,53.49
23.937,51.45
23.953,48.99
23.968,46.33
23.984,43.62
24.000,41.01
24.015,38.6
24.031,36.36
24.046,34.16
24.062,31.72
24.078,28.8
24.093,25.2
24.109,20.95
24.125,16.27
24.140,11.45
24.156,6.76
24.171,2.32
24.187,-2.02
24.203,-6.52
24.218,-11.47
24.234,-16.96
24.250,-22.8
24.265,-28.68
24.281,-34.2
24.296,-39.08
24.312,-43.32
24.328,-47.14
24.343,-50.93
24.359,-55.16
24.375,-60.11
24.390,-65.82
24.406,-71.87
24.421,-77.43
24.437,-81.23
24.453,-81.99
24.468,-78.73
24.484,-71.07
24.500,-59.46
24.515,-44.99
24.531,-29.09
24.546,-13.18
24.562,1.57
24.578,14.48
24.593,25.28
24.609,34.03
24.625,41.06
24.640,46.75
24.656,51.37
24.671,55.06
24.687,57.76
24.703,59.28
24.718,59.48
24.734,58.38
24.750,56.15
24.765,53.09
24.781,49.52
24.796,45.8
24.812,42.3
24.828,39.4
24.843,37.37
24.859,36.21
24.875,35.62
24.890,35.04
24.906,33.89
24.921,31.81
24.937,28.81
24.953,25.19
24.968,21.36
24.984,17.64
25.000,14.07
25.015,10.46
25.031,6.51
25.046,1.9
25.062,-3.51
25.078,-9.68
25.093,-16.38
25.109,-23.28
25.125,-29.9
25.140,-35.86
25.156,-40.89
25.171,-45.03
25.187,-48.61
25.203,-52.18
25.218,-56.34
25.234,-61.37
25.250,-66.97
25.265,-72.12
25.281,-75.36
25.296,-75.11
25.312,-70.3
25.328,-60.75
25.343,-47.25
25.359,-31.34
25.375,-14.82
25.390,0.73
25.406,14.26
25.421,25.32
25.437,33.94
25.453,40.45
25.468,45.19
25.484,48.52
25.500,50.64
25.515,51.71
25.531,51.84
25.546,51.15
25.562,49.74
25.578,47.79
25.593,45.52
25.609,43.18
25.625,41.05
25.640,39.28
25.656,37.99
25.671,37.11
25.687,36.49
25.703,35.77
25.718,34.58
25.734,32.55
25.750,29.48
25.765,25.43
25.781,20.62
25.796,15.49
25.812,10.37
25.828,5.48
25.843,0.79
25.859,-3.87
25.875,-8.71
25.890,-13.84
25.906,-19.22
25.921,-24.63
25.937,-29.74
25.953,-34.3
25.968,-38.17
25.984,-41.49
26.000,-44.55
26.015,-47.84
26.031,-51.81
26.046,-56.69
26.062,-62.29
26.078,-67.73
26.093,-71.68
26.109,-72.54
26.125,-68.99
26.140,-60.46
26.156,-47.45
26.171,-31.38
26.187,-14.13
26.203,2.44
26.218,17.04
26.234,29.07
26.250,38.58
26.265,45.92
26.281,51.47
26.296,55.5
26.312,58.23
26.328,59.85
26.343,60.58
26.359,60.66
26.375,60.22
26.390,59.35
26.406,58.08
26.421,56.37
26.437,54.26
26.453,51.92
26.468,49.53
26.484,47.3
26.500,45.38
26.515,43.73
26.531,42.23
26.546,40.56
26.562,38.37
26.578,35.37
26.593,31.52
26.609,26.94
26.625,22.01
26.640,17.12
26.656,12.55
26.671,8.31
26.687,4.15
26.703,-0.32
26.718,-5.41
26.734,-11.16
26.750,-17.35
26.765,-23.54
26.781,-29.35
26.796,-34.6
26.812,-39.38
26.828,-44.01
26.843,-48.89
26.859,-54.34
26.875,-60.41
26.890,-66.8
26.906,-72.74
26.921,-77.14
26.937,-78.76
26.953,-76.51
26.968,-69.83
26.984,-58.94
27.000,-44.87
27.015,-29.21
27.031,-13.6
27.046,0.63
27.062,12.77
27.078,22.64
27.093,30.53
27.109,36.79
27.125,41.78
27.140,45.67
27.156,48.55
27.171,50.44
27.187,51.39
27.203,51.46
27.218,50.76
27.234,49.41
27.250,47.55
27.265,45.35
27.281,42.95
27.296,40.52
27.312,38.23
27.328,36.28
27.343,34.8
27.359,33.81
27.375,33.1
27.390,32.29
27.406,30.91
27.421,28.56
27.437,25.13
27.453,20.82
27.468,16.11
27.484,11.49
27.500,7.33
27.515,3.58
27.531,-0.06
27.546,-4.06
27.562,-8.81
27.578,-14.35
27.593,-20.44
27.609,-26.57
27.625,-32.24
27.640,-37.09
27.656,-41.1
27.671,-44.55
27.687,-47.85
27.703,-51.49
27.718,-55.76
27.734,-60.68
27.750,-65.81
27.765,-70.28
27.781,-72.89
27.796,-72.45
27.812,-68.15
27.828,-59.8
27.843,-47.96
27.859,-33.86
27.875,-18.96
27.890,-4.63
27.906,8.14
27.921,18.88
27.937,27.56
27.953,34.33
27.968,39.51
27.984,43.3
28.000,45.94
28.015,47.6
28.031,48.39
28.046,48.38
28.062,47.61
28.078,46.16
28.093,44.12
28.109,41.7
28.125,39.12
28.140,36.63
28.156,34.5
28.171,32.88
28.187,31.86
28.203,31.34
28.218,31.08
28.234,30.69
28.250,29.74
28.265,27.88
28.281,24.96
28.296,21.14
28.312,16.84
28.328,12.55
28.343,8.66
28.359,5.26
28.375,2.14
28.390,-1.12
28.406,-4.88
28.421,-9.33
28.437,-14.33
28.453,-19.53
28.468,-24.57
28.484,-29.2
28.500,-33.41
28.515,-37.33
28.531,-41.2
28.546,-45.21
28.562,-49.58
28.578,-54.39
28.593,-59.61
28.609,-64.94
28.625,-69.63
28.640,-72.64
28.656,-72.8
28.671,-69.2
28.687,-61.56
28.703,-50.36
28.718,-36.76
28.734,-22.26
28.750,-8.32
28.765,4.03
28.781,14.26
28.796,22.29
28.812,28.3
28.828,32.5
28.843,35.16
28.859,36.49
28.875,36.8
28.890,36.4
28.906,35.56
28.921,34.44
28.937,33.08
28.953,31.47
28.968,29.64
28.984,27.7
29.000,25.93
29.015,24.58
29.031,23.77
29.046,23.41
29.062,23.19
29.078,22.73
29.093,21.7
29.109,19.94
29.125,17.41
29.140,14.25
29.156,10.73
29.171,7.12
29.187,3.6
29.203,0.29
29.218,-2.9
29.234,-6.09
29.250,-9.44
29.265,-13.09
29.281,-17.01
29.296,-21.12
29.312,-25.18
29.328,-29.0
29.343,-32.46
29.359,-35.61
29.375,-38.67
29.390,-41.92
29.406,-45.68
29.421,-50.12
29.437,-55.14
29.453,-60.17
29.468,-64.25
29.484,-66.11
29.500,-64.59
29.515,-59.03
29.531,-49.55
29.546,-37.12
29.562,-23.25
29.578,-9.59
29.593,2.64
29.609,12.87
29.625,21.13
29.640,27.81
29.656,33.28
29.671,37.74
29.687,41.16
29.703,43.42
29.718,44.44
29.734,44.33
29.750,43.29
29.765,41.58
29.781,39.49
29.796,37.18
29.812,34.79
29.828,32.5
29.843,30.46
29.859,28.8
29.875,27.52
29.890,26.49
29.906,25.47
29.921,24.2
29.937,22.43
29.953,20.08
29.968,17.18
29.984,13.96
30.000,10.72
30.015,7.76
30.031,5.25
30.046,3.11
30.062,1.1
30.078,-1.25
30.093,-4.27
30.109,-8.06
30.125,-12.47
30.140,-17.14
30.156,-21.65
30.171,-25.81
30.187,-29.63
30.203,-33.28
30.218,-37.03
30.234,-41.04
30.250,-45.44
30.265,-50.2
30.281,-55.12
30.296,-59.73
30.312,-63.23
30.328,-64.61
30.343,-62.86
30.359,-57.4
30.375,-48.28
30.390,-36.32
30.406,-22.88
30.421,-9.44
30.437,2.79
30.453,13.09
30.468,21.28
30.484,27.58
30.500,32.36
30.515,36.02
30.531,38.79
30.546,40.71
30.562,41.78
30.578,42.02
30.593,41.52
30.609,40.49
30.625,39.13
30.640,37.57
30.656,35.84
30.671,33.9
30.687,31.75
30.703,29.55
30.718,27.59
30.734,26.14
30.750,25.33
30.765,24.97
30.781,24.65
30.796,23.85
30.812,22.17
30.828,19.44
30.843,15.83
30.859,11.72
30.875,7.53
30.890,3.57
30.906,-0.13
30.921,-3.8
30.937,-7.72
30.953,-12.15
30.968,-17.06
30.984,-22.2
31.000,-27.2
31.015,-31.72
31.031,-35.62
31.046,-38.97
31.062,-42.07
31.078,-45.25
31.093,-48.86
31.109,-53.09
31.125,-57.96
31.140,-63.18
31.156,-68.09
31.171,-71.65
31.187,-72.69
31.203,-70.16
31.218,-63.59
31.234,-53.31
31.250,-40.36
31.265,-26.24
31.281,-12.5
31.296,-0.33
31.312,9.74
31.328,17.74
31.343,24.11
31.359,29.33
31.375,33.68
31.390,37.27
31.406,39.96
31.421,41.63
31.437,42.3
31.453,42.17
31.468,41.57
31.484,40.84
31.500,40.12
31.515,39.37
31.531,38.43
31.546,37.18
31.562,35.59
31.578,33.82
31.593,32.08
31.609,30.52
31.625,29.08
31.640,27.52
31.656,25.51
31.671,22.76
31.687,19.23
31.703,15.11
31.718,10.85
31.734,6.83
31.750,3.23
31.765,-0.04
31.781,-3.3
31.796,-6.85
31.812,-10.89
31.828,-15.39
31.843,-20.11
31.859,-24.76
31.875,-29.15
31.890,-33.2
31.906,-36.93
31.921,-40.49
31.937,-44.04
31.953,-47.8
31.968,-51.95
31.984,-56.42
32.000,-60.88
32.015,-64.63
32.031,-66.7
32.046,-66.11
32.062,-62.23
32.078,-54.96
32.093,-44.82
32.109,-32.78
32.125,-20.01
32.140,-7.61
32.156,3.59
32.171,13.11
32.187,20.83
32.203,26.83
32.218,31.34
32.234,34.54
32.250,36.59
32.265,37.58
32.281,37.58
32.296,36.75
32.312,35.4
32.328,33.86
32.343,32.42
32.359,31.21
32.375,30.23
32.390,29.38
32.406,28.62
32.421,27.99
32.437,27.56
32.453,27.36
32.468,27.19
32.484,26.7
32.500,25.43
32.515,23.04
32.531,19.42
32.546,14.81
32.562,9.7
32.578,4.6
32.593,-0.07
32.609,-4.22
32.625,-8.01
32.640,-11.79
32.656,-15.87
32.671,-20.43
32.687,-25.35
32.703,-30.24
32.718,-34.74
32.734,-38.55
32.750,-41.7
32.765,-44.51
32.781,-47.43
32.796,-50.94
32.812,-55.26
32.828,-60.22
32.843,-65.15
32.859,-69.12
32.875,-70.92
32.890,-69.6
32.906,-64.56
32.921,-55.77
32.937,-43.85
32.953,-29.93
32.968,-15.38
32.984,-1.56
33.000,10.54
33.015,20.38
33.031,27.83
33.046,33.17
33.062,36.83
33.078,39.28
33.093,40.92
33.109,41.94
33.125,42.42
33.140,42.3
33.156,41.61
33.171,40.41
33.187,38.84
33.203,37.14
33.218,35.47
33.234,34.01
33.250,32.91
33.265,32.18
33.281,31.83
33.296,31.71
33.312,31.6
33.328,31.15
33.343,30.01
33.359,27.88
33.375,24.67
33.390,20.5
33.406,15.65
33.421,10.48
33.437,5.33
33.453,0.39
33.468,-4.3
33.484,-8.84
33.500,-13.38
33.515,-18.01
33.531,-22.7
33.546,-27.34
33.562,-31.78
33.578,-35.97
33.593,-40.02
33.609,-44.24
33.625,-49.03
33.640,-54.64
33.656,-60.95
33.671,-67.28
33.687,-72.5
33.703,-75.2
33.718,-74.19
33.734,-68.85
33.750,-59.37
33.765,-46.74
33.781,-32.37
33.796,-17.75
33.812,-4.11
33.828,7.83
33.843,17.88
33.859,26.15
33.875,32.97
33.890,38.63
33.906,43.29
33.921,47.02
33.937,49.82
33.953,51.68
33.968,52.64
33.984,52.79
34.000,52.2
34.015,50.9
34.031,48.94
34.046,46.43
34.062,43.63
34.078,40.88
34.093,38.55
34.109,36.83
34.125,35.63
34.140,34.54
34.156,33.06
34.171,30.77
34.187,27.55
34.203,23.58
34.218,19.27
34.234,14.99
34.250,10.96
34.265,7.11
34.281,3.11
34.296,-1.41
34.312,-6.64
34.328,-12.55
34.343,-18.81
34.359,-25.02
34.375,-30.89
34.390,-36.27
34.406,-41.27
34.421,-46.07
34.437,-50.92
34.453,-56.04
34.468,-61.6
34.484,-67.57
34.500,-73.6
34.515,-78.83
34.531,-82.02
34.546,-81.71
34.562,-76.84
34.578,-67.07
34.593,-53.16
34.609,-36.68
34.625,-19.56
34.640,-3.54
34.656,10.34
34.671,21.78
34.687,31.03
34.703,38.55
34.718,44.67
34.734,49.51
34.750,53.05
34.765,55.26
34.781,56.21
34.796,56.16
34.812,55.38
34.828,54.1
34.843,52.44
34.859,50.46
34.875,48.25
34.890,45.98
34.906,43.91
34.921,42.27
34.937,41.15
34.953,40.4
34.968,39.71
34.984,38.7
35.000,37.03
35.015,34.55
35.031,31.34
35.046,27.62
35.062,23.69
35.078,19.8
35.093,15.94
35.109,11.94
35.125,7.43
35.140,2.14
35.156,-4.07
35.171,-10.96
35.187,-18.02
35.203,-24.6
35.218,-30.17
35.234,-34.6
35.250,-38.14
35.265,-41.43
35.281,-45.15
35.296,-49.85
35.312,-55.64
35.328,-62.11
35.343,-68.31
35.359,-72.9
35.375,-74.49
35.390,-71.94
35.406,-64.77
35.421,-53.29
35.437,-38.58
35.453,-22.23
35.468,-5.94
35.484,8.89
35.500,21.39
35.515,31.27
35.531,38.67
35.546,43.96
35.562,47.55
35.578,49.79
35.593,50.96
35.609,51.24
35.625,50.81
35.640,49.83
35.656,48.43
35.671,46.73
35.687,44.86
35.703,42.94
35.718,41.06
35.734,39.37
35.750,37.94
35.765,36.74
35.781,35.65
35.796,34.41
35.812,32.73
35.828,30.39
35.843,27.31
35.859,23.55
35.875,19.34
35.890,14.93
35.906,10.49
35.921,6.08
35.937,1.63
35.953,-2.99
35.968,-7.87
35.984,-13.01
36.000,-18.3
36.015,-23.59
36.031,-28.69
36.046,-33.47
36.062,-37.84
36.078,-41.89
36.093,-45.84
36.109,-50.07
36.125,-54.86
36.140,-60.27
36.156,-65.83
36.171,-70.6
36.187,-73.25
36.203,-72.4
36.218,-67.2
36.234,-57.62
36.250,-44.49
36.265,-29.3
36.281,-13.75
36.296,0.8
36.312,13.55
36.328,24.24
36.343,33.02
36.359,40.13
36.375,45.74
36.390,49.9
36.406,52.6
36.421,53.87
36.437,53.89
36.453,52.94
36.468,51.32
36.484,49.37
36.500,47.32
36.515,45.37
36.531,43.67
36.546,42.37
36.562,41.54
36.578,41.19
36.593,41.16
36.609,41.1
36.625,40.58
36.640,39.14
36.656,36.49
36.671,32.58
36.687,27.62
36.703,22.07
36.718,16.41
36.734,10.95
36.750,5.74
36.765,0.55
36.781,-4.96
36.796,-11.07
36.812,-17.81
36.828,-24.93
36.843,-31.99
36.859,-38.51
36.875,-44.25
36.890,-49.21
36.906,-53.65
36.921,-57.91
36.937,-62.27
36.953,-66.7
36.968,-70.81
36.984,-73.81
37.000,-74.68
37.015,-72.37
37.031,-66.19
37.046,-56.01
37.062,-42.45
37.078,-26.77
37.093,-10.6
37.109,4.51
37.125,17.38
37.140,27.46
37.156,34.83
37.171,39.95
37.187,43.42
37.203,45.79
37.218,47.44
37.234,48.55
37.250,49.25
37.265,49.57
37.281,49.58
37.296,49.34
37.312,48.83
37.328,48.03
37.343,46.86
37.359,45.28
37.375,43.32
37.390,41.1
37.406,38.71
37.421,36.27
37.437,33.77
37.453,31.12
37.468,28.17
37.484,24.86
37.500,21.18
37.515,17.27
37.531,13.37
37.546,9.64
37.562,6.23
37.578,3.04
37.593,-0.14
37.609,-3.58
37.625,-7.46
37.640,-11.78
37.656,-16.36
37.671,-20.9
37.687,-25.1
37.703,-28.75
37.718,-31.92
37.734,-34.87
37.750,-37.96
37.765,-41.64
37.781,-46.16
37.796,-51.53
37.812,-57.35
37.828,-62.79
37.843,-66.64
37.859,-67.6
37.875,-64.73
37.890,-57.67
37.906,-46.93
37.921,-33.74
37.937,-19.68
37.953,-6.19
37.968,5.71
37.984,15.63
38.000,23.6
38.015,29.87
38.031,34.73
38.046,38.35
38.062,40.9
38.078,42.51
38.093,43.4
38.109,43.71
38.125,43.5
38.140,42.72
38.156,41.26
38.171,39.13
38.187,36.44
38.203,33.56
38.218,30.85
38.234,28.61
38.250,26.89
38.265,25.52
38.281,24.19
38.296,22.59
38.312,20.58
38.328,18.16
38.343,15.51
38.359,12.8
38.375,10.18
38.390,7.68
38.406,5.29
38.421,2.84
38.437,0.14
38.453,-3.03
38.468,-6.78
38.484,-11.13
38.500,-15.9
38.515,-20.83
38.531,-25.63
38.546,-30.11
38.562,-34.16
38.578,-37.86
38.593,-41.44
38.609,-45.18
38.625,-49.36
38.640,-53.96
38.656,-58.49
38.671,-62.0
38.687,-63.23
38.703,-61.01
38.718,-54.76
38.734,-44.74
38.750,-32.08
38.765,-18.39
38.781,-5.25
38.796,6.23
38.812,15.55
38.828,22.72
38.843,28.03
38.859,31.82
38.875,34.3
38.890,35.69
38.906,36.17
38.921,35.98
38.937,35.35
38.953,34.43
38.968,33.29
38.984,31.98
39.000,30.48
39.015,28.84
39.031,27.21
39.046,25.78
39.062,24.64
39.078,23.81
39.093,23.1
39.109,22.21
39.125,20.84
39.140,18.81
39.156,16.02
39.171,12.65
39.187,8.97
39.203,5.24
39.218,1.67
39.234,-1.67
39.250,-4.87
39.265,-8.14
39.281,-11.66
39.296,-15.53
39.312,-19.69
39.328,-23.95
39.343,-28.1
39.359,-32.01
39.375,-35.74
39.390,-39.44
39.406,-43.38
39.421,-47.77
39.437,-52.63
39.453,-57.73
39.468,-62.52
39.484,-66.11
39.500,-67.42
39.515,-65.45
39.531,-59.56
39.546,-49.78
39.562,-36.9
39.578,-22.28
39.593,-7.53
39.609,5.93
39.625,17.14
39.640,25.8
39.656,32.07
39.671,36.44
39.687,39.49
39.703,41.63
39.718,43.12
39.734,44.05
39.750,44.46
39.765,44.27
39.781,43.55
39.796,42.37
39.812,40.85
39.828,39.17
39.843,37.41
39.859,35.67
39.875,34.02
39.890,32.5
39.906,31.08
39.921,29.65
39.937,28.02
39.953,25.96
39.968,23.3
39.984,19.97
40.000,16.11
40.015,11.98
40.031,7.98
40.046,4.42
40.062,1.41
40.078,-1.22
40.093,-3.83
40.109,-6.81
40.125,-10.44
40.140,-14.73
40.156,-19.43
40.171,-24.15
40.187,-28.5
40.203,-32.3
40.218,-35.67
40.234,-39.0
40.250,-42.73
40.265,-47.24
40.281,-52.61
40.296,-58.41
40.312,-63.77
40.328,-67.47
40.343,-68.27
40.359,-65.3
40.375,-58.36
40.390,-47.97
40.406,-35.18
40.421,-21.36
40.437,-7.8
40.453,4.5
40.468,14.95
40.484,23.34
40.500,29.72
40.515,34.36
40.531,37.62
40.546,39.84
40.562,41.37
40.578,42.37
40.593,42.85
40.609,42.79
40.625,42.13
40.640,40.85
40.656,39.01
40.671,36.78
40.687,34.36
40.703,32.07
40.718,30.12
40.734,28.62
40.750,27.54
40.765,26.7
40.781,25.78
40.796,24.43
40.812,22.47
40.828,19.85
40.843,16.76
40.859,13.43
40.875,10.08
40.890,6.76
40.906,3.4
40.921,-0.19
40.937,-4.24
40.953,-8.82
40.968,-13.84
40.984,-19.0
41.000,-23.97
41.015,-28.47
41.031,-32.4
41.046,-35.85
41.062,-39.1
41.078,-42.52
41.093,-46.45
41.109,-51.04
41.125,-56.11
41.140,-61.03
41.156,-64.81
41.171,-66.3
41.187,-64.52
41.203,-59.01
41.218,-49.98
41.234,-38.35
41.250,-25.38
41.265,-12.44
41.281,-0.52
41.296,9.72
41.312,18.02
41.328,24.4
41.343,29.05
41.359,32.26
41.375,34.38
41.390,35.7
41.406,36.46
41.421,36.82
41.437,36.8
41.453,36.38
41.468,35.55
41.484,34.36
41.500,32.94
41.515,31.44
41.531,30.04
41.546,28.78
41.562,27.68
41.578,26.62
41.593,25.42
41.609,23.84
41.625,21.71
41.640,18.99
41.656,15.79
41.671,12.36
41.687,8.91
41.703,5.59
41.718,2.43
41.734,-0.73
41.750,-4.03
41.765,-7.63
41.781,-11.54
41.796,-15.66
41.812,-19.82
41.828,-23.82
41.843,-27.56
41.859,-31.08
41.875,-34.56
41.890,-38.29
41.906,-42.56
41.921,-47.58
41.937,-53.28
41.953,-59.24
41.968,-64.7
41.984,-68.58
42.000,-69.69
42.015,-67.11
42.031,-60.41
42.046,-49.89
42.062,-36.58
42.078,-21.95
42.093,-7.61
42.109,5.18
42.125,15.73
42.140,23.92
42.156,30.0
42.171,34.32
42.187,37.19
42.203,38.79
42.218,39.27
42.234,38.81
42.250,37.67
42.265,36.14
42.281,34.46
42.296,32.81
42.312,31.19
42.328,29.6
42.343,28.01
42.359,26.46
42.375,25.01
42.390,23.71
42.406,22.57
42.421,21.49
42.437,20.32
42.453,18.83
42.468,16.83
42.484,14.21
42.500,11.06
42.515,7.62
42.531,4.14
42.546,0.77
42.562,-2.56
42.578,-6.08
42.593,-10.08
42.609,-14.67
42.625,-19.72
42.640,-24.87
42.656,-29.69
42.671,-33.88
42.687,-37.45
42.703,-40.62
42.718,-43.77
42.734,-47.27
42.750,-51.27
42.765,-55.68
42.781,-59.97
42.796,-63.28
42.812,-64.54
42.828,-62.77
42.843,-57.4
42.859,-48.46
42.875,-36.73
42.890,-23.4
42.906,-9.96
42.921,2.4
42.937,12.89
42.953,21.22
42.968,27.52
42.984,32.1
43.000,35.33
43.015,37.47
43.031,38.68
43.046,39.0
43.062,38.51
43.078,37.31
43.093,35.56
43.109,33.54
43.125,31.49
43.140,29.6
43.156,28.03
43.171,26.83
43.187,25.98
43.203,25.35
43.218,24.78
43.234,23.95
43.250,22.6
43.265,20.46
43.281,17.5
43.296,13.91
43.312,10.09
43.328,6.35
43.343,2.87
43.359,-0.43
43.375,-3.86
43.390,-7.63
43.406,-11.82
43.421,-16.3
43.437,-20.75
43.453,-24.89
43.468,-28.57
43.484,-31.85
43.500,-34.98
43.515,-38.29
43.531,-42.1
43.546,-46.74
43.562,-52.26
43.578,-58.36
43.593,-64.26
43.609,-68.71
43.625,-70.3
43.640,-67.87
43.656,-60.95
43.671,-49.97
43.687,-36.19
43.703,-21.33
43.718,-6.98
43.734,5.61
43.750,15.89
43.765,23.89
43.781,29.99
43.796,34.71
43.812,38.44
43.828,41.39
43.843,43.62
43.859,45.14
43.875,45.89
43.890,45.92
43.906,45.34
43.921,44.29
43.937,43.0
43.953,41.59
43.968,40.24
43.984,39.07
44.000,38.14
44.015,37.46
44.031,36.88
44.046,36.2
44.062,35.12
44.078,33.41
44.093,30.89
44.109,27.58
44.125,23.62
44.140,19.23
44.156,14.66
44.171,10.02
44.187,5.36
44.203,0.56
44.218,-4.43
44.234,-9.61
44.250,-14.84
44.265,-19.92
44.281,-24.63
44.296,-28.88
44.312,-32.74
44.328,-36.54
44.343,-40.74
44.359,-45.77
44.375,-51.82
44.390,-58.61
44.406,-65.29
44.421,-70.56
44.437,-72.95
44.453,-71.31
44.468,-65.19
44.484,-54.99
44.500,-41.87
44.515,-27.33
44.531,-12.86
44.546,0.44
44.562,11.93
44.578,21.47
44.593,29.2
44.609,35.4
44.625,40.33
44.640,44.14
44.656,46.9
44.671,48.61
44.687,49.3
44.703,49.05
44.718,48.02
44.734,46.43
44.750,44.52
44.765,42.52
44.781,40.58
44.796,38.83
44.812,37.34
44.828,36.07
44.843,34.88
44.859,33.55
44.875,31.82
44.890,29.53
44.906,26.68
44.921,23.41
44.937,19.98
44.953,16.62
44.968,13.45
44.984,10.37
45.000,7.17
45.015,3.51
45.031,-0.78
45.046,-5.74
45.062,-11.2
45.078,-16.86
45.093,-22.35
45.109,-27.41
45.125,-31.88
45.140,-35.84
45.156,-39.55
45.171,-43.45
45.187,-47.94
45.203,-53.23
45.218,-59.12
45.234,-64.88
45.250,-69.34
45.265,-71.14
45.281,-69.17
45.296,-62.92
45.312,-52.73
45.328,-39.63
45.343,-25.12
45.359,-10.71
45.375,2.39
45.390,13.47
45.406,22.42
45.421,29.46
45.437,34.99
45.453,39.33
45.468,42.63
45.484,44.87
45.500,45.97
45.515,46.0
45.531,45.17
45.546,43.81
45.562,42.23
45.578,40.63
45.593,39.06
45.609,37.46
45.625,35.84
45.640,34.25
45.656,32.83
45.671,31.7
45.687,30.74
45.703,29.69
45.718,28.22
45.734,26.02
45.750,23.03
45.765,19.42
45.781,15.49
45.796,11.6
45.812,7.92
45.828,4.37
45.843,0.73
45.859,-3.27
45.875,-7.79
45.890,-12.79
45.906,-18.01
45.921,-23.1
45.937,-27.81
45.953,-32.02
45.968,-35.85
45.984,-39.52
46.000,-43.37
46.015,-47.69
46.031,-52.69
46.046,-58.24
46.062,-63.82
46.078,-68.54
46.093,-71.14
46.109,-70.53
46.125,-65.96
46.140,-57.44
46.156,-45.75
46.171,-32.19
46.187,-18.19
46.203,-5.02
46.218,6.51
46.234,16.1
46.250,23.77
46.265,29.77
46.281,34.33
46.296,37.64
46.312,39.81
46.328,40.91
46.343,41.04
46.359,40.38
46.375,39.18
46.390,37.71
46.406,36.21
46.421,34.83
46.437,33.73
46.453,32.98
46.468,32.53
46.484,32.23
46.500,31.82
46.515,30.96
46.531,29.34
46.546,26.78
46.562,23.32
46.578,19.21
46.593,14.82
46.609,10.47
46.625,6.37
46.640,2.57
46.656,-1.03
46.671,-4.62
46.687,-8.41
46.703,-12.47
46.718,-16.81
46.734,-21.29
46.750,-25.74
46.765,-30.03
46.781,-34.08
46.796,-37.98
46.812,-41.93
46.828,-46.19
46.843,-50.87
46.859,-55.78
46.875,-60.33
46.890,-63.51
46.906,-64.19
46.921,-61.39
46.937,-54.7
46.953,-44.47
46.968,-31.69
46.984,-17.74
47.000,-4.02
47.015,8.41
47.031,18.92
47.046,27.28
47.062,33.56
47.078,38.02
47.093,40.95
47.109,42.66
47.125,43.37
47.140,43.31
47.156,42.65
47.171,41.57
47.187,40.22
47.203,38.73
47.218,37.18
47.234,35.57
47.250,33.87
47.265,32.01
47.281,30.05
47.296,28.04
47.312,26.04
47.328,23.99
47.343,21.75
47.359,19.12
47.375,16.04
47.390,12.66
47.406,9.2
47.421,5.9
47.437,2.78
47.453,-0.35
47.468,-3.82
47.484,-7.87
47.500,-12.55
47.515,-17.65
47.531,-22.75
47.546,-27.56
47.562,-31.96
47.578,-36.06
47.593,-40.15
47.609,-44.52
47.625,-49.38
47.640,-54.7
47.656,-60.23
47.671,-65.32
47.687,-69.09
47.703,-70.42
47.718,-68.28
47.734,-62.07
47.750,-51.85
47.765,-38.49
47.781,-23.48
47.796,-8.53
47.812,4.94
47.828,16.13
47.843,24.89
47.859,31.63
47.875,36.87
47.890,41.03
47.906,44.37
47.921,46.95
47.937,48.76
47.953,49.8
47.968,50.1
47.984,49.66
48.000,48.52
48.015,46.66
48.031,44.22
48.046,41.42
48.062,38.66
48.078,36.32
48.093,34.64
48.109,33.61
48.125,32.91
48.140,32.12
48.156,30.79
48.171,28.65
48.187,25.69
48.203,22.07
48.218,18.1
48.234,14.04
48.250,10.09
48.265,6.27
48.281,2.46
48.296,-1.57
48.312,-6.01
48.328,-10.96
48.343,-16.38
48.359,-22.0
48.375,-27.48
48.390,-32.53
48.406,-37.01
48.421,-41.0
48.437,-44.85
48.453,-48.99
48.468,-53.76
48.484,-59.21
48.500,-64.87
48.515,-69.77
48.531,-72.63
48.546,-72.18
48.562,-67.62
48.578,-58.9
48.593,-46.79
48.609,-32.59
48.625,-17.88
48.640,-3.97
48.656,8.26
48.671,18.46
48.687,26.75
48.703,33.42
48.718,38.83
48.734,43.18
48.750,46.54
48.765,48.85
48.781,50.12
48.796,50.42
48.812,49.91
48.828,48.81
48.843,47.26
48.859,45.34
48.875,43.15
48.890,40.83
48.906,38.55
48.921,36.56
48.937,34.97
48.953,33.72
48.968,32.59
48.984,31.18
49.000,29.23
49.015,26.55
49.031,23.24
49.046,19.5
49.062,15.63
49.078,11.79
49.093,7.98
49.109,4.06
49.125,-0.21
49.140,-4.93
49.156,-10.06
49.171,-15.36
49.187,-20.5
49.203,-25.23
49.218,-29.48
49.234,-33.37
49.250,-37.17
49.265,-41.2
49.281,-45.71
49.296,-50.9
49.312,-56.76
49.328,-62.97
49.343,-68.8
49.359,-73.13
49.375,-74.61
49.390,-72.07
49.406,-64.96
49.421,-53.58
49.437,-39.1
49.453,-23.26
49.468,-7.78
49.484,5.97
49.500,17.33
49.515,26.24
49.531,33.03
49.546,38.14
49.562,41.93
49.578,44.58
49.593,46.15
49.609,46.72
49.625,46.36
49.640,45.27
49.656,43.64
49.671,41.68
49.687,39.5
49.703,37.25
49.718,35.07
49.734,33.12
49.750,31.59
49.765,30.49
49.781,29.74
49.796,29.03
49.812,27.94
49.828,26.1
49.843,23.34
49.859,19.77
49.875,15.79
49.890,11.92
49.906,8.46
49.921,5.42
49.937,2.55
49.953,-0.66
49.968,-4.58
49.984,-9.37
50.000,-14.84
50.015,-20.61
50.031,-26.18
50.046,-31.2
50.062,-35.58
50.078,-39.39
50.093,-42.92
50.109,-46.53
50.125,-50.6
50.140,-55.34
50.156,-60.63
50.171,-65.87
50.187,-70.03
50.203,-71.84
50.218,-70.11
50.234,-64.27
50.250,-54.51
50.265,-41.85
50.281,-27.81
50.296,-13.99
50.312,-1.58
50.328,8.82
50.343,17.12
50.359,23.67
50.375,28.83
50.390,32.92
50.406,36.12
50.421,38.55
50.437,40.26
50.453,41.29
50.468,41.65
50.484,41.27
50.500,40.15
50.515,38.31
50.531,35.94
50.546,33.38
50.562,30.95
50.578,28.95
50.593,27.44
50.609,26.26
50.625,25.14
50.640,23.79
50.656,22.02
50.671,19.76
50.687,17.11
50.703,14.15
50.718,11.0
50.734,7.67
50.750,4.14
50.765,0.3
50.781,-3.92
50.796,-8.58
50.812,-13.63
50.828,-18.89
50.843,-24.18
50.859,-29.28
50.875,-34.09
50.890,-38.63
50.906,-43.17
50.921,-48.01
50.937,-53.43
50.953,-59.39
50.968,-65.35
50.984,-70.37
51.000,-73.18
51.015,-72.6
51.031,-67.89
51.046,-58.94
51.062,-46.42
51.078,-31.56
51.093,-15.88
51.109,-0.83
51.125,12.47
51.140,23.44
51.156,31.95
51.171,38.26
51.187,42.79
51.203,45.86
51.218,47.71
51.234,48.51
51.250,48.38
51.265,47.53
51.281,46.22
51.296,44.69
51.312,43.06
51.328,41.36
51.343,39.56
51.359,37.69
51.375,35.89
51.390,34.27
51.406,32.91
51.421,31.67
51.437,30.27
51.453,28.39
51.468,25.8
51.484,22.47
51.500,18.6
51.515,14.48
51.531,10.28
51.546,6.07
51.562,1.75
51.578,-2.82
51.593,-7.74
51.609,-13.0
51.625,-18.45
51.640,-23.81
51.656,-28.81
51.671,-33.28
51.687,-37.19
51.703,-40.77
51.718,-44.44
51.734,-48.66
51.750,-53.79
51.765,-59.78
51.781,-66.02
51.796,-71.38
51.812,-74.44
51.828,-73.86
51.843,-68.86
51.859,-59.49
51.875,-46.57
51.890,-31.54
51.906,-15.97
51.921,-1.17
51.937,11.98
51.953,23.11
51.968,32.27
51.984,39.63
52.000,45.36
52.015,49.65
52.031,52.55
52.046,54.19
52.062,54.67
52.078,54.19
52.093,53.0
52.109,51.36
52.125,49.48
52.140,47.47
52.156,45.39
52.171,43.26
52.187,41.19
52.203,39.25
52.218,37.55
52.234,36.07
52.250,34.65
52.265,32.98
52.281,30.76
52.296,27.79
52.312,24.09
52.328,19.91
52.343,15.56
52.359,11.31
52.375,7.26
52.390,3.25
52.406,-0.97
52.421,-5.58
52.437,-10.64
52.453,-15.99
52.468,-21.36
52.484,-26.48
52.500,-31.21
52.515,-35.54
52.531,-39.65
52.546,-43.83
52.562,-48.42
52.578,-53.62
52.593,-59.44
52.609,-65.46
52.625,-70.74
52.640,-74.04
52.656,-74.03
52.671,-69.82
52.687,-61.25
52.703,-49.08
52.718,-34.69
52.734,-19.69
52.750,-5.48
52.765,7.03
52.781,17.46
52.796,25.87
52.812,32.44
52.828,37.4
52.843,40.98
52.859,43.38
52.875,44.87
52.890,45.63
52.906,45.87
52.921,45.7
52.937,45.12
52.953,44.14
52.968,42.74
52.984,41.01
53.000,39.15
53.015,37.5
53.031,36.32
53.046,35.78
53.062,35.72
53.078,35.69
53.093,35.11
53.109,33.5
53.125,30.66
53.140,26.76
53.156,22.27
53.171,17.66
53.187,13.35
53.203,9.43
53.218,5.75
53.234,1.96
53.250,-2.27
53.265,-7.17
53.281,-12.76
53.296,-18.8
53.312,-24.9
53.328,-30.6
53.343,-35.62
53.359,-39.89
53.375,-43.6
53.390,-47.14
53.406,-51.02
53.421,-55.6
53.437,-60.94
53.453,-66.6
53.468,-71.62
53.484,-74.7
53.500,-74.49
53.515,-70.04
53.531,-61.14
53.546,-48.49
53.562,-33.45
53.578,-17.7
53.593,-2.75
53.609,10.39
53.625,21.23
53.640,29.78
53.656,36.28
53.671,40.98
53.687,44.1
53.703,45.82
53.718,46.35
53.734,46.03
53.750,45.19
53.765,44.13
53.781,43.04
53.796,41.95
53.812,40.73
53.828,39.29
53.843,37.59
53.859,35.7
53.875,33.77
53.890,31.92
53.906,30.17
53.921,28.46
53.937,26.59
53.953,24.32
53.968,21.49
53.984,18.07
54.000,14.17
54.015,10.07
54.031,6.07
54.046,2.32
54.062,-1.13
54.078,-4.52
54.093,-8.15
54.109,-12.26
54.125,-16.85
54.140,-21.72
54.156,-26.47
54.171,-30.84
54.187,-34.77
54.203,-38.39
54.218,-42.06
54.234,-46.13
54.250,-50.88
54.265,-56.3
54.281,-62.12
54.296,-67.58
54.312,-71.63
54.328,-73.02
54.343,-70.61
54.359,-63.87
54.375,-53.02
54.390,-39.12
54.406,-23.77
54.421,-8.71
54.437,4.74
54.453,15.83
54.468,24.42
54.484,30.76
54.500,35.21
54.515,38.12
54.531,39.76
54.546,40.31
54.562,39.94
54.578,38.95
54.593,37.63
54.609,36.23
54.625,34.98
54.640,33.95
54.656,33.1
54.671,32.4
54.687,31.73
54.703,30.98
54.718,30.1
54.734,28.93
54.750,27.31
54.765,25.08
54.781,22.15
54.796,18.54
54.812,14.41
54.828,10.0
54.843,5.52
54.859,1.15
54.875,-3.15
54.890,-7.44
54.906,-11.8
54.921,-16.27
54.937,-20.74
54.953,-25.06
54.968,-29.06
54.984,-32.67
55.000,-35.92
55.015,-39.05
55.031,-42.33
55.046,-46.07
55.062,-50.49
55.078,-55.54
55.093,-60.83
55.109,-65.49
55.125,-68.4
55.140,-68.29
55.156,-64.32
55.171,-56.29
55.187,-44.78
55.203,-31.11
55.218,-16.79
55.234,-3.19
55.250,8.86
55.265,19.06
55.281,27.55
55.296,34.54
55.312,40.25
55.328,44.77
55.343,48.1
55.359,50.25
55.375,51.3
55.390,51.36
55.406,50.54
55.421,48.97
55.437,46.73
55.453,44.07
55.468,41.26
55.484,38.64
55.500,36.45
55.515,34.82
55.531,33.67
55.546,32.75
55.562,31.77
55.578,30.36
55.593,28.31
55.609,25.59
55.625,22.29
55.640,18.66
55.656,14.94
55.671,11.24
55.687,7.46
55.703,3.46
55.718,-1.03
55.734,-6.12
55.750,-11.74
55.765,-17.68
55.781,-23.59
55.796,-29.19
55.812,-34.32
55.828,-39.01
55.843,-43.38
55.859,-47.78
55.875,-52.49
55.890,-57.66
55.906,-63.15
55.921,-68.27
55.937,-71.94
55.953,-72.88
55.968,-70.03
55.984,-62.9
56.000,-51.91
56.015,-38.18
56.031,-23.26
56.046,-8.72
56.062,4.29
56.078,15.21
56.093,23.97
56.109,30.93
56.125,36.5
56.140,41.07
56.156,44.81
56.171,47.82
56.187,49.97
56.203,51.19
56.218,51.4
56.234,50.65
56.250,49.08
56.265,46.97
56.281,44.6
56.296,42.23
56.312,40.08
56.328,38.22
56.343,36.69
56.359,35.39
56.375,34.14
56.390,32.67
56.406,30.65
56.421,27.84
56.437,24.18
56.453,19.81
56.468,15.05
56.484,10.28
56.500,5.83
56.515,1.77
56.531,-2.07
56.546,-6.02
56.562,-10.38
56.578,-15.25
56.593,-20.46
56.609,-25.69
56.625,-30.56
56.640,-34.83
56.656,-38.54
56.671,-41.92
56.687,-45.49
56.703,-49.62
56.718,-54.52
56.734,-60.0
56.750,-65.44
56.765,-69.8
56.781,-71.87
56.796,-70.51
56.812,-65.09
56.828,-55.71
56.843,-43.2
56.859,-28.94
56.875,-14.47
56.890,-1.08
56.906,10.44
56.921,19.84
56.937,27.37
56.953,33.4
56.968,38.29
56.984,42.21
57.000,45.1
57.015,46.87
57.031,47.49
57.046,47.13
57.062,46.03
57.078,44.48
57.093,42.75
57.109,40.99
57.125,39.32
57.140,37.84
57.156,36.61
57.171,35.67
57.187,34.92
57.203,34.1
57.218,32.9
57.234,31.04
57.250,28.41
57.265,25.14
57.281,21.44
57.296,17.57
57.312,13.73
57.328,9.97
57.343,6.22
57.359,2.36
57.375,-1.78
57.390,-6.29
57.406,-11.09
57.421,-16.09
57.437,-21.07
57.453,-25.84
57.468,-30.31
57.484,-34.46
57.500,-38.45
57.515,-42.48
57.531,-46.85
57.546,-51.75
57.562,-57.18
57.578,-62.78
57.593,-67.71
57.609,-70.81
57.625,-70.82
57.640,-66.86
57.656,-58.67
57.671,-46.89
57.687,-32.86
57.703,-18.24
57.718,-4.49
57.734,7.46
57.750,17.29
57.765,25.21
57.781,31.58
57.796,36.73
57.812,40.74
57.828,43.53
57.843,45.01
57.859,45.24
57.875,44.44
57.890,43.0
57.906,41.31
57.921,39.6
57.937,37.96
57.953,36.31
57.968,34.55
57.984,32.7
58.000,30.8
58.015,29.02
58.031,27.42
58.046,25.97
58.062,24.42
58.078,22.49
58.093,19.89
58.109,16.56
58.125,12.71
58.140,8.66
58.156,4.74
58.171,1.11
58.187,-2.32
58.203,-5.78
58.218,-9.5
58.234,-13.52
58.250,-17.68
58.265,-21.65
58.281,-25.2
58.296,-28.29
58.312,-31.08
58.328,-33.92
58.343,-37.2
58.359,-41.23
58.375,-46.19
58.390,-51.93
58.406,-57.93
58.421,-63.29
58.437,-66.79
58.453,-67.22
58.468,-63.67
58.484,-55.94
58.500,-44.61
58.515,-30.96
58.531,-16.55
58.546,-2.81
58.562,9.26
58.578,19.22
58.593,27.1
58.609,33.17
58.625,37.71
58.640,40.95
58.656,42.98
58.671,43.9
58.687,43.83
58.703,42.99
58.718,41.62
58.734,39.98
58.750,38.22
58.765,36.44
58.781,34.68
58.796,32.99
58.812,31.43
58.828,30.07
58.843,28.92
58.859,27.9
58.875,26.79
58.890,25.31
58.906,23.27
58.921,20.56
58.937,17.26
58.953,13.6
58.968,9.83
58.984,6.12
59.000,2.49
59.015,-1.18
59.031,-5.06
59.046,-9.32
59.062,-13.91
59.078,-18.66
59.093,-23.31
59.109,-27.67
59.125,-31.66
59.140,-35.39
59.156,-39.11
59.171,-43.06
59.187,-47.46
59.203,-52.39
59.218,-57.78
59.234,-63.26
59.250,-68.05
59.265,-71.01
59.281,-70.9
59.296,-66.77
59.312,-58.39
59.328,-46.4
59.343,-32.22
59.359,-17.59
59.375,-3.99
59.390,7.7
59.406,17.31
59.421,25.14
59.437,31.63
59.453,37.09
59.468,41.57
59.484,45.02
59.500,47.37
59.515,48.68
59.531,49.17
59.546,49.14
59.562,48.79
59.578,48.18
59.593,47.22
59.609,45.75
59.625,43.79
59.640,41.58
59.656,39.53
59.671,38.0
59.687,37.14
59.703,36.67
59.718,36.01
59.734,34.57
59.750,31.99
59.765,28.31
59.781,23.94
59.796,19.41
59.812,15.14
59.828,11.22
59.843,7.52
59.859,3.7
59.875,-0.46
59.890,-5.06
59.906,-9.95
59.921,-14.9
59.937,-19.67
59.953,-24.04
59.968,-28.03
59.984,-31.65
