timestamp,value
00.000,-42.61
00.015,-43.25
00.031,-43.83
00.046,-44.41
00.062,-44.86
00.078,-44.89
00.093,-44.22
00.109,-42.73
00.125,-40.46
00.140,-37.62
00.156,-34.45
00.171,-31.17
00.187,-27.91
00.203,-24.8
00.218,-21.98
00.234,-19.55
00.250,-17.55
00.265,-15.89
00.281,-14.35
00.296,-12.63
00.312,-10.47
00.328,-7.74
00.343,-4.38
00.359,-0.5
00.375,3.74
00.390,8.11
00.406,12.29
00.421,16.0
00.437,19.06
00.453,21.45
00.468,23.3
00.484,24.77
00.500,25.99
00.515,27.0
00.531,27.78
00.546,28.37
00.562,28.87
00.578,29.39
00.593,29.97
00.609,30.52
00.625,30.84
00.640,30.68
00.656,29.97
00.671,28.8
00.687,27.44
00.703,26.17
00.718,25.15
00.734,24.28
00.750,23.28
00.765,21.85
00.781,19.85
00.796,17.44
00.812,15.01
00.828,12.97
00.843,11.51
00.859,10.44
00.875,9.29
00.890,7.57
00.906,5.01
00.921,1.73
00.937,-1.87
00.953,-5.35
00.968,-8.44
00.984,-11.07
01.000,-13.33
01.015,-15.24
01.031,-16.68
01.046,-17.44
01.062,-17.31
01.078,-16.21
01.093,-14.2
01.109,-11.52
01.125,-8.44
01.140,-5.25
01.156,-2.17
01.171,0.67
01.187,3.26
01.203,5.67
01.218,8.04
01.234,10.49
01.250,12.96
01.265,15.25
01.281,17.05
01.296,18.14
01.312,18.47
01.328,18.27
01.343,17.91
01.359,17.72
01.375,17.89
01.390,18.34
01.406,18.8
01.421,18.96
01.437,18.64
01.453,17.83
01.468,16.77
01.484,15.77
01.500,15.06
01.515,14.74
01.531,14.69
01.546,14.67
01.562,14.45
01.578,13.89
01.593,12.98
01.609,11.84
01.625,10.56
01.640,9.21
01.656,7.86
01.671,6.58
01.687,5.49
01.703,4.68
01.718,4.18
01.734,3.83
01.750,3.32
01.765,2.25
01.781,0.31
01.796,-2.57
01.812,-6.23
01.828,-10.34
01.843,-14.53
01.859,-18.59
01.875,-22.45
01.890,-26.15
01.906,-29.73
01.921,-33.12
01.937,-36.09
01.953,-38.27
01.968,-39.33
01.984,-39.07
02.000,-37.52
02.015,-35.01
02.031,-31.97
02.046,-28.87
02.062,-25.96
02.078,-23.24
02.093,-20.52
02.109,-17.54
02.125,-14.11
02.140,-10.32
02.156,-6.4
02.171,-2.67
02.187,0.67
02.203,3.55
02.218,6.04
02.234,8.19
02.250,9.95
02.265,11.21
02.281,11.92
02.296,12.15
02.312,12.19
02.328,12.39
02.343,13.01
02.359,14.11
02.375,15.58
02.390,17.16
02.406,18.69
02.421,20.05
02.437,21.22
02.453,22.11
02.468,22.59
02.484,22.49
02.500,21.75
02.515,20.43
02.531,18.79
02.546,17.1
02.562,15.53
02.578,14.04
02.593,12.45
02.609,10.54
02.625,8.25
02.640,5.69
02.656,3.09
02.671,0.69
02.687,-1.39
02.703,-3.2
02.718,-4.86
02.734,-6.53
02.750,-8.31
02.765,-10.34
02.781,-12.71
02.796,-15.52
02.812,-18.78
02.828,-22.35
02.843,-25.87
02.859,-28.79
02.875,-30.54
02.890,-30.75
02.906,-29.37
02.921,-26.7
02.937,-23.26
02.953,-19.54
02.968,-15.89
02.984,-12.42
03.000,-9.05
03.015,-5.65
03.031,-2.11
03.046,1.52
03.062,5.1
03.078,8.4
03.093,11.25
03.109,13.57
03.125,15.42
03.140,16.89
03.156,18.05
03.171,18.91
03.187,19.39
03.203,19.46
03.218,19.19
03.234,18.72
03.250,18.31
03.265,18.11
03.281,18.12
03.296,18.25
03.312,18.28
03.328,18.04
03.343,17.39
03.359,16.33
03.375,14.86
03.390,13.1
03.406,11.2
03.421,9.32
03.437,7.66
03.453,6.28
03.468,5.17
03.484,4.18
03.500,3.12
03.515,1.8
03.531,0.14
03.546,-1.8
03.562,-3.85
03.578,-5.77
03.593,-7.38
03.609,-8.63
03.625,-9.58
03.640,-10.42
03.656,-11.35
03.671,-12.52
03.687,-14.02
03.703,-15.84
03.718,-17.94
03.734,-20.34
03.750,-23.07
03.765,-26.07
03.781,-29.18
03.796,-32.04
03.812,-34.23
03.828,-35.39
03.843,-35.31
03.859,-33.98
03.875,-31.57
03.890,-28.33
03.906,-24.52
03.921,-20.38
03.937,-16.13
03.953,-11.95
03.968,-7.96
03.984,-4.17
04.000,-0.5
04.015,3.17
04.031,6.94
04.046,10.75
04.062,14.41
04.078,17.66
04.093,20.3
04.109,22.23
04.125,23.44
04.140,24.03
04.156,24.12
04.171,23.82
04.187,23.23
04.203,22.45
04.218,21.59
04.234,20.81
04.250,20.22
04.265,19.86
04.281,19.72
04.296,19.67
04.312,19.59
04.328,19.36
04.343,18.94
04.359,18.4
04.375,17.84
04.390,17.34
04.406,16.91
04.421,16.42
04.437,15.69
04.453,14.62
04.468,13.21
04.484,11.63
04.500,10.11
04.515,8.78
04.531,7.61
04.546,6.4
04.562,4.9
04.578,2.95
04.593,0.59
04.609,-2.02
04.625,-4.66
04.640,-7.17
04.656,-9.47
04.671,-11.59
04.687,-13.59
04.703,-15.57
04.718,-17.7
04.734,-20.16
04.750,-23.13
04.765,-26.57
04.781,-30.23
04.796,-33.56
04.812,-35.96
04.828,-36.94
04.843,-36.27
04.859,-34.05
04.875,-30.58
04.890,-26.31
04.906,-21.64
04.921,-16.9
04.937,-12.29
04.953,-7.89
04.968,-3.7
04.984,0.34
05.000,4.29
05.015,8.14
05.031,11.86
05.046,15.34
05.062,18.44
05.078,20.97
05.093,22.74
05.109,23.69
05.125,23.88
05.140,23.59
05.156,23.21
05.171,23.05
05.187,23.26
05.203,23.74
05.218,24.26
05.234,24.58
05.250,24.61
05.265,24.39
05.281,24.05
05.296,23.64
05.312,23.16
05.328,22.56
05.343,21.81
05.359,21.03
05.375,20.3
05.390,19.68
05.406,19.07
05.421,18.24
05.437,16.97
05.453,15.19
05.468,12.99
05.484,10.64
05.500,8.44
05.515,6.57
05.531,5.0
05.546,3.57
05.562,2.01
05.578,0.13
05.593,-2.13
05.609,-4.67
05.625,-7.3
05.640,-9.79
05.656,-12.01
05.671,-13.96
05.687,-15.74
05.703,-17.55
05.718,-19.5
05.734,-21.57
05.750,-23.59
05.765,-25.22
05.781,-26.07
05.796,-25.88
05.812,-24.6
05.828,-22.39
05.843,-19.61
05.859,-16.55
05.875,-13.45
05.890,-10.36
05.906,-7.26
05.921,-4.09
05.937,-0.83
05.953,2.49
05.968,5.85
05.984,9.18
06.000,12.33
06.015,15.17
06.031,17.51
06.046,19.24
06.062,20.37
06.078,21.02
06.093,21.37
06.109,21.6
06.125,21.83
06.140,22.1
06.156,22.41
06.171,22.69
06.187,22.81
06.203,22.65
06.218,22.08
06.234,21.07
06.250,19.68
06.265,18.1
06.281,16.57
06.296,15.32
06.312,14.43
06.328,13.86
06.343,13.43
06.359,12.92
06.375,12.11
06.390,10.93
06.406,9.39
06.421,7.61
06.437,5.75
06.453,3.91
06.468,2.13
06.484,0.36
06.500,-1.47
06.515,-3.4
06.531,-5.32
06.546,-7.1
06.562,-8.67
06.578,-10.07
06.593,-11.46
06.609,-13.07
06.625,-15.0
06.640,-17.17
06.656,-19.35
06.671,-21.32
06.687,-22.99
06.703,-24.49
06.718,-26.11
06.734,-28.13
06.750,-30.57
06.765,-33.19
06.781,-35.51
06.796,-36.98
06.812,-37.19
06.828,-35.95
06.843,-33.36
06.859,-29.72
06.875,-25.51
06.890,-21.19
06.906,-17.06
06.921,-13.29
06.937,-9.81
06.953,-6.44
06.968,-3.01
06.984,0.51
07.000,4.05
07.015,7.44
07.031,10.48
07.046,13.0
07.062,14.89
07.078,16.08
07.093,16.59
07.109,16.53
07.125,16.13
07.140,15.69
07.156,15.52
07.171,15.73
07.187,16.26
07.203,16.86
07.218,17.26
07.234,17.26
07.250,16.89
07.265,16.32
07.281,15.84
07.296,15.62
07.312,15.63
07.328,15.7
07.343,15.52
07.359,14.87
07.375,13.72
07.390,12.24
07.406,10.78
07.421,9.62
07.437,8.87
07.453,8.37
07.468,7.83
07.484,6.98
07.500,5.74
07.515,4.25
07.531,2.77
07.546,1.45
07.562,0.28
07.578,-0.94
07.593,-2.51
07.609,-4.59
07.625,-7.16
07.640,-10.01
07.656,-12.8
07.671,-15.22
07.687,-17.11
07.703,-18.49
07.718,-19.55
07.734,-20.54
07.750,-21.72
07.765,-23.29
07.781,-25.31
07.796,-27.76
07.812,-30.41
07.828,-32.98
07.843,-35.05
07.859,-36.22
07.875,-36.18
07.890,-34.78
07.906,-32.11
07.921,-28.41
07.937,-24.1
07.953,-19.56
07.968,-15.16
07.984,-11.07
08.000,-7.35
08.015,-3.92
08.031,-0.63
08.046,2.66
08.062,6.06
08.078,9.54
08.093,12.93
08.109,15.98
08.125,18.4
08.140,20.04
08.156,20.86
08.171,20.97
08.187,20.61
08.203,20.04
08.218,19.49
08.234,19.08
08.250,18.86
08.265,18.79
08.281,18.79
08.296,18.73
08.312,18.53
08.328,18.12
08.343,17.53
08.359,16.83
08.375,16.12
08.390,15.48
08.406,14.9
08.421,14.32
08.437,13.67
08.453,12.89
08.468,11.97
08.484,10.94
08.500,9.84
08.515,8.65
08.531,7.36
08.546,5.95
08.562,4.47
08.578,3.07
08.593,1.91
08.609,1.1
08.625,0.67
08.640,0.49
08.656,0.37
08.671,0.07
08.687,-0.57
08.703,-1.66
08.718,-3.09
08.734,-4.7
08.750,-6.24
08.765,-7.5
08.781,-8.4
08.796,-8.96
08.812,-9.29
08.828,-9.56
08.843,-9.9
08.859,-10.46
08.875,-11.34
08.890,-12.6
08.906,-14.1
08.921,-15.59
08.937,-16.58
08.953,-16.6
08.968,-15.27
08.984,-12.48
09.000,-8.43
09.015,-3.59
09.031,1.5
09.046,6.33
09.062,10.51
09.078,13.76
09.093,15.87
09.109,16.74
09.125,16.38
09.140,14.95
09.156,12.77
09.171,10.23
09.187,7.72
09.203,5.53
09.218,3.76
09.234,2.46
09.250,1.55
09.265,1.02
09.281,0.88
09.296,1.13
09.312,1.75
09.328,2.66
09.343,3.7
09.359,4.72
09.375,5.63
09.390,6.34
09.406,6.75
09.421,6.74
09.437,6.11
09.453,4.74
09.468,2.68
09.484,0.23
09.500,-2.11
09.515,-3.79
09.531,-4.46
09.546,-4.13
09.562,-3.09
09.578,-1.81
09.593,-0.75
09.609,-0.18
09.625,-0.28
09.640,-1.09
09.656,-2.57
09.671,-4.63
09.687,-7.06
09.703,-9.59
09.718,-12.05
09.734,-14.41
09.750,-16.78
09.765,-19.39
09.781,-22.32
09.796,-25.53
09.812,-28.85
09.828,-32.09
09.843,-35.14
09.859,-38.03
09.875,-40.83
09.890,-43.57
09.906,-46.27
09.921,-48.93
09.937,-51.61
09.953,-54.35
09.968,-57.12
09.984,-59.68
10.000,-61.64
10.015,-62.61
10.031,-62.38
10.046,-61.06
10.062,-59.01
10.078,-56.67
10.093,-54.34
10.109,-52.1
10.125,-49.78
10.140,-47.21
10.156,-44.27
10.171,-40.93
10.187,-37.23
10.203,-33.13
10.218,-28.55
10.234,-23.48
10.250,-18.03
10.265,-12.51
10.281,-7.26
10.296,-2.49
10.312,1.84
10.328,6.02
10.343,10.35
10.359,15.01
10.375,19.9
10.390,24.76
10.406,29.29
10.421,33.25
10.437,36.55
10.453,39.09
10.468,40.8
10.484,41.57
10.500,41.38
10.515,40.3
10.531,38.55
10.546,36.42
10.562,34.13
10.578,31.85
10.593,29.61
10.609,27.39
10.625,25.15
10.640,22.84
10.656,20.44
10.671,17.97
10.687,15.48
10.703,13.04
10.718,10.75
10.734,8.63
10.750,6.68
10.765,4.89
10.781,3.28
10.796,2.06
10.812,1.51
10.828,2.01
10.843,3.73
10.859,6.58
10.875,10.12
10.890,13.62
10.906,16.33
10.921,17.66
10.937,17.34
10.953,15.43
10.968,12.37
10.984,8.61
11.000,4.63
11.015,0.74
11.031,-2.87
11.046,-6.08
11.062,-8.8
11.078,-10.91
11.093,-12.21
11.109,-12.52
11.125,-11.73
11.140,-9.87
11.156,-7.07
11.171,-3.61
11.187,0.16
11.203,3.8
11.218,6.97
11.234,9.39
11.250,10.96
11.265,11.75
11.281,12.05
11.296,12.22
11.312,12.57
11.328,13.31
11.343,14.51
11.359,16.11
11.375,18.0
11.390,20.11
11.406,22.4
11.421,24.86
11.437,27.45
11.453,30.07
11.468,32.59
11.484,34.87
11.500,36.91
11.515,38.77
11.531,40.6
11.546,42.48
11.562,44.42
11.578,46.35
11.593,48.19
11.609,49.92
11.625,51.53
11.640,53.02
11.656,54.24
11.671,54.94
11.687,54.97
11.703,54.46
11.718,53.78
11.734,53.36
11.750,53.34
11.765,53.24
11.781,52.13
11.796,48.98
11.812,43.3
11.828,35.36
11.843,26.11
11.859,16.73
11.875,8.19
11.890,0.98
11.906,-4.82
11.921,-9.34
11.937,-12.82
11.953,-15.57
11.968,-18.0
11.984,-20.58
12.000,-23.7
12.015,-27.5
12.031,-31.71
12.046,-35.72
12.062,-38.65
12.078,-39.48
12.093,-37.17
12.109,-30.85
12.125,-20.29
12.140,-6.17
12.156,9.91
12.171,25.8
12.187,39.51
12.203,49.75
12.218,56.0
12.234,58.11
12.250,56.02
12.265,49.69
12.281,39.66
12.296,27.59
12.312,16.41
12.328,9.43
12.343,9.08
12.359,15.62
12.375,26.81
12.390,38.79
12.406,47.49
12.421,50.1
12.437,45.74
12.453,35.3
12.468,20.69
12.484,4.22
12.500,-11.87
12.515,-25.54
12.531,-35.02
12.546,-39.17
12.562,-37.8
12.578,-31.97
12.593,-23.84
12.609,-16.0
12.625,-10.75
12.640,-9.37
12.656,-11.84
12.671,-17.01
12.687,-23.13
12.703,-28.53
12.718,-32.17
12.734,-33.89
12.750,-34.31
12.765,-34.43
12.781,-35.13
12.796,-36.89
12.812,-39.63
12.828,-42.86
12.843,-45.93
12.859,-48.28
12.875,-49.7
12.890,-50.3
12.906,-50.42
12.921,-50.51
12.937,-50.96
12.953,-52.05
12.968,-53.84
12.984,-56.23
13.000,-58.93
13.015,-61.67
13.031,-64.24
13.046,-66.6
13.062,-68.83
13.078,-71.05
13.093,-73.3
13.109,-75.49
13.125,-77.46
13.140,-78.98
13.156,-79.88
13.171,-79.98
13.187,-79.23
13.203,-77.6
13.218,-75.09
13.234,-71.76
13.250,-67.66
13.265,-62.78
13.281,-57.08
13.296,-50.51
13.312,-42.95
13.328,-34.48
13.343,-25.41
13.359,-16.33
13.375,-8.03
13.390,-1.28
13.406,3.46
13.421,6.06
13.437,6.74
13.453,6.0
13.468,4.4
13.484,2.49
13.500,0.86
13.515,0.16
13.531,1.01
13.546,3.98
13.562,9.39
13.578,17.19
13.593,27.02
13.609,38.41
13.625,50.83
13.640,63.81
13.656,76.71
13.671,88.61
13.687,98.23
13.703,104.21
13.718,105.5
13.734,101.77
13.750,93.69
13.765,82.83
13.781,71.16
13.796,60.42
13.812,51.52
13.828,44.42
13.843,38.38
13.859,32.51
13.875,26.29
13.890,19.84
13.906,13.85
13.921,9.17
13.937,6.48
13.953,5.96
13.968,7.32
13.984,9.89
14.000,12.81
14.015,15.15
14.031,16.05
14.046,14.84
14.062,11.4
14.078,6.45
14.093,1.62
14.109,-1.0
14.125,0.46
14.140,6.69
14.156,16.67
14.171,27.73
14.187,36.39
14.203,39.72
14.218,36.46
14.234,27.52
14.250,15.57
14.265,3.87
14.281,-4.93
14.296,-9.7
14.312,-10.89
14.328,-9.85
14.343,-7.91
14.359,-5.78
14.375,-3.4
14.390,-0.39
14.406,3.51
14.421,8.22
14.437,13.38
14.453,18.53
14.468,23.08
14.484,26.15
14.500,26.44
14.515,22.68
14.531,14.37
14.546,2.51
14.562,-10.25
14.578,-20.29
14.593,-24.33
14.609,-20.73
14.625,-10.14
14.640,4.86
14.656,20.78
14.671,34.37
14.687,43.35
14.703,46.7
14.718,44.51
14.734,37.8
14.750,28.23
14.765,17.71
14.781,8.07
14.796,0.61
14.812,-4.02
14.828,-5.97
14.843,-6.02
14.859,-5.53
14.875,-6.16
14.890,-9.42
14.906,-16.16
14.921,-26.03
14.937,-37.41
14.953,-47.86
14.968,-55.09
14.984,-57.84
15.000,-56.4
15.015,-52.46
15.031,-48.32
15.046,-45.86
15.062,-45.95
15.078,-48.17
15.093,-51.26
15.109,-53.67
15.125,-54.19
15.140,-52.3
15.156,-48.4
15.171,-43.46
15.187,-38.66
15.203,-34.84
15.218,-32.16
15.234,-30.07
15.250,-27.51
15.265,-23.32
15.281,-16.65
15.296,-7.34
15.312,4.05
15.328,16.3
15.343,27.89
15.359,37.34
15.375,43.43
15.390,45.46
15.406,43.26
15.421,37.3
15.437,28.68
15.453,19.09
15.468,10.51
15.484,4.8
15.500,3.19
15.515,5.87
15.531,11.91
15.546,19.6
15.562,27.01
15.578,32.6
15.593,35.63
15.609,36.22
15.625,35.02
15.640,32.96
15.656,30.86
15.671,29.27
15.687,28.4
15.703,28.04
15.718,27.8
15.734,27.19
15.750,25.82
15.765,23.53
15.781,20.42
15.796,16.84
15.812,13.27
15.828,10.22
15.843,8.01
15.859,6.67
15.875,5.82
15.890,4.77
15.906,2.79
15.921,-0.64
15.937,-5.61
15.953,-11.8
15.968,-18.61
15.984,-25.43
16.000,-31.92
16.015,-38.16
16.031,-44.49
16.046,-51.37
16.062,-59.04
16.078,-67.38
16.093,-75.88
16.109,-83.7
16.125,-89.9
16.140,-93.66
16.156,-94.42
16.171,-92.1
16.187,-86.98
16.203,-79.7
16.218,-70.96
16.234,-61.41
16.250,-51.52
16.265,-41.55
16.281,-31.59
16.296,-21.8
16.312,-12.44
16.328,-3.92
16.343,3.35
16.359,9.09
16.375,13.24
16.390,15.96
16.406,17.57
16.421,18.37
16.437,18.6
16.453,18.44
16.468,18.06
16.484,17.76
16.500,17.83
16.515,18.48
16.531,19.7
16.546,21.2
16.562,22.5
16.578,23.16
16.593,23.03
16.609,22.24
16.625,21.19
16.640,20.32
16.656,19.89
16.671,19.96
16.687,20.38
16.703,20.91
16.718,21.35
16.734,21.57
16.750,21.46
16.765,20.93
16.781,19.97
16.796,18.61
16.812,16.96
16.828,15.19
16.843,13.38
16.859,11.55
16.875,9.59
16.890,7.35
16.906,4.7
16.921,1.59
16.937,-1.94
16.953,-5.79
16.968,-9.86
16.984,-14.07
17.000,-18.3
17.015,-22.4
17.031,-26.22
17.046,-29.68
17.062,-32.75
17.078,-35.5
17.093,-37.98
17.109,-40.1
17.125,-41.59
17.140,-42.07
17.156,-41.2
17.171,-38.9
17.187,-35.42
17.203,-31.26
17.218,-27.03
17.234,-23.13
17.250,-19.68
17.265,-16.47
17.281,-13.13
17.296,-9.36
17.312,-5.1
17.328,-0.55
17.343,3.86
17.359,7.65
17.375,10.47
17.390,12.19
17.406,12.92
17.421,12.99
17.437,12.84
17.453,12.91
17.468,13.68
17.484,15.53
17.500,18.7
17.515,23.08
17.531,28.07
17.546,32.66
17.562,35.6
17.578,35.96
17.593,33.49
17.609,28.71
17.625,22.71
17.640,16.63
17.656,11.26
17.671,6.82
17.687,3.24
17.703,0.42
17.718,-1.47
17.734,-2.06
17.750,-0.94
17.765,2.06
17.781,6.78
17.796,12.95
17.812,20.23
17.828,28.17
17.843,36.07
17.859,42.91
17.875,47.56
17.890,49.17
17.906,47.68
17.921,43.96
17.937,39.65
17.953,36.54
17.968,35.91
17.984,38.08
18.000,42.38
18.015,47.29
18.031,50.85
18.046,51.17
18.062,46.84
18.078,37.48
18.093,24.0
18.109,8.56
18.125,-5.95
18.140,-16.89
18.156,-22.78
18.171,-23.81
18.187,-21.54
18.203,-18.13
18.218,-15.36
18.234,-13.94
18.250,-13.5
18.265,-12.94
18.281,-11.24
18.296,-7.97
18.312,-3.36
18.328,1.96
18.343,7.27
18.359,12.06
18.375,15.95
18.390,18.54
18.406,19.48
18.421,18.64
18.437,16.39
18.453,13.61
18.468,11.37
18.484,10.36
18.500,10.56
18.515,11.17
18.531,11.18
18.546,10.01
18.562,7.98
18.578,6.2
18.593,5.98
18.609,8.2
18.625,12.87
18.640,19.09
18.656,25.38
18.671,30.05
18.687,31.59
18.703,29.02
18.718,22.29
18.734,12.52
18.750,1.86
18.765,-7.19
18.781,-12.48
18.796,-13.0
18.812,-8.99
18.828,-1.78
18.843,6.67
18.859,14.15
18.875,18.47
18.890,17.83
18.906,11.23
18.921,-0.92
18.937,-16.55
18.953,-32.32
18.968,-44.76
18.984,-51.56
19.000,-52.47
19.015,-49.19
19.031,-44.32
19.046,-40.09
19.062,-37.43
19.078,-35.92
19.093,-34.54
19.109,-32.43
19.125,-29.43
19.140,-25.94
19.156,-22.5
19.171,-19.5
19.187,-17.08
19.203,-15.45
19.218,-15.06
19.234,-16.48
19.250,-19.95
19.265,-24.85
19.281,-29.59
19.296,-32.16
19.312,-30.86
19.328,-25.12
19.343,-15.74
19.359,-4.51
19.375,6.48
19.390,15.61
19.406,22.03
19.421,25.64
19.437,26.89
19.453,26.63
19.468,26.03
19.484,26.43
19.500,29.0
19.515,34.23
19.531,41.46
19.546,48.85
19.562,53.89
19.578,54.41
19.593,49.58
19.609,40.35
19.625,29.25
19.640,19.38
19.656,13.25
19.671,11.88
19.687,14.62
19.703,19.6
19.718,24.52
19.734,27.55
19.750,27.71
19.765,24.95
19.781,19.77
19.796,12.91
19.812,5.02
19.828,-3.4
19.843,-12.03
19.859,-20.53
19.875,-28.48
19.890,-35.22
19.906,-39.93
19.921,-41.85
19.937,-40.72
19.953,-37.03
19.968,-32.13
19.984,-27.81
20.000,-25.66
20.015,-26.37
20.031,-29.45
20.046,-33.38
20.062,-36.15
20.078,-36.09
20.093,-32.44
20.109,-25.55
20.125,-16.59
20.140,-7.26
20.156,0.63
20.171,5.28
20.187,5.11
20.203,-0.87
20.218,-12.61
20.234,-28.59
20.250,-45.88
20.265,-60.7
20.281,-69.7
20.296,-71.11
20.312,-65.39
20.328,-54.97
20.343,-43.19
20.359,-32.92
20.375,-25.55
20.390,-20.85
20.406,-17.52
20.421,-14.26
20.437,-10.34
20.453,-5.85
20.468,-1.28
20.484,2.97
20.500,7.03
20.515,11.6
20.531,17.54
20.546,25.43
20.562,35.26
20.578,46.39
20.593,57.84
20.609,68.44
20.625,76.98
20.640,82.25
20.656,83.21
20.671,79.23
20.687,70.48
20.703,58.09
20.718,44.14
20.734,31.14
20.750,21.31
20.765,15.91
20.781,14.88
20.796,16.94
20.812,20.13
20.828,22.57
20.843,23.01
20.859,21.06
20.875,17.07
20.890,11.79
20.906,6.03
20.921,0.4
20.937,-4.73
20.953,-9.12
20.968,-12.65
20.984,-15.26
21.000,-17.16
21.015,-18.74
21.031,-20.53
21.046,-22.97
21.062,-26.21
21.078,-30.04
21.093,-33.96
21.109,-37.43
21.125,-40.12
21.140,-42.02
21.156,-43.4
21.171,-44.74
21.187,-46.45
21.203,-48.68
21.218,-51.18
21.234,-53.37
21.250,-54.51
21.265,-54.02
21.281,-51.66
21.296,-47.63
21.312,-42.5
21.328,-36.94
21.343,-31.54
21.359,-26.6
21.375,-22.16
21.390,-17.91
21.406,-13.41
21.421,-8.22
21.437,-2.07
21.453,4.98
21.468,12.46
21.484,19.7
21.500,25.97
21.515,30.82
21.531,34.15
21.546,36.23
21.562,37.5
21.578,38.36
21.593,38.97
21.609,39.26
21.625,39.04
21.640,38.03
21.656,36.02
21.671,32.86
21.687,28.58
21.703,23.44
21.718,17.93
21.734,12.66
21.750,8.22
21.765,4.99
21.781,3.01
21.796,2.08
21.812,1.74
21.828,1.56
21.843,1.11
21.859,0.11
21.875,-1.62
21.890,-4.13
21.906,-7.32
21.921,-10.92
21.937,-14.58
21.953,-17.94
21.968,-20.84
21.984,-23.27
22.000,-25.4
22.015,-27.41
22.031,-29.44
22.046,-31.55
22.062,-33.81
22.078,-36.25
22.093,-38.93
22.109,-41.89
22.125,-45.17
22.140,-48.85
22.156,-53.09
22.171,-57.99
22.187,-63.56
22.203,-69.58
22.218,-75.56
22.234,-80.89
22.250,-85.0
22.265,-87.62
22.281,-88.74
22.296,-88.6
22.312,-87.51
22.328,-85.7
22.343,-83.32
22.359,-80.35
22.375,-76.72
22.390,-72.28
22.406,-66.87
22.421,-60.33
22.437,-52.69
22.453,-44.14
22.468,-35.1
22.484,-26.05
22.500,-17.39
22.515,-9.31
22.531,-1.65
22.546,5.95
22.562,13.95
22.578,22.75
22.593,32.46
22.609,42.96
22.625,53.86
22.640,64.66
22.656,74.82
22.671,83.91
22.687,91.63
22.703,97.77
22.718,102.28
22.734,105.19
22.750,106.59
22.765,106.53
22.781,105.05
22.796,102.08
22.812,97.63
22.828,91.84
22.843,85.05
22.859,77.79
22.875,70.56
22.890,63.66
22.906,57.05
22.921,50.42
22.937,43.37
22.953,35.64
22.968,27.2
22.984,18.23
23.000,9.08
23.015,0.15
23.031,-8.09
23.046,-15.18
23.062,-20.68
23.078,-24.33
23.093,-26.12
23.109,-26.47
23.125,-26.1
23.140,-25.84
23.156,-26.37
23.171,-28.04
23.187,-30.81
23.203,-34.48
23.218,-38.76
23.234,-43.33
23.250,-47.84
23.265,-51.77
23.281,-54.5
23.296,-55.43
23.312,-54.19
23.328,-50.85
23.343,-45.92
23.359,-40.15
23.375,-34.3
23.390,-28.88
23.406,-24.05
23.421,-19.67
23.437,-15.42
23.453,-10.97
23.468,-6.17
23.484,-0.99
23.500,4.34
23.515,9.49
23.531,14.13
23.546,17.96
23.562,20.86
23.578,22.91
23.593,24.35
23.609,25.47
23.625,26.52
23.640,27.63
23.656,28.81
23.671,29.98
23.687,31.04
23.703,31.96
23.718,32.71
23.734,33.26
23.750,33.49
23.765,33.28
23.781,32.51
23.796,31.2
23.812,29.5
23.828,27.67
23.843,25.95
23.859,24.44
23.875,23.09
23.890,21.72
23.906,20.18
23.921,18.41
23.937,16.51
23.953,14.64
23.968,12.92
23.984,11.45
24.000,10.21
24.015,9.13
24.031,8.17
24.046,7.31
24.062,6.53
24.078,5.76
24.093,4.88
24.109,3.73
24.125,2.17
24.140,0.16
24.156,-2.27
24.171,-4.98
24.187,-7.88
24.203,-10.97
24.218,-14.28
24.234,-17.83
24.250,-21.49
24.265,-24.95
24.281,-27.79
24.296,-29.59
24.312,-30.1
24.328,-29.29
24.343,-27.34
24.359,-24.5
24.375,-21.06
24.390,-17.2
24.406,-13.03
24.421,-8.6
24.437,-3.94
24.453,0.95
24.468,6.0
24.484,11.17
24.500,16.39
24.515,21.52
24.531,26.38
24.546,30.69
24.562,34.23
24.578,36.83
24.593,38.45
24.609,39.2
24.625,39.23
24.640,38.73
24.656,37.79
24.671,36.47
24.687,34.84
24.703,32.97
24.718,30.96
24.734,28.87
24.750,26.79
24.765,24.78
24.781,23.02
24.796,21.63
24.812,20.69
24.828,20.1
24.843,19.55
24.859,18.72
24.875,17.4
24.890,15.72
24.906,14.02
24.921,12.71
24.937,12.03
24.953,11.87
24.968,11.85
24.984,11.5
25.000,10.51
25.015,8.8
25.031,6.53
25.046,3.89
25.062,1.09
25.078,-1.76
25.093,-4.59
25.109,-7.3
25.125,-9.82
25.140,-12.06
25.156,-14.1
25.171,-16.14
25.187,-18.52
25.203,-21.52
25.218,-25.19
25.234,-29.21
25.250,-32.92
25.265,-35.57
25.281,-36.53
25.296,-35.54
25.312,-32.83
25.328,-28.93
25.343,-24.52
25.359,-20.2
25.375,-16.29
25.390,-12.76
25.406,-9.37
25.421,-5.76
25.437,-1.77
25.453,2.59
25.468,7.0
25.484,11.03
25.500,14.3
25.515,16.61
25.531,18.05
25.546,18.9
25.562,19.5
25.578,20.1
25.593,20.78
25.609,21.47
25.625,22.0
25.640,22.27
25.656,22.31
25.671,22.25
25.687,22.27
25.703,22.46
25.718,22.76
25.734,22.97
25.750,22.83
25.765,22.17
25.781,20.98
25.796,19.42
25.812,17.78
25.828,16.32
25.843,15.15
25.859,14.19
25.875,13.29
25.890,12.19
25.906,10.71
25.921,8.82
25.937,6.59
25.953,4.25
25.968,2.06
25.984,0.22
26.000,-1.2
26.015,-2.37
26.031,-3.52
26.046,-4.94
26.062,-6.71
26.078,-8.77
26.093,-10.89
26.109,-12.85
26.125,-14.55
26.140,-16.07
26.156,-17.56
26.171,-19.22
26.187,-21.12
26.203,-23.24
26.218,-25.43
26.234,-27.45
26.250,-29.01
26.265,-29.83
26.281,-29.65
26.296,-28.3
26.312,-25.87
26.328,-22.62
26.343,-18.93
26.359,-15.21
26.375,-11.65
26.390,-8.34
26.406,-5.23
26.421,-2.19
26.437,0.89
26.453,4.17
26.468,7.72
26.484,11.54
26.500,15.46
26.515,19.15
26.531,22.27
26.546,24.58
26.562,26.05
26.578,26.81
26.593,27.09
26.609,27.03
26.625,26.73
26.640,26.26
26.656,25.77
26.671,25.44
26.687,25.39
26.703,25.54
26.718,25.59
26.734,25.17
26.750,24.01
26.765,22.18
26.781,20.01
26.796,17.92
26.812,16.21
26.828,14.89
26.843,13.72
26.859,12.43
26.875,10.89
26.890,9.16
26.906,7.45
26.921,5.85
26.937,4.28
26.953,2.54
26.968,0.46
26.984,-1.92
27.000,-4.3
27.015,-6.23
27.031,-7.43
27.046,-7.87
27.062,-7.89
27.078,-7.97
27.093,-8.51
27.109,-9.64
27.125,-11.22
27.140,-13.01
27.156,-14.8
27.171,-16.54
27.187,-18.26
27.203,-20.02
27.218,-21.88
27.234,-23.82
27.250,-25.84
27.265,-27.93
27.281,-30.02
27.296,-31.95
27.312,-33.47
27.328,-34.26
27.343,-34.12
27.359,-33.04
27.375,-31.21
27.390,-28.93
27.406,-26.45
27.421,-23.84
27.437,-21.07
27.453,-18.06
27.468,-14.81
27.484,-11.35
27.500,-7.72
27.515,-3.9
27.531,0.14
27.546,4.4
27.562,8.73
27.578,12.78
27.593,16.17
27.609,18.58
27.625,19.92
27.640,20.39
27.656,20.35
27.671,20.26
27.687,20.52
27.703,21.41
27.718,23.01
27.734,25.24
27.750,27.84
27.765,30.36
27.781,32.43
27.796,33.82
27.812,34.53
27.828,34.73
27.843,34.6
27.859,34.2
27.875,33.41
27.890,32.1
27.906,30.22
27.921,27.9
27.937,25.38
27.953,22.85
27.968,20.29
27.984,17.54
28.000,14.46
28.015,11.08
28.031,7.74
28.046,4.85
28.062,2.74
28.078,1.41
28.093,0.59
28.109,-0.14
28.125,-0.94
28.140,-1.64
28.156,-1.76
28.171,-0.9
28.187,0.88
28.203,3.0
28.218,4.53
28.234,4.58
28.250,2.73
28.265,-0.9
28.281,-5.82
28.296,-11.48
28.312,-17.47
28.328,-23.49
28.343,-29.19
28.359,-33.98
28.375,-37.09
28.390,-37.77
28.406,-35.75
28.421,-31.33
28.437,-25.37
28.453,-18.84
28.468,-12.46
28.484,-6.55
28.500,-1.02
28.515,4.27
28.531,9.34
28.546,13.94
28.562,17.72
28.578,20.48
28.593,22.39
28.609,23.93
28.625,25.69
28.640,27.98
28.656,30.68
28.671,33.26
28.687,35.11
28.703,35.9
28.718,35.68
28.734,34.9
28.750,33.98
28.765,32.98
28.781,31.59
28.796,29.22
28.812,25.47
28.828,20.38
28.843,14.5
28.859,8.56
28.875,3.1
28.890,-1.83
28.906,-6.57
28.921,-11.54
28.937,-16.93
28.953,-22.58
28.968,-28.13
28.984,-33.31
29.000,-38.16
29.015,-42.91
29.031,-47.75
29.046,-52.51
29.062,-56.76
29.078,-59.93
29.093,-61.78
29.109,-62.49
29.125,-62.6
29.140,-62.69
29.156,-63.1
29.171,-63.78
29.187,-64.48
29.203,-64.92
29.218,-65.03
29.234,-65.0
29.250,-65.07
29.265,-65.44
29.281,-66.06
29.296,-66.72
29.312,-67.1
29.328,-66.86
29.343,-65.67
29.359,-63.23
29.375,-59.31
29.390,-53.75
29.406,-46.59
29.421,-38.1
29.437,-28.83
29.453,-19.42
29.468,-10.41
29.484,-2.05
29.500,5.7
29.515,13.03
29.531,20.05
29.546,26.6
29.562,32.17
29.578,36.25
29.593,38.53
29.609,39.14
29.625,38.61
29.640,37.59
29.656,36.59
29.671,35.77
29.687,35.02
29.703,34.2
29.718,33.34
29.734,32.65
29.750,32.37
29.765,32.52
29.781,32.8
29.796,32.71
29.812,31.81
29.828,29.98
29.843,27.51
29.859,24.94
29.875,22.8
29.890,21.47
29.906,20.97
29.921,21.15
29.937,21.76
29.953,22.61
29.968,23.64
29.984,24.86
30.000,26.3
30.015,27.96
30.031,29.74
30.046,31.53
30.062,33.13
30.078,34.38
30.093,35.15
30.109,35.33
30.125,34.82
30.140,33.6
30.156,31.68
30.171,29.17
30.187,26.28
30.203,23.29
30.218,20.48
30.234,17.99
30.250,15.82
30.265,13.75
30.281,11.48
30.296,8.7
30.312,5.18
30.328,0.81
30.343,-4.46
30.359,-10.6
30.375,-17.53
30.390,-24.98
30.406,-32.51
30.421,-39.43
30.437,-44.99
30.453,-48.57
30.468,-49.88
30.484,-49.06
30.500,-46.64
30.515,-43.29
30.531,-39.59
30.546,-35.8
30.562,-31.91
30.578,-27.67
30.593,-22.84
30.609,-17.3
30.625,-11.2
30.640,-4.88
30.656,1.22
30.671,6.69
30.687,11.29
30.703,14.98
30.718,17.9
30.734,20.25
30.750,22.21
30.765,23.87
30.781,25.17
30.796,26.0
30.812,26.26
30.828,25.97
30.843,25.33
30.859,24.65
30.875,24.2
30.890,24.16
30.906,24.4
30.921,24.64
30.937,24.52
30.953,23.93
30.968,22.91
30.984,21.7
31.000,20.48
31.015,19.25
31.031,17.81
31.046,15.91
31.062,13.41
31.078,10.41
31.093,7.24
31.109,4.29
31.125,1.86
31.140,0.1
31.156,-1.11
31.171,-1.99
31.187,-2.97
31.203,-4.45
31.218,-6.75
31.234,-9.87
31.250,-13.52
31.265,-17.2
31.281,-20.4
31.296,-22.89
31.312,-24.83
31.328,-26.67
31.343,-28.9
31.359,-31.86
31.375,-35.61
31.390,-39.94
31.406,-44.49
31.421,-48.85
31.437,-52.59
31.453,-55.28
31.468,-56.52
31.484,-56.06
31.500,-53.91
31.515,-50.38
31.531,-46.02
31.546,-41.39
31.562,-36.92
31.578,-32.83
31.593,-29.11
31.609,-25.69
31.625,-22.47
31.640,-19.38
31.656,-16.43
31.671,-13.58
31.687,-10.79
31.703,-8.06
31.718,-5.49
31.734,-3.29
31.750,-1.63
31.765,-0.58
31.781,-0.02
31.796,0.27
31.812,0.47
31.828,0.55
31.843,0.3
31.859,-0.6
31.875,-2.32
31.890,-4.73
31.906,-7.4
31.921,-9.72
31.937,-11.23
31.953,-11.73
31.968,-11.38
31.984,-10.57
32.000,-9.76
32.015,-9.23
32.031,-9.09
32.046,-9.28
32.062,-9.68
32.078,-10.23
32.093,-10.98
32.109,-12.07
32.125,-13.57
32.140,-15.4
32.156,-17.31
32.171,-18.93
32.187,-20.0
32.203,-20.45
32.218,-20.49
32.234,-20.45
32.250,-20.56
32.265,-20.84
32.281,-21.04
32.296,-20.83
32.312,-19.99
32.328,-18.44
32.343,-16.34
32.359,-13.9
32.375,-11.32
32.390,-8.83
32.406,-6.74
32.421,-5.39
32.437,-5.06
32.453,-5.74
32.468,-7.04
32.484,-8.23
32.500,-8.57
32.515,-7.54
32.531,-5.06
32.546,-1.39
32.562,3.08
32.578,8.0
32.593,13.16
32.609,18.41
32.625,23.57
32.640,28.35
32.656,32.49
32.671,35.77
32.687,37.98
32.703,38.85
32.718,37.97
32.734,35.04
32.750,30.12
32.765,23.95
32.781,17.92
32.796,13.69
32.812,12.48
32.828,14.53
32.843,19.04
32.859,24.52
32.875,29.44
32.890,32.73
32.906,33.96
32.921,33.1
32.937,30.34
32.953,25.9
32.968,20.19
32.984,13.87
33.000,7.73
33.015,2.48
33.031,-1.53
33.046,-4.44
33.062,-6.76
33.078,-9.04
33.093,-11.69
33.109,-14.81
33.125,-18.19
33.140,-21.38
33.156,-23.71
33.171,-24.43
33.187,-22.9
33.203,-18.89
33.218,-12.91
33.234,-6.17
33.250,-0.24
33.265,3.43
33.281,4.0
33.296,1.49
33.312,-3.31
33.328,-9.19
33.343,-14.92
33.359,-19.58
33.375,-22.67
33.390,-24.21
33.406,-24.47
33.421,-23.87
33.437,-22.74
33.453,-21.33
33.468,-19.72
33.484,-17.89
33.500,-15.64
33.515,-12.56
33.531,-8.06
33.546,-1.63
33.562,6.87
33.578,16.94
33.593,27.38
33.609,36.61
33.625,43.21
33.640,46.47
33.656,46.57
33.671,44.43
33.687,41.23
33.703,37.94
33.718,35.15
33.734,33.21
33.750,32.52
33.765,33.7
33.781,37.33
33.796,43.66
33.812,52.15
33.828,61.57
33.843,70.19
33.859,76.3
33.875,78.61
33.890,76.5
33.906,69.96
33.921,59.5
33.937,46.11
33.953,31.25
33.968,16.78
33.984,4.69
34.000,-3.37
34.015,-6.59
34.031,-5.26
34.046,-0.69
34.062,5.24
34.078,10.68
34.093,14.38
34.109,16.05
34.125,16.39
34.140,16.68
34.156,18.32
34.171,22.14
34.187,28.14
34.203,35.41
34.218,42.47
34.234,47.62
34.250,49.35
34.265,46.68
34.281,39.32
34.296,27.84
34.312,13.55
34.328,-1.69
34.343,-15.94
34.359,-27.54
34.375,-35.62
34.390,-40.11
34.406,-41.58
34.421,-41.03
34.437,-39.53
34.453,-38.09
34.468,-37.64
34.484,-38.88
34.500,-42.17
34.515,-47.34
34.531,-53.72
34.546,-60.27
34.562,-65.84
34.578,-69.49
34.593,-70.6
34.609,-68.92
34.625,-64.55
34.640,-57.9
34.656,-49.55
34.671,-40.15
34.687,-30.26
34.703,-20.25
34.718,-10.37
34.734,-0.83
34.750,8.05
34.765,15.88
34.781,22.24
34.796,26.83
34.812,29.6
34.828,30.76
34.843,30.66
34.859,29.74
34.875,28.35
34.890,26.7
34.906,24.82
34.921,22.63
34.937,20.05
34.953,17.11
34.968,14.08
34.984,11.4
35.000,9.48
35.015,8.53
35.031,8.41
35.046,8.62
35.062,8.67
35.078,8.25
35.093,7.36
35.109,6.25
35.125,5.15
35.140,4.08
35.156,2.81
35.171,0.99
35.187,-1.58
35.203,-4.79
35.218,-8.23
35.234,-11.35
35.250,-13.71
35.265,-15.14
35.281,-15.89
35.296,-16.44
35.312,-17.37
35.328,-19.08
35.343,-21.64
35.359,-24.76
35.375,-27.88
35.390,-30.42
35.406,-31.98
35.421,-32.56
35.437,-32.54
35.453,-32.52
35.468,-33.08
35.484,-34.51
35.500,-36.72
35.515,-39.25
35.531,-41.42
35.546,-42.58
35.562,-42.27
35.578,-40.39
35.593,-37.12
35.609,-32.89
35.625,-28.31
35.640,-23.99
35.656,-20.33
35.671,-17.3
35.687,-14.25
35.703,-9.85
35.718,-2.37
35.734,9.62
35.750,26.62
35.765,47.73
35.781,70.76
35.796,92.91
35.812,111.56
35.828,125.0
35.843,132.66
35.859,134.87
35.875,132.42
35.890,126.15
35.906,116.97
35.921,105.9
35.937,94.31
35.953,83.73
35.968,75.55
35.984,70.53
36.000,68.39
36.015,67.9
36.031,67.18
36.046,64.37
36.062,58.16
36.078,48.25
36.093,35.49
36.109,21.69
36.125,9.08
36.140,-0.43
36.156,-5.89
36.171,-7.68
36.187,-7.14
36.203,-5.97
36.218,-5.37
36.234,-5.78
36.250,-7.03
36.265,-8.99
36.281,-12.15
36.296,-17.66
36.312,-26.77
36.328,-39.81
36.343,-55.47
36.359,-70.87
36.375,-82.49
36.390,-87.61
36.406,-85.34
36.421,-76.78
36.437,-64.23
36.453,-50.07
36.468,-35.89
36.484,-22.47
36.500,-10.1
36.515,0.66
36.531,8.68
36.546,12.5
36.562,10.94
36.578,3.76
36.593,-7.99
36.609,-22.22
36.625,-36.41
36.640,-48.24
36.656,-56.21
36.671,-59.8
36.687,-59.37
36.703,-55.92
36.718,-50.55
36.734,-44.14
36.750,-37.14
36.765,-29.48
36.781,-20.8
36.796,-10.75
36.812,0.68
36.828,12.89
36.843,24.6
36.859,34.07
36.875,39.72
36.890,40.7
36.906,37.32
36.921,31.0
36.937,23.83
36.953,17.91
36.968,14.72
36.984,14.75
37.000,17.57
37.015,22.06
37.031,26.77
37.046,30.25
37.062,31.37
37.078,29.57
37.093,24.98
37.109,18.33
37.125,10.65
37.140,2.95
37.156,-4.02
37.171,-9.71
37.187,-13.74
37.203,-15.96
37.218,-16.51
37.234,-15.92
37.250,-15.01
37.265,-14.64
37.281,-15.26
37.296,-16.81
37.312,-18.77
37.328,-20.49
37.343,-21.5
37.359,-21.75
37.375,-21.6
37.390,-21.63
37.406,-22.47
37.421,-24.6
37.437,-28.36
37.453,-33.84
37.468,-40.91
37.484,-49.08
37.500,-57.56
37.515,-65.34
37.531,-71.45
37.546,-75.14
37.562,-76.12
37.578,-74.53
37.593,-70.92
37.609,-66.01
37.625,-60.57
37.640,-55.2
37.656,-50.33
37.671,-46.15
37.687,-42.71
37.703,-39.91
37.718,-37.59
37.734,-35.51
37.750,-33.38
37.765,-30.92
37.781,-27.95
37.796,-24.41
37.812,-20.39
37.828,-16.17
37.843,-12.05
37.859,-8.31
37.875,-5.14
37.890,-2.53
37.906,-0.33
37.921,1.72
37.937,3.91
37.953,6.5
37.968,9.55
37.984,13.0
38.000,16.64
38.015,20.24
38.031,23.66
38.046,26.95
38.062,30.25
38.078,33.73
38.093,37.4
38.109,41.02
38.125,44.16
38.140,46.36
38.156,47.38
38.171,47.33
38.187,46.53
38.203,45.45
38.218,44.37
38.234,43.3
38.250,41.95
38.265,39.94
38.281,36.91
38.296,32.72
38.312,27.45
38.328,21.37
38.343,14.93
38.359,8.62
38.375,2.93
38.390,-1.79
38.406,-5.33
38.421,-7.75
38.437,-9.23
38.453,-10.06
38.468,-10.52
38.484,-10.85
38.500,-11.21
38.515,-11.66
38.531,-12.18
38.546,-12.62
38.562,-12.74
38.578,-12.22
38.593,-10.74
38.609,-8.17
38.625,-4.57
38.640,-0.16
38.656,4.87
38.671,10.46
38.687,16.69
38.703,23.63
38.718,31.18
38.734,38.89
38.750,46.01
38.765,51.66
38.781,55.03
38.796,55.53
38.812,52.94
38.828,47.4
38.843,39.4
38.859,29.71
38.875,19.34
38.890,9.29
38.906,0.43
38.921,-6.81
38.937,-12.42
38.953,-16.78
38.968,-20.46
38.984,-23.98
39.000,-27.56
39.015,-31.13
39.031,-34.28
39.046,-36.43
39.062,-37.09
39.078,-36.17
39.093,-34.02
39.109,-31.4
39.125,-29.16
39.140,-27.87
39.156,-27.65
39.171,-28.18
39.187,-28.92
39.203,-29.41
39.218,-29.42
39.234,-28.93
39.250,-28.06
39.265,-26.92
39.281,-25.6
39.296,-24.24
39.312,-23.06
39.328,-22.34
39.343,-22.22
39.359,-22.64
39.375,-23.34
39.390,-24.02
39.406,-24.48
39.421,-24.8
39.437,-25.19
39.453,-25.9
39.468,-27.0
39.484,-28.31
39.500,-29.39
39.515,-29.81
39.531,-29.29
39.546,-27.74
39.562,-25.3
39.578,-22.17
39.593,-18.56
39.609,-14.59
39.625,-10.32
39.640,-5.86
39.656,-1.36
39.671,2.99
39.687,7.04
39.703,10.8
39.718,14.35
39.734,17.88
39.750,21.44
39.765,25.0
39.781,28.37
39.796,31.38
39.812,33.94
39.828,36.1
39.843,37.95
39.859,39.54
39.875,40.85
39.890,41.8
39.906,42.35
39.921,42.68
39.937,43.04
39.953,43.68
39.968,44.71
39.984,46.03
40.000,47.47
40.015,48.86
40.031,50.23
40.046,51.66
40.062,53.2
40.078,54.72
40.093,55.8
40.109,55.95
40.125,54.74
40.140,51.92
40.156,47.47
40.171,41.44
40.187,33.94
40.203,25.07
40.218,14.98
40.234,3.94
40.250,-7.69
40.265,-19.54
40.281,-31.32
40.296,-42.78
40.312,-53.64
40.328,-63.31
40.343,-71.02
40.359,-75.91
40.375,-77.26
40.390,-74.83
40.406,-68.96
40.421,-60.55
40.437,-50.92
40.453,-41.51
40.468,-33.36
40.484,-26.97
40.500,-22.11
40.515,-18.04
40.531,-13.83
40.546,-8.69
40.562,-2.2
40.578,5.62
40.593,14.27
40.609,22.96
40.625,30.71
40.640,36.58
40.656,39.88
40.671,40.44
40.687,38.9
40.703,36.49
40.718,34.73
40.734,34.76
40.750,36.91
40.765,40.63
40.781,44.86
40.796,48.56
40.812,51.08
40.828,52.29
40.843,52.41
40.859,51.8
40.875,50.76
40.890,49.63
40.906,48.77
40.921,48.61
40.937,49.42
40.953,51.02
40.968,52.77
40.984,53.68
41.000,52.81
41.015,49.67
41.031,44.33
41.046,37.39
41.062,29.77
41.078,22.45
41.093,16.33
41.109,12.11
41.125,10.12
41.140,10.14
41.156,11.36
41.171,12.49
41.187,12.13
41.203,9.27
41.218,3.65
41.234,-4.18
41.250,-13.14
41.265,-22.13
41.281,-30.37
41.296,-37.55
41.312,-43.74
41.328,-49.15
41.343,-53.98
41.359,-58.38
41.375,-62.47
41.390,-66.5
41.406,-70.7
41.421,-75.26
41.437,-80.11
41.453,-84.89
41.468,-88.96
41.484,-91.65
41.500,-92.55
41.515,-91.58
41.531,-89.05
41.546,-85.4
41.562,-80.95
41.578,-75.87
41.593,-70.06
41.609,-63.32
41.625,-55.47
41.640,-46.56
41.656,-36.91
41.671,-27.14
41.687,-17.94
41.703,-9.86
41.718,-3.07
41.734,2.7
41.750,7.99
41.765,13.29
41.781,18.83
41.796,24.52
41.812,30.13
41.828,35.53
41.843,40.77
41.859,46.08
41.875,51.68
41.890,57.56
41.906,63.57
41.921,69.52
41.937,75.39
41.953,81.32
41.968,87.43
41.984,93.67
42.000,99.75
42.015,105.23
42.031,109.6
42.046,112.33
42.062,112.86
42.078,110.54
42.093,104.81
42.109,95.3
42.125,82.19
42.140,66.19
42.156,48.41
42.171,30.06
42.187,12.28
42.203,-4.04
42.218,-18.15
42.234,-29.4
42.250,-37.3
42.265,-41.63
42.281,-42.49
42.296,-40.33
42.312,-35.74
42.328,-29.43
42.343,-22.19
42.359,-14.88
42.375,-8.35
42.390,-3.25
42.406,0.15
42.421,2.01
42.437,2.79
42.453,2.9
42.468,2.53
42.484,1.66
42.500,0.32
42.515,-1.03
42.531,-1.45
42.546,0.24
42.562,5.01
42.578,13.21
42.593,24.36
42.609,37.26
42.625,50.11
42.640,60.78
42.656,67.01
42.671,66.81
42.687,59.11
42.703,44.42
42.718,25.09
42.734,4.92
42.750,-12.01
42.765,-22.77
42.781,-26.61
42.796,-25.08
42.812,-21.15
42.828,-17.88
42.843,-17.23
42.859,-19.62
42.875,-24.16
42.890,-29.32
42.906,-33.76
42.921,-36.81
42.937,-38.55
42.953,-39.63
42.968,-40.81
42.984,-42.64
43.000,-45.24
43.015,-48.33
43.031,-51.42
43.046,-53.95
43.062,-55.35
43.078,-54.91
43.093,-51.91
43.109,-45.79
43.125,-36.71
43.140,-25.88
43.156,-15.48
43.171,-7.99
43.187,-5.27
43.203,-7.8
43.218,-14.53
43.234,-23.55
43.250,-32.92
43.265,-41.38
43.281,-48.42
43.296,-53.96
43.312,-57.92
43.328,-60.0
43.343,-59.86
43.359,-57.44
43.375,-53.2
43.390,-48.07
43.406,-43.06
43.421,-38.95
43.437,-35.97
43.453,-33.76
43.468,-31.58
43.484,-28.6
43.500,-24.32
43.515,-18.78
43.531,-12.51
43.546,-6.32
43.562,-1.02
43.578,2.9
43.593,5.31
43.609,6.52
43.625,7.13
43.640,7.78
43.656,8.96
43.671,10.82
43.687,13.14
43.703,15.33
43.718,16.67
43.734,16.53
43.750,14.58
43.765,10.95
43.781,6.16
43.796,0.91
43.812,-4.02
43.828,-8.0
43.843,-10.61
43.859,-11.63
43.875,-11.11
43.890,-9.42
43.906,-7.12
43.921,-4.87
43.937,-3.15
43.953,-2.01
43.968,-0.96
43.984,0.93
44.000,4.67
44.015,10.81
44.031,18.98
44.046,27.92
44.062,35.72
44.078,40.5
44.093,41.07
44.109,37.49
44.125,31.13
44.140,24.25
44.156,19.24
44.171,17.8
44.187,20.35
44.203,26.03
44.218,33.02
44.234,39.2
44.250,42.74
44.265,42.55
44.281,38.41
44.296,30.92
44.312,21.4
44.328,11.74
44.343,4.0
44.359,-0.04
44.375,0.48
44.390,5.12
44.406,12.15
44.421,19.15
44.437,23.9
44.453,25.13
44.468,22.94
44.484,18.59
44.500,13.95
44.515,10.77
44.531,10.06
44.546,11.8
44.562,14.98
44.578,18.07
44.593,19.52
44.609,18.4
44.625,14.61
44.640,8.9
44.656,2.53
44.671,-3.2
44.687,-7.35
44.703,-9.45
44.718,-9.5
44.734,-7.82
44.750,-4.95
44.765,-1.56
44.781,1.56
44.796,3.7
44.812,4.35
44.828,3.41
44.843,1.21
44.859,-1.64
44.875,-4.4
44.890,-6.54
44.906,-7.91
44.921,-8.76
44.937,-9.61
44.953,-11.03
44.968,-13.42
44.984,-16.85
45.000,-21.11
45.015,-25.77
45.031,-30.33
45.046,-34.37
45.062,-37.61
45.078,-39.99
45.093,-41.67
45.109,-42.89
45.125,-43.9
45.140,-44.79
45.156,-45.45
45.171,-45.64
45.187,-45.14
45.203,-43.85
45.218,-41.89
45.234,-39.45
45.250,-36.68
45.265,-33.62
45.281,-30.21
45.296,-26.35
45.312,-22.08
45.328,-17.6
45.343,-13.19
45.359,-9.17
45.375,-5.7
45.390,-2.78
45.406,-0.27
45.421,1.98
45.437,4.1
45.453,6.09
45.468,7.87
45.484,9.37
45.500,10.5
45.515,11.27
45.531,11.71
45.546,11.88
45.562,11.87
45.578,11.77
45.593,11.7
45.609,11.74
45.625,11.97
45.640,12.33
45.656,12.68
45.671,12.84
45.687,12.65
45.703,12.09
45.718,11.24
45.734,10.24
45.750,9.23
45.765,8.28
45.781,7.46
45.796,6.83
45.812,6.42
45.828,6.24
45.843,6.23
45.859,6.24
45.875,6.05
45.890,5.47
45.906,4.34
45.921,2.69
45.937,0.62
45.953,-1.65
45.968,-3.89
45.984,-5.92
46.000,-7.69
46.015,-9.21
46.031,-10.65
46.046,-12.19
46.062,-14.01
46.078,-16.17
46.093,-18.51
46.109,-20.68
46.125,-22.23
46.140,-22.76
46.156,-22.06
46.171,-20.19
46.187,-17.48
46.203,-14.36
46.218,-11.19
46.234,-8.15
46.250,-5.2
46.265,-2.27
46.281,0.66
46.296,3.51
46.312,6.05
46.328,8.13
46.343,9.71
46.359,10.95
46.375,12.05
46.390,13.18
46.406,14.28
46.421,15.16
46.437,15.57
46.453,15.36
46.468,14.64
46.484,13.69
46.500,12.89
46.515,12.54
46.531,12.69
46.546,13.15
46.562,13.65
46.578,13.9
46.593,13.81
46.609,13.48
46.625,13.08
46.640,12.77
46.656,12.54
46.671,12.26
46.687,11.78
46.703,11.02
46.718,10.02
46.734,8.88
46.750,7.7
46.765,6.48
46.781,5.21
46.796,3.89
46.812,2.61
46.828,1.44
46.843,0.42
46.859,-0.56
46.875,-1.72
46.890,-3.22
46.906,-5.05
46.921,-7.02
46.937,-8.76
46.953,-10.01
46.968,-10.73
46.984,-11.22
47.000,-11.92
47.015,-13.23
47.031,-15.25
47.046,-17.73
47.062,-20.16
47.078,-21.95
47.093,-22.67
47.109,-22.21
47.125,-20.72
47.140,-18.52
47.156,-15.97
47.171,-13.28
47.187,-10.59
47.203,-7.88
47.218,-5.13
47.234,-2.28
47.250,0.66
47.265,3.69
47.281,6.76
47.296,9.78
47.312,12.57
47.328,14.92
47.343,16.65
47.359,17.71
47.375,18.19
47.390,18.3
47.406,18.27
47.421,18.24
47.437,18.22
47.453,18.1
47.468,17.79
47.484,17.29
47.500,16.77
47.515,16.45
47.531,16.48
47.546,16.84
47.562,17.32
47.578,17.64
47.593,17.52
47.609,16.83
47.625,15.57
47.640,13.89
47.656,12.06
47.671,10.27
47.687,8.67
47.703,7.27
47.718,6.04
47.734,4.97
47.750,4.04
47.765,3.29
47.781,2.69
47.796,2.1
47.812,1.35
47.828,0.25
47.843,-1.27
47.859,-3.12
47.875,-5.13
47.890,-7.13
47.906,-8.96
47.921,-10.59
47.937,-11.97
47.953,-13.06
47.968,-13.84
47.984,-14.35
48.000,-14.75
48.015,-15.31
48.031,-16.25
48.046,-17.64
48.062,-19.27
48.078,-20.75
48.093,-21.59
48.109,-21.38
48.125,-20.0
48.140,-17.61
48.156,-14.59
48.171,-11.47
48.187,-8.63
48.203,-6.27
48.218,-4.33
48.234,-2.52
48.250,-0.54
48.265,1.8
48.281,4.48
48.296,7.26
48.312,9.77
48.328,11.75
48.343,13.06
48.359,13.82
48.375,14.25
48.390,14.55
48.406,14.79
48.421,14.93
48.437,14.83
48.453,14.46
48.468,13.93
48.484,13.44
48.500,13.18
48.515,13.2
48.531,13.38
48.546,13.48
48.562,13.34
48.578,12.91
48.593,12.24
48.609,11.46
48.625,10.67
48.640,9.92
48.656,9.23
48.671,8.58
48.687,7.97
48.703,7.45
48.718,7.03
48.734,6.67
48.750,6.3
48.765,5.76
48.781,4.99
48.796,3.91
48.812,2.6
48.828,1.16
48.843,-0.28
48.859,-1.61
48.875,-2.82
48.890,-3.96
48.906,-5.1
48.921,-6.22
48.937,-7.19
48.953,-7.84
48.968,-8.08
48.984,-7.99
49.000,-7.83
49.015,-7.95
49.031,-8.63
49.046,-9.94
49.062,-11.71
49.078,-13.61
49.093,-15.27
49.109,-16.43
49.125,-17.0
49.140,-16.97
49.156,-16.37
49.171,-15.18
49.187,-13.42
49.203,-11.13
49.218,-8.52
49.234,-5.89
49.250,-3.47
49.265,-1.38
49.281,0.52
49.296,2.42
49.312,4.54
49.328,6.88
49.343,9.24
49.359,11.3
49.375,12.77
49.390,13.53
49.406,13.6
49.421,13.13
49.437,12.31
49.453,11.25
49.468,10.01
49.484,8.62
49.500,7.12
49.515,5.57
49.531,4.02
49.546,2.5
49.562,1.0
49.578,-0.46
49.593,-1.79
49.609,-2.89
49.625,-3.62
49.640,-3.84
49.656,-3.54
49.671,-2.77
49.687,-1.68
49.703,-0.44
49.718,0.81
49.734,1.94
49.750,2.82
49.765,3.29
49.781,3.19
49.796,2.44
49.812,1.08
49.828,-0.69
49.843,-2.59
49.859,-4.33
49.875,-5.74
49.890,-6.76
49.906,-7.43
49.921,-7.85
49.937,-8.12
49.953,-8.35
49.968,-8.67
49.984,-9.22
50.000,-10.15
50.015,-11.55
50.031,-13.35
50.046,-15.34
50.062,-17.21
50.078,-18.61
50.093,-19.29
50.109,-19.12
50.125,-18.14
50.140,-16.5
50.156,-14.44
50.171,-12.16
50.187,-9.78
50.203,-7.35
50.218,-4.81
50.234,-2.14
50.250,0.6
50.265,3.25
50.281,5.64
50.296,7.71
50.312,9.58
50.328,11.57
50.343,14.03
50.359,17.26
50.375,21.43
50.390,26.58
50.406,32.73
50.421,39.83
50.437,47.81
50.453,56.47
50.468,65.44
50.484,74.12
50.500,81.69
50.515,87.15
50.531,89.5
50.546,87.85
50.562,81.74
50.578,71.39
50.593,57.82
50.609,42.8
50.625,28.37
50.640,16.39
50.656,7.98
50.671,3.34
50.687,1.83
50.703,2.35
50.718,3.76
50.734,5.17
50.750,5.97
50.765,5.83
50.781,4.64
50.796,2.41
50.812,-0.67
50.828,-4.24
50.843,-7.78
50.859,-10.72
50.875,-12.68
50.890,-13.62
50.906,-13.9
50.921,-14.21
50.937,-15.22
50.953,-17.38
50.968,-20.76
50.984,-25.13
51.000,-30.13
51.015,-35.39
51.031,-40.51
51.046,-44.99
51.062,-48.19
51.078,-49.33
51.093,-47.87
51.109,-43.67
51.125,-37.26
51.140,-29.7
51.156,-22.19
51.171,-15.66
51.187,-10.43
51.203,-6.25
51.218,-2.45
51.234,1.68
51.250,6.64
51.265,12.56
51.281,19.2
51.296,26.03
51.312,32.39
51.328,37.57
51.343,40.91
51.359,41.87
51.375,40.11
51.390,35.56
51.406,28.45
51.421,19.42
51.437,9.37
51.453,-0.65
51.468,-9.65
51.484,-16.83
51.500,-21.72
51.515,-24.24
51.531,-24.59
51.546,-23.19
51.562,-20.5
51.578,-16.91
51.593,-12.58
51.609,-7.5
51.625,-1.58
51.640,5.11
51.656,12.23
51.671,19.13
51.687,25.01
51.703,29.14
51.718,31.08
51.734,30.69
51.750,28.07
51.765,23.53
51.781,17.46
51.796,10.37
51.812,2.88
51.828,-4.4
51.843,-10.95
51.859,-16.58
51.875,-21.37
51.890,-25.54
51.906,-29.2
51.921,-32.19
51.937,-34.13
51.953,-34.63
51.968,-33.59
51.984,-31.27
52.000,-28.27
52.015,-25.31
52.031,-22.93
52.046,-21.42
52.062,-20.74
52.078,-20.63
52.093,-20.7
52.109,-20.49
52.125,-19.54
52.140,-17.54
52.156,-14.39
52.171,-10.35
52.187,-6.01
52.203,-2.1
52.218,0.71
52.234,2.05
52.250,1.87
52.265,0.46
52.281,-1.79
52.296,-4.44
52.312,-7.1
52.328,-9.42
52.343,-11.12
52.359,-12.03
52.375,-12.08
52.390,-11.38
52.406,-10.15
52.421,-8.62
52.437,-7.0
52.453,-5.39
52.468,-3.86
52.484,-2.45
52.500,-1.18
52.515,-0.04
52.531,1.03
52.546,2.07
52.562,3.12
52.578,4.15
52.593,5.07
52.609,5.79
52.625,6.26
52.640,6.49
52.656,6.55
52.671,6.53
52.687,6.47
52.703,6.42
52.718,6.35
52.734,6.22
52.750,6.02
52.765,5.77
52.781,5.5
52.796,5.23
52.812,4.99
52.828,4.79
52.843,4.63
52.859,4.47
52.875,4.25
52.890,3.86
52.906,3.2
52.921,2.2
52.937,0.9
52.953,-0.57
52.968,-2.01
52.984,-3.23
53.000,-4.2
53.015,-5.02
53.031,-5.93
53.046,-7.12
53.062,-8.64
53.078,-10.31
53.093,-11.82
53.109,-12.85
53.125,-13.19
53.140,-12.8
53.156,-11.74
53.171,-10.16
53.187,-8.2
53.203,-6.01
53.218,-3.78
53.234,-1.76
53.250,-0.17
53.265,0.88
53.281,1.47
53.296,1.81
53.312,2.18
53.328,2.77
53.343,3.65
53.359,4.87
53.375,6.46
53.390,8.48
53.406,10.95
53.421,13.7
53.437,16.38
53.453,18.59
53.468,20.22
53.484,21.62
53.500,23.57
53.515,26.87
53.531,31.88
53.546,38.08
53.562,44.22
53.578,48.77
53.593,50.55
53.609,49.1
53.625,44.66
53.640,37.84
53.656,29.35
53.671,19.93
53.687,10.47
53.703,2.1
53.718,-3.88
53.734,-6.57
53.750,-5.89
53.765,-2.8
53.781,1.04
53.796,3.78
53.812,4.13
53.828,1.62
53.843,-3.34
53.859,-9.75
53.875,-16.3
53.890,-21.64
53.906,-24.59
53.921,-24.46
53.937,-21.32
53.953,-16.04
53.968,-10.04
53.984,-4.83
54.000,-1.42
54.015,-0.13
54.031,-0.56
54.046,-1.92
54.062,-3.38
54.078,-4.2
54.093,-3.75
54.109,-1.65
54.125,2.21
54.140,7.44
54.156,13.2
54.171,18.45
54.187,22.38
54.203,24.68
54.218,25.6
54.234,25.66
54.250,25.22
54.265,24.28
54.281,22.62
54.296,20.14
54.312,17.14
54.328,14.31
54.343,12.48
54.359,12.14
54.375,13.28
54.390,15.37
54.406,17.65
54.421,19.5
54.437,20.58
54.453,20.96
54.468,21.0
54.484,21.2
54.500,22.03
54.515,23.8
54.531,26.63
54.546,30.46
54.562,35.16
54.578,40.61
54.593,46.63
54.609,52.92
54.625,59.08
54.640,64.68
54.656,69.36
54.671,72.92
54.687,75.35
54.703,76.69
54.718,76.91
54.734,75.93
54.750,73.66
54.765,70.13
54.781,65.49
54.796,59.9
54.812,53.34
54.828,45.62
54.843,36.53
54.859,26.04
54.875,14.54
54.890,2.74
54.906,-8.57
54.921,-18.89
54.937,-28.18
54.953,-36.77
54.968,-45.12
54.984,-53.48
55.000,-61.77
55.015,-69.59
55.031,-76.42
55.046,-81.9
55.062,-85.93
55.078,-88.73
55.093,-90.58
55.109,-91.74
55.125,-92.22
55.140,-91.82
55.156,-90.24
55.171,-87.38
55.187,-83.36
55.203,-78.59
55.218,-73.54
55.234,-68.59
55.250,-63.84
55.265,-59.23
55.281,-54.65
55.296,-50.07
55.312,-45.67
55.328,-41.71
55.343,-38.38
55.359,-35.65
55.375,-33.24
55.390,-30.77
55.406,-27.99
55.421,-24.91
55.437,-21.82
55.453,-19.1
55.468,-17.03
55.484,-15.62
55.500,-14.64
55.515,-13.78
55.531,-12.84
55.546,-11.76
55.562,-10.61
55.578,-9.5
55.593,-8.46
55.609,-7.46
55.625,-6.5
55.640,-5.56
55.656,-4.73
55.671,-4.05
55.687,-3.52
55.703,-3.11
55.718,-2.86
55.734,-2.89
55.750,-3.47
55.765,-4.84
55.781,-7.16
55.796,-10.28
55.812,-13.87
55.828,-17.46
55.843,-20.64
55.859,-23.17
55.875,-25.01
55.890,-26.16
55.906,-26.65
55.921,-26.49
55.937,-25.76
55.953,-24.67
55.968,-23.57
55.984,-22.9
56.000,-22.93
56.015,-23.6
56.031,-24.48
56.046,-24.94
56.062,-24.34
56.078,-22.27
56.093,-18.58
56.109,-13.31
56.125,-6.53
56.140,1.6
56.156,10.73
56.171,20.15
56.187,28.74
56.203,35.35
56.218,39.13
56.234,39.84
56.250,37.93
56.265,34.33
56.281,30.04
56.296,25.84
56.312,22.08
56.328,18.82
56.343,15.99
56.359,13.48
56.375,11.23
56.390,9.18
56.406,7.21
56.421,5.23
56.437,3.14
56.453,1.05
56.468,-0.85
56.484,-2.23
56.500,-2.7
56.515,-1.94
56.531,0.23
56.546,3.61
56.562,7.67
56.578,11.6
56.593,14.66
56.609,16.41
56.625,16.86
56.640,16.42
56.656,15.55
56.671,14.56
56.687,13.44
56.703,12.03
56.718,10.22
56.734,8.13
56.750,6.04
56.765,4.25
56.781,2.72
56.796,1.09
56.812,-1.2
56.828,-4.57
56.843,-9.04
56.859,-14.17
56.875,-19.27
56.890,-23.75
56.906,-27.39
56.921,-30.36
56.937,-33.05
56.953,-35.78
56.968,-38.59
56.984,-41.24
57.000,-43.33
57.015,-44.51
57.031,-44.58
57.046,-43.53
57.062,-41.45
57.078,-38.43
57.093,-34.63
57.109,-30.28
57.125,-25.74
57.140,-21.41
57.156,-17.63
57.171,-14.55
57.187,-12.11
57.203,-10.03
57.218,-8.03
57.234,-5.93
57.250,-3.72
57.265,-1.5
57.281,0.6
57.296,2.53
57.312,4.36
57.328,6.23
57.343,8.23
57.359,10.32
57.375,12.34
57.390,14.05
57.406,15.34
57.421,16.29
57.437,17.21
57.453,18.57
57.468,20.85
57.484,24.29
57.500,28.85
57.515,34.12
57.531,39.54
57.546,44.57
57.562,48.78
57.578,51.97
57.593,54.14
57.609,55.36
57.625,55.66
57.640,54.99
57.656,53.23
57.671,50.34
57.687,46.37
57.703,41.6
57.718,36.37
57.734,30.93
57.750,25.39
57.765,19.61
57.781,13.46
57.796,6.92
57.812,0.27
57.828,-6.0
57.843,-11.4
57.859,-15.64
57.875,-18.7
57.890,-20.76
57.906,-21.96
57.921,-22.23
57.937,-21.35
57.953,-19.12
57.968,-15.62
57.984,-11.33
58.000,-7.04
58.015,-3.61
58.031,-1.61
58.046,-1.21
58.062,-2.12
58.078,-3.79
58.093,-5.54
58.109,-6.78
58.125,-7.04
58.140,-6.13
58.156,-4.11
58.171,-1.29
58.187,1.84
58.203,4.75
58.218,6.98
58.234,8.29
58.250,8.7
58.265,8.47
58.281,8.02
58.296,7.76
58.312,7.9
58.328,8.42
58.343,9.05
58.359,9.43
58.375,9.23
58.390,8.27
58.406,6.57
58.421,4.38
58.437,2.04
58.453,-0.13
58.468,-1.89
58.484,-3.15
58.500,-3.95
58.515,-4.41
58.531,-4.75
58.546,-5.12
58.562,-5.6
58.578,-6.12
58.593,-6.6
58.609,-6.98
58.625,-7.31
58.640,-7.73
58.656,-8.39
58.671,-9.35
58.687,-10.53
58.703,-11.74
58.718,-12.79
58.734,-13.53
58.750,-13.87
58.765,-13.8
58.781,-13.36
58.796,-12.6
58.812,-11.68
58.828,-10.85
58.843,-10.44
58.859,-10.75
58.875,-11.87
58.890,-13.65
58.906,-15.66
58.921,-17.38
58.937,-18.35
58.953,-18.26
58.968,-17.0
58.984,-14.62
59.000,-11.36
59.015,-7.48
59.031,-3.38
59.046,0.55
59.062,4.02
59.078,6.94
59.093,9.39
59.109,11.6
59.125,13.75
59.140,15.92
59.156,18.06
59.171,20.06
59.187,21.87
59.203,23.49
59.218,24.91
59.234,26.02
59.250,26.68
59.265,26.8
59.281,26.51
59.296,26.12
59.312,26.02
59.328,26.44
59.343,27.28
59.359,28.14
59.375,28.42
59.390,27.68
59.406,25.73
59.421,22.74
59.437,19.16
59.453,15.47
59.468,12.07
59.484,9.19
59.500,6.91
59.515,5.21
59.531,3.96
59.546,2.99
59.562,2.07
59.578,0.96
59.593,-0.52
59.609,-2.48
59.625,-4.85
59.640,-7.4
59.656,-9.73
59.671,-11.35
59.687,-11.88
59.703,-11.16
59.718,-9.34
59.734,-6.68
59.750,-3.52
59.765,-0.07
59.781,3.54
59.796,7.12
59.812,10.23
59.828,12.21
59.843,12.42
59.859,10.42
59.875,6.25
59.890,0.4
59.906,-6.33
59.921,-13.17
59.937,-19.46
59.953,-24.73
59.968,-28.63
59.984,-30.87
