timestamp,value
00.000,-45.01
00.015,-38.0
00.031,-30.44
00.046,-23.13
00.062,-16.52
00.078,-10.77
00.093,-5.76
00.109,-1.3
00.125,2.83
00.140,6.78
00.156,10.63
00.171,14.38
00.187,17.93
00.203,21.13
00.218,23.84
00.234,25.92
00.250,27.36
00.265,28.16
00.281,28.4
00.296,28.12
00.312,27.41
00.328,26.41
00.343,25.34
00.359,24.46
00.375,23.99
00.390,24.02
00.406,24.47
00.421,25.11
00.437,25.69
00.453,26.03
00.468,26.01
00.484,25.6
00.500,24.73
00.515,23.32
00.531,21.29
00.546,18.6
00.562,15.36
00.578,11.8
00.593,8.22
00.609,4.87
00.625,1.92
00.640,-0.6
00.656,-2.8
00.671,-4.8
00.687,-6.73
00.703,-8.64
00.718,-10.55
00.734,-12.49
00.750,-14.5
00.765,-16.66
00.781,-19.0
00.796,-21.52
00.812,-24.16
00.828,-26.87
00.843,-29.68
00.859,-32.77
00.875,-36.36
00.890,-40.6
00.906,-45.35
00.921,-50.11
00.937,-54.07
00.953,-56.33
00.968,-56.25
00.984,-53.67
01.000,-48.92
01.015,-42.69
01.031,-35.76
01.046,-28.78
01.062,-22.11
01.078,-15.86
01.093,-9.99
01.109,-4.39
01.125,1.03
01.140,6.27
01.156,11.33
01.171,16.15
01.187,20.62
01.203,24.57
01.218,27.82
01.234,30.2
01.250,31.62
01.265,32.12
01.281,31.87
01.296,31.08
01.312,30.04
01.328,28.94
01.343,27.93
01.359,27.05
01.375,26.28
01.390,25.62
01.406,25.04
01.421,24.48
01.437,23.87
01.453,23.12
01.468,22.15
01.484,20.86
01.500,19.26
01.515,17.38
01.531,15.3
01.546,13.13
01.562,10.98
01.578,9.0
01.593,7.24
01.609,5.73
01.625,4.42
01.640,3.18
01.656,1.9
01.671,0.44
01.687,-1.3
01.703,-3.41
01.718,-5.9
01.734,-8.77
01.750,-11.93
01.765,-15.24
01.781,-18.56
01.796,-21.79
01.812,-24.93
01.828,-28.05
01.843,-31.33
01.859,-34.93
01.875,-38.99
01.890,-43.5
01.906,-48.23
01.921,-52.68
01.937,-56.15
01.953,-57.88
01.968,-57.32
01.984,-54.31
02.000,-49.13
02.015,-42.49
02.031,-35.2
02.046,-27.95
02.062,-21.15
02.078,-14.94
02.093,-9.31
02.109,-4.15
02.125,0.57
02.140,4.93
02.156,9.03
02.171,12.97
02.187,16.76
02.203,20.3
02.218,23.31
02.234,25.46
02.250,26.49
02.265,26.38
02.281,25.39
02.296,23.9
02.312,22.36
02.328,21.14
02.343,20.39
02.359,20.16
02.375,20.32
02.390,20.72
02.406,21.15
02.421,21.44
02.437,21.45
02.453,21.1
02.468,20.42
02.484,19.47
02.500,18.37
02.515,17.26
02.531,16.15
02.546,15.01
02.562,13.71
02.578,12.12
02.593,10.14
02.609,7.81
02.625,5.22
02.640,2.48
02.656,-0.35
02.671,-3.31
02.687,-6.49
02.703,-9.92
02.718,-13.5
02.734,-17.07
02.750,-20.4
02.765,-23.42
02.781,-26.23
02.796,-29.13
02.812,-32.48
02.828,-36.57
02.843,-41.47
02.859,-46.98
02.875,-52.51
02.890,-57.27
02.906,-60.37
02.921,-61.09
02.937,-59.06
02.953,-54.36
02.968,-47.5
02.984,-39.25
03.000,-30.46
03.015,-21.83
03.031,-13.85
03.046,-6.76
03.062,-0.59
03.078,4.8
03.093,9.66
03.109,14.32
03.125,19.01
03.140,23.77
03.156,28.43
03.171,32.6
03.187,35.87
03.203,37.92
03.218,38.69
03.234,38.37
03.250,37.33
03.265,36.01
03.281,34.78
03.296,33.88
03.312,33.38
03.328,33.21
03.343,33.16
03.359,33.03
03.375,32.64
03.390,31.92
03.406,30.91
03.421,29.72
03.437,28.41
03.453,26.97
03.468,25.3
03.484,23.31
03.500,20.99
03.515,18.39
03.531,15.67
03.546,12.97
03.562,10.35
03.578,7.82
03.593,5.29
03.609,2.67
03.625,-0.12
03.640,-3.12
03.656,-6.37
03.671,-9.85
03.687,-13.48
03.703,-17.17
03.718,-20.8
03.734,-24.29
03.750,-27.64
03.765,-30.93
03.781,-34.36
03.796,-38.23
03.812,-42.85
03.828,-48.38
03.843,-54.7
03.859,-61.27
03.875,-67.1
03.890,-71.0
03.906,-71.91
03.921,-69.3
03.937,-63.37
03.953,-55.0
03.968,-45.39
03.984,-35.64
04.000,-26.48
04.015,-18.18
04.031,-10.77
04.046,-4.18
04.062,1.68
04.078,6.91
04.093,11.76
04.109,16.54
04.125,21.54
04.140,26.78
04.156,31.92
04.171,36.38
04.187,39.56
04.203,41.16
04.218,41.29
04.234,40.4
04.250,39.14
04.265,38.09
04.281,37.58
04.296,37.74
04.312,38.41
04.328,39.33
04.343,40.15
04.359,40.63
04.375,40.66
04.390,40.24
04.406,39.48
04.421,38.47
04.437,37.24
04.453,35.76
04.468,33.96
04.484,31.86
04.500,29.47
04.515,26.9
04.531,24.2
04.546,21.37
04.562,18.34
04.578,15.07
04.593,11.58
04.609,7.94
04.625,4.22
04.640,0.51
04.656,-3.21
04.671,-6.99
04.687,-10.9
04.703,-14.91
04.718,-18.98
04.734,-23.0
04.750,-26.93
04.765,-30.79
04.781,-34.79
04.796,-39.19
04.812,-44.25
04.828,-49.98
04.843,-56.07
04.859,-61.83
04.875,-66.3
04.890,-68.52
04.906,-67.85
04.921,-64.14
04.937,-57.74
04.953,-49.41
04.968,-40.02
04.984,-30.32
05.000,-20.89
05.015,-12.11
05.031,-4.18
05.046,2.82
05.062,8.9
05.078,14.24
05.093,19.1
05.109,23.72
05.125,28.19
05.140,32.41
05.156,36.12
05.171,39.03
05.187,40.99
05.203,42.02
05.218,42.36
05.234,42.31
05.250,42.11
05.265,41.9
05.281,41.72
05.296,41.58
05.312,41.44
05.328,41.31
05.343,41.2
05.359,41.02
05.375,40.69
05.390,40.06
05.406,39.0
05.421,37.45
05.437,35.46
05.453,33.09
05.468,30.43
05.484,27.56
05.500,24.49
05.515,21.26
05.531,17.86
05.546,14.38
05.562,10.93
05.578,7.62
05.593,4.51
05.609,1.53
05.625,-1.5
05.640,-4.77
05.656,-8.37
05.671,-12.26
05.687,-16.16
05.703,-19.8
05.718,-22.96
05.734,-25.73
05.750,-28.44
05.765,-31.62
05.781,-35.69
05.796,-40.82
05.812,-46.79
05.828,-52.97
05.843,-58.54
05.859,-62.59
05.875,-64.38
05.890,-63.4
05.906,-59.48
05.921,-52.83
05.937,-44.02
05.953,-33.96
05.968,-23.64
05.984,-14.0
06.000,-5.66
06.015,1.21
06.031,6.82
06.046,11.61
06.062,16.01
06.078,20.3
06.093,24.47
06.109,28.33
06.125,31.59
06.140,34.0
06.156,35.43
06.171,35.89
06.187,35.52
06.203,34.55
06.218,33.3
06.234,32.08
06.250,31.19
06.265,30.77
06.281,30.87
06.296,31.39
06.312,32.11
06.328,32.74
06.343,32.99
06.359,32.66
06.375,31.68
06.390,30.15
06.406,28.27
06.421,26.26
06.437,24.21
06.453,22.07
06.468,19.63
06.484,16.7
06.500,13.18
06.515,9.18
06.531,5.0
06.546,0.95
06.562,-2.75
06.578,-6.08
06.593,-9.18
06.609,-12.28
06.625,-15.55
06.640,-19.01
06.656,-22.59
06.671,-26.17
06.687,-29.68
06.703,-33.17
06.718,-36.75
06.734,-40.62
06.750,-44.96
06.765,-49.88
06.781,-55.37
06.796,-61.12
06.812,-66.53
06.828,-70.7
06.843,-72.68
06.859,-71.74
06.875,-67.67
06.890,-60.87
06.906,-52.25
06.921,-42.91
06.937,-33.81
06.953,-25.45
06.968,-17.92
06.984,-11.02
07.000,-4.49
07.015,1.84
07.031,8.0
07.046,13.93
07.062,19.49
07.078,24.56
07.093,28.95
07.109,32.47
07.125,34.98
07.140,36.43
07.156,36.96
07.171,36.9
07.187,36.72
07.203,36.86
07.218,37.63
07.234,39.06
07.250,40.9
07.265,42.73
07.281,44.1
07.296,44.64
07.312,44.22
07.328,42.92
07.343,41.02
07.359,38.84
07.375,36.66
07.390,34.62
07.406,32.69
07.421,30.76
07.437,28.68
07.453,26.3
07.468,23.59
07.484,20.59
07.500,17.38
07.515,13.97
07.531,10.35
07.546,6.4
07.562,2.06
07.578,-2.62
07.593,-7.46
07.609,-12.18
07.625,-16.53
07.640,-20.37
07.656,-23.76
07.671,-26.93
07.687,-30.2
07.703,-33.94
07.718,-38.41
07.734,-43.74
07.750,-49.78
07.765,-56.06
07.781,-61.77
07.796,-65.92
07.812,-67.6
07.828,-66.19
07.843,-61.66
07.859,-54.5
07.875,-45.63
07.890,-36.04
07.906,-26.57
07.921,-17.76
07.937,-9.76
07.953,-2.53
07.968,4.11
07.984,10.34
08.000,16.29
08.015,22.0
08.031,27.39
08.046,32.34
08.062,36.64
08.078,40.08
08.093,42.5
08.109,43.83
08.125,44.15
08.140,43.67
08.156,42.65
08.171,41.4
08.187,40.17
08.203,39.16
08.218,38.49
08.234,38.2
08.250,38.14
08.265,38.08
08.281,37.74
08.296,36.89
08.312,35.44
08.328,33.5
08.343,31.29
08.359,29.03
08.375,26.81
08.390,24.59
08.406,22.21
08.421,19.59
08.437,16.7
08.453,13.69
08.468,10.69
08.484,7.85
08.500,5.18
08.515,2.61
08.531,0.02
08.546,-2.74
08.562,-5.76
08.578,-9.1
08.593,-12.79
08.609,-16.8
08.625,-21.09
08.640,-25.55
08.656,-30.04
08.671,-34.46
08.687,-38.79
08.703,-43.16
08.718,-47.77
08.734,-52.8
08.750,-58.2
08.765,-63.58
08.781,-68.19
08.796,-71.11
08.812,-71.5
08.828,-68.91
08.843,-63.46
08.859,-55.74
08.875,-46.64
08.890,-37.04
08.906,-27.65
08.921,-18.9
08.937,-10.99
08.953,-3.98
08.968,2.26
08.984,7.94
09.000,13.35
09.015,18.74
09.031,24.23
09.046,29.66
09.062,34.65
09.078,38.75
09.093,41.61
09.109,43.1
09.125,43.31
09.140,42.55
09.156,41.12
09.171,39.37
09.187,37.62
09.203,36.18
09.218,35.27
09.234,34.98
09.250,35.16
09.265,35.44
09.281,35.37
09.296,34.62
09.312,33.08
09.328,30.98
09.343,28.65
09.359,26.38
09.375,24.25
09.390,22.07
09.406,19.54
09.421,16.46
09.437,12.88
09.453,9.09
09.468,5.46
09.484,2.31
09.500,-0.29
09.515,-2.48
09.531,-4.54
09.546,-6.68
09.562,-9.01
09.578,-11.49
09.593,-14.07
09.609,-16.71
09.625,-19.4
09.640,-22.21
09.656,-25.2
09.671,-28.45
09.687,-32.07
09.703,-36.18
09.718,-40.91
09.734,-46.17
09.750,-51.63
09.765,-56.61
09.781,-60.22
09.796,-61.55
09.812,-60.01
09.828,-55.45
09.843,-48.29
09.859,-39.33
09.875,-29.58
09.890,-20.0
09.906,-11.31
09.921,-3.86
09.937,2.32
09.953,7.51
09.968,12.14
09.984,16.62
10.000,21.18
10.015,25.78
10.031,30.11
10.046,33.75
10.062,36.35
10.078,37.75
10.093,38.04
10.109,37.52
10.125,36.52
10.140,35.38
10.156,34.32
10.171,33.48
10.187,32.91
10.203,32.59
10.218,32.43
10.234,32.27
10.250,31.93
10.265,31.29
10.281,30.33
10.296,29.14
10.312,27.86
10.328,26.68
10.343,25.64
10.359,24.7
10.375,23.66
10.390,22.21
10.406,20.12
10.421,17.28
10.437,13.87
10.453,10.21
10.468,6.77
10.484,3.91
10.500,1.76
10.515,0.19
10.531,-1.16
10.546,-2.73
10.562,-4.86
10.578,-7.65
10.593,-10.94
10.609,-14.42
10.625,-17.81
10.640,-20.97
10.656,-23.95
10.671,-26.98
10.687,-30.37
10.703,-34.35
10.718,-38.97
10.734,-43.99
10.750,-48.87
10.765,-52.85
10.781,-55.08
10.796,-54.9
10.812,-52.05
10.828,-46.74
10.843,-39.68
10.859,-31.76
10.875,-23.82
10.890,-16.44
10.906,-9.88
10.921,-4.16
10.937,0.82
10.953,5.16
10.968,9.01
10.984,12.49
11.000,15.8
11.015,19.06
11.031,22.3
11.046,25.32
11.062,27.86
11.078,29.61
11.093,30.41
11.109,30.32
11.125,29.65
11.140,28.79
11.156,28.11
11.171,27.86
11.187,28.06
11.203,28.55
11.218,29.08
11.234,29.37
11.250,29.27
11.265,28.71
11.281,27.74
11.296,26.44
11.312,24.85
11.328,23.02
11.343,20.98
11.359,18.81
11.375,16.6
11.390,14.45
11.406,12.38
11.421,10.32
11.437,8.17
11.453,5.82
11.468,3.27
11.484,0.61
11.500,-2.06
11.515,-4.66
11.531,-7.21
11.546,-9.76
11.562,-12.34
11.578,-14.94
11.593,-17.45
11.609,-19.83
11.625,-22.13
11.640,-24.54
11.656,-27.31
11.671,-30.64
11.687,-34.55
11.703,-38.71
11.718,-42.57
11.734,-45.37
11.750,-46.47
11.765,-45.42
11.781,-42.16
11.796,-37.06
11.812,-30.76
11.828,-23.99
11.843,-17.37
11.859,-11.32
11.875,-6.02
11.890,-1.5
11.906,2.3
11.921,5.44
11.937,8.05
11.953,10.25
11.968,12.19
11.984,14.0
12.000,15.66
12.015,17.07
12.031,18.04
12.046,18.4
12.062,18.16
12.078,17.51
12.093,16.8
12.109,16.44
12.125,16.71
12.140,17.66
12.156,19.13
12.171,20.74
12.187,22.12
12.203,23.01
12.218,23.3
12.234,23.07
12.250,22.49
12.265,21.7
12.281,20.79
12.296,19.76
12.312,18.53
12.328,17.04
12.343,15.27
12.359,13.27
12.375,11.18
12.390,9.11
12.406,7.13
12.421,5.18
12.437,3.14
12.453,0.87
12.468,-1.69
12.484,-4.49
12.500,-7.38
12.515,-10.18
12.531,-12.79
12.546,-15.26
12.562,-17.68
12.578,-20.25
12.593,-23.08
12.609,-26.24
12.625,-29.76
12.640,-33.6
12.656,-37.64
12.671,-41.63
12.687,-45.11
12.703,-47.42
12.718,-47.93
12.734,-46.2
12.750,-42.22
12.765,-36.41
12.781,-29.59
12.796,-22.63
12.812,-16.24
12.828,-10.78
12.843,-6.22
12.859,-2.37
12.875,1.05
12.890,4.27
12.906,7.39
12.921,10.49
12.937,13.59
12.953,16.67
12.968,19.62
12.984,22.23
13.000,24.18
13.015,25.23
13.031,25.27
13.046,24.42
13.062,23.05
13.078,21.64
13.093,20.63
13.109,20.22
13.125,20.38
13.140,20.79
13.156,21.11
13.171,21.03
13.187,20.43
13.203,19.35
13.218,17.97
13.234,16.46
13.250,14.91
13.265,13.35
13.281,11.71
13.296,9.93
13.312,7.99
13.328,5.91
13.343,3.74
13.359,1.56
13.375,-0.5
13.390,-2.37
13.406,-3.96
13.421,-5.34
13.437,-6.63
13.453,-8.01
13.468,-9.67
13.484,-11.68
13.500,-14.0
13.515,-16.52
13.531,-19.12
13.546,-21.75
13.562,-24.44
13.578,-27.29
13.593,-30.33
13.609,-33.6
13.625,-37.04
13.640,-40.6
13.656,-44.12
13.671,-47.36
13.687,-49.86
13.703,-51.1
13.718,-50.55
13.734,-47.95
13.750,-43.41
13.765,-37.47
13.781,-30.88
13.796,-24.38
13.812,-18.51
13.828,-13.46
13.843,-9.24
13.859,-5.72
13.875,-2.76
13.890,-0.24
13.906,2.0
13.921,4.17
13.937,6.43
13.953,8.87
13.968,11.38
13.984,13.7
14.000,15.53
14.015,16.63
14.031,16.97
14.046,16.73
14.062,16.2
14.078,15.64
14.093,15.27
14.109,15.15
14.125,15.25
14.140,15.5
14.156,15.8
14.171,16.03
14.187,16.12
14.203,16.06
14.218,15.89
14.234,15.68
14.250,15.47
14.265,15.25
14.281,14.93
14.296,14.44
14.312,13.74
14.328,12.89
14.343,11.94
14.359,10.95
14.375,9.84
14.390,8.47
14.406,6.69
14.421,4.45
14.437,1.83
14.453,-0.96
14.468,-3.7
14.484,-6.3
14.500,-8.83
14.515,-11.41
14.531,-14.18
14.546,-17.18
14.562,-20.29
14.578,-23.34
14.593,-26.17
14.609,-28.73
14.625,-31.13
14.640,-33.59
14.656,-36.36
14.671,-39.64
14.687,-43.42
14.703,-47.51
14.718,-51.45
14.734,-54.67
14.750,-56.54
14.765,-56.55
14.781,-54.45
14.796,-50.3
14.812,-44.51
14.828,-37.67
14.843,-30.46
14.859,-23.5
14.875,-17.21
14.890,-11.82
14.906,-7.29
14.921,-3.47
14.937,-0.12
14.953,2.99
14.968,6.06
14.984,9.19
15.000,12.31
15.015,15.23
15.031,17.64
15.046,19.24
15.062,19.88
15.078,19.64
15.093,18.85
15.109,17.98
15.125,17.45
15.140,17.47
15.156,18.04
15.171,18.95
15.187,19.97
15.203,20.93
15.218,21.72
15.234,22.32
15.250,22.66
15.265,22.68
15.281,22.32
15.296,21.64
15.312,20.7
15.328,19.65
15.343,18.6
15.359,17.54
15.375,16.44
15.390,15.23
15.406,13.88
15.421,12.41
15.437,10.91
15.453,9.41
15.468,7.9
15.484,6.33
15.500,4.66
15.515,2.85
15.531,0.88
15.546,-1.23
15.562,-3.51
15.578,-5.99
15.593,-8.69
15.609,-11.58
15.625,-14.52
15.640,-17.37
15.656,-20.0
15.671,-22.33
15.687,-24.44
15.703,-26.51
15.718,-28.81
15.734,-31.57
15.750,-34.95
15.765,-39.0
15.781,-43.65
15.796,-48.65
15.812,-53.63
15.828,-58.05
15.843,-61.3
15.859,-62.77
15.875,-62.05
15.890,-58.96
15.906,-53.77
15.921,-47.01
15.937,-39.44
15.953,-31.79
15.968,-24.57
15.984,-18.01
16.000,-12.11
16.015,-6.69
16.031,-1.6
16.046,3.24
16.062,7.84
16.078,12.15
16.093,16.13
16.109,19.67
16.125,22.62
16.140,24.8
16.156,26.1
16.171,26.53
16.187,26.29
16.203,25.78
16.218,25.41
16.234,25.54
16.250,26.26
16.265,27.46
16.281,28.84
16.296,30.12
16.312,31.1
16.328,31.69
16.343,31.94
16.359,31.91
16.375,31.64
16.390,31.17
16.406,30.45
16.421,29.46
16.437,28.22
16.453,26.79
16.468,25.29
16.484,23.81
16.500,22.4
16.515,20.99
16.531,19.45
16.546,17.62
16.562,15.41
16.578,12.88
16.593,10.18
16.609,7.52
16.625,5.03
16.640,2.67
16.656,0.32
16.671,-2.18
16.687,-4.87
16.703,-7.69
16.718,-10.51
16.734,-13.23
16.750,-15.8
16.765,-18.28
16.781,-20.75
16.796,-23.29
16.812,-26.0
16.828,-28.99
16.843,-32.43
16.859,-36.5
16.875,-41.29
16.890,-46.67
16.906,-52.18
16.921,-57.15
16.937,-60.71
16.953,-62.15
16.968,-61.0
16.984,-57.21
17.000,-51.12
17.015,-43.39
17.031,-34.79
17.046,-26.07
17.062,-17.85
17.078,-10.52
17.093,-4.23
17.109,1.06
17.125,5.56
17.140,9.59
17.156,13.38
17.171,17.03
17.187,20.43
17.203,23.34
17.218,25.49
17.234,26.75
17.250,27.17
17.265,26.97
17.281,26.46
17.296,25.96
17.312,25.74
17.328,26.02
17.343,26.88
17.359,28.31
17.375,30.15
17.390,32.09
17.406,33.82
17.421,35.09
17.437,35.78
17.453,35.9
17.468,35.51
17.484,34.69
17.500,33.49
17.515,31.99
17.531,30.29
17.546,28.49
17.562,26.65
17.578,24.75
17.593,22.73
17.609,20.52
17.625,18.16
17.640,15.73
17.656,13.36
17.671,11.14
17.687,8.99
17.703,6.73
17.718,4.14
17.734,1.08
17.750,-2.52
17.765,-6.54
17.781,-10.8
17.796,-15.13
17.812,-19.36
17.828,-23.42
17.843,-27.29
17.859,-31.08
17.875,-34.98
17.890,-39.26
17.906,-44.16
17.921,-49.8
17.937,-56.02
17.953,-62.27
17.968,-67.67
17.984,-71.16
18.000,-71.83
18.015,-69.2
18.031,-63.36
18.046,-55.0
18.062,-45.16
18.078,-34.89
18.093,-25.03
18.109,-16.09
18.125,-8.24
18.140,-1.41
18.156,4.57
18.171,9.94
18.187,14.94
18.203,19.83
18.218,24.75
18.234,29.69
18.250,34.43
18.265,38.57
18.281,41.7
18.296,43.52
18.312,44.02
18.328,43.52
18.343,42.52
18.359,41.55
18.375,40.94
18.390,40.8
18.406,41.03
18.421,41.46
18.437,41.93
18.453,42.34
18.468,42.63
18.484,42.75
18.500,42.66
18.515,42.24
18.531,41.46
18.546,40.29
18.562,38.77
18.578,36.94
18.593,34.91
18.609,32.77
18.625,30.57
18.640,28.3
18.656,25.93
18.671,23.33
18.687,20.45
18.703,17.29
18.718,13.96
18.734,10.6
18.750,7.36
18.765,4.23
18.781,1.11
18.796,-2.15
18.812,-5.7
18.828,-9.52
18.843,-13.5
18.859,-17.47
18.875,-21.25
18.890,-24.79
18.906,-28.16
18.921,-31.55
18.937,-35.22
18.953,-39.43
18.968,-44.4
18.984,-50.22
19.000,-56.74
19.015,-63.55
19.031,-69.91
19.046,-74.93
19.062,-77.72
19.078,-77.64
19.093,-74.43
19.109,-68.28
19.125,-59.75
19.140,-49.67
19.156,-38.9
19.171,-28.25
19.187,-18.36
19.203,-9.64
19.218,-2.2
19.234,4.15
19.250,9.85
19.265,15.4
19.281,21.17
19.296,27.23
19.312,33.23
19.328,38.59
19.343,42.7
19.359,45.2
19.375,46.13
19.390,45.9
19.406,45.07
19.421,44.12
19.437,43.37
19.453,42.93
19.468,42.86
19.484,43.13
19.500,43.65
19.515,44.2
19.531,44.42
19.546,43.97
19.562,42.62
19.578,40.47
19.593,37.86
19.609,35.22
19.625,32.91
19.640,31.04
19.656,29.53
19.671,28.16
19.687,26.78
19.703,25.26
19.718,23.54
19.734,21.61
19.750,19.38
19.765,16.85
19.781,14.0
19.796,10.88
19.812,7.61
19.828,4.26
19.843,0.91
19.859,-2.46
19.875,-5.9
19.890,-9.47
19.906,-13.19
19.921,-17.01
19.937,-20.81
19.953,-24.47
19.968,-27.91
19.984,-31.19
20.000,-34.51
20.015,-38.18
20.031,-42.47
20.046,-47.5
20.062,-53.1
20.078,-58.73
20.093,-63.59
20.109,-66.76
20.125,-67.46
20.140,-65.26
20.156,-60.2
20.171,-52.78
20.187,-43.81
20.203,-34.13
20.218,-24.49
20.234,-15.41
20.250,-7.13
20.265,0.29
20.281,6.91
20.296,12.89
20.312,18.38
20.328,23.5
20.343,28.35
20.359,32.89
20.375,36.95
20.390,40.26
20.406,42.59
20.421,43.74
20.437,43.79
20.453,43.01
20.468,41.81
20.484,40.6
20.500,39.66
20.515,39.08
20.531,38.83
20.546,38.82
20.562,38.94
20.578,39.11
20.593,39.19
20.609,39.04
20.625,38.5
20.640,37.52
20.656,36.17
20.671,34.6
20.687,33.0
20.703,31.44
20.718,29.92
20.734,28.28
20.750,26.44
20.765,24.33
20.781,21.98
20.796,19.45
20.812,16.86
20.828,14.24
20.843,11.59
20.859,8.83
20.875,5.89
20.890,2.71
20.906,-0.74
20.921,-4.4
20.937,-8.2
20.953,-12.02
20.968,-15.76
20.984,-19.35
21.000,-22.75
21.015,-25.95
21.031,-28.99
21.046,-31.98
21.062,-35.09
21.078,-38.59
21.093,-42.65
21.109,-47.29
21.125,-52.24
21.140,-56.87
21.156,-60.31
21.171,-61.71
21.187,-60.51
21.203,-56.63
21.218,-50.53
21.234,-42.94
21.250,-34.69
21.265,-26.41
21.281,-18.46
21.296,-11.0
21.312,-4.1
21.328,2.14
21.343,7.66
21.359,12.45
21.375,16.67
21.390,20.54
21.406,24.26
21.421,27.86
21.437,31.1
21.453,33.66
21.468,35.2
21.484,35.59
21.500,35.01
21.515,33.82
21.531,32.43
21.546,31.24
21.562,30.49
21.578,30.25
21.593,30.45
21.609,30.92
21.625,31.47
21.640,31.9
21.656,32.04
21.671,31.79
21.687,31.13
21.703,30.07
21.718,28.69
21.734,27.11
21.750,25.42
21.765,23.68
21.781,21.85
21.796,19.86
21.812,17.57
21.828,14.93
21.843,12.01
21.859,9.0
21.875,6.13
21.890,3.51
21.906,1.1
21.921,-1.32
21.937,-3.95
21.953,-6.86
21.968,-9.84
21.984,-12.62
22.000,-14.97
22.015,-16.91
22.031,-18.7
22.046,-20.76
22.062,-23.41
22.078,-26.81
22.093,-30.98
22.109,-35.79
22.125,-41.06
22.140,-46.42
22.156,-51.31
22.171,-54.92
22.187,-56.46
22.203,-55.3
22.218,-51.39
22.234,-45.16
22.250,-37.47
22.265,-29.24
22.281,-21.13
22.296,-13.53
22.312,-6.5
22.328,-0.04
22.343,5.89
22.359,11.24
22.375,15.97
22.390,20.08
22.406,23.61
22.421,26.61
22.437,29.06
22.453,30.86
22.468,31.86
22.484,32.02
22.500,31.38
22.515,30.2
22.531,28.81
22.546,27.55
22.562,26.65
22.578,26.2
22.593,26.16
22.609,26.41
22.625,26.79
22.640,27.18
22.656,27.44
22.671,27.46
22.687,27.16
22.703,26.49
22.718,25.48
22.734,24.19
22.750,22.67
22.765,20.94
22.781,18.97
22.796,16.72
22.812,14.2
22.828,11.52
22.843,8.81
22.859,6.22
22.875,3.81
22.890,1.55
22.906,-0.64
22.921,-2.88
22.937,-5.25
22.953,-7.73
22.968,-10.27
22.984,-12.8
23.000,-15.26
23.015,-17.66
23.031,-20.06
23.046,-22.56
23.062,-25.24
23.078,-28.18
23.093,-31.43
23.109,-35.0
23.125,-38.97
23.140,-43.35
23.156,-48.03
23.171,-52.62
23.187,-56.49
23.203,-58.78
23.218,-58.77
23.234,-56.06
23.250,-50.82
23.265,-43.71
23.281,-35.69
23.296,-27.7
23.312,-20.4
23.328,-14.09
23.343,-8.77
23.359,-4.22
23.375,-0.21
23.390,3.52
23.406,7.18
23.421,10.93
23.437,14.83
23.453,18.8
23.468,22.61
23.484,25.88
23.500,28.32
23.515,29.73
23.531,30.15
23.546,29.85
23.562,29.21
23.578,28.59
23.593,28.22
23.609,28.14
23.625,28.26
23.640,28.42
23.656,28.47
23.671,28.38
23.687,28.18
23.703,27.89
23.718,27.52
23.734,27.02
23.750,26.31
23.765,25.34
23.781,24.11
23.796,22.66
23.812,21.05
23.828,19.35
23.843,17.61
23.859,15.85
23.875,14.09
23.890,12.3
23.906,10.48
23.921,8.6
23.937,6.69
23.953,4.78
23.968,2.9
23.984,1.06
24.000,-0.87
24.015,-3.04
24.031,-5.63
24.046,-8.67
24.062,-12.06
24.078,-15.51
24.093,-18.79
24.109,-21.74
24.125,-24.41
24.140,-27.01
24.156,-29.8
24.171,-32.96
24.187,-36.57
24.203,-40.55
24.218,-44.74
24.234,-48.79
24.250,-52.22
24.265,-54.45
24.281,-54.91
24.296,-53.26
24.312,-49.51
24.328,-44.06
24.343,-37.58
24.359,-30.77
24.375,-24.22
24.390,-18.28
24.406,-13.06
24.421,-8.52
24.437,-4.52
24.453,-0.85
24.468,2.7
24.484,6.3
24.500,10.0
24.515,13.72
24.531,17.24
24.546,20.26
24.562,22.49
24.578,23.78
24.593,24.18
24.609,23.93
24.625,23.33
24.640,22.74
24.656,22.38
24.671,22.42
24.687,22.86
24.703,23.59
24.718,24.47
24.734,25.29
24.750,25.85
24.765,26.02
24.781,25.74
24.796,25.05
24.812,24.04
24.828,22.85
24.843,21.58
24.859,20.32
24.875,19.04
24.890,17.68
24.906,16.17
24.921,14.43
24.937,12.49
24.953,10.42
24.968,8.34
24.984,6.37
25.000,4.55
25.015,2.82
25.031,1.03
25.046,-0.92
25.062,-3.09
25.078,-5.42
25.093,-7.79
25.109,-10.07
25.125,-12.21
25.140,-14.23
25.156,-16.23
25.171,-18.31
25.187,-20.55
25.203,-23.04
25.218,-25.88
25.234,-29.22
25.250,-33.21
25.265,-37.83
25.281,-42.77
25.296,-47.46
25.312,-51.13
25.328,-53.03
25.343,-52.68
25.359,-50.01
25.375,-45.38
25.390,-39.48
25.406,-33.1
25.421,-26.95
25.437,-21.47
25.453,-16.82
25.468,-12.86
25.484,-9.29
25.500,-5.82
25.515,-2.21
25.531,1.57
25.546,5.44
25.562,9.22
25.578,12.75
25.593,15.89
25.609,18.52
25.625,20.56
25.640,21.9
25.656,22.52
25.671,22.51
25.687,22.08
25.703,21.53
25.718,21.11
25.734,20.98
25.750,21.19
25.765,21.59
25.781,22.0
25.796,22.19
25.812,22.03
25.828,21.44
25.843,20.5
25.859,19.35
25.875,18.17
25.890,17.06
25.906,16.05
25.921,15.02
25.937,13.88
25.953,12.6
25.968,11.22
25.984,9.86
26.000,8.58
26.015,7.36
26.031,6.08
26.046,4.61
26.062,2.85
26.078,0.8
26.093,-1.49
26.109,-3.94
26.125,-6.46
26.140,-8.98
26.156,-11.46
26.171,-13.84
26.187,-16.1
26.203,-18.32
26.218,-20.64
26.234,-23.28
26.250,-26.44
26.265,-30.23
26.281,-34.58
26.296,-39.18
26.312,-43.5
26.328,-46.84
26.343,-48.48
26.359,-47.97
26.375,-45.2
26.390,-40.53
26.406,-34.65
26.421,-28.38
26.437,-22.35
26.453,-16.89
26.468,-12.08
26.484,-7.79
26.500,-3.9
26.515,-0.31
26.531,3.0
26.546,6.02
26.562,8.75
26.578,11.15
26.593,13.14
26.609,14.61
26.625,15.47
26.640,15.69
26.656,15.37
26.671,14.71
26.687,13.96
26.703,13.39
26.718,13.2
26.734,13.49
26.750,14.27
26.765,15.43
26.781,16.73
26.796,17.93
26.812,18.77
26.828,19.1
26.843,18.9
26.859,18.28
26.875,17.43
26.890,16.5
26.906,15.58
26.921,14.59
26.937,13.41
26.953,11.93
26.968,10.17
26.984,8.25
27.000,6.35
27.015,4.56
27.031,2.83
27.046,1.03
27.062,-1.08
27.078,-3.63
27.093,-6.65
27.109,-10.01
27.125,-13.51
27.140,-16.93
27.156,-20.06
27.171,-22.87
27.187,-25.44
27.203,-27.97
27.218,-30.77
27.234,-34.08
27.250,-38.03
27.265,-42.53
27.281,-47.26
27.296,-51.64
27.312,-54.99
27.328,-56.65
27.343,-56.13
27.359,-53.32
27.375,-48.46
27.390,-42.17
27.406,-35.16
27.421,-28.13
27.437,-21.57
27.453,-15.67
27.468,-10.44
27.484,-5.75
27.500,-1.45
27.515,2.64
27.531,6.63
27.546,10.62
27.562,14.55
27.578,18.33
27.593,21.68
27.609,24.4
27.625,26.32
27.640,27.44
27.656,27.94
27.671,28.02
27.687,27.92
27.703,27.79
27.718,27.74
27.734,27.84
27.750,28.18
27.765,28.82
27.781,29.71
27.796,30.66
27.812,31.33
27.828,31.35
27.843,30.52
27.859,28.91
27.875,26.8
27.890,24.61
27.906,22.63
27.921,20.96
27.937,19.45
27.953,17.91
27.968,16.2
27.984,14.33
28.000,12.39
28.015,10.45
28.031,8.45
28.046,6.24
28.062,3.63
28.078,0.56
28.093,-2.88
28.109,-6.53
28.125,-10.19
28.140,-13.74
28.156,-17.17
28.171,-20.51
28.187,-23.8
28.203,-27.07
28.218,-30.37
28.234,-33.84
28.250,-37.72
28.265,-42.18
28.281,-47.2
28.296,-52.48
28.312,-57.33
28.328,-60.88
28.343,-62.35
28.359,-61.25
28.375,-57.58
28.390,-51.82
28.406,-44.79
28.421,-37.34
28.437,-30.15
28.453,-23.56
28.468,-17.6
28.484,-12.12
28.500,-6.9
28.515,-1.78
28.531,3.33
28.546,8.5
28.562,13.75
28.578,19.03
28.593,24.21
28.609,29.03
28.625,33.18
28.640,36.36
28.656,38.44
28.671,39.48
28.687,39.73
28.703,39.53
28.718,39.18
28.734,38.89
28.750,38.77
28.765,38.8
28.781,38.93
28.796,39.04
28.812,38.97
28.828,38.59
28.843,37.84
28.859,36.72
28.875,35.35
28.890,33.89
28.906,32.47
28.921,31.1
28.937,29.75
28.953,28.28
28.968,26.56
28.984,24.51
29.000,22.11
29.015,19.38
29.031,16.37
29.046,13.15
29.062,9.81
29.078,6.42
29.093,3.03
29.109,-0.35
29.125,-3.77
29.140,-7.29
29.156,-10.98
29.171,-14.81
29.187,-18.71
29.203,-22.56
29.218,-26.23
29.234,-29.62
29.250,-32.74
29.265,-35.69
29.281,-38.78
29.296,-42.34
29.312,-46.66
29.328,-51.71
29.343,-57.06
29.359,-61.88
29.375,-65.11
29.390,-65.86
29.406,-63.65
29.421,-58.6
29.437,-51.38
29.453,-42.91
29.468,-34.05
29.484,-25.46
29.500,-17.43
29.515,-10.02
29.531,-3.15
29.546,3.27
29.562,9.33
29.578,15.02
29.593,20.27
29.609,25.03
29.625,29.24
29.640,32.85
29.656,35.8
29.671,38.03
29.687,39.48
29.703,40.15
29.718,40.17
29.734,39.75
29.750,39.15
29.765,38.65
29.781,38.42
29.796,38.52
29.812,38.91
29.828,39.49
29.843,40.14
29.859,40.73
29.875,41.1
29.890,41.13
29.906,40.68
29.921,39.69
29.937,38.23
29.953,36.42
29.968,34.44
29.984,32.41
30.000,30.36
30.015,28.22
30.031,25.92
30.046,23.39
30.062,20.63
30.078,17.71
30.093,14.7
30.109,11.64
30.125,8.54
30.140,5.35
30.156,2.01
30.171,-1.52
30.187,-5.24
30.203,-9.08
30.218,-12.94
30.234,-16.62
30.250,-20.0
30.265,-23.04
30.281,-25.87
30.296,-28.77
30.312,-32.1
30.328,-36.17
30.343,-41.08
30.359,-46.69
30.375,-52.61
30.390,-58.23
30.406,-62.84
30.421,-65.68
30.437,-66.16
30.453,-63.93
30.468,-59.02
30.484,-51.9
30.500,-43.39
30.515,-34.39
30.531,-25.74
30.546,-17.93
30.562,-11.11
30.578,-5.16
30.593,0.18
30.609,5.16
30.625,9.96
30.640,14.63
30.656,19.1
30.671,23.21
30.687,26.74
30.703,29.49
30.718,31.31
30.734,32.23
30.750,32.43
30.765,32.26
30.781,32.12
30.796,32.35
30.812,33.19
30.828,34.63
30.843,36.5
30.859,38.55
30.875,40.48
30.890,41.96
30.906,42.74
30.921,42.64
30.937,41.61
30.953,39.77
30.968,37.38
30.984,34.8
31.000,32.31
31.015,30.07
31.031,28.05
31.046,26.05
31.062,23.84
31.078,21.28
31.093,18.37
31.109,15.26
31.125,12.12
31.140,9.12
31.156,6.25
31.171,3.37
31.187,0.3
31.203,-3.14
31.218,-6.98
31.234,-11.08
31.250,-15.21
31.265,-19.15
31.281,-22.76
31.296,-26.06
31.312,-29.2
31.328,-32.32
31.343,-35.57
31.359,-39.08
31.375,-43.0
31.390,-47.41
31.406,-52.28
31.421,-57.22
31.437,-61.52
31.453,-64.2
31.468,-64.3
31.484,-61.29
31.500,-55.25
31.515,-46.91
31.531,-37.38
31.546,-27.79
31.562,-18.91
31.578,-11.08
31.593,-4.22
31.609,1.95
31.625,7.72
31.640,13.27
31.656,18.63
31.671,23.72
31.687,28.41
31.703,32.5
31.718,35.82
31.734,38.24
31.750,39.72
31.765,40.29
31.781,40.09
31.796,39.32
31.812,38.21
31.828,37.04
31.843,36.07
31.859,35.49
31.875,35.38
31.890,35.72
31.906,36.27
31.921,36.76
31.937,36.96
31.953,36.71
31.968,36.03
31.984,35.04
32.000,33.84
32.015,32.48
32.031,30.92
32.046,29.02
32.062,26.69
32.078,23.93
32.093,20.83
32.109,17.57
32.125,14.31
32.140,11.12
32.156,8.01
32.171,4.94
32.187,1.89
32.203,-1.13
32.218,-4.1
32.234,-7.04
32.250,-10.03
32.265,-13.19
32.281,-16.64
32.296,-20.43
32.312,-24.44
32.328,-28.44
32.343,-32.12
32.359,-35.3
32.375,-38.0
32.390,-40.46
32.406,-43.05
32.421,-46.15
32.437,-49.93
32.453,-54.25
32.468,-58.58
32.484,-62.17
32.500,-64.18
32.515,-63.95
32.531,-61.19
32.546,-56.01
32.562,-48.88
32.578,-40.5
32.593,-31.63
32.609,-22.92
32.625,-14.83
32.640,-7.57
32.656,-1.21
32.671,4.35
32.687,9.3
32.703,13.93
32.718,18.57
32.734,23.44
32.750,28.59
32.765,33.81
32.781,38.66
32.796,42.6
32.812,45.24
32.828,46.41
32.843,46.32
32.859,45.4
32.875,44.16
32.890,43.01
32.906,42.13
32.921,41.53
32.937,41.06
32.953,40.65
32.968,40.25
32.984,39.86
33.000,39.43
33.015,38.88
33.031,38.02
33.046,36.74
33.062,35.0
33.078,32.9
33.093,30.65
33.109,28.39
33.125,26.17
33.140,23.95
33.156,21.55
33.171,18.89
33.187,15.99
33.203,12.96
33.218,10.03
33.234,7.34
33.250,4.93
33.265,2.71
33.281,0.49
33.296,-1.93
33.312,-4.69
33.328,-7.79
33.343,-11.18
33.359,-14.71
33.375,-18.29
33.390,-21.85
33.406,-25.39
33.421,-28.93
33.437,-32.49
33.453,-36.13
33.468,-39.95
33.484,-44.11
33.500,-48.7
33.515,-53.61
33.531,-58.41
33.546,-62.34
33.562,-64.52
33.578,-64.19
33.593,-61.03
33.609,-55.25
33.625,-47.56
33.640,-38.89
33.656,-30.12
33.671,-21.89
33.687,-14.5
33.703,-7.99
33.718,-2.19
33.734,3.14
33.750,8.21
33.765,13.11
33.781,17.83
33.796,22.21
33.812,26.04
33.828,29.12
33.843,31.36
33.859,32.74
33.875,33.41
33.890,33.51
33.906,33.28
33.921,32.91
33.937,32.59
33.953,32.46
33.968,32.58
33.984,33.0
34.000,33.6
34.015,34.24
34.031,34.71
34.046,34.84
34.062,34.49
34.078,33.62
34.093,32.29
34.109,30.61
34.125,28.73
34.140,26.78
34.156,24.84
34.171,22.9
34.187,20.93
34.203,18.86
34.218,16.66
34.234,14.32
34.250,11.9
34.265,9.42
34.281,6.98
34.296,4.6
34.312,2.32
34.328,0.14
34.343,-1.96
34.359,-4.07
34.375,-6.29
34.390,-8.75
34.406,-11.51
34.421,-14.53
34.437,-17.69
34.453,-20.81
34.468,-23.73
34.484,-26.47
34.500,-29.23
34.515,-32.35
34.531,-36.16
34.546,-40.79
34.562,-46.01
34.578,-51.17
34.593,-55.36
34.609,-57.65
34.625,-57.34
34.640,-54.25
34.656,-48.71
34.671,-41.51
34.687,-33.54
34.703,-25.62
34.718,-18.24
34.734,-11.6
34.750,-5.67
34.765,-0.37
34.781,4.41
34.796,8.76
34.812,12.8
34.828,16.62
34.843,20.27
34.859,23.65
34.875,26.53
34.890,28.62
34.906,29.74
34.921,29.91
34.937,29.37
34.953,28.46
34.968,27.53
34.984,26.79
35.000,26.29
35.015,26.05
35.031,26.05
35.046,26.23
35.062,26.48
35.078,26.6
35.093,26.38
35.109,25.67
35.125,24.43
35.140,22.79
35.156,20.95
35.171,19.09
35.187,17.33
35.203,15.69
35.218,14.12
35.234,12.51
35.250,10.78
35.265,8.89
35.281,6.88
35.296,4.83
35.312,2.82
35.328,0.91
35.343,-1.0
35.359,-3.02
35.375,-5.26
35.390,-7.75
35.406,-10.4
35.421,-13.04
35.437,-15.54
35.453,-17.86
35.468,-20.13
35.484,-22.49
35.500,-25.13
35.515,-28.15
35.531,-31.58
35.546,-35.41
35.562,-39.54
35.578,-43.76
35.593,-47.69
35.609,-50.74
35.625,-52.26
35.640,-51.71
35.656,-48.94
35.671,-44.2
35.687,-38.13
35.703,-31.54
35.718,-25.07
35.734,-19.13
35.750,-13.76
35.765,-8.87
35.781,-4.34
35.796,-0.11
35.812,3.76
35.828,7.24
35.843,10.34
35.859,13.1
35.875,15.55
35.890,17.68
35.906,19.43
35.921,20.68
35.937,21.35
35.953,21.47
35.968,21.23
35.984,20.85
36.000,20.6
36.015,20.66
36.031,21.12
36.046,21.91
36.062,22.87
36.078,23.82
36.093,24.57
36.109,24.99
36.125,24.98
36.140,24.56
36.156,23.82
36.171,22.86
36.187,21.83
36.203,20.81
36.218,19.74
36.234,18.45
36.250,16.73
36.265,14.5
36.281,11.79
36.296,8.84
36.312,5.95
36.328,3.37
36.343,1.2
36.359,-0.69
36.375,-2.5
36.390,-4.45
36.406,-6.69
36.421,-9.21
36.437,-11.94
36.453,-14.73
36.468,-17.43
36.484,-19.96
36.500,-22.3
36.515,-24.57
36.531,-27.0
36.546,-29.88
36.562,-33.37
36.578,-37.45
36.593,-41.82
36.609,-45.84
36.625,-48.77
36.640,-49.88
36.656,-48.73
36.671,-45.3
36.687,-39.99
36.703,-33.51
36.718,-26.7
36.734,-20.21
36.750,-14.51
36.765,-9.76
36.781,-5.85
36.796,-2.53
36.812,0.49
36.828,3.48
36.843,6.59
36.859,9.81
36.875,13.02
36.890,15.98
36.906,18.43
36.921,20.14
36.937,21.02
36.953,21.14
36.968,20.75
36.984,20.18
37.000,19.77
37.015,19.78
37.031,20.27
37.046,21.14
37.062,22.17
37.078,23.07
37.093,23.64
37.109,23.81
37.125,23.6
37.140,23.1
37.156,22.36
37.171,21.41
37.187,20.25
37.203,18.91
37.218,17.49
37.234,16.14
37.250,14.98
37.265,14.07
37.281,13.36
37.296,12.76
37.312,12.14
37.328,11.42
37.343,10.52
37.359,9.42
37.375,8.13
37.390,6.64
37.406,4.9
37.421,2.8
37.437,0.26
37.453,-2.73
37.468,-6.07
37.484,-9.51
37.500,-12.77
37.515,-15.65
37.531,-18.12
37.546,-20.31
37.562,-22.5
37.578,-24.97
37.593,-27.91
37.609,-31.4
37.625,-35.42
37.640,-39.86
37.656,-44.42
37.671,-48.66
37.687,-51.98
37.703,-53.8
37.718,-53.69
37.734,-51.58
37.750,-47.76
37.765,-42.78
37.781,-37.25
37.796,-31.69
37.812,-26.38
37.828,-21.38
37.843,-16.66
37.859,-12.16
37.875,-7.83
37.890,-3.65
37.906,0.39
37.921,4.3
37.937,8.1
37.953,11.8
37.968,15.31
37.984,18.48
38.000,21.07
38.015,22.86
38.031,23.72
38.046,23.75
38.062,23.27
38.078,22.75
38.093,22.61
38.109,23.1
38.125,24.16
38.140,25.46
38.156,26.6
38.171,27.26
38.187,27.35
38.203,26.98
38.218,26.37
38.234,25.67
38.250,24.89
38.265,23.96
38.281,22.78
38.296,21.33
38.312,19.68
38.328,17.93
38.343,16.13
38.359,14.24
38.375,12.13
38.390,9.78
38.406,7.22
38.421,4.63
38.437,2.2
38.453,0.07
38.468,-1.82
38.484,-3.61
38.500,-5.51
38.515,-7.68
38.531,-10.15
38.546,-12.84
38.562,-15.65
38.578,-18.45
38.593,-21.21
38.609,-23.92
38.625,-26.61
38.640,-29.3
38.656,-32.08
38.671,-35.04
38.687,-38.26
38.703,-41.77
38.718,-45.38
38.734,-48.66
38.750,-51.0
38.765,-51.74
38.781,-50.47
38.796,-47.17
38.812,-42.28
38.828,-36.53
38.843,-30.63
38.859,-25.13
38.875,-20.21
38.890,-15.79
38.906,-11.64
38.921,-7.55
38.937,-3.38
38.953,0.9
38.968,5.28
38.984,9.7
39.000,14.07
39.015,18.2
39.031,21.82
39.046,24.64
39.062,26.39
39.078,26.97
39.093,26.48
39.109,25.25
39.125,23.79
39.140,22.56
39.156,21.92
39.171,21.99
39.187,22.61
39.203,23.49
39.218,24.31
39.234,24.86
39.250,25.04
39.265,24.89
39.281,24.48
39.296,23.85
39.312,23.06
39.328,22.15
39.343,21.13
39.359,20.03
39.375,18.82
39.390,17.42
39.406,15.76
39.421,13.79
39.437,11.54
39.453,9.1
39.468,6.59
39.484,4.05
39.500,1.53
39.515,-0.97
39.531,-3.48
39.546,-5.97
39.562,-8.42
39.578,-10.82
39.593,-13.17
39.609,-15.5
39.625,-17.85
39.640,-20.23
39.656,-22.68
39.671,-25.29
39.687,-28.19
39.703,-31.55
39.718,-35.48
39.734,-39.82
39.750,-44.18
39.765,-47.87
39.781,-50.16
39.796,-50.44
39.812,-48.46
39.828,-44.4
39.843,-38.79
39.859,-32.33
39.875,-25.66
39.890,-19.26
39.906,-13.3
39.921,-7.82
39.937,-2.69
39.953,2.2
39.968,6.87
39.984,11.27
40.000,15.25
40.015,18.66
40.031,21.41
40.046,23.43
40.062,24.76
40.078,25.46
40.093,25.63
40.109,25.36
40.125,24.78
40.140,24.04
40.156,23.3
40.171,22.71
40.187,22.4
40.203,22.44
40.218,22.79
40.234,23.34
40.250,23.92
40.265,24.31
40.281,24.31
40.296,23.81
40.312,22.81
40.328,21.46
40.343,19.99
40.359,18.56
40.375,17.23
40.390,15.86
40.406,14.19
40.421,12.03
40.437,9.37
40.453,6.43
40.468,3.52
40.484,0.95
40.500,-1.2
40.515,-3.08
40.531,-4.93
40.546,-6.94
40.562,-9.17
40.578,-11.52
40.593,-13.83
40.609,-16.07
40.625,-18.37
40.640,-20.96
40.656,-24.06
40.671,-27.76
40.687,-31.99
40.703,-36.6
40.718,-41.46
40.734,-46.48
40.750,-51.49
40.765,-56.14
40.781,-59.8
40.796,-61.68
40.812,-61.11
40.828,-57.8
40.843,-52.03
40.859,-44.6
40.875,-36.5
40.890,-28.59
40.906,-21.34
40.921,-14.82
40.937,-8.83
40.953,-3.15
40.968,2.36
40.984,7.73
41.000,12.97
41.015,18.02
41.031,22.83
41.046,27.26
41.062,31.05
41.078,33.9
41.093,35.59
41.109,36.09
41.125,35.66
41.140,34.71
41.156,33.73
41.171,33.04
41.187,32.81
41.203,32.96
41.218,33.37
41.234,33.86
41.250,34.28
41.265,34.5
41.281,34.41
41.296,33.9
41.312,32.94
41.328,31.58
41.343,29.93
41.359,28.18
41.375,26.43
41.390,24.73
41.406,23.01
41.421,21.18
41.437,19.13
41.453,16.9
41.468,14.55
41.484,12.21
41.500,9.98
41.515,7.88
41.531,5.88
41.546,3.88
41.562,1.77
41.578,-0.57
41.593,-3.19
41.609,-6.1
41.625,-9.28
41.640,-12.65
41.656,-16.17
41.671,-19.76
41.687,-23.44
41.703,-27.26
41.718,-31.33
41.734,-35.8
41.750,-40.83
41.765,-46.43
41.781,-52.35
41.796,-58.1
41.812,-62.86
41.828,-65.75
41.843,-66.02
41.859,-63.32
41.875,-57.91
41.890,-50.46
41.906,-41.96
41.921,-33.31
41.937,-25.16
41.953,-17.75
41.968,-11.05
41.984,-4.85
42.000,1.05
42.015,6.71
42.031,12.11
42.046,17.16
42.062,21.78
42.078,25.86
42.093,29.32
42.109,32.07
42.125,34.05
42.140,35.27
42.156,35.81
42.171,35.83
42.187,35.55
42.203,35.21
42.218,34.97
42.234,34.92
42.250,35.08
42.265,35.42
42.281,35.86
42.296,36.29
42.312,36.6
42.328,36.71
42.343,36.54
42.359,36.02
42.375,35.09
42.390,33.71
42.406,31.92
42.421,29.81
42.437,27.53
42.453,25.26
42.468,23.04
42.484,20.9
42.500,18.71
42.515,16.35
42.531,13.74
42.546,10.89
42.562,7.89
42.578,4.91
42.593,2.1
42.609,-0.48
42.625,-2.86
42.640,-5.19
42.656,-7.66
42.671,-10.43
42.687,-13.55
42.703,-16.98
42.718,-20.57
42.734,-24.18
42.750,-27.75
42.765,-31.35
42.781,-35.14
42.796,-39.36
42.812,-44.18
42.828,-49.62
42.843,-55.45
42.859,-61.1
42.875,-65.77
42.890,-68.52
42.906,-68.61
42.921,-65.71
42.937,-60.06
42.953,-52.41
42.968,-43.74
42.984,-34.94
43.000,-26.61
43.015,-18.97
43.031,-11.99
43.046,-5.53
43.062,0.53
43.078,6.22
43.093,11.62
43.109,16.75
43.125,21.6
43.140,26.1
43.156,30.05
43.171,33.21
43.187,35.36
43.203,36.47
43.218,36.69
43.234,36.32
43.250,35.78
43.265,35.45
43.281,35.6
43.296,36.3
43.312,37.39
43.328,38.6
43.343,39.58
43.359,40.07
43.375,39.96
43.390,39.3
43.406,38.21
43.421,36.8
43.437,35.16
43.453,33.3
43.468,31.25
43.484,29.11
43.500,26.95
43.515,24.79
43.531,22.58
43.546,20.2
43.562,17.53
43.578,14.55
43.593,11.37
43.609,8.2
43.625,5.23
43.640,2.52
43.656,-0.01
43.671,-2.53
43.687,-5.25
43.703,-8.22
43.718,-11.37
43.734,-14.53
43.750,-17.5
43.765,-20.21
43.781,-22.79
43.796,-25.52
43.812,-28.7
43.828,-32.53
43.843,-37.05
43.859,-42.08
43.875,-47.22
43.890,-51.97
43.906,-55.72
43.921,-57.89
43.937,-57.99
43.953,-55.72
43.968,-51.11
43.984,-44.53
44.000,-36.6
44.015,-28.14
44.031,-19.83
44.046,-12.16
44.062,-5.31
44.078,0.77
44.093,6.25
44.109,11.31
44.125,16.01
44.140,20.36
44.156,24.29
44.171,27.7
44.187,30.43
44.203,32.32
44.218,33.21
44.234,33.03
44.250,31.88
44.265,30.11
44.281,28.19
44.296,26.66
44.312,25.87
44.328,25.89
44.343,26.55
44.359,27.5
44.375,28.38
44.390,28.97
44.406,29.2
44.421,29.11
44.437,28.75
44.453,28.17
44.468,27.39
44.484,26.41
44.500,25.26
44.515,23.93
44.531,22.34
44.546,20.42
44.562,18.06
44.578,15.25
44.593,12.05
44.609,8.68
44.625,5.31
44.640,2.08
44.656,-1.0
44.671,-4.06
44.687,-7.25
44.703,-10.67
44.718,-14.33
44.734,-18.13
44.750,-21.87
44.765,-25.43
44.781,-28.79
44.796,-32.17
44.812,-35.89
44.828,-40.29
44.843,-45.49
44.859,-51.23
44.875,-56.89
44.890,-61.58
44.906,-64.44
44.921,-64.81
44.937,-62.49
44.953,-57.66
44.968,-50.83
44.984,-42.62
45.000,-33.67
45.015,-24.62
45.031,-16.02
45.046,-8.34
45.062,-1.84
45.078,3.48
45.093,7.93
45.109,11.94
45.125,15.98
45.140,20.25
45.156,24.65
45.171,28.83
45.187,32.32
45.203,34.8
45.218,36.16
45.234,36.58
45.250,36.37
45.265,35.8
45.281,35.12
45.296,34.51
45.312,34.09
45.328,33.99
45.343,34.27
45.359,34.85
45.375,35.52
45.390,35.96
45.406,35.9
45.421,35.2
45.437,33.93
45.453,32.3
45.468,30.5
45.484,28.64
45.500,26.64
45.515,24.37
45.531,21.74
45.546,18.78
45.562,15.67
45.578,12.63
45.593,9.86
45.609,7.39
45.625,5.15
45.640,3.0
45.656,0.78
45.671,-1.61
45.687,-4.21
45.703,-6.98
45.718,-9.87
45.734,-12.74
45.750,-15.5
45.765,-18.1
45.781,-20.62
45.796,-23.23
45.812,-26.22
45.828,-29.83
45.843,-34.24
45.859,-39.44
45.875,-45.22
45.890,-51.15
45.906,-56.6
45.921,-60.83
45.937,-63.12
45.953,-62.98
45.968,-60.25
45.984,-55.15
46.000,-48.26
46.015,-40.32
46.031,-32.05
46.046,-23.98
46.062,-16.44
46.078,-9.54
46.093,-3.29
46.109,2.42
46.125,7.71
46.140,12.72
46.156,17.57
46.171,22.22
46.187,26.59
46.203,30.45
46.218,33.62
46.234,35.93
46.250,37.34
46.265,37.92
46.281,37.78
46.296,37.08
46.312,35.98
46.328,34.67
46.343,33.37
46.359,32.25
46.375,31.47
46.390,31.05
46.406,30.91
46.421,30.9
46.437,30.83
46.453,30.58
46.468,30.05
46.484,29.23
46.500,28.08
46.515,26.61
46.531,24.82
46.546,22.7
46.562,20.3
46.578,17.71
46.593,15.03
46.609,12.39
46.625,9.93
46.640,7.67
46.656,5.61
46.671,3.65
46.687,1.68
46.703,-0.38
46.718,-2.6
46.734,-5.03
46.750,-7.68
46.765,-10.54
46.781,-13.59
46.796,-16.77
46.812,-20.0
46.828,-23.24
46.843,-26.5
46.859,-29.9
46.875,-33.59
46.890,-37.72
46.906,-42.29
46.921,-47.12
46.937,-51.74
46.953,-55.49
46.968,-57.61
46.984,-57.48
47.000,-54.8
47.015,-49.72
47.031,-42.83
47.046,-34.97
47.062,-27.04
47.078,-19.66
47.093,-13.14
47.109,-7.51
47.125,-2.56
47.140,1.95
47.156,6.22
47.171,10.37
47.187,14.46
47.203,18.45
47.218,22.23
47.234,25.63
47.250,28.41
47.265,30.36
47.281,31.37
47.296,31.43
47.312,30.76
47.328,29.68
47.343,28.55
47.359,27.74
47.375,27.44
47.390,27.71
47.406,28.41
47.421,29.32
47.437,30.2
47.453,30.83
47.468,31.08
47.484,30.88
47.500,30.22
47.515,29.11
47.531,27.61
47.546,25.79
47.562,23.79
47.578,21.72
47.593,19.7
47.609,17.7
47.625,15.7
47.640,13.62
47.656,11.44
47.671,9.2
47.687,7.0
47.703,4.92
47.718,2.96
47.734,1.0
47.750,-1.09
47.765,-3.43
47.781,-5.98
47.796,-8.6
47.812,-11.14
47.828,-13.52
47.843,-15.87
47.859,-18.46
47.875,-21.59
47.890,-25.48
47.906,-30.14
47.921,-35.37
47.937,-40.78
47.953,-45.85
47.968,-49.96
47.984,-52.47
48.000,-52.86
48.015,-50.86
48.031,-46.59
48.046,-40.55
48.062,-33.52
48.078,-26.24
48.093,-19.32
48.109,-13.03
48.125,-7.44
48.140,-2.49
48.156,1.9
48.171,5.81
48.187,9.33
48.203,12.55
48.218,15.54
48.234,18.25
48.250,20.52
48.265,22.11
48.281,22.87
48.296,22.84
48.312,22.27
48.328,21.56
48.343,21.07
48.359,21.0
48.375,21.37
48.390,22.06
48.406,22.85
48.421,23.55
48.437,23.95
48.453,23.93
48.468,23.39
48.484,22.34
48.500,20.88
48.515,19.18
48.531,17.42
48.546,15.76
48.562,14.22
48.578,12.72
48.593,11.16
48.609,9.5
48.625,7.7
48.640,5.8
48.656,3.87
48.671,1.92
48.687,-0.03
48.703,-1.98
48.718,-3.95
48.734,-5.9
48.750,-7.82
48.765,-9.74
48.781,-11.71
48.796,-13.82
48.812,-16.21
48.828,-18.96
48.843,-22.12
48.859,-25.72
48.875,-29.75
48.890,-34.16
48.906,-38.81
48.921,-43.36
48.937,-47.31
48.953,-50.03
48.968,-50.95
48.984,-49.73
49.000,-46.33
49.015,-41.11
49.031,-34.65
49.046,-27.66
49.062,-20.73
49.078,-14.29
49.093,-8.51
49.109,-3.38
49.125,1.28
49.140,5.7
49.156,10.08
49.171,14.47
49.187,18.76
49.203,22.69
49.218,25.99
49.234,28.38
49.250,29.76
49.265,30.14
49.281,29.68
49.296,28.64
49.312,27.36
49.328,26.17
49.343,25.33
49.359,24.93
49.375,24.87
49.390,24.96
49.406,24.95
49.421,24.66
49.437,24.03
49.453,23.09
49.468,21.9
49.484,20.48
49.500,18.85
49.515,17.04
49.531,15.08
49.546,13.06
49.562,11.05
49.578,9.1
49.593,7.22
49.609,5.39
49.625,3.58
49.640,1.77
49.656,-0.05
49.671,-1.9
49.687,-3.81
49.703,-5.83
49.718,-8.0
49.734,-10.37
49.750,-12.96
49.765,-15.71
49.781,-18.57
49.796,-21.48
49.812,-24.39
49.828,-27.36
49.843,-30.5
49.859,-33.99
49.875,-37.96
49.890,-42.44
49.906,-47.18
49.921,-51.69
49.937,-55.25
49.953,-57.13
49.968,-56.78
49.984,-54.02
50.000,-49.15
50.015,-42.82
50.031,-35.79
50.046,-28.73
50.062,-22.07
50.078,-16.01
50.093,-10.55
50.109,-5.64
50.125,-1.25
50.140,2.68
50.156,6.21
50.171,9.48
50.187,12.57
50.203,15.53
50.218,18.29
50.234,20.69
50.250,22.52
50.265,23.67
50.281,24.14
50.296,24.08
50.312,23.7
50.328,23.27
50.343,22.99
50.359,22.97
50.375,23.24
50.390,23.76
50.406,24.45
50.421,25.16
50.437,25.77
50.453,26.11
50.468,26.04
50.484,25.48
50.500,24.49
50.515,23.2
50.531,21.79
50.546,20.42
50.562,19.15
50.578,17.91
50.593,16.53
50.609,14.88
50.625,12.89
50.640,10.61
50.656,8.17
50.671,5.71
50.687,3.29
50.703,0.91
50.718,-1.49
50.734,-4.0
50.750,-6.66
50.765,-9.54
50.781,-12.61
50.796,-15.8
50.812,-18.97
50.828,-21.99
50.843,-24.76
50.859,-27.34
50.875,-29.97
50.890,-33.01
50.906,-36.77
50.921,-41.35
50.937,-46.45
50.953,-51.41
50.968,-55.37
50.984,-57.55
51.000,-57.44
51.015,-55.0
51.031,-50.55
51.046,-44.73
51.062,-38.22
51.078,-31.59
51.093,-25.24
51.109,-19.34
51.125,-13.9
51.140,-8.8
51.156,-3.83
51.171,1.21
51.187,6.44
51.203,11.86
51.218,17.26
51.234,22.32
51.250,26.68
51.265,30.02
51.281,32.22
51.296,33.32
51.312,33.54
51.328,33.15
51.343,32.41
51.359,31.55
51.375,30.7
51.390,29.96
51.406,29.4
51.421,29.01
51.437,28.73
51.453,28.44
51.468,27.97
51.484,27.22
51.500,26.16
51.515,24.85
51.531,23.4
51.546,21.91
51.562,20.45
51.578,19.01
51.593,17.55
51.609,16.07
51.625,14.59
51.640,13.16
51.656,11.77
51.671,10.38
51.687,8.89
51.703,7.18
51.718,5.19
51.734,2.91
51.750,0.43
51.765,-2.12
51.781,-4.67
51.796,-7.17
51.812,-9.68
51.828,-12.27
51.843,-14.97
51.859,-17.75
51.875,-20.57
51.890,-23.41
51.906,-26.34
51.921,-29.59
51.937,-33.39
51.953,-37.86
51.968,-42.8
51.984,-47.7
52.000,-51.79
52.015,-54.27
52.031,-54.56
52.046,-52.46
52.062,-48.21
52.078,-42.36
52.093,-35.59
52.109,-28.54
52.125,-21.72
52.140,-15.41
52.156,-9.78
52.171,-4.82
52.187,-0.41
52.203,3.65
52.218,7.58
52.234,11.51
52.250,15.46
52.265,19.27
52.281,22.64
52.296,25.33
52.312,27.13
52.328,28.05
52.343,28.28
52.359,28.1
52.375,27.8
52.390,27.58
52.406,27.54
52.421,27.69
52.437,27.97
52.453,28.26
52.468,28.46
52.484,28.43
52.500,28.06
52.515,27.29
52.531,26.12
52.546,24.64
52.562,22.96
52.578,21.19
52.593,19.4
52.609,17.64
52.625,15.92
52.640,14.23
52.656,12.56
52.671,10.81
52.687,8.84
52.703,6.56
52.718,3.92
52.734,1.05
52.750,-1.9
52.765,-4.78
52.781,-7.58
52.796,-10.39
52.812,-13.33
52.828,-16.47
52.843,-19.68
52.859,-22.8
52.875,-25.69
52.890,-28.37
52.906,-31.08
52.921,-34.15
52.937,-37.91
52.953,-42.39
52.968,-47.27
52.984,-51.85
53.000,-55.25
53.015,-56.63
53.031,-55.45
53.046,-51.69
53.062,-45.78
53.078,-38.45
53.093,-30.55
53.109,-22.73
53.125,-15.38
53.140,-8.69
53.156,-2.64
53.171,2.78
53.187,7.63
53.203,11.97
53.218,15.91
53.234,19.52
53.250,22.86
53.265,25.85
53.281,28.32
53.296,30.04
53.312,30.84
53.328,30.77
53.343,30.08
53.359,29.19
53.375,28.52
53.390,28.36
53.406,28.78
53.421,29.67
53.437,30.79
53.453,31.86
53.468,32.66
53.484,33.05
53.500,32.92
53.515,32.18
53.531,30.88
53.546,29.1
53.562,27.01
53.578,24.83
53.593,22.73
53.609,20.76
53.625,18.87
53.640,16.9
53.656,14.71
53.671,12.25
53.687,9.57
53.703,6.83
53.718,4.18
53.734,1.67
53.750,-0.77
53.765,-3.32
53.781,-6.1
53.796,-9.13
53.812,-12.33
53.828,-15.53
53.843,-18.65
53.859,-21.73
53.875,-24.9
53.890,-28.34
53.906,-32.2
53.921,-36.56
53.937,-41.41
53.953,-46.7
53.968,-52.28
53.984,-57.83
54.000,-62.85
54.015,-66.66
54.031,-68.54
54.046,-67.91
54.062,-64.56
54.078,-58.74
54.093,-51.07
54.109,-42.4
54.125,-33.59
54.140,-25.23
54.156,-17.6
54.171,-10.67
54.187,-4.22
54.203,1.99
54.218,8.12
54.234,14.22
54.250,20.23
54.265,26.04
54.281,31.41
54.296,36.05
54.312,39.65
54.328,41.99
54.343,43.03
54.359,43.0
54.375,42.33
54.390,41.51
54.406,40.87
54.421,40.55
54.437,40.49
54.453,40.53
54.468,40.53
54.484,40.37
54.500,39.93
54.515,39.09
54.531,37.75
54.546,35.9
54.562,33.69
54.578,31.39
54.593,29.27
54.609,27.5
54.625,26.07
54.640,24.78
54.656,23.43
54.671,21.82
54.687,19.88
54.703,17.64
54.718,15.2
54.734,12.67
54.750,10.13
54.765,7.66
54.781,5.25
54.796,2.85
54.812,0.31
54.828,-2.55
54.843,-5.83
54.859,-9.57
54.875,-13.62
54.890,-17.77
54.906,-21.79
54.921,-25.61
54.937,-29.33
54.953,-33.16
54.968,-37.4
54.984,-42.3
55.000,-47.92
55.015,-54.11
55.031,-60.44
55.046,-66.26
55.062,-70.77
55.078,-73.12
55.093,-72.68
55.109,-69.19
55.125,-62.88
55.140,-54.38
55.156,-44.59
55.171,-34.38
55.187,-24.47
55.203,-15.28
55.218,-6.97
55.234,0.43
55.250,6.99
55.265,12.82
55.281,18.05
55.296,22.87
55.312,27.46
55.328,31.86
55.343,35.94
55.359,39.41
55.375,41.84
55.390,42.92
55.406,42.56
55.421,41.05
55.437,38.94
55.453,36.88
55.468,35.42
55.484,34.82
55.500,35.01
55.515,35.69
55.531,36.5
55.546,37.14
55.562,37.46
55.578,37.4
55.593,36.99
55.609,36.24
55.625,35.13
55.640,33.68
55.656,31.94
55.671,30.05
55.687,28.17
55.703,26.42
55.718,24.77
55.734,23.13
55.750,21.34
55.765,19.26
55.781,16.85
55.796,14.14
55.812,11.26
55.828,8.31
55.843,5.39
55.859,2.53
55.875,-0.26
55.890,-3.01
55.906,-5.78
55.921,-8.62
55.937,-11.61
55.953,-14.77
55.968,-18.08
55.984,-21.4
56.000,-24.62
56.015,-27.62
56.031,-30.44
56.046,-33.26
56.062,-36.39
56.078,-40.2
56.093,-44.87
56.109,-50.32
56.125,-56.05
56.140,-61.25
56.156,-64.88
56.171,-66.06
56.187,-64.29
56.203,-59.62
56.218,-52.64
56.234,-44.24
56.250,-35.36
56.265,-26.71
56.281,-18.66
56.296,-11.33
56.312,-4.71
56.328,1.32
56.343,6.84
56.359,11.95
56.375,16.74
56.390,21.3
56.406,25.61
56.421,29.53
56.437,32.88
56.453,35.47
56.468,37.18
56.484,38.08
56.500,38.3
56.515,38.05
56.531,37.54
56.546,36.96
56.562,36.42
56.578,36.0
56.593,35.67
56.609,35.28
56.625,34.67
56.640,33.68
56.656,32.28
56.671,30.63
56.687,28.96
56.703,27.53
56.718,26.45
56.734,25.62
56.750,24.76
56.765,23.55
56.781,21.76
56.796,19.38
56.812,16.58
56.828,13.63
56.843,10.8
56.859,8.24
56.875,5.95
56.890,3.8
56.906,1.62
56.921,-0.78
56.937,-3.5
56.953,-6.56
56.968,-9.9
56.984,-13.34
57.000,-16.67
57.015,-19.72
57.031,-22.45
57.046,-25.02
57.062,-27.77
57.078,-31.1
57.093,-35.29
57.109,-40.4
57.125,-46.08
57.140,-51.68
57.156,-56.33
57.171,-59.15
57.187,-59.44
57.203,-56.93
57.218,-51.8
57.234,-44.61
57.250,-36.23
57.265,-27.45
57.281,-18.95
57.296,-11.16
57.312,-4.27
57.328,1.67
57.343,6.75
57.359,11.12
57.375,15.03
57.390,18.68
57.406,22.15
57.421,25.3
57.437,27.86
57.453,29.57
57.468,30.31
57.484,30.25
57.500,29.72
57.515,29.14
57.531,28.76
57.546,28.67
57.562,28.82
57.578,29.09
57.593,29.45
57.609,29.81
57.625,30.1
57.640,30.15
57.656,29.77
57.671,28.81
57.687,27.25
57.703,25.25
57.718,23.03
57.734,20.86
57.750,18.87
57.765,17.13
57.781,15.51
57.796,13.86
57.812,12.02
57.828,9.89
57.843,7.46
57.859,4.8
57.875,2.02
57.890,-0.83
57.906,-3.74
57.921,-6.75
57.937,-9.93
57.953,-13.27
57.968,-16.62
57.984,-19.83
58.000,-22.77
58.015,-25.44
58.031,-28.12
58.046,-31.21
58.062,-35.16
58.078,-40.19
58.093,-46.15
58.109,-52.5
58.125,-58.36
58.140,-62.76
58.156,-64.92
58.171,-64.44
58.187,-61.31
58.203,-55.91
58.218,-48.82
58.234,-40.66
58.250,-32.04
58.265,-23.49
58.281,-15.48
58.296,-8.33
58.312,-2.15
58.328,3.19
58.343,8.01
58.359,12.64
58.375,17.34
58.390,22.09
58.406,26.67
58.421,30.67
58.437,33.73
58.453,35.63
58.468,36.34
58.484,36.06
58.500,35.06
58.515,33.75
58.531,32.46
58.546,31.46
58.562,30.88
58.578,30.75
58.593,30.99
58.609,31.46
58.625,31.97
58.640,32.35
58.656,32.42
58.671,32.02
58.687,31.1
58.703,29.7
58.718,27.94
58.734,25.99
58.750,23.96
58.765,21.88
58.781,19.67
58.796,17.24
58.812,14.53
58.828,11.64
58.843,8.77
58.859,6.16
58.875,3.96
58.890,2.16
58.906,0.55
58.921,-1.2
58.937,-3.44
58.953,-6.35
58.968,-9.88
58.984,-13.76
59.000,-17.61
59.015,-21.12
59.031,-24.18
59.046,-26.95
59.062,-29.78
59.078,-33.07
59.093,-37.13
59.109,-42.0
59.125,-47.41
59.140,-52.72
59.156,-57.1
59.171,-59.67
59.187,-59.76
59.203,-57.12
59.218,-51.99
59.234,-45.04
59.250,-37.13
59.265,-29.1
59.281,-21.52
59.296,-14.66
59.312,-8.54
59.328,-3.02
59.343,2.07
59.359,6.92
59.375,11.64
59.390,16.29
59.406,20.82
59.421,25.08
59.437,28.81
59.453,31.72
59.468,33.6
59.484,34.38
59.500,34.18
59.515,33.23
59.531,31.9
59.546,30.53
59.562,29.4
59.578,28.65
59.593,28.34
59.609,28.37
59.625,28.58
59.640,28.81
59.656,28.87
59.671,28.69
59.687,28.22
59.703,27.51
59.718,26.6
59.734,25.55
59.750,24.38
59.765,23.1
59.781,21.71
59.796,20.18
59.812,18.5
59.828,16.69
59.843,14.77
59.859,12.78
59.875,10.75
59.890,8.68
59.906,6.52
59.921,4.14
59.937,1.39
59.953,-1.78
59.968,-5.29
59.984,-8.98
