timestamp,value
00.000,18.84
00.015,16.95
00.031,14.08
00.046,10.22
00.062,5.76
00.078,1.26
00.093,-2.88
00.109,-6.6
00.125,-10.14
00.140,-13.92
00.156,-18.33
00.171,-23.61
00.187,-29.81
00.203,-36.7
00.218,-43.78
00.234,-50.19
00.250,-54.82
00.265,-56.53
00.281,-54.52
00.296,-48.65
00.312,-39.57
00.328,-28.49
00.343,-16.83
00.359,-5.73
00.375,4.16
00.390,12.73
00.406,20.17
00.421,26.68
00.437,32.34
00.453,36.98
00.468,40.34
00.484,42.35
00.500,43.09
00.515,42.85
00.531,41.92
00.546,40.44
00.562,38.4
00.578,35.72
00.593,32.46
00.609,28.82
00.625,25.25
00.640,22.17
00.656,19.87
00.671,18.29
00.687,17.05
00.703,15.65
00.718,13.64
00.734,10.83
00.750,7.37
00.765,3.66
00.781,0.1
00.796,-3.09
00.812,-6.02
00.828,-9.01
00.843,-12.56
00.859,-16.95
00.875,-22.25
00.890,-28.33
00.906,-34.86
00.921,-41.41
00.937,-47.43
00.953,-52.22
00.968,-54.89
00.984,-54.54
01.000,-50.62
01.015,-43.16
01.031,-32.86
01.046,-21.0
01.062,-8.99
01.078,2.06
01.093,11.52
01.109,19.34
01.125,25.76
01.140,31.04
01.156,35.23
01.171,38.22
01.187,39.84
01.203,40.09
01.218,39.18
01.234,37.48
01.250,35.34
01.265,33.0
01.281,30.51
01.296,27.91
01.312,25.25
01.328,22.75
01.343,20.65
01.359,19.11
01.375,18.09
01.390,17.25
01.406,16.12
01.421,14.24
01.437,11.37
01.453,7.54
01.468,3.05
01.484,-1.64
01.500,-6.16
01.515,-10.32
01.531,-14.15
01.546,-17.87
01.562,-21.78
01.578,-26.13
01.593,-31.08
01.609,-36.56
01.625,-42.16
01.640,-47.12
01.656,-50.41
01.671,-50.97
01.687,-48.14
01.703,-41.82
01.718,-32.67
01.734,-21.86
01.750,-10.68
01.765,-0.16
01.781,9.06
01.796,16.75
01.812,22.9
01.828,27.53
01.843,30.6
01.859,32.15
01.875,32.3
01.890,31.34
01.906,29.68
01.921,27.7
01.937,25.68
01.953,23.79
01.968,22.1
01.984,20.63
02.000,19.43
02.015,18.45
02.031,17.59
02.046,16.66
02.062,15.42
02.078,13.62
02.093,11.1
02.109,7.84
02.125,3.99
02.140,-0.15
02.156,-4.27
02.171,-8.11
02.187,-11.52
02.203,-14.55
02.218,-17.4
02.234,-20.33
02.250,-23.64
02.265,-27.57
02.281,-32.28
02.296,-37.71
02.312,-43.5
02.328,-48.9
02.343,-52.78
02.359,-53.92
02.375,-51.4
02.390,-44.92
02.406,-35.05
02.421,-23.0
02.437,-10.27
02.453,1.82
02.468,12.49
02.484,21.41
02.500,28.6
02.515,34.14
02.531,38.01
02.546,40.14
02.562,40.59
02.578,39.63
02.593,37.82
02.609,35.75
02.625,33.87
02.640,32.32
02.656,30.9
02.671,29.26
02.687,27.09
02.703,24.31
02.718,21.08
02.734,17.78
02.750,14.83
02.765,12.48
02.781,10.72
02.796,9.3
02.812,7.8
02.828,5.8
02.843,3.06
02.859,-0.45
02.875,-4.51
02.890,-8.77
02.906,-12.96
02.921,-16.97
02.937,-20.94
02.953,-25.25
02.968,-30.25
02.984,-36.1
03.000,-42.54
03.015,-48.89
03.031,-54.05
03.046,-56.92
03.062,-56.58
03.078,-52.65
03.093,-45.33
03.109,-35.41
03.125,-23.91
03.140,-11.93
03.156,-0.44
03.171,9.92
03.187,18.81
03.203,26.1
03.218,31.81
03.234,35.98
03.250,38.68
03.265,39.98
03.281,40.04
03.296,39.05
03.312,37.33
03.328,35.21
03.343,32.93
03.359,30.66
03.375,28.39
03.390,26.14
03.406,23.99
03.421,22.02
03.437,20.34
03.453,18.96
03.468,17.77
03.484,16.5
03.500,14.9
03.515,12.67
03.531,9.71
03.546,6.0
03.562,1.67
03.578,-3.09
03.593,-8.05
03.609,-13.0
03.625,-17.89
03.640,-22.78
03.656,-27.9
03.671,-33.49
03.687,-39.65
03.703,-46.13
03.718,-52.17
03.734,-56.67
03.750,-58.39
03.765,-56.44
03.781,-50.53
03.796,-41.21
03.812,-29.69
03.828,-17.54
03.843,-6.15
03.859,3.6
03.875,11.47
03.890,17.66
03.906,22.47
03.921,26.12
03.937,28.61
03.953,29.87
03.968,29.94
03.984,29.08
04.000,27.76
04.015,26.48
04.031,25.49
04.046,24.77
04.062,24.12
04.078,23.26
04.093,22.02
04.109,20.48
04.125,18.89
04.140,17.47
04.156,16.35
04.171,15.43
04.187,14.38
04.203,12.82
04.218,10.39
04.234,6.97
04.250,2.73
04.265,-1.87
04.281,-6.27
04.296,-10.01
04.312,-12.95
04.328,-15.31
04.343,-17.63
04.359,-20.57
04.375,-24.69
04.390,-30.15
04.406,-36.64
04.421,-43.29
04.437,-48.84
04.453,-51.92
04.468,-51.4
04.484,-46.82
04.500,-38.5
04.515,-27.57
04.531,-15.54
04.546,-4.04
04.562,5.69
04.578,12.99
04.593,17.76
04.609,20.46
04.625,21.8
04.640,22.5
04.656,23.0
04.671,23.5
04.687,23.84
04.703,23.79
04.718,23.19
04.734,22.06
04.750,20.52
04.765,18.79
04.781,16.98
04.796,15.12
04.812,13.2
04.828,11.31
04.843,9.55
04.859,8.07
04.875,6.81
04.890,5.6
04.906,4.1
04.921,2.03
04.937,-0.64
04.953,-3.7
04.968,-6.74
04.984,-9.38
05.000,-11.42
05.015,-12.96
05.031,-14.37
05.046,-16.17
05.062,-18.82
05.078,-22.59
05.093,-27.45
05.109,-32.98
05.125,-38.41
05.140,-42.66
05.156,-44.62
05.171,-43.48
05.187,-38.99
05.203,-31.56
05.218,-22.15
05.234,-11.95
05.250,-2.09
05.265,6.65
05.281,13.91
05.296,19.66
05.312,24.02
05.328,27.13
05.343,29.04
05.359,29.76
05.375,29.33
05.390,27.91
05.406,25.85
05.421,23.56
05.437,21.36
05.453,19.43
05.468,17.73
05.484,16.09
05.500,14.42
05.515,12.78
05.531,11.38
05.546,10.37
05.562,9.66
05.578,8.85
05.593,7.36
05.609,4.7
05.625,0.76
05.640,-4.08
05.656,-9.1
05.671,-13.56
05.687,-17.05
05.703,-19.56
05.718,-21.62
05.734,-23.91
05.750,-27.1
05.765,-31.5
05.781,-37.06
05.796,-43.26
05.812,-49.2
05.828,-53.78
05.843,-55.84
05.859,-54.48
05.875,-49.25
05.890,-40.48
05.906,-29.21
05.921,-16.96
05.937,-5.39
05.953,4.28
05.968,11.56
05.984,16.69
06.000,20.37
06.015,23.29
06.031,25.8
06.046,27.82
06.062,29.07
06.078,29.4
06.093,28.94
06.109,28.07
06.125,27.15
06.140,26.3
06.156,25.31
06.171,23.85
06.187,21.74
06.203,19.04
06.218,16.11
06.234,13.35
06.250,10.93
06.265,8.75
06.281,6.5
06.296,3.78
06.312,0.4
06.328,-3.64
06.343,-8.08
06.359,-12.54
06.375,-16.61
06.390,-19.99
06.406,-22.62
06.421,-24.73
06.437,-26.79
06.453,-29.33
06.468,-32.81
06.484,-37.33
06.500,-42.69
06.515,-48.21
06.531,-52.91
06.546,-55.71
06.562,-55.63
06.578,-52.12
06.593,-45.23
06.609,-35.6
06.625,-24.34
06.640,-12.68
06.656,-1.66
06.671,8.09
06.687,16.34
06.703,23.15
06.718,28.69
06.734,33.05
06.750,36.29
06.765,38.32
06.781,39.09
06.796,38.6
06.812,36.93
06.828,34.31
06.843,31.05
06.859,27.54
06.875,24.06
06.890,20.91
06.906,18.25
06.921,16.2
06.937,14.8
06.953,13.93
06.968,13.27
06.984,12.28
07.000,10.33
07.015,6.99
07.031,2.28
07.046,-3.31
07.062,-8.99
07.078,-14.01
07.093,-18.06
07.109,-21.3
07.125,-24.33
07.140,-27.76
07.156,-31.99
07.171,-37.03
07.187,-42.55
07.203,-47.92
07.218,-52.39
07.234,-55.12
07.250,-55.3
07.265,-52.31
07.281,-46.02
07.296,-36.84
07.312,-25.78
07.328,-14.13
07.343,-3.1
07.359,6.48
07.375,14.31
07.390,20.46
07.406,25.23
07.421,28.84
07.437,31.46
07.453,33.23
07.468,34.29
07.484,34.76
07.500,34.71
07.515,34.15
07.531,33.06
07.546,31.48
07.562,29.56
07.578,27.54
07.593,25.68
07.609,24.09
07.625,22.66
07.640,21.09
07.656,19.11
07.671,16.47
07.687,13.12
07.703,9.2
07.718,4.93
07.734,0.54
07.750,-3.83
07.765,-8.05
07.781,-12.12
07.796,-16.04
07.812,-19.94
07.828,-24.05
07.843,-28.64
07.859,-34.02
07.875,-40.23
07.890,-47.01
07.906,-53.61
07.921,-58.95
07.937,-61.82
07.953,-61.27
07.968,-56.85
07.984,-48.78
08.000,-37.93
08.015,-25.58
08.031,-13.09
08.046,-1.61
08.062,8.22
08.078,16.28
08.093,22.77
08.109,27.99
08.125,32.14
08.140,35.1
08.156,36.71
08.171,36.9
08.187,35.8
08.203,33.79
08.218,31.35
08.234,28.8
08.250,26.26
08.265,23.78
08.281,21.41
08.296,19.4
08.312,18.08
08.328,17.61
08.343,17.79
08.359,18.0
08.375,17.43
08.390,15.44
08.406,11.86
08.421,7.05
08.437,1.73
08.453,-3.32
08.468,-7.72
08.484,-11.56
08.500,-15.35
08.515,-19.7
08.531,-25.03
08.546,-31.4
08.562,-38.49
08.578,-45.6
08.593,-51.79
08.609,-55.96
08.625,-56.99
08.640,-54.06
08.656,-46.94
08.671,-36.1
08.687,-22.79
08.703,-8.72
08.718,4.49
08.734,15.66
08.750,24.37
08.765,30.79
08.781,35.42
08.796,38.71
08.812,40.92
08.828,42.12
08.843,42.23
08.859,41.26
08.875,39.32
08.890,36.6
08.906,33.41
08.921,30.05
08.937,26.77
08.953,23.86
08.968,21.52
08.984,19.85
09.000,18.78
09.015,17.98
09.031,16.93
09.046,15.11
09.062,12.09
09.078,7.69
09.093,2.04
09.109,-4.41
09.125,-11.05
09.140,-17.26
09.156,-22.66
09.171,-27.2
09.187,-31.24
09.203,-35.36
09.218,-40.2
09.234,-46.07
09.250,-52.75
09.265,-59.4
09.281,-64.75
09.296,-67.41
09.312,-66.37
09.328,-61.22
09.343,-52.3
09.359,-40.68
09.375,-27.65
09.390,-14.51
09.406,-2.24
09.421,8.7
09.437,18.19
09.453,26.35
09.468,33.28
09.484,38.97
09.500,43.3
09.515,46.21
09.531,47.72
09.546,48.03
09.562,47.36
09.578,45.93
09.593,43.84
09.609,41.16
09.625,38.02
09.640,34.67
09.656,31.44
09.671,28.65
09.687,26.41
09.703,24.64
09.718,23.03
09.734,21.17
09.750,18.73
09.765,15.55
09.781,11.69
09.796,7.29
09.812,2.59
09.828,-2.27
09.843,-7.17
09.859,-12.08
09.875,-17.05
09.890,-22.24
09.906,-27.9
09.921,-34.31
09.937,-41.59
09.953,-49.41
09.968,-56.9
09.984,-62.73
10.000,-65.48
10.015,-64.14
10.031,-58.45
10.046,-49.02
10.062,-37.02
10.078,-23.83
10.093,-10.6
10.109,1.92
10.125,13.33
10.140,23.46
10.156,32.13
10.171,39.17
10.187,44.49
10.203,48.11
10.218,50.22
10.234,51.12
10.250,51.09
10.265,50.31
10.281,48.91
10.296,46.86
10.312,44.19
10.328,40.95
10.343,37.32
10.359,33.67
10.375,30.48
10.390,28.11
10.406,26.67
10.421,25.87
10.437,25.06
10.453,23.47
10.468,20.54
10.484,16.13
10.500,10.61
10.515,4.69
10.531,-0.98
10.546,-6.02
10.562,-10.44
10.578,-14.55
10.593,-18.84
10.609,-23.76
10.625,-29.65
10.640,-36.56
10.656,-44.28
10.671,-52.22
10.687,-59.33
10.703,-64.34
10.718,-65.91
10.734,-63.16
10.750,-55.88
10.765,-44.82
10.781,-31.37
10.796,-17.24
10.812,-3.88
10.828,7.82
10.843,17.66
10.859,25.95
10.875,33.05
10.890,39.21
10.906,44.33
10.921,48.14
10.937,50.4
10.953,51.11
10.968,50.56
10.984,49.16
11.000,47.32
11.015,45.26
11.031,43.04
11.046,40.63
11.062,38.05
11.078,35.42
11.093,32.97
11.109,30.87
11.125,29.14
11.140,27.55
11.156,25.65
11.171,22.98
11.187,19.23
11.203,14.46
11.218,9.08
11.234,3.67
11.250,-1.23
11.265,-5.46
11.281,-9.2
11.296,-12.97
11.312,-17.25
11.328,-22.46
11.343,-28.72
11.359,-35.98
11.375,-43.99
11.390,-52.25
11.406,-59.91
11.421,-65.78
11.437,-68.56
11.453,-67.11
11.468,-61.01
11.484,-50.69
11.500,-37.38
11.515,-22.74
11.531,-8.29
11.546,4.88
11.562,16.35
11.578,26.09
11.593,34.23
11.609,40.82
11.625,45.7
11.640,48.58
11.656,49.28
11.671,47.91
11.687,44.92
11.703,41.05
11.718,37.06
11.734,33.53
11.750,30.71
11.765,28.49
11.781,26.61
11.796,24.85
11.812,23.18
11.828,21.7
11.843,20.53
11.859,19.61
11.875,18.68
11.890,17.27
11.906,14.97
11.921,11.56
11.937,7.16
11.953,2.16
11.968,-2.94
11.984,-7.74
12.000,-12.13
12.015,-16.35
12.031,-20.87
12.046,-26.21
12.062,-32.69
12.078,-40.25
12.093,-48.34
12.109,-56.02
12.125,-62.03
12.140,-65.14
12.156,-64.41
12.171,-59.44
12.187,-50.52
12.203,-38.55
12.218,-24.87
12.234,-10.94
12.250,1.97
12.265,13.05
12.281,21.96
12.296,28.7
12.312,33.53
12.328,36.71
12.343,38.48
12.359,39.06
12.375,38.68
12.390,37.59
12.406,36.01
12.421,34.13
12.437,32.06
12.453,29.85
12.468,27.52
12.484,25.09
12.500,22.64
12.515,20.33
12.531,18.34
12.546,16.74
12.562,15.48
12.578,14.28
12.593,12.7
12.609,10.29
12.625,6.76
12.640,2.16
12.656,-3.19
12.671,-8.69
12.687,-13.86
12.703,-18.44
12.718,-22.6
12.734,-26.76
12.750,-31.48
12.765,-37.17
12.781,-43.83
12.796,-51.05
12.812,-57.9
12.828,-63.2
12.843,-65.72
12.859,-64.49
12.875,-59.1
12.890,-49.84
12.906,-37.64
12.921,-23.8
12.937,-9.72
12.953,3.49
12.968,15.1
12.984,24.82
13.000,32.64
13.015,38.58
13.031,42.72
13.046,45.15
13.062,46.07
13.078,45.83
13.093,44.87
13.109,43.65
13.125,42.48
13.140,41.36
13.156,40.07
13.171,38.29
13.187,35.86
13.203,32.83
13.218,29.54
13.234,26.5
13.250,24.05
13.265,22.29
13.281,20.92
13.296,19.33
13.312,16.87
13.328,13.02
13.343,7.64
13.359,1.0
13.375,-6.3
13.390,-13.59
13.406,-20.38
13.421,-26.44
13.437,-31.92
13.453,-37.15
13.468,-42.49
13.484,-48.2
13.500,-54.16
13.515,-59.92
13.531,-64.72
13.546,-67.53
13.562,-67.28
13.578,-63.27
13.593,-55.42
13.609,-44.42
13.625,-31.6
13.640,-18.52
13.656,-6.51
13.671,3.7
13.687,12.01
13.703,18.8
13.718,24.57
13.734,29.7
13.750,34.31
13.765,38.3
13.781,41.52
13.796,43.79
13.812,45.07
13.828,45.33
13.843,44.6
13.859,42.95
13.875,40.48
13.890,37.38
13.906,33.92
13.921,30.41
13.937,27.16
13.953,24.36
13.968,22.07
13.984,20.16
14.000,18.32
14.015,16.21
14.031,13.46
14.046,9.96
14.062,5.75
14.078,1.15
14.093,-3.45
14.109,-7.74
14.125,-11.58
14.140,-15.19
14.156,-18.98
14.171,-23.46
14.187,-29.05
14.203,-35.86
14.218,-43.64
14.234,-51.66
14.250,-58.83
14.265,-63.81
14.281,-65.35
14.296,-62.57
14.312,-55.37
14.328,-44.48
14.343,-31.3
14.359,-17.47
14.375,-4.33
14.390,7.29
14.406,17.17
14.421,25.44
14.437,32.3
14.453,37.79
14.468,41.78
14.484,44.13
14.500,44.98
14.515,44.66
14.531,43.66
14.546,42.42
14.562,41.06
14.578,39.49
14.593,37.41
14.609,34.58
14.625,31.02
14.640,27.05
14.656,23.19
14.671,20.0
14.687,17.84
14.703,16.64
14.718,15.99
14.734,15.25
14.750,13.79
14.765,11.26
14.781,7.66
14.796,3.33
14.812,-1.27
14.828,-5.67
14.843,-9.72
14.859,-13.54
14.875,-17.55
14.890,-22.27
14.906,-28.16
14.921,-35.33
14.937,-43.38
14.953,-51.37
14.968,-57.87
14.984,-61.42
15.000,-60.88
15.015,-55.87
15.031,-46.83
15.046,-34.91
15.062,-21.61
15.078,-8.43
15.093,3.48
15.109,13.44
15.125,21.14
15.140,26.66
15.156,30.27
15.171,32.38
15.187,33.42
15.203,33.76
15.218,33.55
15.234,32.85
15.250,31.61
15.265,29.84
15.281,27.67
15.296,25.33
15.312,23.0
15.328,20.88
15.343,19.0
15.359,17.4
15.375,16.1
15.390,15.04
15.406,14.0
15.421,12.6
15.437,10.36
15.453,6.9
15.468,2.14
15.484,-3.54
15.500,-9.49
15.515,-14.95
15.531,-19.43
15.546,-22.87
15.562,-25.57
15.578,-28.14
15.593,-31.16
15.609,-35.12
15.625,-40.1
15.640,-45.8
15.656,-51.46
15.671,-56.03
15.687,-58.36
15.703,-57.49
15.718,-53.05
15.734,-45.23
15.750,-34.92
15.765,-23.26
15.781,-11.42
15.796,-0.29
15.812,9.6
15.828,18.02
15.843,24.96
15.859,30.4
15.875,34.31
15.890,36.62
15.906,37.35
15.921,36.67
15.937,34.9
15.953,32.47
15.968,29.83
15.984,27.31
16.000,25.14
16.015,23.35
16.031,21.86
16.046,20.58
16.062,19.44
16.078,18.41
16.093,17.44
16.109,16.39
16.125,14.99
16.140,12.89
16.156,9.79
16.171,5.6
16.187,0.58
16.203,-4.78
16.218,-9.86
16.234,-14.26
16.250,-17.88
16.265,-21.02
16.281,-24.23
16.296,-28.1
16.312,-33.01
16.328,-39.03
16.343,-45.87
16.359,-52.85
16.375,-59.02
16.390,-63.25
16.406,-64.44
16.421,-61.8
16.437,-55.15
16.453,-45.06
16.468,-32.74
16.484,-19.72
16.500,-7.32
16.515,3.64
16.531,12.95
16.546,20.81
16.562,27.52
16.578,33.15
16.593,37.49
16.609,40.25
16.625,41.25
16.640,40.67
16.656,38.95
16.671,36.58
16.687,33.96
16.703,31.25
16.718,28.49
16.734,25.71
16.750,23.04
16.765,20.68
16.781,18.79
16.796,17.41
16.812,16.33
16.828,15.22
16.843,13.7
16.859,11.51
16.875,8.6
16.890,5.09
16.906,1.19
16.921,-2.85
16.937,-6.9
16.953,-10.91
16.968,-14.94
16.984,-19.07
17.000,-23.38
17.015,-27.96
17.031,-32.86
17.046,-38.18
17.062,-43.87
17.078,-49.64
17.093,-54.81
17.109,-58.39
17.125,-59.28
17.140,-56.64
17.156,-50.27
17.171,-40.75
17.187,-29.29
17.203,-17.28
17.218,-5.93
17.234,4.08
17.250,12.53
17.265,19.58
17.281,25.44
17.296,30.24
17.312,33.97
17.328,36.53
17.343,37.81
17.359,37.8
17.375,36.67
17.390,34.65
17.406,32.14
17.421,29.48
17.437,26.95
17.453,24.65
17.468,22.57
17.484,20.65
17.500,18.9
17.515,17.41
17.531,16.23
17.546,15.29
17.562,14.23
17.578,12.58
17.593,9.9
17.609,6.07
17.625,1.37
17.640,-3.66
17.656,-8.47
17.671,-12.75
17.687,-16.51
17.703,-19.99
17.718,-23.53
17.734,-27.51
17.750,-32.24
17.765,-37.94
17.781,-44.62
17.796,-51.88
17.812,-58.77
17.828,-63.89
17.843,-65.84
17.859,-63.62
17.875,-57.14
17.890,-47.25
17.906,-35.48
17.921,-23.42
17.937,-12.25
17.953,-2.47
17.968,5.96
17.984,13.3
18.000,19.74
18.015,25.21
18.031,29.43
18.046,32.13
18.062,33.27
18.078,33.12
18.093,32.16
18.109,30.87
18.125,29.61
18.140,28.47
18.156,27.3
18.171,25.86
18.187,23.98
18.203,21.63
18.218,19.01
18.234,16.48
18.250,14.32
18.265,12.55
18.281,10.91
18.296,8.86
18.312,5.89
18.328,1.86
18.343,-3.01
18.359,-8.16
18.375,-12.96
18.390,-16.99
18.406,-20.24
18.421,-23.01
18.437,-25.81
18.453,-29.09
18.468,-33.09
18.484,-37.85
18.500,-43.17
18.515,-48.58
18.531,-53.32
18.546,-56.42
18.562,-56.78
18.578,-53.66
18.593,-46.81
18.609,-36.71
18.625,-24.41
18.640,-11.25
18.656,1.55
18.671,13.06
18.687,22.77
18.703,30.49
18.718,36.15
18.734,39.79
18.750,41.53
18.765,41.66
18.781,40.55
18.796,38.67
18.812,36.4
18.828,33.88
18.843,31.21
18.859,28.37
18.875,25.5
18.890,22.83
18.906,20.66
18.921,19.15
18.937,18.24
18.953,17.51
18.968,16.34
18.984,14.13
19.000,10.48
19.015,5.41
19.031,-0.67
19.046,-7.11
19.062,-13.28
19.078,-18.75
19.093,-23.43
19.109,-27.55
19.125,-31.48
19.140,-35.72
19.156,-40.58
19.171,-46.23
19.187,-52.53
19.203,-59.01
19.218,-64.87
19.234,-69.0
19.250,-70.26
19.265,-67.77
19.281,-61.22
19.296,-51.09
19.312,-38.48
19.328,-24.88
19.343,-11.65
19.359,0.26
19.375,10.47
19.390,18.99
19.406,25.98
19.421,31.52
19.437,35.54
19.453,37.93
19.468,38.67
19.484,38.0
19.500,36.31
19.515,34.06
19.531,31.57
19.546,29.01
19.562,26.42
19.578,23.81
19.593,21.34
19.609,19.24
19.625,17.78
19.640,17.04
19.656,16.81
19.671,16.6
19.687,15.78
19.703,13.81
19.718,10.45
19.734,5.85
19.750,0.45
19.765,-5.2
19.781,-10.61
19.796,-15.53
19.812,-19.99
19.828,-24.26
19.843,-28.82
19.859,-34.13
19.875,-40.54
19.890,-47.96
19.906,-55.81
19.921,-63.0
19.937,-68.12
19.953,-69.87
19.968,-67.47
19.984,-60.87
20.000,-50.79
20.015,-38.42
20.031,-25.1
20.046,-11.99
20.062,0.07
20.078,10.66
20.093,19.64
20.109,26.99
20.125,32.77
20.140,37.15
20.156,40.27
20.171,42.34
20.187,43.55
20.203,44.0
20.218,43.7
20.234,42.55
20.250,40.51
20.265,37.64
20.281,34.21
20.296,30.66
20.312,27.45
20.328,24.89
20.343,23.01
20.359,21.62
20.375,20.39
20.390,18.96
20.406,17.05
20.421,14.47
20.437,11.13
20.453,7.06
20.468,2.46
20.484,-2.44
20.500,-7.38
20.515,-12.16
20.531,-16.76
20.546,-21.37
20.562,-26.33
20.578,-31.98
20.593,-38.54
20.609,-45.86
20.625,-53.39
20.640,-60.14
20.656,-64.87
20.671,-66.34
20.687,-63.74
20.703,-56.94
20.718,-46.55
20.734,-33.75
20.750,-19.92
20.765,-6.26
20.781,6.45
20.796,17.8
20.812,27.72
20.828,36.14
20.843,42.95
20.859,47.99
20.875,51.19
20.890,52.64
20.906,52.7
20.921,51.82
20.937,50.49
20.953,49.0
20.968,47.47
20.984,45.82
21.000,43.9
21.015,41.7
21.031,39.35
21.046,37.03
21.062,34.87
21.078,32.84
21.093,30.71
21.109,28.22
21.125,25.1
21.140,21.22
21.156,16.63
21.171,11.55
21.187,6.27
21.203,1.11
21.218,-3.72
21.234,-8.24
21.250,-12.69
21.265,-17.43
21.281,-22.87
21.296,-29.31
21.312,-36.83
21.328,-45.27
21.343,-54.21
21.359,-63.02
21.375,-70.71
21.390,-76.07
21.406,-77.84
21.421,-75.06
21.437,-67.45
21.453,-55.66
21.468,-41.09
21.484,-25.54
21.500,-10.69
21.515,2.41
21.531,13.42
21.546,22.56
21.562,30.21
21.578,36.59
21.593,41.59
21.609,44.87
21.625,46.28
21.640,45.98
21.656,44.62
21.671,42.98
21.687,41.61
21.703,40.58
21.718,39.56
21.734,38.09
21.750,35.99
21.765,33.59
21.781,31.49
21.796,30.18
21.812,29.68
21.828,29.38
21.843,28.37
21.859,25.89
21.875,21.69
21.890,16.16
21.906,10.11
21.921,4.3
21.937,-0.8
21.953,-5.18
21.968,-9.17
21.984,-13.18
22.000,-17.57
22.015,-22.53
22.031,-28.19
22.046,-34.53
22.062,-41.42
22.078,-48.47
22.093,-54.88
22.109,-59.51
22.125,-61.08
22.140,-58.6
22.156,-51.7
22.171,-40.88
22.187,-27.34
22.203,-12.67
22.218,1.59
22.234,14.41
22.250,25.31
22.265,34.28
22.281,41.47
22.296,47.0
22.312,50.82
22.328,52.86
22.343,53.18
22.359,51.98
22.375,49.74
22.390,46.95
22.406,44.03
22.421,41.19
22.437,38.51
22.453,35.98
22.468,33.59
22.484,31.41
22.500,29.48
22.515,27.84
22.531,26.38
22.546,24.78
22.562,22.59
22.578,19.31
22.593,14.66
22.609,8.67
22.625,1.77
22.640,-5.44
22.656,-12.34
22.671,-18.56
22.687,-24.1
22.703,-29.24
22.718,-34.37
22.734,-39.84
22.750,-45.89
22.765,-52.52
22.781,-59.45
22.796,-65.98
22.812,-71.09
22.828,-73.53
22.843,-72.19
22.859,-66.61
22.875,-57.12
22.890,-44.86
22.906,-31.32
22.921,-17.89
22.937,-5.4
22.953,5.92
22.968,16.2
22.984,25.63
23.000,34.19
23.015,41.6
23.031,47.48
23.046,51.57
23.062,53.84
23.078,54.47
23.093,53.82
23.109,52.25
23.125,50.0
23.140,47.23
23.156,44.04
23.171,40.57
23.187,37.07
23.203,33.83
23.218,31.17
23.234,29.25
23.250,27.95
23.265,26.89
23.281,25.42
23.296,22.9
23.312,18.91
23.328,13.44
23.343,6.91
23.359,0.04
23.375,-6.42
23.390,-11.99
23.406,-16.53
23.421,-20.41
23.437,-24.29
23.453,-28.95
23.468,-34.98
23.484,-42.59
23.500,-51.31
23.515,-60.02
23.531,-67.1
23.546,-70.83
23.562,-69.9
23.578,-63.8
23.593,-53.07
23.609,-39.1
23.625,-23.73
23.640,-8.74
23.656,4.64
23.671,15.8
23.687,24.79
23.703,31.98
23.718,37.85
23.734,42.69
23.750,46.55
23.765,49.33
23.781,50.86
23.796,51.16
23.812,50.45
23.828,49.09
23.843,47.43
23.859,45.7
23.875,43.89
23.890,41.86
23.906,39.57
23.921,37.11
23.937,34.73
23.953,32.66
23.968,30.89
23.984,29.16
24.000,26.97
24.015,23.87
24.031,19.66
24.046,14.44
24.062,8.57
24.078,2.54
24.093,-3.22
24.109,-8.43
24.125,-12.92
24.140,-16.81
24.156,-20.42
24.171,-24.33
24.187,-29.23
24.203,-35.64
24.218,-43.66
24.234,-52.75
24.250,-61.84
24.265,-69.44
24.281,-74.08
24.296,-74.63
24.312,-70.62
24.328,-62.24
24.343,-50.38
24.359,-36.42
24.375,-21.88
24.390,-8.13
24.406,3.96
24.421,14.07
24.437,22.39
24.453,29.31
24.468,35.1
24.484,39.76
24.500,43.05
24.515,44.71
24.531,44.71
24.546,43.37
24.562,41.17
24.578,38.63
24.593,36.09
24.609,33.62
24.625,31.17
24.640,28.77
24.656,26.51
24.671,24.62
24.687,23.26
24.703,22.41
24.718,21.82
24.734,21.1
24.750,19.81
24.765,17.62
24.781,14.42
24.796,10.3
24.812,5.55
24.828,0.54
24.843,-4.35
24.859,-8.83
24.875,-12.82
24.890,-16.47
24.906,-20.15
24.921,-24.28
24.937,-29.23
24.953,-35.02
24.968,-41.43
24.984,-47.9
25.000,-53.66
25.015,-57.81
25.031,-59.49
25.046,-57.94
25.062,-52.76
25.078,-44.1
25.093,-32.69
25.109,-19.74
25.125,-6.65
25.140,5.4
25.156,15.69
25.171,24.02
25.187,30.51
25.203,35.33
25.218,38.5
25.234,40.04
25.250,39.99
25.265,38.63
25.281,36.46
25.296,34.0
25.312,31.65
25.328,29.5
25.343,27.43
25.359,25.3
25.375,23.13
25.390,21.09
25.406,19.41
25.421,18.25
25.437,17.48
25.453,16.81
25.468,15.83
25.484,14.25
25.500,11.91
25.515,8.86
25.531,5.2
25.546,1.09
25.562,-3.28
25.578,-7.78
25.593,-12.27
25.609,-16.74
25.625,-21.26
25.640,-26.1
25.656,-31.48
25.671,-37.57
25.687,-44.29
25.703,-51.13
25.718,-57.23
25.734,-61.41
25.750,-62.51
25.765,-59.67
25.781,-52.76
25.796,-42.43
25.812,-30.03
25.828,-17.18
25.843,-5.28
25.859,4.8
25.875,12.84
25.890,19.0
25.906,23.6
25.921,26.83
25.937,28.78
25.953,29.54
25.968,29.31
25.984,28.47
26.000,27.46
26.015,26.63
26.031,26.09
26.046,25.73
26.062,25.23
26.078,24.33
26.093,22.88
26.109,20.97
26.125,18.85
26.140,16.83
26.156,15.06
26.171,13.52
26.187,11.92
26.203,9.83
26.218,6.87
26.234,2.86
26.250,-2.1
26.265,-7.61
26.281,-13.12
26.296,-18.16
26.312,-22.48
26.328,-26.15
26.343,-29.52
26.359,-33.07
26.375,-37.24
26.390,-42.23
26.406,-47.88
26.421,-53.6
26.437,-58.51
26.453,-61.49
26.468,-61.47
26.484,-57.77
26.500,-50.27
26.515,-39.56
26.531,-26.84
26.546,-13.58
26.562,-1.13
26.578,9.62
26.593,18.29
26.609,25.05
26.625,30.26
26.640,34.24
26.656,37.09
26.671,38.72
26.687,39.0
26.703,37.99
26.718,36.03
26.734,33.67
26.750,31.43
26.765,29.56
26.781,27.92
26.796,26.13
26.812,23.83
26.828,21.03
26.843,18.12
26.859,15.77
26.875,14.5
26.890,14.38
26.906,14.84
26.921,14.97
26.937,13.88
26.953,11.12
26.968,6.77
26.984,1.36
27.000,-4.44
27.015,-10.08
27.031,-15.32
27.046,-20.17
27.062,-24.81
27.078,-29.38
27.093,-34.07
27.109,-38.95
27.125,-44.08
27.140,-49.27
27.156,-54.0
27.171,-57.41
27.187,-58.37
27.203,-55.93
27.218,-49.71
27.234,-40.2
27.250,-28.65
27.265,-16.65
27.281,-5.58
27.296,3.81
27.312,11.46
27.328,17.8
27.343,23.31
27.359,28.21
27.375,32.41
27.390,35.68
27.406,37.79
27.421,38.71
27.437,38.54
27.453,37.53
27.468,35.93
27.484,34.01
27.500,32.02
27.515,30.17
27.531,28.54
27.546,27.08
27.562,25.61
27.578,23.96
27.593,22.06
27.609,19.99
27.625,17.85
27.640,15.6
27.656,12.98
27.671,9.57
27.687,5.04
27.703,-0.59
27.718,-6.83
27.734,-12.93
27.750,-18.24
27.765,-22.5
27.781,-25.9
27.796,-28.97
27.812,-32.26
27.828,-36.05
27.843,-40.4
27.859,-45.18
27.875,-50.07
27.890,-54.68
27.906,-58.36
27.921,-60.22
27.937,-59.31
27.953,-54.97
27.968,-47.17
27.984,-36.7
28.000,-24.89
28.015,-13.21
28.031,-2.77
28.046,5.94
28.062,13.02
28.078,18.89
28.093,23.96
28.109,28.4
28.125,32.08
28.140,34.71
28.156,36.11
28.171,36.23
28.187,35.29
28.203,33.62
28.218,31.56
28.234,29.33
28.250,27.04
28.265,24.68
28.281,22.29
28.296,19.99
28.312,17.92
28.328,16.29
28.343,15.14
28.359,14.29
28.375,13.35
28.390,11.85
28.406,9.42
28.421,6.03
28.437,1.93
28.453,-2.42
28.468,-6.58
28.484,-10.39
28.500,-14.01
28.515,-17.76
28.531,-22.03
28.546,-27.0
28.562,-32.68
28.578,-38.92
28.593,-45.37
28.609,-51.48
28.625,-56.42
28.640,-59.15
28.656,-58.58
28.671,-54.08
28.687,-45.76
28.703,-34.61
28.718,-22.24
28.734,-10.35
28.750,-0.16
28.765,7.9
28.781,14.12
28.796,19.11
28.812,23.38
28.828,27.06
28.843,29.9
28.859,31.53
28.875,31.76
28.890,30.7
28.906,28.71
28.921,26.24
28.937,23.64
28.953,21.02
28.968,18.42
28.984,15.91
29.000,13.72
29.015,12.13
29.031,11.31
29.046,11.12
29.062,11.07
29.078,10.53
29.093,8.9
29.109,5.97
29.125,1.89
29.140,-2.79
29.156,-7.54
29.171,-11.88
29.187,-15.71
29.203,-19.21
29.218,-22.77
29.234,-26.9
29.250,-32.0
29.265,-38.29
29.281,-45.66
29.296,-53.6
29.312,-61.11
29.328,-66.88
29.343,-69.55
29.359,-68.12
29.375,-62.34
29.390,-52.78
29.406,-40.73
29.421,-27.8
29.437,-15.39
29.453,-4.41
29.468,4.84
29.484,12.49
29.500,18.82
29.515,23.98
29.531,27.98
29.546,30.65
29.562,31.9
29.578,31.76
29.593,30.5
29.609,28.51
29.625,26.21
29.640,23.93
29.656,21.88
29.671,20.08
29.687,18.51
29.703,17.13
29.718,15.97
29.734,15.12
29.750,14.58
29.765,14.23
29.781,13.68
29.796,12.4
29.812,9.88
29.828,5.92
29.843,0.75
29.859,-4.98
29.875,-10.47
29.890,-15.13
29.906,-18.8
29.921,-21.86
29.937,-25.02
29.953,-29.07
29.968,-34.5
29.984,-41.37
30.000,-49.3
30.015,-57.47
30.031,-64.73
30.046,-69.72
30.062,-71.15
30.078,-68.21
30.093,-60.8
30.109,-49.69
30.125,-36.24
30.140,-22.09
30.156,-8.6
30.171,3.38
30.187,13.59
30.203,22.16
30.218,29.24
30.234,34.95
30.250,39.19
30.265,41.87
30.281,42.86
30.296,42.24
30.312,40.23
30.328,37.25
30.343,33.86
30.359,30.59
30.375,27.79
30.390,25.54
30.406,23.71
30.421,22.03
30.437,20.36
30.453,18.67
30.468,17.0
30.484,15.35
30.500,13.55
30.515,11.26
30.531,8.09
30.546,3.78
30.562,-1.59
30.578,-7.6
30.593,-13.71
30.609,-19.35
30.625,-24.23
30.640,-28.36
30.656,-32.1
30.671,-35.96
30.687,-40.48
30.703,-45.95
30.718,-52.3
30.734,-58.98
30.750,-65.0
30.765,-69.03
30.781,-69.79
30.796,-66.43
30.812,-58.88
30.828,-47.94
30.843,-35.03
30.859,-21.67
30.875,-9.0
30.890,2.48
30.906,12.84
30.921,22.34
30.937,31.1
30.953,38.91
30.968,45.34
30.984,49.96
31.000,52.61
31.015,53.5
31.031,53.0
31.046,51.56
31.062,49.58
31.078,47.34
31.093,45.02
31.109,42.69
31.125,40.38
31.140,38.06
31.156,35.75
31.171,33.47
31.187,31.26
31.203,29.11
31.218,26.86
31.234,24.28
31.250,21.1
31.265,17.11
31.281,12.32
31.296,6.93
31.312,1.3
31.328,-4.17
31.343,-9.16
31.359,-13.56
31.375,-17.48
31.390,-21.25
31.406,-25.38
31.421,-30.33
31.437,-36.49
31.453,-43.95
31.468,-52.39
31.484,-61.0
31.500,-68.49
31.515,-73.32
31.531,-74.05
31.546,-69.86
31.562,-60.84
31.578,-48.09
31.593,-33.36
31.609,-18.52
31.625,-4.97
31.640,6.7
31.656,16.61
31.671,25.21
31.687,32.81
31.703,39.41
31.718,44.65
31.734,48.16
31.750,49.81
31.765,49.88
31.781,48.97
31.796,47.7
31.812,46.47
31.828,45.35
31.843,44.17
31.859,42.74
31.875,40.98
31.890,39.09
31.906,37.32
31.921,35.85
31.937,34.6
31.953,33.26
31.968,31.36
31.984,28.58
32.000,24.88
32.015,20.41
32.031,15.52
32.046,10.46
32.062,5.41
32.078,0.41
32.093,-4.5
32.109,-9.24
32.125,-13.76
32.140,-18.13
32.156,-22.56
32.171,-27.43
32.187,-33.11
32.203,-39.65
32.218,-46.66
32.234,-53.19
32.250,-57.91
32.265,-59.42
32.281,-56.72
32.296,-49.47
32.312,-38.14
32.328,-23.93
32.343,-8.43
32.359,6.84
32.375,20.79
32.390,32.96
32.406,43.46
32.421,52.6
32.437,60.63
32.453,67.54
32.468,73.07
32.484,76.93
32.500,79.02
32.515,79.47
32.531,78.68
32.546,76.99
32.562,74.61
32.578,71.5
32.593,67.44
32.609,62.28
32.625,56.13
32.640,49.5
32.656,43.14
32.671,37.8
32.687,33.93
32.703,31.41
32.718,29.64
32.734,27.61
32.750,24.36
32.765,19.29
32.781,12.41
32.796,4.26
32.812,-4.33
32.828,-12.62
32.843,-20.19
32.859,-27.09
32.875,-33.73
32.890,-40.62
32.906,-48.21
32.921,-56.71
32.937,-65.99
32.953,-75.53
32.968,-84.39
32.984,-91.26
33.000,-94.72
33.015,-93.63
33.031,-87.52
33.046,-76.78
33.062,-62.68
33.078,-46.95
33.093,-31.24
33.109,-16.74
33.125,-4.02
33.140,6.89
33.156,16.06
33.171,23.5
33.187,29.08
33.203,32.71
33.218,34.51
33.234,34.82
33.250,34.16
33.265,33.02
33.281,31.73
33.296,30.42
33.312,29.13
33.328,27.89
33.343,26.78
33.359,25.92
33.375,25.38
33.390,25.09
33.406,24.81
33.421,24.22
33.437,22.95
33.453,20.71
33.468,17.4
33.484,13.1
33.500,8.11
33.515,2.77
33.531,-2.62
33.546,-7.82
33.562,-12.68
33.578,-17.16
33.593,-21.26
33.609,-25.07
33.625,-28.81
33.640,-32.88
33.656,-37.81
33.671,-44.03
33.687,-51.67
33.703,-60.27
33.718,-68.76
33.734,-75.63
33.750,-79.25
33.765,-78.4
33.781,-72.58
33.796,-62.26
33.812,-48.67
33.828,-33.52
33.843,-18.5
33.859,-4.85
33.875,6.8
33.890,16.5
33.906,24.65
33.921,31.74
33.937,38.13
33.953,43.81
33.968,48.53
33.984,51.89
34.000,53.62
34.015,53.68
34.031,52.37
34.046,50.17
34.062,47.56
34.078,44.87
34.093,42.19
34.109,39.54
34.125,36.97
34.140,34.67
34.156,32.82
34.171,31.47
34.187,30.38
34.203,29.05
34.218,26.95
34.234,23.64
34.250,19.01
34.265,13.27
34.281,6.81
34.296,0.03
34.312,-6.68
34.328,-13.08
34.343,-19.07
34.359,-24.68
34.375,-30.11
34.390,-35.61
34.406,-41.42
34.421,-47.73
34.437,-54.59
34.453,-61.87
34.468,-69.2
34.484,-75.85
34.500,-80.7
34.515,-82.38
34.531,-79.69
34.546,-72.08
34.562,-60.0
34.578,-44.83
34.593,-28.48
34.609,-12.72
34.625,1.3
34.640,13.23
34.656,23.23
34.671,31.57
34.687,38.37
34.703,43.53
34.718,46.96
34.734,48.74
34.750,49.18
34.765,48.7
34.781,47.7
34.796,46.39
34.812,44.91
34.828,43.34
34.843,41.79
34.859,40.32
34.875,38.92
34.890,37.45
34.906,35.74
34.921,33.68
34.937,31.26
34.953,28.59
34.968,25.8
34.984,22.82
35.000,19.52
35.015,15.72
35.031,11.33
35.046,6.47
35.062,1.44
35.078,-3.48
35.093,-8.16
35.109,-12.67
35.125,-17.24
35.140,-22.09
35.156,-27.33
35.171,-33.03
35.187,-39.25
35.203,-46.06
35.218,-53.48
35.234,-61.25
35.250,-68.54
35.265,-74.02
35.281,-76.09
35.296,-73.5
35.312,-65.81
35.328,-53.75
35.343,-38.91
35.359,-23.3
35.375,-8.67
35.390,3.97
35.406,14.35
35.421,22.69
35.437,29.31
35.453,34.42
35.468,38.0
35.484,40.02
35.500,40.59
35.515,40.05
35.531,38.94
35.546,37.73
35.562,36.67
35.578,35.78
35.593,34.86
35.609,33.66
35.625,32.02
35.640,29.98
35.656,27.72
35.671,25.52
35.687,23.55
35.703,21.81
35.718,20.14
35.734,18.19
35.750,15.54
35.765,11.93
35.781,7.37
35.796,2.16
35.812,-3.14
35.828,-8.03
35.843,-12.19
35.859,-15.69
35.875,-18.98
35.890,-22.7
35.906,-27.46
35.921,-33.6
35.937,-41.08
35.953,-49.38
35.968,-57.59
35.984,-64.39
36.000,-68.38
36.015,-68.3
36.031,-63.43
36.046,-53.9
36.062,-40.75
36.078,-25.68
36.093,-10.57
36.109,3.03
36.125,14.35
36.140,23.38
36.156,30.6
36.171,36.54
36.187,41.44
36.203,45.08
36.218,47.0
36.234,46.92
36.250,44.95
36.265,41.74
36.281,38.21
36.296,35.15
36.312,32.95
36.328,31.45
36.343,30.23
36.359,28.92
36.375,27.44
36.390,26.03
36.406,24.97
36.421,24.26
36.437,23.48
36.453,21.87
36.468,18.69
36.484,13.59
36.500,6.88
36.515,-0.65
36.531,-7.99
36.546,-14.35
36.562,-19.5
36.578,-23.68
36.593,-27.45
36.609,-31.45
36.625,-36.16
36.640,-41.85
36.656,-48.52
36.671,-55.98
36.687,-63.63
36.703,-70.57
36.718,-75.56
36.734,-77.29
36.750,-74.75
36.765,-67.71
36.781,-56.75
36.796,-43.28
36.812,-28.99
36.828,-15.34
36.843,-3.24
36.859,7.16
36.875,16.15
36.890,24.16
36.906,31.38
36.921,37.65
36.937,42.59
36.953,45.82
36.968,47.24
36.984,46.99
37.000,45.49
37.015,43.18
37.031,40.45
37.046,37.6
37.062,34.86
37.078,32.39
37.093,30.3
37.109,28.59
37.125,27.11
37.140,25.64
37.156,23.95
37.171,21.86
37.187,19.3
37.203,16.27
37.218,12.72
37.234,8.52
37.250,3.58
37.265,-2.04
37.281,-8.09
37.296,-14.09
37.312,-19.62
37.328,-24.43
37.343,-28.71
37.359,-32.96
37.375,-37.87
37.390,-43.95
37.406,-51.34
37.421,-59.53
37.437,-67.5
37.453,-73.76
37.468,-76.72
37.484,-75.14
37.500,-68.48
37.515,-57.21
37.531,-42.7
37.546,-26.81
37.562,-11.39
37.578,2.31
37.593,13.78
37.609,23.21
37.625,31.01
37.640,37.51
37.656,42.7
37.671,46.41
37.687,48.47
37.703,48.96
37.718,48.25
37.734,46.86
37.750,45.24
37.765,43.61
37.781,42.03
37.796,40.39
37.812,38.68
37.828,36.95
37.843,35.33
37.859,33.88
37.875,32.57
37.890,31.17
37.906,29.39
37.921,26.92
37.937,23.54
37.953,19.17
37.968,13.88
37.984,7.87
38.000,1.43
38.015,-5.03
38.031,-11.11
38.046,-16.44
38.062,-20.85
38.078,-24.41
38.093,-27.54
38.109,-30.9
38.125,-35.18
38.140,-40.9
38.156,-48.11
38.171,-56.29
38.187,-64.26
38.203,-70.5
38.218,-73.39
38.234,-71.73
38.250,-65.09
38.265,-53.99
38.281,-39.76
38.296,-24.18
38.312,-8.93
38.328,4.86
38.343,16.71
38.359,26.68
38.375,35.0
38.390,41.85
38.406,47.21
38.421,50.92
38.437,52.93
38.453,53.39
38.468,52.65
38.484,51.15
38.500,49.23
38.515,47.05
38.531,44.63
38.546,42.0
38.562,39.28
38.578,36.71
38.593,34.59
38.609,33.11
38.625,32.21
38.640,31.51
38.656,30.4
38.671,28.21
38.687,24.52
38.703,19.26
38.718,12.84
38.734,6.0
38.750,-0.41
38.765,-5.81
38.781,-10.05
38.796,-13.47
38.812,-16.72
38.828,-20.47
38.843,-25.28
38.859,-31.38
38.875,-38.74
38.890,-47.09
38.906,-55.86
38.921,-64.08
38.937,-70.44
38.953,-73.47
38.968,-71.97
38.984,-65.48
39.000,-54.53
39.015,-40.6
39.031,-25.57
39.046,-11.18
39.062,1.45
39.078,12.01
39.093,20.7
39.109,27.97
39.125,34.05
39.140,38.92
39.156,42.31
39.171,43.92
39.187,43.66
39.203,41.74
39.218,38.64
39.234,34.98
39.250,31.36
39.265,28.17
39.281,25.65
39.296,23.79
39.312,22.51
39.328,21.69
39.343,21.15
39.359,20.64
39.375,19.86
39.390,18.47
39.406,16.11
39.421,12.53
39.437,7.74
39.453,1.97
39.468,-4.21
39.484,-10.14
39.500,-15.29
39.515,-19.41
39.531,-22.7
39.546,-25.7
39.562,-29.14
39.578,-33.67
39.593,-39.67
39.609,-47.04
39.625,-55.15
39.640,-62.95
39.656,-68.93
39.671,-71.6
39.687,-69.78
39.703,-63.06
39.718,-51.96
39.734,-37.78
39.750,-22.27
39.765,-7.1
39.781,6.54
39.796,18.05
39.812,27.35
39.828,34.61
39.843,40.02
39.859,43.67
39.875,45.61
39.890,45.93
39.906,44.88
39.921,42.9
39.937,40.5
39.953,38.11
39.968,35.94
39.984,34.03
40.000,32.18
40.015,30.22
40.031,28.05
40.046,25.79
40.062,23.7
40.078,21.93
40.093,20.46
40.109,18.99
40.125,17.07
40.140,14.26
40.156,10.37
40.171,5.43
40.187,-0.17
40.203,-6.01
40.218,-11.66
40.234,-16.81
40.250,-21.4
40.265,-25.53
40.281,-29.58
40.296,-34.08
40.312,-39.65
40.328,-46.61
40.343,-54.83
40.359,-63.39
40.375,-70.74
40.390,-75.1
40.406,-74.9
40.421,-69.4
40.437,-58.97
40.453,-44.96
40.468,-29.28
40.484,-13.8
40.500,0.16
40.515,12.01
40.531,21.8
40.546,29.89
40.562,36.55
40.578,41.91
40.593,45.96
40.609,48.65
40.625,50.06
40.640,50.35
40.656,49.74
40.671,48.35
40.687,46.29
40.703,43.69
40.718,40.75
40.734,37.79
40.750,35.15
40.765,33.08
40.781,31.6
40.796,30.54
40.812,29.54
40.828,28.1
40.843,25.74
40.859,22.07
40.875,16.99
40.890,10.74
40.906,3.92
40.921,-2.73
40.937,-8.57
40.953,-13.32
40.968,-17.13
40.984,-20.53
41.000,-24.18
41.015,-28.61
41.031,-34.17
41.046,-40.93
41.062,-48.7
41.078,-56.99
41.093,-64.85
41.109,-70.98
41.125,-73.87
41.140,-72.29
41.156,-65.74
41.171,-54.73
41.187,-40.68
41.203,-25.49
41.218,-10.89
41.234,2.01
41.250,12.87
41.265,21.93
41.281,29.65
41.296,36.34
41.312,42.05
41.328,46.51
41.343,49.41
41.359,50.52
41.375,49.87
41.390,47.81
41.406,44.89
41.421,41.76
41.437,38.88
41.453,36.52
41.468,34.65
41.484,33.12
41.500,31.83
41.515,30.72
41.531,29.8
41.546,29.03
41.562,28.24
41.578,27.11
41.593,25.29
41.609,22.53
41.625,18.8
41.640,14.25
41.656,9.16
41.671,3.8
41.687,-1.57
41.703,-6.85
41.718,-12.02
41.734,-17.16
41.750,-22.36
41.765,-27.76
41.781,-33.55
41.796,-39.9
41.812,-46.94
41.828,-54.53
41.843,-62.18
41.859,-68.9
41.875,-73.35
41.890,-74.24
41.906,-70.71
41.921,-62.72
41.937,-51.07
41.953,-37.15
41.968,-22.49
41.984,-8.36
42.000,4.47
42.015,15.66
42.031,25.12
42.046,32.85
42.062,38.84
42.078,43.04
42.093,45.41
42.109,46.04
42.125,45.12
42.140,43.0
42.156,40.17
42.171,37.13
42.187,34.26
42.203,31.79
42.218,29.75
42.234,28.04
42.250,26.61
42.265,25.5
42.281,24.79
42.296,24.56
42.312,24.62
42.328,24.57
42.343,23.88
42.359,22.0
42.375,18.56
42.390,13.58
42.406,7.29
42.421,0.23
42.437,-6.96
42.453,-13.71
42.468,-19.61
42.484,-24.58
42.500,-28.84
42.515,-32.92
42.531,-37.41
42.546,-42.81
42.562,-49.29
42.578,-56.49
42.593,-63.52
42.609,-69.03
42.625,-71.57
42.640,-70.02
42.656,-63.93
42.671,-53.74
42.687,-40.69
42.703,-26.38
42.718,-12.33
42.734,0.42
42.750,11.37
42.765,20.44
42.781,27.73
42.796,33.34
42.812,37.34
42.828,39.77
42.843,40.76
42.859,40.52
42.875,39.39
42.890,37.71
42.906,35.81
42.921,33.9
42.937,32.06
42.953,30.25
42.968,28.35
42.984,26.27
43.000,24.0
43.015,21.72
43.031,19.7
43.046,18.14
43.062,17.0
43.078,15.91
43.093,14.23
43.109,11.31
43.125,6.87
43.140,1.07
43.156,-5.43
43.171,-11.76
43.187,-17.24
43.203,-21.63
43.218,-25.22
43.234,-28.69
43.250,-32.85
43.265,-38.27
43.281,-45.08
43.296,-52.9
43.312,-60.72
43.328,-67.11
43.343,-70.49
43.359,-69.6
43.375,-63.88
43.390,-53.8
43.406,-40.61
43.421,-26.06
43.437,-11.79
43.453,1.1
43.468,12.1
43.484,21.25
43.500,28.75
43.515,34.73
43.531,39.19
43.546,42.02
43.562,43.23
43.578,42.93
43.593,41.49
43.609,39.34
43.625,36.96
43.640,34.72
43.656,32.78
43.671,31.12
43.687,29.54
43.703,27.82
43.718,25.81
43.734,23.53
43.750,21.18
43.765,18.97
43.781,16.91
43.796,14.69
43.812,11.72
43.828,7.45
43.843,1.69
43.859,-5.16
43.875,-12.16
43.890,-18.3
43.906,-22.94
43.921,-26.19
43.937,-28.82
43.953,-31.89
43.968,-36.32
43.984,-42.47
44.000,-50.08
44.015,-58.32
44.031,-66.05
44.046,-71.92
44.062,-74.6
44.078,-73.0
44.093,-66.64
44.109,-55.84
44.125,-41.8
44.140,-26.26
44.156,-11.04
44.171,2.56
44.187,13.94
44.203,23.24
44.218,30.89
44.234,37.22
44.250,42.21
44.265,45.58
44.281,47.05
44.296,46.7
44.312,44.98
44.328,42.57
44.343,40.03
44.359,37.59
44.375,35.13
44.390,32.41
44.406,29.41
44.421,26.42
44.437,23.9
44.453,22.25
44.468,21.46
44.484,21.06
44.500,20.28
44.515,18.34
44.531,14.8
44.546,9.66
44.562,3.32
44.578,-3.55
44.593,-10.28
44.609,-16.27
44.625,-21.25
44.640,-25.19
44.656,-28.45
44.671,-31.64
44.687,-35.47
44.703,-40.59
44.718,-47.33
44.734,-55.44
44.750,-64.0
44.765,-71.49
44.781,-76.14
44.796,-76.54
44.812,-71.96
44.828,-62.71
44.843,-49.96
44.859,-35.3
44.875,-20.36
44.890,-6.37
44.906,5.98
44.921,16.53
44.937,25.37
44.953,32.74
44.968,38.83
44.984,43.7
45.000,47.37
45.015,49.72
45.031,50.69
45.046,50.3
45.062,48.74
45.078,46.35
45.093,43.51
45.109,40.53
45.125,37.55
45.140,34.69
45.156,32.05
45.171,29.84
45.187,28.26
45.203,27.4
45.218,26.98
45.234,26.43
45.250,24.94
45.265,21.78
45.281,16.7
45.296,10.01
45.312,2.56
45.328,-4.64
45.343,-10.73
45.359,-15.43
45.375,-18.94
45.390,-21.98
45.406,-25.42
45.421,-30.01
45.437,-36.18
45.453,-43.87
45.468,-52.46
45.484,-60.82
45.500,-67.49
45.515,-71.07
45.531,-70.48
45.546,-65.37
45.562,-56.15
45.578,-43.88
45.593,-29.97
45.609,-15.83
45.625,-2.58
45.640,9.02
45.656,18.64
45.671,26.28
45.687,32.22
45.703,36.86
45.718,40.57
45.734,43.48
45.750,45.51
45.765,46.34
45.781,45.77
45.796,43.83
45.812,40.86
45.828,37.41
45.843,34.0
45.859,30.92
45.875,28.21
45.890,25.78
45.906,23.6
45.921,21.7
45.937,20.17
45.953,18.97
45.968,17.79
45.984,16.14
46.000,13.43
46.015,9.31
46.031,3.83
46.046,-2.51
46.062,-8.91
46.078,-14.61
46.093,-19.2
46.109,-22.76
46.125,-25.82
46.140,-29.14
46.156,-33.37
46.171,-38.89
46.187,-45.6
46.203,-52.89
46.218,-59.75
46.234,-64.89
46.250,-66.99
46.265,-65.12
46.281,-58.94
46.296,-48.93
46.312,-36.28
46.328,-22.62
46.343,-9.44
46.359,2.2
46.375,11.86
46.390,19.58
46.406,25.61
46.421,30.23
46.437,33.56
46.453,35.61
46.468,36.33
46.484,35.79
46.500,34.13
46.515,31.64
46.531,28.68
46.546,25.56
46.562,22.47
46.578,19.55
46.593,16.78
46.609,14.14
46.625,11.62
46.640,9.24
46.656,6.95
46.671,4.67
46.687,2.18
46.703,-0.8
46.718,-4.55
46.734,-9.25
46.750,-14.9
46.765,-21.3
46.781,-28.03
46.796,-34.67
46.812,-40.81
46.828,-46.29
46.843,-51.16
46.859,-55.71
46.875,-60.37
46.890,-65.53
46.906,-71.32
46.921,-77.42
46.937,-83.07
46.953,-87.08
46.968,-88.18
46.984,-85.22
47.000,-77.61
47.015,-65.51
47.031,-49.92
47.046,-32.47
47.062,-14.95
47.078,1.07
47.093,14.6
47.109,25.25
47.125,33.05
47.140,38.24
47.156,41.19
47.171,42.41
47.187,42.6
47.203,42.75
47.218,43.82
47.234,46.5
47.250,50.8
47.265,56.0
47.281,60.96
47.296,64.53
47.312,66.09
47.328,65.58
47.343,63.49
47.359,60.41
47.375,56.8
47.390,52.71
47.406,47.92
47.421,42.12
47.437,35.14
47.453,27.14
47.468,18.54
47.484,10.01
47.500,2.14
47.515,-4.65
47.531,-10.29
47.546,-14.97
47.562,-19.07
47.578,-23.0
47.593,-27.04
47.609,-31.37
47.625,-35.93
47.640,-40.43
47.656,-44.21
47.671,-46.28
47.687,-45.53
47.703,-41.1
47.718,-32.78
47.734,-21.2
47.750,-7.75
47.765,5.88
47.781,18.24
47.796,28.57
47.812,36.83
47.828,43.41
47.843,48.75
47.859,52.99
47.875,56.03
47.890,57.68
47.906,57.9
47.921,56.92
47.937,55.13
47.953,52.86
47.968,50.18
47.984,46.98
48.000,43.07
48.015,38.51
48.031,33.64
48.046,28.98
48.062,25.02
48.078,21.9
48.093,19.36
48.109,16.85
48.125,13.77
48.140,9.74
48.156,4.67
48.171,-1.2
48.187,-7.48
48.203,-13.71
48.218,-19.61
48.234,-25.02
48.250,-30.1
48.265,-35.22
48.281,-40.9
48.296,-47.53
48.312,-55.17
48.328,-63.24
48.343,-70.64
48.359,-75.94
48.375,-77.82
48.390,-75.43
48.406,-68.66
48.421,-58.16
48.437,-45.09
48.453,-30.8
48.468,-16.5
48.484,-3.06
48.500,8.98
48.515,19.43
48.531,28.25
48.546,35.48
48.562,41.11
48.578,45.13
48.593,47.58
48.609,48.58
48.625,48.43
48.640,47.49
48.656,46.04
48.671,44.27
48.687,42.19
48.703,39.73
48.718,36.85
48.734,33.64
48.750,30.32
48.765,27.2
48.781,24.52
48.796,22.33
48.812,20.43
48.828,18.44
48.843,15.93
48.859,12.53
48.875,8.17
48.890,2.99
48.906,-2.66
48.921,-8.37
48.937,-13.86
48.953,-19.04
48.968,-24.09
48.984,-29.26
49.000,-34.82
49.015,-40.92
49.031,-47.47
49.046,-54.12
49.062,-60.16
49.078,-64.59
49.093,-66.33
49.109,-64.5
49.125,-58.69
49.140,-49.21
49.156,-36.99
49.171,-23.36
49.187,-9.68
49.203,3.01
49.218,14.14
49.234,23.54
49.250,31.26
49.265,37.42
49.281,42.04
49.296,45.1
49.312,46.66
49.328,46.9
49.343,46.19
49.359,44.95
49.375,43.49
49.390,41.92
49.406,40.12
49.421,37.85
49.437,35.03
49.453,31.84
49.468,28.7
49.484,26.05
49.500,24.04
49.515,22.45
49.531,20.72
49.546,18.25
49.562,14.68
49.578,10.07
49.593,4.76
49.609,-0.74
49.625,-6.04
49.640,-10.94
49.656,-15.5
49.671,-19.93
49.687,-24.45
49.703,-29.33
49.718,-34.77
49.734,-40.95
49.750,-47.85
49.765,-55.11
49.781,-61.95
49.796,-67.18
49.812,-69.5
49.828,-67.84
49.843,-61.77
49.859,-51.64
49.875,-38.63
49.890,-24.32
49.906,-10.26
49.921,2.47
49.937,13.38
49.953,22.47
49.968,29.92
49.984,35.79
50.000,39.93
50.015,42.11
50.031,42.27
50.046,40.67
50.062,37.9
50.078,34.63
50.093,31.43
50.109,28.55
50.125,25.99
50.140,23.59
50.156,21.3
50.171,19.22
50.187,17.6
50.203,16.62
50.218,16.23
50.234,16.06
50.250,15.49
50.265,13.9
50.281,10.9
50.296,6.48
50.312,1.0
50.328,-4.95
50.343,-10.82
50.359,-16.31
50.375,-21.5
50.390,-26.69
50.406,-32.23
50.421,-38.35
50.437,-45.05
50.453,-52.01
50.468,-58.63
50.484,-64.04
50.500,-67.15
50.515,-66.99
50.531,-62.85
50.546,-54.66
50.562,-43.08
50.578,-29.37
50.593,-15.06
50.609,-1.54
50.625,10.23
50.640,19.84
50.656,27.15
50.671,32.29
50.687,35.47
50.703,36.98
50.718,37.18
50.734,36.47
50.750,35.25
50.765,33.82
50.781,32.35
50.796,30.86
50.812,29.31
50.828,27.69
50.843,25.92
50.859,24.02
50.875,21.95
50.890,19.74
50.906,17.43
50.921,15.06
50.937,12.59
50.953,9.81
50.968,6.45
50.984,2.22
51.000,-2.94
51.015,-8.86
51.031,-15.08
51.046,-21.12
51.062,-26.62
51.078,-31.57
51.093,-36.29
51.109,-41.35
51.125,-47.26
51.140,-54.15
51.156,-61.6
51.171,-68.54
51.187,-73.5
51.203,-75.02
51.218,-72.07
51.234,-64.48
51.250,-53.03
51.265,-39.16
51.281,-24.48
51.296,-10.29
51.312,2.65
51.328,14.15
51.343,24.26
51.359,33.06
51.375,40.51
51.390,46.43
51.406,50.65
51.421,53.14
51.437,54.03
51.453,53.6
51.468,52.18
51.484,50.06
51.500,47.59
51.515,45.08
51.531,42.81
51.546,40.97
51.562,39.59
51.578,38.53
51.593,37.51
51.609,36.19
51.625,34.27
51.640,31.53
51.656,27.85
51.671,23.18
51.687,17.58
51.703,11.25
51.718,4.58
51.734,-1.9
51.750,-7.65
51.765,-12.38
51.781,-16.18
51.796,-19.64
51.812,-23.65
51.828,-29.03
51.843,-36.19
51.859,-44.8
51.875,-53.72
51.890,-61.37
51.906,-66.01
51.921,-66.38
51.937,-62.0
51.953,-53.2
51.968,-41.06
51.984,-27.04
52.000,-12.59
52.015,1.14
52.031,13.41
52.046,23.94
52.062,32.74
52.078,39.9
52.093,45.52
52.109,49.6
52.125,52.1
52.140,53.04
52.156,52.56
52.171,50.99
52.187,48.67
52.203,45.9
52.218,42.8
52.234,39.36
52.250,35.56
52.265,31.47
52.281,27.35
52.296,23.53
52.312,20.26
52.328,17.58
52.343,15.22
52.359,12.77
52.375,9.83
52.390,6.19
52.406,1.96
52.421,-2.56
52.437,-6.93
52.453,-10.84
52.468,-14.21
52.484,-17.32
52.500,-20.61
52.515,-24.63
52.531,-29.81
52.546,-36.33
52.562,-44.08
52.578,-52.53
52.593,-60.75
52.609,-67.41
52.625,-71.14
52.640,-70.72
52.656,-65.6
52.671,-56.11
52.687,-43.41
52.703,-29.21
52.718,-15.13
52.734,-2.3
52.750,8.87
52.765,18.47
52.781,26.8
52.796,33.91
52.812,39.63
52.828,43.63
52.843,45.7
52.859,45.93
52.875,44.66
52.890,42.39
52.906,39.56
52.921,36.49
52.937,33.45
52.953,30.64
52.968,28.36
52.984,26.8
53.000,26.09
53.015,26.08
53.031,26.37
53.046,26.38
53.062,25.55
53.078,23.46
53.093,19.95
53.109,15.15
53.125,9.43
53.140,3.35
53.156,-2.5
53.171,-7.64
53.187,-11.85
53.203,-15.21
53.218,-18.07
53.234,-20.96
53.250,-24.38
53.265,-28.74
53.281,-34.17
53.296,-40.44
53.312,-47.01
53.328,-52.86
53.343,-56.81
53.359,-57.71
53.375,-54.75
53.390,-47.8
53.406,-37.46
53.421,-24.94
53.437,-11.67
53.453,1.02
53.468,12.31
53.484,21.8
53.500,29.54
53.515,35.71
53.531,40.45
53.546,43.76
53.562,45.48
53.578,45.52
53.593,43.95
53.609,41.13
53.625,37.63
53.640,34.05
53.656,30.8
53.671,28.02
53.687,25.57
53.703,23.24
53.718,20.92
53.734,18.7
53.750,16.85
53.765,15.55
53.781,14.75
53.796,14.03
53.812,12.76
53.828,10.35
53.843,6.56
53.859,1.56
53.875,-4.07
53.890,-9.68
53.906,-14.85
53.921,-19.52
53.937,-24.03
53.953,-28.86
53.968,-34.38
53.984,-40.72
54.000,-47.7
54.015,-54.89
54.031,-61.6
54.046,-66.95
54.062,-69.89
54.078,-69.47
54.093,-65.01
54.109,-56.49
54.125,-44.64
54.140,-30.82
54.156,-16.64
54.171,-3.47
54.187,7.89
54.203,17.27
54.218,24.88
54.234,31.06
54.250,35.94
54.265,39.44
54.281,41.37
54.296,41.66
54.312,40.47
54.328,38.23
54.343,35.52
54.359,32.78
54.375,30.27
54.390,27.94
54.406,25.62
54.421,23.15
54.437,20.55
54.453,18.0
54.468,15.71
54.484,13.9
54.500,12.52
54.515,11.27
54.531,9.67
54.546,7.23
54.562,3.68
54.578,-0.95
54.593,-6.33
54.609,-11.95
54.625,-17.31
54.640,-22.16
54.656,-26.57
54.671,-30.85
54.687,-35.43
54.703,-40.69
54.718,-46.85
54.734,-53.84
54.750,-61.24
54.765,-68.24
54.781,-73.66
54.796,-76.17
54.812,-74.66
54.828,-68.56
54.843,-58.25
54.859,-44.91
54.875,-30.28
54.890,-16.08
54.906,-3.5
54.921,7.0
54.937,15.62
54.953,22.88
54.968,29.18
54.984,34.52
55.000,38.68
55.015,41.33
55.031,42.38
55.046,42.08
55.062,40.91
55.078,39.45
55.093,38.1
55.109,37.0
55.125,35.98
55.140,34.8
55.156,33.28
55.171,31.44
55.187,29.52
55.203,27.73
55.218,26.2
55.234,24.8
55.250,23.21
55.265,20.95
55.281,17.67
55.296,13.23
55.312,7.8
55.328,1.93
55.343,-3.77
55.359,-8.73
55.375,-12.84
55.390,-16.46
55.406,-20.33
55.421,-25.24
55.437,-31.73
55.453,-39.74
55.468,-48.62
55.484,-57.3
55.500,-64.54
55.515,-69.2
55.531,-70.44
55.546,-67.8
55.562,-61.25
55.578,-51.22
55.593,-38.6
55.609,-24.59
55.625,-10.49
55.640,2.61
55.656,13.94
55.671,23.15
55.687,30.25
55.703,35.4
55.718,38.81
55.734,40.62
55.750,40.98
55.765,40.05
55.781,38.17
55.796,35.78
55.812,33.35
55.828,31.25
55.843,29.54
55.859,28.09
55.875,26.64
55.890,25.11
55.906,23.53
55.921,22.14
55.937,21.09
55.953,20.33
55.968,19.46
55.984,17.92
56.000,15.17
56.015,10.94
56.031,5.41
56.046,-0.86
56.062,-7.13
56.078,-12.73
56.093,-17.24
56.109,-20.64
56.125,-23.34
56.140,-25.93
56.156,-29.14
56.171,-33.49
56.187,-39.18
56.203,-46.03
56.218,-53.42
56.234,-60.32
56.250,-65.43
56.265,-67.45
56.281,-65.34
56.296,-58.73
56.312,-48.07
56.328,-34.52
56.343,-19.69
56.359,-5.21
56.375,7.7
56.390,18.45
56.406,27.0
56.421,33.68
56.437,38.88
56.453,42.83
56.468,45.54
56.484,46.91
56.500,46.92
56.515,45.68
56.531,43.5
56.546,40.77
56.562,37.75
56.578,34.53
56.593,31.11
56.609,27.49
56.625,23.82
56.640,20.4
56.656,17.54
56.671,15.37
56.687,13.77
56.703,12.41
56.718,10.87
56.734,8.86
56.750,6.22
56.765,2.96
56.781,-0.75
56.796,-4.75
56.812,-8.83
56.828,-12.82
56.843,-16.7
56.859,-20.63
56.875,-25.01
56.890,-30.33
56.906,-36.93
56.921,-44.81
56.937,-53.45
56.953,-61.89
56.968,-68.78
56.984,-72.77
57.000,-72.77
57.015,-68.22
57.031,-59.31
57.046,-46.92
57.062,-32.52
57.078,-17.66
57.093,-3.77
57.109,8.24
57.125,17.99
57.140,25.47
57.156,30.9
57.171,34.5
57.187,36.45
57.203,37.07
57.218,36.75
57.234,35.96
57.250,35.09
57.265,34.37
57.281,33.73
57.296,32.98
57.312,31.88
57.328,30.28
57.343,28.22
57.359,25.86
57.375,23.38
57.390,20.95
57.406,18.59
57.421,16.22
57.437,13.66
57.453,10.66
57.468,6.99
57.484,2.64
57.500,-2.21
57.515,-7.17
57.531,-11.79
57.546,-15.85
57.562,-19.44
57.578,-22.97
57.593,-27.07
57.609,-32.35
57.625,-39.01
57.640,-46.81
57.656,-54.9
57.671,-61.96
57.687,-66.49
57.703,-67.17
57.718,-63.22
57.734,-54.73
57.750,-42.66
57.765,-28.58
57.781,-14.18
57.796,-0.84
57.812,10.7
57.828,20.3
57.843,28.17
57.859,34.57
57.875,39.59
57.890,43.15
57.906,45.12
57.921,45.55
57.937,44.71
57.953,43.09
57.968,41.18
57.984,39.33
58.000,37.63
58.015,35.94
58.031,34.09
58.046,32.01
58.062,29.82
58.078,27.69
58.093,25.8
58.109,24.08
58.125,22.26
58.140,19.9
58.156,16.6
58.171,12.19
58.187,6.82
58.203,0.86
58.218,-5.19
58.234,-10.86
58.250,-15.9
58.265,-20.38
58.281,-24.66
58.296,-29.35
58.312,-35.06
58.328,-42.14
58.343,-50.43
58.359,-59.11
58.375,-66.81
58.390,-71.79
58.406,-72.48
58.421,-67.94
58.437,-58.24
58.453,-44.52
58.468,-28.69
58.484,-12.89
58.500,1.17
58.515,12.61
58.531,21.4
58.546,28.07
58.562,33.25
58.578,37.28
58.593,40.23
58.609,42.0
58.625,42.65
58.640,42.51
58.656,42.03
58.671,41.49
58.687,40.84
58.703,39.7
58.718,37.63
58.734,34.48
58.750,30.56
58.765,26.51
58.781,23.0
58.796,20.37
58.812,18.41
58.828,16.48
58.843,13.8
58.859,9.85
58.875,4.56
58.890,-1.63
58.906,-7.97
58.921,-13.72
58.937,-18.47
58.953,-22.3
58.968,-25.71
58.984,-29.5
59.000,-34.39
59.015,-40.8
59.031,-48.64
59.046,-57.19
59.062,-65.24
59.078,-71.25
59.093,-73.69
59.109,-71.4
59.125,-64.09
59.140,-52.34
59.156,-37.69
59.171,-22.08
59.187,-7.37
59.203,5.2
59.218,15.29
59.234,23.21
59.250,29.68
59.265,35.22
59.281,40.04
59.296,43.94
59.312,46.56
59.328,47.6
59.343,46.95
59.359,44.77
59.375,41.39
59.390,37.31
59.406,32.98
59.421,28.84
59.437,25.13
59.453,21.94
59.468,19.18
59.484,16.59
59.500,13.89
59.515,10.84
59.531,7.32
59.546,3.33
59.562,-0.99
59.578,-5.47
59.593,-9.96
59.609,-14.39
59.625,-18.84
59.640,-23.55
59.656,-28.86
59.671,-35.18
59.687,-42.68
59.703,-51.11
59.718,-59.55
59.734,-66.47
59.750,-70.02
59.765,-68.76
59.781,-62.09
59.796,-50.65
59.812,-36.1
59.828,-20.51
59.843,-5.66
59.859,7.39
59.875,18.38
59.890,27.55
59.906,35.23
59.921,41.52
59.937,46.3
59.953,49.29
59.968,50.34
59.984,49.51
