timestamp,value
00.000,-91.26
00.015,-93.88
00.031,-89.55
00.046,-78.56
00.062,-62.39
00.078,-43.34
00.093,-24.1
00.109,-7.08
00.125,6.09
00.140,14.77
00.156,19.21
00.171,20.25
00.187,18.94
00.203,16.27
00.218,12.97
00.234,9.49
00.250,5.98
00.265,2.43
00.281,-1.28
00.296,-5.2
00.312,-9.4
00.328,-13.89
00.343,-18.7
00.359,-23.86
00.375,-29.32
00.390,-34.84
00.406,-39.91
00.421,-43.98
00.437,-46.63
00.453,-47.83
00.468,-47.95
00.484,-47.64
00.500,-47.49
00.515,-47.78
00.531,-48.42
00.546,-49.0
00.562,-49.1
00.578,-48.54
00.593,-47.47
00.609,-46.35
00.625,-45.71
00.640,-45.98
00.656,-47.24
00.671,-49.15
00.687,-50.88
00.703,-51.38
00.718,-49.57
00.734,-44.69
00.750,-36.58
00.765,-25.8
00.781,-13.5
00.796,-1.12
00.812,9.95
00.828,18.74
00.843,24.84
00.859,28.35
00.875,29.85
00.890,30.03
00.906,29.55
00.921,28.81
00.937,27.99
00.953,27.07
00.968,25.96
00.984,24.62
01.000,23.06
01.015,21.43
01.031,19.86
01.046,18.52
01.062,17.38
01.078,16.37
01.093,15.35
01.109,14.17
01.125,12.73
01.140,10.88
01.156,8.46
01.171,5.12
01.187,0.59
01.203,-5.18
01.218,-11.9
01.234,-18.82
01.250,-25.05
01.265,-29.75
01.281,-32.48
01.296,-33.37
01.312,-33.09
01.328,-32.57
01.343,-32.78
01.359,-34.43
01.375,-37.74
01.390,-42.33
01.406,-47.17
01.421,-50.85
01.437,-51.88
01.453,-49.16
01.468,-42.21
01.484,-31.33
01.500,-17.53
01.515,-2.25
01.531,12.91
01.546,26.51
01.562,37.37
01.578,44.82
01.593,48.72
01.609,49.38
01.625,47.52
01.640,43.93
01.656,39.38
01.671,34.46
01.687,29.69
01.703,25.49
01.718,22.19
01.734,20.01
01.750,18.88
01.765,18.48
01.781,18.33
01.796,18.04
01.812,17.35
01.828,16.19
01.843,14.56
01.859,12.41
01.875,9.57
01.890,5.86
01.906,1.16
01.921,-4.47
01.937,-10.62
01.953,-16.72
01.968,-22.18
01.984,-26.66
02.000,-30.22
02.015,-33.35
02.031,-36.83
02.046,-41.34
02.062,-47.19
02.078,-54.1
02.093,-61.17
02.109,-67.08
02.125,-70.4
02.140,-69.95
02.156,-65.15
02.171,-56.21
02.187,-44.09
02.203,-30.33
02.218,-16.76
02.234,-4.98
02.250,3.92
02.265,9.57
02.281,12.26
02.296,12.59
02.312,11.05
02.328,8.01
02.343,3.59
02.359,-2.01
02.375,-8.28
02.390,-14.4
02.406,-19.42
02.421,-22.7
02.437,-24.13
02.453,-24.15
02.468,-23.39
02.484,-22.24
02.500,-20.68
02.515,-18.37
02.531,-15.01
02.546,-10.65
02.562,-5.89
02.578,-1.65
02.593,1.22
02.609,2.24
02.625,1.52
02.640,-0.35
02.656,-2.59
02.671,-4.53
02.687,-5.8
02.703,-6.48
02.718,-7.0
02.734,-8.04
02.750,-10.35
02.765,-14.49
02.781,-20.56
02.796,-27.99
02.812,-35.61
02.828,-41.7
02.843,-44.38
02.859,-42.12
02.875,-34.2
02.890,-21.0
02.906,-4.03
02.921,14.5
02.937,32.3
02.953,47.61
02.968,59.5
02.984,67.85
03.000,73.06
03.015,75.66
03.031,76.11
03.046,74.79
03.062,72.11
03.078,68.63
03.093,65.03
03.109,61.89
03.125,59.51
03.140,57.79
03.156,56.31
03.171,54.48
03.187,51.96
03.203,48.72
03.218,45.14
03.234,41.88
03.250,39.45
03.265,38.03
03.281,37.26
03.296,36.38
03.312,34.49
03.328,30.94
03.343,25.53
03.359,18.55
03.375,10.67
03.390,2.67
03.406,-4.77
03.421,-11.28
03.437,-16.78
03.453,-21.48
03.468,-25.73
03.484,-30.0
03.500,-34.75
03.515,-40.21
03.531,-46.19
03.546,-51.87
03.562,-55.96
03.578,-56.93
03.593,-53.52
03.609,-45.26
03.625,-32.64
03.640,-17.14
03.656,-0.75
03.671,14.48
03.687,26.95
03.703,35.71
03.718,40.53
03.734,41.79
03.750,40.24
03.765,36.85
03.781,32.57
03.796,28.28
03.812,24.58
03.828,21.81
03.843,20.13
03.859,19.52
03.875,19.79
03.890,20.61
03.906,21.56
03.921,22.12
03.937,21.9
03.953,20.72
03.968,18.69
03.984,16.19
04.000,13.56
04.015,11.0
04.031,8.35
04.046,5.23
04.062,1.19
04.078,-3.97
04.093,-10.06
04.109,-16.5
04.125,-22.51
04.140,-27.49
04.156,-31.27
04.171,-34.2
04.187,-36.97
04.203,-40.25
04.218,-44.45
04.234,-49.59
04.250,-55.36
04.265,-61.15
04.281,-66.14
04.296,-69.3
04.312,-69.55
04.328,-65.92
04.343,-57.96
04.359,-45.96
04.375,-31.02
04.390,-14.8
04.406,0.97
04.421,14.86
04.437,26.05
04.453,34.31
04.468,39.81
04.484,42.89
04.500,43.94
04.515,43.32
04.531,41.44
04.546,38.76
04.562,35.74
04.578,32.88
04.593,30.58
04.609,29.0
04.625,28.02
04.640,27.32
04.656,26.46
04.671,25.08
04.687,23.07
04.703,20.59
04.718,17.89
04.734,15.26
04.750,12.72
04.765,10.01
04.781,6.74
04.796,2.67
04.812,-2.22
04.828,-7.56
04.843,-12.78
04.859,-17.37
04.875,-21.01
04.890,-23.75
04.906,-25.9
04.921,-27.94
04.937,-30.33
04.953,-33.37
04.968,-37.14
04.984,-41.3
05.000,-45.14
05.015,-47.6
05.031,-47.43
05.046,-43.53
05.062,-35.38
05.078,-23.24
05.093,-8.28
05.109,7.72
05.125,22.88
05.140,35.62
05.156,45.0
05.171,50.7
05.187,52.89
05.203,51.95
05.218,48.41
05.234,42.95
05.250,36.4
05.265,29.72
05.281,23.73
05.296,18.97
05.312,15.5
05.328,13.01
05.343,10.99
05.359,9.0
05.375,6.95
05.390,4.96
05.406,3.28
05.421,1.92
05.437,0.7
05.453,-0.81
05.468,-3.12
05.484,-6.59
05.500,-11.3
05.515,-17.0
05.531,-23.15
05.546,-29.12
05.562,-34.4
05.578,-38.69
05.593,-42.01
05.609,-44.72
05.625,-47.39
05.640,-50.72
05.656,-55.22
05.671,-61.1
05.687,-67.84
05.703,-74.27
05.718,-78.58
05.734,-78.79
05.750,-73.47
05.765,-62.2
05.781,-45.91
05.796,-26.55
05.812,-6.57
05.828,11.85
05.843,27.26
05.859,39.04
05.875,47.21
05.890,52.05
05.906,53.88
05.921,52.97
05.937,49.73
05.953,44.77
05.968,38.94
05.984,33.22
06.000,28.41
06.015,24.97
06.031,22.9
06.046,21.84
06.062,21.17
06.078,20.34
06.093,19.03
06.109,17.23
06.125,15.21
06.140,13.25
06.156,11.48
06.171,9.6
06.187,7.11
06.203,3.34
06.218,-2.06
06.234,-8.91
06.250,-16.48
06.265,-23.59
06.281,-29.11
06.296,-32.26
06.312,-33.0
06.328,-31.96
06.343,-30.31
06.359,-29.33
06.375,-29.99
06.390,-32.58
06.406,-36.57
06.421,-40.67
06.437,-43.12
06.453,-42.21
06.468,-36.74
06.484,-26.48
06.500,-12.24
06.515,4.22
06.531,20.76
06.546,35.45
06.562,46.98
06.578,54.91
06.593,59.49
06.609,61.25
06.625,60.73
06.640,58.35
06.656,54.43
06.671,49.38
06.687,43.89
06.703,38.77
06.718,34.71
06.734,32.11
06.750,30.76
06.765,30.07
06.781,29.33
06.796,27.99
06.812,25.89
06.828,23.3
06.843,20.68
06.859,18.34
06.875,16.32
06.890,14.26
06.906,11.57
06.921,7.65
06.937,2.22
06.953,-4.52
06.968,-11.93
06.984,-19.12
07.000,-25.3
07.015,-29.97
07.031,-33.15
07.046,-35.32
07.062,-37.3
07.078,-40.01
07.093,-44.25
07.109,-50.47
07.125,-58.47
07.140,-67.26
07.156,-75.07
07.171,-79.73
07.187,-79.22
07.203,-72.33
07.218,-59.13
07.234,-41.07
07.250,-20.6
07.265,-0.5
07.281,16.92
07.296,30.31
07.312,39.44
07.328,45.02
07.343,48.21
07.359,50.11
07.375,51.51
07.390,52.71
07.406,53.65
07.421,54.12
07.437,54.05
07.453,53.54
07.468,52.87
07.484,52.33
07.500,51.96
07.515,51.57
07.531,50.74
07.546,49.1
07.562,46.45
07.578,42.82
07.593,38.46
07.609,33.57
07.625,28.23
07.640,22.31
07.656,15.64
07.671,8.04
07.687,-0.42
07.703,-9.34
07.718,-18.09
07.734,-25.98
07.750,-32.48
07.765,-37.41
07.781,-41.06
07.796,-44.03
07.812,-47.1
07.828,-51.0
07.843,-56.19
07.859,-62.78
07.875,-70.31
07.890,-77.75
07.906,-83.53
07.921,-85.84
07.937,-83.0
07.953,-74.03
07.968,-59.03
07.984,-39.26
08.000,-16.95
08.015,5.4
08.031,25.52
08.046,41.93
08.062,54.02
08.078,61.98
08.093,66.43
08.109,68.06
08.125,67.54
08.140,65.36
08.156,62.03
08.171,58.06
08.187,54.12
08.203,50.83
08.218,48.67
08.234,47.74
08.250,47.65
08.265,47.76
08.281,47.3
08.296,45.83
08.312,43.36
08.328,40.18
08.343,36.71
08.359,33.15
08.375,29.4
08.390,25.2
08.406,20.4
08.421,15.14
08.437,9.91
08.453,5.34
08.468,2.04
08.484,0.29
08.500,-0.01
08.515,0.64
08.531,1.54
08.546,1.91
08.562,1.04
08.578,-1.54
08.593,-5.96
08.609,-11.94
08.625,-18.65
08.640,-24.86
08.656,-29.05
08.671,-29.85
08.687,-26.32
08.703,-18.37
08.718,-6.78
08.734,6.96
08.750,20.91
08.765,33.25
08.781,42.65
08.796,48.41
08.812,50.48
08.828,49.25
08.843,45.32
08.859,39.37
08.875,32.08
08.890,24.13
08.906,16.26
08.921,9.17
08.937,3.45
08.953,-0.6
08.968,-3.08
08.984,-4.43
09.000,-5.23
09.015,-5.99
09.031,-6.94
09.046,-8.01
09.062,-9.03
09.078,-9.91
09.093,-10.8
09.109,-12.14
09.125,-14.47
09.140,-18.17
09.156,-23.26
09.171,-29.36
09.187,-35.76
09.203,-41.72
09.218,-46.72
09.234,-50.59
09.250,-53.57
09.265,-56.15
09.281,-58.94
09.296,-62.41
09.312,-66.85
09.328,-72.19
09.343,-77.87
09.359,-82.87
09.375,-85.64
09.390,-84.6
09.406,-78.53
09.421,-67.11
09.437,-51.15
09.453,-32.4
09.468,-13.1
09.484,4.69
09.500,19.52
09.515,30.79
09.531,38.57
09.546,43.33
09.562,45.64
09.578,45.97
09.593,44.7
09.609,42.2
09.625,38.96
09.640,35.47
09.656,32.29
09.671,29.76
09.687,27.96
09.703,26.69
09.718,25.5
09.734,23.98
09.750,21.83
09.765,19.04
09.781,15.81
09.796,12.5
09.812,9.36
09.828,6.44
09.843,3.56
09.859,0.32
09.875,-3.65
09.890,-8.51
09.906,-14.09
09.921,-19.97
09.937,-25.56
09.953,-30.51
09.968,-34.75
09.984,-38.53
10.000,-42.35
10.015,-46.65
10.031,-51.73
10.046,-57.65
10.062,-64.24
10.078,-70.99
10.093,-77.08
10.109,-81.41
10.125,-82.58
10.140,-79.39
10.156,-71.2
10.171,-58.24
10.187,-41.7
10.203,-23.52
10.218,-5.84
10.234,9.53
10.250,21.47
10.265,29.71
10.281,34.58
10.296,36.84
10.312,37.29
10.328,36.56
10.343,35.1
10.359,33.23
10.375,31.36
10.390,29.92
10.406,29.4
10.421,30.05
10.437,31.85
10.453,34.42
10.468,37.18
10.484,39.59
10.500,41.32
10.515,42.34
10.531,42.8
10.546,42.92
10.562,42.78
10.578,42.32
10.593,41.37
10.609,39.75
10.625,37.38
10.640,34.32
10.656,30.74
10.671,26.8
10.687,22.7
10.703,18.58
10.718,14.45
10.734,10.25
10.750,5.77
10.765,0.73
10.781,-5.22
10.796,-12.28
10.812,-20.49
10.828,-29.56
10.843,-38.82
10.859,-47.28
10.875,-53.65
10.890,-56.56
10.906,-54.91
10.921,-48.15
10.937,-36.6
10.953,-21.57
10.968,-4.99
10.984,11.04
11.000,24.74
11.015,35.09
11.031,41.84
11.046,45.39
11.062,46.43
11.078,45.67
11.093,43.59
11.109,40.45
11.125,36.41
11.140,31.64
11.156,26.49
11.171,21.5
11.187,17.31
11.203,14.4
11.218,12.86
11.234,12.45
11.250,12.59
11.265,12.72
11.281,12.45
11.296,11.74
11.312,10.64
11.328,9.24
11.343,7.44
11.359,5.05
11.375,1.91
11.390,-2.0
11.406,-6.54
11.421,-11.52
11.437,-16.61
11.453,-21.47
11.468,-25.75
11.484,-29.17
11.500,-31.65
11.515,-33.42
11.531,-34.98
11.546,-36.96
11.562,-39.97
11.578,-44.31
11.593,-49.92
11.609,-56.28
11.625,-62.31
11.640,-66.55
11.656,-67.34
11.671,-63.34
11.687,-54.0
11.703,-39.88
11.718,-22.66
11.734,-4.6
11.750,12.07
11.765,25.85
11.781,36.13
11.796,43.09
11.812,47.25
11.828,49.12
11.843,49.03
11.859,47.12
11.875,43.62
11.890,38.99
11.906,33.93
11.921,29.26
11.937,25.69
11.953,23.6
11.968,22.93
11.984,23.19
12.000,23.74
12.015,24.01
12.031,23.77
12.046,23.11
12.062,22.24
12.078,21.28
12.093,20.01
12.109,17.93
12.125,14.53
12.140,9.54
12.156,3.18
12.171,-3.87
12.187,-10.75
12.203,-16.71
12.218,-21.43
12.234,-25.05
12.250,-28.11
12.265,-31.21
12.281,-34.89
12.296,-39.4
12.312,-44.78
12.328,-50.75
12.343,-56.71
12.359,-61.69
12.375,-64.37
12.390,-63.32
12.406,-57.45
12.421,-46.49
12.437,-31.3
12.453,-13.77
12.468,3.7
12.484,19.03
12.500,30.89
12.515,39.04
12.531,43.93
12.546,46.35
12.562,46.9
12.578,45.93
12.593,43.58
12.609,39.99
12.625,35.55
12.640,30.88
12.656,26.61
12.671,23.23
12.687,20.88
12.703,19.36
12.718,18.3
12.734,17.44
12.750,16.62
12.765,15.91
12.781,15.44
12.796,15.2
12.812,14.94
12.828,14.16
12.843,12.32
12.859,9.04
12.875,4.28
12.890,-1.63
12.906,-8.11
12.921,-14.54
12.937,-20.36
12.953,-25.21
12.968,-29.05
12.984,-32.07
13.000,-34.77
13.015,-37.79
13.031,-41.76
13.046,-47.01
13.062,-53.24
13.078,-59.44
13.093,-63.93
13.109,-64.87
13.125,-60.8
13.140,-51.28
13.156,-37.11
13.171,-20.2
13.187,-2.87
13.203,12.77
13.218,25.44
13.234,34.83
13.250,41.28
13.265,45.41
13.281,47.71
13.296,48.51
13.312,48.0
13.328,46.37
13.343,43.95
13.359,41.12
13.375,38.28
13.390,35.65
13.406,33.32
13.421,31.21
13.437,29.27
13.453,27.4
13.468,25.54
13.484,23.63
13.500,21.52
13.515,19.08
13.531,16.18
13.546,12.74
13.562,8.77
13.578,4.34
13.593,-0.48
13.609,-5.67
13.625,-11.13
13.640,-16.74
13.656,-22.25
13.671,-27.38
13.687,-31.97
13.703,-36.04
13.718,-39.79
13.734,-43.62
13.750,-47.95
13.765,-53.09
13.781,-59.09
13.796,-65.59
13.812,-71.71
13.828,-76.12
13.843,-77.34
13.859,-74.16
13.875,-66.05
13.890,-53.43
13.906,-37.63
13.921,-20.49
13.937,-3.85
13.953,10.87
13.968,22.86
13.984,31.96
14.000,38.42
14.015,42.69
14.031,45.26
14.046,46.52
14.062,46.66
14.078,45.77
14.093,43.93
14.109,41.24
14.125,37.99
14.140,34.59
14.156,31.47
14.171,28.89
14.187,26.89
14.203,25.21
14.218,23.54
14.234,21.66
14.250,19.56
14.265,17.41
14.281,15.38
14.296,13.45
14.312,11.3
14.328,8.45
14.343,4.46
14.359,-0.82
14.375,-7.12
14.390,-13.81
14.406,-20.2
14.421,-25.84
14.437,-30.61
14.453,-34.8
14.468,-38.87
14.484,-43.29
14.500,-48.38
14.515,-54.26
14.531,-60.81
14.546,-67.61
14.562,-74.01
14.578,-79.01
14.593,-81.32
14.609,-79.64
14.625,-72.97
14.640,-61.14
14.656,-45.03
14.671,-26.5
14.687,-7.89
14.703,8.66
14.718,21.81
14.734,31.23
14.750,37.44
14.765,41.28
14.781,43.48
14.796,44.41
14.812,44.11
14.828,42.63
14.843,40.19
14.859,37.24
14.875,34.43
14.890,32.22
14.906,30.84
14.921,30.12
14.937,29.68
14.953,29.06
14.968,27.92
14.984,26.12
15.000,23.79
15.015,21.21
15.031,18.61
15.046,16.13
15.062,13.64
15.078,10.85
15.093,7.43
15.109,3.18
15.125,-1.77
15.140,-6.99
15.156,-11.9
15.171,-16.03
15.187,-19.24
15.203,-21.81
15.218,-24.28
15.234,-27.25
15.250,-31.2
15.265,-36.26
15.281,-42.18
15.296,-48.21
15.312,-53.28
15.328,-56.03
15.343,-55.11
15.359,-49.63
15.375,-39.44
15.390,-25.36
15.406,-9.01
15.421,7.54
15.437,22.49
15.453,34.56
15.468,43.3
15.484,48.91
15.500,51.81
15.515,52.49
15.531,51.23
15.546,48.29
15.562,43.98
15.578,38.92
15.593,33.88
15.609,29.64
15.625,26.74
15.640,25.26
15.656,24.83
15.671,24.8
15.687,24.48
15.703,23.4
15.718,21.5
15.734,19.02
15.750,16.31
15.765,13.62
15.781,10.85
15.796,7.68
15.812,3.67
15.828,-1.46
15.843,-7.64
15.859,-14.39
15.875,-20.98
15.890,-26.71
15.906,-31.21
15.921,-34.67
15.937,-37.62
15.953,-40.85
15.968,-45.06
15.984,-50.57
16.000,-57.32
16.015,-64.71
16.031,-71.69
16.046,-76.79
16.062,-78.47
16.078,-75.4
16.093,-66.97
16.109,-53.57
16.125,-36.58
16.140,-18.05
16.156,-0.1
16.171,15.56
16.187,27.97
16.203,36.81
16.218,42.22
16.234,44.63
16.250,44.49
16.265,42.43
16.281,39.14
16.296,35.39
16.312,31.86
16.328,29.1
16.343,27.32
16.359,26.42
16.375,26.08
16.390,25.88
16.406,25.4
16.421,24.37
16.437,22.77
16.453,20.8
16.468,18.73
16.484,16.75
16.500,14.75
16.515,12.38
16.531,9.12
16.546,4.58
16.562,-1.29
16.578,-8.07
16.593,-15.08
16.609,-21.58
16.625,-27.07
16.640,-31.51
16.656,-35.26
16.671,-39.04
16.687,-43.56
16.703,-49.39
16.718,-56.69
16.734,-65.03
16.750,-73.39
16.765,-80.22
16.781,-83.72
16.796,-82.24
16.812,-74.82
16.828,-61.48
16.843,-43.45
16.859,-22.83
16.875,-2.07
16.890,16.62
16.906,31.91
16.921,43.3
16.937,51.1
16.953,55.89
16.968,58.31
16.984,58.82
17.000,57.73
17.015,55.42
17.031,52.27
17.046,48.82
17.062,45.6
17.078,43.02
17.093,41.29
17.109,40.36
17.125,40.02
17.140,39.91
17.156,39.68
17.171,38.92
17.187,37.41
17.203,35.06
17.218,31.92
17.234,28.19
17.250,23.97
17.265,19.29
17.281,14.12
17.296,8.43
17.312,2.28
17.328,-4.08
17.343,-10.35
17.359,-16.29
17.375,-21.72
17.390,-26.68
17.406,-31.32
17.421,-35.97
17.437,-41.0
17.453,-46.83
17.468,-53.75
17.484,-61.76
17.500,-70.41
17.515,-78.52
17.531,-84.42
17.546,-86.15
17.562,-82.09
17.578,-71.53
17.593,-55.06
17.609,-34.52
17.625,-12.48
17.640,8.38
17.656,25.99
17.671,39.23
17.687,47.98
17.703,52.84
17.718,54.79
17.734,54.84
17.750,53.86
17.765,52.48
17.781,51.02
17.796,49.6
17.812,48.1
17.828,46.45
17.843,44.63
17.859,42.79
17.875,41.15
17.890,39.89
17.906,39.0
17.921,38.23
17.937,37.19
17.953,35.53
17.968,33.02
17.984,29.73
18.000,25.85
18.015,21.57
18.031,16.94
18.046,11.96
18.062,6.56
18.078,0.81
18.093,-5.08
18.109,-10.82
18.125,-16.17
18.140,-21.04
18.156,-25.56
18.171,-30.01
18.187,-34.63
18.203,-39.65
18.218,-45.22
18.234,-51.51
18.250,-58.69
18.265,-66.72
18.281,-75.04
18.296,-82.37
18.312,-86.77
18.328,-86.16
18.343,-79.06
18.359,-65.22
18.375,-45.89
18.390,-23.52
18.406,-1.05
18.421,19.0
18.437,35.06
18.453,46.68
18.468,54.25
18.484,58.51
18.500,60.16
18.515,59.74
18.531,57.65
18.546,54.41
18.562,50.58
18.578,46.81
18.593,43.6
18.609,41.2
18.625,39.58
18.640,38.49
18.656,37.63
18.671,36.63
18.687,35.27
18.703,33.44
18.718,31.15
18.734,28.59
18.750,25.89
18.765,23.11
18.781,20.07
18.796,16.49
18.812,11.96
18.828,6.32
18.843,-0.34
18.859,-7.57
18.875,-14.76
18.890,-21.36
18.906,-27.17
18.921,-32.27
18.937,-37.09
18.953,-42.17
18.968,-48.08
18.984,-55.14
19.000,-63.42
19.015,-72.53
19.031,-81.59
19.046,-89.26
19.062,-93.94
19.078,-94.14
19.093,-88.91
19.109,-78.25
19.125,-63.18
19.140,-45.6
19.156,-27.77
19.171,-11.73
19.187,1.2
19.203,10.54
19.218,16.5
19.234,19.71
19.250,20.8
19.265,20.3
19.281,18.62
19.296,16.25
19.312,13.8
19.328,12.06
19.343,11.72
19.359,13.19
19.375,16.41
19.390,20.82
19.406,25.53
19.421,29.58
19.437,32.28
19.453,33.32
19.468,32.81
19.484,31.24
19.500,29.14
19.515,26.91
19.531,24.56
19.546,21.83
19.562,18.19
19.578,13.28
19.593,7.08
19.609,0.05
19.625,-7.0
19.640,-13.25
19.656,-18.21
19.671,-21.9
19.687,-24.76
19.703,-27.5
19.718,-30.78
19.734,-34.99
19.750,-40.16
19.765,-45.81
19.781,-50.92
19.796,-54.02
19.812,-53.47
19.828,-47.83
19.843,-36.44
19.859,-19.7
19.875,0.87
19.890,22.96
19.906,44.17
19.921,62.54
19.937,77.01
19.953,87.37
19.968,94.07
19.984,97.93
20.000,99.75
20.015,100.17
20.031,99.56
20.046,98.15
20.062,96.03
20.078,93.35
20.093,90.41
20.109,87.55
20.125,85.04
20.140,82.93
20.156,80.99
20.171,78.73
20.187,75.66
20.203,71.54
20.218,66.42
20.234,60.65
20.250,54.61
20.265,48.55
20.281,42.44
20.296,36.09
20.312,29.26
20.328,21.91
20.343,14.17
20.359,6.22
20.375,-1.69
20.390,-9.56
20.406,-17.45
20.421,-25.56
20.437,-33.95
20.453,-42.59
20.468,-51.38
20.484,-60.29
20.500,-69.5
20.515,-79.17
20.531,-89.23
20.546,-98.88
20.562,-106.58
20.578,-110.16
20.593,-107.6
20.609,-97.82
20.625,-81.13
20.640,-59.43
20.656,-35.58
20.671,-12.64
20.687,6.93
20.703,21.8
20.718,31.85
20.734,37.8
20.750,40.78
20.765,41.84
20.781,41.72
20.796,40.82
20.812,39.31
20.828,37.31
20.843,35.05
20.859,32.75
20.875,30.66
20.890,28.87
20.906,27.44
20.921,26.35
20.937,25.64
20.953,25.44
20.968,25.82
20.984,26.68
21.000,27.59
21.015,27.9
21.031,26.95
21.046,24.43
21.062,20.36
21.078,15.14
21.093,9.22
21.109,2.89
21.125,-3.78
21.140,-10.86
21.156,-18.25
21.171,-25.73
21.187,-32.88
21.203,-39.34
21.218,-44.94
21.234,-49.76
21.250,-54.18
21.265,-58.7
21.281,-63.83
21.296,-69.89
21.312,-76.88
21.328,-84.22
21.343,-90.7
21.359,-94.61
21.375,-94.08
21.390,-87.78
21.406,-75.38
21.421,-57.86
21.437,-37.24
21.453,-16.07
21.468,3.29
21.484,19.25
21.500,31.16
21.515,39.23
21.531,44.11
21.546,46.6
21.562,47.29
21.578,46.56
21.593,44.6
21.609,41.57
21.625,37.81
21.640,33.83
21.656,30.17
21.671,27.31
21.687,25.51
21.703,24.72
21.718,24.68
21.734,25.05
21.750,25.45
21.765,25.65
21.781,25.43
21.796,24.73
21.812,23.51
21.828,21.76
21.843,19.36
21.859,16.1
21.875,11.75
21.890,6.13
21.906,-0.67
21.921,-8.29
21.937,-16.01
21.953,-23.1
21.968,-28.98
21.984,-33.48
22.000,-36.95
22.015,-40.11
22.031,-43.81
22.046,-48.69
22.062,-54.97
22.078,-62.23
22.093,-69.46
22.109,-75.16
22.125,-77.63
22.140,-75.41
22.156,-67.67
22.171,-54.6
22.187,-37.32
22.203,-17.76
22.218,1.81
22.234,19.37
22.250,33.43
22.265,43.33
22.281,49.18
22.296,51.56
22.312,51.2
22.328,48.85
22.343,45.1
22.359,40.48
22.375,35.57
22.390,30.96
22.406,27.26
22.421,24.8
22.437,23.64
22.453,23.41
22.468,23.53
22.484,23.46
22.500,22.79
22.515,21.46
22.531,19.61
22.546,17.47
22.562,15.16
22.578,12.66
22.593,9.81
22.609,6.34
22.625,2.09
22.640,-2.93
22.656,-8.46
22.671,-14.08
22.687,-19.33
22.703,-23.91
22.718,-27.81
22.734,-31.3
22.750,-34.92
22.765,-39.21
22.781,-44.57
22.796,-51.17
22.812,-58.75
22.828,-66.55
22.843,-73.33
22.859,-77.49
22.875,-77.34
22.890,-71.66
22.906,-60.13
22.921,-43.62
22.937,-24.01
22.953,-3.8
22.968,14.73
22.984,29.91
23.000,41.04
23.015,48.24
23.031,52.09
23.046,53.3
23.062,52.4
23.078,49.78
23.093,45.85
23.109,41.12
23.125,36.29
23.140,32.18
23.156,29.39
23.171,28.11
23.187,28.03
23.203,28.38
23.218,28.37
23.234,27.47
23.250,25.64
23.265,23.23
23.281,20.76
23.296,18.51
23.312,16.35
23.328,13.73
23.343,9.98
23.359,4.65
23.375,-2.24
23.390,-10.12
23.406,-18.15
23.421,-25.51
23.437,-31.66
23.453,-36.56
23.468,-40.57
23.484,-44.35
23.500,-48.65
23.515,-54.08
23.531,-60.84
23.546,-68.44
23.562,-75.69
23.578,-80.79
23.593,-81.75
23.609,-77.09
23.625,-66.25
23.640,-50.07
23.656,-30.46
23.671,-9.93
23.687,9.17
23.703,25.21
23.718,37.49
23.734,46.16
23.750,51.7
23.765,54.71
23.781,55.56
23.796,54.58
23.812,52.13
23.828,48.76
23.843,45.09
23.859,41.7
23.875,39.01
23.890,37.09
23.906,35.74
23.921,34.63
23.937,33.43
23.953,31.9
23.968,30.02
23.984,27.92
24.000,25.78
24.015,23.76
24.031,21.8
24.046,19.62
24.062,16.76
24.078,12.77
24.093,7.44
24.109,0.92
24.125,-6.22
24.140,-13.3
24.156,-19.7
24.171,-25.17
24.187,-29.82
24.203,-34.07
24.218,-38.47
24.234,-43.52
24.250,-49.58
24.265,-56.72
24.281,-64.66
24.296,-72.53
24.312,-78.93
24.328,-82.12
24.343,-80.44
24.359,-72.9
24.375,-59.55
24.390,-41.61
24.406,-21.19
24.421,-0.76
24.437,17.59
24.453,32.5
24.468,43.49
24.484,50.82
24.500,55.09
24.515,56.98
24.531,57.02
24.546,55.65
24.562,53.16
24.578,49.98
24.593,46.57
24.609,43.4
24.625,40.81
24.640,38.93
24.656,37.61
24.671,36.52
24.687,35.38
24.703,33.96
24.718,32.18
24.734,30.05
24.750,27.55
24.765,24.68
24.781,21.4
24.796,17.69
24.812,13.5
24.828,8.84
24.843,3.67
24.859,-2.02
24.875,-8.12
24.890,-14.44
24.906,-20.66
24.921,-26.54
24.937,-31.94
24.953,-36.93
24.968,-41.79
24.984,-46.89
25.000,-52.62
25.015,-59.18
25.031,-66.52
25.046,-74.13
25.062,-80.97
25.078,-85.5
25.093,-86.0
25.109,-81.09
25.125,-70.24
25.140,-54.12
25.156,-34.52
25.171,-13.91
25.187,5.28
25.203,21.29
25.218,33.31
25.234,41.48
25.250,46.5
25.265,49.16
25.281,50.05
25.296,49.51
25.312,47.6
25.328,44.5
25.343,40.59
25.359,36.45
25.375,32.82
25.390,30.3
25.406,29.15
25.421,29.14
25.437,29.81
25.453,30.48
25.468,30.66
25.484,30.15
25.500,28.88
25.515,26.95
25.531,24.39
25.546,21.19
25.562,17.27
25.578,12.63
25.593,7.33
25.609,1.6
25.625,-4.23
25.640,-9.82
25.656,-14.9
25.671,-19.43
25.687,-23.56
25.703,-27.55
25.718,-31.7
25.734,-36.24
25.750,-41.32
25.765,-47.03
25.781,-53.36
25.796,-60.12
25.812,-66.75
25.828,-72.18
25.843,-74.82
25.859,-72.99
25.875,-65.48
25.890,-52.12
25.906,-34.09
25.921,-13.73
25.937,6.26
25.953,23.52
25.968,36.76
25.984,45.87
26.000,51.54
26.015,54.68
26.031,55.98
26.046,55.72
26.062,53.9
26.078,50.68
26.093,46.51
26.109,42.13
26.125,38.44
26.140,36.03
26.156,35.05
26.171,35.17
26.187,35.76
26.203,36.16
26.218,35.97
26.234,35.08
26.250,33.63
26.265,31.87
26.281,29.88
26.296,27.54
26.312,24.55
26.328,20.61
26.343,15.57
26.359,9.51
26.375,2.83
26.390,-4.06
26.406,-10.72
26.421,-16.93
26.437,-22.65
26.453,-28.03
26.468,-33.27
26.484,-38.57
26.500,-44.19
26.515,-50.38
26.531,-57.3
26.546,-64.64
26.562,-71.55
26.578,-76.45
26.593,-77.41
26.609,-72.88
26.625,-62.24
26.640,-46.24
26.656,-26.84
26.671,-6.63
26.687,12.01
26.703,27.53
26.718,39.37
26.734,47.77
26.750,53.2
26.765,56.05
26.781,56.47
26.796,54.59
26.812,50.74
26.828,45.65
26.843,40.34
26.859,35.79
26.875,32.69
26.890,31.11
26.906,30.59
26.921,30.35
26.937,29.73
26.953,28.3
26.968,26.18
26.984,23.77
27.000,21.55
27.015,19.78
27.031,18.33
27.046,16.76
27.062,14.4
27.078,10.67
27.093,5.33
27.109,-1.47
27.125,-9.16
27.140,-16.95
27.156,-24.07
27.171,-30.04
27.187,-34.77
27.203,-38.56
27.218,-41.99
27.234,-45.66
27.250,-50.19
27.265,-55.88
27.281,-62.67
27.296,-69.87
27.312,-76.24
27.328,-80.05
27.343,-79.52
27.359,-73.39
27.375,-61.33
27.390,-44.28
27.406,-24.22
27.421,-3.62
27.437,15.28
27.453,30.91
27.468,42.63
27.484,50.61
27.500,55.41
27.515,57.68
27.531,57.98
27.546,56.86
27.562,54.78
27.578,52.25
27.593,49.7
27.609,47.31
27.625,45.13
27.640,43.01
27.656,40.87
27.671,38.77
27.687,36.94
27.703,35.56
27.718,34.58
27.734,33.73
27.750,32.47
27.765,30.38
27.781,27.23
27.796,23.19
27.812,18.61
27.828,13.89
27.843,9.26
27.859,4.69
27.875,0.08
27.890,-4.68
27.906,-9.59
27.921,-14.56
27.937,-19.45
27.953,-24.18
27.968,-28.74
27.984,-33.16
28.000,-37.58
28.015,-42.25
28.031,-47.51
28.046,-53.6
28.062,-60.57
28.078,-67.82
28.093,-74.08
28.109,-77.57
28.125,-76.39
28.140,-69.3
28.156,-56.18
28.171,-38.29
28.187,-17.88
28.203,2.39
28.218,20.3
28.234,34.5
28.250,44.64
28.265,51.18
28.281,54.9
28.296,56.66
28.312,57.09
28.328,56.59
28.343,55.39
28.359,53.56
28.375,51.13
28.390,48.16
28.406,44.8
28.421,41.31
28.437,38.07
28.453,35.44
28.468,33.67
28.484,32.72
28.500,32.25
28.515,31.76
28.531,30.75
28.546,29.04
28.562,26.6
28.578,23.63
28.593,20.22
28.609,16.28
28.625,11.57
28.640,5.9
28.656,-0.73
28.671,-8.01
28.687,-15.44
28.703,-22.5
28.718,-28.8
28.734,-34.16
28.750,-38.65
28.765,-42.46
28.781,-45.95
28.796,-49.54
28.812,-53.77
28.828,-59.06
28.843,-65.45
28.859,-72.54
28.875,-79.23
28.890,-83.91
28.906,-84.83
28.921,-80.61
28.937,-70.7
28.953,-55.7
28.968,-37.3
28.984,-17.76
29.000,0.6
29.015,16.1
29.031,27.98
29.046,36.4
29.062,41.95
29.078,45.32
29.093,47.01
29.109,47.2
29.125,46.05
29.140,43.78
29.156,40.79
29.171,37.56
29.187,34.57
29.203,32.13
29.218,30.32
29.234,29.13
29.250,28.43
29.265,28.13
29.281,28.06
29.296,28.03
29.312,27.79
29.328,27.08
29.343,25.74
29.359,23.66
29.375,20.82
29.390,17.19
29.406,12.77
29.421,7.51
29.437,1.51
29.453,-4.96
29.468,-11.45
29.484,-17.4
29.500,-22.42
29.515,-26.4
29.531,-29.56
29.546,-32.32
29.562,-35.24
29.578,-38.83
29.593,-43.46
29.609,-49.28
29.625,-55.97
29.640,-62.7
29.656,-68.16
29.671,-70.74
29.687,-68.92
29.703,-61.87
29.718,-49.77
29.734,-33.84
29.750,-16.07
29.765,1.41
29.781,16.86
29.796,29.23
29.812,38.21
29.828,43.95
29.843,46.89
29.859,47.44
29.875,46.09
29.890,43.29
29.906,39.6
29.921,35.58
29.937,31.82
29.953,28.75
29.968,26.63
29.984,25.49
30.000,25.13
30.015,25.21
30.031,25.32
30.046,25.11
30.062,24.4
30.078,23.15
30.093,21.45
30.109,19.28
30.125,16.51
30.140,12.88
30.156,8.13
30.171,2.19
30.187,-4.68
30.203,-11.92
30.218,-18.81
30.234,-24.7
30.250,-29.27
30.265,-32.62
30.281,-35.2
30.296,-37.64
30.312,-40.65
30.328,-44.74
30.343,-50.16
30.359,-56.69
30.375,-63.57
30.390,-69.52
30.406,-72.88
30.421,-72.07
30.437,-66.05
30.453,-54.78
30.468,-39.36
30.484,-21.71
30.500,-4.11
30.515,11.57
30.531,24.22
30.546,33.64
30.562,40.21
30.578,44.48
30.593,46.88
30.609,47.47
30.625,46.31
30.640,43.52
30.656,39.52
30.671,35.01
30.687,30.77
30.703,27.43
30.718,25.26
30.734,24.19
30.750,23.77
30.765,23.36
30.781,22.43
30.796,20.74
30.812,18.3
30.828,15.44
30.843,12.47
30.859,9.42
30.875,6.09
30.890,1.97
30.906,-3.4
30.921,-10.15
30.937,-17.97
30.953,-26.19
30.968,-34.05
30.984,-40.95
31.000,-46.73
31.015,-51.58
31.031,-56.04
31.046,-60.85
31.062,-66.85
31.078,-74.73
31.093,-84.77
31.109,-96.49
31.125,-108.55
31.140,-118.87
31.156,-125.13
31.171,-125.52
31.187,-119.33
31.203,-107.28
31.218,-91.3
31.234,-73.94
31.250,-57.58
31.265,-43.83
31.281,-33.15
31.296,-24.98
31.312,-18.23
31.328,-11.77
31.343,-4.96
31.359,2.08
31.375,8.65
31.390,13.83
31.406,16.98
31.421,18.07
31.437,17.73
31.453,16.86
31.468,16.28
31.484,16.43
31.500,17.36
31.515,18.96
31.531,21.27
31.546,24.51
31.562,28.86
31.578,34.2
31.593,39.81
31.609,44.54
31.625,47.27
31.640,47.29
31.656,44.72
31.671,40.29
31.687,35.08
31.703,30.13
31.718,26.17
31.734,23.49
31.750,21.94
31.765,21.03
31.781,19.82
31.796,17.2
31.812,12.07
31.828,3.71
31.843,-7.77
31.859,-21.42
31.875,-35.46
31.890,-47.75
31.906,-56.33
31.921,-59.92
31.937,-58.19
31.953,-51.8
31.968,-42.15
31.984,-30.91
32.000,-19.68
32.015,-9.63
32.031,-1.29
32.046,5.3
32.062,10.43
32.078,14.49
32.093,17.82
32.109,20.64
32.125,23.17
32.140,25.57
32.156,27.99
32.171,30.48
32.187,33.07
32.203,35.65
32.218,38.07
32.234,40.16
32.250,41.72
32.265,42.58
32.281,42.69
32.296,42.15
32.312,41.16
32.328,39.97
32.343,38.69
32.359,37.13
32.375,34.86
32.390,31.31
32.406,26.13
32.421,19.38
32.437,11.64
32.453,3.78
32.468,-3.36
32.484,-9.3
32.500,-14.0
32.515,-17.74
32.531,-20.99
32.546,-24.18
32.562,-27.75
32.578,-32.05
32.593,-37.28
32.609,-43.35
32.625,-49.5
32.640,-54.33
32.656,-56.01
32.671,-52.95
32.687,-44.35
32.703,-30.71
32.718,-13.71
32.734,4.3
32.750,20.99
32.765,34.75
32.781,44.83
32.796,51.35
32.812,54.86
32.828,56.07
32.843,55.6
32.859,53.85
32.875,51.26
32.890,48.23
32.906,45.3
32.921,42.93
32.937,41.59
32.953,41.45
32.968,42.47
32.984,44.29
33.000,46.4
33.015,48.26
33.031,49.41
33.046,49.6
33.062,48.74
33.078,46.89
33.093,44.13
33.109,40.49
33.125,35.97
33.140,30.54
33.156,24.28
33.171,17.4
33.187,10.3
33.203,3.46
33.218,-2.64
33.234,-7.68
33.250,-11.65
33.265,-14.84
33.281,-17.79
33.296,-21.1
33.312,-25.29
33.328,-30.54
33.343,-36.6
33.359,-42.71
33.375,-47.62
33.390,-49.9
33.406,-48.17
33.421,-41.7
33.437,-30.58
33.453,-15.89
33.468,0.55
33.484,16.67
33.500,30.58
33.515,41.04
33.531,47.51
33.546,50.12
33.562,49.32
33.578,45.72
33.593,39.98
33.609,32.83
33.625,25.17
33.640,17.96
33.656,12.19
33.671,8.55
33.687,7.27
33.703,8.04
33.718,10.07
33.734,12.48
33.750,14.54
33.765,15.92
33.781,16.71
33.796,17.21
33.812,17.57
33.828,17.64
33.843,16.97
33.859,15.01
33.875,11.51
33.890,6.63
33.906,1.03
33.921,-4.44
33.937,-9.03
33.953,-12.38
33.968,-14.6
33.984,-16.15
34.000,-17.69
34.015,-19.83
34.031,-22.98
34.046,-27.16
34.062,-31.97
34.078,-36.49
34.093,-39.39
34.109,-39.14
34.125,-34.45
34.140,-24.7
34.156,-10.2
34.171,7.81
34.187,27.44
34.203,46.69
34.218,63.94
34.234,78.23
34.250,89.33
34.265,97.41
34.281,102.81
34.296,105.75
34.312,106.36
34.328,104.8
34.343,101.44
34.359,96.96
34.375,92.26
34.390,88.24
34.406,85.49
34.421,84.03
34.437,83.3
34.453,82.36
34.468,80.24
34.484,76.32
34.500,70.54
34.515,63.32
34.531,55.34
34.546,47.14
34.562,38.92
34.578,30.52
34.593,21.53
34.609,11.62
34.625,0.67
34.640,-11.15
34.656,-23.45
34.671,-35.84
34.687,-47.92
34.703,-59.41
34.718,-70.0
34.734,-79.44
34.750,-87.42
34.765,-93.74
34.781,-98.3
34.796,-101.09
34.812,-102.08
34.828,-101.04
34.843,-97.53
34.859,-91.12
34.875,-81.57
34.890,-69.24
34.906,-55.11
34.921,-40.72
34.937,-27.68
34.953,-17.29
34.968,-10.12
34.984,-5.93
35.000,-3.93
35.015,-3.09
35.031,-2.51
35.046,-1.69
35.062,-0.51
35.078,0.83
35.093,2.03
35.109,2.88
35.125,3.27
35.140,3.27
35.156,3.0
35.171,2.57
35.187,2.08
35.203,1.67
35.218,1.6
35.234,2.18
35.250,3.67
35.265,6.12
35.281,9.27
35.296,12.48
35.312,14.82
35.328,15.42
35.343,13.76
35.359,9.85
35.375,4.24
35.390,-2.23
35.406,-8.76
35.421,-14.84
35.437,-20.3
35.453,-25.27
35.468,-29.96
35.484,-34.6
35.500,-39.41
35.515,-44.69
35.531,-50.68
35.546,-57.3
35.562,-63.95
35.578,-69.35
35.593,-71.82
35.609,-69.91
35.625,-62.93
35.640,-51.4
35.656,-36.82
35.671,-21.22
35.687,-6.42
35.703,6.35
35.718,16.63
35.734,24.46
35.750,30.07
35.765,33.63
35.781,35.23
35.796,35.02
35.812,33.32
35.828,30.69
35.843,27.83
35.859,25.41
35.875,23.97
35.890,23.62
35.906,24.09
35.921,24.84
35.937,25.36
35.953,25.37
35.968,25.0
35.984,24.66
36.000,24.78
36.015,25.46
36.031,26.31
36.046,26.59
36.062,25.53
36.078,22.75
36.093,18.4
36.109,13.11
36.125,7.72
36.140,2.93
36.156,-0.87
36.171,-3.72
36.187,-6.0
36.203,-8.39
36.218,-11.63
36.234,-16.39
36.250,-22.79
36.265,-30.11
36.281,-36.7
36.296,-40.37
36.312,-39.36
36.328,-33.53
36.343,-25.02
36.359,-18.08
36.375,-17.78
36.390,-27.99
36.406,-49.62
36.421,-79.92
36.437,-113.01
36.453,-141.75
36.468,-159.94
36.484,-164.1
36.500,-154.17
36.515,-133.01
36.531,-105.15
36.546,-75.25
36.562,-46.87
36.578,-21.62
36.593,0.76
36.609,21.78
36.625,43.13
36.640,65.24
36.656,86.5
36.671,103.18
36.687,110.32
36.703,103.06
36.718,78.51
36.734,37.28
36.750,-15.91
36.765,-72.94
36.781,-124.37
36.796,-162.18
36.812,-182.07
36.828,-184.25
36.843,-172.46
36.859,-151.77
36.875,-126.45
36.890,-99.02
36.906,-70.78
36.921,-43.2
36.937,-18.8
36.953,-0.67
36.968,9.28
36.984,12.25
37.000,13.22
37.015,19.68
37.031,38.98
37.046,75.56
37.062,129.21
37.078,194.84
37.093,263.5
37.109,324.31
37.125,367.11
37.140,384.98
37.156,376.17
37.171,344.75
37.187,299.54
37.203,251.44
37.218,210.17
37.234,181.74
37.250,167.55
37.265,165.16
37.281,170.2
37.296,178.17
37.312,185.29
37.328,188.62
37.343,185.62
37.359,174.29
37.375,153.77
37.390,125.04
37.406,91.11
37.421,56.37
37.437,25.18
37.453,0.29
37.468,-18.03
37.484,-31.61
37.500,-43.02
37.515,-53.84
37.531,-63.68
37.546,-70.61
37.562,-72.6
37.578,-69.14
37.593,-62.1
37.609,-54.89
37.625,-50.91
37.640,-51.83
37.656,-56.97
37.671,-63.97
37.687,-70.09
37.703,-73.53
37.718,-73.84
37.734,-71.63
37.750,-67.91
37.765,-63.71
37.781,-59.98
37.796,-57.63
37.812,-57.41
37.828,-59.4
37.843,-62.77
37.859,-65.86
37.875,-66.93
37.890,-64.9
37.906,-59.9
37.921,-53.01
37.937,-45.42
37.953,-37.8
37.968,-30.08
37.984,-21.95
38.000,-13.6
38.015,-6.14
38.031,-1.27
38.046,-0.42
38.062,-4.01
38.078,-11.06
38.093,-19.68
38.109,-27.7
38.125,-33.45
38.140,-35.98
38.156,-35.03
38.171,-30.86
38.187,-24.09
38.203,-15.64
38.218,-6.59
38.234,1.95
38.250,8.93
38.265,13.47
38.281,14.78
38.296,12.38
38.312,6.32
38.328,-2.5
38.343,-12.32
38.359,-21.05
38.375,-26.96
38.390,-29.21
38.406,-27.8
38.421,-23.17
38.437,-15.67
38.453,-5.65
38.468,5.92
38.484,16.77
38.500,23.26
38.515,21.11
38.531,6.95
38.546,-20.45
38.562,-59.59
38.578,-106.91
38.593,-158.03
38.609,-209.12
38.625,-257.59
38.640,-302.26
38.656,-343.12
38.671,-380.65
38.687,-415.44
38.703,-447.49
38.718,-475.72
38.734,-497.73
38.750,-510.17
38.765,-509.72
38.781,-494.4
38.796,-464.6
38.812,-423.22
38.828,-374.99
38.843,-325.08
38.859,-277.79
38.875,-235.92
38.890,-200.67
38.906,-172.16
38.921,-149.83
38.937,-132.51
38.953,-118.18
38.968,-103.99
38.984,-86.56
39.000,-62.91
39.015,-31.55
39.031,6.88
39.046,49.75
39.062,93.35
39.078,134.22
39.093,170.3
39.109,201.34
39.125,228.71
39.140,254.38
39.156,279.89
39.171,305.7
39.187,331.07
39.203,354.43
39.218,373.8
39.234,387.15
39.250,392.48
39.265,388.11
39.281,372.93
39.296,346.94
39.312,311.76
39.328,270.68
39.343,228.13
39.359,188.78
39.375,156.52
39.390,133.92
39.406,122.45
39.421,122.91
39.437,135.78
39.453,160.98
39.468,196.99
39.484,240.1
39.500,284.35
39.515,322.68
39.531,348.57
39.546,357.9
39.562,349.77
39.578,326.13
39.593,290.67
39.609,247.29
39.625,199.28
39.640,149.29
39.656,99.7
39.671,52.94
39.687,11.7
39.703,-21.62
39.718,-45.6
39.734,-60.12
39.750,-66.71
39.765,-68.45
39.781,-69.56
39.796,-74.27
39.812,-85.26
39.828,-101.88
39.843,-119.44
39.859,-130.18
39.875,-125.79
39.890,-100.51
39.906,-53.04
39.921,13.3
39.937,91.94
39.953,174.93
39.968,254.32
39.984,322.69
40.000,373.45
40.015,401.5
40.031,404.48
40.046,383.88
40.062,345.07
40.078,296.28
40.093,246.38
40.109,202.86
40.125,170.67
40.140,152.04
40.156,146.82
40.171,152.64
40.187,165.26
40.203,179.07
40.218,188.13
40.234,187.78
40.250,176.03
40.265,154.13
40.281,125.9
40.296,96.41
40.312,69.93
40.328,48.65
40.343,32.11
40.359,17.83
40.375,2.59
40.390,-16.0
40.406,-38.54
40.421,-63.82
40.437,-89.58
40.453,-113.75
40.468,-135.32
40.484,-154.65
40.500,-173.06
40.515,-192.14
40.531,-213.27
40.546,-237.15
40.562,-263.7
40.578,-291.91
40.593,-319.86
40.609,-344.83
40.625,-363.92
40.640,-374.86
40.656,-377.08
40.671,-372.19
40.687,-363.81
40.703,-356.47
40.718,-353.89
40.734,-357.63
40.750,-366.34
40.765,-376.28
40.781,-382.72
40.796,-381.72
40.812,-371.54
40.828,-353.14
40.843,-329.61
40.859,-305.07
40.875,-283.31
40.890,-266.94
40.906,-257.11
40.921,-253.69
40.937,-255.89
40.953,-262.7
40.968,-273.46
40.984,-287.97
41.000,-306.55
41.015,-329.63
41.031,-357.31
41.046,-388.67
41.062,-421.11
41.078,-450.26
41.093,-470.26
41.109,-474.91
41.125,-459.2
41.140,-420.61
41.156,-360.0
41.171,-281.52
41.187,-191.69
41.203,-97.95
41.218,-7.32
41.234,74.62
41.250,144.04
41.265,198.99
41.281,239.38
41.296,267.01
41.312,285.39
41.328,299.09
41.343,312.57
41.359,328.58
41.375,347.08
41.390,365.23
41.406,378.34
41.421,381.92
41.437,373.35
41.453,352.94
41.468,323.63
41.484,289.64
41.500,254.94
41.515,222.07
41.531,191.97
41.546,164.51
41.562,139.33
41.578,116.32
41.593,95.77
41.609,77.98
41.625,62.84
41.640,49.85
41.656,38.44
41.671,28.53
41.687,20.65
41.703,15.76
41.718,14.69
41.734,17.59
41.750,23.71
41.765,31.73
41.781,40.34
41.796,48.82
41.812,57.35
41.828,66.86
41.843,78.61
41.859,93.52
41.875,111.67
41.890,132.07
41.906,152.74
41.921,171.32
41.937,185.74
41.953,194.93
41.968,199.08
41.984,199.32
42.000,197.06
42.015,193.12
42.031,187.25
42.046,178.27
42.062,164.79
42.078,145.97
42.093,122.22
42.109,95.09
42.125,66.71
42.140,38.91
42.156,12.7
42.171,-11.73
42.187,-34.57
42.203,-55.72
42.218,-74.63
42.234,-90.52
42.250,-102.98
42.265,-112.5
42.281,-120.44
42.296,-128.69
42.312,-138.76
42.328,-151.2
42.343,-165.38
42.359,-180.02
42.375,-193.9
42.390,-206.4
42.406,-217.73
42.421,-228.64
42.437,-239.88
42.453,-251.86
42.468,-264.47
42.484,-277.3
42.500,-289.91
42.515,-302.04
42.531,-313.53
42.546,-324.05
42.562,-332.66
42.578,-337.53
42.593,-336.21
42.609,-326.24
42.625,-306.01
42.640,-275.45
42.656,-236.35
42.671,-191.94
42.687,-146.06
42.703,-102.22
42.718,-62.9
42.734,-29.25
42.750,-1.28
42.765,21.83
42.781,41.46
42.796,59.28
42.812,77.21
42.828,96.98
42.843,119.54
42.859,144.34
42.875,169.01
42.890,189.81
42.906,202.83
42.921,205.39
42.937,197.08
42.953,179.89
42.968,157.25
42.984,132.72
43.000,108.86
43.015,86.88
43.031,67.12
43.046,49.83
43.062,35.73
43.078,25.84
43.093,21.05
43.109,21.51
43.125,26.55
43.140,35.04
43.156,45.96
43.171,58.75
43.187,73.25
43.203,89.39
43.218,106.76
43.234,124.45
43.250,141.11
43.265,155.53
43.281,167.2
43.296,176.83
43.312,186.52
43.328,199.29
43.343,218.18
43.359,245.07
43.375,279.6
43.390,318.81
43.406,357.71
43.421,390.71
43.437,413.34
43.453,423.53
43.468,421.95
43.484,411.19
43.500,394.4
43.515,374.06
43.531,351.35
43.546,326.47
43.562,299.32
43.578,270.06
43.593,239.38
43.609,208.07
43.625,176.68
43.640,145.11
43.656,112.74
43.671,78.69
43.687,42.29
43.703,3.44
43.718,-37.26
43.734,-78.6
43.750,-118.94
43.765,-156.53
43.781,-189.84
43.796,-217.75
43.812,-239.8
43.828,-256.23
43.843,-267.81
43.859,-275.79
43.875,-281.7
43.890,-287.21
43.906,-294.02
43.921,-303.61
43.937,-316.89
43.953,-334.0
43.968,-354.11
43.984,-375.62
44.000,-396.63
44.015,-415.55
44.031,-431.66
44.046,-445.26
44.062,-457.26
44.078,-468.37
44.093,-478.15
44.109,-484.65
44.125,-484.67
44.140,-474.84
44.156,-452.98
44.171,-418.92
44.187,-374.59
44.203,-323.23
44.218,-268.42
44.234,-213.34
44.250,-160.75
44.265,-113.13
44.281,-72.77
44.296,-41.49
44.312,-19.98
44.328,-7.22
44.343,-0.42
44.359,4.27
44.375,10.72
44.390,21.62
44.406,38.01
44.421,59.32
44.437,83.9
44.453,109.84
44.468,135.49
44.484,159.78
44.500,182.35
44.515,203.26
44.531,222.94
44.546,242.06
44.562,261.5
44.578,282.34
44.593,305.55
44.609,331.52
44.625,359.53
44.640,387.68
44.656,413.24
44.671,433.41
44.687,445.99
44.703,449.68
44.718,444.02
44.734,429.1
44.750,405.38
44.765,373.87
44.781,336.36
44.796,295.48
44.812,254.32
44.828,215.62
44.843,181.0
44.859,150.63
44.875,123.46
44.890,97.73
44.906,71.63
44.921,43.78
44.937,13.62
44.953,-18.36
44.968,-50.72
44.984,-81.41
45.000,-108.47
45.015,-130.61
45.031,-147.43
45.046,-159.07
45.062,-165.83
45.078,-167.83
45.093,-165.1
45.109,-158.04
45.125,-147.53
45.140,-134.57
45.156,-119.45
45.171,-100.99
45.187,-76.66
45.203,-43.65
45.218,-0.35
45.234,52.72
45.250,112.88
45.265,176.33
45.281,239.12
45.296,297.63
45.312,348.61
45.328,389.27
45.343,417.6
45.359,433.28
45.375,438.39
45.390,437.08
45.406,434.22
45.421,433.38
45.437,435.23
45.453,437.25
45.468,435.04
45.484,424.39
45.500,403.15
45.515,371.86
45.531,333.19
45.546,290.64
45.562,247.22
45.578,204.79
45.593,164.09
45.609,125.33
45.625,88.71
45.640,54.77
45.656,24.12
45.671,-3.0
45.687,-26.99
45.703,-48.79
45.718,-69.5
45.734,-89.77
45.750,-109.49
45.765,-127.86
45.781,-143.72
45.796,-156.15
45.812,-164.89
45.828,-170.49
45.843,-174.13
45.859,-177.22
45.875,-180.96
45.890,-186.02
45.906,-192.45
45.921,-199.95
45.937,-208.08
45.953,-216.61
45.968,-225.57
45.984,-235.2
46.000,-245.86
46.015,-257.91
46.031,-271.69
46.046,-287.39
46.062,-304.93
46.078,-323.57
46.093,-341.8
46.109,-357.4
46.125,-367.94
46.140,-371.58
46.156,-367.6
46.171,-356.7
46.187,-340.65
46.203,-321.67
46.218,-301.8
46.234,-282.51
46.250,-264.56
46.265,-248.25
46.281,-233.52
46.296,-220.06
46.312,-207.25
46.328,-194.19
46.343,-179.95
46.359,-163.93
46.375,-146.14
46.390,-127.26
46.406,-108.33
46.421,-90.39
46.437,-73.99
46.453,-59.45
46.468,-46.54
46.484,-34.78
46.500,-23.9
46.515,-13.96
46.531,-5.24
46.546,2.36
46.562,9.42
46.578,16.93
46.593,25.27
46.609,34.17
46.625,42.89
46.640,50.44
46.656,56.04
46.671,59.51
46.687,61.29
46.703,62.09
46.718,62.24
46.734,60.34
46.750,54.61
46.765,44.01
46.781,28.83
46.796,10.57
46.812,-8.66
46.828,-26.78
46.843,-42.53
46.859,-55.86
46.875,-70.26
46.890,-88.17
46.906,-109.06
46.921,-129.63
46.937,-145.87
46.953,-155.09
46.968,-156.64
46.984,-151.84
47.000,-143.37
47.015,-139.74
47.031,-147.05
47.046,-166.41
47.062,-194.83
47.078,-228.38
47.093,-264.04
47.109,-299.38
47.125,-331.73
47.140,-358.29
47.156,-385.45
47.171,-417.81
47.187,-455.19
47.203,-493.88
47.218,-531.1
47.234,-566.82
47.250,-602.13
47.265,-636.6
47.281,-667.31
47.296,-700.12
47.312,-736.1
47.328,-768.93
47.343,-788.47
47.359,-788.35
47.375,-769.61
47.390,-738.65
47.406,-703.33
47.421,-599.69
47.437,-406.34
47.453,-151.95
47.468,103.24
47.484,310.49
47.500,453.18
47.515,538.33
47.531,581.91
47.546,599.73
47.562,600.71
47.578,583.97
47.593,548.18
47.609,498.16
47.625,444.29
47.640,396.41
47.656,359.69
47.671,335.2
47.687,322.13
47.703,317.96
47.718,311.72
47.734,295.88
47.750,270.57
47.765,242.03
47.781,216.93
47.796,198.71
47.812,187.59
47.828,182.12
47.843,180.29
47.859,175.33
47.875,162.89
47.890,143.75
47.906,122.59
47.921,104.24
47.937,91.15
47.953,83.44
47.968,79.87
47.984,78.88
48.000,76.93
48.015,71.97
48.031,64.86
48.046,58.53
48.062,55.85
48.078,58.18
48.093,65.34
48.109,76.26
48.125,89.79
48.140,104.31
48.156,119.04
48.171,134.41
48.187,151.58
48.203,171.63
48.218,195.31
48.234,223.18
48.250,255.54
48.265,291.7
48.281,329.15
48.296,362.96
48.312,386.64
48.328,394.08
48.343,381.89
48.359,350.94
48.375,306.11
48.390,254.19
48.406,201.23
48.421,150.61
48.437,103.01
48.453,57.92
48.468,15.77
48.484,-21.25
48.500,-49.7
48.515,-66.69
48.531,-71.56
48.546,-66.15
48.562,-53.64
48.578,-36.71
48.593,-16.57
48.609,6.22
48.625,29.85
48.640,49.62
48.656,58.22
48.671,48.5
48.687,17.38
48.703,-31.51
48.718,-88.21
48.734,-140.04
48.750,-176.56
48.765,-193.1
48.781,-191.3
48.796,-176.55
48.812,-154.47
48.828,-128.41
48.843,-99.37
48.859,-67.57
48.875,-34.0
48.890,-0.85
48.906,29.53
48.921,55.94
48.937,78.86
48.953,99.72
48.968,119.62
48.984,138.13
49.000,153.24
49.015,162.36
49.031,163.75
49.046,157.21
49.062,144.03
49.078,126.28
49.093,105.97
49.109,84.72
49.125,63.83
49.140,44.68
49.156,28.98
49.171,18.53
49.187,14.76
49.203,18.17
49.218,28.14
49.234,43.19
49.250,61.36
49.265,80.73
49.281,99.62
49.296,116.64
49.312,130.58
49.328,140.51
49.343,145.94
49.359,146.98
49.375,144.37
49.390,139.23
49.406,132.67
49.421,125.42
49.437,117.81
49.453,109.84
49.468,101.46
49.484,92.68
49.500,83.67
49.515,74.63
49.531,65.72
49.546,57.03
49.562,48.53
49.578,40.16
49.593,31.74
49.609,23.07
49.625,13.94
49.640,4.28
49.656,-5.71
49.671,-15.66
49.687,-25.02
49.703,-33.42
49.718,-40.8
49.734,-47.53
49.750,-54.28
49.765,-61.79
49.781,-70.46
49.796,-80.11
49.812,-89.91
49.828,-98.39
49.843,-103.84
49.859,-104.76
49.875,-100.35
49.890,-90.9
49.906,-77.76
49.921,-62.91
49.937,-48.29
49.953,-35.2
49.968,-24.14
49.984,-15.12
50.000,-8.2
50.015,-3.88
50.031,-3.02
50.046,-6.15
50.062,-12.78
50.078,-20.9
50.093,-27.18
50.109,-27.93
50.125,-20.13
50.140,-2.22
50.156,25.74
50.171,62.35
50.187,105.18
50.203,150.88
50.218,195.34
50.234,234.0
50.250,262.56
50.265,278.14
50.281,280.02
50.296,269.98
50.312,251.62
50.328,229.03
50.343,205.7
50.359,183.67
50.375,163.55
50.390,144.9
50.406,126.91
50.421,108.75
50.437,89.9
50.453,70.23
50.468,50.23
50.484,31.09
50.500,14.67
50.515,3.14
50.531,-1.66
50.546,1.22
50.562,11.21
50.578,26.2
50.593,42.95
50.609,57.93
50.625,68.35
50.640,72.83
50.656,71.59
50.671,65.9
50.687,57.41
50.703,47.43
50.718,36.73
50.734,25.63
50.750,14.26
50.765,2.85
50.781,-8.42
50.796,-19.5
50.812,-30.64
50.828,-42.3
50.843,-54.79
50.859,-68.05
50.875,-81.5
50.890,-94.26
50.906,-105.42
50.921,-114.47
50.937,-121.4
50.953,-126.8
50.968,-131.56
50.984,-136.62
51.000,-142.6
51.015,-149.65
51.031,-157.4
51.046,-165.15
51.062,-172.27
51.078,-178.42
51.093,-183.74
51.109,-188.7
51.125,-193.85
51.140,-199.56
51.156,-205.86
51.171,-212.38
51.187,-218.29
51.203,-222.36
51.218,-222.99
51.234,-218.47
51.250,-207.44
51.265,-189.31
51.281,-164.58
51.296,-134.81
51.312,-102.28
51.328,-69.36
51.343,-38.15
51.359,-10.14
51.375,13.71
51.390,32.9
51.406,47.22
51.421,56.85
51.437,62.44
51.453,65.05
51.468,65.95
51.484,66.33
51.500,66.89
51.515,67.8
51.531,68.81
51.546,69.63
51.562,70.19
51.578,70.88
51.593,72.38
51.609,75.36
51.625,80.23
51.640,86.86
51.656,94.56
51.671,102.2
51.687,108.37
51.703,111.68
51.718,111.1
51.734,106.22
51.750,97.35
51.765,85.42
51.781,71.69
51.796,57.44
51.812,43.6
51.828,30.7
51.843,18.95
51.859,8.41
51.875,-0.73
51.890,-8.11
51.906,-13.09
51.921,-14.98
51.937,-13.18
51.953,-7.52
51.968,1.61
51.984,13.26
52.000,26.01
52.015,38.47
52.031,49.54
52.046,58.61
52.062,65.48
52.078,70.19
52.093,72.72
52.109,72.93
52.125,70.72
52.140,66.15
52.156,59.59
52.171,51.71
52.187,43.41
52.203,35.5
52.218,28.64
52.234,23.14
52.250,19.02
52.265,16.01
52.281,13.7
52.296,11.68
52.312,9.67
52.328,7.55
52.343,5.42
52.359,3.33
52.375,1.23
52.390,-1.14
52.406,-4.11
52.421,-7.9
52.437,-12.41
52.453,-17.16
52.468,-21.5
52.484,-24.83
52.500,-26.98
52.515,-28.29
52.531,-29.58
52.546,-31.84
52.562,-35.77
52.578,-41.57
52.593,-48.78
52.609,-56.31
52.625,-62.74
52.640,-66.54
52.656,-66.45
52.671,-61.72
52.687,-52.33
52.703,-38.96
52.718,-22.94
52.734,-5.92
52.750,10.43
52.765,24.69
52.781,35.83
52.796,43.27
52.812,46.79
52.828,46.42
52.843,42.49
52.859,35.61
52.875,26.75
52.890,17.08
52.906,7.75
52.921,-0.49
52.937,-7.4
52.953,-13.28
52.968,-18.72
52.984,-24.28
53.000,-30.15
53.015,-36.08
53.031,-41.63
53.046,-46.38
53.062,-50.28
53.078,-53.64
53.093,-57.0
53.109,-60.82
53.125,-65.23
53.140,-69.9
53.156,-74.26
53.171,-77.7
53.187,-79.94
53.203,-81.18
53.218,-82.0
53.234,-83.22
53.250,-85.46
53.265,-88.83
53.281,-92.79
53.296,-96.1
53.312,-97.19
53.328,-94.48
53.343,-86.84
53.359,-73.96
53.375,-56.49
53.390,-35.86
53.406,-13.99
53.421,7.25
53.437,26.4
53.453,42.63
53.468,55.65
53.484,65.54
53.500,72.57
53.515,77.02
53.531,79.31
53.546,80.05
53.562,80.03
53.578,80.15
53.593,81.17
53.609,83.5
53.625,87.16
53.640,91.89
53.656,97.27
53.671,103.03
53.687,109.04
53.703,115.34
53.718,121.93
53.734,128.68
53.750,135.19
53.765,140.8
53.781,144.79
53.796,146.6
53.812,146.07
53.828,143.5
53.843,139.6
53.859,135.26
53.875,131.24
53.890,127.91
53.906,125.1
53.921,121.95
53.937,116.95
53.953,108.25
53.968,94.17
53.984,73.8
54.000,47.52
54.015,17.24
54.031,-13.96
54.046,-42.47
54.062,-65.05
54.078,-79.52
54.093,-85.03
54.109,-82.07
54.125,-72.07
54.140,-56.9
54.156,-38.36
54.171,-17.97
54.187,3.3
54.203,25.03
54.218,47.22
54.234,70.24
54.250,94.44
54.265,119.69
54.281,144.83
54.296,167.37
54.312,183.68
54.328,189.93
54.343,183.47
54.359,163.96
54.375,133.76
54.390,97.15
54.406,58.9
54.421,22.51
54.437,-10.82
54.453,-42.19
54.468,-74.01
54.484,-108.52
54.500,-146.61
54.515,-187.34
54.531,-228.32
54.546,-266.46
54.562,-298.98
54.578,-324.04
54.593,-341.1
54.609,-350.86
54.625,-354.94
54.640,-355.53
54.656,-354.91
54.671,-355.07
54.687,-357.15
54.703,-360.99
54.718,-364.86
54.734,-365.76
54.750,-360.31
54.765,-346.01
54.781,-322.43
54.796,-291.55
54.812,-257.21
54.828,-223.63
54.843,-193.83
54.859,-168.62
54.875,-146.67
54.890,-125.74
54.906,-103.91
54.921,-80.61
54.937,-56.72
54.953,-33.74
54.968,-12.91
54.984,5.27
55.000,21.03
55.015,34.72
55.031,46.32
55.046,55.29
55.062,60.92
55.078,62.81
55.093,61.19
55.109,56.9
55.125,50.91
55.140,43.84
55.156,35.7
55.171,26.22
55.187,15.52
55.203,4.76
55.218,-3.86
55.234,-7.85
55.250,-5.76
55.265,1.79
55.281,11.89
55.296,20.42
55.312,23.59
55.328,19.45
55.343,8.35
55.359,-7.57
55.375,-25.55
55.390,-43.2
55.406,-58.9
55.421,-71.53
55.437,-79.94
55.453,-82.8
55.468,-79.0
55.484,-68.46
55.500,-52.67
55.515,-34.78
55.531,-18.77
55.546,-8.13
55.562,-4.49
55.578,-6.98
55.593,-12.58
55.609,-17.29
55.625,-17.57
55.640,-11.29
55.656,2.09
55.671,22.12
55.687,48.11
55.703,79.46
55.718,115.32
55.734,153.84
55.750,191.65
55.765,224.1
55.781,246.42
55.796,255.41
55.812,250.67
55.828,234.95
55.843,213.23
55.859,190.88
55.875,171.92
55.890,157.96
55.906,148.31
55.921,141.14
55.937,134.8
55.953,128.68
55.968,123.18
55.984,118.79
56.000,115.41
56.015,111.91
56.031,106.59
56.046,98.02
56.062,85.83
56.078,70.94
56.093,55.15
56.109,40.57
56.125,28.86
56.140,20.95
56.156,17.01
56.171,16.72
56.187,19.38
56.203,24.09
56.218,29.81
56.234,35.37
56.250,39.75
56.265,42.19
56.281,42.4
56.296,40.53
56.312,37.11
56.328,32.73
56.343,27.89
56.359,22.92
56.375,17.92
56.390,13.07
56.406,8.73
56.421,5.51
56.437,4.08
56.453,4.88
56.468,7.83
56.484,12.26
56.500,17.16
56.515,21.56
56.531,24.95
56.546,27.28
56.562,28.82
56.578,29.78
56.593,29.95
56.609,28.72
56.625,25.33
56.640,19.34
56.656,10.96
56.671,1.16
56.687,-8.57
56.703,-16.71
56.718,-22.14
56.734,-24.54
56.750,-24.41
56.765,-22.81
56.781,-20.9
56.796,-19.51
56.812,-18.61
56.828,-17.09
56.843,-12.65
56.859,-2.14
56.875,17.76
56.890,49.55
56.906,93.75
56.921,147.96
56.937,206.46
56.953,261.06
56.968,302.89
56.984,324.95
57.000,324.29
57.015,302.9
57.031,266.84
57.046,224.04
57.062,181.54
57.078,143.66
57.093,111.52
57.109,83.98
57.125,59.16
57.140,35.62
57.156,12.8
57.171,-9.5
57.187,-31.65
57.203,-54.6
57.218,-79.58
57.234,-107.51
57.250,-138.56
57.265,-172.17
57.281,-207.48
57.296,-243.86
57.312,-281.0
57.328,-318.47
57.343,-354.94
57.359,-387.74
57.375,-413.15
57.390,-427.42
57.406,-428.18
57.421,-415.26
57.437,-390.68
57.453,-357.64
57.468,-319.2
57.484,-277.3
57.500,-232.77
57.515,-186.08
57.531,-138.27
57.546,-91.36
57.562,-47.97
57.578,-10.34
57.593,20.55
57.609,45.42
57.625,66.19
57.640,85.13
57.656,104.0
57.671,123.56
57.687,143.81
57.703,164.37
57.718,185.03
57.734,205.8
57.750,226.75
57.765,247.73
57.781,268.27
57.796,287.6
57.812,304.92
57.828,319.56
57.843,330.9
57.859,338.33
57.875,341.11
57.890,338.32
57.906,329.06
57.921,312.71
57.937,289.2
57.953,259.17
57.968,224.09
57.984,186.11
58.000,147.78
58.015,111.49
58.031,78.91
58.046,50.55
58.062,25.56
58.078,2.13
58.093,-21.78
58.109,-47.58
58.125,-75.27
58.140,-103.27
58.156,-128.86
58.171,-149.11
58.187,-161.88
58.203,-166.47
58.218,-163.63
58.234,-155.11
58.250,-143.05
58.265,-129.43
58.281,-115.94
58.296,-103.84
58.312,-94.05
58.328,-86.92
58.343,-82.17
58.359,-78.84
58.375,-75.67
58.390,-71.55
58.406,-66.01
58.421,-59.24
58.437,-51.98
58.453,-45.03
58.468,-38.96
58.484,-33.92
58.500,-29.76
58.515,-26.26
58.531,-23.28
58.546,-20.79
58.562,-18.93
58.578,-17.99
58.593,-18.3
58.609,-20.24
58.625,-23.93
58.640,-29.16
58.656,-35.4
58.671,-41.87
58.687,-47.83
58.703,-52.89
58.718,-57.04
58.734,-60.72
58.750,-64.49
58.765,-68.9
58.781,-74.14
58.796,-80.03
58.812,-85.88
58.828,-90.65
58.843,-93.13
58.859,-92.21
58.875,-87.24
58.890,-78.21
58.906,-65.87
58.921,-51.56
58.937,-36.88
58.953,-23.34
58.968,-12.04
58.984,-3.5
59.000,2.29
59.015,5.68
59.031,7.09
59.046,6.87
59.062,5.22
59.078,2.33
59.093,-1.47
59.109,-5.71
59.125,-9.82
59.140,-13.29
59.156,-15.88
59.171,-17.58
59.187,-18.55
59.203,-18.95
59.218,-18.81
59.234,-18.15
59.250,-17.08
59.265,-15.93
59.281,-15.18
59.296,-15.33
59.312,-16.69
59.328,-19.25
59.343,-22.6
59.359,-26.2
59.375,-29.48
59.390,-32.12
59.406,-34.14
59.421,-35.88
59.437,-37.83
59.453,-40.47
59.468,-44.01
59.484,-48.3
59.500,-52.71
59.515,-56.24
59.531,-57.75
59.546,-56.13
59.562,-50.73
59.578,-41.59
59.593,-29.45
59.609,-15.68
59.625,-1.89
59.640,10.52
59.656,20.66
59.671,28.16
59.687,33.18
59.703,36.03
59.718,37.09
59.734,36.71
59.750,35.29
59.765,33.26
59.781,31.12
59.796,29.35
59.812,28.16
59.828,27.59
59.843,27.37
59.859,27.1
59.875,26.42
59.890,25.11
59.906,23.2
59.921,20.93
59.937,18.68
59.953,16.75
59.968,15.27
59.984,14.08
