timestamp,value
00.000,0.61
00.015,-3.28
00.031,-6.86
00.046,-9.89
00.062,-12.37
00.078,-14.43
00.093,-16.34
00.109,-18.42
00.125,-20.94
00.140,-24.07
00.156,-27.91
00.171,-32.43
00.187,-37.41
00.203,-42.34
00.218,-46.4
00.234,-48.57
00.250,-47.88
00.265,-43.75
00.281,-36.3
00.296,-26.28
00.312,-14.99
00.328,-3.8
00.343,6.21
00.359,14.43
00.375,20.75
00.390,25.36
00.406,28.54
00.421,30.52
00.437,31.49
00.453,31.61
00.468,31.13
00.484,30.36
00.500,29.6
00.515,29.03
00.531,28.67
00.546,28.43
00.562,28.04
00.578,27.32
00.593,26.15
00.609,24.51
00.625,22.57
00.640,20.52
00.656,18.5
00.671,16.55
00.687,14.51
00.703,12.15
00.718,9.27
00.734,5.88
00.750,2.23
00.765,-1.27
00.781,-4.24
00.796,-6.59
00.812,-8.53
00.828,-10.46
00.843,-12.75
00.859,-15.57
00.875,-18.89
00.890,-22.59
00.906,-26.51
00.921,-30.53
00.937,-34.39
00.953,-37.63
00.968,-39.51
00.984,-39.23
01.000,-36.21
01.015,-30.35
01.031,-22.17
01.046,-12.62
01.062,-2.84
01.078,6.2
01.093,13.87
01.109,19.9
01.125,24.29
01.140,27.14
01.156,28.59
01.171,28.84
01.187,28.09
01.203,26.59
01.218,24.68
01.234,22.65
01.250,20.75
01.265,19.11
01.281,17.78
01.296,16.69
01.312,15.71
01.328,14.72
01.343,13.6
01.359,12.31
01.375,10.87
01.390,9.32
01.406,7.67
01.421,5.83
01.437,3.64
01.453,0.95
01.468,-2.26
01.484,-5.79
01.500,-9.27
01.515,-12.3
01.531,-14.66
01.546,-16.42
01.562,-18.0
01.578,-19.94
01.593,-22.65
01.609,-26.27
01.625,-30.55
01.640,-34.94
01.656,-38.7
01.671,-41.0
01.687,-41.15
01.703,-38.64
01.718,-33.39
01.734,-25.75
01.750,-16.52
01.765,-6.76
01.781,2.53
01.796,10.66
01.812,17.31
01.828,22.49
01.843,26.3
01.859,28.77
01.875,29.86
01.890,29.6
01.906,28.18
01.921,26.01
01.937,23.65
01.953,21.57
01.968,20.01
01.984,18.95
02.000,18.14
02.015,17.3
02.031,16.24
02.046,14.95
02.062,13.5
02.078,12.02
02.093,10.53
02.109,8.93
02.125,7.01
02.140,4.61
02.156,1.68
02.171,-1.66
02.187,-5.2
02.203,-8.7
02.218,-11.96
02.234,-14.93
02.250,-17.56
02.265,-19.92
02.281,-22.09
02.296,-24.25
02.312,-26.69
02.328,-29.76
02.343,-33.7
02.359,-38.4
02.375,-43.29
02.390,-47.35
02.406,-49.37
02.421,-48.38
02.437,-43.99
02.453,-36.49
02.468,-26.8
02.484,-16.07
02.500,-5.33
02.515,4.65
02.531,13.39
02.546,20.59
02.562,25.93
02.578,29.19
02.593,30.38
02.609,29.85
02.625,28.28
02.640,26.46
02.656,24.98
02.671,24.06
02.687,23.56
02.703,23.18
02.718,22.64
02.734,21.88
02.750,21.03
02.765,20.19
02.781,19.34
02.796,18.38
02.812,17.04
02.828,15.16
02.843,12.66
02.859,9.6
02.875,6.13
02.890,2.37
02.906,-1.58
02.921,-5.65
02.937,-9.81
02.953,-13.97
02.968,-17.96
02.984,-21.64
03.000,-24.97
03.015,-28.07
03.031,-31.25
03.046,-34.85
03.062,-39.03
03.078,-43.66
03.093,-48.21
03.109,-51.83
03.125,-53.56
03.140,-52.53
03.156,-48.16
03.171,-40.31
03.187,-29.38
03.203,-16.25
03.218,-2.13
03.234,11.65
03.250,23.98
03.265,34.12
03.281,41.9
03.296,47.52
03.312,51.4
03.328,53.84
03.343,55.01
03.359,54.9
03.375,53.45
03.390,50.71
03.406,46.88
03.421,42.25
03.437,37.18
03.453,31.93
03.468,26.67
03.484,21.51
03.500,16.55
03.515,11.88
03.531,7.67
03.546,4.06
03.562,1.14
03.578,-1.12
03.593,-2.87
03.609,-4.35
03.625,-5.81
03.640,-7.44
03.656,-9.31
03.671,-11.32
03.687,-13.33
03.703,-15.23
03.718,-16.99
03.734,-18.68
03.750,-20.46
03.765,-22.48
03.781,-24.91
03.796,-27.84
03.812,-31.34
03.828,-35.32
03.843,-39.42
03.859,-43.03
03.875,-45.26
03.890,-45.23
03.906,-42.37
03.921,-36.72
03.937,-28.92
03.953,-20.05
03.968,-11.18
03.984,-3.14
04.000,3.72
04.015,9.39
04.031,13.97
04.046,17.54
04.062,20.06
04.078,21.45
04.093,21.78
04.109,21.25
04.125,20.23
04.140,19.13
04.156,18.25
04.171,17.76
04.187,17.66
04.203,17.83
04.218,18.13
04.234,18.42
04.250,18.59
04.265,18.56
04.281,18.27
04.296,17.69
04.312,16.71
04.328,15.27
04.343,13.34
04.359,10.95
04.375,8.3
04.390,5.6
04.406,3.07
04.421,0.81
04.437,-1.18
04.453,-3.04
04.468,-4.91
04.484,-6.89
04.500,-9.04
04.515,-11.3
04.531,-13.57
04.546,-15.74
04.562,-17.66
04.578,-19.15
04.593,-19.99
04.609,-19.88
04.625,-18.54
04.640,-15.76
04.656,-11.49
04.671,-5.93
04.687,0.52
04.703,7.32
04.718,13.97
04.734,20.08
04.750,25.41
04.765,29.66
04.781,32.51
04.796,33.6
04.812,32.67
04.828,29.79
04.843,25.49
04.859,20.62
04.875,16.12
04.890,12.69
04.906,10.6
04.921,9.64
04.937,9.31
04.953,9.11
04.968,8.7
04.984,8.03
05.000,7.21
05.015,6.36
05.031,5.55
05.046,4.69
05.062,3.65
05.078,2.34
05.093,0.84
05.109,-0.71
05.125,-2.11
05.140,-3.32
05.156,-4.51
05.171,-5.96
05.187,-7.96
05.203,-10.63
05.218,-13.77
05.234,-17.08
05.250,-20.22
05.265,-23.04
05.281,-25.55
05.296,-27.73
05.312,-29.29
05.328,-29.71
05.343,-28.27
05.359,-24.53
05.375,-18.53
05.390,-11.01
05.406,-3.11
05.421,4.05
05.437,9.74
05.453,13.8
05.468,16.54
05.484,18.38
05.500,19.58
05.515,20.17
05.531,20.01
05.546,19.09
05.562,17.54
05.578,15.69
05.593,13.94
05.609,12.56
05.625,11.63
05.640,11.03
05.656,10.59
05.671,10.17
05.687,9.72
05.703,9.26
05.718,8.76
05.734,8.06
05.750,6.85
05.765,4.81
05.781,1.74
05.796,-2.28
05.812,-6.89
05.828,-11.54
05.843,-15.76
05.859,-19.34
05.875,-22.31
05.890,-24.9
05.906,-27.35
05.921,-29.75
05.937,-32.08
05.953,-34.15
05.968,-35.69
05.984,-36.3
06.000,-35.54
06.015,-32.96
06.031,-28.31
06.046,-21.63
06.062,-13.35
06.078,-4.26
06.093,4.79
06.109,13.03
06.125,20.03
06.140,25.6
06.156,29.74
06.171,32.45
06.187,33.74
06.203,33.67
06.218,32.48
06.234,30.58
06.250,28.44
06.265,26.42
06.281,24.64
06.296,23.02
06.312,21.34
06.328,19.46
06.343,17.43
06.359,15.39
06.375,13.52
06.390,11.86
06.406,10.22
06.421,8.3
06.437,5.84
06.453,2.72
06.468,-0.92
06.484,-4.78
06.500,-8.48
06.515,-11.67
06.531,-14.19
06.546,-16.05
06.562,-17.49
06.578,-18.83
06.593,-20.43
06.609,-22.59
06.625,-25.4
06.640,-28.72
06.656,-32.12
06.671,-34.96
06.687,-36.57
06.703,-36.38
06.718,-34.1
06.734,-29.8
06.750,-23.89
06.765,-16.98
06.781,-9.74
06.796,-2.69
06.812,3.74
06.828,9.32
06.843,13.85
06.859,17.25
06.875,19.49
06.890,20.68
06.906,21.04
06.921,20.78
06.937,20.14
06.953,19.28
06.968,18.29
06.984,17.22
07.000,16.15
07.015,15.11
07.031,14.11
07.046,13.15
07.062,12.11
07.078,10.91
07.093,9.49
07.109,7.89
07.125,6.16
07.140,4.36
07.156,2.44
07.171,0.3
07.187,-2.16
07.203,-4.99
07.218,-7.99
07.234,-10.86
07.250,-13.27
07.265,-15.06
07.281,-16.37
07.296,-17.57
07.312,-19.18
07.328,-21.51
07.343,-24.56
07.359,-27.96
07.375,-31.05
07.390,-33.15
07.406,-33.62
07.421,-32.09
07.437,-28.44
07.453,-22.87
07.468,-15.81
07.484,-7.92
07.500,0.04
07.515,7.4
07.531,13.68
07.546,18.64
07.562,22.27
07.578,24.65
07.593,25.89
07.609,26.17
07.625,25.71
07.640,24.86
07.656,23.94
07.671,23.16
07.687,22.48
07.703,21.64
07.718,20.31
07.734,18.34
07.750,15.89
07.765,13.37
07.781,11.27
07.796,9.9
07.812,9.18
07.828,8.79
07.843,8.23
07.859,7.12
07.875,5.27
07.890,2.72
07.906,-0.3
07.921,-3.57
07.937,-6.81
07.953,-9.83
07.968,-12.48
07.984,-14.76
08.000,-16.86
08.015,-19.09
08.031,-21.72
08.046,-24.72
08.062,-27.74
08.078,-30.08
08.093,-30.95
08.109,-29.78
08.125,-26.42
08.140,-21.15
08.156,-14.62
08.171,-7.55
08.187,-0.55
08.203,5.87
08.218,11.32
08.234,15.51
08.250,18.2
08.265,19.4
08.281,19.34
08.296,18.47
08.312,17.31
08.328,16.25
08.343,15.46
08.359,14.85
08.375,14.24
08.390,13.43
08.406,12.4
08.421,11.27
08.437,10.2
08.453,9.29
08.468,8.58
08.484,7.98
08.500,7.36
08.515,6.57
08.531,5.51
08.546,4.12
08.562,2.32
08.578,0.08
08.593,-2.59
08.609,-5.62
08.625,-8.78
08.640,-11.8
08.656,-14.43
08.671,-16.64
08.687,-18.65
08.703,-20.83
08.718,-23.56
08.734,-26.91
08.750,-30.53
08.765,-33.65
08.781,-35.34
08.796,-34.82
08.812,-31.76
08.828,-26.38
08.843,-19.33
08.859,-11.44
08.875,-3.49
08.890,3.91
08.906,10.33
08.921,15.54
08.937,19.4
08.953,21.87
08.968,23.05
08.984,23.15
09.000,22.48
09.015,21.35
09.031,20.01
09.046,18.61
09.062,17.18
09.078,15.7
09.093,14.19
09.109,12.63
09.125,11.11
09.140,9.68
09.156,8.36
09.171,7.16
09.187,5.99
09.203,4.69
09.218,3.07
09.234,1.03
09.250,-1.41
09.265,-4.06
09.281,-6.67
09.296,-9.05
09.312,-11.17
09.328,-13.19
09.343,-15.36
09.359,-17.9
09.375,-20.92
09.390,-24.41
09.406,-28.19
09.421,-31.98
09.437,-35.33
09.453,-37.65
09.468,-38.28
09.484,-36.7
09.500,-32.69
09.515,-26.53
09.531,-18.96
09.546,-10.87
09.562,-3.12
09.578,3.78
09.593,9.67
09.609,14.6
09.625,18.64
09.640,21.77
09.656,23.85
09.671,24.78
09.687,24.6
09.703,23.56
09.718,22.08
09.734,20.63
09.750,19.55
09.765,18.93
09.781,18.72
09.796,18.66
09.812,18.44
09.828,17.84
09.843,16.74
09.859,15.15
09.875,13.16
09.890,10.83
09.906,8.19
09.921,5.25
09.937,2.0
09.953,-1.49
09.968,-5.09
09.984,-8.63
10.000,-11.9
10.015,-14.74
10.031,-17.11
10.046,-19.14
10.062,-21.04
10.078,-23.13
10.093,-25.65
10.109,-28.68
10.125,-32.0
10.140,-35.04
10.156,-37.01
10.171,-37.05
10.187,-34.6
10.203,-29.57
10.218,-22.46
10.234,-14.15
10.250,-5.66
10.265,2.2
10.281,8.99
10.296,14.66
10.312,19.37
10.328,23.25
10.343,26.3
10.359,28.35
10.375,29.32
10.390,29.24
10.406,28.38
10.421,27.1
10.437,25.66
10.453,24.17
10.468,22.56
10.484,20.78
10.500,18.85
10.515,16.99
10.531,15.47
10.546,14.46
10.562,13.82
10.578,13.22
10.593,12.19
10.609,10.35
10.625,7.6
10.640,4.07
10.656,0.1
10.671,-3.94
10.687,-7.74
10.703,-11.11
10.718,-13.95
10.734,-16.29
10.750,-18.28
10.765,-20.18
10.781,-22.33
10.796,-25.0
10.812,-28.21
10.828,-31.64
10.843,-34.58
10.859,-36.1
10.875,-35.35
10.890,-31.89
10.906,-25.83
10.921,-17.89
10.937,-9.17
10.953,-0.78
10.968,6.43
10.984,12.16
11.000,16.52
11.015,19.91
11.031,22.64
11.046,24.85
11.062,26.36
11.078,26.94
11.093,26.43
11.109,24.94
11.125,22.79
11.140,20.42
11.156,18.26
11.171,16.58
11.187,15.45
11.203,14.82
11.218,14.51
11.234,14.3
11.250,13.9
11.265,13.08
11.281,11.65
11.296,9.58
11.312,6.92
11.328,3.84
11.343,0.56
11.359,-2.72
11.375,-5.75
11.390,-8.34
11.406,-10.41
11.421,-12.07
11.437,-13.66
11.453,-15.67
11.468,-18.5
11.484,-22.31
11.500,-26.75
11.515,-31.09
11.531,-34.29
11.546,-35.39
11.562,-33.84
11.578,-29.63
11.593,-23.29
11.609,-15.68
11.625,-7.67
11.640,0.06
11.656,7.13
11.671,13.4
11.687,18.75
11.703,23.08
11.718,26.14
11.734,27.73
11.750,27.82
11.765,26.62
11.781,24.57
11.796,22.26
11.812,20.16
11.828,18.59
11.843,17.53
11.859,16.73
11.875,15.88
11.890,14.73
11.906,13.19
11.921,11.38
11.937,9.52
11.953,7.78
11.968,6.2
11.984,4.63
12.000,2.81
12.015,0.5
12.031,-2.34
12.046,-5.55
12.062,-8.83
12.078,-11.86
12.093,-14.42
12.109,-16.51
12.125,-18.33
12.140,-20.17
12.156,-22.3
12.171,-24.9
12.187,-27.95
12.203,-31.19
12.218,-34.15
12.234,-36.22
12.250,-36.8
12.265,-35.45
12.281,-31.97
12.296,-26.52
12.312,-19.51
12.328,-11.59
12.343,-3.51
12.359,3.97
12.375,10.24
12.390,14.89
12.406,17.77
12.421,18.95
12.437,18.66
12.453,17.18
12.468,14.89
12.484,12.17
12.500,9.45
12.515,7.11
12.531,5.43
12.546,4.44
12.562,3.96
12.578,3.62
12.593,3.07
12.609,2.22
12.625,1.21
12.640,0.45
12.656,0.29
12.671,0.9
12.687,2.09
12.703,3.4
12.718,4.33
12.734,4.59
12.750,4.25
12.765,3.67
12.781,3.29
12.796,3.4
12.812,3.85
12.828,4.17
12.843,3.76
12.859,2.13
12.875,-0.82
12.890,-4.86
12.906,-9.49
12.921,-14.07
12.937,-17.87
12.953,-20.24
12.968,-20.57
12.984,-18.48
13.000,-13.91
13.015,-7.25
13.031,0.73
13.046,9.11
13.062,17.02
13.078,23.9
13.093,29.43
13.109,33.52
13.125,36.17
13.140,37.39
13.156,37.26
13.171,35.95
13.187,33.74
13.203,31.05
13.218,28.32
13.234,25.91
13.250,24.01
13.265,22.6
13.281,21.44
13.296,20.29
13.312,18.89
13.328,17.16
13.343,15.15
13.359,12.97
13.375,10.74
13.390,8.44
13.406,6.0
13.421,3.28
13.437,0.23
13.453,-3.09
13.468,-6.49
13.484,-9.66
13.500,-12.39
13.515,-14.56
13.531,-16.27
13.546,-17.79
13.562,-19.56
13.578,-21.97
13.593,-25.27
13.609,-29.31
13.625,-33.52
13.640,-36.98
13.656,-38.7
13.671,-37.96
13.687,-34.51
13.703,-28.73
13.718,-21.39
13.734,-13.43
13.750,-5.64
13.765,1.52
13.781,7.79
13.796,13.06
13.812,17.16
13.828,19.83
13.843,20.97
13.859,20.68
13.875,19.39
13.890,17.71
13.906,16.21
13.921,15.19
13.937,14.65
13.953,14.39
13.968,14.17
13.984,13.88
14.000,13.53
14.015,13.17
14.031,12.79
14.046,12.34
14.062,11.72
14.078,10.9
14.093,9.82
14.109,8.45
14.125,6.65
14.140,4.28
14.156,1.23
14.171,-2.43
14.187,-6.46
14.203,-10.5
14.218,-14.19
14.234,-17.32
14.250,-19.88
14.265,-22.03
14.281,-23.99
14.296,-25.97
14.312,-28.06
14.328,-30.23
14.343,-32.25
14.359,-33.73
14.375,-34.13
14.390,-32.89
14.406,-29.67
14.421,-24.46
14.437,-17.68
14.453,-10.07
14.468,-2.45
14.484,4.5
14.500,10.35
14.515,14.96
14.531,18.35
14.546,20.61
14.562,21.79
14.578,21.96
14.593,21.25
14.609,19.89
14.625,18.21
14.640,16.5
14.656,15.0
14.671,13.82
14.687,12.98
14.703,12.45
14.718,12.21
14.734,12.2
14.750,12.28
14.765,12.28
14.781,12.04
14.796,11.41
14.812,10.38
14.828,8.95
14.843,7.17
14.859,5.09
14.875,2.76
14.890,0.28
14.906,-2.22
14.921,-4.59
14.937,-6.73
14.953,-8.61
14.968,-10.3
14.984,-11.9
15.000,-13.45
15.015,-14.96
15.031,-16.5
15.046,-18.28
15.062,-20.62
15.078,-23.67
15.093,-27.16
15.109,-30.35
15.125,-32.13
15.140,-31.49
15.156,-27.98
15.171,-21.95
15.187,-14.49
15.203,-6.97
15.218,-0.38
15.234,5.01
15.250,9.64
15.265,14.22
15.281,19.39
15.296,25.15
15.312,30.91
15.328,35.61
15.343,38.31
15.359,38.55
15.375,36.64
15.390,33.28
15.406,29.19
15.421,24.93
15.437,20.55
15.453,15.98
15.468,10.98
15.484,5.26
15.500,-1.69
15.515,-10.87
15.531,-23.79
15.546,-42.09
15.562,-65.19
15.578,-89.8
15.593,-109.97
15.609,-119.46
15.625,-115.04
15.640,-97.95
15.656,-72.95
15.671,-45.82
15.687,-21.45
15.703,-2.49
15.718,10.38
15.734,17.95
15.750,21.55
15.765,22.56
15.781,22.24
15.796,21.82
15.812,22.38
15.828,24.49
15.843,28.23
15.859,32.78
15.875,36.4
15.890,36.74
15.906,32.0
15.921,22.7
15.937,11.69
15.953,4.1
15.968,5.23
15.984,18.13
16.000,41.63
16.015,70.31
16.031,96.56
16.046,113.62
16.062,118.19
16.078,111.13
16.093,96.29
16.109,78.15
16.125,59.97
16.140,42.98
16.156,26.93
16.171,11.27
16.187,-3.91
16.203,-17.84
16.218,-29.6
16.234,-38.66
16.250,-45.35
16.265,-50.77
16.281,-55.45
16.296,-60.15
16.312,-65.41
16.328,-71.39
16.343,-77.91
16.359,-84.62
16.375,-91.01
16.390,-96.67
16.406,-101.31
16.421,-104.83
16.437,-107.33
16.453,-108.81
16.468,-108.82
16.484,-106.27
16.500,-99.65
16.515,-87.4
16.531,-68.69
16.546,-43.87
16.562,-14.54
16.578,16.98
16.593,48.47
16.609,78.36
16.625,105.68
16.640,129.59
16.656,148.97
16.671,162.5
16.687,169.32
16.703,169.79
16.718,165.65
16.734,159.52
16.750,153.84
16.765,149.84
16.781,146.92
16.796,143.07
16.812,135.75
16.828,123.01
16.843,104.39
16.859,81.21
16.875,56.23
16.890,33.12
16.906,15.35
16.921,4.99
16.937,1.87
16.953,3.68
16.968,6.74
16.984,7.47
17.000,3.4
17.015,-6.41
17.031,-21.16
17.046,-38.76
17.062,-56.76
17.078,-73.13
17.093,-86.93
17.109,-98.23
17.125,-108.01
17.140,-117.55
17.156,-128.29
17.171,-140.59
17.187,-153.33
17.203,-164.28
17.218,-171.2
17.234,-172.7
17.250,-168.68
17.265,-160.13
17.281,-148.55
17.296,-135.95
17.312,-123.7
17.328,-112.29
17.343,-101.51
17.359,-90.86
17.375,-79.56
17.390,-66.47
17.406,-50.23
17.421,-26.3
17.437,5.66
17.453,41.32
17.468,73.47
17.484,96.06
17.500,106.83
17.515,107.11
17.531,100.13
17.546,89.26
17.562,77.04
17.578,64.39
17.593,51.96
17.609,40.83
17.625,32.76
17.640,29.57
17.656,32.2
17.671,40.43
17.687,52.65
17.703,65.95
17.718,76.27
17.734,80.35
17.750,76.87
17.765,67.01
17.781,53.86
17.796,41.04
17.812,31.36
17.828,25.89
17.843,24.02
17.859,23.62
17.875,22.54
17.890,19.46
17.906,13.91
17.921,5.82
17.937,-5.04
17.953,-19.06
17.968,-36.5
17.984,-55.62
18.000,-73.04
18.015,-84.68
18.031,-87.72
18.046,-82.14
18.062,-70.43
18.078,-56.17
18.093,-42.53
18.109,-31.5
18.125,-23.64
18.140,-18.77
18.156,-16.22
18.171,-15.12
18.187,-14.42
18.203,-13.09
18.218,-10.66
18.234,-7.02
18.250,-2.94
18.265,0.47
18.281,2.1
18.296,1.37
18.312,-1.73
18.328,-6.43
18.343,-11.42
18.359,-15.28
18.375,-17.04
18.390,-16.74
18.406,-15.6
18.421,-15.85
18.437,-19.93
18.453,-29.76
18.468,-45.24
18.484,-63.63
18.500,-80.1
18.515,-89.25
18.531,-87.33
18.546,-73.92
18.562,-52.36
18.578,-28.59
18.593,-9.02
18.609,1.97
18.625,3.33
18.640,-2.83
18.656,-12.55
18.671,-21.92
18.687,-28.36
18.703,-30.95
18.718,-29.88
18.734,-25.62
18.750,-18.28
18.765,-7.69
18.781,6.18
18.796,22.63
18.812,40.09
18.828,56.41
18.843,69.55
18.859,78.26
18.875,82.41
18.890,82.85
18.906,80.89
18.921,77.74
18.937,74.05
18.953,69.93
18.968,65.19
18.984,59.75
19.000,53.82
19.015,47.99
19.031,42.95
19.046,39.13
19.062,36.44
19.078,34.35
19.093,32.1
19.109,29.08
19.125,25.1
19.140,20.37
19.156,15.38
19.171,10.69
19.187,6.64
19.203,3.36
19.218,0.76
19.234,-1.31
19.250,-3.13
19.265,-4.98
19.281,-7.13
19.296,-9.81
19.312,-13.08
19.328,-16.88
19.343,-21.08
19.359,-25.6
19.375,-30.38
19.390,-35.34
19.406,-40.19
19.421,-44.2
19.437,-46.4
19.453,-45.86
19.468,-42.08
19.484,-35.28
19.500,-26.45
19.515,-17.02
19.531,-8.28
19.546,-0.96
19.562,4.9
19.578,9.73
19.593,14.09
19.609,18.22
19.625,22.01
19.640,25.08
19.656,27.11
19.671,28.07
19.687,28.28
19.703,28.24
19.718,28.35
19.734,28.85
19.750,29.61
19.765,30.36
19.781,30.84
19.796,30.99
19.812,30.94
19.828,30.95
19.843,31.22
19.859,31.72
19.875,32.21
19.890,32.26
19.906,31.49
19.921,29.7
19.937,26.97
19.953,23.62
19.968,20.07
19.984,16.69
20.000,13.66
20.015,10.94
20.031,8.29
20.046,5.43
20.062,2.03
20.078,-2.12
20.093,-7.07
20.109,-12.65
20.125,-18.41
20.140,-23.72
20.156,-27.78
20.171,-29.84
20.187,-29.37
20.203,-26.18
20.218,-20.49
20.234,-12.88
20.250,-4.12
20.265,4.89
20.281,13.39
20.296,20.75
20.312,26.58
20.328,30.71
20.343,33.19
20.359,34.2
20.375,34.14
20.390,33.37
20.406,32.3
20.421,31.21
20.437,30.21
20.453,29.32
20.468,28.45
20.484,27.53
20.500,26.51
20.515,25.4
20.531,24.19
20.546,22.86
20.562,21.35
20.578,19.58
20.593,17.46
20.609,14.91
20.625,11.89
20.640,8.3
20.656,4.16
20.671,-0.48
20.687,-5.39
20.703,-10.25
20.718,-14.73
20.734,-18.65
20.750,-22.11
20.765,-25.49
20.781,-29.33
20.796,-33.99
20.812,-39.5
20.828,-45.35
20.843,-50.66
20.859,-54.41
20.875,-55.71
20.890,-54.06
20.906,-49.43
20.921,-42.28
20.937,-33.35
20.953,-23.52
20.968,-13.56
20.984,-4.03
21.000,4.68
21.015,12.33
21.031,18.66
21.046,23.4
21.062,26.27
21.078,27.25
21.093,26.63
21.109,25.04
21.125,23.24
21.140,21.77
21.156,20.8
21.171,20.04
21.187,19.02
21.203,17.45
21.218,15.39
21.234,13.28
21.250,11.58
21.265,10.52
21.281,9.93
21.296,9.31
21.312,8.1
21.328,5.95
21.343,2.82
21.359,-1.02
21.375,-5.19
21.390,-9.39
21.406,-13.5
21.421,-17.52
21.437,-21.52
21.453,-25.54
21.468,-29.61
21.484,-33.75
21.500,-38.05
21.515,-42.57
21.531,-47.2
21.546,-51.47
21.562,-54.58
21.578,-55.53
21.593,-53.4
21.609,-47.83
21.625,-39.08
21.640,-28.12
21.656,-16.29
21.671,-4.89
21.687,5.09
21.703,13.21
21.718,19.48
21.734,24.2
21.750,27.66
21.765,30.08
21.781,31.48
21.796,31.88
21.812,31.38
21.828,30.22
21.843,28.77
21.859,27.36
21.875,26.22
21.890,25.29
21.906,24.36
21.921,23.14
21.937,21.46
21.953,19.38
21.968,17.15
21.984,15.05
22.000,13.23
22.015,11.6
22.031,9.89
22.046,7.76
22.062,4.95
22.078,1.45
22.093,-2.49
22.109,-6.49
22.125,-10.14
22.140,-13.24
22.156,-15.88
22.171,-18.35
22.187,-21.14
22.203,-24.64
22.218,-29.07
22.234,-34.39
22.250,-40.22
22.265,-45.94
22.281,-50.65
22.296,-53.41
22.312,-53.39
22.328,-50.06
22.343,-43.45
22.359,-34.13
22.375,-23.09
22.390,-11.47
22.406,-0.27
22.421,9.9
22.437,18.77
22.453,26.36
22.468,32.75
22.484,37.99
22.500,42.04
22.515,44.85
22.531,46.36
22.546,46.66
22.562,45.93
22.578,44.41
22.593,42.34
22.609,39.96
22.625,37.46
22.640,34.96
22.656,32.58
22.671,30.37
22.687,28.25
22.703,26.12
22.718,23.81
22.734,21.21
22.750,18.36
22.765,15.31
22.781,12.16
22.796,8.93
22.812,5.52
22.828,1.84
22.843,-2.13
22.859,-6.22
22.875,-10.12
22.890,-13.58
22.906,-16.53
22.921,-19.14
22.937,-21.77
22.953,-24.76
22.968,-28.32
22.984,-32.42
23.000,-36.93
23.015,-41.62
23.031,-46.16
23.046,-50.04
23.062,-52.52
23.078,-52.74
23.093,-50.0
23.109,-44.05
23.125,-35.24
23.140,-24.52
23.156,-13.04
23.171,-1.9
23.187,8.14
23.203,16.76
23.218,23.94
23.234,29.82
23.250,34.57
23.265,38.25
23.281,40.78
23.296,42.06
23.312,41.98
23.328,40.64
23.343,38.35
23.359,35.65
23.375,33.11
23.390,31.06
23.406,29.6
23.421,28.46
23.437,27.27
23.453,25.74
23.468,23.75
23.484,21.39
23.500,18.79
23.515,16.03
23.531,13.12
23.546,10.04
23.562,6.79
23.578,3.45
23.593,0.11
23.609,-3.17
23.625,-6.37
23.640,-9.52
23.656,-12.62
23.671,-15.64
23.687,-18.5
23.703,-21.14
23.718,-23.62
23.734,-26.08
23.750,-28.81
23.765,-32.04
23.781,-35.82
23.796,-39.85
23.812,-43.5
23.828,-45.85
23.843,-45.97
23.859,-43.23
23.875,-37.48
23.890,-29.2
23.906,-19.32
23.921,-8.95
23.937,0.92
23.953,9.64
23.968,16.91
23.984,22.69
24.000,26.97
24.015,29.7
24.031,30.83
24.046,30.43
24.062,28.84
24.078,26.64
24.093,24.54
24.109,23.07
24.125,22.44
24.140,22.42
24.156,22.47
24.171,22.04
24.187,20.76
24.203,18.61
24.218,15.87
24.234,12.99
24.250,10.35
24.265,8.11
24.281,6.11
24.296,4.05
24.312,1.62
24.328,-1.27
24.343,-4.48
24.359,-7.77
24.375,-10.96
24.390,-14.06
24.406,-17.26
24.421,-20.78
24.437,-24.68
24.453,-28.82
24.468,-33.01
24.484,-37.13
24.500,-41.21
24.515,-45.25
24.531,-48.94
24.546,-51.49
24.562,-51.82
24.578,-48.97
24.593,-42.6
24.609,-33.28
24.625,-22.27
24.640,-11.02
24.656,-0.63
24.671,8.42
24.687,16.17
24.703,22.83
24.718,28.49
24.734,32.92
24.750,35.8
24.765,36.91
24.781,36.32
24.796,34.48
24.812,31.98
24.828,29.43
24.843,27.34
24.859,26.01
24.875,25.47
24.890,25.54
24.906,25.81
24.921,25.79
24.937,25.11
24.953,23.62
24.968,21.44
24.984,18.89
25.000,16.28
25.015,13.74
25.031,11.19
25.046,8.43
25.062,5.24
25.078,1.59
25.093,-2.39
25.109,-6.39
25.125,-10.15
25.140,-13.53
25.156,-16.62
25.171,-19.68
25.187,-23.09
25.203,-27.17
25.218,-32.1
25.234,-37.75
25.250,-43.73
25.265,-49.33
25.281,-53.76
25.296,-56.16
25.312,-55.8
25.328,-52.26
25.343,-45.56
25.359,-36.23
25.375,-25.2
25.390,-13.61
25.406,-2.49
25.421,7.4
25.437,15.72
25.453,22.46
25.468,27.81
25.484,32.04
25.500,35.32
25.515,37.72
25.531,39.19
25.546,39.75
25.562,39.4
25.578,38.27
25.593,36.56
25.609,34.54
25.625,32.46
25.640,30.51
25.656,28.71
25.671,26.97
25.687,25.17
25.703,23.27
25.718,21.33
25.734,19.46
25.750,17.69
25.765,15.86
25.781,13.67
25.796,10.77
25.812,6.91
25.828,2.14
25.843,-3.23
25.859,-8.73
25.875,-13.87
25.890,-18.34
25.906,-22.08
25.921,-25.25
25.937,-28.14
25.953,-31.06
25.968,-34.31
25.984,-38.1
26.000,-42.53
26.015,-47.57
26.031,-52.89
26.046,-57.77
26.062,-61.2
26.078,-62.04
26.093,-59.39
26.109,-52.94
26.125,-43.18
26.140,-31.26
26.156,-18.63
26.171,-6.59
26.187,4.04
26.203,13.03
26.218,20.55
26.234,26.84
26.250,32.03
26.265,35.96
26.281,38.4
26.296,39.2
26.312,38.43
26.328,36.49
26.343,33.91
26.359,31.22
26.375,28.8
26.390,26.73
26.406,24.89
26.421,23.04
26.437,20.96
26.453,18.56
26.468,15.93
26.484,13.24
26.500,10.68
26.515,8.3
26.531,5.95
26.546,3.37
26.562,0.32
26.578,-3.33
26.593,-7.43
26.609,-11.69
26.625,-15.78
26.640,-19.47
26.656,-22.77
26.671,-25.88
26.687,-29.1
26.703,-32.62
26.718,-36.56
26.734,-40.92
26.750,-45.57
26.765,-50.27
26.781,-54.55
26.796,-57.68
26.812,-58.76
26.828,-56.94
26.843,-51.67
26.859,-43.07
26.875,-31.88
26.890,-19.36
26.906,-6.93
26.921,4.26
26.937,13.59
26.953,21.02
26.968,26.89
26.984,31.64
27.000,35.49
27.015,38.35
27.031,39.98
27.046,40.14
27.062,38.85
27.078,36.51
27.093,33.78
27.109,31.31
27.125,29.51
27.140,28.35
27.156,27.49
27.171,26.5
27.187,25.06
27.203,23.16
27.218,21.0
27.234,18.86
27.250,16.84
27.265,14.88
27.281,12.72
27.296,10.11
27.312,6.89
27.328,3.09
27.343,-1.02
27.359,-5.17
27.375,-9.08
27.390,-12.63
27.406,-15.84
27.421,-18.88
27.437,-21.93
27.453,-25.21
27.468,-28.86
27.484,-32.96
27.500,-37.48
27.515,-42.17
27.531,-46.61
27.546,-50.06
27.562,-51.69
27.578,-50.61
27.593,-46.28
27.609,-38.69
27.625,-28.47
27.640,-16.77
27.656,-4.89
27.671,6.0
27.687,15.23
27.703,22.63
27.718,28.46
27.734,33.1
27.750,36.86
27.765,39.8
27.781,41.87
27.796,43.01
27.812,43.29
27.828,42.85
27.843,41.87
27.859,40.46
27.875,38.73
27.890,36.74
27.906,34.66
27.921,32.68
27.937,30.91
27.953,29.35
27.968,27.81
27.984,25.98
28.000,23.61
28.015,20.65
28.031,17.24
28.046,13.62
28.062,10.08
28.078,6.79
28.093,3.83
28.109,1.16
28.125,-1.31
28.140,-3.7
28.156,-6.16
28.171,-8.81
28.187,-11.71
28.203,-14.81
28.218,-17.96
28.234,-20.99
28.250,-23.83
28.265,-26.64
28.281,-29.77
28.296,-33.69
28.312,-38.71
28.328,-44.63
28.343,-50.64
28.359,-55.46
28.375,-57.72
28.390,-56.53
28.406,-51.77
28.421,-44.2
28.437,-35.04
28.453,-25.56
28.468,-16.64
28.484,-8.65
28.500,-1.59
28.515,4.64
28.531,10.0
28.546,14.26
28.562,17.14
28.578,18.5
28.593,18.48
28.609,17.43
28.625,15.86
28.640,14.24
28.656,12.93
28.671,12.1
28.687,11.77
28.703,11.88
28.718,12.37
28.734,13.17
28.750,14.22
28.765,15.41
28.781,16.53
28.796,17.35
28.812,17.62
28.828,17.24
28.843,16.23
28.859,14.74
28.875,13.0
28.890,11.12
28.906,9.09
28.921,6.74
28.937,3.87
28.953,0.41
28.968,-3.43
28.984,-7.28
29.000,-10.67
29.015,-13.34
29.031,-15.36
29.046,-17.13
29.062,-19.25
29.078,-22.14
29.093,-25.92
29.109,-30.28
29.125,-34.52
29.140,-37.78
29.156,-39.16
29.171,-37.98
29.187,-33.89
29.203,-26.98
29.218,-17.83
29.234,-7.37
29.250,3.34
29.265,13.28
29.281,21.73
29.296,28.31
29.312,32.87
29.328,35.45
29.343,36.12
29.359,35.04
29.375,32.56
29.390,29.22
29.406,25.66
29.421,22.54
29.437,20.31
29.453,19.14
29.468,18.95
29.484,19.46
29.500,20.33
29.515,21.23
29.531,21.93
29.546,22.24
29.562,22.09
29.578,21.49
29.593,20.49
29.609,19.11
29.625,17.43
29.640,15.43
29.656,13.12
29.671,10.53
29.687,7.73
29.703,4.78
29.718,1.76
29.734,-1.3
29.750,-4.36
29.765,-7.44
29.781,-10.57
29.796,-13.84
29.812,-17.36
29.828,-21.14
29.843,-25.0
29.859,-28.44
29.875,-30.72
29.890,-31.05
29.906,-28.84
29.921,-23.98
29.937,-16.91
29.953,-8.43
29.968,0.48
29.984,8.95
30.000,16.32
30.015,22.16
30.031,26.23
30.046,28.5
30.062,29.05
30.078,28.14
30.093,26.17
30.109,23.54
30.125,20.71
30.140,18.01
30.156,15.66
30.171,13.77
30.187,12.36
30.203,11.37
30.218,10.73
30.234,10.31
30.250,9.93
30.265,9.42
30.281,8.63
30.296,7.45
30.312,5.78
30.328,3.59
30.343,0.85
30.359,-2.4
30.375,-6.07
30.390,-10.01
30.406,-13.94
30.421,-17.6
30.437,-20.8
30.453,-23.51
30.468,-25.92
30.484,-28.37
30.500,-31.23
30.515,-34.74
30.531,-38.78
30.546,-42.84
30.562,-46.06
30.578,-47.48
30.593,-46.27
30.609,-42.07
30.625,-35.09
30.640,-26.1
30.656,-16.2
30.671,-6.48
30.687,2.25
30.703,9.55
30.718,15.39
30.734,19.93
30.750,23.38
30.765,25.86
30.781,27.34
30.796,27.79
30.812,27.24
30.828,25.85
30.843,24.0
30.859,22.11
30.875,20.51
30.890,19.37
30.906,18.57
30.921,17.83
30.937,16.83
30.953,15.42
30.968,13.63
30.984,11.63
31.000,9.59
31.015,7.57
31.031,5.44
31.046,3.0
31.062,0.06
31.078,-3.41
31.093,-7.27
31.109,-11.32
31.125,-15.3
31.140,-19.03
31.156,-22.35
31.171,-25.26
31.187,-27.86
31.203,-30.38
31.218,-33.14
31.234,-36.47
31.250,-40.59
31.265,-45.47
31.281,-50.72
31.296,-55.52
31.312,-58.83
31.328,-59.54
31.343,-56.84
31.359,-50.52
31.375,-41.08
31.390,-29.61
31.406,-17.54
31.421,-6.09
31.437,3.95
31.453,12.34
31.468,19.24
31.484,24.89
31.500,29.42
31.515,32.73
31.531,34.7
31.546,35.3
31.562,34.71
31.578,33.28
31.593,31.43
31.609,29.47
31.625,27.65
31.640,26.03
31.656,24.6
31.671,23.28
31.687,21.93
31.703,20.39
31.718,18.54
31.734,16.34
31.750,13.86
31.765,11.21
31.781,8.46
31.796,5.57
31.812,2.36
31.828,-1.34
31.843,-5.6
31.859,-10.3
31.875,-15.13
31.890,-19.75
31.906,-23.9
31.921,-27.56
31.937,-30.87
31.953,-34.03
31.968,-37.21
31.984,-40.5
32.000,-43.85
32.015,-47.27
32.031,-50.73
32.046,-54.15
32.062,-57.2
32.078,-59.18
32.093,-59.1
32.109,-55.94
32.125,-49.05
32.140,-38.5
32.156,-25.18
32.171,-10.58
32.187,3.63
32.203,16.13
32.218,26.22
32.234,33.91
32.250,39.68
32.265,44.09
32.281,47.58
32.296,50.3
32.312,52.18
32.328,53.14
32.343,53.16
32.359,52.36
32.375,50.9
32.390,48.93
32.406,46.54
32.421,43.78
32.437,40.75
32.453,37.61
32.468,34.6
32.484,31.97
32.500,29.83
32.515,28.14
32.531,26.67
32.546,25.11
32.562,23.1
32.578,20.44
32.593,17.11
32.609,13.25
32.625,9.09
32.640,4.86
32.656,0.68
32.671,-3.47
32.687,-7.62
32.703,-11.82
32.718,-16.0
32.734,-20.03
32.750,-23.8
32.765,-27.27
32.781,-30.54
32.796,-33.82
32.812,-37.37
32.828,-41.36
32.843,-45.67
32.859,-49.8
32.875,-52.91
32.890,-53.99
32.906,-52.16
32.921,-47.06
32.937,-38.93
32.953,-28.61
32.968,-17.21
32.984,-5.82
33.000,4.77
33.015,14.12
33.031,22.05
33.046,28.5
33.062,33.44
33.078,36.89
33.093,38.96
33.109,39.82
33.125,39.74
33.140,39.0
33.156,37.89
33.171,36.62
33.187,35.35
33.203,34.11
33.218,32.88
33.234,31.61
33.250,30.26
33.265,28.85
33.281,27.41
33.296,25.96
33.312,24.4
33.328,22.58
33.343,20.38
33.359,17.79
33.375,14.98
33.390,12.18
33.406,9.56
33.421,7.1
33.437,4.62
33.453,1.86
33.468,-1.37
33.484,-5.06
33.500,-9.0
33.515,-12.92
33.531,-16.57
33.546,-19.79
33.562,-22.58
33.578,-25.07
33.593,-27.45
33.609,-29.94
33.625,-32.76
33.640,-36.05
33.656,-39.85
33.671,-43.95
33.687,-47.87
33.703,-50.79
33.718,-51.73
33.734,-49.79
33.750,-44.44
33.765,-35.81
33.781,-24.68
33.796,-12.35
33.812,-0.24
33.828,10.41
33.843,18.93
33.859,25.13
33.875,29.33
33.890,32.02
33.906,33.63
33.921,34.45
33.937,34.59
33.953,34.06
33.968,32.93
33.984,31.39
34.000,29.71
34.015,28.13
34.031,26.76
34.046,25.62
34.062,24.57
34.078,23.58
34.093,22.67
34.109,21.88
34.125,21.25
34.140,20.59
34.156,19.58
34.171,17.81
34.187,15.02
34.203,11.23
34.218,6.81
34.234,2.39
34.250,-1.4
34.265,-4.17
34.281,-5.94
34.296,-7.12
34.312,-8.3
34.328,-10.0
34.343,-12.43
34.359,-15.44
34.375,-18.67
34.390,-21.74
34.406,-24.49
34.421,-27.06
34.437,-29.76
34.453,-32.93
34.468,-36.73
34.484,-41.01
34.500,-45.28
34.515,-48.8
34.531,-50.72
34.546,-50.22
34.562,-46.8
34.578,-40.32
34.593,-31.12
34.609,-19.93
34.625,-7.77
34.640,4.26
34.656,15.13
34.671,24.07
34.687,30.64
34.703,34.85
34.718,37.0
34.734,37.6
34.750,37.08
34.765,35.7
34.781,33.49
34.796,30.36
34.812,26.31
34.828,21.65
34.843,16.96
34.859,12.93
34.875,10.11
34.890,8.68
34.906,8.43
34.921,8.91
34.937,9.6
34.953,10.11
34.968,10.24
34.984,9.92
35.000,9.17
35.015,8.01
35.031,6.45
35.046,4.51
35.062,2.22
35.078,-0.42
35.093,-3.34
35.109,-6.5
35.125,-9.78
35.140,-13.03
35.156,-16.11
35.171,-18.91
35.187,-21.39
35.203,-23.52
35.218,-25.36
35.234,-26.99
35.250,-28.5
35.265,-29.95
35.281,-31.16
35.296,-31.7
35.312,-30.91
35.328,-28.1
35.343,-22.9
35.359,-15.47
35.375,-6.51
35.390,2.93
35.406,11.79
35.421,19.28
35.437,25.01
35.453,28.85
35.468,30.89
35.484,31.26
35.500,30.23
35.515,28.2
35.531,25.72
35.546,23.41
35.562,21.71
35.578,20.8
35.593,20.6
35.609,20.81
35.625,21.08
35.640,21.1
35.656,20.68
35.671,19.67
35.687,18.08
35.703,15.98
35.718,13.52
35.734,10.92
35.750,8.34
35.765,5.81
35.781,3.22
35.796,0.45
35.812,-2.62
35.828,-5.99
35.843,-9.49
35.859,-12.87
35.875,-15.88
35.890,-18.36
35.906,-20.35
35.921,-22.12
35.937,-24.04
35.953,-26.46
35.968,-29.53
35.984,-33.11
36.000,-36.69
36.015,-39.57
36.031,-41.01
36.046,-40.33
36.062,-37.16
36.078,-31.43
36.093,-23.44
36.109,-13.82
36.125,-3.5
36.140,6.44
36.156,14.96
36.171,21.24
36.187,24.95
36.203,26.22
36.218,25.52
36.234,23.58
36.250,21.09
36.265,18.57
36.281,16.3
36.296,14.35
36.312,12.66
36.328,11.15
36.343,9.82
36.359,8.71
36.375,7.87
36.390,7.25
36.406,6.71
36.421,6.0
36.437,4.88
36.453,3.2
36.468,1.0
36.484,-1.53
36.500,-4.16
36.515,-6.64
36.531,-8.91
36.546,-10.99
36.562,-13.02
36.578,-15.14
36.593,-17.37
36.609,-19.68
36.625,-21.91
36.640,-23.98
36.656,-25.91
36.671,-27.84
36.687,-30.0
36.703,-32.62
36.718,-35.83
36.734,-39.7
36.750,-44.16
36.765,-49.03
36.781,-53.89
36.796,-58.01
36.812,-60.45
36.828,-60.24
36.843,-56.66
36.859,-49.62
36.875,-39.72
36.890,-28.14
36.906,-16.28
36.921,-5.36
36.937,3.85
36.953,11.14
36.968,16.68
36.984,20.86
37.000,23.98
37.015,26.22
37.031,27.62
37.046,28.18
37.062,27.96
37.078,27.16
37.093,26.0
37.109,24.75
37.125,23.59
37.140,22.64
37.156,21.92
37.171,21.46
37.187,21.19
37.203,21.01
37.218,20.76
37.234,20.18
37.250,19.06
37.265,17.26
37.281,14.8
37.296,11.87
37.312,8.7
37.328,5.49
37.343,2.34
37.359,-0.77
37.375,-3.97
37.390,-7.38
37.406,-11.06
37.421,-15.0
37.437,-19.11
37.453,-23.26
37.468,-27.35
37.484,-31.28
37.500,-35.05
37.515,-38.74
37.531,-42.49
37.546,-46.49
37.562,-50.9
37.578,-55.62
37.593,-60.23
37.609,-63.9
37.625,-65.46
37.640,-63.85
37.656,-58.42
37.671,-49.34
37.687,-37.56
37.703,-24.62
37.718,-12.07
37.734,-1.02
37.750,8.01
37.765,15.13
37.781,20.67
37.796,25.03
37.812,28.45
37.828,31.11
37.843,33.08
37.859,34.46
37.875,35.25
37.890,35.39
37.906,34.77
37.921,33.36
37.937,31.35
37.953,29.16
37.968,27.28
37.984,26.12
38.000,25.82
38.015,26.11
38.031,26.51
38.046,26.49
38.062,25.62
38.078,23.8
38.093,21.21
38.109,18.16
38.125,14.97
38.140,11.84
38.156,8.77
38.171,5.65
38.187,2.39
38.203,-1.06
38.218,-4.66
38.234,-8.25
38.250,-11.72
38.265,-15.01
38.281,-18.12
38.296,-21.09
38.312,-24.05
38.328,-27.16
38.343,-30.74
38.359,-35.14
38.375,-40.59
38.390,-47.02
38.406,-53.8
38.421,-59.84
38.437,-63.7
38.453,-64.08
38.468,-60.11
38.484,-51.75
38.500,-39.78
38.515,-25.59
38.531,-10.81
38.546,3.13
38.562,15.27
38.578,25.23
38.593,33.1
38.609,39.23
38.625,43.94
38.640,47.4
38.656,49.61
38.671,50.45
38.687,49.93
38.703,48.25
38.718,45.87
38.734,43.37
38.750,41.34
38.765,40.08
38.781,39.57
38.796,39.47
38.812,39.24
38.828,38.41
38.843,36.69
38.859,34.08
38.875,30.78
38.890,27.07
38.906,23.22
38.921,19.35
38.937,15.56
38.953,11.9
38.968,8.49
38.984,5.42
39.000,2.73
39.015,0.31
39.031,-2.06
39.046,-4.65
39.062,-7.67
39.078,-11.17
39.093,-15.05
39.109,-19.17
39.125,-23.4
39.140,-27.77
39.156,-32.39
39.171,-37.32
39.187,-42.34
39.203,-46.76
39.218,-49.47
39.234,-49.25
39.250,-45.16
39.265,-37.0
39.281,-25.52
39.296,-12.19
39.312,1.24
39.328,13.25
39.343,22.99
39.359,30.26
39.375,35.32
39.390,38.53
39.406,40.19
39.421,40.45
39.437,39.42
39.453,37.39
39.468,34.83
39.484,32.32
39.500,30.39
39.515,29.35
39.531,29.17
39.546,29.49
39.562,29.83
39.578,29.72
39.593,28.94
39.609,27.46
39.625,25.48
39.640,23.24
39.656,20.9
39.671,18.47
39.687,15.85
39.703,12.91
39.718,9.61
39.734,5.99
39.750,2.09
39.765,-1.98
39.781,-6.1
39.796,-10.1
39.812,-13.82
39.828,-17.17
39.843,-20.18
39.859,-23.02
39.875,-25.94
39.890,-29.21
39.906,-33.07
39.921,-37.62
39.937,-42.77
39.953,-48.05
39.968,-52.57
39.984,-55.06
40.000,-54.25
40.015,-49.32
40.031,-40.28
40.046,-28.08
40.062,-14.39
40.078,-0.93
40.093,11.01
40.109,20.88
40.125,28.72
40.140,34.87
40.156,39.64
40.171,43.09
40.187,45.19
40.203,45.86
40.218,45.22
40.234,43.57
40.250,41.33
40.265,38.97
40.281,36.84
40.296,35.15
40.312,33.95
40.328,33.16
40.343,32.59
40.359,31.98
40.375,31.13
40.390,29.85
40.406,28.0
40.421,25.53
40.437,22.48
40.453,18.99
40.468,15.28
40.484,11.57
40.500,8.06
40.515,4.75
40.531,1.54
40.546,-1.75
40.562,-5.29
40.578,-9.13
40.593,-13.12
40.609,-17.05
40.625,-20.65
40.640,-23.83
40.656,-26.68
40.671,-29.52
40.687,-32.75
40.703,-36.73
40.718,-41.61
40.734,-47.16
40.750,-52.67
40.765,-57.05
40.781,-59.0
40.796,-57.39
40.812,-51.7
40.828,-42.14
40.843,-29.71
40.859,-15.89
40.875,-2.22
40.890,10.05
40.906,20.22
40.921,28.15
40.937,34.11
40.953,38.49
40.968,41.67
40.984,43.85
41.000,45.06
41.015,45.28
41.031,44.54
41.046,43.02
41.062,41.05
41.078,39.0
41.093,37.21
41.109,35.84
41.125,34.9
41.140,34.3
41.156,33.92
41.171,33.61
41.187,33.17
41.203,32.34
41.218,30.82
41.234,28.37
41.250,25.01
41.265,21.0
41.281,16.81
41.296,12.95
41.312,9.68
41.328,6.98
41.343,4.51
41.359,1.79
41.375,-1.63
41.390,-5.95
41.406,-11.03
41.421,-16.48
41.437,-21.75
41.453,-26.33
41.468,-29.94
41.484,-32.62
41.500,-34.75
41.515,-36.91
41.531,-39.7
41.546,-43.51
41.562,-48.34
41.578,-53.69
41.593,-58.58
41.609,-61.79
41.625,-62.15
41.640,-58.82
41.656,-51.66
41.671,-41.24
41.687,-28.8
41.703,-15.8
41.718,-3.65
41.734,6.73
41.750,14.97
41.765,21.15
41.781,25.65
41.796,28.88
41.812,31.11
41.828,32.47
41.843,33.0
41.859,32.79
41.875,32.02
41.890,30.94
41.906,29.83
41.921,28.86
41.937,28.05
41.953,27.28
41.968,26.47
41.984,25.6
42.000,24.82
42.015,24.3
42.031,24.02
42.046,23.81
42.062,23.21
42.078,21.76
42.093,19.25
42.109,15.83
42.125,11.99
42.140,8.32
42.156,5.26
42.171,2.87
42.187,0.88
42.203,-1.15
42.218,-3.6
42.234,-6.59
42.250,-10.07
42.265,-13.79
42.281,-17.48
42.296,-20.89
42.312,-23.86
42.328,-26.29
42.343,-28.2
42.359,-29.84
42.375,-31.62
42.390,-34.09
42.406,-37.64
42.421,-42.22
42.437,-47.13
42.453,-51.06
42.468,-52.46
42.484,-50.07
42.500,-43.48
42.515,-33.27
42.531,-20.89
42.546,-8.1
42.562,3.56
42.578,13.23
42.593,20.76
42.609,26.42
42.625,30.62
42.640,33.58
42.656,35.35
42.671,35.89
42.687,35.27
42.703,33.73
42.718,31.63
42.734,29.35
42.750,27.16
42.765,25.23
42.781,23.64
42.796,22.48
42.812,21.79
42.828,21.54
42.843,21.59
42.859,21.64
42.875,21.28
42.890,20.22
42.906,18.33
42.921,15.75
42.937,12.83
42.953,9.96
42.968,7.41
42.984,5.28
43.000,3.38
43.015,1.44
43.031,-0.83
43.046,-3.66
43.062,-7.08
43.078,-10.93
43.093,-14.87
43.109,-18.56
43.125,-21.69
43.140,-24.19
43.156,-26.31
43.171,-28.46
43.187,-31.14
43.203,-34.63
43.218,-38.8
43.234,-42.97
43.250,-46.13
43.265,-47.1
43.281,-44.95
43.296,-39.34
43.312,-30.63
43.328,-19.85
43.343,-8.45
43.359,2.21
43.375,11.16
43.390,18.02
43.406,23.0
43.421,26.49
43.437,28.88
43.453,30.36
43.468,30.94
43.484,30.59
43.500,29.42
43.515,27.71
43.531,25.82
43.546,24.07
43.562,22.63
43.578,21.49
43.593,20.57
43.609,19.72
43.625,18.8
43.640,17.78
43.656,16.58
43.671,15.19
43.687,13.55
43.703,11.63
43.718,9.4
43.734,6.98
43.750,4.53
43.765,2.22
43.781,0.14
43.796,-1.76
43.812,-3.71
43.828,-5.95
43.843,-8.65
43.859,-11.79
43.875,-15.15
43.890,-18.48
43.906,-21.63
43.921,-24.6
43.937,-27.57
43.953,-30.72
43.968,-34.14
43.984,-37.85
44.000,-41.77
44.015,-45.74
44.031,-49.44
44.046,-52.32
44.062,-53.64
44.078,-52.57
44.093,-48.55
44.109,-41.49
44.125,-31.95
44.140,-20.94
44.156,-9.72
44.171,0.67
44.187,9.59
44.203,16.85
44.218,22.55
44.234,26.9
44.250,30.03
44.265,32.01
44.281,32.88
44.296,32.74
44.312,31.82
44.328,30.42
44.343,28.85
44.359,27.35
44.375,26.03
44.390,24.91
44.406,23.92
44.421,23.0
44.437,22.14
44.453,21.32
44.468,20.56
44.484,19.8
44.500,18.85
44.515,17.4
44.531,15.23
44.546,12.22
44.562,8.56
44.578,4.66
44.593,1.01
44.609,-2.06
44.625,-4.55
44.640,-6.78
44.656,-9.2
44.671,-12.13
44.687,-15.57
44.703,-19.18
44.718,-22.5
44.734,-25.17
44.750,-27.2
44.765,-29.02
44.781,-31.22
44.796,-34.3
44.812,-38.45
44.828,-43.41
44.843,-48.47
44.859,-52.63
44.875,-54.83
44.890,-54.19
44.906,-50.24
44.921,-43.06
44.937,-33.32
44.953,-22.08
44.968,-10.56
44.984,0.23
45.000,9.59
45.015,17.27
45.031,23.21
45.046,27.54
45.062,30.41
45.078,32.04
45.093,32.73
45.109,32.84
45.125,32.65
45.140,32.33
45.156,31.87
45.171,31.16
45.187,30.22
45.203,29.17
45.218,28.22
45.234,27.52
45.250,27.0
45.265,26.42
45.281,25.48
45.296,24.02
45.312,21.98
45.328,19.48
45.343,16.67
45.359,13.65
45.375,10.52
45.390,7.34
45.406,4.24
45.421,1.29
45.437,-1.46
45.453,-4.11
45.468,-6.86
45.484,-9.88
45.500,-13.27
45.515,-16.95
45.531,-20.66
45.546,-24.04
45.562,-26.84
45.578,-28.95
45.593,-30.53
45.609,-32.02
45.625,-34.02
45.640,-37.09
45.656,-41.43
45.671,-46.68
45.687,-51.92
45.703,-55.81
45.718,-57.0
45.734,-54.48
45.750,-47.96
45.765,-37.96
45.781,-25.69
45.796,-12.67
45.812,-0.36
45.828,10.2
45.843,18.53
45.859,24.66
45.875,28.92
45.890,31.69
45.906,33.26
45.921,33.81
45.937,33.5
45.953,32.62
45.968,31.49
45.984,30.46
46.000,29.71
46.015,29.21
46.031,28.75
46.046,28.13
46.062,27.24
46.078,26.15
46.093,25.01
46.109,23.94
46.125,22.9
46.140,21.72
46.156,20.16
46.171,18.04
46.187,15.39
46.203,12.4
46.218,9.37
46.234,6.59
46.250,4.13
46.265,1.86
46.281,-0.49
46.296,-3.21
46.312,-6.47
46.328,-10.2
46.343,-14.14
46.359,-17.99
46.375,-21.45
46.390,-24.49
46.406,-27.25
46.421,-29.98
46.437,-32.94
46.453,-36.34
46.468,-40.24
46.484,-44.6
46.500,-49.18
46.515,-53.4
46.531,-56.43
46.546,-57.22
46.562,-54.86
46.578,-48.93
46.593,-39.77
46.609,-28.44
46.625,-16.45
46.640,-5.31
46.656,3.98
46.671,11.07
46.687,16.21
46.703,19.9
46.718,22.62
46.734,24.61
46.750,25.84
46.765,26.25
46.781,25.86
46.796,24.87
46.812,23.63
46.828,22.51
46.843,21.74
46.859,21.34
46.875,21.21
46.890,21.18
46.906,21.09
46.921,20.87
46.937,20.51
46.953,19.94
46.968,19.09
46.984,17.86
47.000,16.21
47.015,14.19
47.031,11.97
47.046,9.83
47.062,8.01
47.078,6.73
47.093,6.02
47.109,5.74
47.125,5.6
47.140,5.21
47.156,4.15
47.171,2.05
47.187,-1.31
47.203,-5.93
47.218,-11.58
47.234,-17.86
47.250,-24.37
47.265,-30.83
47.281,-37.14
47.296,-43.15
47.312,-48.56
47.328,-52.71
47.343,-54.65
47.359,-53.49
47.375,-48.76
47.390,-40.74
47.406,-30.4
47.421,-19.13
47.437,-8.22
47.453,1.45
47.468,9.52
47.484,15.94
47.500,20.69
47.515,23.73
47.531,24.94
47.546,24.41
47.562,22.48
47.578,19.8
47.593,17.08
47.609,14.89
47.625,13.53
47.640,12.94
47.656,12.91
47.671,13.15
47.687,13.4
47.703,13.49
47.718,13.32
47.734,12.9
47.750,12.3
47.765,11.65
47.781,11.02
47.796,10.46
47.812,9.83
47.828,8.96
47.843,7.64
47.859,5.78
47.875,3.48
47.890,0.99
47.906,-1.46
47.921,-3.72
47.937,-5.78
47.953,-7.79
47.968,-9.93
47.984,-12.3
48.000,-14.98
48.015,-17.98
48.031,-21.29
48.046,-24.93
48.062,-28.83
48.078,-32.67
48.093,-35.75
48.109,-37.14
48.125,-35.85
48.140,-31.36
48.156,-23.84
48.171,-14.2
48.187,-3.81
48.203,6.01
48.218,14.37
48.234,20.95
48.250,25.85
48.265,29.21
48.281,31.04
48.296,31.18
48.312,29.56
48.328,26.45
48.343,22.49
48.359,18.54
48.375,15.29
48.390,13.03
48.406,11.54
48.421,10.28
48.437,8.74
48.453,6.76
48.468,4.57
48.484,2.68
48.500,1.57
48.515,1.37
48.531,1.8
48.546,2.3
48.562,2.24
48.578,1.24
48.593,-0.72
48.609,-3.38
48.625,-6.32
48.640,-9.21
48.656,-11.92
48.671,-14.48
48.687,-17.01
48.703,-19.63
48.718,-22.48
48.734,-25.69
48.750,-29.44
48.765,-33.87
48.781,-38.9
48.796,-44.06
48.812,-48.49
48.828,-51.02
48.843,-50.49
48.859,-46.22
48.875,-38.21
48.890,-27.24
48.906,-14.61
48.921,-1.78
48.937,10.02
48.953,20.02
48.968,28.0
48.984,34.08
49.000,38.61
49.015,41.89
49.031,44.11
49.046,45.39
49.062,45.77
49.078,45.28
49.093,44.0
49.109,42.05
49.125,39.62
49.140,37.01
49.156,34.52
49.171,32.38
49.187,30.69
49.203,29.34
49.218,28.05
49.234,26.51
49.250,24.46
49.265,21.77
49.281,18.53
49.296,14.92
49.312,11.13
49.328,7.36
49.343,3.74
49.359,0.32
49.375,-2.92
49.390,-6.07
49.406,-9.26
49.421,-12.61
49.437,-16.13
49.453,-19.78
49.468,-23.33
49.484,-26.55
49.500,-29.37
49.515,-31.94
49.531,-34.63
49.546,-37.93
49.562,-42.23
49.578,-47.47
49.593,-53.16
49.609,-58.25
49.625,-61.55
49.640,-61.94
49.656,-58.78
49.671,-52.04
49.687,-42.24
49.703,-30.37
49.718,-17.54
49.734,-4.85
49.750,6.83
49.765,16.92
49.781,25.18
49.796,31.62
49.812,36.42
49.828,39.82
49.843,42.02
49.859,43.21
49.875,43.53
49.890,43.14
49.906,42.25
49.921,41.02
49.937,39.63
49.953,38.17
49.968,36.7
49.984,35.23
50.000,33.76
50.015,32.28
50.031,30.79
50.046,29.29
50.062,27.67
50.078,25.85
50.093,23.65
50.109,20.97
50.125,17.74
50.140,14.05
50.156,10.0
50.171,5.71
50.187,1.3
50.203,-3.16
50.218,-7.52
50.234,-11.63
50.250,-15.31
50.265,-18.5
50.281,-21.29
50.296,-23.97
50.312,-26.88
50.328,-30.34
50.343,-34.48
50.359,-39.21
50.375,-44.19
50.390,-48.8
50.406,-52.24
50.421,-53.59
50.437,-51.98
50.453,-46.95
50.468,-38.57
50.484,-27.62
50.500,-15.34
50.515,-3.16
50.531,7.82
50.546,16.96
50.562,24.18
50.578,29.72
50.593,33.86
50.609,36.77
50.625,38.47
50.640,38.91
50.656,38.2
50.671,36.64
50.687,34.68
50.703,32.8
50.718,31.36
50.734,30.49
50.750,30.13
50.765,30.13
50.781,30.31
50.796,30.54
50.812,30.65
50.828,30.43
50.843,29.66
50.859,28.11
50.875,25.66
50.890,22.42
50.906,18.66
50.921,14.75
50.937,11.0
50.953,7.52
50.968,4.2
50.984,0.87
51.000,-2.6
51.015,-6.23
51.031,-9.83
51.046,-13.22
51.062,-16.27
51.078,-19.02
51.093,-21.62
51.109,-24.3
51.125,-27.25
51.140,-30.69
51.156,-34.73
51.171,-39.34
51.187,-44.18
51.203,-48.49
51.218,-51.19
51.234,-51.16
51.250,-47.61
51.265,-40.43
51.281,-30.31
51.296,-18.47
51.312,-6.34
51.328,4.86
51.343,14.36
51.359,21.9
51.375,27.58
51.390,31.69
51.406,34.49
51.421,36.18
51.437,36.84
51.453,36.55
51.468,35.49
51.484,33.94
51.500,32.26
51.515,30.7
51.531,29.34
51.546,28.09
51.562,26.75
51.578,25.25
51.593,23.64
51.609,22.06
51.625,20.63
51.640,19.29
51.656,17.8
51.671,15.88
51.687,13.33
51.703,10.18
51.718,6.68
51.734,3.18
51.750,-0.08
51.765,-3.06
51.781,-5.89
51.796,-8.7
51.812,-11.56
51.828,-14.34
51.843,-16.85
51.859,-18.9
51.875,-20.48
51.890,-21.72
51.906,-22.92
51.921,-24.39
51.937,-26.31
51.953,-28.74
51.968,-31.55
51.984,-34.46
52.000,-37.01
52.015,-38.53
52.031,-38.23
52.046,-35.36
52.062,-29.5
52.078,-20.77
52.093,-9.92
52.109,1.78
52.125,12.96
52.140,22.49
52.156,29.77
52.171,34.84
52.187,38.12
52.203,40.12
52.218,41.19
52.234,41.45
52.250,40.84
52.265,39.41
52.281,37.41
52.296,35.24
52.312,33.31
52.328,31.84
52.343,30.81
52.359,30.01
52.375,29.24
52.390,28.35
52.406,27.31
52.421,26.06
52.437,24.49
52.453,22.4
52.468,19.67
52.484,16.36
52.500,12.7
52.515,9.05
52.531,5.65
52.546,2.64
52.562,-0.1
52.578,-2.75
52.593,-5.48
52.609,-8.31
52.625,-11.13
52.640,-13.79
52.656,-16.23
52.671,-18.55
52.687,-21.05
52.703,-24.13
52.718,-28.09
52.734,-33.05
52.750,-38.87
52.765,-45.13
52.781,-51.17
52.796,-56.14
52.812,-59.16
52.828,-59.39
52.843,-56.31
52.859,-49.94
52.875,-40.88
52.890,-30.31
52.906,-19.6
52.921,-9.9
52.937,-1.89
52.953,4.27
52.968,8.78
52.984,11.9
53.000,13.74
53.015,14.32
53.031,13.69
53.046,12.06
53.062,9.91
53.078,7.79
53.093,6.19
53.109,5.38
53.125,5.34
53.140,5.81
53.156,6.43
53.171,6.85
53.187,6.85
53.203,6.32
53.218,5.28
53.234,3.85
53.250,2.11
53.265,0.11
53.281,-2.15
53.296,-4.72
53.312,-7.59
53.328,-10.7
53.343,-13.94
53.359,-17.12
53.375,-20.04
53.390,-22.57
53.406,-24.69
53.421,-26.46
53.437,-28.03
53.453,-29.6
53.468,-31.38
53.484,-33.52
53.500,-36.12
53.515,-39.1
53.531,-42.19
53.546,-44.84
53.562,-46.3
53.578,-45.72
53.593,-42.44
53.609,-36.22
53.625,-27.41
53.640,-16.9
53.656,-5.84
53.671,4.61
53.687,13.63
53.703,20.86
53.718,26.25
53.734,29.96
53.750,32.12
53.765,32.81
53.781,32.13
53.796,30.33
53.812,27.88
53.828,25.38
53.843,23.38
53.859,22.23
53.875,21.96
53.890,22.34
53.906,22.93
53.921,23.34
53.937,23.29
53.953,22.71
53.968,21.7
53.984,20.44
54.000,19.09
54.015,17.73
54.031,16.29
54.046,14.59
54.062,12.48
54.078,9.85
54.093,6.76
54.109,3.4
54.125,0.08
54.140,-2.93
54.156,-5.48
54.171,-7.65
54.187,-9.74
54.203,-12.1
54.218,-15.06
54.234,-18.68
54.250,-22.8
54.265,-27.01
54.281,-30.78
54.296,-33.52
54.312,-34.6
54.328,-33.48
54.343,-29.81
54.359,-23.66
54.375,-15.57
54.390,-6.56
54.406,2.22
54.421,9.74
54.437,15.43
54.453,19.19
54.468,21.27
54.484,22.01
54.500,21.68
54.515,20.51
54.531,18.75
54.546,16.79
54.562,15.11
54.578,14.07
54.593,13.77
54.609,13.94
54.625,14.01
54.640,13.48
54.656,12.11
54.671,10.07
54.687,7.81
54.703,5.82
54.718,4.32
54.734,3.23
54.750,2.21
54.765,0.86
54.781,-1.01
54.796,-3.37
54.812,-5.99
54.828,-8.59
54.843,-10.96
54.859,-13.05
54.875,-14.93
54.890,-16.76
54.906,-18.78
54.921,-21.29
54.937,-24.55
54.953,-28.67
54.968,-33.5
54.984,-38.46
55.000,-42.66
55.015,-45.08
55.031,-44.86
55.046,-41.59
55.062,-35.41
55.078,-27.03
55.093,-17.46
55.109,-7.78
55.125,1.1
55.140,8.6
55.156,14.46
55.171,18.67
55.187,21.34
55.203,22.68
55.218,22.89
55.234,22.23
55.250,21.02
55.265,19.64
55.281,18.46
55.296,17.75
55.312,17.57
55.328,17.72
55.343,17.85
55.359,17.55
55.375,16.58
55.390,14.94
55.406,12.86
55.421,10.67
55.437,8.61
55.453,6.75
55.468,4.94
55.484,2.93
55.500,0.49
55.515,-2.44
55.531,-5.71
55.546,-9.1
55.562,-12.38
55.578,-15.44
55.593,-18.32
55.609,-21.2
55.625,-24.26
55.640,-27.73
55.656,-31.78
55.671,-36.49
55.687,-41.79
55.703,-47.28
55.718,-52.18
55.734,-55.44
55.750,-55.99
55.765,-53.11
55.781,-46.77
55.796,-37.63
55.812,-26.86
55.828,-15.78
55.843,-5.41
55.859,3.67
55.875,11.32
55.890,17.63
55.906,22.67
55.921,26.38
55.937,28.66
55.953,29.49
55.968,29.08
55.984,27.9
56.000,26.53
56.015,25.44
56.031,24.86
56.046,24.69
56.062,24.61
56.078,24.27
56.093,23.48
56.109,22.24
56.125,20.71
56.140,19.05
56.156,17.31
56.171,15.42
56.187,13.24
56.203,10.67
56.218,7.71
56.234,4.48
56.250,1.08
56.265,-2.37
56.281,-5.84
56.296,-9.3
56.312,-12.71
56.328,-16.02
56.343,-19.17
56.359,-22.2
56.375,-25.32
56.390,-28.89
56.406,-33.28
56.421,-38.69
56.437,-44.89
56.453,-51.19
56.468,-56.48
56.484,-59.5
56.500,-59.23
56.515,-55.13
56.531,-47.37
56.546,-36.75
56.562,-24.53
56.578,-12.09
56.593,-0.58
56.609,9.28
56.625,17.26
56.640,23.51
56.656,28.35
56.671,32.04
56.687,34.73
56.703,36.47
56.718,37.31
56.734,37.45
56.750,37.1
56.765,36.5
56.781,35.83
56.796,35.17
56.812,34.5
56.828,33.81
56.843,33.06
56.859,32.27
56.875,31.39
56.890,30.34
56.906,28.97
56.921,27.11
56.937,24.64
56.953,21.51
56.968,17.81
56.984,13.72
57.000,9.5
57.015,5.31
57.031,1.22
57.046,-2.79
57.062,-6.76
57.078,-10.73
57.093,-14.61
57.109,-18.29
57.125,-21.71
57.140,-25.02
57.156,-28.51
57.171,-32.55
57.187,-37.34
57.203,-42.73
57.218,-48.06
57.234,-52.25
57.250,-54.07
57.265,-52.52
57.281,-47.16
57.296,-38.32
57.312,-27.02
57.328,-14.64
57.343,-2.53
57.359,8.31
57.375,17.41
57.390,24.73
57.406,30.49
57.421,34.94
57.437,38.26
57.453,40.53
57.468,41.77
57.484,42.04
57.500,41.46
57.515,40.26
57.531,38.73
57.546,37.18
57.562,35.82
57.578,34.72
57.593,33.79
57.609,32.86
57.625,31.71
57.640,30.17
57.656,28.13
57.671,25.55
57.687,22.47
57.703,18.94
57.718,15.08
57.734,11.06
57.750,7.11
57.765,3.47
57.781,0.29
57.796,-2.42
57.812,-4.87
57.828,-7.35
57.843,-10.14
57.859,-13.39
57.875,-17.04
57.890,-20.88
57.906,-24.68
57.921,-28.32
57.937,-31.8
57.953,-35.32
57.968,-39.14
57.984,-43.48
58.000,-48.27
58.015,-53.05
58.031,-56.88
58.046,-58.53
58.062,-56.82
58.078,-51.1
58.093,-41.57
58.109,-29.29
58.125,-15.93
58.140,-3.12
58.156,8.0
58.171,16.98
58.187,24.0
58.203,29.47
58.218,33.74
58.234,36.97
58.250,39.11
58.265,40.12
58.281,40.12
58.296,39.46
58.312,38.55
58.328,37.8
58.343,37.42
58.359,37.4
58.375,37.51
58.390,37.48
58.406,37.04
58.421,36.08
58.437,34.63
58.453,32.82
58.468,30.81
58.484,28.67
58.500,26.36
58.515,23.76
58.531,20.75
58.546,17.37
58.562,13.76
58.578,10.22
58.593,7.02
58.609,4.29
58.625,1.94
58.640,-0.29
58.656,-2.68
58.671,-5.44
58.687,-8.59
58.703,-11.99
58.718,-15.54
58.734,-19.24
58.750,-23.18
58.765,-27.45
58.781,-31.88
58.796,-35.94
58.812,-38.85
58.828,-39.67
58.843,-37.74
58.859,-32.84
58.875,-25.3
58.890,-15.91
58.906,-5.75
58.921,4.09
58.937,12.75
58.953,19.71
58.968,24.81
58.984,28.24
59.000,30.28
59.015,31.26
59.031,31.4
59.046,30.84
59.062,29.7
59.078,28.17
59.093,26.52
59.109,25.02
59.125,23.93
59.140,23.31
59.156,23.07
59.171,22.95
59.187,22.69
59.203,22.03
59.218,20.88
59.234,19.28
59.250,17.35
59.265,15.24
59.281,13.02
59.296,10.72
59.312,8.24
59.328,5.53
59.343,2.52
59.359,-0.81
59.375,-4.36
59.390,-8.01
59.406,-11.64
59.421,-15.18
59.437,-18.63
59.453,-22.05
59.468,-25.52
59.484,-29.09
59.500,-32.79
59.515,-36.62
59.531,-40.58
59.546,-44.59
59.562,-48.44
59.578,-51.6
59.593,-53.31
59.609,-52.67
59.625,-48.97
59.640,-42.01
59.656,-32.25
59.671,-20.77
59.687,-8.94
59.703,2.07
59.718,11.49
59.734,19.12
59.750,25.1
59.765,29.67
59.781,32.98
59.796,35.07
59.812,35.93
59.828,35.68
59.843,34.62
59.859,33.1
59.875,31.51
59.890,30.1
59.906,28.93
59.921,28.01
59.937,27.26
59.953,26.63
59.968,26.03
59.984,25.35
