timestamp,value
00.000,-49.9
00.015,-57.0
00.031,-61.68
00.046,-62.8
00.062,-59.88
00.078,-53.31
00.093,-44.14
00.109,-33.63
00.125,-22.9
00.140,-12.6
00.156,-3.02
00.171,5.89
00.187,14.14
00.203,21.66
00.218,28.25
00.234,33.67
00.250,37.78
00.265,40.56
00.281,42.16
00.296,42.81
00.312,42.79
00.328,42.31
00.343,41.49
00.359,40.33
00.375,38.75
00.390,36.69
00.406,34.14
00.421,31.15
00.437,27.79
00.453,24.02
00.468,19.73
00.484,14.75
00.500,8.98
00.515,2.55
00.531,-4.16
00.546,-10.59
00.562,-16.11
00.578,-20.31
00.593,-23.09
00.609,-24.71
00.625,-25.66
00.640,-26.47
00.656,-27.49
00.671,-28.87
00.687,-30.44
00.703,-31.98
00.718,-33.29
00.734,-34.33
00.750,-35.28
00.765,-36.42
00.781,-38.11
00.796,-40.67
00.812,-44.25
00.828,-48.73
00.843,-53.66
00.859,-58.17
00.875,-61.11
00.890,-61.3
00.906,-57.77
00.921,-50.2
00.937,-39.04
00.953,-25.37
00.968,-10.62
00.984,3.89
01.000,17.19
01.015,28.87
01.031,38.89
01.046,47.4
01.062,54.53
01.078,60.29
01.093,64.62
01.109,67.47
01.125,68.95
01.140,69.23
01.156,68.55
01.171,67.06
01.187,64.82
01.203,61.84
01.218,58.21
01.234,54.12
01.250,49.91
01.265,45.96
01.281,42.55
01.296,39.76
01.312,37.48
01.328,35.39
01.343,33.1
01.359,30.36
01.375,27.01
01.390,23.17
01.406,19.09
01.421,15.11
01.437,11.43
01.453,8.11
01.468,5.0
01.484,1.81
01.500,-1.73
01.515,-5.73
01.531,-10.11
01.546,-14.54
01.562,-18.63
01.578,-22.01
01.593,-24.5
01.609,-26.13
01.625,-27.19
01.640,-28.11
01.656,-29.44
01.671,-31.61
01.687,-34.81
01.703,-38.82
01.718,-42.9
01.734,-45.93
01.750,-46.68
01.765,-44.28
01.781,-38.48
01.796,-29.93
01.812,-19.92
01.828,-9.94
01.843,-1.27
01.859,5.47
01.875,10.28
01.890,13.6
01.906,16.03
01.921,18.01
01.937,19.75
01.953,21.19
01.968,22.2
01.984,22.61
02.000,22.35
02.015,21.51
02.031,20.26
02.046,18.91
02.062,17.83
02.078,17.36
02.093,17.72
02.109,19.01
02.125,21.17
02.140,24.01
02.156,27.24
02.171,30.44
02.187,33.22
02.203,35.15
02.218,35.92
02.234,35.33
02.250,33.39
02.265,30.32
02.281,26.54
02.296,22.45
02.312,18.3
02.328,14.24
02.343,10.16
02.359,5.9
02.375,1.35
02.390,-3.55
02.406,-8.73
02.421,-13.97
02.437,-19.03
02.453,-23.67
02.468,-27.7
02.484,-31.15
02.500,-34.26
02.515,-37.44
02.531,-41.16
02.546,-45.75
02.562,-51.24
02.578,-57.27
02.593,-63.06
02.609,-67.6
02.625,-69.83
02.640,-68.89
02.656,-64.3
02.671,-56.15
02.687,-45.03
02.703,-32.04
02.718,-18.48
02.734,-5.49
02.750,6.1
02.765,15.98
02.781,24.24
02.796,31.19
02.812,37.12
02.828,42.21
02.843,46.43
02.859,49.62
02.875,51.66
02.890,52.53
02.906,52.36
02.921,51.36
02.937,49.79
02.953,47.81
02.968,45.59
02.984,43.2
03.000,40.74
03.015,38.27
03.031,35.91
03.046,33.71
03.062,31.7
03.078,29.85
03.093,27.99
03.109,25.99
03.125,23.7
03.140,21.04
03.156,18.02
03.171,14.75
03.187,11.43
03.203,8.2
03.218,5.12
03.234,2.06
03.250,-1.12
03.265,-4.67
03.281,-8.72
03.296,-13.28
03.312,-18.19
03.328,-23.21
03.343,-28.07
03.359,-32.55
03.375,-36.6
03.390,-40.24
03.406,-43.64
03.421,-47.04
03.437,-50.69
03.453,-54.73
03.468,-59.16
03.484,-63.58
03.500,-67.26
03.515,-69.15
03.531,-68.18
03.546,-63.56
03.562,-55.07
03.578,-43.24
03.593,-29.19
03.609,-14.37
03.625,-0.07
03.640,12.78
03.656,23.8
03.671,33.02
03.687,40.68
03.703,46.97
03.718,51.91
03.734,55.31
03.750,56.88
03.765,56.45
03.781,54.06
03.796,50.03
03.812,44.91
03.828,39.23
03.843,33.44
03.859,27.75
03.875,22.16
03.890,16.58
03.906,10.99
03.921,5.46
03.937,0.18
03.953,-4.61
03.968,-8.79
03.984,-12.23
04.000,-14.87
04.015,-16.57
04.031,-17.19
04.046,-16.62
04.062,-14.89
04.078,-12.26
04.093,-9.08
04.109,-5.81
04.125,-2.76
04.140,-0.18
04.156,1.83
04.171,3.27
04.187,4.12
04.203,4.38
04.218,4.04
04.234,3.16
04.250,1.75
04.265,-0.16
04.281,-2.68
04.296,-5.98
04.312,-10.25
04.328,-15.7
04.343,-22.4
04.359,-30.16
04.375,-38.43
04.390,-46.32
04.406,-52.66
04.421,-56.36
04.437,-56.62
04.453,-53.34
04.468,-47.12
04.484,-39.13
04.500,-30.67
04.515,-22.81
04.531,-16.09
04.546,-10.56
04.562,-5.87
04.578,-1.54
04.593,2.79
04.609,7.34
04.625,12.13
04.640,17.08
04.656,22.06
04.671,26.85
04.687,31.23
04.703,34.94
04.718,37.79
04.734,39.68
04.750,40.64
04.765,40.83
04.781,40.44
04.796,39.65
04.812,38.54
04.828,37.12
04.843,35.26
04.859,32.84
04.875,29.76
04.890,26.08
04.906,21.92
04.921,17.47
04.937,12.96
04.953,8.55
04.968,4.42
04.984,0.65
05.000,-2.79
05.015,-6.04
05.031,-9.36
05.046,-12.99
05.062,-17.07
05.078,-21.48
05.093,-25.96
05.109,-30.13
05.125,-33.74
05.140,-36.78
05.156,-39.6
05.171,-42.68
05.187,-46.46
05.203,-51.14
05.218,-56.49
05.234,-61.85
05.250,-66.19
05.265,-68.37
05.281,-67.42
05.296,-62.83
05.312,-54.65
05.328,-43.48
05.343,-30.33
05.359,-16.38
05.375,-2.76
05.390,9.66
05.406,20.36
05.421,29.23
05.437,36.45
05.453,42.35
05.468,47.26
05.484,51.34
05.500,54.62
05.515,56.96
05.531,58.14
05.546,57.97
05.562,56.35
05.578,53.27
05.593,48.89
05.609,43.52
05.625,37.62
05.640,31.78
05.656,26.51
05.671,21.99
05.687,18.08
05.703,14.32
05.718,10.14
05.734,5.22
05.750,-0.4
05.765,-6.32
05.781,-11.87
05.796,-16.35
05.812,-19.31
05.828,-20.57
05.843,-20.26
05.859,-18.79
05.875,-16.7
05.890,-14.58
05.906,-13.0
05.921,-12.36
05.937,-12.84
05.953,-14.38
05.968,-16.76
05.984,-19.68
06.000,-22.89
06.015,-26.26
06.031,-29.79
06.046,-33.62
06.062,-37.95
06.078,-42.96
06.093,-48.55
06.109,-54.35
06.125,-59.53
06.140,-62.99
06.156,-63.58
06.171,-60.51
06.187,-53.61
06.203,-43.49
06.218,-31.35
06.234,-18.64
06.250,-6.6
06.265,3.97
06.281,12.85
06.296,20.23
06.312,26.46
06.328,31.85
06.343,36.56
06.359,40.55
06.375,43.7
06.390,45.85
06.406,46.94
06.421,47.0
06.437,46.18
06.453,44.7
06.468,42.82
06.484,40.77
06.500,38.68
06.515,36.65
06.531,34.73
06.546,32.96
06.562,31.39
06.578,29.97
06.593,28.55
06.609,26.9
06.625,24.76
06.640,21.92
06.656,18.39
06.671,14.37
06.687,10.21
06.703,6.26
06.718,2.79
06.734,-0.24
06.750,-3.01
06.765,-5.89
06.781,-9.26
06.796,-13.24
06.812,-17.72
06.828,-22.31
06.843,-26.49
06.859,-29.81
06.875,-32.1
06.890,-33.5
06.906,-34.44
06.921,-35.49
06.937,-37.18
06.953,-39.82
06.968,-43.38
06.984,-47.36
07.000,-50.85
07.015,-52.74
07.031,-52.0
07.046,-48.05
07.062,-40.98
07.078,-31.56
07.093,-21.03
07.109,-10.7
07.125,-1.6
07.140,5.73
07.156,11.25
07.171,15.24
07.187,18.06
07.203,19.98
07.218,21.12
07.234,21.38
07.250,20.63
07.265,18.84
07.281,16.17
07.296,13.09
07.312,10.2
07.328,8.11
07.343,7.2
07.359,7.6
07.375,9.13
07.390,11.47
07.406,14.33
07.421,17.47
07.437,20.68
07.453,23.76
07.468,26.4
07.484,28.21
07.500,28.91
07.515,28.36
07.531,26.69
07.546,24.27
07.562,21.56
07.578,18.87
07.593,16.33
07.609,13.77
07.625,10.81
07.640,7.18
07.656,2.69
07.671,-2.53
07.687,-8.12
07.703,-13.74
07.718,-19.07
07.734,-23.98
07.750,-28.5
07.765,-32.82
07.781,-37.13
07.796,-41.63
07.812,-46.42
07.828,-51.39
07.843,-56.21
07.859,-60.25
07.875,-62.65
07.890,-62.5
07.906,-59.16
07.921,-52.46
07.937,-42.85
07.953,-31.31
07.968,-19.06
07.984,-7.3
08.000,3.26
08.015,12.35
08.031,20.13
08.046,26.87
08.062,32.77
08.078,37.76
08.093,41.65
08.109,44.24
08.125,45.41
08.140,45.3
08.156,44.22
08.171,42.52
08.187,40.49
08.203,38.34
08.218,36.15
08.234,34.02
08.250,32.1
08.265,30.51
08.281,29.4
08.296,28.71
08.312,28.25
08.328,27.66
08.343,26.56
08.359,24.62
08.375,21.77
08.390,18.18
08.406,14.15
08.421,10.03
08.437,6.02
08.453,2.15
08.468,-1.73
08.484,-5.84
08.500,-10.34
08.515,-15.19
08.531,-20.18
08.546,-25.04
08.562,-29.53
08.578,-33.54
08.593,-37.13
08.609,-40.53
08.625,-44.09
08.640,-48.19
08.656,-53.13
08.671,-58.93
08.687,-65.16
08.703,-70.91
08.718,-74.91
08.734,-75.89
08.750,-72.96
08.765,-65.91
08.781,-55.35
08.796,-42.46
08.812,-28.65
08.828,-15.1
08.843,-2.55
08.859,8.7
08.875,18.67
08.890,27.43
08.906,35.07
08.921,41.6
08.937,46.92
08.953,50.96
08.968,53.65
08.984,55.01
09.000,55.12
09.015,54.21
09.031,52.54
09.046,50.43
09.062,48.12
09.078,45.74
09.093,43.37
09.109,41.06
09.125,38.9
09.140,36.99
09.156,35.42
09.171,34.03
09.187,32.56
09.203,30.56
09.218,27.72
09.234,23.95
09.250,19.5
09.265,14.76
09.281,10.15
09.296,5.86
09.312,1.8
09.328,-2.26
09.343,-6.5
09.359,-10.95
09.375,-15.47
09.390,-19.84
09.406,-23.93
09.421,-27.72
09.437,-31.33
09.453,-34.88
09.468,-38.47
09.484,-42.18
09.500,-46.13
09.515,-50.53
09.531,-55.49
09.546,-60.92
09.562,-66.26
09.578,-70.51
09.593,-72.35
09.609,-70.56
09.625,-64.44
09.640,-54.16
09.656,-40.64
09.671,-25.31
09.687,-9.71
09.703,5.0
09.718,18.23
09.734,29.88
09.750,40.19
09.765,49.49
09.781,57.95
09.796,65.46
09.812,71.65
09.828,75.92
09.843,77.72
09.859,76.79
09.875,73.23
09.890,67.51
09.906,60.32
09.921,52.35
09.937,44.12
09.953,35.98
09.968,28.12
09.984,20.69
10.000,13.88
10.015,7.74
10.031,2.27
10.046,-2.69
10.062,-7.27
10.078,-11.51
10.093,-15.26
10.109,-18.23
10.125,-20.03
10.140,-20.43
10.156,-19.43
10.171,-17.34
10.187,-14.8
10.203,-12.58
10.218,-11.34
10.234,-11.42
10.250,-12.77
10.265,-14.97
10.281,-17.52
10.296,-20.07
10.312,-22.5
10.328,-25.01
10.343,-28.0
10.359,-31.85
10.375,-36.7
10.390,-42.49
10.406,-48.81
10.421,-54.93
10.437,-59.81
10.453,-62.32
10.468,-61.48
10.484,-56.75
10.500,-48.31
10.515,-36.98
10.531,-24.05
10.546,-10.92
10.562,1.35
10.578,12.19
10.593,21.53
10.609,29.57
10.625,36.55
10.640,42.57
10.656,47.51
10.671,51.22
10.687,53.53
10.703,54.44
10.718,54.1
10.734,52.75
10.750,50.63
10.765,48.0
10.781,45.07
10.796,41.98
10.812,38.89
10.828,36.0
10.843,33.44
10.859,31.28
10.875,29.49
10.890,27.83
10.906,25.98
10.921,23.63
10.937,20.61
10.953,16.95
10.968,12.92
10.984,8.91
11.000,5.21
11.015,1.91
11.031,-1.21
11.046,-4.58
11.062,-8.54
11.078,-13.18
11.093,-18.21
11.109,-23.07
11.125,-27.26
11.140,-30.57
11.156,-33.24
11.171,-35.86
11.187,-39.15
11.203,-43.57
11.218,-49.16
11.234,-55.43
11.250,-61.51
11.265,-66.24
11.281,-68.47
11.296,-67.22
11.312,-61.93
11.328,-52.64
11.343,-40.05
11.359,-25.35
11.375,-9.97
11.390,4.8
11.406,18.06
11.421,29.36
11.437,38.67
11.453,46.08
11.468,51.63
11.484,55.34
11.500,57.14
11.515,57.04
11.531,55.19
11.546,51.88
11.562,47.46
11.578,42.34
11.593,36.87
11.609,31.31
11.625,25.92
11.640,20.9
11.656,16.49
11.671,12.83
11.687,10.09
11.703,8.26
11.718,7.27
11.734,6.87
11.750,6.77
11.765,6.74
11.781,6.62
11.796,6.38
11.812,5.99
11.828,5.39
11.843,4.38
11.859,2.64
11.875,-0.07
11.890,-3.84
11.906,-8.49
11.921,-13.62
11.937,-18.72
11.953,-23.33
11.968,-27.21
11.984,-30.44
12.000,-33.31
12.015,-36.29
12.031,-39.83
12.046,-44.32
12.062,-49.87
12.078,-56.12
12.093,-62.23
12.109,-66.94
12.125,-68.92
12.140,-67.04
12.156,-60.86
12.171,-50.77
12.187,-37.93
12.203,-23.88
12.218,-10.04
12.234,2.57
12.250,13.51
12.265,22.71
12.281,30.36
12.296,36.64
12.312,41.7
12.328,45.65
12.343,48.58
12.359,50.57
12.375,51.64
12.390,51.8
12.406,51.05
12.421,49.49
12.437,47.35
12.453,44.97
12.468,42.69
12.484,40.73
12.500,39.14
12.515,37.82
12.531,36.61
12.546,35.31
12.562,33.76
12.578,31.85
12.593,29.51
12.609,26.7
12.625,23.43
12.640,19.79
12.656,15.94
12.671,12.09
12.687,8.38
12.703,4.88
12.718,1.52
12.734,-1.84
12.750,-5.39
12.765,-9.28
12.781,-13.6
12.796,-18.32
12.812,-23.31
12.828,-28.35
12.843,-33.19
12.859,-37.63
12.875,-41.58
12.890,-45.14
12.906,-48.59
12.921,-52.33
12.937,-56.66
12.953,-61.59
12.968,-66.66
12.984,-70.96
13.000,-73.35
13.015,-72.7
13.031,-68.28
13.046,-60.03
13.062,-48.55
13.078,-35.0
13.093,-20.78
13.109,-7.14
13.125,5.07
13.140,15.4
13.156,23.89
13.171,30.8
13.187,36.42
13.203,41.01
13.218,44.77
13.234,47.81
13.250,50.21
13.265,51.99
13.281,52.99
13.296,53.07
13.312,52.13
13.328,50.24
13.343,47.72
13.359,45.03
13.375,42.57
13.390,40.57
13.406,38.92
13.421,37.35
13.437,35.52
13.453,33.22
13.468,30.34
13.484,26.89
13.500,22.88
13.515,18.38
13.531,13.6
13.546,8.83
13.562,4.4
13.578,0.55
13.593,-2.85
13.609,-6.15
13.625,-9.9
13.640,-14.6
13.656,-20.41
13.671,-27.07
13.687,-33.99
13.703,-40.43
13.718,-45.65
13.734,-49.24
13.750,-51.11
13.765,-51.52
13.781,-51.12
13.796,-50.72
13.812,-51.09
13.828,-52.69
13.843,-55.5
13.859,-58.85
13.875,-61.59
13.890,-62.34
13.906,-59.95
13.921,-53.84
13.937,-44.29
13.953,-32.24
13.968,-19.09
13.984,-6.17
14.000,5.56
14.015,15.63
14.031,24.08
14.046,31.13
14.062,37.03
14.078,41.9
14.093,45.69
14.109,48.31
14.125,49.68
14.140,49.89
14.156,49.16
14.171,47.82
14.187,46.13
14.203,44.24
14.218,42.2
14.234,39.95
14.250,37.48
14.265,34.86
14.281,32.31
14.296,30.0
14.312,28.04
14.328,26.32
14.343,24.66
14.359,22.8
14.375,20.54
14.390,17.86
14.406,14.82
14.421,11.61
14.437,8.4
14.453,5.33
14.468,2.47
14.484,-0.2
14.500,-2.72
14.515,-5.3
14.531,-8.03
14.546,-11.04
14.562,-14.33
14.578,-17.81
14.593,-21.3
14.609,-24.65
14.625,-27.77
14.640,-30.74
14.656,-33.81
14.671,-37.28
14.687,-41.44
14.703,-46.31
14.718,-51.51
14.734,-56.22
14.750,-59.3
14.765,-59.66
14.781,-56.52
14.796,-49.76
14.812,-39.88
14.828,-27.96
14.843,-15.23
14.859,-2.78
14.875,8.68
14.890,18.85
14.906,27.77
14.921,35.62
14.937,42.53
14.953,48.54
14.968,53.48
14.984,57.1
15.000,59.29
15.015,60.2
15.031,60.26
15.046,60.07
15.062,60.17
15.078,60.73
15.093,61.61
15.109,62.35
15.125,62.56
15.140,62.1
15.156,61.11
15.171,59.96
15.187,58.9
15.203,57.73
15.218,55.9
15.234,52.71
15.250,47.69
15.265,40.84
15.281,32.73
15.296,24.16
15.312,15.73
15.328,7.53
15.343,-0.89
15.359,-10.16
15.375,-20.71
15.390,-32.66
15.406,-45.99
15.421,-60.92
15.437,-78.06
15.453,-98.09
15.468,-121.19
15.484,-146.54
15.500,-172.36
15.515,-196.47
15.531,-217.05
15.546,-233.18
15.562,-244.45
15.578,-250.26
15.593,-248.99
15.609,-238.03
15.625,-214.83
15.640,-178.41
15.656,-130.75
15.671,-76.83
15.687,-23.56
15.703,22.27
15.718,55.94
15.734,75.79
15.750,83.23
15.765,81.42
15.781,73.9
15.796,63.39
15.812,51.4
15.828,38.42
15.843,24.51
15.859,9.91
15.875,-4.77
15.890,-18.45
15.906,-29.85
15.921,-37.52
15.937,-40.09
15.953,-36.39
15.968,-25.7
15.984,-8.12
16.000,15.2
16.015,42.05
16.031,69.7
16.046,95.55
16.062,117.94
16.078,136.4
16.093,151.53
16.109,164.41
16.125,175.99
16.140,186.86
16.156,197.09
16.171,206.47
16.187,214.31
16.203,219.33
16.218,219.72
16.234,213.48
16.250,199.24
16.265,176.97
16.281,148.37
16.296,116.41
16.312,84.32
16.328,54.65
16.343,28.59
16.359,6.11
16.375,-13.51
16.390,-31.01
16.406,-46.7
16.421,-60.21
16.437,-70.39
16.453,-75.69
16.468,-74.81
16.484,-67.47
16.500,-55.21
16.515,-41.51
16.531,-30.8
16.546,-26.43
16.562,-28.87
16.578,-34.79
16.593,-38.11
16.609,-32.91
16.625,-16.51
16.640,8.58
16.656,35.26
16.671,54.49
16.687,59.05
16.703,46.22
16.718,18.49
16.734,-17.83
16.750,-55.39
16.765,-88.41
16.781,-113.93
16.796,-131.7
16.812,-143.03
16.828,-149.54
16.843,-152.44
16.859,-152.45
16.875,-149.9
16.890,-144.76
16.906,-136.34
16.921,-123.27
16.937,-103.87
16.953,-77.06
16.968,-43.45
16.984,-5.92
17.000,30.96
17.015,62.43
17.031,85.05
17.046,97.82
17.062,102.03
17.078,100.24
17.093,95.07
17.109,88.51
17.125,81.73
17.140,75.38
17.156,69.78
17.171,64.85
17.187,59.89
17.203,53.76
17.218,45.21
17.234,33.64
17.250,19.64
17.265,4.94
17.281,-8.0
17.296,-17.03
17.312,-21.03
17.328,-20.27
17.343,-16.19
17.359,-10.76
17.375,-5.67
17.390,-1.74
17.406,1.08
17.421,3.5
17.437,6.31
17.453,9.89
17.468,14.14
17.484,18.52
17.500,22.37
17.515,25.25
17.531,27.19
17.546,28.53
17.562,29.92
17.578,32.02
17.593,35.19
17.609,39.42
17.625,44.35
17.640,49.35
17.656,53.72
17.671,56.77
17.687,57.83
17.703,56.5
17.718,52.57
17.734,46.16
17.750,37.61
17.765,27.34
17.781,15.82
17.796,3.37
17.812,-9.7
17.828,-23.12
17.843,-36.46
17.859,-49.22
17.875,-60.9
17.890,-71.17
17.906,-79.98
17.921,-87.58
17.937,-94.39
17.953,-100.75
17.968,-106.84
17.984,-112.52
18.000,-117.35
18.015,-120.74
18.031,-121.97
18.046,-120.36
18.062,-115.44
18.078,-107.12
18.093,-95.83
18.109,-82.56
18.125,-68.69
18.140,-55.58
18.156,-44.23
18.171,-34.98
18.187,-27.52
18.203,-21.16
18.218,-15.13
18.234,-8.84
18.250,-1.97
18.265,5.52
18.281,13.51
18.296,21.75
18.312,29.91
18.328,37.53
18.343,44.16
18.359,49.3
18.375,52.61
18.390,53.88
18.406,53.14
18.421,50.59
18.437,46.55
18.453,41.52
18.468,36.05
18.484,30.69
18.500,25.9
18.515,21.88
18.531,18.56
18.546,15.66
18.562,12.78
18.578,9.54
18.593,5.73
18.609,1.27
18.625,-3.84
18.640,-9.55
18.656,-15.84
18.671,-22.69
18.687,-30.04
18.703,-37.7
18.718,-45.46
18.734,-52.98
18.750,-59.9
18.765,-65.69
18.781,-69.64
18.796,-70.87
18.812,-68.43
18.828,-61.72
18.843,-50.62
18.859,-35.72
18.875,-18.16
18.890,0.54
18.906,18.82
18.921,35.27
18.937,48.77
18.953,58.59
18.968,64.4
18.984,66.31
19.000,64.85
19.015,60.77
19.031,54.95
19.046,48.16
19.062,41.05
19.078,34.06
19.093,27.46
19.109,21.37
19.125,15.77
19.140,10.51
19.156,5.47
19.171,0.66
19.187,-3.74
19.203,-7.38
19.218,-10.03
19.234,-11.61
19.250,-12.34
19.265,-12.64
19.281,-12.99
19.296,-13.83
19.312,-15.42
19.328,-17.9
19.343,-21.22
19.359,-25.14
19.375,-29.21
19.390,-32.79
19.406,-35.16
19.421,-35.84
19.437,-34.7
19.453,-32.13
19.468,-28.89
19.484,-25.76
19.500,-23.27
19.515,-21.38
19.531,-19.54
19.546,-16.94
19.562,-12.84
19.578,-6.9
19.593,0.72
19.609,9.46
19.625,18.57
19.640,27.37
19.656,35.44
19.671,42.69
19.687,49.09
19.703,54.66
19.718,59.27
19.734,62.66
19.750,64.59
19.765,64.91
19.781,63.64
19.796,60.96
19.812,57.21
19.828,52.72
19.843,47.9
19.859,43.08
19.875,38.58
19.890,34.53
19.906,30.96
19.921,27.7
19.937,24.47
19.953,21.11
19.968,17.51
19.984,13.76
20.000,9.99
20.015,6.21
20.031,2.25
20.046,-2.17
20.062,-7.36
20.078,-13.47
20.093,-20.33
20.109,-27.56
20.125,-34.65
20.140,-41.1
20.156,-46.66
20.171,-51.33
20.187,-55.29
20.203,-58.82
20.218,-62.07
20.234,-65.04
20.250,-67.54
20.265,-69.25
20.281,-69.65
20.296,-68.14
20.312,-64.04
20.328,-56.84
20.343,-46.38
20.359,-33.07
20.375,-17.95
20.390,-2.57
20.406,11.5
20.421,23.11
20.437,31.74
20.453,37.6
20.468,41.32
20.484,43.62
20.500,45.08
20.515,45.96
20.531,46.32
20.546,46.16
20.562,45.56
20.578,44.59
20.593,43.29
20.609,41.65
20.625,39.54
20.640,36.84
20.656,33.55
20.671,29.82
20.687,26.02
20.703,22.49
20.718,19.47
20.734,17.06
20.750,15.15
20.765,13.45
20.781,11.61
20.796,9.23
20.812,6.01
20.828,1.87
20.843,-3.03
20.859,-8.25
20.875,-13.1
20.890,-16.9
20.906,-19.26
20.921,-20.14
20.937,-19.88
20.953,-19.05
20.968,-18.3
20.984,-18.22
21.000,-19.29
21.015,-21.84
21.031,-26.04
21.046,-31.7
21.062,-38.08
21.078,-43.92
21.093,-47.72
21.109,-48.27
21.125,-45.13
21.140,-38.75
21.156,-30.25
21.171,-20.94
21.187,-11.76
21.203,-3.05
21.218,5.28
21.234,13.45
21.250,21.41
21.265,28.86
21.281,35.47
21.296,41.12
21.312,45.98
21.328,50.53
21.343,55.15
21.359,59.96
21.375,64.71
21.390,68.97
21.406,72.33
21.421,74.53
21.437,75.46
21.453,75.09
21.468,73.36
21.484,70.21
21.500,65.62
21.515,59.6
21.531,52.22
21.546,43.32
21.562,32.6
21.578,19.66
21.593,4.31
21.609,-13.04
21.625,-31.11
21.640,-47.93
21.656,-61.31
21.671,-69.52
21.687,-71.84
21.703,-68.75
21.718,-61.74
21.734,-52.85
21.750,-44.18
21.765,-37.34
21.781,-33.11
21.796,-31.13
21.812,-30.03
21.828,-27.78
21.843,-22.4
21.859,-12.75
21.875,0.81
21.890,16.39
21.906,31.08
21.921,41.89
21.937,46.87
21.953,45.74
21.968,39.83
21.984,31.55
22.000,23.52
22.015,17.65
22.031,14.58
22.046,13.43
22.062,12.19
22.078,8.36
22.093,-0.21
22.109,-14.51
22.125,-33.83
22.140,-55.67
22.156,-76.46
22.171,-92.75
22.187,-102.32
22.203,-104.82
22.218,-101.49
22.234,-94.25
22.250,-84.63
22.265,-73.14
22.281,-59.32
22.296,-42.55
22.312,-22.83
22.328,-1.22
22.343,20.48
22.359,40.38
22.375,57.17
22.390,70.27
22.406,79.65
22.421,85.46
22.437,87.57
22.453,85.69
22.468,79.68
22.484,69.83
22.500,56.98
22.515,42.44
22.531,27.6
22.546,13.41
22.562,0.16
22.578,-12.53
22.593,-25.17
22.609,-37.86
22.625,-50.03
22.640,-60.35
22.656,-67.29
22.671,-69.62
22.687,-66.96
22.703,-59.9
22.718,-49.77
22.734,-38.12
22.750,-26.25
22.765,-15.02
22.781,-4.83
22.796,4.24
22.812,12.2
22.828,19.0
22.843,24.56
22.859,28.72
22.875,31.39
22.890,32.55
22.906,32.26
22.921,30.77
22.937,28.46
22.953,25.78
22.968,23.11
22.984,20.71
23.000,18.72
23.015,17.17
23.031,16.03
23.046,15.22
23.062,14.56
23.078,13.82
23.093,12.71
23.109,11.0
23.125,8.66
23.140,5.9
23.156,3.02
23.171,0.27
23.187,-2.27
23.203,-4.75
23.218,-7.4
23.234,-10.4
23.250,-13.81
23.265,-17.47
23.281,-21.21
23.296,-24.8
23.312,-28.12
23.328,-31.19
23.343,-34.11
23.359,-37.09
23.375,-40.32
23.390,-43.94
23.406,-47.89
23.421,-52.01
23.437,-55.81
23.453,-58.57
23.468,-59.48
23.484,-57.86
23.500,-53.34
23.515,-46.06
23.531,-36.67
23.546,-26.19
23.562,-15.73
23.578,-6.22
23.593,1.84
23.609,8.37
23.625,13.66
23.640,18.07
23.656,21.92
23.671,25.26
23.687,27.99
23.703,29.85
23.718,30.73
23.734,30.61
23.750,29.69
23.765,28.27
23.781,26.6
23.796,24.86
23.812,23.09
23.828,21.35
23.843,19.66
23.859,18.15
23.875,16.91
23.890,15.95
23.906,15.12
23.921,14.09
23.937,12.52
23.953,10.24
23.968,7.41
23.984,4.44
24.000,1.83
24.015,-0.11
24.031,-1.42
24.046,-2.51
24.062,-3.99
24.078,-6.29
24.093,-9.54
24.109,-13.41
24.125,-17.43
24.140,-21.12
24.156,-24.33
24.171,-27.12
24.187,-29.81
24.203,-32.74
24.218,-36.13
24.234,-40.08
24.250,-44.42
24.265,-48.77
24.281,-52.48
24.296,-54.79
24.312,-54.87
24.328,-52.1
24.343,-46.32
24.359,-37.87
24.375,-27.54
24.390,-16.43
24.406,-5.58
24.421,4.22
24.437,12.49
24.453,19.17
24.468,24.43
24.484,28.56
24.500,31.84
24.515,34.5
24.531,36.64
24.546,38.34
24.562,39.65
24.578,40.64
24.593,41.37
24.609,41.87
24.625,42.14
24.640,42.1
24.656,41.6
24.671,40.48
24.687,38.6
24.703,36.0
24.718,32.81
24.734,29.23
24.750,25.5
24.765,21.75
24.781,18.06
24.796,14.44
24.812,10.88
24.828,7.41
24.843,4.07
24.859,0.82
24.875,-2.42
24.890,-5.86
24.906,-9.78
24.921,-14.34
24.937,-19.52
24.953,-25.06
24.968,-30.5
24.984,-35.23
25.000,-38.75
25.015,-40.78
25.031,-41.4
25.046,-41.1
25.062,-40.67
25.078,-40.9
25.093,-42.4
25.109,-45.27
25.125,-48.94
25.140,-52.41
25.156,-54.42
25.171,-53.91
25.187,-50.39
25.203,-44.04
25.218,-35.6
25.234,-26.09
25.250,-16.5
25.265,-7.51
25.281,0.39
25.296,6.96
25.312,12.09
25.328,15.75
25.343,18.1
25.359,19.38
25.375,19.97
25.390,20.19
25.406,20.3
25.421,20.4
25.437,20.48
25.453,20.5
25.468,20.46
25.484,20.46
25.500,20.64
25.515,21.09
25.531,21.83
25.546,22.81
25.562,23.82
25.578,24.66
25.593,25.17
25.609,25.22
25.625,24.82
25.640,23.91
25.656,22.44
25.671,20.25
25.687,17.22
25.703,13.28
25.718,8.51
25.734,3.12
25.750,-2.66
25.765,-8.57
25.781,-14.42
25.796,-20.03
25.812,-25.29
25.828,-30.21
25.843,-34.99
25.859,-39.9
25.875,-45.28
25.890,-51.25
25.906,-57.62
25.921,-63.94
25.937,-69.54
25.953,-73.7
25.968,-75.76
25.984,-75.18
26.000,-71.61
26.015,-64.9
26.031,-55.27
26.046,-43.28
26.062,-29.85
26.078,-16.09
26.093,-3.01
26.109,8.59
26.125,18.27
26.140,25.94
26.156,31.73
26.171,35.81
26.187,38.46
26.203,39.84
26.218,40.18
26.234,39.71
26.250,38.57
26.265,36.97
26.281,35.13
26.296,33.17
26.312,31.25
26.328,29.47
26.343,27.88
26.359,26.51
26.375,25.31
26.390,24.2
26.406,23.06
26.421,21.8
26.437,20.35
26.453,18.73
26.468,16.92
26.484,14.97
26.500,12.88
26.515,10.66
26.531,8.32
26.546,5.82
26.562,3.06
26.578,-0.15
26.593,-4.03
26.609,-8.72
26.625,-14.12
26.640,-19.87
26.656,-25.47
26.671,-30.45
26.687,-34.57
26.703,-37.92
26.718,-40.91
26.734,-44.09
26.750,-47.88
26.765,-52.53
26.781,-57.87
26.796,-63.34
26.812,-67.99
26.828,-70.69
26.843,-70.37
26.859,-66.31
26.875,-58.5
26.890,-47.63
26.906,-34.9
26.921,-21.68
26.937,-9.09
26.953,2.26
26.968,12.24
26.984,21.04
27.000,28.89
27.015,35.88
27.031,41.91
27.046,46.72
27.062,50.1
27.078,51.98
27.093,52.47
27.109,51.84
27.125,50.41
27.140,48.47
27.156,46.27
27.171,43.99
27.187,41.85
27.203,40.03
27.218,38.75
27.234,38.14
27.250,38.14
27.265,38.5
27.281,38.82
27.296,38.67
27.312,37.69
27.328,35.81
27.343,33.1
27.359,29.9
27.375,26.56
27.390,23.32
27.406,20.17
27.421,16.95
27.437,13.35
27.453,9.16
27.468,4.42
27.484,-0.66
27.500,-5.67
27.515,-10.28
27.531,-14.37
27.546,-18.08
27.562,-21.75
27.578,-25.77
27.593,-30.49
27.609,-36.02
27.625,-42.28
27.640,-48.76
27.656,-54.62
27.671,-58.71
27.687,-59.86
27.703,-57.13
27.718,-50.29
27.734,-39.81
27.750,-26.86
27.765,-12.97
27.781,0.48
27.796,12.49
27.812,22.6
27.828,30.78
27.843,37.21
27.859,42.16
27.875,45.87
27.890,48.53
27.906,50.3
27.921,51.35
27.937,51.84
27.953,51.84
27.968,51.4
27.984,50.53
28.000,49.33
28.015,47.96
28.031,46.66
28.046,45.57
28.062,44.71
28.078,43.99
28.093,43.15
28.109,41.97
28.125,40.23
28.140,37.82
28.156,34.71
28.171,30.99
28.187,26.83
28.203,22.45
28.218,18.13
28.234,14.01
28.250,10.14
28.265,6.36
28.281,2.43
28.296,-1.88
28.312,-6.67
28.328,-11.82
28.343,-17.06
28.359,-21.97
28.375,-26.21
28.390,-29.64
28.406,-32.38
28.421,-34.84
28.437,-37.52
28.453,-40.9
28.468,-45.02
28.484,-49.56
28.500,-53.64
28.515,-56.11
28.531,-55.87
28.546,-52.16
28.562,-44.9
28.578,-34.64
28.593,-22.52
28.609,-9.83
28.625,2.2
28.640,12.7
28.656,21.26
28.671,27.85
28.687,32.7
28.703,36.07
28.718,38.27
28.734,39.45
28.750,39.75
28.765,39.24
28.781,37.99
28.796,36.18
28.812,33.99
28.828,31.75
28.843,29.66
28.859,27.92
28.875,26.55
28.890,25.55
28.906,24.81
28.921,24.22
28.937,23.7
28.953,23.06
28.968,22.12
28.984,20.69
29.000,18.69
29.015,16.15
29.031,13.26
29.046,10.22
29.062,7.17
29.078,4.2
29.093,1.21
29.109,-1.89
29.125,-5.24
29.140,-8.85
29.156,-12.62
29.171,-16.3
29.187,-19.61
29.203,-22.32
29.218,-24.34
29.234,-25.86
29.250,-27.3
29.265,-29.2
29.281,-31.92
29.296,-35.42
29.312,-39.17
29.328,-42.14
29.343,-43.13
29.359,-41.08
29.375,-35.43
29.390,-26.36
29.406,-14.71
29.421,-1.74
29.437,11.3
29.453,23.51
29.468,34.43
29.484,43.95
29.500,52.15
29.515,59.05
29.531,64.64
29.546,68.86
29.562,71.78
29.578,73.61
29.593,74.6
29.609,74.89
29.625,74.39
29.640,72.79
29.656,69.69
29.671,64.78
29.687,57.95
29.703,49.32
29.718,39.36
29.734,28.81
29.750,18.58
29.765,9.59
29.781,2.58
29.796,-2.16
29.812,-4.82
29.828,-6.11
29.843,-6.96
29.859,-8.24
29.875,-10.43
29.890,-13.49
29.906,-17.03
29.921,-20.56
29.937,-23.71
29.953,-26.38
29.968,-28.73
29.984,-31.0
30.000,-33.35
30.015,-35.8
30.031,-38.16
30.046,-40.27
30.062,-42.09
30.078,-43.7
30.093,-45.36
30.109,-47.41
30.125,-50.13
30.140,-53.73
30.156,-58.13
30.171,-62.89
30.187,-67.15
30.203,-69.77
30.218,-69.57
30.234,-65.77
30.250,-58.3
30.265,-47.81
30.281,-35.47
30.296,-22.64
30.312,-10.45
30.328,0.43
30.343,9.69
30.359,17.27
30.375,23.25
30.390,27.7
30.406,30.74
30.421,32.55
30.437,33.38
30.453,33.52
30.468,33.28
30.484,32.84
30.500,32.27
30.515,31.54
30.531,30.61
30.546,29.47
30.562,28.17
30.578,26.87
30.593,25.71
30.609,24.85
30.625,24.3
30.640,23.97
30.656,23.64
30.671,23.09
30.687,22.14
30.703,20.71
30.718,18.85
30.734,16.65
30.750,14.33
30.765,12.01
30.781,9.76
30.796,7.54
30.812,5.19
30.828,2.56
30.843,-0.47
30.859,-3.83
30.875,-7.31
30.890,-10.68
30.906,-13.75
30.921,-16.48
30.937,-18.95
30.953,-21.39
30.968,-24.01
30.984,-27.0
31.000,-30.48
31.015,-34.45
31.031,-38.74
31.046,-42.82
31.062,-45.85
31.078,-46.73
31.093,-44.59
31.109,-39.07
31.125,-30.62
31.140,-20.36
31.156,-9.67
31.171,0.27
31.187,8.79
31.203,15.82
31.218,21.61
31.234,26.45
31.250,30.52
31.265,33.78
31.281,36.15
31.296,37.56
31.312,38.06
31.328,37.81
31.343,37.04
31.359,35.93
31.375,34.65
31.390,33.25
31.406,31.78
31.421,30.21
31.437,28.6
31.453,27.04
31.468,25.69
31.484,24.6
31.500,23.72
31.515,22.79
31.531,21.52
31.546,19.72
31.562,17.39
31.578,14.71
31.593,11.96
31.609,9.33
31.625,6.91
31.640,4.6
31.656,2.22
31.671,-0.44
31.687,-3.55
31.703,-7.1
31.718,-10.91
31.734,-14.75
31.750,-18.32
31.765,-21.46
31.781,-24.14
31.796,-26.46
31.812,-28.58
31.828,-30.71
31.843,-33.01
31.859,-35.61
31.875,-38.61
31.890,-42.0
31.906,-45.5
31.921,-48.52
31.937,-50.2
31.953,-49.66
31.968,-46.29
31.984,-40.08
32.000,-31.63
32.015,-22.04
32.031,-12.59
32.046,-4.28
32.062,2.32
32.078,7.21
32.093,10.74
32.109,13.36
32.125,15.44
32.140,17.14
32.156,18.42
32.171,19.22
32.187,19.45
32.203,19.17
32.218,18.44
32.234,17.3
32.250,15.81
32.265,14.03
32.281,12.05
32.296,10.0
32.312,8.02
32.328,6.17
32.343,4.41
32.359,2.65
32.375,0.75
32.390,-1.36
32.406,-3.66
32.421,-6.12
32.437,-8.74
32.453,-11.55
32.468,-14.6
32.484,-17.85
32.500,-21.24
32.515,-24.63
32.531,-27.92
32.546,-31.07
32.562,-34.04
32.578,-36.71
32.593,-38.78
32.609,-39.86
32.625,-39.57
32.640,-37.81
32.656,-34.78
32.671,-30.99
32.687,-27.09
32.703,-23.57
32.718,-20.79
32.734,-18.96
32.750,-18.16
32.765,-18.34
32.781,-19.21
32.796,-20.13
32.812,-20.27
32.828,-18.81
32.843,-15.29
32.859,-9.93
32.875,-3.52
32.890,2.79
32.906,7.95
32.921,11.35
32.937,12.94
32.953,13.12
32.968,12.43
32.984,11.39
33.000,10.27
33.015,9.24
33.031,8.32
33.046,7.51
33.062,6.77
33.078,6.09
33.093,5.42
33.109,4.71
33.125,3.93
33.140,3.03
33.156,2.02
33.171,0.95
33.187,-0.14
33.203,-1.23
33.218,-2.34
33.234,-3.61
33.250,-5.19
33.265,-7.27
33.281,-9.94
33.296,-13.13
33.312,-16.57
33.328,-19.86
33.343,-22.63
33.359,-24.73
33.375,-26.25
33.390,-27.53
33.406,-28.96
33.421,-30.83
33.437,-33.16
33.453,-35.72
33.468,-38.12
33.484,-39.96
33.500,-40.98
33.515,-41.17
33.531,-40.75
33.546,-40.17
33.562,-39.87
33.578,-40.22
33.593,-41.4
33.609,-43.22
33.625,-45.12
33.640,-46.3
33.656,-45.81
33.671,-42.97
33.687,-37.54
33.703,-29.82
33.718,-20.57
33.734,-10.76
33.750,-1.26
33.765,7.38
33.781,14.9
33.796,21.32
33.812,26.75
33.828,31.26
33.843,34.88
33.859,37.62
33.875,39.51
33.890,40.65
33.906,41.16
33.921,41.17
33.937,40.85
33.953,40.34
33.968,39.78
33.984,39.27
34.000,38.8
34.015,38.3
34.031,37.74
34.046,37.05
34.062,36.24
34.078,35.32
34.093,34.24
34.109,32.88
34.125,31.11
34.140,28.76
34.156,25.79
34.171,22.33
34.187,18.65
34.203,15.04
34.218,11.68
34.234,8.59
34.250,5.58
34.265,2.42
34.281,-1.13
34.296,-5.12
34.312,-9.41
34.328,-13.73
34.343,-17.71
34.359,-21.07
34.375,-23.76
34.390,-25.95
34.406,-28.0
34.421,-30.32
34.437,-33.25
34.453,-36.93
34.468,-41.26
34.484,-45.9
34.500,-50.3
34.515,-53.72
34.531,-55.35
34.546,-54.43
34.562,-50.47
34.578,-43.4
34.593,-33.79
34.609,-22.66
34.625,-11.29
34.640,-0.78
34.656,8.22
34.671,15.56
34.687,21.56
34.703,26.69
34.718,31.29
34.734,35.47
34.750,39.04
34.765,41.74
34.781,43.34
34.796,43.84
34.812,43.51
34.828,42.73
34.843,41.92
34.859,41.33
34.875,41.09
34.890,41.25
34.906,41.87
34.921,43.03
34.937,44.81
34.953,47.13
34.968,49.66
34.984,51.91
35.000,53.29
35.015,53.46
35.031,52.43
35.046,50.54
35.062,48.31
35.078,46.17
35.093,44.28
35.109,42.56
35.125,40.77
35.140,38.59
35.156,35.73
35.171,32.03
35.187,27.42
35.203,22.0
35.218,16.0
35.234,9.79
35.250,3.9
35.265,-1.23
35.281,-5.34
35.296,-8.43
35.312,-10.82
35.328,-13.03
35.343,-15.51
35.359,-18.55
35.375,-22.03
35.390,-25.41
35.406,-27.83
35.421,-28.28
35.437,-25.95
35.453,-20.43
35.468,-12.0
35.484,-1.44
35.500,10.06
35.515,21.2
35.531,30.92
35.546,38.58
35.562,44.02
35.578,47.46
35.593,49.33
35.609,50.09
35.625,50.13
35.640,49.71
35.656,48.95
35.671,47.9
35.687,46.52
35.703,44.73
35.718,42.39
35.734,39.33
35.750,35.43
35.765,30.69
35.781,25.25
35.796,19.48
35.812,13.79
35.828,8.55
35.843,3.95
35.859,0.03
35.875,-3.4
35.890,-6.57
35.906,-9.69
35.921,-12.86
35.937,-16.04
35.953,-19.1
35.968,-21.9
35.984,-24.34
36.000,-26.5
36.015,-28.55
36.031,-30.69
36.046,-33.07
36.062,-35.71
36.078,-38.46
36.093,-41.04
36.109,-43.22
36.125,-44.86
36.140,-45.99
36.156,-46.79
36.171,-47.51
36.187,-48.46
36.203,-49.91
36.218,-51.93
36.234,-54.38
36.250,-56.67
36.265,-57.98
36.281,-57.38
36.296,-54.13
36.312,-48.0
36.328,-39.37
36.343,-29.14
36.359,-18.38
36.375,-8.06
36.390,1.26
36.406,9.39
36.421,16.46
36.437,22.65
36.453,28.08
36.468,32.66
36.484,36.23
36.500,38.66
36.515,39.96
36.531,40.33
36.546,40.07
36.562,39.45
36.578,38.59
36.593,37.49
36.609,36.05
36.625,34.24
36.640,32.18
36.656,30.1
36.671,28.17
36.687,26.47
36.703,24.89
36.718,23.2
36.734,21.18
36.750,18.77
36.765,16.08
36.781,13.32
36.796,10.72
36.812,8.45
36.828,6.47
36.843,4.66
36.859,2.79
36.875,0.65
36.890,-1.93
36.906,-4.96
36.921,-8.32
36.937,-11.81
36.953,-15.21
36.968,-18.39
36.984,-21.39
37.000,-24.4
37.015,-27.72
37.031,-31.67
37.046,-36.35
37.062,-41.48
37.078,-46.41
37.093,-50.12
37.109,-51.54
37.125,-49.84
37.140,-44.78
37.156,-36.76
37.171,-26.76
37.187,-16.04
37.203,-5.77
37.218,3.29
37.234,10.85
37.250,17.12
37.265,22.45
37.281,27.15
37.296,31.38
37.312,35.01
37.328,37.82
37.343,39.52
37.359,39.96
37.375,39.13
37.390,37.22
37.406,34.56
37.421,31.55
37.437,28.57
37.453,25.88
37.468,23.69
37.484,22.08
37.500,21.01
37.515,20.39
37.531,20.07
37.546,19.83
37.562,19.51
37.578,18.93
37.593,18.02
37.609,16.87
37.625,15.57
37.640,14.17
37.656,12.59
37.671,10.59
37.687,7.84
37.703,4.1
37.718,-0.62
37.734,-6.05
37.750,-11.72
37.765,-17.04
37.781,-21.64
37.796,-25.38
37.812,-28.39
37.828,-31.03
37.843,-33.72
37.859,-36.8
37.875,-40.39
37.890,-44.43
37.906,-48.54
37.921,-52.08
37.937,-54.25
37.953,-54.22
37.968,-51.4
37.984,-45.63
38.000,-37.35
38.015,-27.53
38.031,-17.45
38.046,-8.3
38.062,-0.84
38.078,4.72
38.093,8.66
38.109,11.52
38.125,13.84
38.140,15.95
38.156,17.91
38.171,19.58
38.187,20.75
38.203,21.3
38.218,21.17
38.234,20.43
38.250,19.12
38.265,17.32
38.281,15.12
38.296,12.69
38.312,10.35
38.328,8.43
38.343,7.27
38.359,6.97
38.375,7.38
38.390,8.02
38.406,8.38
38.421,8.08
38.437,7.0
38.453,5.29
38.468,3.24
38.484,1.1
38.500,-1.05
38.515,-3.3
38.531,-5.83
38.546,-8.75
38.562,-12.09
38.578,-15.7
38.593,-19.37
38.609,-22.81
38.625,-25.85
38.640,-28.38
38.656,-30.44
38.671,-32.2
38.687,-33.92
38.703,-35.88
38.718,-38.32
38.734,-41.27
38.750,-44.52
38.765,-47.56
38.781,-49.66
38.796,-50.08
38.812,-48.17
38.828,-43.7
38.843,-36.89
38.859,-28.41
38.875,-19.22
38.890,-10.28
38.906,-2.3
38.921,4.4
38.937,9.89
38.953,14.5
38.968,18.59
38.984,22.35
39.000,25.7
39.015,28.38
39.031,30.18
39.046,31.01
39.062,31.08
39.078,30.7
39.093,30.17
39.109,29.69
39.125,29.35
39.140,29.1
39.156,28.89
39.171,28.73
39.187,28.62
39.203,28.6
39.218,28.58
39.234,28.38
39.250,27.78
39.265,26.61
39.281,24.75
39.296,22.29
39.312,19.43
39.328,16.46
39.343,13.72
39.359,11.41
39.375,9.54
39.390,7.9
39.406,6.17
39.421,4.05
39.437,1.44
39.453,-1.46
39.468,-4.26
39.484,-6.61
39.500,-8.35
39.515,-9.66
39.531,-11.01
39.546,-12.98
39.562,-15.93
39.578,-19.97
39.593,-24.79
39.609,-29.84
39.625,-34.44
39.640,-37.85
39.656,-39.43
39.671,-38.63
39.687,-35.29
39.703,-29.5
39.718,-21.83
39.734,-13.08
39.750,-4.2
39.765,4.02
39.781,11.06
39.796,16.75
39.812,21.22
39.828,24.74
39.843,27.57
39.859,29.87
39.875,31.68
39.890,32.93
39.906,33.55
39.921,33.53
39.937,32.86
39.953,31.65
39.968,30.0
39.984,28.03
40.000,25.89
40.015,23.74
40.031,21.75
40.046,20.01
40.062,18.56
40.078,17.3
40.093,16.06
40.109,14.7
40.125,13.13
40.140,11.37
40.156,9.52
40.171,7.72
40.187,6.03
40.203,4.42
40.218,2.71
40.234,0.62
40.250,-2.1
40.265,-5.59
40.281,-9.78
40.296,-14.37
40.312,-18.97
40.328,-23.17
40.343,-26.74
40.359,-29.63
40.375,-32.04
40.390,-34.35
40.406,-36.94
40.421,-40.03
40.437,-43.62
40.453,-47.32
40.468,-50.42
40.484,-52.07
40.500,-51.51
40.515,-48.34
40.531,-42.71
40.546,-35.22
40.562,-26.76
40.578,-18.28
40.593,-10.49
40.609,-3.71
40.625,2.04
40.640,6.97
40.656,11.35
40.671,15.36
40.687,19.08
40.703,22.4
40.718,25.2
40.734,27.28
40.750,28.56
40.765,28.94
40.781,28.47
40.796,27.24
40.812,25.45
40.828,23.41
40.843,21.45
40.859,19.87
40.875,18.81
40.890,18.27
40.906,18.02
40.921,17.85
40.937,17.53
40.953,16.82
40.968,15.67
40.984,14.08
41.000,12.14
41.015,10.03
41.031,7.93
41.046,5.89
41.062,3.86
41.078,1.71
41.093,-0.76
41.109,-3.59
41.125,-6.66
41.140,-9.7
41.156,-12.4
41.171,-14.55
41.187,-16.1
41.203,-17.21
41.218,-18.16
41.234,-19.3
41.250,-20.92
41.265,-23.25
41.281,-26.22
41.296,-29.41
41.312,-32.0
41.328,-32.91
41.343,-31.13
41.359,-26.05
41.375,-17.69
41.390,-6.7
41.406,5.75
41.421,18.42
41.437,30.31
41.453,40.8
41.468,49.72
41.484,57.15
41.500,63.24
41.515,68.08
41.531,71.75
41.546,74.14
41.562,75.13
41.578,74.62
41.593,72.49
41.609,68.73
41.625,63.5
41.640,57.13
41.656,50.15
41.671,43.17
41.687,36.78
41.703,31.46
41.718,27.52
41.734,25.0
41.750,23.81
41.765,23.68
41.781,24.23
41.796,24.98
41.812,25.48
41.828,25.37
41.843,24.55
41.859,23.14
41.875,21.25
41.890,18.9
41.906,15.77
41.921,11.27
41.937,4.79
41.953,-3.9
41.968,-14.47
41.984,-25.88
42.000,-36.82
42.015,-46.2
42.031,-53.4
42.046,-58.49
42.062,-62.07
42.078,-64.91
42.093,-67.67
42.109,-70.88
42.125,-74.85
42.140,-79.68
42.156,-85.23
42.171,-90.9
42.187,-95.66
42.203,-98.23
42.218,-97.5
42.234,-92.91
42.250,-84.79
42.265,-74.2
42.281,-62.54
42.296,-51.23
42.312,-41.23
42.328,-33.0
42.343,-26.5
42.359,-21.42
42.375,-17.27
42.390,-13.61
42.406,-10.12
42.421,-6.58
42.437,-3.03
42.453,0.41
42.468,3.51
42.484,6.1
42.500,8.14
42.515,9.73
42.531,11.01
42.546,12.06
42.562,12.95
42.578,13.65
42.593,14.14
42.609,14.36
42.625,14.23
42.640,13.62
42.656,12.43
42.671,10.62
42.687,8.3
42.703,5.7
42.718,3.11
42.734,0.84
42.750,-1.02
42.765,-2.52
42.781,-3.93
42.796,-5.56
42.812,-7.74
42.828,-10.66
42.843,-14.3
42.859,-18.48
42.875,-22.87
42.890,-27.08
42.906,-30.78
42.921,-33.82
42.937,-36.21
42.953,-38.14
42.968,-39.96
42.984,-41.97
43.000,-44.49
43.015,-47.66
43.031,-51.33
43.046,-55.04
43.062,-58.01
43.078,-59.33
43.093,-58.21
43.109,-54.36
43.125,-48.0
43.140,-39.9
43.156,-30.99
43.171,-21.98
43.187,-13.09
43.203,-4.04
43.218,5.62
43.234,16.27
43.250,27.84
43.265,39.85
43.281,51.57
43.296,62.33
43.312,71.69
43.328,79.56
43.343,86.11
43.359,91.67
43.375,96.6
43.390,101.2
43.406,105.7
43.421,110.16
43.437,114.63
43.453,119.06
43.468,123.39
43.484,127.53
43.500,131.3
43.515,134.46
43.531,136.69
43.546,137.78
43.562,137.6
43.578,136.23
43.593,133.92
43.609,131.01
43.625,127.89
43.640,124.93
43.656,122.45
43.671,120.72
43.687,119.92
43.703,120.02
43.718,120.72
43.734,121.47
43.750,121.55
43.765,120.23
43.781,116.85
43.796,110.93
43.812,102.11
43.828,90.12
43.843,74.68
43.859,55.56
43.875,32.66
43.890,6.26
43.906,-22.71
43.921,-52.52
43.937,-80.7
43.953,-104.42
43.968,-121.08
43.984,-129.07
44.000,-128.34
44.015,-120.43
44.031,-108.11
44.046,-94.42
44.062,-81.84
44.078,-71.77
44.093,-64.49
44.109,-59.51
44.125,-56.07
44.140,-53.54
44.156,-51.48
44.171,-49.59
44.187,-47.58
44.203,-45.12
44.218,-41.9
44.234,-37.77
44.250,-32.75
44.265,-27.05
44.281,-21.1
44.296,-15.46
44.312,-10.82
44.328,-7.97
44.343,-7.61
44.359,-10.26
44.375,-16.19
44.390,-25.34
44.406,-37.3
44.421,-51.22
44.437,-65.85
44.453,-79.63
44.468,-90.94
44.484,-98.55
44.500,-102.04
44.515,-102.08
44.531,-100.29
44.546,-98.88
44.562,-99.85
44.578,-104.46
44.593,-112.89
44.609,-124.28
44.625,-137.19
44.640,-150.09
44.656,-161.67
44.671,-171.02
44.687,-177.65
44.703,-181.39
44.718,-182.32
44.734,-180.58
44.750,-176.24
44.765,-169.09
44.781,-158.66
44.796,-144.53
44.812,-126.62
44.828,-105.76
44.843,-83.61
44.859,-62.41
44.875,-44.36
44.890,-30.94
44.906,-22.7
44.921,-19.12
44.937,-19.09
44.953,-21.13
44.968,-23.77
44.984,-25.71
45.000,-26.06
45.015,-24.58
45.031,-21.71
45.046,-18.37
45.062,-15.47
45.078,-13.49
45.093,-12.23
45.109,-10.85
45.125,-8.23
45.140,-3.45
45.156,3.96
45.171,13.87
45.187,25.52
45.203,37.68
45.218,48.86
45.234,57.6
45.250,62.88
45.265,64.33
45.281,62.34
45.296,57.81
45.312,51.96
45.328,45.86
45.343,40.31
45.359,35.69
45.375,32.0
45.390,29.01
45.406,26.22
45.421,23.08
45.437,19.25
45.453,14.75
45.468,9.98
45.484,5.5
45.500,1.68
45.515,-1.58
45.531,-4.83
45.546,-8.97
45.562,-14.74
45.578,-22.35
45.593,-31.25
45.609,-40.19
45.625,-47.39
45.640,-51.13
45.656,-50.08
45.671,-43.66
45.687,-32.27
45.703,-17.08
45.718,0.15
45.734,17.46
45.750,33.16
45.765,46.2
45.781,56.39
45.796,64.32
45.812,71.1
45.828,77.73
45.843,84.72
45.859,91.86
45.875,98.31
45.890,103.07
45.906,105.39
45.921,105.04
45.937,102.22
45.953,97.45
45.968,91.15
45.984,83.73
46.000,75.57
46.015,67.11
46.031,58.82
46.046,51.01
46.062,43.52
46.078,35.77
46.093,26.86
46.109,16.05
46.125,3.0
46.140,-12.02
46.156,-28.34
46.171,-45.0
46.187,-60.9
46.203,-74.93
46.218,-86.12
46.234,-93.76
46.250,-97.68
46.265,-98.29
46.281,-96.48
46.296,-93.22
46.312,-89.16
46.328,-84.34
46.343,-78.44
46.359,-71.2
46.375,-62.89
46.390,-54.43
46.406,-47.11
46.421,-41.99
46.437,-39.39
46.453,-38.73
46.468,-38.77
46.484,-38.05
46.500,-35.38
46.515,-30.31
46.531,-23.15
46.546,-14.88
46.562,-6.78
46.578,0.03
46.593,5.07
46.609,8.63
46.625,11.59
46.640,14.96
46.656,19.27
46.671,24.3
46.687,29.33
46.703,33.68
46.718,37.26
46.734,40.88
46.750,46.07
46.765,54.5
46.781,67.42
46.796,85.41
46.812,108.31
46.828,135.22
46.843,164.38
46.859,192.94
46.875,217.06
46.890,232.6
46.906,236.33
46.921,227.11
46.937,206.57
46.953,178.81
46.968,149.04
46.984,122.03
47.000,100.85
47.015,86.31
47.031,77.38
47.046,71.92
47.062,67.43
47.078,61.66
47.093,52.93
47.109,40.27
47.125,23.61
47.140,3.81
47.156,-17.48
47.171,-38.23
47.187,-56.48
47.203,-70.78
47.218,-80.62
47.234,-86.5
47.250,-89.8
47.265,-92.32
47.281,-95.72
47.296,-100.92
47.312,-107.8
47.328,-115.18
47.343,-121.27
47.359,-124.24
47.375,-122.96
47.390,-117.42
47.406,-108.65
47.421,-98.41
47.437,-88.57
47.453,-80.49
47.468,-74.67
47.484,-70.75
47.500,-67.75
47.515,-64.66
47.531,-60.98
47.546,-57.05
47.562,-53.91
47.578,-52.86
47.593,-54.71
47.609,-59.15
47.625,-64.36
47.640,-67.14
47.656,-63.56
47.671,-50.01
47.687,-24.1
47.703,14.6
47.718,64.3
47.734,121.26
47.750,180.54
47.765,237.01
47.781,286.26
47.796,325.17
47.812,351.89
47.828,365.89
47.843,367.73
47.859,359.03
47.875,342.14
47.890,319.84
47.906,294.98
47.921,269.92
47.937,246.09
47.953,223.58
47.968,201.58
47.984,179.02
48.000,155.25
48.015,129.98
48.031,103.23
48.046,75.14
48.062,45.99
48.078,16.25
48.093,-13.74
48.109,-43.6
48.125,-73.09
48.140,-102.19
48.156,-131.51
48.171,-161.78
48.187,-193.27
48.203,-223.65
48.218,-247.04
48.234,-256.76
48.250,-248.65
48.265,-223.5
48.281,-185.86
48.296,-141.5
48.312,-94.77
48.328,-48.14
48.343,-2.68
48.359,40.93
48.375,81.05
48.390,115.66
48.406,143.09
48.421,163.88
48.437,178.14
48.453,186.52
48.468,189.94
48.484,189.46
48.500,185.95
48.515,179.17
48.531,168.64
48.546,154.15
48.562,136.07
48.578,115.12
48.593,92.38
48.609,68.59
48.625,43.55
48.640,20.1
48.656,-0.63
48.671,-18.33
48.687,-33.05
48.703,-44.96
48.718,-54.27
48.734,-60.95
48.750,-64.95
48.765,-66.15
48.781,-64.4
48.796,-60.24
48.812,-54.12
48.828,-46.35
48.843,-37.14
48.859,-26.64
48.875,-15.0
48.890,-2.46
48.906,10.46
48.921,23.15
48.937,34.31
48.953,42.79
48.968,47.71
48.984,48.6
49.000,45.48
49.015,38.85
49.031,29.63
49.046,19.1
49.062,8.64
49.078,-0.67
49.093,-7.92
49.109,-12.46
49.125,-13.95
49.140,-12.47
49.156,-8.39
49.171,-2.34
49.187,5.01
49.203,12.96
49.218,20.82
49.234,28.08
49.250,34.5
49.265,40.04
49.281,44.88
49.296,49.26
49.312,53.43
49.328,57.65
49.343,62.08
49.359,66.8
49.375,71.81
49.390,77.12
49.406,82.66
49.421,88.35
49.437,93.94
49.453,99.13
49.468,103.52
49.484,106.71
49.500,108.41
49.515,108.49
49.531,106.97
49.546,104.0
49.562,99.63
49.578,93.73
49.593,85.97
49.609,75.81
49.625,62.72
49.640,46.47
49.656,27.2
49.671,5.47
49.687,-17.82
49.703,-41.82
49.718,-65.93
49.734,-90.14
49.750,-114.77
49.765,-140.2
49.781,-166.62
49.796,-193.87
49.812,-221.44
49.828,-248.66
49.843,-275.04
49.859,-300.38
49.875,-325.01
49.890,-349.47
49.906,-374.28
49.921,-399.99
49.937,-427.28
49.953,-456.78
49.968,-488.55
49.984,-521.38
50.000,-552.47
50.015,-578.07
50.031,-594.25
50.046,-598.24
50.062,-589.48
50.078,-569.9
50.093,-542.91
50.109,-512.12
50.125,-480.32
50.140,-449.25
50.156,-420.93
50.171,-396.7
50.187,-376.93
50.203,-360.81
50.218,-346.31
50.234,-330.46
50.250,-310.26
50.265,-283.67
50.281,-250.39
50.296,-213.94
50.312,-178.24
50.328,-146.2
50.343,-118.95
50.359,-96.36
50.375,-77.46
50.390,-60.84
50.406,-45.0
50.421,-28.6
50.437,-14.26
50.453,-4.36
50.468,-0.4
50.484,-2.98
50.500,-12.26
50.515,-27.64
50.531,-47.04
50.546,-66.53
50.562,-80.9
50.578,-89.32
50.593,-90.71
50.609,-83.57
50.625,-66.33
50.640,-38.75
50.656,-2.51
50.671,39.08
50.687,81.94
50.703,144.8
50.718,228.34
50.734,318.95
50.750,396.24
50.765,446.24
50.781,466.99
50.796,465.32
50.812,451.13
50.828,431.26
50.843,412.63
50.859,394.13
50.875,373.71
50.890,350.72
50.906,326.89
50.921,304.81
50.937,286.58
50.953,274.52
50.968,269.83
50.984,273.58
51.000,282.96
51.015,295.74
51.031,310.47
51.046,325.9
51.062,339.15
51.078,345.91
51.093,338.96
51.109,315.22
51.125,280.22
51.140,243.88
51.156,216.65
51.171,203.52
51.187,203.1
51.203,210.27
51.218,219.69
51.234,228.37
51.250,235.86
51.265,242.92
51.281,248.31
51.296,249.88
51.312,244.33
51.328,231.23
51.343,212.34
51.359,190.66
51.375,169.35
51.390,150.96
51.406,136.71
51.421,125.5
51.437,114.91
51.453,102.64
51.468,87.97
51.484,71.56
51.500,54.99
51.515,39.95
51.531,27.56
51.546,18.0
51.562,10.13
51.578,1.99
51.593,-8.22
51.609,-21.14
51.625,-36.31
51.640,-52.59
51.656,-68.72
51.671,-83.87
51.687,-97.84
51.703,-111.21
51.718,-125.04
51.734,-140.45
51.750,-158.06
51.765,-177.87
51.781,-199.12
51.796,-220.07
51.812,-238.39
51.828,-251.38
51.843,-256.87
51.859,-254.19
51.875,-244.28
51.890,-229.45
51.906,-212.4
51.921,-195.29
51.937,-179.13
51.953,-164.05
51.968,-149.58
51.984,-135.27
52.000,-121.12
52.015,-107.5
52.031,-94.87
52.046,-83.41
52.062,-72.83
52.078,-62.6
52.093,-52.52
52.109,-42.58
52.125,-32.91
52.140,-23.96
52.156,-16.41
52.171,-10.96
52.187,-8.05
52.203,-7.58
52.218,-9.0
52.234,-12.51
52.250,-17.77
52.265,-23.93
52.281,-30.0
52.296,-35.51
52.312,-40.71
52.328,-46.17
52.343,-52.38
52.359,-59.45
52.375,-69.07
52.390,-81.48
52.406,-95.16
52.421,-107.75
52.437,-117.81
52.453,-125.5
52.468,-132.13
52.484,-139.27
52.500,-148.06
52.515,-161.84
52.531,-181.17
52.546,-203.33
52.562,-223.7
52.578,-239.05
52.593,-248.63
52.609,-253.72
52.625,-256.59
52.640,-259.79
52.656,-269.36
52.671,-287.66
52.687,-311.43
52.703,-332.75
52.718,-343.27
52.734,-337.02
52.750,-311.79
52.765,-269.85
52.781,-192.48
52.796,-83.02
52.812,35.9
52.828,135.67
52.843,200.12
52.859,229.13
52.875,231.44
52.890,216.85
52.906,192.68
52.921,163.68
52.937,129.42
52.953,91.71
52.968,53.26
52.984,21.19
53.000,0.27
53.015,-8.85
53.031,-8.57
53.046,-2.71
53.062,5.16
53.078,9.54
53.093,8.43
53.109,3.97
53.125,1.29
53.140,4.68
53.156,14.94
53.171,30.41
53.187,48.27
53.203,65.98
53.218,80.16
53.234,90.28
53.250,98.99
53.265,111.18
53.281,131.09
53.296,161.51
53.312,204.18
53.328,259.95
53.343,328.17
53.359,404.78
53.375,482.91
53.390,553.77
53.406,608.67
53.421,640.9
53.437,648.09
53.453,633.05
53.468,602.29
53.484,563.16
53.500,520.87
53.515,477.9
53.531,434.88
53.546,392.1
53.562,350.23
53.578,310.34
53.593,273.27
53.609,238.78
53.625,205.55
53.640,171.83
53.656,136.66
53.671,100.34
53.687,64.38
53.703,30.7
53.718,0.57
53.734,-25.94
53.750,-50.06
53.765,-73.9
53.781,-99.74
53.796,-129.2
53.812,-162.49
53.828,-197.98
53.843,-232.42
53.859,-261.8
53.875,-282.56
53.890,-292.86
53.906,-293.0
53.921,-285.25
53.937,-272.48
53.953,-256.97
53.968,-239.64
53.984,-220.26
54.000,-198.25
54.015,-173.56
54.031,-147.16
54.046,-120.67
54.062,-95.83
54.078,-73.8
54.093,-55.03
54.109,-39.38
54.125,-26.46
54.140,-15.9
54.156,-7.39
54.171,-0.8
54.187,3.83
54.203,6.45
54.218,7.08
54.234,5.89
54.250,3.28
54.265,-0.38
54.281,-5.18
54.296,-11.78
54.312,-21.25
54.328,-34.58
54.343,-51.97
54.359,-72.56
54.375,-94.57
54.390,-115.91
54.406,-134.75
54.421,-150.16
54.437,-162.14
54.453,-171.35
54.468,-178.92
54.484,-186.14
54.500,-194.32
54.515,-204.49
54.531,-217.12
54.546,-231.8
54.562,-247.25
54.578,-261.52
54.593,-272.81
54.609,-280.05
54.625,-283.12
54.640,-282.74
54.656,-279.74
54.671,-274.43
54.687,-266.25
54.703,-253.87
54.718,-235.8
54.734,-211.21
54.750,-180.52
54.765,-145.28
54.781,-107.84
54.796,-70.5
54.812,-34.94
54.828,-1.83
54.843,29.12
54.859,59.0
54.875,89.18
54.890,120.88
54.906,154.37
54.921,188.45
54.937,220.41
54.953,246.65
54.968,263.8
54.984,269.94
55.000,265.49
55.015,252.87
55.031,235.76
55.046,217.69
55.062,201.04
55.078,186.91
55.093,175.52
55.109,166.9
55.125,161.13
55.140,158.33
55.156,158.15
55.171,159.6
55.187,161.23
55.203,161.62
55.218,159.95
55.234,156.33
55.250,151.71
55.265,147.49
55.281,145.15
55.296,145.76
55.312,149.88
55.328,157.33
55.343,167.23
55.359,178.16
55.375,188.29
55.390,195.67
55.406,198.35
55.421,194.74
55.437,183.65
55.453,164.63
55.468,138.03
55.484,104.97
55.500,67.38
55.515,27.56
55.531,-12.14
55.546,-49.51
55.562,-82.71
55.578,-110.42
55.593,-131.69
55.609,-145.98
55.625,-153.22
55.640,-153.86
55.656,-148.72
55.671,-139.0
55.687,-126.17
55.703,-111.78
55.718,-97.53
55.734,-84.91
55.750,-75.06
55.765,-68.68
55.781,-65.93
55.796,-66.25
55.812,-68.61
55.828,-71.82
55.843,-74.94
55.859,-77.51
55.875,-79.3
55.890,-80.32
55.906,-80.59
55.921,-80.37
55.937,-79.69
55.953,-78.8
55.968,-78.12
55.984,-78.32
56.000,-79.81
56.015,-82.05
56.031,-84.07
56.046,-85.13
56.062,-85.71
56.078,-86.43
56.093,-88.02
56.109,-90.94
56.125,-95.3
56.140,-100.78
56.156,-105.89
56.171,-109.3
56.187,-110.64
56.203,-111.66
56.218,-113.44
56.234,-116.63
56.250,-121.63
56.265,-128.98
56.281,-139.21
56.296,-150.9
56.312,-161.98
56.328,-170.44
56.343,-176.15
56.359,-177.16
56.375,-170.65
56.390,-154.0
56.406,-126.18
56.421,-87.91
56.437,-39.47
56.453,17.77
56.468,80.77
56.484,143.07
56.500,200.43
56.515,250.01
56.531,289.79
56.546,317.25
56.562,319.15
56.578,286.8
56.593,222.36
56.609,151.21
56.625,84.42
56.640,26.84
56.656,-22.5
56.671,-62.9
56.687,-94.58
56.703,-118.79
56.718,-135.16
56.734,-143.2
56.750,-143.09
56.765,-137.9
56.781,-128.2
56.796,-112.87
56.812,-90.04
56.828,-59.5
56.843,-23.71
56.859,13.21
56.875,44.6
56.890,62.81
56.906,60.34
56.921,36.45
56.937,-3.1
56.953,-48.2
56.968,-88.81
56.984,-117.85
57.000,-131.38
57.015,-129.03
57.031,-112.77
57.046,-86.59
57.062,-53.53
57.078,-16.29
57.093,21.98
57.109,57.63
57.125,87.45
57.140,110.53
57.156,128.01
57.171,142.25
57.187,155.24
57.203,168.69
57.218,183.44
57.234,199.43
57.250,215.62
57.265,230.04
57.281,239.94
57.296,242.07
57.312,233.5
57.328,213.03
57.343,182.71
57.359,147.73
57.375,114.7
57.390,89.06
57.406,72.67
57.421,63.21
57.437,55.34
57.453,43.47
57.468,24.47
57.484,-0.99
57.500,-28.89
57.515,-54.05
57.531,-72.51
57.546,-83.09
57.562,-87.17
57.578,-87.34
57.593,-85.58
57.609,-82.23
57.625,-76.39
57.640,-67.15
57.656,-54.89
57.671,-41.73
57.687,-30.7
57.703,-24.17
57.718,-22.5
57.734,-23.89
57.750,-25.25
57.765,-23.99
57.781,-19.34
57.796,-12.6
57.812,-6.27
57.828,-2.59
57.843,-2.37
57.859,-4.72
57.875,-7.73
57.890,-9.36
57.906,-8.42
57.921,-4.71
57.937,1.17
57.953,8.33
57.968,16.01
57.984,23.69
58.000,31.04
58.015,37.78
58.031,43.72
58.046,48.7
58.062,52.71
58.078,55.82
58.093,58.15
58.109,59.8
58.125,60.82
58.140,61.26
58.156,61.13
58.171,60.37
58.187,58.85
58.203,56.43
58.218,53.25
58.234,49.77
58.250,46.82
58.265,45.32
58.281,45.87
58.296,48.41
58.312,52.17
58.328,56.08
58.343,59.17
58.359,61.23
58.375,62.86
58.390,65.24
58.406,69.54
58.421,76.31
58.437,85.1
58.453,94.65
58.468,103.25
58.484,109.47
58.500,112.72
58.515,113.55
58.531,113.59
58.546,115.14
58.562,120.41
58.578,130.56
58.593,144.79
58.609,160.0
58.625,171.17
58.640,172.82
58.656,160.73
58.671,133.73
58.687,94.28
58.703,47.82
58.718,1.02
58.734,-40.37
58.750,-72.95
58.765,-96.09
58.781,-111.12
58.796,-120.06
58.812,-124.26
58.828,-123.85
58.843,-117.72
58.859,-104.32
58.875,-82.52
58.890,-52.62
58.906,-16.72
58.921,21.42
58.937,57.16
58.953,86.18
58.968,105.41
58.984,113.63
59.000,111.32
59.015,100.19
59.031,82.41
59.046,60.29
59.062,35.95
59.078,11.44
59.093,-11.31
59.109,-30.71
59.125,-45.89
59.140,-56.92
59.156,-64.82
59.171,-71.19
59.187,-77.5
59.203,-84.65
59.218,-92.66
59.234,-100.82
59.250,-108.23
59.265,-114.18
59.281,-118.37
59.296,-120.85
59.312,-121.59
59.328,-120.25
59.343,-116.27
59.359,-109.16
59.375,-98.77
59.390,-85.72
59.406,-71.23
59.421,-57.04
59.437,-44.85
59.453,-36.07
59.468,-31.42
59.484,-30.9
59.500,-33.71
59.515,-38.45
59.531,-43.54
59.546,-47.43
59.562,-48.98
59.578,-47.4
59.593,-42.11
59.609,-32.28
59.625,-16.69
59.640,6.36
59.656,38.72
59.671,81.65
59.687,135.15
59.703,197.08
59.718,262.93
59.734,326.27
59.750,379.94
59.765,417.63
59.781,435.4
59.796,432.43
59.812,410.76
59.828,374.47
59.843,328.4
59.859,277.34
59.875,225.5
59.890,176.42
59.906,132.95
59.921,97.04
59.937,69.49
59.953,49.64
59.968,35.58
59.984,24.59
