timestamp,value
00.000,40.08
00.015,36.44
00.031,32.32
00.046,28.76
00.062,26.71
00.078,26.44
00.093,26.66
00.109,24.8
00.125,17.71
00.140,3.11
00.156,-19.09
00.171,-46.61
00.187,-75.53
00.203,-101.75
00.218,-122.06
00.234,-134.79
00.250,-138.96
00.265,-134.04
00.281,-119.88
00.296,-97.14
00.312,-68.12
00.328,-36.69
00.343,-7.2
00.359,17.1
00.375,34.79
00.390,46.4
00.406,53.25
00.421,56.1
00.437,54.93
00.453,49.29
00.468,39.3
00.484,26.32
00.500,12.69
00.515,0.66
00.531,-8.27
00.546,-13.93
00.562,-17.03
00.578,-18.26
00.593,-18.19
00.609,-17.16
00.625,-15.58
00.640,-14.58
00.656,-15.89
00.671,-21.1
00.687,-30.93
00.703,-44.69
00.718,-60.05
00.734,-74.3
00.750,-85.25
00.765,-92.13
00.781,-95.99
00.796,-98.97
00.812,-103.34
00.828,-110.68
00.843,-121.53
00.859,-135.33
00.875,-150.75
00.890,-165.57
00.906,-176.66
00.921,-180.68
00.937,-174.95
00.953,-158.73
00.968,-134.02
00.984,-104.96
01.000,-76.14
01.015,-50.82
01.031,-29.48
01.046,-10.2
01.062,9.64
01.078,31.77
01.093,55.97
01.109,80.3
01.125,102.5
01.140,121.19
01.156,136.13
01.171,147.92
01.187,157.08
01.203,163.45
01.218,166.34
01.234,165.07
01.250,159.57
01.265,150.75
01.281,140.28
01.296,130.06
01.312,121.52
01.328,115.23
01.343,110.78
01.359,107.18
01.375,103.22
01.390,97.97
01.406,91.02
01.421,82.45
01.437,72.57
01.453,61.55
01.468,49.12
01.484,34.77
01.500,18.2
01.515,-0.33
01.531,-19.56
01.546,-37.64
01.562,-52.54
01.578,-62.92
01.593,-68.44
01.609,-69.78
01.625,-68.3
01.640,-65.3
01.656,-61.64
01.671,-57.44
01.687,-52.52
01.703,-46.64
01.718,-40.09
01.734,-33.66
01.750,-28.36
01.765,-25.07
01.781,-24.27
01.796,-25.86
01.812,-29.43
01.828,-34.54
01.843,-40.83
01.859,-47.99
01.875,-55.53
01.890,-62.5
01.906,-67.5
01.921,-69.31
01.937,-67.43
01.953,-62.61
01.968,-56.81
01.984,-52.55
02.000,-52.02
02.015,-56.2
02.031,-64.49
02.046,-74.96
02.062,-84.91
02.078,-91.72
02.093,-93.65
02.109,-90.12
02.125,-81.62
02.140,-69.6
02.156,-55.9
02.171,-42.35
02.187,-30.43
02.203,-20.92
02.218,-13.45
02.234,-6.6
02.250,1.76
02.265,13.87
02.281,31.05
02.296,53.05
02.312,77.88
02.328,102.39
02.343,123.25
02.359,138.25
02.375,146.73
02.390,149.54
02.406,148.08
02.421,143.41
02.437,135.76
02.453,124.8
02.468,110.39
02.484,93.06
02.500,74.27
02.515,55.88
02.531,39.84
02.546,27.57
02.562,20.09
02.578,18.06
02.593,21.88
02.609,31.3
02.625,45.19
02.640,61.39
02.656,77.09
02.671,89.55
02.687,96.95
02.703,98.88
02.718,96.08
02.734,89.94
02.750,81.49
02.765,71.09
02.781,58.64
02.796,44.07
02.812,27.78
02.828,10.99
02.843,-4.73
02.859,-18.02
02.875,-28.43
02.890,-36.45
02.906,-43.07
02.921,-48.84
02.937,-53.37
02.953,-55.53
02.968,-53.78
02.984,-47.22
03.000,-36.13
03.015,-21.89
03.031,-6.57
03.046,7.75
03.062,19.67
03.078,28.72
03.093,35.07
03.109,39.09
03.125,40.97
03.140,40.46
03.156,37.36
03.171,31.97
03.187,25.24
03.203,18.73
03.218,14.1
03.234,12.49
03.250,13.9
03.265,17.2
03.281,20.42
03.296,21.75
03.312,20.12
03.328,15.61
03.343,9.31
03.359,2.67
03.375,-3.07
03.390,-7.5
03.406,-11.03
03.421,-14.54
03.437,-18.74
03.453,-23.93
03.468,-29.8
03.484,-35.63
03.500,-40.75
03.515,-44.75
03.531,-47.71
03.546,-50.1
03.562,-52.66
03.578,-55.95
03.593,-60.42
03.609,-66.11
03.625,-72.58
03.640,-78.99
03.656,-84.32
03.671,-87.62
03.687,-88.27
03.703,-86.25
03.718,-81.87
03.734,-75.66
03.750,-68.17
03.765,-59.83
03.781,-50.98
03.796,-42.14
03.812,-33.96
03.828,-27.17
03.843,-22.38
03.859,-19.69
03.875,-18.6
03.890,-18.27
03.906,-18.01
03.921,-17.65
03.937,-17.73
03.953,-19.21
03.968,-23.05
03.984,-29.56
04.000,-38.35
04.015,-48.29
04.031,-57.97
04.046,-66.2
04.062,-72.58
04.078,-77.22
04.093,-80.72
04.109,-83.64
04.125,-86.12
04.140,-87.73
04.156,-87.58
04.171,-84.53
04.187,-77.56
04.203,-66.3
04.218,-51.22
04.234,-33.9
04.250,-16.98
04.265,-3.6
04.281,3.28
04.296,1.77
04.312,-8.1
04.328,-24.12
04.343,-42.27
04.359,-57.65
04.375,-65.78
04.390,-63.97
04.406,-51.76
04.421,-31.01
04.437,-4.82
04.453,23.58
04.468,51.95
04.484,79.16
04.500,104.8
04.515,128.2
04.531,147.64
04.546,160.65
04.562,164.7
04.578,158.74
04.593,143.89
04.609,123.52
04.625,102.18
04.640,84.0
04.656,71.64
04.671,65.64
04.687,65.13
04.703,68.29
04.718,73.45
04.734,79.24
04.750,84.45
04.765,88.13
04.781,89.26
04.796,86.99
04.812,80.74
04.828,70.42
04.843,56.32
04.859,39.28
04.875,20.92
04.890,3.2
04.906,-11.92
04.921,-23.36
04.937,-31.43
04.953,-37.54
04.968,-43.4
04.984,-50.09
05.000,-57.59
05.015,-65.09
05.031,-71.88
05.046,-77.93
05.062,-84.09
05.078,-91.25
05.093,-99.63
05.109,-108.34
05.125,-115.69
05.140,-119.93
05.156,-119.86
05.171,-115.23
05.187,-106.3
05.203,-93.74
05.218,-78.51
05.234,-61.73
05.250,-44.75
05.265,-28.99
05.281,-15.7
05.296,-5.79
05.312,0.33
05.328,2.75
05.343,2.16
05.359,-0.56
05.375,-4.3
05.390,-8.06
05.406,-10.99
05.421,-12.46
05.437,-12.29
05.453,-10.73
05.468,-8.73
05.484,-7.69
05.500,-9.13
05.515,-14.01
05.531,-22.32
05.546,-32.85
05.562,-43.53
05.578,-52.25
05.593,-57.68
05.609,-59.64
05.625,-59.0
05.640,-57.17
05.656,-55.45
05.671,-54.8
05.687,-55.6
05.703,-57.73
05.718,-60.73
05.734,-63.88
05.750,-66.18
05.765,-66.54
05.781,-64.05
05.796,-58.14
05.812,-48.65
05.828,-35.94
05.843,-20.59
05.859,-3.46
05.875,14.52
05.890,32.53
05.906,50.02
05.921,66.59
05.937,81.89
05.953,95.65
05.968,107.35
05.984,116.45
06.000,122.74
06.015,126.41
06.031,128.46
06.046,130.31
06.062,133.28
06.078,137.86
06.093,143.27
06.109,147.64
06.125,148.6
06.140,144.42
06.156,134.91
06.171,121.55
06.187,106.84
06.203,93.35
06.218,82.67
06.234,74.92
06.250,69.28
06.265,64.68
06.281,60.46
06.296,56.56
06.312,53.07
06.328,49.89
06.343,46.51
06.359,42.27
06.375,36.61
06.390,29.43
06.406,20.91
06.421,11.26
06.437,0.5
06.453,-11.42
06.468,-24.33
06.484,-37.57
06.500,-49.64
06.515,-58.79
06.531,-63.27
06.546,-62.13
06.562,-55.29
06.578,-43.68
06.593,-28.83
06.609,-12.42
06.625,4.03
06.640,19.38
06.656,32.69
06.671,43.33
06.687,50.63
06.703,54.02
06.718,53.22
06.734,48.38
06.750,40.22
06.765,30.02
06.781,19.51
06.796,10.19
06.812,3.15
06.828,-1.25
06.843,-3.48
06.859,-4.33
06.875,-4.63
06.890,-4.9
06.906,-5.33
06.921,-5.82
06.937,-6.54
06.953,-7.86
06.968,-10.25
06.984,-14.16
07.000,-19.4
07.015,-25.28
07.031,-30.77
07.046,-35.02
07.062,-37.64
07.078,-39.05
07.093,-40.17
07.109,-41.99
07.125,-45.26
07.140,-50.14
07.156,-56.26
07.171,-62.87
07.187,-68.97
07.203,-73.47
07.218,-75.31
07.234,-73.63
07.250,-67.9
07.265,-58.3
07.281,-45.4
07.296,-30.36
07.312,-14.51
07.328,1.03
07.343,15.36
07.359,27.91
07.375,38.3
07.390,46.35
07.406,51.74
07.421,54.42
07.437,54.52
07.453,52.37
07.468,48.74
07.484,44.64
07.500,41.11
07.515,38.91
07.531,38.45
07.546,39.5
07.562,41.43
07.578,43.49
07.593,44.94
07.609,45.33
07.625,44.46
07.640,42.24
07.656,38.6
07.671,33.41
07.687,26.69
07.703,18.72
07.718,10.26
07.734,2.3
07.750,-4.18
07.765,-8.54
07.781,-10.59
07.796,-10.48
07.812,-8.64
07.828,-5.51
07.843,-1.79
07.859,1.86
07.875,4.61
07.890,5.72
07.906,4.68
07.921,1.36
07.937,-3.8
07.953,-10.07
07.968,-16.55
07.984,-22.83
08.000,-28.75
08.015,-34.68
08.031,-41.01
08.046,-47.97
08.062,-55.36
08.078,-62.74
08.093,-69.42
08.109,-74.71
08.125,-78.28
08.140,-80.04
08.156,-80.33
08.171,-79.67
08.187,-78.59
08.203,-77.31
08.218,-75.71
08.234,-73.09
08.250,-68.42
08.265,-60.81
08.281,-49.82
08.296,-35.78
08.312,-19.77
08.328,-3.19
08.343,12.64
08.359,26.6
08.375,38.12
08.390,46.89
08.406,52.75
08.421,55.7
08.437,55.71
08.453,52.8
08.468,47.23
08.484,39.48
08.500,30.33
08.515,20.76
08.531,11.72
08.546,3.83
08.562,-2.66
08.578,-8.02
08.593,-12.65
08.609,-16.7
08.625,-19.79
08.640,-20.95
08.656,-19.06
08.671,-13.47
08.687,-4.44
08.703,6.92
08.718,18.85
08.734,29.48
08.750,37.26
08.765,41.13
08.781,40.55
08.796,35.86
08.812,28.24
08.828,19.7
08.843,12.74
08.859,9.52
08.875,11.11
08.890,16.99
08.906,25.38
08.921,33.85
08.937,40.44
08.953,44.22
08.968,45.32
08.984,44.66
09.000,43.23
09.015,41.75
09.031,40.47
09.046,39.4
09.062,38.53
09.078,37.87
09.093,37.41
09.109,36.87
09.125,35.79
09.140,33.49
09.156,29.52
09.171,23.88
09.187,17.16
09.203,10.44
09.218,4.75
09.234,0.46
09.250,-3.07
09.265,-7.32
09.281,-14.15
09.296,-24.91
09.312,-39.82
09.328,-57.88
09.343,-77.04
09.359,-94.98
09.375,-109.64
09.390,-119.86
09.406,-125.17
09.421,-125.6
09.437,-121.03
09.453,-111.2
09.468,-96.13
09.484,-76.45
09.500,-53.67
09.515,-29.9
09.531,-7.21
09.546,12.94
09.562,29.82
09.578,43.16
09.593,52.62
09.609,57.5
09.625,57.15
09.640,51.62
09.656,42.17
09.671,30.98
09.687,20.38
09.703,12.1
09.718,6.8
09.734,4.26
09.750,3.94
09.765,5.44
09.781,8.66
09.796,13.46
09.812,19.52
09.828,25.95
09.843,31.51
09.859,34.98
09.875,35.61
09.890,33.32
09.906,28.6
09.921,22.31
09.937,15.3
09.953,8.31
09.968,1.75
09.984,-4.31
10.000,-10.11
10.015,-16.13
10.031,-23.0
10.046,-31.18
10.062,-40.78
10.078,-50.95
10.093,-59.96
10.109,-65.37
10.125,-65.21
10.140,-58.72
10.156,-46.79
10.171,-31.74
10.187,-16.32
10.203,-2.67
10.218,8.44
10.234,17.43
10.250,25.4
10.265,33.23
10.281,41.28
10.296,49.17
10.312,56.24
10.328,61.87
10.343,65.8
10.359,67.97
10.375,68.53
10.390,67.66
10.406,65.41
10.421,62.07
10.437,58.04
10.453,53.77
10.468,49.91
10.484,47.12
10.500,45.72
10.515,45.65
10.531,46.24
10.546,46.39
10.562,44.95
10.578,41.18
10.593,34.98
10.609,27.1
10.625,18.78
10.640,11.31
10.656,5.61
10.671,1.88
10.687,-0.32
10.703,-1.83
10.718,-3.71
10.734,-6.88
10.750,-12.0
10.765,-19.5
10.781,-29.33
10.796,-40.78
10.812,-52.5
10.828,-62.66
10.843,-69.32
10.859,-71.1
10.875,-67.5
10.890,-58.89
10.906,-46.51
10.921,-31.93
10.937,-16.52
10.953,-1.44
10.968,12.36
10.984,24.23
11.000,33.53
11.015,39.86
11.031,43.16
11.046,43.68
11.062,41.91
11.078,38.64
11.093,34.63
11.109,30.52
11.125,26.85
11.140,23.92
11.156,21.84
11.171,20.56
11.187,19.93
11.203,19.76
11.218,19.85
11.234,19.98
11.250,19.91
11.265,19.46
11.281,18.42
11.296,16.54
11.312,13.58
11.328,9.29
11.343,3.69
11.359,-3.04
11.375,-10.42
11.390,-17.85
11.406,-24.76
11.421,-30.8
11.437,-36.05
11.453,-40.73
11.468,-45.44
11.484,-50.59
11.500,-56.58
11.515,-63.42
11.531,-70.72
11.546,-77.62
11.562,-82.86
11.578,-85.06
11.593,-82.98
11.609,-76.26
11.625,-65.24
11.640,-51.1
11.656,-35.36
11.671,-19.45
11.687,-4.51
11.703,8.67
11.718,19.59
11.734,28.05
11.750,33.77
11.765,36.78
11.781,37.34
11.796,36.01
11.812,33.59
11.828,30.88
11.843,28.54
11.859,26.84
11.875,25.84
11.890,25.34
11.906,24.97
11.921,24.4
11.937,23.4
11.953,21.99
11.968,20.3
11.984,18.47
12.000,16.37
12.015,13.69
12.031,10.04
12.046,5.08
12.062,-1.27
12.078,-8.74
12.093,-16.72
12.109,-24.53
12.125,-31.54
12.140,-37.47
12.156,-42.39
12.171,-46.66
12.187,-50.81
12.203,-55.36
12.218,-60.76
12.234,-66.95
12.250,-73.51
12.265,-79.43
12.281,-83.47
12.296,-84.4
12.312,-81.34
12.328,-74.1
12.343,-63.12
12.359,-49.44
12.375,-34.26
12.390,-18.68
12.406,-3.43
12.421,11.05
12.437,24.34
12.453,35.9
12.468,45.1
12.484,51.39
12.500,54.58
12.515,54.9
12.531,53.03
12.546,49.84
12.562,46.08
12.578,42.29
12.593,38.61
12.609,35.05
12.625,31.73
12.640,28.81
12.656,26.52
12.671,25.11
12.687,24.59
12.703,24.69
12.718,24.89
12.734,24.58
12.750,23.13
12.765,20.26
12.781,15.96
12.796,10.51
12.812,4.53
12.828,-1.43
12.843,-6.96
12.859,-12.01
12.875,-16.71
12.890,-21.51
12.906,-26.86
12.921,-33.08
12.937,-40.22
12.953,-47.72
12.968,-54.7
12.984,-59.96
13.000,-62.25
13.015,-60.62
13.031,-54.77
13.046,-45.08
13.062,-32.67
13.078,-18.99
13.093,-5.39
13.109,7.03
13.125,17.54
13.140,25.78
13.156,31.6
13.171,34.91
13.187,35.85
13.203,34.64
13.218,31.74
13.234,27.89
13.250,23.87
13.265,20.44
13.281,18.08
13.296,16.9
13.312,16.61
13.328,16.8
13.343,17.08
13.359,17.29
13.375,17.45
13.390,17.61
13.406,17.73
13.421,17.57
13.437,16.76
13.453,14.98
13.468,12.09
13.484,8.2
13.500,3.61
13.515,-1.31
13.531,-6.3
13.546,-11.21
13.562,-15.92
13.578,-20.47
13.593,-24.95
13.609,-29.48
13.625,-34.29
13.640,-39.63
13.656,-45.66
13.671,-52.49
13.687,-59.79
13.703,-66.79
13.718,-72.26
13.734,-74.81
13.750,-73.15
13.765,-66.75
13.781,-55.94
13.796,-41.72
13.812,-25.73
13.828,-9.59
13.843,5.44
13.859,18.68
13.875,29.95
13.890,39.5
13.906,47.51
13.921,53.98
13.937,58.76
13.953,61.56
13.968,62.23
13.984,60.93
14.000,58.19
14.015,54.81
14.031,51.62
14.046,49.14
14.062,47.62
14.078,46.97
14.093,46.96
14.109,47.18
14.125,47.22
14.140,46.58
14.156,44.84
14.171,41.64
14.187,36.85
14.203,30.63
14.218,23.44
14.234,15.95
14.250,8.82
14.265,2.58
14.281,-2.58
14.296,-6.64
14.312,-9.81
14.328,-12.33
14.343,-14.52
14.359,-16.82
14.375,-19.66
14.390,-23.56
14.406,-28.86
14.421,-35.74
14.437,-43.83
14.453,-52.37
14.468,-60.08
14.484,-65.59
14.500,-67.64
14.515,-65.3
14.531,-58.29
14.546,-46.85
14.562,-31.73
14.578,-14.03
14.593,5.02
14.609,24.13
14.625,41.98
14.640,57.39
14.656,69.39
14.671,77.35
14.687,81.07
14.703,81.01
14.718,78.04
14.734,73.5
14.750,68.76
14.765,64.91
14.781,62.58
14.796,61.94
14.812,62.63
14.828,64.09
14.843,65.68
14.859,66.71
14.875,66.64
14.890,65.02
14.906,61.65
14.921,56.53
14.937,50.06
14.953,42.78
14.968,35.4
14.984,28.41
15.000,21.96
15.015,16.02
15.031,10.35
15.046,4.74
15.062,-0.8
15.078,-6.06
15.093,-10.8
15.109,-14.81
15.125,-18.11
15.140,-21.03
15.156,-24.17
15.171,-28.02
15.187,-33.02
15.203,-39.15
15.218,-45.92
15.234,-52.47
15.250,-57.69
15.265,-60.47
15.281,-60.17
15.296,-56.62
15.312,-50.13
15.328,-41.32
15.343,-31.03
15.359,-20.05
15.375,-9.1
15.390,1.12
15.406,10.08
15.421,17.25
15.437,22.3
15.453,25.0
15.468,25.28
15.484,23.25
15.500,19.16
15.515,13.5
15.531,7.05
15.546,0.85
15.562,-3.99
15.578,-6.44
15.593,-5.91
15.609,-2.43
15.625,3.44
15.640,10.86
15.656,18.95
15.671,27.06
15.687,34.86
15.703,42.18
15.718,48.91
15.734,54.83
15.750,59.52
15.765,62.56
15.781,63.69
15.796,62.85
15.812,60.47
15.828,57.33
15.843,54.38
15.859,52.53
15.875,52.29
15.890,53.77
15.906,56.72
15.921,60.56
15.937,64.62
15.953,68.16
15.968,70.39
15.984,70.6
16.000,68.44
16.015,63.88
16.031,57.43
16.046,49.93
16.062,42.32
16.078,35.4
16.093,29.68
16.109,25.45
16.125,22.85
16.140,22.14
16.156,23.4
16.171,26.83
16.187,32.24
16.203,39.24
16.218,47.31
16.234,55.95
16.250,64.69
16.265,73.15
16.281,81.4
16.296,89.85
16.312,99.45
16.328,111.18
16.343,125.41
16.359,141.56
16.375,157.97
16.390,172.51
16.406,183.4
16.421,189.92
16.437,192.59
16.453,192.67
16.468,191.25
16.484,188.54
16.500,183.99
16.515,176.81
16.531,166.95
16.546,155.31
16.562,143.52
16.578,133.19
16.593,125.35
16.609,119.99
16.625,116.44
16.640,113.93
16.656,111.79
16.671,109.79
16.687,107.78
16.703,105.32
16.718,101.77
16.734,96.92
16.750,90.88
16.765,84.05
16.781,76.68
16.796,68.14
16.812,57.33
16.828,43.18
16.843,25.16
16.859,4.05
16.875,-17.85
16.890,-37.75
16.906,-52.93
16.921,-61.48
16.937,-62.99
16.953,-57.87
16.968,-46.75
16.984,-30.3
17.000,-9.36
17.015,14.81
17.031,40.36
17.046,65.05
17.062,85.69
17.078,99.43
17.093,105.34
17.109,103.98
17.125,96.46
17.140,83.78
17.156,66.84
17.171,46.5
17.187,23.67
17.203,-0.99
17.218,-26.69
17.234,-52.0
17.250,-74.82
17.265,-93.48
17.281,-107.31
17.296,-116.35
17.312,-121.38
17.328,-123.68
17.343,-126.37
17.359,-131.54
17.375,-138.89
17.390,-146.62
17.406,-153.54
17.421,-159.67
17.437,-165.49
17.453,-171.89
17.468,-179.25
17.484,-192.61
17.500,-214.76
17.515,-244.04
17.531,-275.42
17.546,-304.24
17.562,-328.92
17.578,-350.74
17.593,-372.49
17.609,-395.99
17.625,-432.42
17.640,-487.53
17.656,-557.83
17.671,-632.08
17.687,-699.74
17.703,-755.94
17.718,-800.5
17.734,-836.29
17.750,-866.5
17.765,-910.63
17.781,-979.94
17.796,-1070.09
17.812,-1163.12
17.828,-1240.08
17.843,-1290.19
17.859,-1311.64
17.875,-1308.72
17.890,-1288.28
17.906,-1280.22
17.921,-1303.99
17.937,-1357.58
17.953,-1421.21
17.968,-1473.91
17.984,-1504.28
18.000,-1510.77
18.015,-1497.81
18.031,-1329.46
18.046,-955.38
18.062,-432.56
18.078,110.69
18.093,568.25
18.109,900.82
18.125,1118.02
18.140,1247.8
18.156,1317.93
18.171,1350.02
18.187,1336.73
18.203,1275.21
18.218,1178.39
18.234,1071.62
18.250,977.13
18.265,905.07
18.281,855.57
18.296,822.34
18.312,800.92
18.328,770.46
18.343,718.85
18.359,649.36
18.375,576.96
18.390,515.96
18.406,472.42
18.421,444.82
18.437,428.85
18.453,420.15
18.468,404.2
18.484,372.57
18.500,327.15
18.515,277.66
18.531,234.08
18.546,201.83
18.562,178.75
18.578,161.77
18.593,148.0
18.609,129.85
18.625,102.89
18.640,68.11
18.656,30.48
18.671,-4.81
18.687,-34.87
18.703,-59.08
18.718,-77.6
18.734,-90.98
18.750,-101.89
18.765,-112.11
18.781,-121.62
18.796,-128.87
18.812,-132.03
18.828,-130.26
18.843,-123.56
18.859,-112.29
18.875,-97.23
18.890,-79.57
18.906,-60.41
18.921,-40.73
18.937,-21.0
18.953,-1.12
18.968,19.34
18.984,40.8
19.000,63.58
19.015,87.38
19.031,111.5
19.046,135.05
19.062,157.38
19.078,178.31
19.093,198.12
19.109,217.43
19.125,237.19
19.140,258.64
19.156,283.01
19.171,311.07
19.187,342.31
19.203,374.34
19.218,403.09
19.234,423.69
19.250,432.13
19.265,426.83
19.281,409.19
19.296,382.9
19.312,352.32
19.328,320.78
19.343,289.81
19.359,259.43
19.375,229.12
19.390,198.69
19.406,168.65
19.421,139.74
19.437,112.5
19.453,86.95
19.468,62.82
19.484,40.07
19.500,19.22
19.515,1.19
19.531,-13.07
19.546,-23.19
19.562,-29.66
19.578,-33.72
19.593,-36.83
19.609,-40.23
19.625,-44.41
19.640,-49.17
19.656,-53.87
19.671,-57.86
19.687,-60.77
19.703,-62.76
19.718,-64.4
19.734,-66.39
19.750,-69.39
19.765,-73.8
19.781,-79.8
19.796,-87.3
19.812,-95.87
19.828,-104.68
19.843,-112.72
19.859,-118.97
19.875,-122.59
19.890,-123.25
19.906,-121.04
19.921,-116.38
19.937,-109.8
19.953,-101.76
19.968,-92.7
19.984,-83.29
20.000,-74.46
20.015,-67.17
20.031,-62.1
20.046,-59.16
20.062,-57.41
20.078,-55.47
20.093,-52.12
20.109,-46.81
20.125,-39.91
20.140,-32.41
20.156,-25.22
20.171,-18.91
20.187,-13.3
20.203,-7.78
20.218,-1.92
20.234,4.28
20.250,10.18
20.265,15.07
20.281,18.27
20.296,19.72
20.312,19.51
20.328,17.73
20.343,14.17
20.359,8.13
20.375,-0.86
20.390,-12.51
20.406,-25.26
20.421,-36.57
20.437,-43.7
20.453,-44.72
20.468,-39.23
20.484,-28.2
20.500,-13.39
20.515,3.61
20.531,21.88
20.546,41.12
20.562,61.26
20.578,81.79
20.593,101.31
20.609,117.87
20.625,129.57
20.640,135.14
20.656,134.49
20.671,128.58
20.687,118.94
20.703,107.09
20.718,94.12
20.734,80.64
20.750,66.85
20.765,53.02
20.781,39.65
20.796,27.47
20.812,17.19
20.828,9.21
20.843,3.42
20.859,-0.91
20.875,-4.75
20.890,-9.22
20.906,-14.96
20.921,-22.02
20.937,-29.77
20.953,-37.19
20.968,-43.39
20.984,-47.98
21.000,-51.34
21.015,-54.24
21.031,-57.68
21.046,-62.22
21.062,-67.83
21.078,-73.83
21.093,-79.16
21.109,-82.68
21.125,-83.48
21.140,-80.95
21.156,-74.84
21.171,-65.45
21.187,-53.41
21.203,-39.7
21.218,-25.43
21.234,-11.62
21.250,0.89
21.265,11.49
21.281,19.78
21.296,25.65
21.312,29.12
21.328,30.54
21.343,30.39
21.359,29.32
21.375,28.05
21.390,27.14
21.406,27.01
21.421,27.7
21.437,29.02
21.453,30.48
21.468,31.66
21.484,32.27
21.500,32.19
21.515,31.64
21.531,30.81
21.546,29.73
21.562,28.22
21.578,25.95
21.593,22.6
21.609,18.14
21.625,12.92
21.640,7.48
21.656,2.35
21.671,-2.08
21.687,-5.84
21.703,-9.17
21.718,-12.48
21.734,-16.23
21.750,-20.78
21.765,-26.4
21.781,-33.02
21.796,-40.32
21.812,-47.61
21.828,-53.84
21.843,-57.79
21.859,-58.32
21.875,-54.59
21.890,-46.45
21.906,-34.58
21.921,-20.28
21.937,-5.11
21.953,9.53
21.968,22.79
21.984,34.5
22.000,44.83
22.015,54.1
22.031,62.39
22.046,69.45
22.062,74.78
22.078,78.07
22.093,79.31
22.109,78.75
22.125,76.81
22.140,74.01
22.156,70.76
22.171,67.55
22.187,64.89
22.203,63.26
22.218,62.89
22.234,63.65
22.250,64.95
22.265,65.81
22.281,65.4
22.296,63.18
22.312,59.1
22.328,53.49
22.343,46.88
22.359,39.72
22.375,32.33
22.390,24.93
22.406,17.72
22.421,11.0
22.437,4.99
22.453,-0.17
22.468,-4.61
22.484,-8.62
22.500,-12.72
22.515,-17.31
22.531,-22.66
22.546,-28.58
22.562,-34.43
22.578,-39.31
22.593,-42.11
22.609,-41.98
22.625,-38.46
22.640,-31.69
22.656,-22.37
22.671,-11.61
22.687,-0.67
22.703,9.41
22.718,17.88
22.734,24.37
22.750,28.79
22.765,31.1
22.781,31.26
22.796,29.25
22.812,25.12
22.828,19.24
22.843,12.14
22.859,4.54
22.875,-2.78
22.890,-9.21
22.906,-14.38
22.921,-18.07
22.937,-20.19
22.953,-20.78
22.968,-19.9
22.984,-17.81
23.000,-14.94
23.015,-11.87
23.031,-9.36
23.046,-8.15
23.062,-8.8
23.078,-11.52
23.093,-16.0
23.109,-21.6
23.125,-27.4
23.140,-32.57
23.156,-36.56
23.171,-39.36
23.187,-41.4
23.203,-43.38
23.218,-46.14
23.234,-50.19
23.250,-55.51
23.265,-61.38
23.281,-66.6
23.296,-69.58
23.312,-69.1
23.328,-64.38
23.343,-55.37
23.359,-42.74
23.375,-27.62
23.390,-11.35
23.406,4.78
23.421,19.7
23.437,32.73
23.453,43.43
23.468,51.72
23.484,57.75
23.500,61.79
23.515,64.21
23.531,65.42
23.546,65.85
23.562,66.0
23.578,66.35
23.593,67.3
23.609,69.1
23.625,71.73
23.640,75.01
23.656,78.83
23.671,83.1
23.687,87.84
23.703,93.05
23.718,98.45
23.734,103.47
23.750,107.32
23.765,109.22
23.781,108.72
23.796,106.04
23.812,101.88
23.828,97.26
23.843,92.99
23.859,89.38
23.875,85.92
23.890,81.68
23.906,75.51
23.921,66.59
23.937,54.81
23.953,40.52
23.968,24.53
23.984,7.61
24.000,-9.43
24.015,-25.76
24.031,-40.28
24.046,-51.59
24.062,-58.42
24.078,-60.08
24.093,-57.12
24.109,-51.29
24.125,-45.1
24.140,-40.97
24.156,-40.48
24.171,-43.95
24.187,-50.65
24.203,-59.32
24.218,-68.66
24.234,-77.65
24.250,-85.46
24.265,-91.4
24.281,-94.96
24.296,-95.94
24.312,-94.75
24.328,-92.41
24.343,-90.19
24.359,-89.01
24.375,-88.89
24.390,-88.64
24.406,-86.35
24.421,-80.18
24.437,-69.32
24.453,-54.54
24.468,-38.02
24.484,-22.65
24.500,-11.03
24.515,-4.6
24.531,-3.5
24.546,-6.87
24.562,-13.46
24.578,-22.09
24.593,-31.92
24.609,-42.29
24.625,-52.47
24.640,-61.53
24.656,-68.34
24.671,-71.76
24.687,-71.06
24.703,-66.15
24.718,-57.52
24.734,-46.16
24.750,-33.28
24.765,-19.97
24.781,-7.19
24.796,4.34
24.812,14.1
24.828,21.75
24.843,27.15
24.859,30.36
24.875,31.67
24.890,31.64
24.906,30.9
24.921,30.02
24.937,29.36
24.953,29.01
24.968,28.8
24.984,28.61
25.000,28.3
25.015,27.89
25.031,27.52
25.046,27.32
25.062,27.22
25.078,27.05
25.093,26.6
25.109,25.56
25.125,23.85
25.140,21.48
25.156,18.6
25.171,15.4
25.187,12.16
25.203,9.07
25.218,6.2
25.234,3.63
25.250,1.18
25.265,-1.28
25.281,-3.92
25.296,-6.75
25.312,-9.84
25.328,-13.22
25.343,-16.98
25.359,-21.18
25.375,-25.58
25.390,-29.65
25.406,-32.49
25.421,-33.19
25.437,-31.04
25.453,-25.84
25.468,-18.05
25.484,-8.61
25.500,1.31
25.515,10.58
25.531,18.31
25.546,23.92
25.562,27.17
25.578,28.08
25.593,27.0
25.609,24.43
25.625,21.05
25.640,17.54
25.656,14.56
25.671,12.43
25.687,11.26
25.703,10.86
25.718,10.79
25.734,10.69
25.750,10.32
25.765,9.78
25.781,9.23
25.796,8.99
25.812,9.08
25.828,9.41
25.843,9.58
25.859,9.13
25.875,7.75
25.890,5.33
25.906,2.06
25.921,-1.72
25.937,-5.65
25.953,-9.46
25.968,-12.95
25.984,-16.1
26.000,-19.07
26.015,-22.13
26.031,-25.65
26.046,-29.75
26.062,-34.22
26.078,-38.4
26.093,-41.32
26.109,-41.92
26.125,-39.53
26.140,-34.07
26.156,-26.07
26.171,-16.58
26.187,-6.73
26.203,2.45
26.218,10.24
26.234,16.3
26.250,20.43
26.265,22.63
26.281,22.95
26.296,21.64
26.312,19.03
26.328,15.71
26.343,12.35
26.359,9.54
26.375,7.71
26.390,6.94
26.406,7.01
26.421,7.56
26.437,8.3
26.453,9.02
26.468,9.67
26.484,10.27
26.500,10.79
26.515,11.05
26.531,10.74
26.546,9.58
26.562,7.38
26.578,4.16
26.593,0.09
26.609,-4.52
26.625,-9.3
26.640,-13.9
26.656,-18.11
26.671,-21.89
26.687,-25.38
26.703,-28.94
26.718,-33.01
26.734,-37.89
26.750,-43.57
26.765,-49.56
26.781,-54.87
26.796,-58.23
26.812,-58.55
26.828,-55.21
26.843,-48.28
26.859,-38.56
26.875,-27.14
26.890,-15.22
26.906,-3.79
26.921,6.44
26.937,15.07
26.953,21.89
26.968,26.79
26.984,29.71
27.000,30.77
27.015,30.33
27.031,28.83
27.046,26.86
27.062,24.92
27.078,23.38
27.093,22.35
27.109,21.83
27.125,21.74
27.140,21.99
27.156,22.62
27.171,23.62
27.187,24.9
27.203,26.24
27.218,27.35
27.234,27.74
27.250,27.03
27.265,24.91
27.281,21.15
27.296,15.86
27.312,9.31
27.328,2.0
27.343,-5.44
27.359,-12.38
27.375,-18.36
27.390,-23.22
27.406,-27.18
27.421,-30.79
27.437,-34.7
27.453,-39.45
27.468,-45.1
27.484,-51.2
27.500,-56.73
27.515,-60.41
27.531,-61.05
27.546,-57.92
27.562,-51.02
27.578,-40.91
27.593,-28.71
27.609,-15.65
27.625,-2.77
27.640,9.1
27.656,19.47
27.671,28.03
27.687,34.51
27.703,38.73
27.718,40.66
27.734,40.48
27.750,38.6
27.765,35.78
27.781,32.7
27.796,30.01
27.812,28.08
27.828,27.01
27.843,26.65
27.859,26.72
27.875,26.94
27.890,27.11
27.906,27.19
27.921,27.16
27.937,27.05
27.953,26.78
27.968,26.2
27.984,24.95
28.000,22.78
28.015,19.52
28.031,15.21
28.046,10.21
28.062,4.91
28.078,-0.21
28.093,-4.83
28.109,-8.87
28.125,-12.6
28.140,-16.43
28.156,-20.93
28.171,-26.52
28.187,-33.21
28.203,-40.5
28.218,-47.35
28.234,-52.32
28.250,-54.12
28.265,-51.96
28.281,-45.74
28.296,-36.14
28.312,-24.37
28.328,-11.81
28.343,0.31
28.359,10.99
28.375,19.56
28.390,25.6
28.406,28.89
28.421,29.53
28.437,27.84
28.453,24.51
28.468,20.42
28.484,16.45
28.500,13.17
28.515,10.77
28.531,9.07
28.546,7.63
28.562,6.22
28.578,4.8
28.593,3.62
28.609,2.99
28.625,3.18
28.640,4.13
28.656,5.52
28.671,6.82
28.687,7.36
28.703,6.58
28.718,4.13
28.734,0.08
28.750,-5.07
28.765,-10.51
28.781,-15.41
28.796,-19.2
28.812,-21.78
28.828,-23.55
28.843,-25.19
28.859,-27.42
28.875,-30.69
28.890,-35.09
28.906,-40.27
28.921,-45.51
28.937,-49.87
28.953,-52.32
28.968,-52.07
28.984,-48.64
29.000,-42.22
29.015,-33.42
29.031,-23.15
29.046,-12.41
29.062,-2.06
29.078,7.17
29.093,14.79
29.109,20.29
29.125,23.47
29.140,24.28
29.156,23.07
29.171,20.6
29.187,17.8
29.203,15.6
29.218,14.54
29.234,14.74
29.250,15.9
29.265,17.58
29.281,19.27
29.296,20.62
29.312,21.39
29.328,21.51
29.343,21.02
29.359,19.9
29.375,18.15
29.390,15.78
29.406,12.81
29.421,9.33
29.437,5.49
29.453,1.48
29.468,-2.44
29.484,-6.0
29.500,-9.19
29.515,-12.07
29.531,-14.87
29.546,-17.95
29.562,-21.67
29.578,-26.27
29.593,-31.88
29.609,-38.29
29.625,-44.91
29.640,-50.79
29.656,-54.68
29.671,-55.42
29.687,-52.19
29.703,-44.79
29.718,-33.76
29.734,-20.26
29.750,-5.86
29.765,7.91
29.781,19.86
29.796,29.4
29.812,36.45
29.828,41.4
29.843,44.78
29.859,47.02
29.875,48.37
29.890,48.84
29.906,48.4
29.921,47.07
29.937,45.03
29.953,42.47
29.968,39.68
29.984,36.87
30.000,34.14
30.015,31.48
30.031,28.73
30.046,25.66
30.062,22.03
30.078,17.76
30.093,12.89
30.109,7.7
30.125,2.51
30.140,-2.39
30.156,-6.8
30.171,-10.6
30.187,-13.77
30.203,-16.28
30.218,-18.14
30.234,-19.39
30.250,-20.15
30.265,-20.68
30.281,-21.32
30.296,-22.48
30.312,-24.49
30.328,-27.47
30.343,-31.31
30.359,-35.59
30.375,-39.66
30.390,-42.66
30.406,-43.76
30.421,-42.32
30.437,-38.06
30.453,-31.2
30.468,-22.34
30.484,-12.46
30.500,-2.62
30.515,6.21
30.531,13.37
30.546,18.65
30.562,22.24
30.578,24.62
30.593,26.26
30.609,27.62
30.625,28.88
30.640,30.14
30.656,31.52
30.671,33.16
30.687,35.24
30.703,37.87
30.718,40.93
30.734,43.98
30.750,46.46
30.765,47.74
30.781,47.53
30.796,45.86
30.812,43.0
30.828,39.29
30.843,34.94
30.859,29.94
30.875,24.09
30.890,17.45
30.906,10.2
30.921,2.87
30.937,-3.86
30.953,-9.4
30.968,-13.42
30.984,-15.98
31.000,-17.42
31.015,-18.37
31.031,-19.31
31.046,-20.63
31.062,-22.38
31.078,-24.36
31.093,-26.07
31.109,-26.76
31.125,-25.75
31.140,-22.34
31.156,-16.25
31.171,-7.56
31.187,3.11
31.203,14.69
31.218,25.89
31.234,35.44
31.250,42.49
31.265,46.54
31.281,47.65
31.296,46.12
31.312,42.57
31.328,37.63
31.343,31.97
31.359,26.29
31.375,21.23
31.390,17.36
31.406,15.0
31.421,14.15
31.437,14.57
31.453,15.87
31.468,17.64
31.484,19.49
31.500,21.29
31.515,22.87
31.531,24.14
31.546,24.93
31.562,25.0
31.578,23.96
31.593,21.37
31.609,17.09
31.625,11.15
31.640,4.09
31.656,-3.33
31.671,-10.36
31.687,-16.57
31.703,-21.94
31.718,-26.88
31.734,-32.02
31.750,-37.69
31.765,-43.88
31.781,-50.05
31.796,-55.33
31.812,-58.78
31.828,-59.62
31.843,-57.32
31.859,-51.9
31.875,-43.84
31.890,-34.06
31.906,-23.73
31.921,-13.97
31.937,-5.67
31.953,0.62
31.968,4.74
31.984,6.74
32.000,6.86
32.015,5.34
32.031,2.52
32.046,-1.18
32.062,-5.24
32.078,-9.1
32.093,-12.28
32.109,-14.48
32.125,-15.64
32.140,-15.89
32.156,-15.5
32.171,-14.7
32.187,-13.77
32.203,-12.81
32.218,-11.89
32.234,-11.08
32.250,-10.51
32.265,-10.41
32.281,-11.01
32.296,-12.38
32.312,-14.4
32.328,-16.88
32.343,-19.4
32.359,-21.75
32.375,-23.76
32.390,-25.54
32.406,-27.36
32.421,-29.49
32.437,-32.04
32.453,-34.85
32.468,-37.52
32.484,-39.23
32.500,-39.15
32.515,-36.49
32.531,-30.9
32.546,-22.5
32.562,-11.98
32.578,-0.36
32.593,11.3
32.609,22.0
32.625,31.07
32.640,38.09
32.656,42.89
32.671,45.49
32.687,46.07
32.703,44.99
32.718,42.71
32.734,39.76
32.750,36.61
32.765,33.56
32.781,30.73
32.796,28.07
32.812,25.65
32.828,23.52
32.843,21.87
32.859,20.79
32.875,20.25
32.890,19.91
32.906,19.33
32.921,17.99
32.937,15.56
32.953,11.94
32.968,7.29
32.984,1.98
33.000,-3.61
33.015,-9.17
33.031,-14.56
33.046,-19.84
33.062,-25.21
33.078,-30.87
33.093,-36.96
33.109,-43.47
33.125,-50.05
33.140,-56.12
33.156,-60.83
33.171,-63.28
33.187,-62.62
33.203,-58.42
33.218,-50.72
33.234,-40.14
33.250,-27.8
33.265,-14.99
33.281,-2.88
33.296,7.61
33.312,15.92
33.328,21.82
33.343,25.3
33.359,26.58
33.375,25.98
33.390,23.91
33.406,20.86
33.421,17.29
33.437,13.63
33.453,10.23
33.468,7.28
33.484,4.93
33.500,3.2
33.515,2.01
33.531,1.19
33.546,0.52
33.562,-0.28
33.578,-1.43
33.593,-3.13
33.609,-5.52
33.625,-8.59
33.640,-12.25
33.656,-16.34
33.671,-20.69
33.687,-25.08
33.703,-29.32
33.718,-33.09
33.734,-36.23
33.750,-38.74
33.765,-40.87
33.781,-42.95
33.796,-45.24
33.812,-47.67
33.828,-49.67
33.843,-50.42
33.859,-48.9
33.875,-44.48
33.890,-37.0
33.906,-27.02
33.921,-15.56
33.937,-3.89
33.953,6.93
33.968,16.25
33.984,23.82
34.000,29.76
34.015,34.26
34.031,37.5
34.046,39.55
34.062,40.55
34.078,40.74
34.093,40.6
34.109,40.67
34.125,41.45
34.140,43.17
34.156,45.74
34.171,48.85
34.187,52.03
34.203,54.91
34.218,57.32
34.234,59.31
34.250,60.98
34.265,62.39
34.281,63.41
34.296,63.78
34.312,63.2
34.328,61.49
34.343,58.68
34.359,55.16
34.375,51.48
34.390,48.19
34.406,45.66
34.421,43.98
34.437,42.94
34.453,42.2
34.468,41.62
34.484,41.25
34.500,41.49
34.515,42.94
34.531,46.27
34.546,52.08
34.562,60.75
34.578,72.21
34.593,85.91
34.609,100.72
34.625,115.1
34.640,127.27
34.656,135.57
34.671,138.77
34.687,136.25
34.703,128.12
34.718,114.95
34.734,97.71
34.750,77.54
34.765,55.66
34.781,33.45
34.796,12.23
34.812,-6.82
34.828,-22.87
34.843,-35.57
34.859,-45.23
34.875,-52.55
34.890,-58.48
34.906,-63.86
34.921,-69.17
34.937,-74.54
34.953,-79.87
34.968,-84.74
34.984,-88.67
35.000,-91.25
35.015,-92.42
35.031,-92.56
35.046,-92.52
35.062,-93.2
35.078,-95.14
35.093,-98.18
35.109,-101.32
35.125,-103.04
35.140,-101.91
35.156,-97.03
35.171,-88.23
35.187,-75.94
35.203,-60.87
35.218,-43.7
35.234,-25.07
35.250,-5.7
35.265,13.42
35.281,31.18
35.296,46.51
35.312,58.52
35.328,66.58
35.343,70.31
35.359,69.44
35.375,63.8
35.390,53.49
35.406,39.08
35.421,21.92
35.437,3.97
35.453,-12.73
35.468,-26.71
35.484,-37.26
35.500,-44.44
35.515,-48.78
35.531,-50.81
35.546,-51.0
35.562,-49.48
35.578,-46.11
35.593,-40.4
35.609,-31.66
35.625,-19.21
35.640,-2.88
35.656,16.45
35.671,36.95
35.687,56.13
35.703,71.67
35.718,82.1
35.734,87.49
35.750,89.18
35.765,89.0
35.781,88.69
35.796,88.96
35.812,89.59
35.828,89.46
35.843,87.08
35.859,81.31
35.875,72.3
35.890,61.68
35.906,52.14
35.921,46.24
35.937,45.13
35.953,47.8
35.968,51.33
35.984,52.01
36.000,46.8
36.015,34.48
36.031,15.9
36.046,-6.64
36.062,-30.46
36.078,-53.13
36.093,-72.98
36.109,-88.89
36.125,-100.15
36.140,-106.32
36.156,-107.39
36.171,-103.78
36.187,-96.11
36.203,-85.05
36.218,-71.37
36.234,-55.97
36.250,-40.06
36.265,-25.23
36.281,-13.07
36.296,-4.84
36.312,-1.22
36.328,-2.14
36.343,-7.08
36.359,-15.61
36.375,-27.52
36.390,-42.95
36.406,-61.81
36.421,-83.44
36.437,-106.35
36.453,-128.46
36.468,-147.75
36.484,-162.82
36.500,-173.26
36.515,-179.44
36.531,-182.0
36.546,-181.3
36.562,-177.24
36.578,-169.45
36.593,-157.66
36.609,-142.14
36.625,-123.69
36.640,-103.61
36.656,-83.31
36.671,-63.98
36.687,-46.45
36.703,-31.13
36.718,-18.26
36.734,-7.95
36.750,-0.34
36.765,4.49
36.781,6.6
36.796,6.36
36.812,4.49
36.828,2.03
36.843,0.4
36.859,1.0
36.875,5.08
36.890,13.42
36.906,26.15
36.921,42.91
36.937,62.8
36.953,84.01
36.968,103.73
36.984,118.51
37.000,124.92
37.015,120.93
37.031,106.93
37.046,85.76
37.062,62.02
37.078,40.38
37.093,24.0
37.109,13.63
37.125,7.84
37.140,3.88
37.156,-0.96
37.171,-8.38
37.187,-18.58
37.203,-30.28
37.218,-41.09
37.234,-48.46
37.250,-50.62
37.265,-47.3
37.281,-39.92
37.296,-30.75
37.312,-21.77
37.328,-13.94
37.343,-7.21
37.359,-1.24
37.375,3.73
37.390,6.59
37.406,5.8
37.421,0.31
37.437,-9.48
37.453,-21.48
37.468,-32.57
37.484,-39.4
37.500,-39.71
37.515,-33.13
37.531,-21.28
37.546,-7.33
37.562,5.12
37.578,13.19
37.593,15.86
37.609,14.28
37.625,11.27
37.640,10.08
37.656,12.89
37.671,20.03
37.687,30.15
37.703,41.34
37.718,52.12
37.734,62.02
37.750,71.26
37.765,80.04
37.781,87.77
37.796,93.06
37.812,94.33
37.828,90.55
37.843,81.68
37.859,68.55
37.875,52.18
37.890,33.24
37.906,11.93
37.921,-11.63
37.937,-36.85
37.953,-62.28
37.968,-85.72
37.984,-104.66
38.000,-116.87
38.015,-120.9
38.031,-116.37
38.046,-103.85
38.062,-84.67
38.078,-60.61
38.093,-33.67
38.109,-6.15
38.125,19.44
38.140,40.43
38.156,54.26
38.171,58.87
38.187,53.3
38.203,38.08
38.218,15.28
38.234,-11.99
38.250,-40.43
38.265,-67.15
38.281,-90.06
38.296,-107.75
38.312,-119.24
38.328,-123.76
38.343,-120.91
38.359,-111.0
38.375,-95.46
38.390,-76.96
38.406,-59.02
38.421,-45.13
38.437,-38.07
38.453,-39.2
38.468,-48.19
38.484,-62.98
38.500,-80.17
38.515,-95.31
38.531,-103.94
38.546,-102.6
38.562,-89.74
38.578,-66.24
38.593,-35.12
38.609,-0.53
38.625,33.65
38.640,64.38
38.656,89.66
38.671,108.09
38.687,118.37
38.703,119.44
38.718,111.12
38.734,94.74
38.750,73.23
38.765,50.72
38.781,31.21
38.796,17.43
38.812,10.33
38.828,9.2
38.843,12.69
38.859,19.62
38.875,29.4
38.890,41.7
38.906,55.84
38.921,70.16
38.937,81.98
38.953,88.3
38.968,86.58
38.984,75.9
39.000,57.34
39.015,33.67
39.031,8.52
39.046,-14.71
39.062,-33.46
39.078,-46.23
39.093,-52.42
39.109,-52.24
39.125,-46.49
39.140,-36.59
39.156,-24.34
39.171,-11.61
39.187,0.07
39.203,9.56
39.218,16.19
39.234,19.49
39.250,19.03
39.265,14.68
39.281,7.06
39.296,-2.26
39.312,-10.83
39.328,-15.99
39.343,-15.66
39.359,-8.91
39.375,3.83
39.390,20.76
39.406,39.32
39.421,56.79
39.437,70.76
39.453,79.83
39.468,83.38
39.484,81.42
39.500,74.07
39.515,61.37
39.531,43.37
39.546,20.59
39.562,-5.45
39.578,-32.41
39.593,-57.23
39.609,-76.97
39.625,-89.14
39.640,-92.24
39.656,-85.99
39.671,-71.52
39.687,-51.51
39.703,-29.81
39.718,-10.89
39.734,1.48
39.750,4.97
39.765,-0.65
39.781,-13.66
39.796,-31.12
39.812,-49.68
39.828,-66.23
39.843,-78.16
39.859,-83.81
39.875,-82.27
39.890,-73.7
39.906,-59.11
39.921,-40.09
39.937,-18.52
39.953,3.84
39.968,25.51
39.984,45.24
40.000,61.95
40.015,74.87
40.031,83.46
40.046,87.74
40.062,88.31
40.078,86.11
40.093,82.27
40.109,77.8
40.125,73.31
40.140,69.1
40.156,65.26
40.171,61.59
40.187,57.86
40.203,53.9
40.218,49.54
40.234,44.84
40.250,39.96
40.265,35.01
40.281,29.91
40.296,24.38
40.312,17.84
40.328,9.83
40.343,0.31
40.359,-10.45
40.375,-21.82
40.390,-33.29
40.406,-44.52
40.421,-55.43
40.437,-66.08
40.453,-76.85
40.468,-87.89
40.484,-99.21
40.500,-110.61
40.515,-121.25
40.531,-129.79
40.546,-134.29
40.562,-132.61
40.578,-123.09
40.593,-105.51
40.609,-81.33
40.625,-53.52
40.640,-25.61
40.656,-0.42
40.671,20.63
40.687,37.64
40.703,51.62
40.718,63.4
40.734,72.97
40.750,79.63
40.765,82.34
40.781,80.81
40.796,76.05
40.812,70.2
40.828,66.07
40.843,66.25
40.859,72.46
40.875,85.03
40.890,103.05
40.906,124.58
40.921,147.2
40.937,168.86
40.953,188.1
40.968,204.43
40.984,218.07
41.000,229.59
41.015,239.16
41.031,245.93
41.046,248.16
41.062,243.5
41.078,229.94
41.093,206.49
41.109,173.86
41.125,134.05
41.140,89.99
41.156,44.66
41.171,0.59
41.187,-40.2
41.203,-76.26
41.218,-106.68
41.234,-131.11
41.250,-149.12
41.265,-160.0
41.281,-162.56
41.296,-155.67
41.312,-139.07
41.328,-114.4
41.343,-85.35
41.359,-56.91
41.375,-34.16
41.390,-20.51
41.406,-16.9
41.421,-21.84
41.437,-32.53
41.453,-46.02
41.468,-59.97
41.484,-72.96
41.500,-83.63
41.515,-90.51
41.531,-92.38
41.546,-88.55
41.562,-79.44
41.578,-66.81
41.593,-53.35
41.609,-41.8
41.625,-34.23
41.640,-31.13
41.656,-31.56
41.671,-33.96
41.687,-36.39
41.703,-37.47
41.718,-36.84
41.734,-35.18
41.750,-33.7
41.765,-33.22
41.781,-33.37
41.796,-32.53
41.812,-29.02
41.828,-21.26
41.843,-9.03
41.859,5.98
41.875,20.39
41.890,30.16
41.906,31.91
41.921,23.81
41.937,5.74
41.953,-21.46
41.968,-54.67
41.984,-89.2
42.000,-119.84
42.015,-142.06
42.031,-153.3
42.046,-153.6
42.062,-145.4
42.078,-132.93
42.093,-121.29
42.109,-112.84
42.125,-106.13
42.140,-96.81
42.156,-79.81
42.171,-52.14
42.187,-14.59
42.203,28.33
42.218,76.02
42.234,122.07
42.250,159.39
42.265,184.66
42.281,199.64
42.296,206.55
42.312,206.59
42.328,198.01
42.343,178.56
42.359,147.72
42.375,107.99
42.390,64.71
42.406,23.94
42.421,-10.13
42.437,-36.91
42.453,-58.93
42.468,-79.7
42.484,-101.37
42.500,-123.62
42.515,-144.24
42.531,-159.6
42.546,-166.55
42.562,-164.16
42.578,-154.16
42.593,-139.68
42.609,-123.74
42.625,-108.01
42.640,-92.87
42.656,-78.28
42.671,-64.02
42.687,-50.3
42.703,-37.87
42.718,-28.03
42.734,-21.69
42.750,-18.84
42.765,-18.3
42.781,-18.08
42.796,-16.28
42.812,-11.48
42.828,-3.45
42.843,6.81
42.859,17.18
42.875,25.16
42.890,28.47
42.906,25.55
42.921,16.09
42.937,1.12
42.953,-17.04
42.968,-35.01
42.984,-49.19
43.000,-56.8
43.015,-56.36
43.031,-48.16
43.046,-34.02
43.062,-16.7
43.078,0.91
43.093,16.39
43.109,28.48
43.125,37.07
43.140,42.69
43.156,46.06
43.171,47.66
43.187,47.63
43.203,46.1
43.218,43.83
43.234,42.18
43.250,42.86
43.265,46.89
43.281,53.95
43.296,62.15
43.312,69.15
43.328,73.53
43.343,75.61
43.359,77.33
43.375,81.06
43.390,88.18
43.406,98.25
43.421,109.5
43.437,119.99
43.453,128.79
43.468,136.37
43.484,144.14
43.500,153.11
43.515,162.78
43.531,171.13
43.546,175.26
43.562,172.94
43.578,163.83
43.593,149.71
43.609,133.82
43.625,119.36
43.640,108.1
43.656,99.62
43.671,91.77
43.687,81.88
43.703,68.07
43.718,50.04
43.734,28.91
43.750,6.38
43.765,-16.4
43.781,-39.16
43.796,-62.25
43.812,-85.91
43.828,-109.53
43.843,-131.5
43.859,-149.77
43.875,-162.41
43.890,-168.03
43.906,-165.96
43.921,-156.21
43.937,-139.34
43.953,-116.65
43.968,-90.47
43.984,-64.11
44.000,-41.3
44.015,-24.97
44.031,-15.73
44.046,-11.05
44.062,-5.8
44.078,5.54
44.093,26.24
44.109,55.09
44.125,86.24
44.140,110.87
44.156,120.7
44.171,111.33
44.187,83.83
44.203,44.45
44.218,2.19
44.234,-34.07
44.250,-57.72
44.265,-65.45
44.281,-57.15
44.296,-35.36
44.312,-4.58
44.328,29.42
44.343,60.7
44.359,84.25
44.375,97.08
44.390,98.97
44.406,92.47
44.421,81.98
44.437,72.32
44.453,66.97
44.468,66.7
44.484,69.36
44.500,70.78
44.515,66.28
44.531,52.57
44.546,29.1
44.562,-1.75
44.578,-35.38
44.593,-66.44
44.609,-90.59
44.625,-105.58
44.640,-111.7
44.656,-111.4
44.671,-107.98
44.687,-104.23
44.703,-101.36
44.718,-98.79
44.734,-94.71
44.750,-87.43
44.765,-76.46
44.781,-62.94
44.796,-49.02
44.812,-36.7
44.828,-26.75
44.843,-18.53
44.859,-10.83
44.875,-2.78
44.890,5.32
44.906,12.2
44.921,16.3
44.937,16.64
44.953,13.08
44.968,6.21
44.984,-3.17
45.000,-14.39
45.015,-26.73
45.031,-39.31
45.046,-50.6
45.062,-58.78
45.078,-62.17
45.093,-59.92
45.109,-52.27
45.125,-40.35
45.140,-25.44
45.156,-8.41
45.171,10.37
45.187,30.64
45.203,51.4
45.218,70.35
45.234,84.06
45.250,89.05
45.265,83.25
45.281,67.21
45.296,44.23
45.312,19.23
45.328,-2.87
45.343,-18.85
45.359,-28.13
45.375,-32.49
45.390,-34.98
45.406,-38.41
45.421,-44.09
45.437,-51.48
45.453,-58.78
45.468,-64.14
45.484,-66.66
45.500,-67.08
45.515,-67.24
45.531,-69.3
45.546,-74.6
45.562,-83.16
45.578,-94.06
45.593,-106.16
45.609,-118.62
45.625,-130.78
45.640,-141.69
45.656,-149.47
45.671,-151.72
45.687,-146.39
45.703,-133.08
45.718,-113.52
45.734,-90.99
45.750,-68.7
45.765,-48.2
45.781,-28.63
45.796,-7.2
45.812,19.11
45.828,51.8
45.843,89.8
45.859,129.6
45.875,166.34
45.890,195.5
45.906,214.21
45.921,222.04
45.937,220.76
45.953,213.53
45.968,203.51
45.984,192.86
46.000,182.4
46.015,171.79
46.031,160.36
46.046,147.62
46.062,133.47
46.078,118.02
46.093,101.17
46.109,82.67
46.125,62.42
46.140,41.17
46.156,20.79
46.171,4.07
46.187,-6.03
46.203,-7.46
46.218,0.02
46.234,14.65
46.250,33.33
46.265,52.73
46.281,70.37
46.296,85.23
46.312,97.63
46.328,108.46
46.343,118.34
46.359,127.13
46.375,133.81
46.390,136.8
46.406,134.56
46.421,126.23
46.437,112.05
46.453,93.6
46.468,73.75
46.484,55.65
46.500,42.2
46.515,35.22
46.531,34.92
46.546,40.35
46.562,49.62
46.578,60.55
46.593,70.69
46.609,77.8
46.625,79.88
46.640,75.98
46.656,66.79
46.671,54.5
46.687,42.07
46.703,31.79
46.718,24.22
46.734,17.96
46.750,10.47
46.765,-0.56
46.781,-16.22
46.796,-36.12
46.812,-58.98
46.828,-83.31
46.843,-107.77
46.859,-131.03
46.875,-151.28
46.890,-166.28
46.906,-174.1
46.921,-174.28
46.937,-168.62
46.953,-160.96
46.968,-155.73
46.984,-156.25
47.000,-163.48
47.015,-175.67
47.031,-189.53
47.046,-201.6
47.062,-209.63
47.078,-212.95
47.093,-212.23
47.109,-208.62
47.125,-202.97
47.140,-195.7
47.156,-186.68
47.171,-175.64
47.187,-162.54
47.203,-147.64
47.218,-131.19
47.234,-112.97
47.250,-92.21
47.265,-67.65
47.281,-38.31
47.296,-4.0
47.312,34.11
47.328,73.51
47.343,111.02
47.359,143.67
47.375,169.57
47.390,187.84
47.406,197.96
47.421,198.98
47.437,189.53
47.453,168.46
47.468,135.94
47.484,94.13
47.500,46.77
47.515,-1.92
47.531,-48.52
47.546,-91.04
47.562,-128.54
47.578,-159.76
47.593,-182.2
47.609,-192.23
47.625,-186.53
47.640,-164.56
47.656,-130.02
47.671,-90.26
47.687,-53.88
47.703,-27.63
47.718,-13.93
47.734,-10.24
47.750,-10.74
47.765,-9.31
47.781,-2.53
47.796,8.71
47.812,20.34
47.828,27.56
47.843,27.78
47.859,21.9
47.875,13.81
47.890,8.03
47.906,7.25
47.921,11.22
47.937,17.13
47.953,21.63
47.968,22.64
47.984,20.36
48.000,16.68
48.015,13.87
48.031,13.22
48.046,14.59
48.062,16.87
48.078,19.02
48.093,21.01
48.109,23.55
48.125,27.49
48.140,32.98
48.156,38.98
48.171,43.69
48.187,45.65
48.203,44.67
48.218,42.14
48.234,40.75
48.250,43.2
48.265,51.22
48.281,64.89
48.296,82.4
48.312,100.62
48.328,116.16
48.343,126.42
48.359,130.31
48.375,128.73
48.390,123.97
48.406,118.81
48.421,115.36
48.437,114.0
48.453,113.15
48.468,109.8
48.484,100.6
48.500,83.05
48.515,56.42
48.531,22.39
48.546,-15.01
48.562,-49.98
48.578,-76.32
48.593,-88.67
48.609,-83.95
48.625,-62.16
48.640,-26.57
48.656,17.15
48.671,62.2
48.687,102.28
48.703,132.65
48.718,150.58
48.734,155.3
48.750,147.42
48.765,128.79
48.781,102.07
48.796,70.74
48.812,38.74
48.828,10.04
48.843,-12.24
48.859,-26.53
48.875,-33.16
48.890,-34.18
48.906,-32.53
48.921,-30.87
48.937,-30.81
48.953,-32.67
48.968,-35.69
48.984,-38.77
49.000,-41.16
49.015,-42.92
49.031,-44.97
49.046,-49.05
49.062,-56.92
49.078,-69.96
49.093,-88.67
49.109,-112.43
49.125,-139.7
49.140,-168.43
49.156,-196.5
49.171,-222.15
49.187,-244.13
49.203,-261.52
49.218,-273.58
49.234,-279.6
49.250,-279.16
49.265,-272.24
49.281,-259.31
49.296,-240.84
49.312,-216.84
49.328,-186.33
49.343,-147.51
49.359,-98.68
49.375,-39.39
49.390,28.42
49.406,100.17
49.421,169.56
49.437,230.21
49.453,277.42
49.468,309.3
49.484,326.81
49.500,332.63
49.515,329.74
49.531,320.56
49.546,306.46
49.562,288.09
49.578,265.89
49.593,240.31
49.609,212.04
49.625,182.03
49.640,151.33
49.656,120.93
49.671,91.5
49.687,63.18
49.703,35.46
49.718,7.35
49.734,-21.9
49.750,-52.04
49.765,-81.33
49.781,-106.75
49.796,-124.82
49.812,-133.18
49.828,-131.71
49.843,-122.91
49.859,-111.27
49.875,-101.7
49.890,-97.89
49.906,-101.01
49.921,-109.59
49.937,-120.24
49.953,-128.78
49.968,-131.52
49.984,-125.75
50.000,-110.24
50.015,-85.46
50.031,-53.76
50.046,-19.18
50.062,13.15
50.078,38.04
50.093,51.79
50.109,53.08
50.125,43.29
50.140,25.76
50.156,4.45
50.171,-17.36
50.187,-37.6
50.203,-55.55
50.218,-71.46
50.234,-85.74
50.250,-98.7
50.265,-110.04
50.281,-118.95
50.296,-124.51
50.312,-125.95
50.328,-123.17
50.343,-116.75
50.359,-108.13
50.375,-99.3
50.390,-92.73
50.406,-90.63
50.421,-94.35
50.437,-103.86
50.453,-117.44
50.468,-132.22
50.484,-144.93
50.500,-153.0
50.515,-155.23
50.531,-151.91
50.546,-143.96
50.562,-132.22
50.578,-117.0
50.593,-98.42
50.609,-77.09
50.625,-54.53
50.640,-32.52
50.656,-12.18
50.671,6.73
50.687,25.96
50.703,47.51
50.718,71.89
50.734,97.11
50.750,118.89
50.765,132.08
50.781,133.23
50.796,122.01
50.812,101.56
50.828,77.14
50.843,54.12
50.859,36.25
50.875,24.77
50.890,18.61
50.906,15.22
50.921,11.81
50.937,6.36
50.953,-1.62
50.968,-11.09
50.984,-20.16
51.000,-26.76
51.015,-29.66
51.031,-28.91
51.046,-25.59
51.062,-21.37
51.078,-17.85
51.093,-15.95
51.109,-15.84
51.125,-17.41
51.140,-20.3
51.156,-24.15
51.171,-28.58
51.187,-32.94
51.203,-36.38
51.218,-38.42
51.234,-39.39
51.250,-40.43
51.265,-43.26
51.281,-49.11
51.296,-58.06
51.312,-68.43
51.328,-77.09
51.343,-80.63
51.359,-76.65
51.375,-64.71
51.390,-46.3
51.406,-24.21
51.421,-1.15
51.437,20.85
51.453,40.78
51.468,58.55
51.484,74.17
51.500,87.35
51.515,97.1
51.531,102.04
51.546,100.89
51.562,93.41
51.578,80.56
51.593,64.56
51.609,48.47
51.625,35.18
51.640,26.86
51.656,24.22
51.671,26.48
51.687,31.16
51.703,34.74
51.718,33.43
51.734,24.31
51.750,6.65
51.765,-17.33
51.781,-42.62
51.796,-63.12
51.812,-73.71
51.828,-72.21
51.843,-59.93
51.859,-40.87
51.875,-20.18
51.890,-2.28
51.906,10.11
51.921,16.24
51.937,16.92
51.953,13.87
51.968,9.2
51.984,4.9
52.000,2.73
52.015,3.91
52.031,9.13
52.046,18.56
52.062,31.81
52.078,47.82
52.093,64.83
52.109,80.83
52.125,94.2
52.140,104.63
52.156,113.22
52.171,122.15
52.187,133.27
52.203,146.86
52.218,161.4
52.234,173.98
52.250,181.55
52.265,182.16
52.281,175.69
52.296,163.53
52.312,148.02
52.328,131.5
52.343,115.48
52.359,100.57
52.375,86.52
52.390,72.86
52.406,59.29
52.421,46.15
52.437,34.33
52.453,25.01
52.468,19.17
52.484,17.22
52.500,18.92
52.515,23.62
52.531,30.59
52.546,39.32
52.562,49.23
52.578,59.58
52.593,69.0
52.609,75.65
52.625,77.57
52.640,73.3
52.656,62.35
52.671,45.34
52.687,23.76
52.703,-0.53
52.718,-25.28
52.734,-48.01
52.750,-65.98
52.765,-76.49
52.781,-77.47
52.796,-68.31
52.812,-50.32
52.828,-26.56
52.843,-1.11
52.859,22.11
52.875,40.39
52.890,52.68
52.906,59.46
52.921,61.76
52.937,60.59
52.953,56.52
52.968,49.88
52.984,41.06
53.000,30.64
53.015,19.43
53.031,8.12
53.046,-2.54
53.062,-12.26
53.078,-20.75
53.093,-27.88
53.109,-33.42
53.125,-37.21
53.140,-39.31
53.156,-40.27
53.171,-41.18
53.187,-43.41
53.203,-48.41
53.218,-57.14
53.234,-69.8
53.250,-85.83
53.265,-104.25
53.281,-123.79
53.296,-143.3
53.312,-161.62
53.328,-177.39
53.343,-188.91
53.359,-194.39
53.375,-192.52
53.390,-183.11
53.406,-167.18
53.421,-146.72
53.437,-124.16
53.453,-101.69
53.468,-80.89
53.484,-62.8
53.500,-48.11
53.515,-37.09
53.531,-29.84
53.546,-25.58
53.562,-22.7
53.578,-19.03
53.593,-12.58
53.609,-2.37
53.625,11.1
53.640,26.01
53.656,40.14
53.671,51.53
53.687,59.28
53.703,63.51
53.718,64.91
53.734,64.33
53.750,62.48
53.765,59.73
53.781,56.26
53.796,52.26
53.812,47.76
53.828,42.85
53.843,37.46
53.859,31.34
53.875,24.27
53.890,16.17
53.906,7.1
53.921,-2.68
53.937,-12.81
53.953,-23.14
53.968,-33.6
53.984,-44.06
54.000,-54.1
54.015,-62.64
54.031,-67.98
54.046,-68.34
54.062,-62.49
54.078,-50.25
54.093,-32.69
54.109,-11.84
54.125,9.85
54.140,29.99
54.156,46.66
54.171,58.55
54.187,65.02
54.203,66.11
54.218,62.39
54.234,54.99
54.250,45.35
54.265,35.1
54.281,25.59
54.296,17.83
54.312,12.18
54.328,8.55
54.343,6.57
54.359,5.7
54.375,5.52
54.390,5.78
54.406,6.82
54.421,9.31
54.437,14.09
54.453,21.39
54.468,30.43
54.484,39.25
54.500,45.09
54.515,45.38
54.531,38.65
54.546,25.25
54.562,6.91
54.578,-14.08
54.593,-35.81
54.609,-56.69
54.625,-75.04
54.640,-88.78
54.656,-95.8
54.671,-95.02
54.687,-87.16
54.703,-74.74
54.718,-60.97
54.734,-47.99
54.750,-35.85
54.765,-22.66
54.781,-6.18
54.796,14.55
54.812,38.04
54.828,61.02
54.843,79.76
54.859,91.77
54.875,96.62
54.890,95.73
54.906,91.75
54.921,87.37
54.937,84.96
54.953,85.86
54.968,90.51
54.984,98.56
55.000,109.24
55.015,121.5
55.031,133.92
55.046,144.81
55.062,152.52
55.078,156.14
55.093,155.89
55.109,153.34
55.125,150.95
55.140,150.85
55.156,153.78
55.171,158.16
55.187,160.43
55.203,156.2
55.218,141.82
55.234,115.59
55.250,78.33
55.265,33.16
55.281,-15.63
55.296,-63.53
55.312,-106.74
55.328,-142.28
55.343,-168.0
55.359,-182.42
55.375,-185.15
55.390,-177.22
55.406,-161.18
55.421,-140.76
55.437,-119.75
55.453,-101.04
55.468,-85.76
55.484,-73.42
55.500,-62.65
55.515,-52.27
55.531,-41.95
55.546,-32.19
55.562,-23.95
55.578,-17.75
55.593,-13.58
55.609,-10.93
55.625,-8.99
55.640,-6.96
55.656,-4.39
55.671,-1.45
55.687,1.05
55.703,1.7
55.718,-0.87
55.734,-7.33
55.750,-17.39
55.765,-29.86
55.781,-43.16
55.796,-56.01
55.812,-67.91
55.828,-79.07
55.843,-90.03
55.859,-101.08
55.875,-112.09
55.890,-122.39
55.906,-131.01
55.921,-136.89
55.937,-139.0
55.953,-136.58
55.968,-129.28
55.984,-117.46
56.000,-102.17
56.015,-85.02
56.031,-67.75
56.046,-51.77
56.062,-38.0
56.078,-26.81
56.093,-18.28
56.109,-12.54
56.125,-9.92
56.140,-10.73
56.156,-15.05
56.171,-22.39
56.187,-31.63
56.203,-41.26
56.218,-49.83
56.234,-56.47
56.250,-61.07
56.265,-64.25
56.281,-66.9
56.296,-69.76
56.312,-73.09
56.328,-76.69
56.343,-80.1
56.359,-82.8
56.375,-84.63
56.390,-85.76
56.406,-86.77
56.421,-88.36
56.437,-91.2
56.453,-95.65
56.468,-101.53
56.484,-108.1
56.500,-114.05
56.515,-117.83
56.531,-118.03
56.546,-113.73
56.562,-104.67
56.578,-91.27
56.593,-74.36
56.609,-54.85
56.625,-33.63
56.640,-11.45
56.656,10.86
56.671,32.39
56.687,52.17
56.703,69.63
56.718,84.82
56.734,98.48
56.750,111.91
56.765,126.65
56.781,144.06
56.796,164.9
56.812,188.71
56.828,213.41
56.843,235.33
56.859,250.09
56.875,253.72
56.890,244.2
56.906,222.49
56.921,192.38
56.937,159.46
56.953,129.13
56.968,105.09
56.984,88.4
57.000,78.4
57.015,73.72
57.031,73.49
57.046,77.45
57.062,85.29
57.078,95.83
57.093,106.45
57.109,113.8
57.125,114.88
57.140,108.41
57.156,95.25
57.171,77.96
57.187,59.46
57.203,41.95
57.218,26.53
57.234,13.58
57.250,3.53
57.265,-2.86
57.281,-4.65
57.296,-1.36
57.312,6.63
57.328,17.9
57.343,30.38
57.359,42.15
57.375,51.72
57.390,58.22
57.406,61.38
57.421,61.2
57.437,57.82
57.453,51.75
57.468,43.82
57.484,35.03
57.500,26.54
57.515,19.27
57.531,13.75
57.546,10.05
57.562,7.85
57.578,6.63
57.593,5.95
57.609,5.41
57.625,4.68
57.640,3.54
57.656,1.78
57.671,-0.84
57.687,-4.34
57.703,-8.63
57.718,-13.47
57.734,-18.47
57.750,-23.28
57.765,-27.72
57.781,-31.82
57.796,-35.86
57.812,-40.32
57.828,-45.68
57.843,-52.25
57.859,-60.09
57.875,-68.81
57.890,-77.62
57.906,-85.32
57.921,-90.36
57.937,-91.3
57.953,-87.15
57.968,-77.61
57.984,-63.26
58.000,-45.4
58.015,-25.78
58.031,-6.24
58.046,11.66
58.062,26.82
58.078,38.64
58.093,46.97
58.109,51.88
58.125,53.71
58.140,52.95
58.156,50.23
58.171,46.33
58.187,42.04
58.203,38.06
58.218,34.83
58.234,32.61
58.250,31.3
58.265,30.68
58.281,30.38
58.296,30.16
58.312,29.81
58.328,29.15
58.343,27.93
58.359,25.89
58.375,22.73
58.390,18.19
58.406,12.22
58.421,5.0
58.437,-2.99
58.453,-11.1
58.468,-18.64
58.484,-25.24
58.500,-30.8
58.515,-35.66
58.531,-40.39
58.546,-45.68
58.562,-51.94
58.578,-59.12
58.593,-66.45
58.609,-72.57
58.625,-75.86
58.640,-74.92
58.656,-68.99
58.671,-58.11
58.687,-43.19
58.703,-25.61
58.718,-7.0
58.734,11.15
58.750,27.59
58.765,41.35
58.781,51.8
58.796,58.53
58.812,61.51
58.828,61.22
58.843,58.54
58.859,54.64
58.875,50.72
58.890,47.6
58.906,45.58
58.921,44.42
58.937,43.62
58.953,42.59
58.968,41.19
58.984,39.69
59.000,38.66
59.015,38.64
59.031,39.82
59.046,41.86
59.062,43.98
59.078,45.35
59.093,45.49
59.109,44.57
59.125,43.63
59.140,44.66
59.156,50.13
59.171,62.73
59.187,84.43
59.203,115.44
59.218,153.63
59.234,194.61
59.250,232.65
59.265,262.33
59.281,280.36
59.296,286.38
59.312,282.83
59.328,273.76
59.343,263.1
59.359,253.39
59.375,245.39
59.390,238.36
59.406,230.74
59.421,221.24
59.437,209.35
59.453,195.83
59.468,182.73
59.484,172.69
59.500,167.97
59.515,169.5
59.531,176.45
59.546,186.52
59.562,196.79
59.578,204.58
59.593,208.21
59.609,207.19
59.625,201.79
59.640,192.6
59.656,179.86
59.671,163.13
59.687,141.5
59.703,113.87
59.718,79.73
59.734,39.75
59.750,-3.81
59.765,-47.61
59.781,-88.02
59.796,-122.46
59.812,-150.04
59.828,-171.36
59.843,-187.79
59.859,-200.48
59.875,-209.93
59.890,-216.09
59.906,-219.01
59.921,-218.94
59.937,-216.5
59.953,-212.42
59.968,-207.44
59.984,-202.56
