timestamp,value
00.000,-115.24
00.015,-114.43
00.031,-113.57
00.046,-113.42
00.062,-114.21
00.078,-115.68
00.093,-117.18
00.109,-117.52
00.125,-114.98
00.140,-107.83
00.156,-94.97
00.171,-76.71
00.187,-55.05
00.203,-33.02
00.218,-13.67
00.234,0.98
00.250,10.65
00.265,16.44
00.281,20.16
00.296,23.42
00.312,27.15
00.328,31.71
00.343,37.17
00.359,43.64
00.375,51.04
00.390,59.17
00.406,67.16
00.421,73.78
00.437,77.83
00.453,78.52
00.468,75.79
00.484,70.07
00.500,61.98
00.515,51.96
00.531,40.28
00.546,27.05
00.562,12.66
00.578,-1.97
00.593,-15.51
00.609,-26.52
00.625,-33.9
00.640,-37.09
00.656,-36.21
00.671,-31.94
00.687,-25.31
00.703,-17.46
00.718,-9.49
00.734,-2.34
00.750,3.15
00.765,6.43
00.781,7.24
00.796,5.46
00.812,1.26
00.828,-5.01
00.843,-12.78
00.859,-21.08
00.875,-28.46
00.890,-33.18
00.906,-33.66
00.921,-29.19
00.937,-20.52
00.953,-10.26
00.968,-2.38
00.984,-1.32
01.000,-10.46
01.015,-30.75
01.031,-60.02
01.046,-93.44
01.062,-124.73
01.078,-147.78
01.093,-158.22
01.109,-154.1
01.125,-135.9
01.140,-106.01
01.156,-68.03
01.171,-26.08
01.187,15.61
01.203,53.2
01.218,83.58
01.234,104.9
01.250,116.46
01.265,118.68
01.281,112.29
01.296,97.83
01.312,75.68
01.328,46.77
01.343,13.47
01.359,-19.7
01.375,-46.4
01.390,-59.97
01.406,-55.68
01.421,-32.8
01.437,4.83
01.453,49.5
01.468,91.52
01.484,121.62
01.500,133.19
01.515,124.17
01.531,97.78
01.546,62.03
01.562,27.41
01.578,3.73
01.593,-3.36
01.609,5.78
01.625,25.44
01.640,47.32
01.656,64.37
01.671,73.37
01.687,75.39
01.703,74.02
01.718,72.82
01.734,73.6
01.750,76.01
01.765,79.04
01.781,82.17
01.796,85.8
01.812,90.75
01.828,97.24
01.843,104.08
01.859,108.68
01.875,107.93
01.890,99.32
01.906,81.8
01.921,55.9
01.937,23.0
01.953,-15.24
01.968,-57.3
01.984,-101.91
02.000,-147.8
02.015,-193.52
02.031,-237.47
02.046,-278.43
02.062,-315.87
02.078,-349.65
02.093,-379.12
02.109,-401.99
02.125,-413.94
02.140,-409.42
02.156,-383.15
02.171,-332.17
02.187,-257.29
02.203,-163.31
02.218,-58.4
02.234,47.77
02.250,145.87
02.265,228.73
02.281,292.12
02.296,334.96
02.312,358.73
02.328,366.35
02.343,361.3
02.359,346.84
02.375,325.7
02.390,300.2
02.406,272.43
02.421,244.28
02.437,217.12
02.453,191.38
02.468,166.49
02.484,141.51
02.500,116.0
02.515,90.31
02.531,65.51
02.546,42.92
02.562,23.66
02.578,8.51
02.593,-2.03
02.609,-7.9
02.625,-9.35
02.640,-7.17
02.656,-2.76
02.671,2.33
02.687,6.95
02.703,10.82
02.718,14.54
02.734,19.07
02.750,24.8
02.765,31.49
02.781,38.13
02.796,43.68
02.812,47.51
02.828,49.5
02.843,49.51
02.859,46.93
02.875,40.62
02.890,29.43
02.906,13.11
02.921,-7.43
02.937,-30.16
02.953,-52.69
02.968,-73.34
02.984,-91.81
03.000,-109.15
03.015,-126.92
03.031,-146.29
03.046,-167.34
03.062,-189.27
03.078,-211.03
03.093,-231.87
03.109,-251.92
03.125,-271.86
03.140,-292.34
03.156,-313.19
03.171,-333.05
03.187,-349.22
03.203,-358.2
03.218,-356.38
03.234,-340.76
03.250,-310.06
03.265,-265.44
03.281,-210.74
03.296,-151.68
03.312,-94.24
03.328,-42.58
03.343,2.08
03.359,41.39
03.375,78.36
03.390,115.41
03.406,152.9
03.421,188.85
03.437,220.05
03.453,243.58
03.468,258.05
03.484,263.83
03.500,262.65
03.515,256.64
03.531,247.56
03.546,236.53
03.562,223.99
03.578,209.93
03.593,194.17
03.609,176.94
03.625,158.89
03.640,141.15
03.656,124.83
03.671,110.59
03.687,98.39
03.703,87.7
03.718,77.72
03.734,67.82
03.750,57.85
03.765,47.88
03.781,38.17
03.796,28.79
03.812,19.66
03.828,10.63
03.843,1.47
03.859,-8.03
03.875,-18.16
03.890,-28.97
03.906,-40.23
03.921,-51.13
03.937,-60.46
03.953,-67.05
03.968,-70.04
03.984,-69.33
04.000,-65.34
04.015,-58.82
04.031,-50.41
04.046,-40.65
04.062,-30.07
04.078,-19.33
04.093,-9.45
04.109,-1.49
04.125,3.67
04.140,5.87
04.156,5.65
04.171,4.2
04.187,2.82
04.203,2.47
04.218,3.29
04.234,4.48
04.250,4.67
04.265,2.43
04.281,-3.03
04.296,-11.54
04.312,-21.93
04.328,-32.45
04.343,-41.46
04.359,-47.9
04.375,-51.54
04.390,-52.88
04.406,-52.76
04.421,-52.03
04.437,-51.24
04.453,-50.46
04.468,-49.23
04.484,-46.75
04.500,-41.95
04.515,-33.91
04.531,-22.21
04.546,-7.32
04.562,9.42
04.578,25.94
04.593,40.0
04.609,49.73
04.625,54.13
04.640,53.26
04.656,48.07
04.671,40.04
04.687,30.84
04.703,21.75
04.718,13.57
04.734,6.69
04.750,1.04
04.765,-3.66
04.781,-7.77
04.796,-11.7
04.812,-15.85
04.828,-20.38
04.843,-25.33
04.859,-30.31
04.875,-34.66
04.890,-38.32
04.906,-42.76
04.921,-51.42
04.937,-68.85
04.953,-98.5
04.968,-140.09
04.984,-188.42
05.000,-234.29
05.015,-267.52
05.031,-280.86
05.046,-272.42
05.062,-245.38
05.078,-205.78
05.093,-159.74
05.109,-111.84
05.125,-65.5
05.140,-24.08
05.156,8.55
05.171,28.86
05.187,35.7
05.203,31.71
05.218,23.11
05.234,17.73
05.250,22.13
05.265,39.18
05.281,67.67
05.296,103.22
05.312,140.18
05.328,173.74
05.343,200.6
05.359,218.9
05.375,227.29
05.390,224.53
05.406,209.22
05.421,180.76
05.437,140.31
05.453,91.49
05.468,40.15
05.484,-6.89
05.500,-43.72
05.515,-66.7
05.531,-74.71
05.546,-69.16
05.562,-52.5
05.578,-27.34
05.593,3.91
05.609,38.88
05.625,74.79
05.640,108.4
05.656,136.42
05.671,156.79
05.687,169.14
05.703,175.06
05.718,177.32
05.734,178.22
05.750,177.97
05.765,173.57
05.781,159.51
05.796,130.03
05.812,82.09
05.828,17.4
05.843,-57.67
05.859,-133.59
05.875,-200.58
05.890,-251.14
05.906,-281.42
05.921,-291.44
05.937,-283.68
05.953,-261.34
05.968,-227.38
05.984,-185.41
06.000,-140.3
06.015,-98.3
06.031,-65.31
06.046,-44.76
06.062,-35.71
06.078,-31.93
06.093,-23.41
06.109,0.03
06.125,43.97
06.140,107.17
06.156,182.39
06.171,260.03
06.187,331.45
06.203,390.44
06.218,433.14
06.234,456.7
06.250,458.58
06.265,435.89
06.281,387.22
06.296,314.58
06.312,223.91
06.328,123.45
06.343,21.16
06.359,-76.95
06.375,-168.85
06.390,-247.89
06.406,-305.37
06.421,-335.03
06.437,-336.63
06.453,-315.96
06.468,-281.28
06.484,-240.24
06.500,-198.26
06.515,-158.69
06.531,-123.02
06.546,-92.5
06.562,-68.63
06.578,-52.09
06.593,-42.37
06.609,-37.59
06.625,-35.33
06.640,-33.28
06.656,-29.78
06.671,-23.33
06.687,-13.81
06.703,-2.4
06.718,9.49
06.734,20.9
06.750,31.69
06.765,42.26
06.781,53.0
06.796,63.66
06.812,73.98
06.828,83.71
06.843,90.75
06.859,93.55
06.875,91.47
06.890,85.25
06.906,76.58
06.921,67.62
06.937,59.94
06.953,54.16
06.968,49.42
06.984,43.48
07.000,33.89
07.015,18.69
07.031,-2.43
07.046,-28.03
07.062,-55.11
07.078,-80.42
07.093,-101.35
07.109,-117.0
07.125,-127.98
07.140,-135.12
07.156,-139.45
07.171,-140.68
07.187,-137.59
07.203,-128.19
07.218,-111.08
07.234,-86.81
07.250,-58.88
07.265,-33.2
07.281,-14.06
07.296,-7.69
07.312,-18.86
07.328,-49.13
07.343,-94.82
07.359,-146.96
07.375,-193.22
07.390,-222.09
07.406,-226.7
07.421,-206.81
07.437,-169.56
07.453,-126.42
07.468,-89.17
07.484,-64.96
07.500,-54.13
07.515,-50.99
07.531,-47.01
07.546,-33.97
07.562,-5.79
07.578,39.18
07.593,98.33
07.609,160.12
07.625,208.23
07.640,230.3
07.656,224.36
07.671,196.34
07.687,154.36
07.703,104.94
07.718,51.51
07.734,-4.54
07.750,-61.8
07.765,-116.93
07.781,-165.78
07.796,-204.45
07.812,-231.96
07.828,-252.13
07.843,-267.92
07.859,-281.35
07.875,-292.74
07.890,-300.43
07.906,-301.11
07.921,-291.24
07.937,-267.98
07.953,-231.41
07.968,-184.27
07.984,-130.36
08.000,-73.57
08.015,-16.77
08.031,38.78
08.046,93.92
08.062,145.22
08.078,190.03
08.093,225.22
08.109,247.94
08.125,256.56
08.140,250.95
08.156,232.82
08.171,205.59
08.187,173.8
08.203,142.12
08.218,115.07
08.234,95.25
08.250,83.26
08.265,78.05
08.281,77.05
08.296,76.86
08.312,74.05
08.328,65.67
08.343,49.66
08.359,26.04
08.375,-3.89
08.390,-37.71
08.406,-72.48
08.421,-105.33
08.437,-133.93
08.453,-156.85
08.468,-173.48
08.484,-184.08
08.500,-188.84
08.515,-187.87
08.531,-181.06
08.546,-168.7
08.562,-151.28
08.578,-129.62
08.593,-105.12
08.609,-79.13
08.625,-52.76
08.640,-26.37
08.656,0.44
08.671,28.56
08.687,58.38
08.703,89.75
08.718,121.47
08.734,151.79
08.750,179.34
08.765,203.56
08.781,225.22
08.796,246.07
08.812,268.5
08.828,294.38
08.843,324.96
08.859,360.59
08.875,401.15
08.890,445.78
08.906,491.7
08.921,533.24
08.937,561.91
08.953,568.24
08.968,544.38
08.984,487.43
09.000,400.85
09.015,293.53
09.031,176.73
09.046,60.43
09.062,-48.12
09.078,-143.6
09.093,-220.4
09.109,-272.17
09.125,-292.17
09.140,-275.91
09.156,-223.7
09.171,-141.88
09.187,-42.04
09.203,62.41
09.218,159.7
09.234,242.27
09.250,305.59
09.265,347.72
09.281,368.37
09.296,368.64
09.312,351.03
09.328,319.02
09.343,277.09
09.359,230.32
09.375,183.64
09.390,138.76
09.406,93.65
09.421,43.34
09.437,-18.05
09.453,-94.79
09.468,-187.43
09.484,-290.88
09.500,-395.49
09.515,-480.22
09.531,-522.97
09.546,-513.99
09.562,-462.97
09.578,-392.46
09.593,-323.72
09.609,-266.84
09.625,-219.93
09.640,-175.9
09.656,-130.55
09.671,-88.27
09.687,-59.27
09.703,-51.96
09.718,-66.0
09.734,-91.3
09.750,-113.82
09.765,-122.99
09.781,-116.26
09.796,-98.59
09.812,-78.98
09.828,-64.94
09.843,-58.97
09.859,-58.41
09.875,-58.23
09.890,-54.64
09.906,-46.51
09.921,-34.97
09.937,-22.02
09.953,-9.78
09.968,0.74
09.984,10.1
10.000,20.31
10.015,33.45
10.031,50.25
10.046,69.64
10.062,88.99
10.078,106.06
10.093,117.84
10.109,122.17
10.125,118.28
10.140,106.9
10.156,89.47
10.171,67.75
10.187,43.48
10.203,18.43
10.218,-5.14
10.234,-24.74
10.250,-38.25
10.265,-43.82
10.281,-40.46
10.296,-28.35
10.312,-8.77
10.328,15.85
10.343,42.61
10.359,68.85
10.375,92.45
10.390,111.64
10.406,125.74
10.421,134.72
10.437,139.07
10.453,139.92
10.468,138.47
10.484,135.85
10.500,133.31
10.515,131.85
10.531,131.53
10.546,132.36
10.562,134.08
10.578,136.09
10.593,137.81
10.609,138.45
10.625,136.74
10.640,130.92
10.656,123.68
10.671,115.71
10.687,107.54
10.703,99.6
10.718,92.13
10.734,85.34
10.750,79.29
10.765,73.87
10.781,69.0
10.796,64.55
10.812,59.88
10.828,54.7
10.843,49.03
10.859,43.06
10.875,37.07
10.890,31.16
10.906,25.3
10.921,19.45
10.937,13.64
10.953,7.68
10.968,1.89
10.984,-3.03
11.000,-6.27
11.015,-7.24
11.031,-5.99
11.046,-3.24
11.062,-0.11
11.078,1.96
11.093,1.39
11.109,-2.91
11.125,-11.72
11.140,-25.66
11.156,-45.49
11.171,-71.97
11.187,-105.71
11.203,-146.48
11.218,-192.91
11.234,-242.82
11.250,-293.66
11.265,-343.16
11.281,-389.94
11.296,-432.61
11.312,-468.68
11.328,-494.45
11.343,-505.49
11.359,-498.7
11.375,-473.59
11.390,-432.82
11.406,-381.69
11.421,-327.01
11.437,-275.23
11.453,-231.49
11.468,-199.81
11.484,-183.1
11.500,-183.33
11.515,-199.53
11.531,-226.2
11.546,-253.01
11.562,-267.35
11.578,-256.91
11.593,-213.79
11.609,-137.53
11.625,-35.62
11.640,77.19
11.656,184.1
11.671,271.02
11.687,329.58
11.703,355.63
11.718,351.5
11.734,324.49
11.750,284.42
11.765,241.28
11.781,200.06
11.796,162.57
11.812,128.86
11.828,97.93
11.843,63.85
11.859,22.96
11.875,-23.36
11.890,-69.07
11.906,-104.42
11.921,-125.55
11.937,-131.09
11.953,-121.26
11.968,-98.52
11.984,-74.97
12.000,-62.13
12.015,-66.29
12.031,-88.12
12.046,-122.4
12.062,-170.8
12.078,-233.82
12.093,-308.01
12.109,-387.33
12.125,-473.84
12.140,-566.96
12.156,-660.2
12.171,-742.55
12.187,-799.8
12.203,-832.13
12.218,-843.93
12.234,-839.16
12.250,-760.02
12.265,-581.36
12.281,-325.69
12.296,-51.13
12.312,160.3
12.328,315.43
12.343,431.14
12.359,520.69
12.375,596.15
12.390,660.59
12.406,705.81
12.421,725.57
12.437,721.52
12.453,702.18
12.468,681.42
12.484,660.04
12.500,635.22
12.515,605.03
12.531,568.49
12.546,519.61
12.562,455.28
12.578,380.69
12.593,307.95
12.609,252.35
12.625,215.99
12.640,193.97
12.656,178.71
12.671,162.18
12.687,134.48
12.703,88.74
12.718,27.11
12.734,-40.72
12.750,-101.55
12.765,-151.02
12.781,-190.01
12.796,-221.02
12.812,-246.55
12.828,-269.98
12.843,-295.89
12.859,-324.68
12.875,-351.79
12.890,-369.54
12.906,-373.39
12.921,-360.82
12.937,-330.28
12.953,-282.45
12.968,-205.21
12.984,-107.66
13.000,-15.32
13.015,47.3
13.031,72.25
13.046,66.28
13.062,41.58
13.078,9.0
13.093,-25.18
13.109,-57.11
13.125,-86.64
13.140,-112.02
13.156,-129.66
13.171,-137.01
13.187,-130.67
13.203,-113.07
13.218,-88.25
13.234,-59.56
13.250,-27.95
13.265,4.78
13.281,38.63
13.296,75.01
13.312,114.48
13.328,155.97
13.343,195.87
13.359,230.91
13.375,259.93
13.390,284.95
13.406,308.02
13.421,332.3
13.437,361.73
13.453,398.31
13.468,440.82
13.484,482.32
13.500,512.7
13.515,522.98
13.531,509.96
13.546,476.48
13.562,430.89
13.578,383.91
13.593,342.32
13.609,306.36
13.625,267.64
13.640,214.11
13.656,137.33
13.671,37.95
13.687,-75.81
13.703,-192.15
13.718,-299.59
13.734,-391.74
13.750,-453.42
13.765,-468.72
13.781,-433.21
13.796,-358.97
13.812,-264.78
13.828,-166.2
13.843,-77.65
13.859,1.49
13.875,70.2
13.890,126.65
13.906,168.23
13.921,193.84
13.937,202.3
13.953,197.27
13.968,184.21
13.984,167.25
14.000,148.7
14.015,127.48
14.031,102.25
14.046,71.31
14.062,33.74
14.078,-9.39
14.093,-54.17
14.109,-96.25
14.125,-132.74
14.140,-162.6
14.156,-187.75
14.171,-210.99
14.187,-235.79
14.203,-264.86
14.218,-298.76
14.234,-334.58
14.250,-367.54
14.265,-392.76
14.281,-406.55
14.296,-408.28
14.312,-399.37
14.328,-383.1
14.343,-362.81
14.359,-340.94
14.375,-317.89
14.390,-292.8
14.406,-264.24
14.421,-230.51
14.437,-190.21
14.453,-142.02
14.468,-86.05
14.484,-24.18
14.500,38.91
14.515,96.86
14.531,142.91
14.546,171.84
14.562,181.28
14.578,171.91
14.593,147.45
14.609,113.75
14.625,77.59
14.640,44.43
14.656,18.4
14.671,2.47
14.687,-1.02
14.703,9.39
14.718,33.81
14.734,71.16
14.750,120.05
14.765,178.14
14.781,240.88
14.796,303.06
14.812,360.85
14.828,411.65
14.843,453.12
14.859,481.37
14.875,491.07
14.890,478.58
14.906,442.44
14.921,382.29
14.937,300.66
14.953,203.78
14.968,100.15
14.984,-2.33
15.000,-99.1
15.015,-188.8
15.031,-269.04
15.046,-328.78
15.062,-354.66
15.078,-339.18
15.093,-287.67
15.109,-213.94
15.125,-131.59
15.140,-50.12
15.156,24.73
15.171,93.78
15.187,161.64
15.203,225.52
15.218,278.9
15.234,315.88
15.250,333.81
15.265,334.38
15.281,321.81
15.296,282.82
15.312,217.64
15.328,136.19
15.343,48.55
15.359,-36.71
15.375,-114.18
15.390,-180.88
15.406,-233.96
15.421,-271.37
15.437,-293.0
15.453,-306.4
15.468,-311.3
15.484,-312.8
15.500,-317.26
15.515,-330.11
15.531,-354.01
15.546,-386.54
15.562,-422.55
15.578,-455.95
15.593,-480.38
15.609,-478.26
15.625,-445.2
15.640,-383.92
15.656,-302.4
15.671,-210.8
15.687,-115.81
15.703,-20.98
15.718,72.09
15.734,163.84
15.750,254.78
15.765,340.59
15.781,416.91
15.796,480.33
15.812,515.14
15.828,510.87
15.843,468.35
15.859,399.81
15.875,321.54
15.890,245.75
15.906,175.45
15.921,110.34
15.937,49.39
15.953,-7.8
15.968,-58.2
15.984,-98.81
16.000,-128.74
16.015,-149.57
16.031,-163.92
16.046,-175.52
16.062,-186.45
16.078,-197.04
16.093,-208.53
16.109,-216.73
16.125,-217.72
16.140,-209.89
16.156,-194.53
16.171,-174.45
16.187,-153.4
16.203,-134.56
16.218,-120.28
16.234,-112.09
16.250,-109.26
16.265,-110.98
16.281,-116.78
16.296,-126.78
16.312,-140.93
16.328,-158.52
16.343,-177.67
16.359,-195.78
16.375,-210.81
16.390,-219.48
16.406,-219.42
16.421,-209.91
16.437,-191.89
16.453,-167.65
16.468,-140.33
16.484,-113.12
16.500,-88.87
16.515,-69.68
16.531,-56.19
16.546,-48.25
16.562,-45.05
16.578,-45.23
16.593,-46.95
16.609,-48.52
16.625,-48.49
16.640,-45.9
16.656,-40.56
16.671,-32.78
16.687,-23.55
16.703,-14.09
16.718,-5.51
16.734,1.37
16.750,6.06
16.765,8.4
16.781,8.7
16.796,7.54
16.812,5.78
16.828,4.16
16.843,3.31
16.859,3.59
16.875,5.16
16.890,7.76
16.906,10.83
16.921,13.59
16.937,15.39
16.953,15.96
16.968,15.49
16.984,14.78
17.000,14.92
17.015,17.1
17.031,22.11
17.046,30.08
17.062,40.46
17.078,52.35
17.093,64.93
17.109,77.73
17.125,90.84
17.140,104.79
17.156,120.16
17.171,137.13
17.187,155.15
17.203,173.11
17.218,189.85
17.234,204.66
17.250,217.71
17.265,230.0
17.281,242.89
17.296,257.49
17.312,274.35
17.328,293.26
17.343,313.49
17.359,333.76
17.375,352.23
17.390,366.52
17.406,374.1
17.421,372.78
17.437,361.48
17.453,340.65
17.468,312.05
17.484,278.13
17.500,241.44
17.515,204.02
17.531,167.6
17.546,133.92
17.562,105.07
17.578,82.99
17.593,68.7
17.609,61.24
17.625,57.41
17.640,52.53
17.656,42.12
17.671,23.74
17.687,-1.71
17.703,-29.5
17.718,-52.25
17.734,-62.03
17.750,-53.17
17.765,-24.52
17.781,19.66
17.796,70.36
17.812,116.33
17.828,147.67
17.843,159.07
17.859,151.46
17.875,131.34
17.890,107.79
17.906,88.64
17.921,77.79
17.937,74.5
17.953,74.91
17.968,74.65
17.984,71.33
18.000,65.25
18.015,58.62
18.031,53.59
18.046,50.31
18.062,46.8
18.078,40.04
18.093,27.73
18.109,9.73
18.125,-11.88
18.140,-34.05
18.156,-54.51
18.171,-73.11
18.187,-91.83
18.203,-112.92
18.218,-136.62
18.234,-160.22
18.250,-178.56
18.265,-186.84
18.281,-183.09
18.296,-168.18
18.312,-145.9
18.328,-120.83
18.343,-96.21
18.359,-72.94
18.375,-50.7
18.390,-28.35
18.406,-5.44
18.421,17.17
18.437,39.77
18.453,62.04
18.468,83.18
18.484,101.91
18.500,117.05
18.515,127.22
18.531,132.37
18.546,133.64
18.562,132.32
18.578,132.89
18.593,139.25
18.609,153.9
18.625,177.76
18.640,210.83
18.656,251.5
18.671,298.92
18.687,351.83
18.703,405.62
18.718,455.48
18.734,492.11
18.750,504.06
18.765,482.26
18.781,425.03
18.796,338.62
18.812,237.87
18.828,140.32
18.843,37.96
18.859,-67.49
18.875,-167.24
18.890,-247.8
18.906,-298.97
18.921,-313.03
18.937,-303.31
18.953,-292.51
18.968,-295.6
18.984,-319.8
19.000,-358.53
19.015,-398.43
19.031,-426.34
19.046,-434.38
19.062,-422.19
19.078,-396.54
19.093,-364.14
19.109,-329.48
19.125,-295.07
19.140,-258.83
19.156,-219.37
19.171,-178.09
19.187,-137.49
19.203,-99.85
19.218,-67.88
19.234,-41.57
19.250,-20.21
19.265,-2.72
19.281,10.81
19.296,19.02
19.312,19.5
19.328,10.45
19.343,-8.5
19.359,-36.67
19.375,-70.97
19.390,-107.73
19.406,-144.0
19.421,-177.05
19.437,-204.89
19.453,-226.54
19.468,-241.75
19.484,-250.45
19.500,-253.33
19.515,-250.52
19.531,-242.83
19.546,-232.17
19.562,-221.22
19.578,-213.43
19.593,-212.6
19.609,-221.71
19.625,-239.58
19.640,-263.83
19.656,-288.9
19.671,-308.35
19.687,-317.67
19.703,-316.04
19.718,-306.67
19.734,-294.73
19.750,-284.66
19.765,-277.83
19.781,-272.77
19.796,-266.0
19.812,-254.64
19.828,-238.15
19.843,-218.37
19.859,-198.41
19.875,-180.74
19.890,-166.62
19.906,-155.91
19.921,-148.24
19.937,-142.91
19.953,-139.16
19.968,-136.4
19.984,-133.62
20.000,-129.41
20.015,-121.92
20.031,-109.61
20.046,-91.73
20.062,-69.01
20.078,-43.26
20.093,-16.96
20.109,7.43
20.125,28.36
20.140,45.49
20.156,59.8
20.171,72.91
20.187,86.48
20.203,101.37
20.218,117.52
20.234,133.93
20.250,149.03
20.265,161.37
20.281,169.86
20.296,174.34
20.312,175.45
20.328,174.43
20.343,172.72
20.359,171.73
20.375,172.69
20.390,176.27
20.406,182.96
20.421,192.42
20.437,203.55
20.453,214.57
20.468,223.15
20.484,226.93
20.500,223.84
20.515,212.48
20.531,192.39
20.546,164.69
20.562,131.59
20.578,96.22
20.593,62.14
20.609,32.74
20.625,10.85
20.640,-1.84
20.656,-5.01
20.671,0.31
20.687,13.18
20.703,31.85
20.718,54.09
20.734,77.47
20.750,99.86
20.765,119.92
20.781,136.93
20.796,150.66
20.812,161.53
20.828,172.99
20.843,188.31
20.859,209.73
20.875,237.95
20.890,272.29
20.906,310.85
20.921,350.65
20.937,387.58
20.953,417.1
20.968,439.83
20.984,455.93
21.000,464.68
21.015,465.39
21.031,459.7
21.046,452.87
21.062,452.81
21.078,467.36
21.093,501.23
21.109,561.12
21.125,644.34
21.140,739.42
21.156,830.39
21.171,903.83
21.187,953.11
21.203,977.4
21.218,978.38
21.234,957.09
21.250,922.77
21.265,878.91
21.281,823.83
21.296,753.38
21.312,665.7
21.328,563.76
21.343,453.36
21.359,340.67
21.375,176.8
21.390,-47.8
21.406,-306.85
21.421,-549.95
21.437,-734.72
21.453,-845.8
21.468,-889.99
21.484,-884.42
21.500,-847.76
21.515,-796.75
21.531,-730.01
21.546,-648.55
21.562,-556.87
21.578,-464.21
21.593,-380.26
21.609,-312.07
21.625,-263.65
21.640,-236.56
21.656,-243.77
21.671,-276.99
21.687,-324.91
21.703,-377.71
21.718,-430.13
21.734,-478.93
21.750,-519.3
21.765,-550.76
21.781,-571.5
21.796,-581.14
21.812,-574.75
21.828,-552.24
21.843,-516.86
21.859,-473.72
21.875,-426.6
21.890,-376.28
21.906,-314.08
21.921,-228.88
21.937,-123.73
21.953,-10.37
21.968,92.49
21.984,170.83
22.000,224.15
22.015,260.77
22.031,288.75
22.046,312.93
22.062,334.29
22.078,346.81
22.093,348.74
22.109,340.7
22.125,325.87
22.140,308.42
22.156,291.14
22.171,275.11
22.187,259.84
22.203,243.93
22.218,225.48
22.234,205.0
22.250,184.51
22.265,166.5
22.281,152.35
22.296,141.29
22.312,130.78
22.328,117.89
22.343,100.64
22.359,78.38
22.375,53.14
22.390,29.05
22.406,10.8
22.421,1.98
22.437,4.33
22.453,17.46
22.468,39.27
22.484,67.16
22.500,98.05
22.515,129.45
22.531,159.49
22.546,186.76
22.562,209.81
22.578,227.24
22.593,237.8
22.609,240.97
22.625,237.29
22.640,228.02
22.656,215.13
22.671,200.67
22.687,186.28
22.703,172.45
22.718,158.72
22.734,143.66
22.750,125.59
22.765,103.18
22.781,75.57
22.796,42.51
22.812,4.15
22.828,-39.09
22.843,-86.69
22.859,-137.81
22.875,-191.23
22.890,-245.18
22.906,-297.25
22.921,-344.98
22.937,-386.34
22.953,-420.42
22.968,-447.72
22.984,-469.95
23.000,-489.36
23.015,-507.9
23.031,-526.38
23.046,-544.12
23.062,-559.69
23.078,-571.4
23.093,-578.42
23.109,-581.17
23.125,-581.08
23.140,-580.0
23.156,-579.77
23.171,-581.88
23.187,-587.43
23.203,-596.75
23.218,-608.34
23.234,-618.34
23.250,-620.59
23.265,-607.84
23.281,-574.21
23.296,-517.8
23.312,-441.37
23.328,-351.71
23.343,-257.34
23.359,-165.34
23.375,-79.67
23.390,-1.18
23.406,70.64
23.421,135.78
23.437,192.81
23.453,239.56
23.468,274.75
23.484,299.34
23.500,317.1
23.515,333.02
23.531,351.09
23.546,371.56
23.562,390.56
23.578,402.24
23.593,402.1
23.609,389.35
23.625,367.15
23.640,340.77
23.656,314.54
23.671,289.88
23.687,264.06
23.703,232.44
23.718,191.12
23.734,138.78
23.750,77.04
23.765,9.46
23.781,-59.95
23.796,-127.82
23.812,-191.73
23.828,-252.66
23.843,-312.55
23.859,-372.27
23.875,-429.79
23.890,-480.33
23.906,-517.94
23.921,-538.19
23.937,-539.93
23.953,-525.49
23.968,-503.52
23.984,-481.85
24.000,-463.7
24.015,-446.43
24.031,-424.58
24.046,-393.83
24.062,-353.1
24.078,-303.29
24.093,-245.61
24.109,-187.57
24.125,-135.0
24.140,-89.84
24.156,-49.63
24.171,-10.83
24.187,27.75
24.203,64.05
24.218,94.77
24.234,116.66
24.250,118.28
24.265,91.41
24.281,34.61
24.296,-46.04
24.312,-141.6
24.328,-246.28
24.343,-357.64
24.359,-472.91
24.375,-536.9
24.390,-506.98
24.406,-370.33
24.421,-156.11
24.437,86.62
24.453,317.63
24.468,514.17
24.484,668.63
24.500,780.99
24.515,867.14
24.531,928.37
24.546,961.42
24.562,964.26
24.578,940.45
24.593,898.42
24.609,845.65
24.625,781.16
24.640,707.66
24.656,629.42
24.671,542.3
24.687,442.62
24.703,331.02
24.718,213.4
24.734,99.61
24.750,-3.35
24.765,-89.87
24.781,-155.12
24.796,-196.06
24.812,-217.73
24.828,-227.55
24.843,-231.6
24.859,-233.02
24.875,-232.2
24.890,-232.24
24.906,-235.42
24.921,-241.72
24.937,-250.22
24.953,-263.15
24.968,-283.11
24.984,-311.85
25.000,-349.42
25.015,-371.38
25.031,-363.4
25.046,-325.47
25.062,-268.58
25.078,-204.39
25.093,-138.91
25.109,-72.35
25.125,-4.63
25.140,60.57
25.156,116.36
25.171,152.48
25.187,162.13
25.203,147.01
25.218,114.52
25.234,73.39
25.250,29.97
25.265,-12.17
25.281,-54.12
25.296,-94.64
25.312,-132.17
25.328,-163.61
25.343,-184.06
25.359,-189.09
25.375,-176.45
25.390,-146.85
25.406,-103.36
25.421,-45.93
25.437,17.97
25.453,80.05
25.468,134.23
25.484,177.37
25.500,208.64
25.515,228.56
25.531,237.95
25.546,237.78
25.562,230.04
25.578,216.77
25.593,200.99
25.609,185.4
25.625,171.95
25.640,161.49
25.656,154.02
25.671,148.4
25.687,142.73
25.703,138.76
25.718,133.53
25.734,126.33
25.750,117.34
25.765,107.02
25.781,95.5
25.796,82.67
25.812,67.91
25.828,50.83
25.843,31.56
25.859,9.86
25.875,-13.04
25.890,-35.92
25.906,-57.96
25.921,-78.96
25.937,-98.97
25.953,-118.23
25.968,-136.8
25.984,-153.67
26.000,-168.35
26.015,-179.52
26.031,-185.91
26.046,-187.21
26.062,-183.87
26.078,-176.84
26.093,-166.42
26.109,-155.62
26.125,-144.12
26.140,-130.49
26.156,-112.15
26.171,-86.35
26.187,-51.12
26.203,-6.11
26.218,47.75
26.234,108.44
26.250,173.63
26.265,241.94
26.281,311.96
26.296,382.8
26.312,453.68
26.328,524.36
26.343,594.49
26.359,663.07
26.375,726.96
26.390,780.43
26.406,816.0
26.421,826.04
26.437,805.87
26.453,756.2
26.468,683.11
26.484,596.17
26.500,505.45
26.515,418.06
26.531,337.7
26.546,265.33
26.562,200.96
26.578,144.92
26.593,98.3
26.609,61.75
26.625,34.61
26.640,15.02
26.656,-0.01
26.671,-13.1
26.687,-25.45
26.703,-36.94
26.718,-46.66
26.734,-53.64
26.750,-57.93
26.765,-60.63
26.781,-63.39
26.796,-67.8
26.812,-74.56
26.828,-82.89
26.843,-90.98
26.859,-96.85
26.875,-99.55
26.890,-99.32
26.906,-97.68
26.921,-96.71
26.937,-98.76
26.953,-105.19
26.968,-116.17
26.984,-130.65
27.000,-146.88
27.015,-163.68
27.031,-180.44
27.046,-197.22
27.062,-214.31
27.078,-232.63
27.093,-252.9
27.109,-275.6
27.125,-300.22
27.140,-324.88
27.156,-347.08
27.171,-363.15
27.187,-369.12
27.203,-362.2
27.218,-342.43
27.234,-312.72
27.250,-277.71
27.265,-241.98
27.281,-208.67
27.296,-181.42
27.312,-161.22
27.328,-146.55
27.343,-134.33
27.359,-122.12
27.375,-108.95
27.390,-95.02
27.406,-81.06
27.421,-67.75
27.437,-60.59
27.453,-62.47
27.468,-72.53
27.484,-87.73
27.500,-105.96
27.515,-127.6
27.531,-154.68
27.546,-189.37
27.562,-232.85
27.578,-293.08
27.593,-373.11
27.609,-468.64
27.625,-569.83
27.640,-666.05
27.656,-748.47
27.671,-810.23
27.687,-846.11
27.703,-852.97
27.718,-840.71
27.734,-817.67
27.750,-786.93
27.765,-747.51
27.781,-699.71
27.796,-647.75
27.812,-598.63
27.828,-559.91
27.843,-472.86
27.859,-318.19
27.875,-119.93
27.890,72.69
27.906,222.74
27.921,320.27
27.937,373.37
27.953,396.51
27.968,404.71
27.984,410.84
28.000,414.2
28.015,413.29
28.031,409.1
28.046,403.81
28.062,397.27
28.078,387.06
28.093,371.6
28.109,352.68
28.125,332.8
28.140,308.44
28.156,277.21
28.171,240.61
28.187,203.5
28.203,170.44
28.218,143.69
28.234,123.6
28.250,109.23
28.265,98.73
28.281,85.21
28.296,64.26
28.312,36.47
28.328,6.68
28.343,-19.48
28.359,-37.64
28.375,-45.41
28.390,-41.65
28.406,-27.83
28.421,-8.68
28.437,11.46
28.453,30.61
28.468,48.88
28.484,66.85
28.500,84.84
28.515,102.24
28.531,117.87
28.546,130.13
28.562,136.86
28.578,136.82
28.593,130.52
28.609,120.08
28.625,108.38
28.640,98.19
28.656,91.44
28.671,88.9
28.687,90.04
28.703,93.56
28.718,97.66
28.734,100.73
28.750,101.77
28.765,100.6
28.781,97.69
28.796,93.53
28.812,88.45
28.828,82.52
28.843,75.81
28.859,68.51
28.875,61.17
28.890,54.75
28.906,50.51
28.921,50.01
28.937,54.52
28.953,64.94
28.968,81.46
28.984,103.13
29.000,127.5
29.015,150.92
29.031,169.39
29.046,180.01
29.062,182.25
29.078,178.1
29.093,171.66
29.109,167.28
29.125,168.13
29.140,175.18
29.156,187.43
29.171,202.79
29.187,219.02
29.203,234.28
29.218,246.92
29.234,255.61
29.250,258.87
29.265,255.4
29.281,244.4
29.296,225.67
29.312,199.56
29.328,166.96
29.343,129.39
29.359,88.97
29.375,48.88
29.390,12.73
29.406,-16.28
29.421,-36.28
29.437,-47.25
29.453,-50.89
29.468,-49.89
29.484,-46.77
29.500,-43.67
29.515,-42.09
29.531,-43.2
29.546,-48.04
29.562,-57.29
29.578,-70.72
29.593,-86.81
29.609,-102.93
29.625,-115.96
29.640,-123.48
29.656,-124.54
29.671,-119.88
29.687,-111.49
29.703,-101.7
29.718,-92.42
29.734,-84.59
29.750,-78.23
29.765,-72.78
29.781,-67.72
29.796,-62.83
29.812,-58.3
29.828,-54.62
29.843,-52.1
29.859,-50.59
29.875,-49.45
29.890,-47.46
29.906,-43.26
29.921,-35.83
29.937,-24.88
29.953,-10.93
29.968,4.55
29.984,19.67
30.000,32.73
30.015,42.51
30.031,48.76
30.046,52.26
30.062,54.21
30.078,55.83
30.093,57.9
30.109,60.37
30.125,62.32
30.140,62.56
30.156,59.89
30.171,53.58
30.187,43.86
30.203,31.43
30.218,17.37
30.234,3.1
30.250,-10.18
30.265,-21.49
30.281,-30.44
30.296,-37.28
30.312,-42.65
30.328,-47.27
30.343,-51.61
30.359,-55.29
30.375,-57.19
30.390,-55.98
30.406,-50.78
30.421,-41.85
30.437,-30.88
30.453,-20.19
30.468,-11.99
30.484,-7.63
30.500,-6.91
30.515,-8.56
30.531,-11.27
30.546,-14.15
30.562,-17.21
30.578,-21.23
30.593,-26.94
30.609,-34.15
30.625,-41.71
30.640,-47.64
30.656,-49.97
30.671,-47.7
30.687,-40.83
30.703,-30.37
30.718,-18.17
30.734,-6.36
30.750,2.82
30.765,7.4
30.781,6.26
30.796,-0.08
30.812,-8.88
30.828,-15.5
30.843,-15.09
30.859,-5.03
30.875,13.22
30.890,33.91
30.906,48.87
30.921,50.8
30.937,36.44
30.953,8.07
30.968,-27.19
30.984,-60.3
31.000,-83.26
31.015,-91.09
31.031,-82.55
31.046,-59.58
31.062,-26.23
31.078,12.33
31.093,50.56
31.109,83.26
31.125,106.27
31.140,117.31
31.156,116.77
31.171,107.43
31.187,93.4
31.203,78.58
31.218,65.19
31.234,53.35
31.250,41.67
31.265,28.68
31.281,14.04
31.296,-0.86
31.312,-13.72
31.328,-22.4
31.343,-26.08
31.359,-25.4
31.375,-22.03
31.390,-17.64
31.406,-13.27
31.421,-9.37
31.437,-6.07
31.453,-3.7
31.468,-2.64
31.484,-3.07
31.500,-4.78
31.515,-7.01
31.531,-8.72
31.546,-9.07
31.562,-7.65
31.578,-4.82
31.593,-1.56
31.609,1.04
31.625,2.17
31.640,1.62
31.656,-0.21
31.671,-2.4
31.687,-4.07
31.703,-4.61
31.718,-3.95
31.734,-2.6
31.750,-1.34
31.765,-0.85
31.781,-1.57
31.796,-3.34
31.812,-5.6
31.828,-7.64
31.843,-8.91
31.859,-9.21
31.875,-8.8
31.890,-8.17
31.906,-7.82
31.921,-8.21
31.937,-9.42
31.953,-11.26
31.968,-13.38
31.984,-15.27
32.000,-16.56
32.015,-17.01
32.031,-16.49
32.046,-15.13
32.062,-13.12
32.078,-10.7
32.093,-8.12
32.109,-5.57
32.125,-3.18
32.140,-1.12
32.156,0.46
32.171,1.53
32.187,2.1
32.203,2.3
32.218,2.32
32.234,2.35
32.250,2.49
32.265,2.78
32.281,3.14
32.296,3.51
32.312,3.82
32.328,4.09
32.343,4.27
32.359,4.37
32.375,4.32
32.390,4.01
32.406,3.32
32.421,2.17
32.437,0.65
32.453,-1.08
32.468,-2.9
32.484,-4.67
32.500,-6.34
32.515,-7.88
32.531,-9.19
32.546,-10.24
32.562,-10.97
32.578,-11.45
32.593,-11.78
32.609,-12.16
32.625,-12.69
32.640,-13.43
32.656,-14.31
32.671,-15.12
32.687,-15.6
32.703,-15.49
32.718,-14.6
32.734,-12.91
32.750,-10.5
32.765,-7.65
32.781,-4.66
32.796,-1.83
32.812,0.54
32.828,2.39
32.843,3.69
32.859,4.46
32.875,4.67
32.890,4.32
32.906,3.41
32.921,2.03
32.937,0.37
32.953,-1.35
32.968,-2.93
32.984,-4.25
33.000,-5.25
33.015,-5.97
33.031,-6.46
33.046,-6.68
33.062,-6.64
33.078,-6.28
33.093,-5.68
33.109,-5.03
33.125,-4.6
33.140,-4.62
33.156,-5.23
33.171,-6.34
33.187,-7.7
33.203,-9.03
33.218,-10.05
33.234,-10.73
33.250,-11.14
33.265,-11.47
33.281,-11.89
33.296,-12.41
33.312,-12.91
33.328,-13.22
33.343,-13.23
33.359,-12.89
33.375,-12.23
33.390,-11.32
33.406,-10.23
33.421,-9.04
33.437,-7.86
33.453,-6.73
33.468,-5.77
33.484,-5.06
33.500,-4.66
33.515,-4.59
33.531,-4.77
33.546,-5.14
33.562,-5.6
33.578,-6.06
33.593,-6.36
33.609,-6.38
33.625,-5.91
33.640,-4.77
33.656,-2.9
33.671,-0.33
33.687,2.79
33.703,6.26
33.718,9.91
33.734,13.65
33.750,17.48
33.765,21.34
33.781,25.07
33.796,28.4
33.812,31.15
33.828,33.19
33.843,34.65
33.859,35.71
33.875,36.55
33.890,37.18
33.906,37.38
33.921,36.8
33.937,35.12
33.953,32.37
33.968,28.86
33.984,25.21
34.000,22.06
34.015,19.88
34.031,18.83
34.046,18.72
34.062,19.28
34.078,20.28
34.093,21.65
34.109,23.42
34.125,25.7
34.140,28.51
34.156,31.75
34.171,35.22
34.187,38.67
34.203,41.84
34.218,44.43
34.234,46.03
34.250,46.06
34.265,44.03
34.281,39.84
34.296,33.84
34.312,26.75
34.328,19.3
34.343,11.58
34.359,3.01
34.375,-7.65
34.390,-21.61
34.406,-39.45
34.421,-60.4
34.437,-82.55
34.453,-103.24
34.468,-119.82
34.484,-130.51
34.500,-134.75
34.515,-133.28
34.531,-127.85
34.546,-120.98
34.562,-115.35
34.578,-113.39
34.593,-116.81
34.609,-126.09
34.625,-140.29
34.640,-157.14
34.656,-173.46
34.671,-185.82
34.687,-191.27
34.703,-187.92
34.718,-175.18
34.734,-153.67
34.750,-124.92
34.765,-91.25
34.781,-55.49
34.796,-20.65
34.812,10.41
34.828,35.68
34.843,54.1
34.859,65.72
34.875,71.45
34.890,72.69
34.906,70.82
34.921,66.98
34.937,62.27
34.953,57.45
34.968,53.14
34.984,49.78
35.000,47.68
35.015,47.29
35.031,49.19
35.046,53.76
35.062,60.71
35.078,68.72
35.093,75.27
35.109,77.35
35.125,72.71
35.140,60.9
35.156,43.7
35.171,24.69
35.187,8.07
35.203,-2.62
35.218,-5.34
35.234,0.26
35.250,13.07
35.265,31.3
35.281,52.88
35.296,75.92
35.312,98.58
35.328,119.38
35.343,137.08
35.359,150.68
35.375,159.47
35.390,163.07
35.406,161.27
35.421,153.73
35.437,140.27
35.453,120.86
35.468,96.13
35.484,67.57
35.500,37.15
35.515,7.28
35.531,-19.55
35.546,-41.18
35.562,-56.21
35.578,-64.23
35.593,-65.69
35.609,-61.7
35.625,-53.65
35.640,-43.39
35.656,-32.42
35.671,-21.44
35.687,-10.06
35.703,2.95
35.718,18.94
35.734,38.96
35.750,63.17
35.765,90.84
35.781,119.38
35.796,146.13
35.812,169.55
35.828,189.91
35.843,208.58
35.859,227.07
35.875,246.0
35.890,264.75
35.906,281.56
35.921,291.43
35.937,289.49
35.953,273.54
35.968,245.31
35.984,209.36
36.000,170.86
36.015,133.68
36.031,100.21
36.046,71.58
36.062,44.47
36.078,15.69
36.093,-15.25
36.109,-45.53
36.125,-71.36
36.140,-90.61
36.156,-104.13
36.171,-114.36
36.187,-124.53
36.203,-143.14
36.218,-178.25
36.234,-233.83
36.250,-307.64
36.265,-393.67
36.281,-484.8
36.296,-575.2
36.312,-659.15
36.328,-704.98
36.343,-686.69
36.359,-596.94
36.375,-454.1
36.390,-288.19
36.406,-123.44
36.421,27.47
36.437,159.14
36.453,269.17
36.468,364.13
36.484,442.69
36.500,501.09
36.515,537.63
36.531,554.82
36.546,558.37
36.562,553.85
36.578,539.62
36.593,517.01
36.609,488.35
36.625,452.59
36.640,409.74
36.656,362.29
36.671,315.66
36.687,275.86
36.703,246.76
36.718,228.78
36.734,220.29
36.750,217.95
36.765,214.11
36.781,201.39
36.796,174.48
36.812,131.94
36.828,75.74
36.843,10.47
36.859,-57.94
36.875,-122.44
36.890,-176.07
36.906,-215.26
36.921,-238.89
36.937,-248.52
36.953,-247.21
36.968,-239.61
36.984,-230.8
37.000,-225.56
37.015,-227.18
37.031,-237.8
37.046,-259.07
37.062,-292.55
37.078,-339.01
37.093,-396.82
37.109,-462.91
37.125,-533.47
37.140,-604.71
37.156,-673.38
37.171,-735.88
37.187,-788.44
37.203,-826.75
37.218,-845.1
37.234,-837.01
37.250,-798.85
37.265,-731.76
37.281,-642.85
37.296,-542.46
37.312,-439.46
37.328,-339.68
37.343,-247.18
37.359,-163.71
37.375,-91.35
37.390,-34.8
37.406,0.62
37.421,11.49
37.437,0.43
37.453,-22.6
37.468,-43.78
37.484,-53.81
37.500,-47.63
37.515,-25.79
37.531,6.39
37.546,41.48
37.562,72.38
37.578,93.7
37.593,101.81
37.609,114.07
37.625,135.2
37.640,161.35
37.656,185.19
37.671,204.84
37.687,223.95
37.703,247.18
37.718,275.06
37.734,303.86
37.750,327.12
37.765,336.92
37.781,330.98
37.796,312.0
37.812,286.3
37.828,259.05
37.843,232.71
37.859,207.49
37.875,183.87
37.890,161.61
37.906,138.54
37.921,113.27
37.937,85.03
37.953,53.7
37.968,19.39
37.984,-17.18
38.000,-53.87
38.015,-88.27
38.031,-115.28
38.046,-131.55
38.062,-134.62
38.078,-122.78
38.093,-95.62
38.109,-54.75
38.125,-3.18
38.140,55.18
38.156,117.24
38.171,178.86
38.187,234.77
38.203,280.46
38.218,312.63
38.234,329.3
38.250,329.49
38.265,313.52
38.281,275.94
38.296,221.94
38.312,158.32
38.328,90.87
38.343,24.08
38.359,-38.8
38.375,-95.63
38.390,-145.32
38.406,-187.65
38.421,-222.97
38.437,-249.72
38.453,-267.53
38.468,-276.74
38.484,-278.25
38.500,-273.32
38.515,-263.48
38.531,-250.7
38.546,-236.41
38.562,-221.82
38.578,-206.88
38.593,-192.23
38.609,-178.5
38.625,-166.03
38.640,-154.56
38.656,-143.13
38.671,-132.66
38.687,-123.39
38.703,-115.24
38.718,-107.39
38.734,-99.7
38.750,-92.17
38.765,-84.92
38.781,-78.02
38.796,-71.53
38.812,-65.51
38.828,-59.78
38.843,-54.08
38.859,-47.95
38.875,-41.41
38.890,-34.55
38.906,-27.57
38.921,-20.63
38.937,-13.83
38.953,-7.37
38.968,-1.28
38.984,4.51
39.000,10.03
39.015,15.03
39.031,19.31
39.046,22.57
39.062,24.63
39.078,25.45
39.093,25.07
39.109,23.75
39.125,21.92
39.140,19.99
39.156,18.17
39.171,16.71
39.187,15.58
39.203,14.63
39.218,13.67
39.234,12.36
39.250,10.45
39.265,7.79
39.281,4.36
39.296,0.16
39.312,-4.52
39.328,-9.38
39.343,-14.1
39.359,-18.22
39.375,-21.47
39.390,-23.6
39.406,-24.52
39.421,-24.3
39.437,-23.1
39.453,-21.08
39.468,-18.5
39.484,-15.49
39.500,-12.14
39.515,-8.53
39.531,-4.71
39.546,-0.77
39.562,3.16
39.578,6.87
39.593,10.18
39.609,12.77
39.625,14.43
39.640,14.91
39.656,13.86
39.671,11.02
39.687,6.07
39.703,-1.21
39.718,-11.01
39.734,-23.15
39.750,-37.24
39.765,-52.57
39.781,-68.29
39.796,-83.49
39.812,-97.43
39.828,-109.63
39.843,-119.92
39.859,-128.36
39.875,-135.03
39.890,-139.69
39.906,-141.93
39.921,-141.18
39.937,-136.92
39.953,-128.81
39.968,-116.98
39.984,-101.82
40.000,-83.98
40.015,-63.95
40.031,-41.73
40.046,-16.99
40.062,10.81
40.078,41.93
40.093,76.23
40.109,112.65
40.125,149.85
40.140,186.32
40.156,221.05
40.171,253.94
40.187,285.47
40.203,316.53
40.218,347.91
40.234,380.05
40.250,413.0
40.265,446.5
40.281,479.52
40.296,509.73
40.312,533.66
40.328,546.94
40.343,545.85
40.359,528.86
40.375,497.46
40.390,456.11
40.406,410.68
40.421,366.41
40.437,326.25
40.453,291.3
40.468,261.57
40.484,237.63
40.500,221.07
40.515,213.76
40.531,216.53
40.546,227.9
40.562,243.91
40.578,258.72
40.593,266.38
40.609,262.34
40.625,244.65
40.640,214.07
40.656,173.44
40.671,126.73
40.687,77.74
40.703,29.15
40.718,-17.82
40.734,-62.77
40.750,-105.43
40.765,-144.57
40.781,-177.67
40.796,-201.83
40.812,-214.33
40.828,-213.51
40.843,-199.13
40.859,-171.88
40.875,-132.79
40.890,-83.24
40.906,-25.85
40.921,34.62
40.937,90.52
40.953,132.62
40.968,152.89
40.984,147.44
41.000,118.44
41.015,73.52
41.031,22.66
41.046,-25.59
41.062,-66.26
41.078,-97.93
41.093,-121.04
41.109,-135.16
41.125,-138.18
41.140,-126.97
41.156,-99.8
41.171,-58.69
41.187,-10.23
41.203,35.9
41.218,70.05
41.234,85.86
41.250,82.66
41.265,65.35
41.281,42.32
41.296,21.82
41.312,8.73
41.328,3.1
41.343,1.42
41.359,-0.64
41.375,-5.43
41.390,-11.83
41.406,-16.29
41.421,-14.81
41.437,-5.34
41.453,11.29
41.468,32.05
41.484,53.36
41.500,72.88
41.515,89.41
41.531,101.83
41.546,107.76
41.562,103.98
41.578,87.84
41.593,59.77
41.609,24.47
41.625,-10.63
41.640,-38.75
41.656,-57.54
41.671,-69.82
41.687,-80.81
41.703,-94.15
41.718,-109.27
41.734,-121.25
41.750,-123.55
41.765,-111.59
41.781,-84.91
41.796,-47.31
41.812,-5.39
41.828,33.12
41.843,60.51
41.859,70.65
41.875,60.3
41.890,30.57
41.906,-13.42
41.921,-64.29
41.937,-115.22
41.953,-161.46
41.968,-200.16
41.984,-229.47
42.000,-247.52
42.015,-253.15
42.031,-247.63
42.046,-235.34
42.062,-221.31
42.078,-208.91
42.093,-198.2
42.109,-186.87
42.125,-173.26
42.140,-158.85
42.156,-148.28
42.171,-147.56
42.187,-160.62
42.203,-186.81
42.218,-221.53
42.234,-258.43
42.250,-291.24
42.265,-314.05
42.281,-321.05
42.296,-306.51
42.312,-266.48
42.328,-201.15
42.343,-116.42
42.359,-22.77
42.375,68.15
42.390,147.91
42.406,213.66
42.421,267.94
42.437,315.82
42.453,361.63
42.468,406.67
42.484,449.25
42.500,486.32
42.515,515.38
42.531,536.17
42.546,550.15
42.562,559.51
42.578,565.58
42.593,567.41
42.609,561.16
42.625,541.45
42.640,503.37
42.656,444.98
42.671,368.56
42.687,280.4
42.703,188.92
42.718,102.38
42.734,26.74
42.750,-35.21
42.765,-83.17
42.781,-118.35
42.796,-142.22
42.812,-156.41
42.828,-162.98
42.843,-165.32
42.859,-168.23
42.875,-176.9
42.890,-194.83
42.906,-221.75
42.921,-252.93
42.937,-280.87
42.953,-298.18
42.968,-301.17
42.984,-291.2
43.000,-273.6
43.015,-254.8
43.031,-239.25
43.046,-227.6
43.062,-217.62
43.078,-206.39
43.093,-192.23
43.109,-175.68
43.125,-158.66
43.140,-143.14
43.156,-129.98
43.171,-119.15
43.187,-109.94
43.203,-101.56
43.218,-93.49
43.234,-85.56
43.250,-78.0
43.265,-71.1
43.281,-65.13
43.296,-59.94
43.312,-55.0
43.328,-49.75
43.343,-43.67
43.359,-36.85
43.375,-29.76
43.390,-23.25
43.406,-17.97
43.421,-14.08
43.437,-11.26
43.453,-8.78
43.468,-6.08
43.484,-2.98
43.500,0.11
43.515,2.65
43.531,4.0
43.546,4.12
43.562,3.43
43.578,2.57
43.593,2.17
43.609,2.33
43.625,2.99
43.640,3.76
43.656,4.42
43.671,4.95
43.687,5.5
43.703,6.23
43.718,7.17
43.734,8.31
43.750,9.43
43.765,10.47
43.781,11.32
43.796,12.01
43.812,12.54
43.828,12.8
43.843,12.71
43.859,12.13
43.875,11.13
43.890,9.66
43.906,7.88
43.921,5.86
43.937,3.84
43.953,2.13
43.968,1.04
43.984,0.81
44.000,1.45
44.015,2.74
44.031,4.07
44.046,5.01
44.062,5.15
44.078,4.49
44.093,3.4
44.109,2.28
44.125,1.6
44.140,1.58
44.156,2.21
44.171,3.3
44.187,4.68
44.203,6.05
44.218,7.22
44.234,8.14
44.250,8.76
44.265,9.24
44.281,9.6
44.296,9.89
44.312,10.02
44.328,9.93
44.343,9.48
44.359,8.65
44.375,7.57
44.390,6.37
44.406,5.33
44.421,4.54
44.437,4.02
44.453,3.7
44.468,3.54
44.484,3.47
44.500,3.54
44.515,3.79
44.531,4.14
44.546,4.43
44.562,4.41
44.578,3.83
44.593,2.61
44.609,0.83
44.625,-1.27
44.640,-3.42
44.656,-5.28
44.671,-6.68
44.687,-7.43
44.703,-7.41
44.718,-6.59
44.734,-4.89
44.750,-2.47
44.765,0.31
44.781,2.81
44.796,4.35
44.812,4.39
44.828,2.84
44.859,-3.55
44.875,-7.1
44.890,-10.22
44.906,-12.73
44.921,-14.65
44.937,-16.01
44.953,-16.72
44.968,-16.5
44.984,-15.1
45.000,-12.39
45.015,-8.54
45.031,-4.07
45.046,0.34
45.062,4.18
45.078,7.15
45.093,9.32
45.109,11.01
45.125,12.43
45.140,13.52
45.156,13.92
45.171,13.02
45.187,10.38
45.203,6.2
45.218,1.03
45.234,-4.11
45.250,-8.38
45.265,-11.38
45.281,-13.24
45.296,-14.34
45.312,-15.07
45.328,-15.55
45.343,-15.4
45.359,-14.31
45.375,-12.02
45.390,-8.68
45.406,-4.93
45.421,-1.53
45.437,0.89
45.453,2.02
45.468,2.01
45.484,1.12
45.500,-0.4
45.515,-2.39
45.531,-4.78
45.546,-7.51
45.562,-10.18
45.578,-12.16
45.593,-12.88
45.609,-11.95
45.625,-9.57
45.640,-6.51
45.656,-3.56
45.671,-1.39
45.687,-0.24
45.703,0.26
45.718,0.64
45.734,1.28
45.750,2.31
45.765,3.45
45.781,4.16
45.796,4.08
45.812,3.1
45.828,1.33
45.843,-0.82
45.859,-2.89
45.875,-4.43
45.890,-5.05
45.906,-4.59
45.921,-3.13
45.937,-0.88
45.953,1.86
45.968,4.81
45.984,7.71
46.000,10.38
46.015,12.55
46.031,14.06
46.046,14.59
46.062,14.02
46.078,12.34
46.093,9.78
46.109,6.7
46.125,3.41
46.140,0.12
46.156,-3.09
46.171,-6.18
46.187,-9.09
46.203,-11.58
46.218,-13.33
46.234,-14.14
46.250,-13.95
46.265,-13.08
46.281,-12.11
46.296,-11.4
46.312,-11.19
46.328,-11.39
46.343,-11.74
46.359,-11.84
46.375,-11.49
46.390,-10.43
46.406,-8.66
46.421,-6.27
46.437,-3.51
46.453,-0.68
46.468,1.82
46.484,3.68
46.500,4.86
46.515,5.47
46.531,5.92
46.546,6.58
46.562,7.77
46.578,9.59
46.593,11.89
46.609,14.41
46.625,16.73
46.640,18.48
46.656,19.38
46.671,19.23
46.687,18.09
46.703,16.22
46.718,14.01
46.734,11.91
46.750,10.36
46.765,9.53
46.781,9.2
46.796,9.03
46.812,8.64
46.828,7.82
46.843,6.64
46.859,5.38
46.875,4.22
46.890,3.18
46.906,2.05
46.921,0.54
46.937,-1.47
46.953,-3.72
46.968,-5.74
46.984,-7.01
47.000,-7.24
47.015,-6.53
47.031,-5.49
47.046,-4.78
47.062,-4.81
47.078,-5.59
47.093,-6.68
47.109,-7.47
47.125,-7.51
47.140,-6.84
47.156,-5.74
47.171,-4.65
47.187,-3.85
47.203,-3.2
47.218,-2.4
47.234,-1.15
47.250,0.59
47.265,2.38
47.281,3.49
47.296,3.42
47.312,2.01
47.328,-0.38
47.343,-3.04
47.359,-5.37
47.375,-6.95
47.390,-7.6
47.406,-7.56
47.421,-7.18
47.437,-6.66
47.453,-6.06
47.468,-5.3
47.484,-4.3
47.500,-3.17
47.515,-2.23
47.531,-1.8
47.546,-2.17
47.562,-3.32
47.578,-4.82
47.593,-6.08
47.609,-6.58
47.625,-6.0
47.640,-4.61
47.656,-2.98
47.671,-1.74
47.687,-1.42
47.703,-2.06
47.718,-3.43
47.734,-5.14
47.750,-6.9
47.765,-8.39
47.781,-9.58
47.796,-10.41
47.812,-10.76
47.828,-10.62
47.843,-9.91
47.859,-8.61
47.875,-6.97
47.890,-5.38
47.906,-4.08
47.921,-3.34
47.937,-3.16
47.953,-3.32
47.968,-3.51
47.984,-3.4
48.000,-2.72
48.015,-1.56
48.031,-0.23
48.046,0.92
48.062,1.61
48.078,1.77
48.093,1.61
48.109,1.31
48.125,0.99
48.140,0.62
48.156,0.06
48.171,-0.79
48.187,-1.95
48.203,-3.29
48.218,-4.63
48.234,-5.75
48.250,-6.67
48.265,-7.51
48.281,-8.43
48.296,-9.56
48.312,-10.78
48.328,-11.89
48.343,-12.7
48.359,-13.09
48.375,-13.04
48.390,-12.72
48.406,-12.34
48.421,-11.97
48.437,-11.66
48.453,-11.3
48.468,-10.79
48.484,-10.1
48.500,-9.28
48.515,-8.38
48.531,-7.56
48.546,-6.92
48.562,-6.35
48.578,-5.79
48.593,-5.0
48.609,-3.85
48.625,-2.29
48.640,-0.5
48.656,1.18
48.671,2.38
48.687,2.83
48.703,2.62
48.718,1.94
48.734,1.17
48.750,0.48
48.765,-0.09
48.781,-0.62
48.796,-1.28
48.812,-2.06
48.828,-2.98
48.843,-3.9
48.859,-4.82
48.875,-5.75
48.890,-6.76
48.906,-7.9
48.921,-9.1
48.937,-10.25
48.953,-11.14
48.968,-11.73
48.984,-11.92
49.000,-11.75
49.015,-11.21
49.031,-10.47
49.046,-9.7
49.062,-9.01
49.078,-8.48
49.093,-7.91
49.109,-7.2
49.125,-6.22
49.140,-5.13
49.156,-4.2
49.171,-3.73
49.187,-3.82
49.203,-4.34
49.218,-5.01
49.234,-5.44
49.250,-5.46
49.265,-5.03
49.281,-4.11
49.296,-2.73
49.312,-0.72
49.328,1.94
49.343,5.03
49.359,8.08
49.375,10.49
49.390,11.87
49.406,12.12
49.421,11.69
49.437,11.1
49.453,10.79
49.468,10.88
49.484,11.15
49.500,11.22
49.515,10.86
49.531,10.11
49.546,9.27
49.562,8.8
49.578,8.99
49.593,9.83
49.609,11.01
49.625,12.07
49.640,12.52
49.656,12.08
49.671,10.75
49.687,8.68
49.703,6.16
49.718,3.41
49.734,0.61
49.750,-2.08
49.765,-4.52
49.781,-6.43
49.796,-7.69
49.812,-8.28
49.828,-8.5
49.843,-8.73
49.859,-9.33
49.875,-10.43
49.890,-11.77
49.906,-13.02
49.921,-13.61
49.937,-13.23
49.953,-11.7
49.968,-9.16
49.984,-5.99
50.000,-2.82
50.015,-0.45
50.031,0.4
50.046,-0.72
50.062,-3.75
50.078,-8.12
50.093,-12.8
50.109,-16.66
50.125,-18.9
50.140,-19.12
50.156,-17.47
50.171,-14.33
50.187,-10.13
50.203,-5.28
50.218,-0.31
50.234,4.2
50.250,7.63
50.265,9.38
50.281,9.37
50.296,7.92
50.312,5.82
50.328,3.91
50.343,2.91
50.359,2.92
50.375,3.74
50.390,5.04
50.406,6.42
50.421,7.8
50.437,9.14
50.453,10.41
50.468,11.4
50.484,11.85
50.500,11.58
50.515,10.61
50.531,9.18
50.546,7.62
50.562,6.29
50.578,5.23
50.593,4.32
50.609,3.24
50.625,1.68
50.640,-0.53
50.656,-3.24
50.671,-6.09
50.687,-8.5
50.703,-9.88
50.718,-9.94
50.734,-8.62
50.750,-6.25
50.765,-3.37
50.781,-0.48
50.796,2.13
50.812,4.37
50.828,6.32
50.843,8.02
50.859,9.44
50.875,10.41
50.890,10.86
50.906,10.74
50.921,10.07
50.937,8.94
50.953,7.48
50.968,5.85
50.984,4.11
51.000,2.45
51.015,0.94
51.031,-0.32
51.046,-1.38
51.062,-2.31
51.078,-3.33
51.093,-4.52
51.109,-5.86
51.125,-7.27
51.140,-8.48
51.156,-9.31
51.171,-9.67
51.187,-9.6
51.203,-9.21
51.218,-8.74
51.234,-8.24
51.250,-7.64
51.265,-6.87
51.281,-5.63
51.296,-3.8
51.312,-1.42
51.328,1.33
51.343,4.09
51.359,6.38
51.375,7.74
51.390,7.82
51.406,6.28
51.421,3.21
51.437,-1.13
51.453,-6.12
51.468,-10.84
51.484,-14.4
51.500,-15.99
51.515,-15.26
51.531,-12.33
51.546,-7.75
51.562,-2.21
51.578,3.48
51.593,8.61
51.609,12.68
51.625,15.31
51.640,16.43
51.656,16.24
51.671,15.24
51.687,13.96
51.703,12.97
51.718,12.53
51.734,12.52
51.750,12.82
51.765,13.15
51.781,13.54
51.796,14.13
51.812,15.16
51.828,16.61
51.843,18.43
51.859,20.29
51.875,21.85
51.890,23.08
51.906,23.97
51.921,24.69
51.937,25.31
51.953,25.61
51.968,25.03
51.984,22.93
52.000,18.66
52.015,11.92
52.031,2.96
52.046,-7.62
52.062,-18.93
52.078,-30.01
52.093,-40.07
52.109,-48.67
52.125,-55.58
52.140,-60.76
52.156,-64.15
52.171,-65.56
52.187,-64.97
52.203,-62.45
52.218,-58.39
52.234,-53.33
52.250,-47.87
52.265,-42.38
52.281,-36.98
52.296,-31.39
52.312,-25.14
52.328,-17.99
52.343,-9.95
52.359,-1.53
52.375,6.5
52.390,13.43
52.406,18.73
52.421,22.26
52.437,24.28
52.453,25.29
52.468,25.68
52.484,25.69
52.500,25.48
52.515,25.02
52.531,24.24
52.546,23.17
52.562,21.82
52.578,20.2
52.593,18.34
52.609,16.24
52.625,13.92
52.640,11.47
52.656,9.06
52.671,6.89
52.687,5.11
52.703,3.84
52.718,3.0
52.734,2.46
52.750,2.0
52.765,1.58
52.781,1.19
52.796,0.94
52.812,1.01
52.828,1.38
52.843,1.89
52.859,2.23
52.875,2.07
52.890,1.24
52.906,-0.18
52.921,-1.79
52.937,-3.17
52.953,-3.84
52.968,-3.65
52.984,-2.71
53.000,-1.41
53.015,-0.1
53.031,0.87
53.046,1.32
53.062,1.31
53.078,0.8
53.093,-0.07
53.109,-1.14
53.125,-2.27
53.140,-3.12
53.156,-3.34
53.171,-2.71
53.187,-1.24
53.203,0.75
53.218,2.75
53.234,4.32
53.250,5.27
53.265,5.69
53.281,5.9
53.296,6.23
53.312,6.76
53.328,7.44
53.343,8.03
53.359,8.25
53.375,8.02
53.390,7.43
53.406,6.58
53.421,5.64
53.437,4.77
53.453,3.95
53.468,3.15
53.484,2.35
53.500,1.48
53.515,0.42
53.531,-0.79
53.546,-2.23
53.562,-3.86
53.578,-5.48
53.593,-7.02
53.609,-8.25
53.625,-9.06
53.640,-9.33
53.656,-9.05
53.671,-8.26
53.687,-7.01
53.703,-5.45
53.718,-3.72
53.734,-2.09
53.750,-0.79
53.765,-0.06
53.781,-0.01
53.796,-0.56
53.812,-1.5
53.828,-2.51
53.843,-3.28
53.859,-3.65
53.875,-3.65
53.890,-3.39
53.906,-3.02
53.921,-2.64
53.937,-2.12
53.953,-1.37
53.968,-0.33
53.984,0.9
54.000,2.11
54.015,3.07
54.031,3.74
54.046,4.23
54.062,4.7
54.078,5.42
54.093,6.43
54.109,7.74
54.125,9.13
54.140,10.3
54.156,10.97
54.171,11.01
54.187,10.44
54.203,9.41
54.218,8.18
54.234,6.8
54.250,5.25
54.265,3.35
54.281,0.98
54.296,-1.77
54.312,-4.6
54.328,-7.04
54.343,-8.69
54.359,-9.36
54.375,-9.18
54.390,-8.29
54.406,-6.8
54.421,-4.77
54.437,-2.1
54.453,1.04
54.468,4.33
54.484,7.35
54.500,9.62
54.515,10.84
54.531,11.1
54.546,10.73
54.562,10.04
54.578,9.37
54.593,8.7
54.609,7.91
54.625,6.93
54.640,5.81
54.656,4.69
54.671,3.8
54.687,3.28
54.703,2.96
54.718,2.71
54.734,2.36
54.750,1.81
54.765,1.25
54.781,0.98
54.796,1.23
54.812,2.02
54.828,3.05
54.843,3.81
54.859,3.92
54.875,3.28
54.890,2.09
54.906,0.73
54.921,-0.53
54.937,-1.68
54.953,-2.94
54.968,-4.54
54.984,-6.53
55.000,-8.57
55.015,-10.19
55.031,-10.92
55.046,-10.5
55.062,-9.05
55.078,-6.86
55.093,-4.35
55.109,-1.88
55.125,0.28
55.140,1.96
55.156,3.09
55.171,3.67
55.187,3.95
55.203,4.21
55.218,4.62
55.234,5.33
55.250,6.25
55.265,7.12
55.281,7.69
55.296,7.82
55.312,7.57
55.328,7.26
55.343,7.11
55.359,7.16
55.375,7.18
55.390,6.87
55.406,5.88
55.421,4.28
55.437,2.35
55.453,0.52
55.468,-0.73
55.484,-1.21
55.500,-1.0
55.515,-0.38
55.531,0.36
55.546,0.91
55.562,1.22
55.578,1.39
55.593,1.59
55.609,2.16
55.625,3.4
55.640,5.37
55.656,7.94
55.671,10.56
55.687,12.51
55.703,13.1
55.718,12.06
55.734,9.7
55.750,6.91
55.765,4.88
55.781,4.65
55.796,6.63
55.812,10.42
55.828,15.0
55.843,19.24
55.859,22.5
55.875,24.74
55.890,26.65
55.906,28.97
55.921,32.42
55.937,37.32
55.953,43.43
55.968,49.96
55.984,55.39
56.000,57.69
56.015,54.89
56.031,46.08
56.046,32.11
56.062,16.17
56.078,3.06
56.093,-2.44
56.109,2.74
56.125,18.36
56.140,41.03
56.156,65.5
56.171,86.48
56.187,100.09
56.203,104.55
56.218,99.69
56.234,86.19
56.250,65.25
56.265,38.42
56.281,8.04
56.296,-22.71
56.312,-50.16
56.328,-71.23
56.343,-84.03
56.359,-88.64
56.375,-86.85
56.390,-81.23
56.406,-74.41
56.421,-68.4
56.437,-64.25
56.453,-62.23
56.468,-62.22
56.484,-63.83
56.500,-66.79
56.515,-70.77
56.531,-75.23
56.546,-79.4
56.562,-82.28
56.578,-82.61
56.593,-79.4
56.609,-71.95
56.625,-60.2
56.640,-44.98
56.656,-28.08
56.671,-11.76
56.687,1.58
56.703,10.42
56.718,14.69
56.734,15.63
56.750,15.42
56.765,16.08
56.781,18.62
56.796,22.68
56.812,26.98
56.828,29.95
56.843,30.74
56.859,29.34
56.875,26.24
56.890,22.11
56.906,17.32
56.921,11.81
56.937,5.32
56.953,-2.13
56.968,-10.23
56.984,-18.1
57.000,-24.37
57.015,-27.58
57.031,-26.61
57.046,-21.09
57.062,-11.8
57.078,-0.38
57.093,11.05
57.109,20.56
57.125,27.01
57.140,30.2
57.156,30.64
57.171,28.97
57.187,25.52
57.203,20.3
57.218,13.28
57.234,4.78
57.250,-4.44
57.265,-13.16
57.281,-20.18
57.296,-24.67
57.312,-26.47
57.328,-26.1
57.343,-24.33
57.359,-21.88
57.375,-19.03
57.390,-15.7
57.406,-11.39
57.421,-5.83
57.437,0.82
57.453,7.92
57.468,14.41
57.484,19.12
57.500,21.27
57.515,20.71
57.531,17.78
57.546,13.3
57.562,8.28
57.578,3.79
57.593,0.81
57.609,0.09
57.625,2.01
57.640,6.37
57.656,12.53
57.671,19.35
57.687,25.57
57.703,30.01
57.718,31.9
57.734,30.86
57.750,26.76
57.765,19.74
57.781,10.07
57.796,-1.8
57.812,-15.1
57.828,-28.75
57.843,-41.4
57.859,-51.63
57.875,-58.07
57.890,-59.99
57.906,-57.26
57.921,-50.8
57.937,-42.15
57.953,-33.17
57.968,-25.51
57.984,-20.17
58.000,-17.19
58.015,-15.57
58.031,-13.8
58.046,-10.33
58.062,-4.36
58.078,3.83
58.093,12.96
58.109,21.34
58.125,27.47
58.140,30.78
58.156,31.78
58.171,31.61
58.187,31.51
58.203,32.18
58.218,33.75
58.234,35.74
58.250,37.57
58.265,38.57
58.281,38.07
58.296,35.29
58.312,29.35
58.328,19.61
58.343,6.03
58.359,-10.54
58.375,-28.46
58.390,-45.74
58.406,-60.32
58.421,-70.73
58.437,-76.31
58.453,-77.18
58.468,-74.06
58.484,-67.95
58.500,-59.89
58.515,-50.49
58.531,-40.05
58.546,-28.29
58.562,-14.67
58.578,1.11
58.593,18.83
58.609,37.53
58.625,55.34
58.640,69.86
58.656,78.73
58.671,80.18
58.687,73.55
58.703,59.67
58.718,40.64
58.734,19.43
58.750,-0.64
58.765,-16.83
58.781,-27.5
58.796,-32.17
58.812,-31.66
58.828,-27.4
58.843,-21.08
58.859,-14.35
58.875,-8.44
58.890,-4.29
58.906,-2.38
58.921,-2.72
58.937,-4.67
58.953,-7.1
58.968,-8.8
58.984,-8.81
59.000,-7.04
59.015,-4.06
59.031,-1.05
59.046,0.67
59.062,0.34
59.078,-1.91
59.093,-5.19
59.109,-8.22
59.125,-9.76
59.140,-9.37
59.156,-7.29
59.171,-4.26
59.187,-1.24
59.203,1.5
59.218,4.36
59.234,8.14
59.250,13.69
59.265,21.3
59.281,30.33
59.296,39.66
59.312,48.1
59.328,54.97
59.343,60.38
59.359,64.73
59.375,68.33
59.390,71.02
59.406,72.14
59.421,70.86
59.437,66.85
59.453,60.63
59.468,53.51
59.484,47.17
59.500,42.87
59.515,41.07
59.531,41.38
59.546,42.9
59.562,44.49
59.578,45.35
59.593,45.02
59.609,43.36
59.625,40.46
59.640,36.56
59.656,31.91
59.671,26.8
59.687,21.38
59.703,15.33
59.718,7.94
59.734,-2.13
59.750,-16.24
59.765,-35.05
59.781,-57.7
59.796,-81.59
59.812,-102.86
59.828,-117.68
59.843,-123.51
59.859,-120.01
59.875,-109.23
59.890,-94.49
59.906,-79.14
59.921,-65.54
59.937,-54.84
59.953,-47.31
59.968,-42.91
59.984,-41.57
