timestamp,value
00.000,7.3
00.015,7.91
00.031,10.61
00.046,12.52
00.062,11.51
00.078,8.17
00.093,5.73
00.109,8.07
00.125,17.24
00.140,31.93
00.156,47.95
00.171,60.36
00.187,66.01
00.203,64.96
00.218,59.85
00.234,54.09
00.250,49.39
00.265,45.0
00.281,38.47
00.296,27.56
00.312,12.48
00.328,-3.53
00.343,-15.2
00.359,-17.82
00.375,-9.69
00.390,6.61
00.406,25.36
00.421,40.22
00.437,47.11
00.453,45.73
00.468,38.96
00.484,30.61
00.500,23.04
00.515,16.0
00.531,7.33
00.546,-4.96
00.562,-20.63
00.578,-36.61
00.593,-47.88
00.609,-49.88
00.625,-40.82
00.640,-22.82
00.656,-1.35
00.671,16.91
00.687,26.78
00.703,26.66
00.718,18.81
00.734,8.1
00.750,-0.84
00.765,-5.86
00.781,-7.98
00.796,-10.07
00.812,-14.35
00.828,-20.42
00.843,-25.06
00.859,-24.27
00.875,-15.99
00.890,-1.91
00.906,12.93
00.921,22.81
00.937,24.39
00.953,18.34
00.968,8.54
00.984,-0.63
01.000,-7.23
01.015,-12.73
01.031,-20.7
01.046,-33.85
01.062,-51.38
01.078,-68.59
01.093,-78.7
01.109,-76.29
01.125,-60.15
01.140,-34.34
01.156,-6.48
01.171,15.42
01.187,26.28
01.203,25.75
01.218,17.73
01.234,8.1
01.250,1.75
01.265,0.38
01.281,2.17
01.296,3.28
01.312,0.37
01.328,-7.3
01.343,-17.17
01.359,-24.68
01.375,-25.71
01.390,-18.87
01.406,-6.38
01.421,7.16
01.437,17.14
01.453,21.42
01.468,21.04
01.484,19.18
01.500,18.64
01.515,19.92
01.531,20.83
01.546,18.01
01.562,9.5
01.578,-3.54
01.593,-16.92
01.609,-25.46
01.625,-25.67
01.640,-17.78
01.656,-5.58
01.671,5.66
01.687,11.91
01.703,12.27
01.718,8.94
01.734,5.35
01.750,3.76
01.765,3.81
01.781,2.81
01.796,-2.24
01.812,-12.32
01.828,-25.27
01.843,-36.44
01.859,-40.92
01.875,-36.02
01.890,-22.75
01.906,-5.35
01.921,10.71
01.937,21.31
01.953,25.42
01.968,25.23
01.984,24.53
02.000,26.46
02.015,31.65
02.031,37.72
02.046,40.55
02.062,36.52
02.078,24.79
02.093,8.2
02.109,-7.7
02.125,-17.15
02.140,-16.95
02.156,-7.9
02.171,5.71
02.187,18.44
02.203,26.39
02.218,28.73
02.234,27.4
02.250,25.21
02.265,23.86
02.281,22.79
02.296,19.76
02.312,12.53
02.328,0.66
02.343,-13.73
02.359,-26.61
02.375,-33.86
02.390,-33.39
02.406,-26.14
02.421,-15.83
02.437,-7.09
02.453,-3.19
02.468,-4.45
02.484,-8.37
02.500,-11.35
02.515,-11.05
02.531,-8.02
02.546,-5.27
02.562,-6.35
02.578,-12.67
02.593,-22.21
02.609,-30.26
02.625,-31.91
02.640,-24.96
02.656,-11.21
02.671,4.4
02.687,16.47
02.703,21.9
02.718,21.27
02.734,17.95
02.750,15.8
02.765,16.82
02.781,20.09
02.796,22.7
02.812,21.81
02.828,16.57
02.843,8.75
02.859,1.78
02.875,-1.07
02.890,1.58
02.906,8.61
02.921,17.16
02.937,24.2
02.953,28.01
02.968,28.73
02.984,27.71
03.000,26.19
03.015,24.19
03.031,20.29
03.046,12.76
03.062,1.02
03.078,-13.18
03.093,-26.01
03.109,-33.25
03.125,-32.47
03.140,-24.59
03.156,-13.71
03.171,-5.12
03.187,-2.61
03.203,-6.54
03.218,-13.81
03.234,-19.92
03.250,-21.7
03.265,-19.12
03.281,-15.25
03.296,-14.27
03.312,-18.78
03.328,-28.05
03.343,-38.16
03.359,-43.94
03.375,-41.63
03.390,-30.74
03.406,-14.29
03.421,2.73
03.437,15.63
03.453,22.02
03.468,22.65
03.484,20.45
03.500,18.72
03.515,19.14
03.531,20.74
03.546,20.4
03.562,14.82
03.578,2.71
03.593,-13.72
03.609,-29.22
03.625,-37.63
03.640,-34.88
03.656,-21.11
03.671,-0.94
03.687,18.63
03.703,31.34
03.718,34.41
03.734,29.31
03.750,20.42
03.765,12.43
03.781,8.01
03.796,6.94
03.812,7.0
03.828,5.9
03.843,2.92
03.859,-0.66
03.875,-2.57
03.890,-1.2
03.906,3.22
03.921,8.72
03.937,12.87
03.953,14.31
03.968,13.75
03.984,13.36
04.000,15.26
04.015,19.83
04.031,25.15
04.046,27.96
04.062,25.78
04.078,18.71
04.093,9.84
04.109,3.92
04.125,4.88
04.140,13.77
04.156,28.26
04.171,43.77
04.187,55.83
04.203,62.12
04.218,63.13
04.234,61.22
04.250,58.81
04.265,56.79
04.281,53.96
04.296,47.67
04.312,35.28
04.328,15.67
04.343,-9.68
04.359,-36.59
04.375,-59.41
04.390,-72.77
04.406,-73.69
04.421,-62.79
04.437,-44.1
04.453,-23.52
04.468,-6.52
04.484,3.74
04.500,7.08
04.515,5.37
04.531,0.96
04.546,-4.87
04.562,-12.24
04.578,-21.82
04.593,-33.59
04.609,-45.74
04.625,-54.94
04.640,-57.57
04.656,-51.27
04.671,-36.4
04.687,-16.21
04.703,4.11
04.718,19.39
04.734,26.42
04.750,25.29
04.765,19.12
04.781,12.53
04.796,9.43
04.812,11.21
04.828,16.28
04.843,21.1
04.859,22.28
04.875,18.34
04.890,10.51
04.906,1.95
04.921,-3.98
04.937,-5.38
04.953,-2.56
04.968,2.44
04.984,7.2
05.000,10.25
05.015,11.52
05.031,12.14
05.046,13.3
05.062,15.43
05.078,17.7
05.093,18.21
05.109,14.89
05.125,6.43
05.140,-6.83
05.156,-22.74
05.171,-37.76
05.187,-48.25
05.203,-51.68
05.218,-47.69
05.234,-38.12
05.250,-26.23
05.265,-15.33
05.281,-7.53
05.296,-3.22
05.312,-1.3
05.328,-0.15
05.343,1.47
05.359,3.77
05.375,6.0
05.390,6.86
05.406,5.2
05.421,0.69
05.437,-6.0
05.453,-13.22
05.468,-18.85
05.484,-21.05
05.500,-18.85
05.515,-12.64
05.531,-4.02
05.546,4.76
05.562,11.76
05.578,16.02
05.593,17.74
05.609,17.82
05.625,17.08
05.640,15.6
05.656,12.7
05.671,7.44
05.687,-0.58
05.703,-10.47
05.718,-20.15
05.734,-26.99
05.750,-28.97
05.765,-25.58
05.781,-18.08
05.796,-9.03
05.812,-1.07
05.828,4.04
05.843,6.18
05.859,6.64
05.875,7.4
05.890,10.09
05.906,15.21
05.921,21.95
05.937,28.72
05.953,33.96
05.968,36.96
05.984,38.25
06.000,39.25
06.015,41.65
06.031,46.56
06.046,54.01
06.062,62.98
06.078,71.96
06.093,79.57
06.109,85.02
06.125,88.16
06.140,89.05
06.156,87.61
06.171,83.3
06.187,75.26
06.203,62.77
06.218,45.69
06.234,24.75
06.250,1.46
06.265,-22.13
06.281,-43.87
06.296,-61.85
06.312,-74.63
06.328,-81.5
06.343,-82.62
06.359,-79.0
06.375,-72.29
06.390,-64.39
06.406,-56.77
06.421,-50.15
06.437,-44.33
06.453,-38.49
06.468,-31.85
06.484,-24.33
06.500,-16.87
06.515,-11.1
06.531,-8.52
06.546,-9.57
06.562,-13.25
06.578,-17.38
06.593,-19.69
06.609,-18.96
06.625,-15.62
06.640,-11.44
06.656,-8.48
06.671,-8.0
06.687,-9.89
06.703,-12.88
06.718,-15.42
06.734,-16.5
06.750,-16.21
06.765,-15.6
06.781,-16.12
06.796,-18.72
06.812,-23.24
06.828,-28.18
06.843,-31.08
06.859,-29.75
06.875,-23.47
06.890,-13.83
06.906,-4.28
06.921,1.5
06.937,1.52
06.953,-3.25
06.968,-9.26
06.984,-12.06
07.000,-8.56
07.015,1.58
07.031,15.9
07.046,30.29
07.062,40.67
07.078,44.23
07.093,40.06
07.109,29.14
07.125,13.98
07.140,-1.97
07.156,-15.19
07.171,-23.05
07.187,-24.72
07.203,-21.39
07.218,-15.85
07.234,-11.23
07.250,-9.8
07.265,-12.12
07.281,-17.0
07.296,-22.19
07.312,-25.43
07.328,-25.35
07.343,-21.95
07.359,-16.59
07.375,-11.29
07.390,-8.03
07.406,-7.9
07.421,-10.82
07.437,-15.71
07.453,-21.08
07.468,-25.7
07.484,-28.98
07.500,-30.96
07.515,-31.97
07.531,-32.22
07.546,-31.39
07.562,-28.71
07.578,-23.33
07.593,-14.92
07.609,-4.26
07.625,6.78
07.640,15.81
07.656,21.08
07.671,22.36
07.687,21.29
07.703,20.6
07.718,22.72
07.734,28.44
07.750,36.37
07.765,43.74
07.781,47.83
07.796,47.44
07.812,43.47
07.828,38.36
07.843,34.78
07.859,34.39
07.875,37.27
07.890,42.07
07.906,46.87
07.921,49.96
07.937,50.39
07.953,47.99
07.968,43.15
07.984,36.6
08.000,29.09
08.015,21.49
08.031,14.6
08.046,9.14
08.062,5.61
08.078,4.13
08.093,4.39
08.109,5.71
08.125,7.28
08.140,8.46
08.156,8.74
08.171,7.73
08.187,4.95
08.203,-0.2
08.218,-8.02
08.234,-18.11
08.250,-28.94
08.265,-38.04
08.281,-42.82
08.296,-41.58
08.312,-34.39
08.328,-23.15
08.343,-10.91
08.359,-0.61
08.375,5.96
08.390,8.67
08.406,8.66
08.421,7.59
08.437,6.79
08.453,6.76
08.468,7.19
08.484,7.38
08.500,6.72
08.515,5.23
08.531,3.68
08.546,3.29
08.562,5.07
08.578,9.08
08.593,13.99
08.609,17.46
08.625,17.19
08.640,12.28
08.656,4.09
08.671,-4.14
08.687,-8.74
08.703,-7.64
08.718,-1.57
08.734,6.06
08.750,10.87
08.765,9.85
08.781,2.98
08.796,-6.73
08.812,-14.74
08.828,-17.26
08.843,-13.16
08.859,-4.54
08.875,4.18
08.890,8.21
08.906,4.37
08.921,-7.61
08.937,-24.89
08.953,-42.65
08.968,-55.66
08.984,-60.14
09.000,-54.85
09.015,-41.36
09.031,-23.31
09.046,-5.11
09.062,9.31
09.078,17.59
09.093,19.35
09.109,16.09
09.125,10.58
09.140,5.82
09.156,3.9
09.171,5.18
09.187,8.09
09.203,9.88
09.218,8.19
09.234,2.45
09.250,-5.49
09.265,-11.95
09.281,-13.37
09.296,-8.18
09.312,2.18
09.328,13.99
09.343,23.1
09.359,27.01
09.375,25.88
09.390,22.07
09.406,18.48
09.421,16.91
09.437,17.3
09.453,18.02
09.468,17.14
09.484,13.42
09.500,7.0
09.515,-0.94
09.531,-8.61
09.546,-14.34
09.562,-16.92
09.578,-15.93
09.593,-11.85
09.609,-6.08
09.625,-0.57
09.640,2.83
09.656,3.09
09.671,0.43
09.687,-3.82
09.703,-7.82
09.718,-10.08
09.734,-10.17
09.750,-8.81
09.765,-7.61
09.781,-8.17
09.796,-11.35
09.812,-16.64
09.828,-22.15
09.843,-25.33
09.859,-24.04
09.875,-17.63
09.890,-7.33
09.906,4.11
09.921,13.61
09.937,19.05
09.953,20.09
09.968,18.16
09.984,15.51
10.000,14.16
10.015,14.93
10.031,17.37
10.046,20.05
10.062,21.35
10.078,20.12
10.093,16.07
10.109,9.98
10.125,3.34
10.140,-2.1
10.156,-4.94
10.171,-4.56
10.187,-1.41
10.203,3.25
10.218,7.76
10.234,10.65
10.250,11.17
10.265,9.46
10.281,6.52
10.296,3.75
10.312,2.54
10.328,3.66
10.343,7.01
10.359,11.48
10.375,15.21
10.390,16.21
10.406,13.07
10.421,5.61
10.437,-4.85
10.453,-15.84
10.468,-24.54
10.484,-28.81
10.500,-28.02
10.515,-23.32
10.531,-17.09
10.546,-12.15
10.562,-10.52
10.578,-12.8
10.593,-17.9
10.609,-23.53
10.625,-27.09
10.640,-26.67
10.656,-21.9
10.671,-14.13
10.687,-6.11
10.703,-0.88
10.718,-0.5
10.734,-5.12
10.750,-12.82
10.765,-20.28
10.781,-24.33
10.796,-23.25
10.812,-17.46
10.828,-9.33
10.843,-2.05
10.859,1.77
10.875,0.98
10.890,-3.66
10.906,-10.02
10.921,-15.6
10.937,-18.42
10.953,-17.91
10.968,-15.04
10.984,-11.82
11.000,-10.39
11.015,-11.92
11.031,-15.86
11.046,-20.08
11.062,-21.81
11.078,-19.0
11.093,-11.41
11.109,-0.88
11.125,9.47
11.140,16.72
11.156,19.36
11.171,17.82
11.187,14.12
11.203,10.72
11.218,9.33
11.234,10.3
11.250,12.4
11.265,13.58
11.281,11.87
11.296,6.36
11.312,-2.17
11.328,-11.35
11.343,-18.07
11.359,-19.71
11.375,-15.28
11.390,-5.99
11.406,5.3
11.421,15.26
11.437,21.46
11.453,23.24
11.468,21.76
11.484,19.26
11.500,18.05
11.515,19.64
11.531,24.26
11.546,30.99
11.562,37.91
11.578,42.74
11.593,43.54
11.609,39.4
11.625,31.01
11.640,20.61
11.656,11.33
11.671,5.9
11.687,5.64
11.703,9.83
11.718,16.14
11.734,21.57
11.750,23.62
11.765,20.92
11.781,13.52
11.796,2.47
11.812,-10.55
11.828,-23.66
11.843,-35.13
11.859,-43.87
11.875,-49.71
11.890,-53.67
11.906,-57.53
11.921,-63.0
11.937,-70.66
11.953,-79.41
11.968,-86.79
11.984,-90.0
12.000,-87.45
12.015,-79.6
12.031,-69.13
12.046,-59.82
12.062,-54.92
12.078,-55.69
12.093,-60.73
12.109,-66.45
12.125,-68.55
12.140,-63.87
12.156,-51.64
12.171,-33.78
12.187,-13.92
12.203,4.11
12.218,17.69
12.234,26.05
12.250,29.98
12.265,30.97
12.281,30.51
12.296,29.8
12.312,29.84
12.328,31.52
12.343,35.47
12.359,41.52
12.375,48.4
12.390,53.87
12.406,55.67
12.421,52.57
12.437,45.15
12.453,35.73
12.468,27.39
12.484,22.72
12.500,22.8
12.515,26.91
12.531,32.79
12.546,37.64
12.562,39.0
12.578,35.55
12.593,27.53
12.609,16.72
12.625,5.94
12.640,-1.78
12.656,-4.26
12.671,-1.03
12.687,6.29
12.703,14.5
12.718,19.95
12.734,20.0
12.750,14.13
12.765,4.18
12.781,-6.43
12.796,-14.03
12.812,-16.24
12.828,-12.86
12.843,-5.79
12.859,1.8
12.875,6.93
12.890,7.78
12.906,4.29
12.921,-2.11
12.937,-9.03
12.953,-14.02
12.968,-15.03
12.984,-10.92
13.000,-1.74
13.015,11.09
13.031,24.88
13.046,36.23
13.062,42.02
13.078,40.51
13.093,32.11
13.109,19.35
13.125,5.97
13.140,-4.5
13.156,-10.08
13.171,-11.07
13.187,-9.81
13.203,-9.69
13.218,-13.73
13.234,-23.32
13.250,-37.61
13.265,-53.65
13.281,-67.46
13.296,-75.33
13.312,-75.2
13.328,-67.45
13.343,-54.94
13.359,-42.06
13.375,-33.31
13.390,-31.65
13.406,-37.42
13.421,-48.29
13.437,-60.05
13.453,-68.29
13.468,-69.9
13.484,-64.27
13.500,-53.37
13.515,-40.88
13.531,-30.76
13.546,-25.73
13.562,-26.27
13.578,-30.43
13.593,-34.51
13.609,-34.29
13.625,-26.52
13.640,-10.08
13.656,13.42
13.671,39.96
13.687,64.32
13.703,81.64
13.718,89.05
13.734,86.61
13.750,77.24
13.765,65.62
13.781,56.52
13.796,53.01
13.812,55.39
13.828,61.15
13.843,66.05
13.859,66.08
13.875,59.22
13.890,46.49
13.906,31.59
13.921,19.31
13.937,13.42
13.953,15.1
13.968,22.58
13.984,32.09
14.000,39.65
14.015,42.6
14.031,40.36
14.046,34.15
14.062,26.1
14.078,18.29
14.093,12.15
14.109,8.22
14.125,6.25
14.140,5.15
14.156,3.17
14.171,-1.67
14.187,-10.73
14.203,-23.95
14.218,-39.28
14.234,-53.08
14.250,-61.29
14.265,-61.2
14.281,-52.71
14.296,-38.71
14.312,-24.23
14.328,-14.44
14.343,-12.83
14.359,-19.62
14.375,-31.78
14.390,-44.1
14.406,-51.17
14.421,-49.34
14.437,-38.01
14.453,-19.71
14.468,0.85
14.484,18.37
14.500,28.79
14.515,30.48
14.531,24.66
14.546,14.86
14.562,5.65
14.578,1.02
14.593,3.12
14.609,11.57
14.625,23.7
14.640,35.54
14.656,43.22
14.671,44.33
14.687,38.79
14.703,28.99
14.718,18.9
14.734,12.75
14.750,13.45
14.765,21.37
14.781,34.02
14.796,46.87
14.812,54.88
14.828,54.5
14.843,45.03
14.859,28.84
14.875,10.37
14.890,-5.61
14.906,-15.76
14.921,-19.09
14.937,-16.82
14.953,-11.52
14.968,-5.97
14.984,-2.26
15.000,-1.41
15.015,-3.31
15.031,-6.87
15.046,-10.32
15.062,-11.64
15.078,-9.32
15.093,-3.11
15.109,5.5
15.125,13.51
15.140,17.5
15.156,15.13
15.171,6.34
15.187,-6.41
15.203,-19.08
15.218,-27.63
15.234,-29.48
15.250,-24.13
15.265,-12.94
15.281,1.59
15.296,16.53
15.312,29.04
15.328,36.71
15.343,38.2
15.359,33.76
15.375,25.67
15.390,17.78
15.406,14.31
15.421,17.81
15.437,27.74
15.453,40.26
15.468,49.58
15.484,50.59
15.500,41.21
15.515,23.58
15.531,3.18
15.546,-13.48
15.562,-21.59
15.578,-19.92
15.593,-11.06
15.609,0.06
15.625,8.36
15.640,10.63
15.656,6.47
15.671,-2.09
15.687,-11.75
15.703,-19.25
15.718,-22.24
15.734,-19.62
15.750,-11.49
15.765,0.78
15.781,14.48
15.796,25.71
15.812,30.24
15.828,25.08
15.843,10.06
15.859,-11.26
15.875,-32.36
15.890,-46.16
15.906,-47.9
15.921,-37.29
15.937,-18.6
15.953,1.21
15.968,15.54
15.984,20.74
16.000,17.15
16.015,8.4
16.031,-0.63
16.046,-5.75
16.062,-4.89
16.078,1.82
16.093,12.43
16.109,24.07
16.125,33.78
16.140,39.11
16.156,38.67
16.171,32.39
16.187,21.63
16.203,8.87
16.218,-2.87
16.234,-10.77
16.250,-12.99
16.265,-9.18
16.281,-0.58
16.296,10.25
16.312,20.18
16.328,26.44
16.343,27.52
16.359,23.75
16.375,17.17
16.390,10.8
16.406,7.4
16.421,8.23
16.437,12.53
16.453,17.78
16.468,20.71
16.484,18.66
16.500,10.7
16.515,-2.1
16.531,-16.98
16.546,-30.5
16.562,-39.57
16.578,-42.36
16.593,-38.7
16.609,-30.05
16.625,-19.15
16.640,-9.2
16.656,-3.18
16.671,-2.87
16.687,-8.32
16.703,-17.65
16.718,-27.57
16.734,-34.35
16.750,-35.2
16.765,-29.36
16.781,-18.51
16.796,-6.29
16.812,3.11
16.828,6.5
16.843,2.85
16.859,-6.39
16.875,-18.0
16.890,-28.16
16.906,-33.71
16.921,-33.06
16.937,-26.36
16.953,-15.36
16.968,-2.9
16.984,7.84
17.000,14.21
17.015,15.01
17.031,11.0
17.046,4.94
17.062,0.57
17.078,1.22
17.093,8.26
17.109,20.41
17.125,33.92
17.140,44.01
17.156,46.64
17.171,39.99
17.187,25.26
17.203,6.27
17.218,-11.73
17.234,-23.76
17.250,-26.65
17.265,-20.09
17.281,-6.6
17.296,9.2
17.312,22.19
17.328,28.4
17.343,26.34
17.359,17.26
17.375,4.62
17.390,-7.29
17.406,-14.97
17.421,-16.92
17.437,-14.05
17.453,-9.23
17.468,-6.01
17.484,-7.06
17.500,-12.98
17.515,-21.96
17.531,-30.42
17.546,-34.46
17.562,-31.55
17.578,-21.52
17.593,-6.73
17.609,9.07
17.625,22.07
17.640,29.82
17.656,31.82
17.671,29.29
17.687,24.36
17.703,19.24
17.718,15.49
17.734,13.71
17.750,13.7
17.765,14.5
17.781,14.84
17.796,13.43
17.812,9.41
17.828,2.79
17.843,-5.29
17.859,-12.86
17.875,-17.73
17.890,-18.42
17.906,-14.78
17.921,-8.13
17.937,-0.73
17.953,5.11
17.968,7.92
17.984,7.45
18.000,4.53
18.015,0.55
18.031,-3.15
18.046,-5.71
18.062,-6.94
18.078,-7.16
18.093,-7.12
18.109,-7.64
18.125,-9.49
18.140,-13.04
18.156,-18.09
18.171,-23.8
18.187,-28.9
18.203,-31.94
18.218,-31.75
18.234,-27.81
18.250,-20.47
18.265,-11.11
18.281,-1.79
18.296,5.36
18.312,8.88
18.328,8.65
18.343,6.04
18.359,3.35
18.375,2.85
18.390,5.69
18.406,11.33
18.421,17.81
18.437,22.75
18.453,24.32
18.468,22.02
18.484,16.64
18.500,9.62
18.515,2.52
18.531,-3.44
18.546,-7.3
18.562,-8.34
18.578,-6.17
18.593,-1.14
18.609,5.42
18.625,11.37
18.640,14.43
18.656,13.34
18.671,8.64
18.687,2.71
18.703,-1.27
18.718,-0.81
18.734,4.5
18.750,12.62
18.765,19.76
18.781,22.03
18.796,17.17
18.812,5.65
18.828,-9.47
18.843,-23.71
18.859,-33.04
18.875,-35.3
18.890,-30.87
18.906,-22.18
18.921,-12.66
18.937,-5.45
18.953,-2.62
18.968,-4.78
18.984,-11.18
19.000,-19.86
19.015,-28.14
19.031,-33.03
19.046,-32.11
19.062,-24.4
19.078,-11.06
19.093,4.56
19.109,18.01
19.125,25.25
19.140,24.45
19.156,16.88
19.171,6.48
19.187,-1.74
19.203,-3.88
19.218,1.18
19.234,11.27
19.250,22.1
19.265,29.18
19.281,29.96
19.296,24.83
19.312,16.63
19.328,9.13
19.343,5.15
19.359,5.5
19.375,8.97
19.390,13.38
19.406,16.78
19.421,18.24
19.437,17.77
19.453,15.73
19.468,12.18
19.484,6.75
19.500,-0.92
19.515,-10.4
19.531,-20.0
19.546,-26.97
19.562,-28.5
19.578,-23.16
19.593,-12.04
19.609,1.26
19.625,11.81
19.640,15.23
19.656,9.75
19.671,-2.91
19.687,-18.16
19.703,-30.36
19.718,-35.24
19.734,-31.81
19.750,-22.65
19.765,-12.64
19.781,-6.83
19.796,-8.05
19.812,-15.7
19.828,-26.05
19.843,-33.94
19.859,-35.12
19.875,-28.03
19.890,-14.37
19.906,1.74
19.921,15.56
19.937,23.52
19.953,24.37
19.968,19.19
19.984,10.59
20.000,1.48
20.015,-5.91
20.031,-10.39
20.046,-11.78
20.062,-10.59
20.078,-7.75
20.093,-4.66
20.109,-3.01
20.125,-4.32
20.140,-9.24
20.156,-16.82
20.171,-24.45
20.187,-28.64
20.203,-26.51
20.218,-17.34
20.234,-3.15
20.250,11.87
20.265,23.14
20.281,27.64
20.296,25.12
20.312,17.87
20.328,9.52
20.343,3.3
20.359,0.8
20.375,1.77
20.390,4.67
20.406,7.66
20.421,9.41
20.437,9.39
20.453,7.64
20.468,4.46
20.484,0.1
20.500,-5.17
20.515,-10.8
20.531,-15.75
20.546,-18.65
20.562,-18.38
20.578,-14.73
20.593,-8.91
20.609,-3.22
20.625,-0.08
20.640,-0.84
20.656,-4.95
20.671,-10.1
20.687,-13.2
20.703,-11.92
20.718,-5.82
20.734,3.41
20.750,12.72
20.765,19.19
20.781,21.28
20.796,19.42
20.812,15.6
20.828,12.22
20.843,10.9
20.859,11.74
20.875,13.57
20.890,14.68
20.906,13.95
20.921,11.28
20.937,7.48
20.953,3.63
20.968,0.26
20.984,-2.87
21.000,-6.5
21.015,-11.09
21.031,-16.23
21.046,-20.56
21.062,-22.38
21.078,-20.6
21.093,-15.39
21.109,-8.31
21.125,-1.7
21.140,2.16
21.156,2.0
21.171,-2.02
21.187,-8.44
21.203,-15.04
21.218,-19.64
21.234,-20.89
21.250,-18.73
21.265,-14.49
21.281,-10.33
21.296,-8.56
21.312,-10.67
21.328,-16.74
21.343,-25.35
21.359,-33.98
21.375,-39.92
21.390,-41.03
21.406,-36.51
21.421,-27.07
21.437,-14.93
21.453,-3.22
21.468,4.84
21.484,7.07
21.500,3.35
21.515,-4.13
21.531,-11.48
21.546,-14.79
21.562,-11.61
21.578,-2.11
21.593,11.13
21.609,24.32
21.625,34.03
21.640,38.38
21.656,37.33
21.671,32.19
21.687,24.86
21.703,17.24
21.718,10.88
21.734,6.97
21.750,6.18
21.765,8.38
21.781,12.52
21.796,16.82
21.812,19.36
21.828,18.91
21.843,15.57
21.859,10.8
21.875,6.85
21.890,5.84
21.906,8.7
21.921,14.61
21.937,21.2
21.953,25.46
21.968,25.05
21.984,19.36
22.000,9.87
22.015,-0.52
22.031,-8.73
22.046,-12.97
22.062,-13.34
22.078,-11.7
22.093,-10.58
22.109,-11.91
22.125,-16.21
22.140,-22.41
22.156,-28.4
22.171,-31.98
22.187,-31.75
22.203,-27.55
22.218,-20.46
22.234,-12.38
22.250,-5.35
22.265,-0.87
22.281,0.53
22.296,-0.53
22.312,-2.59
22.328,-4.03
22.343,-3.77
22.359,-1.76
22.375,1.0
22.390,2.99
22.406,2.88
22.421,0.38
22.437,-3.56
22.453,-6.88
22.468,-7.18
22.484,-2.82
22.500,6.24
22.515,18.12
22.531,29.6
22.546,37.38
22.562,39.39
22.578,35.72
22.593,28.4
22.609,20.35
22.625,14.0
22.640,10.24
22.656,8.3
22.671,6.59
22.687,3.8
22.703,-0.35
22.718,-4.93
22.734,-8.62
22.750,-10.55
22.765,-10.83
22.781,-10.41
22.796,-10.32
22.812,-10.91
22.828,-11.65
22.843,-11.6
22.859,-10.17
22.875,-7.84
22.890,-6.07
22.906,-6.61
22.921,-10.34
22.937,-16.62
22.953,-23.33
22.968,-27.75
22.984,-27.81
23.000,-23.0
23.015,-14.58
23.031,-4.97
23.046,3.21
23.062,8.13
23.078,9.19
23.093,7.0
23.109,2.96
23.125,-1.31
23.140,-4.37
23.156,-5.29
23.171,-3.72
23.187,-0.05
23.203,4.7
23.218,9.01
23.234,11.31
23.250,10.6
23.265,6.87
23.281,1.38
23.296,-3.88
23.312,-6.92
23.328,-6.62
23.343,-3.25
23.359,1.6
23.375,5.82
23.390,7.67
23.406,6.59
23.421,3.25
23.437,-0.87
23.453,-4.24
23.468,-5.93
23.484,-5.84
23.500,-4.48
23.515,-2.57
23.531,-0.63
23.546,0.94
23.562,1.66
23.578,0.98
23.593,-1.66
23.609,-6.38
23.625,-12.5
23.640,-18.62
23.656,-23.15
23.671,-25.13
23.687,-24.72
23.703,-23.07
23.718,-21.47
23.734,-20.49
23.750,-19.58
23.765,-17.33
23.781,-12.37
23.796,-4.34
23.812,5.76
23.828,15.78
23.843,23.27
23.859,26.36
23.875,24.47
23.890,18.49
23.906,10.47
23.921,3.02
23.937,-1.61
23.953,-2.17
23.968,1.04
23.984,6.38
24.000,11.48
24.015,14.23
24.031,13.72
24.046,10.56
24.062,6.57
24.078,3.82
24.093,3.63
24.109,5.94
24.125,9.35
24.140,11.91
24.156,12.18
24.171,9.87
24.187,5.99
24.203,2.05
24.218,-0.77
24.234,-2.19
24.250,-2.82
24.265,-3.43
24.281,-4.22
24.296,-4.63
24.312,-3.76
24.328,-1.3
24.343,1.75
24.359,3.23
24.375,0.85
24.390,-6.42
24.406,-17.43
24.421,-29.04
24.437,-37.42
24.453,-39.95
24.468,-36.39
24.484,-29.08
24.500,-21.68
24.515,-17.38
24.531,-17.42
24.546,-20.54
24.562,-23.76
24.578,-23.83
24.593,-18.75
24.609,-8.42
24.625,5.44
24.640,20.41
24.656,34.2
24.671,45.35
24.687,53.1
24.703,57.11
24.718,57.19
24.734,53.35
24.750,46.31
24.765,37.58
24.781,29.33
24.796,23.67
24.812,21.71
24.828,23.09
24.843,26.11
24.859,28.57
24.875,28.72
24.890,25.97
24.906,20.88
24.921,14.75
24.937,8.99
24.953,4.65
24.968,2.31
24.984,2.04
25.000,3.47
25.015,5.76
25.031,7.63
25.046,7.59
25.062,4.42
25.078,-2.14
25.093,-11.09
25.109,-20.25
25.125,-27.11
25.140,-29.89
25.156,-28.46
25.171,-24.4
25.187,-20.28
25.203,-18.36
25.218,-19.67
25.234,-23.62
25.250,-28.52
25.265,-32.48
25.281,-34.14
25.296,-32.92
25.312,-28.98
25.328,-22.87
25.343,-15.39
25.359,-7.61
25.375,-0.78
25.390,3.91
25.406,5.85
25.421,5.35
25.437,3.63
25.453,2.26
25.468,2.36
25.484,4.17
25.500,7.0
25.515,9.73
25.531,11.46
25.546,11.78
25.562,10.77
25.578,8.74
25.593,6.06
25.609,3.33
25.625,1.48
25.640,1.72
25.656,5.03
25.671,11.51
25.687,19.83
25.703,27.56
25.718,32.08
25.734,31.8
25.750,26.93
25.765,19.39
25.781,11.74
25.796,6.01
25.812,2.9
25.828,1.76
25.843,1.31
25.859,0.54
25.875,-0.84
25.890,-2.51
25.906,-4.0
25.921,-5.26
25.937,-6.6
25.953,-8.43
25.968,-10.81
25.984,-13.21
26.000,-14.72
26.015,-14.61
26.031,-12.73
26.046,-9.75
26.062,-6.75
26.078,-4.68
26.093,-3.85
26.109,-3.75
26.125,-3.38
26.140,-1.81
26.156,1.3
26.171,5.6
26.187,10.18
26.203,14.03
26.218,16.48
26.234,17.23
26.250,16.44
26.265,14.53
26.281,12.1
26.296,9.72
26.312,8.02
26.328,7.53
26.343,8.56
26.359,11.15
26.375,14.96
26.390,19.32
26.406,23.37
26.421,26.28
26.437,27.43
26.453,26.67
26.468,24.37
26.484,21.28
26.500,18.24
26.515,15.69
26.531,13.52
26.546,11.0
26.562,7.22
26.578,1.56
26.593,-5.85
26.609,-14.11
26.625,-21.7
26.640,-27.01
26.656,-28.77
26.671,-26.46
26.687,-20.56
26.703,-12.66
26.718,-5.19
26.734,-0.89
26.750,-1.8
26.765,-8.35
26.781,-18.9
26.796,-30.12
26.812,-38.29
26.828,-40.77
26.843,-37.25
26.859,-29.76
26.875,-21.7
26.890,-16.16
26.906,-14.42
26.921,-15.58
26.937,-17.21
26.953,-16.84
26.968,-13.13
26.984,-6.43
27.000,1.85
27.015,10.07
27.031,17.17
27.046,22.78
27.062,26.74
27.078,28.76
27.093,28.33
27.109,25.1
27.125,19.43
27.140,12.57
27.156,6.23
27.171,1.88
27.187,0.07
27.203,0.34
27.218,1.54
27.234,2.47
27.250,2.32
27.265,0.84
27.281,-1.74
27.296,-4.76
27.312,-7.18
27.328,-7.68
27.343,-5.1
27.359,0.95
27.375,9.58
27.390,18.59
27.406,25.12
27.421,26.91
27.437,23.24
27.453,15.47
27.468,6.39
27.484,-0.93
27.500,-4.49
27.515,-4.11
27.531,-1.27
27.546,1.7
27.562,2.79
27.578,1.0
27.593,-3.42
27.609,-9.36
27.625,-15.44
27.640,-20.44
27.656,-23.52
27.671,-24.17
27.687,-22.16
27.703,-17.53
27.718,-10.95
27.734,-3.72
27.750,2.27
27.765,5.23
27.781,4.19
27.796,-0.3
27.812,-6.18
27.828,-10.6
27.843,-11.06
27.859,-6.69
27.875,1.34
27.890,10.17
27.906,16.54
27.921,18.17
27.937,14.72
27.953,7.87
27.968,0.45
27.984,-4.72
28.000,-5.94
28.015,-3.08
28.031,2.63
28.046,9.26
28.062,14.97
28.078,18.47
28.093,19.27
28.109,17.56
28.125,14.01
28.140,9.63
28.156,5.53
28.171,2.62
28.187,1.32
28.203,1.29
28.218,1.54
28.234,0.76
28.250,-2.03
28.265,-6.96
28.281,-13.04
28.296,-18.5
28.312,-21.47
28.328,-20.75
28.343,-16.25
28.359,-9.1
28.375,-1.23
28.390,5.22
28.406,8.55
28.421,7.99
28.437,3.87
28.453,-2.44
28.468,-9.02
28.484,-14.11
28.500,-16.62
28.515,-16.53
28.531,-14.75
28.546,-12.56
28.562,-10.86
28.578,-9.88
28.593,-9.07
28.609,-7.63
28.625,-4.93
28.640,-0.85
28.656,4.35
28.671,10.22
28.687,16.34
28.703,22.21
28.718,27.1
28.734,29.97
28.750,29.86
28.765,26.28
28.781,19.85
28.796,12.28
28.812,5.8
28.828,2.25
28.843,2.3
28.859,5.16
28.875,9.02
28.890,11.94
28.906,12.56
28.921,10.54
28.937,6.41
28.953,1.16
28.968,-4.1
28.984,-8.32
29.000,-10.65
29.015,-10.49
29.031,-7.81
29.046,-3.38
29.062,1.19
29.078,3.8
29.093,2.75
29.109,-2.57
29.125,-11.17
29.140,-20.79
29.156,-28.73
29.171,-33.0
29.187,-33.1
29.203,-30.23
29.218,-26.66
29.234,-24.75
29.250,-25.92
29.265,-30.18
29.281,-36.26
29.296,-42.25
29.312,-46.44
29.328,-47.65
29.343,-45.39
29.359,-39.58
29.375,-30.56
29.390,-19.18
29.406,-6.86
29.421,4.46
29.437,12.94
29.453,17.55
29.468,18.63
29.484,17.78
29.500,17.11
29.515,18.18
29.531,21.22
29.546,25.18
29.562,28.43
29.578,29.72
29.593,28.77
29.609,26.26
29.625,23.38
29.640,21.16
29.656,20.24
29.671,20.86
29.687,23.05
29.703,26.63
29.718,31.04
29.734,35.17
29.750,37.41
29.765,36.15
29.781,30.53
29.796,21.13
29.812,10.15
29.828,0.77
29.843,-4.11
29.859,-3.12
29.875,2.81
29.890,10.69
29.906,16.73
29.921,17.84
29.937,12.92
29.953,3.23
29.968,-8.28
29.984,-18.24
30.000,-24.16
30.015,-25.06
30.031,-21.46
30.046,-14.86
30.062,-7.13
30.078,-0.11
30.093,4.57
30.109,5.68
30.125,2.76
30.140,-3.54
30.156,-11.39
30.171,-18.23
30.187,-21.71
30.203,-20.64
30.218,-15.54
30.234,-8.32
30.250,-1.4
30.265,3.4
30.281,5.41
30.296,5.09
30.312,3.56
30.328,2.04
30.343,1.47
30.359,2.51
30.375,5.37
30.390,9.72
30.406,14.6
30.421,18.41
30.437,19.4
30.453,16.44
30.468,9.62
30.484,0.59
30.500,-8.02
30.515,-13.6
30.531,-14.64
30.546,-11.26
30.562,-5.09
30.578,1.44
30.593,6.06
30.609,7.28
30.625,4.77
30.640,-0.73
30.656,-7.76
30.671,-14.53
30.687,-19.37
30.703,-21.11
30.718,-19.29
30.734,-14.26
30.750,-7.22
30.765,0.16
30.781,5.97
30.796,8.49
30.812,6.63
30.828,0.32
30.843,-9.31
30.859,-19.95
30.875,-28.68
30.890,-32.99
30.906,-31.68
30.921,-25.58
30.937,-17.27
30.953,-10.05
30.968,-6.52
30.984,-7.47
31.000,-11.71
31.015,-16.76
31.031,-20.15
31.046,-20.35
31.062,-17.14
31.078,-11.14
31.093,-3.15
31.109,6.15
31.125,16.0
31.140,25.15
31.156,31.78
31.171,34.16
31.187,31.68
31.203,25.5
31.218,18.28
31.234,13.05
31.250,11.58
31.265,13.55
31.281,16.76
31.296,18.43
31.312,16.82
31.328,11.97
31.343,5.42
31.359,-0.9
31.375,-5.83
31.390,-9.35
31.406,-11.97
31.421,-13.94
31.437,-14.65
31.453,-13.1
31.468,-8.96
31.484,-3.48
31.500,0.52
31.515,-0.17
31.531,-7.41
31.546,-20.34
31.562,-35.42
31.578,-47.85
31.593,-53.75
31.609,-51.94
31.625,-44.45
31.640,-35.33
31.656,-28.77
31.671,-27.23
31.687,-30.58
31.703,-36.44
31.718,-41.45
31.734,-42.71
31.750,-38.99
31.765,-30.83
31.781,-20.22
31.796,-9.52
31.812,-0.74
31.828,4.96
31.843,7.16
31.859,6.02
31.875,2.2
31.890,-3.26
31.906,-8.7
31.921,-12.21
31.937,-12.08
31.953,-7.54
31.968,0.52
31.984,9.59
32.000,16.48
32.015,18.75
32.031,15.79
32.046,9.35
32.062,2.6
32.078,-1.13
32.093,0.28
32.109,7.11
32.125,17.88
32.140,30.18
32.156,41.46
32.171,49.66
32.187,53.68
32.203,53.36
32.218,49.53
32.234,43.83
32.250,38.2
32.265,34.4
32.281,33.28
32.296,34.31
32.312,35.75
32.328,35.42
32.343,31.42
32.359,22.94
32.375,10.72
32.390,-3.35
32.406,-16.57
32.421,-26.3
32.437,-30.87
32.453,-29.98
32.468,-24.88
32.484,-18.07
32.500,-12.45
32.515,-10.35
32.531,-12.95
32.546,-19.73
32.562,-28.83
32.578,-37.68
32.593,-43.93
32.609,-46.1
32.625,-44.29
32.640,-39.84
32.656,-34.93
32.671,-31.68
32.687,-31.3
32.703,-33.61
32.718,-37.16
32.734,-39.8
32.750,-39.53
32.765,-35.32
32.781,-27.27
32.796,-16.51
32.812,-4.84
32.828,5.77
32.843,13.57
32.859,17.43
32.875,17.22
32.890,13.83
32.906,8.99
32.921,4.7
32.937,2.39
32.953,2.26
32.968,3.25
32.984,3.35
33.000,0.65
33.015,-5.88
33.031,-15.96
33.046,-28.31
33.062,-41.13
33.078,-52.87
33.093,-62.47
33.109,-69.18
33.125,-72.67
33.140,-73.03
33.156,-71.07
33.171,-68.29
33.187,-66.86
33.203,-68.54
33.218,-73.79
33.234,-81.19
33.250,-87.79
33.265,-90.67
33.281,-88.44
33.296,-81.94
33.312,-73.69
33.328,-66.37
33.343,-61.37
33.359,-58.34
33.375,-55.71
33.390,-51.88
33.406,-46.01
33.421,-37.83
33.437,-27.08
33.453,-12.92
33.468,5.8
33.484,29.63
33.500,57.45
33.515,86.32
33.531,112.42
33.546,132.43
33.562,145.09
33.578,151.62
33.593,154.93
33.609,158.15
33.625,163.15
33.640,169.69
33.656,175.68
33.671,178.51
33.687,176.44
33.703,169.59
33.718,159.82
33.734,149.63
33.750,141.04
33.765,134.62
33.781,129.79
33.796,125.61
33.812,121.68
33.828,118.52
33.843,117.21
33.859,118.42
33.875,121.72
33.890,125.46
33.906,127.39
33.921,125.89
33.937,120.75
33.953,113.16
33.968,105.26
33.984,99.11
34.000,95.88
34.015,95.45
34.031,96.55
34.046,97.21
34.062,95.44
34.078,89.72
34.093,79.45
34.109,65.22
34.125,48.86
34.140,33.12
34.156,20.9
34.171,14.19
34.187,13.14
34.203,15.74
34.218,18.39
34.234,17.47
34.250,11.13
34.265,0.22
34.281,-11.86
34.296,-20.61
34.312,-22.29
34.328,-15.6
34.343,-2.02
34.359,14.67
34.375,29.6
34.390,38.06
34.406,36.11
34.421,21.68
34.437,-4.51
34.453,-38.52
34.468,-73.72
34.484,-102.89
34.500,-121.29
34.515,-128.98
34.531,-131.19
34.546,-136.2
34.562,-151.73
34.578,-181.81
34.593,-225.34
34.609,-276.74
34.625,-327.99
34.640,-370.89
34.656,-398.88
34.671,-408.04
34.687,-397.55
34.703,-369.35
34.718,-327.54
34.734,-276.93
34.750,-221.71
34.765,-164.47
34.781,-106.11
34.796,-46.77
34.812,12.91
34.828,70.71
34.843,122.7
34.859,163.93
34.875,189.94
34.890,198.34
34.906,189.76
34.921,167.78
34.937,137.82
34.953,105.44
34.968,74.79
34.984,48.07
35.000,26.04
35.015,8.92
35.031,-3.0
35.046,-9.54
35.062,-11.22
35.078,-9.75
35.093,-7.7
35.109,-7.36
35.125,-9.67
35.140,-13.6
35.156,-16.71
35.171,-16.37
35.187,-11.15
35.203,-1.66
35.218,9.46
35.234,18.64
35.250,22.84
35.265,20.85
35.281,13.85
35.296,4.96
35.312,-2.12
35.328,-4.75
35.343,-2.17
35.359,4.23
35.375,11.89
35.390,18.31
35.406,22.05
35.421,23.09
35.437,22.48
35.453,21.55
35.468,21.24
35.484,21.89
35.500,23.31
35.515,25.32
35.531,27.93
35.546,31.12
35.562,34.54
35.578,37.17
35.593,37.59
35.609,34.63
35.625,28.09
35.640,19.07
35.656,9.64
35.671,1.91
35.687,-2.85
35.703,-4.64
35.718,-4.51
35.734,-3.9
35.750,-3.93
35.765,-5.13
35.781,-7.46
35.796,-10.54
35.812,-13.69
35.828,-15.99
35.843,-16.22
35.859,-13.23
35.875,-6.46
35.890,3.55
35.906,15.02
35.921,25.42
35.937,32.51
35.953,35.21
35.968,34.15
35.984,31.29
36.000,28.86
36.015,28.12
36.031,28.64
36.046,28.47
36.062,25.02
36.078,16.58
36.093,3.29
36.109,-12.5
36.125,-27.01
36.140,-36.47
36.156,-38.58
36.171,-33.37
36.187,-22.93
36.203,-10.54
36.218,0.68
36.234,8.58
36.250,12.43
36.265,12.48
36.281,9.6
36.296,4.74
36.312,-1.13
36.328,-7.1
36.343,-12.33
36.359,-16.22
36.375,-18.7
36.390,-20.18
36.406,-21.35
36.421,-22.72
36.437,-24.23
36.453,-25.23
36.468,-24.71
36.484,-21.87
36.500,-16.47
36.515,-9.11
36.531,-1.18
36.546,5.68
36.562,9.98
36.578,10.9
36.593,8.55
36.609,3.9
36.625,-1.61
36.640,-6.56
36.656,-10.18
36.671,-12.51
36.687,-14.28
36.703,-16.43
36.718,-19.38
36.734,-22.81
36.750,-25.64
36.765,-26.49
36.781,-24.26
36.796,-18.59
36.812,-10.0
36.828,0.2
36.843,10.25
36.859,18.44
36.875,23.63
36.890,25.57
36.906,24.98
36.921,23.19
36.937,21.54
36.953,20.78
36.968,20.75
36.984,20.44
37.000,18.62
37.015,14.6
37.031,8.68
37.046,2.19
37.062,-3.06
37.078,-5.44
37.093,-4.24
37.109,0.22
37.125,6.67
37.140,13.46
37.156,19.07
37.171,22.43
37.187,23.13
37.203,21.38
37.218,17.87
37.234,13.6
37.250,9.54
37.265,6.37
37.281,4.18
37.296,2.49
37.312,0.46
37.328,-2.61
37.343,-6.9
37.359,-11.85
37.375,-16.34
37.390,-19.22
37.406,-19.74
37.421,-17.86
37.437,-14.2
37.453,-9.77
37.468,-5.69
37.484,-2.87
37.500,-1.81
37.515,-2.49
37.531,-4.3
37.546,-6.19
37.562,-7.07
37.578,-6.2
37.593,-3.56
37.609,0.12
37.625,3.69
37.640,6.2
37.656,7.24
37.671,7.11
37.687,6.56
37.703,6.33
37.718,6.93
37.734,8.58
37.750,11.38
37.765,15.37
37.781,20.38
37.796,25.83
37.812,30.68
37.828,33.76
37.843,34.21
37.859,31.99
37.875,28.01
37.890,23.74
37.906,20.48
37.921,18.71
37.937,18.0
37.953,17.22
37.968,15.29
37.984,11.66
38.000,6.63
38.015,1.18
38.031,-3.4
38.046,-5.96
38.062,-5.94
38.078,-3.57
38.093,0.21
38.109,3.93
38.125,6.07
38.140,5.58
38.156,2.23
38.171,-3.26
38.187,-9.49
38.203,-14.81
38.218,-17.94
38.234,-18.42
38.250,-16.8
38.265,-14.51
38.281,-13.32
38.296,-14.68
38.312,-19.13
38.328,-25.94
38.343,-33.31
38.359,-38.95
38.375,-40.97
38.390,-38.5
38.406,-32.06
38.421,-23.22
38.437,-13.96
38.453,-6.02
38.468,-0.29
38.484,3.22
38.500,5.2
38.515,6.54
38.531,7.93
38.546,9.64
38.562,11.46
38.578,12.89
38.593,13.37
38.609,12.55
38.625,10.44
38.640,7.37
38.656,4.0
38.671,1.14
38.687,-0.31
38.703,0.36
38.718,3.42
38.734,8.48
38.750,14.43
38.765,19.67
38.781,22.72
38.796,22.79
38.812,20.16
38.828,16.14
38.843,12.42
38.859,10.33
38.875,10.14
38.890,11.02
38.906,11.49
38.921,10.15
38.937,6.4
38.953,0.69
38.968,-5.74
38.984,-11.31
39.000,-14.64
39.015,-15.01
39.031,-12.46
39.046,-7.88
39.062,-2.75
39.078,1.19
39.093,2.56
39.109,0.84
39.125,-3.37
39.140,-8.55
39.156,-12.87
39.171,-15.05
39.187,-14.77
39.203,-12.81
39.218,-10.54
39.234,-9.27
39.250,-9.71
39.265,-11.72
39.281,-14.43
39.296,-16.51
39.312,-16.64
39.328,-13.93
39.343,-8.22
39.359,-0.28
39.375,8.38
39.390,15.81
39.406,20.36
39.421,21.2
39.437,18.67
39.453,14.16
39.468,9.49
39.484,6.17
39.500,4.79
39.515,4.96
39.531,5.56
39.546,5.43
39.562,3.9
39.578,1.08
39.593,-2.28
39.609,-5.21
39.625,-6.95
39.640,-7.16
39.656,-5.9
39.671,-3.44
39.687,-0.07
39.703,3.8
39.718,7.59
39.734,10.51
39.750,11.81
39.765,11.05
39.781,8.36
39.796,4.39
39.812,0.03
39.828,-4.0
39.843,-7.39
39.859,-10.24
39.875,-12.78
39.890,-15.1
39.906,-17.2
39.921,-19.06
39.937,-20.78
39.953,-22.62
39.968,-24.6
39.984,-26.28
40.000,-26.8
40.015,-25.31
40.031,-21.58
40.046,-16.37
40.062,-11.18
40.078,-7.55
40.093,-6.2
40.109,-6.59
40.125,-7.16
40.140,-6.16
40.156,-2.65
40.171,3.02
40.187,9.4
40.203,14.57
40.218,17.14
40.234,16.77
40.250,14.25
40.265,10.96
40.281,8.33
40.296,7.19
40.312,7.74
40.328,9.64
40.343,12.43
40.359,15.64
40.375,18.83
40.390,21.5
40.406,23.06
40.421,22.96
40.437,20.94
40.453,17.22
40.468,12.48
40.484,7.72
40.500,3.94
40.515,1.81
40.531,1.48
40.546,2.57
40.562,4.25
40.578,5.55
40.593,5.75
40.609,4.7
40.625,2.91
40.640,1.37
40.656,0.95
40.671,1.95
40.687,3.87
40.703,5.65
40.718,6.3
40.734,5.39
40.750,3.27
40.765,0.69
40.781,-1.65
40.796,-3.64
40.812,-5.62
40.828,-8.11
40.843,-11.34
40.859,-14.99
40.875,-18.33
40.890,-20.67
40.906,-21.6
40.921,-21.18
40.937,-19.69
40.953,-17.33
40.968,-14.07
40.984,-9.71
41.000,-4.18
41.015,2.22
41.031,8.66
41.046,14.03
41.062,17.3
41.078,17.97
41.093,16.3
41.109,13.21
41.125,9.93
41.140,7.58
41.156,6.73
41.171,7.34
41.187,8.83
41.203,10.38
41.218,11.26
41.234,11.02
41.250,9.57
41.265,7.23
41.281,4.64
41.296,2.6
41.312,1.9
41.328,2.98
41.343,5.7
41.359,9.21
41.375,12.26
41.390,13.63
41.406,12.69
41.421,9.78
41.437,5.98
41.453,2.66
41.468,0.84
41.484,0.71
41.500,1.65
41.515,2.59
41.531,2.47
41.546,0.71
41.562,-2.64
41.578,-6.99
41.593,-11.4
41.609,-14.93
41.625,-16.8
41.640,-16.67
41.656,-14.7
41.671,-11.68
41.687,-8.73
41.703,-7.06
41.718,-7.39
41.734,-9.69
41.750,-13.11
41.765,-16.32
41.781,-18.06
41.796,-17.63
41.812,-15.25
41.828,-11.79
41.843,-8.41
41.859,-6.05
41.875,-5.07
41.890,-5.23
41.906,-5.95
41.921,-6.6
41.937,-6.65
41.953,-5.74
41.968,-3.56
41.984,0.09
42.000,5.12
42.015,11.01
42.031,16.71
42.046,20.93
42.062,22.59
42.078,21.29
42.093,17.6
42.109,12.83
42.125,8.51
42.140,5.81
42.156,5.14
42.171,6.08
42.187,7.82
42.203,9.47
42.218,10.34
42.234,9.98
42.250,8.06
42.265,4.34
42.281,-1.1
42.296,-7.57
42.312,-13.67
42.328,-17.52
42.343,-17.63
42.359,-13.78
42.375,-7.41
42.390,-1.23
42.406,1.96
42.421,0.7
42.437,-4.43
42.453,-11.05
42.468,-16.2
42.484,-17.83
42.500,-15.74
42.515,-11.46
42.531,-7.39
42.546,-5.46
42.562,-6.37
42.578,-9.51
42.593,-13.53
42.609,-17.04
42.625,-19.18
42.640,-19.57
42.656,-18.17
42.671,-14.99
42.687,-10.13
42.703,-4.03
42.718,2.32
42.734,7.48
42.750,10.1
42.765,9.52
42.781,6.28
42.796,2.05
42.812,-1.12
42.828,-1.63
42.843,0.88
42.859,5.4
42.875,10.07
42.890,13.0
42.906,13.09
42.921,10.36
42.937,5.94
42.953,1.43
42.968,-1.49
42.984,-1.79
43.000,0.71
43.015,5.2
43.031,10.16
43.046,13.96
43.062,15.39
43.078,14.27
43.093,11.37
43.109,8.08
43.125,5.57
43.140,4.29
43.156,3.76
43.171,3.03
43.187,1.24
43.203,-1.86
43.218,-5.78
43.234,-9.63
43.250,-12.49
43.265,-13.88
43.281,-13.71
43.296,-12.34
43.312,-10.25
43.328,-8.05
43.343,-6.3
43.359,-5.5
43.375,-5.91
43.390,-7.44
43.406,-9.7
43.421,-12.11
43.437,-14.11
43.453,-15.38
43.468,-15.89
43.484,-15.84
43.500,-15.56
43.515,-15.2
43.531,-14.57
43.546,-13.13
43.562,-10.17
43.578,-5.19
43.593,1.61
43.609,9.19
43.625,15.94
43.640,20.32
43.656,21.64
43.671,20.44
43.687,18.24
43.703,16.78
43.718,17.06
43.734,18.83
43.750,20.76
43.765,21.25
43.781,19.28
43.796,14.87
43.812,9.06
43.828,3.35
43.843,-0.92
43.859,-2.99
43.875,-2.83
43.890,-0.87
43.906,2.23
43.921,5.74
43.937,8.97
43.953,11.25
43.968,12.14
43.984,11.46
44.000,9.48
44.015,6.83
44.031,4.27
44.046,2.36
44.062,1.13
44.078,0.09
44.093,-1.52
44.109,-4.35
44.125,-8.47
44.140,-13.3
44.156,-17.68
44.171,-20.44
44.187,-20.87
44.203,-19.0
44.218,-15.65
44.234,-12.05
44.250,-9.34
44.265,-8.16
44.281,-8.45
44.296,-9.5
44.312,-10.38
44.328,-10.24
44.343,-8.79
44.359,-6.38
44.375,-3.94
44.390,-2.6
44.406,-3.18
44.421,-5.68
44.437,-9.2
44.453,-12.21
44.468,-13.05
44.484,-10.75
44.500,-5.35
44.515,2.11
44.531,10.0
44.546,16.78
44.562,21.5
44.578,23.94
44.593,24.54
44.609,24.07
44.625,23.3
44.640,22.64
44.656,22.17
44.671,21.64
44.687,20.62
44.703,18.73
44.718,15.88
44.734,12.25
44.750,8.32
44.765,4.62
44.781,1.58
44.796,-0.38
44.812,-0.96
44.828,0.01
44.843,2.42
44.859,5.62
44.875,8.47
44.890,9.7
44.906,8.49
44.921,4.94
44.937,0.15
44.953,-4.33
44.968,-7.31
44.984,-8.64
45.000,-9.31
45.015,-10.85
45.031,-14.42
45.046,-20.11
45.062,-26.84
45.078,-32.86
45.093,-36.63
45.109,-37.46
45.125,-35.69
45.140,-32.24
45.156,-28.15
45.171,-24.14
45.187,-20.5
45.203,-17.27
45.218,-14.32
45.234,-11.52
45.250,-8.73
45.265,-5.83
45.281,-2.74
45.296,0.46
45.312,3.51
45.328,6.13
45.343,8.14
45.359,9.62
45.375,10.81
45.390,11.92
45.406,12.96
45.421,13.76
45.437,14.18
45.453,14.33
45.468,14.61
45.484,15.34
45.500,16.49
45.515,17.52
45.531,17.63
45.546,16.27
45.562,13.47
45.578,9.9
45.593,6.43
45.609,3.69
45.625,1.68
45.640,-0.04
45.656,-2.0
45.671,-4.38
45.687,-6.86
45.703,-8.82
45.718,-9.66
45.734,-9.12
45.750,-7.41
45.765,-5.11
45.781,-3.03
45.796,-1.92
45.812,-2.2
45.828,-3.66
45.843,-5.56
45.859,-6.76
45.875,-6.36
45.890,-4.24
45.906,-1.28
45.921,0.89
45.937,0.72
45.953,-2.44
45.968,-7.87
45.984,-13.76
46.000,-17.98
46.015,-19.02
46.031,-16.51
46.046,-11.18
46.062,-4.4
46.078,2.38
46.093,8.0
46.109,11.74
46.125,13.4
46.140,13.27
46.156,12.08
46.171,10.83
46.187,10.48
46.203,11.47
46.218,13.56
46.234,15.78
46.250,16.9
46.265,15.91
46.281,12.54
46.296,7.31
46.312,1.43
46.328,-3.56
46.343,-6.31
46.359,-6.0
46.375,-2.58
46.390,3.18
46.406,9.87
46.421,15.89
46.437,19.84
46.453,21.0
46.468,19.43
46.484,15.82
46.500,11.2
46.515,6.54
46.531,2.57
46.546,-0.31
46.562,-2.02
46.578,-2.71
46.593,-2.69
46.609,-2.42
46.625,-2.44
46.640,-3.32
46.656,-5.5
46.671,-9.12
46.687,-13.91
46.703,-19.13
46.718,-23.72
46.734,-26.55
46.750,-26.87
46.765,-24.69
46.781,-20.88
46.796,-16.92
46.812,-14.3
46.828,-13.73
46.843,-14.78
46.859,-15.95
46.875,-15.34
46.890,-11.64
46.906,-4.8
46.921,3.77
46.937,11.77
46.953,16.97
46.968,18.15
46.984,15.71
47.000,11.45
47.015,7.84
47.031,6.95
47.046,9.53
47.062,14.74
47.078,20.54
47.093,24.61
47.109,25.32
47.125,22.44
47.140,16.99
47.156,10.65
47.171,4.98
47.187,0.78
47.203,-1.88
47.218,-3.21
47.234,-3.23
47.250,-1.53
47.265,2.3
47.281,8.2
47.296,15.15
47.312,21.34
47.328,24.86
47.343,24.52
47.359,20.37
47.375,13.61
47.390,5.96
47.406,-1.02
47.421,-6.32
47.437,-9.48
47.453,-10.35
47.468,-8.94
47.484,-5.45
47.500,-0.53
47.515,4.7
47.531,8.83
47.546,10.59
47.562,9.25
47.578,4.77
47.593,-2.22
47.609,-10.72
47.625,-19.5
47.640,-27.37
47.656,-33.22
47.671,-36.16
47.687,-35.7
47.703,-31.89
47.718,-25.23
47.734,-16.67
47.750,-7.3
47.765,1.76
47.781,9.49
47.796,15.03
47.812,17.79
47.828,17.59
47.843,14.84
47.859,10.58
47.875,6.27
47.890,3.46
47.906,3.26
47.921,5.96
47.937,10.96
47.953,17.03
47.968,22.84
47.984,27.47
48.000,30.62
48.015,32.4
48.031,32.91
48.046,31.96
48.062,29.13
48.078,24.09
48.093,17.18
48.109,9.44
48.125,2.31
48.140,-3.07
48.156,-6.39
48.171,-8.12
48.187,-8.99
48.203,-9.31
48.218,-8.63
48.234,-6.09
48.250,-1.29
48.265,5.03
48.281,10.92
48.296,14.02
48.312,12.7
48.328,7.0
48.343,-1.36
48.359,-9.8
48.375,-15.97
48.390,-18.73
48.406,-18.41
48.421,-16.28
48.437,-13.76
48.453,-11.83
48.468,-10.68
48.484,-10.17
48.500,-10.21
48.515,-11.0
48.531,-12.91
48.546,-16.14
48.562,-20.24
48.578,-24.14
48.593,-26.58
48.609,-26.61
48.625,-24.12
48.640,-19.72
48.656,-14.32
48.671,-8.52
48.687,-2.5
48.703,3.83
48.718,10.26
48.734,15.98
48.750,19.86
48.765,21.02
48.781,19.48
48.796,16.25
48.812,12.89
48.828,10.72
48.843,10.37
48.859,11.68
48.875,14.15
48.890,17.31
48.906,20.88
48.921,24.63
48.937,28.11
48.953,30.71
48.968,31.81
48.984,31.08
49.000,28.53
49.015,24.41
49.031,19.04
49.046,12.67
49.062,5.66
49.078,-1.44
49.093,-7.89
49.109,-12.99
49.125,-16.34
49.140,-17.86
49.156,-17.78
49.171,-16.35
49.187,-13.86
49.203,-10.66
49.218,-7.36
49.234,-4.86
49.250,-4.05
49.265,-5.46
49.281,-9.0
49.296,-13.91
49.312,-19.06
49.328,-23.25
49.343,-25.49
49.359,-25.21
49.375,-22.27
49.390,-17.02
49.406,-10.19
49.421,-2.73
49.437,4.34
49.453,10.3
49.468,14.67
49.484,17.23
49.500,17.87
49.515,16.53
49.531,13.37
49.546,8.88
49.562,4.02
49.578,-0.18
49.593,-2.86
49.609,-3.75
49.625,-3.12
49.640,-1.46
49.656,0.73
49.671,3.17
49.687,5.62
49.703,7.69
49.718,8.9
49.734,8.9
49.750,7.77
49.765,6.04
49.781,4.45
49.796,3.41
49.812,2.79
49.828,2.04
49.843,0.71
49.859,-1.07
49.875,-2.5
49.890,-2.43
49.906,-0.21
49.921,3.82
49.937,8.25
49.953,11.16
49.968,10.95
49.984,7.14
50.000,0.44
50.015,-7.5
50.031,-14.88
50.046,-20.4
50.062,-23.59
50.078,-24.75
50.093,-24.43
50.109,-23.09
50.125,-20.9
50.140,-18.0
50.156,-14.68
50.171,-11.59
50.187,-9.35
50.203,-8.21
50.218,-7.82
50.234,-7.4
50.250,-6.26
50.265,-4.37
50.281,-2.33
50.296,-1.05
50.312,-0.9
50.328,-1.29
50.343,-0.71
50.359,2.38
50.375,8.5
50.390,16.6
50.406,24.18
50.421,28.39
50.437,27.23
50.453,20.57
50.468,10.21
50.484,-0.71
50.500,-9.05
50.515,-12.73
50.531,-11.33
50.546,-6.04
50.562,1.06
50.578,7.78
50.593,12.64
50.609,15.18
50.625,15.83
50.640,15.42
50.656,14.65
50.671,13.61
50.687,11.77
50.703,8.38
50.718,3.09
50.734,-3.62
50.750,-10.24
50.765,-14.66
50.781,-15.12
50.796,-10.97
50.812,-3.23
50.828,5.63
50.843,12.6
50.859,15.31
50.875,13.02
50.890,6.86
50.906,-0.77
50.921,-7.37
50.937,-11.46
50.953,-13.06
50.968,-13.43
50.984,-14.04
51.000,-15.65
51.015,-17.85
51.031,-19.35
51.046,-18.84
51.062,-15.82
51.078,-11.01
51.093,-6.0
51.109,-2.56
51.125,-1.81
51.140,-3.63
51.156,-6.69
51.171,-8.91
51.187,-8.36
51.203,-4.09
51.218,3.3
51.234,11.66
51.250,18.09
51.265,20.12
51.281,16.89
51.296,9.68
51.312,1.38
51.328,-4.72
51.343,-6.44
51.359,-3.71
51.375,1.59
51.390,6.65
51.406,9.33
51.421,9.16
51.437,7.4
51.453,6.11
51.468,6.77
51.484,9.37
51.500,12.33
51.515,13.46
51.531,11.14
51.546,5.42
51.562,-1.99
51.578,-8.34
51.593,-11.18
51.609,-9.28
51.625,-3.27
51.640,4.59
51.656,11.23
51.671,13.9
51.687,11.18
51.703,3.58
51.718,-6.63
51.734,-16.3
51.750,-22.66
51.765,-24.54
51.781,-22.73
51.796,-19.47
51.812,-17.19
51.828,-17.28
51.843,-19.36
51.859,-21.74
51.875,-22.44
51.890,-20.38
51.906,-15.94
51.921,-10.73
51.937,-6.66
51.953,-4.99
51.968,-5.72
51.984,-7.63
52.000,-8.83
52.015,-7.62
52.031,-3.15
52.046,4.14
52.062,12.72
52.078,20.46
52.093,25.45
52.109,26.68
52.125,24.28
52.140,19.34
52.156,13.39
52.171,7.67
52.187,2.9
52.203,-0.75
52.218,-3.28
52.234,-4.52
52.250,-4.07
52.265,-1.47
52.281,3.19
52.296,9.01
52.312,14.38
52.328,17.58
52.343,17.55
52.359,14.39
52.375,9.33
52.390,4.08
52.406,0.04
52.421,-2.34
52.437,-3.46
52.453,-4.01
52.468,-4.42
52.484,-4.57
52.500,-4.04
52.515,-2.67
52.531,-0.94
52.546,0.21
52.562,-0.12
52.578,-2.21
52.593,-5.48
52.609,-8.93
52.625,-11.71
52.640,-13.48
52.656,-14.46
52.671,-14.99
52.687,-15.12
52.703,-14.46
52.718,-12.4
52.734,-8.66
52.750,-3.69
52.765,1.35
52.781,5.0
52.796,6.2
52.812,4.78
52.828,1.67
52.843,-1.53
52.859,-3.14
52.875,-2.11
52.890,1.6
52.906,6.98
52.921,12.4
52.937,16.11
52.953,17.05
52.968,15.17
52.984,11.45
53.000,7.52
53.015,4.99
53.031,4.7
53.046,6.35
53.062,8.58
53.078,9.66
53.093,8.42
53.109,5.06
53.125,1.07
53.140,-1.53
53.156,-1.39
53.171,1.23
53.187,4.56
53.203,6.22
53.218,4.59
53.234,-0.17
53.250,-6.15
53.265,-10.58
53.281,-11.2
53.296,-7.45
53.312,-0.74
53.328,6.21
53.343,10.47
53.359,10.19
53.375,5.15
53.390,-3.12
53.406,-12.12
53.421,-19.27
53.437,-22.83
53.453,-22.49
53.468,-19.22
53.484,-14.73
53.500,-10.62
53.515,-7.79
53.531,-6.32
53.546,-5.76
53.562,-5.57
53.578,-5.45
53.593,-5.42
53.609,-5.62
53.625,-6.12
53.640,-6.71
53.656,-6.95
53.671,-6.32
53.687,-4.23
53.703,-0.29
53.718,5.65
53.734,13.24
53.750,21.53
53.765,29.07
53.781,34.23
53.796,35.73
53.812,33.12
53.828,27.03
53.843,18.9
53.859,10.42
53.875,2.97
53.890,-2.72
53.906,-6.5
53.921,-8.5
53.937,-8.86
53.953,-7.76
53.968,-5.55
53.984,-3.0
54.000,-1.14
54.015,-0.87
54.031,-2.5
54.046,-5.54
54.062,-9.0
54.078,-11.89
54.093,-13.77
54.109,-14.77
54.125,-15.26
54.140,-15.25
54.156,-14.24
54.171,-11.47
54.187,-6.5
54.203,0.1
54.218,6.76
54.234,11.26
54.250,11.66
54.265,6.99
54.281,-2.23
54.296,-14.21
54.312,-26.48
54.328,-36.53
54.343,-42.51
54.359,-43.6
54.375,-40.08
54.390,-33.06
54.406,-24.27
54.421,-15.56
54.437,-8.48
54.453,-4.02
54.468,-2.45
54.484,-3.45
54.500,-6.4
54.515,-10.67
54.531,-15.65
54.546,-20.68
54.562,-24.82
54.578,-26.84
54.593,-25.45
54.609,-19.83
54.625,-10.18
54.640,2.02
54.656,14.32
54.671,24.02
54.687,29.13
54.703,29.08
54.718,24.83
54.734,18.41
54.750,12.12
54.765,7.67
54.781,5.82
54.796,6.33
54.812,8.36
54.828,10.86
54.843,13.04
54.859,14.39
54.875,14.71
54.890,13.95
54.906,12.12
54.921,9.18
54.937,5.13
54.953,0.09
54.968,-5.54
54.984,-11.03
55.000,-15.28
55.015,-17.11
55.031,-15.65
55.046,-10.81
55.062,-3.59
55.078,4.01
55.093,9.55
55.109,11.08
55.125,7.93
55.140,0.99
55.156,-7.61
55.171,-15.34
55.187,-20.3
55.203,-21.69
55.218,-19.91
55.234,-16.09
55.250,-11.44
55.265,-6.9
55.281,-3.06
55.296,-0.21
55.312,1.51
55.328,2.13
55.343,1.91
55.359,1.24
55.375,0.48
55.390,-0.24
55.406,-1.01
55.421,-1.88
55.437,-2.55
55.453,-2.29
55.468,-0.27
55.484,3.95
55.500,9.99
55.515,16.62
55.531,22.21
55.546,25.38
55.562,25.44
55.578,22.51
55.593,17.29
55.609,10.69
55.625,3.66
55.640,-2.8
55.656,-7.55
55.671,-9.38
55.687,-7.38
55.703,-1.49
55.718,7.14
55.734,16.14
55.750,22.73
55.765,24.74
55.781,21.46
55.796,13.9
55.812,4.26
55.828,-5.1
55.843,-12.5
55.859,-17.37
55.875,-20.0
55.890,-20.85
55.906,-20.18
55.921,-17.92
55.937,-14.14
55.953,-9.39
55.968,-4.88
55.984,-2.11
56.000,-2.27
56.015,-5.59
56.031,-11.12
56.046,-17.12
56.062,-21.68
56.078,-23.45
56.093,-22.0
56.109,-17.86
56.125,-12.11
56.140,-5.99
56.156,-0.56
56.171,3.54
56.187,6.04
56.203,6.93
56.218,6.34
56.234,4.61
56.250,2.21
56.265,-0.16
56.281,-1.7
56.296,-1.63
56.312,0.57
56.328,4.85
56.343,10.43
56.359,15.96
56.375,20.0
56.390,21.61
56.406,20.8
56.421,18.6
56.437,16.46
56.453,15.6
56.468,16.42
56.484,18.51
56.500,20.95
56.515,22.9
56.531,23.94
56.546,23.97
56.562,22.91
56.578,20.5
56.593,16.4
56.609,10.54
56.625,3.52
56.640,-3.51
56.656,-9.28
56.671,-13.07
56.687,-14.97
56.703,-15.82
56.718,-16.64
56.734,-18.02
56.750,-19.9
56.765,-21.64
56.781,-22.35
56.796,-21.41
56.812,-18.93
56.828,-15.88
56.843,-14.08
56.859,-15.83
56.875,-22.73
56.890,-34.73
56.906,-49.33
56.921,-62.22
56.937,-68.76
56.953,-66.27
56.968,-55.22
56.984,-39.04
57.000,-22.32
57.015,-8.64
57.031,0.77
57.046,6.82
57.062,11.12
57.078,14.61
57.093,17.15
57.109,18.29
57.125,18.46
57.140,19.36
57.156,23.11
57.171,30.61
57.187,40.5
57.203,49.44
57.218,53.75
57.234,51.33
57.250,42.92
57.265,31.66
57.281,21.6
57.296,15.79
57.312,15.05
57.328,17.82
57.343,21.24
57.359,22.46
57.375,19.89
57.390,13.77
57.406,5.84
57.421,-1.47
57.437,-5.97
57.453,-6.7
57.468,-4.02
57.484,0.79
57.500,6.24
57.515,11.34
57.531,15.75
57.546,19.45
57.562,22.3
57.578,23.89
57.593,23.68
57.609,21.27
57.625,16.6
57.640,9.76
57.656,0.8
57.671,-10.23
57.687,-22.82
57.703,-35.52
57.718,-45.96
57.734,-51.55
57.750,-50.67
57.765,-43.44
57.781,-31.62
57.796,-17.55
57.812,-2.89
57.828,11.91
57.843,26.8
57.859,40.9
57.875,51.37
57.890,54.06
57.906,45.46
57.921,25.18
57.937,-2.58
57.953,-30.1
57.968,-49.07
57.984,-54.32
58.000,-45.94
58.015,-28.81
58.031,-9.73
58.046,6.03
58.062,16.77
58.078,23.9
58.093,29.62
58.109,34.62
58.125,37.22
58.140,34.64
58.156,25.22
58.171,10.22
58.187,-6.41
58.203,-19.79
58.218,-26.55
58.234,-26.12
58.250,-20.28
58.265,-11.51
58.281,-1.46
58.296,9.43
58.312,20.9
58.328,31.53
58.343,38.16
58.359,37.05
58.375,25.96
58.390,6.07
58.406,-17.81
58.421,-39.13
58.437,-52.46
58.453,-55.85
58.468,-51.23
58.484,-42.63
58.500,-33.38
58.515,-24.33
58.531,-13.93
58.546,-0.37
58.562,15.88
58.578,31.08
58.593,39.47
58.609,36.27
58.625,20.79
58.640,-2.65
58.656,-26.28
58.671,-42.19
58.687,-45.71
58.703,-36.8
58.718,-19.3
58.734,1.44
58.750,20.91
58.765,36.52
58.781,47.23
58.796,52.57
58.812,52.17
58.828,46.05
58.843,35.37
58.859,22.82
58.875,11.94
58.890,5.64
58.906,4.96
58.921,8.69
58.937,14.22
58.953,18.9
58.968,21.07
58.984,20.25
59.000,16.6
59.015,10.4
59.031,1.9
59.046,-8.22
59.062,-18.51
59.078,-27.01
59.093,-31.98
59.109,-32.85
59.125,-30.44
59.140,-26.4
59.156,-22.2
59.171,-18.41
59.187,-14.74
59.203,-10.9
59.218,-7.38
59.234,-5.55
59.250,-6.91
59.265,-11.92
59.281,-19.37
59.296,-26.84
59.312,-31.9
59.328,-33.39
59.343,-31.92
59.359,-29.07
59.375,-26.12
59.390,-23.03
59.406,-18.41
59.421,-10.77
59.437,0.07
59.453,12.36
59.468,22.87
59.484,28.54
59.500,28.07
59.515,22.63
59.531,15.26
59.546,9.23
59.562,6.49
59.578,6.94
59.593,8.97
59.609,10.9
59.625,12.25
59.640,14.19
59.656,18.71
59.671,26.97
59.687,37.9
59.703,47.94
59.718,52.24
59.734,47.04
59.750,31.83
59.765,10.14
59.781,-11.64
59.796,-26.92
59.812,-31.71
59.828,-26.1
59.843,-13.59
59.859,0.89
59.875,13.41
59.890,22.29
59.906,27.66
59.921,30.14
59.937,29.44
59.953,24.3
59.968,13.54
59.984,-2.32
