timestamp,value
00.000,-22.29
00.015,-24.65
00.031,-27.12
00.046,-29.79
00.062,-32.75
00.078,-35.95
00.093,-39.17
00.109,-41.98
00.125,-43.77
00.140,-44.02
00.156,-42.38
00.171,-38.83
00.187,-33.71
00.203,-27.59
00.218,-21.12
00.234,-14.85
00.250,-9.11
00.265,-3.99
00.281,0.54
00.296,4.58
00.312,8.19
00.328,11.41
00.343,14.25
00.359,16.76
00.375,18.92
00.390,20.67
00.406,21.88
00.421,22.48
00.437,22.44
00.453,21.87
00.468,20.99
00.484,20.09
00.500,19.36
00.515,18.92
00.531,18.73
00.546,18.67
00.562,18.63
00.578,18.48
00.593,18.19
00.609,17.78
00.625,17.28
00.640,16.71
00.656,16.07
00.671,15.26
00.687,14.22
00.703,12.86
00.718,11.19
00.734,9.32
00.750,7.38
00.765,5.52
00.781,3.75
00.796,2.04
00.812,0.32
00.828,-1.47
00.843,-3.44
00.859,-5.61
00.875,-8.07
00.890,-10.87
00.906,-14.04
00.921,-17.52
00.937,-21.12
00.953,-24.63
00.968,-27.86
00.984,-30.73
01.000,-33.27
01.015,-35.56
01.031,-37.54
01.046,-38.99
01.062,-39.54
01.078,-38.72
01.093,-36.36
01.109,-32.5
01.125,-27.47
01.140,-21.85
01.156,-16.22
01.171,-10.99
01.187,-6.33
01.203,-2.26
01.218,1.34
01.234,4.52
01.250,7.31
01.265,9.72
01.281,11.74
01.296,13.42
01.312,14.83
01.328,16.12
01.343,17.4
01.359,18.7
01.375,19.96
01.390,21.04
01.406,21.81
01.421,22.13
01.437,22.03
01.453,21.63
01.468,21.14
01.484,20.73
01.500,20.51
01.515,20.39
01.531,20.25
01.546,19.99
01.562,19.58
01.578,19.12
01.593,18.67
01.609,18.28
01.625,17.81
01.640,17.15
01.656,16.09
01.671,14.57
01.687,12.68
01.703,10.59
01.718,8.44
01.734,6.26
01.750,3.96
01.765,1.33
01.781,-1.8
01.796,-5.49
01.812,-9.56
01.828,-13.65
01.843,-17.4
01.859,-20.53
01.875,-23.04
01.890,-25.11
01.906,-27.06
01.921,-29.15
01.937,-31.48
01.953,-33.96
01.968,-36.33
01.984,-38.27
02.000,-39.38
02.015,-39.33
02.031,-37.83
02.046,-34.82
02.062,-30.42
02.078,-24.94
02.093,-18.89
02.109,-12.73
02.125,-6.85
02.140,-1.45
02.156,3.41
02.171,7.73
02.187,11.49
02.203,14.62
02.218,17.08
02.234,18.82
02.250,19.91
02.265,20.48
02.281,20.69
02.296,20.69
02.312,20.55
02.328,20.35
02.343,20.18
02.359,20.1
02.375,20.16
02.390,20.43
02.406,20.88
02.421,21.43
02.437,21.93
02.453,22.12
02.468,21.83
02.484,20.97
02.500,19.53
02.515,17.63
02.531,15.44
02.546,13.08
02.562,10.63
02.578,8.13
02.593,5.56
02.609,2.91
02.625,0.21
02.640,-2.54
02.656,-5.37
02.671,-8.27
02.687,-11.23
02.703,-14.12
02.718,-16.75
02.734,-19.02
02.750,-20.89
02.765,-22.46
02.781,-23.95
02.796,-25.55
02.812,-27.41
02.828,-29.53
02.843,-31.83
02.859,-34.08
02.875,-36.04
02.890,-37.34
02.906,-37.63
02.921,-36.64
02.937,-34.18
02.953,-30.28
02.968,-25.22
02.984,-19.43
03.000,-13.45
03.015,-7.78
03.031,-2.73
03.046,1.58
03.062,5.21
03.078,8.4
03.093,11.36
03.109,14.18
03.125,16.82
03.140,19.14
03.156,21.0
03.171,22.34
03.187,23.28
03.203,23.95
03.218,24.55
03.234,25.13
03.250,25.66
03.265,26.01
03.281,26.1
03.296,25.94
03.312,25.57
03.328,25.12
03.343,24.56
03.359,23.85
03.375,22.8
03.390,21.29
03.406,19.24
03.421,16.8
03.437,14.2
03.453,11.72
03.468,9.58
03.484,7.76
03.500,6.17
03.515,4.56
03.531,2.8
03.546,0.74
03.562,-1.58
03.578,-4.21
03.593,-7.09
03.609,-10.16
03.625,-13.35
03.640,-16.44
03.656,-19.31
03.671,-21.85
03.687,-24.15
03.703,-26.34
03.718,-28.59
03.734,-30.97
03.750,-33.45
03.765,-35.97
03.781,-38.36
03.796,-40.48
03.812,-42.07
03.828,-42.82
03.843,-42.32
03.859,-40.23
03.875,-36.44
03.890,-31.12
03.906,-24.72
03.921,-17.83
03.937,-11.06
03.953,-4.81
03.968,0.83
03.984,5.9
04.000,10.6
04.015,15.07
04.031,19.29
04.046,23.2
04.062,26.66
04.078,29.52
04.093,31.67
04.109,33.18
04.125,34.11
04.140,34.62
04.156,34.83
04.171,34.82
04.187,34.59
04.203,34.22
04.218,33.73
04.234,33.16
04.250,32.56
04.265,31.83
04.281,30.9
04.296,29.68
04.312,28.15
04.328,26.34
04.343,24.43
04.359,22.6
04.375,20.94
04.390,19.4
04.406,17.9
04.421,16.32
04.437,14.67
04.453,13.04
04.468,11.43
04.484,9.8
04.500,7.94
04.515,5.63
04.531,2.77
04.546,-0.58
04.562,-4.13
04.578,-7.57
04.593,-10.73
04.609,-13.65
04.625,-16.57
04.640,-19.71
04.656,-23.15
04.671,-26.77
04.687,-30.39
04.703,-33.86
04.718,-37.09
04.734,-40.06
04.750,-42.51
04.765,-44.02
04.781,-44.05
04.796,-42.15
04.812,-38.24
04.828,-32.68
04.843,-26.19
04.859,-19.47
04.875,-13.08
04.890,-7.24
04.906,-1.92
04.921,2.97
04.937,7.52
04.953,11.75
04.968,15.65
04.984,19.11
05.000,22.05
05.015,24.35
05.031,25.97
05.046,26.89
05.062,27.21
05.078,27.08
05.093,26.7
05.109,26.23
05.125,25.68
05.140,25.04
05.156,24.29
05.171,23.5
05.187,22.8
05.203,22.32
05.218,22.14
05.234,22.19
05.250,22.25
05.265,22.05
05.281,21.38
05.296,20.17
05.312,18.51
05.328,16.62
05.343,14.7
05.359,12.86
05.375,11.14
05.390,9.45
05.406,7.72
05.421,5.86
05.437,3.77
05.453,1.37
05.468,-1.36
05.484,-4.41
05.500,-7.66
05.515,-10.95
05.531,-14.15
05.546,-17.2
05.562,-20.16
05.578,-23.15
05.593,-26.39
05.609,-29.94
05.625,-33.76
05.640,-37.6
05.656,-41.01
05.671,-43.41
05.687,-44.19
05.703,-42.96
05.718,-39.62
05.734,-34.49
05.750,-28.15
05.765,-21.31
05.781,-14.56
05.796,-8.23
05.812,-2.44
05.828,2.85
05.843,7.63
05.859,11.77
05.875,15.12
05.890,17.53
05.906,18.99
05.921,19.66
05.937,19.88
05.953,19.99
05.968,20.24
05.984,20.69
06.000,21.22
06.015,21.7
06.031,22.05
06.046,22.31
06.062,22.57
06.078,22.94
06.093,23.35
06.109,23.6
06.125,23.43
06.140,22.64
06.156,21.18
06.171,19.17
06.187,16.86
06.203,14.41
06.218,11.92
06.234,9.41
06.250,6.86
06.265,4.38
06.281,2.13
06.296,0.29
06.312,-1.1
06.328,-2.11
06.343,-3.0
06.359,-4.04
06.375,-5.42
06.390,-7.2
06.406,-9.28
06.421,-11.6
06.437,-14.08
06.453,-16.73
06.468,-19.57
06.484,-22.64
06.500,-25.93
06.515,-29.38
06.531,-32.97
06.546,-36.58
06.562,-40.08
06.578,-43.11
06.593,-45.22
06.609,-45.9
06.625,-44.79
06.640,-41.81
06.656,-37.18
06.671,-31.38
06.687,-24.97
06.703,-18.4
06.718,-12.0
06.734,-5.86
06.750,0.01
06.765,5.6
06.781,10.83
06.796,15.53
06.812,19.5
06.828,22.6
06.843,24.8
06.859,26.18
06.875,26.91
06.890,27.19
06.906,27.22
06.921,27.14
06.937,27.01
06.953,26.87
06.968,26.8
06.984,26.81
07.000,26.87
07.015,26.91
07.031,26.8
07.046,26.41
07.062,25.63
07.078,24.41
07.093,22.83
07.109,21.04
07.125,19.22
07.140,17.44
07.156,15.72
07.171,14.04
07.187,12.29
07.203,10.4
07.218,8.32
07.234,6.01
07.250,3.5
07.265,0.8
07.281,-2.07
07.296,-5.09
07.312,-8.22
07.328,-11.41
07.343,-14.54
07.359,-17.42
07.375,-19.95
07.390,-22.01
07.406,-23.63
07.421,-24.95
07.437,-26.17
07.453,-27.5
07.468,-29.19
07.484,-31.34
07.500,-33.96
07.515,-36.87
07.531,-39.65
07.546,-41.72
07.562,-42.42
07.578,-41.24
07.593,-37.95
07.609,-32.79
07.625,-26.3
07.640,-19.13
07.656,-11.92
07.671,-5.09
07.687,1.19
07.703,6.85
07.718,11.91
07.734,16.38
07.750,20.21
07.765,23.42
07.781,25.98
07.796,27.97
07.812,29.47
07.828,30.58
07.843,31.29
07.859,31.66
07.875,31.66
07.890,31.28
07.906,30.61
07.921,29.75
07.937,28.82
07.953,28.0
07.968,27.33
07.984,26.76
08.000,26.09
08.015,25.17
08.031,23.82
08.046,22.05
08.062,19.99
08.078,17.71
08.093,15.39
08.109,13.07
08.125,10.75
08.140,8.39
08.156,5.96
08.171,3.51
08.187,1.13
08.203,-1.03
08.218,-2.9
08.234,-4.43
08.250,-5.7
08.265,-6.89
08.281,-8.09
08.296,-9.49
08.312,-11.2
08.328,-13.21
08.343,-15.52
08.359,-18.09
08.375,-20.89
08.390,-23.88
08.406,-27.09
08.421,-30.47
08.437,-33.97
08.453,-37.46
08.468,-40.63
08.484,-43.08
08.500,-44.38
08.515,-44.11
08.531,-42.03
08.546,-38.18
08.562,-32.82
08.578,-26.45
08.593,-19.67
08.609,-12.99
08.625,-6.83
08.640,-1.39
08.656,3.25
08.671,7.11
08.687,10.2
08.703,12.6
08.718,14.34
08.734,15.53
08.750,16.38
08.765,17.03
08.781,17.63
08.796,18.23
08.812,18.73
08.828,19.04
08.843,19.07
08.859,18.82
08.875,18.31
08.890,17.73
08.906,17.12
08.921,16.54
08.937,15.97
08.953,15.29
08.968,14.42
08.984,13.29
09.000,11.93
09.015,10.45
09.031,9.03
09.046,7.8
09.062,6.8
09.078,5.93
09.093,4.96
09.109,3.72
09.125,2.08
09.140,0.04
09.156,-2.36
09.171,-5.01
09.187,-7.79
09.203,-10.6
09.218,-13.29
09.234,-15.77
09.250,-17.95
09.265,-19.86
09.281,-21.55
09.296,-23.09
09.312,-24.6
09.328,-26.11
09.343,-27.71
09.359,-29.42
09.375,-31.27
09.390,-33.11
09.406,-34.64
09.421,-35.33
09.437,-34.67
09.453,-32.34
09.468,-28.36
09.484,-23.11
09.500,-17.17
09.515,-11.1
09.531,-5.32
09.546,-0.01
09.562,4.86
09.578,9.31
09.593,13.31
09.609,16.81
09.625,19.71
09.640,22.03
09.656,23.84
09.671,25.22
09.687,26.23
09.703,26.85
09.718,27.04
09.734,26.72
09.750,26.02
09.765,25.04
09.781,24.0
09.796,23.16
09.812,22.61
09.828,22.38
09.843,22.35
09.859,22.32
09.875,22.11
09.890,21.58
09.906,20.67
09.921,19.41
09.937,17.93
09.953,16.3
09.968,14.54
09.984,12.67
10.000,10.64
10.015,8.5
10.031,6.33
10.046,4.13
10.062,1.96
10.078,-0.2
10.093,-2.39
10.109,-4.61
10.125,-6.85
10.140,-9.15
10.156,-11.53
10.171,-14.1
10.187,-16.94
10.203,-20.03
10.218,-23.3
10.234,-26.63
10.250,-29.88
10.265,-33.02
10.281,-36.15
10.296,-39.36
10.312,-42.64
10.328,-45.73
10.343,-48.09
10.359,-49.08
10.375,-48.13
10.390,-44.95
10.406,-39.65
10.421,-32.78
10.437,-25.1
10.453,-17.43
10.468,-10.37
10.484,-4.19
10.500,1.08
10.515,5.62
10.531,9.64
10.546,13.26
10.562,16.5
10.578,19.31
10.593,21.63
10.609,23.48
10.625,24.92
10.640,25.99
10.656,26.75
10.671,27.23
10.687,27.47
10.703,27.54
10.718,27.53
10.734,27.44
10.750,27.25
10.765,26.89
10.781,26.28
10.796,25.43
10.812,24.41
10.828,23.32
10.843,22.24
10.859,21.16
10.875,19.99
10.890,18.63
10.906,17.02
10.921,15.21
10.937,13.26
10.953,11.31
10.968,9.4
10.984,7.55
11.000,5.76
11.015,3.96
11.031,2.04
11.046,-0.03
11.062,-2.27
11.078,-4.64
11.093,-7.03
11.109,-9.37
11.125,-11.58
11.140,-13.69
11.156,-15.75
11.171,-17.87
11.187,-20.1
11.203,-22.47
11.218,-24.99
11.234,-27.7
11.250,-30.65
11.265,-33.76
11.281,-36.81
11.296,-39.3
11.312,-40.67
11.328,-40.4
11.343,-38.26
11.359,-34.36
11.375,-29.1
11.390,-23.03
11.406,-16.64
11.421,-10.35
11.437,-4.38
11.453,1.03
11.468,5.75
11.484,9.69
11.500,12.91
11.515,15.56
11.531,17.83
11.546,19.81
11.562,21.5
11.578,22.76
11.593,23.51
11.609,23.75
11.625,23.64
11.640,23.37
11.656,23.08
11.671,22.79
11.687,22.46
11.703,22.09
11.718,21.69
11.734,21.32
11.750,21.03
11.765,20.8
11.781,20.52
11.796,20.07
11.812,19.26
11.828,18.04
11.843,16.41
11.859,14.46
11.875,12.29
11.890,10.02
11.906,7.73
11.921,5.41
11.937,3.05
11.953,0.53
11.968,-2.17
11.984,-5.04
12.000,-7.91
12.015,-10.55
12.031,-12.84
12.046,-14.74
12.062,-16.42
12.078,-18.14
12.093,-20.19
12.109,-22.69
12.125,-25.61
12.140,-28.84
12.156,-32.18
12.171,-35.51
12.187,-38.65
12.203,-41.33
12.218,-43.1
12.234,-43.41
12.250,-41.85
12.265,-38.25
12.281,-32.89
12.296,-26.33
12.312,-19.32
12.328,-12.45
12.343,-6.1
12.359,-0.4
12.375,4.68
12.390,9.14
12.406,12.91
12.421,15.86
12.437,17.92
12.453,19.05
12.468,19.42
12.484,19.24
12.500,18.77
12.515,18.32
12.531,18.07
12.546,18.17
12.562,18.71
12.578,19.65
12.593,20.92
12.609,22.35
12.625,23.76
12.640,24.85
12.656,25.47
12.671,25.38
12.687,24.53
12.703,22.97
12.718,20.9
12.734,18.6
12.750,16.3
12.765,14.14
12.781,12.06
12.796,9.98
12.812,7.79
12.828,5.46
12.843,3.1
12.859,0.83
12.875,-1.21
12.890,-3.01
12.906,-4.65
12.921,-6.29
12.937,-8.08
12.953,-10.14
12.968,-12.55
12.984,-15.28
13.000,-18.25
13.015,-21.3
13.031,-24.27
13.046,-27.08
13.062,-29.77
13.078,-32.5
13.093,-35.43
13.109,-38.6
13.125,-41.75
13.140,-44.46
13.156,-46.07
13.171,-46.01
13.187,-43.97
13.203,-40.03
13.218,-34.62
13.234,-28.31
13.250,-21.74
13.265,-15.32
13.281,-9.28
13.296,-3.66
13.312,1.64
13.328,6.7
13.343,11.57
13.359,16.18
13.375,20.37
13.390,23.92
13.406,26.65
13.421,28.47
13.437,29.48
13.453,29.83
13.468,29.8
13.484,29.6
13.500,29.38
13.515,29.13
13.531,28.86
13.546,28.55
13.562,28.17
13.578,27.75
13.593,27.22
13.609,26.48
13.625,25.38
13.640,23.9
13.656,22.1
13.671,20.23
13.687,18.54
13.703,17.17
13.718,16.06
13.734,15.0
13.750,13.73
13.765,12.07
13.781,10.08
13.796,7.94
13.812,5.82
13.828,3.77
13.843,1.65
13.859,-0.76
13.875,-3.59
13.890,-6.78
13.906,-10.16
13.921,-13.45
13.937,-16.45
13.953,-19.06
13.968,-21.31
13.984,-23.27
14.000,-25.02
14.015,-26.63
14.031,-28.27
14.046,-30.19
14.062,-32.55
14.078,-35.4
14.093,-38.49
14.109,-41.24
14.125,-42.92
14.140,-42.93
14.156,-40.89
14.171,-36.89
14.187,-31.33
14.203,-24.74
14.218,-17.71
14.234,-10.69
14.250,-3.96
14.265,2.29
14.281,7.92
14.296,12.88
14.312,17.11
14.328,20.66
14.343,23.61
14.359,26.04
14.375,27.92
14.390,29.28
14.406,30.06
14.421,30.3
14.437,30.16
14.453,29.93
14.468,29.84
14.484,30.0
14.500,30.35
14.515,30.67
14.531,30.81
14.546,30.58
14.562,29.94
14.578,28.88
14.593,27.44
14.609,25.67
14.625,23.68
14.640,21.58
14.656,19.5
14.671,17.58
14.687,15.76
14.703,13.95
14.718,12.01
14.734,9.84
14.750,7.41
14.765,4.9
14.781,2.43
14.796,0.11
14.812,-2.0
14.828,-3.95
14.843,-5.84
14.859,-7.79
14.875,-9.9
14.890,-12.26
14.906,-14.86
14.921,-17.7
14.937,-20.71
14.953,-23.79
14.968,-26.86
14.984,-29.9
15.000,-32.92
15.015,-35.98
15.031,-39.03
15.046,-41.87
15.062,-44.07
15.078,-45.15
15.093,-44.61
15.109,-42.24
15.125,-38.08
15.140,-32.52
15.156,-26.2
15.171,-19.78
15.187,-13.77
15.203,-8.37
15.218,-3.59
15.234,0.8
15.250,4.9
15.265,8.69
15.281,11.98
15.296,14.46
15.312,15.94
15.328,16.48
15.343,16.39
15.359,16.11
15.375,16.07
15.390,16.45
15.406,17.2
15.421,18.17
15.437,19.18
15.453,20.1
15.468,20.87
15.484,21.43
15.500,21.64
15.515,21.34
15.531,20.41
15.546,18.81
15.562,16.64
15.578,14.17
15.593,11.68
15.609,9.41
15.625,7.53
15.640,6.1
15.656,5.02
15.671,4.2
15.687,3.45
15.703,2.59
15.718,1.48
15.734,-0.02
15.750,-1.98
15.765,-4.43
15.781,-7.25
15.796,-10.35
15.812,-13.54
15.828,-16.67
15.843,-19.71
15.859,-22.66
15.875,-25.6
15.890,-28.56
15.906,-31.58
15.921,-34.57
15.937,-37.4
15.953,-39.9
15.968,-41.72
15.984,-42.53
16.000,-41.95
16.015,-39.69
16.031,-35.69
16.046,-30.14
16.062,-23.45
16.078,-16.17
16.093,-8.84
16.109,-1.92
16.125,4.29
16.140,9.74
16.156,14.45
16.171,18.48
16.187,21.89
16.203,24.66
16.218,26.71
16.234,27.99
16.250,28.58
16.265,28.64
16.281,28.46
16.296,28.26
16.312,28.1
16.328,27.96
16.343,27.75
16.359,27.4
16.375,26.94
16.390,26.45
16.406,25.9
16.421,25.24
16.437,24.34
16.453,23.05
16.468,21.43
16.484,19.66
16.500,18.02
16.515,16.68
16.531,15.69
16.546,14.81
16.562,13.71
16.578,12.12
16.593,9.88
16.609,7.12
16.625,4.11
16.640,1.15
16.656,-1.55
16.671,-3.97
16.687,-6.31
16.703,-8.81
16.718,-11.58
16.734,-14.63
16.750,-17.8
16.765,-20.9
16.781,-23.76
16.796,-26.38
16.812,-28.85
16.828,-31.38
16.843,-34.13
16.859,-37.19
16.875,-40.53
16.890,-43.9
16.906,-46.9
16.921,-48.95
16.937,-49.48
16.953,-48.05
16.968,-44.54
16.984,-39.15
17.000,-32.39
17.015,-24.92
17.031,-17.3
17.046,-9.91
17.062,-2.97
17.078,3.43
17.093,9.29
17.109,14.63
17.125,19.52
17.140,24.03
17.156,28.12
17.171,31.7
17.187,34.55
17.203,36.49
17.218,37.41
17.234,37.41
17.250,36.78
17.265,35.8
17.281,34.78
17.296,33.85
17.312,33.08
17.328,32.46
17.343,32.0
17.359,31.63
17.375,31.22
17.390,30.6
17.406,29.55
17.421,28.07
17.437,26.32
17.453,24.59
17.468,23.17
17.484,22.15
17.500,21.43
17.515,20.71
17.531,19.66
17.546,18.09
17.562,15.98
17.578,13.41
17.593,10.55
17.609,7.52
17.625,4.32
17.640,1.0
17.656,-2.44
17.671,-5.93
17.687,-9.37
17.703,-12.59
17.718,-15.48
17.734,-17.91
17.750,-19.86
17.765,-21.52
17.781,-23.2
17.796,-25.3
17.812,-28.18
17.828,-31.99
17.843,-36.47
17.859,-41.07
17.875,-44.96
17.890,-47.27
17.906,-47.4
17.921,-45.1
17.937,-40.59
17.953,-34.45
17.968,-27.39
17.984,-20.15
18.000,-13.28
18.015,-7.12
18.031,-1.77
18.046,2.81
18.062,6.74
18.078,10.1
18.093,12.98
18.109,15.46
18.125,17.67
18.140,19.69
18.156,21.59
18.171,23.35
18.187,24.89
18.203,26.14
18.218,27.1
18.234,27.81
18.250,28.4
18.265,28.95
18.281,29.41
18.296,29.65
18.312,29.52
18.328,28.9
18.343,27.83
18.359,26.44
18.375,24.77
18.390,22.87
18.406,20.67
18.421,18.2
18.437,15.53
18.453,12.82
18.468,10.24
18.484,7.81
18.500,5.5
18.515,3.15
18.531,0.66
18.546,-1.92
18.562,-4.44
18.578,-6.74
18.593,-8.77
18.609,-10.58
18.625,-12.33
18.640,-14.13
18.656,-16.13
18.671,-18.31
18.687,-20.66
18.703,-23.16
18.718,-25.84
18.734,-28.73
18.750,-31.86
18.765,-35.2
18.781,-38.56
18.796,-41.61
18.812,-43.79
18.828,-44.46
18.843,-43.11
18.859,-39.52
18.875,-33.92
18.890,-26.94
18.906,-19.48
18.921,-12.3
18.937,-5.94
18.953,-0.55
18.968,3.97
18.984,7.84
19.000,11.23
19.015,14.22
19.031,16.78
19.046,18.84
19.062,20.37
19.078,21.45
19.093,22.21
19.109,22.85
19.125,23.51
19.140,24.26
19.156,25.03
19.171,25.67
19.187,26.03
19.203,26.09
19.218,25.9
19.234,25.58
19.250,25.25
19.265,24.85
19.281,24.21
19.296,23.12
19.312,21.44
19.328,19.26
19.343,16.87
19.359,14.57
19.375,12.57
19.390,10.9
19.406,9.41
19.421,7.87
19.437,6.11
19.453,4.06
19.468,1.79
19.484,-0.64
19.500,-3.2
19.515,-5.96
19.531,-8.95
19.546,-12.15
19.562,-15.44
19.578,-18.61
19.593,-21.5
19.609,-24.04
19.625,-26.31
19.640,-28.47
19.656,-30.74
19.671,-33.31
19.687,-36.25
19.703,-39.44
19.718,-42.62
19.734,-45.39
19.750,-47.26
19.765,-47.75
19.781,-46.53
19.796,-43.41
19.812,-38.52
19.828,-32.22
19.843,-25.05
19.859,-17.65
19.875,-10.53
19.890,-4.06
19.906,1.67
19.921,6.71
19.937,11.23
19.953,15.31
19.968,18.95
19.984,22.07
20.000,24.61
20.015,26.57
20.031,28.05
20.046,29.18
20.062,30.08
20.078,30.8
20.093,31.3
20.109,31.55
20.125,31.59
20.140,31.52
20.156,31.48
20.171,31.54
20.187,31.61
20.203,31.52
20.218,31.04
20.234,29.97
20.250,28.28
20.265,26.09
20.281,23.61
20.296,21.05
20.312,18.6
20.328,16.3
20.343,14.17
20.359,12.17
20.375,10.23
20.390,8.28
20.406,6.29
20.421,4.24
20.437,2.17
20.453,0.15
20.468,-1.78
20.484,-3.68
20.500,-5.67
20.515,-7.92
20.531,-10.58
20.546,-13.65
20.562,-17.02
20.578,-20.43
20.593,-23.68
20.609,-26.7
20.625,-29.57
20.640,-32.47
20.656,-35.55
20.671,-38.78
20.687,-41.93
20.703,-44.6
20.718,-46.23
20.734,-46.32
20.750,-44.56
20.765,-40.87
20.781,-35.46
20.796,-28.82
20.812,-21.54
20.828,-14.18
20.843,-7.21
20.859,-0.8
20.875,5.04
20.890,10.44
20.906,15.56
20.921,20.42
20.937,24.89
20.953,28.72
20.968,31.67
20.984,33.57
21.000,34.5
21.015,34.67
21.031,34.36
21.046,33.83
21.062,33.16
21.078,32.35
21.093,31.36
21.109,30.24
21.125,29.04
21.140,27.91
21.156,26.89
21.171,25.97
21.187,25.08
21.203,24.17
21.218,23.22
21.234,22.21
21.250,21.07
21.265,19.68
21.281,17.89
21.296,15.68
21.312,13.08
21.328,10.29
21.343,7.43
21.359,4.59
21.375,1.69
21.390,-1.4
21.406,-4.76
21.421,-8.34
21.437,-11.98
21.453,-15.45
21.468,-18.61
21.484,-21.42
21.500,-23.93
21.515,-26.21
21.531,-28.33
21.546,-30.34
21.562,-32.34
21.578,-34.41
21.593,-36.58
21.609,-38.77
21.625,-40.74
21.640,-42.04
21.656,-42.16
21.671,-40.73
21.687,-37.63
21.703,-33.06
21.718,-27.37
21.734,-21.05
21.750,-14.51
21.765,-8.12
21.781,-2.13
21.796,3.23
21.812,7.83
21.828,11.64
21.843,14.7
21.859,17.09
21.875,18.9
21.890,20.18
21.906,20.96
21.921,21.25
21.937,21.08
21.953,20.61
21.968,20.01
21.984,19.42
22.000,18.91
22.015,18.48
22.031,18.09
22.046,17.74
22.062,17.39
22.078,17.01
22.093,16.57
22.109,15.97
22.125,15.13
22.140,13.92
22.156,12.3
22.171,10.26
22.187,7.95
22.203,5.56
22.218,3.25
22.234,1.14
22.250,-0.79
22.265,-2.63
22.281,-4.49
22.296,-6.48
22.312,-8.65
22.328,-10.97
22.343,-13.35
22.359,-15.78
22.375,-18.22
22.390,-20.73
22.406,-23.34
22.421,-26.05
22.437,-28.87
22.453,-31.74
22.468,-34.59
22.484,-37.44
22.500,-40.3
22.515,-43.15
22.531,-45.83
22.546,-47.92
22.562,-48.84
22.578,-48.01
22.593,-45.09
22.609,-40.15
22.625,-33.67
22.640,-26.36
22.656,-18.94
22.671,-11.88
22.687,-5.38
22.703,0.6
22.718,6.14
22.734,11.31
22.750,16.05
22.765,20.2
22.781,23.66
22.796,26.32
22.812,28.2
22.828,29.33
22.843,29.85
22.859,29.84
22.875,29.4
22.890,28.66
22.906,27.75
22.921,26.88
22.937,26.19
22.953,25.78
22.968,25.63
22.984,25.57
23.000,25.38
23.015,24.85
23.031,23.88
23.046,22.45
23.062,20.67
23.078,18.7
23.093,16.63
23.109,14.56
23.125,12.55
23.140,10.66
23.156,8.97
23.171,7.51
23.187,6.22
23.203,5.02
23.218,3.71
23.234,2.07
23.250,-0.06
23.265,-2.82
23.281,-6.17
23.296,-9.97
23.312,-14.03
23.328,-18.07
23.343,-21.87
23.359,-25.25
23.375,-28.17
23.390,-30.71
23.406,-33.05
23.421,-35.46
23.437,-38.15
23.453,-41.17
23.468,-44.39
23.484,-47.4
23.500,-49.64
23.515,-50.41
23.531,-49.13
23.546,-45.54
23.562,-39.79
23.578,-32.44
23.593,-24.29
23.609,-16.11
23.625,-8.45
23.640,-1.56
23.656,4.55
23.671,10.05
23.687,14.98
23.703,19.28
23.718,22.8
23.734,25.42
23.750,27.16
23.765,28.19
23.781,28.73
23.796,29.0
23.812,29.17
23.828,29.3
23.843,29.43
23.859,29.61
23.875,29.92
23.890,30.43
23.906,31.13
23.921,31.86
23.937,32.35
23.953,32.33
23.968,31.58
23.984,30.11
24.000,28.05
24.015,25.64
24.031,23.15
24.046,20.73
24.062,18.43
24.078,16.16
24.093,13.81
24.109,11.24
24.125,8.47
24.140,5.56
24.156,2.61
24.171,-0.23
24.187,-2.95
24.203,-5.56
24.218,-8.1
24.234,-10.6
24.250,-13.11
24.265,-15.58
24.281,-17.94
24.296,-20.2
24.312,-22.39
24.328,-24.62
24.343,-27.03
24.359,-29.84
24.375,-33.2
24.390,-37.12
24.406,-41.37
24.421,-45.32
24.437,-48.24
24.453,-49.42
24.468,-48.44
24.484,-45.25
24.500,-40.22
24.515,-33.88
24.531,-26.81
24.546,-19.49
24.562,-12.28
24.578,-5.45
24.593,0.74
24.609,6.12
24.625,10.65
24.640,14.46
24.656,17.71
24.671,20.53
24.687,22.93
24.703,24.8
24.718,26.04
24.734,26.66
24.750,26.82
24.765,26.73
24.781,26.57
24.796,26.4
24.812,26.16
24.828,25.76
24.843,25.2
24.859,24.59
24.875,24.06
24.890,23.65
24.906,23.26
24.921,22.64
24.937,21.66
24.953,20.26
24.968,18.52
24.984,16.58
25.000,14.49
25.015,12.3
25.031,9.95
25.046,7.42
25.062,4.69
25.078,1.84
25.093,-1.14
25.109,-4.21
25.125,-7.37
25.140,-10.61
25.156,-13.75
25.171,-16.7
25.187,-19.35
25.203,-21.76
25.218,-24.07
25.234,-26.5
25.250,-29.2
25.265,-32.33
25.281,-35.88
25.296,-39.69
25.312,-43.45
25.328,-46.62
25.343,-48.52
25.359,-48.52
25.375,-46.23
25.390,-41.63
25.406,-35.21
25.421,-27.73
25.437,-19.97
25.453,-12.58
25.468,-5.88
25.484,0.08
25.500,5.34
25.515,9.96
25.531,13.99
25.546,17.43
25.562,20.29
25.578,22.62
25.593,24.41
25.609,25.69
25.625,26.49
25.640,26.83
25.656,26.85
25.671,26.68
25.687,26.44
25.703,26.16
25.718,25.82
25.734,25.33
25.750,24.68
25.765,23.92
25.781,23.15
25.796,22.5
25.812,21.96
25.828,21.38
25.843,20.62
25.859,19.52
25.875,17.99
25.890,16.03
25.906,13.66
25.921,10.97
25.937,8.07
25.953,5.02
25.968,1.87
25.984,-1.33
26.000,-4.52
26.015,-7.62
26.031,-10.58
26.046,-13.43
26.062,-16.21
26.078,-18.99
26.093,-21.88
26.109,-25.04
26.125,-28.51
26.140,-32.35
26.156,-36.5
26.171,-40.9
26.187,-45.39
26.203,-49.79
26.218,-53.71
26.234,-56.69
26.250,-58.17
26.265,-57.63
26.281,-54.81
26.296,-49.79
26.312,-42.99
26.328,-35.11
26.343,-26.79
26.359,-18.49
26.375,-10.43
26.390,-2.59
26.406,5.11
26.421,12.63
26.437,19.8
26.453,26.33
26.468,31.82
26.484,36.05
26.500,38.85
26.515,40.26
26.531,40.57
26.546,40.09
26.562,39.11
26.578,37.95
26.593,36.84
26.609,35.92
26.625,35.34
26.640,35.07
26.656,35.05
26.671,35.09
26.687,34.97
26.703,34.41
26.718,33.29
26.734,31.67
26.750,29.75
26.765,27.83
26.781,26.06
26.796,24.44
26.812,22.76
26.828,20.77
26.843,18.36
26.859,15.61
26.875,12.8
26.890,10.1
26.906,7.52
26.921,4.89
26.937,1.96
26.953,-1.37
26.968,-5.06
26.984,-8.89
27.000,-12.68
27.015,-16.32
27.031,-19.9
27.046,-23.58
27.062,-27.46
27.078,-31.61
27.093,-35.98
27.109,-40.57
27.125,-45.31
27.140,-50.05
27.156,-54.37
27.171,-57.67
27.187,-59.12
27.203,-58.04
27.218,-54.08
27.234,-47.44
27.250,-38.78
27.265,-29.08
27.281,-19.28
27.296,-10.08
27.312,-1.85
27.328,5.35
27.343,11.65
27.359,17.2
27.375,22.14
27.390,26.55
27.406,30.43
27.421,33.63
27.437,36.0
27.453,37.4
27.468,37.82
27.484,37.46
27.500,36.64
27.515,35.72
27.531,34.92
27.546,34.24
27.562,33.59
27.578,32.84
27.593,31.99
27.609,31.16
27.625,30.47
27.640,29.95
27.656,29.43
27.671,28.63
27.687,27.26
27.703,25.18
27.718,22.47
27.734,19.3
27.750,15.94
27.765,12.55
27.781,9.26
27.796,6.09
27.812,3.08
27.828,0.18
27.843,-2.61
27.859,-5.3
27.875,-7.92
27.890,-10.43
27.906,-12.82
27.921,-15.06
27.937,-17.24
27.953,-19.51
27.968,-22.1
27.984,-25.25
28.000,-29.05
28.015,-33.5
28.031,-38.29
28.046,-43.04
28.062,-47.19
28.078,-50.13
28.093,-51.27
28.109,-50.1
28.125,-46.46
28.140,-40.51
28.156,-32.84
28.171,-24.27
28.187,-15.77
28.203,-8.03
28.218,-1.47
28.234,3.9
28.250,8.44
28.265,12.48
28.281,16.34
28.296,20.06
28.312,23.53
28.328,26.51
28.343,28.88
28.359,30.6
28.375,31.7
28.390,32.32
28.406,32.44
28.421,32.11
28.437,31.35
28.453,30.32
28.468,29.21
28.484,28.32
28.500,27.89
28.515,27.92
28.531,28.31
28.546,28.74
28.562,28.83
28.578,28.25
28.593,26.85
28.609,24.67
28.625,21.96
28.640,19.02
28.656,16.03
28.671,13.1
28.687,10.19
28.703,7.26
28.718,4.28
28.734,1.28
28.750,-1.65
28.765,-4.43
28.781,-7.1
28.796,-9.71
28.812,-12.3
28.828,-14.94
28.843,-17.62
28.859,-20.33
28.875,-23.08
28.890,-25.96
28.906,-29.08
28.921,-32.51
28.937,-36.18
28.953,-39.75
28.968,-42.65
28.984,-44.17
29.000,-43.67
29.015,-40.86
29.031,-35.84
29.046,-29.13
29.062,-21.46
29.078,-13.56
29.093,-6.0
29.109,0.8
29.125,6.62
29.140,11.38
29.156,15.09
29.171,17.87
29.187,19.9
29.203,21.42
29.218,22.57
29.234,23.53
29.250,24.37
29.265,25.15
29.281,25.94
29.296,26.76
29.312,27.57
29.328,28.3
29.343,28.86
29.359,29.14
29.375,29.09
29.390,28.67
29.406,27.8
29.421,26.4
29.437,24.44
29.453,22.0
29.468,19.24
29.484,16.4
29.500,13.71
29.515,11.28
29.531,9.18
29.546,7.29
29.562,5.38
29.578,3.21
29.593,0.66
29.609,-2.29
29.625,-5.55
29.640,-8.95
29.656,-12.32
29.671,-15.57
29.687,-18.68
29.703,-21.7
29.718,-24.75
29.734,-27.85
29.750,-30.96
29.765,-33.97
29.781,-36.65
29.796,-38.64
29.812,-39.53
29.828,-38.9
29.843,-36.48
29.859,-32.29
29.875,-26.66
29.890,-20.19
29.906,-13.49
29.921,-7.04
29.937,-1.12
29.953,4.26
29.968,9.11
29.984,13.38
30.000,16.9
30.015,19.43
30.031,20.86
30.046,21.23
30.062,20.77
30.078,19.77
30.093,18.55
30.109,17.39
30.125,16.49
30.140,15.92
30.156,15.69
30.171,15.7
30.187,15.77
30.203,15.7
30.218,15.29
30.234,14.48
30.250,13.28
30.265,11.8
30.281,10.12
30.296,8.29
30.312,6.28
30.328,4.07
30.343,1.66
30.359,-0.93
30.375,-3.67
30.390,-6.51
30.406,-9.41
30.421,-12.31
30.437,-15.21
30.453,-18.09
30.468,-20.95
30.484,-23.83
30.500,-26.79
30.515,-29.85
30.531,-33.0
30.546,-36.13
30.562,-39.08
30.578,-41.56
30.593,-43.15
30.609,-43.33
30.625,-41.63
30.640,-37.82
30.656,-32.01
30.671,-24.63
30.687,-16.33
30.703,-7.87
30.718,0.14
30.734,7.23
30.750,13.18
30.765,17.91
30.781,21.43
30.796,23.84
30.812,25.3
30.828,26.0
30.843,26.12
30.859,25.81
30.875,25.21
30.890,24.41
30.906,23.54
30.921,22.74
30.937,22.07
30.953,21.57
30.968,21.27
30.984,21.09
31.000,20.93
31.015,20.68
31.031,20.17
31.046,19.28
31.062,17.99
31.078,16.31
31.093,14.25
31.109,11.93
31.125,9.4
31.140,6.81
31.156,4.24
31.171,1.63
31.187,-1.08
31.203,-3.99
31.218,-7.22
31.234,-10.78
31.250,-14.56
31.265,-18.32
31.281,-21.83
31.296,-24.98
31.312,-27.79
31.328,-30.46
31.343,-33.18
31.359,-36.12
31.375,-39.21
31.390,-42.21
31.406,-44.64
31.421,-45.93
31.437,-45.51
31.453,-43.07
31.468,-38.56
31.484,-32.25
31.500,-24.73
31.515,-16.55
31.531,-8.27
31.546,-0.34
31.562,7.01
31.578,13.54
31.593,19.07
31.609,23.5
31.625,26.81
31.640,29.01
31.656,30.33
31.671,30.92
31.687,30.95
31.703,30.52
31.718,29.7
31.734,28.55
31.750,27.2
31.765,25.87
31.781,24.76
31.796,24.1
31.812,23.93
31.828,24.16
31.843,24.5
31.859,24.65
31.875,24.33
31.890,23.33
31.906,21.63
31.921,19.37
31.937,16.79
31.953,14.08
31.968,11.36
31.984,8.64
32.000,5.86
32.015,2.99
32.031,0.06
32.046,-2.84
32.062,-5.57
32.078,-8.07
32.093,-10.4
32.109,-12.72
32.125,-15.17
32.140,-17.88
32.156,-20.86
32.171,-24.08
32.187,-27.49
32.203,-31.06
32.218,-34.73
32.234,-38.24
32.250,-41.14
32.265,-42.76
32.281,-42.47
32.296,-39.88
32.312,-35.02
32.328,-28.33
32.343,-20.55
32.359,-12.47
32.375,-4.67
32.390,2.46
32.406,8.75
32.421,14.13
32.437,18.56
32.453,21.97
32.468,24.29
32.484,25.56
32.500,25.92
32.515,25.61
32.531,24.97
32.546,24.27
32.562,23.68
32.578,23.25
32.593,22.91
32.609,22.56
32.625,22.13
32.640,21.66
32.656,21.21
32.671,20.87
32.687,20.6
32.703,20.32
32.718,19.82
32.734,18.87
32.750,17.36
32.765,15.21
32.781,12.49
32.796,9.39
32.812,6.13
32.828,2.84
32.843,-0.36
32.859,-3.49
32.875,-6.58
32.890,-9.62
32.906,-12.55
32.921,-15.26
32.937,-17.65
32.953,-19.7
32.968,-21.56
32.984,-23.48
33.000,-25.8
33.015,-28.73
33.031,-32.23
33.046,-35.96
33.062,-39.35
33.078,-41.67
33.093,-42.29
33.109,-40.75
33.125,-36.91
33.140,-30.99
33.156,-23.48
33.171,-15.09
33.187,-6.61
33.203,1.3
33.218,8.19
33.234,13.84
33.250,18.31
33.265,21.7
33.281,24.11
33.296,25.58
33.312,26.1
33.328,25.71
33.343,24.59
33.359,23.01
33.375,21.34
33.390,19.88
33.406,18.75
33.421,18.01
33.437,17.58
33.453,17.4
33.468,17.42
33.484,17.6
33.500,17.79
33.515,17.75
33.531,17.22
33.546,15.94
33.562,13.88
33.578,11.23
33.593,8.41
33.609,5.77
33.625,3.57
33.640,1.71
33.656,-0.08
33.671,-2.2
33.687,-4.9
33.703,-8.18
33.718,-11.79
33.734,-15.34
33.750,-18.53
33.765,-21.24
33.781,-23.64
33.796,-25.99
33.812,-28.61
33.828,-31.7
33.843,-35.3
33.859,-39.27
33.875,-43.29
33.890,-46.82
33.906,-49.2
33.921,-49.78
33.937,-48.07
33.953,-43.99
33.968,-37.9
33.984,-30.52
34.000,-22.71
34.015,-15.15
34.031,-8.26
34.046,-2.15
34.062,3.22
34.078,7.9
34.093,11.94
34.109,15.32
34.125,18.1
34.140,20.37
34.156,22.24
34.171,23.76
34.187,24.95
34.203,25.77
34.218,26.19
34.234,26.29
34.250,26.2
34.265,26.07
34.281,25.96
34.296,25.9
34.312,25.8
34.328,25.57
34.343,25.08
34.359,24.23
34.375,22.93
34.390,21.08
34.406,18.71
34.421,15.93
34.437,12.92
34.453,9.96
34.468,7.2
34.484,4.68
34.500,2.29
34.515,-0.14
34.531,-2.78
34.546,-5.67
34.562,-8.77
34.578,-11.95
34.593,-15.08
34.609,-18.1
34.625,-20.96
34.640,-23.68
34.656,-26.3
34.671,-28.96
34.687,-31.79
34.703,-34.9
34.718,-38.35
34.734,-42.0
34.750,-45.48
34.765,-48.22
34.781,-49.53
34.796,-48.84
34.812,-45.8
34.828,-40.47
34.843,-33.28
34.859,-25.01
34.875,-16.47
34.890,-8.36
34.906,-1.05
34.921,5.37
34.937,10.99
34.953,15.92
34.968,20.2
34.984,23.75
35.000,26.47
35.015,28.34
35.031,29.43
35.046,29.94
35.062,30.08
35.078,30.01
35.093,29.87
35.109,29.73
35.125,29.68
35.140,29.79
35.156,30.11
35.171,30.63
35.187,31.26
35.203,31.78
35.218,31.95
35.234,31.56
35.250,30.51
35.265,28.84
35.281,26.73
35.296,24.4
35.312,22.0
35.328,19.57
35.343,17.04
35.359,14.27
35.375,11.19
35.390,7.79
35.406,4.1
35.421,0.21
35.437,-3.69
35.453,-7.48
35.468,-11.02
35.484,-14.27
35.500,-17.3
35.515,-20.25
35.531,-23.31
35.546,-26.69
35.562,-30.46
35.578,-34.54
35.593,-38.73
35.609,-42.71
35.625,-46.03
35.640,-48.32
35.656,-49.17
35.671,-48.28
35.687,-45.52
35.703,-40.9
35.718,-34.7
35.734,-27.39
35.750,-19.5
35.765,-11.53
35.781,-4.0
35.796,2.81
35.812,8.68
35.828,13.5
35.843,17.29
35.859,20.09
35.875,21.93
35.890,22.97
35.906,23.42
35.921,23.43
35.937,23.25
35.953,23.07
35.968,23.06
35.984,23.29
36.000,23.71
36.015,24.11
36.031,24.36
36.046,24.32
36.062,23.96
36.078,23.35
36.093,22.5
36.109,21.38
36.125,19.89
36.140,17.92
36.156,15.38
36.171,12.43
36.187,9.26
36.203,6.11
36.218,3.17
36.234,0.44
36.250,-2.2
36.265,-4.87
36.281,-7.7
36.296,-10.68
36.312,-13.78
36.328,-16.86
36.343,-19.76
36.359,-22.29
36.375,-24.38
36.390,-26.12
36.406,-27.65
36.421,-29.21
36.437,-31.02
36.453,-33.19
36.468,-35.6
36.484,-37.89
36.500,-39.49
36.515,-39.79
36.531,-38.32
36.546,-34.87
36.562,-29.63
36.578,-23.15
36.593,-16.11
36.609,-9.2
36.625,-2.87
36.640,2.74
36.656,7.71
36.671,12.21
36.687,16.3
36.703,19.87
36.718,22.67
36.734,24.55
36.750,25.41
36.765,25.44
36.781,24.9
36.796,24.17
36.812,23.53
36.828,23.15
36.843,23.09
36.859,23.25
36.875,23.57
36.890,23.87
36.906,24.06
36.921,24.08
36.937,23.9
36.953,23.47
36.968,22.76
36.984,21.66
37.000,19.98
37.015,17.71
37.031,14.89
37.046,11.73
37.062,8.55
37.078,5.52
37.093,2.66
37.109,-0.22
37.125,-3.32
37.140,-6.77
37.156,-10.39
37.171,-13.88
37.187,-16.96
37.203,-19.51
37.218,-21.68
37.234,-23.76
37.250,-26.16
37.265,-29.07
37.281,-32.6
37.296,-36.66
37.312,-41.09
37.328,-45.55
37.343,-49.55
37.359,-52.46
37.375,-53.55
37.390,-52.26
37.406,-48.35
37.421,-42.04
37.437,-33.94
37.453,-24.9
37.468,-15.78
37.484,-7.18
37.500,0.53
37.515,7.29
37.531,13.16
37.546,18.35
37.562,22.95
37.578,26.96
37.593,30.31
37.609,32.84
37.625,34.53
37.640,35.48
37.656,35.91
37.671,36.03
37.687,36.02
37.703,35.9
37.718,35.57
37.734,34.98
37.750,34.11
37.765,33.07
37.781,31.95
37.796,30.8
37.812,29.57
37.828,28.12
37.843,26.34
37.859,24.21
37.875,21.83
37.890,19.32
37.906,16.89
37.921,14.62
37.937,12.54
37.953,10.6
37.968,8.64
37.984,6.54
38.000,4.07
38.015,1.17
38.031,-2.21
38.046,-5.95
38.062,-9.86
38.078,-13.7
38.093,-17.24
38.109,-20.34
38.125,-22.96
38.140,-25.27
38.156,-27.41
38.171,-29.73
38.187,-32.38
38.203,-35.45
38.218,-38.82
38.234,-42.14
38.250,-44.89
38.265,-46.46
38.281,-46.29
38.296,-43.99
38.312,-39.64
38.328,-33.62
38.343,-26.59
38.359,-19.3
38.375,-12.23
38.390,-5.61
38.406,0.6
38.421,6.52
38.437,12.22
38.453,17.49
38.468,22.08
38.484,25.78
38.500,28.46
38.515,30.24
38.531,31.29
38.546,31.78
38.562,31.85
38.578,31.6
38.593,31.08
38.609,30.39
38.625,29.72
38.640,29.16
38.656,28.85
38.671,28.74
38.687,28.69
38.703,28.43
38.718,27.75
38.734,26.42
38.750,24.4
38.765,21.81
38.781,18.78
38.796,15.59
38.812,12.38
38.828,9.26
38.843,6.26
38.859,3.36
38.875,0.5
38.890,-2.31
38.906,-5.11
38.921,-7.92
38.937,-10.67
38.953,-13.3
38.968,-15.72
38.984,-17.84
39.000,-19.65
39.015,-21.31
39.031,-22.97
39.046,-24.92
39.062,-27.4
39.078,-30.49
39.093,-34.1
39.109,-37.88
39.125,-41.24
39.140,-43.54
39.156,-44.23
39.171,-42.88
39.187,-39.4
39.203,-33.95
39.218,-27.03
39.234,-19.3
39.250,-11.46
39.265,-4.1
39.281,2.38
39.296,7.85
39.312,12.33
39.328,15.88
39.343,18.57
39.359,20.37
39.375,21.23
39.390,21.22
39.406,20.57
39.421,19.64
39.437,18.82
39.453,18.35
39.468,18.25
39.484,18.38
39.500,18.57
39.515,18.69
39.531,18.69
39.546,18.61
39.562,18.52
39.578,18.41
39.593,18.13
39.609,17.48
39.625,16.26
39.640,14.4
39.656,12.0
39.671,9.25
39.687,6.39
39.703,3.62
39.718,1.0
39.734,-1.57
39.750,-4.27
39.765,-7.25
39.781,-10.57
39.796,-14.04
39.812,-17.4
39.828,-20.42
39.843,-23.04
39.859,-25.41
39.875,-27.8
39.890,-30.57
39.906,-33.94
39.921,-37.94
39.937,-42.44
39.953,-47.2
39.968,-51.86
39.984,-55.94
40.000,-58.86
40.015,-59.9
40.031,-58.45
40.046,-54.28
40.062,-47.65
40.078,-39.28
40.093,-30.17
40.109,-21.26
40.125,-13.15
40.140,-6.09
40.156,0.02
40.171,5.33
40.187,9.88
40.203,13.62
40.218,16.44
40.234,18.34
40.250,19.46
40.265,20.07
40.281,20.51
40.296,21.06
40.312,21.96
40.328,23.24
40.343,24.86
40.359,26.76
40.375,28.92
40.390,31.38
40.406,34.2
40.421,37.33
40.437,40.57
40.453,43.57
40.468,45.85
40.484,46.98
40.500,46.69
40.515,45.05
40.531,42.32
40.546,38.96
40.562,35.43
40.578,32.13
40.593,29.29
40.609,26.93
40.625,24.86
40.640,22.82
40.656,20.53
40.671,17.73
40.687,14.27
40.703,10.11
40.718,5.28
40.734,-0.11
40.750,-5.94
40.765,-12.11
40.781,-18.42
40.796,-24.76
40.812,-31.05
40.828,-37.24
40.843,-43.27
40.859,-49.0
40.875,-54.06
40.890,-57.85
40.906,-59.6
40.921,-58.62
40.937,-54.47
40.953,-47.28
40.968,-37.56
40.984,-26.19
41.000,-14.11
41.015,-2.07
41.031,9.42
41.046,20.17
41.062,30.09
41.078,39.16
41.093,47.36
41.109,54.58
41.125,60.65
41.140,65.31
41.156,68.31
41.171,69.5
41.187,68.93
41.203,66.86
41.218,63.73
41.234,60.02
41.250,56.15
41.265,52.31
41.281,48.6
41.296,44.99
41.312,41.36
41.328,37.49
41.343,33.02
41.359,27.47
41.375,20.4
41.390,11.64
41.406,1.41
41.421,-9.62
41.437,-20.45
41.453,-30.11
41.468,-37.83
41.484,-43.16
41.500,-45.94
41.515,-46.19
41.531,-44.06
41.546,-39.84
41.562,-34.08
41.578,-27.68
41.593,-21.66
41.609,-17.01
41.625,-14.37
41.640,-13.91
41.656,-15.41
41.671,-18.41
41.687,-22.45
41.703,-27.17
41.718,-32.35
41.734,-37.84
41.750,-43.43
41.765,-48.84
41.781,-53.65
41.796,-57.32
41.812,-59.23
41.828,-58.82
41.843,-55.8
41.859,-50.24
41.875,-42.59
41.890,-33.63
41.906,-24.16
41.921,-14.88
41.937,-6.33
41.953,1.23
41.968,7.64
41.984,12.82
42.000,16.79
42.015,19.63
42.031,21.46
42.046,22.46
42.062,22.88
42.078,22.98
42.093,23.02
42.109,23.28
42.125,23.9
42.140,24.91
42.156,26.13
42.171,27.27
42.187,28.01
42.203,28.19
42.218,27.78
42.234,26.94
42.250,25.92
42.265,24.93
42.281,24.03
42.296,23.11
42.312,21.94
42.328,20.32
42.343,18.22
42.359,15.75
42.375,13.17
42.390,10.74
42.406,8.57
42.421,6.6
42.437,4.66
42.453,2.48
42.468,-0.1
42.484,-3.1
42.500,-6.47
42.515,-10.02
42.531,-13.58
42.546,-17.02
42.562,-20.31
42.578,-23.51
42.593,-26.81
42.609,-30.38
42.625,-34.26
42.640,-38.27
42.656,-41.96
42.671,-44.72
42.687,-45.93
42.703,-45.11
42.718,-42.08
42.734,-37.01
42.750,-30.36
42.765,-22.69
42.781,-14.57
42.796,-6.49
42.812,1.26
42.828,8.45
42.843,15.01
42.859,20.82
42.875,25.77
42.890,29.71
42.906,32.52
42.921,34.16
42.937,34.76
42.953,34.61
42.968,34.07
42.984,33.5
43.000,33.09
43.015,32.85
43.031,32.65
43.046,32.37
43.062,31.99
43.078,31.59
43.093,31.31
43.109,31.19
43.125,31.12
43.140,30.88
43.156,30.2
43.171,28.95
43.187,27.18
43.203,25.01
43.218,22.6
43.234,20.1
43.250,17.5
43.265,14.77
43.281,11.9
43.296,8.88
43.312,5.76
43.328,2.59
43.343,-0.63
43.359,-3.88
43.375,-7.16
43.390,-10.45
43.406,-13.69
43.421,-16.86
43.437,-19.94
43.453,-22.97
43.468,-26.05
43.484,-29.25
43.500,-32.69
43.515,-36.4
43.531,-40.24
43.546,-43.91
43.562,-46.87
43.578,-48.43
43.593,-47.92
43.609,-44.87
43.625,-39.27
43.640,-31.53
43.656,-22.41
43.671,-12.81
43.687,-3.47
43.703,5.15
43.718,12.86
43.734,19.64
43.750,25.5
43.765,30.42
43.781,34.35
43.796,37.28
43.812,39.31
43.828,40.65
43.843,41.5
43.859,42.07
43.875,42.45
43.890,42.65
43.906,42.61
43.921,42.32
43.937,41.75
43.953,40.98
43.968,40.1
43.984,39.28
44.000,38.61
44.015,38.16
44.031,37.94
44.046,37.77
44.062,37.42
44.078,36.58
44.093,35.05
44.109,32.75
44.125,29.8
44.140,26.42
44.156,22.76
44.171,19.0
44.187,15.18
44.203,11.29
44.218,7.27
44.234,3.03
44.250,-1.54
44.265,-6.52
44.281,-11.87
44.296,-17.56
44.312,-23.35
44.328,-29.09
44.343,-34.65
44.359,-40.07
44.375,-45.52
44.390,-51.17
44.406,-57.23
44.421,-63.76
44.437,-70.73
44.453,-77.88
44.468,-84.76
44.484,-90.67
44.500,-94.79
44.515,-96.39
44.531,-94.95
44.546,-90.38
44.562,-83.09
44.578,-73.88
44.593,-63.75
44.609,-53.57
44.625,-43.88
44.640,-34.77
44.656,-26.04
44.671,-17.39
44.687,-8.64
44.703,0.11
44.718,8.48
44.734,15.96
44.750,22.16
44.765,26.9
44.781,30.32
44.796,32.69
44.812,34.28
44.828,35.28
44.843,35.78
44.859,35.88
44.875,35.68
44.890,35.45
44.906,35.35
44.921,35.39
44.937,35.38
44.953,34.96
44.968,33.8
44.984,31.67
45.000,28.74
45.015,25.34
45.031,22.04
45.046,19.24
45.062,17.16
45.078,15.7
45.093,14.54
45.109,13.3
45.125,11.6
45.140,9.27
45.156,6.23
45.171,2.61
45.187,-1.42
45.203,-5.67
45.218,-9.92
45.234,-14.05
45.250,-17.91
45.265,-21.47
45.281,-24.78
45.296,-28.07
45.312,-31.58
45.328,-35.45
45.343,-39.61
45.359,-43.58
45.375,-46.72
45.390,-48.17
45.406,-47.28
45.421,-43.75
45.437,-37.81
45.453,-30.12
45.468,-21.47
45.484,-12.71
45.500,-4.42
45.515,2.99
45.531,9.35
45.546,14.66
45.562,18.97
45.578,22.32
45.593,24.75
45.609,26.37
45.625,27.29
45.640,27.78
45.656,28.06
45.671,28.34
45.687,28.73
45.703,29.15
45.718,29.51
45.734,29.66
45.750,29.56
45.765,29.19
45.781,28.66
45.796,28.04
45.812,27.37
45.828,26.6
45.843,25.59
45.859,24.2
45.875,22.26
45.890,19.7
45.906,16.56
45.921,13.11
45.937,9.7
45.953,6.73
45.968,4.38
45.984,2.53
46.000,0.88
46.015,-1.03
46.031,-3.52
46.046,-6.66
46.062,-10.31
46.078,-14.19
46.093,-18.03
46.109,-21.68
46.125,-25.12
46.140,-28.36
46.156,-31.47
46.171,-34.55
46.187,-37.72
46.203,-41.1
46.218,-44.73
46.234,-48.36
46.250,-51.45
46.265,-53.25
46.281,-53.07
46.296,-50.49
46.312,-45.51
46.328,-38.57
46.343,-30.32
46.359,-21.46
46.375,-12.62
46.390,-4.33
46.406,3.06
46.421,9.36
46.437,14.48
46.453,18.56
46.468,21.76
46.484,24.28
46.500,26.23
46.515,27.67
46.531,28.62
46.546,29.17
46.562,29.5
46.578,29.78
46.593,30.16
46.609,30.69
46.625,31.34
46.640,31.99
46.656,32.57
46.671,32.9
46.687,32.86
46.703,32.3
46.718,31.11
46.734,29.35
46.750,27.16
46.765,24.78
46.781,22.39
46.796,20.06
46.812,17.73
46.828,15.27
46.843,12.54
46.859,9.47
46.875,6.12
46.890,2.62
46.906,-0.89
46.921,-4.36
46.937,-7.84
46.953,-11.4
46.968,-15.08
46.984,-18.87
47.000,-22.71
47.015,-26.47
47.031,-30.13
47.046,-33.63
47.062,-37.1
47.078,-40.7
47.093,-44.66
47.109,-49.06
47.125,-53.77
47.140,-58.38
47.156,-62.17
47.171,-64.3
47.187,-63.93
47.203,-60.68
47.218,-54.65
47.234,-46.44
47.250,-36.9
47.265,-26.93
47.281,-17.22
47.296,-8.18
47.312,-0.01
47.328,7.28
47.343,13.69
47.359,19.28
47.375,23.99
47.390,27.74
47.406,30.43
47.421,32.02
47.437,32.54
47.453,32.21
47.468,31.39
47.484,30.43
47.500,29.65
47.515,29.14
47.531,28.82
47.546,28.56
47.562,28.27
47.578,28.0
47.593,27.82
47.609,27.84
47.625,28.02
47.640,28.23
47.656,28.24
47.671,27.87
47.687,27.03
47.703,25.8
47.718,24.29
47.734,22.62
47.750,20.87
47.765,19.07
47.781,17.26
47.796,15.42
47.812,13.6
47.828,11.8
47.843,9.94
47.859,7.91
47.875,5.56
47.890,2.79
47.906,-0.42
47.921,-4.03
47.937,-8.01
47.953,-12.29
47.968,-16.84
47.984,-21.67
48.000,-26.72
48.015,-31.93
48.031,-37.15
48.046,-42.11
48.062,-46.42
48.078,-49.54
48.093,-50.99
48.109,-50.44
48.125,-47.78
48.140,-43.21
48.156,-37.11
48.171,-29.92
48.187,-22.04
48.203,-13.78
48.218,-5.45
48.234,2.67
48.250,10.19
48.265,16.81
48.281,22.34
48.296,26.68
48.312,29.85
48.328,31.96
48.343,33.15
48.359,33.51
48.375,33.25
48.390,32.48
48.406,31.36
48.421,30.08
48.437,28.77
48.453,27.62
48.468,26.77
48.484,26.39
48.500,26.51
48.515,27.08
48.531,27.87
48.546,28.62
48.562,29.1
48.578,29.17
48.593,28.84
48.609,28.11
48.625,27.02
48.640,25.55
48.656,23.69
48.671,21.44
48.687,18.87
48.703,16.11
48.718,13.25
48.734,10.34
48.750,7.4
48.765,4.41
48.781,1.4
48.796,-1.54
48.812,-4.35
48.828,-7.03
48.843,-9.63
48.859,-12.33
48.875,-15.29
48.890,-18.62
48.906,-22.34
48.921,-26.25
48.937,-30.03
48.953,-33.2
48.968,-35.2
48.984,-35.57
49.000,-34.05
49.015,-30.7
49.031,-25.9
49.046,-20.25
49.062,-14.34
49.078,-8.69
49.093,-3.55
49.109,1.04
49.125,5.17
49.140,8.9
49.156,12.12
49.171,14.62
49.187,16.18
49.203,16.69
49.218,16.3
49.234,15.29
49.250,14.09
49.265,12.98
49.281,12.06
49.296,11.21
49.312,10.23
49.328,8.94
49.343,7.21
49.359,5.11
49.375,2.82
49.390,0.64
49.406,-1.17
49.421,-2.39
49.437,-3.04
49.453,-3.28
49.468,-3.41
49.484,-3.7
49.500,-4.22
49.515,-4.75
49.531,-4.93
49.546,-4.56
49.562,-3.62
49.578,-2.49
49.593,-1.74
49.609,-1.9
49.625,-3.3
49.640,-5.82
49.656,-9.11
49.671,-12.67
49.687,-16.22
49.703,-19.71
49.718,-23.37
49.734,-27.56
49.750,-32.51
49.765,-38.24
49.781,-44.51
49.796,-50.96
49.812,-57.09
49.828,-62.35
49.843,-66.1
49.859,-67.68
49.875,-66.51
49.890,-62.24
49.906,-55.07
49.921,-45.65
49.937,-34.99
49.953,-24.14
49.968,-13.82
49.984,-4.37
50.000,4.19
50.015,11.95
50.031,18.99
50.046,25.22
50.062,30.52
50.078,34.73
50.093,37.78
50.109,39.78
50.125,40.91
50.140,41.4
50.156,41.39
50.171,41.04
50.187,40.36
50.203,39.3
50.218,37.72
50.234,35.55
50.250,32.85
50.265,29.8
50.281,26.74
50.296,24.0
50.312,21.82
50.328,20.32
50.343,19.45
50.359,19.06
50.375,19.02
50.390,19.14
50.406,19.2
50.421,19.02
50.437,18.41
50.453,17.22
50.468,15.47
50.484,13.16
50.500,10.33
50.515,6.95
50.531,3.0
50.546,-1.56
50.562,-6.65
50.578,-12.14
50.593,-17.82
50.609,-23.5
50.625,-29.02
50.640,-34.32
50.656,-39.43
50.671,-44.42
50.687,-49.39
50.703,-54.4
50.718,-59.39
50.734,-64.07
50.750,-67.92
50.765,-70.18
50.781,-70.12
50.796,-67.2
50.812,-61.38
50.828,-53.09
50.843,-43.14
50.859,-32.55
50.875,-22.19
50.890,-12.67
50.906,-4.23
50.921,3.17
50.937,9.7
50.953,15.51
50.968,20.66
50.984,25.08
51.000,28.57
51.015,30.97
51.031,32.25
51.046,32.54
51.062,32.14
51.078,31.42
51.093,30.72
51.109,30.31
51.125,30.3
51.140,30.63
51.156,31.24
51.171,31.98
51.187,32.76
51.203,33.43
51.218,33.83
51.234,33.77
51.250,33.04
51.265,31.5
51.281,29.08
51.296,25.92
51.312,22.27
51.328,18.5
51.343,14.97
51.359,11.87
51.375,9.26
51.390,6.96
51.406,4.74
51.421,2.4
51.437,-0.17
51.453,-3.01
51.468,-6.13
51.484,-9.42
51.500,-12.87
51.515,-16.38
51.531,-19.83
51.546,-23.15
51.562,-26.33
51.578,-29.46
51.593,-32.76
51.609,-36.51
51.625,-40.85
51.640,-45.7
51.656,-50.68
51.671,-55.08
51.687,-58.05
51.703,-58.85
51.718,-56.93
51.734,-52.16
51.750,-44.89
51.765,-35.79
51.781,-25.7
51.796,-15.47
51.812,-5.73
51.828,3.11
51.843,10.91
51.859,17.66
51.875,23.4
51.890,28.04
51.906,31.46
51.921,33.53
51.937,34.3
51.953,34.04
51.968,33.16
51.984,32.12
52.000,31.21
52.015,30.5
52.031,29.94
52.046,29.47
52.062,29.13
52.078,29.03
52.093,29.2
52.109,29.51
52.125,29.58
52.140,29.01
52.156,27.49
52.171,25.04
52.187,21.99
52.203,18.72
52.218,15.52
52.234,12.48
52.250,9.48
52.265,6.34
52.281,2.9
52.296,-0.91
52.312,-5.01
52.328,-9.28
52.343,-13.57
52.359,-17.71
52.375,-21.53
52.390,-24.93
52.406,-27.9
52.421,-30.56
52.437,-33.12
52.453,-35.83
52.468,-38.9
52.484,-42.51
52.500,-46.69
52.515,-51.24
52.531,-55.78
52.546,-59.65
52.562,-62.07
52.578,-62.35
52.593,-60.11
52.609,-55.3
52.625,-48.33
52.640,-39.79
52.656,-30.38
52.671,-20.75
52.687,-11.46
52.703,-2.89
52.718,4.68
52.734,11.14
52.750,16.55
52.765,21.0
52.781,24.67
52.796,27.63
52.812,29.96
52.828,31.66
52.843,32.81
52.859,33.51
52.875,34.0
52.890,34.5
52.906,35.13
52.921,35.93
52.937,36.82
52.953,37.68
52.968,38.42
52.984,39.0
53.000,39.36
53.015,39.39
53.031,38.93
53.046,37.74
53.062,35.68
53.078,32.73
53.093,29.0
53.109,24.8
53.125,20.41
53.140,16.03
53.156,11.74
53.171,7.55
53.187,3.46
53.203,-0.45
53.218,-4.14
53.234,-7.59
53.250,-10.85
53.265,-13.99
53.281,-17.15
53.296,-20.36
53.312,-23.6
53.328,-26.76
53.343,-29.77
53.359,-32.63
53.375,-35.54
53.390,-38.71
53.406,-42.42
53.421,-46.92
53.437,-52.22
53.453,-58.11
53.468,-63.97
53.484,-68.86
53.500,-71.75
53.515,-71.75
53.531,-68.38
53.546,-61.77
53.562,-52.62
53.578,-41.91
53.593,-30.67
53.609,-19.69
53.625,-9.34
53.640,0.23
53.656,9.05
53.671,17.11
53.687,24.33
53.703,30.58
53.718,35.84
53.734,40.14
53.750,43.61
53.765,46.47
53.781,48.86
53.796,50.93
53.812,52.73
53.828,54.28
53.843,55.54
53.859,56.51
53.875,57.12
53.890,57.26
53.906,56.91
53.921,56.01
53.937,54.59
53.953,52.7
53.968,50.45
53.984,47.94
54.000,45.31
54.015,42.6
54.031,39.86
54.046,37.12
54.062,34.38
54.078,31.64
54.093,28.96
54.109,26.34
54.125,23.8
54.140,21.33
54.156,18.82
54.171,16.14
54.187,13.13
54.203,9.63
54.218,5.5
54.234,0.76
54.250,-4.54
54.265,-10.22
54.281,-16.06
54.296,-21.87
54.312,-27.47
54.328,-32.77
54.343,-37.78
54.359,-42.56
54.375,-47.23
54.390,-51.84
54.406,-56.26
54.421,-60.06
54.437,-62.56
54.453,-62.98
54.468,-60.74
54.484,-55.66
54.500,-48.04
54.515,-38.62
54.531,-28.37
54.546,-18.16
54.562,-8.58
54.578,0.1
54.593,7.96
54.609,15.18
54.625,21.87
54.640,28.07
54.656,33.62
54.671,38.25
54.687,41.71
54.703,43.89
54.718,44.88
54.734,44.98
54.750,44.64
54.765,44.24
54.781,44.07
54.796,44.2
54.812,44.6
54.828,45.09
54.843,45.51
54.859,45.64
54.875,45.33
54.890,44.45
54.906,42.98
54.921,40.92
54.937,38.32
54.953,35.38
54.968,32.24
54.984,29.0
55.000,25.66
55.015,22.22
55.031,18.61
55.046,14.89
55.062,11.07
55.078,7.2
55.093,3.35
55.109,-0.41
55.125,-4.03
55.140,-7.52
55.156,-10.86
55.171,-14.09
55.187,-17.23
55.203,-20.3
55.218,-23.32
55.234,-26.29
55.250,-29.27
55.265,-32.33
55.281,-35.68
55.296,-39.53
55.312,-44.03
55.328,-49.11
55.343,-54.44
55.359,-59.39
55.375,-63.18
55.390,-65.02
55.406,-64.22
55.421,-60.45
55.437,-53.75
55.453,-44.62
55.468,-33.85
55.484,-22.4
55.500,-11.21
55.515,-0.96
55.531,7.95
55.546,15.47
55.562,21.64
55.578,26.54
55.593,30.17
55.609,32.5
55.625,33.65
55.640,33.86
55.656,33.54
55.671,33.09
55.687,32.8
55.703,32.72
55.718,32.79
55.734,32.89
55.750,32.91
55.765,32.83
55.781,32.63
55.796,32.35
55.812,31.91
55.828,31.26
55.843,30.29
55.859,28.98
55.875,27.35
55.890,25.5
55.906,23.6
55.921,21.77
55.937,20.07
55.953,18.4
55.968,16.54
55.984,14.21
56.000,11.29
56.015,7.85
56.031,4.16
56.046,0.53
56.062,-2.9
56.078,-6.21
56.093,-9.6
56.109,-13.31
56.125,-17.38
56.140,-21.7
56.156,-26.01
56.171,-30.14
56.187,-34.02
56.203,-37.78
56.218,-41.64
56.234,-45.83
56.250,-50.48
56.265,-55.65
56.281,-61.24
56.296,-66.9
56.312,-71.86
56.328,-75.1
56.343,-75.51
56.359,-72.31
56.375,-65.36
56.390,-55.22
56.406,-43.05
56.421,-30.19
56.437,-17.84
56.453,-6.65
56.468,3.16
56.484,11.79
56.500,19.49
56.515,26.36
56.531,32.35
56.546,37.27
56.562,40.97
56.578,43.4
56.593,44.72
56.609,45.14
56.625,44.97
56.640,44.48
56.656,43.87
56.671,43.24
56.687,42.68
56.703,42.3
56.718,42.13
56.734,42.18
56.750,42.31
56.765,42.29
56.781,41.87
56.796,40.82
56.812,39.04
56.828,36.57
56.843,33.6
56.859,30.44
56.875,27.32
56.890,24.43
56.906,21.8
56.921,19.41
56.937,17.12
56.953,14.84
56.968,12.44
56.984,9.86
57.000,7.09
57.015,4.08
57.031,0.77
57.046,-2.9
57.062,-6.94
57.078,-11.37
57.093,-16.16
57.109,-21.26
57.125,-26.58
57.140,-31.9
57.156,-36.96
57.171,-41.48
57.187,-45.3
57.203,-48.52
57.218,-51.46
57.234,-54.58
57.250,-58.25
57.265,-62.55
57.281,-67.1
57.296,-71.16
57.312,-73.72
57.328,-73.87
57.343,-71.1
57.359,-65.32
57.375,-56.94
57.390,-46.76
57.406,-35.73
57.421,-24.77
57.437,-14.54
57.453,-5.34
57.468,2.8
57.484,10.01
57.500,16.51
57.515,22.38
57.531,27.65
57.546,32.19
57.562,35.82
57.578,38.45
57.593,40.12
57.609,40.97
57.625,41.22
57.640,41.2
57.656,41.18
57.671,41.4
57.687,41.99
57.703,42.92
57.718,44.02
57.734,45.07
57.750,45.74
57.765,45.78
57.781,45.01
57.796,43.27
57.812,40.57
57.828,37.14
57.843,33.34
57.859,29.64
57.875,26.48
57.890,24.11
57.906,22.45
57.921,21.15
57.937,19.63
57.953,17.49
57.968,14.63
57.984,11.2
58.000,7.55
58.015,3.98
58.031,0.57
58.046,-2.79
58.062,-6.33
58.078,-10.24
58.093,-14.47
58.109,-18.84
58.125,-23.11
58.140,-27.06
58.156,-30.58
58.171,-33.69
58.187,-36.52
58.203,-39.29
58.218,-42.24
58.234,-45.56
58.250,-49.36
58.265,-53.57
58.281,-57.8
58.296,-61.44
58.312,-63.67
58.328,-63.69
58.343,-60.99
58.359,-55.48
58.375,-47.66
58.390,-38.42
58.406,-28.8
58.421,-19.67
58.437,-11.53
58.453,-4.56
58.468,1.37
58.484,6.46
58.500,10.85
58.515,14.52
58.531,17.44
58.546,19.61
58.562,21.03
58.578,21.83
58.593,22.16
58.609,22.21
58.625,22.12
58.640,21.98
58.656,21.87
58.671,21.9
58.687,22.15
58.703,22.57
58.718,23.09
58.734,23.55
58.750,23.85
58.765,23.85
58.781,23.58
58.796,23.05
58.812,22.34
58.828,21.45
58.843,20.36
58.859,19.11
58.875,17.71
58.890,16.16
58.906,14.42
58.921,12.4
58.937,9.99
58.953,7.13
58.968,3.83
58.984,0.23
59.000,-3.48
59.015,-7.17
59.031,-10.71
59.046,-14.1
59.062,-17.26
59.078,-20.16
59.093,-22.8
59.109,-25.2
59.125,-27.49
59.140,-29.83
59.156,-32.46
59.171,-35.5
59.187,-39.01
59.203,-42.85
59.218,-46.62
59.234,-49.73
59.250,-51.38
59.265,-50.88
59.281,-47.81
59.296,-42.3
59.312,-34.87
59.328,-26.4
59.343,-17.76
59.359,-9.52
59.375,-1.91
59.390,5.1
59.406,11.65
59.421,17.74
59.437,23.26
59.453,28.04
59.468,31.87
59.484,34.66
59.500,36.44
59.515,37.29
59.531,37.37
59.546,36.9
59.562,36.08
59.578,35.14
59.593,34.27
59.609,33.52
59.625,32.91
59.640,32.34
59.656,31.64
59.671,30.67
59.687,29.34
59.703,27.65
59.718,25.7
59.734,23.68
59.750,21.8
59.765,20.14
59.781,18.66
59.796,17.23
59.812,15.61
59.828,13.73
59.843,11.6
59.859,9.34
59.875,7.09
59.890,4.86
59.906,2.65
59.921,0.35
59.937,-2.11
59.953,-4.76
59.968,-7.6
59.984,-10.6
