timestamp,value
00.000,-10.95
00.015,-13.17
00.031,-15.39
00.046,-17.53
00.062,-19.38
00.078,-20.67
00.093,-21.02
00.109,-20.14
00.125,-17.88
00.140,-14.42
00.156,-10.19
00.171,-5.78
00.187,-1.71
00.203,1.72
00.218,4.43
00.234,6.48
00.250,7.94
00.265,8.9
00.281,9.34
00.296,9.3
00.312,8.89
00.328,8.29
00.343,7.73
00.359,7.4
00.375,7.35
00.390,7.58
00.406,8.05
00.421,8.69
00.437,9.49
00.453,10.45
00.468,11.54
00.484,12.67
00.500,13.7
00.515,14.41
00.531,14.66
00.546,14.38
00.562,13.55
00.578,12.28
00.593,10.68
00.609,8.86
00.625,6.88
00.640,4.78
00.656,2.62
00.671,0.5
00.687,-1.52
00.703,-3.35
00.718,-4.92
00.734,-6.24
00.750,-7.44
00.765,-8.65
00.781,-10.11
00.796,-11.89
00.812,-13.97
00.828,-16.18
00.843,-18.17
00.859,-19.56
00.875,-19.99
00.890,-19.28
00.906,-17.38
00.921,-14.4
00.937,-10.58
00.953,-6.27
00.968,-1.86
00.984,2.22
01.000,5.62
01.015,8.09
01.031,9.54
01.046,10.13
01.062,10.14
01.078,9.9
01.093,9.67
01.109,9.59
01.125,9.71
01.140,9.96
01.156,10.25
01.171,10.46
01.187,10.54
01.203,10.4
01.218,10.05
01.234,9.56
01.250,9.0
01.265,8.43
01.281,7.81
01.296,7.06
01.312,6.15
01.328,5.1
01.343,4.04
01.359,3.17
01.375,2.69
01.390,2.68
01.406,3.04
01.421,3.56
01.437,3.97
01.453,4.04
01.468,3.6
01.484,2.57
01.500,0.84
01.515,-1.54
01.531,-4.61
01.546,-8.31
01.562,-12.49
01.578,-16.96
01.593,-21.37
01.609,-25.34
01.625,-28.42
01.640,-30.27
01.656,-30.54
01.671,-29.15
01.687,-26.21
01.703,-22.0
01.718,-17.02
01.734,-11.71
01.750,-6.42
01.765,-1.4
01.781,3.24
01.796,7.43
01.812,11.13
01.828,14.3
01.843,16.91
01.859,18.95
01.875,20.43
01.890,21.42
01.906,21.99
01.921,22.21
01.937,22.11
01.953,21.77
01.968,21.23
01.984,20.54
02.000,19.71
02.015,18.71
02.031,17.49
02.046,16.02
02.062,14.31
02.078,12.43
02.093,10.5
02.109,8.63
02.125,6.93
02.140,5.42
02.156,4.1
02.171,2.9
02.187,1.74
02.203,0.55
02.218,-0.68
02.234,-1.99
02.250,-3.32
02.265,-4.62
02.281,-5.81
02.296,-6.89
02.312,-7.92
02.328,-9.02
02.343,-10.33
02.359,-11.86
02.375,-13.52
02.390,-15.03
02.406,-16.06
02.421,-16.22
02.437,-15.27
02.453,-13.08
02.468,-9.75
02.484,-5.5
02.500,-0.69
02.515,4.26
02.531,8.9
02.546,12.84
02.562,15.84
02.578,17.81
02.593,18.93
02.609,19.45
02.625,19.7
02.640,19.96
02.656,20.4
02.671,21.06
02.687,21.86
02.703,22.75
02.718,23.66
02.734,24.6
02.750,25.61
02.765,26.77
02.781,28.09
02.796,29.58
02.812,31.15
02.828,32.67
02.843,34.03
02.859,35.07
02.875,35.78
02.890,36.2
02.906,36.51
02.921,36.92
02.937,37.62
02.953,38.68
02.968,40.03
02.984,41.53
03.000,42.87
03.015,43.68
03.031,43.57
03.046,42.21
03.062,39.43
03.078,35.34
03.093,30.24
03.109,24.55
03.125,18.65
03.140,12.74
03.156,6.88
03.171,1.21
03.187,-3.96
03.203,-8.03
03.218,-10.25
03.234,-10.1
03.250,-7.58
03.265,-3.14
03.281,2.29
03.296,7.74
03.312,12.52
03.328,16.25
03.343,18.91
03.359,20.6
03.375,21.42
03.390,21.43
03.406,20.81
03.421,19.82
03.437,18.8
03.453,18.02
03.468,17.52
03.484,17.04
03.500,16.22
03.515,14.65
03.531,12.14
03.546,8.76
03.562,4.88
03.578,1.03
03.593,-2.16
03.609,-4.16
03.625,-4.65
03.640,-3.5
03.656,-0.9
03.671,2.71
03.687,6.77
03.703,10.73
03.718,14.17
03.734,16.88
03.750,18.74
03.765,19.7
03.781,19.76
03.796,18.79
03.812,16.7
03.828,13.4
03.843,8.82
03.859,2.94
03.875,-4.21
03.890,-12.57
03.906,-21.91
03.921,-31.93
03.937,-42.13
03.953,-51.9
03.968,-60.49
03.984,-67.21
04.000,-71.57
04.015,-73.37
04.031,-72.81
04.046,-70.4
04.062,-66.8
04.078,-62.74
04.093,-58.75
04.109,-55.16
04.125,-52.04
04.140,-49.26
04.156,-46.6
04.171,-43.77
04.187,-40.55
04.203,-36.76
04.218,-32.34
04.234,-27.33
04.250,-21.86
04.265,-16.18
04.281,-10.62
04.296,-5.6
04.312,-1.58
04.328,1.1
04.343,2.26
04.359,1.96
04.375,0.46
04.390,-1.86
04.406,-4.62
04.421,-7.42
04.437,-9.95
04.453,-11.91
04.468,-13.06
04.484,-13.27
04.500,-12.61
04.515,-11.3
04.531,-9.76
04.546,-8.38
04.562,-7.38
04.578,-6.82
04.593,-6.51
04.609,-6.13
04.625,-5.42
04.640,-4.22
04.656,-2.57
04.671,-0.67
04.687,1.14
04.703,2.54
04.718,3.21
04.734,3.01
04.750,1.95
04.765,0.24
04.781,-1.75
04.796,-3.55
04.812,-4.66
04.828,-4.64
04.843,-3.17
04.859,-0.19
04.875,4.2
04.890,9.66
04.906,15.74
04.921,22.07
04.937,28.4
04.953,34.62
04.968,40.73
04.984,46.72
05.000,52.44
05.015,57.6
05.031,61.79
05.046,64.55
05.062,65.55
05.078,64.64
05.093,61.87
05.109,57.5
05.125,52.02
05.140,45.95
05.156,39.92
05.171,34.43
05.187,29.8
05.203,26.19
05.218,23.51
05.234,21.57
05.250,20.05
05.265,18.69
05.281,17.19
05.296,15.37
05.312,13.07
05.328,10.19
05.343,6.64
05.359,2.32
05.375,-2.87
05.390,-9.02
05.406,-16.18
05.421,-24.32
05.437,-33.33
05.453,-42.94
05.468,-52.76
05.484,-62.22
05.500,-70.64
05.515,-77.29
05.531,-81.54
05.546,-83.01
05.562,-81.77
05.578,-78.29
05.593,-73.4
05.609,-68.1
05.625,-63.18
05.640,-59.16
05.656,-56.18
05.671,-54.01
05.687,-52.3
05.703,-50.64
05.718,-48.68
05.734,-46.21
05.750,-43.1
05.765,-39.32
05.781,-34.94
05.796,-30.17
05.812,-25.23
05.828,-20.39
05.843,-15.82
05.859,-11.68
05.875,-8.06
05.890,-5.05
05.906,-2.69
05.921,-1.01
05.937,0.04
05.953,0.64
05.968,1.0
05.984,1.4
06.000,2.07
06.015,3.19
06.031,4.79
06.046,6.78
06.062,8.92
06.078,10.91
06.093,12.44
06.109,13.29
06.125,13.36
06.140,12.67
06.156,11.28
06.171,9.22
06.187,6.46
06.203,3.08
06.218,-0.67
06.234,-4.31
06.250,-7.22
06.265,-8.74
06.281,-8.41
06.296,-6.08
06.312,-1.93
06.328,3.61
06.343,9.95
06.359,16.54
06.375,22.83
06.390,28.39
06.406,32.94
06.421,36.35
06.437,38.6
06.453,39.72
06.468,39.78
06.484,38.87
06.500,37.04
06.515,34.39
06.531,31.04
06.546,27.23
06.562,23.23
06.578,19.33
06.593,15.77
06.609,12.67
06.625,10.1
06.640,8.05
06.656,6.45
06.671,5.22
06.687,4.23
06.703,3.31
06.718,2.22
06.734,0.77
06.750,-1.22
06.765,-3.68
06.781,-6.4
06.796,-9.03
06.812,-11.21
06.828,-12.72
06.843,-13.5
06.859,-13.66
06.875,-13.41
06.890,-12.95
06.906,-12.47
06.921,-12.12
06.937,-12.11
06.953,-12.63
06.968,-13.86
06.984,-15.9
07.000,-18.69
07.015,-22.01
07.031,-25.49
07.046,-28.72
07.062,-31.35
07.078,-33.09
07.093,-33.75
07.109,-33.28
07.125,-31.77
07.140,-29.37
07.156,-26.3
07.171,-22.83
07.187,-19.18
07.203,-15.53
07.218,-12.08
07.234,-8.94
07.250,-6.27
07.265,-4.17
07.281,-2.68
07.296,-1.72
07.312,-1.17
07.328,-0.88
07.343,-0.74
07.359,-0.77
07.375,-0.94
07.390,-1.29
07.406,-1.71
07.421,-2.05
07.437,-2.11
07.453,-1.78
07.468,-1.05
07.484,-0.05
07.500,0.99
07.515,1.92
07.531,2.58
07.546,2.99
07.562,3.08
07.578,2.81
07.593,2.06
07.609,0.75
07.625,-1.15
07.640,-3.56
07.656,-6.3
07.671,-9.16
07.687,-12.04
07.703,-14.94
07.718,-17.9
07.734,-20.94
07.750,-23.96
07.765,-26.66
07.781,-28.68
07.796,-29.6
07.812,-29.05
07.828,-26.84
07.843,-23.04
07.859,-17.98
07.875,-12.16
07.890,-6.15
07.906,-0.45
07.921,4.56
07.937,8.58
07.953,11.46
07.968,13.08
07.984,13.52
08.000,12.93
08.015,11.65
08.031,10.07
08.046,8.57
08.062,7.43
08.078,6.82
08.093,6.81
08.109,7.4
08.125,8.59
08.140,10.27
08.156,12.31
08.171,14.46
08.187,16.5
08.203,18.22
08.218,19.49
08.234,20.27
08.250,20.54
08.265,20.33
08.281,19.64
08.296,18.45
08.312,16.76
08.328,14.65
08.343,12.2
08.359,9.61
08.375,7.06
08.390,4.67
08.406,2.47
08.421,0.32
08.437,-2.04
08.453,-4.83
08.468,-8.04
08.484,-11.44
08.500,-14.54
08.515,-16.76
08.531,-17.61
08.546,-16.8
08.562,-14.39
08.578,-10.65
08.593,-6.03
08.609,-0.95
08.625,4.12
08.640,8.76
08.656,12.63
08.671,15.38
08.687,16.83
08.703,16.82
08.718,15.43
08.734,12.84
08.750,9.43
08.765,5.63
08.781,1.95
08.796,-1.16
08.812,-3.48
08.828,-4.99
08.843,-5.95
08.859,-6.69
08.875,-7.5
08.890,-8.56
08.906,-9.85
08.921,-11.26
08.937,-12.6
08.953,-13.84
08.968,-14.95
08.984,-16.03
09.000,-17.23
09.015,-18.66
09.031,-20.41
09.046,-22.4
09.062,-24.52
09.078,-26.54
09.093,-28.27
09.109,-29.47
09.125,-30.02
09.140,-29.91
09.156,-29.24
09.171,-28.2
09.187,-27.05
09.203,-26.05
09.218,-25.4
09.234,-25.16
09.250,-25.1
09.265,-24.88
09.281,-24.05
09.296,-22.27
09.312,-19.45
09.328,-15.75
09.343,-11.58
09.359,-7.41
09.375,-3.66
09.390,-0.59
09.406,1.65
09.421,3.1
09.437,3.88
09.453,4.15
09.468,4.17
09.484,4.17
09.500,4.35
09.515,4.8
09.531,5.58
09.546,6.56
09.562,7.63
09.578,8.7
09.593,9.69
09.609,10.62
09.625,11.46
09.640,12.2
09.656,12.71
09.671,12.89
09.687,12.59
09.703,11.71
09.718,10.31
09.734,8.51
09.750,6.53
09.765,4.59
09.781,2.85
09.796,1.39
09.812,0.14
09.828,-1.06
09.843,-2.37
09.859,-3.89
09.875,-5.58
09.890,-7.35
09.906,-9.02
09.921,-10.44
09.937,-11.52
09.953,-12.33
09.968,-12.98
09.984,-13.51
10.000,-13.8
10.015,-13.6
10.031,-12.59
10.046,-10.5
10.062,-7.34
10.078,-3.35
10.093,1.15
10.109,5.77
10.125,10.26
10.140,14.49
10.156,18.32
10.171,21.56
10.187,23.99
10.203,25.34
10.218,25.54
10.234,24.76
10.250,23.29
10.265,21.54
10.281,19.73
10.296,17.88
10.312,15.87
10.328,13.58
10.343,10.98
10.359,8.17
10.375,5.42
10.390,3.07
10.406,1.42
10.421,0.68
10.437,0.96
10.453,2.26
10.468,4.49
10.484,7.47
10.500,11.02
10.515,15.07
10.531,19.69
10.546,25.19
10.562,32.01
10.578,40.58
10.593,51.11
10.609,63.52
10.625,77.33
10.640,91.77
10.656,105.84
10.671,118.24
10.687,127.42
10.703,131.58
10.718,128.92
10.734,118.22
10.750,99.36
10.765,73.77
10.781,44.29
10.796,14.51
10.812,-12.23
10.828,-33.71
10.843,-49.08
10.859,-58.65
10.875,-63.2
10.890,-63.58
10.906,-60.71
10.921,-55.73
10.937,-50.06
10.953,-45.24
10.968,-42.21
10.984,-40.97
11.000,-40.36
11.015,-38.63
11.031,-34.22
11.046,-26.62
11.062,-16.47
11.078,-5.32
11.093,5.1
11.109,13.58
11.125,19.8
11.140,24.19
11.156,27.69
11.171,31.29
11.187,35.71
11.203,41.2
11.218,47.56
11.234,54.27
11.250,60.85
11.265,67.09
11.281,73.17
11.296,79.56
11.312,86.68
11.328,94.65
11.343,103.01
11.359,110.79
11.375,116.62
11.390,119.21
11.406,117.52
11.421,111.33
11.437,101.21
11.453,88.63
11.468,75.61
11.484,64.06
11.500,55.18
11.515,48.75
11.531,43.25
11.546,36.21
11.562,25.26
11.578,9.16
11.593,-11.57
11.609,-34.68
11.625,-56.98
11.640,-75.24
11.656,-87.31
11.671,-92.19
11.687,-90.08
11.703,-81.73
11.718,-68.13
11.734,-50.47
11.750,-30.24
11.765,-9.53
11.781,9.15
11.796,23.14
11.812,30.47
11.828,30.11
11.843,22.18
11.859,7.75
11.875,-11.64
11.890,-34.32
11.906,-58.62
11.921,-82.8
11.937,-105.12
11.953,-123.85
11.968,-137.54
11.984,-145.35
12.000,-147.17
12.015,-143.57
12.031,-135.76
12.046,-125.18
12.062,-113.26
12.078,-101.27
12.093,-90.15
12.109,-80.52
12.125,-72.8
12.140,-67.2
12.156,-63.79
12.171,-62.49
12.187,-63.03
12.203,-64.98
12.218,-67.74
12.234,-70.67
12.250,-73.2
12.265,-74.96
12.281,-75.73
12.296,-75.52
12.312,-74.48
12.328,-72.72
12.343,-70.41
12.359,-67.67
12.375,-64.52
12.390,-60.87
12.406,-56.43
12.421,-50.72
12.437,-43.31
12.453,-34.06
12.468,-23.37
12.484,-12.25
12.500,-2.13
12.515,5.78
12.531,10.93
12.546,13.76
12.562,15.62
12.578,18.21
12.593,22.97
12.609,30.64
12.625,41.08
12.640,53.34
12.656,66.03
12.671,77.51
12.687,86.06
12.703,90.16
12.718,88.69
12.734,81.22
12.750,68.31
12.765,51.45
12.781,32.79
12.796,14.64
12.812,-1.06
12.828,-13.08
12.843,-21.03
12.859,-25.24
12.875,-26.54
12.890,-25.97
12.906,-24.65
12.921,-23.56
12.937,-23.4
12.953,-24.53
12.968,-26.95
12.984,-30.35
13.000,-34.22
13.015,-38.03
13.031,-41.3
13.046,-43.67
13.062,-44.92
13.078,-44.9
13.093,-43.53
13.109,-40.82
13.125,-36.81
13.140,-31.67
13.156,-25.69
13.171,-19.27
13.187,-12.86
13.203,-6.93
13.218,-1.85
13.234,2.15
13.250,5.0
13.265,6.75
13.281,7.56
13.296,7.57
13.312,6.9
13.328,5.61
13.343,3.8
13.359,1.58
13.375,-0.85
13.390,-3.22
13.406,-5.34
13.421,-7.13
13.437,-8.67
13.453,-10.04
13.468,-11.23
13.484,-12.05
13.500,-12.13
13.515,-11.1
13.531,-8.82
13.546,-5.5
13.562,-1.62
13.578,2.1
13.593,4.99
13.609,6.59
13.625,6.73
13.640,5.57
13.656,3.56
13.671,1.34
13.687,-0.4
13.703,-1.01
13.718,-0.05
13.734,2.6
13.750,6.83
13.765,12.18
13.781,18.01
13.796,23.64
13.812,28.54
13.828,32.44
13.843,35.52
13.859,38.27
13.875,41.23
13.890,44.66
13.906,48.33
13.921,51.53
13.937,53.46
13.953,53.61
13.968,52.0
13.984,49.16
14.000,45.77
14.015,42.21
14.031,38.42
14.046,33.93
14.062,28.27
14.078,21.21
14.093,12.97
14.109,4.14
14.125,-4.56
14.140,-12.5
14.156,-19.21
14.171,-24.42
14.187,-28.0
14.203,-29.79
14.218,-29.79
14.234,-28.06
14.250,-24.88
14.265,-20.67
14.281,-16.02
14.296,-11.49
14.312,-7.58
14.328,-4.6
14.343,-2.67
14.359,-1.75
14.375,-1.65
14.390,-2.15
14.406,-3.0
14.421,-4.01
14.437,-4.96
14.453,-5.63
14.468,-5.8
14.484,-5.24
14.500,-3.95
14.515,-2.09
14.531,-0.09
14.546,1.55
14.562,2.37
14.578,2.2
14.593,1.11
14.609,-0.59
14.625,-2.53
14.640,-4.42
14.656,-6.1
14.671,-7.44
14.687,-8.36
14.703,-8.81
14.718,-8.72
14.734,-8.23
14.750,-7.59
14.765,-7.18
14.781,-7.38
14.796,-8.38
14.812,-10.12
14.828,-12.25
14.843,-14.23
14.859,-15.47
14.875,-15.43
14.890,-13.77
14.906,-10.43
14.921,-5.64
14.937,0.17
14.953,6.44
14.968,12.63
14.984,18.27
15.000,23.02
15.015,26.63
15.031,28.98
15.046,30.07
15.062,29.99
15.078,29.03
15.093,27.56
15.109,25.97
15.125,24.59
15.140,23.59
15.156,22.99
15.171,22.72
15.187,22.78
15.203,23.13
15.218,23.77
15.234,24.61
15.250,25.38
15.265,25.67
15.281,25.03
15.296,23.13
15.312,19.95
15.328,15.82
15.343,11.25
15.359,6.81
15.375,2.93
15.390,-0.21
15.406,-2.66
15.421,-4.55
15.437,-6.01
15.453,-7.13
15.468,-7.92
15.484,-8.4
15.500,-8.67
15.515,-8.75
15.531,-8.58
15.546,-7.92
15.562,-6.46
15.578,-3.96
15.593,-0.41
15.609,3.87
15.625,8.35
15.640,12.36
15.656,15.48
15.671,17.54
15.687,18.62
15.703,18.91
15.718,18.55
15.734,17.59
15.750,16.08
15.765,14.14
15.781,11.94
15.796,9.81
15.812,7.96
15.828,6.51
15.843,5.41
15.859,4.56
15.875,3.83
15.890,3.22
15.906,2.77
15.921,2.53
15.937,2.58
15.953,2.9
15.968,3.42
15.984,4.02
16.000,4.5
16.015,4.66
16.031,4.38
16.046,3.63
16.062,2.42
16.078,0.86
16.093,-1.07
16.109,-3.48
16.125,-6.56
16.140,-10.52
16.156,-15.4
16.171,-20.95
16.187,-26.62
16.203,-31.7
16.218,-35.42
16.234,-37.23
16.250,-36.75
16.265,-33.84
16.281,-28.61
16.296,-21.25
16.312,-12.12
16.328,-1.67
16.343,9.45
16.359,20.38
16.375,30.17
16.390,37.97
16.406,43.26
16.421,45.95
16.437,46.36
16.453,45.06
16.468,42.62
16.484,39.39
16.500,35.49
16.515,30.9
16.531,25.64
16.546,19.84
16.562,13.83
16.578,7.96
16.593,2.6
16.609,-1.98
16.625,-5.6
16.640,-8.26
16.656,-10.06
16.671,-11.16
16.687,-11.74
16.703,-11.94
16.718,-11.88
16.734,-11.62
16.750,-11.24
16.765,-10.83
16.781,-10.47
16.796,-10.23
16.812,-10.15
16.828,-10.25
16.843,-10.5
16.859,-10.76
16.875,-10.75
16.890,-10.13
16.906,-8.58
16.921,-5.92
16.937,-2.28
16.953,1.92
16.968,6.11
16.984,9.77
17.000,12.61
17.015,14.55
17.031,15.67
17.046,16.03
17.062,15.72
17.078,14.74
17.093,13.2
17.109,11.32
17.125,9.52
17.140,8.21
17.156,7.7
17.171,8.0
17.187,8.94
17.203,10.17
17.218,11.32
17.234,12.14
17.250,12.47
17.265,12.27
17.281,11.55
17.296,10.35
17.312,8.7
17.328,6.74
17.343,4.6
17.359,2.47
17.375,0.59
17.390,-0.85
17.406,-1.79
17.421,-2.34
17.437,-2.71
17.453,-3.2
17.468,-4.06
17.484,-5.38
17.500,-7.01
17.515,-8.6
17.531,-9.59
17.546,-9.52
17.562,-8.11
17.578,-5.35
17.593,-1.5
17.609,2.99
17.625,7.64
17.640,12.0
17.656,15.72
17.671,18.65
17.687,20.67
17.703,21.72
17.718,21.76
17.734,20.8
17.750,18.95
17.765,16.47
17.781,13.69
17.796,10.96
17.812,8.56
17.828,6.69
17.843,5.36
17.859,4.5
17.875,4.0
17.890,3.72
17.906,3.61
17.921,3.59
17.937,3.68
17.953,3.82
17.968,3.93
17.984,3.91
18.000,3.63
18.015,3.02
18.031,2.05
18.046,0.78
18.062,-0.75
18.078,-2.49
18.093,-4.39
18.109,-6.42
18.125,-8.44
18.140,-10.19
18.156,-11.29
18.171,-11.4
18.187,-10.25
18.203,-7.88
18.218,-4.59
18.234,-0.78
18.250,3.05
18.265,6.51
18.281,9.34
18.296,11.35
18.312,12.51
18.328,12.77
18.343,12.21
18.359,11.03
18.375,9.52
18.390,8.03
18.406,6.91
18.421,6.29
18.437,6.14
18.453,6.24
18.468,6.33
18.484,6.2
18.500,5.73
18.515,4.92
18.531,3.88
18.546,2.76
18.562,1.73
18.578,0.89
18.593,0.27
18.609,-0.21
18.625,-0.63
18.640,-1.13
18.656,-1.8
18.671,-2.71
18.687,-3.82
18.703,-5.1
18.718,-6.54
18.734,-8.06
18.750,-9.57
18.765,-10.93
18.781,-11.92
18.796,-12.34
18.812,-12.05
18.828,-11.03
18.843,-9.37
18.859,-7.24
18.875,-4.82
18.890,-2.23
18.906,0.38
18.921,2.87
18.937,5.06
18.953,6.74
18.968,7.76
18.984,8.08
19.000,7.74
19.015,6.86
19.031,5.55
19.046,3.9
19.062,1.99
19.078,-0.14
19.093,-2.33
19.109,-4.44
19.125,-6.31
19.140,-7.88
19.156,-9.17
19.171,-10.35
19.187,-11.58
19.203,-12.99
19.218,-14.67
19.234,-16.55
19.250,-18.52
19.265,-20.44
19.281,-22.18
19.296,-23.73
19.312,-25.12
19.328,-26.5
19.343,-28.04
19.359,-29.87
19.375,-31.99
19.390,-34.16
19.406,-36.0
19.421,-37.04
19.437,-36.89
19.453,-35.41
19.468,-32.82
19.484,-29.51
19.500,-26.03
19.515,-22.82
19.531,-20.14
19.546,-17.91
19.562,-15.82
19.578,-13.38
19.593,-10.11
19.609,-5.66
19.625,-0.13
19.640,5.82
19.656,11.1
19.671,14.46
19.687,15.09
19.703,12.86
19.718,8.45
19.734,3.04
19.750,-1.96
19.765,-5.48
19.781,-7.1
19.796,-6.93
19.812,-5.48
19.828,-3.35
19.843,-1.02
19.859,1.19
19.875,3.14
19.890,5.14
19.906,7.49
19.921,10.43
19.937,14.03
19.953,18.32
19.968,23.41
19.984,29.6
20.000,37.37
20.015,47.12
20.031,59.67
20.046,75.32
20.062,93.65
20.078,113.69
20.093,134.33
20.109,154.78
20.125,174.79
20.140,194.32
20.156,213.31
20.171,232.79
20.187,253.18
20.203,274.01
20.218,293.97
20.234,311.62
20.250,326.41
20.265,339.01
20.281,350.75
20.296,362.79
20.312,377.49
20.328,395.25
20.343,413.99
20.359,429.32
20.375,436.1
20.390,430.24
20.406,409.8
20.421,375.09
20.437,328.55
20.453,277.44
20.468,229.63
20.484,191.42
20.500,165.5
20.515,150.59
20.531,142.45
20.546,135.63
20.562,125.12
20.578,90.98
20.593,24.61
20.609,-69.37
20.625,-173.98
20.640,-268.89
20.656,-340.59
20.671,-385.72
20.687,-407.65
20.703,-412.05
20.718,-403.77
20.734,-383.47
20.750,-351.9
20.765,-311.83
20.781,-268.35
20.796,-227.28
20.812,-192.76
20.828,-166.17
20.843,-146.19
20.859,-131.32
20.875,-118.09
20.890,-104.41
20.906,-90.82
20.921,-79.99
20.937,-74.87
20.953,-76.72
20.968,-84.24
20.984,-94.92
21.000,-105.75
21.015,-112.85
21.031,-114.21
21.046,-111.21
21.062,-107.58
21.078,-107.55
21.093,-114.37
21.109,-125.27
21.125,-137.56
21.140,-148.65
21.156,-156.07
21.171,-159.0
21.187,-159.97
21.203,-162.74
21.218,-170.3
21.234,-183.16
21.250,-198.86
21.265,-213.58
21.281,-223.53
21.296,-225.75
21.312,-219.4
21.328,-207.79
21.343,-195.62
21.359,-187.07
21.375,-184.46
21.390,-188.45
21.406,-199.21
21.421,-216.65
21.437,-239.56
21.453,-252.58
21.468,-242.42
21.484,-202.06
21.500,-135.68
21.515,-56.76
21.531,18.76
21.546,78.71
21.562,117.56
21.578,136.81
21.593,142.77
21.609,140.97
21.625,134.92
21.640,125.32
21.656,111.49
21.671,92.19
21.687,69.37
21.703,46.76
21.718,28.74
21.734,18.76
21.750,16.75
21.765,20.28
21.781,25.87
21.796,30.92
21.812,34.7
21.828,38.2
21.843,43.03
21.859,50.71
21.875,61.96
21.890,76.21
21.906,91.36
21.921,104.94
21.937,115.03
21.953,120.66
21.968,122.13
21.984,120.67
22.000,118.25
22.015,116.8
22.031,116.8
22.046,117.18
22.062,116.13
22.078,112.39
22.093,106.36
22.109,100.65
22.125,99.05
22.140,105.03
22.156,119.53
22.171,139.35
22.187,157.7
22.203,166.34
22.218,158.88
22.234,133.64
22.250,94.99
22.265,51.92
22.281,14.57
22.296,-10.03
22.312,-20.9
22.328,-23.21
22.343,-25.26
22.359,-34.32
22.375,-53.34
22.390,-80.44
22.406,-110.83
22.421,-139.45
22.437,-162.71
22.453,-178.39
22.468,-184.78
22.484,-180.39
22.500,-164.8
22.515,-140.02
22.531,-111.33
22.546,-86.28
22.562,-71.72
22.578,-70.32
22.593,-78.66
22.609,-88.31
22.625,-89.84
22.640,-77.6
22.656,-52.59
22.671,-22.22
22.687,3.14
22.703,15.01
22.718,10.31
22.734,-7.94
22.750,-32.79
22.765,-57.34
22.781,-77.88
22.796,-94.78
22.812,-110.88
22.828,-128.67
22.843,-148.11
22.859,-166.41
22.875,-179.38
22.890,-183.32
22.906,-176.5
22.921,-159.16
22.937,-133.2
22.953,-101.07
22.968,-65.4
22.984,-28.64
23.000,7.08
23.015,40.14
23.031,69.9
23.046,96.48
23.062,120.24
23.078,140.9
23.093,157.03
23.109,166.05
23.125,164.98
23.140,151.5
23.156,124.91
23.171,86.43
23.187,39.01
23.203,-13.08
23.218,-64.5
23.234,-108.92
23.250,-139.67
23.265,-151.64
23.281,-143.46
23.296,-119.14
23.312,-87.36
23.328,-58.64
23.343,-41.49
23.359,-39.19
23.375,-49.0
23.390,-64.02
23.406,-76.97
23.421,-83.47
23.437,-83.64
23.453,-80.84
23.468,-78.99
23.484,-80.28
23.500,-84.11
23.515,-88.02
23.531,-89.43
23.546,-87.05
23.562,-81.13
23.578,-72.83
23.593,-63.03
23.609,-51.63
23.625,-37.95
23.640,-21.54
23.656,-2.78
23.671,16.96
23.687,36.05
23.703,53.45
23.718,68.92
23.734,82.98
23.750,96.7
23.765,111.22
23.781,127.33
23.796,144.83
23.812,162.31
23.828,177.59
23.843,188.67
23.859,194.64
23.875,196.15
23.890,194.97
23.906,192.8
23.921,190.15
23.937,186.1
23.953,179.0
23.968,167.83
23.984,153.02
24.000,135.71
24.015,116.58
24.031,94.69
24.046,67.61
24.062,32.78
24.078,-10.57
24.093,-60.39
24.109,-112.15
24.125,-160.6
24.140,-201.78
24.156,-233.91
24.171,-256.84
24.187,-270.55
24.203,-273.89
24.218,-264.62
24.234,-240.58
24.250,-201.61
24.265,-150.5
24.281,-92.69
24.296,-34.61
24.312,18.31
24.328,62.86
24.343,98.44
24.359,126.29
24.375,148.25
24.390,165.46
24.406,177.59
24.421,182.71
24.437,178.05
24.453,161.4
24.468,132.49
24.484,94.29
24.500,53.09
24.515,17.25
24.531,-4.99
24.546,-7.92
24.562,10.25
24.578,47.31
24.593,98.02
24.609,155.47
24.625,212.55
24.640,263.11
24.656,302.88
24.671,329.74
24.687,343.66
24.703,346.25
24.718,339.84
24.734,326.66
24.750,308.03
24.765,284.45
24.781,256.62
24.796,226.47
24.812,197.15
24.828,172.19
24.843,154.5
24.859,145.15
24.875,143.09
24.890,144.84
24.906,145.38
24.921,139.83
24.937,124.84
24.953,98.75
24.968,61.11
24.984,12.4
25.000,-46.06
25.015,-111.74
25.031,-181.29
25.046,-250.71
25.062,-315.48
25.078,-367.95
25.093,-397.87
25.109,-397.58
25.125,-367.0
25.140,-314.28
25.156,-250.86
25.171,-186.39
25.187,-126.71
25.203,-73.82
25.218,-27.28
25.234,13.64
25.250,48.67
25.265,77.62
25.281,99.32
25.296,113.18
25.312,119.9
25.328,121.02
25.343,118.68
25.359,114.94
25.375,111.03
25.390,107.22
25.406,103.21
25.421,98.91
25.437,94.8
25.453,92.68
25.468,93.09
25.484,94.69
25.500,94.84
25.515,90.9
25.531,81.91
25.546,69.26
25.562,56.2
25.578,46.39
25.593,42.14
25.609,43.44
25.625,49.17
25.640,58.48
25.656,71.64
25.671,89.51
25.687,111.89
25.703,136.32
25.718,158.24
25.734,172.23
25.750,174.15
25.765,162.8
25.781,140.27
25.796,110.79
25.812,78.78
25.828,47.25
25.843,17.36
25.859,-10.96
25.875,-38.14
25.890,-64.2
25.906,-88.48
25.921,-109.89
25.937,-127.32
25.953,-140.2
25.968,-148.77
25.984,-153.91
26.000,-156.74
26.015,-158.35
26.031,-159.43
26.046,-160.2
26.062,-160.51
26.078,-159.96
26.093,-158.2
26.109,-155.25
26.125,-151.54
26.140,-147.88
26.156,-145.32
26.171,-144.72
26.187,-146.49
26.203,-150.36
26.218,-155.47
26.234,-160.71
26.250,-165.18
26.265,-168.62
26.281,-171.53
26.296,-175.22
26.312,-181.58
26.328,-192.96
26.343,-211.89
26.359,-240.31
26.375,-278.55
26.390,-324.13
26.406,-371.41
26.421,-412.46
26.437,-439.25
26.453,-446.25
26.468,-432.33
26.484,-401.1
26.500,-359.39
26.515,-314.66
26.531,-272.85
26.546,-237.23
26.562,-208.84
26.578,-187.59
26.593,-173.1
26.609,-165.02
26.625,-162.68
26.640,-164.61
26.656,-168.43
26.671,-171.36
26.687,-170.77
26.703,-164.93
26.718,-153.33
26.734,-136.56
26.750,-115.86
26.765,-92.8
26.781,-68.83
26.796,-45.17
26.812,-22.72
26.828,-2.01
26.843,16.68
26.859,33.21
26.875,47.52
26.890,59.53
26.906,69.23
26.921,76.71
26.937,82.4
26.953,86.96
26.968,91.39
26.984,96.81
27.000,104.19
27.015,114.37
27.031,128.18
27.046,146.58
27.062,170.52
27.078,200.06
27.093,233.34
27.109,266.2
27.125,292.95
27.140,308.27
27.156,309.53
27.171,298.03
27.187,278.64
27.203,257.61
27.218,239.91
27.234,227.37
27.250,218.54
27.265,210.21
27.281,199.32
27.296,184.16
27.312,164.34
27.328,139.89
27.343,110.49
27.359,75.53
27.375,35.06
27.390,-9.3
27.406,-54.17
27.421,-95.41
27.437,-129.82
27.453,-156.64
27.468,-177.79
27.484,-196.69
27.500,-216.12
27.515,-236.44
27.531,-254.98
27.546,-267.04
27.562,-267.92
27.578,-255.01
27.593,-228.83
27.609,-192.8
27.625,-151.95
27.640,-111.37
27.656,-75.17
27.671,-46.23
27.687,-26.26
27.703,-15.98
27.718,-14.94
27.734,-21.07
27.750,-30.68
27.765,-39.33
27.781,-43.16
27.796,-40.23
27.812,-30.95
27.828,-17.23
27.843,-1.16
27.859,15.91
27.875,33.53
27.890,51.35
27.906,68.38
27.921,83.11
27.937,94.22
27.953,101.37
27.968,105.33
27.984,107.29
28.000,107.81
28.015,106.51
28.031,102.56
28.046,95.88
28.062,87.97
28.078,81.59
28.093,79.62
28.109,83.69
28.125,93.45
28.140,106.93
28.156,121.7
28.171,135.85
28.187,148.42
28.203,159.2
28.218,168.17
28.234,175.08
28.250,179.33
28.265,180.34
28.281,177.86
28.296,172.16
28.312,163.82
28.328,153.13
28.343,139.83
28.359,123.27
28.375,103.06
28.390,79.81
28.406,55.24
28.421,31.47
28.437,9.87
28.453,-9.65
28.468,-28.64
28.484,-48.72
28.500,-70.28
28.515,-91.36
28.531,-107.89
28.546,-115.11
28.562,-109.52
28.578,-90.27
28.593,-59.44
28.609,-21.39
28.625,18.53
28.640,54.83
28.656,82.72
28.671,98.78
28.687,101.99
28.703,94.26
28.718,80.83
28.734,69.18
28.750,66.81
28.765,78.62
28.781,104.84
28.796,140.73
28.812,178.23
28.828,208.2
28.843,222.66
28.859,216.6
28.875,188.83
28.890,142.44
28.906,84.64
28.921,25.49
28.937,-24.41
28.953,-56.22
28.968,-65.95
28.984,-55.16
29.000,-29.66
29.015,2.78
29.031,34.52
29.046,59.36
29.062,73.2
29.078,74.8
29.093,67.52
29.109,57.8
29.125,53.23
29.140,60.02
29.156,80.44
29.171,111.94
29.187,148.39
29.203,183.04
29.218,211.28
29.234,233.16
29.250,249.86
29.265,261.8
29.281,268.18
29.296,268.27
29.312,263.44
29.328,257.52
29.343,255.14
29.359,258.89
29.375,268.88
29.390,279.31
29.406,280.72
29.421,264.2
29.437,225.2
29.453,165.92
29.468,93.93
29.484,19.02
29.500,-62.35
29.515,-145.82
29.531,-222.47
29.546,-281.9
29.562,-317.47
29.578,-329.5
29.593,-322.65
29.609,-302.99
29.625,-275.98
29.640,-246.06
29.656,-214.53
29.671,-183.2
29.687,-154.86
29.703,-130.91
29.718,-114.51
29.734,-106.97
29.750,-107.26
29.765,-112.45
29.781,-119.44
29.796,-124.33
29.812,-125.8
29.828,-124.95
29.843,-123.94
29.859,-125.7
29.875,-131.96
29.890,-143.42
29.906,-158.69
29.921,-176.46
29.937,-194.3
29.953,-209.56
29.968,-219.27
29.984,-215.29
30.000,-192.89
30.015,-153.98
30.031,-107.92
30.046,-66.51
30.062,-38.11
30.078,-24.2
30.093,-21.26
30.109,-24.79
30.125,-30.22
30.140,-34.94
30.156,-36.56
30.171,-32.22
30.187,-18.81
30.203,5.87
30.218,42.18
30.234,88.97
30.250,142.17
30.265,196.39
30.281,244.55
30.296,279.47
30.312,295.36
30.328,289.19
30.343,261.53
30.359,216.16
30.375,158.54
30.390,93.83
30.406,26.0
30.421,-42.64
30.437,-109.04
30.453,-167.07
30.468,-207.21
30.484,-219.48
30.500,-198.47
30.515,-147.91
30.531,-81.69
30.546,-19.6
30.562,19.71
30.578,26.58
30.593,3.96
30.609,-34.74
30.625,-72.95
30.640,-99.16
30.656,-111.93
30.671,-119.42
30.687,-134.36
30.703,-167.73
30.718,-224.14
30.734,-300.58
30.750,-388.08
30.765,-474.55
30.781,-547.64
30.796,-596.99
30.812,-615.44
30.828,-599.99
30.843,-551.92
30.859,-476.28
30.875,-380.9
30.890,-274.75
30.906,-166.64
30.921,-64.34
30.937,25.89
30.953,99.72
30.968,155.38
30.984,194.17
31.000,220.08
31.015,238.21
31.031,252.44
31.046,263.57
31.062,268.85
31.078,263.59
31.093,243.83
31.109,209.06
31.125,163.18
31.140,113.23
31.156,66.64
31.171,28.36
31.187,-0.3
31.203,-21.0
31.218,-36.15
31.234,-46.73
31.250,-51.38
31.265,-47.46
31.281,-32.99
31.296,-8.51
31.312,22.54
31.328,55.04
31.343,84.1
31.359,106.81
31.375,122.85
31.390,134.01
31.406,142.63
31.421,150.19
31.437,156.69
31.453,161.2
31.468,162.87
31.484,161.94
31.500,159.86
31.515,158.61
31.531,159.58
31.546,162.75
31.562,166.54
31.578,168.41
31.593,165.9
31.609,157.79
31.625,144.54
31.640,128.13
31.656,111.14
31.671,95.73
31.687,82.92
31.703,72.53
31.718,63.7
31.734,55.58
31.750,47.86
31.765,40.86
31.781,35.29
31.796,31.63
31.812,29.6
31.828,28.05
31.843,25.43
31.859,20.27
31.875,11.85
31.890,0.42
31.906,-12.95
31.921,-26.82
31.937,-40.0
31.953,-51.94
31.968,-62.89
31.984,-73.53
32.000,-84.36
32.015,-95.17
32.031,-104.84
32.046,-111.84
32.062,-114.73
32.078,-112.45
32.093,-104.17
32.109,-88.91
32.125,-65.53
32.140,-33.24
32.156,7.51
32.171,54.44
32.187,103.44
32.203,149.5
32.218,187.73
32.234,214.43
32.250,227.51
32.265,226.47
32.281,212.16
32.296,186.57
32.312,152.65
32.328,113.98
32.343,74.58
32.359,38.2
32.375,7.89
32.390,-14.56
32.406,-29.02
32.421,-37.19
32.437,-42.44
32.453,-49.06
32.468,-61.0
32.484,-80.33
32.500,-106.49
32.515,-136.47
32.531,-165.98
32.546,-190.93
32.562,-208.27
32.578,-216.12
32.593,-213.35
32.609,-199.16
32.625,-173.21
32.640,-136.22
32.656,-90.51
32.671,-40.18
32.687,9.22
32.703,51.67
32.718,81.62
32.734,94.93
32.750,89.46
32.765,65.55
32.781,26.31
32.796,-22.44
32.812,-72.84
32.828,-116.3
32.843,-145.21
32.859,-154.49
32.875,-142.62
32.890,-111.65
32.906,-66.29
32.921,-12.83
32.937,42.06
32.953,92.09
32.968,131.8
32.984,157.15
33.000,166.15
33.015,159.19
33.031,139.05
33.046,109.94
33.062,76.07
33.078,40.45
33.093,4.59
33.109,-30.76
33.125,-64.09
33.140,-92.2
33.156,-110.63
33.171,-115.57
33.187,-106.03
33.203,-84.98
33.218,-58.29
33.234,-32.1
33.250,-10.24
33.265,6.88
33.281,21.2
33.296,34.61
33.312,46.59
33.328,53.51
33.343,49.89
33.359,31.06
33.375,-4.22
33.390,-52.45
33.406,-105.76
33.421,-153.82
33.437,-186.42
33.453,-195.97
33.468,-179.49
33.484,-139.32
33.500,-82.48
33.515,-18.69
33.531,42.27
33.546,92.87
33.562,128.97
33.578,149.56
33.593,155.83
33.609,150.03
33.625,134.8
33.640,113.12
33.656,88.32
33.671,63.74
33.687,42.22
33.703,25.42
33.718,13.57
33.734,5.84
33.750,1.02
33.765,-1.97
33.781,-3.74
33.796,-4.5
33.812,-4.42
33.828,-3.73
33.843,-2.66
33.859,-1.41
33.875,-0.03
33.890,1.65
33.906,4.09
33.921,8.08
33.937,14.72
33.953,24.88
33.968,38.5
33.984,54.0
34.000,68.13
34.015,76.78
34.031,76.47
34.046,65.9
34.062,46.86
34.078,23.79
34.093,2.3
34.109,-12.59
34.125,-17.67
34.140,-11.85
34.156,4.23
34.171,28.78
34.187,59.0
34.203,91.03
34.218,120.11
34.234,141.33
34.250,151.14
34.265,148.65
34.281,136.05
34.296,117.77
34.312,98.71
34.328,82.48
34.343,70.47
34.359,62.16
34.375,55.87
34.390,49.76
34.406,42.35
34.421,32.5
34.437,19.69
34.453,4.07
34.468,-13.27
34.484,-30.35
34.500,-44.76
34.515,-54.56
34.531,-58.79
34.546,-57.69
34.562,-52.32
34.578,-43.75
34.593,-32.58
34.609,-18.79
34.625,-2.06
34.640,17.83
34.656,40.27
34.671,63.53
34.687,84.65
34.703,100.02
34.718,106.22
34.734,100.98
34.750,83.97
34.765,57.18
34.781,24.88
34.796,-6.96
34.812,-31.6
34.828,-43.03
34.843,-37.49
34.859,-14.8
34.875,21.1
34.890,62.9
34.906,102.05
34.921,131.25
34.937,146.52
34.953,147.65
34.968,137.07
34.984,118.12
35.000,93.69
35.015,65.92
35.031,36.55
35.046,7.63
35.062,-18.47
35.078,-39.59
35.093,-54.29
35.109,-62.07
35.125,-63.15
35.140,-58.13
35.156,-48.24
35.171,-36.03
35.187,-25.86
35.203,-23.16
35.218,-32.56
35.234,-55.31
35.250,-87.89
35.265,-122.74
35.281,-151.3
35.296,-167.62
35.312,-170.94
35.328,-165.78
35.343,-159.36
35.359,-157.93
35.375,-163.4
35.390,-172.59
35.406,-178.75
35.421,-175.02
35.437,-157.59
35.453,-127.39
35.468,-89.64
35.484,-51.37
35.500,-18.89
35.515,4.28
35.531,17.44
35.546,21.7
35.562,18.61
35.578,9.3
35.593,-5.24
35.609,-23.43
35.625,-42.49
35.640,-58.85
35.656,-69.18
35.671,-71.87
35.687,-67.72
35.703,-59.63
35.718,-51.36
35.734,-45.98
35.750,-44.77
35.765,-46.84
35.781,-49.84
35.796,-51.03
35.812,-48.39
35.828,-41.32
35.843,-30.58
35.859,-17.89
35.875,-5.08
35.890,6.39
35.906,15.84
35.921,23.2
35.937,28.86
35.953,33.22
35.968,36.46
35.984,38.56
36.000,39.28
36.015,38.44
36.031,35.96
36.046,32.01
36.062,26.94
36.078,21.28
36.093,15.53
36.109,10.08
36.125,5.16
36.140,0.82
36.156,-3.04
36.171,-6.53
36.187,-9.74
36.203,-12.56
36.218,-14.83
36.234,-16.3
36.250,-16.81
36.265,-16.29
36.281,-14.85
36.296,-12.67
36.312,-9.96
36.328,-6.96
36.343,-3.84
36.359,-0.77
36.375,2.01
36.390,4.21
36.406,5.58
36.421,5.91
36.437,5.23
36.453,3.78
36.468,1.95
36.484,0.19
36.500,-1.05
36.515,-1.37
36.531,-0.57
36.546,1.37
36.562,4.14
36.578,7.13
36.593,9.6
36.609,10.85
36.625,10.49
36.640,8.54
36.656,5.5
36.671,2.11
36.687,-0.93
36.703,-3.09
36.718,-4.25
36.734,-4.6
36.750,-4.59
36.765,-4.69
36.781,-5.27
36.796,-6.44
36.812,-8.04
36.828,-9.71
36.843,-11.0
36.859,-11.57
36.875,-11.14
36.890,-9.63
36.906,-7.12
36.921,-3.88
36.937,-0.29
36.953,3.15
36.968,5.97
36.984,7.8
37.000,8.42
37.015,7.97
37.031,6.77
37.046,5.23
37.062,3.79
37.078,2.74
37.093,2.17
37.109,2.04
37.125,2.2
37.140,2.42
37.156,2.56
37.171,2.5
37.187,2.08
37.203,1.11
37.218,-0.66
37.234,-3.4
37.250,-7.17
37.265,-11.65
37.281,-16.39
37.296,-20.75
37.312,-24.22
37.328,-26.6
37.343,-27.89
37.359,-28.26
37.375,-27.92
37.390,-27.01
37.406,-25.63
37.421,-23.82
37.437,-21.54
37.453,-18.71
37.468,-15.21
37.484,-10.98
37.500,-6.27
37.515,-1.6
37.531,2.39
37.546,5.21
37.562,6.89
37.578,8.13
37.593,10.0
37.609,13.55
37.625,19.31
37.640,27.01
37.656,35.61
37.671,43.73
37.687,50.01
37.703,53.54
37.718,54.09
37.734,52.17
37.750,48.77
37.765,45.07
37.781,41.99
37.796,39.84
37.812,38.32
37.828,36.55
37.843,33.4
37.859,27.95
37.875,19.76
37.890,9.1
37.906,-2.96
37.921,-14.73
37.937,-24.37
37.953,-30.45
37.968,-32.52
37.984,-31.33
38.000,-28.43
38.015,-25.52
38.031,-23.61
38.046,-22.57
38.062,-21.36
38.078,-18.76
38.093,-14.04
38.109,-7.41
38.125,0.05
38.140,6.91
38.156,11.9
38.171,14.2
38.187,13.65
38.203,10.67
38.218,6.1
38.234,1.01
38.250,-3.53
38.265,-6.84
38.281,-8.75
38.296,-9.5
38.312,-9.55
38.328,-9.12
38.343,-8.14
38.359,-6.41
38.375,-3.94
38.390,-1.17
38.406,0.97
38.421,1.59
38.437,0.3
38.453,-2.44
38.468,-5.45
38.484,-7.35
38.500,-7.34
38.515,-5.35
38.531,-1.97
38.546,1.97
38.562,5.82
38.578,9.11
38.593,11.36
38.609,12.0
38.625,10.44
38.640,6.53
38.656,1.07
38.671,-4.25
38.687,-7.29
38.703,-6.27
38.718,-0.63
38.734,8.74
38.750,19.79
38.765,30.03
38.781,37.31
38.796,40.34
38.812,38.88
38.828,33.54
38.843,25.64
38.859,16.72
38.875,8.21
38.890,1.22
38.906,-3.7
38.921,-6.58
38.937,-7.97
38.953,-8.8
38.968,-10.04
38.984,-12.29
39.000,-15.6
39.015,-19.38
39.031,-22.53
39.046,-23.87
39.062,-22.7
39.078,-19.04
39.093,-13.75
39.109,-8.2
39.125,-3.64
39.140,-0.9
39.156,-0.02
39.171,-0.41
39.187,-1.23
39.203,-1.84
39.218,-2.05
39.234,-2.06
39.250,-2.15
39.265,-2.36
39.281,-2.39
39.296,-1.81
39.312,-0.42
39.328,1.54
39.343,3.51
39.359,5.06
39.375,6.12
39.390,7.09
39.406,8.38
39.421,9.98
39.437,11.19
39.453,11.06
39.468,8.84
39.484,4.55
39.500,-0.95
39.515,-6.49
39.531,-11.07
39.546,-14.19
39.562,-15.75
39.578,-15.73
39.593,-14.05
39.609,-10.61
39.625,-5.67
39.640,0.04
39.656,5.42
39.671,9.38
39.687,11.38
39.703,11.54
39.718,10.51
39.734,9.01
39.750,7.48
39.765,6.0
39.781,4.47
39.796,2.93
39.812,1.62
39.828,1.04
39.843,1.57
39.859,3.33
39.875,5.97
39.890,8.79
39.906,10.93
39.921,11.73
39.937,10.89
39.953,8.59
39.968,5.48
39.984,2.39
40.000,0.01
40.015,-1.32
40.031,-1.69
40.046,-1.56
40.062,-1.48
40.078,-1.77
40.093,-2.41
40.109,-3.03
40.125,-3.22
40.140,-2.66
40.156,-1.35
40.171,0.53
40.187,2.73
40.203,5.04
40.218,7.43
40.234,9.89
40.250,12.38
40.265,14.75
40.281,16.73
40.296,18.11
40.312,18.75
40.328,18.72
40.343,18.22
40.359,17.56
40.375,16.92
40.390,16.44
40.406,16.08
40.421,15.74
40.437,15.33
40.453,14.89
40.468,14.55
40.484,14.52
40.500,14.98
40.515,15.95
40.531,17.29
40.546,18.76
40.562,20.08
40.578,21.1
40.593,21.88
40.609,22.62
40.625,23.6
40.640,25.08
40.656,27.2
40.671,29.99
40.687,33.39
40.703,37.27
40.718,41.52
40.734,45.98
40.750,50.42
40.765,54.44
40.781,57.38
40.796,58.45
40.812,56.92
40.828,52.41
40.843,45.05
40.859,35.57
40.875,25.06
40.890,14.53
40.906,4.67
40.921,-4.5
40.937,-13.66
40.953,-24.07
40.968,-37.13
40.984,-53.92
41.000,-74.69
41.015,-98.6
41.031,-123.81
41.046,-147.71
41.062,-167.4
41.078,-180.16
41.093,-183.94
41.109,-177.81
41.125,-162.35
41.140,-139.78
41.156,-113.56
41.171,-87.6
41.187,-64.91
41.203,-46.8
41.218,-32.58
41.234,-20.26
41.250,-7.81
41.265,5.8
41.281,20.12
41.296,33.64
41.312,44.76
41.328,52.47
41.343,56.6
41.359,57.56
41.375,55.89
41.390,52.0
41.406,46.38
41.421,39.78
41.437,33.38
41.453,28.58
41.468,26.44
41.484,27.25
41.500,30.41
41.515,34.63
41.531,38.38
41.546,40.47
41.562,40.33
41.578,38.09
41.593,34.47
41.609,30.41
41.625,26.83
41.640,24.42
41.656,23.47
41.671,23.78
41.687,24.75
41.703,25.54
41.718,25.43
41.734,24.09
41.750,21.7
41.765,18.89
41.781,16.41
41.796,14.92
41.812,14.67
41.828,15.49
41.843,16.87
41.859,18.2
41.875,18.94
41.890,18.76
41.906,17.69
41.921,16.01
41.937,14.26
41.953,12.98
41.968,12.58
41.984,13.07
42.000,14.12
42.015,15.08
42.031,15.21
42.046,13.94
42.062,11.06
42.078,6.78
42.093,1.64
42.109,-3.57
42.125,-8.07
42.140,-11.18
42.156,-12.55
42.171,-12.23
42.187,-10.7
42.203,-8.72
42.218,-7.18
42.234,-6.75
42.250,-7.69
42.265,-9.87
42.281,-12.82
42.296,-15.96
42.312,-18.8
42.328,-20.95
42.343,-22.13
42.359,-22.17
42.375,-20.96
42.390,-18.6
42.406,-15.4
42.421,-11.92
42.437,-8.74
42.453,-6.27
42.468,-4.7
42.484,-3.91
42.500,-3.72
42.515,-4.01
42.531,-4.87
42.546,-6.43
42.562,-8.73
42.578,-11.48
42.593,-14.09
42.609,-15.85
42.625,-16.18
42.640,-14.98
42.656,-12.58
42.671,-9.71
42.687,-7.2
42.703,-5.54
42.718,-4.91
42.734,-5.16
42.750,-6.08
42.765,-7.66
42.781,-10.12
42.796,-13.69
42.812,-18.32
42.828,-23.51
42.843,-28.31
42.859,-31.71
42.875,-33.1
42.890,-32.5
42.906,-30.46
42.921,-27.67
42.937,-24.49
42.953,-20.71
42.968,-15.78
42.984,-9.15
43.000,-0.66
43.015,9.26
43.031,19.75
43.046,29.66
43.062,37.76
43.078,42.99
43.093,44.57
43.109,42.23
43.125,36.55
43.140,28.85
43.156,20.88
43.171,14.28
43.187,9.93
43.203,7.72
43.218,6.81
43.234,6.08
43.250,4.62
43.265,2.07
43.281,-1.38
43.296,-5.22
43.312,-8.76
43.328,-11.3
43.343,-12.47
43.359,-12.34
43.375,-11.55
43.390,-11.01
43.406,-11.3
43.421,-12.24
43.437,-13.05
43.453,-12.93
43.468,-11.77
43.484,-10.49
43.500,-10.7
43.515,-13.77
43.531,-19.82
43.546,-27.26
43.562,-33.28
43.578,-35.19
43.593,-31.93
43.609,-24.9
43.625,-17.59
43.640,-14.23
43.656,-17.81
43.671,-28.5
43.687,-43.24
43.703,-56.78
43.718,-63.7
43.734,-60.52
43.750,-47.05
43.765,-26.31
43.781,-3.17
43.796,17.5
43.812,32.31
43.828,40.18
43.843,42.21
43.859,41.14
43.875,40.39
43.890,42.95
43.906,50.42
43.921,62.62
43.937,77.6
43.953,92.39
43.968,104.09
43.984,110.89
44.000,112.61
44.015,110.44
44.031,106.22
44.046,101.54
44.062,97.41
44.078,94.37
44.093,92.9
44.109,93.92
44.125,98.71
44.140,108.2
44.156,121.95
44.171,137.43
44.187,150.22
44.203,155.47
44.218,149.76
44.234,132.72
44.250,107.19
44.265,77.84
44.281,49.13
44.296,23.59
44.312,1.57
44.328,-17.79
44.343,-34.78
44.359,-48.18
44.375,-55.47
44.390,-54.26
44.406,-44.03
44.421,-26.91
44.437,-7.24
44.453,10.07
44.468,21.38
44.484,25.49
44.500,23.52
44.515,17.85
44.531,10.7
44.546,3.24
44.562,-4.54
44.578,-13.22
44.593,-23.17
44.609,-34.06
44.625,-44.97
44.640,-54.74
44.656,-62.62
44.671,-68.5
44.687,-72.88
44.703,-76.61
44.718,-80.45
44.734,-84.66
44.750,-88.71
44.765,-91.16
44.781,-89.94
44.796,-82.82
44.812,-68.21
44.828,-45.8
44.843,-16.9
44.859,15.7
44.875,48.42
44.890,77.72
44.906,101.01
44.921,117.14
44.937,126.54
44.953,130.82
44.968,132.14
44.984,132.53
45.000,133.17
45.015,134.15
45.031,134.37
45.046,131.8
45.062,124.04
45.078,108.99
45.093,85.63
45.109,54.55
45.125,17.99
45.140,-20.56
45.156,-57.26
45.171,-89.04
45.187,-114.16
45.203,-132.31
45.218,-144.04
45.234,-150.21
45.250,-151.65
45.265,-149.27
45.281,-144.19
45.296,-137.69
45.312,-130.79
45.328,-123.78
45.343,-116.06
45.359,-106.55
45.375,-94.46
45.390,-79.97
45.406,-64.33
45.421,-49.36
45.437,-36.51
45.453,-26.38
45.468,-18.66
45.484,-12.57
45.500,-7.29
45.515,-2.27
45.531,2.88
45.546,8.57
45.562,15.04
45.578,22.12
45.593,28.99
45.609,34.29
45.625,36.56
45.640,34.92
45.656,29.54
45.671,21.4
45.687,11.93
45.703,2.23
45.718,-7.35
45.734,-17.05
45.750,-27.41
45.765,-38.75
45.781,-51.01
45.796,-63.68
45.812,-75.87
45.828,-86.15
45.843,-92.54
45.859,-92.59
45.875,-84.02
45.890,-65.7
45.906,-38.56
45.921,-5.99
45.937,26.82
45.953,54.25
45.968,72.02
45.984,78.21
46.000,73.6
46.015,60.99
46.031,43.94
46.046,25.8
46.062,9.19
46.078,-4.03
46.093,-12.59
46.109,-15.5
46.125,-12.22
46.140,-2.96
46.156,11.16
46.171,28.0
46.187,44.71
46.203,58.45
46.218,67.05
46.234,69.4
46.250,65.62
46.265,56.8
46.281,44.54
46.296,30.62
46.312,16.61
46.328,3.72
46.343,-7.3
46.359,-16.32
46.375,-23.77
46.390,-30.51
46.406,-37.39
46.421,-44.92
46.437,-52.85
46.453,-60.27
46.468,-65.75
46.484,-67.72
46.500,-64.74
46.515,-55.73
46.531,-40.26
46.546,-18.92
46.562,6.3
46.578,32.09
46.593,54.29
46.609,68.99
46.625,73.72
46.640,68.22
46.656,54.49
46.671,35.85
46.687,15.68
46.703,-3.67
46.718,-21.25
46.734,-37.18
46.750,-51.8
46.765,-65.12
46.781,-76.5
46.796,-84.84
46.812,-89.07
46.828,-88.63
46.843,-83.72
46.859,-75.22
46.875,-64.46
46.890,-52.75
46.906,-41.03
46.921,-29.83
46.937,-19.35
46.953,-9.65
46.968,-0.81
46.984,7.18
47.000,14.65
47.015,22.45
47.031,31.87
47.046,44.13
47.062,59.8
47.078,78.32
47.093,98.13
47.109,117.2
47.125,133.77
47.140,146.78
47.156,155.91
47.171,161.17
47.187,162.6
47.203,160.08
47.218,153.52
47.234,143.06
47.250,129.14
47.265,112.54
47.281,94.25
47.296,75.41
47.312,57.35
47.328,41.53
47.343,29.21
47.359,21.12
47.375,17.08
47.390,15.92
47.406,15.9
47.421,15.37
47.437,13.25
47.453,9.3
47.468,3.89
47.484,-2.55
47.500,-9.95
47.515,-18.67
47.531,-29.41
47.546,-42.62
47.562,-58.11
47.578,-74.91
47.593,-91.51
47.609,-106.43
47.625,-118.83
47.640,-128.65
47.656,-136.33
47.671,-142.26
47.687,-146.15
47.703,-147.0
47.718,-143.55
47.734,-135.03
47.750,-121.74
47.765,-105.09
47.781,-87.14
47.796,-69.85
47.812,-54.55
47.828,-41.79
47.843,-31.48
47.859,-23.33
47.875,-17.06
47.890,-12.44
47.906,-9.29
47.921,-7.32
47.937,-6.2
47.953,-5.49
47.968,-4.77
47.984,-3.76
48.000,-2.44
48.015,-1.13
48.031,-0.42
48.046,-1.11
48.062,-3.75
48.078,-8.49
48.093,-14.87
48.109,-21.99
48.125,-28.89
48.140,-34.75
48.156,-39.22
48.171,-42.36
48.187,-44.5
48.203,-45.96
48.218,-46.88
48.234,-47.11
48.250,-46.21
48.265,-43.66
48.281,-38.97
48.296,-31.92
48.312,-22.65
48.328,-11.68
48.343,0.19
48.359,12.12
48.375,23.26
48.390,33.08
48.406,41.37
48.421,48.24
48.437,54.01
48.453,59.08
48.468,63.63
48.484,67.59
48.500,70.72
48.515,72.62
48.531,73.09
48.546,72.1
48.562,69.73
48.578,66.11
48.593,61.37
48.609,55.64
48.625,49.15
48.640,42.34
48.656,35.7
48.671,29.66
48.687,24.45
48.703,20.08
48.718,16.35
48.734,13.11
48.750,10.3
48.765,7.93
48.781,6.15
48.796,5.07
48.812,4.77
48.828,5.31
48.843,6.69
48.859,8.87
48.875,11.7
48.890,14.94
48.906,18.31
48.921,21.63
48.937,24.78
48.953,27.85
48.968,30.95
48.984,34.09
49.000,37.12
49.015,39.62
49.031,41.06
49.046,41.08
49.062,39.7
49.078,37.46
49.093,35.31
49.109,34.23
49.125,34.72
49.140,36.68
49.156,39.36
49.171,41.73
49.187,42.93
49.203,42.71
49.218,41.43
49.234,39.94
49.250,39.12
49.265,39.3
49.281,40.06
49.296,40.14
49.312,37.75
49.328,31.01
49.343,18.62
49.359,0.32
49.375,-22.68
49.390,-47.84
49.406,-71.78
49.421,-91.26
49.437,-104.01
49.453,-109.3
49.468,-107.99
49.484,-101.93
49.500,-93.25
49.515,-83.64
49.531,-74.31
49.546,-66.17
49.562,-60.25
49.578,-57.75
49.593,-59.61
49.609,-66.15
49.625,-76.8
49.640,-90.16
49.656,-104.0
49.671,-115.99
49.687,-124.46
49.703,-129.2
49.718,-131.92
49.734,-136.02
49.750,-145.51
49.765,-163.65
49.781,-191.65
49.796,-227.82
49.812,-267.47
49.828,-303.28
49.843,-326.73
49.859,-330.16
49.875,-309.01
49.890,-263.53
49.906,-199.26
49.921,-125.74
49.937,-53.7
49.953,8.21
49.968,55.79
49.984,89.88
50.000,114.56
50.015,134.49
50.031,152.66
50.046,170.07
50.062,186.37
50.078,201.34
50.093,215.76
50.109,230.72
50.125,246.39
50.140,260.63
50.156,269.19
50.171,267.35
50.187,252.46
50.203,225.74
50.218,192.34
50.234,159.28
50.250,132.34
50.265,113.68
50.281,101.33
50.296,90.95
50.312,78.28
50.328,61.27
50.343,40.72
50.359,19.32
50.375,-0.04
50.390,-15.73
50.406,-27.82
50.421,-37.57
50.437,-46.39
50.453,-55.03
50.468,-63.18
50.484,-69.78
50.500,-73.59
50.515,-73.85
50.531,-70.69
50.546,-65.12
50.562,-58.72
50.578,-53.1
50.593,-49.41
50.609,-47.92
50.625,-48.04
50.640,-48.6
50.656,-48.36
50.671,-46.47
50.687,-42.73
50.703,-37.52
50.718,-31.54
50.734,-25.46
50.750,-19.7
50.765,-14.48
50.781,-10.0
50.796,-6.64
50.812,-4.87
50.828,-5.16
50.843,-7.61
50.859,-11.86
50.875,-17.1
50.890,-22.27
50.906,-26.41
50.921,-28.93
50.937,-29.81
50.953,-29.48
50.968,-28.66
50.984,-27.97
51.000,-27.73
51.015,-27.99
51.031,-28.5
51.046,-28.93
51.062,-29.05
51.078,-28.76
51.093,-28.05
51.109,-26.93
51.125,-25.36
51.140,-23.24
51.156,-20.64
51.171,-17.62
51.187,-14.4
51.203,-11.26
51.218,-8.37
51.234,-5.88
51.250,-3.88
51.265,-2.5
51.281,-1.8
51.296,-1.88
51.312,-2.61
51.328,-3.69
51.343,-4.69
51.359,-5.13
51.375,-4.72
51.390,-3.49
51.406,-1.66
51.421,0.43
51.437,2.49
51.453,4.35
51.468,5.94
51.484,7.1
51.500,7.65
51.515,7.25
51.531,5.64
51.546,2.86
51.562,-0.78
51.578,-4.63
51.593,-8.01
51.609,-10.41
51.625,-11.74
51.640,-12.18
51.656,-12.19
51.671,-12.16
51.687,-12.31
51.703,-12.67
51.718,-13.12
51.734,-13.52
51.750,-13.75
51.765,-13.76
51.781,-13.49
51.796,-12.85
51.812,-11.73
51.828,-10.03
51.843,-7.81
51.859,-5.22
51.875,-2.52
51.906,2.12
51.921,3.63
51.937,4.32
51.953,3.93
51.968,2.33
51.984,-0.33
52.000,-3.33
52.015,-5.49
52.031,-5.56
52.046,-2.81
52.062,2.46
52.078,8.94
52.093,14.81
52.109,18.61
52.125,19.79
52.140,18.98
52.156,17.4
52.171,16.15
52.187,15.58
52.203,15.28
52.218,14.43
52.234,12.47
52.250,9.44
52.265,5.83
52.281,2.31
52.296,-0.75
52.312,-3.4
52.328,-5.86
52.343,-8.24
52.359,-10.37
52.375,-11.81
52.390,-12.21
52.406,-11.58
52.421,-10.32
52.437,-9.04
52.453,-8.1
52.468,-7.49
52.484,-6.81
52.500,-5.59
52.515,-3.57
52.531,-0.9
52.546,1.97
52.562,4.49
52.578,6.19
52.593,6.88
52.609,6.58
52.625,5.41
52.640,3.59
52.656,1.48
52.671,-0.46
52.687,-1.62
52.703,-1.42
52.718,0.36
52.734,3.5
52.750,7.32
52.765,10.87
52.781,13.34
52.796,14.25
52.812,13.55
52.828,11.54
52.843,8.62
52.859,5.08
52.875,1.1
52.890,-3.18
52.906,-7.55
52.921,-11.58
52.937,-14.77
52.953,-16.72
52.968,-17.21
52.984,-16.34
53.000,-14.4
53.015,-11.74
53.031,-8.67
53.046,-5.42
53.062,-2.14
53.078,1.03
53.093,3.93
53.109,6.3
53.125,7.89
53.140,8.46
53.156,7.95
53.171,6.55
53.187,4.6
53.203,2.65
53.218,1.2
53.234,0.58
53.250,0.78
53.265,1.53
53.281,2.45
53.296,3.26
53.312,3.85
53.328,4.27
53.343,4.62
53.359,4.92
53.375,5.06
53.390,4.96
53.406,4.5
53.421,3.73
53.437,2.76
53.453,1.66
53.468,0.47
53.484,-0.91
53.500,-2.52
53.515,-4.33
53.531,-6.11
53.546,-7.51
53.562,-8.23
53.578,-8.0
53.593,-6.77
53.609,-4.68
53.625,-2.07
53.640,0.62
53.656,2.9
53.671,4.44
53.687,5.1
53.703,5.05
53.718,4.66
53.734,4.37
53.750,4.48
53.765,5.09
53.781,6.08
53.796,7.21
53.812,8.33
53.828,9.41
53.843,10.45
53.859,11.5
53.875,12.5
53.890,13.31
53.906,13.74
53.921,13.63
53.937,12.96
53.953,11.76
53.968,10.15
53.984,8.24
54.000,6.14
54.015,3.86
54.031,1.42
54.046,-1.23
54.062,-4.15
54.078,-7.41
54.093,-11.03
54.109,-14.89
54.125,-18.75
54.140,-22.09
54.156,-24.39
54.171,-25.15
54.187,-24.11
54.203,-21.41
54.218,-17.47
54.234,-12.85
54.250,-8.12
54.265,-3.72
54.281,0.14
54.296,3.3
54.312,5.71
54.328,7.3
54.343,8.13
54.359,8.35
54.375,8.22
54.390,8.07
54.406,8.19
54.421,8.69
54.437,9.55
54.453,10.64
54.468,11.79
54.484,12.86
54.500,13.8
54.515,14.55
54.531,15.09
54.546,15.42
54.562,15.54
54.578,15.51
54.593,15.42
54.609,15.32
54.625,15.19
54.640,14.95
54.656,14.45
54.671,13.5
54.687,12.04
54.703,10.1
54.718,7.85
54.734,5.5
54.750,3.31
54.765,1.47
54.781,0.11
54.796,-0.72
54.812,-1.08
54.828,-1.06
54.843,-0.76
54.859,-0.16
54.875,0.79
54.890,2.25
54.906,4.29
54.921,6.9
54.937,9.9
54.953,13.0
54.968,15.96
54.984,18.59
55.000,20.85
55.015,22.71
55.031,24.12
55.046,24.92
55.062,24.96
55.078,24.13
55.093,22.48
55.109,20.23
55.125,17.7
55.140,15.27
55.156,13.2
55.171,11.63
55.187,10.56
55.203,9.87
55.218,9.4
55.234,9.02
55.250,8.65
55.265,8.28
55.281,7.9
55.296,7.51
55.312,7.03
55.328,6.35
55.343,5.34
55.359,3.96
55.375,2.24
55.390,0.38
55.406,-1.44
55.421,-3.01
55.437,-4.25
55.453,-5.27
55.468,-6.24
55.484,-7.42
55.500,-8.91
55.515,-10.56
55.531,-12.01
55.546,-12.74
55.562,-12.32
55.578,-10.48
55.593,-7.28
55.609,-3.01
55.625,1.87
55.640,6.87
55.656,11.56
55.671,15.61
55.687,18.87
55.703,21.25
55.718,22.88
55.734,23.91
55.750,24.51
55.765,24.83
55.781,24.9
55.796,24.68
55.812,24.11
55.828,23.21
55.843,21.96
55.859,20.43
55.875,18.67
55.890,16.74
55.906,14.75
55.921,12.84
55.937,11.15
55.953,9.79
55.968,8.81
55.984,8.11
56.000,7.55
56.015,6.97
56.031,6.21
56.046,5.25
56.062,4.11
56.078,2.92
56.093,1.73
56.109,0.57
56.125,-0.64
56.140,-2.01
56.156,-3.65
56.171,-5.67
56.187,-8.03
56.203,-10.63
56.218,-13.18
56.234,-15.33
56.250,-16.59
56.265,-16.56
56.281,-15.03
56.296,-12.04
56.312,-7.98
56.328,-3.4
56.343,1.1
56.359,5.06
56.375,8.22
56.390,10.56
56.406,12.16
56.421,13.12
56.437,13.51
56.453,13.36
56.468,12.78
56.484,11.91
56.500,10.88
56.515,9.83
56.531,8.85
56.546,7.92
56.562,6.98
56.578,5.93
56.593,4.73
56.609,3.42
56.625,2.08
56.640,0.83
56.656,-0.26
56.671,-1.25
56.687,-2.32
56.703,-3.69
56.718,-5.44
56.734,-7.52
56.750,-9.64
56.765,-11.33
56.781,-12.13
56.796,-11.8
56.812,-10.44
56.828,-8.6
56.843,-7.02
56.859,-6.4
56.875,-7.16
56.890,-9.21
56.906,-11.95
56.921,-14.53
56.937,-16.15
56.953,-16.37
56.968,-15.21
56.984,-13.09
57.000,-10.58
57.015,-8.19
57.031,-6.23
57.046,-4.7
57.062,-3.45
57.078,-2.24
57.093,-0.78
57.109,1.1
57.125,3.51
57.140,6.41
57.156,9.63
57.171,12.87
57.187,15.78
57.203,17.97
57.218,19.11
57.234,18.99
57.250,17.5
57.265,14.7
57.281,10.82
57.296,6.15
57.312,1.03
57.328,-4.28
57.343,-9.39
57.359,-13.71
57.375,-16.32
57.390,-16.21
57.406,-12.61
57.421,-5.46
57.437,4.29
57.453,14.93
57.468,24.51
57.484,31.71
57.500,36.48
57.515,40.1
57.531,44.48
57.546,51.2
57.562,60.32
57.578,70.23
57.593,78.32
57.609,82.26
57.625,81.33
57.640,76.89
57.656,71.8
57.671,68.81
57.687,69.29
57.703,72.55
57.718,76.52
57.734,79.13
57.750,79.4
57.765,77.79
57.781,75.49
57.796,73.36
57.812,71.31
57.828,68.5
57.843,64.07
57.859,57.82
57.875,50.46
57.890,43.07
57.906,36.55
57.921,31.13
57.937,26.43
57.953,21.82
57.968,16.92
57.984,11.7
58.000,6.36
58.015,1.09
58.031,-4.2
58.046,-9.9
58.062,-16.52
58.078,-24.49
58.093,-33.91
58.109,-44.45
58.125,-55.27
58.140,-65.3
58.156,-73.37
58.171,-78.67
58.187,-80.92
58.203,-80.45
58.218,-77.99
58.234,-74.25
58.250,-69.58
58.265,-63.77
58.281,-56.33
58.296,-46.92
58.312,-35.84
58.328,-24.17
58.343,-13.46
58.359,-5.16
58.390,2.23
58.406,2.44
58.421,1.71
58.437,0.79
58.453,-0.12
58.468,-1.28
58.484,-3.03
58.500,-5.53
58.515,-8.69
58.531,-12.17
58.546,-15.62
58.562,-18.76
58.578,-21.28
58.593,-22.76
58.609,-22.71
58.625,-20.69
58.640,-16.58
58.656,-10.82
58.671,-4.44
58.687,1.24
58.703,4.96
58.718,5.97
58.734,4.21
58.750,0.24
58.765,-5.02
58.781,-10.65
58.796,-15.93
58.812,-20.49
58.828,-24.25
58.843,-27.33
58.859,-29.95
58.875,-32.32
58.890,-34.59
58.906,-36.69
58.921,-38.49
58.937,-39.7
58.953,-40.02
58.968,-39.19
58.984,-37.06
59.000,-33.71
59.015,-29.4
59.031,-24.58
59.046,-19.68
59.062,-14.96
59.078,-10.43
59.093,-5.83
59.109,-0.83
59.125,4.79
59.140,10.89
59.156,16.99
59.171,22.43
59.187,26.61
59.203,29.18
59.218,30.08
59.234,29.52
59.250,27.79
59.265,25.25
59.281,22.26
59.296,19.22
59.312,16.57
59.328,14.59
59.343,13.42
59.359,12.94
59.375,12.83
59.390,12.71
59.406,12.29
59.421,11.36
59.437,9.86
59.453,7.85
59.468,5.36
59.484,2.55
59.500,-0.37
59.515,-3.12
59.531,-5.4
59.546,-7.02
59.562,-7.93
59.578,-8.25
59.593,-8.13
59.609,-7.85
59.625,-7.54
59.640,-7.37
59.656,-7.48
59.671,-8.02
59.687,-9.17
59.703,-11.01
59.718,-13.47
59.734,-16.28
59.750,-19.05
59.765,-21.34
59.781,-22.89
59.796,-23.64
59.812,-23.7
59.828,-23.24
59.843,-22.3
59.859,-20.81
59.875,-18.65
59.890,-15.84
59.906,-12.5
59.921,-8.98
59.937,-5.6
59.953,-2.54
59.968,0.15
59.984,2.51
