timestamp,value
00.000,-285.38
00.015,-258.23
00.031,-243.16
00.046,-240.03
00.062,-246.39
00.078,-257.67
00.093,-269.14
00.109,-275.78
00.125,-273.56
00.140,-259.75
00.156,-233.35
00.171,-195.49
00.187,-147.99
00.203,-93.21
00.218,-34.33
00.234,24.05
00.250,77.48
00.265,122.74
00.281,159.82
00.296,194.96
00.312,231.36
00.328,268.5
00.343,301.78
00.359,324.27
00.375,330.11
00.390,317.91
00.406,291.13
00.421,256.8
00.437,222.18
00.453,191.27
00.468,164.9
00.484,142.2
00.500,122.15
00.515,104.51
00.531,90.07
00.546,79.33
00.562,71.89
00.578,66.11
00.593,59.03
00.609,47.84
00.625,31.28
00.640,9.61
00.656,-15.74
00.671,-42.7
00.687,-69.48
00.703,-94.73
00.718,-117.75
00.734,-138.52
00.750,-158.0
00.765,-174.84
00.781,-187.3
00.796,-193.46
00.812,-192.03
00.828,-182.97
00.843,-167.37
00.859,-147.42
00.875,-125.98
00.890,-105.82
00.906,-88.69
00.921,-75.73
00.937,-67.0
00.953,-62.13
00.968,-60.78
00.984,-62.61
01.000,-67.21
01.015,-74.34
01.031,-83.67
01.046,-94.6
01.062,-106.61
01.078,-118.68
01.093,-129.86
01.109,-139.47
01.125,-147.15
01.140,-152.52
01.156,-155.15
01.171,-154.22
01.187,-148.26
01.203,-138.56
01.218,-125.29
01.234,-108.57
01.250,-88.86
01.265,-66.77
01.281,-43.12
01.296,-18.88
01.312,5.13
01.328,28.33
01.343,50.24
01.359,70.88
01.375,90.22
01.390,107.8
01.406,122.97
01.421,135.11
01.437,143.75
01.453,148.95
01.468,151.41
01.484,152.22
01.500,152.8
01.515,154.39
01.531,157.59
01.546,162.41
01.562,168.57
01.578,175.63
01.593,183.4
01.609,192.03
01.625,201.95
01.640,213.79
01.656,228.24
01.671,245.8
01.687,266.66
01.703,290.02
01.718,313.51
01.734,333.17
01.750,344.16
01.765,342.43
01.781,326.49
01.796,298.09
01.812,261.64
01.828,222.84
01.843,186.52
01.859,155.52
01.875,130.65
01.890,111.44
01.906,97.18
01.921,87.45
01.937,81.97
01.953,79.79
01.968,79.48
01.984,79.33
02.000,77.87
02.015,74.39
02.031,69.08
02.046,62.64
02.062,55.88
02.078,49.55
02.093,43.88
02.109,38.84
02.125,34.4
02.140,30.49
02.156,27.05
02.171,24.03
02.187,21.36
02.203,18.82
02.218,16.21
02.234,13.1
02.250,8.99
02.265,3.54
02.281,-3.47
02.296,-11.84
02.312,-21.13
02.328,-30.66
02.343,-39.74
02.359,-47.76
02.375,-54.43
02.390,-59.8
02.406,-64.03
02.421,-67.39
02.437,-70.03
02.453,-72.05
02.468,-73.53
02.484,-74.61
02.500,-75.43
02.515,-76.24
02.531,-77.22
02.546,-78.4
02.562,-79.7
02.578,-80.88
02.593,-81.83
02.609,-82.45
02.625,-82.92
02.640,-83.41
02.656,-84.17
02.671,-85.31
02.687,-86.73
02.703,-88.3
02.718,-89.63
02.734,-90.44
02.750,-90.41
02.765,-89.32
02.781,-86.98
02.796,-83.2
02.812,-77.96
02.828,-71.45
02.843,-64.16
02.859,-56.63
02.875,-49.36
02.890,-42.69
02.906,-36.84
02.921,-31.7
02.937,-27.22
02.953,-23.23
02.968,-19.7
02.984,-16.56
03.000,-13.73
03.015,-11.05
03.031,-8.39
03.046,-5.75
03.062,-3.15
03.078,-0.73
03.093,1.47
03.109,3.48
03.125,5.43
03.140,7.33
03.156,9.21
03.171,10.97
03.187,12.59
03.203,14.01
03.218,15.46
03.234,17.07
03.250,19.01
03.265,21.23
03.281,23.43
03.296,25.3
03.312,26.62
03.328,27.5
03.343,28.14
03.359,28.92
03.375,30.31
03.390,32.71
03.406,36.45
03.421,41.65
03.437,48.19
03.453,56.0
03.468,64.64
03.484,73.43
03.500,81.67
03.515,88.83
03.531,94.91
03.546,100.32
03.562,105.71
03.578,111.73
03.593,118.97
03.609,127.2
03.625,135.55
03.640,142.88
03.656,148.37
03.671,152.19
03.687,155.54
03.703,159.89
03.718,166.29
03.734,175.44
03.750,186.58
03.765,198.0
03.781,207.86
03.796,214.86
03.812,218.83
03.828,220.21
03.843,218.81
03.859,212.72
03.875,198.66
03.890,171.12
03.906,124.03
03.921,52.52
03.937,-45.23
03.953,-166.77
03.968,-305.98
03.984,-454.73
04.000,-604.14
04.015,-735.52
04.031,-826.91
04.046,-859.79
04.062,-828.14
04.078,-741.8
04.093,-620.76
04.109,-486.38
04.125,-354.91
04.140,-235.61
04.156,-132.13
04.171,-46.18
04.187,21.51
04.203,71.09
04.218,104.3
04.234,125.36
04.250,139.51
04.265,151.27
04.281,163.61
04.296,177.75
04.312,192.08
04.328,203.12
04.343,208.05
04.359,204.07
04.375,191.05
04.390,171.26
04.406,147.97
04.421,124.34
04.437,102.71
04.453,83.73
04.468,66.62
04.484,49.08
04.500,29.43
04.515,7.58
04.531,-15.71
04.546,-39.08
04.562,-60.96
04.578,-80.12
04.593,-95.55
04.609,-101.88
04.625,-97.79
04.640,-83.87
04.656,-61.53
04.671,-33.2
04.687,-1.88
04.703,29.61
04.718,58.24
04.734,82.08
04.750,100.61
04.765,113.22
04.781,120.75
04.796,125.95
04.812,131.96
04.828,141.19
04.843,155.37
04.859,174.81
04.875,198.42
04.890,224.32
04.906,248.57
04.921,266.54
04.937,274.43
04.953,269.07
04.968,248.85
04.984,213.9
05.000,165.53
05.015,106.92
05.031,41.55
05.046,-28.47
05.062,-102.6
05.078,-176.11
05.093,-245.06
05.109,-305.59
05.125,-354.11
05.140,-388.65
05.156,-408.36
05.171,-414.09
05.187,-408.48
05.203,-394.92
05.218,-377.55
05.234,-361.32
05.250,-349.53
05.265,-343.34
05.281,-342.55
05.296,-345.96
05.312,-351.99
05.328,-359.43
05.343,-366.96
05.359,-373.55
05.375,-379.96
05.390,-387.87
05.406,-399.07
05.421,-415.03
05.437,-435.42
05.453,-456.85
05.468,-473.26
05.484,-477.33
05.500,-464.13
05.515,-433.46
05.531,-389.7
05.546,-339.98
05.562,-291.14
05.578,-247.22
05.593,-208.77
05.609,-174.22
05.625,-141.23
05.640,-108.96
05.656,-78.34
05.671,-50.95
05.687,-28.08
05.703,-9.59
05.718,6.27
05.734,21.2
05.750,35.74
05.765,49.3
05.781,60.51
05.796,68.65
05.812,74.0
05.828,77.83
05.843,81.87
05.859,88.25
05.875,97.95
05.890,110.25
05.906,122.89
05.921,132.62
05.937,136.04
05.953,130.68
05.968,115.29
05.984,90.13
06.000,58.66
06.015,24.53
06.031,-9.19
06.046,-40.33
06.062,-67.1
06.078,-87.89
06.093,-101.49
06.109,-106.73
06.125,-103.18
06.140,-85.79
06.156,-51.88
06.171,-3.06
06.187,54.95
06.203,115.66
06.218,174.43
06.234,228.16
06.250,277.49
06.265,323.32
06.281,375.73
06.296,439.83
06.312,511.77
06.328,580.79
06.343,637.26
06.359,678.19
06.375,704.52
06.390,723.52
06.406,740.21
06.421,771.95
06.437,827.15
06.453,900.75
06.468,977.93
06.484,1045.44
06.500,1098.97
06.515,1137.74
06.531,1169.49
06.546,1199.32
06.562,1250.19
06.578,1335.58
06.593,1452.4
06.609,1582.95
06.625,1707.8
06.640,1815.09
06.656,1896.42
06.671,1955.86
06.687,1863.19
06.703,1557.07
06.718,1073.32
06.734,525.35
06.750,21.2
06.765,-386.93
06.781,-665.49
06.796,-862.76
06.812,-1011.83
06.828,-1131.27
06.843,-1209.13
06.859,-1236.01
06.875,-1215.34
06.890,-1164.23
06.906,-1104.12
06.921,-1050.98
06.937,-1017.19
06.953,-999.87
06.968,-992.37
06.984,-970.23
07.000,-914.67
07.015,-822.41
07.031,-707.14
07.046,-589.52
07.062,-486.97
07.078,-413.1
07.093,-367.88
07.109,-347.34
07.125,-337.03
07.140,-327.98
07.156,-322.19
07.171,-330.36
07.187,-363.2
07.203,-424.13
07.218,-510.55
07.234,-609.39
07.250,-703.91
07.265,-772.77
07.281,-800.2
07.296,-780.29
07.312,-716.23
07.328,-616.75
07.343,-493.62
07.359,-362.29
07.375,-237.98
07.390,-133.24
07.406,-55.49
07.421,-9.26
07.437,3.64
07.453,-13.86
07.468,-52.61
07.484,-99.05
07.500,-139.16
07.515,-160.97
07.531,-153.29
07.546,-108.32
07.562,-24.59
07.578,91.82
07.593,230.03
07.609,377.99
07.625,524.35
07.640,659.96
07.656,755.08
07.671,782.58
07.687,736.46
07.703,637.53
07.718,516.72
07.734,397.27
07.750,289.7
07.765,196.36
07.781,116.51
07.796,48.68
07.812,-5.92
07.828,-45.56
07.843,-71.93
07.859,-90.99
07.875,-109.26
07.890,-130.54
07.906,-155.0
07.921,-181.97
07.937,-210.3
07.953,-237.38
07.968,-259.49
07.984,-274.84
08.000,-284.89
08.015,-293.42
08.031,-303.85
08.046,-317.59
08.062,-333.13
08.078,-346.14
08.093,-348.98
08.109,-331.01
08.125,-283.45
08.140,-202.66
08.156,-90.54
08.171,48.21
08.187,205.69
08.203,369.14
08.218,523.82
08.234,640.11
08.250,692.92
08.265,673.17
08.281,593.08
08.296,477.99
08.312,352.89
08.328,234.27
08.343,129.63
08.359,40.36
08.375,-34.09
08.390,-91.68
08.406,-130.46
08.421,-150.41
08.437,-154.75
08.453,-149.17
08.468,-139.85
08.484,-131.68
08.500,-127.78
08.515,-129.22
08.531,-134.23
08.546,-140.64
08.562,-147.18
08.578,-154.24
08.593,-163.02
08.609,-173.83
08.625,-185.63
08.640,-196.36
08.656,-203.61
08.671,-204.75
08.687,-197.93
08.703,-182.58
08.718,-159.4
08.734,-129.48
08.750,-92.65
08.765,-48.54
08.781,2.4
08.796,58.56
08.812,116.81
08.828,172.78
08.843,221.42
08.859,257.31
08.875,275.63
08.890,273.73
08.906,252.27
08.921,215.38
08.937,170.21
08.953,125.47
08.968,88.66
08.984,63.84
09.000,49.33
09.015,38.73
09.031,24.79
09.046,3.69
09.062,-23.41
09.078,-51.77
09.093,-75.54
09.109,-90.71
09.125,-96.41
09.140,-94.85
09.156,-89.75
09.171,-82.78
09.187,-71.59
09.203,-50.6
09.218,-14.12
09.234,41.93
09.250,119.55
09.265,217.81
09.281,332.13
09.296,453.8
09.312,570.7
09.328,668.42
09.343,730.93
09.359,741.44
09.375,687.13
09.390,564.56
09.406,382.41
09.421,159.15
09.437,-81.52
09.453,-316.13
09.468,-519.32
09.484,-660.3
09.500,-718.73
09.515,-696.43
09.531,-615.1
09.546,-502.06
09.562,-379.26
09.578,-259.85
09.593,-150.22
09.609,-52.31
09.625,33.36
09.640,105.27
09.656,161.96
09.671,203.48
09.687,233.22
09.703,254.48
09.718,269.35
09.734,279.19
09.750,284.43
09.765,284.59
09.781,277.66
09.796,262.48
09.812,240.05
09.828,213.52
09.843,186.35
09.859,160.51
09.875,135.98
09.890,110.58
09.906,83.59
09.921,52.07
09.937,13.53
09.953,-33.78
09.968,-89.07
09.984,-148.84
10.000,-207.04
10.015,-256.67
10.031,-290.15
10.046,-301.22
10.062,-286.28
10.078,-243.17
10.093,-174.07
10.109,-83.52
10.125,22.64
10.140,137.61
10.156,252.97
10.171,358.75
10.187,444.24
10.203,498.98
10.218,514.61
10.234,482.27
10.250,398.37
10.265,267.71
10.281,103.72
10.296,-74.86
10.312,-249.3
10.328,-403.01
10.343,-522.65
10.359,-598.97
10.375,-635.26
10.390,-638.82
10.406,-616.03
10.421,-570.19
10.437,-503.98
10.453,-423.74
10.468,-340.07
10.484,-265.78
10.500,-212.62
10.515,-200.23
10.531,-243.09
10.546,-344.0
10.562,-492.13
10.578,-668.59
10.593,-854.57
10.609,-1034.95
10.625,-1198.94
10.640,-1275.7
10.656,-1215.41
10.671,-1015.4
10.687,-726.84
10.703,-418.56
10.718,-138.6
10.734,93.69
10.750,278.33
10.765,423.07
10.781,536.6
10.796,616.59
10.812,659.78
10.828,669.18
10.843,653.51
10.859,625.17
10.875,593.34
10.890,561.93
10.906,531.11
10.921,498.25
10.937,452.1
10.953,381.49
10.968,280.75
10.984,150.63
11.000,0.09
11.015,-161.02
11.031,-323.88
11.046,-479.34
11.062,-616.54
11.078,-728.06
11.093,-807.24
11.109,-847.74
11.125,-845.75
11.140,-801.78
11.156,-722.79
11.171,-619.49
11.187,-502.61
11.203,-380.66
11.218,-261.79
11.234,-152.66
11.250,-57.58
11.265,21.36
11.281,84.4
11.296,132.68
11.312,168.0
11.328,193.07
11.343,210.56
11.359,221.84
11.375,228.1
11.390,230.68
11.406,231.5
11.421,232.97
11.437,237.0
11.453,244.2
11.468,254.24
11.484,266.13
11.500,278.51
11.515,290.22
11.531,300.79
11.546,310.02
11.562,318.13
11.578,325.61
11.593,333.09
11.609,341.15
11.625,350.32
11.640,361.43
11.656,375.32
11.671,393.2
11.687,416.23
11.703,445.55
11.718,481.64
11.734,523.08
11.750,565.73
11.765,601.95
11.781,622.4
11.796,618.77
11.812,587.05
11.828,529.5
11.843,454.15
11.859,371.84
11.875,292.23
11.890,221.55
11.906,161.6
11.921,111.22
11.937,68.2
11.953,31.32
11.968,0.62
11.984,-22.84
12.000,-38.05
12.015,-45.0
12.031,-44.24
12.046,-36.83
12.062,-24.35
12.078,-9.49
12.093,4.77
12.109,15.0
12.125,18.17
12.140,12.37
12.156,-2.52
12.171,-24.61
12.187,-50.02
12.203,-74.36
12.218,-94.3
12.234,-108.44
12.250,-117.49
12.265,-123.3
12.281,-127.89
12.296,-132.8
12.312,-138.94
12.328,-146.39
12.343,-155.09
12.359,-164.62
12.375,-174.39
12.390,-183.18
12.406,-189.11
12.421,-190.12
12.437,-185.6
12.453,-176.63
12.468,-165.8
12.484,-156.21
12.500,-149.72
12.515,-145.99
12.531,-142.47
12.546,-134.98
12.562,-119.48
12.578,-94.68
12.593,-62.59
12.609,-27.81
12.625,5.13
12.640,34.05
12.656,60.39
12.671,86.79
12.687,114.57
12.703,140.91
12.718,158.26
12.734,157.65
12.750,133.24
12.765,86.29
12.781,26.19
12.796,-32.56
12.812,-76.17
12.828,-95.84
12.843,-90.04
12.859,-63.73
12.875,-26.49
12.890,10.41
12.906,36.44
12.921,43.69
12.937,28.22
12.953,-9.02
12.968,-60.9
12.984,-115.77
13.000,-159.95
13.015,-182.38
13.031,-179.24
13.046,-155.07
13.062,-119.92
13.078,-83.98
13.093,-52.04
13.109,-21.17
13.125,14.51
13.140,59.13
13.156,112.09
13.171,167.79
13.187,217.57
13.203,253.16
13.218,269.48
13.234,267.03
13.250,253.6
13.265,238.79
13.281,230.48
13.296,233.71
13.312,250.72
13.328,280.89
13.343,320.75
13.359,365.32
13.375,408.01
13.390,443.4
13.406,463.36
13.421,458.36
13.437,423.08
13.453,361.54
13.468,287.24
13.484,216.05
13.500,160.82
13.515,125.66
13.531,110.3
13.546,107.38
13.562,106.15
13.578,96.6
13.593,72.42
13.609,31.67
13.625,-26.39
13.640,-98.27
13.656,-200.8
13.671,-324.22
13.687,-436.94
13.703,-505.96
13.718,-520.83
13.734,-494.61
13.750,-448.76
13.765,-401.77
13.781,-358.37
13.796,-315.29
13.812,-262.15
13.828,-192.53
13.843,-105.61
13.859,-3.41
13.875,103.77
13.890,209.14
13.906,288.25
13.921,322.48
13.937,307.32
13.953,258.9
13.968,198.88
13.984,141.96
14.000,92.78
14.015,49.59
14.031,11.0
14.046,-24.01
14.062,-51.36
14.078,-66.31
14.093,-64.68
14.109,-48.06
14.125,-23.13
14.140,1.67
14.156,18.57
14.171,23.37
14.187,12.4
14.203,-13.93
14.218,-52.52
14.234,-96.78
14.250,-140.94
14.265,-178.73
14.281,-204.8
14.296,-215.66
14.312,-209.3
14.328,-186.6
14.343,-148.1
14.359,-94.52
14.375,-27.14
14.390,50.76
14.406,133.72
14.421,214.74
14.437,286.88
14.453,345.64
14.468,388.46
14.484,415.86
14.500,429.92
14.515,432.4
14.531,424.49
14.546,406.36
14.562,377.12
14.578,334.62
14.593,280.69
14.609,218.44
14.625,152.08
14.640,86.06
14.656,23.15
14.671,-35.2
14.687,-88.67
14.703,-137.63
14.718,-182.66
14.734,-223.76
14.750,-260.48
14.765,-291.85
14.781,-316.61
14.796,-333.79
14.812,-342.87
14.828,-343.73
14.843,-336.6
14.859,-321.75
14.875,-299.26
14.890,-269.41
14.906,-232.55
14.921,-189.07
14.937,-139.96
14.953,-86.59
14.968,-30.65
14.984,25.47
15.000,79.25
15.015,128.34
15.031,170.53
15.046,204.25
15.062,229.17
15.078,245.82
15.093,255.5
15.109,260.65
15.125,264.11
15.140,268.76
15.156,276.99
15.171,289.62
15.187,305.5
15.203,322.15
15.218,335.7
15.234,341.38
15.250,334.42
15.265,310.63
15.281,267.38
15.296,204.29
15.312,123.3
15.328,27.9
15.343,-76.32
15.359,-182.92
15.375,-285.37
15.390,-377.69
15.406,-455.21
15.421,-514.56
15.437,-553.59
15.453,-571.21
15.468,-567.24
15.484,-541.78
15.500,-495.1
15.515,-427.65
15.531,-340.52
15.546,-235.87
15.562,-116.88
15.578,12.27
15.593,146.02
15.609,277.75
15.625,399.87
15.640,504.85
15.656,585.95
15.671,637.87
15.687,657.12
15.703,642.63
15.718,595.94
15.734,521.45
15.750,426.24
15.765,319.04
15.781,209.33
15.796,105.89
15.812,15.89
15.828,-56.75
15.843,-111.1
15.859,-149.27
15.875,-175.54
15.890,-195.18
15.906,-213.31
15.921,-234.06
15.937,-260.52
15.953,-294.13
15.968,-335.51
15.984,-384.17
16.000,-438.94
16.015,-497.37
16.031,-556.02
16.046,-610.83
16.062,-658.09
16.078,-695.13
16.093,-721.13
16.109,-736.78
16.125,-744.26
16.140,-746.9
16.156,-748.15
16.171,-751.37
16.187,-759.12
16.203,-771.97
16.218,-787.59
16.234,-800.72
16.250,-803.25
16.265,-786.93
16.281,-746.7
16.296,-682.71
16.312,-601.08
16.328,-512.21
16.343,-426.7
16.359,-352.23
16.375,-292.35
16.390,-247.07
16.406,-214.73
16.421,-193.68
16.437,-182.37
16.453,-178.85
16.468,-180.44
16.484,-183.32
16.500,-183.57
16.515,-178.36
16.531,-166.62
16.546,-149.04
16.562,-127.71
16.578,-104.71
16.593,-81.45
16.609,-58.5
16.625,-35.47
16.640,-11.9
16.656,12.15
16.671,35.7
16.687,56.95
16.703,73.99
16.718,85.79
16.734,92.31
16.750,94.55
16.765,94.44
16.781,94.01
16.796,94.88
16.812,98.21
16.828,104.31
16.843,113.31
16.859,125.48
16.875,141.22
16.890,161.05
16.906,185.18
16.921,212.95
16.937,242.74
16.953,272.41
16.968,299.35
16.984,321.6
17.000,338.1
17.015,348.86
17.031,354.96
17.046,358.31
17.062,361.11
17.078,365.25
17.093,372.09
17.109,381.5
17.125,391.97
17.140,401.13
17.156,406.8
17.171,408.19
17.187,406.13
17.203,403.09
17.218,401.94
17.234,404.94
17.250,412.18
17.265,422.03
17.281,431.87
17.296,439.5
17.312,443.69
17.328,444.2
17.343,442.63
17.359,441.71
17.375,444.0
17.390,450.31
17.406,459.26
17.421,467.85
17.437,472.45
17.453,469.94
17.468,458.28
17.484,437.61
17.500,409.99
17.515,378.04
17.531,343.79
17.546,309.46
17.562,277.74
17.578,251.92
17.593,233.3
17.609,220.21
17.625,208.65
17.640,193.69
17.656,170.18
17.671,132.6
17.687,78.14
17.703,8.71
17.718,-68.42
17.734,-148.08
17.750,-227.49
17.765,-304.79
17.781,-377.58
17.796,-443.51
17.812,-504.79
17.828,-563.1
17.843,-616.18
17.859,-653.38
17.875,-669.27
17.890,-661.99
17.906,-632.07
17.921,-580.06
17.937,-508.93
17.953,-432.12
17.968,-363.37
17.984,-311.94
18.000,-274.42
18.015,-256.3
18.031,-266.97
18.046,-315.37
18.062,-402.53
18.078,-522.72
18.093,-674.21
18.109,-848.6
18.125,-1029.38
18.140,-1186.49
18.156,-1306.85
18.171,-1388.88
18.187,-1437.64
18.203,-1455.48
18.218,-1378.19
18.234,-1174.52
18.250,-865.66
18.265,-573.98
18.281,-331.0
18.296,-136.03
18.312,31.75
18.328,177.76
18.343,304.94
18.359,414.8
18.375,498.25
18.390,548.96
18.406,569.0
18.421,578.62
18.437,587.06
18.453,597.22
18.468,607.97
18.484,619.5
18.500,631.58
18.515,635.04
18.531,622.43
18.546,591.73
18.562,555.12
18.578,517.28
18.593,478.99
18.609,438.59
18.625,396.82
18.640,355.27
18.656,311.23
18.671,264.33
18.687,218.13
18.703,184.12
18.718,167.44
18.734,169.15
18.750,186.5
18.765,216.1
18.781,253.45
18.796,291.29
18.812,323.47
18.828,346.8
18.843,363.89
18.859,375.54
18.875,382.19
18.890,383.48
18.906,379.38
18.921,370.42
18.937,356.9
18.953,340.69
18.968,324.89
18.984,314.61
19.000,313.74
19.015,325.26
19.031,351.01
19.046,391.75
19.062,446.6
19.078,511.75
19.093,580.31
19.109,642.39
19.125,687.42
19.140,707.16
19.156,698.72
19.171,665.04
19.187,613.43
19.203,552.59
19.218,489.3
19.234,427.57
19.250,369.09
19.265,314.85
19.281,266.09
19.296,224.66
19.312,191.52
19.328,165.77
19.343,144.49
19.359,123.51
19.375,99.73
19.390,72.12
19.406,42.11
19.421,12.11
19.437,-15.97
19.453,-42.15
19.468,-68.09
19.484,-96.22
19.500,-128.51
19.515,-165.36
19.531,-205.34
19.546,-245.63
19.562,-282.74
19.578,-313.26
19.593,-334.55
19.609,-345.12
19.625,-344.32
19.640,-332.39
19.656,-310.3
19.671,-279.36
19.687,-241.56
19.703,-199.42
19.718,-155.82
19.734,-113.73
19.750,-75.76
19.765,-43.54
19.781,-17.94
19.796,1.23
19.812,14.54
19.828,23.0
19.843,27.65
19.859,29.41
19.875,28.97
19.890,26.74
19.906,23.15
19.921,18.47
19.937,13.33
19.953,8.05
19.968,2.89
19.984,-2.21
20.000,-7.45
20.015,-13.07
20.031,-19.21
20.046,-25.72
20.062,-32.2
20.078,-38.03
20.093,-42.71
20.109,-46.13
20.125,-48.74
20.140,-51.3
20.156,-54.75
20.171,-59.68
20.187,-66.07
20.203,-73.39
20.218,-80.6
20.234,-86.91
20.250,-91.95
20.265,-96.0
20.281,-99.89
20.296,-104.56
20.312,-110.71
20.328,-118.25
20.343,-126.56
20.359,-134.49
20.375,-141.31
20.390,-146.39
20.406,-149.51
20.421,-151.01
20.437,-150.95
20.453,-149.69
20.468,-147.67
20.484,-145.73
20.500,-144.62
20.515,-144.5
20.531,-144.07
20.546,-140.55
20.562,-131.24
20.578,-114.76
20.593,-92.76
20.609,-69.65
20.625,-51.12
20.640,-41.59
20.656,-42.59
20.671,-52.41
20.687,-67.26
20.703,-83.56
20.718,-99.1
20.734,-113.37
20.750,-126.79
20.765,-139.57
20.781,-151.36
20.796,-161.57
20.812,-170.22
20.828,-178.3
20.843,-187.55
20.859,-199.4
20.875,-214.31
20.890,-230.88
20.906,-246.06
20.921,-256.43
20.937,-259.3
20.953,-254.0
20.968,-241.87
20.984,-225.71
21.000,-208.26
21.015,-191.65
21.031,-176.74
21.046,-163.32
21.062,-150.93
21.078,-139.24
21.093,-128.33
21.109,-118.28
21.125,-109.1
21.140,-100.22
21.156,-90.77
21.171,-79.94
21.187,-67.2
21.203,-52.45
21.218,-36.33
21.234,-19.77
21.250,-3.82
21.265,10.61
21.281,22.99
21.296,33.21
21.312,41.36
21.328,47.64
21.343,52.31
21.359,55.64
21.375,57.99
21.390,59.82
21.406,61.6
21.421,63.78
21.437,66.6
21.453,69.99
21.468,73.43
21.484,76.17
21.500,77.67
21.515,77.59
21.531,75.92
21.546,72.92
21.562,68.86
21.578,64.01
21.593,58.63
21.609,52.92
21.625,47.03
21.640,41.13
21.656,35.32
21.671,29.56
21.687,23.81
21.703,18.04
21.718,12.32
21.734,6.8
21.750,1.56
21.765,-3.51
21.781,-8.76
21.796,-14.45
21.812,-20.68
21.828,-27.2
21.843,-33.29
21.859,-38.09
21.875,-40.68
21.890,-40.31
21.906,-36.77
21.921,-30.35
21.937,-21.93
21.953,-12.6
21.968,-3.41
21.984,4.76
22.000,11.41
22.015,16.29
22.031,19.45
22.046,21.13
22.062,21.67
22.078,21.48
22.093,20.95
22.109,20.69
22.125,21.17
22.140,22.73
22.156,25.47
22.171,29.2
22.187,33.59
22.203,38.13
22.218,42.21
22.234,45.36
22.250,47.38
22.265,48.59
22.281,49.64
22.296,51.29
22.312,54.14
22.328,58.34
22.343,63.61
22.359,69.37
22.375,74.97
22.390,79.97
22.406,84.07
22.421,87.08
22.437,88.85
22.453,89.11
22.468,87.78
22.484,85.05
22.500,81.52
22.515,77.92
22.531,74.95
22.546,72.71
22.562,70.76
22.578,68.18
22.593,63.8
22.609,57.03
22.625,48.05
22.640,38.09
22.656,28.92
22.671,22.26
22.687,19.0
22.703,19.17
22.718,21.81
22.734,25.52
22.750,28.95
22.765,31.2
22.781,31.94
22.796,31.22
22.812,29.25
22.828,26.24
22.843,22.27
22.859,17.37
22.875,11.53
22.890,4.84
22.906,-2.45
22.921,-10.08
22.937,-17.59
22.953,-24.54
22.968,-30.41
22.984,-34.87
23.000,-37.65
23.015,-38.83
23.031,-38.7
23.046,-37.75
23.062,-36.77
23.078,-36.45
23.093,-37.37
23.109,-39.72
23.125,-43.53
23.140,-48.45
23.156,-54.24
23.171,-60.62
23.187,-67.46
23.203,-74.44
23.218,-80.94
23.234,-86.1
23.250,-89.07
23.265,-89.34
23.281,-86.96
23.296,-82.81
23.312,-78.24
23.328,-74.55
23.343,-72.61
23.359,-72.48
23.375,-73.55
23.390,-74.86
23.406,-75.34
23.421,-73.97
23.437,-70.23
23.453,-63.93
23.468,-55.17
23.484,-44.53
23.500,-32.79
23.515,-20.93
23.531,-9.96
23.546,-0.78
23.562,6.25
23.578,10.98
23.593,13.65
23.609,14.67
23.625,14.22
23.640,12.54
23.656,9.86
23.671,6.65
23.687,3.49
23.703,1.03
23.718,-0.42
23.734,-0.84
23.750,-0.7
23.765,-0.75
23.781,-1.5
23.796,-3.26
23.812,-6.03
23.828,-9.45
23.843,-13.17
23.859,-16.9
23.875,-20.54
23.890,-24.19
23.906,-28.28
23.921,-33.05
23.937,-38.7
23.953,-45.34
23.968,-52.62
23.984,-60.18
24.000,-67.42
24.015,-73.93
24.031,-79.14
24.046,-82.72
24.062,-84.51
24.078,-84.74
24.093,-84.39
24.109,-84.47
24.125,-85.78
24.140,-88.08
24.156,-90.15
24.171,-89.9
24.187,-85.43
24.203,-75.79
24.218,-61.32
24.234,-43.61
24.250,-24.7
24.265,-6.42
24.281,10.15
24.296,24.5
24.312,36.69
24.328,46.67
24.343,54.22
24.359,59.17
24.375,61.37
24.390,61.07
24.406,58.75
24.421,55.21
24.437,51.33
24.453,47.94
24.468,45.59
24.484,44.36
24.500,44.16
24.515,44.56
24.531,45.13
24.546,45.41
24.562,45.0
24.578,43.83
24.593,41.89
24.609,39.29
24.625,36.15
24.640,32.61
24.656,28.71
24.671,24.56
24.687,20.3
24.703,16.01
24.718,11.91
24.734,8.25
24.750,5.23
24.765,2.84
24.781,0.98
24.796,-0.75
24.812,-2.81
24.828,-5.43
24.843,-8.68
24.859,-12.19
24.875,-15.31
24.890,-17.18
24.906,-17.06
24.921,-14.46
24.937,-9.23
24.953,-1.74
24.968,7.49
24.984,17.65
25.000,27.82
25.015,37.25
25.031,45.23
25.046,51.29
25.062,55.07
25.078,56.51
25.093,55.72
25.109,53.21
25.125,49.74
25.140,45.95
25.156,42.54
25.171,39.74
25.187,37.61
25.203,36.01
25.218,34.92
25.234,34.29
25.250,34.3
25.265,35.02
25.281,36.23
25.296,37.55
25.312,38.41
25.328,38.34
25.343,37.11
25.359,34.79
25.375,31.68
25.390,28.11
25.406,24.31
25.421,20.28
25.437,15.98
25.453,11.29
25.468,6.29
25.484,1.11
25.500,-4.06
25.515,-8.99
25.531,-13.51
25.546,-17.6
25.562,-21.3
25.578,-24.66
25.593,-27.84
25.609,-30.9
25.625,-33.83
25.640,-36.56
25.656,-38.73
25.671,-39.72
25.687,-38.82
25.703,-35.36
25.718,-28.95
25.734,-19.9
25.750,-9.07
25.765,2.36
25.781,13.21
25.796,22.56
25.812,30.01
25.828,35.53
25.843,39.29
25.859,41.36
25.875,41.81
25.890,40.6
25.906,37.99
25.921,34.51
25.937,30.82
25.953,27.64
25.968,25.46
25.984,24.46
26.000,24.51
26.015,25.2
26.031,26.15
26.046,27.0
26.062,27.55
26.078,27.68
26.093,27.33
26.109,26.41
26.125,24.79
26.140,22.37
26.156,19.0
26.171,14.72
26.187,9.64
26.203,4.05
26.218,-1.77
26.234,-7.41
26.250,-12.67
26.265,-17.4
26.281,-21.53
26.296,-25.17
26.312,-28.41
26.328,-31.52
26.343,-34.58
26.359,-37.74
26.375,-40.81
26.390,-43.53
26.406,-45.49
26.421,-46.1
26.437,-44.84
26.453,-41.21
26.468,-35.01
26.484,-26.23
26.500,-15.37
26.515,-3.26
26.531,9.04
26.546,20.47
26.562,30.26
26.578,37.85
26.593,43.11
26.609,46.0
26.625,46.67
26.640,45.42
26.656,42.69
26.671,39.14
26.687,35.46
26.703,32.38
26.718,30.2
26.734,28.85
26.750,27.96
26.765,27.1
26.781,26.13
26.796,25.11
26.812,24.31
26.828,23.75
26.843,23.33
26.859,22.72
26.875,21.52
26.890,19.55
26.906,16.82
26.921,13.57
26.937,10.02
26.953,6.23
26.968,2.09
26.984,-2.51
27.000,-7.51
27.015,-12.71
27.031,-17.76
27.046,-22.34
27.062,-26.12
27.078,-29.05
27.093,-31.4
27.109,-33.58
27.125,-36.18
27.140,-39.59
27.156,-43.77
27.171,-48.05
27.187,-51.27
27.203,-52.01
27.218,-49.02
27.234,-41.57
27.250,-29.56
27.265,-13.64
27.281,4.64
27.296,23.07
27.312,39.12
27.328,50.57
27.343,56.15
27.359,56.07
27.375,51.79
27.390,45.57
27.406,39.48
27.421,34.71
27.437,31.43
27.453,29.15
27.468,27.37
27.484,25.9
27.500,25.01
27.515,24.85
27.531,25.39
27.546,26.22
27.562,26.72
27.578,26.39
27.593,24.98
27.609,22.66
27.625,19.77
27.640,16.74
27.656,13.78
27.671,10.97
27.687,8.25
27.703,5.45
27.718,2.46
27.734,-0.77
27.750,-4.17
27.765,-7.65
27.781,-10.95
27.796,-14.04
27.812,-16.84
27.828,-19.38
27.843,-21.71
27.859,-23.94
27.875,-26.2
27.890,-28.6
27.906,-31.34
27.921,-34.33
27.937,-37.44
27.953,-40.27
27.968,-42.24
27.984,-42.61
28.000,-40.73
28.015,-36.05
28.031,-28.49
28.046,-18.45
28.062,-6.72
28.078,5.6
28.093,17.31
28.109,27.48
28.125,35.63
28.140,41.65
28.156,45.69
28.171,48.0
28.187,48.74
28.203,48.18
28.218,46.64
28.234,44.56
28.250,42.41
28.265,40.52
28.281,39.08
28.296,37.96
28.312,36.93
28.328,35.78
28.343,34.49
28.359,33.07
28.375,31.54
28.390,29.88
28.406,28.05
28.421,26.03
28.437,23.91
28.453,21.89
28.468,20.05
28.484,18.46
28.500,16.93
28.515,15.1
28.531,12.59
28.546,9.21
28.562,5.04
28.578,0.28
28.593,-4.62
28.609,-9.46
28.625,-14.06
28.640,-18.41
28.656,-22.63
28.671,-26.83
28.687,-31.1
28.703,-35.39
28.718,-39.62
28.734,-43.42
28.750,-46.36
28.765,-47.74
28.781,-46.86
28.796,-43.35
28.812,-37.17
28.828,-28.85
28.843,-19.32
28.859,-9.63
28.875,-0.71
28.890,6.82
28.906,12.71
28.921,17.04
28.937,19.99
28.953,21.71
28.968,22.32
28.984,21.9
29.000,20.72
29.015,19.09
29.031,17.3
29.046,15.73
29.062,14.66
29.078,14.23
29.093,14.44
29.109,14.97
29.125,15.45
29.140,15.54
29.156,15.06
29.171,13.98
29.187,12.42
29.203,10.49
29.218,8.34
29.234,5.95
29.250,3.26
29.265,0.28
29.281,-2.84
29.296,-5.99
29.312,-8.96
29.328,-11.7
29.343,-14.33
29.359,-16.93
29.375,-19.58
29.390,-22.3
29.406,-25.03
29.421,-27.68
29.437,-30.24
29.453,-32.66
29.468,-34.97
29.484,-36.92
29.500,-38.06
29.515,-37.61
29.531,-34.87
29.546,-29.31
29.562,-20.92
29.578,-10.31
29.593,1.58
29.609,13.47
29.625,24.18
29.640,32.82
29.656,39.0
29.671,42.68
29.687,44.24
29.703,44.0
29.718,42.35
29.734,39.72
29.750,36.37
29.765,32.71
29.781,29.11
29.796,26.01
29.812,23.75
29.828,22.61
29.843,22.45
29.859,22.93
29.875,23.6
29.890,23.91
29.906,23.59
29.921,22.55
29.937,20.81
29.953,18.59
29.968,15.97
29.984,13.06
30.000,9.91
30.015,6.51
30.031,2.81
30.046,-1.16
30.062,-5.25
30.078,-9.35
30.093,-13.22
30.109,-16.73
30.125,-19.85
30.140,-22.66
30.156,-25.4
30.171,-28.27
30.187,-31.33
30.203,-34.57
30.218,-37.92
30.234,-41.14
30.250,-43.92
30.265,-45.66
30.281,-45.6
30.296,-43.0
30.312,-37.51
30.328,-29.33
30.343,-19.23
30.359,-8.39
30.375,2.05
30.390,11.19
30.406,18.61
30.421,24.22
30.437,28.14
30.453,30.43
30.468,31.09
30.484,30.19
30.500,28.0
30.515,25.03
30.531,21.86
30.546,19.02
30.562,16.83
30.578,15.5
30.593,14.94
30.609,15.0
30.625,15.41
30.640,15.94
30.656,16.35
30.671,16.4
30.687,16.01
30.703,15.03
30.718,13.53
30.734,11.62
30.750,9.45
30.765,7.07
30.781,4.52
30.796,1.69
30.812,-1.43
30.828,-4.82
30.843,-8.38
30.859,-11.88
30.875,-15.14
30.890,-17.93
30.906,-20.18
30.921,-21.83
30.937,-22.99
30.953,-23.77
30.968,-24.37
30.984,-24.94
31.000,-25.46
31.015,-25.71
31.031,-25.11
31.046,-22.82
31.062,-18.12
31.078,-10.58
31.093,-0.38
31.109,11.81
31.125,24.81
31.140,37.53
31.156,48.82
31.171,57.96
31.187,64.71
31.203,69.05
31.218,71.25
31.234,71.51
31.250,70.03
31.265,66.81
31.281,61.98
31.296,55.66
31.312,48.18
31.328,40.02
31.343,31.75
31.359,24.06
31.375,17.42
31.390,12.28
31.406,8.67
31.421,6.39
31.437,5.04
31.453,4.21
31.468,3.5
31.484,2.62
31.500,1.51
31.515,0.13
31.531,-1.52
31.546,-3.57
31.562,-6.08
31.578,-9.06
31.593,-12.49
31.609,-16.23
31.625,-20.26
31.640,-24.57
31.656,-29.23
31.671,-34.22
31.687,-39.48
31.703,-44.78
31.718,-49.72
31.734,-54.08
31.750,-57.79
31.765,-61.08
31.781,-64.12
31.796,-67.01
31.812,-69.38
31.828,-70.54
31.843,-69.62
31.859,-65.89
31.875,-59.07
31.890,-49.41
31.906,-37.71
31.921,-25.07
31.937,-12.53
31.953,-1.05
31.968,8.7
31.984,16.28
32.000,21.38
32.015,23.9
32.031,24.04
32.046,22.21
32.062,19.12
32.078,15.59
32.093,12.18
32.109,9.22
32.125,6.8
32.140,4.7
32.156,2.72
32.171,0.76
32.187,-1.27
32.203,-3.35
32.218,-5.41
32.234,-7.49
32.250,-9.52
32.265,-11.41
32.281,-13.09
32.296,-14.58
32.312,-15.95
32.328,-17.33
32.343,-18.94
32.359,-21.01
32.375,-23.79
32.390,-27.37
32.406,-31.61
32.421,-36.28
32.437,-40.87
32.453,-45.01
32.468,-48.36
32.484,-50.79
32.500,-52.46
32.515,-53.76
32.531,-55.09
32.546,-56.71
32.562,-58.7
32.578,-60.63
32.593,-61.87
32.609,-61.57
32.625,-59.05
32.640,-53.85
32.656,-46.16
32.671,-36.54
32.687,-25.92
32.703,-15.27
32.718,-5.4
32.734,3.18
32.750,10.13
32.765,15.3
32.781,18.77
32.796,20.67
32.812,21.31
32.828,21.09
32.843,20.46
32.859,19.85
32.875,19.56
32.890,19.64
32.906,20.11
32.921,20.84
32.937,21.76
32.953,22.68
32.968,23.42
32.984,23.8
33.000,23.72
33.015,23.29
33.031,22.57
33.046,21.72
33.062,20.74
33.078,19.52
33.093,17.89
33.109,15.69
33.125,12.86
33.140,9.53
33.156,5.93
33.171,2.35
33.187,-1.01
33.203,-4.0
33.218,-6.79
33.234,-9.48
33.250,-12.17
33.265,-14.96
33.281,-17.89
33.296,-20.99
33.312,-24.18
33.328,-27.14
33.343,-29.35
33.359,-30.24
33.375,-29.13
33.390,-25.77
33.406,-20.24
33.421,-13.14
33.437,-5.25
33.453,2.57
33.468,9.75
33.484,15.94
33.500,20.82
33.515,24.44
33.531,26.77
33.546,27.97
33.562,28.24
33.578,27.7
33.593,26.5
33.609,24.79
33.625,22.77
33.640,20.79
33.656,19.28
33.671,18.53
33.687,18.72
33.703,19.72
33.718,21.1
33.734,22.26
33.750,22.85
33.765,22.57
33.781,21.55
33.796,20.04
33.812,18.11
33.828,15.8
33.843,13.07
33.859,9.85
33.875,6.09
33.890,1.92
33.906,-2.51
33.921,-7.05
33.937,-11.41
33.953,-15.46
33.968,-19.09
33.984,-22.22
34.000,-24.94
34.015,-27.35
34.031,-29.8
34.046,-32.38
34.062,-35.14
34.078,-37.8
34.093,-39.92
34.109,-40.82
34.125,-39.75
34.140,-36.17
34.156,-29.7
34.171,-20.72
34.187,-9.96
34.203,1.53
34.218,12.71
34.234,22.73
34.250,31.19
34.265,37.92
34.281,42.8
34.296,45.99
34.312,47.57
34.328,47.74
34.343,46.75
34.359,44.98
34.375,42.87
34.390,40.77
34.406,38.92
34.421,37.4
34.437,36.19
34.453,35.25
34.468,34.55
34.484,33.9
34.500,33.08
34.515,32.01
34.531,30.42
34.546,28.21
34.562,25.35
34.578,21.96
34.593,18.23
34.609,14.49
34.625,10.99
34.640,7.8
34.656,5.04
34.671,2.58
34.687,0.25
34.703,-2.06
34.718,-4.42
34.734,-6.83
34.750,-9.3
34.765,-11.83
34.781,-14.55
34.796,-17.46
34.812,-20.67
34.828,-24.17
34.843,-27.85
34.859,-31.43
34.875,-34.29
34.890,-35.61
34.906,-34.54
34.921,-30.47
34.937,-23.35
34.953,-13.8
34.968,-2.9
34.984,8.1
35.000,18.13
35.015,26.5
35.031,32.92
35.046,37.24
35.062,39.53
35.078,39.97
35.093,38.8
35.109,36.48
35.125,33.59
35.140,30.71
35.156,28.36
35.171,26.88
35.187,26.42
35.203,26.91
35.218,28.11
35.234,29.74
35.250,31.49
35.265,33.1
35.281,34.31
35.296,34.95
35.312,34.9
35.328,34.13
35.343,32.67
35.359,30.72
35.375,28.46
35.390,26.19
35.406,24.13
35.421,22.36
35.437,20.81
35.453,19.41
35.468,18.08
35.484,16.8
35.500,15.69
35.515,14.93
35.531,14.66
35.546,14.98
35.562,15.83
35.578,16.93
35.593,17.8
35.609,17.76
35.625,16.27
35.640,13.13
35.656,8.94
35.671,4.75
35.687,1.9
35.703,1.52
35.718,4.13
35.734,9.36
35.750,16.2
35.765,23.28
35.781,29.37
35.796,33.7
35.812,35.95
35.828,36.04
35.843,33.98
35.859,29.98
35.875,24.31
35.890,17.59
35.906,10.58
35.921,4.08
35.937,-1.36
35.953,-5.66
35.968,-8.96
35.984,-11.71
36.000,-14.14
36.015,-16.42
36.031,-18.51
36.046,-20.53
36.062,-22.62
36.078,-25.02
36.093,-27.82
36.109,-31.01
36.125,-34.5
36.140,-38.19
36.156,-42.0
36.171,-45.86
36.187,-49.61
36.203,-53.08
36.218,-56.04
36.234,-58.45
36.250,-60.38
36.265,-62.05
36.281,-63.55
36.296,-64.71
36.312,-65.3
36.328,-65.12
36.343,-64.49
36.359,-63.95
36.375,-64.29
36.390,-65.87
36.406,-68.62
36.421,-71.58
36.437,-73.53
36.453,-73.3
36.468,-70.23
36.484,-64.28
36.500,-55.99
36.515,-46.17
36.531,-35.49
36.546,-24.65
36.562,-14.11
36.578,-4.38
36.593,4.06
36.609,10.81
36.625,15.87
36.640,19.46
36.656,22.13
36.671,24.47
36.687,26.94
36.703,29.7
36.718,32.76
36.734,36.11
36.750,39.79
36.765,43.86
36.781,48.2
36.796,52.37
36.812,55.76
36.828,57.64
36.843,57.57
36.859,55.6
36.875,52.19
36.890,48.05
36.906,43.68
36.921,39.43
36.937,35.09
36.953,30.44
36.968,25.13
36.984,19.09
37.000,12.62
37.015,6.11
37.031,0.04
37.046,-5.32
37.062,-9.9
37.078,-13.93
37.093,-17.68
37.109,-21.48
37.125,-25.42
37.140,-29.41
37.156,-33.45
37.171,-37.53
37.187,-41.66
37.203,-45.59
37.218,-48.69
37.234,-50.0
37.250,-48.61
37.265,-44.22
37.281,-37.07
37.296,-28.3
37.312,-19.16
37.328,-10.71
37.343,-3.66
37.359,1.91
37.375,5.99
37.390,8.59
37.406,9.67
37.421,9.32
37.437,7.73
37.453,5.3
37.468,2.59
37.484,-0.15
37.500,-2.5
37.515,-4.21
37.531,-5.18
37.546,-5.18
37.562,-4.21
37.578,-2.53
37.593,-0.57
37.609,1.22
37.625,2.35
37.640,2.94
37.656,3.28
37.671,3.85
37.687,5.2
37.703,7.58
37.718,10.87
37.734,14.61
37.750,18.09
37.765,20.34
37.781,20.8
37.796,19.0
37.812,14.94
37.828,9.08
37.843,2.02
37.859,-5.5
37.875,-12.76
37.890,-19.32
37.906,-25.06
37.921,-29.95
37.937,-34.18
37.953,-37.94
37.968,-41.03
37.984,-43.19
38.000,-43.86
38.015,-42.43
38.031,-38.57
38.046,-32.35
38.062,-24.26
38.078,-15.11
38.093,-5.88
38.109,2.74
38.125,10.1
38.140,15.94
38.156,20.17
38.171,22.84
38.187,24.09
38.203,24.2
38.218,23.41
38.234,21.83
38.250,19.74
38.265,17.27
38.281,14.9
38.296,13.39
38.312,13.43
38.328,15.37
38.343,18.97
38.359,23.38
38.375,27.41
38.390,30.32
38.406,31.86
38.421,32.38
38.437,32.43
38.453,32.2
38.468,31.39
38.484,29.57
38.500,26.43
38.515,22.15
38.531,17.56
38.546,13.42
38.562,10.27
38.578,8.01
38.593,6.1
38.609,3.96
38.625,1.23
38.640,-1.98
38.656,-5.24
38.671,-7.93
38.687,-9.72
38.703,-10.49
38.718,-10.2
38.734,-8.72
38.750,-5.66
38.765,-0.64
38.781,6.41
38.796,15.11
38.812,24.59
38.828,33.64
38.843,41.1
38.859,46.2
38.875,48.74
38.890,48.99
38.906,47.4
38.921,44.48
38.937,40.68
38.953,36.48
38.968,32.33
38.984,28.71
39.000,25.75
39.015,23.31
39.031,20.97
39.046,18.09
39.062,14.31
39.078,9.54
39.093,4.01
39.109,-1.92
39.125,-7.98
39.140,-14.18
39.156,-20.7
39.171,-27.61
39.187,-34.77
39.203,-41.67
39.218,-47.61
39.234,-52.05
39.250,-54.9
39.265,-56.47
39.281,-57.3
39.296,-57.89
39.312,-58.59
39.328,-59.59
39.343,-61.03
39.359,-62.96
39.375,-65.21
39.390,-67.39
39.406,-68.78
39.421,-68.45
39.437,-65.52
39.453,-59.59
39.468,-50.82
39.484,-40.05
39.500,-28.49
39.515,-17.46
39.531,-7.88
39.546,-0.47
39.562,4.55
39.578,7.28
39.593,8.11
39.609,7.61
39.625,6.37
39.640,5.06
39.656,3.99
39.671,3.48
39.687,3.54
39.703,4.12
39.718,5.11
39.734,6.43
39.750,8.03
39.765,9.72
39.781,11.42
39.796,12.97
39.812,14.23
39.828,15.15
39.843,15.66
39.859,15.56
39.875,14.7
39.890,12.94
39.906,10.3
39.921,7.0
39.937,3.5
39.953,0.21
39.968,-2.66
39.984,-5.06
40.000,-7.3
40.015,-9.72
40.031,-12.53
40.046,-15.87
40.062,-19.52
40.078,-23.09
40.093,-25.97
40.109,-27.42
40.125,-26.85
40.140,-23.81
40.156,-18.42
40.171,-11.09
40.187,-2.69
40.203,5.85
40.218,13.7
40.234,20.38
40.250,25.65
40.265,29.31
40.281,31.22
40.296,31.38
40.312,29.97
40.328,27.41
40.343,24.4
40.359,21.5
40.375,19.24
40.390,17.88
40.406,17.31
40.421,17.25
40.437,17.51
40.453,17.98
40.468,18.57
40.484,19.41
40.500,20.39
40.515,21.28
40.531,21.79
40.546,21.35
40.562,19.64
40.578,16.6
40.593,12.62
40.609,8.26
40.625,4.17
40.640,0.78
40.656,-1.92
40.671,-4.11
40.687,-6.21
40.703,-8.45
40.718,-10.91
40.734,-13.44
40.750,-15.78
40.765,-17.58
40.781,-18.47
40.796,-18.09
40.812,-16.04
40.828,-12.1
40.843,-6.32
40.859,0.68
40.875,7.78
40.890,13.81
40.906,17.92
40.921,19.94
40.937,20.42
40.953,20.42
40.968,20.8
40.984,21.89
41.000,23.28
41.015,24.01
41.031,23.34
41.046,21.13
41.062,17.94
41.078,14.72
41.093,12.35
41.109,10.95
41.125,10.01
41.140,8.69
41.156,6.35
41.171,2.97
41.187,-0.83
41.203,-4.39
41.218,-7.45
41.234,-10.3
41.250,-13.73
41.265,-18.21
41.281,-23.55
41.296,-28.81
41.312,-32.8
41.328,-34.66
41.343,-34.44
41.359,-33.0
41.375,-31.63
41.390,-31.51
41.406,-33.05
41.421,-35.8
41.437,-38.82
41.453,-40.84
41.468,-40.92
41.484,-38.62
41.500,-33.87
41.515,-26.97
41.531,-18.62
41.546,-9.38
41.562,0.16
41.578,9.26
41.593,17.38
41.609,23.99
41.625,28.69
41.640,31.35
41.656,32.23
41.671,31.6
41.687,29.9
41.703,27.57
41.718,24.93
41.734,22.36
41.750,20.06
41.765,18.27
41.781,17.09
41.796,16.42
41.812,16.1
41.828,15.82
41.843,15.33
41.859,14.51
41.875,13.38
41.890,11.94
41.906,10.24
41.921,8.31
41.937,5.92
41.953,2.85
41.968,-1.02
41.984,-5.73
42.000,-11.05
42.015,-16.43
42.031,-21.34
42.046,-25.41
42.062,-28.48
42.078,-30.73
42.093,-32.61
42.109,-34.42
42.125,-36.26
42.140,-38.21
42.156,-40.02
42.171,-41.56
42.187,-42.64
42.203,-42.84
42.218,-41.57
42.234,-38.14
42.250,-32.08
42.265,-23.53
42.281,-13.35
42.296,-2.9
42.312,6.4
42.328,13.49
42.343,18.05
42.359,20.3
42.375,20.56
42.390,19.27
42.406,16.56
42.421,12.73
42.437,8.29
42.453,4.1
42.468,1.03
42.484,-0.32
42.500,0.05
42.515,1.53
42.531,3.21
42.546,4.29
42.562,4.37
42.578,3.56
42.593,2.07
42.609,0.17
42.625,-2.05
42.640,-4.68
42.656,-7.71
42.671,-11.01
42.687,-14.33
42.703,-17.38
42.718,-19.93
42.734,-21.88
42.750,-23.27
42.765,-24.07
42.781,-24.34
42.796,-24.21
42.812,-23.89
42.828,-23.68
42.843,-23.99
42.859,-25.12
42.875,-27.29
42.890,-30.46
42.906,-34.29
42.921,-38.1
42.937,-40.99
42.953,-42.03
42.968,-40.63
42.984,-36.69
43.000,-30.55
43.015,-22.83
43.031,-14.2
43.046,-5.35
43.062,3.21
43.078,10.97
43.093,17.49
43.109,22.46
43.125,25.78
43.140,27.6
43.156,28.38
43.171,28.62
43.187,28.71
43.203,28.82
43.218,28.87
43.234,28.76
43.250,28.44
43.265,27.9
43.281,27.16
43.296,26.24
43.312,24.98
43.328,23.33
43.343,21.34
43.359,19.13
43.375,16.86
43.390,14.72
43.406,12.7
43.421,10.62
43.437,8.31
43.453,5.74
43.468,2.96
43.484,0.25
43.500,-2.12
43.515,-3.96
43.531,-5.24
43.546,-6.12
43.562,-7.08
43.578,-8.82
43.593,-12.04
43.609,-17.09
43.625,-23.68
43.640,-30.92
43.656,-37.47
43.671,-41.94
43.687,-43.46
43.703,-41.77
43.718,-37.3
43.734,-30.87
43.750,-23.27
43.765,-15.04
43.781,-6.53
43.796,2.1
43.812,10.61
43.828,18.55
43.843,25.52
43.859,31.27
43.875,35.6
43.890,38.66
43.906,40.66
43.921,41.89
43.937,42.68
43.953,43.44
43.968,44.37
43.984,45.54
44.000,46.6
44.015,47.03
44.031,46.41
44.046,44.62
44.062,42.05
44.078,39.3
44.093,36.88
44.109,34.92
44.125,33.3
44.140,31.57
44.156,29.32
44.171,26.38
44.187,22.68
44.203,18.29
44.218,13.38
44.234,8.02
44.250,2.45
44.265,-2.97
44.281,-7.79
44.296,-11.62
44.312,-14.28
44.328,-16.0
44.343,-17.24
44.359,-18.43
44.375,-19.93
44.390,-21.85
44.406,-24.17
44.421,-26.64
44.437,-28.85
44.453,-30.24
44.468,-30.26
44.484,-28.48
44.500,-24.69
44.515,-19.29
44.531,-12.95
44.546,-6.51
44.562,-0.69
44.578,4.28
44.593,8.5
44.609,12.09
44.625,15.12
44.640,17.57
44.656,19.31
44.671,20.18
44.687,20.24
44.703,19.57
44.718,18.34
44.734,16.82
44.750,15.18
44.765,13.56
44.781,12.16
44.796,11.1
44.812,10.47
44.828,10.23
44.843,10.12
44.859,9.8
44.875,9.0
44.890,7.58
44.906,5.68
44.921,3.53
44.937,1.45
44.953,-0.25
44.968,-1.47
44.984,-2.39
45.000,-3.44
45.015,-4.93
45.031,-7.13
45.046,-9.85
45.062,-12.84
45.078,-15.75
45.093,-18.24
45.109,-20.2
45.125,-21.65
45.140,-22.72
45.156,-23.25
45.171,-22.91
45.187,-21.32
45.203,-18.1
45.218,-13.18
45.234,-6.83
45.250,0.44
45.265,7.89
45.281,14.77
45.296,20.53
45.312,24.93
45.328,27.88
45.343,29.52
45.359,29.98
45.375,29.47
45.390,28.13
45.406,26.28
45.421,24.27
45.437,22.42
45.453,20.94
45.468,19.75
45.484,18.65
45.500,17.45
45.515,16.16
45.531,14.86
45.546,13.78
45.562,12.95
45.578,12.22
45.593,11.35
45.609,10.13
45.625,8.66
45.640,7.21
45.656,6.07
45.671,5.42
45.687,5.1
45.703,4.64
45.718,3.54
45.734,1.42
45.750,-1.69
45.765,-5.25
45.781,-8.6
45.796,-11.15
45.812,-12.67
45.828,-13.28
45.843,-13.42
45.859,-13.52
45.875,-13.92
45.890,-14.82
45.906,-16.09
45.921,-17.49
45.937,-18.58
45.953,-18.8
45.968,-17.43
45.984,-13.92
46.000,-7.98
46.015,0.26
46.031,10.08
46.046,20.56
46.062,30.64
46.078,39.49
46.093,46.63
46.109,51.91
46.125,55.44
46.140,57.58
46.156,58.6
46.171,58.8
46.187,58.37
46.203,57.55
46.218,56.4
46.234,55.14
46.250,53.91
46.265,52.9
46.281,52.27
46.296,52.11
46.312,52.51
46.328,53.34
46.343,54.44
46.359,55.36
46.375,55.71
46.390,55.05
46.406,53.17
46.421,50.12
46.437,46.14
46.453,41.64
46.468,36.88
46.484,31.94
46.500,26.72
46.515,20.91
46.531,14.12
46.546,6.09
46.562,-2.98
46.578,-12.64
46.593,-22.03
46.609,-30.36
46.625,-37.2
46.640,-42.57
46.656,-47.08
46.671,-51.37
46.687,-55.94
46.703,-60.51
46.718,-64.41
46.734,-66.67
46.750,-66.55
46.765,-63.8
46.781,-58.67
46.796,-51.9
46.812,-44.17
46.828,-36.16
46.843,-28.3
46.859,-20.94
46.875,-14.55
46.890,-9.56
46.906,-6.44
46.921,-5.42
46.937,-6.42
46.953,-8.94
46.968,-12.13
46.984,-15.25
47.000,-17.62
47.015,-19.09
47.031,-19.67
47.046,-19.76
47.062,-19.54
47.078,-19.16
47.093,-18.62
47.109,-17.85
47.125,-16.97
47.140,-16.19
47.156,-16.02
47.171,-16.61
47.187,-18.02
47.203,-19.88
47.218,-21.75
47.234,-23.34
47.250,-24.63
47.265,-25.91
47.281,-27.51
47.296,-29.66
47.312,-32.36
47.328,-35.23
47.343,-37.78
47.359,-39.58
47.375,-40.63
47.390,-41.15
47.406,-41.59
47.421,-42.34
47.437,-43.46
47.453,-44.84
47.468,-45.99
47.484,-46.51
47.500,-45.86
47.515,-43.57
47.531,-39.29
47.546,-32.92
47.562,-24.74
47.578,-15.52
47.593,-6.36
47.609,1.75
47.625,8.16
47.640,12.9
47.656,16.46
47.671,19.42
47.687,22.05
47.703,24.27
47.718,25.73
47.734,26.18
47.750,25.73
47.765,24.75
47.781,23.72
47.796,23.01
47.812,22.66
47.828,22.49
47.843,22.28
47.859,21.84
47.875,21.19
47.890,20.47
47.906,19.87
47.921,19.41
47.937,19.07
47.953,18.48
47.968,17.44
47.984,15.65
48.000,12.96
48.015,9.59
48.031,5.76
48.046,1.78
48.062,-2.23
48.078,-6.23
48.093,-10.36
48.109,-14.61
48.125,-18.9
48.140,-23.06
48.156,-26.85
48.171,-30.16
48.187,-33.05
48.203,-35.61
48.218,-37.94
48.234,-39.98
48.250,-41.29
48.265,-41.24
48.281,-39.17
48.296,-34.59
48.312,-27.56
48.328,-18.61
48.343,-8.59
48.359,1.57
48.375,10.99
48.390,19.08
48.406,25.51
48.421,30.05
48.437,32.76
48.453,33.66
48.468,32.97
48.484,31.06
48.500,28.31
48.515,25.11
48.531,21.79
48.546,18.62
48.562,15.77
48.578,13.41
48.593,11.53
48.609,10.2
48.625,9.45
48.640,9.25
48.656,9.55
48.671,10.22
48.687,11.08
48.703,11.85
48.718,12.36
48.734,12.2
48.750,11.1
48.765,8.9
48.781,5.62
48.796,1.6
48.812,-2.63
48.828,-6.55
48.843,-9.92
48.859,-12.67
48.875,-15.12
48.890,-17.49
48.906,-19.98
48.921,-22.57
48.937,-25.01
48.953,-26.98
48.968,-28.26
48.984,-28.65
49.000,-27.83
49.015,-25.54
49.031,-21.41
49.046,-15.41
49.062,-7.85
49.078,0.54
49.093,8.91
49.109,16.36
49.125,22.28
49.140,26.55
49.156,29.24
49.171,30.65
49.187,31.02
49.203,30.44
49.218,29.08
49.234,27.17
49.250,24.93
49.265,22.59
49.281,20.29
49.296,18.04
49.312,15.79
49.328,13.57
49.343,11.51
49.359,9.74
49.375,8.31
49.390,7.14
49.406,6.13
49.421,5.07
49.437,3.75
49.453,2.04
49.468,-0.2
49.484,-3.02
49.500,-6.39
49.515,-10.26
49.531,-14.53
49.546,-18.8
49.562,-22.62
49.578,-25.71
49.593,-27.9
49.609,-29.29
49.625,-30.26
49.640,-31.26
49.656,-32.66
49.671,-34.57
49.687,-36.7
49.703,-38.29
49.718,-38.41
49.734,-36.12
49.750,-30.88
49.765,-22.79
49.781,-12.36
49.796,-0.56
49.812,11.6
49.828,23.13
49.843,33.29
49.859,41.55
49.875,47.7
49.890,51.63
49.906,53.39
49.921,53.34
49.937,51.94
49.953,49.71
49.968,47.11
49.984,44.45
50.000,41.8
50.015,39.26
50.031,36.77
50.046,34.39
50.062,32.2
50.078,30.13
50.093,27.96
50.109,25.2
50.125,21.4
50.140,16.24
50.156,9.76
50.171,2.27
50.187,-5.7
50.203,-13.66
50.218,-21.38
50.234,-28.73
50.250,-35.64
50.265,-41.95
50.281,-47.39
50.296,-51.71
50.312,-54.89
50.328,-57.31
50.343,-59.71
50.359,-62.97
50.375,-67.72
50.390,-73.98
50.406,-80.89
50.421,-87.01
50.437,-90.56
50.453,-90.03
50.468,-84.73
50.484,-74.83
50.500,-61.46
50.515,-46.23
50.531,-30.78
50.546,-16.32
50.562,-3.57
50.578,6.93
50.593,15.09
50.609,20.66
50.625,23.51
50.640,23.94
50.656,22.46
50.671,19.9
50.687,17.04
50.703,14.28
50.718,11.38
50.734,7.96
50.750,3.7
50.765,-1.22
50.781,-6.1
50.796,-10.01
50.812,-12.21
50.828,-12.47
50.843,-11.14
50.859,-8.91
50.875,-6.54
50.890,-4.77
50.906,-3.94
50.921,-4.2
50.937,-5.5
50.953,-7.64
50.968,-10.33
50.984,-13.27
51.000,-16.16
51.015,-18.7
51.031,-20.95
51.046,-22.98
51.062,-25.0
51.078,-27.45
51.093,-30.48
51.109,-33.83
51.125,-36.83
51.140,-38.28
51.156,-36.95
51.171,-31.96
51.187,-23.03
51.203,-10.48
51.218,4.48
51.234,20.46
51.250,35.95
51.265,49.67
51.281,60.72
51.296,68.63
51.312,73.46
51.328,75.63
51.343,75.86
51.359,74.66
51.375,72.58
51.390,69.87
51.406,66.84
51.421,63.78
51.437,61.0
51.453,58.62
51.468,56.6
51.484,54.77
51.500,52.73
51.515,50.4
51.531,47.77
51.546,45.04
51.562,42.46
51.578,40.15
51.593,38.01
51.609,35.81
51.625,33.26
51.640,30.07
51.656,26.18
51.671,21.65
51.687,16.65
51.703,11.66
51.718,6.92
51.734,2.63
51.750,-1.3
51.765,-5.05
51.781,-8.84
51.796,-12.64
51.812,-16.29
51.828,-19.67
51.843,-22.51
51.859,-24.67
51.875,-25.97
51.890,-26.05
51.906,-24.3
51.921,-20.17
51.937,-13.25
51.953,-3.73
51.968,7.72
51.984,20.1
52.000,32.36
52.015,43.63
52.031,53.19
52.046,60.38
52.062,64.54
52.078,65.31
52.093,62.72
52.109,57.34
52.125,50.35
52.140,42.93
52.156,36.02
52.171,30.19
52.187,25.48
52.203,21.7
52.218,18.79
52.234,16.74
52.250,15.53
52.265,15.14
52.281,15.31
52.296,15.71
52.312,16.04
52.328,16.01
52.343,15.35
52.359,13.88
52.375,11.45
52.390,8.11
52.406,4.26
52.421,0.31
52.437,-3.21
52.453,-6.11
52.468,-8.44
52.484,-10.5
52.500,-12.69
52.515,-15.33
52.531,-18.58
52.546,-22.35
52.562,-26.56
52.578,-30.95
52.593,-35.17
52.609,-38.77
52.625,-41.12
52.640,-41.57
52.656,-39.69
52.671,-35.34
52.687,-28.75
52.703,-20.76
52.718,-12.59
52.734,-5.52
52.750,-0.55
52.765,2.0
52.781,2.5
52.796,1.74
52.812,0.46
52.828,-0.76
52.843,-1.54
52.859,-1.35
52.875,0.6
52.890,5.21
52.906,12.87
52.921,23.01
52.937,34.03
52.953,43.69
52.968,50.06
52.984,52.46
53.000,51.72
53.015,49.84
53.031,49.01
53.046,50.87
53.062,55.73
53.078,62.81
53.093,70.55
53.109,77.22
53.125,81.68
53.140,83.33
53.156,82.4
53.171,79.36
53.187,74.95
53.203,69.7
53.218,63.67
53.234,56.36
53.250,46.94
53.265,34.8
53.281,19.67
53.296,2.21
53.312,-16.26
53.328,-34.15
53.343,-50.0
53.359,-62.67
53.375,-71.43
53.390,-75.79
53.406,-75.33
53.421,-70.32
53.437,-61.91
53.453,-52.27
53.468,-44.36
53.484,-40.57
53.500,-41.68
53.515,-46.44
53.531,-52.44
53.546,-57.4
53.562,-60.6
53.578,-62.93
53.593,-65.91
53.609,-70.47
53.625,-75.91
53.640,-80.41
53.656,-82.08
53.671,-80.31
53.687,-76.02
53.703,-70.98
53.718,-66.57
53.734,-63.27
53.750,-60.67
53.765,-58.15
53.781,-55.46
53.796,-52.97
53.812,-51.21
53.828,-50.09
53.843,-49.19
53.859,-47.74
53.875,-45.28
53.890,-42.03
53.906,-38.63
53.921,-35.7
53.937,-33.62
53.953,-32.29
53.968,-31.37
53.984,-30.75
54.000,-30.65
54.015,-31.62
54.031,-34.05
54.046,-37.82
54.062,-41.92
54.078,-44.85
54.093,-45.06
54.109,-41.62
54.125,-34.76
54.140,-25.71
54.156,-16.34
54.171,-8.21
54.187,-2.12
54.203,2.35
54.218,6.24
54.234,10.57
54.250,15.64
54.265,20.78
54.281,24.79
54.296,26.59
54.312,25.81
54.328,22.96
54.343,19.1
54.359,15.23
54.375,11.89
54.390,9.04
54.406,6.48
54.421,4.2
54.437,2.59
54.453,2.21
54.468,3.37
54.484,5.74
54.500,8.31
54.515,9.89
54.531,9.5
54.546,7.05
54.562,3.38
54.578,-0.14
54.593,-2.41
54.609,-3.07
54.625,-2.72
54.640,-2.63
54.656,-3.9
54.671,-7.04
54.687,-11.66
54.703,-16.61
54.718,-20.49
54.734,-22.15
54.750,-21.04
54.765,-17.23
54.781,-11.2
54.796,-3.65
54.812,4.61
54.828,12.76
54.843,20.04
54.859,25.9
54.875,29.99
54.890,32.11
54.906,32.35
54.921,30.96
54.937,28.53
54.953,25.75
54.968,23.18
54.984,21.18
55.000,19.72
55.015,18.71
55.031,17.94
55.046,17.3
55.062,16.99
55.078,17.22
55.093,18.17
55.109,19.66
55.125,21.35
55.140,22.65
55.156,23.22
55.171,23.02
55.187,22.15
55.203,20.93
55.218,19.62
55.234,18.38
55.250,17.28
55.265,16.5
55.281,16.17
55.296,16.42
55.312,17.29
55.328,18.52
55.343,19.6
55.359,19.78
55.375,18.47
55.390,15.37
55.406,10.93
55.421,6.23
55.437,2.61
55.453,1.38
55.468,3.19
55.484,8.04
55.500,15.11
55.515,23.36
55.531,31.75
55.546,39.44
55.562,45.91
55.578,50.72
55.593,53.43
55.609,53.47
55.625,50.55
55.640,44.64
55.656,36.21
55.671,26.31
55.687,16.01
55.703,6.37
55.718,-2.04
55.734,-9.2
55.750,-15.55
55.765,-21.66
55.781,-27.69
55.796,-33.38
55.812,-37.93
55.828,-40.46
55.843,-40.25
55.859,-37.24
55.875,-32.01
55.890,-25.78
55.906,-19.99
55.921,-15.62
55.937,-13.08
55.953,-11.94
55.968,-11.36
55.984,-10.45
56.000,-8.82
56.015,-6.68
56.031,-4.52
56.046,-3.08
56.062,-2.69
56.078,-3.32
56.093,-4.62
56.109,-6.18
56.125,-7.83
56.140,-9.56
56.156,-11.49
56.171,-13.37
56.187,-14.71
56.203,-14.74
56.218,-12.85
56.234,-8.93
56.250,-3.41
56.265,2.78
56.281,8.64
56.296,13.52
56.312,17.18
56.328,19.64
56.343,21.16
56.359,21.95
56.375,22.12
56.390,21.82
56.406,21.08
56.421,20.1
56.437,19.14
56.453,18.48
56.468,18.32
56.484,18.85
56.500,20.16
56.515,22.06
56.531,24.4
56.546,26.89
56.562,29.21
56.578,31.36
56.593,33.26
56.609,34.97
56.625,36.49
56.640,37.82
56.656,38.74
56.671,39.05
56.687,38.58
56.703,37.32
56.718,35.56
56.734,33.57
56.750,31.62
56.765,29.79
56.781,27.9
56.796,25.77
56.812,23.3
56.828,20.44
56.843,17.36
56.859,14.36
56.875,11.76
56.890,10.04
56.906,9.68
56.921,10.91
56.937,13.73
56.953,17.76
56.968,22.21
56.984,26.06
57.000,28.52
57.015,29.21
57.031,28.48
57.046,27.18
57.062,26.06
57.078,25.63
57.093,25.71
57.109,25.83
57.125,25.55
57.140,24.67
57.156,23.41
57.171,22.28
57.187,21.66
57.203,21.48
57.218,21.56
57.234,21.48
57.250,20.97
57.265,20.15
57.281,19.07
57.296,17.77
57.312,16.32
57.328,14.64
57.343,12.61
57.359,10.29
57.375,7.55
57.390,4.45
57.406,1.07
57.421,-2.47
57.437,-5.9
57.453,-8.94
57.468,-11.39
57.484,-13.37
57.500,-15.17
57.515,-17.58
57.531,-21.13
57.546,-25.96
57.562,-31.71
57.578,-37.35
57.593,-41.59
57.609,-43.36
57.625,-42.21
57.640,-38.15
57.656,-32.12
57.671,-25.22
57.687,-18.4
57.703,-12.4
57.718,-7.57
57.734,-4.09
57.750,-2.06
57.765,-1.62
57.781,-2.7
57.796,-5.2
57.812,-8.79
57.828,-12.91
57.843,-17.24
57.859,-21.49
57.875,-25.76
57.890,-30.17
57.906,-34.77
57.921,-39.29
57.937,-43.37
57.953,-46.61
57.968,-48.73
57.984,-49.91
58.000,-50.32
58.015,-50.41
58.031,-50.67
58.046,-51.52
58.062,-53.19
58.078,-55.76
58.093,-59.16
58.109,-63.03
58.125,-67.23
58.140,-71.44
58.156,-75.36
58.171,-78.73
58.187,-81.39
58.203,-83.24
58.218,-84.34
58.234,-85.04
58.250,-85.41
58.265,-85.53
58.281,-85.11
58.296,-83.62
58.312,-80.62
58.328,-75.78
58.343,-69.06
58.359,-60.68
58.375,-51.19
58.390,-41.21
58.406,-31.45
58.421,-22.49
58.437,-14.6
58.453,-7.94
58.468,-2.49
58.484,1.73
58.500,4.68
58.515,6.46
58.531,7.52
58.546,8.72
58.562,10.89
58.578,14.64
58.593,19.59
58.609,24.83
58.625,29.06
58.640,31.22
58.656,30.98
58.671,28.7
58.687,25.19
58.703,21.01
58.718,16.58
58.734,11.58
58.750,5.53
58.765,-1.84
58.781,-10.56
58.796,-19.99
58.812,-29.03
58.828,-36.47
58.843,-41.37
58.859,-43.37
58.875,-42.83
58.890,-40.64
58.906,-37.83
58.921,-35.44
58.937,-34.04
58.953,-33.99
58.968,-35.32
58.984,-37.62
59.000,-39.88
59.015,-40.68
59.031,-38.61
59.046,-32.87
59.062,-23.95
59.078,-13.23
59.093,-2.57
59.109,6.48
59.125,13.12
59.140,17.28
59.156,19.14
59.171,18.82
59.187,16.43
59.203,12.04
59.218,6.22
59.234,-0.23
59.250,-6.64
59.265,-12.6
59.281,-18.39
59.296,-24.61
59.312,-31.7
59.328,-39.75
59.343,-48.69
59.359,-58.77
59.375,-70.63
59.390,-85.31
59.406,-103.04
59.421,-122.85
59.437,-142.5
59.453,-159.53
59.468,-172.37
59.484,-180.85
59.500,-185.53
59.515,-186.39
59.531,-181.78
59.546,-168.27
59.562,-142.28
59.578,-101.52
59.593,-45.98
59.609,22.37
59.625,100.89
59.640,187.16
59.656,278.58
59.671,371.53
59.687,460.2
59.703,536.55
59.718,591.42
59.734,616.77
59.750,607.01
59.765,560.53
59.781,480.25
59.796,373.07
59.812,249.0
59.828,119.18
59.843,-6.12
59.859,-119.29
59.875,-215.68
59.890,-293.63
59.906,-353.44
59.921,-396.25
59.937,-423.65
59.953,-437.31
59.968,-439.23
59.984,-431.59
