timestamp,value
00.000,283.0
00.015,260.08
00.031,231.93
00.046,202.34
00.062,174.92
00.078,150.07
00.093,124.41
00.109,93.25
00.125,54.19
00.140,8.43
00.156,-39.44
00.171,-84.8
00.187,-124.83
00.203,-159.55
00.218,-190.23
00.234,-218.37
00.250,-245.19
00.265,-271.69
00.281,-298.58
00.296,-324.97
00.312,-348.15
00.328,-363.37
00.343,-365.87
00.359,-352.88
00.375,-324.77
00.390,-284.61
00.406,-236.17
00.421,-182.43
00.437,-125.14
00.453,-67.1
00.468,-13.75
00.484,26.51
00.500,44.27
00.515,33.41
00.531,-5.14
00.546,-61.96
00.562,-122.12
00.578,-170.24
00.593,-197.06
00.609,-202.32
00.625,-193.46
00.640,-180.96
00.656,-172.13
00.671,-168.07
00.687,-164.34
00.703,-155.94
00.718,-141.74
00.734,-127.48
00.750,-122.99
00.765,-136.55
00.781,-169.4
00.796,-213.09
00.812,-253.26
00.828,-276.43
00.843,-276.36
00.859,-256.76
00.875,-228.65
00.890,-204.3
00.906,-190.54
00.921,-186.34
00.937,-183.49
00.953,-172.52
00.968,-148.56
00.984,-114.39
01.000,-79.6
01.015,-55.54
01.031,-49.73
01.046,-61.5
01.062,-83.15
01.078,-102.85
01.093,-110.58
01.109,-101.97
01.125,-79.6
01.140,-50.99
01.156,-24.31
01.171,-4.8
01.187,7.39
01.203,16.07
01.218,27.05
01.234,44.33
01.250,68.69
01.265,97.4
01.281,125.27
01.296,147.05
01.312,159.15
01.328,160.61
01.343,153.11
01.359,140.15
01.375,125.81
01.390,113.6
01.406,106.04
01.421,104.48
01.437,109.33
01.453,119.62
01.468,132.47
01.484,142.94
01.500,145.04
01.515,134.19
01.531,109.84
01.546,77.09
01.562,45.66
01.578,26.28
01.593,25.74
01.609,43.25
01.625,71.18
01.640,98.8
01.656,118.13
01.671,127.77
01.687,132.55
01.703,140.07
01.718,156.07
01.734,180.74
01.750,209.23
01.765,235.08
01.781,254.43
01.796,268.44
01.812,282.34
01.828,301.84
01.843,329.56
01.859,363.73
01.875,399.43
01.890,432.4
01.906,461.72
01.921,490.22
01.937,521.65
01.953,556.7
01.968,590.45
01.984,613.04
02.000,613.72
02.015,585.78
02.031,530.11
02.046,454.84
02.062,371.96
02.078,292.49
02.093,223.07
02.109,164.76
02.125,114.87
02.140,69.8
02.156,27.39
02.171,-11.62
02.187,-44.8
02.203,-69.55
02.218,-84.34
02.234,-89.49
02.250,-87.15
02.265,-80.78
02.281,-73.99
02.296,-69.98
02.312,-70.45
02.328,-75.92
02.343,-86.49
02.359,-101.91
02.375,-122.27
02.390,-147.69
02.406,-178.22
02.421,-213.45
02.437,-252.56
02.453,-294.72
02.468,-339.64
02.484,-387.16
02.500,-436.04
02.515,-482.81
02.531,-520.85
02.546,-541.55
02.562,-537.29
02.578,-504.33
02.593,-445.81
02.609,-371.61
02.625,-295.19
02.640,-229.12
02.656,-180.44
02.671,-148.49
02.687,-126.13
02.703,-104.8
02.718,-78.64
02.734,-46.95
02.750,-13.04
02.765,19.35
02.781,48.64
02.796,75.57
02.812,101.43
02.828,125.36
02.843,142.87
02.859,148.15
02.875,138.08
02.890,116.01
02.906,91.18
02.921,74.16
02.937,71.08
02.953,80.22
02.968,92.87
02.984,98.44
03.000,90.86
03.015,71.67
03.031,49.31
03.046,34.35
03.062,32.47
03.078,41.48
03.093,52.96
03.109,56.97
03.125,48.68
03.140,32.03
03.156,18.05
03.171,18.83
03.187,42.12
03.203,87.35
03.218,147.2
03.234,212.34
03.250,275.09
03.265,331.53
03.281,380.74
03.296,422.08
03.312,453.16
03.328,470.2
03.343,469.9
03.359,451.66
03.375,418.32
03.390,375.46
03.406,329.16
03.421,284.62
03.437,244.85
03.453,210.35
03.468,179.62
03.484,150.38
03.500,120.93
03.515,91.29
03.531,63.35
03.546,39.9
03.562,23.04
03.578,12.15
03.593,4.05
03.609,-5.54
03.625,-20.23
03.640,-41.76
03.656,-69.17
03.671,-99.79
03.687,-130.57
03.703,-157.98
03.718,-179.34
03.734,-193.14
03.750,-199.23
03.765,-199.46
03.781,-197.51
03.796,-197.58
03.812,-202.84
03.828,-215.38
03.843,-234.16
03.859,-256.36
03.875,-279.52
03.890,-303.37
03.906,-330.03
03.921,-362.46
03.937,-401.36
03.953,-443.53
03.968,-483.29
03.984,-510.76
04.000,-515.99
04.015,-494.06
04.031,-448.74
04.046,-391.99
04.062,-339.88
04.078,-306.33
04.093,-298.06
04.109,-315.72
04.125,-350.24
04.140,-388.15
04.156,-418.27
04.171,-435.89
04.187,-442.09
04.203,-439.76
04.218,-430.69
04.234,-415.12
04.250,-397.25
04.265,-378.72
04.281,-358.43
04.296,-333.47
04.312,-300.98
04.328,-259.26
04.343,-207.83
04.359,-148.58
04.375,-58.72
04.390,57.57
04.406,175.61
04.421,267.23
04.437,319.48
04.453,334.41
04.468,320.58
04.484,287.68
04.500,244.41
04.515,198.49
04.531,149.82
04.546,100.53
04.562,54.72
04.578,16.89
04.593,-11.12
04.609,-29.55
04.625,-39.43
04.640,-41.3
04.656,-35.35
04.671,-25.04
04.687,-10.51
04.703,8.46
04.718,32.58
04.734,61.35
04.750,93.72
04.765,128.45
04.781,164.58
04.796,201.08
04.812,234.57
04.828,263.2
04.843,286.73
04.859,306.24
04.875,322.84
04.890,338.03
04.906,353.71
04.921,372.09
04.937,395.39
04.953,423.53
04.968,454.49
04.984,483.34
05.000,502.3
05.015,502.15
05.031,476.55
05.046,424.12
05.062,349.18
05.078,260.49
05.093,167.52
05.109,77.86
05.125,-4.41
05.140,-78.81
05.156,-147.1
05.171,-209.45
05.187,-265.66
05.203,-315.38
05.218,-358.03
05.234,-391.53
05.250,-411.59
05.265,-412.88
05.281,-391.64
05.296,-348.15
05.312,-283.53
05.328,-203.29
05.343,-116.59
05.359,-34.06
05.375,35.61
05.390,88.0
05.406,121.95
05.421,138.16
05.437,138.3
05.453,131.29
05.468,125.71
05.484,126.52
05.500,133.8
05.515,145.04
05.531,158.61
05.546,174.7
05.562,194.67
05.578,220.58
05.593,262.96
05.609,329.88
05.625,422.36
05.640,533.2
05.656,650.93
05.671,764.97
05.687,867.6
05.703,954.01
05.718,970.85
05.734,887.59
05.750,711.96
05.765,488.35
05.781,266.84
05.796,77.86
05.812,-69.66
05.828,-179.59
05.843,-260.41
05.859,-320.77
05.875,-359.74
05.890,-375.95
05.906,-372.27
05.921,-356.98
05.937,-339.73
05.953,-326.82
05.968,-320.68
05.984,-321.28
06.000,-327.32
06.015,-331.39
06.031,-327.7
06.046,-315.46
06.062,-299.35
06.078,-285.68
06.093,-278.57
06.109,-279.02
06.125,-286.15
06.140,-297.71
06.156,-307.32
06.171,-310.36
06.187,-304.75
06.203,-292.15
06.218,-275.69
06.234,-257.87
06.250,-239.91
06.265,-222.5
06.281,-205.93
06.296,-188.86
06.312,-170.36
06.328,-151.06
06.343,-133.14
06.359,-118.65
06.375,-108.88
06.390,-103.95
06.406,-103.33
06.421,-106.0
06.437,-110.26
06.453,-114.64
06.468,-118.48
06.484,-122.1
06.500,-125.57
06.515,-129.02
06.531,-132.3
06.546,-135.17
06.562,-137.1
06.578,-137.38
06.593,-135.06
06.609,-128.7
06.625,-120.72
06.640,-111.97
06.656,-103.04
06.671,-94.25
06.687,-85.8
06.703,-77.68
06.718,-69.81
06.734,-62.31
06.750,-55.27
06.765,-49.07
06.781,-43.55
06.796,-38.68
06.812,-34.19
06.828,-29.66
06.843,-24.38
06.859,-17.6
06.875,-8.98
06.890,1.49
06.906,13.33
06.921,26.12
06.937,39.27
06.953,52.49
06.968,65.83
06.984,79.72
07.000,94.77
07.015,111.36
07.031,129.39
07.046,148.36
07.062,167.72
07.078,186.84
07.093,205.57
07.109,223.99
07.125,242.56
07.140,261.96
07.156,283.01
07.171,306.38
07.187,332.5
07.203,360.96
07.218,389.72
07.234,415.28
07.250,433.0
07.265,438.76
07.281,430.47
07.296,408.93
07.312,377.52
07.328,340.92
07.343,303.44
07.359,267.85
07.375,235.14
07.390,205.18
07.406,177.57
07.421,152.33
07.437,129.59
07.453,109.44
07.468,91.44
07.484,74.7
07.500,58.14
07.515,41.24
07.531,23.99
07.546,7.15
07.562,-8.12
07.578,-21.02
07.593,-31.23
07.609,-39.15
07.625,-45.73
07.640,-52.03
07.656,-58.33
07.671,-64.35
07.687,-69.08
07.703,-71.5
07.718,-71.26
07.734,-68.73
07.750,-64.84
07.765,-60.67
07.781,-56.98
07.796,-53.95
07.812,-51.36
07.828,-48.68
07.843,-45.41
07.859,-41.17
07.875,-35.68
07.890,-28.87
07.906,-20.87
07.921,-12.11
07.937,-3.3
07.953,5.14
07.968,13.34
07.984,21.99
08.000,31.93
08.015,43.55
08.031,56.24
08.046,68.6
08.062,79.03
08.078,86.26
08.093,90.25
08.109,92.31
08.125,94.71
08.140,99.81
08.156,109.65
08.171,125.67
08.187,148.77
08.203,178.96
08.218,213.84
08.234,249.17
08.250,279.93
08.265,302.21
08.281,314.69
08.296,319.12
08.312,319.28
08.328,318.75
08.343,318.9
08.359,316.3
08.375,305.34
08.390,281.52
08.406,243.8
08.421,195.01
08.437,139.82
08.453,82.49
08.468,25.57
08.484,-29.98
08.500,-86.29
08.515,-145.11
08.531,-205.84
08.546,-265.14
08.562,-318.23
08.578,-361.51
08.593,-393.96
08.609,-416.96
08.625,-433.08
08.640,-448.25
08.656,-467.81
08.671,-494.81
08.687,-528.99
08.703,-567.88
08.718,-608.77
08.734,-650.33
08.750,-692.2
08.765,-714.04
08.781,-698.99
08.796,-640.01
08.812,-545.44
08.828,-433.37
08.843,-320.58
08.859,-216.82
08.875,-125.95
08.890,-48.38
08.906,16.93
08.921,68.32
08.937,104.42
08.953,125.49
08.968,134.54
08.984,136.38
09.000,136.18
09.015,137.3
09.031,141.19
09.046,147.73
09.062,153.98
09.078,157.11
09.093,156.24
09.109,153.18
09.125,151.27
09.140,153.99
09.156,162.76
09.171,177.29
09.187,195.46
09.203,212.92
09.218,226.08
09.234,232.34
09.250,231.88
09.265,226.7
09.281,219.36
09.296,210.77
09.312,200.13
09.328,185.51
09.343,164.27
09.359,134.84
09.375,98.51
09.390,59.87
09.406,24.92
09.421,-0.75
09.437,-14.52
09.453,-17.19
09.468,-12.19
09.484,-4.55
09.500,0.39
09.515,-0.66
09.531,-7.81
09.546,-18.9
09.562,-30.48
09.578,-39.22
09.593,-41.5
09.609,-33.89
09.625,-15.63
09.640,8.44
09.656,29.61
09.671,43.92
09.687,47.18
09.703,36.72
09.718,14.07
09.734,-15.19
09.750,-43.78
09.765,-67.24
09.781,-88.44
09.796,-113.0
09.812,-143.73
09.828,-174.51
09.843,-196.57
09.859,-200.09
09.875,-179.35
09.890,-135.49
09.906,-79.02
09.921,-30.44
09.937,-9.5
09.953,-25.94
09.968,-72.46
09.984,-136.08
10.000,-201.64
10.015,-257.75
10.031,-297.82
10.046,-298.46
10.062,-248.26
10.078,-154.97
10.093,-65.98
10.109,9.52
10.125,73.88
10.140,137.24
10.156,198.34
10.171,252.68
10.187,295.03
10.203,318.99
10.218,322.49
10.234,309.94
10.250,294.17
10.265,282.78
10.281,278.34
10.296,278.34
10.312,279.25
10.328,277.07
10.343,265.52
10.359,240.58
10.375,202.32
10.390,157.3
10.406,108.78
10.421,57.75
10.437,2.64
10.453,-57.48
10.468,-122.85
10.484,-194.82
10.500,-273.48
10.515,-357.1
10.531,-440.47
10.546,-519.96
10.562,-591.19
10.578,-648.43
10.593,-683.38
10.609,-688.04
10.625,-659.27
10.640,-600.28
10.656,-520.29
10.671,-430.71
10.687,-343.49
10.703,-267.02
10.718,-204.43
10.734,-154.1
10.750,-112.57
10.765,-77.92
10.781,-50.35
10.796,-31.52
10.812,-22.44
10.828,-22.82
10.843,-30.76
10.859,-43.54
10.875,-58.2
10.890,-71.93
10.906,-82.57
10.921,-87.81
10.937,-85.75
10.953,-76.24
10.968,-62.01
10.984,-49.52
11.000,-47.52
11.015,-63.06
11.031,-97.46
11.046,-144.3
11.062,-190.4
11.078,-220.79
11.093,-224.67
11.109,-199.21
11.125,-149.61
11.140,-85.8
11.156,-17.61
11.171,48.01
11.187,107.5
11.203,159.24
11.218,201.82
11.234,233.88
11.250,255.42
11.265,268.98
11.281,279.16
11.296,290.92
11.312,306.78
11.328,325.48
11.343,342.89
11.359,353.94
11.375,354.68
11.390,344.26
11.406,324.72
11.421,300.02
11.437,275.22
11.453,255.29
11.468,244.07
11.484,243.4
11.500,252.61
11.515,268.9
11.531,288.0
11.546,304.98
11.562,314.87
11.578,313.03
11.593,295.66
11.609,260.32
11.625,207.02
11.640,138.82
11.656,62.09
11.671,-14.95
11.687,-84.59
11.703,-141.65
11.718,-184.59
11.734,-214.69
11.750,-234.83
11.765,-248.21
11.781,-257.58
11.796,-264.98
11.812,-271.32
11.828,-276.12
11.843,-277.38
11.859,-272.74
11.875,-261.1
11.890,-244.08
11.906,-226.21
11.921,-213.4
11.937,-210.48
11.953,-218.86
11.968,-235.75
11.984,-255.58
12.000,-272.56
12.015,-282.16
12.031,-282.0
12.046,-271.05
12.062,-248.63
12.078,-214.62
12.093,-169.9
12.109,-116.95
12.125,-59.95
12.140,-4.44
12.156,44.07
12.171,81.61
12.187,106.63
12.203,120.54
12.218,126.74
12.234,129.41
12.250,132.53
12.265,138.98
12.281,149.96
12.296,164.92
12.312,181.8
12.328,197.46
12.343,208.73
12.359,213.31
12.375,210.43
12.390,201.12
12.406,187.69
12.421,172.57
12.437,157.46
12.453,142.33
12.468,125.83
12.484,106.52
12.500,83.8
12.515,58.75
12.531,33.68
12.546,10.9
12.562,-8.74
12.578,-26.2
12.593,-44.24
12.609,-65.77
12.625,-92.07
12.640,-121.81
12.656,-151.33
12.671,-176.01
12.687,-192.05
12.703,-197.64
12.718,-192.74
12.734,-178.78
12.750,-157.48
12.765,-130.31
12.781,-98.32
12.796,-62.81
12.812,-25.45
12.828,11.67
12.843,46.5
12.859,77.8
12.875,105.19
12.890,128.46
12.906,146.69
12.921,157.78
12.937,159.33
12.953,149.86
12.968,130.36
12.984,104.53
13.000,77.62
13.015,54.42
13.031,37.52
13.046,26.82
13.062,20.45
13.078,16.48
13.093,13.94
13.109,12.99
13.125,14.13
13.140,17.61
13.156,22.72
13.171,28.26
13.187,33.26
13.203,37.38
13.218,41.25
13.234,45.94
13.250,52.39
13.265,60.53
13.281,69.59
13.296,78.25
13.312,85.53
13.328,91.42
13.343,96.81
13.359,102.64
13.375,108.96
13.390,114.75
13.406,118.33
13.421,118.97
13.437,117.92
13.453,118.4
13.468,124.21
13.484,137.84
13.500,159.2
13.515,185.16
13.531,210.28
13.546,228.03
13.562,232.34
13.578,219.43
13.593,189.39
13.609,147.27
13.625,102.3
13.640,65.48
13.656,45.53
13.671,45.55
13.687,61.91
13.703,86.01
13.718,108.51
13.734,122.97
13.750,127.72
13.765,124.69
13.781,117.2
13.796,107.57
13.812,96.63
13.828,84.26
13.843,70.61
13.859,57.05
13.875,45.69
13.890,38.57
13.906,36.5
13.921,38.78
13.937,43.3
13.953,47.6
13.968,49.6
13.984,48.09
14.000,43.3
14.015,36.4
14.031,28.96
14.046,21.98
14.062,15.54
14.078,8.69
14.093,0.27
14.109,-10.31
14.125,-22.42
14.140,-34.09
14.156,-42.99
14.171,-47.33
14.187,-46.8
14.203,-42.72
14.218,-37.36
14.234,-32.83
14.250,-30.1
14.265,-29.04
14.281,-28.61
14.296,-27.82
14.312,-26.26
14.328,-24.21
14.343,-22.39
14.359,-21.52
14.375,-21.94
14.390,-23.37
14.406,-25.37
14.421,-27.37
14.437,-29.1
14.453,-30.48
14.468,-31.61
14.484,-32.54
14.500,-33.15
14.515,-33.14
14.531,-32.16
14.546,-30.19
14.562,-27.66
14.578,-25.41
14.593,-24.27
14.609,-24.74
14.625,-26.66
14.640,-29.5
14.656,-32.6
14.671,-35.55
14.687,-38.23
14.703,-40.64
14.718,-42.66
14.734,-44.08
14.750,-44.68
14.765,-44.39
14.781,-43.52
14.796,-42.41
14.812,-41.4
14.828,-40.65
14.843,-40.04
14.859,-39.3
14.875,-38.16
14.890,-36.49
14.906,-34.11
14.921,-30.96
14.937,-27.1
14.953,-22.8
14.968,-18.45
14.984,-14.62
15.000,-11.78
15.015,-10.07
15.031,-9.41
15.046,-9.31
15.062,-9.21
15.078,-8.67
15.093,-7.42
15.109,-5.45
15.125,-3.01
15.140,-0.39
15.156,2.02
15.171,3.89
15.187,5.17
15.203,5.76
15.218,5.67
15.234,4.97
15.250,3.87
15.265,2.55
15.281,1.27
15.296,0.3
15.312,-0.32
15.328,-0.71
15.343,-1.2
15.359,-2.11
15.375,-3.44
15.390,-4.85
15.406,-5.97
15.421,-6.42
15.437,-6.16
15.453,-5.63
15.468,-5.38
15.484,-5.93
15.500,-7.42
15.515,-9.53
15.531,-11.67
15.546,-13.39
15.562,-14.48
15.578,-15.04
15.593,-15.45
15.609,-15.73
15.625,-15.71
15.640,-14.75
15.656,-12.43
15.671,-8.68
15.687,-4.07
15.703,0.42
15.718,3.82
15.734,5.51
15.750,5.81
15.765,5.53
15.781,5.69
15.796,7.02
15.812,9.65
15.828,13.18
15.843,16.97
15.859,20.64
15.875,23.94
15.890,27.02
15.906,30.04
15.921,33.04
15.937,35.89
15.953,38.41
15.968,40.42
15.984,41.71
16.000,42.35
16.015,42.39
16.031,42.25
16.046,42.3
16.062,43.18
16.078,45.3
16.093,48.64
16.109,52.85
16.125,57.2
16.140,61.09
16.156,64.14
16.171,66.72
16.187,69.46
16.203,73.23
16.218,78.66
16.234,85.94
16.250,95.05
16.265,105.8
16.281,117.89
16.296,130.79
16.312,143.72
16.328,155.49
16.343,164.86
16.359,171.03
16.375,173.82
16.390,173.29
16.406,169.0
16.421,159.54
16.437,142.57
16.453,116.05
16.468,79.55
16.484,35.17
16.500,-12.67
16.515,-58.44
16.531,-97.34
16.546,-126.95
16.562,-147.17
16.578,-159.66
16.593,-166.55
16.609,-169.72
16.625,-170.64
16.640,-170.64
16.656,-171.14
16.671,-173.1
16.687,-176.73
16.703,-180.99
16.718,-184.19
16.734,-184.79
16.750,-182.28
16.765,-177.42
16.781,-171.78
16.796,-167.14
16.812,-164.69
16.828,-165.0
16.843,-168.11
16.859,-173.95
16.875,-182.02
16.890,-191.26
16.906,-200.01
16.921,-206.47
16.937,-209.35
16.953,-208.34
16.968,-204.19
16.984,-198.12
17.000,-191.44
17.015,-185.04
17.031,-178.9
17.046,-172.48
17.062,-164.64
17.078,-154.29
17.093,-140.37
17.109,-122.19
17.125,-99.93
17.140,-75.08
17.156,-50.62
17.171,-30.2
17.187,-17.21
17.203,-13.06
17.218,-16.47
17.234,-23.39
17.250,-28.38
17.265,-26.05
17.281,-12.87
17.296,12.12
17.312,47.31
17.328,88.66
17.343,130.57
17.359,166.64
17.375,191.31
17.390,201.29
17.406,197.15
17.421,183.5
17.437,167.78
17.453,157.88
17.468,159.63
17.484,175.87
17.500,206.24
17.515,247.52
17.531,294.22
17.546,338.74
17.562,372.4
17.578,386.85
17.593,376.62
17.609,341.23
17.625,286.18
17.640,221.16
17.656,156.48
17.671,99.74
17.687,53.61
17.703,15.93
17.718,-18.18
17.734,-53.21
17.750,-90.95
17.765,-129.24
17.781,-162.84
17.796,-185.68
17.812,-193.32
17.828,-184.71
17.843,-162.91
17.859,-133.9
17.875,-104.35
17.890,-79.46
17.906,-61.74
17.921,-50.76
17.937,-44.04
17.953,-38.32
17.968,-30.29
17.984,-17.23
18.000,2.76
18.015,30.12
18.031,62.95
18.046,96.61
18.062,124.61
18.078,140.49
18.093,140.24
18.109,123.86
18.125,95.62
18.140,62.19
18.156,29.99
18.171,2.29
18.187,-21.77
18.203,-46.49
18.218,-77.15
18.234,-117.46
18.250,-167.48
18.265,-223.07
18.281,-277.1
18.296,-321.47
18.312,-350.21
18.328,-360.85
18.343,-354.77
18.359,-335.51
18.375,-306.9
18.390,-271.56
18.406,-230.81
18.421,-185.53
18.437,-136.73
18.453,-86.22
18.468,-35.64
18.484,14.03
18.500,62.31
18.515,107.99
18.531,148.11
18.546,178.21
18.562,194.18
18.578,195.06
18.593,184.19
18.609,168.13
18.625,153.68
18.640,144.74
18.656,140.9
18.671,138.49
18.687,133.58
18.703,124.15
18.718,111.11
18.734,97.24
18.750,84.95
18.765,74.73
18.781,65.23
18.796,54.79
18.812,43.44
18.828,33.94
18.843,31.14
18.859,40.28
18.875,64.69
18.890,104.43
18.906,155.79
18.921,212.31
18.937,266.08
18.953,309.2
18.968,334.9
18.984,338.61
19.000,318.82
19.015,277.45
19.031,219.39
19.046,151.09
19.062,79.24
19.078,9.49
19.093,-53.96
19.109,-108.08
19.125,-150.85
19.140,-181.16
19.156,-199.36
19.171,-207.22
19.187,-207.8
19.203,-204.58
19.218,-200.64
19.234,-197.71
19.250,-195.86
19.265,-194.22
19.281,-191.87
19.296,-189.31
19.312,-189.07
19.328,-195.83
19.343,-214.81
19.359,-249.1
19.375,-296.88
19.390,-350.16
19.406,-396.56
19.421,-422.64
19.437,-418.79
19.453,-381.7
19.468,-315.14
19.484,-227.84
19.500,-130.43
19.515,-33.16
19.531,55.94
19.546,131.25
19.562,190.46
19.578,234.2
19.593,265.92
19.609,290.63
19.625,313.38
19.640,337.75
19.656,364.01
19.671,388.93
19.687,406.14
19.703,408.19
19.718,388.6
19.734,344.33
19.750,277.43
19.765,195.45
19.781,110.06
19.796,33.68
19.812,-23.9
19.828,-58.49
19.843,-71.97
19.859,-70.79
19.875,-62.94
19.890,-54.93
19.906,-50.27
19.921,-48.95
19.937,-49.42
19.953,-49.85
19.968,-49.56
19.984,-49.14
20.000,-49.56
20.015,-51.2
20.031,-53.28
20.046,-54.54
20.062,-53.68
20.078,-50.44
20.093,-45.47
20.109,-40.04
20.125,-35.33
20.140,-31.68
20.156,-28.39
20.171,-23.97
20.187,-16.88
20.203,-6.35
20.218,6.87
20.234,21.04
20.250,33.89
20.265,43.66
20.281,49.69
20.296,52.7
20.312,54.08
20.328,55.03
20.343,56.1
20.359,56.79
20.375,56.47
20.390,54.93
20.406,52.77
20.421,51.25
20.437,51.72
20.453,54.92
20.468,60.44
20.484,66.98
20.500,72.83
20.515,76.55
20.531,77.43
20.546,75.43
20.562,71.05
20.578,64.9
20.593,57.6
20.609,49.68
20.625,41.5
20.640,33.56
20.656,26.43
20.671,20.54
20.687,15.95
20.703,12.32
20.718,8.8
20.734,4.61
20.750,-0.72
20.765,-6.97
20.781,-13.4
20.796,-19.06
20.812,-23.28
20.828,-26.21
20.843,-28.44
20.859,-30.89
20.875,-34.23
20.890,-38.85
20.906,-44.96
20.921,-52.89
20.937,-63.24
20.953,-76.44
20.968,-92.45
20.984,-110.08
21.000,-126.92
21.015,-139.95
21.031,-146.7
21.046,-146.11
21.062,-138.97
21.078,-127.67
21.093,-114.96
21.109,-102.93
21.125,-92.42
21.140,-83.02
21.156,-73.77
21.171,-64.04
21.187,-53.8
21.203,-43.78
21.218,-35.06
21.234,-28.47
21.250,-24.3
21.265,-22.27
21.281,-21.68
21.296,-21.72
21.312,-21.92
21.328,-22.09
21.343,-22.48
21.359,-23.23
21.375,-24.06
21.390,-24.18
21.406,-22.62
21.421,-18.82
21.437,-13.03
21.453,-6.53
21.468,-1.02
21.484,1.95
21.500,1.7
21.515,-1.12
21.531,-4.96
21.546,-8.17
21.562,-9.56
21.578,-9.01
21.593,-7.35
21.609,-5.67
21.625,-4.83
21.640,-5.14
21.656,-6.18
21.671,-7.18
21.687,-7.33
21.703,-5.65
21.718,-1.42
21.734,5.8
21.750,15.91
21.765,27.86
21.781,39.77
21.796,49.58
21.812,55.55
21.828,57.06
21.843,54.65
21.859,49.6
21.875,43.2
21.890,36.48
21.906,29.84
21.921,23.44
21.937,17.64
21.953,12.85
21.968,9.51
21.984,7.8
22.000,7.29
22.015,7.18
22.031,6.73
22.046,5.19
22.062,2.34
22.078,-1.42
22.093,-5.29
22.109,-8.2
22.125,-9.1
22.140,-7.65
22.156,-4.33
22.171,-0.21
22.187,3.19
22.203,5.06
22.218,5.58
22.234,5.75
22.250,6.9
22.265,9.76
22.281,14.15
22.296,19.13
22.312,23.65
22.328,26.88
22.343,28.67
22.359,29.39
22.375,29.46
22.390,29.25
22.406,28.92
22.421,28.39
22.437,27.55
22.453,26.23
22.468,24.18
22.484,21.19
22.500,17.12
22.515,12.01
22.531,6.26
22.546,0.52
22.562,-4.48
22.578,-8.2
22.593,-10.33
22.609,-10.87
22.625,-10.11
22.640,-8.42
22.656,-6.47
22.671,-5.03
22.687,-4.98
22.703,-7.08
22.718,-11.71
22.734,-18.42
22.750,-25.85
22.765,-31.84
22.781,-33.87
22.796,-30.09
22.812,-19.99
22.828,-4.82
22.843,12.71
22.859,29.42
22.875,42.87
22.890,51.91
22.906,56.78
22.921,58.46
22.937,57.7
22.953,54.54
22.968,48.19
22.984,37.89
23.000,23.49
23.015,6.08
23.031,-12.57
23.046,-30.73
23.062,-47.36
23.078,-62.7
23.093,-78.07
23.109,-95.02
23.125,-114.56
23.140,-136.78
23.156,-160.67
23.171,-184.84
23.187,-208.31
23.203,-230.74
23.218,-252.68
23.234,-275.17
23.250,-298.89
23.265,-323.54
23.281,-347.97
23.296,-370.56
23.312,-390.08
23.328,-406.24
23.343,-419.49
23.359,-430.51
23.375,-439.55
23.390,-445.97
23.406,-448.4
23.421,-445.39
23.437,-435.56
23.453,-417.9
23.468,-391.77
23.484,-356.8
23.500,-313.27
23.515,-262.3
23.531,-206.03
23.546,-147.41
23.562,-89.58
23.578,-35.03
23.593,14.73
23.609,58.76
23.625,96.59
23.640,127.74
23.656,151.93
23.671,169.63
23.687,182.24
23.703,192.04
23.718,201.92
23.734,214.22
23.750,229.64
23.765,247.62
23.781,266.9
23.796,286.82
23.812,308.45
23.828,334.48
23.843,367.78
23.859,410.24
23.875,461.31
23.890,518.05
23.906,576.28
23.921,631.43
23.937,679.15
23.953,715.33
23.968,736.08
23.984,737.84
24.000,719.42
24.015,683.29
24.031,636.27
24.046,587.92
24.062,547.13
24.078,518.48
24.093,500.75
24.109,487.95
24.125,472.11
24.140,447.09
24.156,410.16
24.171,362.13
24.187,305.67
24.203,243.42
24.218,176.86
24.234,107.07
24.250,35.38
24.265,-36.32
24.281,-105.89
24.296,-172.55
24.312,-237.66
24.328,-304.35
24.343,-375.89
24.359,-453.33
24.375,-533.54
24.390,-609.08
24.406,-670.04
24.421,-706.95
24.437,-713.82
24.453,-689.99
24.468,-640.04
24.484,-572.74
24.500,-498.64
24.515,-427.58
24.531,-366.62
24.546,-319.28
24.562,-285.22
24.578,-261.83
24.593,-245.63
24.609,-233.48
24.625,-223.24
24.640,-213.32
24.656,-202.02
24.671,-187.12
24.687,-166.29
24.703,-137.45
24.718,-100.08
24.734,-55.3
24.750,-5.75
24.765,45.27
24.781,94.6
24.796,139.87
24.812,179.46
24.828,212.25
24.843,237.4
24.859,254.01
24.875,261.22
24.890,258.45
24.906,245.92
24.921,224.84
24.937,197.49
24.953,166.78
24.968,135.62
24.984,106.4
25.000,80.51
25.015,58.13
25.031,38.96
25.046,22.63
25.062,9.17
25.078,-0.88
25.093,-6.68
25.109,-7.56
25.125,-3.34
25.140,5.41
25.156,17.52
25.171,31.8
25.187,47.44
25.203,64.23
25.218,82.09
25.234,100.74
25.250,118.99
25.265,134.9
25.281,146.27
25.296,151.76
25.312,151.38
25.328,146.6
25.343,139.47
25.359,131.66
25.375,124.15
25.390,116.96
25.406,109.89
25.421,102.85
25.437,96.24
25.453,90.72
25.468,86.97
25.484,85.33
25.500,85.98
25.515,88.97
25.531,94.14
25.546,101.13
25.562,109.34
25.578,118.07
25.593,126.95
25.609,136.12
25.625,146.02
25.640,157.27
25.656,170.32
25.671,185.19
25.687,201.67
25.703,219.06
25.718,236.14
25.734,250.81
25.750,259.9
25.765,259.86
25.781,248.06
25.796,224.52
25.812,192.35
25.828,157.41
25.843,126.15
25.859,103.42
25.875,90.73
25.890,85.91
25.906,83.97
25.921,78.6
25.937,63.58
25.953,33.51
25.968,-15.13
25.984,-83.5
26.000,-169.46
26.015,-267.41
26.031,-368.58
26.046,-462.84
26.062,-540.81
26.078,-596.22
26.093,-627.42
26.109,-637.23
26.125,-631.99
26.140,-619.48
26.156,-607.05
26.171,-599.99
26.187,-600.96
26.203,-610.17
26.218,-625.49
26.234,-642.69
26.250,-655.42
26.265,-656.24
26.281,-638.22
26.296,-597.04
26.312,-532.76
26.328,-450.24
26.343,-358.17
26.359,-266.09
26.375,-181.88
26.390,-109.73
26.406,-50.57
26.421,-3.29
26.437,33.82
26.453,62.31
26.468,83.78
26.484,100.19
26.500,114.53
26.515,130.37
26.531,151.76
26.546,181.72
26.562,221.76
26.578,271.41
26.593,327.9
26.609,386.64
26.625,441.41
26.640,485.87
26.656,514.49
26.671,524.42
26.687,515.61
26.703,490.71
26.718,453.92
26.734,409.46
26.750,360.45
26.765,308.41
26.781,253.81
26.796,196.81
26.812,138.29
26.828,80.02
26.843,24.18
26.859,-26.81
26.875,-70.79
26.890,-106.0
26.906,-130.84
26.921,-144.15
26.937,-145.69
26.953,-136.34
26.968,-118.06
26.984,-93.31
27.000,-63.65
27.015,-29.27
27.031,10.52
27.046,56.08
27.062,106.09
27.078,156.86
27.093,203.41
27.109,241.5
27.125,268.61
27.140,284.2
27.156,288.18
27.171,279.73
27.187,256.89
27.203,217.74
27.218,162.29
27.234,93.89
27.250,19.11
27.265,-54.26
27.281,-119.9
27.296,-175.07
27.312,-220.56
27.328,-258.97
27.343,-292.76
27.359,-322.62
27.375,-347.12
27.390,-364.32
27.406,-373.56
27.421,-376.5
27.437,-376.53
27.453,-376.65
27.468,-376.93
27.484,-373.75
27.500,-361.19
27.515,-333.24
27.531,-286.89
27.546,-223.42
27.562,-147.33
27.578,-64.19
27.593,21.11
27.609,105.37
27.625,185.79
27.640,258.54
27.656,318.51
27.671,360.54
27.687,381.51
27.703,381.97
27.718,366.48
27.734,341.74
27.750,314.39
27.765,288.97
27.781,266.99
27.796,247.5
27.812,228.46
27.828,208.32
27.843,186.69
27.859,164.45
27.875,142.99
27.890,123.71
27.906,107.33
27.921,93.64
27.937,81.74
27.953,70.25
27.968,58.11
27.984,44.87
28.000,30.88
28.015,16.92
28.031,3.79
28.046,-8.46
28.062,-20.79
28.078,-34.85
28.093,-52.58
28.109,-74.99
28.125,-101.64
28.140,-130.44
28.156,-158.37
28.171,-182.33
28.187,-200.01
28.203,-210.02
28.218,-211.53
28.234,-203.98
28.250,-186.94
28.265,-160.74
28.281,-127.05
28.296,-89.11
28.312,-51.18
28.328,-17.27
28.343,10.29
28.359,31.51
28.375,48.14
28.390,62.79
28.406,77.29
28.421,92.09
28.437,106.48
28.453,119.31
28.468,129.72
28.484,137.66
28.500,143.67
28.515,148.16
28.531,151.2
28.546,152.21
28.562,150.08
28.578,143.83
28.593,133.17
28.609,118.58
28.625,101.18
28.640,82.3
28.656,62.94
28.671,43.68
28.687,24.85
28.703,6.86
28.718,-9.5
28.734,-23.17
28.750,-33.38
28.765,-39.88
28.781,-43.1
28.796,-43.99
28.812,-43.32
28.828,-41.49
28.843,-38.49
28.859,-33.81
28.875,-27.17
28.890,-18.56
28.906,-8.14
28.921,3.73
28.937,16.16
28.953,28.14
28.968,38.64
28.984,47.08
29.000,53.87
29.015,59.94
29.031,66.2
29.046,73.57
29.062,82.98
29.078,94.87
29.093,109.02
29.109,123.86
29.125,135.99
29.140,140.4
29.156,131.84
29.171,106.11
29.187,62.9
29.203,7.13
29.218,-52.8
29.234,-108.74
29.250,-156.26
29.265,-195.96
29.281,-232.31
29.296,-270.08
29.312,-311.86
29.328,-355.39
29.343,-394.0
29.359,-420.14
29.375,-429.19
29.390,-421.09
29.406,-398.9
29.421,-366.17
29.437,-324.42
29.453,-274.08
29.468,-214.13
29.484,-143.42
29.500,-63.31
29.515,22.76
29.531,110.47
29.546,196.79
29.562,280.8
29.578,363.22
29.593,443.52
29.609,506.9
29.625,537.29
29.640,522.97
29.656,465.2
29.671,376.85
29.687,274.45
29.703,170.21
29.718,77.47
29.734,-6.63
29.750,-84.8
29.765,-154.43
29.781,-210.65
29.796,-248.26
29.812,-264.38
29.828,-257.8
29.843,-231.34
29.859,-191.02
29.875,-146.43
29.890,-106.6
29.906,-77.07
29.921,-59.48
29.937,-51.04
29.953,-46.12
29.968,-38.95
29.984,-26.37
30.000,-9.02
30.015,8.06
30.031,19.68
30.046,23.51
30.062,20.96
30.078,16.69
30.093,15.91
30.109,21.53
30.125,33.09
30.140,47.74
30.156,61.43
30.171,71.62
30.187,77.65
30.203,79.22
30.218,75.53
30.234,65.07
30.250,46.9
30.265,22.29
30.281,-4.56
30.296,-27.61
30.312,-40.79
30.328,-40.19
30.343,-25.73
30.359,-0.84
30.375,29.42
30.390,60.25
30.406,88.45
30.421,112.67
30.437,132.45
30.453,147.49
30.468,156.89
30.484,159.07
30.500,152.59
30.515,137.36
30.531,115.11
30.546,89.13
30.562,63.32
30.578,41.16
30.593,24.45
30.609,13.19
30.625,5.69
30.640,-0.29
30.656,-6.69
30.671,-14.83
30.687,-25.0
30.703,-36.76
30.718,-49.22
30.734,-61.68
30.750,-73.42
30.765,-83.87
30.781,-91.77
30.796,-95.55
30.812,-94.12
30.828,-87.71
30.843,-78.41
30.859,-69.9
30.875,-65.78
30.890,-67.67
30.906,-74.32
30.921,-82.12
30.937,-87.35
30.953,-88.74
30.968,-88.76
30.984,-92.95
31.000,-107.14
31.015,-134.31
31.031,-172.37
31.046,-214.61
31.062,-252.54
31.078,-279.22
31.093,-292.35
31.109,-294.61
31.125,-291.83
31.140,-289.22
31.156,-288.35
31.171,-286.23
31.187,-277.2
31.203,-255.98
31.218,-220.19
31.234,-171.44
31.250,-113.39
31.265,-49.63
31.281,18.49
31.296,91.7
31.312,170.61
31.328,252.9
31.343,331.81
31.359,396.85
31.375,437.24
31.390,446.33
31.406,424.71
31.421,380.33
31.437,325.51
31.453,272.09
31.468,227.36
31.484,192.37
31.500,163.44
31.515,135.34
31.531,104.76
31.546,71.85
31.562,39.17
31.578,9.52
31.593,-16.38
31.609,-40.53
31.625,-66.9
31.640,-99.59
31.656,-141.18
31.671,-191.95
31.687,-250.22
31.703,-313.15
31.718,-376.73
31.734,-435.68
31.750,-483.1
31.765,-510.95
31.781,-511.77
31.796,-481.18
31.812,-419.8
31.828,-333.77
31.843,-233.51
31.859,-130.74
31.875,-35.75
31.890,44.42
31.906,106.72
31.921,151.19
31.937,180.2
31.953,197.55
31.968,207.7
31.984,214.87
32.000,222.14
32.015,230.47
32.031,238.28
32.046,242.52
32.062,240.08
32.078,229.25
32.093,210.55
32.109,186.51
32.125,160.65
32.140,136.29
32.156,115.58
32.171,99.11
32.187,86.53
32.203,76.78
32.218,68.8
32.234,61.64
32.250,54.52
32.265,46.97
32.281,38.94
32.296,30.77
32.312,22.95
32.328,16.19
32.343,11.0
32.359,7.71
32.375,6.66
32.390,8.06
32.406,12.04
32.421,18.81
32.437,28.52
32.453,41.28
32.468,57.17
32.484,76.01
32.500,97.14
32.515,119.68
32.531,142.19
32.546,162.84
32.562,179.61
32.578,190.51
32.593,193.73
32.609,187.92
32.625,172.55
32.640,148.33
32.656,117.43
32.671,83.25
32.687,49.95
32.703,21.63
32.718,1.36
32.734,-9.53
32.750,-11.76
32.765,-7.76
32.781,-0.95
32.796,5.25
32.812,7.71
32.828,4.4
32.843,-5.36
32.859,-21.05
32.875,-41.18
32.890,-63.75
32.906,-86.94
32.921,-109.27
32.937,-129.72
32.953,-147.96
32.968,-163.9
32.984,-177.28
33.000,-187.47
33.015,-193.47
33.031,-193.89
33.046,-187.67
33.062,-174.32
33.078,-154.48
33.093,-130.24
33.109,-104.13
33.125,-77.88
33.140,-51.33
33.156,-22.99
33.171,8.95
33.187,44.42
33.203,81.15
33.218,114.96
33.234,141.39
33.250,157.85
33.265,164.83
33.281,165.42
33.296,163.3
33.312,160.96
33.328,158.79
33.343,156.22
33.359,151.86
33.375,143.43
33.390,127.54
33.406,99.84
33.421,55.85
33.437,-7.46
33.453,-90.38
33.468,-189.32
33.484,-291.43
33.500,-376.99
33.515,-426.48
33.531,-430.05
33.546,-392.57
33.562,-329.1
33.578,-255.88
33.593,-184.35
33.609,-120.08
33.625,-64.57
33.640,-18.21
33.656,17.63
33.671,41.57
33.687,53.51
33.703,55.61
33.718,51.95
33.734,47.01
33.750,44.18
33.765,45.13
33.781,49.5
33.796,54.76
33.812,58.01
33.828,57.33
33.843,52.75
33.859,46.11
33.875,39.81
33.890,35.71
33.906,34.68
33.921,36.17
33.937,38.52
33.953,39.8
33.968,38.74
33.984,35.3
34.000,30.55
34.015,25.94
34.031,22.6
34.046,21.01
34.062,20.94
34.078,21.49
34.093,21.67
34.109,20.78
34.125,18.78
34.140,16.13
34.156,13.46
34.171,11.29
34.187,9.85
34.203,9.04
34.218,8.54
34.234,7.96
34.250,7.08
34.265,5.81
34.281,4.35
34.296,2.87
34.312,1.56
34.328,0.52
34.343,-0.22
34.359,-0.68
34.375,-1.02
34.390,-1.14
34.406,-1.09
34.421,-0.88
34.437,-0.5
34.453,0.15
34.468,1.28
34.484,3.13
34.500,6.0
34.515,9.93
34.531,15.16
34.546,21.67
34.562,29.33
34.578,37.7
34.593,46.21
34.609,54.16
34.625,60.9
34.640,65.9
34.656,68.41
34.671,68.22
34.687,65.12
34.703,59.35
34.718,51.35
34.734,41.72
34.750,31.3
34.765,20.99
34.781,11.73
34.796,4.24
34.812,-0.75
34.828,-2.95
34.843,-2.23
34.859,1.36
34.875,7.09
34.890,14.16
34.906,21.66
34.921,28.54
34.937,33.52
34.953,35.37
34.968,32.82
34.984,24.78
35.000,10.91
35.015,-8.93
35.031,-34.24
35.046,-63.62
35.062,-94.89
35.078,-125.39
35.093,-152.1
35.109,-171.89
35.125,-182.23
35.140,-181.2
35.156,-167.98
35.171,-143.11
35.187,-107.79
35.203,-64.29
35.218,-15.78
35.234,34.01
35.250,81.28
35.265,122.25
35.281,153.79
35.296,173.59
35.312,179.79
35.328,172.39
35.343,152.41
35.359,121.42
35.375,80.93
35.390,35.04
35.406,-12.67
35.421,-59.25
35.437,-104.28
35.453,-147.17
35.468,-185.81
35.484,-218.02
35.500,-242.52
35.515,-258.3
35.531,-264.62
35.546,-261.32
35.562,-248.42
35.578,-219.49
35.593,-180.0
35.609,-134.57
35.625,-86.14
35.640,-38.26
35.656,6.0
35.671,44.33
35.687,75.62
35.703,100.79
35.718,122.05
35.734,140.43
35.750,157.82
35.765,175.98
35.781,193.98
35.796,210.31
35.812,222.72
35.828,228.96
35.843,227.05
35.859,215.75
35.875,195.01
35.890,163.59
35.906,129.67
35.921,99.89
35.937,77.5
35.953,61.44
35.968,48.84
35.984,37.11
36.000,24.89
36.015,11.65
36.031,-1.65
36.046,-14.87
36.062,-30.01
36.078,-48.41
36.093,-69.59
36.109,-91.38
36.125,-109.99
36.140,-124.0
36.156,-135.42
36.171,-147.97
36.187,-164.24
36.203,-184.11
36.218,-199.89
36.234,-205.96
36.250,-197.25
36.265,-172.27
36.281,-134.99
36.296,-92.52
36.312,-51.95
36.328,-17.53
36.343,9.42
36.359,29.71
36.375,43.96
36.390,53.71
36.406,60.7
36.421,67.06
36.437,75.58
36.453,89.16
36.468,108.23
36.484,130.92
36.500,153.17
36.515,169.13
36.531,174.34
36.546,166.98
36.562,148.11
36.578,121.7
36.593,93.15
36.609,67.46
36.625,47.96
36.640,35.37
36.656,27.84
36.671,22.58
36.687,16.96
36.703,9.5
36.718,0.26
36.734,-9.51
36.750,-18.07
36.765,-23.87
36.781,-26.01
36.796,-24.8
36.812,-21.21
36.828,-16.76
36.843,-13.3
36.859,-12.55
36.875,-15.49
36.890,-21.9
36.906,-30.66
36.921,-39.2
36.937,-45.4
36.953,-48.31
36.968,-48.33
36.984,-47.15
37.000,-46.95
37.015,-48.94
37.031,-52.86
37.046,-57.29
37.062,-60.98
37.078,-64.04
37.093,-67.95
37.109,-74.65
37.125,-85.46
37.140,-101.13
37.156,-120.64
37.171,-141.45
37.187,-160.28
37.203,-174.23
37.218,-181.46
37.234,-180.74
37.250,-170.66
37.265,-149.9
37.281,-119.53
37.296,-81.14
37.312,-36.08
37.328,14.95
37.343,71.22
37.359,131.25
37.375,192.84
37.390,253.89
37.406,312.07
37.421,362.02
37.437,399.08
37.453,420.75
37.468,426.8
37.484,417.05
37.500,390.36
37.515,345.42
37.531,282.62
37.546,204.37
37.562,111.24
37.578,6.23
37.593,-104.1
37.609,-211.07
37.625,-307.36
37.640,-389.31
37.656,-456.33
37.671,-508.75
37.687,-526.42
37.703,-498.22
37.718,-431.55
37.734,-348.09
37.750,-266.65
37.765,-194.86
37.781,-132.74
37.796,-77.94
37.812,-28.75
37.828,18.57
37.843,60.82
37.859,94.01
37.875,116.99
37.890,132.08
37.906,142.63
37.921,151.52
37.937,153.83
37.953,148.32
37.968,135.69
37.984,115.26
38.000,88.25
38.015,58.59
38.031,31.43
38.046,10.4
38.062,-3.57
38.078,-11.26
38.093,-12.65
38.109,-7.52
38.125,2.41
38.140,15.4
38.156,30.18
38.171,45.67
38.187,60.18
38.203,72.21
38.218,80.83
38.234,86.69
38.250,90.45
38.265,91.7
38.281,90.1
38.296,85.96
38.312,80.19
38.328,73.65
38.343,67.86
38.359,63.8
38.375,61.57
38.390,59.4
38.406,54.6
38.421,45.54
38.437,32.72
38.453,18.48
38.468,5.42
38.484,-3.26
38.500,-6.64
38.515,-6.95
38.531,-9.14
38.546,-17.57
38.562,-33.28
38.578,-53.23
38.593,-71.84
38.609,-83.56
38.625,-82.82
38.640,-66.86
38.656,-36.81
38.671,3.08
38.687,48.38
38.703,96.39
38.718,146.43
38.734,198.59
38.750,239.38
38.765,255.1
38.781,241.54
38.796,206.92
38.812,162.83
38.828,116.88
38.843,71.95
38.859,28.17
38.875,-14.95
38.890,-57.38
38.906,-95.46
38.921,-123.54
38.937,-136.64
38.953,-132.73
38.968,-113.99
38.984,-87.59
39.000,-64.31
39.015,-55.73
39.031,-69.2
39.046,-103.18
39.062,-145.95
39.078,-182.32
39.093,-198.87
39.109,-188.82
39.125,-154.92
39.140,-107.8
39.156,-61.66
39.171,-29.05
39.187,-15.96
39.203,-21.56
39.218,-40.64
39.234,-66.73
39.250,-90.59
39.265,-105.13
39.281,-107.28
39.296,-97.46
39.312,-78.17
39.328,-51.8
39.343,-20.04
39.359,15.61
39.375,52.93
39.390,89.01
39.406,120.36
39.421,144.31
39.437,160.31
39.453,171.47
39.468,180.93
39.484,190.53
39.500,200.02
39.515,206.78
39.531,206.88
39.546,196.28
39.562,173.03
39.578,137.96
39.593,93.25
39.609,46.36
39.625,3.66
39.640,-31.03
39.656,-56.62
39.671,-74.32
39.687,-86.72
39.703,-96.33
39.718,-104.26
39.734,-110.42
39.750,-113.77
39.765,-113.62
39.781,-109.88
39.796,-103.54
39.812,-96.39
39.828,-90.62
39.843,-88.01
39.859,-88.65
39.875,-91.4
39.890,-94.14
39.906,-95.41
39.921,-94.27
39.937,-90.97
39.953,-86.62
39.968,-82.68
39.984,-80.52
40.000,-81.07
40.015,-84.84
40.031,-91.35
40.046,-99.2
40.062,-105.27
40.078,-105.09
40.093,-94.62
40.109,-72.3
40.125,-40.76
40.140,-6.45
40.156,22.63
40.171,40.5
40.187,45.08
40.203,38.85
40.218,26.84
40.234,13.9
40.250,2.69
40.265,-6.58
40.281,-15.0
40.296,-23.47
40.312,-30.39
40.328,-33.37
40.343,-30.07
40.359,-19.84
40.375,-4.08
40.390,14.08
40.406,30.88
40.421,43.47
40.437,50.69
40.453,53.35
40.468,53.56
40.484,53.88
40.500,56.09
40.515,60.64
40.531,67.15
40.546,75.05
40.562,83.79
40.578,92.28
40.593,98.49
40.609,99.64
40.625,92.33
40.640,76.43
40.656,54.45
40.671,30.89
40.687,10.59
40.703,-3.27
40.718,-10.5
40.734,-13.19
40.750,-14.27
40.765,-15.61
40.781,-17.68
40.796,-20.3
40.812,-23.76
40.828,-29.11
40.843,-37.85
40.859,-51.46
40.875,-70.14
40.890,-92.46
40.906,-114.88
40.921,-132.07
40.937,-138.31
40.953,-129.66
40.968,-105.3
40.984,-69.06
41.000,-28.66
41.015,7.1
41.031,31.48
41.046,42.05
41.062,40.97
41.078,33.03
41.093,22.53
41.109,12.03
41.125,1.47
41.140,-10.61
41.156,-24.58
41.171,-38.99
41.187,-50.99
41.203,-57.88
41.218,-58.35
41.234,-53.7
41.250,-46.38
41.265,-39.48
41.281,-35.46
41.296,-34.7
41.312,-35.71
41.328,-35.52
41.343,-30.85
41.359,-18.47
41.375,-0.45
41.390,21.92
41.406,46.8
41.421,71.47
41.437,92.79
41.453,107.33
41.468,112.84
41.484,109.31
41.500,99.21
41.515,86.49
41.531,75.66
41.546,69.12
41.562,66.72
41.578,66.86
41.593,67.43
41.609,67.0
41.625,65.16
41.640,61.9
41.656,57.32
41.671,52.8
41.687,50.54
41.703,52.78
41.718,60.7
41.734,72.42
41.750,83.75
41.765,90.73
41.781,92.18
41.796,90.72
41.812,91.8
41.828,100.19
41.843,116.99
41.859,139.26
41.875,161.27
41.890,178.68
41.906,190.68
41.921,198.99
41.937,205.44
41.953,209.78
41.968,208.82
41.984,197.93
42.000,172.91
42.015,130.53
42.031,71.51
42.046,0.68
42.062,-74.6
42.078,-146.43
42.093,-208.48
42.109,-257.6
42.125,-292.31
42.140,-309.65
42.156,-310.81
42.171,-299.94
42.187,-282.72
42.203,-263.78
42.218,-245.81
42.234,-229.31
42.250,-212.3
42.265,-190.61
42.281,-158.31
42.296,-113.62
42.312,-57.21
42.328,5.96
42.343,68.26
42.359,122.05
42.375,162.96
42.390,191.22
42.406,210.34
42.421,230.4
42.437,250.42
42.453,268.93
42.468,283.44
42.484,291.95
42.500,293.18
42.515,286.5
42.531,271.34
42.546,239.84
42.562,196.08
42.578,143.01
42.593,86.09
42.609,33.7
42.625,-9.26
42.640,-37.16
42.656,-45.92
42.671,-35.81
42.687,-12.81
42.703,14.61
42.718,34.5
42.734,39.96
42.750,29.57
42.765,7.02
42.781,-22.47
42.796,-55.3
42.812,-92.11
42.828,-133.34
42.843,-177.97
42.859,-234.76
42.875,-309.33
42.890,-406.41
42.906,-520.71
42.921,-645.81
42.937,-772.38
42.953,-888.19
42.968,-979.18
42.984,-1028.59
43.000,-1026.5
43.015,-971.61
43.031,-872.99
43.046,-745.42
43.062,-604.72
43.078,-463.03
43.093,-327.33
43.109,-200.35
43.125,-77.4
43.140,43.91
43.156,162.79
43.171,275.15
43.187,377.11
43.203,466.69
43.218,544.22
43.234,610.7
43.250,666.78
43.265,719.31
43.281,771.85
43.296,823.32
43.312,868.78
43.328,903.82
43.343,926.87
43.359,939.19
43.375,943.16
43.390,895.93
43.406,778.23
43.421,601.64
43.437,401.91
43.453,213.2
43.468,52.73
43.484,-77.55
43.500,-183.13
43.515,-270.75
43.531,-346.21
43.546,-407.1
43.562,-451.91
43.578,-483.0
43.593,-506.91
43.609,-529.0
43.625,-550.64
43.640,-570.42
43.656,-585.82
43.671,-593.64
43.687,-586.56
43.703,-560.22
43.718,-515.96
43.734,-459.53
43.750,-396.52
43.765,-329.53
43.781,-257.73
43.796,-183.33
43.812,-108.82
43.828,-34.01
43.843,40.29
43.859,110.76
43.875,172.84
43.890,223.21
43.906,260.76
43.921,287.01
43.937,304.44
43.953,315.94
43.968,325.33
43.984,335.02
44.000,345.1
44.015,354.86
44.031,363.89
44.046,372.41
44.062,381.65
44.078,393.36
44.093,409.93
44.109,434.57
44.125,469.52
44.140,514.28
44.156,564.87
44.171,614.03
44.187,652.07
44.203,671.06
44.218,667.89
44.234,645.13
44.250,609.41
44.265,568.24
44.281,527.39
44.296,489.34
44.312,453.12
44.328,414.01
44.343,367.73
44.359,312.72
44.375,250.37
44.390,183.47
44.406,114.49
44.421,45.69
44.437,-19.97
44.453,-79.29
44.468,-132.08
44.484,-177.74
44.500,-215.39
44.515,-244.1
44.531,-264.47
44.546,-279.06
44.562,-291.06
44.578,-302.28
44.593,-314.2
44.609,-332.1
44.625,-358.94
44.640,-394.3
44.656,-434.16
44.671,-473.71
44.687,-509.97
44.703,-542.61
44.718,-572.39
44.734,-602.22
44.750,-640.31
44.765,-690.27
44.781,-748.58
44.796,-806.14
44.812,-854.41
44.828,-889.86
44.843,-914.51
44.859,-932.02
44.875,-902.78
44.890,-801.99
44.906,-631.65
44.921,-422.56
44.937,-212.53
44.953,-26.64
44.968,125.97
44.984,239.89
45.000,329.33
45.015,402.7
45.031,456.53
45.046,486.25
45.062,490.52
45.078,473.12
45.093,437.38
45.109,385.78
45.125,327.24
45.140,277.33
45.156,249.28
45.171,243.73
45.187,253.06
45.203,266.37
45.218,275.77
45.234,278.43
45.250,275.25
45.265,267.89
45.281,256.62
45.296,237.76
45.312,203.9
45.328,152.1
45.343,86.95
45.359,17.27
45.375,-44.52
45.390,-88.77
45.406,-111.69
45.421,-114.93
45.437,-104.35
45.453,-88.22
45.468,-71.84
45.484,-57.25
45.500,-43.51
45.515,-28.71
45.531,-12.61
45.546,3.68
45.562,17.95
45.578,27.35
45.593,27.3
45.609,19.9
45.625,7.2
45.640,-7.04
45.656,-18.33
45.671,-23.45
45.687,-20.53
45.703,-9.97
45.718,6.98
45.734,25.82
45.750,42.51
45.765,54.14
45.781,59.8
45.796,59.41
45.812,52.48
45.828,38.92
45.843,17.67
45.859,-11.03
45.875,-48.82
45.890,-95.37
45.906,-147.97
45.921,-201.22
45.937,-249.61
45.953,-289.56
45.968,-318.48
45.984,-336.58
46.000,-321.37
46.015,-260.7
46.031,-159.45
46.046,-38.17
46.062,81.4
46.078,186.33
46.093,267.07
46.109,331.41
46.125,384.68
46.140,429.47
46.156,463.23
46.171,484.15
46.187,492.5
46.203,492.78
46.218,491.19
46.234,492.05
46.250,497.44
46.265,504.82
46.281,510.38
46.296,508.07
46.312,494.02
46.328,468.04
46.343,432.94
46.359,391.69
46.375,345.27
46.390,293.65
46.406,235.42
46.421,170.63
46.437,99.6
46.453,23.99
46.468,-53.53
46.484,-130.03
46.500,-203.76
46.515,-274.66
46.531,-343.32
46.546,-411.18
46.562,-478.48
46.578,-544.89
46.593,-609.69
46.609,-672.13
46.625,-731.29
46.640,-786.32
46.656,-836.2
46.671,-878.84
46.687,-912.08
46.703,-933.61
46.718,-941.66
46.734,-935.61
46.750,-916.02
46.765,-884.0
46.781,-840.9
46.796,-788.62
46.812,-729.52
46.828,-666.72
46.843,-603.62
46.859,-543.09
46.875,-486.5
46.890,-433.72
46.906,-383.07
46.921,-331.65
46.937,-276.36
46.953,-214.41
46.968,-143.42
46.984,-61.56
47.000,31.57
47.015,134.16
47.031,241.42
47.046,345.91
47.062,439.29
47.078,514.05
47.093,565.96
47.109,595.36
47.125,606.8
47.140,606.67
47.156,600.02
47.171,589.24
47.187,574.16
47.203,554.05
47.218,528.18
47.234,497.41
47.250,464.69
47.265,434.05
47.281,408.66
47.296,389.39
47.312,375.13
47.328,363.94
47.343,354.14
47.359,342.54
47.375,324.9
47.390,296.46
47.406,253.81
47.421,195.75
47.437,124.07
47.453,44.01
47.468,-39.04
47.484,-111.16
47.500,-159.07
47.515,-178.99
47.531,-177.03
47.546,-159.99
47.562,-129.12
47.578,-81.05
47.593,-13.45
47.609,69.39
47.625,154.65
47.640,224.3
47.656,267.71
47.671,278.22
47.687,257.68
47.703,215.87
47.718,165.85
47.734,120.23
47.750,87.97
47.765,72.12
47.781,71.32
47.796,77.94
47.812,84.85
47.828,85.64
47.843,77.54
47.859,61.59
47.875,41.34
47.890,18.81
47.906,-8.48
47.921,-45.1
47.937,-95.16
47.953,-157.29
47.968,-223.74
47.984,-282.88
48.000,-324.05
48.015,-340.65
48.031,-320.35
48.046,-267.34
48.062,-194.41
48.078,-115.01
48.093,-38.33
48.109,31.87
48.125,94.48
48.140,147.96
48.156,192.43
48.171,226.02
48.187,246.3
48.203,254.53
48.218,256.22
48.234,258.55
48.250,267.29
48.265,283.69
48.281,298.95
48.296,304.05
48.312,291.6
48.328,258.47
48.343,207.63
48.359,147.14
48.375,82.16
48.390,17.24
48.406,-44.57
48.421,-101.94
48.437,-153.61
48.453,-200.53
48.468,-235.77
48.484,-257.41
48.500,-266.89
48.515,-268.76
48.531,-268.82
48.546,-272.52
48.562,-282.68
48.578,-296.96
48.593,-309.38
48.609,-312.84
48.625,-302.91
48.640,-278.58
48.656,-242.46
48.671,-199.14
48.687,-153.61
48.703,-109.9
48.718,-69.92
48.734,-34.34
48.750,-2.76
48.765,25.29
48.781,51.32
48.796,77.59
48.812,105.99
48.828,136.41
48.843,165.99
48.859,190.27
48.875,205.17
48.890,209.54
48.906,205.54
48.921,197.84
48.937,191.32
48.953,188.33
48.968,187.47
48.984,184.37
49.000,174.03
49.015,153.21
49.031,122.01
49.046,83.61
49.062,43.51
49.078,8.0
49.093,-17.14
49.109,-27.86
49.125,-22.46
49.140,-2.42
49.156,27.76
49.171,60.94
49.187,88.87
49.203,104.18
49.218,101.98
49.234,80.38
49.250,40.39
49.265,-14.4
49.281,-77.92
49.296,-141.79
49.312,-196.54
49.328,-233.13
49.343,-245.46
49.359,-232.73
49.375,-200.31
49.390,-158.68
49.406,-120.5
49.421,-97.23
49.437,-95.98
49.453,-117.54
49.468,-156.18
49.484,-201.1
49.500,-240.66
49.515,-267.19
49.531,-280.69
49.546,-288.66
49.562,-302.18
49.578,-330.0
49.593,-373.38
49.609,-424.89
49.625,-470.59
49.640,-497.38
49.656,-498.58
49.671,-476.26
49.687,-438.1
49.703,-392.3
49.718,-343.86
49.734,-293.96
49.750,-242.17
49.765,-187.51
49.781,-131.29
49.796,-76.97
49.812,-28.81
49.828,11.15
49.843,44.35
49.859,74.97
49.875,107.69
49.890,145.41
49.906,190.41
49.921,242.27
49.937,297.93
49.953,352.33
49.968,400.96
49.984,441.38
50.000,473.29
50.015,497.53
50.031,502.07
50.046,476.82
50.062,420.27
50.078,341.93
50.093,255.2
50.109,170.29
50.125,92.6
50.140,24.2
50.156,-34.39
50.171,-83.7
50.187,-122.87
50.203,-152.4
50.218,-173.77
50.234,-189.71
50.250,-203.19
50.265,-215.98
50.281,-228.44
50.296,-239.94
50.312,-249.72
50.328,-255.45
50.343,-255.05
50.359,-247.4
50.375,-233.25
50.390,-214.77
50.406,-194.05
50.421,-172.57
50.437,-151.22
50.453,-130.77
50.468,-110.73
50.484,-90.62
50.500,-70.43
50.515,-51.09
50.531,-33.9
50.546,-19.8
50.562,-9.13
50.578,-1.77
50.593,2.61
50.609,5.02
50.625,6.43
50.640,7.68
50.656,9.0
50.671,10.36
50.687,11.74
50.703,13.25
50.718,14.94
50.734,16.83
50.750,19.23
50.765,22.46
50.781,26.97
50.796,32.99
50.812,40.65
50.828,49.87
50.843,60.43
50.859,71.85
50.875,83.52
50.890,95.0
50.906,106.08
50.921,116.99
50.937,128.16
50.953,140.09
50.968,152.97
50.984,166.63
51.000,180.59
51.015,194.29
51.031,207.35
51.046,219.6
51.062,231.27
51.078,242.71
51.093,254.28
51.109,266.56
51.125,280.39
51.140,296.6
51.156,315.42
51.171,335.84
51.187,354.9
51.203,368.56
51.218,372.73
51.234,364.85
51.250,344.85
51.265,315.21
51.281,279.87
51.296,242.68
51.312,206.29
51.328,171.6
51.343,138.46
51.359,106.29
51.375,74.79
51.390,44.0
51.406,14.1
51.421,-14.76
51.437,-42.2
51.453,-66.92
51.468,-86.24
51.484,-96.04
51.500,-92.04
51.515,-71.45
51.531,-34.7
51.546,13.78
51.562,66.63
51.578,115.74
51.593,154.84
51.609,181.25
51.625,196.26
51.640,203.69
51.656,207.87
51.671,211.88
51.687,216.67
51.703,221.23
51.718,223.64
51.734,222.04
51.750,215.24
51.765,202.86
51.781,185.16
51.796,162.63
51.812,135.9
51.828,105.65
51.843,72.67
51.859,38.0
51.875,2.48
51.890,-33.37
51.906,-69.49
51.921,-105.79
51.937,-141.3
51.953,-173.47
51.968,-198.55
51.984,-212.56
52.000,-212.96
52.015,-200.01
52.031,-176.81
52.046,-148.21
52.062,-119.13
52.078,-93.07
52.093,-71.51
52.109,-54.67
52.125,-42.18
52.140,-33.82
52.156,-29.59
52.171,-29.1
52.187,-31.11
52.203,-33.49
52.218,-33.77
52.234,-29.86
52.250,-20.82
52.265,-7.06
52.281,9.93
52.296,27.99
52.312,45.12
52.328,60.19
52.343,73.24
52.359,85.51
52.375,98.81
52.390,114.65
52.406,133.23
52.421,152.92
52.437,170.38
52.453,181.47
52.468,182.68
52.484,172.18
52.500,150.59
52.515,120.59
52.531,86.23
52.546,51.88
52.562,21.44
52.578,-2.29
52.593,-17.81
52.609,-25.24
52.625,-26.24
52.640,-23.43
52.656,-19.65
52.671,-16.95
52.687,-16.05
52.703,-16.55
52.718,-17.71
52.734,-19.02
52.750,-20.47
52.765,-22.15
52.781,-23.54
52.796,-23.29
52.812,-19.86
52.828,-12.58
52.843,-2.36
52.859,8.42
52.875,17.26
52.890,22.65
52.906,24.47
52.921,23.54
52.937,20.77
52.953,16.59
52.968,11.06
52.984,4.64
53.000,-1.69
53.015,-6.76
53.031,-10.08
53.046,-12.37
53.062,-15.05
53.078,-19.15
53.093,-24.09
53.109,-27.97
53.125,-28.65
53.140,-25.52
53.156,-20.13
53.171,-15.48
53.187,-14.01
53.203,-15.92
53.218,-18.87
53.234,-19.33
53.250,-14.81
53.265,-5.27
53.281,6.6
53.296,16.94
53.312,22.69
53.328,22.78
53.343,18.38
53.359,11.69
53.375,4.93
53.390,-0.44
53.406,-3.89
53.421,-5.55
53.437,-5.98
53.453,-5.83
53.468,-6.02
53.484,-7.13
53.500,-9.58
53.515,-13.19
53.531,-17.31
53.546,-21.2
53.562,-24.23
53.578,-26.26
53.593,-27.22
53.609,-27.1
53.625,-25.47
53.640,-21.93
53.656,-16.11
53.671,-8.17
53.687,1.19
53.703,11.04
53.718,20.5
53.734,28.99
53.750,36.19
53.765,42.2
53.781,47.02
53.796,50.62
53.812,52.84
53.828,53.38
53.843,51.93
53.859,48.24
53.875,42.34
53.890,34.47
53.906,25.25
53.921,15.46
53.937,5.79
53.953,-3.17
53.968,-11.31
53.984,-18.82
54.000,-26.24
54.015,-34.34
54.031,-43.75
54.046,-54.9
54.062,-67.62
54.078,-81.51
54.093,-95.97
54.109,-110.68
54.125,-125.64
54.140,-141.16
54.156,-157.52
54.171,-174.72
54.187,-192.59
54.203,-211.02
54.218,-230.4
54.234,-251.48
54.250,-274.85
54.265,-299.73
54.281,-323.67
54.296,-343.23
54.312,-355.71
54.328,-360.79
54.343,-360.87
54.359,-359.73
54.375,-360.26
54.390,-363.29
54.406,-367.87
54.421,-372.88
54.437,-378.67
54.453,-387.01
54.468,-399.24
54.484,-414.28
54.500,-427.96
54.515,-434.44
54.531,-429.37
54.546,-412.35
54.562,-387.22
54.578,-359.93
54.593,-335.7
54.609,-317.05
54.625,-303.99
54.640,-295.23
54.656,-289.6
54.671,-286.69
54.687,-286.06
54.703,-286.81
54.718,-287.31
54.734,-286.07
54.750,-282.57
54.765,-277.73
54.781,-273.27
54.796,-270.12
54.812,-267.59
54.828,-263.12
54.843,-253.54
54.859,-236.73
54.875,-212.79
54.890,-183.94
54.906,-153.53
54.921,-124.53
54.937,-98.51
54.953,-75.57
54.968,-55.07
54.984,-36.35
55.000,-19.38
55.015,-4.44
55.031,8.34
55.046,19.25
55.062,29.14
55.078,38.76
55.093,48.5
55.109,58.17
55.125,66.94
55.140,73.85
55.156,78.2
55.171,79.79
55.187,79.02
55.203,76.75
55.218,73.95
55.234,71.35
55.250,69.32
55.265,67.92
55.281,66.99
55.296,66.44
55.312,66.39
55.328,67.12
55.343,68.96
55.359,72.17
55.375,76.76
55.390,82.3
55.406,88.29
55.421,94.2
55.437,99.65
55.453,104.54
55.468,109.07
55.484,113.6
55.500,118.39
55.515,123.48
55.531,128.67
55.546,133.58
55.562,138.13
55.578,142.72
55.593,148.26
55.609,155.77
55.625,165.65
55.640,177.11
55.656,188.12
55.671,196.01
55.687,198.09
55.703,192.48
55.718,178.54
55.734,156.96
55.750,130.05
55.765,101.26
55.781,74.81
55.796,54.73
55.812,43.63
55.828,41.96
55.843,47.9
55.859,58.2
55.875,69.64
55.890,80.22
55.906,89.81
55.921,99.61
55.937,111.38
55.953,126.25
55.968,144.36
55.984,164.66
56.000,185.0
56.015,202.59
56.031,214.5
56.046,218.47
56.062,213.45
56.078,200.32
56.093,181.64
56.109,160.95
56.125,141.51
56.140,125.23
56.156,112.48
56.171,102.65
56.187,95.06
56.203,89.96
56.218,88.79
56.234,93.56
56.250,105.82
56.265,125.53
56.281,150.36
56.296,176.31
56.312,198.84
56.328,214.56
56.343,222.16
56.359,222.51
56.375,217.82
56.390,210.47
56.406,202.24
56.421,194.13
56.437,186.91
56.453,181.4
56.468,178.57
56.484,179.16
56.500,183.1
56.515,188.98
56.531,194.76
56.546,198.34
56.562,198.61
56.578,195.72
56.593,190.76
56.609,185.17
56.625,179.84
56.640,175.08
56.656,170.62
56.671,166.08
56.687,161.04
56.703,155.23
56.718,148.32
56.734,139.81
56.750,129.21
56.765,116.18
56.781,100.87
56.796,83.98
56.812,66.4
56.828,48.86
56.843,31.66
56.859,14.61
56.875,-2.68
56.890,-20.17
56.906,-37.34
56.921,-53.23
56.937,-66.69
56.953,-76.92
56.968,-83.74
56.984,-87.51
57.000,-89.04
57.015,-89.45
57.031,-89.52
57.046,-89.51
57.062,-89.27
57.078,-88.14
57.093,-85.56
57.109,-81.34
57.125,-75.83
57.140,-69.89
57.156,-64.55
57.171,-60.48
57.187,-57.88
57.203,-56.55
57.218,-56.15
57.234,-56.41
57.250,-57.15
57.265,-58.18
57.281,-59.17
57.296,-59.76
57.312,-59.51
57.328,-58.1
57.343,-55.31
57.359,-50.93
57.375,-44.64
57.390,-36.23
57.406,-25.62
57.421,-13.32
57.437,-0.23
57.453,12.53
57.468,23.67
57.484,32.32
57.500,38.1
57.515,41.41
57.531,43.24
57.546,44.9
57.562,47.55
57.578,51.57
57.593,56.66
57.609,61.71
57.625,65.47
57.640,66.91
57.656,65.5
57.671,61.13
57.687,53.99
57.703,44.56
57.718,33.38
57.734,21.02
57.750,7.75
57.765,-6.6
57.781,-22.57
57.796,-40.61
57.812,-60.44
57.828,-80.72
57.843,-99.23
57.859,-113.82
57.875,-123.17
57.890,-127.62
57.906,-128.66
57.921,-128.32
57.937,-128.16
57.953,-128.92
57.968,-130.6
57.984,-132.63
58.000,-134.31
58.015,-134.68
58.031,-132.65
58.046,-127.03
58.062,-116.98
58.078,-102.66
58.093,-85.52
58.109,-67.83
58.125,-51.81
58.140,-38.53
58.156,-27.58
58.171,-17.58
58.187,-7.16
58.203,4.14
58.218,15.66
58.234,26.23
58.250,35.02
58.265,42.02
58.281,47.7
58.296,52.46
58.312,56.0
58.328,57.29
58.343,55.12
58.359,49.07
58.375,39.87
58.390,28.98
58.406,17.95
58.421,7.69
58.437,-1.75
58.453,-10.69
58.468,-19.27
58.484,-27.15
58.500,-33.49
58.515,-37.11
58.531,-37.2
58.546,-33.59
58.562,-26.68
58.578,-17.32
58.593,-6.41
58.609,5.4
58.625,17.54
58.640,29.65
58.656,41.54
58.671,53.02
58.687,64.01
58.703,74.68
58.718,85.37
58.734,96.41
58.750,107.64
58.765,117.93
58.781,125.17
58.796,126.74
58.812,120.49
58.828,105.54
58.843,82.66
58.859,54.17
58.875,23.18
58.890,-7.08
58.906,-34.03
58.921,-55.97
58.937,-72.19
58.953,-83.02
58.968,-89.78
58.984,-94.63
59.000,-99.6
59.015,-105.63
59.031,-111.5
59.046,-114.14
59.062,-109.97
59.078,-96.69
59.093,-74.8
59.109,-47.51
59.125,-19.61
59.140,4.9
59.156,24.45
59.171,40.02
59.187,54.0
59.203,68.59
59.218,84.65
59.234,101.94
59.250,120.1
59.265,139.27
59.281,160.18
59.296,183.1
59.312,206.95
59.328,228.82
59.343,244.72
59.359,250.91
59.375,245.37
59.390,228.63
59.406,203.31
59.421,172.89
59.437,140.35
59.453,107.17
59.468,73.45
59.484,38.29
59.500,1.0
59.515,-38.36
59.531,-78.47
59.546,-116.95
59.562,-151.14
59.578,-178.91
59.593,-199.28
59.609,-212.16
59.625,-218.07
59.640,-217.39
59.656,-210.17
59.671,-196.38
59.687,-176.57
59.703,-152.19
59.718,-125.78
59.734,-100.32
59.750,-78.27
59.765,-60.96
59.781,-48.45
59.796,-39.94
59.812,-34.68
59.828,-32.5
59.843,-33.62
59.859,-38.14
59.875,-45.36
59.890,-53.57
59.906,-60.56
59.921,-64.64
59.937,-65.15
59.953,-62.77
59.968,-59.15
59.984,-56.15
