timestamp,value
00.000,7.64
00.015,4.86
00.031,1.19
00.046,-3.39
00.062,-8.67
00.078,-14.32
00.093,-19.89
00.109,-24.88
00.125,-29.07
00.140,-32.47
00.156,-35.43
00.171,-38.39
00.187,-41.86
00.203,-46.05
00.218,-50.77
00.234,-55.57
00.250,-59.57
00.265,-61.78
00.281,-61.37
00.296,-57.81
00.312,-51.21
00.328,-42.23
00.343,-31.83
00.359,-21.08
00.375,-10.82
00.390,-1.68
00.406,5.93
00.421,11.62
00.437,15.22
00.453,16.58
00.468,15.66
00.484,12.79
00.500,8.41
00.515,3.2
00.531,-2.05
00.546,-6.7
00.562,-10.39
00.578,-12.95
00.593,-14.54
00.609,-15.54
00.625,-16.28
00.640,-17.08
00.656,-18.12
00.671,-19.46
00.687,-21.25
00.703,-23.69
00.718,-27.02
00.734,-31.23
00.750,-36.26
00.765,-41.72
00.781,-47.19
00.796,-52.13
00.812,-55.98
00.828,-58.49
00.843,-59.59
00.859,-59.6
00.875,-58.85
00.890,-57.72
00.906,-56.19
00.921,-54.01
00.937,-50.47
00.953,-44.52
00.968,-35.1
00.984,-21.35
01.000,-3.04
01.015,19.39
01.031,44.75
01.046,71.52
01.062,97.98
01.078,122.64
01.093,144.51
01.109,163.02
01.125,178.04
01.140,189.49
01.156,197.1
01.171,200.38
01.187,198.84
01.203,192.21
01.218,180.75
01.234,165.26
01.250,146.77
01.265,126.21
01.281,104.16
01.296,80.69
01.312,55.7
01.328,29.27
01.343,1.62
01.359,-26.66
01.375,-55.03
01.390,-82.92
01.406,-109.75
01.421,-134.89
01.437,-157.7
01.453,-177.69
01.468,-194.5
01.484,-208.04
01.500,-218.31
01.515,-225.62
01.531,-230.36
01.546,-233.0
01.562,-233.92
01.578,-233.19
01.593,-230.37
01.609,-224.66
01.625,-215.21
01.640,-201.51
01.656,-183.53
01.671,-161.6
01.687,-136.14
01.703,-107.59
01.718,-76.51
01.734,-43.72
01.750,-10.49
01.765,21.74
01.781,51.6
01.796,78.0
01.812,100.35
01.828,118.45
01.843,132.06
01.859,141.01
01.875,144.95
01.890,143.41
01.906,136.04
01.921,122.91
01.937,104.73
01.953,82.94
01.968,59.52
01.984,36.52
02.000,15.77
02.015,-1.7
02.031,-15.51
02.046,-25.86
02.062,-33.19
02.078,-37.98
02.093,-40.51
02.109,-41.08
02.125,-39.71
02.140,-36.37
02.156,-31.03
02.171,-23.64
02.187,-14.38
02.203,-3.66
02.218,7.65
02.234,18.49
02.250,27.4
02.265,33.07
02.281,34.78
02.296,32.36
02.312,26.6
02.328,18.89
02.343,10.89
02.359,4.28
02.375,0.26
02.390,-0.79
02.406,0.71
02.421,3.73
02.437,6.94
02.453,9.15
02.468,9.47
02.484,7.46
02.500,3.19
02.515,-2.97
02.531,-10.47
02.546,-18.67
02.562,-27.01
02.578,-34.99
02.593,-42.05
02.609,-47.98
02.625,-52.35
02.640,-54.74
02.656,-54.66
02.671,-51.65
02.687,-45.41
02.703,-35.99
02.718,-23.96
02.734,-9.98
02.750,4.86
02.765,19.47
02.781,32.85
02.796,44.18
02.812,53.05
02.828,59.43
02.843,63.4
02.859,64.81
02.875,63.76
02.890,60.31
02.906,54.89
02.921,48.31
02.937,41.44
02.953,35.08
02.968,29.58
02.984,24.73
03.000,19.97
03.015,14.98
03.031,9.95
03.046,6.01
03.062,4.91
03.078,8.55
03.093,18.56
03.109,35.27
03.125,57.27
03.140,81.29
03.156,102.97
03.171,117.86
03.187,122.82
03.203,116.8
03.218,100.27
03.234,74.72
03.250,42.0
03.265,3.93
03.281,-37.14
03.296,-78.09
03.312,-115.19
03.328,-145.07
03.343,-166.05
03.359,-179.07
03.375,-186.74
03.390,-191.0
03.406,-191.7
03.421,-186.67
03.437,-173.81
03.453,-153.8
03.468,-131.07
03.484,-112.14
03.500,-102.04
03.515,-101.25
03.531,-105.15
03.546,-107.19
03.562,-102.47
03.578,-90.35
03.593,-73.76
03.609,-56.3
03.625,-39.47
03.640,-21.52
03.656,1.29
03.671,32.05
03.687,70.95
03.703,115.38
03.718,161.07
03.734,203.25
03.750,238.11
03.765,263.14
03.781,277.0
03.796,279.45
03.812,271.25
03.828,254.05
03.843,230.4
03.859,203.37
03.875,175.59
03.890,148.62
03.906,123.18
03.921,99.29
03.937,76.86
03.953,56.09
03.968,37.56
03.984,21.87
04.000,9.26
04.015,-0.39
04.031,-7.51
04.046,-12.34
04.062,-14.81
04.078,-14.84
04.093,-12.51
04.109,-8.44
04.125,-3.78
04.140,0.04
04.156,1.86
04.171,1.28
04.187,-1.56
04.203,-5.91
04.218,-10.9
04.234,-15.77
04.250,-20.09
04.265,-23.82
04.281,-27.27
04.296,-30.81
04.312,-34.8
04.328,-39.34
04.343,-44.33
04.359,-49.54
04.375,-54.55
04.390,-58.95
04.406,-62.22
04.421,-63.75
04.437,-62.76
04.453,-58.46
04.468,-50.35
04.484,-38.41
04.500,-23.38
04.515,-6.44
04.531,10.94
04.546,27.29
04.562,41.48
04.578,52.62
04.593,60.21
04.609,64.06
04.625,64.33
04.640,61.66
04.656,57.02
04.671,51.57
04.687,46.29
04.703,41.71
04.718,38.02
04.734,35.15
04.750,33.02
04.765,31.66
04.781,31.13
04.796,31.56
04.812,32.96
04.828,35.39
04.843,38.64
04.859,42.32
04.875,45.56
04.890,47.2
04.906,45.85
04.921,40.6
04.937,31.62
04.953,20.13
04.968,8.22
04.984,-2.09
05.000,-9.77
05.015,-15.02
05.031,-19.04
05.046,-23.29
05.062,-28.59
05.078,-34.69
05.093,-40.45
05.109,-44.22
05.125,-44.52
05.140,-40.59
05.156,-32.47
05.171,-21.04
05.187,-7.54
05.203,6.63
05.218,20.23
05.234,32.24
05.250,41.92
05.265,48.71
05.281,52.24
05.296,52.44
05.312,49.46
05.328,44.02
05.343,37.17
05.359,30.26
05.375,24.35
05.390,20.29
05.406,18.17
05.421,17.6
05.437,18.05
05.453,18.97
05.468,20.06
05.484,21.29
05.500,22.77
05.515,24.46
05.531,26.1
05.546,27.12
05.562,26.85
05.578,24.81
05.593,20.78
05.609,14.95
05.625,7.69
05.640,-0.37
05.656,-8.55
05.671,-16.39
05.687,-23.52
05.703,-29.67
05.718,-34.88
05.734,-39.26
05.750,-42.94
05.765,-46.01
05.781,-48.22
05.796,-49.07
05.812,-47.89
05.828,-44.11
05.843,-37.42
05.859,-27.99
05.875,-16.44
05.890,-3.62
05.906,9.42
05.921,21.63
05.937,32.05
05.953,39.92
05.968,44.73
05.984,46.32
06.000,44.89
06.015,40.97
06.031,35.35
06.046,28.8
06.062,22.1
06.078,15.91
06.093,10.67
06.109,6.63
06.125,3.92
06.140,2.41
06.156,1.81
06.171,1.92
06.187,2.24
06.203,2.53
06.218,2.62
06.234,2.35
06.250,1.61
06.265,0.32
06.281,-1.6
06.296,-4.22
06.312,-7.32
06.328,-10.83
06.343,-14.48
06.359,-18.09
06.375,-21.68
06.390,-25.39
06.406,-29.45
06.421,-33.97
06.437,-38.98
06.453,-44.04
06.468,-48.44
06.484,-51.2
06.500,-51.18
06.515,-47.51
06.531,-39.72
06.546,-28.14
06.562,-13.74
06.578,1.87
06.593,17.03
06.609,30.12
06.625,40.03
06.640,46.28
06.656,48.78
06.671,47.93
06.687,44.37
06.703,38.88
06.718,32.23
06.734,25.15
06.750,17.97
06.765,11.02
06.781,4.58
06.796,-1.17
06.812,-5.97
06.828,-9.61
06.843,-11.89
06.859,-12.83
06.875,-12.57
06.890,-11.54
06.906,-10.31
06.921,-9.33
06.937,-8.98
06.953,-9.44
06.968,-10.58
06.984,-12.18
07.000,-13.94
07.015,-15.75
07.031,-17.71
07.046,-20.14
07.062,-23.26
07.078,-27.21
07.093,-31.7
07.109,-36.05
07.125,-39.35
07.140,-40.46
07.156,-38.4
07.171,-32.65
07.187,-23.36
07.203,-11.35
07.218,1.92
07.234,14.86
07.250,26.13
07.265,34.82
07.281,40.61
07.296,43.78
07.312,44.83
07.328,44.34
07.343,42.59
07.359,39.7
07.375,35.79
07.390,31.3
07.406,26.7
07.421,22.57
07.437,19.53
07.453,17.85
07.468,17.7
07.484,18.76
07.500,20.65
07.515,23.06
07.531,26.04
07.546,29.32
07.562,32.58
07.578,35.46
07.593,37.4
07.609,37.85
07.625,35.85
07.640,30.53
07.656,21.67
07.671,10.11
07.687,-3.83
07.703,-19.97
07.718,-37.85
07.734,-56.35
07.750,-73.31
07.765,-86.66
07.781,-94.44
07.796,-94.5
07.812,-84.31
07.828,-63.85
07.843,-34.86
07.859,0.63
07.875,41.43
07.890,87.42
07.906,137.55
07.921,189.57
07.937,241.22
07.953,291.81
07.968,337.94
07.984,374.52
08.000,395.87
08.015,397.21
08.031,375.38
08.046,327.9
08.062,254.5
08.078,159.41
08.093,53.65
08.109,-52.47
08.125,-150.37
08.140,-234.13
08.156,-299.76
08.171,-336.78
08.187,-334.92
08.203,-296.35
08.218,-248.3
08.234,-201.86
08.250,-161.12
08.265,-124.43
08.281,-93.26
08.296,-68.52
08.312,-50.18
08.328,-38.8
08.343,-35.3
08.359,-39.02
08.375,-45.77
08.390,-53.71
08.406,-62.72
08.421,-73.95
08.437,-88.15
08.453,-105.5
08.468,-126.41
08.484,-150.48
08.500,-174.88
08.515,-193.06
08.531,-200.64
08.546,-196.11
08.562,-181.29
08.578,-159.8
08.593,-135.97
08.609,-114.23
08.625,-97.5
08.640,-86.2
08.656,-77.75
08.671,-70.44
08.687,-63.94
08.703,-58.9
08.718,-55.69
08.734,-53.87
08.750,-52.76
08.765,-51.3
08.781,-48.61
08.796,-43.55
08.812,-36.11
08.828,-27.04
08.843,-16.93
08.859,-5.69
08.875,7.44
08.890,23.02
08.906,41.39
08.921,62.19
08.937,84.95
08.953,108.78
08.968,132.68
08.984,155.9
09.000,178.0
09.015,199.16
09.031,219.8
09.046,240.59
09.062,261.94
09.078,283.71
09.093,305.03
09.109,324.68
09.125,341.43
09.140,354.6
09.156,363.96
09.171,369.51
09.187,371.04
09.203,367.73
09.218,358.34
09.234,341.83
09.250,317.82
09.265,286.99
09.281,250.62
09.296,209.95
09.312,166.04
09.328,119.57
09.343,71.45
09.359,22.9
09.375,-24.22
09.390,-67.98
09.406,-106.47
09.421,-138.63
09.437,-164.48
09.453,-184.73
09.468,-200.7
09.484,-213.56
09.500,-224.11
09.515,-232.6
09.531,-238.67
09.546,-241.71
09.562,-241.05
09.578,-236.35
09.593,-227.8
09.609,-216.26
09.625,-203.02
09.640,-189.47
09.656,-176.65
09.671,-165.08
09.687,-154.62
09.703,-144.79
09.718,-135.29
09.734,-126.21
09.750,-118.2
09.765,-112.04
09.781,-108.2
09.796,-106.35
09.812,-105.5
09.828,-104.22
09.843,-101.02
09.859,-94.86
09.875,-85.05
09.890,-71.49
09.906,-54.5
09.921,-34.86
09.937,-13.85
09.953,7.01
09.968,26.13
09.984,42.23
10.000,54.32
10.015,61.81
10.031,64.48
10.046,62.42
10.062,56.22
10.078,46.65
10.093,34.88
10.109,22.11
10.125,9.39
10.140,-2.55
10.156,-13.2
10.171,-22.26
10.187,-29.41
10.203,-34.23
10.218,-36.59
10.234,-36.58
10.250,-34.62
10.265,-31.38
10.281,-27.76
10.296,-24.5
10.312,-22.24
10.328,-21.3
10.343,-21.6
10.359,-22.96
10.375,-25.11
10.390,-27.84
10.406,-31.18
10.421,-35.4
10.437,-40.76
10.453,-47.43
10.468,-55.14
10.484,-63.02
10.500,-69.91
10.515,-74.37
10.531,-75.21
10.546,-71.89
10.562,-64.54
10.578,-54.0
10.593,-41.66
10.609,-28.91
10.625,-16.91
10.640,-6.48
10.656,1.97
10.671,8.27
10.687,12.31
10.703,14.17
10.718,13.97
10.734,11.87
10.750,8.14
10.765,3.23
10.781,-2.44
10.796,-8.33
10.812,-14.07
10.828,-19.35
10.843,-23.74
10.859,-26.62
10.875,-27.42
10.890,-25.7
10.906,-21.44
10.921,-15.23
10.937,-8.09
10.953,-1.27
10.968,4.15
10.984,7.56
11.000,8.95
11.015,8.57
11.031,6.92
11.046,4.51
11.062,1.69
11.078,-1.13
11.093,-3.75
11.109,-6.09
11.125,-8.3
11.140,-10.51
11.156,-12.9
11.171,-15.52
11.187,-18.3
11.203,-20.96
11.218,-23.03
11.234,-23.75
11.250,-22.33
11.265,-18.18
11.281,-11.02
11.296,-1.11
11.312,10.9
11.328,24.0
11.343,37.14
11.359,49.36
11.375,59.85
11.390,67.92
11.406,73.06
11.421,74.91
11.437,73.4
11.453,68.92
11.468,62.29
11.484,54.44
11.500,46.4
11.515,38.85
11.531,32.03
11.546,25.86
11.562,19.89
11.578,13.72
11.593,7.18
11.609,0.49
11.625,-5.87
11.640,-11.39
11.656,-15.77
11.671,-19.0
11.687,-21.2
11.703,-22.53
11.718,-23.07
11.734,-22.8
11.750,-21.77
11.765,-20.14
11.781,-18.39
11.796,-16.95
11.812,-16.11
11.828,-15.87
11.843,-15.86
11.859,-15.76
11.875,-15.37
11.890,-14.72
11.906,-14.22
11.921,-14.42
11.937,-15.77
11.953,-18.71
11.968,-23.26
11.984,-29.21
12.000,-35.96
12.015,-42.61
12.031,-48.06
12.046,-51.18
12.062,-51.11
12.078,-47.35
12.093,-40.12
12.109,-30.09
12.125,-18.46
12.140,-6.58
12.156,4.34
12.171,13.31
12.187,19.71
12.203,23.3
12.218,24.1
12.234,22.27
12.250,18.15
12.265,12.22
12.281,5.09
12.296,-2.34
12.312,-9.11
12.328,-14.19
12.343,-16.79
12.359,-16.48
12.375,-13.48
12.390,-8.47
12.406,-2.68
12.421,2.5
12.437,6.08
12.453,7.46
12.468,6.84
12.484,4.83
12.500,2.26
12.515,-0.28
12.531,-2.33
12.546,-3.68
12.562,-4.27
12.578,-3.98
12.593,-2.89
12.609,-1.17
12.625,0.85
12.640,2.89
12.656,5.21
12.671,8.49
12.687,13.63
12.703,21.14
12.718,30.42
12.734,39.6
12.750,46.01
12.765,47.32
12.781,42.32
12.796,31.84
12.812,18.11
12.828,3.81
12.843,-8.93
12.859,-19.29
12.875,-27.49
12.890,-34.04
12.906,-39.06
12.921,-42.34
12.937,-43.41
12.953,-42.37
12.968,-40.09
12.984,-38.01
13.000,-37.56
13.015,-39.46
13.031,-43.28
13.046,-47.62
13.062,-50.73
13.078,-51.14
13.093,-48.35
13.109,-43.01
13.125,-36.56
13.140,-30.66
13.156,-26.6
13.171,-24.7
13.187,-24.55
13.203,-25.29
13.218,-26.23
13.234,-26.95
13.250,-27.45
13.265,-27.74
13.281,-27.91
13.296,-28.02
13.312,-27.98
13.328,-27.74
13.343,-26.67
13.359,-23.82
13.375,-17.8
13.390,-7.37
13.406,7.81
13.421,26.74
13.437,46.98
13.453,65.53
13.468,79.55
13.484,87.31
13.500,88.33
13.515,82.93
13.531,71.86
13.546,55.78
13.562,35.35
13.578,11.37
13.593,-14.61
13.609,-40.24
13.625,-62.7
13.640,-79.25
13.656,-88.24
13.671,-89.39
13.687,-83.83
13.703,-73.34
13.718,-59.89
13.734,-44.81
13.750,-28.8
13.765,-12.32
13.781,3.84
13.796,18.36
13.812,29.74
13.828,37.08
13.843,40.84
13.859,42.62
13.875,44.57
13.890,48.36
13.906,54.32
13.921,61.35
13.937,67.38
13.953,70.23
13.968,68.45
13.984,61.65
14.000,50.32
14.015,35.33
14.031,17.53
14.046,-2.3
14.062,-23.2
14.078,-43.86
14.093,-62.7
14.109,-78.01
14.125,-88.28
14.140,-92.63
14.156,-90.99
14.171,-84.19
14.187,-73.77
14.203,-61.56
14.218,-49.21
14.234,-37.9
14.250,-28.18
14.265,-19.64
14.281,-11.5
14.296,-2.87
14.312,6.75
14.328,17.38
14.343,28.64
14.359,39.98
14.375,51.01
14.390,61.25
14.406,70.4
14.421,78.05
14.437,84.02
14.453,88.35
14.468,91.54
14.484,94.29
14.500,97.34
14.515,101.05
14.531,105.13
14.546,108.87
14.562,111.31
14.578,111.55
14.593,109.04
14.609,103.49
14.625,94.83
14.640,83.21
14.656,68.93
14.671,52.54
14.687,34.93
14.703,17.05
14.718,-0.32
14.734,-16.51
14.750,-31.35
14.765,-44.63
14.781,-56.05
14.796,-64.93
14.812,-70.23
14.828,-70.72
14.843,-65.37
14.859,-53.92
14.875,-36.83
14.890,-15.45
14.906,8.36
14.921,32.61
14.937,55.62
14.953,75.97
14.968,92.84
14.984,105.9
15.000,115.25
15.015,121.4
15.031,125.06
15.046,126.96
15.062,127.67
15.078,127.43
15.093,125.95
15.109,122.75
15.125,117.22
15.140,109.08
15.156,98.65
15.171,86.8
15.187,74.88
15.203,64.32
15.218,56.3
15.234,51.5
15.250,50.0
15.265,51.46
15.281,55.3
15.296,60.72
15.312,66.75
15.328,72.24
15.343,76.01
15.359,76.88
15.375,74.12
15.390,67.55
15.406,57.62
15.421,45.32
15.437,31.84
15.453,18.25
15.468,5.23
15.484,-6.78
15.500,-17.53
15.515,-27.05
15.531,-35.37
15.546,-42.59
15.562,-48.89
15.578,-54.38
15.593,-59.07
15.609,-63.14
15.625,-66.79
15.640,-70.33
15.656,-74.14
15.671,-78.57
15.687,-83.78
15.703,-89.83
15.718,-96.61
15.734,-103.76
15.750,-110.99
15.765,-118.15
15.781,-125.13
15.796,-132.01
15.812,-138.87
15.828,-145.75
15.843,-152.49
15.859,-158.73
15.875,-163.66
15.890,-165.87
15.906,-163.9
15.921,-156.32
15.937,-142.54
15.953,-122.59
15.968,-97.55
15.984,-69.14
16.000,-39.42
16.015,-10.39
16.031,16.27
16.046,39.27
16.062,57.87
16.078,71.57
16.093,80.45
16.109,85.13
16.125,86.58
16.140,85.82
16.156,83.59
16.171,80.53
16.187,76.9
16.203,72.78
16.218,68.09
16.234,62.98
16.250,57.95
16.265,53.48
16.281,49.76
16.296,46.35
16.312,42.94
16.328,38.97
16.343,33.68
16.359,26.19
16.375,16.07
16.390,3.69
16.406,-10.41
16.421,-25.56
16.437,-41.56
16.453,-57.5
16.468,-72.97
16.484,-88.54
16.500,-105.88
16.515,-126.39
16.531,-150.47
16.546,-177.52
16.562,-206.13
16.578,-234.33
16.593,-258.1
16.609,-273.87
16.625,-279.73
16.640,-275.94
16.656,-263.49
16.671,-242.63
16.687,-212.56
16.703,-172.12
16.718,-120.74
16.734,-56.88
16.750,18.49
16.765,101.18
16.781,183.82
16.796,258.92
16.812,321.44
16.828,369.45
16.843,403.53
16.859,410.02
16.875,381.07
16.890,322.27
16.906,250.8
16.921,180.86
16.937,117.76
16.953,60.59
16.968,6.62
16.984,-45.97
17.000,-96.97
17.015,-141.43
17.031,-177.05
17.046,-198.71
17.062,-204.6
17.078,-196.72
17.093,-179.61
17.109,-158.7
17.125,-138.52
17.140,-121.41
17.156,-105.27
17.171,-86.76
17.187,-60.9
17.203,-24.47
17.218,21.11
17.234,72.49
17.250,125.67
17.265,176.74
17.281,221.19
17.296,255.35
17.312,263.71
17.328,235.93
17.343,174.36
17.359,95.07
17.375,18.58
17.390,-41.02
17.406,-79.03
17.421,-98.41
17.437,-104.43
17.453,-102.11
17.468,-92.25
17.484,-74.26
17.500,-48.86
17.515,-18.68
17.531,11.42
17.546,37.87
17.562,56.24
17.578,64.31
17.593,61.91
17.609,52.63
17.625,41.65
17.640,33.86
17.656,33.04
17.671,39.45
17.687,50.51
17.703,61.2
17.718,66.5
17.734,63.5
17.750,53.84
17.765,42.27
17.781,29.2
17.796,17.34
17.812,7.95
17.828,0.96
17.843,-4.65
17.859,-9.33
17.875,-12.57
17.890,-12.51
17.906,-7.51
17.921,2.64
17.937,17.49
17.953,35.24
17.968,53.71
17.984,70.63
18.000,83.78
18.015,90.52
18.031,88.4
18.046,75.84
18.062,52.65
18.078,21.19
18.093,-14.95
18.109,-51.73
18.125,-86.03
18.140,-115.93
18.156,-140.61
18.171,-159.72
18.187,-172.79
18.203,-179.2
18.218,-178.32
18.234,-170.59
18.250,-157.45
18.265,-141.19
18.281,-124.33
18.296,-109.05
18.312,-96.77
18.328,-87.81
18.343,-81.64
18.359,-77.03
18.375,-73.04
18.390,-69.28
18.406,-65.79
18.421,-62.71
18.437,-59.64
18.453,-55.57
18.468,-49.0
18.484,-38.63
18.500,-24.04
18.515,-6.15
18.531,12.97
18.546,31.18
18.562,46.91
18.578,59.73
18.593,70.34
18.609,80.01
18.625,89.76
18.640,100.02
18.656,110.26
18.671,119.33
18.687,126.0
18.703,129.36
18.718,128.78
18.734,123.87
18.750,114.63
18.765,101.53
18.781,86.01
18.796,70.05
18.812,55.7
18.828,44.26
18.843,35.97
18.859,30.06
18.875,25.35
18.890,21.06
18.906,17.23
18.921,14.64
18.937,14.2
18.953,16.34
18.968,20.69
18.984,26.35
19.000,32.26
19.015,37.61
19.031,41.92
19.046,44.97
19.062,46.79
19.078,47.33
19.093,46.62
19.109,44.64
19.125,41.47
19.140,37.36
19.156,32.86
19.171,28.58
19.187,25.19
19.203,23.17
19.218,22.77
19.234,23.95
19.250,26.4
19.265,29.74
19.281,33.68
19.296,38.16
19.312,43.26
19.328,49.14
19.343,55.74
19.359,62.81
19.375,69.6
19.390,75.11
19.406,78.34
19.421,78.59
19.437,75.62
19.453,69.69
19.468,61.48
19.484,51.7
19.500,41.05
19.515,29.81
19.531,18.0
19.546,5.52
19.562,-7.72
19.578,-21.67
19.593,-36.04
19.609,-50.31
19.625,-63.77
19.640,-75.36
19.656,-84.1
19.671,-89.06
19.687,-89.61
19.703,-85.66
19.718,-77.71
19.734,-66.78
19.750,-54.44
19.765,-42.3
19.781,-31.86
19.796,-24.18
19.812,-19.95
19.828,-19.19
19.843,-21.6
19.859,-26.51
19.875,-33.1
19.890,-40.71
19.906,-48.7
19.921,-56.59
19.937,-63.81
19.953,-70.08
19.968,-75.02
19.984,-78.47
20.000,-80.38
20.015,-80.71
20.031,-79.42
20.046,-76.38
20.062,-71.62
20.078,-65.38
20.093,-58.35
20.109,-51.36
20.125,-45.36
20.140,-40.96
20.156,-38.39
20.171,-37.49
20.187,-37.92
20.203,-39.38
20.218,-41.67
20.234,-44.57
20.250,-47.89
20.265,-51.3
20.281,-54.38
20.296,-56.58
20.312,-57.35
20.328,-56.09
20.343,-52.31
20.359,-45.62
20.375,-35.77
20.390,-23.02
20.406,-8.05
20.421,8.1
20.437,24.38
20.453,39.65
20.468,53.09
20.484,64.07
20.500,72.3
20.515,77.62
20.531,80.06
20.546,79.87
20.562,77.58
20.578,73.92
20.593,69.68
20.609,65.59
20.625,62.09
20.640,59.47
20.656,57.71
20.671,56.75
20.687,56.35
20.703,56.37
20.718,56.63
20.734,57.0
20.750,57.37
20.765,57.52
20.781,57.2
20.796,55.94
20.812,53.34
20.828,49.01
20.843,42.86
20.859,35.16
20.875,26.48
20.890,17.56
20.906,9.11
20.921,1.54
20.937,-5.04
20.953,-10.77
20.968,-15.96
20.984,-20.88
21.000,-25.62
21.015,-29.99
21.031,-33.45
21.046,-35.34
21.062,-34.91
21.078,-31.59
21.093,-25.15
21.109,-15.88
21.125,-4.51
21.140,7.9
21.156,20.09
21.171,31.06
21.187,40.01
21.203,46.6
21.218,50.77
21.234,52.72
21.250,52.72
21.265,51.13
21.281,48.54
21.296,45.45
21.312,42.49
21.328,40.19
21.343,38.85
21.359,38.41
21.375,38.69
21.390,39.4
21.406,40.31
21.421,41.37
21.437,42.5
21.453,43.52
21.468,44.27
21.484,44.49
21.500,43.77
21.515,41.81
21.531,38.37
21.546,33.44
21.562,27.05
21.578,19.44
21.593,10.87
21.609,1.63
21.625,-7.97
21.640,-17.83
21.656,-27.96
21.671,-38.51
21.687,-49.61
21.703,-61.18
21.718,-72.73
21.734,-83.33
21.750,-91.77
21.765,-96.94
21.781,-98.03
21.796,-94.87
21.812,-87.91
21.828,-77.96
21.843,-66.0
21.859,-52.99
21.875,-39.76
21.890,-26.88
21.906,-14.94
21.921,-4.28
21.937,5.02
21.953,12.84
21.968,19.24
21.984,24.46
22.000,28.56
22.015,31.63
22.031,33.85
22.046,35.34
22.062,36.25
22.078,36.87
22.093,37.36
22.109,37.8
22.125,38.27
22.140,38.59
22.156,38.51
22.171,37.71
22.187,35.96
22.203,33.08
22.218,29.17
22.234,24.39
22.250,19.04
22.265,13.43
22.281,7.83
22.296,2.29
22.312,-3.3
22.328,-9.19
22.343,-15.69
22.359,-23.18
22.375,-31.85
22.390,-41.61
22.406,-51.96
22.421,-61.93
22.437,-70.27
22.453,-75.8
22.468,-77.79
22.484,-76.11
22.500,-71.2
22.515,-63.88
22.531,-54.89
22.546,-44.9
22.562,-34.21
22.578,-23.26
22.593,-12.68
22.609,-3.46
22.625,3.46
22.640,7.32
22.656,7.95
22.671,5.84
22.687,1.72
22.703,-3.47
22.718,-8.98
22.734,-14.36
22.750,-19.45
22.765,-24.06
22.781,-28.0
22.796,-31.1
22.812,-33.09
22.828,-33.76
22.843,-32.91
22.859,-30.51
22.875,-26.54
22.890,-21.1
22.906,-14.34
22.921,-6.48
22.937,2.04
22.953,10.74
22.968,19.16
22.984,27.02
23.000,34.19
23.015,40.75
23.031,46.79
23.046,52.24
23.062,56.75
23.078,59.67
23.093,60.27
23.109,57.85
23.125,52.05
23.140,42.95
23.156,31.13
23.171,17.76
23.187,4.27
23.203,-7.92
23.218,-17.6
23.234,-24.06
23.250,-27.19
23.265,-27.51
23.281,-25.81
23.296,-23.2
23.312,-20.71
23.328,-19.06
23.343,-18.67
23.359,-19.44
23.375,-20.95
23.390,-22.62
23.406,-24.0
23.421,-24.68
23.437,-24.42
23.453,-23.13
23.468,-20.73
23.484,-17.28
23.500,-12.91
23.515,-7.91
23.531,-2.56
23.546,2.69
23.562,7.49
23.578,11.69
23.593,15.15
23.609,17.83
23.625,19.64
23.640,20.38
23.656,19.68
23.671,17.31
23.687,13.15
23.703,7.47
23.718,0.82
23.734,-6.18
23.750,-12.81
23.765,-18.72
23.781,-23.75
23.796,-28.11
23.812,-32.18
23.828,-36.42
23.843,-41.2
23.859,-46.73
23.875,-52.98
23.890,-59.48
23.906,-65.61
23.921,-70.49
23.937,-73.33
23.953,-73.44
23.968,-70.54
23.984,-64.82
24.000,-57.0
24.015,-48.27
24.031,-39.88
24.046,-32.92
24.062,-28.02
24.078,-25.3
24.093,-24.32
24.109,-24.64
24.125,-25.84
24.140,-27.62
24.156,-29.91
24.171,-32.45
24.187,-34.9
24.203,-36.77
24.218,-37.65
24.234,-37.11
24.250,-34.97
24.265,-31.27
24.281,-26.21
24.296,-20.23
24.312,-13.74
24.328,-7.26
24.343,-1.21
24.359,4.0
24.375,8.12
24.390,10.96
24.406,12.43
24.421,12.46
24.437,11.07
24.453,8.53
24.468,5.28
24.484,1.85
24.500,-1.27
24.515,-3.83
24.531,-5.86
24.546,-7.58
24.562,-9.43
24.578,-11.82
24.593,-14.88
24.609,-18.35
24.625,-21.69
24.640,-24.14
24.656,-25.01
24.671,-23.73
24.687,-19.95
24.703,-13.46
24.718,-4.3
24.734,7.54
24.750,22.02
24.765,38.79
24.781,57.11
24.796,75.31
24.812,91.37
24.828,103.07
24.843,108.91
24.859,108.44
24.875,102.39
24.890,92.35
24.906,80.1
24.921,67.35
24.937,55.36
24.953,45.16
24.968,37.51
24.984,32.57
25.000,29.68
25.015,27.4
25.031,23.87
25.046,17.84
25.062,9.33
25.078,-0.36
25.093,-9.26
25.109,-15.75
25.125,-19.35
25.140,-20.88
25.156,-21.75
25.171,-23.08
25.187,-25.16
25.203,-27.41
25.218,-29.05
25.234,-29.66
25.250,-29.67
25.265,-30.0
25.281,-31.61
25.296,-35.18
25.312,-40.81
25.328,-48.19
25.343,-56.76
25.359,-65.91
25.375,-74.81
25.390,-82.32
25.406,-87.05
25.421,-87.44
25.437,-82.33
25.453,-71.21
25.468,-54.59
25.484,-33.85
25.500,-10.97
25.515,11.89
25.531,32.84
25.546,50.43
25.562,63.9
25.578,72.82
25.593,77.23
25.609,77.31
25.625,73.6
25.640,66.86
25.656,58.1
25.671,48.46
25.687,39.12
25.703,31.23
25.718,25.45
25.734,22.2
25.750,21.3
25.765,22.45
25.781,25.11
25.796,28.63
25.812,32.43
25.828,35.84
25.843,38.33
25.859,39.33
25.875,38.4
25.890,35.23
25.906,29.87
25.921,22.65
25.937,14.13
25.953,5.24
25.968,-3.26
25.984,-10.68
26.000,-16.54
26.015,-20.75
26.031,-23.39
26.046,-24.8
26.062,-25.5
26.078,-26.14
26.093,-27.42
26.109,-30.03
26.125,-34.41
26.140,-40.38
26.156,-47.08
26.171,-53.03
26.187,-56.49
26.203,-55.88
26.218,-50.31
26.234,-39.86
26.250,-25.63
26.265,-9.26
26.281,7.56
26.296,23.39
26.312,37.31
26.328,48.72
26.343,57.21
26.359,62.38
26.375,63.98
26.390,61.89
26.406,56.43
26.421,48.39
26.437,38.83
26.453,28.97
26.468,19.94
26.484,12.57
26.500,7.51
26.515,5.02
26.531,5.09
26.546,7.41
26.562,11.51
26.578,16.78
26.593,22.71
26.609,28.78
26.625,34.51
26.640,39.49
26.656,43.36
26.671,45.81
26.687,46.72
26.703,46.09
26.718,44.06
26.734,40.91
26.750,36.89
26.765,32.23
26.781,27.15
26.796,21.96
26.812,17.02
26.828,12.73
26.843,9.37
26.859,6.94
26.875,5.26
26.890,3.88
26.906,2.24
26.921,0.09
26.937,-2.42
26.953,-4.74
26.968,-5.91
26.984,-5.02
27.000,-1.49
27.015,4.77
27.031,13.28
27.046,23.15
27.062,33.34
27.078,42.97
27.093,51.4
27.109,58.24
27.125,63.25
27.140,66.29
27.156,67.27
27.171,66.13
27.187,63.04
27.203,58.47
27.218,52.96
27.234,47.16
27.250,41.54
27.265,36.28
27.281,31.35
27.296,26.71
27.312,22.39
27.328,18.68
27.343,16.0
27.359,14.53
27.375,14.24
27.390,14.79
27.406,15.64
27.421,16.22
27.437,16.24
27.453,15.45
27.468,13.91
27.484,11.58
27.500,8.35
27.515,3.98
27.531,-1.73
27.546,-8.7
27.562,-16.6
27.578,-24.76
27.593,-32.32
27.609,-38.55
27.625,-42.99
27.640,-45.69
27.656,-47.06
27.671,-47.84
27.687,-48.82
27.703,-50.59
27.718,-53.4
27.734,-57.01
27.750,-60.86
27.765,-64.24
27.781,-66.56
27.796,-67.36
27.812,-66.53
27.828,-64.19
27.843,-60.72
27.859,-56.67
27.875,-52.4
27.890,-47.94
27.906,-42.94
27.921,-36.82
27.937,-29.07
27.953,-19.49
27.968,-8.29
27.984,4.22
28.000,17.64
28.015,31.89
28.031,46.91
28.046,62.48
28.062,77.98
28.078,92.44
28.093,104.86
28.109,114.52
28.125,121.37
28.140,125.6
28.156,127.58
28.171,127.27
28.187,124.36
28.203,118.37
28.218,108.97
28.234,96.36
28.250,81.12
28.265,64.21
28.281,46.53
28.296,28.93
28.312,11.91
28.328,-4.05
28.343,-18.46
28.359,-31.04
28.375,-41.7
28.390,-50.79
28.406,-58.86
28.421,-66.62
28.437,-74.47
28.453,-82.39
28.468,-89.95
28.484,-96.24
28.500,-100.47
28.515,-102.06
28.531,-100.99
28.546,-97.64
28.562,-92.56
28.578,-86.29
28.593,-79.23
28.609,-71.73
28.625,-64.18
28.640,-57.2
28.656,-51.41
28.671,-47.35
28.687,-45.2
28.703,-44.66
28.718,-45.12
28.734,-45.78
28.750,-46.12
28.765,-45.95
28.781,-45.5
28.796,-45.09
28.812,-45.01
28.828,-45.37
28.843,-46.13
28.859,-47.22
28.875,-48.54
28.890,-50.11
28.906,-51.95
28.921,-54.18
28.937,-56.89
28.953,-60.08
28.968,-63.66
28.984,-67.29
29.000,-70.57
29.015,-72.99
29.031,-74.12
29.046,-73.8
29.062,-72.35
29.078,-70.37
29.093,-68.78
29.109,-68.42
29.125,-69.78
29.140,-73.05
29.156,-78.03
29.171,-84.14
29.187,-90.29
29.203,-95.13
29.218,-97.12
29.234,-94.86
29.250,-87.38
29.265,-74.31
29.281,-55.89
29.296,-33.15
29.312,-7.49
29.328,19.31
29.343,45.29
29.359,68.36
29.375,86.66
29.390,98.77
29.406,104.07
29.421,102.84
29.437,96.0
29.453,84.92
29.468,71.07
29.484,55.85
29.500,40.23
29.515,24.85
29.531,10.12
29.546,-3.6
29.562,-15.82
29.578,-26.04
29.593,-33.79
29.609,-39.0
29.625,-41.87
29.640,-42.96
29.656,-42.91
29.671,-42.41
29.687,-41.82
29.703,-41.17
29.718,-40.36
29.734,-38.95
29.750,-36.76
29.765,-33.89
29.781,-30.78
29.796,-28.05
29.812,-26.44
29.828,-26.25
29.843,-27.42
29.859,-29.67
29.875,-32.64
29.890,-35.88
29.906,-39.03
29.921,-41.56
29.937,-42.72
29.953,-41.8
29.968,-38.3
29.984,-32.05
30.000,-23.49
30.015,-13.49
30.031,-3.03
30.046,6.95
30.062,15.91
30.078,23.61
30.093,29.98
30.109,35.06
30.125,38.75
30.140,40.88
30.156,41.52
30.171,40.86
30.187,39.5
30.203,38.27
30.218,37.59
30.234,37.25
30.250,36.51
30.265,34.28
30.281,29.87
30.296,23.57
30.312,16.37
30.328,9.84
30.343,5.22
30.359,2.97
30.375,2.58
30.390,3.2
30.406,4.01
30.421,4.65
30.437,5.23
30.453,5.96
30.468,6.99
30.484,8.35
30.500,9.86
30.515,11.35
30.531,12.77
30.546,14.09
30.562,15.21
30.578,16.02
30.593,16.11
30.609,15.15
30.625,12.99
30.640,9.72
30.656,5.91
30.671,2.39
30.687,0.17
30.703,0.02
30.718,2.33
30.734,6.77
30.750,12.71
30.765,19.24
30.781,25.49
30.796,30.86
30.812,34.94
30.828,37.58
30.843,38.9
30.859,39.07
30.875,38.36
30.890,37.15
30.906,35.94
30.921,35.32
30.937,35.8
30.953,37.42
30.968,39.74
30.984,41.97
31.000,43.31
31.015,43.46
31.031,42.74
31.046,41.85
31.062,41.59
31.078,42.38
31.093,43.9
31.109,45.3
31.125,45.46
31.140,43.49
31.156,39.05
31.171,32.43
31.187,24.3
31.203,15.76
31.218,7.9
31.234,1.47
31.250,-3.19
31.265,-6.26
31.281,-8.2
31.296,-9.56
31.312,-10.69
31.328,-12.06
31.343,-13.76
31.359,-15.79
31.375,-18.04
31.390,-20.02
31.406,-20.95
31.421,-20.01
31.437,-16.64
31.453,-10.68
31.468,-2.68
31.484,6.59
31.500,16.27
31.515,25.75
31.531,34.56
31.546,42.23
31.562,48.1
31.578,51.34
31.593,51.27
31.609,47.77
31.625,41.4
31.640,33.21
31.656,24.48
31.671,16.26
31.687,9.09
31.703,3.25
31.718,-1.24
31.734,-4.4
31.750,-6.33
31.765,-7.29
31.781,-7.8
31.796,-8.54
31.812,-10.09
31.828,-12.88
31.843,-16.95
31.859,-22.09
31.875,-27.93
31.890,-34.09
31.906,-40.11
31.921,-45.7
31.937,-50.54
31.953,-54.52
31.968,-57.62
31.984,-60.02
32.000,-62.05
32.015,-64.03
32.031,-66.31
32.046,-68.93
32.062,-71.54
32.078,-73.36
32.093,-73.42
32.109,-70.63
32.125,-64.29
32.140,-54.3
32.156,-41.27
32.171,-26.52
32.187,-11.72
32.203,1.66
32.218,12.75
32.234,21.25
32.250,27.57
32.265,32.2
32.281,35.54
32.296,37.7
32.312,38.64
32.328,38.43
32.343,37.45
32.359,36.34
32.375,35.75
32.390,36.0
32.406,37.1
32.421,38.57
32.437,39.94
32.453,40.81
32.468,41.02
32.484,40.67
32.500,39.91
32.515,39.02
32.531,38.05
32.546,36.96
32.562,35.46
32.578,33.27
32.593,30.11
32.609,25.98
32.625,21.16
32.640,16.0
32.656,10.96
32.671,6.24
32.687,1.96
32.703,-2.03
32.718,-5.86
32.734,-9.69
32.750,-13.57
32.765,-17.5
32.781,-21.45
32.796,-25.34
32.812,-28.99
32.828,-31.91
32.843,-33.47
32.859,-32.84
32.875,-29.32
32.890,-22.55
32.906,-12.83
32.921,-0.96
32.937,11.84
32.953,24.28
32.968,35.51
32.984,45.07
33.000,52.87
33.015,59.07
33.031,63.74
33.046,66.95
33.062,68.69
33.078,69.05
33.093,68.26
33.109,66.81
33.125,65.18
33.140,63.8
33.156,62.89
33.171,62.33
33.187,62.05
33.203,61.9
33.218,61.82
33.234,61.76
33.250,61.74
33.265,61.59
33.281,61.17
33.296,60.41
33.312,59.14
33.328,57.4
33.343,55.28
33.359,52.77
33.375,49.89
33.390,46.65
33.406,42.98
33.421,38.83
33.437,34.3
33.453,29.42
33.468,24.26
33.484,19.0
33.500,13.71
33.515,8.47
33.531,3.39
33.546,-1.59
33.562,-6.5
33.578,-11.35
33.593,-16.16
33.609,-20.65
33.625,-24.37
33.640,-26.71
33.656,-26.94
33.671,-24.61
33.687,-19.59
33.703,-12.22
33.718,-3.17
33.734,6.55
33.750,15.99
33.765,24.28
33.781,30.71
33.796,34.96
33.812,36.89
33.828,36.62
33.843,34.5
33.859,30.99
33.875,26.61
33.890,21.88
33.906,17.31
33.921,13.26
33.937,10.02
33.953,7.75
33.968,6.39
33.984,5.98
34.000,6.39
34.015,7.46
34.031,8.99
34.046,10.73
34.062,12.39
34.078,13.79
34.093,14.7
34.109,15.07
34.125,14.93
34.140,14.29
34.156,13.15
34.171,11.45
34.187,9.26
34.203,6.6
34.218,3.61
34.234,0.36
34.250,-3.08
34.265,-6.63
34.281,-10.21
34.296,-13.67
34.312,-16.9
34.328,-19.79
34.343,-22.32
34.359,-24.55
34.375,-26.57
34.390,-28.57
34.406,-30.65
34.421,-32.86
34.437,-34.95
34.453,-36.48
34.468,-36.94
34.484,-35.78
34.500,-32.66
34.515,-27.55
34.531,-20.96
34.546,-13.65
34.562,-6.66
34.578,-0.74
34.593,3.67
34.609,6.42
34.625,7.72
34.640,7.8
34.656,7.05
34.671,5.7
34.687,4.06
34.703,2.29
34.718,0.57
34.734,-0.99
34.750,-2.48
34.765,-4.06
34.781,-5.91
34.796,-7.95
34.812,-9.99
34.828,-11.7
34.843,-12.83
34.859,-13.36
34.875,-13.37
34.890,-13.25
34.906,-13.26
34.921,-13.62
34.937,-14.37
34.953,-15.39
34.968,-16.52
34.984,-17.54
35.000,-18.36
35.015,-18.75
35.031,-18.73
35.046,-18.38
35.062,-17.79
35.078,-17.14
35.093,-16.49
35.109,-15.84
35.125,-14.96
35.140,-13.9
35.156,-12.62
35.171,-11.4
35.187,-10.56
35.203,-10.32
35.218,-10.74
35.234,-11.4
35.250,-11.66
35.265,-10.61
35.281,-7.6
35.296,-2.21
35.312,5.48
35.328,14.99
35.343,25.64
35.359,36.64
35.375,47.33
35.390,57.34
35.406,66.46
35.421,74.53
35.437,81.47
35.453,87.17
35.468,91.37
35.484,94.01
35.500,95.01
35.515,94.35
35.531,92.14
35.546,88.6
35.562,84.07
35.578,79.11
35.593,74.41
35.609,70.42
35.625,67.42
35.640,65.18
35.656,63.23
35.671,61.02
35.687,58.29
35.703,55.09
35.718,51.69
35.734,48.48
35.750,45.6
35.765,43.02
35.781,40.48
35.796,37.64
35.812,34.27
35.828,30.27
35.843,25.62
35.859,20.5
35.875,15.02
35.890,9.25
35.906,3.31
35.921,-2.73
35.937,-8.83
35.953,-14.78
35.968,-20.35
35.984,-25.17
36.000,-28.75
36.015,-30.68
36.031,-30.84
36.046,-29.22
36.062,-26.02
36.078,-21.25
36.093,-14.67
36.109,-5.74
36.125,6.03
36.140,20.76
36.156,38.08
36.171,56.73
36.187,75.34
36.203,92.5
36.218,107.26
36.234,119.01
36.250,127.28
36.265,131.42
36.281,130.48
36.296,123.72
36.312,110.79
36.328,92.32
36.343,69.59
36.359,43.93
36.375,16.21
36.390,-13.66
36.406,-45.98
36.421,-80.82
36.437,-117.26
36.453,-153.29
36.468,-186.44
36.484,-214.37
36.500,-235.63
36.515,-249.56
36.531,-256.19
36.546,-255.7
36.562,-248.46
36.578,-234.98
36.593,-216.02
36.609,-192.53
36.625,-165.38
36.640,-135.44
36.656,-103.56
36.671,-70.78
36.687,-38.49
36.703,-8.27
36.718,18.56
36.734,41.11
36.750,59.0
36.765,72.5
36.781,82.05
36.796,88.15
36.812,91.23
36.828,91.59
36.843,89.53
36.859,85.43
36.875,79.83
36.890,73.25
36.906,66.4
36.921,60.06
36.937,55.01
36.953,51.87
36.968,50.8
36.984,51.44
37.000,52.8
37.015,53.63
37.031,52.5
37.046,48.38
37.062,40.77
37.078,29.9
37.093,16.63
37.109,2.26
37.125,-11.85
37.140,-24.51
37.156,-35.03
37.171,-43.2
37.187,-49.05
37.203,-52.73
37.218,-54.4
37.234,-53.94
37.250,-51.23
37.265,-46.27
37.281,-39.34
37.296,-31.14
37.312,-22.73
37.328,-15.15
37.343,-9.25
37.359,-5.56
37.375,-4.03
37.390,-4.23
37.406,-5.55
37.421,-7.46
37.437,-9.72
37.453,-12.37
37.468,-15.63
37.484,-19.66
37.500,-24.58
37.515,-30.35
37.531,-36.83
37.546,-43.78
37.562,-50.88
37.578,-57.79
37.593,-64.11
37.609,-69.42
37.625,-73.28
37.640,-75.45
37.656,-75.9
37.671,-74.89
37.687,-72.79
37.703,-70.01
37.718,-66.71
37.734,-62.88
37.750,-58.27
37.765,-52.67
37.781,-46.13
37.796,-39.12
37.812,-32.37
37.828,-26.72
37.843,-22.67
37.859,-20.33
37.875,-19.29
37.890,-18.96
37.906,-18.72
37.921,-18.2
37.937,-17.23
37.953,-15.58
37.968,-12.95
37.984,-8.61
38.000,-1.83
38.015,8.01
38.031,21.13
38.046,37.26
38.062,55.7
38.078,75.52
38.093,95.68
38.109,114.9
38.125,131.77
38.140,144.59
38.156,151.78
38.171,152.3
38.187,146.01
38.203,133.56
38.218,116.12
38.234,95.01
38.250,71.2
38.265,45.47
38.281,18.51
38.296,-8.85
38.312,-35.74
38.328,-61.17
38.343,-84.5
38.359,-105.77
38.375,-125.39
38.390,-144.03
38.406,-162.04
38.421,-179.01
38.437,-193.89
38.453,-205.15
38.468,-211.33
38.484,-211.2
38.500,-204.44
38.515,-191.48
38.531,-173.53
38.546,-152.33
38.562,-129.73
38.578,-107.58
38.593,-87.34
38.609,-70.12
38.625,-56.42
38.640,-46.39
38.656,-39.76
38.671,-36.16
38.687,-35.01
38.703,-35.61
38.718,-37.21
38.734,-38.9
38.750,-39.82
38.765,-39.09
38.781,-36.16
38.796,-30.63
38.812,-22.81
38.828,-13.44
38.843,-3.53
38.859,5.52
38.875,12.45
38.890,16.23
38.906,16.3
38.921,12.63
38.937,5.91
38.953,-2.9
38.968,-12.75
38.984,-22.54
39.000,-31.42
39.015,-38.77
39.031,-44.23
39.046,-47.77
39.062,-49.68
39.078,-50.33
39.093,-50.12
39.109,-49.29
39.125,-47.8
39.140,-45.67
39.156,-43.04
39.171,-40.5
39.187,-38.71
39.203,-38.28
39.218,-39.1
39.234,-40.38
39.250,-40.88
39.265,-39.3
39.281,-35.09
39.296,-28.45
39.312,-20.36
39.328,-11.83
39.343,-3.56
39.359,4.47
39.375,12.79
39.390,21.81
39.406,31.51
39.421,41.03
39.437,49.08
39.453,54.34
39.468,56.32
39.484,55.15
39.500,51.88
39.515,47.8
39.531,43.88
39.546,40.62
39.562,37.93
39.578,35.53
39.593,33.09
39.609,30.73
39.625,28.8
39.640,27.75
39.656,27.95
39.671,29.21
39.687,31.0
39.703,32.44
39.718,32.82
39.734,31.73
39.750,29.2
39.765,25.57
39.781,21.18
39.796,16.29
39.812,10.86
39.828,5.11
39.843,-0.62
39.859,-5.66
39.875,-9.39
39.890,-11.54
39.906,-12.49
39.921,-13.09
39.937,-14.11
39.953,-16.22
39.968,-19.26
39.984,-22.63
40.000,-25.35
40.015,-26.56
40.031,-25.79
40.046,-22.92
40.062,-18.22
40.078,-11.89
40.093,-4.39
40.109,3.75
40.125,11.59
40.140,18.03
40.156,21.88
40.171,22.4
40.187,19.78
40.203,15.18
40.218,10.46
40.234,7.37
40.250,7.0
40.265,9.4
40.281,13.89
40.296,19.39
40.312,24.85
40.328,29.29
40.343,31.82
40.359,31.64
40.375,28.28
40.390,22.06
40.406,14.35
40.421,7.38
40.437,3.36
40.453,3.67
40.468,8.07
40.484,14.87
40.500,21.6
40.515,26.11
40.531,27.25
40.546,25.2
40.562,20.98
40.578,15.57
40.593,9.7
40.609,3.38
40.625,-3.63
40.640,-11.28
40.656,-18.99
40.671,-25.82
40.687,-30.83
40.703,-33.55
40.718,-34.23
40.734,-33.49
40.750,-32.1
40.765,-30.59
40.781,-28.93
40.796,-26.89
40.812,-24.29
40.828,-21.19
40.843,-17.87
40.859,-14.67
40.875,-11.52
40.890,-7.93
40.906,-3.2
40.921,3.43
40.937,11.82
40.953,21.14
40.968,29.83
40.984,36.48
41.000,40.21
41.015,41.09
41.031,39.92
41.046,37.65
41.062,35.37
41.078,33.5
41.093,32.29
41.109,31.68
41.125,31.63
41.140,32.03
41.156,32.87
41.171,34.04
41.187,35.18
41.203,35.98
41.218,35.92
41.234,34.63
41.250,31.93
41.265,28.06
41.281,23.44
41.296,18.67
41.312,14.15
41.328,9.94
41.343,5.87
41.359,1.69
41.375,-2.62
41.390,-6.83
41.406,-10.57
41.421,-13.49
41.437,-15.5
41.453,-16.85
41.468,-18.05
41.484,-19.54
41.500,-21.42
41.515,-23.31
41.531,-24.29
41.546,-23.52
41.562,-20.31
41.578,-14.53
41.593,-6.57
41.609,2.73
41.625,12.36
41.640,21.37
41.656,29.0
41.671,34.8
41.687,38.51
41.703,40.19
41.718,40.13
41.734,38.74
41.750,36.55
41.765,34.06
41.781,31.69
41.796,29.91
41.812,29.08
41.828,29.39
41.843,30.94
41.859,33.61
41.875,36.94
41.890,40.41
41.906,43.51
41.921,45.92
41.937,47.66
41.953,49.04
41.968,50.47
41.984,52.28
42.000,54.61
42.015,57.19
42.031,59.6
42.046,61.22
42.062,61.62
42.078,60.53
42.093,57.98
42.109,54.16
42.125,49.44
42.140,44.28
42.156,39.23
42.171,34.83
42.187,31.42
42.203,29.13
42.218,27.78
42.234,26.93
42.250,26.15
42.265,25.24
42.281,24.31
42.296,23.93
42.312,25.0
42.328,28.28
42.343,34.1
42.359,42.38
42.375,52.23
42.390,62.34
42.406,71.27
42.421,77.73
42.437,81.09
42.453,81.5
42.468,79.79
42.484,76.95
42.500,73.95
42.515,71.25
42.531,68.9
42.546,66.78
42.562,64.67
42.578,62.5
42.593,60.31
42.609,58.06
42.625,55.6
42.640,52.74
42.656,49.31
42.671,45.44
42.687,41.52
42.703,38.04
42.718,35.28
42.734,33.1
42.750,31.02
42.765,28.26
42.781,24.2
42.796,18.5
42.812,11.29
42.828,3.2
42.843,-4.94
42.859,-12.31
42.875,-18.62
42.890,-24.21
42.906,-30.0
42.921,-37.23
42.937,-46.92
42.953,-59.53
42.968,-74.52
42.984,-90.59
43.000,-105.75
43.015,-118.05
43.031,-126.01
43.046,-128.99
43.062,-127.37
43.078,-122.27
43.093,-115.19
43.109,-107.62
43.125,-100.97
43.140,-96.08
43.156,-93.34
43.171,-92.77
43.187,-94.11
43.203,-96.86
43.218,-100.39
43.234,-104.01
43.250,-107.01
43.265,-108.84
43.281,-109.12
43.296,-107.59
43.312,-104.19
43.328,-99.14
43.343,-92.85
43.359,-85.73
43.375,-78.18
43.390,-70.51
43.406,-62.81
43.421,-55.05
43.437,-47.16
43.453,-39.14
43.468,-31.36
43.484,-24.45
43.500,-19.13
43.515,-16.04
43.531,-15.23
43.546,-16.09
43.562,-17.6
43.578,-18.73
43.593,-18.81
43.609,-17.93
43.625,-16.62
43.640,-15.65
43.656,-15.69
43.671,-17.11
43.687,-19.97
43.703,-24.24
43.718,-29.72
43.734,-35.8
43.750,-41.76
43.765,-46.43
43.781,-48.93
43.796,-48.82
43.812,-46.36
43.828,-42.51
43.843,-38.62
43.859,-36.1
43.875,-35.87
43.890,-38.27
43.906,-42.9
43.921,-48.78
43.937,-54.56
43.953,-58.66
43.968,-59.75
43.984,-57.04
44.000,-50.39
44.015,-40.38
44.031,-28.19
44.046,-14.98
44.062,-2.0
44.078,9.8
44.093,19.95
44.109,28.27
44.125,34.87
44.140,40.09
44.156,44.41
44.171,48.27
44.187,52.05
44.203,55.85
44.218,59.34
44.234,61.94
44.250,63.03
44.265,62.14
44.281,59.18
44.296,54.35
44.312,47.96
44.328,40.28
44.343,31.45
44.359,21.57
44.375,10.93
44.390,0.06
44.406,-10.3
44.421,-19.47
44.437,-26.82
44.453,-32.22
44.468,-35.74
44.484,-37.62
44.500,-37.92
44.515,-36.35
44.531,-32.51
44.546,-26.18
44.562,-17.64
44.578,-7.64
44.593,2.54
44.609,11.64
44.625,18.69
44.640,23.29
44.656,25.73
44.671,26.56
44.687,26.33
44.703,25.34
44.718,23.71
44.734,21.44
44.750,18.63
44.765,15.7
44.781,13.18
44.796,11.67
44.812,11.52
44.828,12.71
44.843,14.84
44.859,17.34
44.875,19.67
44.890,21.41
44.906,22.47
44.921,22.73
44.937,22.24
44.953,21.05
44.968,19.17
44.984,16.51
45.000,12.98
45.015,8.6
45.031,3.48
45.046,-2.08
45.062,-7.63
45.078,-12.69
45.093,-16.81
45.109,-19.79
45.125,-21.77
45.140,-23.18
45.156,-24.55
45.171,-26.34
45.187,-28.81
45.203,-31.92
45.218,-35.27
45.234,-38.24
45.250,-40.0
45.265,-39.6
45.281,-36.05
45.296,-28.81
45.312,-18.02
45.328,-4.73
45.343,9.23
45.359,21.9
45.375,31.86
45.390,38.6
45.406,42.66
45.421,45.1
45.437,46.84
45.453,48.32
45.468,49.48
45.484,50.02
45.500,49.81
45.515,49.1
45.531,48.3
45.546,47.69
45.562,47.28
45.578,46.73
45.593,45.71
45.609,44.15
45.625,42.21
45.640,40.21
45.656,38.49
45.671,37.27
45.687,36.44
45.703,35.66
45.718,34.54
45.734,32.74
45.750,30.11
45.765,26.67
45.781,22.64
45.796,18.29
45.812,13.96
45.828,9.9
45.843,6.18
45.859,2.78
45.875,-0.42
45.890,-3.56
45.906,-6.61
45.921,-9.52
45.937,-12.15
45.953,-14.44
45.968,-16.37
45.984,-18.03
46.000,-19.39
46.015,-20.06
46.031,-19.68
46.046,-17.58
46.062,-13.33
46.078,-6.75
46.093,2.03
46.109,12.54
46.125,24.03
46.140,35.58
46.156,46.29
46.171,55.22
46.187,61.8
46.203,65.67
46.218,66.87
46.234,65.77
46.250,62.89
46.265,58.87
46.281,54.3
46.296,49.76
46.312,45.66
46.328,42.4
46.343,40.12
46.359,38.9
46.375,38.83
46.390,39.85
46.406,41.95
46.421,44.92
46.437,48.42
46.453,52.0
46.468,55.24
46.484,57.82
46.500,59.48
46.515,60.19
46.531,59.91
46.546,58.64
46.562,56.36
46.578,52.95
46.593,48.18
46.609,41.78
46.625,33.59
46.640,23.56
46.656,11.98
46.671,-0.69
46.687,-13.71
46.703,-26.3
46.718,-37.6
46.734,-47.02
46.750,-54.16
46.765,-58.79
46.781,-61.07
46.796,-61.22
46.812,-59.55
46.828,-56.24
46.843,-51.2
46.859,-44.19
46.875,-34.99
46.890,-23.79
46.906,-11.15
46.921,1.9
46.937,14.12
46.953,24.44
46.968,32.13
46.984,37.0
47.000,39.26
47.015,39.33
47.031,37.71
47.046,34.93
47.062,31.48
47.078,27.9
47.093,24.65
47.109,21.9
47.125,19.57
47.140,17.36
47.156,14.88
47.171,11.88
47.187,8.43
47.203,4.89
47.218,1.9
47.234,0.13
47.250,0.04
47.265,1.75
47.281,5.17
47.296,10.0
47.312,15.86
47.328,22.46
47.343,29.58
47.359,37.02
47.375,44.59
47.390,52.0
47.406,58.79
47.421,64.57
47.437,69.08
47.453,72.32
47.468,74.5
47.484,75.97
47.500,77.15
47.515,78.37
47.531,79.88
47.546,81.69
47.562,83.82
47.578,86.07
47.593,88.29
47.609,90.24
47.625,91.61
47.640,92.18
47.656,91.67
47.671,90.05
47.687,87.35
47.703,83.81
47.718,79.46
47.734,74.06
47.750,66.91
47.765,57.12
47.781,43.92
47.796,27.09
47.812,7.26
47.828,-14.21
47.843,-35.33
47.859,-54.05
47.875,-68.55
47.890,-77.66
47.906,-80.88
47.921,-78.44
47.937,-71.02
47.953,-59.46
47.968,-44.77
47.984,-27.85
48.000,-9.83
48.015,8.23
48.031,25.2
48.046,40.08
48.062,52.41
48.078,62.1
48.093,69.41
48.109,74.59
48.125,77.64
48.140,78.36
48.156,76.55
48.171,72.18
48.187,65.34
48.203,56.32
48.218,45.51
48.234,33.3
48.250,20.04
48.265,6.12
48.281,-8.0
48.296,-21.88
48.312,-35.06
48.328,-47.24
48.343,-58.13
48.359,-67.7
48.375,-76.09
48.390,-83.76
48.406,-91.3
48.421,-99.37
48.437,-108.6
48.453,-119.23
48.468,-131.32
48.484,-144.39
48.500,-157.74
48.515,-170.38
48.531,-181.26
48.546,-189.34
48.562,-193.94
48.578,-194.8
48.593,-192.23
48.609,-187.05
48.625,-180.35
48.640,-173.27
48.656,-166.59
48.671,-160.62
48.687,-155.14
48.703,-149.8
48.718,-144.11
48.734,-137.68
48.750,-130.4
48.765,-122.39
48.781,-113.75
48.796,-104.47
48.812,-94.43
48.828,-83.59
48.843,-72.04
48.859,-59.97
48.875,-47.56
48.890,-35.04
48.906,-22.77
48.921,-10.94
48.937,0.5
48.953,11.67
48.968,22.51
48.984,32.84
49.000,42.46
49.015,51.33
49.031,59.63
49.046,67.06
49.062,73.58
49.078,79.64
49.093,85.77
49.109,92.21
49.125,98.77
49.140,104.95
49.156,110.18
49.171,114.02
49.187,114.9
49.203,111.82
49.218,104.9
49.234,94.94
49.250,82.45
49.265,67.16
49.281,48.36
49.296,25.46
49.312,-1.73
49.328,-34.73
49.343,-73.47
49.359,-115.76
49.375,-157.77
49.390,-195.86
49.406,-227.78
49.421,-252.57
49.437,-269.96
49.453,-280.03
49.468,-285.66
49.484,-288.55
49.500,-288.33
49.515,-283.11
49.531,-271.34
49.546,-253.2
49.562,-230.24
49.578,-204.4
49.593,-160.57
49.609,-94.69
49.625,-15.01
49.640,62.77
49.656,126.96
49.671,174.43
49.687,207.15
49.703,228.35
49.718,240.86
49.734,247.13
49.750,246.69
49.765,241.81
49.781,234.96
49.796,229.65
49.812,228.53
49.828,231.78
49.843,237.66
49.859,243.98
49.875,249.11
49.890,250.28
49.906,246.59
49.921,239.07
49.937,228.06
49.953,215.02
49.968,200.84
49.984,185.95
50.000,170.81
50.015,156.01
50.031,140.71
50.046,124.35
50.062,106.84
50.078,88.96
50.093,71.96
50.109,56.66
50.125,43.97
50.140,35.07
50.156,30.93
50.171,31.4
50.187,35.9
50.203,43.67
50.218,54.1
50.234,66.86
50.250,81.1
50.265,95.87
50.281,110.48
50.296,124.27
50.312,136.42
50.328,146.17
50.343,152.92
50.359,156.43
50.375,156.71
50.390,153.04
50.406,144.97
50.421,132.46
50.437,115.87
50.453,95.63
50.468,72.03
50.484,45.44
50.500,16.51
50.515,-13.74
50.531,-45.93
50.546,-79.68
50.562,-113.52
50.578,-145.37
50.593,-173.66
50.609,-197.79
50.625,-217.69
50.640,-233.58
50.656,-245.75
50.671,-257.98
50.687,-272.42
50.703,-288.5
50.718,-304.23
50.734,-318.64
50.750,-331.83
50.765,-344.45
50.781,-357.02
50.796,-369.63
50.812,-387.02
50.828,-410.66
50.843,-437.07
50.859,-459.97
50.875,-474.47
50.890,-477.98
50.906,-469.44
50.921,-448.46
50.937,-415.15
50.953,-377.22
50.968,-339.78
50.984,-303.46
51.000,-266.89
51.015,-231.19
51.031,-200.66
51.046,-180.65
51.062,-175.55
51.078,-143.82
51.093,-71.57
51.109,23.61
51.125,110.86
51.140,172.9
51.156,209.24
51.171,226.63
51.187,232.29
51.203,232.01
51.218,230.34
51.234,223.34
51.250,209.28
51.265,191.26
51.281,174.45
51.296,161.81
51.312,153.2
51.328,146.94
51.343,141.18
51.359,135.01
51.375,122.73
51.390,102.78
51.406,79.96
51.421,62.97
51.437,59.2
51.453,71.39
51.468,96.94
51.484,129.01
51.500,159.29
51.515,177.64
51.531,179.76
51.546,168.54
51.562,150.97
51.578,133.42
51.593,118.93
51.609,107.49
51.625,97.37
51.640,87.67
51.656,77.11
51.671,66.07
51.687,55.87
51.703,47.26
51.718,39.54
51.734,31.35
51.750,21.73
51.765,10.46
51.781,-1.27
51.796,-12.16
51.812,-20.61
51.828,-25.15
51.843,-25.54
51.859,-22.68
51.875,-18.28
51.890,-14.15
51.906,-11.58
51.921,-11.02
51.937,-12.39
51.953,-15.39
51.968,-19.19
51.984,-23.45
52.000,-27.78
52.015,-31.51
52.031,-34.01
52.046,-34.49
52.062,-32.32
52.078,-27.5
52.093,-20.39
52.109,-11.52
52.125,-2.09
52.140,6.34
52.156,12.74
52.171,16.48
52.187,17.77
52.203,17.62
52.218,16.84
52.234,16.25
52.250,16.91
52.265,19.72
52.281,25.1
52.296,33.12
52.312,43.05
52.328,53.72
52.343,63.95
52.359,72.09
52.375,76.92
52.390,77.46
52.406,73.4
52.421,65.41
52.437,54.77
52.453,42.76
52.468,30.48
52.484,18.64
52.500,7.31
52.515,-3.21
52.531,-12.7
52.546,-20.57
52.562,-25.95
52.578,-28.14
52.593,-26.84
52.609,-22.73
52.625,-16.86
52.640,-10.99
52.656,-6.33
52.671,-3.43
52.687,-1.86
52.703,0.14
52.718,4.3
52.734,12.16
52.750,24.37
52.765,41.68
52.781,64.21
52.796,91.91
52.812,124.41
52.828,156.51
52.843,183.27
52.859,199.92
52.875,203.68
52.890,194.11
52.906,173.63
52.921,145.57
52.937,112.99
52.953,77.69
52.968,40.18
52.984,1.38
53.000,-37.01
53.015,-71.83
53.031,-99.74
53.046,-118.24
53.062,-127.54
53.078,-130.59
53.093,-132.05
53.109,-136.52
53.125,-146.12
53.140,-160.13
53.156,-174.99
53.171,-186.0
53.187,-188.56
53.203,-179.6
53.218,-158.18
53.234,-124.88
53.250,-81.47
53.265,-29.45
53.281,29.43
53.296,92.69
53.312,155.87
53.328,212.22
53.343,253.29
53.359,271.02
53.375,260.95
53.390,224.32
53.406,168.81
53.421,105.75
53.437,46.06
53.453,-3.58
53.468,-41.77
53.484,-70.63
53.500,-92.58
53.515,-107.25
53.531,-111.69
53.546,-103.25
53.562,-83.07
53.578,-57.86
53.593,-37.88
53.609,-31.92
53.625,-42.65
53.640,-65.42
53.656,-90.29
53.671,-106.96
53.687,-109.13
53.703,-95.71
53.718,-69.26
53.734,-33.76
53.750,7.41
53.765,51.07
53.781,92.74
53.796,126.12
53.812,143.58
53.828,138.45
53.843,107.73
53.859,54.04
53.875,-14.64
53.890,-86.62
53.906,-149.26
53.921,-192.02
53.937,-208.47
53.953,-197.96
53.968,-165.42
53.984,-119.63
54.000,-70.78
54.015,-27.56
54.031,5.09
54.046,26.11
54.062,37.93
54.078,44.4
54.093,48.36
54.109,50.45
54.125,49.51
54.140,44.11
54.156,33.97
54.171,21.11
54.187,8.79
54.203,-0.02
54.218,-3.88
54.234,-3.53
54.250,-0.31
54.265,4.66
54.281,11.25
54.296,19.46
54.312,28.1
54.328,34.21
54.343,33.92
54.359,24.78
54.375,7.4
54.390,-14.01
54.406,-33.6
54.421,-46.47
54.437,-50.84
54.453,-48.16
54.468,-41.59
54.484,-33.96
54.500,-26.62
54.515,-19.68
54.531,-12.97
54.546,-7.75
54.562,-5.86
54.578,-9.07
54.593,-17.4
54.609,-28.64
54.625,-39.15
54.640,-45.38
54.656,-45.15
54.671,-38.49
54.687,-27.59
54.703,-15.37
54.718,-4.43
54.734,3.72
54.750,9.07
54.765,12.79
54.781,16.55
54.796,22.15
54.812,30.6
54.828,41.18
54.843,51.5
54.859,57.89
54.875,57.13
54.890,48.34
54.906,33.78
54.921,18.32
54.937,6.96
54.953,2.53
54.968,4.26
54.984,8.65
55.000,11.2
55.015,8.95
55.031,2.05
55.046,-6.95
55.062,-14.26
55.078,-16.76
55.093,-13.09
55.109,-3.76
55.125,9.46
55.140,23.61
55.156,35.73
55.171,43.5
55.187,45.69
55.203,42.35
55.218,34.23
55.234,22.32
55.250,7.31
55.265,-9.89
55.281,-28.24
55.296,-46.22
55.312,-62.4
55.328,-76.17
55.343,-87.51
55.359,-96.77
55.375,-103.49
55.390,-105.78
55.406,-100.81
55.421,-86.14
55.437,-61.33
55.453,-28.63
55.468,7.43
55.484,42.1
55.500,71.42
55.515,93.22
55.531,107.04
55.546,113.39
55.562,113.17
55.578,107.56
55.593,97.71
55.609,84.51
55.625,69.18
55.640,53.07
55.656,37.96
55.671,25.62
55.687,17.37
55.703,13.32
55.718,12.22
55.734,12.35
55.750,11.62
55.765,8.73
55.781,3.04
55.796,-5.28
55.812,-15.44
55.828,-26.3
55.843,-36.26
55.859,-43.83
55.875,-48.2
55.890,-49.82
55.906,-49.98
55.921,-50.19
55.937,-51.19
55.953,-52.38
55.968,-52.7
55.984,-51.46
56.000,-49.27
56.015,-47.77
56.031,-48.49
56.046,-51.44
56.062,-55.05
56.078,-56.85
56.093,-54.83
56.109,-48.63
56.125,-39.23
56.140,-28.39
56.156,-17.55
56.171,-7.67
56.187,0.57
56.203,6.25
56.218,8.21
56.234,5.86
56.250,-0.11
56.265,-7.24
56.281,-12.41
56.296,-13.23
56.312,-9.12
56.328,-1.86
56.343,5.55
56.359,10.48
56.375,12.05
56.390,11.21
56.406,10.61
56.421,13.27
56.437,21.5
56.453,36.4
56.468,57.08
56.484,81.18
56.500,105.22
56.515,125.82
56.531,140.18
56.546,146.92
56.562,145.78
56.578,137.39
56.593,123.04
56.609,103.77
56.625,81.06
56.640,56.64
56.656,32.76
56.671,11.77
56.687,-4.41
56.703,-15.12
56.718,-20.99
56.734,-23.53
56.750,-24.76
56.765,-26.1
56.781,-28.06
56.796,-30.1
56.812,-30.57
56.828,-27.49
56.843,-19.49
56.859,-6.69
56.875,8.74
56.890,22.58
56.906,29.81
56.921,26.41
56.937,10.99
56.953,-13.88
56.968,-42.61
56.984,-68.44
57.000,-85.81
57.015,-92.35
57.031,-88.88
57.046,-78.33
57.062,-64.3
57.078,-49.53
57.093,-35.24
57.109,-21.8
57.125,-9.14
57.140,2.87
57.156,14.01
57.171,24.22
57.187,33.5
57.203,41.56
57.218,47.5
57.234,49.9
57.250,46.89
57.265,37.1
57.281,20.45
57.296,-1.39
57.312,-24.9
57.328,-45.87
57.343,-60.63
57.359,-67.43
57.375,-66.9
57.390,-61.75
57.406,-55.56
57.421,-51.11
57.437,-49.05
57.453,-47.12
57.468,-40.74
57.484,-24.79
57.500,4.68
57.515,48.3
57.531,102.84
57.546,161.63
57.562,216.2
57.578,258.39
57.593,282.44
57.609,286.31
57.625,271.88
57.640,244.56
57.656,211.44
57.671,179.29
57.687,152.29
57.703,131.02
57.718,112.68
57.734,92.47
57.750,66.03
57.765,31.17
57.781,-11.07
57.796,-56.34
57.812,-97.53
57.828,-126.12
57.843,-134.15
57.859,-116.57
57.875,-73.9
57.890,-13.01
57.906,54.26
57.921,114.75
57.937,158.72
57.953,183.13
57.968,191.79
57.984,192.42
58.000,192.06
58.015,193.33
58.031,193.57
58.046,186.92
58.062,167.58
58.078,132.62
58.093,83.0
58.109,22.61
58.125,-43.1
58.140,-108.43
58.156,-168.14
58.171,-217.54
58.187,-253.12
58.203,-273.08
58.218,-277.78
58.234,-270.28
58.250,-255.63
58.265,-240.22
58.281,-230.1
58.296,-228.9
58.312,-236.14
58.328,-246.4
58.343,-250.71
58.359,-239.44
58.375,-206.62
58.390,-153.43
58.406,-89.39
58.421,-30.0
58.437,9.62
58.453,21.23
58.468,6.88
58.484,-22.3
58.500,-52.39
58.515,-73.2
58.531,-82.01
58.546,-82.24
58.562,-78.82
58.578,-73.18
58.593,-61.65
58.609,-38.13
58.625,1.31
58.640,54.26
58.656,111.84
58.671,162.31
58.687,195.89
58.703,208.33
58.718,201.44
58.734,180.48
58.750,151.17
58.765,117.77
58.781,82.31
58.796,45.8
58.812,9.95
58.828,-22.11
58.843,-46.01
58.859,-57.41
58.875,-54.2
58.890,-37.93
58.906,-13.14
58.921,13.92
58.937,38.04
58.953,56.73
58.968,70.05
58.984,79.34
59.000,85.46
59.015,87.45
59.031,82.78
59.046,69.38
59.062,46.92
59.078,17.91
59.093,-13.12
59.109,-41.33
59.125,-63.21
59.140,-77.27
59.156,-83.68
59.171,-83.54
59.187,-77.64
59.203,-66.85
59.218,-52.35
59.234,-35.92
59.250,-19.71
59.265,-5.45
59.281,6.08
59.296,15.02
59.312,21.79
59.328,26.89
59.343,30.35
59.359,32.05
59.375,32.06
59.390,30.51
59.406,27.66
59.421,23.45
59.437,17.6
59.453,9.99
59.468,1.41
59.484,-6.69
59.500,-12.54
59.515,-14.74
59.531,-13.14
59.546,-8.57
59.562,-2.18
59.578,5.12
59.593,12.82
59.609,20.66
59.625,27.98
59.640,33.49
59.656,36.03
59.671,34.68
59.687,29.68
59.703,22.29
59.718,14.21
59.734,6.58
59.750,-0.34
59.765,-7.02
59.781,-14.18
59.796,-21.84
59.812,-29.52
59.828,-36.25
59.843,-41.38
59.859,-44.64
59.875,-46.07
59.890,-45.85
59.906,-43.93
59.921,-40.15
59.937,-34.51
59.953,-27.62
59.968,-20.38
59.984,-13.85
