timestamp,value
00.000,42.38
00.015,26.26
00.031,10.53
00.046,-4.27
00.062,-18.95
00.078,-35.25
00.093,-55.01
00.109,-79.26
00.125,-107.74
00.140,-139.17
00.156,-171.87
00.171,-204.05
00.187,-233.46
00.203,-257.02
00.218,-270.92
00.234,-271.85
00.250,-258.78
00.265,-234.32
00.281,-204.2
00.296,-175.25
00.312,-152.36
00.328,-136.86
00.343,-126.51
00.359,-117.82
00.375,-108.49
00.390,-98.59
00.406,-89.98
00.421,-84.02
00.437,-79.97
00.453,-74.21
00.468,-62.15
00.484,-40.24
00.500,-7.62
00.515,33.73
00.531,80.21
00.546,127.97
00.562,173.69
00.578,213.81
00.593,244.57
00.609,261.72
00.625,261.96
00.640,244.78
00.656,213.44
00.671,174.45
00.687,135.61
00.703,103.53
00.718,81.31
00.734,68.53
00.750,62.36
00.765,59.39
00.781,57.46
00.796,55.9
00.812,54.93
00.828,54.95
00.843,55.89
00.859,57.07
00.875,57.48
00.890,56.18
00.906,52.44
00.921,46.15
00.937,37.82
00.953,28.23
00.968,18.22
00.984,8.33
01.000,-1.71
01.015,-12.8
01.031,-25.99
01.046,-42.21
01.062,-61.24
01.078,-81.96
01.093,-102.67
01.109,-121.7
01.125,-138.06
01.140,-151.71
01.156,-163.09
01.171,-172.56
01.187,-180.12
01.203,-185.23
01.218,-187.36
01.234,-186.58
01.250,-183.83
01.265,-180.7
01.281,-178.97
01.296,-179.6
01.312,-182.63
01.328,-187.23
01.343,-191.96
01.359,-195.32
01.375,-195.97
01.390,-192.73
01.406,-184.45
01.421,-169.96
01.437,-148.13
01.453,-118.38
01.468,-81.5
01.484,-39.77
01.500,3.17
01.515,43.01
01.531,76.21
01.546,101.02
01.562,118.0
01.578,129.83
01.593,139.84
01.609,150.52
01.625,162.41
01.640,174.01
01.656,182.86
01.671,186.94
01.687,185.99
01.703,181.68
01.718,176.84
01.734,173.84
01.750,173.14
01.765,173.2
01.781,171.29
01.796,165.36
01.812,155.44
01.828,143.59
01.843,132.74
01.859,125.1
01.875,120.81
01.890,117.91
01.906,113.67
01.921,106.18
01.937,95.47
01.953,83.56
01.968,73.07
01.984,65.88
02.000,62.06
02.015,59.98
02.031,57.38
02.046,52.63
02.062,45.44
02.078,37.03
02.093,29.19
02.109,23.31
02.125,19.78
02.140,17.66
02.156,15.36
02.171,11.45
02.187,5.67
02.203,-1.24
02.218,-7.74
02.234,-12.54
02.250,-15.28
02.265,-16.75
02.281,-18.32
02.296,-21.23
02.312,-25.96
02.328,-31.9
02.343,-37.81
02.359,-42.39
02.375,-44.78
02.390,-44.84
02.406,-43.07
02.421,-39.91
02.437,-35.38
02.453,-29.02
02.468,-20.33
02.484,-9.23
02.500,3.51
02.515,16.25
02.531,27.16
02.546,34.9
02.562,39.27
02.578,41.29
02.593,42.47
02.609,43.97
02.625,46.02
02.640,47.85
02.656,48.31
02.671,46.46
02.687,42.31
02.703,36.91
02.718,31.76
02.734,28.05
02.750,26.22
02.765,25.73
02.781,25.4
02.796,24.21
02.812,21.7
02.828,18.15
02.843,14.41
02.859,11.47
02.875,9.79
02.890,9.34
02.906,9.56
02.921,9.72
02.937,9.53
02.953,9.17
02.968,9.24
02.984,10.26
03.000,12.38
03.015,14.92
03.031,16.89
03.046,17.32
03.062,15.78
03.078,12.69
03.093,9.0
03.109,5.75
03.125,3.39
03.140,1.53
03.156,-0.73
03.171,-4.22
03.187,-8.88
03.203,-13.67
03.218,-16.68
03.234,-16.17
03.250,-11.37
03.265,-2.91
03.281,7.36
03.296,17.39
03.312,25.81
03.328,32.62
03.343,38.79
03.359,45.53
03.375,53.33
03.390,61.56
03.406,68.77
03.421,73.54
03.437,75.48
03.453,75.32
03.468,74.67
03.484,75.04
03.500,77.25
03.515,80.88
03.531,84.8
03.546,87.9
03.562,89.57
03.578,90.2
03.593,90.71
03.609,92.11
03.625,94.95
03.640,99.37
03.656,105.3
03.671,112.9
03.687,122.8
03.703,135.3
03.718,149.56
03.734,162.66
03.750,169.76
03.765,165.28
03.781,145.02
03.796,108.45
03.812,59.82
03.828,7.54
03.843,-38.55
03.859,-70.29
03.875,-84.32
03.890,-82.64
03.906,-71.64
03.921,-59.27
03.937,-52.37
03.953,-54.9
03.968,-67.6
03.984,-89.17
04.000,-117.19
04.015,-149.18
04.031,-182.59
04.046,-214.41
04.062,-241.0
04.078,-258.65
04.093,-264.66
04.109,-258.21
04.125,-241.04
04.140,-216.63
04.156,-189.25
04.171,-162.75
04.187,-139.55
04.203,-120.37
04.218,-104.71
04.234,-91.51
04.250,-79.82
04.265,-69.0
04.281,-58.73
04.296,-48.9
04.312,-39.49
04.328,-30.3
04.343,-21.04
04.359,-11.24
04.375,-0.73
04.390,10.34
04.406,20.97
04.421,29.7
04.437,34.76
04.453,34.59
04.468,28.49
04.484,16.75
04.500,0.53
04.515,-18.67
04.531,-39.26
04.546,-60.07
04.562,-80.06
04.578,-98.09
04.593,-112.97
04.609,-123.63
04.625,-129.39
04.640,-130.36
04.656,-127.48
04.671,-122.38
04.687,-116.89
04.703,-112.43
04.718,-109.27
04.734,-106.61
04.750,-102.89
04.765,-96.81
04.781,-88.05
04.796,-77.61
04.812,-67.38
04.828,-59.15
04.843,-53.79
04.859,-50.76
04.875,-48.3
04.890,-44.3
04.906,-36.83
04.921,-24.58
04.937,-6.87
04.953,16.45
04.968,44.58
04.984,75.05
05.000,103.63
05.015,125.25
05.031,135.71
05.046,133.94
05.062,122.76
05.078,107.83
05.093,95.4
05.109,89.26
05.125,89.21
05.140,91.8
05.156,93.1
05.171,91.25
05.187,88.14
05.203,88.23
05.218,95.89
05.234,113.27
05.250,138.73
05.265,167.99
05.281,196.17
05.296,219.95
05.312,237.97
05.328,250.98
05.343,260.08
05.359,265.3
05.375,266.02
05.390,260.83
05.406,248.59
05.421,229.23
05.437,203.78
05.453,173.21
05.468,138.59
05.484,100.82
05.500,61.3
05.515,22.87
05.531,-11.48
05.546,-39.78
05.562,-61.59
05.578,-78.38
05.593,-92.91
05.609,-107.22
05.625,-122.82
05.640,-138.68
05.656,-151.56
05.671,-159.28
05.687,-163.04
05.703,-167.31
05.718,-178.18
05.734,-200.51
05.750,-235.07
05.765,-279.77
05.781,-328.71
05.796,-367.82
05.812,-382.4
05.828,-364.82
05.843,-319.1
05.859,-258.11
05.875,-200.93
05.890,-150.89
05.906,-107.19
05.921,-69.1
05.937,-36.72
05.953,-12.29
05.968,1.16
05.984,4.25
06.000,2.05
06.015,1.8
06.031,9.74
06.046,25.0
06.062,41.2
06.078,49.74
06.093,43.38
06.109,19.65
06.125,-17.79
06.140,-60.08
06.156,-96.4
06.171,-116.31
06.187,-114.34
06.203,-89.2
06.218,-43.24
06.234,17.48
06.250,83.91
06.265,145.14
06.281,191.09
06.296,214.34
06.312,212.85
06.328,189.08
06.343,150.42
06.359,107.61
06.375,71.25
06.390,48.37
06.406,40.08
06.421,41.83
06.437,45.85
06.453,45.34
06.468,36.87
06.484,21.65
06.500,3.83
06.515,-12.86
06.531,-27.22
06.546,-41.02
06.562,-56.65
06.578,-74.62
06.593,-92.27
06.609,-105.15
06.625,-109.77
06.640,-105.7
06.656,-96.34
06.671,-86.46
06.687,-79.94
06.703,-77.79
06.718,-78.37
06.734,-78.98
06.750,-77.57
06.765,-73.8
06.781,-68.3
06.796,-62.36
06.812,-57.59
06.828,-56.14
06.843,-60.92
06.859,-74.5
06.875,-97.56
06.890,-127.16
06.906,-157.2
06.921,-180.33
06.937,-191.25
06.953,-188.77
06.968,-175.61
06.984,-156.3
07.000,-134.03
07.015,-109.36
07.031,-80.48
07.046,-45.43
07.062,-3.77
07.078,42.62
07.093,90.63
07.109,137.49
07.125,181.47
07.140,222.47
07.156,261.01
07.171,297.53
07.187,331.63
07.203,362.29
07.218,387.85
07.234,406.66
07.250,417.53
07.265,419.55
07.281,412.48
07.296,396.68
07.312,373.28
07.328,344.09
07.343,311.27
07.359,276.46
07.375,240.02
07.390,201.12
07.406,158.31
07.421,111.22
07.437,61.52
07.453,13.07
07.468,-29.08
07.484,-60.68
07.500,-79.78
07.515,-87.24
07.531,-85.93
07.546,-79.22
07.562,-69.54
07.578,-57.94
07.593,-44.59
07.609,-29.79
07.625,-14.97
07.640,-2.41
07.656,5.64
07.671,8.41
07.687,7.32
07.703,5.72
07.718,7.1
07.734,13.26
07.750,23.3
07.765,33.83
07.781,40.64
07.796,40.73
07.812,33.79
07.828,22.1
07.843,9.56
07.859,0.16
07.875,-3.58
07.890,-1.24
07.906,5.4
07.921,13.03
07.937,17.99
07.953,18.0
07.968,13.32
07.984,6.61
08.000,1.45
08.015,0.43
08.031,3.32
08.046,7.28
08.062,8.16
08.078,2.55
08.093,-10.94
08.109,-31.5
08.125,-56.97
08.140,-84.97
08.156,-113.7
08.171,-142.08
08.187,-169.46
08.203,-195.39
08.218,-219.56
08.234,-241.84
08.250,-262.3
08.265,-280.75
08.281,-296.73
08.296,-309.48
08.312,-317.96
08.328,-320.86
08.343,-316.97
08.359,-305.87
08.375,-288.82
08.390,-269.57
08.406,-253.53
08.421,-246.34
08.437,-251.53
08.453,-269.2
08.468,-295.46
08.484,-323.72
08.500,-346.78
08.515,-358.62
08.531,-355.67
08.546,-336.58
08.562,-301.87
08.578,-253.23
08.593,-193.58
08.609,-127.36
08.625,-60.4
08.640,0.77
08.656,50.19
08.671,83.69
08.687,100.12
08.703,101.26
08.718,91.48
08.734,76.56
08.750,62.53
08.765,54.56
08.781,56.3
08.796,69.4
08.812,93.27
08.828,125.55
08.843,162.94
08.859,202.41
08.875,241.86
08.890,280.18
08.906,317.0
08.921,352.02
08.937,384.93
08.953,414.92
08.968,440.55
08.984,459.5
09.000,468.67
09.015,464.98
09.031,446.56
09.046,414.61
09.062,373.95
09.078,332.22
09.093,296.85
09.109,271.56
09.125,254.08
09.140,236.61
09.156,209.21
09.171,163.94
09.187,98.26
09.203,15.59
09.218,-75.99
09.234,-166.34
09.250,-245.46
09.265,-305.41
09.281,-341.63
09.296,-353.55
09.312,-344.57
09.328,-320.76
09.343,-288.84
09.359,-254.17
09.375,-219.93
09.390,-187.79
09.406,-159.76
09.421,-139.49
09.437,-131.27
09.453,-137.77
09.468,-157.72
09.484,-185.5
09.500,-213.32
09.515,-234.61
09.531,-246.8
09.546,-251.56
09.562,-252.86
09.578,-253.8
09.593,-254.4
09.609,-251.32
09.625,-239.57
09.640,-215.23
09.656,-177.01
09.671,-126.72
09.687,-67.97
09.703,-4.68
09.718,60.17
09.734,124.65
09.750,187.4
09.765,247.35
09.781,303.05
09.796,352.89
09.812,395.23
09.828,428.98
09.843,453.9
09.859,470.62
09.875,480.31
09.890,483.85
09.906,481.02
09.921,470.17
09.937,448.93
09.953,415.81
09.968,371.85
09.984,321.17
10.000,269.71
10.015,223.08
10.031,184.06
10.046,151.92
10.062,123.14
10.078,93.61
10.093,60.95
10.109,25.6
10.125,-9.49
10.140,-40.55
10.156,-64.71
10.171,-81.29
10.187,-91.63
10.203,-98.19
10.218,-103.28
10.234,-107.94
10.250,-112.09
10.265,-114.79
10.281,-115.1
10.296,-112.6
10.312,-107.64
10.328,-100.97
10.343,-93.42
10.359,-85.92
10.375,-79.74
10.390,-76.82
10.406,-79.86
10.421,-91.28
10.437,-111.84
10.453,-139.39
10.468,-168.61
10.484,-192.67
10.500,-205.63
10.515,-204.89
10.531,-191.76
10.546,-170.53
10.562,-145.98
10.578,-121.7
10.593,-99.35
10.609,-79.45
10.625,-62.61
10.640,-50.14
10.656,-43.51
10.671,-43.2
10.687,-47.9
10.703,-54.54
10.718,-59.59
10.734,-60.64
10.750,-57.04
10.765,-49.8
10.781,-40.79
10.796,-31.76
10.812,-23.91
10.828,-17.72
10.843,-13.12
10.859,-9.65
10.875,-6.93
10.890,-4.59
10.906,-2.48
10.921,-0.44
10.937,1.8
10.953,4.6
10.968,8.35
10.984,13.05
11.000,18.07
11.015,21.87
11.031,22.5
11.046,18.42
11.062,9.44
11.078,-2.72
11.093,-14.48
11.109,-21.67
11.125,-20.76
11.140,-9.98
11.156,10.14
11.171,37.18
11.187,67.6
11.203,97.66
11.218,124.17
11.234,144.97
11.250,158.75
11.265,165.12
11.281,164.32
11.296,157.05
11.312,144.18
11.328,126.79
11.343,105.82
11.359,82.22
11.375,56.99
11.390,31.16
11.406,5.78
11.421,-18.17
11.437,-39.61
11.453,-57.61
11.468,-71.14
11.484,-79.65
11.500,-83.22
11.515,-82.6
11.531,-79.19
11.546,-74.38
11.562,-69.09
11.578,-63.68
11.593,-58.12
11.609,-52.48
11.625,-47.2
11.640,-42.97
11.656,-40.22
11.671,-38.76
11.687,-37.63
11.703,-35.21
11.718,-30.31
11.734,-22.35
11.750,-12.08
11.765,-1.0
11.781,8.84
11.796,15.76
11.812,19.01
11.828,18.95
11.843,17.06
11.859,15.33
11.875,15.66
11.890,18.92
11.906,24.78
11.921,31.3
11.937,36.14
11.953,37.37
11.968,34.29
11.984,27.7
12.000,19.28
12.015,10.84
12.031,3.41
12.046,-2.58
12.062,-7.33
12.078,-10.66
12.093,-11.64
12.109,-9.24
12.125,-2.88
12.140,6.67
12.156,17.24
12.171,25.85
12.187,30.08
12.203,29.02
12.218,23.35
12.234,15.18
12.250,6.5
12.265,-1.41
12.281,-8.52
12.296,-15.62
12.312,-23.36
12.328,-31.66
12.343,-39.59
12.359,-46.16
12.375,-50.77
12.390,-53.81
12.406,-55.84
12.421,-57.33
12.437,-58.07
12.453,-57.25
12.468,-54.03
12.484,-48.15
12.500,-40.38
12.515,-32.02
12.531,-24.84
12.546,-19.92
12.562,-17.74
12.578,-18.16
12.593,-20.5
12.609,-23.88
12.625,-27.56
12.640,-30.95
12.656,-33.49
12.671,-34.92
12.687,-34.73
12.703,-32.37
12.718,-27.39
12.734,-19.48
12.750,-8.99
12.765,3.02
12.781,14.93
12.796,25.22
12.812,33.1
12.828,38.96
12.843,43.85
12.859,48.83
12.875,54.15
12.890,58.78
12.906,61.22
12.921,60.41
12.937,56.55
12.953,51.27
12.968,46.9
12.984,45.13
13.000,46.15
13.015,48.45
13.031,49.58
13.046,47.49
13.062,41.55
13.078,32.62
13.093,22.51
13.109,13.06
13.125,5.25
13.140,-0.85
13.156,-5.72
13.171,-9.76
13.187,-12.66
13.203,-13.59
13.218,-11.97
13.234,-8.0
13.250,-3.24
13.265,-0.24
13.281,-1.45
13.296,-8.16
13.312,-19.7
13.328,-33.46
13.343,-46.08
13.359,-54.76
13.375,-58.35
13.390,-57.52
13.406,-54.36
13.421,-50.82
13.437,-47.83
13.453,-44.61
13.468,-39.06
13.484,-29.2
13.500,-14.29
13.515,4.49
13.531,24.63
13.546,43.09
13.562,57.54
13.578,66.74
13.593,70.59
13.609,69.84
13.625,65.4
13.640,58.02
13.656,48.13
13.671,35.83
13.687,21.0
13.703,3.82
13.718,-15.07
13.734,-34.39
13.750,-52.39
13.765,-67.36
13.781,-78.37
13.796,-85.6
13.812,-89.91
13.828,-92.34
13.843,-92.97
13.859,-90.64
13.875,-83.56
13.890,-70.13
13.906,-49.67
13.921,-22.76
13.937,8.84
13.953,42.95
13.968,77.19
13.984,109.11
14.000,136.22
14.015,155.94
14.031,166.19
14.046,165.87
14.062,155.16
14.078,135.57
14.093,109.62
14.109,80.45
14.125,51.4
14.140,25.46
14.156,4.81
14.171,-9.55
14.187,-18.08
14.203,-22.77
14.218,-26.24
14.234,-30.96
14.250,-38.65
14.265,-49.81
14.281,-64.15
14.296,-81.13
14.312,-99.86
14.328,-118.89
14.343,-136.01
14.359,-148.55
14.375,-154.1
14.390,-152.05
14.406,-143.98
14.421,-133.01
14.437,-122.13
14.453,-112.15
14.468,-100.72
14.484,-82.95
14.500,-53.84
14.515,-10.74
14.531,44.62
14.546,106.26
14.562,165.46
14.578,213.16
14.593,242.49
14.609,250.4
14.625,238.11
14.640,210.33
14.656,173.47
14.671,133.61
14.687,95.25
14.703,61.05
14.718,32.26
14.734,9.88
14.750,-5.19
14.765,-12.44
14.781,-12.56
14.796,-7.93
14.812,-2.25
14.828,0.81
14.843,-0.56
14.859,-5.83
14.875,-12.37
14.890,-17.09
14.906,-18.09
14.921,-15.57
14.937,-11.47
14.953,-8.16
14.968,-7.32
14.984,-8.92
15.000,-11.69
15.015,-14.07
15.031,-15.4
15.046,-15.89
15.062,-16.13
15.078,-16.42
15.093,-16.44
15.109,-15.49
15.125,-13.2
15.140,-9.97
15.156,-6.77
15.171,-4.58
15.187,-3.71
15.203,-3.5
15.218,-3.18
15.234,-2.67
15.250,-2.89
15.265,-5.32
15.281,-10.88
15.296,-19.32
15.312,-29.13
15.328,-38.44
15.343,-45.88
15.359,-51.09
15.375,-54.33
15.390,-55.75
15.406,-55.26
15.421,-52.44
15.437,-46.95
15.453,-38.81
15.468,-28.25
15.484,-15.62
15.500,-1.27
15.515,14.27
15.531,29.86
15.546,43.54
15.562,53.21
15.578,57.5
15.593,56.4
15.609,51.25
15.625,43.98
15.640,36.18
15.656,28.74
15.671,21.74
15.687,14.8
15.703,7.71
15.718,0.54
15.734,-6.54
15.750,-13.4
15.765,-20.3
15.781,-27.53
15.796,-34.98
15.812,-41.87
15.828,-46.97
15.843,-48.97
15.859,-47.23
15.875,-42.17
15.890,-34.84
15.906,-26.72
15.921,-18.99
15.937,-12.29
15.953,-7.01
15.968,-3.6
15.984,-2.61
16.000,-4.51
16.015,-9.41
16.031,-16.78
16.046,-25.52
16.062,-34.3
16.078,-41.74
16.093,-46.65
16.109,-48.31
16.125,-46.48
16.140,-41.67
16.156,-35.07
16.171,-28.16
16.187,-22.32
16.203,-18.21
16.218,-15.61
16.234,-13.67
16.250,-11.55
16.265,-9.25
16.281,-7.58
16.296,-7.89
16.312,-10.76
16.328,-15.58
16.343,-20.41
16.359,-23.12
16.375,-22.49
16.390,-19.1
16.406,-15.16
16.421,-13.31
16.437,-15.33
16.453,-20.83
16.468,-27.64
16.484,-32.81
16.500,-34.38
16.515,-32.25
16.531,-28.31
16.546,-25.2
16.562,-24.74
16.578,-27.2
16.593,-31.25
16.609,-35.0
16.625,-36.96
16.640,-36.79
16.656,-35.09
16.671,-32.99
16.687,-31.26
16.703,-30.02
16.718,-28.73
16.734,-26.39
16.750,-21.83
16.765,-13.72
16.781,-0.68
16.796,18.15
16.812,42.72
16.828,71.48
16.843,101.5
16.859,129.02
16.875,150.74
16.890,164.63
16.906,170.36
16.921,169.2
16.937,162.9
16.953,153.25
16.968,141.59
16.984,128.79
17.000,115.41
17.015,102.04
17.031,89.01
17.046,76.37
17.062,64.19
17.078,52.47
17.093,41.73
17.109,32.77
17.125,26.41
17.140,23.15
17.156,22.85
17.171,24.75
17.187,27.8
17.203,31.07
17.218,34.02
17.234,36.77
17.250,39.84
17.265,43.71
17.281,48.56
17.296,54.04
17.312,59.57
17.328,64.54
17.343,68.7
17.359,71.98
17.375,74.55
17.390,76.45
17.406,77.53
17.421,77.39
17.437,75.73
17.453,72.5
17.468,68.02
17.484,62.63
17.500,56.15
17.515,47.53
17.531,34.78
17.546,15.82
17.562,-10.41
17.578,-42.88
17.593,-78.25
17.609,-111.58
17.625,-138.16
17.640,-154.94
17.656,-161.48
17.671,-159.76
17.687,-152.72
17.703,-142.92
17.718,-131.83
17.734,-119.95
17.750,-107.37
17.765,-94.66
17.781,-82.67
17.796,-72.32
17.812,-64.12
17.828,-57.61
17.843,-51.55
17.859,-44.58
17.875,-36.06
17.890,-26.64
17.906,-18.41
17.921,-13.89
17.937,-14.55
17.953,-19.51
17.968,-24.76
17.984,-24.21
18.000,-11.9
18.015,15.35
18.031,56.1
18.046,104.48
18.062,152.17
18.078,191.55
18.093,217.86
18.109,230.31
18.125,231.07
18.140,223.56
18.156,210.97
18.171,195.41
18.187,178.41
18.203,161.49
18.218,146.62
18.234,135.9
18.250,130.77
18.265,131.17
18.281,135.21
18.296,139.85
18.312,141.73
18.328,138.47
18.343,129.53
18.359,116.17
18.375,100.54
18.390,84.66
18.406,69.3
18.421,53.79
18.437,36.68
18.453,16.84
18.468,-5.43
18.484,-28.13
18.500,-48.36
18.515,-63.55
18.531,-72.54
18.546,-76.04
18.562,-76.01
18.578,-74.6
18.593,-73.31
18.609,-72.64
18.625,-72.24
18.640,-71.65
18.656,-70.59
18.671,-69.18
18.687,-67.76
18.703,-66.59
18.718,-65.77
18.734,-65.37
18.750,-65.54
18.765,-66.4
18.781,-67.77
18.796,-69.14
18.812,-69.71
18.828,-68.9
18.843,-66.8
18.859,-64.51
18.875,-64.21
18.890,-68.54
18.906,-79.9
18.921,-99.26
18.937,-125.85
18.953,-157.1
18.968,-189.41
18.984,-218.84
19.000,-242.27
19.015,-258.04
19.031,-265.99
19.046,-267.51
19.062,-264.42
19.078,-257.9
19.093,-247.42
19.109,-230.69
19.125,-204.86
19.140,-168.51
19.156,-123.63
19.171,-75.69
19.187,-32.22
19.203,0.11
19.218,18.17
19.234,23.16
19.250,19.48
19.265,11.93
19.281,3.64
19.296,-4.87
19.312,-14.47
19.328,-25.73
19.343,-37.82
19.359,-48.35
19.375,-54.76
19.390,-55.4
19.406,-50.67
19.421,-42.62
19.437,-34.21
19.453,-27.62
19.468,-23.42
19.484,-20.49
19.500,-16.61
19.515,-9.98
19.531,-0.05
19.546,11.99
19.562,24.07
19.578,34.08
19.593,40.95
19.609,44.86
19.625,46.59
19.640,46.89
19.656,45.72
19.671,42.44
19.687,36.26
19.703,27.28
19.718,16.94
19.734,7.61
19.750,1.42
19.765,-0.69
19.781,0.47
19.796,2.65
19.812,3.12
19.828,0.02
19.843,-7.11
19.859,-17.48
19.875,-29.78
19.890,-43.2
19.906,-57.78
19.921,-73.85
19.937,-91.9
19.953,-112.39
19.968,-135.51
19.984,-161.48
20.000,-190.55
20.015,-222.13
20.031,-253.94
20.046,-281.69
20.062,-299.43
20.078,-301.37
20.093,-284.37
20.109,-249.23
20.125,-201.18
20.140,-147.97
20.156,-97.09
20.171,-53.3
20.187,-17.91
20.203,10.2
20.218,33.29
20.234,53.1
20.250,70.53
20.265,85.8
20.281,99.32
20.296,112.25
20.312,126.19
20.328,142.35
20.343,160.68
20.359,180.05
20.375,199.09
20.390,217.36
20.406,235.18
20.421,253.04
20.437,270.74
20.453,286.88
20.468,299.31
20.484,306.27
20.500,307.38
20.515,303.81
20.531,297.99
20.546,291.89
20.562,285.6
20.578,276.77
20.593,261.19
20.609,234.38
20.625,193.29
20.640,137.92
20.656,71.56
20.671,0.73
20.687,-66.19
20.703,-121.39
20.718,-159.38
20.734,-178.4
20.750,-180.25
20.765,-169.09
20.781,-149.51
20.796,-125.44
20.812,-99.59
20.828,-73.44
20.843,-48.12
20.859,-24.43
20.875,-3.45
20.890,13.69
20.906,25.75
20.921,32.06
20.937,32.69
20.953,28.77
20.968,22.32
20.984,15.33
21.000,9.34
21.015,4.6
21.031,0.6
21.046,-3.35
21.062,-7.06
21.078,-9.54
21.093,-9.25
21.109,-5.26
21.125,1.73
21.140,9.67
21.156,15.59
21.171,17.2
21.187,13.9
21.203,7.03
21.218,-1.22
21.234,-8.91
21.250,-15.34
21.265,-21.39
21.281,-28.66
21.296,-38.47
21.312,-50.78
21.328,-63.95
21.343,-75.49
21.359,-83.39
21.375,-87.03
21.390,-87.25
21.406,-86.01
21.421,-85.08
21.437,-85.35
21.453,-86.5
21.468,-87.62
21.484,-87.9
21.500,-86.97
21.515,-84.98
21.531,-81.97
21.546,-77.5
21.562,-70.43
21.578,-59.59
21.593,-44.2
21.609,-24.72
21.625,-3.02
21.640,18.22
21.656,36.4
21.671,49.87
21.687,58.22
21.703,62.33
21.718,63.3
21.734,62.34
21.750,60.37
21.765,58.26
21.781,56.91
21.796,56.85
21.812,57.96
21.828,59.24
21.843,59.12
21.859,56.01
21.875,49.16
21.890,38.85
21.906,26.34
21.921,13.42
21.937,2.22
21.953,-4.93
21.968,-5.92
21.984,0.65
22.000,14.61
22.015,33.72
22.031,53.91
22.046,70.62
22.062,80.42
22.078,82.14
22.093,76.9
22.109,66.59
22.125,52.62
22.140,35.13
22.156,13.75
22.171,-11.41
22.187,-38.96
22.203,-66.35
22.218,-91.07
22.234,-111.49
22.250,-127.33
22.265,-139.25
22.281,-147.99
22.296,-153.33
22.312,-154.38
22.328,-150.05
22.343,-139.81
22.359,-124.24
22.375,-104.9
22.390,-83.86
22.406,-62.94
22.421,-43.42
22.437,-25.62
22.453,-9.23
22.468,6.27
22.484,21.28
22.500,35.72
22.515,48.94
22.531,59.77
22.546,67.35
22.562,71.46
22.578,72.92
22.593,72.94
22.609,72.14
22.625,69.62
22.640,63.05
22.656,49.85
22.671,28.95
22.687,2.45
22.703,-24.5
22.718,-45.02
22.734,-53.19
22.750,-46.12
22.765,-25.11
22.781,5.12
22.796,38.33
22.812,68.94
22.828,93.6
22.843,111.0
22.859,121.22
22.875,124.46
22.890,120.5
22.906,109.13
22.921,91.22
22.937,69.46
22.953,48.14
22.968,32.05
22.984,24.62
23.000,26.48
23.015,35.15
23.031,46.28
23.046,55.65
23.062,60.91
23.078,62.36
23.093,61.9
23.109,61.48
23.125,61.48
23.140,60.48
23.156,56.04
23.171,46.68
23.187,33.15
23.203,18.17
23.218,5.12
23.234,-3.64
23.250,-7.88
23.265,-9.27
23.281,-10.44
23.296,-13.34
23.312,-18.12
23.328,-23.28
23.343,-26.84
23.359,-27.58
23.375,-25.62
23.390,-22.19
23.406,-18.64
23.421,-16.52
23.437,-16.24
23.453,-16.92
23.468,-16.82
23.484,-14.51
23.500,-9.81
23.515,-3.67
23.531,2.49
23.546,7.86
23.562,10.85
23.578,10.46
23.593,6.96
23.609,1.83
23.625,-3.12
23.640,-6.85
23.656,-9.29
23.671,-10.68
23.687,-10.83
23.703,-11.77
23.718,-15.9
23.734,-24.45
23.750,-36.93
23.765,-52.0
23.781,-68.77
23.796,-87.18
23.812,-107.03
23.828,-127.46
23.843,-150.65
23.859,-180.17
23.875,-219.19
23.890,-269.09
23.906,-329.18
23.921,-397.54
23.937,-470.72
23.953,-543.43
23.968,-585.69
23.984,-572.42
24.000,-496.25
24.015,-374.02
24.031,-236.51
24.046,-109.82
24.062,-7.25
24.078,69.24
24.093,123.79
24.109,160.32
24.125,182.81
24.140,191.61
24.156,187.48
24.171,173.56
24.187,155.45
24.203,138.45
24.218,126.01
24.234,119.25
24.250,117.19
24.265,115.28
24.281,108.53
24.296,95.3
24.312,78.75
24.328,65.47
24.343,61.56
24.359,70.1
24.375,89.99
24.390,117.02
24.406,144.22
24.421,165.26
24.437,177.18
24.453,181.05
24.468,180.27
24.484,177.71
24.500,174.47
24.515,170.24
24.531,164.19
24.546,155.71
24.562,145.28
24.578,134.56
24.593,125.86
24.609,120.91
24.625,119.68
24.640,120.09
24.656,119.22
24.671,114.61
24.687,105.44
24.703,92.96
24.718,79.93
24.734,68.87
24.750,60.66
24.765,53.98
24.781,46.31
24.796,35.84
24.812,22.97
24.828,10.39
24.843,1.32
24.859,-2.59
24.875,-2.43
24.890,-1.45
24.906,-3.36
24.921,-10.03
24.937,-20.64
24.953,-32.57
24.968,-43.37
24.984,-52.36
25.000,-61.02
25.015,-71.85
25.031,-86.34
25.046,-103.92
25.062,-121.76
25.078,-136.12
25.093,-143.86
25.109,-143.53
25.125,-135.6
25.140,-121.83
25.156,-104.5
25.171,-85.49
25.187,-66.04
25.203,-46.86
25.218,-28.7
25.234,-12.62
25.250,0.28
25.265,9.29
25.281,14.87
25.296,18.92
25.312,24.37
25.328,34.01
25.343,49.01
25.359,67.93
25.375,86.74
25.390,100.74
25.406,106.33
25.421,102.71
25.437,92.05
25.453,78.26
25.468,65.12
25.484,54.9
25.500,47.9
25.515,42.88
25.531,38.67
25.546,34.78
25.562,31.96
25.578,31.51
25.593,34.36
25.609,40.29
25.625,47.65
25.640,53.52
25.656,54.79
25.671,49.64
25.687,38.44
25.703,23.92
25.718,10.0
25.734,-0.18
25.750,-5.6
25.765,-7.35
25.781,-7.95
25.796,-9.38
25.812,-11.99
25.828,-14.61
25.843,-15.8
25.859,-15.03
25.875,-13.6
25.890,-13.9
25.906,-17.72
25.921,-25.16
25.937,-34.06
25.953,-41.25
25.968,-44.07
25.984,-41.77
26.000,-35.45
26.015,-27.84
26.031,-21.78
26.046,-18.87
26.062,-18.98
26.078,-20.36
26.093,-20.91
26.109,-19.35
26.125,-15.84
26.140,-11.66
26.156,-8.38
26.171,-7.05
26.187,-7.72
26.203,-9.55
26.218,-11.52
26.234,-13.08
26.250,-14.55
26.265,-16.6
26.281,-19.55
26.296,-22.79
26.312,-24.79
26.328,-23.85
26.343,-19.24
26.359,-11.81
26.375,-3.83
26.390,1.82
26.406,3.2
26.421,0.27
26.437,-5.17
26.453,-10.28
26.468,-12.62
26.484,-11.51
26.500,-8.23
26.515,-4.94
26.531,-3.67
26.546,-5.24
26.562,-9.0
26.578,-13.38
26.593,-17.14
26.609,-19.78
26.625,-22.06
26.640,-25.05
26.656,-29.06
26.671,-33.03
26.687,-34.74
26.703,-31.65
26.718,-22.11
26.734,-6.41
26.750,13.39
26.765,33.9
26.781,51.69
26.796,64.5
26.812,71.53
26.828,73.36
26.843,71.23
26.859,66.35
26.875,59.72
26.890,52.29
26.906,45.21
26.921,39.72
26.937,37.1
26.953,37.86
26.968,41.61
26.984,47.12
27.000,52.74
27.015,57.55
27.031,61.66
27.046,66.17
27.062,72.24
27.078,80.26
27.093,88.92
27.109,95.98
27.125,98.78
27.140,95.66
27.156,86.78
27.171,73.89
27.187,59.57
27.203,46.08
27.218,34.82
27.234,25.67
27.250,17.83
27.265,10.34
27.281,2.52
27.296,-5.2
27.312,-11.81
27.328,-16.25
27.343,-18.09
27.359,-18.02
27.375,-17.84
27.390,-19.59
27.406,-24.55
27.421,-32.65
27.437,-41.93
27.453,-49.81
27.468,-54.2
27.484,-54.57
27.500,-52.2
27.515,-49.26
27.531,-47.41
27.546,-46.99
27.562,-47.04
27.578,-45.84
27.593,-42.58
27.609,-37.9
27.625,-33.73
27.640,-32.35
27.656,-34.97
27.671,-40.73
27.687,-47.26
27.703,-52.0
27.718,-53.28
27.734,-51.39
27.750,-48.13
27.765,-45.43
27.781,-44.44
27.796,-44.85
27.812,-45.27
27.828,-44.25
27.843,-41.39
27.859,-37.38
27.875,-33.67
27.890,-31.36
27.906,-30.4
27.921,-29.82
27.937,-28.21
27.953,-24.52
27.968,-18.59
27.984,-10.8
28.000,-1.58
28.015,8.8
28.031,20.47
28.046,33.64
28.062,48.13
28.078,63.37
28.093,78.53
28.109,92.31
28.125,103.55
28.140,111.12
28.156,114.31
28.171,113.08
28.187,108.25
28.203,101.09
28.218,92.79
28.234,83.92
28.250,73.98
28.265,62.13
28.281,47.75
28.296,31.43
28.312,14.81
28.328,0.06
28.343,-11.14
28.359,-18.46
28.375,-22.61
28.390,-24.97
28.406,-26.51
28.421,-27.64
28.437,-28.12
28.453,-27.68
28.468,-26.55
28.484,-25.37
28.500,-25.08
28.515,-26.2
28.531,-28.72
28.546,-31.9
28.562,-34.7
28.578,-36.31
28.593,-36.29
28.609,-35.05
28.625,-33.3
28.640,-32.09
28.656,-31.94
28.671,-32.95
28.687,-34.56
28.703,-35.86
28.718,-36.18
28.734,-35.49
28.750,-34.5
28.765,-34.11
28.781,-35.17
28.796,-37.54
28.812,-40.4
28.828,-42.56
28.843,-43.01
28.859,-41.64
28.875,-39.23
28.890,-36.96
28.906,-35.44
28.921,-34.45
28.937,-32.86
28.953,-29.51
28.968,-24.27
28.984,-18.25
29.000,-13.49
29.015,-11.69
29.031,-13.14
29.046,-16.41
29.062,-19.02
29.078,-18.81
29.093,-15.26
29.109,-9.86
29.125,-4.95
29.140,-2.53
29.156,-2.6
29.171,-3.38
29.187,-2.32
29.203,2.44
29.218,11.0
29.234,21.78
29.250,32.43
29.265,41.35
29.281,48.31
29.296,54.49
29.312,61.46
29.328,69.88
29.343,79.12
29.359,87.49
29.375,93.11
29.390,94.8
29.406,92.67
29.421,87.7
29.437,81.24
29.453,74.17
29.468,66.47
29.484,57.55
29.500,46.96
29.515,34.97
29.531,22.83
29.546,12.23
29.562,4.43
29.578,-0.28
29.593,-2.82
29.609,-4.76
29.625,-7.41
29.640,-11.32
29.656,-15.9
29.671,-19.78
29.687,-21.44
29.703,-20.0
29.718,-15.46
29.734,-8.77
29.750,-1.21
29.765,6.13
29.781,12.63
29.796,18.31
29.812,23.41
29.828,28.17
29.843,32.45
29.859,35.78
29.875,37.59
29.890,37.53
29.906,35.77
29.921,32.7
29.937,28.93
29.953,24.76
29.968,20.04
29.984,14.26
30.000,6.83
30.015,-2.38
30.031,-12.9
30.046,-23.44
30.062,-32.55
30.078,-39.02
30.093,-42.61
30.109,-44.2
30.125,-45.33
30.140,-47.37
30.156,-51.01
30.171,-56.04
30.187,-61.51
30.203,-66.7
30.218,-71.43
30.234,-76.37
30.250,-82.34
30.265,-89.48
30.281,-97.06
30.296,-103.28
30.312,-106.27
30.328,-104.79
30.343,-98.86
30.359,-89.62
30.375,-78.8
30.390,-67.83
30.406,-57.49
30.421,-48.26
30.437,-40.4
30.453,-34.02
30.468,-28.99
30.484,-24.84
30.500,-20.74
30.515,-15.94
30.531,-10.06
30.546,-3.38
30.562,3.44
30.578,9.69
30.593,15.04
30.609,19.45
30.625,22.89
30.640,25.23
30.656,26.35
30.671,26.38
30.687,25.75
30.703,25.11
30.718,24.79
30.734,24.64
30.750,23.9
30.765,21.96
30.781,18.81
30.796,15.13
30.812,12.11
30.828,10.58
30.843,10.73
30.859,11.96
30.875,13.36
30.890,14.09
30.906,13.87
30.921,13.12
30.937,12.52
30.953,12.63
30.968,13.3
30.984,13.83
31.000,13.17
31.015,10.49
31.031,5.74
31.046,-0.56
31.062,-7.44
31.078,-14.08
31.093,-20.23
31.109,-26.11
31.125,-32.04
31.140,-38.2
31.156,-44.36
31.171,-49.72
31.187,-53.41
31.203,-54.58
31.218,-53.12
31.234,-49.54
31.250,-44.98
31.265,-40.66
31.281,-37.25
31.296,-34.64
31.312,-31.76
31.328,-27.52
31.343,-21.28
31.359,-13.8
31.375,-6.91
31.390,-2.68
31.406,-2.43
31.421,-5.7
31.437,-10.82
31.453,-15.15
31.468,-16.77
31.484,-14.94
31.500,-10.17
31.515,-3.65
31.531,3.65
31.546,11.39
31.562,20.21
31.578,31.26
31.593,46.04
31.609,65.53
31.625,89.89
31.640,117.79
31.656,146.46
31.671,172.44
31.687,192.06
31.703,202.98
31.718,204.39
31.734,197.28
31.750,183.66
31.765,165.93
31.781,146.11
31.796,125.58
31.812,105.36
31.828,85.96
31.843,67.78
31.859,50.81
31.875,34.81
31.890,19.61
31.906,5.06
31.921,-8.45
31.937,-20.37
31.953,-30.0
31.968,-36.96
31.984,-41.37
32.000,-44.05
32.015,-46.16
32.031,-48.55
32.046,-51.71
32.062,-55.23
32.078,-58.46
32.093,-60.78
32.109,-62.19
32.125,-63.33
32.140,-65.26
32.156,-68.61
32.171,-72.95
32.187,-76.97
32.203,-78.82
32.218,-77.46
32.234,-73.08
32.250,-66.93
32.265,-60.53
32.281,-54.98
32.296,-50.46
32.312,-46.14
32.328,-40.99
32.343,-34.19
32.359,-25.67
32.375,-15.91
32.390,-5.51
32.406,4.6
32.421,12.74
32.437,16.3
32.453,12.82
32.468,1.06
32.484,-17.8
32.500,-40.14
32.515,-61.17
32.531,-76.64
32.546,-84.16
32.562,-83.33
32.578,-75.03
32.593,-60.26
32.609,-39.87
32.625,-14.43
32.640,14.96
32.656,46.52
32.671,77.75
32.687,105.9
32.703,128.66
32.718,144.12
32.734,150.86
32.750,148.08
32.765,137.01
32.781,121.3
32.796,106.57
32.812,98.62
32.828,100.78
32.843,112.4
32.859,128.43
32.875,141.25
32.890,143.72
32.906,132.19
32.921,107.96
32.937,76.31
32.953,44.02
32.968,16.39
32.984,-4.66
33.000,-20.59
33.015,-34.55
33.031,-48.84
33.046,-63.6
33.062,-76.82
33.078,-86.1
33.093,-90.49
33.109,-91.55
33.125,-92.83
33.140,-98.02
33.156,-109.22
33.171,-125.72
33.187,-144.94
33.203,-164.03
33.218,-181.72
33.234,-198.57
33.250,-215.88
33.265,-234.01
33.281,-251.2
33.296,-263.94
33.312,-268.91
33.328,-265.0
33.343,-253.83
33.359,-239.03
33.375,-224.38
33.390,-211.6
33.406,-200.38
33.421,-188.43
33.437,-173.18
33.453,-152.93
33.468,-128.25
33.484,-101.27
33.500,-74.51
33.515,-50.55
33.531,-30.54
33.546,-14.67
33.562,-1.82
33.578,9.43
33.593,20.25
33.609,30.92
33.625,40.75
33.640,49.35
33.656,56.36
33.671,61.79
33.687,65.3
33.703,66.21
33.718,64.56
33.734,62.16
33.750,62.34
33.765,67.88
33.781,79.24
33.796,93.09
33.812,104.27
33.828,108.6
33.843,105.25
33.859,97.56
33.875,90.86
33.890,90.29
33.906,97.57
33.921,111.46
33.937,128.43
33.953,145.39
33.968,160.05
33.984,170.36
34.000,174.47
34.015,171.34
34.031,162.12
34.046,149.9
34.062,139.18
34.078,132.61
34.093,130.02
34.109,128.17
34.125,121.53
34.140,105.08
34.156,76.77
34.171,39.52
34.187,0.22
34.203,-32.57
34.218,-52.63
34.234,-57.73
34.250,-49.93
34.265,-34.11
34.281,-15.39
34.296,1.89
34.312,15.25
34.328,24.04
34.343,29.1
34.359,31.83
34.375,33.44
34.390,34.38
34.406,33.76
34.421,30.6
34.437,24.59
34.453,16.89
34.468,9.83
34.484,5.83
34.500,4.78
34.515,4.16
34.531,0.77
34.546,-7.04
34.562,-17.73
34.578,-27.77
34.593,-34.05
34.609,-35.81
34.625,-34.12
34.640,-31.15
34.656,-28.91
34.671,-28.21
34.687,-29.04
34.703,-30.7
34.718,-32.61
34.734,-34.02
34.750,-34.49
34.765,-33.73
34.781,-31.95
34.796,-30.14
34.812,-29.43
34.828,-30.25
34.843,-31.72
34.859,-32.52
34.875,-31.65
34.890,-29.58
34.906,-28.01
34.921,-28.89
34.937,-32.89
34.953,-39.11
34.968,-45.8
34.984,-51.19
35.000,-54.77
35.015,-57.06
35.031,-58.83
35.046,-59.79
35.062,-58.89
35.078,-54.93
35.093,-47.46
35.109,-37.47
35.125,-26.62
35.140,-16.37
35.156,-7.04
35.171,1.82
35.187,11.06
35.203,21.78
35.218,35.11
35.234,52.26
35.250,73.96
35.265,99.73
35.281,127.5
35.296,154.33
35.312,177.23
35.328,193.96
35.343,203.65
35.359,206.24
35.375,202.28
35.390,192.6
35.406,178.75
35.421,163.03
35.437,148.75
35.453,139.06
35.468,135.92
35.484,139.09
35.500,145.88
35.515,151.99
35.531,152.71
35.546,144.8
35.562,127.12
35.578,100.71
35.593,68.02
35.609,32.21
35.625,-3.67
35.640,-37.23
35.656,-66.77
35.671,-91.3
35.687,-110.34
35.703,-123.57
35.718,-130.98
35.734,-132.94
35.750,-130.36
35.765,-124.52
35.781,-117.22
35.796,-110.04
35.812,-104.05
35.828,-99.55
35.843,-95.86
35.859,-91.96
35.875,-86.84
35.890,-80.12
35.906,-71.99
35.921,-63.35
35.937,-55.12
35.953,-47.83
35.968,-41.46
35.984,-35.72
36.000,-30.49
36.015,-26.07
36.031,-23.07
36.046,-21.89
36.062,-22.31
36.078,-23.56
36.093,-24.71
36.109,-25.22
36.125,-25.38
36.140,-26.23
36.156,-28.56
36.171,-32.23
36.187,-36.17
36.203,-38.7
36.218,-38.65
36.234,-36.01
36.250,-31.91
36.265,-27.8
36.281,-24.69
36.296,-22.46
36.312,-20.07
36.328,-16.65
36.343,-12.06
36.359,-7.39
36.375,-4.38
36.390,-4.6
36.406,-8.54
36.421,-15.39
36.437,-23.33
36.453,-30.41
36.468,-35.37
36.484,-37.9
36.500,-38.67
36.515,-38.88
36.531,-39.56
36.546,-41.14
36.562,-43.03
36.578,-43.91
36.593,-42.4
36.609,-37.73
36.625,-30.17
36.640,-20.95
36.656,-11.86
36.671,-4.38
36.687,0.73
36.703,3.69
36.718,5.29
36.734,6.28
36.750,7.03
36.765,7.38
36.781,7.08
36.796,5.92
36.812,4.19
36.828,2.58
36.843,1.78
36.859,1.84
36.875,1.87
36.890,0.29
36.906,-4.3
36.921,-11.84
36.937,-20.21
36.953,-25.61
36.968,-24.31
36.984,-14.59
37.000,1.89
37.015,20.37
37.031,35.0
37.046,41.22
37.062,37.57
37.078,25.88
37.093,10.07
37.109,-6.01
37.125,-20.05
37.140,-31.6
37.156,-41.32
37.171,-49.83
37.187,-57.0
37.203,-61.86
37.218,-63.25
37.234,-60.66
37.250,-54.74
37.265,-47.01
37.281,-38.49
37.296,-28.99
37.312,-17.06
37.328,-1.32
37.343,18.0
37.359,37.88
37.375,53.11
37.390,57.99
37.406,49.42
37.421,29.29
37.437,4.24
37.453,-16.51
37.468,-25.57
37.484,-20.38
37.500,-4.37
37.515,15.29
37.531,30.69
37.546,36.78
37.562,33.28
37.578,23.95
37.593,14.83
37.609,10.97
37.625,14.27
37.640,22.84
37.656,32.13
37.671,36.77
37.687,32.4
37.703,16.68
37.718,-10.23
37.734,-45.31
37.750,-83.07
37.765,-116.13
37.781,-136.12
37.796,-135.41
37.812,-109.66
37.828,-59.93
37.843,6.68
37.859,78.19
37.875,141.77
37.890,187.61
37.906,211.65
37.921,215.89
37.937,206.11
37.953,188.59
37.968,167.36
37.984,143.46
38.000,115.58
38.015,82.8
38.031,45.89
38.046,7.75
38.062,-27.32
38.078,-55.9
38.093,-76.31
38.109,-88.82
38.125,-95.03
38.140,-96.65
38.156,-94.13
38.171,-86.72
38.187,-73.89
38.203,-56.45
38.218,-37.74
38.234,-22.84
38.250,-16.46
38.265,-20.96
38.281,-34.96
38.296,-53.42
38.312,-70.43
38.328,-82.29
38.343,-89.54
38.359,-97.22
38.375,-111.87
38.390,-137.98
38.406,-174.54
38.421,-214.55
38.437,-246.52
38.453,-258.89
38.468,-243.94
38.484,-200.18
38.500,-132.32
38.515,-48.99
38.531,39.92
38.546,125.29
38.562,199.65
38.578,256.84
38.593,291.75
38.609,301.43
38.625,286.17
38.640,250.21
38.656,201.36
38.671,149.25
38.687,102.21
38.703,65.04
38.718,37.9
38.734,16.81
38.750,-3.94
38.765,-29.17
38.781,-60.94
38.796,-97.84
38.812,-135.89
38.828,-170.42
38.843,-197.94
38.859,-217.38
38.875,-229.96
38.890,-238.17
38.906,-244.12
38.921,-248.8
38.937,-251.94
38.953,-253.02
38.968,-252.18
38.984,-250.11
39.000,-247.34
39.015,-243.22
39.031,-235.69
39.046,-222.39
39.062,-202.63
39.078,-178.44
39.093,-154.37
39.109,-135.19
39.125,-123.01
39.140,-116.03
39.156,-109.7
39.171,-99.04
39.187,-81.26
39.203,-56.55
39.218,-26.8
39.234,6.37
39.250,42.78
39.265,83.08
39.281,127.3
39.296,172.98
39.312,215.3
39.328,248.55
39.343,268.14
39.359,272.7
39.375,264.24
39.390,247.38
39.406,227.45
39.421,208.77
39.437,193.33
39.453,180.41
39.468,167.24
39.484,150.45
39.500,128.31
39.515,101.94
39.531,75.28
39.546,53.61
39.562,41.19
39.578,39.88
39.593,48.6
39.609,64.06
39.625,82.03
39.640,99.13
39.656,112.98
39.671,122.63
39.687,127.85
39.703,128.85
39.718,126.07
39.734,120.09
39.750,111.97
39.765,102.93
39.781,94.42
39.796,87.38
39.812,82.24
39.828,78.68
39.843,75.82
39.859,72.77
39.875,68.84
39.890,64.21
39.906,59.77
39.921,56.66
39.937,55.77
39.953,56.96
39.968,59.12
39.984,60.22
40.000,58.27
40.015,51.8
40.031,40.7
40.046,26.54
40.062,11.82
40.078,-0.66
40.093,-9.06
40.109,-12.91
40.125,-13.39
40.140,-12.2
40.156,-10.9
40.171,-10.32
40.187,-10.34
40.203,-10.5
40.218,-10.4
40.234,-10.1
40.250,-9.74
40.265,-9.56
40.281,-9.33
40.296,-8.47
40.312,-6.42
40.328,-2.96
40.343,1.72
40.359,6.79
40.375,11.21
40.390,14.12
40.406,15.19
40.421,14.71
40.437,13.32
40.453,11.68
40.468,10.17
40.484,8.82
40.500,7.37
40.515,5.54
40.531,3.27
40.546,0.83
40.562,-1.14
40.578,-2.1
40.593,-1.6
40.609,0.48
40.625,3.84
40.640,7.68
40.656,11.11
40.671,13.39
40.687,14.11
40.703,13.56
40.718,12.22
40.734,10.59
40.750,8.92
40.765,7.15
40.781,4.81
40.796,1.66
40.812,-1.96
40.828,-5.57
40.843,-8.5
40.859,-10.52
40.875,-12.04
40.890,-13.78
40.906,-16.33
40.921,-19.85
40.937,-23.91
40.953,-27.57
40.968,-30.12
40.984,-31.18
41.000,-30.83
41.015,-29.49
41.031,-27.54
41.046,-25.04
41.062,-21.64
41.078,-16.82
41.093,-10.07
41.109,-1.28
41.125,9.17
41.140,20.26
41.156,30.58
41.171,38.64
41.187,43.2
41.203,43.72
41.218,40.3
41.234,33.66
41.250,24.59
41.265,14.18
41.281,3.41
41.296,-6.86
41.312,-15.66
41.328,-22.07
41.343,-25.41
41.359,-25.43
41.375,-22.48
41.390,-17.7
41.406,-12.41
41.421,-7.91
41.437,-5.22
41.453,-4.83
41.468,-6.67
41.484,-10.36
41.500,-15.26
41.515,-20.68
41.531,-26.04
41.546,-30.87
41.562,-34.88
41.578,-38.01
41.593,-40.16
41.609,-41.24
41.625,-41.09
41.640,-39.77
41.656,-37.55
41.671,-35.0
41.687,-32.8
41.703,-31.38
41.718,-30.92
41.734,-31.24
41.750,-32.25
41.765,-33.99
41.781,-36.5
41.796,-39.7
41.812,-42.87
41.828,-44.72
41.843,-43.52
41.859,-37.86
41.875,-27.03
41.890,-11.43
41.906,7.51
41.921,28.26
41.937,49.44
41.953,70.56
41.968,91.59
41.984,112.32
42.000,131.77
42.015,147.78
42.031,157.64
42.046,159.3
42.062,152.66
42.078,139.68
42.093,123.84
42.109,108.3
42.125,94.47
42.140,81.85
42.156,68.72
42.171,53.91
42.187,37.83
42.203,22.48
42.218,10.33
42.234,2.78
42.250,-0.58
42.265,-1.86
42.281,-3.39
42.296,-6.51
42.312,-10.94
42.328,-15.27
42.343,-18.02
42.359,-18.46
42.375,-17.12
42.390,-15.17
42.406,-13.99
42.421,-14.15
42.437,-15.37
42.453,-16.54
42.468,-16.44
42.484,-14.53
42.500,-11.02
42.515,-6.85
42.531,-3.01
42.546,-0.11
42.562,1.93
42.578,3.49
42.593,5.04
42.609,6.59
42.625,7.72
42.640,7.8
42.656,6.23
42.671,2.82
42.687,-2.04
42.703,-7.65
42.718,-13.12
42.734,-17.83
42.750,-21.62
42.765,-24.55
42.781,-26.85
42.796,-28.57
42.812,-29.56
42.828,-29.41
42.843,-27.89
42.859,-25.06
42.875,-21.48
42.890,-18.14
42.906,-15.76
42.921,-14.76
42.937,-14.97
42.953,-15.77
42.968,-16.49
42.984,-16.75
43.000,-16.51
43.015,-16.1
43.031,-15.95
43.046,-16.15
43.062,-16.37
43.078,-16.13
43.093,-14.88
43.109,-12.47
43.125,-9.29
43.140,-5.92
43.156,-2.91
43.171,-0.51
43.187,1.45
43.203,3.24
43.218,5.06
43.234,6.9
43.250,8.46
43.265,9.35
43.281,9.5
43.296,9.13
43.312,8.72
43.328,8.88
43.343,9.9
43.359,11.83
43.375,14.43
43.390,17.2
43.406,19.64
43.421,21.5
43.437,22.77
43.453,23.52
43.468,23.78
43.484,23.3
43.500,21.6
43.515,18.3
43.531,13.09
43.546,6.25
43.562,-1.47
43.578,-9.1
43.593,-15.9
43.609,-21.57
43.625,-26.31
43.640,-30.67
43.656,-34.96
43.671,-39.19
43.687,-42.89
43.703,-45.48
43.718,-46.61
43.734,-46.38
43.750,-45.2
43.765,-43.47
43.781,-41.34
43.796,-38.45
43.812,-34.38
43.828,-28.78
43.843,-21.83
43.859,-14.21
43.875,-6.88
43.890,-0.72
43.906,3.88
43.921,6.97
43.937,9.21
43.953,11.2
43.968,13.43
43.984,16.05
44.000,18.76
44.015,21.25
44.031,23.09
44.046,24.2
44.062,24.62
44.078,24.62
44.093,24.45
44.109,24.24
44.125,23.92
44.140,23.24
44.156,22.09
44.171,20.53
44.187,18.86
44.203,17.51
44.218,16.67
44.234,16.4
44.250,16.45
44.265,16.42
44.281,15.99
44.296,15.0
44.312,13.36
44.328,11.01
44.343,7.72
44.359,3.1
44.375,-2.92
44.390,-10.06
44.406,-17.58
44.421,-24.44
44.437,-29.73
44.453,-33.11
44.468,-34.79
44.484,-35.28
44.500,-35.25
44.515,-34.96
44.531,-34.33
44.546,-33.03
44.562,-30.7
44.578,-27.25
44.593,-22.98
44.609,-18.28
44.625,-13.49
44.640,-8.9
44.656,-4.61
44.671,-0.73
44.687,2.66
44.703,5.52
44.718,7.67
44.734,8.84
44.750,8.92
44.765,7.89
44.781,5.98
44.796,3.73
44.812,1.64
44.828,0.13
44.843,-0.65
44.859,-0.96
44.875,-1.42
44.890,-2.6
44.906,-4.79
44.921,-7.81
44.937,-10.87
44.953,-13.05
44.968,-13.58
44.984,-12.15
45.000,-8.9
45.015,-4.37
45.031,0.88
45.046,6.34
45.062,11.6
45.078,16.62
45.093,21.32
45.109,25.63
45.125,29.3
45.140,31.84
45.156,32.85
45.171,32.2
45.187,30.05
45.203,26.87
45.218,23.32
45.234,19.91
45.250,16.89
45.265,14.22
45.281,11.58
45.296,8.79
45.312,5.81
45.328,2.78
45.343,-0.03
45.359,-2.34
45.375,-4.06
45.390,-5.11
45.406,-5.44
45.421,-5.07
45.437,-3.95
45.453,-2.24
45.468,-0.23
45.484,1.62
45.500,2.8
45.515,2.93
45.531,2.03
45.546,0.65
45.562,-0.5
45.578,-0.75
45.593,0.09
45.609,1.74
45.625,3.66
45.640,5.27
45.656,6.32
45.671,6.97
45.687,7.82
45.703,9.3
45.718,11.72
45.734,14.81
45.750,18.02
45.765,20.69
45.781,22.18
45.796,22.09
45.812,20.24
45.828,16.66
45.843,11.3
45.859,4.32
45.875,-4.21
45.890,-13.99
45.906,-24.44
45.921,-34.81
45.937,-44.17
45.953,-51.77
45.968,-57.3
45.984,-60.96
46.000,-63.22
46.015,-64.52
46.031,-65.02
46.046,-64.43
46.062,-62.33
46.078,-58.44
46.093,-52.81
46.109,-45.88
46.125,-38.43
46.140,-31.19
46.156,-24.8
46.171,-19.7
46.187,-16.07
46.203,-13.93
46.218,-13.12
46.234,-13.39
46.250,-14.38
46.265,-15.64
46.281,-16.64
46.296,-16.87
46.312,-15.86
46.328,-13.24
46.343,-8.99
46.359,-3.33
46.375,3.21
46.390,9.97
46.406,16.37
46.421,21.92
46.437,26.5
46.453,30.2
46.468,33.15
46.484,35.41
46.500,36.98
46.515,37.66
46.531,37.31
46.546,35.94
46.562,33.75
46.578,31.07
46.593,28.25
46.609,25.46
46.625,22.6
46.640,19.66
46.656,16.76
46.671,14.48
46.687,13.38
46.703,13.93
46.718,15.97
46.734,18.68
46.750,20.77
46.765,20.97
46.781,18.69
46.796,14.07
46.812,7.95
46.828,1.18
46.843,-5.62
46.859,-12.19
46.875,-18.49
46.890,-24.44
46.906,-29.53
46.921,-33.15
46.937,-34.72
46.953,-33.96
46.968,-31.29
46.984,-27.51
47.000,-23.38
47.015,-19.47
47.031,-16.01
47.046,-12.81
47.062,-9.53
47.078,-6.04
47.093,-2.26
47.109,1.57
47.125,4.99
47.140,7.66
47.156,9.33
47.171,10.26
47.187,10.76
47.203,11.3
47.218,11.95
47.234,12.56
47.250,12.68
47.265,11.87
47.281,9.92
47.296,6.9
47.312,3.19
47.328,-0.9
47.343,-5.29
47.359,-9.98
47.375,-14.88
47.390,-19.65
47.406,-23.55
47.421,-25.77
47.437,-25.69
47.453,-23.23
47.468,-18.88
47.484,-13.65
47.500,-8.51
47.515,-4.08
47.531,-0.61
47.546,2.11
47.562,4.43
47.578,6.52
47.593,8.32
47.609,9.6
47.625,10.07
47.640,9.76
47.656,8.94
47.671,8.13
47.687,7.82
47.703,8.39
47.718,9.77
47.734,11.61
47.750,13.36
47.765,14.42
47.781,14.48
47.796,13.55
47.812,11.89
47.828,9.92
47.843,7.91
47.859,5.91
47.875,3.86
47.890,1.71
47.906,-0.46
47.921,-2.26
47.937,-3.13
47.953,-2.73
47.968,-1.08
47.984,1.29
48.000,3.61
48.015,5.34
48.031,6.45
48.046,7.24
48.062,8.38
48.078,10.42
48.093,13.46
48.109,17.06
48.125,20.36
48.140,22.53
48.156,23.11
48.171,22.14
48.187,20.03
48.203,17.43
48.218,14.84
48.234,12.46
48.250,10.29
48.265,8.22
48.281,6.29
48.296,4.71
48.312,3.69
48.328,3.24
48.343,3.13
48.359,3.01
48.375,2.47
48.390,1.44
48.406,0.17
48.421,-0.85
48.437,-1.16
48.453,-0.56
48.468,0.69
48.484,2.02
48.500,2.76
48.515,2.37
48.531,0.63
48.546,-2.17
48.562,-5.48
48.578,-8.65
48.593,-11.06
48.609,-12.51
48.625,-13.2
48.640,-13.47
48.656,-13.68
48.671,-13.94
48.687,-14.15
48.703,-14.09
48.718,-13.74
48.734,-13.2
48.750,-12.84
48.765,-13.02
48.781,-13.86
48.796,-15.11
48.812,-16.22
48.828,-16.65
48.843,-16.04
48.859,-14.44
48.875,-12.05
48.890,-9.48
48.906,-7.13
48.921,-5.22
48.937,-3.63
48.953,-2.01
48.968,0.03
48.984,2.65
49.000,5.6
49.015,8.52
49.031,10.84
49.046,12.1
49.062,12.31
49.078,11.56
49.093,10.21
49.109,8.57
49.125,6.83
49.140,5.05
49.156,3.33
49.171,1.83
49.187,0.82
49.203,0.6
49.218,1.18
49.234,2.35
49.250,3.62
49.265,4.4
49.281,4.36
49.296,3.45
49.312,1.88
49.328,0.12
49.343,-1.41
49.359,-2.63
49.375,-3.6
49.390,-4.65
49.406,-6.09
49.421,-7.91
49.437,-9.85
49.453,-11.52
49.468,-12.6
49.484,-13.02
49.500,-13.07
49.515,-13.06
49.531,-13.1
49.546,-13.08
49.562,-12.56
49.578,-11.15
49.593,-8.71
49.609,-5.64
49.625,-2.64
49.640,-0.26
49.656,1.29
49.671,2.4
49.687,3.63
49.703,5.45
49.718,7.85
49.734,10.41
49.750,12.44
49.765,13.35
49.781,13.16
49.796,12.36
49.812,11.63
49.828,11.34
49.843,11.32
49.859,10.92
49.875,9.5
49.890,6.88
49.906,3.38
49.921,-0.15
49.937,-2.73
49.953,-3.73
49.968,-3.01
49.984,-0.99
50.000,1.68
50.015,4.29
50.031,6.35
50.046,7.63
50.062,8.16
50.078,8.04
50.093,7.53
50.109,6.76
50.125,5.76
50.140,4.46
50.156,2.72
50.171,0.59
50.187,-1.8
50.203,-4.11
50.218,-6.16
50.234,-7.87
50.250,-9.26
50.265,-10.48
50.281,-11.59
50.296,-12.54
50.312,-13.04
50.328,-12.9
50.343,-11.86
50.359,-9.86
50.375,-7.03
50.390,-3.47
50.406,0.71
50.421,5.47
50.437,10.8
50.453,16.51
50.468,22.18
50.484,27.13
50.500,30.74
50.515,32.5
50.531,32.28
50.546,30.29
50.562,27.04
50.578,23.14
50.593,19.04
50.609,14.89
50.625,10.68
50.640,6.32
50.656,1.82
50.671,-2.57
50.687,-6.59
50.703,-9.86
50.718,-12.13
50.734,-13.33
50.750,-13.6
50.765,-13.19
50.781,-12.34
50.796,-11.39
50.812,-10.46
50.828,-9.7
50.843,-9.3
50.859,-9.22
50.875,-9.42
50.890,-9.75
50.906,-10.02
50.921,-10.01
50.937,-9.45
50.953,-8.12
50.968,-5.84
50.984,-2.67
51.000,1.12
51.015,5.04
51.031,8.61
51.046,11.35
51.062,13.03
51.078,13.8
51.093,13.95
51.109,13.66
51.125,13.01
51.140,12.02
51.156,10.62
51.171,9.07
51.187,7.73
51.203,7.15
51.218,7.84
51.234,10.03
51.250,13.54
51.265,17.65
51.281,21.48
51.296,23.99
51.312,24.37
51.328,22.32
51.343,18.08
51.359,12.45
51.375,6.52
51.390,1.36
51.406,-2.22
51.421,-3.94
51.437,-3.91
51.453,-2.54
51.468,-0.3
51.484,2.35
51.500,4.99
51.515,7.33
51.531,9.26
51.546,10.83
51.562,12.25
51.578,13.82
51.593,15.82
51.609,18.22
51.625,20.71
51.640,22.63
51.656,23.13
51.671,21.57
51.687,17.59
51.703,11.38
51.718,3.63
51.734,-4.72
51.750,-12.68
51.765,-19.53
51.781,-24.84
51.796,-28.6
51.812,-31.0
51.828,-32.34
51.843,-32.91
51.859,-32.78
51.875,-31.98
51.890,-30.63
51.906,-28.86
51.921,-26.89
51.937,-24.94
51.953,-23.17
51.968,-21.62
51.984,-20.28
52.000,-19.05
52.015,-17.79
52.031,-16.47
52.046,-15.11
52.062,-13.72
52.078,-12.23
52.093,-10.49
52.109,-8.39
52.125,-5.95
52.140,-3.37
52.156,-1.01
52.171,0.77
52.187,1.85
52.203,2.36
52.218,2.69
52.234,3.22
52.250,4.13
52.265,5.22
52.281,6.12
52.296,6.42
52.312,5.84
52.328,4.42
52.343,2.32
52.359,-0.3
52.375,-3.34
52.390,-6.7
52.406,-10.28
52.421,-13.81
52.437,-16.86
52.453,-18.98
52.468,-19.84
52.484,-19.5
52.500,-18.63
52.515,-18.13
52.531,-18.85
52.546,-21.05
52.562,-24.25
52.578,-27.4
52.593,-29.43
52.609,-29.68
52.625,-28.19
52.640,-25.76
52.656,-23.14
52.671,-20.88
52.687,-18.93
52.703,-16.87
52.718,-14.22
52.734,-10.85
52.750,-7.0
52.765,-3.09
52.781,0.36
52.796,3.35
52.812,6.13
52.828,9.11
52.843,12.62
52.859,16.79
52.875,21.18
52.890,25.1
52.906,27.84
52.921,28.85
52.937,28.17
52.953,26.27
52.968,23.75
52.984,21.3
53.000,19.26
53.015,17.59
53.031,16.02
53.046,14.32
53.062,12.44
53.078,10.57
53.093,8.92
53.109,7.5
53.125,6.18
53.140,4.53
53.156,2.25
53.171,-0.74
53.187,-4.1
53.203,-7.31
53.218,-9.76
53.234,-11.14
53.250,-11.49
53.265,-11.0
53.281,-10.01
53.296,-8.75
53.312,-7.34
53.328,-5.68
53.343,-3.92
53.359,-2.19
53.375,-0.79
53.390,-0.05
53.406,-0.01
53.421,-0.52
53.437,-1.17
53.453,-1.43
53.468,-0.97
53.484,0.25
53.500,1.96
53.515,3.68
53.531,4.89
53.546,5.22
53.562,4.69
53.578,3.6
53.593,2.52
53.609,1.92
53.625,2.09
53.640,2.97
53.656,4.21
53.671,5.37
53.687,6.11
53.703,6.28
53.718,6.06
53.734,5.73
53.750,5.45
53.765,5.25
53.781,4.88
53.796,4.1
53.812,2.75
53.828,0.99
53.843,-0.86
53.859,-2.34
53.875,-3.23
53.890,-3.54
53.906,-3.57
53.921,-3.72
53.937,-4.12
53.953,-4.69
53.968,-5.17
53.984,-5.25
54.000,-4.76
54.015,-3.77
54.031,-2.54
54.046,-1.35
54.062,-0.43
54.078,0.13
54.093,0.35
54.109,0.16
54.125,-0.53
54.140,-1.77
54.156,-3.62
54.171,-5.83
54.187,-7.94
54.203,-9.32
54.218,-9.44
54.234,-8.01
54.250,-5.06
54.265,-0.97
54.281,3.76
54.296,8.58
54.312,13.16
54.328,17.32
54.343,21.07
54.359,24.31
54.375,26.82
54.390,28.21
54.406,28.09
54.421,26.22
54.437,22.81
54.453,18.47
54.468,13.94
54.484,9.9
54.500,6.62
54.515,4.04
54.531,1.92
54.546,0.09
54.562,-1.37
54.578,-2.18
54.593,-2.08
54.609,-1.13
54.625,0.32
54.640,1.7
54.656,2.48
54.671,2.53
54.687,2.04
54.703,1.52
54.718,1.46
54.734,2.0
54.750,2.85
54.765,3.46
54.781,3.28
54.796,1.95
54.812,-0.47
54.828,-3.74
54.843,-7.38
54.859,-10.97
54.875,-14.14
54.890,-16.72
54.906,-18.58
54.921,-19.58
54.937,-19.57
54.953,-18.28
54.968,-15.62
54.984,-11.67
55.000,-6.95
55.015,-2.11
55.031,2.02
55.046,4.92
55.062,6.43
55.078,6.73
55.093,6.34
55.109,5.71
55.125,5.12
55.140,4.54
55.156,3.92
55.171,3.06
55.187,2.01
55.203,0.82
55.218,-0.47
55.234,-1.68
55.250,-2.8
55.265,-3.67
55.281,-4.27
55.296,-4.45
55.312,-4.17
55.328,-3.37
55.343,-2.1
55.359,-0.63
55.375,0.74
55.390,1.47
55.406,1.11
55.421,-0.54
55.437,-3.34
55.453,-6.8
55.468,-10.18
55.484,-12.65
55.500,-13.79
55.515,-13.47
55.531,-12.06
55.546,-10.08
55.562,-8.02
55.578,-6.27
55.593,-5.14
55.609,-4.72
55.625,-4.97
55.640,-5.77
55.656,-6.68
55.671,-7.45
55.687,-7.63
55.703,-6.97
55.718,-5.39
55.734,-3.09
55.750,-0.47
55.765,1.96
55.781,3.65
55.796,4.36
55.812,3.99
55.828,2.89
55.843,1.65
55.859,0.86
55.875,1.04
55.890,2.34
55.906,4.53
55.921,7.05
55.937,9.35
55.953,10.93
55.968,11.59
55.984,11.45
56.000,10.69
56.015,9.67
56.031,8.76
56.046,8.25
56.062,8.23
56.078,8.72
56.093,9.43
56.109,10.03
56.125,10.18
56.140,9.58
56.156,8.16
56.171,6.0
56.187,3.46
56.203,0.9
56.218,-1.26
56.234,-2.86
56.250,-3.9
56.265,-4.6
56.281,-5.2
56.296,-5.8
56.312,-6.47
56.328,-7.07
56.343,-7.65
56.359,-8.3
56.375,-9.4
56.390,-11.26
56.406,-13.94
56.421,-17.12
56.437,-20.1
56.453,-22.19
56.468,-22.93
56.484,-22.25
56.500,-20.49
56.515,-18.17
56.531,-15.79
56.546,-13.6
56.562,-11.65
56.578,-9.7
56.593,-7.42
56.609,-4.36
56.625,-0.1
56.640,5.46
56.656,11.92
56.671,18.23
56.687,23.19
56.703,25.71
56.718,25.45
56.734,22.92
56.750,19.15
56.765,15.22
56.781,11.75
56.796,8.82
56.812,6.01
56.828,3.22
56.843,0.57
56.859,-1.54
56.875,-2.62
56.890,-2.68
56.906,-2.16
56.921,-1.65
56.937,-1.71
56.953,-2.64
56.968,-4.22
56.984,-6.09
57.000,-7.85
57.015,-9.08
57.031,-9.56
57.046,-9.27
57.062,-8.15
57.078,-6.3
57.093,-3.95
57.109,-1.5
57.125,0.51
57.140,1.57
57.156,1.4
57.187,-2.35
57.203,-4.89
57.218,-6.91
57.234,-7.75
57.250,-7.09
57.265,-5.1
57.281,-2.29
57.296,0.74
57.312,3.5
57.328,5.82
57.343,8.05
57.359,10.57
57.375,13.74
57.390,17.66
57.406,22.02
57.421,26.32
57.437,30.22
57.453,33.62
57.468,36.72
57.484,40.02
57.500,43.92
57.515,48.59
57.531,54.13
57.546,60.49
57.562,67.61
57.578,75.19
57.593,82.58
57.609,88.39
57.625,90.9
57.640,88.46
57.656,80.32
57.671,67.32
57.687,51.52
57.703,35.86
57.718,22.78
57.734,13.43
57.750,7.44
57.765,3.46
57.781,0.24
57.796,-2.8
57.812,-5.15
57.828,-6.27
57.843,-5.91
57.859,-4.75
57.875,-4.13
57.890,-5.55
57.906,-9.94
57.921,-17.36
57.937,-27.27
57.953,-38.69
57.968,-50.81
57.984,-62.91
58.000,-74.19
58.015,-83.67
58.031,-90.46
58.046,-93.93
58.062,-93.83
58.078,-90.74
58.093,-85.52
58.109,-79.48
58.125,-73.83
58.140,-69.48
58.156,-66.96
58.171,-66.31
58.187,-67.16
58.203,-68.66
58.218,-69.96
58.234,-70.19
58.250,-68.78
58.265,-65.44
58.281,-60.21
58.296,-53.33
58.312,-45.06
58.328,-35.8
58.343,-25.85
58.359,-15.61
58.375,-5.49
58.390,4.15
58.406,13.06
58.421,20.97
58.437,27.61
58.453,32.76
58.468,36.19
58.484,37.67
58.500,36.97
58.515,34.08
58.531,29.19
58.546,22.78
58.562,15.57
58.578,8.37
58.593,2.01
58.609,-2.85
58.625,-5.81
58.640,-6.72
58.656,-5.69
58.671,-3.04
58.687,0.68
58.703,4.79
58.718,8.47
58.734,10.97
58.750,11.75
58.765,10.74
58.781,8.42
58.796,5.61
58.812,3.32
58.828,2.27
58.843,2.83
58.859,4.83
58.875,7.91
58.890,11.43
58.906,15.0
58.921,18.45
58.937,21.67
58.953,24.63
58.968,27.34
58.984,29.94
59.000,32.6
59.015,35.69
59.031,39.49
59.046,44.33
59.062,50.46
59.078,57.56
59.093,64.96
59.109,71.96
59.125,78.2
59.140,84.01
59.156,90.13
59.171,97.2
59.187,105.49
59.203,114.74
59.218,123.49
59.234,129.77
59.250,132.08
59.265,130.19
59.281,125.36
59.296,119.74
59.312,115.28
59.328,113.26
59.343,114.15
59.359,116.44
59.375,117.45
59.390,114.49
59.406,106.21
59.421,93.34
59.437,78.21
59.453,63.56
59.468,51.45
59.484,42.15
59.500,32.12
59.515,14.96
59.531,-16.58
59.546,-67.36
59.562,-137.92
59.578,-224.54
59.593,-320.82
59.609,-419.61
59.625,-505.05
59.640,-559.48
59.656,-569.89
59.671,-535.9
59.687,-469.1
59.703,-385.52
59.718,-298.19
59.734,-214.82
59.750,-138.91
59.765,-71.49
59.781,-13.95
59.796,32.59
59.812,67.35
59.828,92.14
59.843,110.82
59.859,128.09
59.875,146.81
59.890,168.38
59.906,190.57
59.921,207.39
59.937,212.1
59.953,199.23
59.968,167.58
59.984,120.38
