timestamp,value
00.000,30.9
00.015,47.48
00.031,62.58
00.046,77.71
00.062,92.47
00.078,104.83
00.093,113.48
00.109,118.7
00.125,122.42
00.140,126.63
00.156,132.74
00.171,140.82
00.187,149.88
00.203,157.89
00.218,162.05
00.234,159.57
00.250,148.37
00.265,127.56
00.281,97.3
00.296,59.38
00.312,16.66
00.328,-27.16
00.343,-68.63
00.359,-106.03
00.375,-139.43
00.390,-169.87
00.406,-198.49
00.421,-225.88
00.437,-250.86
00.453,-270.72
00.468,-281.04
00.484,-276.89
00.500,-255.32
00.515,-216.38
00.531,-163.22
00.546,-101.77
00.562,-40.2
00.578,15.72
00.593,57.69
00.609,77.41
00.625,74.53
00.640,53.69
00.656,21.9
00.671,-12.65
00.687,-42.35
00.703,-62.12
00.718,-69.6
00.734,-65.39
00.750,-51.58
00.765,-30.96
00.781,-7.79
00.796,12.63
00.812,24.83
00.828,26.21
00.843,16.32
00.859,-0.99
00.875,-18.58
00.890,-28.48
00.906,-25.05
00.921,-7.79
00.937,19.7
00.953,51.9
00.968,83.69
00.984,111.37
01.000,133.47
01.015,149.76
01.031,160.6
01.046,167.32
01.062,171.47
01.078,175.25
01.093,179.64
01.109,183.99
01.125,186.17
01.140,184.26
01.156,176.81
01.171,163.01
01.187,143.92
01.203,122.17
01.218,100.9
01.234,81.99
01.250,64.51
01.265,45.1
01.281,19.9
01.296,-14.62
01.312,-61.69
01.328,-118.3
01.343,-177.37
01.359,-228.05
01.375,-258.64
01.390,-261.1
01.406,-233.12
01.421,-178.75
01.437,-101.24
01.453,-14.35
01.468,62.03
01.484,110.54
01.500,123.74
01.515,105.31
01.531,64.68
01.546,10.07
01.562,-52.68
01.578,-120.29
01.593,-191.82
01.609,-266.45
01.625,-340.84
01.640,-409.14
01.656,-457.69
01.671,-477.63
01.687,-465.86
01.703,-425.99
01.718,-368.39
01.734,-299.45
01.750,-230.67
01.765,-171.6
01.781,-124.88
01.796,-85.65
01.812,-47.12
01.828,-3.28
01.843,49.16
01.859,110.61
01.875,178.99
01.890,249.91
01.906,317.74
01.921,374.76
01.937,415.76
01.953,432.66
01.968,420.32
01.984,380.02
02.000,319.06
02.015,247.56
02.031,175.27
02.046,111.08
02.062,62.2
02.078,33.68
02.093,25.83
02.109,35.49
02.125,56.58
02.140,82.14
02.156,104.86
02.171,120.12
02.187,128.57
02.203,135.02
02.218,144.77
02.234,157.9
02.250,168.71
02.265,167.48
02.281,144.86
02.296,96.84
02.312,27.17
02.328,-53.87
02.343,-133.69
02.359,-201.56
02.375,-252.86
02.390,-288.43
02.406,-312.38
02.421,-328.83
02.437,-339.51
02.453,-342.59
02.468,-334.35
02.484,-311.73
02.500,-273.62
02.515,-222.1
02.531,-160.69
02.546,-93.27
02.562,-23.4
02.578,45.89
02.593,111.73
02.609,170.92
02.625,220.41
02.640,258.64
02.656,281.86
02.671,287.82
02.687,276.78
02.703,251.61
02.718,217.14
02.734,178.81
02.750,143.18
02.765,110.39
02.781,78.2
02.796,43.05
02.812,1.75
02.828,-47.73
02.843,-104.34
02.859,-163.53
02.875,-218.17
02.890,-262.27
02.906,-292.18
02.921,-306.97
02.937,-308.15
02.953,-297.06
02.968,-273.57
02.984,-236.12
03.000,-183.64
03.015,-117.69
03.031,-45.07
03.046,25.14
03.062,84.72
03.078,128.93
03.093,158.02
03.109,175.94
03.125,187.41
03.140,190.91
03.156,189.56
03.171,177.5
03.187,149.2
03.203,102.49
03.218,40.73
03.234,-26.8
03.250,-87.11
03.265,-127.22
03.281,-138.72
03.296,-120.55
03.312,-81.48
03.328,-35.42
03.343,3.44
03.359,25.97
03.375,30.99
03.390,24.26
03.406,14.33
03.421,7.45
03.437,5.14
03.453,3.38
03.468,-2.66
03.484,-15.56
03.500,-34.03
03.515,-54.46
03.531,-73.56
03.546,-90.22
03.562,-105.22
03.578,-118.66
03.593,-128.74
03.609,-130.47
03.625,-118.06
03.640,-87.9
03.656,-41.0
03.671,16.48
03.687,75.34
03.703,126.35
03.718,163.38
03.734,184.93
03.750,194.75
03.765,200.28
03.781,209.84
03.796,229.06
03.812,258.21
03.828,291.43
03.843,318.66
03.859,329.71
03.875,318.59
03.890,286.17
03.906,239.65
03.921,189.38
03.937,144.34
03.953,108.93
03.968,82.07
03.984,58.75
04.000,33.25
04.015,2.52
04.031,-32.08
04.046,-64.68
04.062,-87.16
04.078,-92.16
04.093,-75.65
04.109,-37.84
04.125,17.36
04.140,83.95
04.156,155.41
04.171,224.82
04.187,284.91
04.203,327.89
04.218,346.75
04.234,337.23
04.250,300.05
04.265,241.39
04.281,171.28
04.296,100.33
04.312,36.34
04.328,-17.53
04.343,-62.14
04.359,-100.58
04.375,-136.08
04.390,-170.75
04.406,-205.72
04.421,-241.73
04.437,-279.98
04.453,-322.11
04.468,-369.26
04.484,-420.31
04.500,-470.58
04.515,-511.78
04.531,-534.15
04.546,-529.95
04.562,-496.68
04.578,-438.66
04.593,-365.56
04.609,-289.18
04.625,-219.34
04.640,-161.25
04.656,-115.34
04.671,-78.77
04.687,-47.47
04.703,-17.47
04.718,14.18
04.734,48.78
04.750,85.22
04.765,119.6
04.781,145.93
04.796,157.77
04.812,150.74
04.828,123.81
04.843,79.79
04.859,24.25
04.875,-35.79
04.890,-92.98
04.906,-140.2
04.921,-171.23
04.937,-181.75
04.953,-170.34
04.968,-139.28
04.984,-93.84
05.000,-40.51
05.015,15.06
05.031,68.98
05.046,118.6
05.062,161.25
05.078,193.59
05.093,212.98
05.109,219.29
05.125,216.36
05.140,211.58
05.156,212.68
05.171,224.21
05.187,244.79
05.203,267.47
05.218,282.81
05.234,283.55
05.250,267.14
05.265,236.23
05.281,196.6
05.296,153.96
05.312,111.96
05.328,71.58
05.343,31.13
05.359,-11.86
05.375,-58.9
05.390,-110.16
05.406,-164.08
05.421,-216.8
05.437,-262.57
05.453,-294.34
05.468,-305.6
05.484,-293.87
05.500,-261.52
05.515,-214.84
05.531,-163.26
05.546,-116.78
05.562,-83.1
05.578,-65.88
05.593,-63.53
05.609,-70.28
05.625,-79.27
05.640,-83.16
05.656,-74.97
05.671,-50.98
05.687,-11.98
05.703,36.11
05.718,83.65
05.734,121.35
05.750,143.94
05.765,151.1
05.781,149.5
05.796,151.48
05.812,168.25
05.828,204.43
05.843,254.88
05.859,301.26
05.875,321.18
05.890,309.82
05.906,271.89
05.921,214.34
05.937,149.84
05.953,89.4
05.968,37.87
05.984,-6.39
06.000,-48.69
06.015,-92.59
06.031,-136.72
06.046,-176.65
06.062,-205.01
06.078,-213.41
06.093,-196.56
06.109,-154.62
06.125,-92.85
06.140,-20.56
06.156,51.56
06.171,113.17
06.187,154.73
06.203,169.97
06.218,157.74
06.234,120.99
06.250,65.31
06.265,-1.35
06.281,-69.83
06.296,-130.68
06.312,-176.17
06.328,-202.83
06.343,-211.37
06.359,-205.46
06.375,-190.79
06.390,-174.25
06.406,-161.38
06.421,-154.99
06.437,-153.92
06.453,-153.34
06.468,-147.06
06.484,-129.61
06.500,-98.53
06.515,-53.04
06.531,-0.12
06.546,48.38
06.562,80.81
06.578,91.68
06.593,83.44
06.609,63.29
06.625,38.64
06.640,14.58
06.656,-6.95
06.671,-25.24
06.687,-38.03
06.703,-42.57
06.718,-36.99
06.734,-22.23
06.750,-2.83
06.765,15.32
06.781,25.53
06.796,25.44
06.812,17.82
06.828,9.85
06.843,7.92
06.859,14.83
06.875,30.99
06.890,56.29
06.906,91.16
06.921,136.68
06.937,193.62
06.953,257.38
06.968,320.25
06.984,367.15
07.000,384.11
07.015,364.62
07.031,312.67
07.046,239.82
07.062,159.17
07.078,82.88
07.093,11.17
07.109,-57.75
07.125,-124.09
07.140,-184.7
07.156,-234.78
07.171,-267.45
07.187,-280.12
07.203,-275.1
07.218,-257.74
07.234,-233.89
07.250,-206.17
07.265,-175.18
07.281,-141.2
07.296,-106.76
07.312,-76.64
07.328,-57.04
07.343,-51.91
07.359,-60.43
07.375,-76.96
07.390,-91.56
07.406,-94.62
07.421,-80.18
07.437,-48.36
07.453,-3.91
07.468,44.72
07.484,88.42
07.500,119.0
07.515,131.08
07.531,124.07
07.546,101.3
07.562,68.38
07.578,30.03
07.593,-9.51
07.609,-47.12
07.625,-79.95
07.640,-105.29
07.656,-119.67
07.671,-118.21
07.687,-96.53
07.703,-53.28
07.718,6.88
07.734,76.63
07.750,148.24
07.765,216.35
07.781,278.14
07.796,327.64
07.812,358.13
07.828,363.79
07.843,350.85
07.859,319.89
07.875,270.53
07.890,202.19
07.906,121.78
07.921,40.45
07.937,-30.02
07.953,-80.07
07.968,-105.73
07.984,-110.08
08.000,-103.87
08.015,-99.45
08.031,-106.57
08.046,-128.65
08.062,-161.99
08.078,-196.55
08.093,-218.79
08.109,-216.57
08.125,-184.17
08.140,-125.67
08.156,-51.41
08.171,26.18
08.187,97.02
08.203,155.08
08.218,198.71
08.234,229.03
08.250,247.9
08.265,256.12
08.281,253.05
08.296,238.75
08.312,214.95
08.328,184.93
08.343,151.68
08.359,116.84
08.375,80.37
08.390,41.4
08.406,-1.11
08.421,-47.52
08.437,-96.65
08.453,-146.18
08.468,-193.17
08.484,-235.43
08.500,-272.38
08.515,-305.64
08.531,-338.22
08.546,-372.84
08.562,-409.3
08.578,-443.04
08.593,-466.19
08.609,-470.61
08.625,-451.91
08.640,-411.96
08.656,-358.69
08.671,-302.54
08.687,-252.63
08.703,-213.24
08.718,-183.24
08.734,-158.25
08.750,-133.54
08.765,-106.01
08.781,-74.33
08.796,-38.09
08.812,3.15
08.828,49.01
08.843,97.67
08.859,145.68
08.875,188.85
08.890,223.8
08.906,248.91
08.921,263.69
08.937,267.73
08.953,260.11
08.968,239.67
08.984,207.4
09.000,168.6
09.015,132.82
09.031,110.86
09.046,110.27
09.062,131.24
09.078,166.55
09.093,204.36
09.109,232.22
09.125,241.16
09.140,227.87
09.156,194.18
09.171,145.27
09.187,87.59
09.203,26.82
09.218,-31.05
09.234,-77.26
09.250,-103.77
09.265,-107.4
09.281,-90.92
09.296,-61.24
09.312,-28.36
09.328,2.96
09.343,29.19
09.359,47.14
09.375,54.46
09.390,49.94
09.406,34.1
09.421,10.21
09.437,-16.7
09.453,-41.58
09.468,-61.03
09.484,-74.83
09.500,-84.52
09.515,-91.64
09.531,-96.58
09.546,-98.49
09.562,-95.18
09.578,-84.75
09.593,-66.92
09.609,-43.22
09.625,-17.29
09.640,6.41
09.656,23.24
09.671,29.45
09.687,22.28
09.703,2.36
09.718,-25.98
09.734,-55.65
09.750,-78.53
09.765,-88.67
09.781,-83.99
09.796,-66.82
09.812,-42.53
09.828,-19.06
09.843,-3.24
09.859,0.43
09.875,-8.87
09.890,-27.18
09.906,-46.58
09.921,-57.76
09.937,-53.86
09.953,-32.64
09.968,0.88
09.984,38.95
10.000,73.82
10.015,100.97
10.031,121.08
10.046,138.0
10.062,154.56
10.078,165.66
10.093,170.07
10.109,159.19
10.125,128.27
10.140,78.13
10.156,15.84
10.171,-45.85
10.187,-91.86
10.203,-109.95
10.218,-94.9
10.234,-49.51
10.250,14.78
10.265,84.46
10.281,146.46
10.296,187.45
10.312,197.88
10.328,177.63
10.343,136.42
10.359,87.57
10.375,43.39
10.390,2.53
10.406,-38.1
10.421,-78.79
10.437,-116.37
10.453,-145.1
10.468,-159.88
10.484,-160.21
10.500,-151.1
10.515,-140.94
10.531,-138.16
10.546,-144.98
10.562,-157.65
10.578,-168.37
10.593,-168.65
10.609,-153.37
10.625,-123.55
10.640,-85.98
10.656,-49.68
10.671,-22.4
10.687,-6.15
10.703,1.88
10.718,7.18
10.734,15.59
10.750,30.79
10.765,52.92
10.781,79.22
10.796,105.75
10.812,129.34
10.828,149.26
10.843,166.13
10.859,180.36
10.875,191.34
10.890,197.38
10.906,196.54
10.921,187.87
10.937,171.85
10.953,149.74
10.968,122.92
10.984,92.01
11.000,57.69
11.015,21.73
11.031,-13.18
11.046,-44.71
11.062,-73.0
11.078,-101.09
11.093,-133.14
11.109,-170.96
11.125,-211.48
11.140,-246.55
11.156,-266.27
11.171,-263.89
11.187,-239.44
11.203,-200.34
11.218,-158.15
11.234,-123.53
11.250,-101.65
11.265,-90.88
11.281,-83.91
11.296,-71.79
11.312,-48.46
11.328,-13.76
11.343,26.29
11.359,62.32
11.375,86.19
11.390,94.93
11.406,91.27
11.421,81.47
11.437,71.56
11.453,64.6
11.468,60.36
11.484,57.13
11.500,54.06
11.515,52.53
11.531,55.24
11.546,63.92
11.562,77.22
11.578,90.26
11.593,96.21
11.609,88.98
11.625,65.66
11.640,27.6
11.656,-20.27
11.671,-70.91
11.687,-116.78
11.703,-151.27
11.718,-169.64
11.734,-169.8
11.750,-152.54
11.765,-121.64
11.781,-82.96
11.796,-42.72
11.812,-5.92
11.828,25.28
11.843,51.66
11.859,75.95
11.875,101.22
11.890,129.46
11.906,161.21
11.921,195.46
11.937,230.07
11.953,261.77
11.968,285.98
11.984,297.25
12.000,290.58
12.015,263.26
12.031,216.67
12.046,156.48
12.062,91.16
12.078,29.24
12.093,-23.2
12.109,-64.17
12.125,-95.06
12.140,-118.55
12.156,-136.57
12.171,-149.36
12.187,-155.95
12.203,-155.9
12.218,-150.81
12.234,-144.35
12.250,-140.95
12.265,-143.72
12.281,-152.66
12.296,-164.43
12.312,-173.56
12.328,-174.41
12.343,-162.84
12.359,-137.13
12.375,-97.43
12.390,-45.49
12.406,15.45
12.421,80.25
12.437,141.65
12.453,191.02
12.468,220.18
12.484,224.36
12.500,204.15
12.515,166.38
12.531,122.45
12.546,84.75
12.562,62.5
12.578,58.79
12.593,70.25
12.609,88.71
12.625,104.92
12.640,111.96
12.656,107.23
12.671,92.18
12.687,70.94
12.703,48.39
12.718,29.06
12.734,16.77
12.750,13.95
12.765,20.88
12.781,34.89
12.796,50.64
12.812,61.92
12.828,64.17
12.843,56.15
12.859,40.44
12.875,22.5
12.890,8.32
12.906,2.33
12.921,5.74
12.937,17.34
12.953,35.0
12.968,56.5
12.984,79.28
13.000,100.04
13.015,114.95
13.031,120.01
13.046,112.88
13.062,93.38
13.078,64.37
13.093,31.7
13.109,1.42
13.125,-24.37
13.140,-49.27
13.156,-80.23
13.171,-123.51
13.187,-179.12
13.203,-239.91
13.218,-294.41
13.234,-331.73
13.250,-342.92
13.265,-327.44
13.281,-293.27
13.296,-251.19
13.312,-209.44
13.328,-169.27
13.343,-128.52
13.359,-86.24
13.375,-43.76
13.390,-3.76
13.406,34.83
13.421,74.84
13.437,119.84
13.453,170.58
13.468,225.25
13.484,279.06
13.500,320.23
13.515,339.2
13.531,331.37
13.546,298.4
13.562,245.1
13.578,182.5
13.593,113.87
13.609,41.73
13.625,-30.55
13.640,-98.06
13.656,-155.65
13.671,-199.75
13.687,-226.42
13.703,-235.68
13.718,-230.48
13.734,-217.31
13.750,-203.39
13.765,-195.18
13.781,-195.79
13.796,-204.59
13.812,-217.25
13.828,-223.25
13.843,-214.64
13.859,-188.15
13.875,-147.7
13.890,-101.43
13.906,-61.32
13.921,-26.44
13.937,10.7
13.953,59.23
13.968,125.52
13.984,208.5
14.000,300.4
14.015,389.67
14.031,460.6
14.046,498.88
14.062,496.09
14.078,449.95
14.093,366.92
14.109,261.07
14.125,148.95
14.140,45.39
14.156,-40.41
14.171,-106.1
14.187,-158.21
14.203,-202.55
14.218,-243.9
14.234,-283.41
14.250,-318.72
14.265,-345.82
14.281,-360.76
14.296,-361.43
14.312,-348.73
14.328,-325.11
14.343,-286.9
14.359,-235.52
14.375,-174.57
14.390,-109.12
14.406,-45.65
14.421,8.52
14.437,45.98
14.453,60.15
14.468,49.03
14.484,17.91
14.500,-22.77
14.515,-58.84
14.531,-77.89
14.546,-74.58
14.562,-52.92
14.578,-23.92
14.593,-1.45
14.609,5.26
14.625,-4.25
14.640,-23.4
14.656,-41.1
14.671,-47.17
14.687,-35.76
14.703,-6.11
14.718,39.21
14.734,95.53
14.750,156.25
14.765,212.18
14.781,252.59
14.796,271.0
14.812,268.07
14.828,250.71
14.843,227.94
14.859,209.98
14.875,195.94
14.890,181.21
14.906,161.35
14.921,134.69
14.937,104.3
14.953,76.58
14.968,58.4
14.984,52.52
15.000,59.64
15.015,73.93
15.031,86.03
15.046,85.68
15.062,66.24
15.078,28.33
15.093,-21.25
15.109,-73.44
15.125,-120.84
15.140,-159.77
15.156,-194.38
15.171,-227.86
15.187,-260.69
15.203,-290.81
15.218,-315.01
15.234,-331.08
15.250,-339.08
15.265,-340.88
15.281,-332.4
15.296,-313.58
15.312,-284.52
15.328,-246.2
15.343,-201.03
15.359,-152.64
15.375,-104.85
15.390,-60.26
15.406,-19.42
15.421,19.1
15.437,56.33
15.453,92.93
15.468,129.38
15.484,164.23
15.500,195.65
15.515,222.82
15.531,246.9
15.546,269.53
15.562,290.72
15.578,306.34
15.593,309.28
15.609,292.43
15.625,252.92
15.640,195.52
15.656,132.29
15.671,78.73
15.687,47.05
15.703,39.15
15.718,49.1
15.734,63.98
15.750,69.49
15.765,55.86
15.781,22.2
15.796,-24.03
15.812,-70.67
15.828,-107.11
15.843,-127.92
15.859,-133.44
15.875,-127.74
15.890,-114.76
15.906,-96.02
15.921,-70.13
15.937,-34.85
15.953,10.43
15.968,62.52
15.984,115.84
16.000,165.46
16.015,209.41
16.031,249.28
16.046,287.84
16.062,326.45
16.078,356.27
16.093,365.36
16.109,343.79
16.125,290.6
16.140,215.18
16.156,131.28
16.171,49.2
16.187,-26.94
16.203,-103.05
16.218,-184.21
16.234,-269.58
16.250,-352.14
16.265,-421.79
16.281,-469.39
16.296,-485.42
16.312,-462.39
16.328,-404.72
16.343,-327.13
16.359,-247.51
16.375,-178.63
16.390,-123.2
16.406,-76.44
16.421,-31.57
16.437,13.8
16.453,55.23
16.468,84.31
16.484,96.2
16.500,94.14
16.515,87.86
16.531,88.83
16.546,103.23
16.562,129.6
16.578,159.23
16.593,179.9
16.609,181.32
16.625,160.33
16.640,121.42
16.656,71.77
16.671,19.77
16.687,-29.63
16.703,-74.13
16.718,-111.76
16.734,-139.13
16.750,-151.53
16.765,-145.11
16.781,-120.0
16.796,-82.11
16.812,-38.73
16.828,-0.74
16.843,24.07
16.859,35.28
16.875,38.74
16.890,41.63
16.906,47.37
16.921,54.67
16.937,59.43
16.953,58.52
16.968,51.03
16.984,38.95
17.000,25.62
17.015,13.87
17.031,5.28
17.046,-0.37
17.062,-4.5
17.078,-9.99
17.093,-20.47
17.109,-39.93
17.125,-70.1
17.140,-109.15
17.156,-152.67
17.171,-193.68
17.187,-225.06
17.203,-241.02
17.218,-237.87
17.234,-214.09
17.250,-171.08
17.265,-113.19
17.281,-48.11
17.296,13.95
17.312,62.52
17.328,90.2
17.343,95.81
17.359,84.92
17.375,67.79
17.390,54.87
17.406,53.58
17.421,66.61
17.437,91.84
17.453,123.75
17.468,154.66
17.484,176.61
17.500,180.0
17.515,158.72
17.531,112.0
17.546,46.06
17.562,-26.07
17.578,-87.53
17.593,-122.41
17.609,-120.75
17.625,-81.61
17.640,-13.7
17.656,67.99
17.671,146.39
17.687,207.21
17.703,241.96
17.718,248.84
17.734,231.39
17.750,196.31
17.765,151.78
17.781,106.36
17.796,68.8
17.812,46.46
17.828,43.31
17.843,58.24
17.859,85.39
17.875,116.05
17.890,142.04
17.906,158.39
17.921,164.04
17.937,160.58
17.953,149.68
17.968,131.18
17.984,103.52
18.000,65.59
18.015,18.27
18.031,-34.95
18.046,-88.95
18.062,-139.04
18.078,-181.66
18.093,-214.43
18.109,-235.73
18.125,-244.33
18.140,-240.53
18.156,-227.33
18.171,-210.97
18.187,-199.27
18.203,-199.24
18.218,-214.12
18.234,-242.21
18.250,-277.02
18.265,-308.93
18.281,-327.39
18.296,-323.35
18.312,-291.46
18.328,-232.52
18.343,-155.05
18.359,-73.95
18.375,-6.73
18.390,32.74
18.406,39.69
18.421,20.42
18.437,-10.67
18.453,-37.27
18.468,-47.68
18.484,-38.34
18.500,-12.37
18.515,23.97
18.531,64.72
18.546,105.76
18.562,143.71
18.578,174.05
18.593,191.18
18.609,189.81
18.625,167.76
18.640,128.19
18.656,79.03
18.671,29.92
18.687,-11.34
18.703,-41.05
18.718,-59.96
18.734,-70.81
18.750,-76.47
18.765,-78.85
18.781,-78.01
18.796,-73.29
18.812,-64.07
18.828,-50.07
18.843,-31.45
18.859,-9.08
18.875,16.57
18.890,44.78
18.906,73.86
18.921,102.52
18.937,130.0
18.953,156.31
18.968,182.03
18.984,207.44
19.000,230.97
19.015,250.63
19.031,263.95
19.046,263.2
19.062,244.01
19.078,207.48
19.093,160.93
19.109,115.19
19.125,84.22
19.140,68.4
19.156,60.44
19.171,50.4
19.187,30.44
19.203,-2.72
19.218,-44.71
19.234,-86.09
19.250,-115.95
19.265,-126.12
19.281,-114.66
19.296,-84.88
19.312,-44.61
19.328,-4.04
19.343,27.69
19.359,44.35
19.375,43.45
19.390,26.8
19.406,0.1
19.421,-28.79
19.437,-50.98
19.453,-59.87
19.468,-53.14
19.484,-32.62
19.500,-2.63
19.515,32.14
19.531,68.22
19.546,102.91
19.562,133.07
19.578,154.86
19.593,164.14
19.609,158.49
19.625,138.91
19.640,110.11
19.656,78.58
19.671,49.89
19.687,26.49
19.703,7.65
19.718,-9.92
19.734,-30.35
19.750,-56.76
19.765,-90.51
19.781,-130.76
19.796,-175.0
19.812,-219.47
19.828,-259.67
19.843,-290.3
19.859,-306.97
19.875,-306.44
19.890,-286.63
19.906,-247.37
19.921,-191.72
19.937,-127.13
19.953,-65.17
19.968,-18.9
19.984,1.73
20.000,-8.08
20.015,-45.55
20.031,-99.35
20.046,-152.46
20.062,-187.38
20.078,-193.36
20.093,-170.85
20.109,-133.91
20.125,-93.84
20.140,-58.61
20.156,-33.23
20.171,-20.9
20.187,-23.89
20.203,-43.51
20.218,-78.18
20.234,-122.53
20.250,-167.87
20.265,-204.41
20.281,-225.84
20.296,-230.84
20.312,-222.04
20.328,-203.76
20.343,-179.32
20.359,-149.74
20.375,-114.13
20.390,-71.58
20.406,-22.47
20.421,29.88
20.437,80.6
20.453,125.66
20.468,163.38
20.484,194.2
20.500,218.92
20.515,237.76
20.531,249.89
20.546,255.04
20.562,254.58
20.578,252.66
20.593,255.67
20.609,270.09
20.625,299.84
20.640,344.42
20.656,398.63
20.671,453.57
20.687,498.77
20.703,524.02
20.718,521.83
20.734,489.36
20.750,429.57
20.765,350.57
20.781,263.18
20.796,177.63
20.812,100.67
20.828,34.64
20.843,-21.66
20.859,-70.9
20.875,-115.29
20.890,-155.72
20.906,-191.96
20.921,-223.1
20.937,-248.17
20.953,-266.52
20.968,-278.35
20.984,-285.06
21.000,-289.26
21.015,-293.75
21.031,-300.02
21.046,-306.84
21.062,-309.67
21.078,-301.65
21.093,-276.22
21.109,-230.07
21.125,-164.89
21.140,-86.5
21.156,-2.09
21.171,82.56
21.187,163.78
21.203,238.83
21.218,304.12
21.234,354.15
21.250,382.55
21.265,384.42
21.281,358.81
21.296,309.09
21.312,241.29
21.328,160.9
21.343,71.33
21.359,-25.44
21.375,-126.35
21.390,-224.64
21.406,-311.22
21.421,-376.98
21.437,-416.12
21.453,-427.61
21.468,-414.75
21.484,-382.97
21.500,-337.52
21.515,-282.37
21.531,-219.36
21.546,-150.62
21.562,-79.2
21.578,-9.11
21.593,56.17
21.609,114.87
21.625,167.53
21.640,216.38
21.656,263.66
21.671,310.96
21.687,355.96
21.703,392.13
21.718,410.95
21.734,405.41
21.750,373.39
21.765,319.13
21.781,252.11
21.796,177.01
21.812,102.66
21.828,37.4
21.843,-13.46
21.859,-48.96
21.875,-71.34
21.890,-83.22
21.906,-86.39
21.921,-82.04
21.937,-71.76
21.953,-56.87
21.968,-39.88
21.984,-23.75
22.000,-10.76
22.015,-1.46
22.031,5.12
22.046,10.62
22.062,16.3
22.078,22.36
22.093,29.59
22.109,36.58
22.125,40.8
22.140,39.48
22.156,31.21
22.171,16.31
22.187,-3.14
22.203,-24.08
22.218,-43.52
22.234,-58.77
22.250,-68.56
22.265,-73.91
22.281,-77.71
22.296,-82.91
22.312,-91.32
22.328,-102.95
22.343,-116.37
22.359,-130.12
22.375,-143.32
22.390,-153.43
22.406,-161.16
22.421,-169.79
22.437,-182.95
22.453,-203.67
22.468,-233.72
22.484,-273.36
22.500,-321.76
22.515,-376.26
22.531,-431.44
22.546,-472.02
22.562,-484.31
22.578,-462.02
22.593,-411.17
22.609,-347.76
22.625,-289.41
22.640,-247.87
22.656,-229.31
22.671,-226.33
22.687,-230.49
22.703,-236.91
22.718,-244.01
22.734,-252.01
22.750,-261.04
22.765,-268.2
22.781,-270.08
22.796,-263.7
22.812,-245.71
22.828,-216.19
22.843,-178.75
22.859,-138.74
22.875,-101.2
22.890,-70.1
22.906,-45.45
22.921,-25.15
22.937,-6.4
22.953,16.66
22.968,47.63
22.984,86.67
23.000,131.34
23.015,178.08
23.031,222.34
23.046,264.45
23.062,306.83
23.078,352.11
23.093,407.03
23.109,475.25
23.125,555.24
23.140,641.25
23.156,725.8
23.171,799.71
23.187,860.77
23.203,908.72
23.218,942.51
23.234,966.32
23.250,983.78
23.265,997.22
23.281,1008.69
23.296,1020.29
23.312,1030.22
23.328,1041.34
23.343,1054.74
23.359,1029.28
23.375,939.49
23.390,781.72
23.406,576.26
23.421,354.26
23.437,164.42
23.453,1.31
23.468,-149.13
23.484,-296.61
23.500,-443.12
23.515,-580.45
23.531,-694.29
23.546,-774.51
23.562,-814.13
23.578,-812.18
23.593,-778.01
23.609,-719.96
23.625,-647.61
23.640,-569.98
23.656,-488.91
23.671,-404.68
23.687,-318.85
23.703,-235.29
23.718,-159.37
23.734,-98.64
23.750,-53.5
23.765,-21.35
23.781,1.34
23.796,21.47
23.812,43.56
23.828,68.78
23.843,95.34
23.859,119.54
23.875,135.86
23.890,143.39
23.906,143.26
23.921,137.79
23.937,131.08
23.953,126.69
23.968,126.61
23.984,130.99
24.000,138.17
24.015,144.32
24.031,149.91
24.046,154.29
24.062,156.1
24.078,154.15
24.093,147.27
24.109,134.43
24.125,115.02
24.140,88.66
24.156,54.85
24.171,13.51
24.187,-35.5
24.203,-91.73
24.218,-153.78
24.234,-219.14
24.250,-283.92
24.265,-343.68
24.281,-394.18
24.296,-432.42
24.312,-457.58
24.328,-471.19
24.343,-476.18
24.359,-476.52
24.375,-476.63
24.390,-480.25
24.406,-489.49
24.421,-503.6
24.437,-518.45
24.453,-527.77
24.468,-525.27
24.484,-506.55
24.500,-471.79
24.515,-425.73
24.531,-375.19
24.546,-325.84
24.562,-280.19
24.578,-237.39
24.593,-195.76
24.609,-154.19
24.625,-111.6
24.640,-68.91
24.656,-27.98
24.671,10.91
24.687,49.72
24.703,91.95
24.718,141.23
24.734,198.04
24.750,260.67
24.765,327.54
24.781,392.82
24.796,446.77
24.812,480.41
24.828,488.31
24.843,470.1
24.859,430.6
24.875,375.13
24.890,310.47
24.906,247.74
24.921,193.3
24.937,147.24
24.953,107.93
24.968,73.18
24.984,40.68
25.000,8.08
25.015,-30.48
25.031,-80.08
25.046,-137.26
25.062,-199.67
25.078,-267.05
25.093,-336.33
25.109,-401.7
25.125,-456.61
25.140,-473.54
25.156,-435.34
25.171,-377.26
25.187,-320.92
25.203,-266.52
25.218,-218.97
25.234,-181.83
25.250,-156.64
25.265,-142.87
25.281,-138.21
25.296,-142.14
25.312,-152.36
25.328,-147.92
25.343,-117.04
25.359,-63.18
25.375,-0.39
25.390,54.14
25.406,89.48
25.421,104.27
25.437,101.96
25.453,88.9
25.468,74.51
25.484,63.19
25.500,53.67
25.515,44.91
25.531,37.37
25.546,33.07
25.562,33.7
25.578,37.58
25.593,39.96
25.609,37.6
25.625,25.82
25.640,0.69
25.656,-35.61
25.671,-79.21
25.687,-124.77
25.703,-166.97
25.718,-202.42
25.734,-228.9
25.750,-243.17
25.765,-243.7
25.781,-230.55
25.796,-203.83
25.812,-164.01
25.828,-112.1
25.843,-50.64
25.859,16.22
25.875,82.98
25.890,144.04
25.906,193.94
25.921,228.24
25.937,244.81
25.953,244.0
25.968,228.42
25.984,201.87
26.000,169.43
26.015,135.52
26.031,103.51
26.046,75.42
26.062,52.58
26.078,36.04
26.093,26.73
26.109,25.54
26.125,32.47
26.140,48.39
26.156,72.35
26.171,101.48
26.187,131.55
26.203,158.67
26.218,180.84
26.234,198.48
26.250,213.73
26.265,229.29
26.281,250.51
26.296,280.81
26.312,320.43
26.328,366.53
26.343,414.84
26.359,461.74
26.375,505.33
26.390,544.87
26.406,580.28
26.421,616.19
26.437,656.68
26.453,702.63
26.468,750.23
26.484,791.83
26.500,818.42
26.515,822.48
26.531,800.41
26.546,724.68
26.562,586.54
26.578,398.35
26.593,190.37
26.609,-3.54
26.625,-160.82
26.640,-274.91
26.656,-350.51
26.671,-396.71
26.687,-419.11
26.703,-422.73
26.718,-412.78
26.734,-396.42
26.750,-382.9
26.765,-380.37
26.781,-392.23
26.796,-415.7
26.812,-443.38
26.828,-465.77
26.843,-471.32
26.859,-453.58
26.875,-413.84
26.890,-360.14
26.906,-303.29
26.921,-252.18
26.937,-210.85
26.953,-178.85
26.968,-152.69
26.984,-126.09
27.000,-93.86
27.015,-53.86
27.031,-8.49
27.046,35.58
27.062,69.34
27.078,84.23
27.093,74.47
27.109,38.43
27.125,-19.96
27.140,-92.73
27.156,-169.15
27.171,-237.46
27.187,-286.42
27.203,-306.72
27.218,-293.75
27.234,-250.51
27.250,-189.0
27.265,-126.89
27.281,-81.48
27.296,-62.32
27.312,-67.41
27.328,-84.57
27.343,-97.18
27.359,-92.09
27.375,-65.43
27.390,-23.48
27.406,19.55
27.421,47.56
27.437,51.37
27.453,32.61
27.468,0.25
27.484,-35.98
27.500,-70.5
27.515,-101.08
27.531,-129.79
27.546,-156.77
27.562,-179.39
27.578,-193.23
27.593,-194.9
27.609,-183.99
27.625,-162.78
27.640,-135.74
27.656,-107.32
27.671,-80.67
27.687,-56.52
27.703,-33.63
27.718,-9.76
27.734,16.97
27.750,46.84
27.765,78.54
27.781,109.8
27.796,138.75
27.812,164.71
27.828,188.56
27.843,211.84
27.859,235.67
27.875,259.22
27.890,279.04
27.906,290.28
27.921,288.77
27.937,273.3
27.953,246.53
27.968,214.11
27.984,182.23
28.000,155.46
28.015,135.68
28.031,122.13
28.046,113.52
28.062,109.13
28.078,109.1
28.093,112.86
28.109,117.52
28.125,118.07
28.140,108.75
28.156,86.55
28.171,52.83
28.187,13.44
28.203,-23.64
28.218,-51.42
28.234,-65.93
28.250,-66.66
28.265,-55.62
28.281,-36.63
28.296,-14.6
28.312,4.87
28.328,16.96
28.343,19.35
28.359,13.5
28.375,4.47
28.390,-1.41
28.406,0.34
28.421,10.18
28.437,24.94
28.453,40.04
28.468,52.18
28.484,60.92
28.500,67.21
28.515,71.9
28.531,74.01
28.546,70.72
28.562,58.63
28.578,36.16
28.593,4.66
28.609,-31.75
28.625,-66.73
28.640,-94.69
28.656,-112.16
28.671,-118.77
28.687,-116.91
28.703,-110.03
28.718,-99.78
28.734,-84.56
28.750,-60.43
28.765,-23.84
28.781,24.98
28.796,80.85
28.812,135.55
28.828,180.59
28.843,209.43
28.859,218.74
28.875,208.03
28.890,179.21
28.906,136.63
28.921,86.77
28.937,37.42
28.953,-3.94
28.968,-33.4
28.984,-52.99
29.000,-69.24
29.015,-89.46
29.031,-117.43
29.046,-150.37
29.062,-179.98
29.078,-200.8
29.093,-211.7
29.109,-213.32
29.125,-209.33
29.140,-203.93
29.156,-200.41
29.171,-200.77
29.187,-206.1
29.203,-217.18
29.218,-234.08
29.234,-254.67
29.250,-274.44
29.265,-287.78
29.281,-289.06
29.296,-274.42
29.312,-242.88
29.328,-196.41
29.343,-139.71
29.359,-78.82
29.375,-19.38
29.390,34.53
29.406,80.68
29.421,119.01
29.437,151.53
29.453,181.31
29.468,211.04
29.484,241.44
29.500,270.91
29.515,296.7
29.531,316.39
29.546,328.87
29.562,334.61
29.578,334.21
29.593,327.1
29.609,310.88
29.625,282.11
29.640,238.41
29.656,180.19
29.671,111.17
29.687,37.31
29.703,-34.69
29.718,-98.89
29.734,-150.48
29.750,-185.27
29.765,-199.95
29.781,-192.73
29.796,-164.5
29.812,-119.49
29.828,-64.22
29.843,-6.04
29.859,48.26
29.875,93.33
29.890,125.32
29.906,141.99
29.921,143.05
29.937,130.64
29.953,109.28
29.968,84.75
29.984,61.79
30.000,41.63
30.015,21.91
30.031,-1.69
30.046,-33.21
30.062,-74.32
30.078,-124.47
30.093,-182.02
30.109,-245.48
30.125,-313.17
30.140,-382.26
30.156,-447.33
30.171,-499.8
30.187,-530.21
30.203,-531.35
30.218,-501.62
30.234,-446.03
30.250,-374.94
30.265,-300.04
30.281,-230.84
30.296,-171.8
30.312,-122.27
30.328,-78.43
30.343,-35.99
30.359,7.26
30.375,50.77
30.390,91.95
30.406,127.85
30.421,156.67
30.437,178.54
30.453,194.69
30.468,206.34
30.484,214.49
30.500,219.79
30.515,223.21
30.531,225.73
30.546,227.66
30.562,227.78
30.578,223.48
30.593,211.87
30.609,191.21
30.625,163.05
30.640,132.36
30.656,105.64
30.671,87.32
30.687,77.42
30.703,71.65
30.718,64.71
30.734,54.06
30.750,41.36
30.765,32.32
30.781,33.96
30.796,51.68
30.812,85.79
30.828,130.91
30.843,177.05
30.859,213.63
30.875,232.35
30.890,228.83
30.906,203.66
30.921,155.96
30.937,90.72
30.953,17.77
30.968,-50.25
30.984,-102.38
31.000,-131.25
31.015,-134.67
31.031,-115.47
31.046,-79.22
31.062,-31.64
31.078,22.61
31.093,79.76
31.109,137.37
31.125,193.1
31.140,246.9
31.156,299.57
31.171,346.79
31.187,378.68
31.203,386.57
31.218,366.02
31.234,319.12
31.250,261.53
31.265,201.21
31.281,142.69
31.296,88.36
31.312,37.52
31.328,-9.82
31.343,-53.28
31.359,-92.67
31.375,-127.82
31.390,-158.56
31.406,-186.01
31.421,-210.44
31.437,-231.55
31.453,-250.37
31.468,-268.24
31.484,-285.56
31.500,-302.48
31.515,-319.43
31.531,-337.38
31.546,-358.31
31.562,-381.62
31.578,-402.01
31.593,-411.82
31.609,-401.99
31.625,-365.61
31.640,-303.24
31.656,-225.14
31.671,-148.94
31.687,-94.49
31.703,-75.03
31.718,-91.72
31.734,-136.82
31.750,-196.44
31.765,-250.27
31.781,-280.98
31.796,-279.05
31.812,-245.45
31.828,-191.02
31.843,-137.31
31.859,-91.56
31.875,-54.07
31.890,-22.26
31.906,7.23
31.921,38.05
31.937,71.69
31.953,108.35
31.968,146.54
31.984,181.96
32.000,209.48
32.015,223.39
32.031,221.11
32.046,204.73
32.062,178.33
32.078,145.75
32.093,111.32
32.109,75.72
32.125,41.01
32.140,12.54
32.156,-4.47
32.171,-6.89
32.187,4.99
32.203,27.05
32.218,52.9
32.234,76.47
32.250,94.3
32.265,107.02
32.281,119.14
32.296,135.62
32.312,160.31
32.328,194.97
32.343,235.41
32.359,275.93
32.375,310.1
32.390,331.09
32.406,333.0
32.421,312.09
32.437,267.81
32.453,204.4
32.468,130.5
32.484,57.1
32.500,-5.73
32.515,-52.04
32.531,-81.42
32.546,-97.3
32.562,-104.18
32.578,-105.62
32.593,-103.28
32.609,-97.8
32.625,-90.1
32.640,-81.86
32.656,-75.16
32.671,-71.45
32.687,-70.59
32.703,-71.03
32.718,-70.65
32.734,-67.81
32.750,-62.28
32.765,-55.24
32.781,-48.38
32.796,-43.21
32.812,-40.29
32.828,-39.09
32.843,-38.38
32.859,-36.85
32.875,-33.73
32.890,-29.19
32.906,-24.05
32.921,-19.33
32.937,-16.06
32.953,-14.61
32.968,-14.67
32.984,-15.06
33.000,-13.96
33.015,-9.53
33.031,-0.94
33.046,11.09
33.062,24.16
33.078,34.97
33.093,41.04
33.109,41.68
33.125,38.19
33.140,33.05
33.156,28.48
33.171,25.07
33.187,22.08
33.203,18.03
33.218,11.48
33.234,2.42
33.250,-8.1
33.265,-18.56
33.281,-27.67
33.296,-34.72
33.312,-39.54
33.328,-41.87
33.343,-40.78
33.359,-36.59
33.375,-29.23
33.390,-18.7
33.406,-5.54
33.421,9.22
33.437,24.21
33.453,37.69
33.468,48.39
33.484,55.8
33.500,59.8
33.515,61.09
33.531,60.51
33.546,58.92
33.562,56.87
33.578,54.33
33.593,50.66
33.609,44.99
33.625,36.52
33.640,24.81
33.656,10.77
33.671,-4.48
33.687,-19.43
33.703,-32.5
33.718,-42.91
33.734,-50.81
33.750,-56.97
33.765,-62.46
33.781,-68.15
33.796,-73.92
33.812,-79.1
33.828,-82.56
33.843,-83.3
33.859,-81.13
33.875,-77.1
33.890,-72.84
33.906,-69.94
33.921,-69.58
33.937,-71.91
33.953,-76.7
33.968,-83.16
33.984,-89.62
34.000,-93.3
34.015,-90.63
34.031,-78.46
34.046,-55.82
34.062,-25.06
34.078,8.6
34.093,38.82
34.109,61.14
34.125,73.98
34.140,78.8
34.156,78.57
34.171,75.88
34.187,71.79
34.203,65.92
34.218,57.65
34.234,47.6
34.250,37.35
34.265,28.92
34.281,23.99
34.296,23.39
34.312,26.59
34.328,32.0
34.343,36.73
34.359,37.24
34.375,30.96
34.390,17.65
34.406,0.06
34.421,-16.74
34.437,-27.31
34.453,-28.29
34.468,-19.72
34.484,-4.69
34.500,12.39
34.515,27.67
34.531,39.37
34.546,47.66
34.562,53.72
34.578,58.67
34.593,62.91
34.609,66.42
34.625,69.06
34.640,70.55
34.656,70.03
34.671,66.33
34.687,58.02
34.703,44.24
34.718,25.0
34.734,0.82
34.750,-27.12
34.765,-56.92
34.781,-85.47
34.796,-108.98
34.812,-123.81
34.828,-128.03
34.843,-123.85
34.859,-114.28
34.875,-104.52
34.890,-98.91
34.906,-98.2
34.921,-99.24
34.937,-96.89
34.953,-87.11
34.968,-69.45
34.984,-47.52
35.000,-26.87
35.015,-12.89
35.031,-7.6
35.046,-8.82
35.062,-11.65
35.078,-10.42
35.093,-2.69
35.109,10.18
35.125,23.79
35.140,33.06
35.156,34.13
35.171,26.7
35.187,13.43
35.203,-1.9
35.218,-16.33
35.234,-28.9
35.250,-40.1
35.265,-50.92
35.281,-59.9
35.296,-64.2
35.312,-60.29
35.328,-45.56
35.343,-19.67
35.359,15.12
35.375,53.8
35.390,88.91
35.406,112.83
35.421,120.56
35.437,111.35
35.453,89.44
35.468,62.41
35.484,38.25
35.500,22.51
35.515,16.44
35.531,17.43
35.546,21.83
35.562,26.74
35.578,30.87
35.593,34.1
35.609,36.38
35.625,35.51
35.640,28.38
35.656,12.34
35.671,-12.74
35.687,-42.9
35.703,-71.57
35.718,-92.07
35.734,-100.63
35.750,-98.19
35.765,-89.79
35.781,-81.73
35.796,-78.51
35.812,-80.5
35.828,-84.11
35.843,-83.99
35.859,-75.99
35.875,-58.98
35.890,-35.09
35.906,-8.38
35.921,17.74
35.937,41.55
35.953,62.86
35.968,81.89
35.984,98.18
36.000,110.43
36.015,117.32
36.031,118.01
36.046,113.31
36.062,105.58
36.078,97.79
36.093,92.43
36.109,90.45
36.125,90.96
36.140,91.9
36.156,91.14
36.171,87.51
36.187,81.58
36.203,75.29
36.218,70.75
36.234,69.02
36.250,69.66
36.265,71.43
36.281,73.25
36.296,74.76
36.312,75.88
36.328,76.05
36.343,73.26
36.359,64.5
36.375,47.59
36.390,22.68
36.406,-6.38
36.421,-33.47
36.437,-52.67
36.453,-61.66
36.468,-61.92
36.484,-57.73
36.500,-52.89
36.515,-48.1
36.531,-41.06
36.546,-29.29
36.562,-13.87
36.578,-0.66
36.593,1.96
36.609,-11.16
36.625,-37.84
36.640,-68.49
36.656,-90.59
36.671,-95.27
36.687,-82.09
36.703,-58.77
36.718,-36.37
36.734,-22.68
36.750,-19.05
36.765,-21.17
36.781,-22.9
36.796,-20.65
36.812,-15.2
36.828,-10.1
36.843,-8.59
36.859,-11.45
36.875,-16.33
36.890,-19.72
36.906,-19.11
36.921,-14.2
36.937,-6.91
36.953,-0.39
36.968,2.79
36.984,1.86
37.000,-1.83
37.015,-5.52
37.031,-6.66
37.046,-4.2
37.062,0.81
37.078,5.76
37.093,7.8
37.109,5.06
37.125,-2.38
37.140,-12.44
37.156,-21.99
37.171,-27.91
37.187,-27.9
37.203,-20.68
37.218,-6.27
37.234,13.51
37.250,34.97
37.265,52.92
37.281,62.18
37.296,59.99
37.312,47.76
37.328,30.9
37.343,16.66
37.359,11.05
37.375,16.13
37.390,29.87
37.406,47.23
37.421,63.12
37.437,74.38
37.453,80.04
37.468,80.32
37.484,75.79
37.500,66.45
37.515,51.94
37.531,32.57
37.546,9.34
37.562,-16.0
37.578,-41.37
37.593,-64.7
37.609,-85.12
37.625,-101.3
37.640,-112.48
37.656,-118.62
37.671,-120.07
37.687,-117.77
37.703,-113.23
37.718,-108.13
37.734,-103.25
37.750,-101.02
37.765,-103.16
37.781,-110.54
37.796,-122.15
37.812,-134.65
37.828,-142.59
37.843,-140.64
37.859,-126.03
37.875,-100.5
37.890,-69.84
37.906,-41.63
37.921,-22.25
37.937,-14.17
37.953,-15.41
37.968,-21.24
37.984,-26.99
38.000,-29.82
38.015,-29.38
38.031,-26.35
38.046,-20.41
38.062,-10.27
38.078,5.93
38.093,29.09
38.109,57.72
38.125,88.18
38.140,115.94
38.156,137.04
38.171,149.46
38.187,153.83
38.203,152.74
38.218,149.52
38.234,147.02
38.250,147.42
38.265,150.84
38.281,156.23
38.296,161.22
38.312,162.08
38.328,154.63
38.343,135.64
38.359,104.81
38.375,65.63
38.390,24.84
38.406,-10.05
38.421,-33.79
38.437,-45.39
38.453,-47.85
38.468,-45.84
38.484,-42.98
38.500,-40.21
38.515,-35.96
38.531,-28.33
38.546,-16.9
38.562,-3.67
38.578,7.85
38.593,14.25
38.609,13.7
38.625,6.09
38.640,-7.54
38.656,-25.47
38.671,-45.62
38.687,-65.02
38.703,-79.9
38.718,-86.57
38.734,-83.22
38.750,-71.04
38.765,-54.19
38.781,-38.1
38.796,-27.13
38.812,-23.04
38.828,-24.38
38.843,-28.42
38.859,-32.99
38.875,-37.44
38.890,-42.26
38.906,-47.78
38.921,-52.79
38.937,-54.43
38.953,-49.79
38.968,-37.14
38.984,-17.27
39.000,6.53
39.015,29.93
39.031,49.22
39.046,62.5
39.062,70.03
39.078,73.67
39.093,75.45
39.109,76.9
39.125,78.45
39.140,80.0
39.156,81.27
39.171,81.62
39.187,79.75
39.203,73.46
39.218,60.54
39.234,39.57
39.250,12.9
39.265,-14.7
39.281,-37.32
39.296,-50.29
39.312,-52.2
39.328,-44.88
39.343,-32.16
39.359,-17.44
39.375,-2.53
39.390,12.33
39.406,26.92
39.421,40.01
39.437,49.31
39.453,52.46
39.468,48.47
39.484,38.29
39.500,24.15
39.515,8.28
39.531,-7.76
39.546,-23.81
39.562,-40.64
39.578,-59.15
39.593,-80.03
39.609,-103.34
39.625,-128.2
39.640,-152.31
39.656,-172.01
39.671,-182.71
39.687,-180.26
39.703,-163.45
39.718,-135.2
39.734,-101.96
39.750,-71.55
39.765,-50.34
39.781,-39.75
39.796,-37.37
39.812,-38.15
39.828,-36.76
39.843,-29.83
39.859,-16.68
39.875,1.59
39.890,23.19
39.906,46.36
39.921,69.69
39.937,91.9
39.953,111.5
39.968,127.12
39.984,137.86
40.000,143.32
40.015,144.47
40.031,143.11
40.046,141.86
40.062,142.81
40.078,146.08
40.093,149.05
40.109,146.88
40.125,134.88
40.140,110.11
40.156,74.46
40.171,33.92
40.187,-3.16
40.203,-29.79
40.218,-43.07
40.234,-44.67
40.250,-39.15
40.265,-31.3
40.281,-24.06
40.296,-17.79
40.312,-11.75
40.328,-4.92
40.343,2.82
40.359,10.87
40.375,18.44
40.390,25.1
40.406,30.52
40.421,34.14
40.437,35.34
40.453,32.98
40.468,26.19
40.484,14.65
40.500,-1.11
40.515,-19.75
40.531,-39.42
40.546,-58.42
40.562,-75.47
40.578,-89.81
40.593,-101.37
40.609,-110.8
40.625,-119.38
40.640,-128.53
40.656,-137.76
40.671,-144.92
40.687,-146.03
40.703,-136.74
40.718,-114.84
40.734,-81.98
40.750,-43.75
40.765,-7.89
40.781,18.72
40.796,32.95
40.812,35.45
40.828,29.67
40.843,20.06
40.859,9.7
40.875,-0.13
40.890,-9.19
40.906,-17.42
40.921,-24.19
40.937,-28.4
40.953,-29.12
40.968,-26.13
40.984,-19.59
41.000,-9.89
41.015,2.6
41.031,17.95
41.046,36.6
41.062,59.05
41.078,85.27
41.093,113.2
41.109,138.17
41.125,153.91
41.140,154.53
41.156,137.59
41.171,106.28
41.187,67.89
41.203,32.21
41.218,7.47
41.234,-2.85
41.250,-0.81
41.265,8.36
41.281,19.15
41.296,28.28
41.312,35.37
41.328,41.28
41.343,46.88
41.359,51.62
41.375,53.7
41.390,51.09
41.406,42.71
41.421,28.9
41.437,11.12
41.453,-8.69
41.468,-29.47
41.484,-50.86
41.500,-72.36
41.515,-91.99
41.531,-106.07
41.546,-110.07
41.562,-100.83
41.578,-78.98
41.593,-48.27
41.609,-15.29
41.625,13.94
41.640,35.93
41.656,49.74
41.671,55.44
41.687,52.09
41.703,37.62
41.718,10.62
41.734,-27.21
41.750,-70.83
41.765,-112.91
41.781,-146.73
41.796,-168.23
41.812,-176.43
41.828,-172.03
41.843,-155.84
41.859,-129.0
41.875,-92.55
41.890,-50.11
41.906,-7.75
41.921,27.61
41.937,50.9
41.953,60.66
41.968,58.89
41.984,49.59
42.000,36.8
42.015,23.72
42.031,12.38
42.046,4.82
42.062,3.43
42.078,10.25
42.093,25.13
42.109,44.5
42.125,61.69
42.140,69.08
42.156,61.95
42.171,41.02
42.187,12.9
42.203,-12.87
42.218,-28.01
42.234,-29.13
42.250,-18.6
42.265,-2.5
42.281,12.85
42.296,23.73
42.312,28.94
42.328,29.3
42.343,25.55
42.359,18.35
42.375,9.13
42.390,0.85
42.406,-2.49
42.421,2.21
42.437,15.07
42.453,32.35
42.468,47.74
42.484,55.04
42.500,50.9
42.515,36.01
42.531,14.09
42.546,-10.33
42.562,-33.79
42.578,-54.45
42.593,-71.6
42.609,-84.78
42.625,-92.95
42.640,-94.93
42.656,-89.73
42.671,-77.5
42.687,-59.35
42.703,-36.83
42.718,-11.71
42.734,14.67
42.750,41.11
42.765,66.34
42.781,88.56
42.796,106.02
42.812,116.92
42.828,120.06
42.843,115.34
42.859,103.48
42.875,86.15
42.890,65.62
42.906,44.28
42.921,24.27
42.937,7.2
42.953,-5.9
42.968,-14.36
42.984,-17.75
43.000,-16.08
43.015,-10.06
43.031,-1.1
43.046,8.79
43.062,17.59
43.078,23.1
43.093,23.54
43.109,17.85
43.125,6.12
43.140,-10.29
43.156,-28.51
43.171,-44.61
43.187,-54.47
43.203,-55.63
43.218,-49.11
43.234,-39.65
43.250,-34.22
43.265,-38.9
43.281,-55.28
43.296,-79.4
43.312,-103.96
43.328,-121.59
43.343,-127.42
43.359,-120.02
43.375,-99.95
43.390,-68.2
43.406,-25.55
43.421,26.5
43.437,84.64
43.453,142.06
43.468,190.64
43.484,223.62
43.500,237.91
43.515,234.79
43.531,218.26
43.546,193.23
43.562,164.25
43.578,134.7
43.593,106.79
43.609,82.7
43.625,64.71
43.640,54.39
43.656,51.34
43.671,52.21
43.687,51.41
43.703,42.49
43.718,20.53
43.734,-15.42
43.750,-61.14
43.765,-107.72
43.781,-143.75
43.796,-160.98
43.812,-158.08
43.828,-139.53
43.843,-112.32
43.859,-82.66
43.875,-53.94
43.890,-26.72
43.906,-0.6
43.921,23.8
43.937,44.97
43.953,60.32
43.968,68.57
43.984,69.58
44.000,63.89
44.015,53.02
44.031,38.76
44.046,22.77
44.062,6.01
44.078,-10.54
44.093,-26.19
44.109,-39.33
44.125,-44.97
44.140,-40.63
44.156,-26.21
44.171,-2.97
44.187,26.8
44.203,58.31
44.218,89.52
44.234,117.58
44.250,139.76
44.265,153.24
44.281,155.68
44.296,145.2
44.312,121.91
44.328,87.79
44.343,45.87
44.359,-0.78
44.375,-50.84
44.390,-100.46
44.406,-146.58
44.421,-186.8
44.437,-220.38
44.453,-246.25
44.468,-263.19
44.484,-270.69
44.500,-269.59
44.515,-263.14
44.531,-255.93
44.546,-253.27
44.562,-248.67
44.578,-239.77
44.593,-228.04
44.609,-217.48
44.625,-211.02
44.640,-207.23
44.656,-200.61
44.671,-183.86
44.687,-151.99
44.703,-104.79
44.718,-49.29
44.734,4.08
44.750,45.99
44.765,71.18
44.781,79.76
44.796,75.67
44.812,64.26
44.828,49.35
44.843,33.77
44.859,18.56
44.875,5.71
44.890,-1.5
44.906,0.43
44.921,13.51
44.937,37.14
44.953,68.58
44.968,103.67
44.984,137.56
45.000,166.26
45.015,188.16
45.031,203.8
45.046,215.07
45.062,224.24
45.078,232.79
45.093,240.15
45.109,243.32
45.125,237.31
45.140,216.84
45.156,179.52
45.171,128.1
45.187,70.34
45.203,16.53
45.218,-24.51
45.234,-49.05
45.250,-58.94
45.265,-59.73
45.281,-57.49
45.296,-55.68
45.312,-54.49
45.328,-52.23
45.343,-47.53
45.359,-41.25
45.375,-35.94
45.390,-33.64
45.406,-33.48
45.421,-31.27
45.437,-21.0
45.453,1.98
45.468,37.58
45.484,80.45
45.500,121.59
45.515,152.23
45.531,167.16
45.546,165.48
45.562,149.35
45.578,121.49
45.593,83.51
45.609,36.51
45.625,-16.91
45.640,-71.23
45.656,-118.39
45.671,-149.29
45.687,-159.32
45.703,-150.07
45.718,-127.71
45.734,-100.12
45.750,-73.63
45.765,-51.29
45.781,-33.52
45.796,-19.39
45.812,-7.91
45.828,1.08
45.843,7.89
45.859,13.4
45.875,18.51
45.890,24.11
45.906,30.91
45.921,38.88
45.937,47.52
45.953,56.18
45.968,63.5
45.984,68.42
46.000,70.09
46.015,67.77
46.031,60.88
46.046,49.17
46.062,32.81
46.078,12.77
46.093,-9.11
46.109,-30.9
46.125,-50.83
46.140,-67.58
46.156,-80.71
46.171,-90.45
46.187,-97.35
46.203,-102.23
46.218,-105.9
46.234,-109.54
46.250,-114.11
46.265,-119.26
46.281,-122.8
46.296,-120.95
46.312,-109.72
46.328,-87.13
46.343,-54.93
46.359,-18.18
46.375,16.11
46.390,41.93
46.406,56.55
46.421,60.95
46.437,58.47
46.453,52.89
46.468,46.81
46.484,41.49
46.500,37.41
46.515,35.01
46.531,34.81
46.546,36.85
46.562,40.12
46.578,42.72
46.593,42.9
46.609,40.14
46.625,35.5
46.640,31.41
46.656,30.24
46.671,33.03
46.687,38.77
46.703,44.74
46.718,47.87
46.734,46.26
46.750,40.3
46.765,32.53
46.781,26.45
46.796,24.85
46.812,28.97
46.828,37.86
46.843,48.66
46.859,57.17
46.875,58.64
46.890,48.88
46.906,25.39
46.921,-10.95
46.937,-55.04
46.953,-97.65
46.968,-128.23
46.984,-138.9
47.000,-128.2
47.015,-102.41
47.031,-73.37
47.046,-52.2
47.062,-45.05
47.078,-50.36
47.093,-60.21
47.109,-65.23
47.125,-60.01
47.140,-45.62
47.156,-27.97
47.171,-13.35
47.187,-4.03
47.203,2.72
47.218,12.27
47.234,28.27
47.250,49.41
47.265,69.29
47.281,79.91
47.296,75.44
47.312,55.58
47.328,25.84
47.343,-5.05
47.359,-28.7
47.375,-39.53
47.390,-36.65
47.406,-23.52
47.421,-5.07
47.437,14.19
47.453,31.69
47.468,47.26
47.484,61.67
47.500,75.39
47.515,87.14
47.531,94.02
47.546,92.55
47.562,80.57
47.578,58.18
47.593,27.69
47.609,-6.93
47.625,-41.71
47.640,-73.9
47.656,-101.77
47.671,-124.18
47.687,-140.05
47.703,-147.91
47.718,-146.38
47.734,-135.9
47.750,-115.92
47.765,-87.84
47.781,-54.61
47.796,-20.06
47.812,11.57
47.828,36.33
47.843,51.42
47.859,55.69
47.875,50.04
47.890,37.78
47.906,22.97
47.921,9.79
47.937,1.73
47.953,0.69
47.968,6.33
47.984,15.85
48.000,24.1
48.015,25.18
48.031,14.9
48.046,-7.51
48.062,-38.15
48.078,-69.25
48.093,-91.98
48.109,-99.94
48.125,-91.48
48.140,-70.15
48.156,-42.73
48.171,-16.22
48.187,4.2
48.203,16.28
48.218,20.22
48.234,17.52
48.250,9.58
48.265,-2.69
48.281,-18.81
48.296,-37.99
48.312,-58.54
48.328,-78.14
48.343,-94.17
48.359,-104.66
48.375,-108.54
48.390,-106.14
48.406,-98.53
48.421,-86.86
48.437,-71.71
48.453,-52.9
48.468,-30.12
48.484,-3.45
48.500,23.72
48.515,46.82
48.531,60.98
48.546,62.41
48.562,49.8
48.578,24.8
48.593,-8.41
48.609,-44.56
48.625,-78.92
48.640,-108.43
48.656,-131.77
48.671,-148.86
48.687,-160.13
48.703,-165.87
48.718,-166.31
48.734,-162.05
48.750,-154.36
48.765,-144.97
48.781,-135.45
48.796,-126.13
48.812,-115.86
48.828,-102.66
48.843,-84.78
48.859,-61.94
48.875,-35.63
48.890,-8.35
48.906,17.72
48.921,41.96
48.937,65.48
48.953,90.37
48.968,118.09
48.984,148.36
49.000,179.29
49.015,207.93
49.031,232.15
49.046,251.18
49.062,265.18
49.078,274.06
49.093,276.91
49.109,271.39
49.125,254.94
49.140,226.67
49.156,188.04
49.171,144.32
49.187,102.37
49.203,68.05
49.218,44.45
49.234,32.84
49.250,32.1
49.265,40.01
49.281,54.1
49.296,70.57
49.312,87.08
49.328,101.57
49.343,111.74
49.359,116.04
49.375,116.21
49.390,115.23
49.406,116.23
49.421,121.17
49.437,127.88
49.453,135.12
49.468,142.0
49.484,147.99
49.500,154.32
49.515,166.07
49.531,188.52
49.546,224.7
49.562,273.74
49.578,327.9
49.593,380.4
49.609,425.72
49.625,460.13
49.640,465.33
49.656,431.62
49.671,359.95
49.687,262.53
49.703,175.79
49.718,111.12
49.734,69.43
49.750,46.48
49.765,30.05
49.781,11.37
49.796,-13.64
49.812,-46.0
49.828,-84.59
49.843,-126.59
49.859,-171.82
49.875,-216.86
49.890,-258.19
49.906,-293.95
49.921,-323.61
49.937,-346.35
49.953,-361.83
49.968,-371.16
49.984,-376.06
50.000,-381.21
50.015,-388.06
50.031,-396.36
50.046,-405.34
50.062,-414.22
50.078,-421.81
50.093,-427.13
50.109,-431.16
50.125,-430.82
50.140,-425.12
50.156,-410.64
50.171,-383.16
50.187,-339.95
50.203,-281.89
50.218,-218.07
50.234,-153.8
50.250,-94.28
50.265,-43.63
50.281,-4.66
50.296,23.99
50.312,44.4
50.328,59.72
50.343,72.46
50.359,83.79
50.375,94.49
50.390,104.37
50.406,113.43
50.421,121.25
50.437,127.27
50.453,130.29
50.468,129.6
50.484,125.46
50.500,120.13
50.515,118.33
50.531,124.82
50.546,142.76
50.562,171.34
50.578,204.95
50.593,233.94
50.609,247.94
50.625,238.45
50.640,202.59
50.656,145.59
50.671,79.24
50.687,18.52
50.703,-23.83
50.718,-41.74
50.734,-37.45
50.750,-18.18
50.765,6.17
50.781,27.36
50.796,41.86
50.812,50.68
50.828,58.1
50.843,69.4
50.859,88.82
50.875,118.49
50.890,159.22
50.906,207.95
50.921,257.73
50.937,299.06
50.953,321.97
50.968,319.81
50.984,291.48
51.000,241.68
51.015,171.53
51.031,90.35
51.046,10.97
51.062,-55.07
51.078,-101.67
51.093,-129.39
51.109,-142.44
51.125,-145.44
51.140,-143.01
51.156,-139.26
51.171,-135.81
51.187,-133.31
51.203,-131.53
51.218,-129.43
51.234,-127.11
51.250,-125.78
51.265,-128.0
51.281,-137.73
51.296,-158.23
51.312,-188.67
51.328,-223.73
51.343,-254.9
51.359,-269.64
51.375,-260.05
51.390,-228.78
51.406,-181.53
51.421,-127.74
51.437,-78.75
51.453,-45.13
51.468,-33.64
51.484,-46.86
51.500,-80.85
51.515,-125.4
51.531,-165.94
51.546,-188.04
51.562,-183.69
51.578,-153.36
51.593,-105.73
51.609,-52.74
51.625,-5.1
51.640,30.54
51.656,51.84
51.671,61.06
51.687,63.17
51.703,63.22
51.718,65.25
51.734,70.7
51.750,80.42
51.765,94.7
51.781,113.0
51.796,128.51
51.812,134.51
51.828,126.61
51.843,104.03
51.859,76.49
51.875,47.31
51.890,19.16
51.906,-3.14
51.921,-16.64
51.937,-18.31
51.953,-7.3
51.968,14.18
51.984,41.62
52.000,69.93
52.015,94.55
52.031,114.62
52.046,133.72
52.062,156.87
52.078,188.74
52.093,232.35
52.109,288.02
52.125,353.19
52.140,422.44
52.156,486.92
52.171,526.65
52.187,524.57
52.203,472.63
52.218,377.4
52.234,258.84
52.250,141.3
52.265,43.43
52.281,-27.21
52.296,-73.93
52.312,-104.18
52.328,-126.38
52.343,-144.64
52.359,-159.63
52.375,-171.07
52.390,-180.05
52.406,-189.26
52.421,-202.15
52.437,-222.01
52.453,-248.76
52.468,-280.11
52.484,-312.36
52.500,-343.22
52.515,-372.62
52.531,-402.19
52.546,-433.05
52.562,-463.51
52.578,-488.47
52.593,-500.99
52.609,-494.91
52.625,-467.64
52.640,-421.94
52.656,-364.76
52.671,-304.56
52.687,-248.39
52.703,-200.05
52.718,-160.31
52.734,-128.24
52.750,-102.27
52.765,-80.58
52.781,-61.36
52.796,-42.58
52.812,-22.36
52.828,0.11
52.843,24.01
52.859,46.96
52.875,65.83
52.890,78.01
52.906,82.94
52.921,82.15
52.937,79.07
52.953,78.28
52.968,84.25
52.984,100.7
53.000,128.93
53.015,166.23
53.031,205.06
53.046,234.16
53.062,241.81
53.078,220.86
53.093,172.71
53.109,108.16
53.125,44.36
53.140,-1.48
53.156,-18.11
53.171,-3.11
53.187,37.99
53.203,95.33
53.218,158.94
53.234,221.12
53.250,276.64
53.265,321.82
53.281,353.84
53.296,371.2
53.312,374.92
53.328,369.24
53.343,359.8
53.359,351.48
53.375,345.94
53.390,340.94
53.406,331.93
53.421,314.38
53.437,286.32
53.453,249.62
53.468,209.87
53.484,173.53
53.500,145.4
53.515,127.09
53.531,116.89
53.546,110.96
53.562,104.93
53.578,95.64
53.593,81.93
53.609,65.22
53.625,47.21
53.640,28.41
53.656,7.25
53.671,-19.18
53.687,-53.6
53.703,-96.58
53.718,-144.87
53.734,-195.41
53.750,-238.75
53.765,-264.5
53.781,-267.52
53.796,-251.63
53.812,-227.14
53.828,-204.5
53.843,-189.27
53.859,-179.55
53.875,-170.52
53.890,-157.55
53.906,-139.36
53.921,-117.59
53.937,-94.33
53.953,-69.72
53.968,-41.55
53.984,-8.32
54.000,28.92
54.015,64.99
54.031,92.07
54.046,101.79
54.062,88.99
54.078,54.27
54.093,3.75
54.109,-53.78
54.125,-110.59
54.140,-161.92
54.156,-205.83
54.171,-240.67
54.187,-263.98
54.203,-272.8
54.218,-265.34
54.234,-242.83
54.250,-209.73
54.265,-172.05
54.281,-134.63
54.296,-99.47
54.312,-65.82
54.328,-32.15
54.343,1.4
54.359,32.77
54.375,59.12
54.390,78.94
54.406,93.23
54.421,104.99
54.437,117.48
54.453,132.49
54.468,149.54
54.484,165.87
54.500,177.42
54.515,179.9
54.531,169.81
54.546,145.48
54.562,107.94
54.578,61.21
54.593,11.4
54.609,-35.23
54.625,-74.46
54.640,-104.99
54.656,-127.52
54.671,-142.66
54.687,-149.41
54.703,-145.43
54.718,-129.01
54.734,-101.49
54.750,-68.07
54.765,-36.09
54.781,-11.9
54.796,1.96
54.812,7.44
54.828,9.39
54.843,12.21
54.859,17.57
54.875,23.66
54.890,26.45
54.906,22.16
54.921,9.38
54.937,-10.24
54.953,-32.89
54.968,-54.3
54.984,-71.67
55.000,-84.6
55.015,-94.86
55.031,-105.01
55.046,-116.57
55.062,-128.73
55.078,-138.33
55.093,-141.2
55.109,-134.21
55.125,-117.23
55.140,-93.68
55.156,-69.45
55.171,-50.59
55.187,-41.04
55.203,-41.17
55.218,-47.99
55.234,-56.61
55.250,-62.09
55.265,-60.98
55.281,-51.98
55.296,-35.47
55.312,-12.18
55.328,17.8
55.343,55.07
55.359,100.66
55.375,154.73
55.390,215.93
55.406,280.97
55.421,344.69
55.437,400.68
55.453,442.33
55.468,464.33
55.484,464.12
55.500,443.03
55.515,406.08
55.531,360.55
55.546,313.89
55.562,271.65
55.578,236.35
55.593,207.71
55.609,183.9
55.625,162.72
55.640,142.15
55.656,120.59
55.671,96.9
55.687,71.13
55.703,45.1
55.718,22.74
55.734,9.19
55.750,9.04
55.765,24.29
55.781,53.19
55.796,90.93
55.812,131.31
55.828,168.68
55.843,198.69
55.859,218.52
55.875,226.1
55.890,220.23
55.906,201.32
55.921,172.1
55.937,137.65
55.953,103.99
55.968,76.09
55.984,55.57
56.000,40.54
56.015,26.71
56.031,9.55
56.046,-13.72
56.062,-43.53
56.078,-78.66
56.093,-117.6
56.109,-159.67
56.125,-205.06
56.140,-254.13
56.156,-306.89
56.171,-362.75
56.187,-420.29
56.203,-477.49
56.218,-531.38
56.234,-577.81
56.250,-611.58
56.265,-627.51
56.281,-621.96
56.296,-594.51
56.312,-548.31
56.328,-488.84
56.343,-422.01
56.359,-352.07
56.375,-281.58
56.390,-212.55
56.406,-148.1
56.421,-92.87
56.437,-51.76
56.453,-27.55
56.468,-18.67
56.484,-19.26
56.500,-21.26
56.515,-17.86
56.531,-6.45
56.546,10.62
56.562,27.53
56.578,38.0
56.593,38.37
56.609,29.19
56.625,14.78
56.640,1.34
56.656,-5.47
56.671,-2.11
56.687,12.21
56.703,36.1
56.718,66.66
56.734,100.54
56.750,134.37
56.765,164.94
56.781,189.71
56.796,206.96
56.812,216.09
56.828,217.42
56.843,211.67
56.859,199.49
56.875,181.36
56.890,157.87
56.906,130.28
56.921,100.37
56.937,69.84
56.953,39.02
56.968,6.16
56.984,-32.01
57.000,-78.18
57.015,-132.27
57.031,-189.83
57.046,-242.58
57.062,-281.04
57.078,-297.73
57.093,-289.7
57.109,-259.05
57.125,-211.5
57.140,-154.63
57.156,-96.24
57.171,-43.46
57.187,-2.17
57.203,23.52
57.218,32.34
57.234,26.41
57.250,10.52
57.265,-9.38
57.281,-28.31
57.296,-43.67
57.312,-55.07
57.328,-63.09
57.343,-68.11
57.359,-69.3
57.375,-64.94
57.390,-53.73
57.406,-35.48
57.421,-11.21
57.437,17.39
57.453,48.89
57.468,82.39
57.484,116.73
57.500,150.35
57.515,180.99
57.531,205.56
57.546,221.1
57.562,225.62
57.578,218.67
57.593,201.49
57.609,176.6
57.625,146.67
57.640,114.21
57.656,81.11
57.671,48.0
57.687,14.29
57.703,-21.44
57.718,-60.78
57.734,-104.56
57.750,-147.24
57.765,-180.9
57.781,-197.03
57.796,-190.15
57.812,-161.11
57.828,-116.94
57.843,-67.36
57.859,-21.2
57.875,16.16
57.890,42.96
57.906,60.06
57.921,68.56
57.937,71.57
57.953,70.73
57.968,65.87
57.984,55.84
58.000,39.23
58.015,15.25
58.031,-16.43
58.046,-55.13
58.062,-98.9
58.078,-144.33
58.093,-184.84
58.109,-213.54
58.125,-224.53
58.140,-214.96
58.156,-186.21
58.171,-144.24
58.187,-97.04
58.203,-52.17
58.218,-14.19
58.234,16.09
58.250,41.01
58.265,64.27
58.281,86.31
58.296,107.57
58.312,122.26
58.328,123.66
58.343,106.98
58.359,73.02
58.375,29.5
58.390,-10.97
58.406,-35.52
58.421,-36.68
58.437,-14.85
58.453,22.12
58.468,65.18
58.484,107.22
58.500,145.34
58.515,180.06
58.531,212.74
58.546,243.57
58.562,271.15
58.578,294.48
58.593,314.15
58.609,334.69
58.625,360.7
58.640,393.65
58.656,429.57
58.671,459.89
58.687,474.38
58.703,465.34
58.718,431.04
58.734,367.71
58.750,282.1
58.765,187.78
58.781,100.24
58.796,30.81
58.812,-16.41
58.828,-43.76
58.843,-56.97
58.859,-62.06
58.875,-63.93
58.890,-64.91
58.906,-66.08
58.921,-68.4
58.937,-72.93
58.953,-81.18
58.968,-94.74
58.984,-115.39
59.000,-145.12
59.015,-184.83
59.031,-234.26
59.046,-292.73
59.062,-358.65
59.078,-428.3
59.093,-495.04
59.109,-549.91
59.125,-584.11
59.140,-592.18
59.156,-574.36
59.171,-536.06
59.187,-486.14
59.203,-433.55
59.218,-384.41
59.234,-340.93
59.250,-302.44
59.265,-267.53
59.281,-235.25
59.296,-205.44
59.312,-177.47
59.328,-149.49
59.343,-118.59
59.359,-81.87
59.375,-37.98
59.390,11.98
59.406,64.67
59.421,115.46
59.437,160.55
59.453,198.43
59.468,230.28
59.484,259.13
59.500,288.53
59.515,321.15
59.531,357.98
59.546,398.02
59.562,438.43
59.578,474.83
59.593,501.93
59.609,514.66
59.625,509.83
59.640,488.03
59.656,454.4
59.671,416.94
59.687,383.3
59.703,357.14
59.718,336.01
59.734,312.55
59.750,278.59
59.765,229.67
59.781,167.62
59.796,99.68
59.812,34.74
59.828,-20.6
59.843,-64.24
59.859,-98.18
59.875,-126.54
59.890,-153.37
59.906,-181.56
59.921,-212.87
59.937,-247.81
59.953,-284.95
59.968,-320.31
59.984,-347.45
