timestamp,value
00.000,114.66
00.015,107.84
00.031,98.55
00.046,87.27
00.062,75.2
00.078,63.96
00.093,54.67
00.109,47.78
00.125,42.79
00.140,39.18
00.156,36.6
00.171,34.85
00.187,33.67
00.203,32.85
00.218,32.01
00.234,30.54
00.250,28.05
00.265,23.73
00.281,17.21
00.296,8.52
00.312,-1.67
00.328,-11.75
00.343,-19.65
00.359,-23.5
00.375,-22.38
00.390,-16.59
00.406,-7.44
00.421,3.49
00.437,14.74
00.453,25.46
00.468,35.24
00.484,43.75
00.500,50.39
00.515,54.58
00.531,55.93
00.546,54.72
00.562,51.83
00.578,48.51
00.593,46.11
00.609,45.87
00.625,48.55
00.640,54.11
00.656,62.19
00.671,72.2
00.687,83.76
00.703,96.68
00.718,110.64
00.734,124.8
00.750,137.86
00.765,147.92
00.781,152.9
00.796,151.1
00.812,141.01
00.828,121.62
00.843,92.28
00.859,52.96
00.875,4.48
00.890,-50.52
00.906,-107.61
00.921,-161.26
00.937,-206.42
00.953,-240.15
00.968,-262.35
00.984,-275.17
01.000,-281.34
01.015,-282.56
01.031,-278.26
01.046,-265.93
01.062,-242.8
01.078,-207.58
01.093,-161.91
01.109,-110.18
01.125,-58.18
01.140,-11.09
01.156,28.38
01.171,60.21
01.187,86.5
01.203,109.59
01.218,130.57
01.234,148.58
01.250,161.58
01.265,167.78
01.281,166.82
01.296,160.27
01.312,150.25
01.328,138.1
01.343,123.47
01.359,104.68
01.375,80.07
01.390,49.39
01.406,15.2
01.421,-17.68
01.437,-43.57
01.453,-57.97
01.468,-59.37
01.484,-49.83
01.500,-34.04
01.515,-17.32
01.531,-3.79
01.546,4.91
01.562,9.43
01.578,11.78
01.593,14.0
01.609,17.21
01.625,21.25
01.640,25.18
01.656,28.36
01.671,30.67
01.687,32.64
01.703,34.59
01.718,35.95
01.734,35.24
01.750,30.78
01.765,21.7
01.781,8.55
01.796,-6.55
01.812,-21.28
01.828,-34.17
01.843,-45.41
01.859,-56.59
01.875,-69.41
01.890,-84.3
01.906,-99.63
01.921,-112.17
01.937,-118.42
01.953,-116.43
01.968,-106.81
01.984,-92.33
02.000,-76.87
02.015,-63.53
02.031,-53.57
02.046,-46.34
02.062,-39.96
02.078,-32.66
02.093,-23.49
02.109,-12.72
02.125,-1.2
02.140,9.94
02.156,19.94
02.171,28.24
02.187,34.53
02.203,38.75
02.218,40.98
02.234,41.59
02.250,41.5
02.265,41.92
02.281,44.03
02.296,48.25
02.312,53.75
02.328,58.23
02.343,58.76
02.359,52.88
02.375,39.84
02.390,21.5
02.406,1.76
02.421,-15.03
02.437,-25.79
02.453,-29.94
02.468,-29.5
02.484,-27.56
02.500,-27.11
02.515,-29.4
02.531,-33.71
02.546,-37.94
02.562,-39.82
02.578,-38.22
02.593,-33.82
02.609,-29.05
02.625,-26.69
02.640,-28.63
02.656,-34.52
02.671,-41.92
02.687,-47.36
02.703,-47.83
02.718,-42.08
02.734,-31.11
02.750,-17.39
02.765,-3.61
02.781,8.68
02.796,19.37
02.812,29.24
02.828,38.61
02.843,46.98
02.859,52.82
02.875,54.35
02.890,50.55
02.906,42.0
02.921,30.79
02.937,19.92
02.953,12.26
02.968,9.2
02.984,10.49
03.000,14.38
03.015,18.52
03.031,20.59
03.046,19.18
03.062,13.78
03.078,4.81
03.093,-6.81
03.109,-19.88
03.125,-32.8
03.140,-43.51
03.156,-49.42
03.171,-48.1
03.187,-38.42
03.203,-21.52
03.218,-0.77
03.234,19.09
03.250,33.73
03.265,40.69
03.281,39.86
03.296,32.9
03.312,22.07
03.328,9.0
03.343,-5.63
03.359,-21.72
03.375,-38.76
03.390,-55.8
03.406,-71.33
03.421,-84.0
03.437,-92.84
03.453,-97.18
03.468,-95.98
03.484,-87.84
03.500,-71.5
03.515,-46.2
03.531,-12.91
03.546,25.69
03.562,65.57
03.578,102.39
03.593,132.33
03.609,152.92
03.625,163.3
03.640,163.54
03.656,154.54
03.671,137.11
03.687,112.09
03.703,80.57
03.718,44.35
03.734,5.72
03.750,-32.86
03.765,-69.29
03.781,-102.22
03.796,-130.52
03.812,-153.03
03.828,-168.03
03.843,-173.79
03.859,-169.65
03.875,-156.77
03.890,-137.93
03.906,-116.45
03.921,-95.13
03.937,-75.14
03.953,-56.75
03.968,-39.77
03.984,-24.43
04.000,-11.58
04.015,-1.96
04.031,4.58
04.046,9.17
04.062,13.41
04.078,18.5
04.093,24.49
04.109,30.63
04.125,36.09
04.140,40.43
04.156,43.89
04.171,47.37
04.187,51.6
04.203,57.4
04.218,65.39
04.234,75.83
04.250,88.32
04.265,101.86
04.281,114.66
04.296,124.88
04.312,131.14
04.328,132.69
04.343,129.37
04.359,121.32
04.375,108.34
04.390,90.36
04.406,68.05
04.421,43.2
04.437,18.52
04.453,-3.74
04.468,-22.75
04.484,-39.69
04.500,-56.76
04.515,-75.82
04.531,-96.86
04.546,-118.09
04.562,-136.8
04.578,-150.87
04.593,-160.22
04.609,-166.66
04.625,-172.96
04.640,-181.19
04.656,-191.53
04.671,-201.53
04.687,-207.03
04.703,-203.24
04.718,-186.36
04.734,-154.82
04.750,-109.99
04.765,-55.86
04.781,1.73
04.796,56.42
04.812,102.77
04.828,137.18
04.843,158.3
04.859,166.78
04.875,164.88
04.890,155.83
04.906,143.32
04.921,130.99
04.937,121.55
04.953,116.32
04.968,115.02
04.984,115.97
05.000,116.77
05.015,115.3
05.031,110.5
05.046,102.85
05.062,94.06
05.078,86.13
05.093,80.49
05.109,77.39
05.125,75.85
05.140,74.22
05.156,71.06
05.171,65.85
05.187,59.41
05.203,53.68
05.218,50.91
05.234,52.43
05.250,57.25
05.265,61.85
05.281,60.56
05.296,47.74
05.312,20.19
05.328,-21.0
05.343,-70.2
05.359,-119.45
05.375,-160.87
05.390,-189.27
05.406,-202.49
05.421,-200.69
05.437,-185.26
05.453,-158.9
05.468,-125.87
05.484,-91.9
05.500,-63.01
05.515,-43.32
05.531,-33.67
05.546,-31.93
05.562,-34.85
05.578,-40.36
05.593,-48.89
05.609,-62.35
05.625,-81.71
05.640,-105.12
05.656,-127.59
05.671,-142.58
05.687,-144.65
05.703,-131.13
05.718,-102.67
05.734,-62.4
05.750,-15.31
05.765,32.74
05.781,75.82
05.796,109.06
05.812,129.61
05.828,137.38
05.843,134.7
05.859,124.67
05.875,110.39
05.890,94.02
05.906,77.11
05.921,61.07
05.937,47.55
05.953,37.76
05.968,31.76
05.984,28.22
06.000,24.73
06.015,19.06
06.031,10.22
06.046,-1.17
06.062,-13.59
06.078,-25.2
06.093,-34.72
06.109,-41.59
06.125,-45.82
06.140,-47.72
06.156,-47.4
06.171,-44.91
06.187,-40.19
06.203,-33.39
06.218,-24.91
06.234,-15.38
06.250,-5.54
06.265,3.94
06.281,12.35
06.296,19.09
06.312,23.8
06.328,26.29
06.343,26.78
06.359,25.83
06.375,24.35
06.390,23.22
06.406,23.0
06.421,23.75
06.437,25.21
06.453,27.04
06.468,28.88
06.484,30.62
06.500,32.21
06.515,33.83
06.531,35.87
06.546,38.9
06.562,43.31
06.578,49.23
06.593,56.29
06.609,63.69
06.625,70.65
06.640,76.51
06.656,81.1
06.671,84.41
06.687,86.53
06.703,87.2
06.718,86.02
06.734,82.4
06.750,75.86
06.765,66.24
06.781,53.57
06.796,38.13
06.812,20.61
06.828,2.09
06.843,-15.97
06.859,-31.98
06.875,-44.63
06.890,-53.44
06.906,-58.65
06.921,-61.03
06.937,-61.55
06.953,-60.76
06.968,-59.02
06.984,-56.29
07.000,-52.5
07.015,-47.58
07.031,-41.71
07.046,-35.22
07.062,-28.52
07.078,-22.17
07.093,-16.67
07.109,-12.54
07.125,-9.9
07.140,-8.64
07.156,-8.19
07.171,-7.85
07.187,-7.01
07.203,-5.5
07.218,-3.53
07.234,-1.5
07.250,0.39
07.265,2.37
07.281,5.0
07.296,8.79
07.312,13.66
07.328,18.86
07.343,23.01
07.359,24.89
07.375,24.11
07.390,21.4
07.406,18.03
07.421,15.2
07.437,13.25
07.453,11.65
07.468,9.39
07.484,5.74
07.500,0.57
07.515,-5.6
07.531,-11.96
07.546,-18.13
07.562,-24.02
07.578,-29.66
07.593,-34.85
07.609,-39.0
07.625,-41.46
07.640,-41.82
07.656,-40.12
07.671,-36.57
07.687,-31.54
07.703,-25.22
07.718,-17.79
07.734,-9.7
07.750,-1.49
07.765,6.05
07.781,12.28
07.796,16.8
07.812,19.34
07.828,19.63
07.843,17.35
07.859,12.47
07.875,5.12
07.890,-4.25
07.906,-15.24
07.921,-27.62
07.937,-41.13
07.953,-55.12
07.968,-68.21
07.984,-78.36
08.000,-83.47
08.015,-82.45
08.031,-75.63
08.046,-64.79
08.062,-52.55
08.078,-41.24
08.093,-32.58
08.109,-27.22
08.125,-24.77
08.140,-23.81
08.156,-22.26
08.171,-17.63
08.187,-7.85
08.203,7.65
08.218,27.71
08.234,49.36
08.250,68.61
08.265,81.34
08.281,84.59
08.296,77.39
08.312,61.61
08.328,41.66
08.343,23.16
08.359,11.08
08.375,7.71
08.390,12.23
08.406,21.36
08.421,31.21
08.437,39.08
08.453,44.36
08.468,48.0
08.484,51.27
08.500,54.9
08.515,58.64
08.531,61.82
08.546,64.01
08.562,65.11
08.578,65.22
08.593,64.29
08.609,61.78
08.625,56.82
08.640,48.45
08.656,35.78
08.671,18.27
08.687,-3.75
08.703,-28.86
08.718,-54.47
08.734,-77.18
08.750,-93.9
08.765,-102.53
08.781,-102.51
08.796,-94.58
08.812,-80.23
08.828,-61.02
08.843,-38.39
08.859,-13.85
08.875,10.85
08.890,33.41
08.906,51.35
08.921,62.43
08.937,65.15
08.953,59.08
08.968,44.93
08.984,24.22
09.000,-0.99
09.015,-28.29
09.031,-55.18
09.046,-79.04
09.062,-97.54
09.078,-108.95
09.093,-112.13
09.109,-106.66
09.125,-92.62
09.140,-70.7
09.156,-42.35
09.171,-9.99
09.187,23.14
09.203,53.5
09.218,77.9
09.234,94.41
09.250,102.34
09.265,102.23
09.281,95.19
09.296,82.46
09.312,65.15
09.328,44.63
09.343,22.89
09.359,2.35
09.375,-14.17
09.390,-24.29
09.406,-26.36
09.421,-19.69
09.437,-4.52
09.453,17.86
09.468,45.13
09.484,74.04
09.500,100.47
09.515,120.07
09.531,128.98
09.546,124.81
09.562,107.44
09.578,79.4
09.593,45.42
09.609,11.2
09.625,-18.09
09.640,-39.37
09.656,-52.2
09.671,-58.42
09.687,-61.18
09.703,-63.41
09.718,-66.81
09.734,-71.44
09.750,-76.14
09.765,-79.23
09.781,-79.42
09.796,-76.21
09.812,-70.12
09.828,-62.06
09.843,-53.12
09.859,-44.07
09.875,-35.33
09.890,-27.21
09.906,-20.07
09.921,-14.41
09.937,-10.66
09.953,-9.04
09.968,-9.01
09.984,-9.55
10.000,-9.29
10.015,-7.19
10.031,-2.9
10.046,3.05
10.062,9.59
10.078,15.77
10.093,20.97
10.109,25.11
10.125,28.07
10.140,29.21
10.156,27.14
10.171,20.15
10.187,7.03
10.203,-12.09
10.218,-35.06
10.234,-58.21
10.250,-77.37
10.265,-89.25
10.281,-92.33
10.296,-86.73
10.312,-73.79
10.328,-55.12
10.343,-32.33
10.359,-6.89
10.375,19.41
10.390,44.57
10.406,66.4
10.421,83.06
10.437,93.86
10.453,99.01
10.468,99.75
10.484,97.56
10.500,93.78
10.515,89.27
10.531,84.49
10.546,79.57
10.562,74.33
10.578,68.66
10.593,62.21
10.609,54.83
10.625,46.38
10.640,36.81
10.656,26.02
10.671,13.98
10.687,0.7
10.703,-13.53
10.718,-28.18
10.734,-42.59
10.750,-55.92
10.765,-67.29
10.781,-75.85
10.796,-80.98
10.812,-82.33
10.828,-80.22
10.843,-75.52
10.859,-69.32
10.875,-62.65
10.890,-56.04
10.906,-49.55
10.921,-42.95
10.937,-36.33
10.953,-29.87
10.968,-23.92
10.984,-18.53
11.000,-13.32
11.015,-7.65
11.031,-1.14
11.046,5.82
11.062,12.21
11.078,16.62
11.093,18.15
11.109,16.86
11.125,13.67
11.140,9.94
11.156,7.23
11.171,6.81
11.187,9.31
11.203,14.55
11.218,21.38
11.234,27.84
11.250,32.1
11.265,33.03
11.281,31.1
11.296,28.13
11.312,26.61
11.328,28.3
11.343,33.27
11.359,40.01
11.375,46.15
11.390,49.96
11.406,50.68
11.421,48.92
11.437,45.65
11.453,41.82
11.468,37.91
11.484,33.98
11.500,30.04
11.515,25.89
11.531,21.53
11.546,16.89
11.562,12.35
11.578,8.43
11.593,5.53
11.609,3.68
11.625,2.43
11.640,0.93
11.656,-1.6
11.671,-5.4
11.687,-10.04
11.703,-14.54
11.718,-17.93
11.734,-19.76
11.750,-20.2
11.765,-19.82
11.781,-19.28
11.796,-18.97
11.812,-18.88
11.828,-18.49
11.843,-16.98
11.859,-13.73
11.875,-8.79
11.890,-3.05
11.906,2.12
11.921,5.54
11.937,7.09
11.953,8.09
11.968,10.92
11.984,18.03
12.000,30.83
12.015,48.9
12.031,69.96
12.046,90.67
12.062,107.7
12.078,118.94
12.093,123.92
12.109,123.58
12.125,119.8
12.140,114.66
12.156,110.0
12.171,106.97
12.187,105.98
12.203,106.45
12.218,106.96
12.234,105.59
12.250,100.12
12.265,88.64
12.281,70.11
12.296,44.85
12.312,15.22
12.328,-14.34
12.343,-38.4
12.359,-52.56
12.375,-55.07
12.390,-47.73
12.406,-35.02
12.421,-22.03
12.437,-12.59
12.453,-8.01
12.468,-7.67
12.484,-10.13
12.500,-14.51
12.515,-20.57
12.531,-28.19
12.546,-36.8
12.562,-45.31
12.578,-52.41
12.593,-56.84
12.609,-58.15
12.625,-56.53
12.640,-52.71
12.656,-47.72
12.671,-42.61
12.687,-38.07
12.703,-34.23
12.718,-30.76
12.734,-26.99
12.750,-22.58
12.765,-17.92
12.781,-13.81
12.796,-11.28
12.812,-11.21
12.828,-13.68
12.843,-17.73
12.859,-21.69
12.875,-23.96
12.890,-23.74
12.906,-21.63
12.921,-19.06
12.937,-17.79
12.953,-18.82
12.968,-22.22
12.984,-27.11
13.000,-32.48
13.015,-38.13
13.031,-44.53
13.046,-52.27
13.062,-61.27
13.078,-70.52
13.093,-78.16
13.109,-82.36
13.125,-82.15
13.140,-77.75
13.156,-70.6
13.171,-62.58
13.187,-55.14
13.203,-48.77
13.218,-43.21
13.234,-37.74
13.250,-31.74
13.265,-24.95
13.281,-17.52
13.296,-9.68
13.312,-1.46
13.328,6.99
13.343,15.35
13.359,22.75
13.375,27.91
13.390,29.39
13.406,26.28
13.421,18.69
13.437,8.01
13.453,-3.43
13.468,-13.34
13.484,-20.34
13.500,-24.33
13.515,-26.22
13.531,-27.25
13.546,-28.03
13.562,-28.36
13.578,-27.51
13.593,-24.87
13.609,-20.49
13.625,-15.32
13.640,-10.58
13.656,-7.15
13.671,-5.28
13.687,-4.34
13.703,-3.36
13.718,-1.57
13.734,1.31
13.750,4.91
13.765,8.34
13.781,10.61
13.796,11.18
13.812,10.26
13.828,8.67
13.843,7.46
13.859,7.11
13.875,7.26
13.890,6.75
13.906,4.16
13.921,-1.34
13.937,-9.43
13.953,-18.68
13.968,-27.35
13.984,-34.12
14.000,-38.81
14.015,-42.06
14.031,-44.92
14.046,-47.96
14.062,-51.0
14.078,-53.21
14.093,-53.71
14.109,-51.95
14.125,-47.97
14.140,-42.25
14.156,-35.2
14.171,-27.01
14.187,-17.58
14.203,-6.85
14.218,4.83
14.234,16.49
14.250,26.78
14.265,34.71
14.281,39.72
14.296,41.91
14.312,41.84
14.328,40.14
14.343,37.32
14.359,33.7
14.375,29.59
14.390,25.46
14.406,22.15
14.421,20.43
14.437,20.59
14.453,22.19
14.468,24.14
14.484,25.29
14.500,25.09
14.515,23.76
14.531,22.11
14.546,21.04
14.562,21.03
14.578,21.89
14.593,23.18
14.609,24.2
14.625,24.45
14.640,23.79
14.656,22.42
14.671,20.8
14.687,19.47
14.703,18.75
14.718,18.65
14.734,18.84
14.750,18.56
14.765,16.98
14.781,13.71
14.796,9.08
14.812,4.16
14.828,0.65
14.843,-0.17
14.859,2.16
14.875,7.52
14.890,14.77
14.906,22.04
14.921,27.27
14.937,28.82
14.953,25.86
14.968,18.96
14.984,9.64
15.000,-0.39
15.015,-9.22
15.031,-15.53
15.046,-18.89
15.062,-19.73
15.078,-19.17
15.093,-18.4
15.109,-18.4
15.125,-19.55
15.140,-21.68
15.156,-24.2
15.171,-26.57
15.187,-28.43
15.203,-29.53
15.218,-29.73
15.234,-28.81
15.250,-26.47
15.265,-22.42
15.281,-16.51
15.296,-9.05
15.312,-1.0
15.328,6.38
15.343,11.93
15.359,14.64
15.375,14.32
15.390,11.92
15.406,9.25
15.421,8.26
15.437,10.18
15.453,14.45
15.468,18.86
15.484,20.9
15.500,18.45
15.515,11.21
15.531,0.91
15.546,-9.57
15.562,-17.62
15.578,-21.82
15.593,-22.3
15.609,-20.33
15.625,-17.49
15.640,-15.2
15.656,-14.22
15.671,-14.59
15.687,-16.02
15.703,-18.15
15.718,-20.84
15.734,-24.05
15.750,-27.83
15.765,-32.01
15.781,-36.23
15.796,-39.98
15.812,-42.78
15.828,-44.6
15.843,-46.12
15.859,-48.51
15.875,-52.58
15.890,-57.85
15.906,-62.21
15.921,-62.71
15.937,-56.51
15.953,-42.28
15.968,-20.53
15.984,6.57
16.000,35.54
16.015,62.2
16.031,82.23
16.046,92.14
16.062,89.96
16.078,76.71
16.093,57.07
16.109,38.56
16.125,29.32
16.140,34.6
16.156,54.34
16.171,83.09
16.187,112.31
16.203,134.24
16.218,144.61
16.234,143.64
16.250,134.17
16.265,119.45
16.281,101.07
16.296,78.99
16.312,52.64
16.328,22.66
16.343,-8.42
16.359,-36.89
16.375,-59.24
16.390,-73.82
16.406,-81.23
16.421,-83.99
16.437,-85.06
16.453,-86.9
16.468,-90.54
16.484,-95.48
16.500,-100.15
16.515,-102.98
16.531,-103.26
16.546,-101.34
16.562,-98.25
16.578,-94.97
16.593,-91.95
16.609,-88.71
16.625,-84.19
16.640,-77.14
16.656,-66.85
16.671,-53.5
16.687,-38.46
16.703,-23.73
16.718,-11.35
16.734,-2.47
16.750,2.93
16.765,5.91
16.781,7.72
16.796,9.12
16.812,10.07
16.828,10.17
16.843,9.39
16.859,8.47
16.875,8.8
16.890,11.56
16.906,16.85
16.921,23.48
16.937,29.65
16.953,33.84
16.968,35.72
16.984,36.11
17.000,36.05
17.015,36.23
17.031,36.32
17.046,35.27
17.062,31.97
17.078,25.84
17.093,16.98
17.109,6.13
17.125,-5.85
17.140,-18.34
17.156,-30.67
17.171,-42.04
17.187,-51.49
17.203,-57.83
17.218,-59.97
17.234,-57.2
17.250,-49.38
17.265,-36.98
17.281,-21.22
17.296,-3.75
17.312,13.67
17.328,29.28
17.343,41.84
17.359,50.44
17.375,54.48
17.390,53.54
17.406,47.51
17.421,36.6
17.437,21.56
17.453,3.69
17.468,-15.44
17.484,-33.81
17.500,-49.45
17.515,-60.47
17.531,-65.36
17.546,-63.39
17.562,-54.71
17.578,-40.56
17.593,-23.05
17.609,-4.72
17.625,12.23
17.640,26.46
17.656,37.54
17.671,45.79
17.687,51.52
17.703,54.71
17.718,55.2
17.734,53.0
17.750,48.61
17.765,42.98
17.781,37.12
17.796,31.59
17.812,26.55
17.828,21.94
17.843,17.81
17.859,14.54
17.875,12.85
17.890,13.12
17.906,15.22
17.921,18.53
17.937,22.32
17.953,26.29
17.968,30.52
17.984,35.05
18.000,39.29
18.015,42.16
18.031,42.28
18.046,38.6
18.062,30.98
18.078,20.44
18.093,8.8
18.109,-1.89
18.125,-10.06
18.140,-14.82
18.156,-15.98
18.171,-13.62
18.187,-8.03
18.203,0.56
18.218,11.83
18.234,25.3
18.250,40.23
18.265,55.62
18.281,70.26
18.296,82.74
18.312,91.68
18.328,95.73
18.343,93.94
18.359,85.74
18.375,71.09
18.390,50.65
18.406,25.84
18.421,-1.19
18.437,-27.46
18.453,-49.74
18.468,-65.33
18.484,-72.7
18.500,-72.28
18.515,-66.37
18.531,-58.1
18.546,-50.48
18.562,-45.48
18.578,-43.65
18.593,-44.51
18.609,-47.29
18.625,-51.27
18.640,-55.94
18.656,-60.85
18.671,-65.18
18.687,-67.86
18.703,-67.89
18.718,-64.63
18.734,-58.15
18.750,-49.35
18.765,-39.32
18.781,-29.21
18.796,-19.74
18.812,-11.08
18.828,-2.95
18.843,5.08
18.859,13.7
18.875,23.49
18.890,34.48
18.906,46.24
18.921,57.51
18.937,66.43
18.953,71.21
18.968,70.59
18.984,64.36
19.000,53.62
19.015,40.16
19.031,25.96
19.046,12.72
19.062,1.71
19.078,-6.06
19.093,-9.53
19.109,-7.96
19.125,-1.41
19.140,9.25
19.156,22.35
19.171,36.08
19.187,49.32
19.203,61.39
19.218,71.95
19.234,80.23
19.250,84.79
19.265,84.03
19.281,77.31
19.296,65.64
19.312,51.51
19.328,37.91
19.343,26.85
19.359,18.84
19.375,13.15
19.390,8.67
19.406,4.93
19.421,2.36
19.437,1.78
19.453,3.72
19.468,7.84
19.484,13.01
19.500,18.0
19.515,22.22
19.531,25.81
19.546,29.24
19.562,32.93
19.578,36.54
19.593,39.26
19.609,40.15
19.625,38.35
19.640,33.41
19.656,25.28
19.671,14.07
19.687,0.01
19.703,-16.27
19.718,-33.57
19.734,-49.83
19.750,-62.4
19.765,-69.01
19.781,-68.61
19.796,-61.82
19.812,-50.56
19.828,-37.12
19.843,-23.42
19.859,-10.39
19.875,1.64
19.890,12.57
19.906,21.87
19.921,28.73
19.937,32.37
19.953,32.76
19.968,30.8
19.984,27.96
20.000,25.63
20.015,24.57
20.031,24.81
20.046,25.73
20.062,26.56
20.078,26.64
20.093,25.59
20.109,23.19
20.125,19.48
20.140,14.67
20.156,9.12
20.171,3.34
20.187,-2.15
20.203,-6.88
20.218,-10.65
20.234,-13.41
20.250,-15.2
20.265,-16.12
20.281,-16.38
20.296,-16.21
20.312,-15.92
20.328,-15.69
20.343,-15.5
20.359,-15.11
20.375,-14.26
20.390,-12.76
20.406,-10.59
20.421,-8.04
20.437,-5.59
20.453,-3.79
20.468,-3.15
20.484,-3.95
20.500,-6.17
20.515,-9.69
20.531,-14.44
20.546,-20.35
20.562,-27.49
20.578,-35.89
20.593,-45.3
20.609,-55.26
20.625,-65.23
20.640,-74.66
20.656,-83.22
20.671,-90.9
20.687,-97.61
20.703,-103.08
20.718,-106.75
20.734,-107.84
20.750,-105.64
20.765,-99.72
20.781,-89.97
20.796,-76.67
20.812,-60.5
20.828,-42.34
20.843,-23.31
20.859,-4.45
20.875,13.57
20.890,30.37
20.906,46.06
20.921,61.1
20.937,75.85
20.953,90.35
20.968,104.16
20.984,116.39
21.000,126.11
21.015,132.69
21.031,135.69
21.046,135.08
21.062,130.91
21.078,122.89
21.093,110.48
21.109,93.38
21.125,71.82
21.140,46.78
21.156,20.09
21.171,-6.49
21.187,-31.52
21.203,-54.05
21.218,-73.76
21.234,-90.44
21.250,-103.72
21.265,-113.3
21.281,-119.01
21.296,-120.84
21.312,-119.16
21.328,-114.48
21.343,-107.62
21.359,-99.73
21.375,-92.23
21.390,-86.63
21.406,-84.34
21.421,-86.19
21.437,-92.14
21.453,-101.35
21.468,-112.38
21.484,-123.48
21.500,-132.9
21.515,-138.95
21.531,-140.37
21.546,-136.52
21.562,-127.45
21.578,-113.92
21.593,-97.19
21.609,-78.54
21.625,-58.79
21.640,-38.57
21.656,-18.39
21.671,0.87
21.687,17.87
21.703,31.26
21.718,40.31
21.734,45.08
21.750,46.44
21.765,45.56
21.781,43.26
21.796,40.03
21.812,35.96
21.828,31.12
21.843,26.01
21.859,21.31
21.875,17.73
21.890,15.8
21.906,15.7
21.921,17.25
21.937,20.25
21.953,24.46
21.968,29.53
21.984,35.25
22.000,41.39
22.015,47.73
22.031,54.26
22.046,60.95
22.062,67.62
22.078,73.88
22.093,79.23
22.109,83.15
22.125,85.62
22.140,87.06
22.156,87.93
22.171,88.51
22.187,88.25
22.203,86.03
22.218,80.65
22.234,71.43
22.250,58.6
22.265,43.24
22.281,26.81
22.296,10.48
22.312,-4.98
22.328,-19.35
22.343,-32.45
22.359,-43.92
22.375,-53.15
22.390,-59.41
22.406,-61.94
22.421,-60.3
22.437,-54.36
22.453,-44.39
22.468,-31.11
22.484,-15.57
22.500,0.78
22.515,16.29
22.531,29.33
22.546,38.64
22.562,43.17
22.578,42.5
22.593,36.7
22.609,26.09
22.625,11.5
22.640,-5.91
22.656,-24.77
22.671,-43.5
22.687,-60.32
22.703,-73.72
22.718,-82.57
22.734,-86.08
22.750,-84.05
22.765,-76.67
22.781,-64.47
22.796,-48.29
22.812,-29.49
22.828,-9.81
22.843,8.68
22.859,23.87
22.875,34.09
22.890,38.24
22.906,36.34
22.921,29.44
22.937,19.4
22.953,8.29
22.968,-2.31
22.984,-11.57
23.000,-19.49
23.015,-26.34
23.031,-32.44
23.046,-37.38
23.062,-40.31
23.078,-40.26
23.093,-36.66
23.109,-29.62
23.125,-19.93
23.140,-8.64
23.156,3.43
23.171,15.55
23.187,27.09
23.203,37.11
23.218,44.37
23.234,47.57
23.250,45.88
23.265,39.21
23.281,28.16
23.296,13.85
23.312,-2.49
23.328,-19.54
23.343,-35.94
23.359,-50.1
23.375,-60.32
23.390,-65.08
23.406,-63.68
23.421,-56.33
23.437,-44.17
23.453,-29.03
23.468,-12.86
23.484,2.49
23.500,15.48
23.515,25.05
23.531,30.89
23.546,33.29
23.562,32.92
23.578,30.36
23.593,25.59
23.609,18.0
23.625,6.96
23.640,-7.44
23.656,-23.93
23.671,-40.03
23.687,-52.92
23.703,-60.55
23.718,-62.18
23.734,-58.5
23.750,-50.86
23.765,-40.47
23.781,-27.95
23.796,-13.61
23.812,2.0
23.828,17.53
23.843,31.09
23.859,40.87
23.875,45.49
23.890,44.68
23.906,39.02
23.921,29.67
23.937,18.03
23.953,5.53
23.968,-6.67
23.984,-17.63
24.000,-26.63
24.015,-33.45
24.031,-37.89
24.046,-39.88
24.062,-39.16
24.078,-35.44
24.093,-28.43
24.109,-18.21
24.125,-5.21
24.140,9.93
24.156,26.17
24.171,42.44
24.187,57.13
24.203,68.26
24.218,74.04
24.234,73.48
24.250,66.81
24.265,55.57
24.281,41.94
24.296,27.99
24.312,15.29
24.328,4.87
24.343,-2.51
24.359,-5.83
24.375,-4.25
24.390,2.63
24.406,14.48
24.421,30.03
24.437,47.45
24.453,65.0
24.468,81.12
24.484,94.4
24.500,103.78
24.515,108.33
24.531,107.64
24.546,102.17
24.562,93.19
24.578,82.22
24.593,70.77
24.609,59.56
24.625,48.61
24.640,37.75
24.656,26.93
24.671,16.5
24.687,7.28
24.703,0.03
24.718,-5.0
24.734,-7.87
24.750,-9.12
24.765,-9.28
24.781,-8.52
24.796,-6.87
24.812,-4.4
24.828,-1.34
24.843,1.82
24.859,4.38
24.875,5.91
24.890,6.35
24.906,6.1
24.921,6.11
24.937,7.38
24.953,10.59
24.968,15.88
24.984,22.95
25.000,31.32
25.015,40.69
25.031,50.91
25.046,62.02
25.062,74.02
25.078,86.61
25.093,98.85
25.109,108.64
25.125,112.72
25.140,107.26
25.156,89.38
25.171,58.41
25.187,16.74
25.203,-30.38
25.218,-76.56
25.234,-116.1
25.250,-145.66
25.265,-164.78
25.281,-175.02
25.296,-178.58
25.312,-177.16
25.328,-171.69
25.343,-162.44
25.359,-149.62
25.375,-133.68
25.390,-115.27
25.406,-95.23
25.421,-74.41
25.437,-53.62
25.453,-33.37
25.468,-13.89
25.484,4.68
25.500,22.23
25.515,38.29
25.531,52.05
25.546,62.69
25.562,69.87
25.578,74.07
25.593,77.01
25.609,81.04
25.625,88.1
25.640,98.71
25.656,111.48
25.671,123.72
25.687,132.52
25.703,136.04
25.718,133.8
25.734,126.62
25.750,115.76
25.765,102.15
25.781,86.0
25.796,66.77
25.812,43.98
25.828,17.65
25.843,-11.2
25.859,-40.77
25.875,-68.54
25.890,-92.03
25.906,-109.29
25.921,-119.31
25.937,-122.08
25.953,-118.41
25.968,-109.57
25.984,-96.97
26.000,-81.96
26.015,-65.77
26.031,-49.48
26.046,-34.12
26.062,-20.62
26.078,-9.74
26.093,-2.08
26.109,2.04
26.125,2.48
26.140,-0.62
26.156,-7.02
26.171,-16.06
26.187,-26.65
26.203,-37.14
26.218,-45.7
26.234,-50.95
26.250,-52.41
26.265,-50.7
26.281,-46.93
26.296,-42.27
26.312,-37.05
26.328,-30.65
26.343,-21.84
26.359,-9.92
26.375,4.7
26.390,20.29
26.406,34.5
26.421,45.2
26.437,51.29
26.453,53.11
26.468,51.99
26.484,49.61
26.500,47.22
26.515,45.37
26.531,43.89
26.546,42.48
26.562,40.87
26.578,38.92
26.593,36.58
26.609,33.62
26.625,29.64
26.640,24.36
26.656,17.88
26.671,10.86
26.687,4.36
26.703,-0.44
26.718,-2.77
26.734,-2.33
26.750,0.46
26.765,4.79
26.781,9.83
26.796,14.64
26.812,18.52
26.828,20.92
26.843,21.47
26.859,19.83
26.875,15.76
26.890,9.05
26.906,-0.35
26.921,-12.13
26.937,-25.81
26.953,-40.57
26.968,-55.42
26.984,-69.2
27.000,-81.12
27.015,-90.53
27.031,-97.14
27.046,-101.06
27.062,-102.45
27.078,-101.72
27.093,-99.25
27.109,-95.44
27.125,-90.62
27.140,-85.27
27.156,-79.94
27.171,-74.88
27.187,-69.88
27.203,-63.83
27.218,-55.31
27.234,-42.82
27.250,-25.47
27.265,-3.36
27.281,22.49
27.296,50.37
27.312,78.51
27.328,105.59
27.343,131.01
27.359,154.41
27.375,175.39
27.390,193.08
27.406,206.21
27.421,213.29
27.437,212.99
27.453,204.45
27.468,187.37
27.484,162.34
27.500,130.76
27.515,94.8
27.531,57.26
27.546,21.1
27.562,-11.31
27.578,-38.71
27.593,-60.99
27.609,-79.03
27.625,-93.84
27.640,-105.95
27.656,-115.43
27.671,-121.92
27.687,-125.16
27.703,-125.28
27.718,-123.33
27.734,-120.95
27.750,-120.01
27.765,-121.78
27.781,-126.19
27.796,-131.64
27.812,-135.43
27.828,-135.03
27.843,-129.27
27.859,-119.22
27.875,-107.53
27.890,-97.27
27.906,-90.25
27.921,-86.17
27.937,-83.02
27.953,-78.31
27.968,-70.23
27.984,-58.36
28.000,-43.77
28.015,-28.03
28.031,-12.72
28.046,1.2
28.062,13.51
28.078,24.37
28.093,33.95
28.109,42.35
28.125,49.55
28.140,55.4
28.156,59.97
28.171,63.75
28.187,67.6
28.203,72.77
28.218,80.32
28.234,90.45
28.250,102.07
28.265,113.19
28.281,121.48
28.296,124.8
28.312,121.78
28.328,111.77
28.343,95.06
28.359,73.12
28.375,48.99
28.390,26.96
28.406,12.27
28.421,9.15
28.437,19.12
28.453,39.81
28.468,65.21
28.484,87.77
28.500,100.76
28.515,100.39
28.531,86.39
28.546,61.47
28.562,29.61
28.578,-5.21
28.593,-39.41
28.609,-69.94
28.625,-94.12
28.640,-109.97
28.656,-116.85
28.671,-115.82
28.687,-109.38
28.703,-100.68
28.718,-92.39
28.734,-85.88
28.750,-81.45
28.765,-78.63
28.781,-76.67
28.796,-74.78
28.812,-72.36
28.828,-69.02
28.843,-64.9
28.859,-60.32
28.875,-55.39
28.890,-50.17
28.906,-44.1
28.921,-36.29
28.937,-25.83
28.953,-12.4
28.968,3.64
28.984,21.1
29.000,38.44
29.015,54.34
29.031,67.63
29.046,77.48
29.062,83.38
29.078,85.11
29.093,82.72
29.109,76.69
29.125,67.67
29.140,56.34
29.156,43.37
29.171,29.5
29.187,15.65
29.203,2.69
29.218,-8.63
29.234,-17.73
29.250,-24.4
29.265,-28.63
29.281,-30.67
29.296,-30.82
29.312,-29.38
29.328,-26.36
29.343,-21.91
29.359,-16.53
29.375,-10.83
29.390,-5.61
29.406,-1.24
29.421,2.19
29.437,4.93
29.453,7.02
29.468,8.32
29.484,8.63
29.500,7.86
29.515,6.47
29.531,5.35
29.546,5.85
29.562,8.94
29.578,15.02
29.593,23.65
29.609,33.69
29.625,43.7
29.640,52.38
29.656,58.78
29.671,62.35
29.687,63.29
29.703,62.08
29.718,59.54
29.734,56.56
29.750,53.57
29.765,50.3
29.781,45.64
29.796,38.24
29.812,27.0
29.828,11.96
29.843,-5.72
29.859,-24.05
29.875,-40.84
29.890,-54.6
29.906,-64.77
29.921,-71.61
29.937,-75.62
29.953,-77.06
29.968,-75.73
29.984,-71.25
30.000,-63.43
30.015,-52.47
30.031,-39.08
30.046,-24.26
30.062,-9.12
30.078,5.05
30.093,16.95
30.109,25.4
30.125,29.44
30.140,28.77
30.156,23.92
30.171,16.26
30.187,7.91
30.203,1.12
30.218,-2.44
30.234,-2.12
30.250,1.75
30.265,7.91
30.281,14.66
30.296,20.46
30.312,24.13
30.328,25.2
30.343,23.84
30.359,20.67
30.375,16.46
30.390,11.89
30.406,7.32
30.421,2.86
30.437,-1.49
30.453,-5.98
30.468,-10.72
30.484,-15.78
30.500,-21.08
30.515,-26.32
30.531,-31.19
30.546,-35.51
30.562,-39.27
30.578,-42.7
30.593,-46.24
30.609,-50.1
30.625,-54.14
30.640,-57.75
30.656,-60.03
30.671,-60.08
30.687,-57.61
30.703,-52.95
30.718,-47.06
30.734,-41.4
30.750,-37.03
30.765,-34.27
30.781,-32.38
30.796,-29.43
30.812,-22.73
30.828,-9.7
30.843,11.08
30.859,38.68
30.875,69.13
30.890,96.01
30.906,112.34
30.921,112.98
30.937,97.35
30.953,69.87
30.968,38.91
30.984,13.9
31.000,1.9
31.015,5.33
31.031,21.63
31.046,45.34
31.062,70.25
31.078,91.77
31.093,107.27
31.109,115.97
31.125,117.99
31.140,113.91
31.156,104.38
31.171,90.2
31.187,72.48
31.203,52.69
31.218,32.64
31.234,13.94
31.250,-1.55
31.265,-11.75
31.281,-14.3
31.296,-6.64
31.312,13.12
31.328,45.39
31.343,88.31
31.359,137.26
31.375,184.98
31.390,222.73
31.406,242.22
31.421,237.76
31.437,208.55
31.453,159.08
31.468,97.87
31.484,34.88
31.500,-21.63
31.515,-66.91
31.531,-100.16
31.546,-123.14
31.562,-138.49
31.578,-148.31
31.593,-154.36
31.609,-158.42
31.625,-162.51
31.640,-168.38
31.656,-176.11
31.671,-184.12
31.687,-189.63
31.703,-190.05
31.718,-184.01
31.734,-172.2
31.750,-156.74
31.765,-140.22
31.781,-124.99
31.796,-112.2
31.812,-101.76
31.828,-92.59
31.843,-82.78
31.859,-70.41
31.875,-54.33
31.890,-34.8
31.906,-13.6
31.921,6.73
31.937,23.8
31.953,36.49
31.968,44.84
31.984,49.95
32.000,53.06
32.015,55.0
32.031,56.2
32.046,56.65
32.062,56.32
32.078,55.19
32.093,53.48
32.109,51.47
32.125,49.41
32.140,47.33
32.156,45.23
32.171,43.2
32.187,41.19
32.203,39.17
32.218,37.1
32.234,34.97
32.250,32.88
32.265,31.0
32.281,29.15
32.296,26.92
32.312,23.89
32.328,19.66
32.343,14.13
32.359,7.56
32.375,0.6
32.390,-6.12
32.406,-12.28
32.421,-17.95
32.437,-23.6
32.453,-29.33
32.468,-34.7
32.484,-38.83
32.500,-40.93
32.515,-40.78
32.531,-38.77
32.546,-35.8
32.562,-32.5
32.578,-29.17
32.593,-25.73
32.609,-21.97
32.625,-17.84
32.640,-13.65
32.656,-9.79
32.671,-6.51
32.687,-3.8
32.703,-1.63
32.718,0.04
32.734,0.94
32.750,0.7
32.765,-0.71
32.781,-2.92
32.796,-5.22
32.812,-6.84
32.828,-7.1
32.843,-5.66
32.859,-2.62
32.875,1.53
32.890,6.01
32.906,10.09
32.921,13.45
32.937,16.36
32.953,19.44
32.968,23.33
32.984,28.24
33.000,33.42
33.015,37.48
33.031,38.89
33.046,36.62
33.062,30.55
33.078,21.59
33.093,11.13
33.109,0.61
33.125,-8.78
33.140,-16.23
33.156,-21.04
33.171,-22.54
33.187,-20.24
33.203,-14.22
33.218,-5.51
33.234,3.99
33.250,11.88
33.265,16.04
33.281,15.32
33.296,9.92
33.312,1.14
33.328,-9.25
33.343,-19.62
33.359,-29.15
33.375,-37.77
33.390,-45.77
33.406,-53.34
33.421,-60.3
33.437,-65.87
33.453,-68.82
33.468,-68.0
33.484,-62.6
33.500,-52.76
33.515,-39.53
33.531,-24.53
33.546,-9.44
33.562,4.4
33.578,16.3
33.593,26.01
33.609,33.25
33.625,37.55
33.640,38.26
33.656,35.02
33.671,28.34
33.687,19.65
33.703,10.87
33.718,3.64
33.734,-1.37
33.750,-4.69
33.765,-7.7
33.781,-11.77
33.796,-17.6
33.812,-24.68
33.828,-31.71
33.843,-37.27
33.859,-40.55
33.875,-41.64
33.890,-41.45
33.906,-40.82
33.921,-40.06
33.937,-38.87
33.953,-36.61
33.968,-32.87
33.984,-27.9
34.000,-22.59
34.015,-17.82
34.031,-14.03
34.046,-10.77
34.062,-6.98
34.078,-1.54
34.093,6.16
34.109,15.82
34.125,26.63
34.140,37.59
34.156,48.12
34.171,57.96
34.187,66.9
34.203,74.45
34.218,79.84
34.234,82.75
34.250,83.59
34.265,83.75
34.281,84.79
34.296,87.42
34.312,90.63
34.328,91.79
34.343,87.79
34.359,76.31
34.375,57.26
34.390,32.6
34.406,5.74
34.421,-19.88
34.437,-41.79
34.453,-58.6
34.468,-69.57
34.484,-73.83
34.500,-70.48
34.515,-58.87
34.531,-39.48
34.546,-14.34
34.562,13.04
34.578,38.5
34.593,58.48
34.609,70.7
34.625,74.89
34.640,72.16
34.656,64.44
34.671,53.69
34.687,41.68
34.703,29.86
34.718,19.29
34.734,10.88
34.750,4.98
34.765,1.45
34.781,-0.49
34.796,-1.83
34.812,-3.53
34.828,-6.14
34.843,-9.52
34.859,-13.13
34.875,-16.2
34.890,-18.17
34.906,-18.78
34.921,-18.15
34.937,-16.76
34.953,-15.19
34.968,-14.11
34.984,-14.0
35.000,-15.11
35.015,-17.3
35.031,-20.16
35.046,-23.09
35.062,-25.53
35.078,-27.18
35.093,-28.13
35.109,-29.03
35.125,-30.83
35.140,-34.52
35.156,-40.56
35.171,-48.81
35.187,-58.48
35.203,-68.68
35.218,-78.62
35.234,-87.93
35.250,-96.61
35.265,-104.67
35.281,-112.11
35.296,-118.48
35.312,-122.74
35.328,-123.45
35.343,-118.94
35.359,-107.89
35.375,-89.89
35.390,-65.62
35.406,-36.65
35.421,-5.31
35.437,25.87
35.453,54.55
35.468,78.56
35.484,96.37
35.500,107.29
35.515,111.36
35.531,109.09
35.546,101.05
35.562,87.03
35.578,66.14
35.593,37.49
35.609,1.19
35.625,-40.53
35.640,-83.08
35.656,-120.5
35.671,-147.11
35.687,-159.04
35.703,-155.78
35.718,-139.95
35.734,-116.35
35.750,-90.34
35.765,-65.96
35.781,-44.93
35.796,-26.77
35.812,-9.39
35.828,9.85
35.843,32.96
35.859,61.13
35.875,94.38
35.890,131.42
35.906,169.4
35.921,203.86
35.937,229.35
35.953,241.22
35.968,237.6
35.984,220.62
36.000,196.39
36.015,172.73
36.031,156.04
36.046,148.99
36.062,149.91
36.078,154.42
36.093,158.05
36.109,157.91
36.125,152.96
36.140,143.41
36.156,129.35
36.171,110.72
36.187,88.08
36.203,63.45
36.218,40.66
36.234,24.46
36.250,18.85
36.265,25.29
36.281,41.95
36.296,63.61
36.312,82.87
36.328,92.11
36.343,85.9
36.359,63.16
36.375,27.47
36.390,-13.98
36.406,-53.46
36.421,-85.4
36.437,-108.08
36.453,-122.98
36.468,-133.14
36.484,-140.8
36.500,-146.21
36.515,-148.49
36.531,-146.96
36.546,-142.54
36.562,-137.9
36.578,-136.28
36.593,-139.52
36.609,-146.98
36.625,-155.69
36.640,-161.71
36.656,-162.16
36.671,-156.38
36.687,-145.82
36.703,-133.15
36.718,-120.75
36.734,-109.83
36.750,-100.15
36.765,-90.87
36.781,-81.31
36.796,-71.55
36.812,-62.02
36.828,-52.79
36.843,-43.39
36.859,-32.69
36.875,-19.73
36.890,-4.17
36.906,13.11
36.921,30.34
36.937,45.43
36.953,56.77
36.968,63.87
36.984,67.16
37.000,67.84
37.015,67.26
37.031,66.48
37.046,66.11
37.062,66.34
37.078,66.93
37.093,67.56
37.109,67.92
37.125,67.87
37.140,67.55
37.156,67.14
37.171,66.55
37.187,65.6
37.203,64.05
37.218,61.73
37.234,58.81
37.250,55.68
37.265,52.67
37.281,50.02
37.296,47.51
37.312,44.41
37.328,39.79
37.343,32.85
37.359,23.19
37.375,11.02
37.390,-2.85
37.406,-17.6
37.421,-32.39
37.437,-46.55
37.453,-59.81
37.468,-71.91
37.484,-82.73
37.500,-91.93
37.515,-99.11
37.531,-103.86
37.546,-106.09
37.562,-105.84
37.578,-103.13
37.593,-98.07
37.609,-90.64
37.625,-80.99
37.640,-69.59
37.656,-57.15
37.671,-44.6
37.687,-33.0
37.703,-22.77
37.718,-13.73
37.734,-4.86
37.750,5.55
37.765,19.07
37.781,36.61
37.796,57.88
37.812,81.43
37.828,104.91
37.843,126.09
37.859,143.65
37.875,157.68
37.890,169.69
37.906,181.51
37.921,194.31
37.937,207.59
37.953,218.76
37.968,224.04
37.984,219.72
38.000,203.77
38.015,176.66
38.031,141.35
38.046,101.87
38.062,62.19
38.078,25.25
38.093,-7.49
38.109,-35.53
38.125,-58.74
38.140,-77.12
38.156,-90.62
38.171,-99.22
38.187,-103.26
38.203,-103.17
38.218,-99.53
38.234,-93.04
38.250,-84.5
38.265,-75.0
38.281,-65.77
38.296,-57.81
38.312,-51.42
38.328,-46.35
38.343,-42.05
38.359,-38.18
38.375,-34.89
38.390,-32.56
38.406,-31.67
38.421,-32.34
38.437,-34.35
38.453,-37.26
38.468,-40.95
38.484,-45.89
38.500,-52.8
38.515,-62.07
38.531,-72.76
38.546,-82.88
38.562,-89.77
38.578,-91.43
38.593,-87.23
38.609,-78.19
38.625,-66.4
38.640,-54.01
38.656,-42.39
38.671,-31.86
38.687,-22.23
38.703,-13.33
38.718,-5.5
38.734,0.43
38.750,3.78
38.765,4.6
38.781,3.79
38.796,2.71
38.812,2.74
38.828,4.52
38.843,7.75
38.859,11.66
38.875,15.35
38.890,18.59
38.906,21.83
38.921,25.73
38.937,30.35
38.953,34.83
38.968,37.87
38.984,38.42
39.000,36.62
39.015,33.77
39.031,31.86
39.046,32.27
39.062,34.99
39.078,38.56
39.093,40.71
39.109,39.78
39.125,35.4
39.140,28.3
39.156,19.78
39.171,10.9
39.187,1.99
39.203,-7.15
39.218,-16.61
39.234,-25.94
39.250,-34.15
39.265,-40.07
39.281,-42.84
39.296,-42.46
39.312,-39.44
39.328,-34.77
39.343,-29.49
39.359,-24.12
39.375,-18.61
39.390,-12.31
39.406,-4.47
39.421,5.59
39.437,17.56
39.453,30.34
39.468,42.33
39.484,52.19
39.500,59.62
39.515,65.33
39.531,70.63
39.546,76.22
39.562,81.94
39.578,86.56
39.593,88.7
39.609,87.75
39.625,84.48
39.640,80.67
39.656,78.18
39.671,78.02
39.687,79.59
39.703,81.25
39.718,80.96
39.734,77.31
39.750,69.82
39.765,58.87
39.781,45.25
39.796,29.63
39.812,12.43
39.828,-6.3
39.843,-26.34
39.859,-47.17
39.875,-67.8
39.890,-86.89
39.906,-103.27
39.921,-115.97
39.937,-124.53
39.953,-128.92
39.968,-129.5
39.984,-126.58
40.000,-120.42
40.015,-111.22
40.031,-99.29
40.046,-85.3
40.062,-70.32
40.078,-55.66
40.093,-42.47
40.109,-31.46
40.125,-22.45
40.140,-14.62
40.156,-6.81
40.171,1.84
40.187,11.36
40.203,21.01
40.218,29.66
40.234,36.4
40.250,40.92
40.265,43.67
40.281,45.26
40.296,46.01
40.312,45.97
40.328,44.68
40.343,41.64
40.359,36.75
40.375,30.38
40.390,23.31
40.406,16.22
40.421,9.28
40.437,1.98
40.453,-6.33
40.468,-16.27
40.484,-27.82
40.500,-40.25
40.515,-52.26
40.531,-62.53
40.546,-70.26
40.562,-75.41
40.578,-78.51
40.593,-80.15
40.609,-80.59
40.625,-79.5
40.640,-76.12
40.656,-69.67
40.671,-59.91
40.687,-47.47
40.703,-33.81
40.718,-20.69
40.734,-9.7
40.750,-1.7
40.765,3.45
40.781,6.8
40.796,9.65
40.812,13.15
40.828,18.26
40.843,25.66
40.859,35.93
40.875,49.24
40.890,65.04
40.906,81.83
40.921,97.64
40.937,110.39
40.953,118.8
40.968,122.95
40.984,123.98
41.000,123.66
41.015,122.94
41.031,121.24
41.046,116.45
41.062,106.23
41.078,89.26
41.093,66.12
41.109,39.22
41.125,11.82
41.140,-12.44
41.156,-30.76
41.171,-42.2
41.187,-48.11
41.203,-51.75
41.218,-57.41
41.234,-68.94
41.250,-88.05
41.265,-113.26
41.281,-139.6
41.296,-160.04
41.312,-168.33
41.328,-161.35
41.343,-140.48
41.359,-111.27
41.375,-80.94
41.390,-55.79
41.406,-39.3
41.421,-31.65
41.437,-30.69
41.453,-33.81
41.468,-38.71
41.484,-44.33
41.500,-50.18
41.515,-55.34
41.531,-58.27
41.546,-57.46
41.562,-52.05
41.578,-42.3
41.593,-29.43
41.609,-14.83
41.625,-0.06
41.640,13.56
41.656,25.39
41.671,35.38
41.687,43.73
41.703,50.65
41.718,56.18
41.734,60.17
41.750,62.66
41.765,64.09
41.781,65.14
41.796,66.62
41.812,68.83
41.828,71.51
41.843,73.93
41.859,75.31
41.875,75.21
41.890,73.59
41.906,70.58
41.921,66.24
41.937,60.45
41.953,52.72
41.968,42.62
41.984,30.05
42.000,15.08
42.015,-1.92
42.031,-20.32
42.046,-39.43
42.062,-57.99
42.078,-74.11
42.093,-85.48
42.109,-89.86
42.125,-85.83
42.140,-73.6
42.156,-55.01
42.171,-33.04
42.187,-10.79
42.203,9.92
42.218,29.11
42.234,48.27
42.250,69.04
42.265,91.87
42.281,115.05
42.296,135.15
42.312,147.93
42.328,150.23
42.343,141.17
42.359,122.47
42.375,97.64
42.390,70.59
42.406,44.56
42.421,21.4
42.437,2.02
42.453,-13.5
42.468,-25.21
42.484,-33.29
42.500,-38.48
42.515,-42.34
42.531,-47.09
42.546,-54.74
42.562,-66.37
42.578,-81.02
42.593,-96.34
42.609,-109.34
42.625,-117.69
42.640,-120.78
42.656,-119.45
42.671,-115.28
42.687,-109.46
42.703,-102.42
42.718,-93.56
42.734,-81.72
42.750,-65.68
42.765,-44.72
42.781,-19.27
42.796,8.92
42.812,36.8
42.828,60.62
42.843,76.94
42.859,83.84
42.875,81.73
42.890,73.1
42.906,61.73
42.921,51.03
42.937,43.29
42.953,39.39
42.968,39.31
42.984,42.64
43.000,49.04
43.015,58.2
43.031,69.38
43.046,81.21
43.062,91.43
43.078,97.92
43.093,99.28
43.109,95.74
43.125,88.88
43.140,80.66
43.156,72.27
43.171,63.12
43.187,51.38
43.203,35.02
43.218,13.36
43.234,-12.33
43.250,-39.08
43.265,-63.45
43.281,-82.9
43.296,-96.33
43.312,-104.21
43.328,-107.79
43.343,-108.59
43.359,-108.12
43.375,-107.84
43.390,-108.93
43.406,-111.92
43.421,-116.56
43.437,-121.91
43.453,-126.63
43.468,-129.48
43.484,-129.65
43.500,-126.75
43.515,-120.8
43.531,-111.92
43.546,-100.23
43.562,-85.96
43.578,-69.49
43.593,-51.5
43.609,-32.76
43.625,-13.78
43.640,5.12
43.656,23.67
43.671,41.22
43.687,56.53
43.703,67.87
43.718,73.8
43.734,73.92
43.750,69.45
43.765,63.18
43.781,58.25
43.796,56.75
43.812,58.53
43.828,61.46
43.843,62.59
43.859,60.0
43.875,53.89
43.890,46.53
43.906,41.19
43.921,40.38
43.937,44.75
43.953,52.96
43.968,62.43
43.984,70.51
44.000,75.42
44.015,76.6
44.031,74.51
44.046,70.21
44.062,64.6
44.078,57.94
44.093,49.44
44.109,37.61
44.125,21.01
44.140,-0.76
44.156,-26.47
44.171,-53.15
44.187,-76.81
44.203,-93.91
44.218,-102.5
44.234,-102.64
44.250,-96.18
44.265,-85.74
44.281,-73.84
44.296,-62.66
44.312,-53.73
44.328,-47.61
44.343,-44.02
44.359,-41.66
44.375,-38.91
44.390,-34.19
44.406,-26.24
44.421,-14.18
44.437,2.33
44.453,22.7
44.468,45.14
44.484,66.61
44.500,83.46
44.515,92.19
44.531,90.99
44.546,80.4
44.562,63.38
44.578,44.18
44.593,26.84
44.609,13.72
44.625,5.19
44.640,0.24
44.656,-2.74
44.671,-5.21
44.687,-8.12
44.703,-12.05
44.718,-17.57
44.734,-25.2
44.750,-35.58
44.765,-49.27
44.781,-66.22
44.796,-85.73
44.812,-106.72
44.828,-127.84
44.843,-147.89
44.859,-165.52
44.875,-179.45
44.890,-188.49
44.906,-192.11
44.921,-190.43
44.937,-184.26
44.953,-174.65
44.968,-162.59
44.984,-148.9
45.000,-133.9
45.015,-117.65
45.031,-99.75
45.046,-79.56
45.062,-55.95
45.078,-27.72
45.093,5.84
45.109,44.35
45.125,85.36
45.140,124.63
45.156,156.91
45.171,177.45
45.187,183.62
45.203,175.98
45.218,157.97
45.234,134.66
45.250,111.15
45.265,90.95
45.281,75.65
45.296,65.45
45.312,60.08
45.328,59.38
45.343,63.4
45.359,71.88
45.375,83.87
45.390,97.88
45.406,112.14
45.421,125.35
45.437,137.05
45.453,147.43
45.468,156.93
45.484,165.81
45.500,173.59
45.515,179.07
45.531,181.05
45.546,178.72
45.562,172.18
45.578,162.44
45.593,151.35
45.609,141.12
45.625,133.74
45.640,130.51
45.656,131.48
45.671,135.63
45.687,141.17
45.703,146.08
45.718,148.35
45.734,146.24
45.750,138.59
45.765,124.61
45.781,103.96
45.796,76.69
45.812,43.27
45.828,4.68
45.843,-37.75
45.859,-82.43
45.875,-127.68
45.890,-171.49
45.906,-211.68
45.921,-245.94
45.937,-272.23
45.953,-289.35
45.968,-297.32
45.984,-297.25
46.000,-290.8
46.015,-279.82
46.031,-265.78
46.046,-249.84
46.062,-232.82
46.078,-215.51
46.093,-198.62
46.109,-182.44
46.125,-166.91
46.140,-151.45
46.156,-135.37
46.171,-118.16
46.187,-99.81
46.203,-80.63
46.218,-61.13
46.234,-42.23
46.250,-24.53
46.265,-8.48
46.281,6.0
46.296,19.67
46.312,33.72
46.328,49.44
46.343,67.5
46.359,87.5
46.375,107.54
46.390,125.43
46.406,139.21
46.421,148.02
46.437,152.49
46.453,154.03
46.468,153.84
46.484,152.02
46.500,147.48
46.515,138.3
46.531,123.28
46.546,102.69
46.562,78.45
46.578,53.45
46.593,30.28
46.609,10.22
46.625,-7.06
46.640,-22.8
46.656,-38.4
46.671,-54.23
46.687,-69.55
46.703,-82.92
46.718,-92.46
46.734,-97.08
46.750,-96.46
46.765,-91.18
46.781,-82.27
46.796,-70.97
46.812,-58.45
46.828,-45.86
46.843,-33.97
46.859,-22.7
46.875,-11.66
46.890,0.41
46.906,14.69
46.921,31.55
46.937,50.2
46.953,68.79
46.968,84.99
46.984,97.05
47.000,104.66
47.015,108.56
47.031,110.4
47.046,111.97
47.062,114.52
47.078,118.25
47.093,122.32
47.109,124.98
47.125,124.36
47.140,119.13
47.156,109.09
47.171,95.39
47.187,80.16
47.203,65.33
47.218,51.76
47.234,39.08
47.250,26.14
47.265,12.26
47.281,-1.81
47.296,-13.71
47.312,-20.41
47.328,-20.16
47.343,-13.4
47.359,-3.02
47.375,6.65
47.390,12.2
47.406,12.74
47.421,9.82
47.437,6.32
47.453,4.47
47.468,4.25
47.484,3.14
47.500,-2.61
47.515,-16.57
47.531,-40.26
47.546,-72.2
47.562,-108.19
47.578,-142.79
47.593,-171.07
47.609,-190.0
47.625,-198.84
47.640,-198.41
47.656,-190.13
47.671,-175.0
47.687,-153.32
47.703,-125.35
47.718,-92.09
47.734,-55.74
47.750,-19.38
47.765,13.88
47.781,41.7
47.796,62.99
47.812,77.68
47.828,85.92
47.843,87.78
47.859,83.27
47.875,72.45
47.890,55.79
47.906,34.56
47.921,10.65
47.937,-13.67
47.953,-36.34
47.968,-56.21
47.984,-73.39
48.000,-88.71
48.015,-103.04
48.031,-116.38
48.046,-127.4
48.062,-133.63
48.078,-132.62
48.093,-123.16
48.109,-105.88
48.125,-83.31
48.140,-58.66
48.156,-34.85
48.171,-13.22
48.187,6.17
48.203,24.08
48.218,41.22
48.234,57.72
48.250,73.43
48.265,88.18
48.281,102.17
48.296,115.53
48.312,127.88
48.328,137.91
48.343,143.48
48.359,142.56
48.375,134.57
48.390,121.01
48.406,104.86
48.421,89.46
48.437,76.97
48.453,67.69
48.468,60.45
48.484,53.85
48.500,47.1
48.515,40.17
48.531,33.29
48.546,26.17
48.562,18.14
48.578,8.58
48.593,-2.12
48.609,-12.39
48.625,-19.81
48.640,-22.11
48.656,-18.4
48.671,-9.25
48.687,3.35
48.703,16.94
48.718,28.97
48.734,37.24
48.750,40.04
48.765,36.23
48.781,25.94
48.796,10.58
48.812,-7.19
48.828,-24.38
48.843,-38.73
48.859,-49.67
48.875,-58.65
48.890,-68.03
48.906,-79.86
48.921,-94.48
48.937,-110.15
48.953,-123.82
48.968,-133.12
48.984,-137.74
49.000,-139.78
49.015,-142.78
49.031,-149.66
49.046,-161.06
49.062,-174.68
49.078,-186.34
49.093,-191.83
49.109,-188.89
49.125,-177.91
49.140,-161.12
49.156,-141.45
49.171,-121.03
49.187,-100.56
49.203,-79.61
49.218,-57.6
49.234,-34.25
49.250,-10.03
49.265,14.11
49.281,37.6
49.296,60.34
49.312,82.88
49.328,105.79
49.343,129.0
49.359,151.34
49.375,170.79
49.390,185.11
49.406,192.49
49.421,192.12
49.437,184.04
49.453,169.08
49.468,148.32
49.484,122.82
49.500,93.52
49.515,61.69
49.531,29.35
49.546,-0.73
49.562,-25.47
49.578,-42.1
49.593,-49.04
49.609,-46.66
49.625,-37.31
49.640,-24.52
49.656,-11.63
49.671,-0.67
49.687,8.03
49.703,15.23
49.718,21.81
49.734,28.13
49.750,33.67
49.765,37.61
49.781,39.35
49.796,39.11
49.812,37.61
49.828,35.48
49.843,32.76
49.859,28.96
49.875,23.44
49.890,16.09
49.906,7.64
49.921,-0.55
49.937,-7.01
49.953,-10.77
49.968,-11.99
49.984,-11.81
50.000,-11.84
50.015,-13.4
50.031,-17.02
50.046,-21.94
50.062,-26.76
50.078,-30.02
50.093,-30.83
50.109,-29.35
50.125,-26.56
50.140,-23.79
50.156,-21.86
50.171,-21.11
50.187,-20.94
50.203,-20.43
50.218,-18.73
50.234,-15.39
50.250,-10.71
50.265,-5.43
50.281,-0.64
50.296,2.96
50.312,5.06
50.328,6.25
50.343,7.51
50.359,9.92
50.375,14.17
50.390,20.07
50.406,26.77
50.421,32.96
50.437,37.59
50.453,40.05
50.468,40.55
50.484,39.55
50.500,37.47
50.515,34.61
50.531,30.9
50.546,26.33
50.562,21.03
50.578,15.44
50.593,10.01
50.609,5.17
50.625,1.08
50.640,-2.38
50.656,-5.24
50.671,-7.55
50.687,-9.23
50.703,-10.28
50.718,-10.62
50.734,-10.14
50.750,-8.69
50.765,-6.03
50.781,-2.23
50.796,2.51
50.812,7.78
50.828,13.25
50.843,18.64
50.859,23.87
50.875,28.85
50.890,33.4
50.906,37.39
50.921,40.65
50.937,43.29
50.953,45.62
50.968,47.98
50.984,50.49
51.000,53.1
51.015,55.68
51.031,58.03
51.046,60.1
51.062,61.59
51.078,62.1
51.093,61.18
51.109,58.73
51.125,55.01
51.140,50.86
51.156,47.2
51.171,44.62
51.187,43.14
51.203,41.96
51.218,39.85
51.234,35.67
51.250,28.95
51.265,20.13
51.281,10.55
51.296,1.73
51.312,-5.39
51.328,-10.64
51.343,-14.79
51.359,-18.98
51.375,-24.0
51.390,-30.12
51.406,-36.87
51.421,-43.45
51.437,-49.11
51.453,-53.72
51.468,-57.61
51.484,-61.58
51.500,-66.44
51.515,-72.55
51.531,-79.67
51.546,-86.84
51.562,-92.6
51.578,-95.26
51.593,-93.52
51.609,-86.47
51.625,-73.94
51.640,-56.49
51.656,-35.32
51.671,-12.25
51.687,10.77
51.703,32.17
51.718,51.32
51.734,68.45
51.750,84.39
51.765,99.72
51.781,114.25
51.796,127.02
51.812,136.25
51.828,140.03
51.843,136.83
51.859,126.11
51.875,108.4
51.890,85.25
51.906,58.84
51.921,31.23
51.937,4.46
51.953,-20.14
51.968,-41.95
51.984,-61.18
52.000,-78.36
52.015,-94.23
52.031,-109.32
52.046,-123.61
52.062,-136.85
52.078,-148.25
52.093,-156.87
52.109,-161.92
52.125,-162.88
52.140,-159.47
52.156,-151.69
52.171,-139.81
52.187,-124.19
52.203,-105.77
52.218,-85.79
52.234,-66.03
52.250,-48.59
52.265,-35.38
52.281,-27.71
52.296,-25.53
52.312,-27.49
52.328,-31.01
52.343,-33.47
52.359,-32.59
52.375,-27.18
52.390,-17.47
52.406,-4.51
52.421,9.85
52.437,23.59
52.453,34.67
52.468,41.79
52.484,44.22
52.500,42.47
52.515,38.03
52.531,32.54
52.546,27.44
52.562,23.11
52.578,19.03
52.593,14.14
52.609,7.89
52.625,0.42
52.640,-7.0
52.656,-12.61
52.671,-14.97
52.687,-13.53
52.703,-9.08
52.718,-3.3
52.734,1.78
52.750,4.78
52.765,5.26
52.781,3.75
52.796,1.33
52.812,-0.91
52.828,-2.11
52.843,-2.06
52.859,-0.71
52.875,1.84
52.890,5.56
52.906,10.34
52.921,15.5
52.937,19.9
52.953,22.01
52.968,20.79
52.984,16.14
53.000,9.05
53.015,1.31
53.031,-5.27
53.046,-9.47
53.062,-11.37
53.078,-11.97
53.093,-12.81
53.109,-14.94
53.125,-18.32
53.140,-21.9
53.156,-24.16
53.171,-23.82
53.187,-20.36
53.203,-14.37
53.218,-7.1
53.234,0.05
53.250,6.15
53.265,11.1
53.281,15.51
53.296,20.0
53.312,24.94
53.328,30.24
53.343,35.25
53.359,39.34
53.375,42.03
53.390,43.13
53.406,42.87
53.421,41.47
53.437,38.96
53.453,35.19
53.468,30.06
53.484,23.6
53.500,16.22
53.515,8.38
53.531,0.4
53.546,-7.47
53.562,-15.23
53.578,-22.77
53.593,-29.7
53.609,-35.38
53.625,-39.2
53.640,-40.88
53.656,-40.76
53.671,-39.75
53.687,-38.72
53.703,-38.08
53.718,-37.71
53.734,-37.05
53.750,-35.43
53.765,-32.51
53.781,-28.17
53.796,-22.55
53.812,-16.08
53.828,-9.12
53.843,-2.02
53.859,4.97
53.875,11.61
53.890,17.63
53.906,22.83
53.921,27.02
53.937,30.2
53.953,32.35
53.968,33.73
53.984,34.7
54.000,35.73
54.015,37.2
54.031,39.13
54.046,41.39
54.062,43.65
54.078,45.7
54.093,47.45
54.109,49.12
54.125,50.98
54.140,53.21
54.156,55.93
54.171,58.9
54.187,61.76
54.203,63.93
54.218,64.79
54.234,63.7
54.250,60.4
54.265,55.05
54.281,48.13
54.296,40.37
54.312,32.28
54.328,24.21
54.343,16.24
54.359,8.41
54.375,0.75
54.390,-6.52
54.406,-13.14
54.421,-19.05
54.437,-24.33
54.453,-29.3
54.468,-34.06
54.484,-38.41
54.500,-41.73
54.515,-43.33
54.531,-42.8
54.546,-40.19
54.562,-36.11
54.578,-31.37
54.593,-26.81
54.609,-22.88
54.625,-19.65
54.640,-16.97
54.656,-14.54
54.671,-12.36
54.687,-10.54
54.703,-9.33
54.718,-8.76
54.734,-8.59
54.750,-8.34
54.765,-7.39
54.781,-5.37
54.796,-2.26
54.812,1.61
54.828,5.68
54.843,9.37
54.859,12.5
54.875,15.11
54.890,17.3
54.906,19.15
54.921,20.5
54.937,21.05
54.953,20.43
54.968,18.65
54.984,15.94
55.000,12.81
55.015,9.82
55.031,7.21
55.046,5.05
55.062,3.04
55.078,0.93
55.093,-1.51
55.109,-4.14
55.125,-6.75
55.140,-9.1
55.156,-11.12
55.171,-13.0
55.187,-14.79
55.203,-16.34
55.218,-17.22
55.234,-16.7
55.250,-14.2
55.265,-9.52
55.281,-2.65
55.296,5.88
55.312,15.3
55.328,25.09
55.343,35.02
55.359,45.23
55.375,56.06
55.390,67.86
55.406,80.52
55.421,93.9
55.437,107.52
55.453,120.5
55.468,131.73
55.484,139.83
55.500,143.44
55.515,141.32
55.531,132.96
55.546,118.55
55.562,98.92
55.578,75.48
55.593,49.89
55.609,23.91
55.625,-0.8
55.640,-22.65
55.656,-40.74
55.671,-54.82
55.687,-65.4
55.703,-73.31
55.718,-79.12
55.734,-82.72
55.750,-83.27
55.765,-80.03
55.781,-72.79
55.796,-62.47
55.812,-50.75
55.828,-39.5
55.843,-29.98
55.859,-22.39
55.875,-16.43
55.890,-11.55
55.906,-7.93
55.921,-6.2
55.937,-7.09
55.953,-10.7
55.968,-16.28
55.984,-22.56
56.000,-28.18
56.015,-32.54
56.031,-35.82
56.046,-38.62
56.062,-41.58
56.078,-44.91
56.093,-48.26
56.109,-50.99
56.125,-52.64
56.140,-52.93
56.156,-51.89
56.171,-49.74
56.187,-46.5
56.203,-42.15
56.218,-36.7
56.234,-30.32
56.250,-23.48
56.265,-16.78
56.281,-10.59
56.296,-5.11
56.312,-0.53
56.328,3.02
56.343,5.05
56.359,5.06
56.375,2.76
56.390,-1.52
56.406,-6.82
56.421,-11.89
56.437,-15.72
56.453,-18.13
56.468,-19.6
56.484,-21.01
56.500,-23.09
56.515,-25.84
56.531,-28.71
56.546,-30.76
56.562,-31.44
56.578,-30.74
56.593,-29.14
56.609,-27.18
56.625,-25.1
56.640,-22.86
56.656,-20.22
56.671,-17.26
56.687,-14.4
56.703,-12.44
56.718,-11.9
56.734,-12.87
56.750,-14.85
56.765,-16.97
56.781,-18.82
56.796,-20.38
56.812,-22.23
56.828,-24.78
56.843,-27.9
56.859,-30.6
56.875,-31.34
56.890,-28.76
56.906,-22.25
56.921,-12.62
56.937,-1.48
56.953,9.16
56.968,17.79
56.984,23.65
57.000,26.66
57.015,26.95
57.031,24.62
57.046,20.01
57.062,13.52
57.078,5.99
57.093,-1.25
57.109,-6.7
57.125,-9.25
57.140,-8.52
57.156,-5.06
57.171,-0.11
57.187,5.15
57.203,9.9
57.218,13.85
57.234,17.24
57.250,20.3
57.265,23.17
57.281,25.7
57.296,27.65
57.312,28.74
57.328,29.15
57.343,29.28
57.359,29.71
57.375,30.99
57.390,33.3
57.406,36.61
57.421,40.52
57.437,44.52
57.453,48.14
57.468,51.17
57.484,53.53
57.500,55.33
57.515,56.57
57.531,57.12
57.546,56.75
57.562,55.48
57.578,53.42
57.593,50.98
57.609,48.69
57.625,47.0
57.640,46.03
57.656,45.62
57.671,45.29
57.687,44.34
57.703,42.31
57.718,38.92
57.734,34.27
57.750,28.76
57.765,22.96
57.781,17.22
57.796,11.7
57.812,6.2
57.828,0.52
57.843,-5.39
57.859,-11.27
57.875,-16.68
57.890,-21.22
57.906,-24.77
57.921,-27.68
57.937,-30.53
57.953,-33.79
57.968,-37.45
57.984,-41.01
58.000,-43.77
58.015,-45.24
58.031,-45.45
58.046,-45.0
58.062,-44.7
58.078,-45.21
58.093,-46.78
58.109,-49.03
58.125,-51.26
58.140,-52.84
58.156,-53.6
58.171,-53.58
58.187,-53.2
58.203,-52.65
58.218,-51.8
58.234,-50.34
58.250,-47.83
58.265,-44.07
58.281,-39.25
58.296,-34.02
58.312,-29.04
58.328,-24.8
58.343,-21.32
58.359,-18.2
58.375,-14.91
58.390,-11.15
58.406,-6.93
58.421,-2.75
58.437,0.78
58.453,3.3
58.468,4.83
58.484,5.86
58.500,6.99
58.515,8.58
58.531,10.65
58.546,12.71
58.562,14.21
58.578,14.79
58.593,14.46
58.609,13.47
58.625,12.21
58.640,10.99
58.656,9.67
58.671,8.21
58.687,6.45
58.703,4.42
58.718,2.35
58.734,0.47
58.750,-1.15
58.765,-2.55
58.781,-3.84
58.796,-5.17
58.812,-6.38
58.828,-7.27
58.843,-7.6
58.859,-7.16
58.875,-6.08
58.890,-4.69
58.906,-3.37
58.921,-2.3
58.937,-1.54
58.953,-0.72
58.968,0.41
58.984,1.92
59.000,3.6
59.015,4.96
59.031,5.63
59.046,5.45
59.062,4.82
59.078,4.28
59.093,4.52
59.109,5.82
59.125,8.0
59.140,10.68
59.156,13.26
59.171,15.45
59.187,17.18
59.203,18.7
59.218,20.13
59.234,21.65
59.250,23.25
59.265,24.69
59.281,25.71
59.296,25.92
59.312,24.98
59.328,22.69
59.343,19.14
59.359,14.63
59.375,9.66
59.390,4.65
59.406,-0.24
59.421,-5.1
59.437,-10.18
59.453,-15.57
59.468,-21.11
59.484,-26.41
59.500,-31.0
59.515,-34.53
59.531,-36.77
59.546,-37.59
59.562,-36.63
59.578,-33.66
59.593,-28.48
59.609,-21.19
59.625,-12.29
59.640,-2.61
59.656,6.88
59.671,15.31
59.687,21.97
59.703,26.7
59.718,29.56
59.734,30.84
59.750,30.9
59.765,30.01
59.781,28.29
59.796,25.87
59.812,23.05
59.828,20.14
59.843,17.67
59.859,16.03
59.875,15.31
59.890,15.34
59.906,15.72
59.921,16.02
59.937,15.98
59.953,15.64
59.968,15.14
59.984,14.66
