timestamp,value
00.000,1.65
00.015,1.19
00.031,0.78
00.046,0.41
00.062,0.03
00.078,-0.41
00.093,-1.14
00.109,-2.21
00.125,-3.66
00.140,-5.5
00.156,-7.58
00.171,-9.68
00.187,-11.67
00.203,-13.39
00.218,-14.79
00.234,-16.04
00.250,-17.31
00.265,-18.81
00.281,-20.69
00.296,-22.85
00.312,-24.95
00.328,-26.61
00.343,-27.37
00.359,-26.9
00.375,-25.09
00.390,-21.97
00.406,-17.75
00.421,-12.9
00.437,-7.72
00.453,-2.62
00.468,2.13
00.484,6.24
00.500,9.44
00.515,11.67
00.531,12.8
00.546,13.01
00.562,12.33
00.578,11.02
00.593,9.29
00.609,7.48
00.625,5.8
00.640,4.38
00.656,3.31
00.671,2.58
00.687,2.16
00.703,1.8
00.718,1.43
00.734,0.84
00.750,0.01
00.765,-1.0
00.781,-2.13
00.796,-3.27
00.812,-4.37
00.828,-5.3
00.843,-6.13
00.859,-6.82
00.875,-7.43
00.890,-8.05
00.906,-8.71
00.921,-9.45
00.937,-10.19
00.953,-11.13
00.968,-12.26
00.984,-13.69
01.000,-15.59
01.015,-17.99
01.031,-20.7
01.046,-23.36
01.062,-25.41
01.078,-26.22
01.093,-25.51
01.109,-23.15
01.125,-19.33
01.140,-14.42
01.156,-8.86
01.171,-3.04
01.187,2.77
01.203,8.37
01.218,13.62
01.234,18.21
01.250,21.87
01.265,24.43
01.281,25.79
01.296,26.07
01.312,25.6
01.328,24.77
01.343,23.82
01.359,22.95
01.375,22.15
01.390,21.35
01.406,20.6
01.421,19.84
01.437,19.1
01.453,18.49
01.468,17.95
01.484,17.56
01.500,17.23
01.515,16.86
01.531,16.28
01.546,15.53
01.562,14.45
01.578,13.14
01.593,11.74
01.609,10.1
01.625,8.4
01.640,6.54
01.656,4.59
01.671,2.41
01.687,0.09
01.703,-2.54
01.718,-5.5
01.734,-8.64
01.750,-11.84
01.765,-14.55
01.781,-16.29
01.796,-16.6
01.812,-15.27
01.828,-12.21
01.843,-7.73
01.859,-2.23
01.875,3.86
01.890,10.0
01.906,15.91
01.921,21.45
01.937,26.33
01.953,30.5
01.968,33.81
01.984,36.27
02.000,37.93
02.015,39.01
02.031,39.55
02.046,39.76
02.062,39.72
02.078,39.37
02.093,38.93
02.109,38.4
02.125,37.88
02.140,37.34
02.156,36.76
02.171,35.85
02.187,34.61
02.203,32.92
02.218,30.82
02.234,28.4
02.250,25.73
02.265,22.93
02.281,19.99
02.296,16.97
02.312,13.75
02.328,10.39
02.343,6.96
02.359,3.75
02.375,1.07
02.390,-1.06
02.406,-2.77
02.421,-4.28
02.437,-5.87
02.453,-7.76
02.468,-9.97
02.484,-12.28
02.500,-14.32
02.515,-15.74
02.531,-16.25
02.546,-15.78
02.562,-14.21
02.578,-11.68
02.593,-8.46
02.609,-4.89
02.625,-1.39
02.640,1.72
02.656,4.13
02.671,5.73
02.687,6.48
02.703,6.5
02.718,6.01
02.734,5.21
02.750,4.31
02.765,3.4
02.781,2.7
02.796,2.16
02.812,1.9
02.828,1.92
02.843,2.04
02.859,2.14
02.875,2.19
02.890,2.09
02.906,1.73
02.921,1.1
02.937,0.09
02.953,-1.18
02.968,-2.63
02.984,-4.3
03.000,-6.28
03.015,-8.59
03.031,-11.15
03.046,-13.87
03.062,-16.5
03.078,-18.85
03.093,-20.78
03.109,-22.35
03.125,-23.84
03.140,-25.42
03.156,-27.27
03.171,-29.25
03.187,-31.06
03.203,-32.32
03.218,-32.68
03.234,-31.88
03.250,-29.87
03.265,-26.9
03.281,-23.08
03.296,-18.77
03.312,-14.26
03.328,-9.72
03.343,-5.42
03.359,-1.62
03.375,1.56
03.390,4.04
03.406,5.74
03.421,6.77
03.437,7.16
03.453,6.91
03.468,6.04
03.484,4.69
03.500,3.13
03.515,1.71
03.531,0.73
03.546,0.39
03.562,0.6
03.578,1.0
03.593,1.32
03.609,1.44
03.625,1.26
03.640,0.95
03.656,0.54
03.671,0.02
03.687,-0.62
03.703,-1.34
03.718,-2.23
03.734,-3.24
03.750,-4.26
03.765,-5.38
03.781,-6.55
03.796,-7.94
03.812,-9.43
03.828,-10.98
03.843,-12.57
03.859,-14.27
03.875,-16.19
03.890,-18.36
03.906,-20.75
03.921,-23.18
03.937,-25.45
03.953,-27.16
03.968,-27.88
03.984,-27.29
04.000,-25.27
04.015,-21.84
04.031,-17.33
04.046,-12.14
04.062,-6.7
04.078,-1.43
04.093,3.32
04.109,7.43
04.125,10.85
04.140,13.67
04.156,16.07
04.171,18.21
04.187,20.22
04.203,22.03
04.218,23.65
04.234,24.91
04.250,25.73
04.265,26.14
04.281,26.27
04.296,26.14
04.312,25.83
04.328,25.39
04.343,24.71
04.359,23.86
04.375,22.94
04.390,21.96
04.406,20.98
04.421,19.93
04.437,18.61
04.453,16.82
04.468,14.51
04.484,11.79
04.500,8.98
04.515,6.5
04.531,4.49
04.546,2.97
04.562,1.72
04.578,0.48
04.593,-1.04
04.609,-3.04
04.625,-5.55
04.640,-8.58
04.656,-11.9
04.671,-15.28
04.687,-18.1
04.703,-20.03
04.718,-20.61
04.734,-19.72
04.750,-17.57
04.765,-14.5
04.781,-11.14
04.796,-7.95
04.812,-5.34
04.828,-3.36
04.843,-2.09
04.859,-1.4
04.875,-1.14
04.890,-1.22
04.906,-1.5
04.921,-1.88
04.937,-2.18
04.953,-2.28
04.968,-2.15
04.984,-1.94
05.000,-1.88
05.015,-2.2
05.031,-2.96
05.046,-4.18
05.062,-5.78
05.078,-7.56
05.093,-9.41
05.109,-11.39
05.125,-13.52
05.140,-15.85
05.156,-18.37
05.171,-20.99
05.187,-23.46
05.203,-25.6
05.218,-27.2
05.234,-28.11
05.250,-28.43
05.265,-28.24
05.281,-27.69
05.296,-26.94
05.312,-26.22
05.328,-25.6
05.343,-25.15
05.359,-24.82
05.375,-24.36
05.390,-23.5
05.406,-21.97
05.421,-19.48
05.437,-16.1
05.453,-12.03
05.468,-7.58
05.484,-3.26
05.500,0.53
05.515,3.47
05.531,5.57
05.546,6.98
05.562,8.05
05.578,8.91
05.593,9.74
05.609,10.57
05.625,11.21
05.640,11.7
05.656,12.09
05.671,12.38
05.687,12.53
05.703,12.6
05.718,12.46
05.734,12.14
05.750,11.74
05.765,11.21
05.781,10.59
05.796,10.01
05.812,9.54
05.828,9.13
05.843,8.79
05.859,8.3
05.875,7.53
05.890,6.41
05.906,4.91
05.921,3.19
05.937,1.48
05.953,-0.08
05.968,-1.54
05.984,-3.01
06.000,-4.76
06.015,-6.98
06.031,-9.77
06.046,-13.24
06.062,-17.15
06.078,-21.11
06.093,-24.59
06.109,-26.99
06.125,-27.85
06.140,-27.1
06.156,-24.73
06.171,-21.02
06.187,-16.57
06.203,-11.72
06.218,-6.88
06.234,-2.27
06.250,1.79
06.265,5.2
06.281,7.72
06.296,9.37
06.312,10.31
06.328,10.64
06.343,10.78
06.359,10.94
06.375,11.36
06.390,12.01
06.406,12.8
06.421,13.48
06.437,13.86
06.453,13.91
06.468,13.6
06.484,13.17
06.500,12.9
06.515,13.08
06.531,13.9
06.546,15.28
06.562,16.95
06.578,18.61
06.593,19.85
06.609,20.46
06.625,20.44
06.640,19.88
06.656,18.96
06.671,18.06
06.687,17.38
06.703,16.97
06.718,16.73
06.734,16.43
06.750,15.7
06.765,14.33
06.781,12.25
06.796,9.62
06.812,6.9
06.828,4.66
06.843,3.48
06.859,3.7
06.875,5.38
06.890,8.36
06.906,12.25
06.921,16.57
06.937,20.86
06.953,24.82
06.968,28.17
06.984,30.76
07.000,32.66
07.015,33.9
07.031,34.79
07.046,35.41
07.062,35.6
07.078,35.15
07.093,33.78
07.109,31.34
07.125,27.94
07.140,24.07
07.156,20.28
07.171,17.03
07.187,14.59
07.203,12.63
07.218,10.57
07.234,7.68
07.250,3.42
07.265,-2.44
07.281,-9.83
07.296,-18.41
07.312,-27.71
07.328,-36.94
07.343,-45.34
07.359,-51.99
07.375,-56.3
07.390,-58.05
07.406,-57.37
07.421,-54.87
07.437,-51.4
07.453,-47.78
07.468,-44.52
07.484,-41.83
07.500,-39.54
07.515,-37.28
07.531,-34.67
07.546,-31.27
07.562,-26.91
07.578,-21.77
07.593,-16.2
07.609,-10.7
07.625,-5.72
07.640,-1.55
07.656,1.8
07.671,4.31
07.687,6.23
07.703,7.77
07.718,9.01
07.734,9.98
07.750,10.75
07.765,11.36
07.781,11.9
07.796,12.49
07.812,13.09
07.828,13.79
07.843,14.59
07.859,15.36
07.875,16.05
07.890,16.46
07.906,16.52
07.921,16.25
07.937,15.74
07.953,14.99
07.968,13.91
07.984,12.51
08.000,10.6
08.015,8.29
08.031,5.55
08.046,2.48
08.062,-0.72
08.078,-4.01
08.093,-7.17
08.109,-10.12
08.125,-12.75
08.140,-15.08
08.156,-17.13
08.171,-19.17
08.187,-21.31
08.203,-23.44
08.218,-25.2
08.234,-26.16
08.250,-25.93
08.265,-24.3
08.281,-21.24
08.296,-16.93
08.312,-11.82
08.328,-6.47
08.343,-1.34
08.359,3.23
08.375,7.19
08.390,10.62
08.406,13.67
08.421,16.53
08.437,19.12
08.453,21.34
08.468,22.99
08.484,24.05
08.500,24.52
08.515,24.63
08.531,24.59
08.546,24.5
08.562,24.42
08.578,24.2
08.593,23.75
08.609,23.12
08.625,22.45
08.640,21.82
08.656,21.37
08.671,21.04
08.687,20.73
08.703,20.19
08.718,19.28
08.734,18.06
08.750,16.62
08.765,15.13
08.781,13.62
08.796,12.16
08.812,10.64
08.828,9.08
08.843,7.45
08.859,5.74
08.875,3.92
08.890,1.84
08.906,-0.6
08.921,-3.37
08.937,-6.15
08.953,-8.46
08.968,-9.81
08.984,-9.74
09.000,-8.14
09.015,-5.21
09.031,-1.51
09.046,2.33
09.062,5.76
09.078,8.5
09.093,10.49
09.109,11.83
09.125,12.68
09.140,13.19
09.156,13.51
09.171,13.57
09.187,13.4
09.203,13.05
09.218,12.6
09.234,12.13
09.250,11.69
09.265,11.13
09.281,10.32
09.296,9.18
09.312,7.58
09.328,5.5
09.343,3.03
09.359,0.3
09.375,-2.62
09.390,-5.66
09.406,-8.79
09.421,-12.02
09.437,-15.29
09.453,-18.53
09.468,-21.67
09.484,-24.65
09.500,-27.41
09.515,-29.86
09.531,-31.99
09.546,-33.72
09.562,-35.16
09.578,-36.3
09.593,-37.21
09.609,-37.83
09.625,-38.18
09.640,-38.27
09.656,-37.98
09.671,-37.25
09.687,-35.78
09.703,-33.58
09.718,-30.51
09.734,-26.69
09.750,-22.15
09.765,-17.26
09.781,-12.38
09.796,-7.66
09.812,-3.27
09.828,0.87
09.843,4.59
09.859,7.84
09.875,10.38
09.890,12.13
09.906,13.12
09.921,13.47
09.937,13.54
09.953,13.66
09.968,13.99
09.984,14.41
10.000,14.7
10.015,14.65
10.031,13.97
10.046,12.69
10.062,10.76
10.078,8.28
10.093,5.32
10.109,2.06
10.125,-1.35
10.140,-4.69
10.156,-7.77
10.171,-10.68
10.187,-13.33
10.203,-15.79
10.218,-18.01
10.234,-19.95
10.250,-21.54
10.265,-22.79
10.281,-23.69
10.296,-24.3
10.312,-24.87
10.328,-25.55
10.343,-26.63
10.359,-28.33
10.375,-30.58
10.390,-33.08
10.406,-35.18
10.421,-36.23
10.437,-35.69
10.453,-33.34
10.468,-29.28
10.484,-24.01
10.500,-18.03
10.515,-11.71
10.531,-5.35
10.546,0.9
10.562,6.84
10.578,12.11
10.593,16.4
10.609,19.67
10.625,21.88
10.640,23.23
10.656,24.14
10.671,24.78
10.687,25.41
10.703,26.15
10.718,27.03
10.734,28.09
10.750,29.4
10.765,30.88
10.781,32.37
10.796,33.79
10.812,34.96
10.828,35.83
10.843,36.37
10.859,36.65
10.875,36.84
10.890,37.13
10.906,37.67
10.921,38.6
10.937,39.92
10.953,41.6
10.968,43.69
10.984,46.34
11.000,49.67
11.015,53.74
11.031,58.49
11.046,63.54
11.062,68.63
11.078,73.41
11.093,77.64
11.109,81.34
11.125,84.86
11.140,88.51
11.156,92.91
11.171,98.66
11.187,106.05
11.203,114.97
11.218,124.73
11.234,134.19
11.250,141.99
11.265,147.17
11.281,149.22
11.296,148.36
11.312,145.27
11.328,140.7
11.343,134.89
11.359,127.69
11.375,118.94
11.390,108.74
11.406,97.71
11.421,86.69
11.437,76.25
11.453,66.41
11.468,56.72
11.484,46.94
11.500,37.28
11.515,28.67
11.531,22.3
11.546,18.84
11.562,18.08
11.578,18.97
11.593,20.28
11.609,20.96
11.625,20.73
11.640,19.69
11.656,17.98
11.671,15.63
11.687,12.71
11.703,9.43
11.718,6.17
11.734,3.5
11.750,1.69
11.765,0.64
11.781,-0.06
11.796,-0.98
11.812,-2.61
11.828,-5.04
11.843,-8.08
11.859,-11.69
11.875,-15.65
11.890,-19.62
11.906,-23.13
11.921,-25.61
11.937,-26.67
11.953,-26.34
11.968,-24.87
11.984,-21.94
12.000,-16.33
12.015,-5.69
12.031,12.11
12.046,37.37
12.062,66.99
12.078,94.62
12.093,113.05
12.109,116.81
12.125,104.86
12.140,80.85
12.156,51.58
12.171,23.68
12.187,1.24
12.203,-15.04
12.218,-27.14
12.234,-37.33
12.250,-46.7
12.265,-54.61
12.281,-59.7
12.296,-60.95
12.312,-58.72
12.328,-54.72
12.343,-51.13
12.359,-50.38
12.375,-53.3
12.390,-58.85
12.406,-64.43
12.421,-67.62
12.437,-67.34
12.453,-64.23
12.468,-59.97
12.484,-56.31
12.500,-54.54
12.515,-54.4
12.531,-54.41
12.546,-52.85
12.562,-49.35
12.578,-45.49
12.593,-43.92
12.609,-46.93
12.625,-54.85
12.640,-67.16
12.656,-81.1
12.671,-93.05
12.687,-100.03
12.703,-101.71
12.718,-100.38
12.734,-99.25
12.750,-100.68
12.765,-104.67
12.781,-112.92
12.796,-124.6
12.812,-136.44
12.828,-144.59
12.843,-147.78
12.859,-148.04
12.875,-148.66
12.890,-152.5
12.906,-160.88
12.921,-181.56
12.937,-217.95
12.953,-266.05
12.968,-316.11
12.984,-359.14
13.000,-390.53
13.015,-409.19
13.031,-416.23
13.046,-413.68
13.062,-416.64
13.078,-434.87
13.093,-466.6
13.109,-500.95
13.125,-527.94
13.140,-543.75
13.156,-549.48
13.171,-548.38
13.187,-543.65
13.203,-554.79
13.218,-593.96
13.234,-658.13
13.250,-732.52
13.265,-803.45
13.281,-865.21
13.296,-918.82
13.312,-968.4
13.328,-913.77
13.343,-713.75
13.359,-409.27
13.375,-92.88
13.390,165.38
13.406,346.21
13.421,463.27
13.437,539.98
13.453,596.95
13.468,647.53
13.484,679.63
13.500,681.09
13.515,651.79
13.531,603.61
13.546,550.27
13.562,501.14
13.578,461.11
13.593,429.07
13.609,406.16
13.625,378.94
13.640,338.73
13.656,288.64
13.671,240.97
13.687,207.15
13.703,191.61
13.718,192.51
13.734,204.94
13.750,224.02
13.765,237.09
13.781,236.58
13.796,223.59
13.812,206.13
13.828,192.49
13.843,187.75
13.859,191.79
13.875,203.08
13.890,220.15
13.906,237.05
13.921,249.37
13.937,255.83
13.953,257.17
13.968,253.72
13.984,244.52
14.000,228.17
14.015,204.99
14.031,177.63
14.046,148.36
14.062,119.86
14.078,94.51
14.093,73.25
14.109,54.98
14.125,37.12
14.140,17.06
14.156,-6.34
14.171,-32.82
14.187,-61.43
14.203,-91.13
14.218,-120.54
14.234,-147.89
14.250,-170.34
14.265,-184.27
14.281,-186.38
14.296,-175.2
14.312,-152.1
14.328,-121.4
14.343,-89.35
14.359,-62.31
14.375,-45.39
14.390,-41.28
14.406,-49.93
14.421,-68.51
14.437,-92.05
14.453,-114.7
14.468,-131.29
14.484,-139.06
14.500,-138.25
14.515,-131.64
14.531,-123.04
14.546,-115.38
14.562,-109.54
14.578,-104.69
14.593,-99.36
14.609,-92.86
14.625,-86.2
14.640,-81.29
14.656,-79.61
14.671,-81.28
14.687,-84.92
14.703,-88.2
14.718,-89.05
14.734,-86.63
14.750,-81.68
14.765,-76.2
14.781,-72.38
14.796,-71.79
14.812,-74.56
14.828,-79.29
14.843,-83.46
14.859,-84.49
14.875,-80.66
14.890,-71.67
14.906,-58.58
14.921,-42.97
14.937,-26.52
14.953,-10.77
14.968,2.83
14.984,12.62
15.000,16.88
15.015,14.4
15.031,5.31
15.046,-8.69
15.062,-24.32
15.078,-37.93
15.093,-46.5
15.109,-48.33
15.125,-43.45
15.140,-33.03
15.156,-18.99
15.171,-3.3
15.187,12.27
15.203,26.64
15.218,39.59
15.234,51.81
15.250,64.76
15.265,79.59
15.281,97.01
15.296,116.59
15.312,137.19
15.328,157.13
15.343,175.04
15.359,190.36
15.375,203.57
15.390,216.16
15.406,229.69
15.421,245.61
15.437,264.31
15.453,284.84
15.468,304.71
15.484,320.34
15.500,328.09
15.515,325.56
15.531,312.5
15.546,291.02
15.562,264.92
15.578,238.39
15.593,214.49
15.609,194.39
15.625,177.17
15.640,160.78
15.656,143.36
15.671,124.15
15.687,103.97
15.703,84.89
15.718,69.17
15.734,58.45
15.750,52.91
15.765,50.91
15.781,49.34
15.796,44.67
15.812,34.58
15.828,18.79
15.843,-0.39
15.859,-19.03
15.875,-33.22
15.890,-40.65
15.906,-41.68
15.921,-38.72
15.937,-34.74
15.953,-31.48
15.968,-28.69
15.984,-24.56
16.000,-17.49
16.015,-7.37
16.031,4.0
16.046,13.96
16.062,20.69
16.078,24.08
16.093,25.78
16.109,28.02
16.125,32.44
16.140,39.33
16.156,47.83
16.171,56.62
16.187,64.61
16.203,71.54
16.218,77.58
16.234,83.07
16.250,87.89
16.265,91.54
16.281,93.17
16.296,92.09
16.312,88.35
16.328,82.71
16.343,77.05
16.359,73.06
16.375,71.77
16.390,72.66
16.406,73.76
16.421,72.11
16.437,64.52
16.453,48.7
16.468,23.8
16.484,-8.58
16.500,-45.06
16.515,-81.21
16.531,-112.81
16.546,-137.22
16.562,-153.85
16.578,-164.13
16.593,-170.12
16.609,-173.38
16.625,-173.39
16.640,-168.54
16.656,-157.14
16.671,-138.41
16.687,-113.19
16.703,-83.41
16.718,-51.73
16.734,-20.18
16.750,10.0
16.765,39.99
16.781,70.65
16.796,101.7
16.812,132.08
16.828,160.92
16.843,188.72
16.859,216.28
16.875,244.89
16.890,274.75
16.906,308.34
16.921,345.96
16.937,385.35
16.953,422.58
16.968,454.04
16.984,477.94
17.000,492.59
17.015,497.34
17.031,490.61
17.046,476.33
17.062,457.18
17.078,433.83
17.093,405.81
17.109,374.51
17.125,345.0
17.140,322.67
17.156,313.41
17.171,318.94
17.187,343.55
17.203,385.48
17.218,436.12
17.234,481.95
17.250,510.9
17.265,517.6
17.281,502.51
17.296,474.23
17.312,394.99
17.328,253.43
17.343,68.37
17.359,-119.19
17.375,-274.02
17.390,-383.18
17.406,-439.66
17.421,-463.5
17.437,-469.03
17.453,-465.91
17.468,-453.58
17.484,-432.82
17.500,-411.8
17.515,-400.44
17.531,-406.54
17.546,-431.8
17.562,-474.46
17.578,-527.57
17.593,-585.58
17.609,-639.96
17.625,-686.59
17.640,-714.19
17.656,-716.09
17.671,-693.22
17.687,-654.23
17.703,-611.08
17.718,-568.89
17.734,-526.54
17.750,-475.59
17.765,-409.51
17.781,-328.35
17.796,-241.42
17.812,-161.89
17.828,-100.16
17.843,-60.87
17.859,-40.51
17.875,-32.01
17.890,-26.71
17.906,-19.47
17.921,-9.52
17.937,-0.22
17.953,4.53
17.968,3.97
17.984,0.06
18.000,-3.38
18.015,-3.92
18.031,-0.88
18.046,4.24
18.062,8.73
18.078,9.48
18.093,4.59
18.109,-5.14
18.125,-17.08
18.140,-27.73
18.156,-34.62
18.171,-37.13
18.187,-36.31
18.203,-34.08
18.218,-32.46
18.234,-33.25
18.250,-35.45
18.265,-36.68
18.281,-34.3
18.296,-26.48
18.312,-13.3
18.328,3.22
18.343,19.64
18.359,32.48
18.375,39.31
18.390,39.99
18.406,36.7
18.421,32.82
18.437,31.95
18.453,36.89
18.468,49.2
18.484,68.52
18.500,92.52
18.515,116.55
18.531,132.92
18.546,136.06
18.562,123.59
18.578,98.28
18.593,67.14
18.609,39.23
18.625,21.4
18.640,16.33
18.656,21.48
18.671,31.21
18.687,40.6
18.703,46.67
18.718,48.82
18.734,48.27
18.750,48.03
18.765,49.71
18.781,55.37
18.796,66.0
18.812,80.36
18.828,94.48
18.843,102.03
18.859,96.82
18.875,75.56
18.890,39.75
18.906,-5.19
18.921,-52.38
18.937,-97.13
18.953,-137.8
18.968,-174.35
18.984,-205.62
19.000,-227.16
19.015,-232.24
19.031,-215.86
19.046,-178.03
19.062,-124.58
19.078,-65.59
19.093,-11.5
19.109,30.85
19.125,58.99
19.140,74.34
19.156,79.66
19.171,76.72
19.187,66.14
19.203,49.13
19.218,28.31
19.234,7.61
19.250,-8.32
19.265,-16.95
19.281,-16.15
19.296,-5.26
19.312,14.91
19.328,41.46
19.343,69.55
19.359,92.77
19.375,104.84
19.390,102.42
19.406,86.64
19.421,63.37
19.437,40.17
19.453,23.21
19.468,14.88
19.484,13.51
19.500,15.4
19.515,17.31
19.531,18.01
19.546,17.79
19.562,17.02
19.578,14.53
19.593,7.53
19.609,-6.44
19.625,-27.44
19.640,-51.62
19.656,-71.64
19.671,-79.18
19.687,-68.74
19.703,-40.53
19.718,-1.19
19.734,38.41
19.750,67.92
19.765,81.66
19.781,80.79
19.796,71.97
19.812,63.5
19.828,61.19
19.843,66.0
19.859,74.5
19.875,81.33
19.890,82.46
19.906,76.78
19.921,66.14
19.937,53.71
19.953,42.03
19.968,32.02
19.984,23.17
20.000,14.54
20.015,6.13
20.031,-0.58
20.046,-3.21
20.062,0.2
20.078,9.75
20.093,23.0
20.109,35.92
20.125,44.48
20.140,46.42
20.156,42.14
20.171,34.37
20.187,26.64
20.203,22.0
20.218,22.32
20.234,28.05
20.250,38.45
20.265,52.02
20.281,66.48
20.296,79.26
20.312,88.07
20.328,91.39
20.343,88.95
20.359,81.34
20.375,69.48
20.390,53.85
20.406,34.54
20.421,11.8
20.437,-13.18
20.453,-37.93
20.468,-59.42
20.484,-75.01
20.500,-83.78
20.515,-86.76
20.531,-86.44
20.546,-85.78
20.562,-87.25
20.578,-92.15
20.593,-100.56
20.609,-111.66
20.625,-123.86
20.640,-135.39
20.656,-144.51
20.671,-149.94
20.687,-151.0
20.703,-148.15
20.718,-142.55
20.734,-135.58
20.750,-128.52
20.765,-122.01
20.781,-116.26
20.796,-111.15
20.812,-106.4
20.828,-101.57
20.843,-96.24
20.859,-90.14
20.875,-83.15
20.890,-75.61
20.906,-68.2
20.921,-61.79
20.937,-57.07
20.953,-54.12
20.968,-52.48
20.984,-51.24
21.000,-49.44
21.015,-46.24
21.031,-41.05
21.046,-33.62
21.062,-24.02
21.078,-12.97
21.093,-1.39
21.109,9.54
21.125,18.81
21.140,25.72
21.156,29.94
21.171,31.49
21.187,30.62
21.203,27.79
21.218,23.41
21.234,18.09
21.250,12.47
21.265,7.13
21.281,2.55
21.296,-0.95
21.312,-3.27
21.328,-4.44
21.343,-4.67
21.359,-4.53
21.375,-4.84
21.390,-6.49
21.406,-9.96
21.421,-14.99
21.437,-20.65
21.453,-25.77
21.468,-29.83
21.484,-33.27
21.500,-37.27
21.515,-42.8
21.531,-49.84
21.546,-57.12
21.562,-62.61
21.578,-65.1
21.593,-65.16
21.609,-65.08
21.625,-67.49
21.640,-74.03
21.656,-84.47
21.671,-97.11
21.687,-110.12
21.703,-122.48
21.718,-133.91
21.734,-144.63
21.750,-154.48
21.765,-162.14
21.781,-165.46
21.796,-162.33
21.812,-152.06
21.828,-136.1
21.843,-117.07
21.859,-96.66
21.875,-75.47
21.890,-53.63
21.906,-32.44
21.921,-15.49
21.937,-8.19
21.953,-15.2
21.968,-37.67
21.984,-70.93
22.000,-103.07
22.015,-119.68
22.031,-109.51
22.046,-69.7
22.062,-6.59
22.078,67.37
22.093,139.38
22.109,200.96
22.125,249.97
22.140,292.37
22.156,335.66
22.171,383.96
22.187,434.84
22.203,480.18
22.218,510.21
22.234,517.95
22.250,501.67
22.265,465.49
22.281,421.79
22.296,385.44
22.312,369.06
22.328,378.95
22.343,414.1
22.359,467.96
22.375,531.26
22.390,594.62
22.406,628.3
22.421,610.6
22.437,534.69
22.453,413.27
22.468,270.14
22.484,126.88
22.500,-3.97
22.515,-117.09
22.531,-210.38
22.546,-282.77
22.562,-330.22
22.578,-350.8
22.593,-347.47
22.609,-326.49
22.625,-295.72
22.640,-261.99
22.656,-229.58
22.671,-200.61
22.687,-176.46
22.703,-155.45
22.718,-135.76
22.734,-116.19
22.750,-97.41
22.765,-80.82
22.781,-67.76
22.796,-58.87
22.812,-54.3
22.828,-53.78
22.843,-54.94
22.859,-55.46
22.875,-54.32
22.890,-52.86
22.906,-54.4
22.921,-62.58
22.937,-79.34
22.953,-104.08
22.968,-133.99
22.984,-164.29
23.000,-190.76
23.015,-210.85
23.031,-224.04
23.046,-231.1
23.062,-232.9
23.078,-229.97
23.093,-222.44
23.109,-210.71
23.125,-194.92
23.140,-175.42
23.156,-152.56
23.171,-126.87
23.187,-99.42
23.203,-71.84
23.218,-46.07
23.234,-23.51
23.250,-4.57
23.265,11.72
23.281,27.13
23.296,43.0
23.312,59.52
23.328,75.47
23.343,89.16
23.359,99.78
23.375,108.19
23.390,116.34
23.406,125.88
23.421,136.65
23.437,146.51
23.453,152.44
23.468,152.13
23.484,145.11
23.500,132.79
23.515,117.68
23.531,101.92
23.546,86.68
23.562,72.08
23.578,57.69
23.593,43.29
23.609,28.96
23.625,14.99
23.640,1.45
23.656,-11.48
23.671,-23.45
23.687,-33.78
23.703,-41.98
23.718,-48.53
23.734,-54.86
23.750,-62.55
23.765,-72.41
23.781,-83.84
23.796,-95.2
23.812,-104.96
23.828,-112.43
23.843,-117.68
23.859,-120.8
23.875,-120.98
23.890,-116.21
23.906,-104.24
23.921,-83.87
23.937,-56.34
23.953,-25.54
23.968,3.25
23.984,25.23
24.000,37.88
24.015,42.1
24.031,42.03
24.046,43.77
24.062,53.67
24.078,75.84
24.093,109.86
24.109,150.18
24.125,187.58
24.140,212.1
24.156,216.47
24.171,198.0
24.187,158.63
24.203,104.34
24.218,43.62
24.234,-13.89
24.250,-59.1
24.265,-85.48
24.281,-90.93
24.296,-78.74
24.312,-56.87
24.328,-34.91
24.343,-20.31
24.359,-15.4
24.375,-17.62
24.390,-21.94
24.406,-24.56
24.421,-25.04
24.437,-25.47
24.453,-27.88
24.468,-31.68
24.484,-33.5
24.500,-29.2
24.515,-16.93
24.531,1.49
24.546,20.76
24.562,34.43
24.578,38.02
24.593,30.63
24.609,15.03
24.625,-3.94
24.640,-21.24
24.656,-32.99
24.671,-36.7
24.687,-31.65
24.703,-18.59
24.718,0.47
24.734,22.8
24.750,45.85
24.765,67.54
24.781,86.36
24.796,101.23
24.812,111.07
24.828,114.76
24.843,111.7
24.859,102.39
24.875,88.53
24.890,72.65
24.906,57.27
24.921,43.8
24.937,32.35
24.953,22.14
24.968,12.56
24.984,3.64
25.000,-4.1
25.015,-10.53
25.031,-16.76
25.046,-24.75
25.062,-36.38
25.078,-51.93
25.093,-69.69
25.109,-86.23
25.125,-97.7
25.140,-101.28
25.156,-96.31
25.171,-84.68
25.187,-70.29
25.203,-57.93
25.218,-51.56
25.234,-53.2
25.250,-62.35
25.265,-75.99
25.281,-89.78
25.296,-99.19
25.312,-100.64
25.328,-92.14
25.343,-73.76
25.359,-47.64
25.375,-17.94
25.390,9.97
25.406,30.96
25.421,41.88
25.437,42.85
25.453,37.07
25.468,29.23
25.484,22.91
25.500,19.16
25.515,16.49
25.531,12.55
25.546,6.02
25.562,-2.74
25.578,-12.27
25.593,-21.29
25.609,-29.56
25.625,-37.81
25.640,-46.9
25.656,-56.83
25.671,-66.37
25.687,-73.3
25.703,-75.42
25.718,-71.37
25.734,-61.1
25.750,-46.16
25.765,-29.19
25.781,-12.95
25.796,0.35
25.812,9.68
25.828,15.15
25.843,17.4
25.859,16.96
25.875,13.79
25.890,7.23
25.906,-3.57
25.921,-18.75
25.937,-37.36
25.953,-57.59
25.968,-77.25
25.984,-94.66
26.000,-109.04
26.015,-120.53
26.031,-129.96
26.046,-138.42
26.062,-146.58
26.078,-154.42
26.093,-160.91
26.109,-164.02
26.125,-161.54
26.140,-151.88
26.156,-134.95
26.171,-112.48
26.187,-87.56
26.203,-63.5
26.218,-42.92
26.234,-27.03
26.250,-15.4
26.265,-6.78
26.281,0.2
26.296,6.44
26.312,12.36
26.328,17.95
26.343,23.33
26.359,28.62
26.375,34.03
26.390,39.99
26.406,46.98
26.421,55.65
26.437,66.48
26.453,79.51
26.468,94.1
26.484,109.09
26.500,123.12
26.515,135.01
26.531,144.28
26.546,150.98
26.562,155.72
26.578,159.13
26.593,161.35
26.609,162.02
26.625,160.43
26.640,155.89
26.656,148.05
26.671,137.13
26.687,123.6
26.703,108.07
26.718,91.24
26.734,73.59
26.750,55.58
26.765,37.7
26.781,20.5
26.796,4.42
26.812,-10.1
26.828,-22.8
26.843,-33.65
26.859,-42.74
26.875,-50.26
26.890,-56.39
26.906,-61.39
26.921,-65.36
26.937,-68.28
26.953,-69.84
26.968,-69.72
26.984,-67.87
27.000,-64.44
27.015,-59.87
27.031,-54.43
27.046,-48.26
27.062,-41.39
27.078,-33.96
27.093,-26.25
27.109,-18.54
27.125,-10.75
27.140,-2.25
27.156,8.02
27.171,20.88
27.187,36.34
27.203,53.29
27.218,69.93
27.234,84.63
27.250,96.58
27.265,105.8
27.281,112.76
27.296,117.53
27.312,119.45
27.328,117.27
27.343,109.68
27.359,95.96
27.375,76.39
27.390,52.33
27.406,25.88
27.421,-0.56
27.437,-24.97
27.453,-46.0
27.468,-63.08
27.484,-76.42
27.500,-86.55
27.515,-94.07
27.531,-99.47
27.546,-103.04
27.562,-104.96
27.578,-105.32
27.593,-104.08
27.609,-101.04
27.625,-95.76
27.640,-87.97
27.656,-77.7
27.671,-65.53
27.687,-52.44
27.703,-39.53
27.718,-27.85
27.734,-18.28
27.750,-11.62
27.765,-8.48
27.781,-8.92
27.796,-12.29
27.812,-17.15
27.828,-21.46
27.843,-23.26
27.859,-21.25
27.875,-14.99
27.890,-4.95
27.906,7.65
27.921,21.46
27.937,35.1
27.953,47.49
27.968,57.94
27.984,66.07
28.000,71.61
28.015,74.37
28.031,74.21
28.046,70.95
28.062,64.71
28.078,55.81
28.093,44.96
28.109,32.98
28.125,20.77
28.140,9.1
28.156,-1.38
28.171,-10.08
28.187,-16.51
28.203,-20.31
28.218,-21.56
28.234,-20.62
28.250,-18.13
28.265,-14.77
28.281,-10.82
28.296,-6.18
28.312,-0.76
28.328,5.37
28.343,11.68
28.359,17.08
28.375,20.42
28.390,21.03
28.406,18.75
28.421,14.12
28.437,7.86
28.453,0.45
28.468,-7.9
28.484,-16.98
28.500,-26.26
28.515,-34.58
28.531,-40.32
28.546,-42.03
28.562,-38.89
28.578,-31.07
28.593,-19.65
28.609,-6.19
28.625,7.82
28.640,21.25
28.656,33.51
28.671,44.24
28.687,52.88
28.703,58.61
28.718,60.37
28.734,57.21
28.750,48.91
28.765,36.16
28.781,20.83
28.796,5.75
28.812,-5.87
28.828,-11.3
28.843,-8.81
28.859,1.69
28.875,18.56
28.890,38.57
28.906,57.44
28.921,70.8
28.937,75.34
28.953,69.65
28.968,54.74
28.984,33.7
29.000,10.58
29.015,-10.9
29.031,-28.67
29.046,-42.64
29.062,-54.23
29.078,-65.24
29.093,-76.81
29.109,-88.83
29.125,-100.1
29.140,-109.09
29.156,-114.57
29.171,-115.91
29.187,-113.26
29.203,-107.15
29.218,-98.45
29.234,-88.11
29.250,-77.24
29.265,-66.93
29.281,-58.12
29.296,-51.34
29.312,-46.37
29.328,-42.54
29.343,-38.63
29.359,-33.41
29.375,-25.77
29.390,-15.2
29.406,-1.96
29.421,12.62
29.437,26.39
29.453,36.97
29.468,42.49
29.484,42.57
29.500,38.63
29.515,33.56
29.531,30.48
29.546,31.31
29.562,35.9
29.578,42.02
29.593,46.48
29.609,46.74
29.625,42.13
29.640,33.99
29.656,25.0
29.671,17.94
29.687,14.37
29.703,14.34
29.718,16.55
29.734,19.41
29.750,21.69
29.765,23.17
29.781,24.17
29.796,25.11
29.812,26.18
29.828,27.27
29.843,28.41
29.859,30.06
29.875,32.99
29.890,37.88
29.906,44.86
29.921,53.16
29.937,61.4
29.953,68.17
29.968,72.38
29.984,73.33
30.000,70.61
30.015,63.81
30.031,52.62
30.046,37.31
30.062,19.03
30.078,-0.05
30.093,-17.37
30.109,-30.79
30.125,-39.37
30.140,-43.71
30.156,-45.57
30.171,-46.82
30.187,-48.68
30.203,-51.2
30.218,-53.51
30.234,-54.54
30.250,-53.55
30.265,-50.3
30.281,-45.01
30.296,-38.12
30.312,-30.1
30.328,-21.64
30.343,-13.87
30.359,-8.19
30.375,-5.97
30.390,-8.22
30.406,-14.94
30.421,-25.37
30.437,-38.06
30.453,-51.21
30.468,-62.72
30.484,-70.46
30.500,-72.37
30.515,-66.97
30.531,-54.19
30.546,-35.61
30.562,-14.44
30.578,5.64
30.593,21.64
30.609,32.46
30.625,39.02
30.640,43.63
30.656,48.73
30.671,55.74
30.687,64.78
30.703,74.51
30.718,83.03
30.734,88.19
30.750,88.19
30.765,81.98
30.781,69.53
30.796,51.92
30.812,31.02
30.828,9.23
30.843,-11.26
30.859,-28.85
30.875,-42.64
30.890,-52.25
30.906,-57.58
30.921,-58.87
30.937,-56.84
30.953,-52.98
30.968,-49.23
30.984,-47.45
31.000,-48.57
31.015,-52.22
31.031,-56.85
31.046,-60.31
31.062,-60.85
31.078,-57.71
31.093,-51.28
31.109,-42.68
31.125,-33.42
31.140,-24.7
31.156,-17.38
31.171,-11.82
31.187,-7.95
31.203,-5.5
31.218,-4.01
31.234,-3.21
31.250,-2.93
31.265,-3.07
31.281,-3.09
31.296,-2.03
31.312,1.45
31.328,8.5
31.343,19.25
31.359,32.49
31.375,45.72
31.390,56.04
31.406,61.34
31.421,61.18
31.437,56.7
31.453,50.14
31.468,43.66
31.484,38.71
31.500,35.98
31.515,35.78
31.531,38.41
31.546,44.11
31.562,52.76
31.578,63.32
31.593,73.78
31.609,81.64
31.625,84.63
31.640,81.84
31.656,73.84
31.671,62.67
31.687,50.77
31.703,40.11
31.718,31.45
31.734,24.08
31.750,16.45
31.765,6.7
31.781,-6.18
31.796,-22.21
31.812,-40.32
31.828,-58.91
31.843,-76.36
31.859,-91.63
31.875,-104.28
31.890,-114.32
31.906,-121.9
31.921,-126.95
31.937,-129.23
31.953,-128.35
31.968,-124.0
31.984,-116.03
32.000,-104.68
32.015,-90.44
32.031,-74.04
32.046,-56.45
32.062,-38.78
32.078,-22.04
32.093,-6.89
32.109,6.4
32.125,18.11
32.140,28.74
32.156,38.79
32.171,48.33
32.187,56.69
32.203,62.53
32.218,64.47
32.234,61.84
32.250,55.32
32.265,46.98
32.281,39.51
32.296,35.48
32.312,36.42
32.328,42.57
32.343,52.97
32.359,65.84
32.375,79.1
32.390,90.72
32.406,99.14
32.421,103.32
32.437,103.13
32.453,99.27
32.468,93.25
32.484,87.19
32.500,83.06
32.515,82.0
32.531,83.94
32.546,87.67
32.562,91.12
32.578,92.25
32.593,89.68
32.609,83.17
32.625,73.53
32.640,62.15
32.656,50.58
32.671,40.18
32.687,32.13
32.703,27.34
32.718,26.4
32.734,29.35
32.750,35.33
32.765,42.63
32.781,48.88
32.796,51.72
32.812,49.52
32.828,41.9
32.843,29.75
32.859,14.98
32.875,-0.15
32.890,-13.79
32.906,-24.97
32.921,-33.78
32.937,-41.0
32.953,-47.52
32.968,-53.85
32.984,-59.94
33.000,-65.22
33.015,-69.07
33.031,-71.09
33.046,-71.14
33.062,-69.41
33.078,-66.19
33.093,-61.7
33.109,-56.05
33.125,-49.36
33.140,-42.0
33.156,-34.62
33.171,-28.02
33.187,-22.8
33.203,-19.16
33.218,-16.9
33.234,-15.62
33.250,-14.82
33.265,-14.2
33.281,-13.57
33.296,-12.98
33.312,-12.53
33.328,-12.32
33.343,-12.41
33.359,-12.82
33.375,-13.63
33.390,-14.73
33.406,-15.87
33.421,-16.63
33.437,-16.67
33.453,-15.86
33.468,-14.39
33.484,-12.79
33.500,-11.54
33.515,-11.07
33.531,-11.61
33.546,-13.15
33.562,-15.53
33.578,-18.56
33.593,-21.93
33.609,-25.02
33.625,-27.21
33.640,-27.8
33.656,-26.55
33.671,-23.79
33.687,-20.45
33.703,-17.54
33.718,-15.82
33.734,-15.57
33.750,-16.45
33.765,-17.89
33.781,-19.18
33.796,-19.88
33.812,-19.7
33.828,-18.48
33.843,-16.08
33.859,-12.39
33.875,-7.64
33.890,-2.35
33.906,2.56
33.921,6.39
33.937,8.75
33.953,9.94
33.968,10.71
33.984,11.93
34.000,14.1
34.015,16.96
34.031,19.65
34.046,21.05
34.062,20.54
34.078,18.18
34.093,14.7
34.109,11.19
34.125,8.55
34.140,7.31
34.156,7.27
34.171,7.64
34.187,7.07
34.203,4.66
34.218,0.11
34.234,-6.08
34.250,-12.48
34.265,-17.4
34.281,-19.03
34.296,-16.38
34.312,-9.5
34.328,-0.46
34.343,7.42
34.359,9.95
34.375,3.41
34.390,-13.56
34.406,-38.88
34.421,-66.56
34.437,-88.32
34.453,-96.52
34.468,-87.45
34.484,-62.87
34.500,-29.34
34.515,4.7
34.531,32.33
34.546,50.22
34.562,58.8
34.578,60.56
34.593,57.8
34.609,51.75
34.625,42.53
34.640,30.58
34.656,17.36
34.671,5.21
34.687,-3.95
34.703,-9.38
34.718,-11.38
34.734,-11.16
34.750,-10.05
34.765,-9.27
34.781,-9.42
34.796,-10.8
34.812,-12.85
34.828,-14.9
34.843,-16.23
34.859,-15.73
34.875,-12.82
34.890,-7.19
34.906,0.87
34.921,11.0
34.937,22.87
34.953,36.19
34.968,50.59
34.984,65.72
35.000,82.22
35.015,100.6
35.031,121.14
35.046,143.05
35.062,164.87
35.078,184.77
35.093,200.96
35.109,212.12
35.125,217.58
35.140,218.79
35.156,217.6
35.171,216.16
35.187,215.79
35.203,217.66
35.218,222.53
35.234,230.39
35.250,240.56
35.265,240.87
35.281,221.26
35.296,176.41
35.312,110.0
35.328,33.44
35.343,-38.47
35.359,-94.13
35.375,-129.01
35.390,-144.94
35.406,-147.47
35.421,-141.89
35.437,-132.86
35.453,-121.93
35.468,-112.4
35.484,-106.65
35.500,-105.3
35.515,-106.26
35.531,-104.92
35.546,-96.43
35.562,-77.2
35.578,-49.74
35.593,-20.22
35.609,2.34
35.625,11.19
35.640,4.41
35.656,-14.88
35.671,-40.41
35.687,-66.03
35.703,-86.8
35.718,-99.97
35.734,-104.29
35.750,-100.89
35.765,-90.72
35.781,-76.04
35.796,-60.69
35.812,-48.98
35.828,-44.18
35.843,-47.03
35.859,-55.35
35.875,-64.89
35.890,-71.77
35.906,-72.93
35.921,-67.64
35.937,-57.32
35.953,-44.63
35.968,-32.45
35.984,-21.63
36.000,-12.79
36.015,-5.76
36.031,0.12
36.046,6.05
36.062,13.02
36.078,21.37
36.093,30.77
36.109,40.29
36.125,48.83
36.140,55.01
36.156,57.64
36.171,55.79
36.187,49.4
36.203,39.36
36.218,27.58
36.234,16.68
36.250,8.95
36.265,5.65
36.281,6.14
36.296,8.47
36.312,10.27
36.328,9.82
36.343,6.56
36.359,1.07
36.375,-5.25
36.390,-10.98
36.406,-15.0
36.421,-16.99
36.437,-17.15
36.453,-16.17
36.468,-14.73
36.484,-13.55
36.500,-13.04
36.515,-13.45
36.531,-14.82
36.546,-17.08
36.562,-20.13
36.578,-23.42
36.593,-26.01
36.609,-26.48
36.625,-23.36
36.640,-15.39
36.656,-2.15
36.671,15.71
36.687,36.34
36.703,57.23
36.718,75.94
36.734,90.6
36.750,100.6
36.765,106.51
36.781,109.61
36.796,111.17
36.812,111.86
36.828,111.55
36.843,109.59
36.859,105.29
36.875,98.04
36.890,87.47
36.906,73.35
36.921,55.49
36.937,34.01
36.953,9.66
36.968,-15.9
36.984,-40.2
37.000,-60.42
37.015,-74.3
37.031,-80.88
37.046,-80.84
37.062,-76.33
37.078,-70.06
37.093,-64.43
37.109,-60.71
37.125,-59.03
37.140,-58.74
37.156,-59.08
37.171,-59.27
37.187,-58.91
37.203,-57.69
37.218,-55.24
37.234,-51.3
37.250,-45.71
37.265,-38.78
37.281,-31.37
37.296,-24.92
37.312,-20.54
37.328,-18.78
37.343,-19.05
37.359,-19.8
37.375,-19.23
37.390,-16.01
37.406,-9.94
37.421,-1.97
37.437,5.83
37.453,11.5
37.468,13.59
37.484,11.81
37.500,6.99
37.515,0.45
37.531,-6.71
37.546,-13.89
37.562,-20.89
37.578,-27.72
37.593,-34.14
37.609,-39.73
37.625,-44.11
37.640,-47.06
37.656,-48.74
37.671,-49.46
37.687,-49.43
37.703,-48.53
37.718,-46.54
37.734,-43.51
37.750,-39.93
37.765,-36.67
37.781,-34.51
37.796,-33.87
37.812,-34.43
37.828,-35.58
37.843,-36.66
37.859,-37.29
37.875,-37.57
37.890,-37.76
37.906,-38.01
37.921,-38.32
37.937,-38.63
37.953,-38.99
37.968,-39.62
37.984,-40.99
38.000,-43.39
38.015,-46.73
38.031,-50.64
38.046,-54.43
38.062,-57.34
38.078,-58.83
38.093,-58.71
38.109,-57.15
38.125,-54.75
38.140,-52.29
38.156,-50.38
38.171,-49.47
38.187,-49.56
38.203,-50.27
38.218,-50.82
38.234,-50.37
38.250,-48.15
38.265,-43.84
38.281,-37.67
38.296,-30.31
38.312,-22.66
38.328,-15.48
38.343,-9.33
38.359,-4.3
38.375,-0.17
38.390,3.45
38.406,7.09
38.421,11.18
38.437,15.85
38.453,20.87
38.468,25.89
38.484,30.35
38.500,33.85
38.515,36.27
38.531,37.72
38.546,38.42
38.562,38.53
38.578,38.18
38.593,37.4
38.609,36.36
38.625,35.31
38.640,34.37
38.656,33.5
38.671,32.4
38.687,30.7
38.703,28.2
38.718,25.08
38.734,21.79
38.750,19.01
38.765,17.08
38.781,15.89
38.796,14.88
38.812,13.31
38.828,10.73
38.843,7.05
38.859,2.65
38.875,-1.84
38.890,-5.67
38.906,-8.3
38.921,-9.41
38.937,-9.01
38.953,-7.42
38.968,-5.14
38.984,-2.77
39.000,-0.8
39.015,0.5
39.031,1.19
39.046,1.52
39.062,1.89
39.078,2.62
39.093,3.88
39.109,5.63
39.125,7.71
39.140,9.88
39.156,11.88
39.171,13.51
39.187,14.57
39.203,14.97
39.218,14.71
39.234,13.83
39.250,12.46
39.265,10.88
39.281,9.37
39.296,8.14
39.312,7.24
39.328,6.53
39.343,5.73
39.359,4.59
39.375,3.0
39.390,1.01
39.406,-1.18
39.421,-3.42
39.437,-5.69
39.453,-8.07
39.468,-10.62
39.484,-13.25
39.500,-15.88
39.515,-18.29
39.531,-20.42
39.546,-22.22
39.562,-23.67
39.578,-24.68
39.593,-25.03
39.609,-24.57
39.625,-23.16
39.640,-21.0
39.656,-18.42
39.671,-15.86
39.687,-13.6
39.703,-11.75
39.718,-10.31
39.734,-9.01
39.750,-7.68
39.765,-6.21
39.781,-4.56
39.796,-2.79
39.812,-0.97
39.828,0.72
39.843,2.15
39.859,3.1
39.875,3.6
39.890,3.67
39.906,3.45
39.921,3.12
39.937,2.73
39.953,2.32
39.968,1.82
39.984,1.27
40.000,0.61
40.015,-0.09
40.031,-0.9
40.046,-1.9
40.062,-3.09
40.078,-4.49
40.093,-6.02
40.109,-7.57
40.125,-9.08
40.140,-10.6
40.156,-12.05
40.171,-13.57
40.187,-15.22
40.203,-17.0
40.218,-19.01
40.234,-21.1
40.250,-22.92
40.265,-24.09
40.281,-24.3
40.296,-23.31
40.312,-21.25
40.328,-18.37
40.343,-14.98
40.359,-11.53
40.375,-8.24
40.390,-5.26
40.406,-2.66
40.421,-0.44
40.437,1.45
40.453,3.0
40.468,4.23
40.484,5.15
40.500,5.67
40.515,5.84
40.531,5.72
40.546,5.32
40.562,4.76
40.578,4.09
40.593,3.29
40.609,2.51
40.625,1.91
40.640,1.54
40.656,1.56
40.671,1.96
40.687,2.53
40.703,3.02
40.718,3.17
40.734,2.71
40.750,1.73
40.765,0.53
40.781,-0.58
40.796,-1.27
40.812,-1.52
40.828,-1.61
40.843,-1.8
40.859,-2.48
40.875,-3.87
40.890,-6.01
40.906,-8.67
40.921,-11.58
40.937,-14.31
40.953,-16.47
40.968,-17.83
40.984,-18.23
41.000,-17.73
41.015,-16.43
41.031,-14.52
41.046,-12.22
41.062,-9.73
41.078,-7.21
41.093,-4.78
41.109,-2.47
41.125,-0.24
41.140,1.91
41.156,3.92
41.171,5.56
41.187,6.7
41.203,7.18
41.218,7.09
41.234,6.58
41.250,5.75
41.265,4.62
41.281,3.03
41.296,0.9
41.312,-1.82
41.328,-4.85
41.343,-7.82
41.359,-10.43
41.375,-12.39
41.390,-13.76
41.406,-14.67
41.421,-15.34
41.437,-16.02
41.453,-16.88
41.468,-17.94
41.484,-19.1
41.500,-20.31
41.515,-21.35
41.531,-22.05
41.546,-22.41
41.562,-22.63
41.578,-23.11
41.593,-24.3
41.609,-26.42
41.625,-29.39
41.640,-32.74
41.656,-35.74
41.671,-37.79
41.687,-38.38
41.703,-37.35
41.718,-34.97
41.734,-31.73
41.750,-28.46
41.765,-25.93
41.781,-24.7
41.796,-24.65
41.812,-25.38
41.828,-26.17
41.843,-26.34
41.859,-25.6
41.875,-23.97
41.890,-21.79
41.906,-19.57
41.921,-17.84
41.937,-16.96
41.953,-17.32
41.968,-18.98
41.984,-21.52
42.000,-24.16
42.015,-25.95
42.031,-26.21
42.046,-24.88
42.062,-22.45
42.078,-19.64
42.093,-17.03
42.109,-14.69
42.125,-12.28
42.140,-9.57
42.156,-6.54
42.171,-3.62
42.187,-1.43
42.203,-0.17
42.218,0.41
42.234,1.02
42.250,2.48
42.265,5.24
42.281,9.06
42.296,13.34
42.312,17.49
42.328,21.27
42.343,24.94
42.359,28.88
42.375,33.23
42.390,37.89
42.406,42.43
42.421,46.45
42.437,49.92
42.453,52.98
42.468,55.84
42.484,58.55
42.500,60.88
42.515,62.39
42.531,62.93
42.546,62.63
42.562,61.92
42.578,61.31
42.593,61.05
42.609,61.17
42.625,61.51
42.640,61.85
42.656,61.97
42.671,61.78
42.687,61.17
42.703,60.22
42.718,59.11
42.734,58.08
42.750,57.41
42.765,57.23
42.781,57.44
42.796,57.62
42.812,57.37
42.828,56.28
42.843,54.18
42.859,51.17
42.875,47.52
42.890,43.58
42.906,39.68
42.921,35.94
42.937,32.35
42.953,28.74
42.968,24.96
42.984,20.71
43.000,15.77
43.015,9.8
43.031,2.54
43.046,-6.09
43.062,-15.64
43.078,-25.22
43.093,-33.9
43.109,-40.91
43.125,-45.88
43.140,-48.94
43.156,-50.41
43.171,-50.47
43.187,-49.22
43.203,-46.48
43.218,-42.22
43.234,-36.74
43.250,-30.57
43.265,-24.33
43.281,-18.55
43.296,-13.44
43.312,-9.03
43.328,-5.23
43.343,-1.87
43.359,1.05
43.375,3.37
43.390,4.87
43.406,5.42
43.421,5.05
43.437,4.1
43.453,3.01
43.468,2.2
43.484,1.91
43.500,2.09
43.515,2.48
43.531,2.83
43.546,3.0
43.562,3.02
43.578,3.1
43.593,3.42
43.609,4.03
43.625,4.8
43.640,5.55
43.656,5.92
43.671,5.72
43.687,4.73
43.703,2.88
43.718,0.29
43.734,-2.8
43.750,-6.03
43.765,-8.89
43.781,-10.97
43.796,-12.06
43.812,-12.14
43.828,-11.36
43.843,-9.92
43.859,-7.98
43.875,-5.65
43.890,-3.19
43.906,-0.77
43.921,1.34
43.937,2.99
43.953,4.12
43.968,4.88
43.984,5.43
44.000,5.96
44.015,6.58
44.031,7.17
44.046,7.65
44.062,7.89
44.078,7.92
44.093,7.68
44.109,7.24
44.125,6.59
44.140,5.8
44.156,5.03
44.171,4.46
44.187,4.22
44.203,4.18
44.218,4.21
44.234,4.01
44.250,3.41
44.265,2.38
44.281,1.06
44.296,-0.32
44.312,-1.62
44.328,-2.83
44.343,-4.09
44.359,-5.52
44.375,-7.14
44.390,-9.02
44.406,-11.04
44.421,-13.18
44.437,-15.18
44.453,-16.91
44.468,-18.17
44.484,-18.89
44.500,-19.11
44.515,-18.8
44.531,-18.09
44.546,-16.93
44.562,-15.39
44.578,-13.45
44.593,-11.27
44.609,-9.02
44.625,-6.88
44.640,-4.87
44.656,-2.91
44.671,-0.9
44.687,1.2
44.703,3.24
44.718,5.02
44.734,6.29
44.750,7.07
44.765,7.39
44.781,7.46
44.796,7.48
44.812,7.49
44.828,7.57
44.843,7.71
44.859,7.86
44.875,8.0
44.890,8.09
44.906,8.1
44.921,7.96
44.937,7.63
44.953,7.0
44.968,6.11
44.984,5.0
45.000,3.71
45.015,2.31
45.031,0.76
45.046,-0.98
45.062,-2.91
45.078,-4.96
45.093,-7.05
45.109,-8.97
45.125,-10.65
45.140,-12.06
45.156,-13.19
45.171,-14.16
45.187,-14.99
45.203,-15.65
45.218,-16.03
45.234,-16.09
45.250,-15.75
45.265,-15.06
45.281,-14.14
45.296,-13.02
45.312,-11.75
45.328,-10.32
45.343,-8.68
45.359,-6.74
45.375,-4.58
45.390,-2.35
45.406,-0.37
45.421,1.09
45.437,2.03
45.453,2.41
45.468,2.34
45.484,1.94
45.500,1.42
45.515,1.03
45.531,0.96
45.546,1.28
45.562,1.89
45.578,2.62
45.593,3.18
45.609,3.38
45.625,3.16
45.640,2.6
45.656,1.91
45.671,1.18
45.687,0.46
45.703,-0.42
45.718,-1.6
45.734,-3.19
45.750,-5.2
45.765,-7.66
45.781,-10.55
45.796,-13.74
45.812,-17.16
45.828,-20.58
45.843,-23.98
45.859,-27.24
45.875,-30.39
45.890,-33.36
45.906,-36.1
45.921,-38.54
45.937,-40.43
45.953,-41.66
45.968,-41.94
45.984,-41.05
46.000,-38.61
46.015,-34.29
46.031,-27.89
46.046,-19.44
46.062,-9.21
46.078,2.48
46.093,15.19
46.109,28.56
46.125,42.18
46.140,55.51
46.156,67.85
46.171,78.44
46.187,86.67
46.203,92.13
46.218,94.95
46.234,95.5
46.250,94.33
46.265,91.86
46.281,88.29
46.296,83.63
46.312,77.72
46.328,70.53
46.343,62.01
46.359,52.49
46.375,42.43
46.390,32.47
46.406,23.27
46.421,15.21
46.437,8.59
46.453,3.3
46.468,-0.66
46.484,-3.54
46.500,-5.49
46.515,-6.68
46.531,-7.36
46.546,-7.77
46.562,-8.22
46.578,-8.83
46.593,-9.63
46.609,-10.47
46.625,-11.21
46.640,-11.76
46.656,-12.3
46.671,-13.01
46.687,-14.08
46.703,-15.49
46.718,-17.11
46.734,-18.73
46.750,-20.22
46.765,-21.55
46.781,-22.8
46.796,-24.06
46.812,-25.47
46.828,-27.01
46.843,-28.69
46.859,-30.39
46.875,-31.99
46.890,-33.42
46.906,-34.48
46.921,-35.09
46.937,-35.13
46.953,-34.66
46.968,-33.8
46.984,-32.83
47.000,-32.02
47.015,-31.51
47.031,-31.33
47.046,-31.25
47.062,-30.83
47.078,-29.63
47.093,-27.32
47.109,-23.87
47.125,-19.59
47.140,-14.98
47.156,-10.41
47.171,-6.08
47.187,-2.08
47.203,1.61
47.218,4.87
47.234,7.53
47.250,9.47
47.265,10.65
47.281,11.2
47.296,11.43
47.312,11.6
47.328,11.81
47.343,11.95
47.359,11.71
47.375,10.84
47.390,9.33
47.406,7.42
47.421,5.44
47.437,3.75
47.453,2.4
47.468,1.25
47.484,0.08
47.500,-1.33
47.515,-2.94
47.531,-4.56
47.546,-6.0
47.562,-7.08
47.578,-7.72
47.593,-7.91
47.609,-7.59
47.625,-6.7
47.640,-5.27
47.656,-3.4
47.671,-1.24
47.687,0.91
47.703,2.89
47.718,4.64
47.734,6.24
47.750,7.74
47.765,9.17
47.781,10.41
47.796,11.33
47.812,11.88
47.828,12.08
47.843,12.1
47.859,12.2
47.875,12.55
47.890,13.13
47.906,13.9
47.921,14.67
47.937,15.36
47.953,16.0
47.968,16.52
47.984,16.86
48.000,16.93
48.015,16.59
48.031,15.77
48.046,14.51
48.062,12.93
48.078,11.24
48.093,9.61
48.109,8.11
48.125,6.74
48.140,5.49
48.156,4.29
48.171,3.11
48.187,1.99
48.203,0.86
48.218,-0.33
48.234,-1.66
48.250,-3.21
48.265,-5.07
48.281,-7.13
48.296,-9.29
48.312,-11.44
48.328,-13.36
48.343,-14.92
48.359,-16.0
48.375,-16.44
48.390,-16.08
48.406,-14.92
48.421,-12.99
48.437,-10.51
48.453,-7.72
48.468,-4.8
48.484,-1.9
48.500,0.8
48.515,3.19
48.531,5.28
48.546,6.99
48.562,8.33
48.578,9.3
48.593,9.99
48.609,10.39
48.625,10.57
48.640,10.61
48.656,10.62
48.671,10.64
48.687,10.76
48.703,10.9
48.718,11.0
48.734,11.04
48.750,11.01
48.765,10.84
48.781,10.54
48.796,10.03
48.812,9.2
48.828,8.02
48.843,6.59
48.859,5.05
48.875,3.59
48.890,2.39
48.906,1.4
48.921,0.56
48.937,-0.36
48.953,-1.51
48.968,-2.98
48.984,-4.59
49.000,-6.15
49.015,-7.58
49.031,-8.88
49.046,-10.27
49.062,-11.91
49.078,-13.9
49.093,-16.07
49.109,-18.12
49.125,-19.62
49.140,-20.19
49.156,-19.74
49.171,-18.33
49.187,-16.14
49.203,-13.5
49.218,-10.61
49.234,-7.58
49.250,-4.49
49.265,-1.49
49.281,1.28
49.296,3.66
49.312,5.54
49.328,6.89
49.343,7.78
49.359,8.38
49.375,8.85
49.390,9.37
49.406,9.86
49.421,10.34
49.437,10.68
49.453,10.86
49.468,10.83
49.484,10.54
49.500,10.16
49.515,9.77
49.531,9.53
49.546,9.38
49.562,9.35
49.578,9.29
49.593,9.11
49.609,8.72
49.625,7.95
49.640,6.82
49.656,5.22
49.671,3.19
49.687,0.87
49.703,-1.5
49.718,-3.65
49.734,-5.38
49.750,-6.65
49.765,-7.66
49.781,-8.7
49.796,-10.14
49.812,-12.19
49.828,-14.69
49.843,-17.3
49.859,-19.57
49.875,-21.22
49.890,-22.07
49.906,-22.25
49.921,-21.81
49.937,-20.91
49.953,-19.55
49.968,-17.72
49.984,-15.49
50.000,-12.88
50.015,-10.08
50.031,-7.15
50.046,-4.24
50.062,-1.44
50.078,1.24
50.093,3.77
50.109,6.11
50.125,8.09
50.140,9.66
50.156,10.72
50.171,11.4
50.187,11.94
50.203,12.58
50.218,13.52
50.234,14.78
50.250,16.08
50.265,16.98
50.281,17.12
50.296,16.35
50.312,14.73
50.328,12.54
50.343,10.1
50.359,7.69
50.375,5.46
50.390,3.39
50.406,1.41
50.421,-0.6
50.437,-2.59
50.453,-4.5
50.468,-6.32
50.484,-8.18
50.500,-10.25
50.515,-12.62
50.531,-15.42
50.546,-18.52
50.562,-21.8
50.578,-25.03
50.593,-27.93
50.609,-30.31
50.625,-32.03
50.640,-32.96
50.656,-32.95
50.671,-31.91
50.687,-29.68
50.703,-26.3
50.718,-22.14
50.734,-17.84
50.750,-14.45
50.765,-13.01
50.781,-14.25
50.796,-18.04
50.812,-23.2
50.828,-27.6
50.843,-28.76
50.859,-24.75
50.875,-14.78
50.890,0.31
50.906,18.25
50.921,35.86
50.937,50.21
50.953,59.59
50.968,64.07
50.984,65.1
51.000,64.55
51.015,63.87
51.031,63.6
51.046,63.31
51.062,61.88
51.078,57.43
51.093,48.08
51.109,32.45
51.125,10.83
51.140,-14.05
51.156,-36.85
51.171,-50.67
51.187,-49.36
51.203,-29.8
51.218,6.32
51.234,52.78
51.250,100.65
51.265,141.27
51.281,168.99
51.296,182.28
51.312,183.81
51.328,178.72
51.343,172.17
51.359,166.77
51.375,161.38
51.390,151.76
51.406,133.76
51.421,106.29
51.437,72.99
51.453,40.7
51.468,15.94
51.484,1.58
51.500,-4.43
51.515,-7.56
51.531,-13.37
51.546,-24.48
51.562,-40.26
51.578,-58.32
51.593,-76.22
51.609,-92.02
51.625,-103.17
51.640,-105.52
51.656,-94.29
51.671,-66.92
51.687,-26.07
51.703,19.45
51.718,57.26
51.734,76.54
51.750,72.35
51.765,46.88
51.781,7.78
51.796,-36.35
51.812,-79.52
51.828,-119.44
51.843,-156.62
51.859,-192.04
51.875,-225.53
51.890,-256.1
51.906,-282.75
51.921,-304.92
51.937,-322.22
51.953,-333.7
51.968,-337.36
51.984,-330.92
52.000,-312.46
52.015,-281.19
52.031,-238.07
52.046,-185.59
52.062,-127.71
52.078,-69.96
52.093,-19.21
52.109,17.33
52.125,34.01
52.140,29.41
52.156,7.92
52.171,-20.9
52.187,-45.22
52.203,-55.32
52.218,-47.32
52.234,-24.18
52.250,6.54
52.265,36.4
52.281,59.86
52.296,75.8
52.312,86.63
52.328,96.25
52.343,107.98
52.359,123.61
52.375,143.68
52.390,167.58
52.406,193.44
52.421,217.99
52.437,237.32
52.453,248.27
52.468,250.29
52.484,245.65
52.500,237.7
52.515,228.65
52.531,217.7
52.546,201.39
52.562,175.18
52.578,136.58
52.593,86.73
52.609,30.08
52.625,-27.44
52.640,-80.36
52.656,-124.43
52.671,-156.91
52.687,-175.77
52.703,-180.57
52.718,-173.19
52.734,-158.78
52.750,-144.47
52.765,-137.09
52.781,-139.98
52.796,-151.29
52.812,-164.32
52.828,-170.09
52.843,-161.32
52.859,-135.13
52.875,-94.48
52.890,-46.78
52.906,-1.41
52.921,33.47
52.937,53.11
52.953,57.32
52.968,50.1
52.984,38.21
53.000,28.93
53.015,27.85
53.031,37.49
53.046,57.27
53.062,84.08
53.078,113.57
53.093,141.32
53.109,163.49
53.125,176.79
53.140,178.62
53.156,167.8
53.171,145.02
53.187,113.84
53.203,79.98
53.218,50.27
53.234,30.39
53.250,23.36
53.265,28.93
53.281,43.84
53.296,62.9
53.312,79.97
53.328,89.13
53.343,85.18
53.359,64.81
53.375,27.61
53.390,-22.84
53.406,-78.67
53.421,-128.99
53.437,-162.99
53.453,-173.58
53.468,-160.25
53.484,-129.76
53.500,-94.06
53.515,-65.79
53.531,-53.42
53.546,-58.33
53.562,-74.49
53.578,-91.39
53.593,-98.87
53.609,-90.86
53.625,-67.33
53.640,-33.7
53.656,2.07
53.671,32.46
53.687,52.7
53.703,61.35
53.718,59.57
53.734,49.32
53.750,32.15
53.765,9.07
53.781,-19.24
53.796,-51.34
53.812,-84.89
53.828,-116.67
53.843,-142.98
53.859,-160.31
53.875,-166.16
53.890,-159.54
53.906,-140.94
53.921,-112.43
53.937,-76.94
53.953,-37.82
53.968,1.79
53.984,39.73
54.000,74.95
54.015,107.2
54.031,136.92
54.046,164.18
54.062,188.04
54.078,206.21
54.093,215.26
54.109,211.36
54.125,192.0
54.140,156.86
54.156,108.15
54.171,50.22
54.187,-12.12
54.203,-74.76
54.218,-134.63
54.234,-189.46
54.250,-237.13
54.265,-274.8
54.281,-299.51
54.296,-309.05
54.312,-302.93
54.328,-283.18
54.343,-254.07
54.359,-220.42
54.375,-186.06
54.390,-152.91
54.406,-120.52
54.421,-87.42
54.437,-52.93
54.453,-18.93
54.468,9.4
54.484,25.22
54.500,23.25
54.515,3.12
54.531,-29.15
54.546,-62.81
54.562,-86.67
54.578,-93.58
54.593,-83.01
54.609,-60.81
54.625,-35.76
54.640,-15.27
54.656,-2.68
54.671,3.3
54.687,6.71
54.703,11.55
54.718,20.18
54.734,33.11
54.750,49.53
54.765,68.01
54.781,86.95
54.796,104.05
54.812,116.74
54.828,122.85
54.843,121.08
54.859,111.93
54.875,97.77
54.890,82.03
54.906,67.97
54.921,57.87
54.937,52.22
54.953,50.21
54.968,50.44
54.984,51.56
55.000,52.71
55.015,53.57
55.031,54.26
55.046,55.12
55.062,56.82
55.078,59.7
55.093,63.98
55.109,69.17
55.125,74.12
55.140,77.24
55.156,77.2
55.171,73.6
55.187,67.22
55.203,59.83
55.218,53.51
55.234,50.43
55.250,52.32
55.265,60.38
55.281,74.87
55.296,94.52
55.312,116.0
55.328,133.99
55.343,141.98
55.359,134.02
55.375,107.11
55.390,62.48
55.406,5.93
55.421,-53.55
55.437,-106.27
55.453,-144.49
55.468,-164.4
55.484,-166.69
55.500,-155.89
55.515,-138.23
55.531,-119.48
55.546,-103.23
55.562,-90.07
55.578,-78.24
55.593,-65.01
55.609,-48.67
55.625,-29.47
55.640,-9.97
55.656,5.94
55.671,14.74
55.687,14.72
55.703,6.38
55.718,-7.87
55.734,-24.93
55.750,-42.13
55.765,-57.3
55.781,-68.3
55.796,-72.65
55.812,-67.91
55.828,-52.46
55.843,-26.93
55.859,5.78
55.875,40.98
55.890,73.58
55.906,99.84
55.921,118.28
55.937,129.81
55.953,137.03
55.968,143.31
55.984,151.85
56.000,165.74
56.015,186.66
56.031,214.14
56.046,245.12
56.062,274.26
56.078,295.43
56.093,303.41
56.109,295.53
56.125,272.32
56.140,239.17
56.156,203.18
56.171,170.64
56.187,145.0
56.203,126.15
56.218,111.41
56.234,96.74
56.250,78.62
56.265,54.93
56.281,29.09
56.296,5.92
56.312,-10.59
56.328,-18.88
56.343,-19.83
56.359,-14.64
56.375,-3.42
56.390,15.64
56.406,45.41
56.421,93.8
56.437,164.89
56.453,256.52
56.468,359.27
56.484,460.19
56.500,548.0
56.515,616.32
56.531,664.06
56.546,693.05
56.562,713.73
56.578,734.36
56.593,759.64
56.609,789.97
56.625,824.23
56.640,862.22
56.656,904.61
56.671,950.81
56.687,946.15
56.703,853.39
56.718,662.29
56.734,399.18
56.750,111.18
56.765,-157.83
56.781,-382.55
56.796,-556.08
56.812,-683.03
56.828,-772.52
56.843,-823.18
56.859,-838.5
56.875,-821.9
56.890,-780.48
56.906,-723.86
56.921,-661.86
56.937,-601.31
56.953,-545.6
56.968,-496.17
56.984,-447.19
57.000,-395.45
57.015,-341.1
57.031,-289.05
57.046,-245.77
57.062,-216.05
57.078,-200.33
57.093,-195.57
57.109,-198.21
57.125,-201.27
57.140,-199.91
57.156,-191.23
57.171,-175.6
57.187,-155.0
57.203,-132.93
57.218,-112.88
57.234,-97.77
57.250,-90.68
57.265,-91.22
57.281,-97.24
57.296,-104.99
57.312,-111.65
57.328,-115.54
57.343,-118.4
57.359,-123.78
57.375,-135.7
57.390,-158.4
57.406,-192.54
57.421,-234.89
57.437,-278.5
57.453,-315.69
57.468,-339.72
57.484,-349.4
57.500,-347.67
57.515,-330.47
57.531,-296.47
57.546,-246.43
57.562,-183.95
57.578,-114.58
57.593,-51.12
57.609,4.09
57.625,50.24
57.640,86.76
57.656,114.13
57.671,133.45
57.687,145.95
57.703,153.2
57.718,157.08
57.734,159.57
57.750,163.93
57.765,172.01
57.781,184.97
57.796,203.02
57.812,223.34
57.828,241.17
57.843,251.01
57.859,249.11
57.875,235.1
57.890,213.42
57.906,189.74
57.921,169.1
57.937,154.0
57.953,142.43
57.968,129.79
57.984,110.95
58.000,82.85
58.015,45.33
58.031,1.11
58.046,-46.49
58.062,-94.35
58.078,-139.65
58.093,-180.25
58.109,-214.06
58.125,-239.17
58.140,-254.11
58.156,-258.49
58.171,-253.2
58.187,-240.86
58.203,-224.86
58.218,-208.47
58.234,-194.45
58.250,-183.99
58.265,-176.95
58.281,-172.1
58.296,-167.81
58.312,-162.59
58.328,-155.59
58.343,-146.79
58.359,-136.51
58.375,-125.51
58.390,-114.41
58.406,-103.58
58.421,-93.05
58.437,-82.69
58.453,-72.57
58.468,-62.83
58.484,-53.85
58.500,-45.96
58.515,-39.16
58.531,-32.96
58.546,-26.7
58.562,-19.75
58.578,-11.92
58.593,-3.45
58.609,5.26
58.625,13.84
58.640,22.03
58.656,29.78
58.671,37.12
58.687,43.97
58.703,50.11
58.718,55.27
58.734,59.19
58.750,61.7
58.765,62.65
58.781,62.04
58.796,59.91
58.812,56.49
58.828,52.22
58.843,47.46
58.859,42.7
58.875,38.37
58.890,34.82
58.906,32.23
58.921,30.66
58.937,29.98
58.953,29.88
58.968,30.0
58.984,29.97
59.000,29.52
59.015,28.52
59.031,26.99
59.046,25.07
59.062,22.86
59.078,20.39
59.093,17.61
59.109,14.44
59.125,10.8
59.140,6.67
59.156,2.05
59.171,-2.91
59.187,-7.99
59.203,-12.74
59.218,-16.69
59.234,-19.36
59.250,-20.45
59.265,-19.97
59.281,-18.17
59.296,-15.49
59.312,-12.36
59.328,-9.06
59.343,-5.69
59.359,-2.29
59.375,1.13
59.390,4.5
59.406,7.74
59.421,10.75
59.437,13.43
59.453,15.74
59.468,17.57
59.484,18.81
59.500,19.36
59.515,19.25
59.531,18.58
59.546,17.65
59.562,16.8
59.578,16.34
59.593,16.5
59.609,17.24
59.625,18.36
59.640,19.6
59.656,20.54
59.671,20.92
59.687,20.55
59.703,19.41
59.718,17.66
59.734,15.55
59.750,13.35
59.765,11.22
59.781,9.19
59.796,7.05
59.812,4.61
59.828,1.71
59.843,-1.67
59.859,-5.41
59.875,-9.31
59.890,-13.08
59.906,-16.36
59.921,-18.84
59.937,-20.35
59.953,-20.67
59.968,-19.67
59.984,-17.29
