timestamp,value
00.000,8.64
00.015,24.69
00.031,35.72
00.046,42.11
00.062,44.86
00.078,45.15
00.093,43.72
00.109,40.85
00.125,36.43
00.140,30.63
00.156,23.91
00.171,17.17
00.187,11.26
00.203,6.62
00.218,3.03
00.234,-0.3
00.250,-4.26
00.265,-9.62
00.281,-16.62
00.296,-24.97
00.312,-33.84
00.328,-42.32
00.343,-49.42
00.359,-54.28
00.375,-56.58
00.390,-56.41
00.406,-54.52
00.421,-52.42
00.437,-51.8
00.453,-53.77
00.468,-58.34
00.484,-63.86
00.500,-67.44
00.515,-66.28
00.531,-58.71
00.546,-44.85
00.562,-26.76
00.578,-7.45
00.593,10.25
00.609,24.37
00.625,34.1
00.640,39.52
00.656,40.99
00.671,38.92
00.687,33.87
00.703,26.6
00.718,18.19
00.734,10.12
00.750,3.95
00.765,0.97
00.781,1.92
00.796,6.85
00.812,15.05
00.828,25.47
00.843,36.79
00.859,47.89
00.875,57.91
00.890,66.3
00.906,72.74
00.921,77.09
00.937,79.1
00.953,78.62
00.968,75.61
00.984,70.29
01.000,63.2
01.015,55.16
01.031,47.01
01.046,39.34
01.062,32.51
01.078,26.59
01.093,21.58
01.109,17.3
01.125,13.68
01.140,10.57
01.156,7.74
01.171,4.84
01.187,1.51
01.203,-2.65
01.218,-7.83
01.234,-13.9
01.250,-20.52
01.265,-27.08
01.281,-32.96
01.296,-37.57
01.312,-40.61
01.328,-42.11
01.343,-42.38
01.359,-42.0
01.375,-41.57
01.390,-41.53
01.406,-42.13
01.421,-43.43
01.437,-45.17
01.453,-47.14
01.468,-49.36
01.484,-52.06
01.500,-55.69
01.515,-60.58
01.531,-66.77
01.546,-73.95
01.562,-81.66
01.578,-89.2
01.593,-95.93
01.609,-101.36
01.625,-105.32
01.640,-107.95
01.656,-109.43
01.671,-110.12
01.687,-110.04
01.703,-109.2
01.718,-107.36
01.734,-104.2
01.750,-99.16
01.765,-91.78
01.781,-81.79
01.796,-69.13
01.812,-54.17
01.828,-37.4
01.843,-19.51
01.859,-0.95
01.875,17.8
01.890,36.52
01.906,55.07
01.921,72.99
01.937,89.62
01.953,103.92
01.968,114.88
01.984,121.53
02.000,123.38
02.015,120.31
02.031,112.69
02.046,101.35
02.062,87.43
02.078,72.33
02.093,57.47
02.109,44.43
02.125,34.49
02.140,28.34
02.156,26.1
02.171,26.92
02.187,29.37
02.203,31.74
02.218,32.67
02.234,31.39
02.250,28.07
02.265,23.68
02.281,19.33
02.296,16.11
02.312,14.32
02.328,13.61
02.343,12.92
02.359,11.31
02.375,8.31
02.390,4.2
02.406,-0.03
02.421,-2.96
02.437,-3.2
02.453,0.29
02.468,7.96
02.484,19.26
02.500,32.99
02.515,47.04
02.531,58.94
02.546,65.95
02.562,65.89
02.578,57.83
02.593,42.45
02.609,22.2
02.625,0.54
02.640,-18.83
02.656,-33.04
02.671,-40.43
02.687,-40.65
02.703,-34.53
02.718,-23.49
02.734,-9.37
02.750,5.75
02.765,19.79
02.781,30.91
02.796,37.67
02.812,39.56
02.828,37.18
02.843,32.01
02.859,26.11
02.875,21.5
02.890,19.61
02.906,20.94
02.921,25.16
02.937,31.24
02.953,37.96
02.968,44.35
02.984,49.69
03.000,53.73
03.015,56.19
03.031,57.1
03.046,56.37
03.062,54.08
03.078,50.38
03.093,45.5
03.109,39.79
03.125,33.59
03.140,27.34
03.156,21.17
03.171,15.23
03.187,9.56
03.203,4.29
03.218,-0.43
03.234,-4.27
03.250,-6.9
03.265,-8.3
03.281,-8.59
03.296,-8.2
03.312,-7.6
03.328,-7.18
03.343,-7.18
03.359,-7.82
03.375,-9.12
03.390,-10.81
03.406,-12.53
03.421,-13.93
03.437,-14.63
03.453,-14.57
03.468,-13.94
03.484,-13.2
03.500,-12.84
03.515,-13.35
03.531,-14.88
03.546,-17.28
03.562,-20.17
03.578,-22.83
03.593,-24.43
03.609,-24.37
03.625,-22.37
03.640,-18.58
03.656,-13.7
03.671,-8.58
03.687,-4.09
03.703,-0.56
03.718,2.06
03.734,4.21
03.750,6.4
03.765,9.05
03.781,12.17
03.796,15.47
03.812,18.43
03.828,20.32
03.843,20.77
03.859,19.52
03.875,16.59
03.890,12.26
03.906,7.13
03.921,1.56
03.937,-4.14
03.953,-9.87
03.968,-15.78
03.984,-21.82
04.000,-27.87
04.015,-33.79
04.031,-39.53
04.046,-44.88
04.062,-49.94
04.078,-54.58
04.093,-58.3
04.109,-60.65
04.125,-60.88
04.140,-58.8
04.156,-54.68
04.171,-49.41
04.187,-44.08
04.203,-39.69
04.218,-36.63
04.234,-34.43
04.250,-32.36
04.265,-29.35
04.281,-24.93
04.296,-19.19
04.312,-12.64
04.328,-6.19
04.343,-0.39
04.359,4.63
04.375,9.24
04.390,13.86
04.406,18.91
04.421,24.23
04.437,29.21
04.453,33.14
04.468,35.2
04.484,34.9
04.500,32.24
04.515,27.71
04.531,21.89
04.546,15.63
04.562,9.43
04.578,3.43
04.593,-2.41
04.609,-8.43
04.625,-14.97
04.640,-22.17
04.656,-29.92
04.671,-37.94
04.687,-45.49
04.703,-51.89
04.718,-56.51
04.734,-58.82
04.750,-58.78
04.765,-56.51
04.781,-52.3
04.796,-46.66
04.812,-40.11
04.828,-33.04
04.843,-25.88
04.859,-18.97
04.875,-12.42
04.890,-6.29
04.906,-0.59
04.921,4.71
04.937,9.41
04.953,13.27
04.968,16.12
04.984,17.83
05.000,18.43
05.015,18.12
05.031,17.07
05.046,15.42
05.062,13.34
05.078,10.87
05.093,8.11
05.109,5.22
05.125,2.14
05.140,-1.11
05.156,-4.57
05.171,-8.31
05.187,-12.14
05.203,-15.95
05.218,-19.46
05.234,-22.62
05.250,-25.27
05.265,-27.54
05.281,-29.41
05.296,-31.01
05.312,-32.5
05.328,-33.86
05.343,-35.16
05.359,-36.29
05.375,-37.16
05.390,-37.52
05.406,-37.23
05.421,-36.14
05.437,-34.35
05.453,-32.05
05.468,-29.31
05.484,-26.22
05.500,-22.68
05.515,-18.53
05.531,-13.69
05.546,-8.31
05.562,-2.79
05.578,2.16
05.593,5.71
05.609,7.35
05.625,6.78
05.640,4.23
05.656,0.26
05.671,-4.53
05.687,-9.54
05.703,-14.49
05.718,-19.28
05.734,-23.99
05.750,-28.57
05.765,-33.04
05.781,-37.1
05.796,-40.67
05.812,-43.99
05.828,-47.56
05.843,-52.19
05.859,-58.75
05.875,-67.6
05.890,-78.33
05.906,-89.92
05.921,-100.68
05.937,-108.95
05.953,-113.72
05.968,-114.8
05.984,-112.92
06.000,-109.48
06.015,-105.67
06.031,-102.14
06.046,-98.66
06.062,-94.31
06.078,-87.73
06.093,-77.62
06.109,-62.81
06.125,-42.81
06.140,-18.1
06.156,10.15
06.171,39.67
06.187,67.79
06.203,92.1
06.218,111.2
06.234,125.26
06.250,136.27
06.265,147.18
06.281,160.6
06.296,177.74
06.312,197.45
06.328,216.76
06.343,232.32
06.359,241.69
06.375,244.14
06.390,240.64
06.406,232.7
06.421,221.16
06.437,206.16
06.453,187.34
06.468,164.8
06.484,139.78
06.500,114.53
06.515,91.38
06.531,72.1
06.546,57.39
06.562,46.88
06.578,39.79
06.593,35.3
06.609,32.84
06.625,31.87
06.640,31.42
06.656,30.18
06.671,26.92
06.687,20.84
06.703,12.05
06.718,1.76
06.734,-8.33
06.750,-16.58
06.765,-22.03
06.781,-24.93
06.796,-26.51
06.812,-28.24
06.828,-31.4
06.843,-36.66
06.859,-44.01
06.875,-53.24
06.890,-64.11
06.906,-76.49
06.921,-90.32
06.937,-105.45
06.953,-121.41
06.968,-137.35
06.984,-152.41
07.000,-166.05
07.015,-178.56
07.031,-190.9
07.046,-204.41
07.062,-219.99
07.078,-237.94
07.093,-257.59
07.109,-277.67
07.125,-296.39
07.140,-311.75
07.156,-321.88
07.171,-324.93
07.187,-319.7
07.203,-305.89
07.218,-284.56
07.234,-257.67
07.250,-227.82
07.265,-197.38
07.281,-167.81
07.296,-139.8
07.312,-113.48
07.328,-88.85
07.343,-66.1
07.359,-45.37
07.375,-26.31
07.390,-8.31
07.406,9.23
07.421,26.4
07.437,42.62
07.453,56.78
07.468,68.15
07.484,76.82
07.500,83.67
07.515,89.93
07.531,96.36
07.546,102.53
07.562,107.12
07.578,108.56
07.593,105.81
07.609,98.86
07.625,88.93
07.640,77.74
07.656,66.86
07.671,57.3
07.687,49.51
07.703,43.7
07.718,40.14
07.734,39.49
07.750,42.54
07.765,49.72
07.781,60.7
07.796,74.21
07.812,88.25
07.828,100.85
07.843,110.55
07.859,116.56
07.875,118.97
07.890,118.52
07.906,116.18
07.921,112.81
07.937,109.03
07.953,104.99
07.968,100.7
07.984,96.44
08.000,92.64
08.015,89.87
08.031,88.62
08.046,88.72
08.062,89.34
08.078,89.45
08.093,88.09
08.109,84.79
08.125,79.98
08.140,74.86
08.156,70.97
08.171,69.61
08.187,71.27
08.203,75.34
08.218,80.45
08.234,84.91
08.250,87.44
08.265,87.83
08.281,87.05
08.296,86.88
08.312,89.09
08.328,94.86
08.343,104.33
08.359,116.51
08.375,128.95
08.390,137.92
08.406,138.5
08.421,125.83
08.437,96.86
08.453,51.94
08.468,-4.48
08.484,-64.95
08.500,-121.4
08.515,-167.8
08.531,-201.15
08.546,-221.66
08.562,-231.28
08.578,-232.37
08.593,-227.04
08.609,-217.53
08.625,-206.64
08.640,-197.54
08.656,-192.91
08.671,-193.5
08.687,-197.88
08.703,-203.09
08.718,-205.94
08.734,-204.5
08.750,-197.92
08.765,-186.25
08.781,-169.69
08.796,-147.91
08.812,-119.66
08.828,-84.64
08.843,-44.03
08.859,-0.53
08.875,41.79
08.890,80.24
08.906,113.74
08.921,142.86
08.937,169.4
08.953,196.55
08.968,225.57
08.984,255.15
09.000,282.23
09.015,302.59
09.031,315.9
09.046,325.1
09.062,334.78
09.078,349.2
09.093,372.53
09.109,404.46
09.125,440.4
09.140,473.46
09.156,495.6
09.171,504.6
09.187,502.49
09.203,493.17
09.218,480.51
09.234,468.57
09.250,456.5
09.265,439.16
09.281,409.5
09.296,360.16
09.312,292.77
09.328,215.21
09.343,138.07
09.359,49.52
09.375,-53.83
09.390,-167.84
09.406,-280.46
09.421,-358.69
09.437,-397.56
09.453,-401.05
09.468,-375.54
09.484,-335.74
09.500,-292.28
09.515,-250.04
09.531,-211.54
09.546,-177.74
09.562,-148.99
09.578,-128.66
09.593,-117.13
09.609,-113.63
09.625,-117.01
09.640,-124.24
09.656,-129.16
09.671,-126.74
09.687,-115.14
09.703,-96.57
09.718,-77.78
09.734,-62.91
09.750,-53.22
09.765,-47.21
09.781,-41.11
09.796,-30.37
09.812,-13.41
09.828,7.42
09.843,26.46
09.859,36.6
09.875,34.83
09.890,22.42
09.906,3.87
09.921,-14.65
09.937,-27.75
09.953,-33.13
09.968,-32.03
09.984,-28.42
10.000,-27.29
10.015,-31.49
10.031,-41.32
10.046,-54.68
10.062,-67.45
10.078,-74.72
10.093,-72.27
10.109,-57.88
10.125,-32.21
10.140,1.07
10.156,37.06
10.171,69.78
10.187,94.25
10.203,107.83
10.218,111.34
10.234,108.89
10.250,105.8
10.265,106.9
10.281,114.72
10.296,129.03
10.312,146.28
10.328,161.69
10.343,170.66
10.359,170.47
10.375,160.51
10.390,140.25
10.406,108.65
10.421,64.93
10.437,9.68
10.453,-54.37
10.468,-121.67
10.484,-185.7
10.500,-240.59
10.515,-279.62
10.531,-298.86
10.546,-299.49
10.562,-286.66
10.578,-266.19
10.593,-241.53
10.609,-212.85
10.625,-179.61
10.640,-142.41
10.656,-103.32
10.671,-65.75
10.687,-32.67
10.703,-4.72
10.718,19.53
10.734,42.53
10.750,67.72
10.765,95.3
10.781,122.41
10.796,143.93
10.812,153.58
10.828,145.61
10.843,117.21
10.859,69.79
10.875,8.78
10.890,-56.41
10.906,-115.68
10.921,-160.07
10.937,-185.1
10.953,-191.76
10.968,-186.68
10.984,-180.42
11.000,-179.99
11.015,-191.8
11.031,-213.39
11.046,-237.59
11.062,-252.58
11.078,-248.23
11.093,-220.74
11.109,-174.56
11.125,-119.84
11.140,-66.81
11.156,-22.74
11.171,10.17
11.187,32.11
11.203,44.27
11.218,46.11
11.234,36.88
11.250,16.88
11.265,-8.9
11.281,-31.19
11.296,-39.56
11.312,-25.34
11.328,12.64
11.343,67.3
11.359,126.04
11.375,177.92
11.390,216.45
11.406,240.89
11.421,253.72
11.437,255.44
11.453,244.5
11.468,219.64
11.484,185.83
11.500,148.79
11.515,119.63
11.531,108.54
11.546,118.95
11.562,146.51
11.578,181.02
11.593,212.06
11.609,232.53
11.625,240.28
11.640,235.57
11.656,220.02
11.671,192.86
11.687,154.02
11.703,106.72
11.718,58.05
11.734,17.5
11.750,-8.03
11.765,-15.78
11.781,-8.33
11.796,8.62
11.812,25.13
11.828,34.16
11.843,33.82
11.859,25.95
11.875,14.2
11.890,1.14
11.906,-12.3
11.921,-26.89
11.937,-39.51
11.953,-54.12
11.968,-74.02
11.984,-99.35
12.000,-127.3
12.015,-154.81
12.031,-180.27
12.046,-203.7
12.062,-225.65
12.078,-246.95
12.093,-275.12
12.109,-315.69
12.125,-369.61
12.140,-432.53
12.156,-497.81
12.171,-559.74
12.187,-614.22
12.203,-657.86
12.218,-656.06
12.234,-590.51
12.250,-465.53
12.265,-307.36
12.281,-145.66
12.296,0.41
12.312,123.48
12.328,223.04
12.343,300.52
12.359,363.9
12.375,410.63
12.390,436.74
12.406,441.21
12.421,428.24
12.437,404.26
12.453,373.75
12.468,334.82
12.484,284.32
12.500,225.61
12.515,161.11
12.531,95.59
12.546,34.67
12.562,-16.05
12.578,-52.15
12.593,-73.63
12.609,-83.73
12.625,-86.79
12.640,-86.73
12.656,-90.7
12.671,-103.3
12.687,-124.19
12.703,-153.99
12.718,-183.95
12.734,-207.38
12.750,-220.43
12.765,-221.35
12.781,-209.36
12.796,-188.02
12.812,-161.77
12.828,-133.88
12.843,-105.56
12.859,-75.36
12.875,-41.82
12.890,-2.98
12.906,42.93
12.921,99.08
12.937,162.4
12.953,221.35
12.968,261.64
12.984,273.48
13.000,257.05
13.015,220.19
13.031,174.05
13.046,128.39
13.062,88.78
13.078,55.94
13.093,28.81
13.109,6.64
13.125,-10.18
13.140,-20.49
13.156,-24.58
13.171,-24.33
13.187,-22.72
13.203,-22.88
13.218,-27.67
13.234,-37.71
13.250,-51.54
13.265,-66.37
13.281,-79.37
13.296,-89.05
13.312,-95.47
13.328,-99.72
13.343,-103.04
13.359,-106.42
13.375,-110.82
13.390,-114.65
13.406,-115.72
13.421,-112.42
13.437,-104.47
13.453,-92.96
13.468,-79.77
13.484,-67.03
13.500,-56.54
13.515,-49.09
13.531,-44.41
13.546,-41.24
13.562,-38.46
13.578,-35.51
13.593,-32.66
13.609,-30.78
13.625,-31.05
13.640,-34.37
13.656,-40.9
13.671,-49.88
13.687,-59.63
13.703,-68.61
13.718,-75.97
13.734,-81.58
13.750,-85.93
13.765,-89.72
13.781,-93.11
13.796,-95.04
13.812,-95.75
13.828,-93.38
13.843,-85.88
13.859,-72.19
13.875,-52.82
13.890,-29.71
13.906,-5.41
13.921,17.73
13.937,38.25
13.953,56.17
13.968,72.97
13.984,90.76
14.000,111.83
14.015,138.13
14.031,170.35
14.046,206.61
14.062,241.93
14.078,269.01
14.093,280.97
14.109,275.04
14.125,254.41
14.140,227.78
14.156,206.48
14.171,199.82
14.187,211.93
14.203,241.31
14.218,281.89
14.234,325.51
14.250,364.01
14.265,390.24
14.281,398.86
14.296,387.32
14.312,356.47
14.328,310.52
14.343,256.1
14.359,199.83
14.375,145.95
14.390,95.55
14.406,47.62
14.421,1.05
14.437,-44.43
14.453,-87.7
14.468,-127.13
14.484,-161.06
14.500,-188.14
14.515,-206.79
14.531,-215.1
14.546,-211.62
14.562,-196.34
14.578,-171.86
14.593,-143.35
14.609,-117.81
14.625,-101.79
14.640,-99.58
14.656,-110.95
14.671,-130.38
14.687,-148.55
14.703,-155.42
14.718,-144.21
14.734,-113.85
14.750,-69.71
14.765,-21.23
14.781,21.34
14.796,50.53
14.812,63.52
14.828,61.54
14.843,48.49
14.859,28.4
14.875,4.34
14.890,-21.73
14.906,-48.61
14.921,-74.9
14.937,-98.26
14.953,-115.08
14.968,-121.31
14.984,-113.43
15.000,-90.53
15.015,-55.19
15.031,-13.05
15.046,28.75
15.062,64.26
15.078,90.16
15.093,106.44
15.109,114.64
15.125,116.34
15.140,111.88
15.156,100.57
15.171,82.18
15.187,58.35
15.203,33.03
15.218,11.17
15.234,-3.03
15.250,-8.13
15.265,-5.73
15.281,0.27
15.296,5.21
15.312,5.71
15.328,0.23
15.343,-10.62
15.359,-24.71
15.375,-39.23
15.390,-51.15
15.406,-57.46
15.421,-55.49
15.437,-43.73
15.453,-21.96
15.468,7.91
15.484,42.27
15.500,76.76
15.515,108.18
15.531,135.88
15.546,162.27
15.562,191.26
15.578,224.84
15.593,261.19
15.609,293.38
15.625,311.23
15.640,305.38
15.656,271.8
15.671,213.98
15.687,142.09
15.703,69.63
15.718,6.92
15.734,-40.45
15.750,-72.88
15.765,-94.15
15.781,-108.74
15.796,-119.53
15.812,-127.81
15.828,-135.16
15.843,-143.5
15.859,-156.91
15.875,-177.52
15.890,-204.41
15.906,-232.53
15.921,-256.04
15.937,-271.64
15.953,-281.07
15.968,-290.68
15.984,-307.16
16.000,-335.75
16.015,-365.14
16.031,-377.99
16.046,-357.02
16.062,-297.25
16.078,-209.41
16.093,-113.22
16.109,-32.1
16.125,30.26
16.140,75.12
16.156,104.88
16.171,119.32
16.187,116.73
16.203,94.57
16.218,53.12
16.234,-3.25
16.250,-66.99
16.265,-123.98
16.281,-161.79
16.296,-171.96
16.312,-154.04
16.328,-114.5
16.343,-64.39
16.359,-13.3
16.375,33.22
16.390,73.06
16.406,108.26
16.421,140.12
16.437,169.45
16.453,195.37
16.468,219.07
16.484,237.54
16.500,247.72
16.515,247.81
16.531,237.15
16.546,216.69
16.562,186.35
16.578,146.1
16.593,93.48
16.609,34.87
16.625,-20.34
16.640,-62.17
16.656,-83.87
16.671,-84.69
16.687,-69.52
16.703,-47.69
16.718,-28.39
16.734,-16.86
16.750,-13.3
16.765,-15.51
16.781,-20.4
16.796,-25.76
16.812,-31.35
16.828,-37.37
16.843,-44.2
16.859,-51.5
16.875,-57.8
16.890,-61.61
16.906,-63.33
16.921,-64.53
16.937,-67.03
16.953,-72.52
16.968,-81.18
16.984,-92.0
17.000,-103.36
17.015,-113.55
17.031,-121.05
17.046,-125.79
17.062,-128.84
17.078,-130.38
17.093,-130.56
17.109,-128.7
17.125,-123.51
17.140,-113.59
17.156,-98.0
17.171,-76.72
17.187,-51.4
17.203,-24.11
17.218,2.6
17.234,25.93
17.250,43.63
17.265,54.21
17.281,57.04
17.296,52.2
17.312,39.9
17.328,20.32
17.343,-5.46
17.359,-36.08
17.375,-69.83
17.390,-104.65
17.406,-138.57
17.421,-169.78
17.437,-196.24
17.453,-216.5
17.468,-229.77
17.484,-234.98
17.500,-232.03
17.515,-221.8
17.531,-205.38
17.546,-184.55
17.562,-161.24
17.578,-136.95
17.593,-112.16
17.609,-90.9
17.625,-75.61
17.640,-68.14
17.656,-69.65
17.671,-79.92
17.687,-97.5
17.703,-119.38
17.718,-141.4
17.734,-158.57
17.750,-165.99
17.765,-159.52
17.781,-137.47
17.796,-100.69
17.812,-52.23
17.828,3.19
17.843,60.34
17.859,114.26
17.875,160.97
17.890,197.98
17.906,224.18
17.921,238.39
17.937,239.56
17.953,227.2
17.968,201.95
17.984,166.27
18.000,124.19
18.015,80.49
18.031,39.83
18.046,6.33
18.062,-16.86
18.078,-28.04
18.093,-26.65
18.109,-14.19
18.125,5.48
18.140,26.68
18.156,43.76
18.171,53.48
18.187,57.32
18.203,61.55
18.218,73.99
18.234,100.3
18.250,140.71
18.265,189.78
18.281,239.13
18.296,281.21
18.312,312.11
18.328,331.84
18.343,342.41
18.359,345.07
18.375,339.39
18.390,324.15
18.406,299.35
18.421,267.76
18.437,234.05
18.453,203.41
18.468,180.02
18.484,165.79
18.500,160.4
18.515,161.93
18.531,167.61
18.546,174.32
18.562,179.31
18.578,180.36
18.593,176.43
18.609,167.89
18.625,155.94
18.640,141.85
18.656,126.45
18.671,109.91
18.687,92.24
18.703,74.48
18.718,59.06
18.734,49.77
18.750,50.71
18.765,64.38
18.781,90.29
18.796,124.32
18.812,159.75
18.828,188.83
18.843,205.18
18.859,205.55
18.875,190.71
18.890,165.06
18.906,134.64
18.921,105.09
18.937,79.17
18.953,56.25
18.968,33.29
18.984,7.16
19.000,-23.1
19.015,-55.52
19.031,-85.61
19.046,-108.32
19.062,-119.61
19.078,-118.08
19.093,-105.0
19.109,-83.7
19.125,-58.27
19.140,-32.39
19.156,-9.44
19.171,7.66
19.187,16.27
19.203,14.82
19.218,2.85
19.234,-18.5
19.250,-46.41
19.265,-76.68
19.281,-104.69
19.296,-127.58
19.312,-145.42
19.328,-160.4
19.343,-174.37
19.359,-186.6
19.375,-192.1
19.390,-182.91
19.406,-151.29
19.421,-93.79
19.437,-14.82
19.453,73.14
19.468,153.05
19.484,209.41
19.500,233.62
19.515,226.69
19.531,197.67
19.546,159.85
19.562,125.92
19.578,103.26
19.593,92.7
19.609,89.61
19.625,86.81
19.640,77.75
19.656,58.87
19.671,28.71
19.687,-11.61
19.703,-57.74
19.718,-102.52
19.734,-137.22
19.750,-154.59
19.765,-151.75
19.781,-132.42
19.796,-104.69
19.812,-82.71
19.828,-77.9
19.843,-92.75
19.859,-118.46
19.875,-140.28
19.890,-147.64
19.906,-138.3
19.921,-119.51
19.937,-98.2
19.953,-78.0
19.968,-58.45
19.984,-37.45
20.000,-15.87
20.015,4.02
20.031,18.76
20.046,25.47
20.062,23.26
20.078,13.24
20.093,-3.01
20.109,-23.28
20.125,-45.0
20.140,-65.84
20.156,-83.19
20.171,-95.36
20.187,-102.53
20.203,-106.93
20.218,-111.91
20.234,-120.42
20.250,-132.59
20.265,-144.38
20.281,-149.55
20.296,-142.82
20.312,-123.2
20.328,-94.96
20.343,-65.72
20.359,-42.49
20.375,-28.31
20.390,-20.7
20.406,-13.49
20.421,-0.89
20.437,19.39
20.453,44.54
20.468,68.17
20.484,83.48
20.500,85.73
20.515,74.27
20.531,52.62
20.546,27.2
20.562,5.56
20.578,-5.59
20.593,-1.93
20.609,16.38
20.625,45.27
20.640,76.4
20.656,100.47
20.671,110.4
20.687,103.98
20.703,84.35
20.718,58.06
20.734,32.75
20.750,12.27
20.765,-3.15
20.781,-17.17
20.796,-33.77
20.812,-54.76
20.828,-78.34
20.843,-99.98
20.859,-115.0
20.875,-120.03
20.890,-116.94
20.906,-111.14
20.921,-111.78
20.937,-127.8
20.953,-164.61
20.968,-222.02
20.984,-294.12
21.000,-371.66
21.015,-444.02
21.031,-505.48
21.046,-540.12
21.062,-536.04
21.078,-489.22
21.093,-407.27
21.109,-307.44
21.125,-207.09
21.140,-125.17
21.156,-56.7
21.171,7.07
21.187,72.55
21.203,139.23
21.218,201.17
21.234,251.47
21.250,282.17
21.265,289.43
21.281,274.65
21.296,246.01
21.312,212.0
21.328,181.25
21.343,159.89
21.359,151.67
21.375,158.51
21.390,177.78
21.406,202.33
21.421,220.9
21.437,223.34
21.453,202.19
21.468,157.94
21.484,98.22
21.500,33.88
21.515,-25.37
21.531,-76.48
21.546,-121.58
21.562,-163.67
21.578,-197.69
21.593,-214.65
21.609,-205.69
21.625,-169.38
21.640,-120.51
21.656,-70.76
21.671,-26.42
21.687,13.67
21.703,56.55
21.718,110.02
21.734,177.47
21.750,250.38
21.765,312.04
21.781,344.04
21.796,336.59
21.812,291.51
21.828,221.18
21.843,142.43
21.859,70.5
21.875,14.31
21.890,-24.38
21.906,-47.73
21.921,-60.71
21.937,-65.36
21.953,-62.98
21.968,-54.58
21.984,-41.33
22.000,-24.41
22.015,-5.2
22.031,15.11
22.046,36.71
22.062,60.34
22.078,87.69
22.093,118.61
22.109,150.2
22.125,177.35
22.140,194.55
22.156,197.59
22.171,185.25
22.187,159.44
22.203,124.3
22.218,84.44
22.234,42.47
22.250,-1.65
22.265,-49.58
22.281,-102.48
22.296,-159.52
22.312,-217.3
22.328,-270.88
22.343,-315.18
22.359,-346.26
22.375,-362.73
22.390,-365.89
22.406,-359.29
22.421,-346.92
22.437,-330.43
22.453,-307.96
22.468,-274.43
22.484,-224.18
22.500,-154.65
22.515,-68.94
22.531,24.3
22.546,113.22
22.562,186.79
22.578,239.04
22.593,270.26
22.609,285.03
22.625,289.06
22.640,286.64
22.656,280.26
22.671,271.93
22.687,262.17
22.703,249.99
22.718,232.73
22.734,206.5
22.750,167.01
22.765,111.87
22.781,42.05
22.796,-36.83
22.812,-110.48
22.828,-161.86
22.843,-179.49
22.859,-162.55
22.875,-118.95
22.890,-59.98
22.906,4.81
22.921,68.62
22.937,126.52
22.953,174.79
22.968,211.01
22.984,233.03
23.000,240.44
23.015,235.55
23.031,221.85
23.046,202.36
23.062,178.06
23.078,147.52
23.093,108.41
23.109,58.5
23.125,-1.88
23.140,-69.29
23.156,-138.29
23.171,-202.19
23.187,-255.27
23.203,-293.8
23.218,-317.04
23.234,-326.91
23.250,-328.27
23.265,-326.99
23.281,-326.5
23.296,-327.12
23.312,-326.01
23.328,-317.74
23.343,-297.11
23.359,-261.86
23.375,-214.26
23.390,-161.67
23.406,-114.59
23.421,-82.44
23.437,-70.94
23.453,-81.83
23.468,-111.12
23.484,-150.36
23.500,-189.38
23.515,-220.04
23.531,-238.24
23.546,-243.71
23.562,-236.58
23.578,-216.22
23.593,-181.88
23.609,-132.69
23.625,-69.97
23.640,1.41
23.656,71.99
23.671,130.83
23.687,164.92
23.703,167.98
23.718,150.08
23.734,124.64
23.750,101.98
23.765,84.43
23.781,72.16
23.796,63.52
23.812,56.42
23.828,49.75
23.843,44.3
23.859,41.1
23.875,39.07
23.890,36.23
23.906,30.42
23.921,20.43
23.937,6.5
23.953,-9.94
23.968,-26.39
23.984,-39.32
24.000,-45.56
24.015,-44.07
24.031,-35.08
24.046,-19.4
24.062,2.27
24.078,29.19
24.093,60.89
24.109,97.3
24.125,138.76
24.140,184.63
24.156,231.87
24.171,275.63
24.187,310.57
24.203,333.06
24.218,342.04
24.234,339.69
24.250,330.3
24.265,318.59
24.281,307.55
24.296,297.46
24.312,286.98
24.328,275.07
24.343,262.23
24.359,250.56
24.375,242.74
24.390,240.42
24.406,243.38
24.421,249.45
24.437,255.21
24.453,257.69
24.468,255.59
24.484,249.32
24.500,240.26
24.515,229.6
24.531,217.01
24.546,200.98
24.562,179.48
24.578,150.82
24.593,114.6
24.609,72.28
24.625,26.71
24.640,-18.62
24.656,-60.5
24.671,-97.06
24.687,-127.22
24.703,-150.61
24.718,-167.06
24.734,-176.46
24.750,-178.71
24.765,-174.47
24.781,-164.83
24.796,-151.18
24.812,-134.93
24.828,-117.11
24.843,-99.08
24.859,-83.14
24.875,-72.83
24.890,-71.77
24.906,-82.55
24.921,-104.47
24.937,-133.72
24.953,-164.93
24.968,-193.2
24.984,-216.31
25.000,-235.15
25.015,-252.44
25.031,-270.88
25.046,-292.35
25.062,-316.98
25.078,-343.29
25.093,-368.86
25.109,-390.22
25.125,-403.77
25.140,-406.91
25.156,-399.26
25.171,-383.27
25.187,-363.34
25.203,-343.64
25.218,-326.0
25.234,-309.13
25.250,-289.17
25.265,-262.9
25.281,-230.53
25.296,-196.86
25.312,-170.1
25.328,-157.91
25.343,-162.98
25.359,-180.7
25.375,-200.62
25.390,-209.89
25.406,-199.24
25.421,-166.21
25.437,-115.72
25.453,-57.08
25.468,0.47
25.484,51.44
25.500,95.2
25.515,133.46
25.531,167.96
25.546,198.0
25.562,221.02
25.578,234.42
25.593,237.95
25.609,234.62
25.625,229.93
25.640,229.84
25.656,237.75
25.671,252.97
25.687,270.51
25.703,283.35
25.718,285.25
25.734,273.03
25.750,247.74
25.765,213.8
25.781,176.96
25.796,142.17
25.812,112.73
25.828,90.1
25.843,74.82
25.859,67.27
25.875,67.21
25.890,73.61
25.906,84.4
25.921,96.87
25.937,108.22
25.953,116.63
25.968,121.44
25.984,122.92
26.000,121.65
26.015,118.07
26.031,112.51
26.046,105.11
26.062,96.28
26.078,86.49
26.093,75.92
26.109,64.24
26.125,50.42
26.140,33.22
26.156,11.85
26.171,-13.21
26.187,-40.2
26.203,-66.3
26.218,-88.1
26.234,-102.45
26.250,-107.2
26.265,-101.85
26.281,-88.09
26.296,-69.87
26.312,-52.37
26.328,-40.59
26.343,-37.52
26.359,-42.76
26.375,-52.64
26.390,-62.12
26.406,-66.89
26.421,-65.09
26.437,-57.88
26.453,-47.86
26.468,-37.31
26.484,-26.9
26.500,-15.96
26.515,-3.61
26.531,10.14
26.546,24.06
26.562,36.35
26.578,45.24
26.593,49.46
26.609,48.24
26.625,41.39
26.640,29.9
26.656,16.83
26.671,7.56
26.687,8.41
26.703,23.7
26.718,52.82
26.734,89.72
26.750,125.11
26.765,150.43
26.781,161.7
26.796,160.58
26.812,152.81
26.828,144.78
26.843,140.18
26.859,138.36
26.875,136.56
26.890,132.17
26.906,124.1
26.921,113.0
26.937,99.79
26.953,84.88
26.968,68.07
26.984,48.89
27.000,26.13
27.015,0.07
27.031,-27.75
27.046,-57.05
27.062,-90.0
27.078,-130.46
27.093,-180.96
27.109,-238.33
27.125,-293.4
27.140,-335.13
27.156,-352.38
27.171,-337.55
27.187,-290.69
27.203,-219.17
27.218,-135.13
27.234,-51.65
27.250,21.83
27.265,80.14
27.281,120.15
27.296,144.09
27.312,159.83
27.328,175.98
27.343,198.85
27.359,229.99
27.375,257.11
27.390,267.08
27.406,267.94
27.421,265.39
27.437,255.64
27.453,237.46
27.468,209.53
27.484,171.26
27.500,124.11
27.515,72.57
27.531,24.82
27.546,-11.06
27.562,-32.75
27.578,-41.78
27.593,-41.41
27.609,-36.69
27.625,-32.25
27.640,-31.01
27.656,-33.55
27.671,-37.59
27.687,-40.39
27.703,-42.16
27.718,-43.98
27.734,-46.42
27.750,-50.41
27.765,-56.55
27.781,-64.98
27.796,-75.1
27.812,-85.04
27.828,-92.71
27.843,-97.8
27.859,-100.44
27.875,-100.55
27.890,-98.61
27.906,-95.27
27.921,-91.2
27.937,-86.81
27.953,-82.05
27.968,-76.71
27.984,-71.45
28.000,-66.85
28.015,-63.05
28.031,-59.89
28.046,-56.99
28.062,-53.88
28.078,-50.2
28.093,-45.72
28.109,-40.69
28.125,-35.79
28.140,-31.67
28.156,-28.65
28.171,-26.83
28.187,-25.99
28.203,-25.78
28.218,-25.85
28.234,-25.87
28.250,-25.64
28.265,-24.98
28.281,-23.94
28.296,-22.63
28.312,-21.44
28.328,-20.71
28.343,-20.55
28.359,-20.7
28.375,-20.51
28.390,-19.2
28.406,-16.08
28.421,-11.05
28.437,-4.46
28.453,2.84
28.468,9.84
28.484,15.72
28.500,20.09
28.515,22.83
28.531,24.17
28.546,24.55
28.562,24.29
28.578,23.64
28.593,22.85
28.609,22.01
28.625,21.23
28.640,20.49
28.656,19.69
28.671,18.63
28.687,17.22
28.703,15.38
28.718,13.29
28.734,11.17
28.750,9.16
28.765,7.15
28.781,4.8
28.796,1.67
28.812,-2.33
28.828,-6.75
28.843,-10.78
28.859,-13.29
28.875,-13.63
28.890,-11.76
28.906,-8.14
28.921,-3.4
28.937,2.05
28.953,8.2
28.968,15.24
28.984,22.93
29.000,30.86
29.015,38.07
29.031,43.65
29.046,47.26
29.062,49.19
29.078,50.0
29.093,50.19
29.109,49.76
29.125,48.27
29.140,45.5
29.156,41.56
29.171,37.28
29.187,33.86
29.203,32.1
29.218,31.94
29.234,32.42
29.250,31.98
29.265,29.18
29.281,23.41
29.296,14.79
29.312,4.18
29.328,-7.13
29.343,-17.9
29.359,-26.9
29.375,-33.14
29.390,-36.01
29.406,-35.51
29.421,-32.32
29.437,-28.31
29.453,-25.95
29.468,-27.69
29.484,-35.46
29.500,-49.68
29.515,-69.08
29.531,-90.71
29.546,-110.49
29.562,-123.96
29.578,-127.98
29.593,-121.52
29.609,-106.38
29.625,-86.87
29.640,-68.16
29.656,-54.54
29.671,-47.71
29.687,-46.22
29.703,-46.31
29.718,-43.8
29.734,-35.54
29.750,-20.69
29.765,-0.56
29.781,22.41
29.796,45.19
29.812,64.67
29.828,77.87
29.843,82.17
29.859,76.03
29.875,60.03
29.890,37.06
29.906,11.71
29.921,-10.81
29.937,-26.58
29.953,-34.21
29.968,-34.78
29.984,-31.12
30.000,-26.16
30.015,-21.77
30.031,-18.55
30.046,-16.13
30.062,-13.63
30.078,-10.13
30.093,-4.76
30.109,3.48
30.125,15.43
30.140,31.56
30.156,51.4
30.171,72.88
30.187,92.47
30.203,105.56
30.218,107.77
30.234,96.34
30.250,71.69
30.265,37.68
30.281,1.01
30.296,-30.71
30.312,-51.62
30.328,-59.48
30.343,-56.26
30.359,-47.07
30.375,-37.68
30.390,-32.23
30.406,-31.85
30.421,-34.84
30.437,-37.74
30.453,-36.94
30.468,-29.8
30.484,-15.56
30.500,4.31
30.515,26.31
30.531,45.32
30.546,56.12
30.562,54.87
30.578,40.7
30.593,16.26
30.609,-12.78
30.625,-39.73
30.640,-58.86
30.656,-67.13
30.671,-64.62
30.687,-53.52
30.703,-37.09
30.718,-18.64
30.734,-1.0
30.750,13.41
30.765,22.46
30.781,24.85
30.796,20.6
30.812,11.28
30.828,0.02
30.843,-9.58
30.859,-14.56
30.875,-13.56
30.890,-7.16
30.906,2.59
30.921,13.12
30.937,22.42
30.953,29.5
30.968,34.8
30.984,39.5
31.000,44.94
31.015,52.05
31.031,60.7
31.046,70.05
31.062,79.25
31.078,87.77
31.093,95.55
31.109,102.96
31.125,110.21
31.140,117.06
31.156,123.16
31.171,127.47
31.187,129.26
31.203,128.82
31.218,126.99
31.234,125.2
31.250,124.88
31.265,126.61
31.281,129.57
31.296,131.86
31.312,129.29
31.328,116.96
31.343,91.21
31.359,50.75
31.375,-1.92
31.390,-59.69
31.406,-111.99
31.421,-147.21
31.437,-155.3
31.453,-133.2
31.468,-85.82
31.484,-24.9
31.500,33.05
31.515,71.36
31.531,78.48
31.546,51.04
31.562,-5.72
31.578,-79.35
31.593,-157.21
31.609,-229.01
31.625,-280.79
31.640,-300.81
31.656,-282.79
31.671,-228.28
31.687,-146.68
31.703,-60.33
31.718,20.34
31.734,89.97
31.750,145.75
31.765,186.65
31.781,214.51
31.796,230.66
31.812,237.41
31.828,237.76
31.843,234.9
31.859,232.66
31.875,232.17
31.890,233.16
31.906,235.02
31.921,236.83
31.937,237.07
31.953,234.66
31.968,228.68
31.984,218.45
32.000,204.68
32.015,187.05
32.031,165.3
32.046,139.81
32.062,111.45
32.078,81.05
32.093,49.68
32.109,18.26
32.125,-12.53
32.140,-41.49
32.156,-68.24
32.171,-92.67
32.187,-114.61
32.203,-133.89
32.218,-150.61
32.234,-164.94
32.250,-177.09
32.265,-187.92
32.281,-198.67
32.296,-211.95
32.312,-230.25
32.328,-254.34
32.343,-281.44
32.359,-304.83
32.375,-315.32
32.390,-304.23
32.406,-267.01
32.421,-204.93
32.437,-125.38
32.453,-39.17
32.468,42.36
32.484,109.82
32.500,156.93
32.515,180.72
32.531,181.23
32.546,161.11
32.562,125.06
32.578,78.95
32.593,28.69
32.609,-21.36
32.625,-68.88
32.640,-113.35
32.656,-155.01
32.671,-194.26
32.687,-231.18
32.703,-266.01
32.718,-299.48
32.734,-332.47
32.750,-365.97
32.765,-401.15
32.781,-439.12
32.796,-481.03
32.812,-527.26
32.828,-576.26
32.843,-623.68
32.859,-662.7
32.875,-685.67
32.890,-686.97
32.906,-665.35
32.921,-624.47
32.937,-571.42
32.953,-513.81
32.968,-457.14
32.984,-403.87
33.000,-353.77
33.015,-305.33
33.031,-257.01
33.046,-207.24
33.062,-154.15
33.078,-95.62
33.093,-29.63
33.109,44.67
33.125,125.65
33.140,209.35
33.156,290.53
33.171,363.76
33.187,425.18
33.203,473.53
33.218,510.14
33.234,538.64
33.250,564.02
33.265,590.73
33.281,620.59
33.296,651.88
33.312,678.95
33.328,694.24
33.343,691.28
33.359,667.68
33.375,626.81
33.390,576.59
33.406,526.33
33.421,483.17
33.437,450.22
33.453,426.17
33.468,407.6
33.484,391.44
33.500,376.33
33.515,362.87
33.531,352.52
33.546,345.84
33.562,341.6
33.578,337.55
33.593,331.13
33.609,321.01
33.625,307.36
33.640,291.19
33.656,273.4
33.671,254.1
33.687,231.67
33.703,202.8
33.718,164.0
33.734,112.94
33.750,49.53
33.765,-24.03
33.781,-104.74
33.796,-189.9
33.812,-276.66
33.828,-360.79
33.843,-435.35
33.859,-491.48
33.875,-521.84
33.890,-524.76
33.906,-506.87
33.921,-481.29
33.937,-461.97
33.953,-458.06
33.968,-471.31
33.984,-496.95
34.000,-527.15
34.015,-555.12
34.031,-575.88
34.046,-585.45
34.062,-580.07
34.078,-556.45
34.093,-514.12
34.109,-457.29
34.125,-394.62
34.140,-336.09
34.156,-289.9
34.171,-259.68
34.187,-244.23
34.203,-239.18
34.218,-237.87
34.234,-234.22
34.250,-224.16
34.265,-206.42
34.281,-181.79
34.296,-152.74
34.312,-122.3
34.328,-93.51
34.343,-69.59
34.359,-50.9
34.375,-36.94
34.390,-27.07
34.406,-21.54
34.421,-21.43
34.437,-28.1
34.453,-41.82
34.468,-61.71
34.484,-86.58
34.500,-110.7
34.515,-127.97
34.531,-133.53
34.546,-124.91
34.562,-101.81
34.578,-65.18
34.593,-15.74
34.609,46.26
34.625,119.84
34.640,208.89
34.656,316.52
34.671,442.44
34.687,581.8
34.703,725.89
34.718,864.78
34.734,989.47
34.750,1092.89
34.765,1144.5
34.781,1122.0
34.796,1017.71
34.812,844.72
34.828,631.95
34.843,410.6
34.859,204.11
34.875,25.29
34.890,-115.8
34.906,-225.95
34.921,-307.75
34.937,-362.29
34.953,-391.1
34.968,-397.87
34.984,-388.38
35.000,-368.67
35.015,-343.38
35.031,-316.21
35.046,-290.64
35.062,-264.18
35.078,-233.7
35.093,-196.98
35.109,-154.03
35.125,-106.97
35.140,-58.83
35.156,-11.75
35.171,33.1
35.187,74.68
35.203,115.04
35.218,155.18
35.234,193.79
35.250,227.15
35.265,250.63
35.281,260.84
35.296,257.52
35.312,243.24
35.328,221.8
35.343,198.28
35.359,176.01
35.375,155.98
35.390,137.26
35.406,118.39
35.421,98.66
35.437,78.42
35.453,58.56
35.468,39.72
35.484,22.77
35.500,8.19
35.515,-3.49
35.531,-12.02
35.546,-17.27
35.562,-19.4
35.578,-18.99
35.593,-17.08
35.609,-14.87
35.625,-13.09
35.640,-11.82
35.656,-10.08
35.671,-6.25
35.687,1.55
35.703,14.62
35.718,32.91
35.734,54.61
35.750,76.58
35.765,95.15
35.781,107.39
35.796,112.05
35.812,109.68
35.828,101.92
35.843,90.91
35.859,78.27
35.875,64.92
35.890,51.24
35.906,37.44
35.921,23.99
35.937,11.69
35.953,1.21
35.968,-7.69
35.984,-16.09
36.000,-25.66
36.015,-37.95
36.031,-53.91
36.046,-73.37
36.062,-95.06
36.078,-116.91
36.093,-136.93
36.109,-154.51
36.125,-170.13
36.140,-185.04
36.156,-200.11
36.171,-215.35
36.187,-229.54
36.203,-240.83
36.218,-247.25
36.234,-244.28
36.250,-229.26
36.265,-201.66
36.281,-163.58
36.296,-119.12
36.312,-73.18
36.328,-30.09
36.343,7.04
36.359,36.89
36.375,59.56
36.390,75.86
36.406,87.32
36.421,95.48
36.437,101.38
36.453,105.22
36.468,107.4
36.484,107.71
36.500,106.62
36.515,105.57
36.531,106.08
36.546,109.42
36.562,115.37
36.578,121.78
36.593,124.92
36.609,121.19
36.625,108.36
36.640,86.4
36.656,57.11
36.671,22.44
36.687,-16.64
36.703,-60.32
36.718,-109.45
36.734,-163.96
36.750,-220.65
36.765,-271.91
36.781,-306.72
36.796,-314.13
36.812,-287.92
36.828,-229.16
36.843,-147.3
36.859,-57.42
36.875,24.67
36.890,87.43
36.906,126.51
36.921,144.31
36.937,147.32
36.953,142.58
36.968,135.4
36.984,127.68
37.000,118.13
37.015,103.69
37.031,81.07
37.046,48.33
37.062,5.4
37.078,-46.11
37.093,-103.54
37.109,-159.98
37.125,-205.92
37.140,-232.33
37.156,-235.06
37.171,-216.34
37.187,-182.31
37.203,-139.58
37.218,-93.57
37.234,-48.49
37.250,-7.57
37.265,26.06
37.281,50.1
37.296,63.8
37.312,68.53
37.328,67.53
37.343,64.55
37.359,62.54
37.375,62.74
37.390,65.05
37.406,67.99
37.421,69.75
37.437,69.07
37.453,65.48
37.468,60.33
37.484,55.45
37.500,52.35
37.515,51.83
37.531,54.0
37.546,58.24
37.562,63.88
37.578,70.61
37.593,78.15
37.609,86.71
37.625,96.59
37.640,107.94
37.656,120.1
37.671,132.55
37.687,143.06
37.703,149.29
37.718,148.94
37.734,140.67
37.750,123.99
37.765,99.35
37.781,68.4
37.796,33.54
37.812,-2.3
37.828,-36.56
37.843,-66.94
37.859,-92.0
37.875,-111.08
37.890,-124.22
37.906,-131.8
37.921,-134.36
37.937,-131.94
37.953,-124.99
37.968,-114.74
37.984,-102.54
38.000,-90.17
38.015,-79.71
38.031,-73.09
38.046,-71.4
38.062,-74.89
38.078,-82.18
38.093,-91.33
38.109,-100.97
38.125,-110.18
38.140,-118.85
38.156,-127.75
38.171,-138.34
38.187,-152.49
38.203,-172.46
38.218,-200.84
38.234,-234.55
38.250,-270.61
38.265,-303.7
38.281,-326.63
38.296,-332.61
38.312,-317.81
38.328,-283.44
38.343,-235.56
38.359,-183.08
38.375,-134.56
38.390,-96.12
38.406,-69.5
38.421,-53.02
38.437,-43.47
38.453,-37.81
38.468,-33.81
38.484,-29.96
38.500,-24.83
38.515,-17.11
38.531,-6.45
38.546,6.9
38.562,21.82
38.578,37.06
38.593,51.57
38.609,65.4
38.625,80.15
38.640,98.62
38.656,123.36
38.671,154.82
38.687,190.67
38.703,225.35
38.718,252.11
38.734,265.44
38.750,263.66
38.765,250.01
38.781,231.66
38.796,216.45
38.812,209.78
38.828,213.15
38.843,224.35
38.859,239.22
38.875,253.84
38.890,266.05
38.906,275.86
38.921,284.85
38.937,294.79
38.953,306.78
38.968,320.87
38.984,336.07
39.000,350.16
39.015,359.76
39.031,360.76
39.046,348.99
39.062,321.15
39.078,275.43
39.093,212.07
39.109,133.25
39.125,43.14
39.140,-54.04
39.156,-154.63
39.171,-254.93
39.187,-349.3
39.203,-429.49
39.218,-485.31
39.234,-506.62
39.250,-486.98
39.265,-425.44
39.281,-329.48
39.296,-213.32
39.312,-92.94
39.328,19.28
39.343,116.3
39.359,195.4
39.375,256.16
39.390,298.72
39.406,324.93
39.421,335.95
39.437,332.24
39.453,313.87
39.468,281.63
39.484,236.14
39.500,177.85
39.515,108.81
39.531,23.49
39.546,-70.81
39.562,-157.47
39.578,-220.78
39.593,-255.54
39.609,-266.13
39.625,-260.55
39.640,-244.8
39.656,-221.32
39.671,-190.88
39.687,-154.05
39.703,-114.01
39.718,-76.27
39.734,-46.25
39.750,-26.05
39.765,-13.87
39.781,-7.69
39.796,-5.39
39.812,-4.38
39.828,-0.59
39.843,8.7
39.859,23.49
39.875,37.77
39.890,47.49
39.906,47.35
39.921,34.0
39.937,7.5
39.953,-28.37
39.968,-66.95
39.984,-102.61
40.000,-132.98
40.015,-159.41
40.031,-180.95
40.046,-196.0
40.062,-201.11
40.078,-192.31
40.093,-167.51
40.109,-127.45
40.125,-76.15
40.140,-18.53
40.156,36.72
40.171,84.73
40.187,123.47
40.203,154.33
40.218,180.08
40.234,203.21
40.250,225.16
40.265,245.45
40.281,262.19
40.296,271.1
40.312,271.73
40.328,258.51
40.343,229.56
40.359,187.75
40.375,140.06
40.390,95.56
40.406,61.68
40.421,42.58
40.437,37.02
40.453,41.61
40.468,51.77
40.484,65.23
40.500,81.64
40.515,101.17
40.531,123.35
40.546,146.58
40.562,168.59
40.578,184.74
40.593,193.51
40.609,196.03
40.625,196.81
40.640,200.73
40.656,210.06
40.671,224.13
40.687,240.2
40.703,254.77
40.718,259.62
40.734,249.48
40.750,223.95
40.765,188.14
40.781,148.87
40.796,110.81
40.812,75.87
40.828,43.96
40.843,14.03
40.859,-23.48
40.875,-75.57
40.890,-142.68
40.906,-218.57
40.921,-295.46
40.937,-369.26
40.953,-439.92
40.968,-509.56
40.984,-580.71
41.000,-665.6
41.015,-772.14
41.031,-898.35
41.046,-1032.53
41.062,-1160.0
41.078,-1270.17
41.093,-1357.72
41.109,-1421.21
41.125,-1393.62
41.140,-1239.4
41.156,-973.14
41.171,-654.8
41.187,-348.49
41.203,-90.89
41.218,108.87
41.234,257.36
41.250,366.1
41.265,445.52
41.281,493.83
41.296,509.66
41.312,497.92
41.328,470.81
41.343,442.12
41.359,420.77
41.375,410.62
41.390,412.14
41.406,423.35
41.421,433.54
41.437,433.93
41.453,422.15
41.468,402.75
41.484,383.66
41.500,368.32
41.515,357.19
41.531,348.64
41.546,340.21
41.562,324.29
41.578,295.05
41.593,251.51
41.609,197.31
41.625,140.67
41.640,87.85
41.656,42.87
41.671,7.47
41.687,-18.25
41.703,-37.74
41.718,-54.51
41.734,-70.21
41.750,-84.07
41.765,-95.23
41.781,-104.34
41.796,-112.67
41.812,-120.75
41.828,-127.07
41.843,-128.62
41.859,-121.68
41.875,-103.76
41.890,-75.29
41.906,-41.16
41.921,-9.65
41.937,11.55
41.953,18.41
41.968,12.08
41.984,-2.28
42.000,-18.57
42.015,-32.16
42.031,-41.76
42.046,-46.96
42.062,-47.92
42.078,-43.76
42.093,-33.2
42.109,-16.36
42.125,4.34
42.140,23.86
42.156,36.71
42.171,39.32
42.187,32.44
42.203,20.67
42.218,10.32
42.234,6.21
42.250,9.33
42.265,17.16
42.281,26.16
42.296,34.71
42.312,44.17
42.328,57.67
42.343,77.1
42.359,100.61
42.375,122.31
42.390,133.54
42.406,129.55
42.421,110.89
42.437,82.78
42.453,52.21
42.468,24.88
42.484,3.03
42.500,-14.24
42.515,-29.36
42.531,-44.06
42.546,-58.2
42.562,-70.11
42.578,-78.17
42.593,-81.85
42.609,-82.06
42.625,-81.36
42.640,-82.14
42.656,-85.6
42.671,-91.12
42.687,-96.63
42.703,-98.95
42.718,-95.88
42.734,-86.57
42.750,-71.06
42.765,-49.9
42.781,-24.17
42.796,5.1
42.812,36.72
42.828,68.86
42.843,99.83
42.859,127.38
42.875,149.97
42.890,167.62
42.906,181.65
42.921,192.87
42.937,200.83
42.953,203.62
42.968,193.77
42.984,170.94
43.000,137.04
43.015,95.87
43.031,52.28
43.046,10.56
43.062,-27.06
43.078,-60.14
43.093,-89.05
43.109,-114.0
43.125,-133.47
43.140,-146.64
43.156,-153.19
43.171,-154.01
43.187,-149.27
43.203,-139.83
43.218,-126.91
43.234,-111.79
43.250,-95.89
43.265,-79.51
43.281,-63.29
43.296,-47.68
43.312,-33.03
43.328,-19.49
43.343,-7.55
43.359,2.17
43.375,9.1
43.390,12.82
43.406,13.77
43.421,12.81
43.437,11.57
43.453,12.13
43.468,16.43
43.484,25.44
43.500,39.17
43.515,56.62
43.531,76.49
43.546,98.08
43.562,119.23
43.578,139.57
43.593,159.77
43.609,181.02
43.625,204.47
43.640,231.28
43.656,262.51
43.671,298.36
43.687,337.21
43.703,374.77
43.718,404.57
43.734,419.84
43.750,416.04
43.765,392.99
43.781,355.21
43.796,310.2
43.812,265.63
43.828,226.72
43.843,195.39
43.859,170.88
43.875,151.24
43.890,134.65
43.906,119.77
43.921,105.27
43.937,89.03
43.953,68.36
43.968,40.35
43.984,2.97
44.000,-43.79
44.015,-96.88
44.031,-150.13
44.046,-195.3
44.062,-225.21
44.078,-237.38
44.093,-235.04
44.109,-226.01
44.125,-218.61
44.140,-218.26
44.156,-225.01
44.171,-234.38
44.187,-240.04
44.203,-237.31
44.218,-225.69
44.234,-208.14
44.250,-189.64
44.265,-174.42
44.281,-165.52
44.296,-165.29
44.312,-176.28
44.328,-201.41
44.343,-242.37
44.359,-298.35
44.375,-364.23
44.390,-431.34
44.406,-489.85
44.421,-532.14
44.437,-555.74
44.453,-563.54
44.468,-561.93
44.484,-557.05
44.500,-552.27
44.515,-547.09
44.531,-539.05
44.546,-525.64
44.562,-505.48
44.578,-478.77
44.593,-446.62
44.609,-410.56
44.625,-371.76
44.640,-331.37
44.656,-290.55
44.671,-250.99
44.687,-214.64
44.703,-183.11
44.718,-157.38
44.734,-137.22
44.750,-121.85
44.765,-109.62
44.781,-98.8
44.796,-87.98
44.812,-76.46
44.828,-64.29
44.843,-51.79
44.859,-39.47
44.875,-27.54
44.890,-16.07
44.906,-4.77
44.921,6.53
44.937,18.01
44.953,29.73
44.968,41.78
44.984,54.12
45.000,66.74
45.015,79.45
45.031,92.17
45.046,104.94
45.062,117.82
45.078,131.18
45.093,145.6
45.109,161.81
45.125,180.24
45.140,200.83
45.156,222.65
45.171,244.23
45.187,264.23
45.203,281.75
45.218,296.74
45.234,310.18
45.250,323.38
45.265,337.54
45.281,353.43
45.296,371.11
45.312,390.07
45.328,409.54
45.343,428.32
45.359,444.57
45.375,456.09
45.390,460.81
45.406,457.57
45.421,446.74
45.437,430.09
45.453,409.76
45.468,387.26
45.484,362.77
45.500,335.42
45.515,304.42
45.531,270.27
45.546,235.46
45.562,203.5
45.578,177.17
45.593,156.56
45.609,138.08
45.625,115.46
45.640,81.88
45.656,33.22
45.671,-29.61
45.687,-99.6
45.703,-165.17
45.718,-213.65
45.734,-235.18
45.750,-225.84
45.765,-188.58
45.781,-132.09
45.796,-68.02
45.812,-8.04
45.828,38.57
45.843,66.9
45.859,76.83
45.875,73.01
45.890,63.65
45.906,58.6
45.921,66.69
45.937,93.4
45.953,138.74
45.968,196.47
45.984,255.62
46.000,303.06
46.015,327.66
46.031,323.14
46.046,290.26
46.062,235.72
46.078,169.76
46.093,102.47
46.109,40.44
46.125,-14.44
46.140,-64.82
46.156,-115.21
46.171,-169.13
46.187,-226.61
46.203,-283.36
46.218,-331.78
46.234,-363.38
46.250,-371.74
46.265,-354.27
46.281,-312.91
46.296,-253.08
46.312,-182.01
46.328,-107.75
46.343,-38.08
46.359,19.97
46.375,60.88
46.390,81.35
46.406,81.02
46.421,62.49
46.437,30.63
46.453,-8.38
46.468,-48.27
46.484,-83.23
46.500,-108.26
46.515,-119.65
46.531,-116.16
46.546,-99.4
46.562,-73.95
46.578,-46.0
46.593,-21.82
46.609,-6.0
46.625,-0.72
46.640,-5.95
46.656,-19.93
46.671,-39.82
46.687,-61.95
46.703,-82.14
46.718,-96.0
46.734,-99.99
46.750,-92.55
46.765,-74.81
46.781,-50.62
46.796,-25.29
46.812,-3.51
46.828,12.36
46.843,23.25
46.859,32.6
46.875,44.52
46.890,61.52
46.906,83.19
46.921,106.18
46.937,125.89
46.953,138.46
46.968,142.62
46.984,140.0
47.000,134.39
47.015,129.74
47.031,128.07
47.046,128.44
47.062,127.02
47.078,119.02
47.093,100.72
47.109,71.94
47.125,36.36
47.140,0.64
47.156,-27.8
47.171,-43.31
47.187,-43.74
47.203,-30.94
47.218,-9.57
47.234,14.44
47.250,35.9
47.265,51.54
47.281,60.28
47.296,63.1
47.312,62.45
47.328,61.48
47.343,63.01
47.359,68.97
47.375,79.92
47.390,95.23
47.406,113.49
47.421,132.77
47.437,151.33
47.453,167.88
47.468,182.2
47.484,194.85
47.500,206.87
47.515,218.87
47.531,230.22
47.546,238.88
47.562,242.24
47.578,238.55
47.593,227.92
47.609,212.93
47.625,197.67
47.640,186.05
47.656,180.01
47.671,178.79
47.687,179.45
47.703,178.29
47.718,172.57
47.734,161.3
47.750,144.81
47.765,124.14
47.781,99.96
47.796,71.87
47.812,38.8
47.828,0.3
47.843,-42.8
47.859,-87.95
47.875,-131.47
47.890,-170.14
47.906,-202.06
47.921,-226.64
47.937,-244.77
47.953,-258.26
47.968,-268.89
47.984,-278.05
48.000,-286.66
48.015,-295.2
48.031,-303.62
48.046,-311.28
48.062,-315.83
48.078,-314.58
48.093,-304.91
48.109,-284.52
48.125,-251.93
48.140,-207.14
48.156,-152.63
48.171,-93.74
48.187,-38.0
48.203,8.24
48.218,40.1
48.234,55.77
48.250,57.66
48.265,51.78
48.281,46.03
48.296,47.32
48.312,59.42
48.328,83.04
48.343,117.73
48.359,159.88
48.375,203.09
48.390,239.23
48.406,259.68
48.421,257.93
48.437,231.56
48.453,183.4
48.468,111.54
48.484,25.42
48.500,-58.25
48.515,-123.25
48.531,-161.42
48.546,-175.68
48.562,-173.48
48.578,-164.74
48.593,-156.47
48.609,-152.91
48.625,-154.97
48.640,-163.23
48.656,-179.77
48.671,-205.16
48.687,-238.31
48.703,-276.7
48.718,-317.34
48.734,-357.89
48.750,-397.51
48.765,-435.76
48.781,-474.05
48.796,-514.06
48.812,-556.24
48.828,-597.17
48.843,-629.59
48.859,-644.35
48.875,-634.12
48.890,-596.59
48.906,-535.03
48.921,-458.33
48.937,-377.08
48.953,-300.35
48.968,-233.07
48.984,-176.05
49.000,-127.44
49.015,-85.13
49.031,-47.87
49.046,-15.0
49.062,13.62
49.078,38.55
49.093,60.71
49.109,81.35
49.125,101.15
49.140,120.18
49.156,137.88
49.171,153.47
49.187,166.45
49.203,176.51
49.218,183.65
49.234,187.9
49.250,189.45
49.265,188.41
49.281,184.98
49.296,179.57
49.312,172.84
49.328,165.91
49.343,160.26
49.359,157.68
49.375,159.69
49.390,166.99
49.406,178.67
49.421,192.58
49.437,205.91
49.453,216.56
49.468,224.19
49.484,230.32
49.500,237.6
49.515,248.43
49.531,263.87
49.546,282.83
49.562,302.46
49.578,318.8
49.593,327.92
49.609,326.79
49.625,314.06
49.640,290.01
49.656,256.07
49.671,214.44
49.687,167.53
49.703,118.17
49.718,69.86
49.734,27.25
49.750,-4.41
49.765,-20.32
49.781,-17.78
49.796,2.57
49.812,37.32
49.828,81.74
49.843,132.02
49.859,186.46
49.875,244.68
49.890,305.52
49.906,364.92
49.921,415.41
49.937,447.91
49.953,455.26
49.968,435.15
49.984,391.17
50.000,331.18
50.015,264.38
50.031,197.98
50.046,135.59
50.062,77.4
50.078,21.87
50.093,-32.43
50.109,-85.83
50.125,-137.16
50.140,-184.42
50.156,-225.22
50.171,-257.68
50.187,-280.75
50.203,-294.57
50.218,-300.4
50.234,-300.1
50.250,-295.64
50.265,-288.6
50.281,-279.95
50.296,-269.8
50.312,-257.38
50.328,-241.17
50.343,-219.34
50.359,-191.16
50.375,-158.12
50.390,-124.8
50.406,-97.66
50.421,-82.81
50.437,-82.73
50.453,-94.73
50.468,-111.97
50.484,-126.15
50.500,-131.7
50.515,-127.24
50.531,-115.85
50.546,-101.97
50.562,-89.33
50.578,-79.32
50.593,-71.54
50.609,-65.91
50.625,-63.32
50.640,-65.54
50.656,-72.9
50.671,-82.98
50.687,-89.93
50.703,-86.01
50.718,-63.96
50.734,-19.79
50.750,45.69
50.765,127.18
50.781,215.77
50.796,300.7
50.812,371.01
50.828,417.24
50.843,433.74
50.859,420.69
50.875,384.07
50.890,334.06
50.906,282.34
50.921,238.12
50.937,205.71
50.953,184.0
50.968,168.37
50.984,154.04
51.000,138.85
51.015,123.13
51.031,108.89
51.046,99.53
51.062,98.47
51.078,108.01
51.093,128.0
51.109,154.82
51.125,181.5
51.140,200.89
51.156,207.32
51.171,200.21
51.187,186.04
51.203,176.32
51.218,181.93
51.234,207.15
51.250,246.44
51.265,286.01
51.281,310.96
51.296,309.19
51.312,276.03
51.328,214.79
51.343,133.91
51.359,42.63
51.375,-51.84
51.390,-145.02
51.406,-241.23
51.421,-334.04
51.437,-410.88
51.453,-459.52
51.468,-475.04
51.484,-461.78
51.500,-430.58
51.515,-393.08
51.531,-358.06
51.546,-329.1
51.562,-303.32
51.578,-276.24
51.593,-244.75
51.609,-208.51
51.625,-169.56
51.640,-132.01
51.656,-99.53
51.671,-74.46
51.687,-56.9
51.703,-42.25
51.718,-27.36
51.734,-12.11
51.750,0.71
51.765,6.48
51.781,0.3
51.796,-20.77
51.812,-56.8
51.828,-104.35
51.843,-156.12
51.859,-204.18
51.875,-243.25
51.890,-271.5
51.906,-290.03
51.921,-301.89
51.937,-310.3
51.953,-318.08
51.968,-325.73
51.984,-330.7
52.000,-322.16
52.015,-293.0
52.031,-240.62
52.046,-167.18
52.062,-79.28
52.078,12.23
52.093,92.86
52.109,148.27
52.125,168.55
52.140,151.37
52.156,102.88
52.171,36.74
52.187,-28.45
52.203,-73.88
52.218,-84.84
52.234,-55.44
52.250,5.93
52.265,80.84
52.281,152.74
52.296,220.42
52.312,286.04
52.328,347.31
52.343,398.53
52.359,434.85
52.375,444.63
52.390,427.3
52.406,391.87
52.421,352.0
52.437,319.26
52.453,298.38
52.468,285.36
52.484,270.82
52.500,245.58
52.515,205.2
52.531,153.6
52.546,101.66
52.562,62.73
52.578,46.55
52.593,55.66
52.609,84.91
52.625,125.73
52.640,169.36
52.656,208.66
52.671,237.67
52.687,251.68
52.703,247.86
52.718,225.9
52.734,188.95
52.750,141.3
52.765,90.72
52.781,45.87
52.796,12.33
52.812,-10.6
52.828,-27.12
52.843,-40.34
52.859,-50.48
52.875,-54.51
52.890,-54.96
52.906,-54.48
52.921,-55.12
52.937,-60.65
52.953,-79.29
52.968,-116.52
52.984,-171.67
53.000,-237.72
53.015,-302.35
53.031,-363.15
53.046,-420.58
53.062,-475.5
53.078,-529.61
53.093,-591.91
53.109,-667.77
53.125,-754.24
53.140,-840.98
53.156,-911.27
53.171,-961.18
53.187,-991.62
53.203,-1005.54
53.218,-950.68
53.234,-800.02
53.250,-568.02
53.265,-304.2
53.281,-92.94
53.296,67.29
53.312,192.17
53.328,294.25
53.343,386.43
53.359,469.27
53.375,531.98
53.390,565.68
53.406,569.25
53.421,549.99
53.437,522.21
53.453,487.97
53.468,448.02
53.484,404.23
53.500,359.56
53.515,310.62
53.531,255.14
53.546,195.9
53.562,140.52
53.578,101.38
53.593,73.92
53.609,56.61
53.625,44.93
53.640,32.93
53.656,12.17
53.671,-21.81
53.687,-67.42
53.703,-118.93
53.718,-168.97
53.734,-206.3
53.750,-227.97
53.765,-237.99
53.781,-242.71
53.796,-249.38
53.812,-262.42
53.828,-283.07
53.843,-310.56
53.859,-342.2
53.875,-376.67
53.890,-394.93
53.906,-383.88
53.921,-339.93
53.937,-272.07
53.953,-196.71
53.968,-130.09
53.984,-83.01
54.000,-58.2
54.015,-51.87
54.031,-59.36
54.046,-74.12
54.062,-91.8
54.078,-110.17
54.093,-127.4
54.109,-141.22
54.125,-149.0
54.140,-148.16
54.156,-136.76
54.171,-114.35
54.187,-85.59
54.203,-56.36
54.218,-31.32
54.234,-12.2
54.250,2.26
54.265,15.17
54.281,30.47
54.296,51.42
54.312,79.24
54.328,112.25
54.343,147.18
54.359,181.0
54.375,212.14
54.390,240.7
54.406,267.97
54.421,295.66
54.437,324.95
54.453,355.7
54.468,386.37
54.484,414.85
54.500,439.24
54.515,458.58
54.531,472.58
54.546,481.82
54.562,487.41
54.578,490.58
54.593,492.68
54.609,495.19
54.625,498.77
54.640,502.1
54.656,500.75
54.671,487.5
54.687,455.12
54.703,399.88
54.718,323.86
54.734,235.24
54.750,146.48
54.765,70.19
54.781,15.24
54.796,-15.51
54.812,-25.04
54.828,-19.41
54.843,-5.6
54.859,9.4
54.875,19.37
54.890,20.35
54.906,11.9
54.921,-2.39
54.937,-16.17
54.953,-23.12
54.968,-19.71
54.984,-7.6
55.000,5.26
55.015,6.98
55.031,-12.87
55.046,-58.49
55.062,-126.42
55.078,-207.63
55.093,-291.63
55.109,-369.03
55.125,-430.24
55.140,-463.71
55.156,-462.57
55.171,-429.43
55.187,-373.75
55.203,-306.03
55.218,-234.4
55.234,-165.48
55.250,-104.45
55.265,-53.58
55.281,-15.93
55.296,5.31
55.312,8.89
55.328,-3.55
55.343,-28.08
55.359,-59.32
55.375,-92.54
55.390,-119.38
55.406,-131.28
55.421,-123.68
55.437,-98.94
55.453,-65.64
55.468,-34.32
55.484,-12.5
55.500,-1.04
55.515,5.73
55.531,16.15
55.546,34.56
55.562,57.68
55.578,76.92
55.593,84.06
55.609,76.59
55.625,58.23
55.640,35.22
55.656,12.13
55.671,-10.3
55.687,-34.08
55.703,-60.98
55.718,-88.79
55.734,-111.26
55.750,-121.6
55.765,-117.62
55.781,-106.23
55.796,-99.95
55.812,-108.21
55.828,-132.21
55.843,-166.4
55.859,-202.76
55.875,-236.54
55.890,-265.36
55.906,-289.0
55.921,-307.8
55.937,-321.33
55.953,-328.84
55.968,-328.21
55.984,-319.56
56.000,-304.39
56.015,-284.58
56.031,-261.56
56.046,-236.31
56.062,-209.04
56.078,-178.52
56.093,-142.54
56.109,-99.02
56.125,-47.19
56.140,12.36
56.156,77.84
56.171,146.42
56.187,214.52
56.203,278.65
56.218,335.93
56.234,384.67
56.250,424.09
56.265,453.75
56.281,473.58
56.296,483.44
56.312,483.35
56.328,473.55
56.343,454.97
56.359,429.45
56.375,399.94
56.390,369.99
56.406,342.8
56.421,321.16
56.437,307.0
56.453,301.68
56.468,305.87
56.484,318.9
56.500,337.36
56.515,355.25
56.531,364.98
56.546,360.04
56.562,337.81
56.578,300.08
56.593,252.93
56.609,204.66
56.625,163.09
56.640,132.8
56.656,114.55
56.671,106.1
56.687,104.35
56.703,106.49
56.718,108.64
56.734,106.74
56.750,97.47
56.765,79.14
56.781,51.64
56.796,15.93
56.812,-26.55
56.828,-73.84
56.843,-123.99
56.859,-177.54
56.875,-235.76
56.890,-298.87
56.906,-365.55
56.921,-432.65
56.937,-496.78
56.953,-555.41
56.968,-606.55
56.984,-634.41
57.000,-624.87
57.015,-573.23
57.031,-488.13
57.046,-386.46
57.062,-283.07
57.078,-186.59
57.093,-101.01
57.109,-27.85
57.125,32.39
57.140,79.17
57.156,113.01
57.171,135.44
57.187,148.91
57.203,156.19
57.218,158.71
57.234,156.71
57.250,148.74
57.265,133.09
57.281,106.8
57.296,63.26
57.312,3.15
57.328,-67.07
57.343,-136.78
57.359,-194.49
57.375,-230.04
57.390,-237.88
57.406,-219.25
57.421,-182.53
57.437,-139.24
57.453,-99.2
57.468,-67.66
57.484,-44.67
57.500,-27.88
57.515,-12.28
57.531,4.64
57.546,22.7
57.562,38.23
57.578,47.7
57.593,49.95
57.609,45.75
57.625,35.98
57.640,20.88
57.656,0.58
57.671,-25.06
57.687,-55.64
57.703,-89.42
57.718,-123.51
57.734,-154.25
57.750,-177.05
57.765,-188.81
57.781,-188.65
57.796,-177.6
57.812,-157.84
57.828,-132.2
57.843,-103.23
57.859,-73.24
57.875,-43.79
57.890,-15.95
57.906,8.92
57.921,29.2
57.937,43.3
57.953,50.4
57.968,50.2
57.984,43.16
58.000,30.36
58.015,14.03
58.031,-3.37
58.046,-19.65
58.062,-32.95
58.078,-45.36
58.093,-57.34
58.109,-68.98
58.125,-79.62
58.140,-88.62
58.156,-94.95
58.171,-97.6
58.187,-95.98
58.203,-90.04
58.218,-80.35
58.234,-67.62
58.250,-53.4
58.265,-39.17
58.281,-26.05
58.296,-14.51
58.312,-4.3
58.328,5.18
58.343,14.42
58.359,23.61
58.375,32.74
58.390,41.17
58.406,48.23
58.421,53.8
58.437,58.55
58.453,63.9
58.468,71.64
58.484,83.21
58.500,99.29
58.515,120.04
58.531,144.72
58.546,172.62
58.562,203.49
58.578,237.58
58.593,275.56
58.609,318.05
58.625,365.81
58.640,419.37
58.656,478.82
58.671,542.17
58.687,604.66
58.703,658.47
58.718,693.76
58.734,701.78
58.750,677.69
58.765,622.96
58.781,544.72
58.796,453.57
58.812,359.71
58.828,270.47
58.843,189.58
58.859,117.53
58.875,53.71
58.890,-2.2
58.906,-49.78
58.921,-88.82
58.937,-120.22
58.953,-146.11
58.968,-169.26
58.984,-191.79
59.000,-215.41
59.015,-240.84
59.031,-267.96
59.046,-296.21
59.062,-325.09
59.078,-354.41
59.093,-384.35
59.109,-414.92
59.125,-440.99
59.140,-455.46
59.156,-452.07
59.171,-429.29
59.187,-390.85
59.203,-343.69
59.218,-294.22
59.234,-246.94
59.250,-204.3
59.265,-166.58
59.281,-133.33
59.296,-103.53
59.312,-76.01
59.328,-49.62
59.343,-23.9
59.359,0.85
59.375,24.09
59.390,45.34
59.406,64.54
59.421,83.05
59.437,100.06
59.453,113.9
59.468,122.4
59.484,123.55
59.500,115.37
59.515,96.87
59.531,67.93
59.546,29.1
59.562,-19.99
59.578,-75.15
59.593,-130.25
59.609,-177.79
59.625,-210.41
59.640,-223.89
59.656,-219.03
59.671,-201.52
59.687,-180.07
59.703,-163.29
59.718,-156.19
59.734,-159.63
59.750,-168.97
59.765,-178.7
59.781,-184.61
59.796,-184.64
59.812,-178.52
59.828,-166.29
59.843,-147.88
59.859,-123.41
59.875,-94.15
59.890,-62.54
59.906,-32.49
59.921,-7.99
59.937,8.3
59.953,15.48
59.968,14.39
59.984,7.7
