timestamp,value
00.000,-26.24
00.015,-27.57
00.031,-28.64
00.046,-28.16
00.062,-25.57
00.078,-21.07
00.093,-15.36
00.109,-9.25
00.125,-3.26
00.140,2.58
00.156,8.45
00.171,14.34
00.187,19.9
00.203,24.53
00.218,27.59
00.234,28.97
00.250,28.94
00.265,28.1
00.281,27.03
00.296,26.15
00.312,25.71
00.328,25.77
00.343,26.35
00.359,27.31
00.375,28.25
00.390,28.48
00.406,27.28
00.421,24.29
00.437,19.82
00.453,14.84
00.468,10.6
00.484,7.81
00.500,6.41
00.515,5.73
00.531,4.87
00.546,3.4
00.562,1.37
00.578,-0.79
00.593,-2.57
00.609,-3.69
00.625,-4.26
00.640,-4.51
00.656,-4.5
00.671,-4.2
00.687,-3.3
00.703,-1.5
00.718,1.26
00.734,5.07
00.750,9.8
00.765,15.29
00.781,21.16
00.796,26.78
00.812,31.41
00.828,34.46
00.843,35.67
00.859,35.07
00.875,32.94
00.890,29.54
00.906,25.24
00.921,20.49
00.937,15.91
00.953,12.25
00.968,9.98
00.984,9.1
01.000,8.83
01.015,8.09
01.031,5.92
01.046,2.18
01.062,-2.45
01.078,-6.89
01.093,-10.25
01.109,-12.26
01.125,-13.22
01.140,-13.79
01.156,-14.49
01.171,-15.43
01.187,-16.2
01.203,-16.2
01.218,-14.89
01.234,-12.1
01.250,-8.31
01.265,-4.34
01.281,-1.17
01.296,0.65
01.312,1.36
01.328,1.89
01.343,3.27
01.359,5.92
01.375,9.28
01.390,11.97
01.406,12.49
01.421,9.89
01.437,4.19
01.453,-3.76
01.468,-12.72
01.484,-21.24
01.500,-28.0
01.515,-31.66
01.531,-31.1
01.546,-25.79
01.562,-16.34
01.578,-4.37
01.593,7.89
01.609,18.31
01.625,25.66
01.640,29.9
01.656,31.69
01.671,31.89
01.687,31.32
01.703,30.27
01.718,28.83
01.734,27.11
01.750,25.14
01.765,22.65
01.781,19.37
01.796,15.07
01.812,9.83
01.828,4.39
01.843,-0.18
01.859,-3.05
01.875,-3.91
01.890,-3.07
01.906,-1.41
01.921,0.21
01.937,1.17
01.953,1.19
01.968,0.39
01.984,-0.87
02.000,-2.33
02.015,-4.1
02.031,-6.65
02.046,-10.65
02.062,-16.57
02.078,-24.46
02.093,-33.74
02.109,-43.25
02.125,-51.52
02.140,-57.08
02.156,-58.82
02.171,-56.32
02.187,-49.79
02.203,-40.04
02.218,-28.77
02.234,-18.0
02.250,-9.54
02.265,-4.38
02.281,-2.12
02.296,-1.24
02.312,0.04
02.328,2.72
02.343,6.8
02.359,11.05
02.375,14.05
02.390,15.05
02.406,14.09
02.421,12.11
02.437,10.21
02.453,9.31
02.468,9.73
02.484,11.51
02.500,14.28
02.515,17.67
02.531,21.3
02.546,24.78
02.562,27.96
02.578,30.41
02.593,31.59
02.609,30.43
02.625,25.81
02.640,16.88
02.656,3.78
02.671,-12.34
02.687,-29.52
02.703,-45.5
02.718,-58.67
02.734,-68.03
02.750,-73.26
02.765,-74.46
02.781,-72.01
02.796,-66.49
02.812,-58.75
02.828,-49.89
02.843,-40.84
02.859,-32.38
02.875,-24.69
02.890,-17.62
02.906,-10.95
02.921,-4.41
02.937,2.05
02.953,8.28
02.968,13.89
02.984,18.48
03.000,21.71
03.015,23.58
03.031,24.45
03.046,24.77
03.062,24.94
03.078,25.04
03.093,24.98
03.109,24.62
03.125,24.16
03.140,24.02
03.156,24.64
03.171,25.92
03.187,27.31
03.203,28.19
03.218,28.24
03.234,27.78
03.250,27.5
03.265,27.97
03.281,29.2
03.296,30.7
03.312,31.78
03.328,32.22
03.343,32.24
03.359,32.03
03.375,31.55
03.390,30.24
03.406,27.32
03.421,22.31
03.437,15.52
03.453,7.63
03.468,-0.53
03.484,-8.4
03.500,-16.06
03.515,-23.6
03.531,-30.91
03.546,-37.35
03.562,-42.25
03.578,-45.05
03.593,-45.65
03.609,-44.18
03.625,-40.87
03.640,-35.98
03.656,-29.62
03.671,-22.17
03.687,-14.24
03.703,-6.63
03.718,0.1
03.734,5.62
03.750,10.18
03.765,14.2
03.781,18.09
03.796,22.1
03.812,26.2
03.828,30.02
03.843,33.03
03.859,34.67
03.875,34.56
03.890,32.8
03.906,29.93
03.921,26.77
03.937,24.07
03.953,22.16
03.968,20.73
03.984,19.26
04.000,17.3
04.015,14.75
04.031,11.83
04.046,8.84
04.062,5.8
04.078,2.54
04.093,-1.08
04.109,-4.89
04.125,-8.25
04.140,-10.38
04.156,-10.64
04.171,-8.94
04.187,-5.58
04.203,-1.14
04.218,3.92
04.234,9.26
04.250,14.89
04.265,20.92
04.281,27.24
04.296,33.48
04.312,39.09
04.328,43.45
04.343,46.19
04.359,47.33
04.375,47.3
04.390,46.74
04.406,46.16
04.421,45.73
04.437,45.17
04.453,43.86
04.468,41.27
04.484,37.47
04.500,32.93
04.515,28.27
04.531,23.97
04.546,20.09
04.562,16.4
04.578,12.8
04.593,9.55
04.609,7.19
04.625,6.17
04.640,6.51
04.656,7.57
04.671,8.31
04.687,7.83
04.703,5.83
04.718,2.96
04.734,0.2
04.750,-1.48
04.765,-1.67
04.781,-0.6
04.796,1.23
04.812,3.33
04.828,5.39
04.843,7.31
04.859,9.09
04.875,10.64
04.890,11.75
04.906,12.0
04.921,11.05
04.937,8.76
04.953,5.38
04.968,1.41
04.984,-2.22
05.000,-4.37
05.015,-4.22
05.031,-1.47
05.046,3.48
05.062,9.71
05.078,16.25
05.093,22.42
05.109,27.92
05.125,32.52
05.140,36.06
05.156,38.24
05.171,39.01
05.187,38.6
05.203,37.54
05.218,36.39
05.234,35.35
05.250,34.21
05.265,32.45
05.281,29.64
05.296,25.78
05.312,21.31
05.328,16.66
05.343,12.03
05.359,7.24
05.375,1.93
05.390,-4.09
05.406,-10.69
05.421,-17.32
05.437,-23.3
05.453,-27.98
05.468,-31.0
05.484,-32.38
05.500,-32.47
05.515,-31.84
05.531,-31.03
05.546,-30.44
05.562,-30.12
05.578,-29.84
05.593,-29.2
05.609,-27.95
05.625,-25.98
05.640,-23.48
05.656,-20.73
05.671,-17.77
05.687,-14.47
05.703,-10.7
05.718,-6.6
05.734,-2.54
05.750,1.11
05.765,4.5
05.781,8.16
05.796,12.54
05.812,17.65
05.828,22.42
05.843,25.27
05.859,24.87
05.875,20.84
05.890,13.97
05.906,5.6
05.921,-3.49
05.937,-13.45
05.953,-25.26
05.968,-39.93
05.984,-57.3
06.000,-75.71
06.015,-92.52
06.031,-105.0
06.046,-111.32
06.062,-111.15
06.078,-105.16
06.093,-94.52
06.109,-80.81
06.125,-65.43
06.140,-49.76
06.156,-35.1
06.171,-22.45
06.187,-12.2
06.203,-4.27
06.218,1.78
06.234,6.43
06.250,9.77
06.265,11.7
06.281,12.24
06.296,11.66
06.312,10.63
06.328,9.84
06.343,9.56
06.359,9.65
06.375,9.7
06.390,9.42
06.406,8.99
06.421,8.88
06.437,9.72
06.453,11.81
06.468,15.1
06.484,19.09
06.500,23.3
06.515,27.26
06.531,30.5
06.546,32.37
06.562,31.93
06.578,28.06
06.593,19.92
06.609,7.52
06.625,-8.26
06.640,-25.38
06.656,-41.3
06.671,-53.71
06.687,-61.1
06.703,-63.32
06.718,-61.23
06.734,-56.5
06.750,-50.57
06.765,-44.47
06.781,-38.45
06.796,-32.34
06.812,-25.86
06.828,-18.93
06.843,-12.02
06.859,-5.72
06.875,-0.72
06.890,2.79
06.906,4.92
06.921,5.97
06.937,6.21
06.953,5.62
06.968,4.18
06.984,1.97
07.000,-0.58
07.015,-2.7
07.031,-3.64
07.046,-3.07
07.062,-1.26
07.078,1.06
07.093,3.09
07.109,4.5
07.125,5.33
07.140,6.11
07.156,7.35
07.171,9.28
07.187,11.85
07.203,14.79
07.218,17.77
07.234,20.47
07.250,22.7
07.265,24.17
07.281,24.76
07.296,24.22
07.312,22.44
07.328,19.46
07.343,15.72
07.359,11.86
07.375,8.73
07.390,7.0
07.406,6.89
07.421,8.15
07.437,10.14
07.453,12.11
07.468,13.5
07.484,14.18
07.500,14.25
07.515,14.06
07.531,13.85
07.546,13.76
07.562,13.97
07.578,14.81
07.593,16.56
07.609,19.39
07.625,22.89
07.640,26.06
07.656,27.6
07.671,26.34
07.687,21.65
07.703,13.84
07.718,3.95
07.734,-6.67
07.750,-16.74
07.765,-25.34
07.781,-32.09
07.796,-36.7
07.812,-38.93
07.828,-38.8
07.843,-36.39
07.859,-32.1
07.875,-26.53
07.890,-20.39
07.906,-14.29
07.921,-8.86
07.937,-4.33
07.953,-0.53
07.968,3.13
07.984,7.42
08.000,12.74
08.015,18.94
08.031,25.17
08.046,30.31
08.062,33.31
08.078,33.93
08.093,32.58
08.109,30.13
08.125,27.34
08.140,24.58
08.156,21.86
08.171,18.97
08.187,15.92
08.203,12.88
08.218,10.15
08.234,7.85
08.250,5.76
08.265,3.51
08.281,0.62
08.296,-3.09
08.312,-7.56
08.328,-12.47
08.343,-17.53
08.359,-22.46
08.375,-27.14
08.390,-31.66
08.406,-35.83
08.421,-39.56
08.437,-42.61
08.453,-45.05
08.468,-47.07
08.484,-49.08
08.500,-51.41
08.515,-54.03
08.531,-56.47
08.546,-57.84
08.562,-57.45
08.578,-55.11
08.593,-51.32
08.609,-46.88
08.625,-42.45
08.640,-38.27
08.656,-34.15
08.671,-29.95
08.687,-25.83
08.703,-22.28
08.718,-19.87
08.734,-18.88
08.750,-19.17
08.765,-20.28
08.781,-21.9
08.796,-23.95
08.812,-26.66
08.828,-29.97
08.843,-33.4
08.859,-36.04
08.875,-36.84
08.890,-35.46
08.906,-32.2
08.921,-27.96
08.937,-23.59
08.953,-19.59
08.968,-15.94
08.984,-12.37
09.000,-8.77
09.015,-5.28
09.031,-2.36
09.046,-0.39
09.062,0.54
09.078,0.79
09.093,0.68
09.109,0.27
09.125,-0.69
09.140,-2.63
09.156,-5.62
09.171,-9.02
09.187,-11.7
09.203,-12.42
09.218,-10.4
09.234,-5.71
09.250,0.72
09.265,7.65
09.281,13.91
09.296,18.83
09.312,22.19
09.328,24.07
09.343,24.67
09.359,24.06
09.375,22.52
09.390,20.43
09.406,18.37
09.421,16.95
09.437,16.67
09.453,17.57
09.468,19.2
09.484,20.92
09.500,21.8
09.515,21.22
09.531,19.04
09.546,15.62
09.562,11.61
09.578,7.77
09.593,4.74
09.609,2.55
09.625,0.97
09.640,-0.47
09.656,-2.13
09.671,-3.98
09.687,-5.67
09.703,-6.75
09.718,-7.0
09.734,-6.28
09.750,-4.77
09.765,-2.7
09.781,-0.34
09.796,2.1
09.812,4.35
09.828,6.29
09.843,7.97
09.859,9.76
09.875,12.31
09.890,16.31
09.906,22.08
09.921,29.5
09.937,37.95
09.953,46.53
09.968,54.21
09.984,60.34
10.000,64.41
10.015,66.05
10.031,64.93
10.046,60.71
10.062,53.25
10.078,42.67
10.093,29.44
10.109,13.96
10.125,-3.03
10.140,-20.62
10.156,-37.38
10.171,-51.39
10.187,-60.79
10.203,-64.3
10.218,-61.89
10.234,-54.88
10.250,-45.38
10.265,-35.62
10.281,-27.38
10.296,-21.85
10.312,-19.38
10.328,-20.0
10.343,-23.21
10.359,-28.28
10.375,-34.36
10.390,-40.65
10.406,-46.8
10.421,-52.99
10.437,-59.58
10.453,-66.55
10.468,-73.56
10.484,-79.56
10.500,-83.6
10.515,-85.23
10.531,-84.38
10.546,-81.27
10.562,-76.18
10.578,-69.06
10.593,-59.51
10.609,-47.44
10.625,-33.18
10.640,-17.56
10.656,-1.82
10.671,13.01
10.687,26.16
10.703,37.19
10.718,45.9
10.734,52.32
10.750,56.58
10.765,59.08
10.781,60.43
10.796,61.15
10.812,61.86
10.828,62.8
10.843,63.98
10.859,65.23
10.875,66.26
10.890,66.6
10.906,65.98
10.921,64.16
10.937,61.14
10.953,57.27
10.968,53.19
10.984,49.48
11.000,46.57
11.015,44.37
11.031,42.27
11.046,39.74
11.062,36.39
11.078,32.36
11.093,28.3
11.109,25.22
11.125,23.91
11.140,24.83
11.156,27.66
11.171,31.4
11.187,34.85
11.203,36.97
11.218,37.4
11.234,36.5
11.250,35.23
11.265,34.61
11.281,35.11
11.296,36.1
11.312,35.91
11.328,32.45
11.343,24.16
11.359,10.99
11.375,-5.37
11.390,-22.01
11.406,-35.52
11.421,-43.02
11.437,-42.72
11.453,-34.55
11.468,-20.04
11.484,-2.19
11.500,15.23
11.515,28.74
11.531,36.06
11.546,36.73
11.562,31.94
11.578,23.71
11.593,13.62
11.609,1.98
11.625,-12.41
11.640,-31.34
11.656,-56.1
11.671,-86.49
11.687,-120.34
11.703,-153.76
11.718,-182.03
11.734,-200.57
11.750,-206.32
11.765,-198.52
11.781,-178.92
11.796,-151.22
11.812,-120.09
11.828,-89.61
11.843,-62.58
11.859,-40.17
11.875,-22.06
11.890,-7.28
11.906,5.22
11.921,16.0
11.937,25.1
11.953,32.2
11.968,37.24
11.984,40.58
12.000,42.94
12.015,45.08
12.031,47.45
12.046,49.9
12.062,52.06
12.078,53.7
12.093,55.14
12.109,57.27
12.125,61.06
12.140,66.82
12.156,73.89
12.171,80.74
12.187,85.64
12.203,87.62
12.218,86.87
12.234,84.5
12.250,81.98
12.265,80.33
12.281,79.72
12.296,79.76
12.312,79.57
12.328,78.31
12.343,75.48
12.359,70.9
12.375,64.66
12.390,57.09
12.406,48.79
12.421,40.56
12.437,33.19
12.453,27.17
12.468,22.5
12.484,18.65
12.500,15.08
12.515,11.5
12.531,8.11
12.546,5.28
12.562,3.17
12.578,1.45
12.593,-0.49
12.609,-3.24
12.625,-7.1
12.640,-11.71
12.656,-16.49
12.671,-20.86
12.687,-24.43
12.703,-27.18
12.718,-29.13
12.734,-30.31
12.750,-30.64
12.765,-30.04
12.781,-28.44
12.796,-25.89
12.812,-22.66
12.828,-19.09
12.843,-15.64
12.859,-12.78
12.875,-10.82
12.890,-9.75
12.906,-9.35
12.921,-9.2
12.937,-8.97
12.953,-8.58
12.968,-8.12
12.984,-7.98
13.000,-8.39
13.015,-9.38
13.031,-10.7
13.046,-11.98
13.062,-12.87
13.078,-13.27
13.093,-13.33
13.109,-13.18
13.125,-13.12
13.140,-13.35
13.156,-13.98
13.171,-15.22
13.187,-17.21
13.203,-19.9
13.218,-23.03
13.234,-26.13
13.250,-28.58
13.265,-30.01
13.281,-30.44
13.296,-30.35
13.312,-30.49
13.328,-31.47
13.343,-33.5
13.359,-36.25
13.375,-39.19
13.390,-41.64
13.406,-43.09
13.421,-43.09
13.437,-41.37
13.453,-37.7
13.468,-32.09
13.484,-24.79
13.500,-16.42
13.515,-7.72
13.531,0.7
13.546,8.37
13.562,15.17
13.578,21.18
13.593,26.51
13.609,31.25
13.625,35.49
13.640,39.2
13.656,42.47
13.671,45.19
13.687,47.19
13.703,48.24
13.718,48.23
13.734,47.27
13.750,45.83
13.765,44.41
13.781,43.44
13.796,43.13
13.812,43.4
13.828,43.88
13.843,44.17
13.859,43.85
13.875,42.47
13.890,39.87
13.906,36.09
13.921,31.57
13.937,26.9
13.953,22.73
13.968,19.38
13.984,16.75
14.000,14.43
14.015,11.87
14.031,8.85
14.046,5.46
14.062,1.96
14.078,-1.4
14.093,-4.39
14.109,-6.93
14.125,-8.72
14.140,-9.38
14.156,-8.46
14.171,-5.74
14.187,-1.4
14.203,3.92
14.218,9.5
14.234,14.77
14.250,19.57
14.265,24.1
14.281,28.64
14.296,33.25
14.312,37.86
14.328,42.07
14.343,45.39
14.359,47.61
14.375,48.44
14.390,47.73
14.406,45.49
14.421,41.94
14.437,37.55
14.453,33.05
14.468,29.16
14.484,26.26
14.500,24.3
14.515,22.73
14.531,20.77
14.546,17.86
14.562,13.73
14.578,8.59
14.593,3.07
14.609,-2.12
14.625,-6.42
14.640,-9.44
14.656,-11.2
14.671,-12.15
14.687,-12.87
14.703,-14.07
14.718,-16.23
14.734,-19.42
14.750,-23.35
14.765,-27.53
14.781,-31.41
14.796,-34.83
14.812,-37.87
14.828,-40.72
14.843,-43.44
14.859,-45.66
14.875,-46.86
14.890,-46.65
14.906,-44.98
14.921,-42.13
14.937,-38.84
14.953,-35.67
14.968,-32.9
14.984,-30.53
15.000,-28.34
15.015,-25.98
15.031,-23.18
15.046,-19.66
15.062,-15.25
15.078,-10.1
15.093,-4.75
15.109,0.04
15.125,3.31
15.140,4.51
15.156,3.81
15.171,1.81
15.187,-0.6
15.203,-2.73
15.218,-4.49
15.234,-6.23
15.250,-8.37
15.265,-11.1
15.281,-14.14
15.296,-16.8
15.312,-18.31
15.328,-18.33
15.343,-16.96
15.359,-14.68
15.375,-12.05
15.390,-9.41
15.406,-6.96
15.421,-4.77
15.437,-3.12
15.453,-2.32
15.468,-2.84
15.484,-4.94
15.500,-8.6
15.515,-13.47
15.531,-18.99
15.546,-24.66
15.562,-29.89
15.578,-34.15
15.593,-36.87
15.609,-37.58
15.625,-36.03
15.640,-32.32
15.656,-26.72
15.671,-19.67
15.687,-11.5
15.703,-2.4
15.718,7.4
15.734,17.61
15.750,27.64
15.765,36.8
15.781,44.34
15.796,49.73
15.812,52.81
15.828,53.78
15.843,53.11
15.859,51.36
15.875,48.83
15.890,45.59
15.906,41.41
15.921,36.25
15.937,30.33
15.953,24.28
15.968,18.87
15.984,14.66
16.000,11.64
16.015,9.43
16.031,7.53
16.046,5.73
16.062,4.32
16.078,3.4
16.093,2.76
16.109,1.67
16.125,-0.72
16.140,-4.97
16.156,-10.97
16.171,-18.09
16.187,-25.42
16.203,-32.3
16.218,-38.68
16.234,-44.87
16.250,-51.23
16.265,-57.74
16.281,-64.07
16.296,-69.58
16.312,-73.68
16.328,-76.06
16.343,-76.66
16.359,-75.79
16.375,-73.79
16.390,-70.9
16.406,-67.22
16.421,-62.83
16.437,-57.9
16.453,-52.78
16.468,-47.97
16.484,-43.81
16.500,-40.33
16.515,-37.24
16.531,-34.34
16.546,-31.79
16.562,-29.98
16.578,-29.37
16.593,-30.09
16.609,-31.85
16.625,-34.05
16.640,-35.98
16.656,-37.05
16.671,-36.93
16.687,-35.54
16.703,-32.9
16.718,-29.18
16.734,-24.7
16.750,-20.0
16.765,-15.67
16.781,-12.06
16.796,-9.21
16.812,-6.63
16.828,-3.92
16.843,-0.85
16.859,2.3
16.875,4.78
16.890,5.82
16.906,5.06
16.921,2.68
16.937,-0.77
16.953,-4.62
16.968,-8.61
16.984,-12.82
17.000,-17.57
17.015,-23.06
17.031,-29.01
17.046,-34.69
17.062,-39.01
17.078,-41.03
17.093,-40.38
17.109,-37.46
17.125,-33.02
17.140,-27.94
17.156,-22.87
17.171,-17.91
17.187,-12.78
17.203,-7.4
17.218,-2.09
17.234,2.38
17.250,5.42
17.265,6.95
17.281,7.65
17.296,8.5
17.312,10.16
17.328,12.58
17.343,14.86
17.359,16.09
17.375,15.75
17.390,14.42
17.406,13.3
17.421,13.53
17.437,15.58
17.453,18.92
17.468,22.32
17.484,24.71
17.500,25.76
17.515,25.91
17.531,26.02
17.546,26.63
17.562,27.26
17.578,26.68
17.593,23.43
17.609,16.68
17.625,7.16
17.640,-3.0
17.656,-11.48
17.671,-16.86
17.687,-19.35
17.703,-20.84
17.718,-23.57
17.734,-28.89
17.750,-36.36
17.765,-43.89
17.781,-48.88
17.796,-49.46
17.812,-45.27
17.828,-37.25
17.843,-27.01
17.859,-15.95
17.875,-5.02
17.890,5.39
17.906,15.11
17.921,23.85
17.937,31.21
17.953,36.76
17.968,40.14
17.984,41.35
18.000,40.9
18.015,39.51
18.031,37.82
18.046,36.04
18.062,33.87
18.078,30.77
18.093,26.47
18.109,21.27
18.125,15.99
18.140,11.88
18.156,9.85
18.171,10.06
18.187,11.93
18.203,14.35
18.218,16.17
18.234,16.6
18.250,15.47
18.265,12.91
18.281,9.41
18.296,5.46
18.312,1.35
18.328,-2.86
18.343,-7.2
18.359,-11.75
18.375,-16.48
18.390,-21.21
18.406,-25.72
18.421,-29.82
18.437,-33.39
18.453,-36.28
18.468,-38.4
18.484,-39.38
18.500,-38.69
18.515,-35.72
18.531,-30.16
18.546,-22.22
18.562,-12.75
18.578,-3.05
18.593,5.69
18.609,12.76
18.625,18.07
18.640,22.11
18.656,25.55
18.671,28.85
18.687,32.16
18.703,35.23
18.718,37.79
18.734,39.7
18.750,41.18
18.765,42.39
18.781,43.54
18.796,44.7
18.812,45.79
18.828,46.83
18.843,47.87
18.859,48.99
18.875,50.24
18.890,51.55
18.906,52.63
18.921,53.05
18.937,52.34
18.953,50.2
18.968,46.65
18.984,42.07
19.000,37.01
19.015,32.03
19.031,27.43
19.046,23.26
19.062,19.4
19.078,15.61
19.093,11.73
19.109,7.89
19.125,4.2
19.140,0.76
19.156,-2.35
19.171,-5.32
19.187,-8.28
19.203,-11.15
19.218,-13.69
19.234,-15.47
19.250,-15.88
19.265,-14.62
19.281,-11.79
19.296,-7.6
19.312,-2.62
19.328,2.72
19.343,8.3
19.359,14.09
19.375,20.15
19.390,26.28
19.406,32.26
19.421,37.68
19.437,42.53
19.453,46.91
19.468,51.14
19.484,55.37
19.500,59.27
19.515,62.19
19.531,63.26
19.546,61.92
19.562,58.09
19.578,52.39
19.593,45.68
19.609,38.96
19.625,33.07
19.640,28.32
19.656,24.73
19.671,21.98
19.687,19.52
19.703,16.77
19.718,13.37
19.734,9.3
19.750,4.93
19.765,1.0
19.781,-1.99
19.796,-3.8
19.812,-4.76
19.828,-5.48
19.843,-6.44
19.859,-7.94
19.875,-9.86
19.890,-12.13
19.906,-14.8
19.921,-18.16
19.937,-22.37
19.953,-27.21
19.968,-32.02
19.984,-35.62
20.000,-37.03
20.015,-35.62
20.031,-31.48
20.046,-25.21
20.062,-17.71
20.078,-9.72
20.093,-1.82
20.109,5.65
20.125,12.45
20.140,18.47
20.156,23.67
20.171,28.01
20.187,31.49
20.203,34.01
20.218,35.47
20.234,35.82
20.250,35.24
20.265,34.04
20.281,32.64
20.296,31.32
20.312,30.15
20.328,29.0
20.343,27.7
20.359,26.11
20.375,24.27
20.390,22.35
20.406,20.27
20.421,17.8
20.437,14.56
20.453,10.26
20.468,4.88
20.484,-1.27
20.500,-7.73
20.515,-13.99
20.531,-19.63
20.546,-24.38
20.562,-28.17
20.578,-31.1
20.593,-33.55
20.609,-35.91
20.625,-38.69
20.640,-41.96
20.656,-45.36
20.671,-48.15
20.687,-49.42
20.703,-48.53
20.718,-45.37
20.734,-40.36
20.750,-34.05
20.765,-27.08
20.781,-19.84
20.796,-12.67
20.812,-5.86
20.828,0.17
20.843,5.21
20.859,9.17
20.875,12.06
20.890,14.07
20.906,15.22
20.921,15.46
20.937,14.83
20.953,13.54
20.968,11.91
20.984,10.44
21.000,9.2
21.015,7.99
21.031,6.42
21.046,4.22
21.062,1.4
21.078,-1.64
21.093,-4.48
21.109,-6.87
21.125,-8.81
21.140,-10.44
21.156,-11.83
21.171,-12.83
21.187,-13.37
21.203,-13.52
21.218,-13.75
21.234,-14.54
21.250,-16.19
21.265,-18.55
21.281,-21.18
21.296,-23.66
21.312,-25.71
21.328,-27.6
21.343,-29.64
21.359,-31.89
21.375,-34.04
21.390,-35.39
21.406,-35.04
21.421,-32.44
21.437,-27.52
21.453,-20.54
21.468,-12.27
21.484,-3.71
21.500,4.08
21.515,10.18
21.531,14.13
21.546,16.12
21.562,16.9
21.578,17.36
21.593,18.32
21.609,20.08
21.625,22.4
21.640,24.7
21.656,26.41
21.671,27.22
21.687,27.18
21.703,26.68
21.718,26.1
21.734,25.83
21.750,26.11
21.765,26.93
21.781,28.08
21.796,29.09
21.812,29.54
21.828,29.11
21.843,27.73
21.859,25.65
21.875,23.26
21.890,20.77
21.906,18.21
21.921,15.45
21.937,12.17
21.953,8.17
21.968,3.5
21.984,-1.61
22.000,-6.93
22.015,-12.26
22.031,-17.6
22.046,-22.93
22.062,-28.2
22.078,-33.15
22.093,-37.36
22.109,-40.29
22.125,-41.4
22.140,-40.46
22.156,-37.51
22.171,-32.9
22.187,-27.17
22.203,-20.91
22.218,-14.59
22.234,-8.59
22.250,-3.14
22.265,1.58
22.281,5.44
22.296,8.42
22.312,10.73
22.328,12.7
22.343,14.66
22.359,16.73
22.375,18.84
22.390,20.85
22.406,22.71
22.421,24.56
22.437,26.93
22.453,30.1
22.468,34.11
22.484,38.49
22.500,42.41
22.515,45.15
22.531,46.3
22.546,46.05
22.562,44.7
22.578,42.74
22.593,40.42
22.609,37.74
22.625,34.73
22.640,31.41
22.656,27.93
22.671,24.45
22.687,21.03
22.703,17.51
22.718,13.67
22.734,9.29
22.750,4.38
22.765,-0.9
22.781,-6.45
22.796,-12.33
22.812,-18.68
22.828,-25.63
22.843,-33.1
22.859,-40.69
22.875,-47.88
22.890,-53.98
22.906,-58.35
22.921,-60.66
22.937,-60.7
22.953,-58.41
22.968,-53.79
22.984,-46.9
23.000,-38.06
23.015,-27.89
23.031,-17.5
23.046,-8.02
23.062,-0.59
23.078,4.05
23.093,5.61
23.109,4.25
23.125,0.59
23.140,-4.65
23.156,-10.59
23.171,-16.44
23.187,-21.42
23.203,-24.78
23.218,-25.94
23.234,-24.72
23.250,-21.38
23.265,-16.49
23.281,-10.87
23.296,-5.33
23.312,-0.67
23.328,2.5
23.343,3.87
23.359,3.52
23.375,1.8
23.390,-0.74
23.406,-3.53
23.421,-6.23
23.437,-8.85
23.453,-11.6
23.468,-14.82
23.484,-18.62
23.500,-22.84
23.515,-27.08
23.531,-30.8
23.546,-33.55
23.562,-34.91
23.578,-34.64
23.593,-32.54
23.609,-28.6
23.625,-22.88
23.640,-15.77
23.656,-7.74
23.671,0.55
23.687,8.41
23.703,15.36
23.718,20.96
23.734,25.02
23.750,27.48
23.765,28.46
23.781,28.15
23.796,26.77
23.812,24.53
23.828,21.5
23.843,17.96
23.859,14.23
23.875,10.71
23.890,7.8
23.906,5.52
23.921,3.46
23.937,0.92
23.953,-2.65
23.968,-7.37
23.984,-12.58
24.000,-17.18
24.015,-20.19
24.031,-21.15
24.046,-20.47
24.062,-18.95
24.078,-17.43
24.093,-16.15
24.109,-14.93
24.125,-13.35
24.140,-11.27
24.156,-9.15
24.171,-7.82
24.187,-8.26
24.203,-10.98
24.218,-15.88
24.234,-22.28
24.250,-29.29
24.265,-36.11
24.281,-42.18
24.296,-47.2
24.312,-50.83
24.328,-52.69
24.343,-52.36
24.359,-49.48
24.375,-44.0
24.390,-36.29
24.406,-27.17
24.421,-17.67
24.437,-8.76
24.453,-1.05
24.468,5.32
24.484,10.7
24.500,15.65
24.515,20.51
24.531,25.25
24.546,29.45
24.562,32.51
24.578,34.08
24.593,34.13
24.609,33.07
24.625,31.45
24.640,29.79
24.656,28.22
24.671,26.57
24.687,24.59
24.703,22.14
24.718,19.29
24.734,16.39
24.750,13.85
24.765,11.98
24.781,10.75
24.796,9.76
24.812,8.39
24.828,6.12
24.843,2.79
24.859,-1.26
24.875,-5.37
24.890,-8.9
24.906,-11.57
24.921,-13.69
24.937,-15.92
24.953,-18.87
24.968,-22.89
24.984,-27.78
25.000,-32.96
25.015,-37.89
25.031,-42.14
25.046,-45.5
25.062,-47.76
25.078,-48.74
25.093,-48.12
25.109,-45.68
25.125,-41.5
25.140,-35.94
25.156,-29.59
25.171,-23.07
25.187,-17.0
25.203,-11.71
25.218,-7.24
25.234,-3.48
25.250,-0.16
25.265,2.94
25.281,5.83
25.296,8.29
25.312,10.13
25.328,11.11
25.343,11.2
25.359,10.55
25.375,9.36
25.390,7.77
25.406,5.92
25.421,4.0
25.437,2.11
25.453,0.48
25.468,-0.78
25.484,-1.67
25.500,-2.14
25.515,-2.26
25.531,-1.98
25.546,-1.46
25.562,-0.85
25.578,-0.57
25.593,-1.01
25.609,-2.4
25.625,-4.6
25.640,-7.19
25.656,-9.77
25.671,-12.06
25.687,-14.22
25.703,-16.54
25.718,-19.3
25.734,-22.45
25.750,-25.59
25.765,-28.1
25.781,-29.31
25.796,-28.83
25.812,-26.54
25.828,-22.59
25.843,-17.17
25.859,-10.52
25.875,-2.78
25.890,5.87
25.906,15.09
25.921,24.5
25.937,33.51
25.953,41.65
25.968,48.62
25.984,54.43
26.000,59.28
26.015,63.3
26.031,66.41
26.046,68.37
26.062,69.07
26.078,68.77
26.093,68.07
26.109,67.7
26.125,68.12
26.140,69.23
26.156,70.56
26.171,71.49
26.187,71.66
26.203,71.06
26.218,69.83
26.234,68.12
26.250,65.94
26.265,63.29
26.281,60.3
26.296,57.21
26.312,54.28
26.328,51.4
26.343,48.06
26.359,43.49
26.375,36.96
26.390,28.29
26.406,17.86
26.421,6.58
26.437,-4.53
26.453,-14.6
26.468,-23.35
26.484,-30.85
26.500,-37.34
26.515,-43.01
26.531,-47.86
26.546,-51.65
26.562,-54.17
26.578,-55.32
26.593,-55.21
26.609,-54.34
26.625,-53.18
26.640,-52.08
26.656,-50.95
26.671,-49.39
26.687,-46.85
26.703,-42.88
26.718,-37.49
26.734,-31.04
26.750,-24.11
26.765,-17.26
26.781,-10.77
26.796,-4.66
26.812,1.11
26.828,6.58
26.843,11.6
26.859,16.02
26.875,19.75
26.890,22.87
26.906,25.4
26.921,27.17
26.937,27.73
26.953,26.56
26.968,23.26
26.984,17.83
27.000,10.59
27.015,2.14
27.031,-7.06
27.046,-16.67
27.062,-26.32
27.078,-35.64
27.093,-43.97
27.109,-50.72
27.125,-55.56
27.140,-58.6
27.156,-60.33
27.171,-61.36
27.187,-62.09
27.203,-62.38
27.218,-61.74
27.234,-59.47
27.250,-54.94
27.265,-47.86
27.281,-38.38
27.296,-27.3
27.312,-15.77
27.328,-5.15
27.343,3.48
27.359,9.7
27.375,13.76
27.390,16.48
27.406,18.68
27.421,20.92
27.437,23.15
27.453,25.09
27.468,26.33
27.484,26.74
27.500,26.31
27.515,25.1
27.531,23.07
27.546,19.95
27.562,15.72
27.578,10.54
27.593,5.01
27.609,-0.17
27.625,-4.35
27.640,-7.27
27.656,-8.98
27.671,-9.71
27.687,-9.81
27.703,-9.41
27.718,-8.74
27.734,-8.0
27.750,-7.48
27.765,-7.44
27.781,-8.04
27.796,-9.26
27.812,-11.01
27.828,-13.21
27.843,-15.8
27.859,-18.87
27.875,-22.38
27.890,-26.1
27.906,-29.82
27.921,-33.29
27.937,-36.34
27.953,-38.85
27.968,-40.61
27.984,-41.23
28.000,-40.26
28.015,-37.37
28.031,-32.52
28.046,-26.17
28.062,-19.06
28.078,-11.93
28.093,-5.26
28.109,0.86
28.125,6.65
28.140,12.32
28.156,18.0
28.171,23.45
28.187,28.33
28.203,32.29
28.218,35.21
28.234,37.27
28.250,38.6
28.265,39.36
28.281,39.4
28.296,38.58
28.312,36.83
28.328,34.35
28.343,31.68
28.359,29.3
28.375,27.5
28.390,26.17
28.406,25.04
28.421,23.7
28.437,21.92
28.453,19.7
28.468,17.2
28.484,14.52
28.500,11.72
28.515,8.79
28.531,5.66
28.546,2.3
28.562,-1.41
28.578,-5.71
28.593,-10.85
28.609,-16.93
28.625,-23.79
28.640,-30.89
28.656,-37.37
28.671,-42.38
28.687,-45.2
28.703,-45.3
28.718,-42.5
28.734,-36.84
28.750,-28.7
28.765,-18.72
28.781,-7.87
28.796,2.89
28.812,12.71
28.828,21.06
28.843,27.76
28.859,32.86
28.875,36.34
28.890,38.12
28.906,38.22
28.921,36.81
28.937,34.44
28.953,31.8
28.968,29.49
28.984,27.92
29.000,27.1
29.015,26.86
29.031,26.88
29.046,26.91
29.062,26.74
29.078,26.25
29.093,25.44
29.109,24.39
29.125,23.23
29.140,21.92
29.156,20.36
29.171,18.36
29.187,15.75
29.203,12.39
29.218,8.24
29.234,3.2
29.250,-2.91
29.265,-10.19
29.281,-18.61
29.296,-27.69
29.312,-36.79
29.328,-45.23
29.343,-52.75
29.359,-59.55
29.375,-66.04
29.390,-72.41
29.406,-78.07
29.421,-81.89
29.437,-82.38
29.453,-78.53
29.468,-70.45
29.484,-59.05
29.500,-45.66
29.515,-31.29
29.531,-16.3
29.546,-0.65
29.562,15.38
29.578,31.07
29.593,45.35
29.609,57.22
29.625,66.39
29.640,73.15
29.656,78.06
29.671,81.2
29.687,82.28
29.703,80.61
29.718,75.95
29.734,68.9
29.750,60.81
29.765,53.22
29.781,47.11
29.796,42.8
29.812,39.72
29.828,37.31
29.843,35.09
29.859,32.7
29.875,29.91
29.890,26.37
29.906,21.88
29.921,16.33
29.937,10.16
29.953,4.04
29.968,-1.35
29.984,-5.78
30.000,-9.57
30.015,-13.36
30.031,-17.65
30.046,-22.37
30.062,-27.08
30.078,-31.21
30.093,-34.52
30.109,-37.22
30.125,-39.81
30.140,-42.77
30.156,-45.93
30.171,-48.55
30.187,-49.52
30.203,-47.86
30.218,-43.38
30.234,-36.76
30.250,-29.2
30.265,-21.99
30.281,-16.1
30.296,-11.71
30.312,-8.5
30.328,-5.83
30.343,-3.12
30.359,-0.25
30.375,2.65
30.390,5.22
30.406,7.2
30.421,8.46
30.437,9.22
30.453,9.81
30.468,10.61
30.484,11.98
30.500,13.94
30.515,16.24
30.531,18.5
30.546,20.18
30.562,20.88
30.578,20.48
30.593,19.02
30.609,16.73
30.625,13.88
30.640,10.59
30.656,6.79
30.671,2.43
30.687,-2.63
30.703,-8.15
30.718,-13.67
30.734,-18.76
30.750,-23.26
30.765,-27.31
30.781,-31.33
30.796,-35.76
30.812,-40.77
30.828,-46.21
30.843,-51.63
30.859,-56.61
30.875,-60.77
30.890,-63.78
30.906,-65.26
30.921,-64.86
30.937,-62.33
30.953,-57.78
30.968,-51.69
30.984,-44.77
31.000,-37.64
31.015,-30.66
31.031,-23.82
31.046,-16.82
31.062,-9.51
31.078,-2.16
31.093,4.69
31.109,10.38
31.125,14.61
31.140,17.71
31.156,20.26
31.171,22.96
31.187,26.22
31.203,30.09
31.218,34.29
31.234,38.48
31.250,42.28
31.265,45.37
31.281,47.59
31.296,48.76
31.312,48.72
31.328,47.48
31.343,45.06
31.359,41.56
31.375,37.16
31.390,31.96
31.406,26.13
31.421,19.95
31.437,13.79
31.453,7.96
31.468,2.78
31.484,-1.7
31.500,-5.61
31.515,-9.19
31.531,-12.79
31.546,-16.79
31.562,-21.23
31.578,-26.07
31.593,-30.89
31.609,-34.97
31.625,-37.55
31.640,-38.05
31.656,-36.15
31.671,-31.95
31.687,-26.01
31.703,-19.06
31.718,-11.95
31.734,-5.34
31.750,0.59
31.765,5.94
31.781,11.05
31.796,16.34
31.812,21.94
31.828,27.67
31.843,33.15
31.859,37.86
31.875,41.51
31.890,44.07
31.906,45.67
31.921,46.63
31.937,47.31
31.953,47.89
31.968,48.52
31.984,49.27
32.000,50.06
32.015,50.69
32.031,50.8
32.046,49.91
32.062,47.81
32.078,44.76
32.093,41.37
32.109,38.38
32.125,36.13
32.140,34.17
32.156,31.37
32.171,26.35
32.187,18.27
32.203,7.28
32.218,-5.64
32.234,-19.36
32.250,-32.97
32.265,-45.95
32.281,-57.98
32.296,-68.41
32.312,-76.29
32.328,-80.63
32.343,-80.87
32.359,-77.24
32.375,-70.61
32.390,-62.02
32.406,-52.38
32.421,-42.27
32.437,-32.16
32.453,-22.56
32.468,-14.03
32.484,-6.85
32.500,-1.07
32.515,3.6
32.531,7.61
32.546,11.05
32.562,13.9
32.578,16.04
32.593,17.51
32.609,18.57
32.625,19.41
32.640,20.02
32.656,20.0
32.671,19.02
32.687,16.93
32.703,14.16
32.718,11.43
32.734,9.49
32.750,8.6
32.765,8.59
32.781,8.92
32.796,9.09
32.812,8.8
32.828,7.86
32.843,6.4
32.859,4.59
32.875,2.68
32.890,0.99
32.906,-0.28
32.921,-1.14
32.937,-1.96
32.953,-3.27
32.968,-5.62
32.984,-9.13
33.000,-13.48
33.015,-18.1
33.031,-22.32
33.046,-25.7
33.062,-27.88
33.078,-28.64
33.093,-27.6
33.109,-24.46
33.125,-19.12
33.140,-11.77
33.156,-3.23
33.171,5.53
33.187,13.46
33.203,19.97
33.218,24.87
33.234,28.4
33.250,31.0
33.265,33.18
33.281,35.46
33.296,38.18
33.312,41.58
33.328,45.51
33.343,49.5
33.359,52.92
33.375,55.19
33.390,55.9
33.406,55.01
33.421,52.71
33.437,49.45
33.453,45.81
33.468,42.44
33.484,39.92
33.500,38.7
33.515,38.8
33.531,39.88
33.546,41.26
33.562,42.18
33.578,42.06
33.593,40.63
33.609,37.77
33.625,33.5
33.640,28.0
33.656,21.57
33.671,14.57
33.687,7.17
33.703,-0.69
33.718,-9.35
33.734,-18.81
33.750,-28.38
33.765,-36.47
33.781,-41.0
33.796,-40.45
33.812,-34.77
33.828,-25.51
33.843,-15.22
33.859,-6.37
33.875,-0.13
33.890,3.63
33.906,5.96
33.921,7.89
33.937,9.93
33.953,12.01
33.968,14.01
33.984,16.26
34.000,19.28
34.015,23.53
34.031,28.77
34.046,34.12
34.062,38.21
34.078,40.0
34.093,39.19
34.109,36.3
34.125,32.48
34.140,28.67
34.156,25.5
34.171,22.96
34.187,20.77
34.203,18.68
34.218,16.51
34.234,14.26
34.250,11.81
34.265,9.03
34.281,5.5
34.296,1.16
34.312,-3.74
34.328,-8.74
34.343,-13.27
34.359,-17.06
34.375,-20.23
34.390,-23.19
34.406,-26.29
34.421,-29.8
34.437,-33.47
34.453,-36.77
34.468,-39.19
34.484,-40.35
34.500,-40.09
34.515,-38.39
34.531,-35.3
34.546,-30.63
34.562,-24.39
34.578,-16.78
34.593,-8.33
34.609,0.09
34.625,7.66
34.640,13.92
34.656,18.87
34.671,22.78
34.687,26.1
34.703,28.98
34.718,31.3
34.734,32.85
34.750,33.43
34.765,33.16
34.781,32.22
34.796,30.68
34.812,28.48
34.828,25.56
34.843,21.92
34.859,17.81
34.875,13.67
34.890,9.85
34.906,6.54
34.921,3.63
34.937,0.76
34.953,-2.47
34.968,-6.34
34.984,-11.01
35.000,-16.46
35.015,-22.18
35.031,-27.44
35.046,-31.22
35.062,-32.73
35.078,-31.88
35.093,-29.5
35.109,-26.93
35.125,-25.5
35.140,-25.87
35.156,-27.52
35.171,-29.22
35.187,-29.6
35.203,-27.83
35.218,-23.85
35.234,-18.25
35.250,-11.6
35.265,-4.48
35.281,2.54
35.296,8.73
35.312,13.35
35.328,16.06
35.343,17.26
35.359,17.86
35.375,18.88
35.390,20.61
35.406,22.29
35.421,22.61
35.437,20.51
35.453,15.93
35.468,10.12
35.484,4.96
35.500,2.0
35.515,1.81
35.531,3.76
35.546,6.66
35.562,9.2
35.578,10.44
35.593,9.51
35.609,5.9
35.625,-0.57
35.640,-9.46
35.656,-19.66
35.671,-29.78
35.687,-38.45
35.703,-44.83
35.718,-48.54
35.734,-49.72
35.750,-48.51
35.765,-45.14
35.781,-39.82
35.796,-33.06
35.812,-25.67
35.828,-18.57
35.843,-12.59
35.859,-8.1
35.875,-5.09
35.890,-2.96
35.906,-1.03
35.921,1.24
35.937,4.1
35.953,7.23
35.968,10.09
35.984,12.09
36.000,12.93
36.015,12.83
36.031,12.37
36.046,12.01
36.062,11.61
36.078,10.68
36.093,8.61
36.109,5.48
36.125,2.06
36.140,-0.38
36.156,-0.53
36.171,2.19
36.187,7.53
36.203,14.57
36.218,22.4
36.234,30.37
36.250,38.12
36.265,45.39
36.281,51.57
36.296,56.04
36.312,58.18
36.328,57.89
36.343,55.62
36.359,52.29
36.375,48.98
36.390,46.23
36.406,44.12
36.421,42.04
36.437,39.15
36.453,34.61
36.468,28.27
36.484,20.7
36.500,13.26
36.515,7.67
36.531,5.08
36.546,5.66
36.562,8.18
36.578,10.65
36.593,11.22
36.609,9.38
36.625,6.21
36.640,3.81
36.656,4.33
36.671,8.52
36.687,15.31
36.703,21.95
36.718,25.14
36.734,22.52
36.750,13.43
36.765,-0.98
36.781,-18.45
36.796,-36.19
36.812,-51.89
36.828,-64.14
36.843,-73.17
36.859,-81.06
36.875,-91.06
36.890,-106.83
36.906,-130.69
36.921,-161.98
36.937,-196.05
36.953,-225.23
36.968,-240.97
36.984,-237.24
37.000,-212.88
37.015,-171.92
37.031,-122.05
37.046,-71.8
37.062,-28.05
37.078,5.38
37.093,27.42
37.109,39.29
37.125,43.49
37.140,43.15
37.156,41.67
37.171,41.91
37.187,45.71
37.203,53.19
37.218,62.77
37.234,71.59
37.250,76.8
37.265,76.31
37.281,69.43
37.296,56.81
37.312,40.08
37.328,21.46
37.343,3.06
37.359,-13.57
37.375,-27.69
37.390,-39.04
37.406,-47.53
37.421,-52.92
37.437,-54.71
37.453,-52.49
37.468,-46.3
37.484,-36.82
37.500,-25.23
37.515,-12.92
37.531,-1.11
37.546,9.3
37.562,17.82
37.578,24.41
37.593,29.35
37.609,33.06
37.625,35.86
37.640,37.94
37.656,39.35
37.671,40.17
37.687,40.47
37.703,40.37
37.718,39.87
37.734,38.94
37.750,37.43
37.765,35.17
37.781,32.21
37.796,28.79
37.812,25.25
37.828,21.85
37.843,18.54
37.859,15.21
37.875,11.74
37.890,8.17
37.906,4.74
37.921,1.55
37.937,-1.4
37.953,-4.34
37.968,-7.48
37.984,-10.88
38.000,-14.24
38.015,-17.24
38.031,-19.76
38.046,-22.06
38.062,-24.6
38.078,-27.7
38.093,-31.12
38.109,-34.07
38.125,-35.47
38.140,-34.45
38.156,-30.83
38.171,-25.13
38.187,-18.4
38.203,-11.62
38.218,-5.45
38.234,0.03
38.250,5.05
38.265,9.79
38.281,14.16
38.296,17.95
38.312,20.88
38.328,22.87
38.343,23.98
38.359,24.41
38.375,24.49
38.390,24.28
38.406,23.82
38.421,23.06
38.437,21.98
38.453,20.65
38.468,19.22
38.484,17.71
38.500,16.13
38.515,14.63
38.531,13.34
38.546,12.36
38.562,11.58
38.578,10.69
38.593,9.28
38.609,7.08
38.625,3.92
38.640,-0.06
38.656,-4.59
38.671,-9.34
38.687,-13.96
38.703,-18.19
38.718,-21.77
38.734,-24.62
38.750,-26.78
38.765,-28.36
38.781,-29.55
38.796,-30.51
38.812,-31.25
38.828,-31.7
38.843,-31.7
38.859,-31.17
38.875,-29.82
38.890,-27.49
38.906,-24.1
38.921,-19.83
38.937,-15.08
38.953,-10.34
38.968,-6.06
38.984,-2.46
39.000,0.51
39.015,3.22
39.031,6.0
39.046,9.17
39.062,12.57
39.078,15.76
39.093,18.19
39.109,19.42
39.125,19.26
39.140,17.96
39.156,16.05
39.171,14.17
39.187,12.75
39.203,11.81
39.218,10.9
39.234,9.43
39.250,7.12
39.265,4.26
39.281,1.62
39.296,0.01
39.312,-0.28
39.328,0.35
39.343,1.02
39.359,0.76
39.375,-0.89
39.390,-3.75
39.406,-7.1
39.421,-10.28
39.437,-12.92
39.453,-15.06
39.468,-16.94
39.484,-18.84
39.500,-20.98
39.515,-23.4
39.531,-26.06
39.546,-28.66
39.562,-30.85
39.578,-32.26
39.593,-32.77
39.609,-32.37
39.625,-31.21
39.640,-29.43
39.656,-27.01
39.671,-23.75
39.687,-19.57
39.703,-14.65
39.718,-9.44
39.734,-4.55
39.750,-0.4
39.765,2.89
39.781,5.49
39.796,7.69
39.812,9.54
39.828,10.91
39.843,11.64
39.859,11.83
39.875,11.76
39.890,11.87
39.906,12.59
39.921,13.91
39.937,15.56
39.953,16.93
39.968,17.5
39.984,17.11
40.000,15.98
40.015,14.59
40.031,13.17
40.046,11.7
40.062,9.78
40.078,7.17
40.093,3.97
40.109,0.87
40.125,-1.3
40.140,-2.07
40.156,-1.73
40.171,-1.14
40.187,-1.3
40.203,-2.74
40.218,-5.26
40.234,-8.29
40.250,-11.11
40.265,-13.41
40.281,-15.23
40.296,-16.6
40.312,-17.31
40.328,-16.77
40.343,-14.35
40.359,-9.61
40.375,-2.77
40.390,5.39
40.406,13.84
40.421,21.7
40.437,28.42
40.453,33.85
40.468,38.04
40.484,41.0
40.500,42.59
40.515,42.7
40.531,41.31
40.546,38.76
40.562,35.63
40.578,32.32
40.593,28.92
40.609,25.17
40.625,20.66
40.640,15.13
40.656,8.82
40.671,2.46
40.687,-2.96
40.703,-6.77
40.718,-8.84
40.734,-9.92
40.750,-11.18
40.765,-13.92
40.781,-19.1
40.796,-27.02
40.812,-37.29
40.828,-48.77
40.843,-60.11
40.859,-69.81
40.875,-76.59
40.890,-79.49
40.906,-78.07
40.921,-72.33
40.937,-62.83
40.953,-50.81
40.968,-37.86
40.984,-25.73
41.000,-15.91
41.015,-9.12
41.031,-5.23
41.046,-3.24
41.062,-1.67
41.078,0.88
41.093,5.2
41.109,11.3
41.125,18.56
41.140,26.19
41.156,33.62
41.171,40.65
41.187,47.54
41.203,54.7
41.218,62.44
41.234,70.67
41.250,79.06
41.265,86.98
41.281,93.7
41.296,98.51
41.312,100.61
41.328,99.32
41.343,94.19
41.359,85.14
41.375,72.58
41.390,57.57
41.406,41.45
41.421,25.66
41.437,11.39
41.453,-0.9
41.468,-11.38
41.484,-20.49
41.500,-28.79
41.515,-36.54
41.531,-43.71
41.546,-50.18
41.562,-55.92
41.578,-60.99
41.593,-65.43
41.609,-69.17
41.625,-72.02
41.640,-73.75
41.656,-74.26
41.671,-73.79
41.687,-72.76
41.703,-71.61
41.718,-70.61
41.734,-69.69
41.750,-68.51
41.765,-66.79
41.781,-64.39
41.796,-61.27
41.812,-57.46
41.828,-52.93
41.843,-47.52
41.859,-41.18
41.875,-33.89
41.890,-25.82
41.906,-17.29
41.921,-8.86
41.937,-1.1
41.953,5.5
41.968,10.62
41.984,14.24
42.000,16.59
42.015,18.08
42.031,18.93
42.046,19.33
42.062,19.22
42.078,18.44
42.093,16.87
42.109,14.62
42.125,12.06
42.140,9.65
42.156,7.86
42.171,6.9
42.187,6.67
42.203,6.83
42.218,6.92
42.234,6.47
42.250,5.16
42.265,3.06
42.281,0.26
42.296,-2.99
42.312,-6.48
42.328,-10.08
42.343,-13.69
42.359,-17.31
42.375,-20.94
42.390,-24.66
42.406,-28.4
42.421,-32.1
42.437,-35.67
42.453,-39.13
42.468,-42.44
42.484,-45.49
42.500,-47.94
42.515,-49.08
42.531,-48.3
42.546,-45.12
42.562,-39.59
42.578,-32.21
42.593,-23.94
42.609,-15.62
42.625,-7.85
42.640,-0.82
42.656,5.61
42.671,11.57
42.687,17.0
42.703,21.55
42.718,24.99
42.734,27.09
42.750,28.03
42.765,28.19
42.781,28.1
42.796,28.06
42.812,28.08
42.828,27.83
42.843,26.86
42.859,24.97
42.875,22.26
42.890,19.28
42.906,16.64
42.921,14.69
42.937,13.4
42.953,12.28
42.968,10.86
42.984,9.02
43.000,6.94
43.015,5.01
43.031,3.43
43.046,2.04
43.062,0.46
43.078,-1.63
43.093,-4.31
43.109,-7.33
43.125,-10.32
43.140,-13.14
43.156,-15.81
43.171,-18.58
43.187,-21.46
43.203,-24.28
43.218,-26.58
43.234,-27.81
43.250,-27.53
43.265,-25.52
43.281,-21.8
43.296,-16.58
43.312,-10.3
43.328,-3.46
43.343,3.32
43.359,9.59
43.375,15.09
43.390,19.79
43.406,23.67
43.421,26.71
43.437,28.87
43.453,30.2
43.468,30.95
43.484,31.53
43.500,32.31
43.515,33.34
43.531,34.43
43.546,35.04
43.562,34.79
43.578,33.68
43.593,32.13
43.609,30.62
43.625,29.41
43.640,28.33
43.656,26.96
43.671,24.99
43.687,22.48
43.703,19.9
43.718,17.62
43.734,15.71
43.750,13.81
43.765,11.34
43.781,7.92
43.796,3.65
43.812,-0.93
43.828,-5.12
43.843,-8.42
43.859,-10.81
43.875,-12.78
43.890,-15.03
43.906,-18.15
43.921,-22.32
43.937,-27.07
43.953,-31.37
43.968,-33.91
43.984,-33.67
44.000,-30.2
44.015,-24.11
44.031,-16.53
44.046,-8.63
44.062,-1.2
44.078,5.73
44.093,12.4
44.109,18.93
44.125,25.06
44.140,30.29
44.156,34.04
44.171,36.26
44.187,37.32
44.203,37.77
44.218,37.99
44.234,37.96
44.250,37.47
44.265,36.36
44.281,34.75
44.296,32.8
44.312,30.59
44.328,28.02
44.343,24.83
44.359,20.94
44.375,16.63
44.390,12.37
44.406,8.64
44.421,5.66
44.437,3.24
44.453,0.92
44.468,-1.72
44.484,-5.05
44.500,-9.05
44.515,-13.46
44.531,-17.81
44.546,-21.4
44.562,-23.69
44.578,-24.4
44.593,-23.89
44.609,-22.88
44.625,-22.37
44.640,-22.95
44.656,-24.68
44.671,-27.22
44.687,-29.97
44.703,-32.4
44.718,-34.02
44.734,-34.3
44.750,-32.56
44.765,-28.4
44.781,-21.88
44.796,-13.78
44.812,-5.37
44.828,2.2
44.843,8.45
44.859,13.6
44.875,18.16
44.890,22.46
44.906,26.38
44.921,29.47
44.937,31.44
44.953,32.4
44.968,32.73
44.984,32.85
45.000,32.98
45.015,32.93
45.031,32.38
45.046,31.03
45.062,28.91
45.078,26.44
45.093,24.21
45.109,22.7
45.125,22.16
45.140,22.24
45.156,22.26
45.171,21.58
45.187,19.84
45.203,17.26
45.218,14.46
45.234,12.09
45.250,10.17
45.265,8.29
45.281,5.63
45.296,1.64
45.312,-3.68
45.328,-9.64
45.343,-15.34
45.359,-20.17
45.375,-24.12
45.390,-27.73
45.406,-31.6
45.421,-35.92
45.437,-40.24
45.453,-43.54
45.468,-44.7
45.484,-43.04
45.500,-38.72
45.515,-32.62
45.531,-25.8
45.546,-19.13
45.562,-12.98
45.578,-7.35
45.593,-1.91
45.609,3.35
45.625,8.39
45.640,12.97
45.656,16.67
45.671,19.45
45.687,21.48
45.703,23.32
45.718,25.29
45.734,27.58
45.750,29.8
45.765,31.37
45.781,31.9
45.796,31.42
45.812,30.31
45.828,29.03
45.843,27.88
45.859,26.52
45.875,24.41
45.890,21.08
45.906,16.67
45.921,12.03
45.937,8.26
45.953,6.1
45.968,5.46
45.984,5.53
46.000,5.25
46.015,3.92
46.031,1.48
46.046,-1.48
46.062,-4.2
46.078,-6.46
46.093,-8.47
46.109,-10.86
46.125,-14.02
46.140,-17.83
46.156,-21.51
46.171,-24.13
46.187,-25.18
46.203,-24.56
46.218,-22.84
46.234,-20.54
46.250,-17.88
46.265,-14.84
46.281,-11.42
46.296,-7.69
46.312,-4.01
46.328,-0.72
46.343,2.32
46.359,5.34
46.375,8.64
46.390,12.11
46.406,15.28
46.421,17.46
46.437,18.37
46.453,18.38
46.468,18.15
46.484,18.36
46.500,19.22
46.515,20.54
46.531,21.65
46.546,22.05
46.562,21.44
46.578,19.8
46.593,17.51
46.609,14.92
46.625,12.47
46.640,10.29
46.656,8.32
46.671,6.03
46.687,2.81
46.703,-1.66
46.718,-7.22
46.734,-13.04
46.750,-18.19
46.765,-21.96
46.781,-24.32
46.796,-25.73
46.812,-26.94
46.828,-28.6
46.843,-31.09
46.859,-34.62
46.875,-39.01
46.890,-43.79
46.906,-48.07
46.921,-50.84
46.937,-51.34
46.953,-49.25
46.968,-44.74
46.984,-38.39
47.000,-31.0
47.015,-23.21
47.031,-15.73
47.046,-9.08
47.062,-3.57
47.078,0.59
47.093,3.55
47.109,5.68
47.125,7.44
47.140,9.01
47.156,10.57
47.171,11.99
47.187,12.92
47.203,13.22
47.218,12.57
47.234,10.96
47.250,8.62
47.265,6.1
47.281,3.87
47.296,2.29
47.312,1.28
47.328,0.45
47.343,-0.32
47.359,-0.93
47.375,-1.15
47.390,-0.94
47.406,-0.74
47.421,-1.33
47.437,-3.24
47.453,-6.32
47.468,-9.77
47.484,-12.56
47.500,-14.1
47.515,-14.61
47.531,-14.86
47.546,-15.75
47.562,-17.7
47.578,-20.63
47.593,-23.98
47.609,-27.17
47.625,-29.59
47.640,-30.93
47.656,-30.85
47.671,-29.0
47.687,-25.39
47.703,-20.14
47.718,-13.69
47.734,-6.51
47.750,0.89
47.765,8.21
47.781,15.09
47.796,21.13
47.812,25.97
47.828,29.32
47.843,31.17
47.859,31.99
47.875,32.57
47.890,33.42
47.906,34.71
47.921,36.06
47.937,36.75
47.953,36.07
47.968,33.84
47.984,30.44
48.000,26.76
48.015,23.93
48.031,22.63
48.046,23.05
48.062,24.68
48.078,26.58
48.093,27.71
48.109,27.15
48.125,24.62
48.140,20.37
48.156,15.16
48.171,10.01
48.187,5.68
48.203,2.43
48.218,0.05
48.234,-1.93
48.250,-4.01
48.265,-6.38
48.281,-9.14
48.296,-12.29
48.312,-15.77
48.328,-19.37
48.343,-22.65
48.359,-24.94
48.375,-25.42
48.390,-23.76
48.406,-19.94
48.421,-14.5
48.437,-8.11
48.453,-1.32
48.468,5.47
48.484,11.86
48.500,17.23
48.515,20.95
48.531,22.52
48.546,22.1
48.562,20.34
48.578,18.17
48.593,16.46
48.609,15.49
48.625,15.16
48.640,15.28
48.656,15.72
48.671,16.41
48.687,17.27
48.703,17.83
48.718,17.48
48.734,15.97
48.750,13.5
48.765,10.78
48.781,8.56
48.796,7.19
48.812,6.36
48.828,5.5
48.843,4.15
48.859,2.36
48.875,0.76
48.890,-0.25
48.906,-0.5
48.921,-0.47
48.937,-0.92
48.953,-2.43
48.968,-5.26
48.984,-9.05
49.000,-13.16
49.015,-16.78
49.031,-19.29
49.046,-20.1
49.062,-18.91
49.078,-15.89
49.093,-11.29
49.109,-5.57
49.125,0.75
49.140,7.27
49.156,13.5
49.171,18.81
49.187,22.75
49.203,25.26
49.218,26.69
49.234,27.87
49.250,29.52
49.265,31.91
49.281,34.61
49.296,36.84
49.312,37.81
49.328,37.27
49.343,35.61
49.359,33.39
49.375,31.16
49.390,29.08
49.406,27.05
49.421,24.75
49.437,21.94
49.453,18.53
49.468,14.53
49.484,10.31
49.500,6.26
49.515,2.85
49.531,0.33
49.546,-1.44
49.562,-2.71
49.578,-3.83
49.593,-5.12
49.609,-6.8
49.625,-9.06
49.640,-12.26
49.656,-16.65
49.671,-22.19
49.687,-28.5
49.703,-34.67
49.718,-39.81
49.734,-43.12
49.750,-44.29
49.765,-43.34
49.781,-40.51
49.796,-36.07
49.812,-30.36
49.828,-23.89
49.843,-17.07
49.859,-10.2
49.875,-3.33
49.890,3.59
49.906,10.61
49.921,17.43
49.937,23.44
49.953,27.92
49.968,30.35
49.984,30.78
50.000,29.81
50.015,28.18
50.031,26.48
50.046,24.98
50.062,23.62
50.078,22.29
50.093,20.96
50.109,19.62
50.125,18.19
50.140,16.4
50.156,13.91
50.171,10.56
50.187,6.59
50.203,2.64
50.218,-0.75
50.234,-3.22
50.250,-5.01
50.265,-6.6
50.281,-8.42
50.296,-10.66
50.312,-13.32
50.328,-16.39
50.343,-20.02
50.359,-24.44
50.375,-29.4
50.390,-34.33
50.406,-38.19
50.421,-39.94
50.437,-39.15
50.453,-36.15
50.468,-31.85
50.484,-27.26
50.500,-22.99
50.515,-18.77
50.531,-13.91
50.546,-7.83
50.562,-0.51
50.578,7.22
50.593,14.2
50.609,19.32
50.625,22.23
50.640,23.32
50.656,23.44
50.671,23.26
50.687,22.94
50.703,22.27
50.718,20.91
50.734,19.05
50.750,17.23
50.765,16.06
50.781,15.88
50.796,16.27
50.812,16.44
50.828,15.55
50.843,13.34
50.859,10.04
50.875,6.44
50.890,3.26
50.906,0.84
50.921,-0.86
50.937,-2.46
50.953,-4.57
50.968,-7.66
50.984,-11.76
51.000,-16.63
51.015,-21.77
51.031,-26.82
51.046,-31.49
51.062,-35.63
51.078,-39.21
51.093,-42.06
51.109,-43.96
51.125,-44.51
51.140,-43.49
51.156,-40.71
51.171,-36.37
51.187,-30.98
51.203,-25.16
51.218,-19.46
51.234,-14.06
51.250,-8.66
51.265,-2.92
51.281,3.17
51.296,9.11
51.312,13.93
51.328,16.9
51.343,17.93
51.359,17.83
51.375,17.95
51.390,19.37
51.406,22.04
51.421,25.05
51.437,27.09
51.453,27.29
51.468,25.86
51.484,23.68
51.500,21.63
51.515,20.07
51.531,18.52
51.546,16.09
51.562,12.4
51.578,7.83
51.593,3.32
51.609,-0.16
51.625,-2.19
51.640,-3.35
51.656,-4.51
51.671,-6.55
51.687,-9.94
51.703,-14.45
51.718,-19.58
51.734,-24.92
51.750,-30.22
51.765,-35.27
51.781,-39.84
51.796,-43.46
51.812,-45.46
51.828,-45.25
51.843,-42.55
51.859,-37.6
51.875,-31.16
51.890,-24.09
51.906,-17.08
51.921,-10.38
51.937,-3.95
51.953,2.31
51.968,8.35
51.984,13.85
52.000,18.45
52.015,21.91
52.031,24.38
52.046,26.24
52.062,27.8
52.078,29.28
52.093,30.41
52.109,30.77
52.125,30.02
52.140,28.07
52.156,25.1
52.171,21.76
52.187,18.78
52.203,16.67
52.218,15.63
52.234,15.27
52.250,14.87
52.265,13.86
52.281,12.11
52.296,9.84
52.312,7.48
52.328,5.21
52.343,2.79
52.359,-0.07
52.375,-3.39
52.390,-6.89
52.406,-10.24
52.421,-13.22
52.437,-16.13
52.453,-19.49
52.468,-23.72
52.484,-28.55
52.500,-32.89
52.515,-35.37
52.531,-34.95
52.546,-31.59
52.562,-26.27
52.578,-20.36
52.593,-14.93
52.609,-10.37
52.625,-6.31
52.640,-2.11
52.656,2.48
52.671,7.06
52.687,11.11
52.703,14.28
52.718,16.87
52.734,19.73
52.750,23.42
52.765,27.7
52.781,31.57
52.796,33.74
52.812,33.64
52.828,31.76
52.843,29.25
52.859,27.11
52.875,25.67
52.890,24.42
52.906,22.55
52.921,19.71
52.937,16.21
52.953,13.07
52.968,11.21
52.984,10.84
53.000,11.26
53.015,11.13
53.031,9.21
53.046,5.09
53.062,-0.52
53.078,-6.19
53.093,-10.53
53.109,-13.08
53.125,-14.6
53.140,-16.54
53.156,-19.95
53.171,-24.94
53.187,-30.47
53.203,-35.08
53.218,-37.86
53.234,-38.78
53.250,-38.47
53.265,-37.64
53.281,-36.51
53.296,-34.77
53.312,-32.13
53.328,-28.63
53.343,-24.64
53.359,-20.57
53.375,-16.61
53.390,-12.6
53.406,-8.5
53.421,-4.43
53.437,-0.67
53.453,2.56
53.468,5.41
53.484,8.21
53.500,11.19
53.515,14.23
53.531,17.0
53.546,19.1
53.562,20.45
53.578,21.31
53.593,21.94
53.609,22.49
53.625,22.86
53.640,22.67
53.656,21.75
53.671,20.17
53.687,18.23
53.703,16.16
53.718,13.97
53.734,11.49
53.750,8.38
53.765,4.49
53.781,-0.13
53.796,-5.04
53.812,-9.58
53.828,-13.21
53.843,-15.81
53.859,-17.71
53.875,-19.51
53.890,-21.75
53.906,-24.6
53.921,-28.04
53.937,-31.8
53.953,-35.65
53.968,-39.29
53.984,-42.32
54.000,-44.26
54.015,-44.6
54.031,-42.99
54.046,-39.34
54.062,-33.91
54.078,-27.18
54.093,-19.83
54.109,-12.54
54.125,-5.82
54.140,0.09
54.156,5.2
54.171,9.7
54.187,13.79
54.203,17.55
54.218,20.95
54.234,23.87
54.250,26.08
54.265,27.5
54.281,28.05
54.296,27.62
54.312,26.15
54.328,23.75
54.343,20.77
54.359,17.93
54.375,15.9
54.390,14.84
54.406,14.37
54.421,13.73
54.437,12.36
54.453,10.16
54.468,7.65
54.484,5.45
54.500,3.93
54.515,2.98
54.531,2.25
54.546,1.29
54.562,0.04
54.578,-1.38
54.593,-2.72
54.609,-3.95
54.625,-5.29
54.640,-7.07
54.656,-9.64
54.671,-12.92
54.687,-16.63
54.703,-20.4
54.718,-23.83
54.734,-26.65
54.750,-28.6
54.765,-29.59
54.781,-29.47
54.796,-28.27
54.812,-25.95
54.828,-22.56
54.843,-18.24
54.859,-13.2
54.875,-7.79
54.890,-2.19
54.906,3.35
54.921,8.64
54.937,13.29
54.953,16.93
54.968,19.13
54.984,19.74
55.000,19.13
55.015,17.88
55.031,16.88
55.046,16.77
55.062,17.77
55.078,19.47
55.093,21.27
55.109,22.62
55.125,23.17
55.140,23.03
55.156,22.37
55.171,21.44
55.187,20.35
55.203,19.32
55.218,18.57
55.234,18.27
55.250,18.46
55.265,18.89
55.281,19.1
55.296,18.49
55.312,16.8
55.328,14.14
55.343,11.03
55.359,8.11
55.375,5.66
55.390,3.53
55.406,1.24
55.421,-1.56
55.437,-4.93
55.453,-8.44
55.468,-11.63
55.484,-14.21
55.500,-16.04
55.515,-17.16
55.531,-17.51
55.546,-16.94
55.562,-15.33
55.578,-12.91
55.593,-10.12
55.609,-7.52
55.625,-5.44
55.640,-3.83
55.656,-2.42
55.671,-0.85
55.687,0.89
55.703,2.61
55.718,4.06
55.734,5.13
55.750,5.83
55.765,6.26
55.781,6.45
55.796,6.3
55.812,5.91
55.828,5.4
55.843,4.95
55.859,4.75
55.875,4.77
55.890,4.92
55.906,5.11
55.921,5.42
55.937,5.87
55.953,6.52
55.968,7.23
55.984,7.71
56.000,7.76
56.015,7.32
56.031,6.45
56.046,5.24
56.062,3.76
56.078,1.87
56.093,-0.54
56.109,-3.47
56.125,-6.66
56.140,-9.76
56.156,-12.61
56.171,-15.2
56.187,-17.67
56.203,-19.97
56.218,-21.79
56.234,-22.57
56.250,-21.67
56.265,-18.82
56.281,-14.15
56.296,-8.24
56.312,-1.8
56.328,4.66
56.343,10.88
56.359,16.83
56.375,22.46
56.390,27.5
56.406,31.42
56.421,33.92
56.437,34.93
56.453,34.86
56.468,34.52
56.484,34.64
56.500,35.57
56.515,37.16
56.531,38.86
56.546,39.9
56.562,39.85
56.578,38.62
56.593,36.34
56.609,33.37
56.625,29.84
56.640,25.83
56.656,21.29
56.671,16.48
56.687,11.93
56.703,8.48
56.718,7.03
56.734,7.8
56.750,10.38
56.765,13.54
56.781,15.89
56.796,16.49
56.812,15.18
56.828,12.4
56.843,8.81
56.859,4.7
56.875,-0.09
56.890,-5.69
56.906,-12.04
56.921,-18.49
56.937,-24.17
56.953,-28.41
56.968,-30.88
56.984,-31.7
57.000,-30.86
57.015,-28.3
57.031,-23.79
57.046,-17.54
57.062,-10.09
57.078,-2.34
57.093,4.66
57.109,10.59
57.125,15.36
57.140,19.41
57.156,23.0
57.171,26.19
57.187,28.72
57.203,30.31
57.218,30.76
57.234,29.88
57.250,27.93
57.265,25.08
57.281,21.8
57.296,18.66
57.312,16.15
57.328,14.52
57.343,13.9
57.359,14.24
57.375,15.38
57.390,17.26
57.406,19.33
57.421,20.94
57.437,21.27
57.453,19.77
57.468,16.68
57.484,12.83
57.500,9.37
57.515,7.01
57.531,6.05
57.546,5.75
57.562,5.27
57.578,3.73
57.593,0.31
57.609,-5.41
57.625,-13.65
57.640,-24.05
57.656,-35.73
57.671,-47.09
57.687,-56.53
57.703,-62.71
57.718,-65.0
57.734,-63.6
57.750,-58.97
57.765,-51.7
57.781,-42.31
57.796,-31.49
57.812,-20.32
57.828,-10.45
57.843,-3.25
57.859,0.62
57.875,1.48
57.890,0.75
57.906,-0.04
57.921,0.36
57.937,2.47
57.953,6.06
57.968,10.38
57.984,14.81
58.000,18.91
58.015,22.27
58.031,24.76
58.046,25.99
58.062,25.64
58.078,23.56
58.093,20.05
58.109,15.74
58.125,11.57
58.140,8.39
58.156,6.42
58.171,5.29
58.187,4.03
58.203,1.74
58.218,-2.0
58.234,-6.84
58.250,-11.95
58.265,-16.53
58.281,-20.19
58.296,-23.15
58.312,-25.75
58.328,-28.37
58.343,-31.11
58.359,-33.96
58.375,-37.07
58.390,-40.66
58.406,-44.85
58.421,-49.24
58.437,-53.04
58.453,-55.16
58.468,-54.91
58.484,-52.25
58.500,-47.67
58.515,-41.91
58.531,-35.37
58.546,-28.19
58.562,-20.62
58.578,-13.2
58.593,-6.75
58.609,-1.91
58.625,1.41
58.640,3.97
58.656,6.65
58.671,9.99
58.687,13.5
58.703,15.94
58.718,16.19
58.734,13.79
58.750,9.34
58.765,4.22
58.781,-0.08
58.796,-2.68
58.812,-3.37
58.828,-2.65
58.843,-1.35
58.859,-0.12
58.875,0.48
58.890,0.29
58.906,-0.62
58.921,-1.98
58.937,-3.64
58.953,-5.62
58.968,-8.04
58.984,-11.18
59.000,-14.9
59.015,-18.91
59.031,-22.81
59.046,-26.4
59.062,-29.9
59.078,-33.68
59.093,-38.07
59.109,-42.85
59.125,-47.38
59.140,-50.64
59.156,-52.02
59.171,-51.51
59.187,-49.51
59.203,-46.74
59.218,-43.53
59.234,-39.79
59.250,-35.11
59.265,-29.27
59.281,-22.16
59.296,-14.24
59.312,-6.29
59.328,0.91
59.343,6.78
59.359,11.3
59.375,14.75
59.390,17.63
59.406,20.17
59.421,22.4
59.437,24.1
59.453,25.05
59.468,25.33
59.484,25.22
59.500,25.06
59.515,25.03
59.531,25.0
59.546,24.69
59.562,23.91
59.578,22.73
59.593,21.42
59.609,20.5
59.625,20.11
59.640,20.2
59.656,20.39
59.671,20.15
59.687,19.16
59.703,17.32
59.718,14.88
59.734,12.09
59.750,9.3
59.765,6.41
59.781,3.28
59.796,-0.41
59.812,-4.78
59.828,-9.58
59.843,-14.3
59.859,-18.06
59.875,-20.23
59.890,-20.47
59.906,-18.93
59.921,-16.02
59.937,-12.01
59.953,-7.01
59.968,-0.96
59.984,6.15
