timestamp,value
00.000,94.4
00.015,92.01
00.031,75.98
00.046,50.27
00.062,20.25
00.078,-7.71
00.093,-27.79
00.109,-36.31
00.125,-32.62
00.140,-19.22
00.156,-0.62
00.171,18.39
00.187,34.26
00.203,45.49
00.218,52.58
00.234,56.92
00.250,59.6
00.265,60.76
00.281,58.88
00.296,51.27
00.312,35.06
00.328,8.69
00.343,-26.53
00.359,-66.21
00.375,-103.94
00.390,-134.42
00.406,-155.71
00.421,-170.56
00.437,-184.72
00.453,-203.26
00.468,-227.27
00.484,-252.39
00.500,-270.66
00.515,-274.01
00.531,-258.06
00.546,-223.38
00.562,-174.73
00.578,-118.7
00.593,-61.59
00.609,-8.67
00.625,35.68
00.640,67.69
00.656,84.53
00.671,85.16
00.687,70.95
00.703,45.77
00.718,15.21
00.734,-15.1
00.750,-40.89
00.765,-59.71
00.781,-70.77
00.796,-74.09
00.812,-69.46
00.828,-56.48
00.843,-35.06
00.859,-6.42
00.875,26.31
00.890,58.49
00.906,85.03
00.921,102.31
00.937,109.12
00.953,106.83
00.968,98.55
00.984,88.17
01.000,79.44
01.015,75.69
01.031,79.73
01.046,93.14
01.062,115.99
01.078,146.64
01.093,181.84
01.109,217.35
01.125,248.9
01.140,273.17
01.156,288.5
01.171,295.62
01.187,297.5
01.203,298.51
01.218,303.12
01.234,313.84
01.250,330.19
01.265,348.83
01.281,365.5
01.296,377.37
01.312,384.74
01.328,390.53
01.343,398.2
01.359,409.13
01.375,420.86
01.390,428.05
01.406,424.5
01.421,406.24
01.437,373.15
01.453,328.56
01.468,277.31
01.484,223.41
01.500,168.82
01.515,113.11
01.531,55.25
01.546,-5.17
01.562,-67.12
01.578,-128.09
01.593,-185.09
01.609,-235.42
01.625,-277.4
01.640,-309.88
01.656,-332.06
01.671,-342.93
01.687,-341.28
01.703,-326.53
01.718,-299.42
01.734,-262.62
01.750,-220.48
01.765,-178.27
01.781,-140.94
01.796,-112.08
01.812,-93.27
01.828,-84.1
01.843,-83.05
01.859,-88.32
01.875,-98.51
01.890,-112.94
01.906,-131.74
01.921,-155.45
01.937,-184.47
01.953,-218.35
01.968,-254.93
01.984,-290.33
02.000,-319.57
02.015,-337.94
02.031,-342.79
02.046,-334.83
02.062,-317.69
02.078,-296.15
02.093,-274.3
02.109,-253.76
02.125,-234.05
02.140,-213.77
02.156,-192.06
02.171,-169.32
02.187,-147.07
02.203,-126.68
02.218,-108.86
02.234,-93.72
02.250,-81.36
02.265,-72.41
02.281,-67.52
02.296,-66.65
02.312,-68.48
02.328,-70.72
02.343,-70.9
02.359,-68.09
02.375,-63.2
02.390,-58.66
02.406,-57.38
02.421,-61.5
02.437,-71.95
02.453,-88.71
02.468,-111.45
02.484,-139.31
02.500,-170.99
02.515,-204.11
02.531,-234.99
02.546,-259.14
02.562,-272.41
02.578,-272.12
02.593,-257.66
02.609,-230.56
02.625,-193.73
02.640,-150.76
02.656,-105.51
02.671,-61.67
02.687,-22.7
02.703,8.71
02.718,30.82
02.734,43.02
02.750,45.67
02.765,39.46
02.781,25.57
02.796,5.83
02.812,-16.64
02.828,-37.35
02.843,-51.07
02.859,-53.49
02.875,-43.05
02.890,-21.66
02.906,5.85
02.921,33.96
02.937,58.51
02.953,77.96
02.968,92.76
02.984,103.98
03.000,111.93
03.015,115.63
03.031,113.47
03.046,104.49
03.062,89.26
03.078,70.01
03.093,50.07
03.109,33.18
03.125,22.51
03.140,20.13
03.156,26.66
03.171,41.23
03.187,61.53
03.203,84.93
03.218,109.31
03.234,133.48
03.250,157.01
03.265,178.66
03.281,195.37
03.296,202.3
03.312,194.56
03.328,169.52
03.343,128.67
03.359,77.42
03.375,23.11
03.390,-27.27
03.406,-68.46
03.421,-97.12
03.437,-110.67
03.453,-106.97
03.468,-85.2
03.484,-47.2
03.500,1.76
03.515,53.64
03.531,99.91
03.546,134.5
03.562,154.96
03.578,162.38
03.593,159.14
03.609,146.73
03.625,124.74
03.640,91.34
03.656,44.56
03.671,-16.12
03.687,-89.04
03.703,-169.58
03.718,-250.27
03.734,-321.65
03.750,-374.05
03.765,-399.72
03.781,-395.1
03.796,-362.38
03.812,-308.57
03.828,-243.93
03.843,-178.91
03.859,-121.88
03.875,-77.68
03.890,-47.86
03.906,-31.22
03.921,-24.87
03.937,-24.72
03.953,-25.57
03.968,-21.96
03.984,-9.07
04.000,15.67
04.015,51.92
04.031,96.0
04.046,142.28
04.062,184.55
04.078,217.69
04.093,239.01
04.109,248.22
04.125,246.89
04.140,237.48
04.156,222.45
04.171,203.5
04.187,181.58
04.203,157.3
04.218,131.2
04.234,104.2
04.250,77.19
04.265,50.72
04.281,24.73
04.296,-1.95
04.312,-31.51
04.328,-66.41
04.343,-108.35
04.359,-157.18
04.375,-209.98
04.390,-261.67
04.406,-306.27
04.421,-338.27
04.437,-354.03
04.453,-352.14
04.468,-332.61
04.484,-296.35
04.500,-244.8
04.515,-180.25
04.531,-106.7
04.546,-30.04
04.562,42.77
04.578,105.28
04.593,153.25
04.609,185.74
04.625,204.68
04.640,213.78
04.656,217.03
04.671,217.6
04.687,217.2
04.703,216.41
04.718,214.94
04.734,212.18
04.750,207.59
04.765,200.69
04.781,191.21
04.796,179.01
04.812,164.3
04.828,147.53
04.843,129.69
04.859,111.93
04.875,95.42
04.890,81.12
04.906,69.27
04.921,59.69
04.937,51.79
04.953,44.96
04.968,38.67
04.984,32.82
05.000,27.42
05.015,22.55
05.031,18.3
05.046,14.57
05.062,11.2
05.078,8.08
05.093,5.14
05.109,2.42
05.125,0.14
05.140,-1.4
05.156,-1.86
05.171,-0.89
05.187,1.68
05.203,5.73
05.218,10.84
05.234,16.41
05.250,21.78
05.265,26.55
05.281,30.57
05.296,33.7
05.312,35.89
05.328,36.82
05.343,36.21
05.359,33.95
05.375,30.35
05.390,26.06
05.406,21.94
05.421,18.74
05.437,16.75
05.453,15.91
05.468,15.73
05.484,15.73
05.500,15.46
05.515,14.77
05.531,13.57
05.546,11.94
05.562,10.02
05.578,7.93
05.593,5.68
05.609,3.18
05.625,0.36
05.640,-2.91
05.656,-6.61
05.671,-10.81
05.687,-15.43
05.703,-20.37
05.718,-25.26
05.734,-29.46
05.750,-32.12
05.765,-32.33
05.781,-29.54
05.796,-23.7
05.812,-15.48
05.828,-5.94
05.843,3.86
05.859,13.07
05.875,21.34
05.890,28.63
05.906,35.02
05.921,40.5
05.937,44.96
05.953,48.36
05.968,50.63
05.984,52.05
06.000,52.91
06.015,53.52
06.031,54.0
06.046,54.29
06.062,54.16
06.078,53.24
06.093,51.28
06.109,48.08
06.125,43.7
06.140,38.39
06.156,32.74
06.171,27.15
06.187,21.98
06.203,17.3
06.218,13.01
06.234,8.81
06.250,4.55
06.265,0.15
06.281,-4.37
06.296,-8.79
06.312,-12.87
06.328,-16.24
06.343,-18.49
06.359,-19.19
06.375,-18.06
06.390,-15.19
06.406,-10.86
06.421,-5.68
06.437,-0.29
06.453,4.81
06.468,9.23
06.484,12.83
06.500,15.56
06.515,17.43
06.531,18.35
06.546,18.26
06.562,16.99
06.578,14.5
06.593,10.77
06.609,5.93
06.625,0.23
06.640,-6.23
06.656,-13.5
06.671,-21.81
06.687,-31.14
06.703,-41.09
06.718,-50.4
06.734,-57.37
06.750,-60.0
06.765,-56.45
06.781,-45.53
06.796,-26.73
06.812,-0.19
06.828,33.63
06.843,73.47
06.859,117.36
06.875,162.43
06.890,204.94
06.906,241.3
06.921,268.79
06.937,286.4
06.953,294.67
06.968,295.22
06.984,289.6
07.000,279.02
07.015,264.45
07.031,246.91
07.046,228.29
07.062,210.85
07.078,196.82
07.093,187.17
07.109,181.13
07.125,176.59
07.140,171.33
07.156,164.36
07.171,156.32
07.187,149.36
07.203,145.71
07.218,146.92
07.234,153.19
07.250,163.69
07.265,177.11
07.281,192.36
07.296,208.47
07.312,223.95
07.328,236.57
07.343,242.9
07.359,239.57
07.375,224.5
07.390,197.93
07.406,162.8
07.421,124.12
07.437,87.66
07.453,58.47
07.468,40.11
07.484,33.73
07.500,38.46
07.515,52.07
07.531,71.65
07.546,94.04
07.562,116.07
07.578,134.56
07.593,146.51
07.609,149.43
07.625,141.38
07.640,121.45
07.656,89.88
07.671,48.24
07.687,-0.67
07.703,-53.19
07.718,-105.19
07.734,-152.54
07.750,-191.51
07.765,-219.56
07.781,-235.69
07.796,-240.7
07.812,-237.33
07.828,-229.35
07.843,-221.13
07.859,-216.55
07.875,-218.52
07.890,-228.44
07.906,-246.53
07.921,-272.03
07.937,-303.87
07.953,-341.22
07.968,-383.15
07.984,-428.76
08.000,-476.79
08.015,-525.87
08.031,-574.67
08.046,-622.39
08.062,-668.31
08.078,-711.4
08.093,-749.87
08.109,-781.04
08.125,-802.59
08.140,-813.63
08.156,-815.16
08.171,-808.95
08.187,-795.75
08.203,-773.74
08.218,-739.01
08.234,-687.81
08.250,-619.19
08.265,-536.86
08.281,-448.43
08.296,-362.59
08.312,-286.01
08.328,-221.2
08.343,-166.98
08.359,-120.17
08.375,-78.03
08.390,-39.1
08.406,-3.16
08.421,29.69
08.437,59.98
08.453,88.86
08.468,117.75
08.484,147.63
08.500,178.4
08.515,208.87
08.531,237.14
08.546,261.21
08.562,279.63
08.578,291.97
08.593,299.02
08.609,302.49
08.625,304.7
08.640,307.83
08.656,313.5
08.671,322.6
08.687,335.34
08.703,351.37
08.718,369.53
08.734,387.75
08.750,403.05
08.765,412.19
08.781,412.85
08.796,404.89
08.812,390.92
08.828,375.76
08.843,364.63
08.859,360.8
08.875,364.26
08.890,371.98
08.906,379.69
08.921,384.2
08.937,384.65
08.953,382.08
08.968,377.86
08.984,372.32
09.000,363.79
09.015,349.3
09.031,326.42
09.046,294.46
09.062,254.8
09.078,210.08
09.093,162.9
09.109,114.92
09.125,67.15
09.140,20.07
09.156,-26.22
09.171,-72.25
09.187,-119.54
09.203,-170.1
09.218,-224.96
09.234,-282.36
09.250,-336.53
09.265,-378.54
09.281,-398.89
09.296,-390.81
09.312,-353.17
09.328,-291.23
09.343,-214.96
09.359,-136.08
09.375,-65.03
09.390,-8.72
09.406,29.65
09.421,49.94
09.437,54.28
09.453,45.83
09.468,28.38
09.484,6.19
09.500,-16.06
09.515,-34.3
09.531,-45.87
09.546,-50.32
09.562,-49.43
09.578,-46.1
09.593,-42.92
09.609,-41.08
09.625,-39.87
09.640,-37.27
09.656,-31.23
09.671,-21.04
09.687,-7.73
09.703,6.28
09.718,17.99
09.734,24.74
09.750,24.82
09.765,17.79
09.781,4.29
09.796,-13.96
09.812,-34.46
09.828,-54.13
09.843,-69.76
09.859,-78.57
09.875,-79.11
09.890,-71.59
09.906,-58.01
09.921,-41.71
09.937,-26.14
09.953,-13.63
09.968,-4.37
09.984,3.49
10.000,13.06
10.015,27.0
10.031,46.05
10.046,68.49
10.062,90.72
10.078,108.77
10.093,119.67
10.109,122.25
10.125,116.96
10.140,105.24
10.156,88.91
10.171,69.78
10.187,49.58
10.203,30.08
10.218,13.07
10.234,-0.05
10.250,-8.41
10.265,-12.06
10.281,-11.85
10.296,-9.2
10.312,-5.62
10.328,-2.33
10.343,-0.11
10.359,0.85
10.375,0.83
10.390,0.62
10.406,1.5
10.421,4.95
10.437,12.17
10.453,23.41
10.468,37.74
10.484,52.93
10.500,66.26
10.515,75.68
10.531,80.57
10.546,81.86
10.562,81.21
10.578,80.03
10.593,78.69
10.609,76.69
10.625,73.11
10.640,67.41
10.656,59.85
10.671,51.13
10.687,42.01
10.703,32.98
10.718,24.24
10.734,15.83
10.750,8.03
10.765,1.24
10.781,-3.88
10.796,-6.58
10.812,-6.41
10.828,-3.51
10.843,1.36
10.859,6.71
10.875,10.66
10.890,11.52
10.906,8.04
10.921,-0.11
10.937,-12.16
10.953,-26.7
10.968,-41.76
10.984,-55.35
11.000,-65.98
11.015,-72.78
11.031,-75.7
11.046,-75.44
11.062,-73.23
11.078,-70.24
11.093,-67.6
11.109,-65.89
11.125,-65.29
11.140,-65.88
11.156,-67.52
11.171,-70.01
11.187,-73.17
11.203,-76.96
11.218,-81.44
11.234,-86.85
11.250,-93.33
11.265,-100.65
11.281,-108.3
11.296,-115.54
11.312,-121.78
11.328,-127.1
11.343,-132.57
11.359,-139.93
11.375,-151.02
11.390,-166.96
11.406,-187.27
11.421,-210.13
11.437,-232.72
11.453,-252.17
11.468,-266.26
11.484,-273.8
11.500,-274.65
11.515,-269.24
11.531,-258.05
11.546,-241.28
11.562,-218.84
11.578,-190.21
11.593,-154.83
11.609,-112.39
11.625,-63.68
11.640,-11.68
11.656,37.92
11.671,77.34
11.687,98.75
11.703,97.14
11.718,73.06
11.734,33.28
11.750,-10.92
11.765,-47.31
11.781,-66.94
11.796,-66.7
11.812,-49.23
11.828,-20.52
11.843,13.1
11.859,47.5
11.875,81.35
11.890,114.85
11.906,148.13
11.921,179.98
11.937,207.63
11.953,227.66
11.968,237.48
11.984,236.53
12.000,226.53
12.015,210.62
12.031,192.05
12.046,172.73
12.062,152.85
12.078,131.23
12.093,106.72
12.109,79.29
12.125,50.97
12.140,25.37
12.156,6.33
12.171,-3.23
12.187,-2.31
12.203,8.44
12.218,27.11
12.234,51.32
12.250,78.61
12.265,106.85
12.281,134.42
12.296,160.2
12.312,183.7
12.328,204.98
12.343,224.69
12.359,243.9
12.375,264.19
12.390,287.25
12.406,314.52
12.421,346.8
12.437,383.79
12.453,424.15
12.468,465.48
12.484,504.36
12.500,536.47
12.515,557.07
12.531,561.59
12.546,546.88
12.562,512.69
12.578,461.86
12.593,400.01
12.609,333.68
12.625,268.18
12.640,206.37
12.656,148.75
12.671,94.82
12.687,44.47
12.703,-0.88
12.718,-38.9
12.734,-67.13
12.750,-84.22
12.765,-90.77
12.781,-89.15
12.796,-82.87
12.812,-75.8
12.828,-71.21
12.843,-71.07
12.859,-75.81
12.875,-84.28
12.890,-94.46
12.906,-104.5
12.921,-113.33
12.937,-121.07
12.953,-128.9
12.968,-138.35
12.984,-150.55
13.000,-166.0
13.015,-184.16
13.031,-204.09
13.046,-224.9
13.062,-245.73
13.078,-265.77
13.093,-283.94
13.109,-298.83
13.125,-308.96
13.140,-313.4
13.156,-312.2
13.171,-306.54
13.187,-298.4
13.203,-289.5
13.218,-280.64
13.234,-271.22
13.250,-259.39
13.265,-242.99
13.281,-220.47
13.296,-191.69
13.312,-158.05
13.328,-122.17
13.343,-87.0
13.359,-55.09
13.375,-28.2
13.390,-6.83
13.406,9.51
13.421,22.04
13.437,32.14
13.453,40.64
13.468,47.62
13.484,52.53
13.500,54.52
13.515,52.8
13.531,47.09
13.546,37.75
13.562,25.44
13.578,10.7
13.593,-6.27
13.609,-25.26
13.625,-45.25
13.640,-64.52
13.656,-81.43
13.671,-95.31
13.687,-106.83
13.703,-117.86
13.718,-130.75
13.734,-147.44
13.750,-168.29
13.765,-191.87
13.781,-216.12
13.796,-239.75
13.812,-262.52
13.828,-284.75
13.843,-306.09
13.859,-324.8
13.875,-337.72
13.890,-339.9
13.906,-324.93
13.921,-287.28
13.937,-224.02
13.953,-136.3
13.968,-29.12
13.984,89.64
14.000,210.97
14.015,326.76
14.031,424.09
14.046,490.48
14.062,518.43
14.078,509.02
14.093,469.6
14.109,409.75
14.125,338.67
14.140,266.59
14.156,197.71
14.171,135.84
14.187,85.94
14.203,51.13
14.218,32.25
14.234,27.14
14.250,30.79
14.265,38.54
14.281,43.41
14.296,37.66
14.312,15.7
14.328,-23.53
14.343,-78.48
14.359,-145.02
14.375,-218.19
14.390,-294.27
14.406,-371.33
14.421,-449.0
14.437,-527.05
14.453,-603.39
14.468,-661.21
14.484,-685.06
14.500,-665.21
14.515,-601.53
14.531,-503.7
14.546,-386.25
14.562,-263.2
14.578,-145.04
14.593,-37.66
14.609,57.28
14.625,138.93
14.640,212.41
14.656,283.5
14.671,355.63
14.687,429.31
14.703,501.71
14.718,567.57
14.734,621.3
14.750,659.25
14.765,679.5
14.781,673.27
14.796,638.98
14.812,579.84
14.828,502.82
14.843,416.77
14.859,330.47
14.875,250.61
14.890,180.91
14.906,120.71
14.921,66.76
14.937,16.1
14.953,-33.6
14.968,-83.19
14.984,-132.08
15.000,-178.64
15.015,-221.03
15.031,-256.92
15.046,-284.64
15.062,-303.2
15.078,-311.7
15.093,-310.43
15.109,-300.73
15.125,-284.5
15.140,-263.86
15.156,-241.09
15.171,-218.05
15.187,-196.19
15.203,-176.26
15.218,-157.54
15.234,-139.08
15.250,-120.11
15.265,-100.52
15.281,-81.01
15.296,-62.83
15.312,-47.17
15.328,-34.75
15.343,-25.81
15.359,-19.75
15.375,-16.09
15.390,-14.43
15.406,-14.39
15.421,-15.31
15.437,-16.27
15.453,-16.24
15.468,-14.59
15.484,-11.55
15.500,-7.89
15.515,-5.08
15.531,-4.54
15.546,-7.15
15.562,-12.74
15.578,-20.13
15.593,-27.42
15.609,-32.67
15.625,-34.38
15.640,-31.5
15.656,-23.48
15.671,-9.92
15.687,9.54
15.703,34.93
15.718,65.58
15.734,99.58
15.750,133.7
15.765,164.24
15.781,187.89
15.796,202.95
15.812,209.49
15.828,208.94
15.843,203.05
15.859,193.02
15.875,179.16
15.890,161.24
15.906,139.31
15.921,114.07
15.937,87.04
15.953,59.92
15.968,33.97
15.984,9.49
16.000,-13.85
16.015,-36.49
16.031,-58.23
16.046,-77.92
16.062,-93.87
16.078,-104.4
16.093,-108.46
16.109,-106.2
16.125,-98.92
16.140,-88.67
16.156,-77.79
16.171,-68.13
16.187,-60.7
16.203,-55.61
16.218,-52.24
16.234,-49.49
16.250,-46.37
16.265,-42.13
16.281,-36.45
16.296,-29.4
16.312,-21.42
16.328,-13.21
16.343,-5.72
16.359,-0.01
16.375,3.15
16.390,3.77
16.406,3.09
16.421,3.31
16.437,6.96
16.453,15.72
16.468,29.43
16.484,46.02
16.500,62.1
16.515,74.17
16.531,79.9
16.546,78.7
16.562,71.33
16.578,59.23
16.593,43.81
16.609,26.07
16.625,7.0
16.640,-11.82
16.656,-28.32
16.671,-40.24
16.687,-46.02
16.703,-45.64
16.718,-40.72
16.734,-33.93
16.750,-28.04
16.765,-25.1
16.781,-25.76
16.796,-29.53
16.812,-35.14
16.828,-41.23
16.843,-47.06
16.859,-52.45
16.875,-57.81
16.890,-63.42
16.906,-69.14
16.921,-74.24
16.937,-78.13
16.953,-80.93
16.968,-83.96
16.984,-89.17
17.000,-97.57
17.015,-107.92
17.031,-116.09
17.046,-116.2
17.062,-103.0
17.078,-74.77
17.093,-34.43
17.109,11.11
17.125,53.16
17.140,84.74
17.156,102.48
17.171,107.48
17.187,104.18
17.203,98.53
17.218,95.71
17.234,98.74
17.250,108.09
17.265,121.74
17.281,136.45
17.296,148.67
17.312,155.49
17.328,155.07
17.343,146.82
17.359,131.01
17.375,108.79
17.390,82.17
17.406,53.78
17.421,26.69
17.437,3.6
17.453,-14.07
17.468,-26.67
17.484,-36.22
17.500,-45.42
17.515,-56.08
17.531,-67.75
17.546,-77.7
17.562,-81.73
17.578,-76.41
17.593,-61.07
17.609,-38.48
17.625,-14.15
17.640,6.02
17.656,18.06
17.671,21.51
17.687,18.62
17.703,13.08
17.718,7.82
17.734,4.11
17.750,1.9
17.765,0.67
17.781,0.39
17.796,1.57
17.812,4.89
17.828,10.11
17.843,16.22
17.859,21.78
17.875,25.78
17.890,28.22
17.906,29.85
17.921,31.35
17.937,32.51
17.953,31.99
17.968,27.89
17.984,18.89
18.000,5.1
18.015,-11.71
18.031,-28.65
18.046,-42.8
18.062,-52.13
18.078,-56.07
18.093,-55.4
18.109,-51.67
18.125,-46.62
18.140,-42.22
18.156,-40.79
18.171,-44.49
18.187,-54.28
18.203,-68.51
18.218,-82.54
18.234,-89.99
18.250,-85.69
18.265,-68.65
18.281,-43.37
18.296,-18.2
18.312,-1.42
18.328,2.94
18.343,-3.1
18.359,-12.89
18.375,-18.71
18.390,-15.91
18.406,-4.56
18.421,11.4
18.437,27.03
18.453,39.01
18.468,46.62
18.484,50.91
18.500,53.16
18.515,53.97
18.531,53.0
18.546,49.93
18.562,45.31
18.578,40.84
18.593,38.86
18.609,41.24
18.625,48.49
18.640,59.45
18.656,71.72
18.671,82.45
18.687,89.22
18.703,90.91
18.718,87.74
18.734,81.09
18.750,72.73
18.765,64.42
18.781,57.22
18.796,51.49
18.812,46.94
18.828,42.96
18.843,39.11
18.859,35.17
18.875,31.31
18.890,27.79
18.906,24.71
18.921,21.85
18.937,18.52
18.953,13.75
18.968,6.59
18.984,-3.5
19.000,-16.79
19.015,-33.12
19.031,-52.0
19.046,-72.83
19.062,-94.38
19.078,-114.79
19.093,-131.46
19.109,-141.95
19.125,-144.67
19.140,-139.97
19.156,-130.02
19.171,-117.97
19.187,-106.92
19.203,-98.76
19.218,-94.11
19.234,-92.48
19.250,-92.79
19.265,-93.24
19.281,-91.34
19.296,-84.41
19.312,-70.67
19.328,-50.63
19.343,-27.54
19.359,-6.56
19.375,7.76
19.390,13.81
19.406,13.86
19.421,13.0
19.437,16.28
19.453,26.26
19.468,41.96
19.484,59.85
19.500,75.83
19.515,87.08
19.531,92.79
19.546,93.43
19.562,89.99
19.578,83.19
19.593,73.82
19.609,62.86
19.625,51.67
19.640,41.83
19.656,34.65
19.671,30.79
19.687,29.94
19.703,31.06
19.718,32.63
19.734,33.31
19.750,32.41
19.765,29.97
19.781,26.85
19.796,24.15
19.812,22.63
19.828,22.27
19.843,22.43
19.859,22.12
19.875,20.79
19.890,18.75
19.906,17.02
19.921,16.99
19.937,19.43
19.953,24.02
19.968,29.46
19.984,34.19
20.000,37.01
20.015,37.69
20.031,36.85
20.046,35.25
20.062,33.23
20.078,30.38
20.093,25.68
20.109,18.37
20.125,8.6
20.140,-2.33
20.156,-12.38
20.171,-19.36
20.187,-22.04
20.203,-20.47
20.218,-15.97
20.234,-10.74
20.250,-7.01
20.265,-6.72
20.281,-11.03
20.296,-20.05
20.312,-32.61
20.328,-46.33
20.343,-58.09
20.359,-65.31
20.375,-67.41
20.390,-66.57
20.406,-67.7
20.421,-76.4
20.437,-96.48
20.453,-127.4
20.468,-163.41
20.484,-194.89
20.500,-211.23
20.515,-204.57
20.531,-172.27
20.546,-117.58
20.562,-47.97
20.578,27.68
20.593,101.78
20.609,169.3
20.625,227.34
20.640,273.75
20.656,305.64
20.671,319.37
20.687,311.71
20.703,282.02
20.718,233.65
20.734,174.16
20.750,113.44
20.765,61.12
20.781,24.01
20.796,4.86
20.812,2.96
20.828,15.58
20.843,39.56
20.859,71.73
20.875,108.8
20.890,146.42
20.906,179.04
20.921,200.71
20.937,206.41
20.953,193.77
20.968,164.71
20.984,124.61
21.000,80.45
21.015,38.76
21.031,3.66
21.046,-23.97
21.062,-45.6
21.078,-63.58
21.093,-79.89
21.109,-94.79
21.125,-107.39
21.140,-116.81
21.156,-123.02
21.171,-127.48
21.187,-132.88
21.203,-142.15
21.218,-157.23
21.234,-177.87
21.250,-201.16
21.265,-222.09
21.281,-234.59
21.296,-233.04
21.312,-213.87
21.328,-176.64
21.343,-124.34
21.359,-63.23
21.375,-1.41
21.390,52.72
21.406,92.48
21.421,115.06
21.437,122.89
21.453,122.92
21.468,125.15
21.484,140.39
21.500,176.76
21.515,237.46
21.531,319.18
21.546,412.08
21.562,501.95
21.578,574.06
21.593,616.63
21.609,623.66
21.625,595.84
21.640,538.47
21.656,457.77
21.671,357.77
21.687,239.45
21.703,103.76
21.718,-44.14
21.734,-191.73
21.750,-321.02
21.765,-414.97
21.781,-465.03
21.796,-475.14
21.812,-459.33
21.828,-434.13
21.843,-410.12
21.859,-388.35
21.875,-362.15
21.890,-323.94
21.906,-272.45
21.921,-216.07
21.937,-170.03
21.953,-149.49
21.968,-162.28
21.984,-204.77
22.000,-263.16
22.015,-318.16
22.031,-350.92
22.046,-348.15
22.062,-304.92
22.078,-225.47
22.093,-121.67
22.109,-9.91
22.125,92.21
22.140,169.85
22.156,214.48
22.171,226.05
22.187,212.29
22.203,186.71
22.218,163.6
22.234,152.98
22.250,156.56
22.265,166.61
22.281,168.76
22.296,147.85
22.312,94.44
22.328,8.47
22.343,-99.71
22.359,-213.03
22.375,-313.29
22.390,-385.81
22.406,-421.59
22.421,-417.39
22.437,-374.55
22.453,-298.36
22.468,-197.8
22.484,-84.49
22.500,29.2
22.515,131.75
22.531,214.59
22.546,272.4
22.562,302.09
22.578,302.19
22.593,272.21
22.609,213.45
22.625,131.11
22.640,35.15
22.656,-61.17
22.671,-143.07
22.687,-198.07
22.703,-219.47
22.718,-207.07
22.734,-165.84
22.750,-104.26
22.765,-32.0
22.781,41.29
22.796,106.28
22.812,155.41
22.828,183.95
22.843,191.73
22.859,183.93
22.875,169.52
22.890,157.35
22.906,151.67
22.921,149.49
22.937,141.51
22.953,117.4
22.968,72.41
22.984,11.26
23.000,-52.26
23.015,-101.87
23.031,-126.47
23.046,-124.82
23.062,-105.01
23.078,-79.28
23.093,-57.48
23.109,-44.07
23.125,-38.91
23.140,-39.73
23.156,-44.53
23.171,-51.23
23.187,-55.8
23.203,-51.89
23.218,-33.36
23.234,2.02
23.250,48.98
23.265,94.17
23.281,120.31
23.296,112.05
23.312,62.19
23.328,-25.19
23.343,-135.52
23.359,-248.05
23.375,-341.81
23.390,-401.11
23.406,-418.48
23.421,-395.2
23.437,-339.65
23.453,-264.95
23.468,-186.11
23.484,-117.58
23.500,-70.57
23.515,-50.32
23.531,-54.43
23.546,-72.97
23.562,-91.2
23.578,-93.9
23.593,-70.29
23.609,-17.17
23.625,60.07
23.640,149.33
23.656,235.79
23.671,306.35
23.687,352.73
23.703,372.81
23.718,370.28
23.734,352.19
23.750,326.16
23.765,297.96
23.781,270.48
23.796,244.55
23.812,220.17
23.828,197.42
23.843,176.5
23.859,157.96
23.875,142.05
23.890,128.43
23.906,116.48
23.921,105.22
23.937,93.47
23.953,79.49
23.968,61.28
23.984,37.51
24.000,8.4
24.015,-23.58
24.031,-54.23
24.046,-78.73
24.062,-93.56
24.078,-97.73
24.093,-93.49
24.109,-85.54
24.125,-79.49
24.140,-80.39
24.156,-91.4
24.171,-112.61
24.187,-140.59
24.203,-169.57
24.218,-192.86
24.234,-205.43
24.250,-205.61
24.265,-195.59
24.281,-180.29
24.296,-165.28
24.312,-154.16
24.328,-147.03
24.343,-141.34
24.359,-133.32
24.375,-119.79
24.390,-99.1
24.406,-70.9
24.421,-35.69
24.437,5.57
24.453,51.2
24.468,98.24
24.484,142.36
24.500,178.7
24.515,203.3
24.531,214.19
24.546,212.08
24.562,199.56
24.578,180.13
24.593,157.1
24.609,132.59
24.625,107.83
24.640,83.46
24.656,60.4
24.671,40.18
24.687,24.93
24.703,16.7
24.718,16.88
24.734,25.72
24.750,41.7
24.765,62.02
24.781,83.11
24.796,101.48
24.812,114.51
24.828,120.92
24.843,120.83
24.859,115.42
24.875,106.5
24.890,95.49
24.906,83.3
24.921,70.33
24.937,56.65
24.953,42.11
24.968,26.52
24.984,9.82
25.000,-7.73
25.015,-25.19
25.031,-42.35
25.046,-58.84
25.062,-74.06
25.078,-87.17
25.093,-97.04
25.109,-102.77
25.125,-103.79
25.140,-99.94
25.156,-90.87
25.171,-78.56
25.187,-64.85
25.203,-50.55
25.218,-34.98
25.234,-16.22
25.250,7.42
25.265,36.24
25.281,68.94
25.296,103.81
25.312,134.99
25.328,157.06
25.343,166.6
25.359,163.29
25.375,149.19
25.390,126.63
25.406,96.27
25.421,56.89
25.437,7.17
25.453,-59.06
25.468,-146.51
25.484,-255.93
25.500,-382.94
25.515,-518.33
25.531,-651.59
25.546,-774.06
25.562,-880.25
25.578,-941.49
25.593,-936.22
25.609,-855.69
25.625,-711.98
25.640,-533.91
25.656,-350.97
25.671,-183.36
25.687,-40.47
25.703,68.87
25.718,151.13
25.734,206.4
25.750,232.46
25.765,228.42
25.781,197.36
25.796,149.04
25.812,95.08
25.828,45.91
25.843,7.7
25.859,-16.26
25.875,-29.57
25.890,-36.33
25.906,-38.77
25.921,-36.5
25.937,-23.38
25.953,8.09
25.968,63.86
25.984,146.34
26.000,254.85
26.015,381.99
26.031,516.84
26.046,646.12
26.062,740.78
26.078,774.7
26.093,734.74
26.109,629.08
26.125,482.66
26.140,324.29
26.156,174.09
26.171,41.98
26.187,-66.51
26.203,-157.18
26.218,-230.21
26.234,-282.34
26.250,-310.97
26.265,-317.3
26.281,-306.51
26.296,-286.49
26.312,-262.74
26.328,-239.74
26.343,-219.91
26.359,-200.51
26.375,-177.46
26.390,-148.1
26.406,-112.49
26.421,-72.61
26.437,-30.85
26.453,11.43
26.468,53.08
26.484,92.0
26.500,126.42
26.515,153.35
26.531,169.13
26.546,171.22
26.562,160.13
26.578,140.13
26.593,118.25
26.609,101.62
26.625,95.53
26.640,103.62
26.656,126.87
26.671,163.26
26.687,207.62
26.703,251.55
26.718,284.31
26.734,295.0
26.750,275.46
26.765,223.69
26.781,146.15
26.796,56.4
26.812,-28.62
26.828,-93.79
26.843,-130.46
26.859,-138.63
26.875,-125.07
26.890,-99.56
26.906,-70.11
26.921,-40.51
26.937,-11.13
26.953,17.84
26.968,43.95
26.984,61.98
27.000,66.48
27.015,56.0
27.031,34.87
27.046,11.75
27.062,-5.01
27.078,-11.99
27.093,-12.05
27.109,-11.3
27.125,-14.3
27.140,-20.35
27.156,-23.71
27.171,-17.48
27.187,1.81
27.203,31.96
27.218,66.68
27.234,99.71
27.250,128.94
27.265,157.18
27.281,189.55
27.296,229.32
27.312,274.22
27.328,316.27
27.343,344.83
27.359,351.08
27.375,331.8
27.390,290.63
27.406,235.82
27.421,176.16
27.437,117.47
27.453,60.88
27.468,4.39
27.484,-53.8
27.500,-112.47
27.515,-166.68
27.531,-209.21
27.546,-233.76
27.562,-237.59
27.578,-222.75
27.593,-195.41
27.609,-163.83
27.625,-136.04
27.640,-117.59
27.656,-110.33
27.671,-111.86
27.687,-116.6
27.703,-117.88
27.718,-110.72
27.734,-94.09
27.750,-71.28
27.765,-48.84
27.781,-33.73
27.796,-30.86
27.812,-41.37
27.828,-62.89
27.843,-90.91
27.859,-120.61
27.875,-148.13
27.890,-170.63
27.906,-186.12
27.921,-192.9
27.937,-189.74
27.953,-175.98
27.968,-152.26
27.984,-120.54
28.000,-83.96
28.015,-46.32
28.031,-10.88
28.046,20.37
28.062,47.03
28.078,69.72
28.093,89.19
28.109,105.37
28.125,117.23
28.140,123.1
28.156,121.51
28.171,112.18
28.187,96.3
28.203,76.34
28.218,55.19
28.234,35.12
28.250,17.57
28.265,3.37
28.281,-6.85
28.296,-12.55
28.312,-13.83
28.328,-12.44
28.343,-12.06
28.359,-17.48
28.375,-33.18
28.390,-61.0
28.406,-98.63
28.421,-139.61
28.437,-175.15
28.453,-196.92
28.468,-199.91
28.484,-183.58
28.500,-151.27
28.515,-108.66
28.531,-62.35
28.546,-18.56
28.562,17.46
28.578,41.65
28.593,51.57
28.609,46.57
28.625,28.53
28.640,1.82
28.656,-27.54
28.671,-53.26
28.687,-70.38
28.703,-76.42
28.718,-71.11
28.734,-55.99
28.750,-33.81
28.765,-7.9
28.781,18.01
28.796,40.06
28.812,54.97
28.828,60.85
28.843,57.63
28.859,47.37
28.875,33.74
28.890,20.68
28.906,11.38
28.921,7.17
28.937,7.4
28.953,10.11
28.968,13.03
28.984,14.39
29.000,13.41
29.015,10.7
29.031,7.7
29.046,6.28
29.062,8.25
29.078,14.85
29.093,26.57
29.109,42.89
29.125,62.17
29.140,81.51
29.156,97.17
29.171,105.25
29.187,102.89
29.203,89.65
29.218,68.17
29.234,43.89
29.250,22.99
29.265,9.93
29.281,5.46
29.296,6.66
29.312,8.39
29.328,6.11
29.343,-2.17
29.359,-15.51
29.375,-31.2
29.390,-46.96
29.406,-61.95
29.421,-76.58
29.437,-90.99
29.453,-104.11
29.468,-113.25
29.484,-115.17
29.500,-108.11
29.515,-92.98
29.531,-73.82
29.546,-56.84
29.562,-48.32
29.578,-52.21
29.593,-68.59
29.609,-93.24
29.625,-118.83
29.640,-137.53
29.656,-143.48
29.671,-134.39
29.687,-111.22
29.703,-76.77
29.718,-33.81
29.734,15.83
29.750,71.04
29.765,130.47
29.781,191.48
29.796,249.7
29.812,298.85
29.828,332.12
29.843,343.64
29.859,330.06
29.875,291.87
29.890,234.05
29.906,165.49
29.921,97.35
29.937,39.8
29.953,-1.65
29.968,-26.61
29.984,-38.53
30.000,-42.02
30.015,-40.36
30.031,-34.66
30.046,-24.64
30.062,-9.87
30.078,7.9
30.093,23.57
30.109,31.63
30.125,28.8
30.140,15.67
30.156,-4.06
30.171,-25.49
30.187,-45.52
30.203,-63.04
30.218,-80.57
30.234,-104.63
30.250,-142.9
30.265,-201.51
30.281,-282.9
30.296,-384.45
30.312,-498.24
30.328,-613.6
30.343,-718.69
30.359,-790.25
30.375,-808.93
30.390,-766.96
30.406,-674.02
30.421,-552.35
30.437,-423.7
30.453,-298.81
30.468,-184.69
30.484,-71.16
30.500,48.36
30.515,171.69
30.531,291.06
30.546,397.6
30.562,486.46
30.578,550.62
30.593,589.0
30.609,604.3
30.625,602.77
30.640,589.5
30.656,566.78
30.671,535.14
30.687,494.21
30.703,444.77
30.718,389.82
30.734,335.04
30.750,285.47
30.765,244.75
30.781,212.51
30.796,185.27
30.812,159.17
30.828,132.3
30.843,105.78
30.859,82.68
30.875,66.87
30.890,59.6
30.906,59.35
30.921,61.84
30.937,62.49
30.953,58.44
30.968,48.72
30.984,33.45
31.000,12.77
31.015,-13.05
31.031,-43.59
31.046,-77.4
31.062,-112.3
31.078,-145.67
31.093,-175.22
31.109,-199.38
31.125,-217.15
31.140,-227.61
31.156,-229.81
31.171,-223.34
31.187,-208.99
31.203,-189.13
31.218,-166.76
31.234,-144.71
31.250,-124.25
31.265,-105.11
31.281,-85.77
31.296,-64.57
31.312,-40.65
31.328,-14.55
31.343,11.56
31.359,33.89
31.375,46.79
31.390,44.42
31.406,22.49
31.421,-19.26
31.437,-75.44
31.453,-135.38
31.468,-185.31
31.484,-213.08
31.500,-212.08
31.515,-184.16
31.531,-138.48
31.546,-88.09
31.562,-44.92
31.578,-15.57
31.593,-0.22
31.609,6.2
31.625,10.68
31.640,19.22
31.656,34.71
31.671,57.13
31.687,84.53
31.703,114.02
31.718,142.91
31.734,168.2
31.750,186.7
31.765,195.39
31.781,192.79
31.796,179.91
31.812,160.74
31.828,141.28
31.843,127.61
31.859,124.38
31.875,132.81
31.890,149.94
31.906,168.82
31.921,180.03
31.937,174.3
31.953,145.88
31.968,95.77
31.984,32.68
32.000,-28.63
32.015,-72.73
32.031,-89.61
32.046,-79.05
32.062,-50.8
32.078,-19.81
32.093,0.55
32.109,4.23
32.125,-6.19
32.140,-22.16
32.156,-35.01
32.171,-40.07
32.187,-38.06
32.203,-33.26
32.218,-29.91
32.234,-29.51
32.250,-30.62
32.265,-30.56
32.281,-27.34
32.296,-21.37
32.312,-14.98
32.328,-11.21
32.343,-12.17
32.359,-18.03
32.375,-26.7
32.390,-34.96
32.406,-40.02
32.421,-40.64
32.437,-37.81
32.453,-33.88
32.468,-31.53
32.484,-33.34
32.500,-41.75
32.515,-58.98
32.531,-86.43
32.546,-123.31
32.562,-165.16
32.578,-203.67
32.593,-228.36
32.609,-229.98
32.625,-204.42
32.640,-154.62
32.656,-89.95
32.671,-23.0
32.687,34.66
32.703,75.86
32.718,99.04
32.734,107.42
32.750,106.84
32.765,103.36
32.781,101.54
32.796,103.73
32.812,110.3
32.828,120.44
32.843,133.01
32.859,146.75
32.875,159.88
32.890,169.43
32.906,171.22
32.921,160.91
32.937,135.87
32.953,96.92
32.968,48.87
32.984,-0.57
33.000,-43.72
33.015,-75.48
33.031,-94.76
33.046,-103.79
33.062,-106.12
33.078,-104.68
33.093,-100.76
33.109,-94.35
33.125,-85.04
33.140,-73.33
33.156,-60.72
33.171,-49.5
33.187,-41.83
33.203,-38.88
33.218,-40.4
33.234,-44.85
33.250,-50.1
33.265,-53.93
33.281,-55.01
33.296,-53.25
33.312,-49.47
33.328,-45.07
33.343,-41.3
33.359,-38.74
33.375,-37.1
33.390,-35.68
33.406,-33.76
33.421,-31.04
33.437,-27.91
33.453,-25.17
33.468,-23.8
33.484,-24.56
33.500,-27.91
33.515,-33.57
33.531,-40.78
33.546,-48.3
33.562,-54.46
33.578,-57.48
33.593,-55.75
33.609,-48.37
33.625,-35.26
33.640,-17.43
33.656,3.4
33.671,25.09
33.687,45.62
33.703,63.42
33.718,77.61
33.734,88.16
33.750,95.42
33.765,99.98
33.781,102.47
33.796,103.22
33.812,102.35
33.828,99.91
33.843,95.83
33.859,90.03
33.875,82.6
33.890,73.69
33.906,63.7
33.921,53.19
33.937,42.9
33.953,33.51
33.968,25.46
33.984,18.85
34.000,13.31
34.015,8.19
34.031,2.86
34.046,-3.01
34.062,-9.5
34.078,-16.23
34.093,-22.6
34.109,-27.95
34.125,-31.65
34.140,-33.24
34.156,-32.48
34.171,-29.64
34.187,-25.25
34.203,-20.17
34.218,-15.39
34.234,-11.71
34.250,-9.39
34.265,-8.26
34.281,-7.76
34.296,-7.38
34.312,-6.93
34.328,-6.41
34.343,-5.83
34.359,-5.0
34.375,-3.54
34.390,-0.88
34.406,3.1
34.421,7.96
34.437,12.65
34.453,15.85
34.468,16.53
34.484,14.44
34.500,10.16
34.515,5.05
34.531,0.55
34.546,-2.19
34.562,-2.82
34.578,-1.8
34.593,-0.18
34.609,0.75
34.625,0.01
34.640,-2.74
34.656,-6.92
34.671,-11.49
34.687,-15.22
34.703,-17.17
34.718,-16.89
34.734,-14.71
34.750,-11.61
34.765,-9.15
34.781,-9.09
34.796,-12.69
34.812,-20.19
34.828,-30.37
34.843,-40.61
34.859,-47.32
34.875,-47.47
34.890,-39.68
34.906,-25.19
34.921,-7.54
34.937,8.66
34.953,19.55
34.968,23.4
34.984,21.29
35.000,16.45
35.015,12.91
35.031,13.78
35.046,20.24
35.062,31.75
35.078,46.78
35.093,63.85
35.109,82.3
35.125,102.09
35.140,123.25
35.156,145.38
35.171,167.39
35.187,187.8
35.203,205.46
35.218,219.84
35.234,230.98
35.250,238.97
35.265,243.55
35.281,243.84
35.296,238.85
35.312,228.37
35.328,213.39
35.343,196.15
35.359,179.36
35.375,165.63
35.390,156.57
35.406,152.77
35.421,154.05
35.437,159.89
35.453,169.88
35.468,183.82
35.484,201.79
35.500,224.01
35.515,250.86
35.531,282.55
35.546,318.36
35.562,356.23
35.578,392.57
35.593,422.73
35.609,442.16
35.625,447.85
35.640,439.29
35.656,418.53
35.671,389.33
35.687,355.49
35.703,319.78
35.718,283.29
35.734,246.02
35.750,207.47
35.765,167.5
35.781,126.43
35.796,84.82
35.812,43.12
35.828,1.47
35.843,-40.05
35.859,-81.27
35.875,-121.38
35.890,-159.23
35.906,-193.27
35.921,-222.05
35.937,-244.35
35.953,-259.49
35.968,-267.39
35.984,-268.34
36.000,-263.07
36.015,-252.47
36.031,-237.6
36.046,-219.52
36.062,-199.43
36.078,-178.6
36.093,-158.36
36.109,-140.01
36.125,-124.69
36.140,-113.35
36.156,-106.57
36.171,-104.49
36.187,-106.81
36.203,-112.7
36.218,-121.21
36.234,-131.35
36.250,-142.3
36.265,-153.66
36.281,-165.46
36.296,-178.15
36.312,-192.36
36.328,-209.11
36.343,-229.27
36.359,-253.55
36.375,-281.62
36.390,-311.68
36.406,-340.41
36.421,-363.8
36.437,-378.32
36.453,-381.95
36.468,-375.28
36.484,-360.68
36.500,-341.52
36.515,-320.74
36.531,-300.01
36.546,-279.68
36.562,-259.27
36.578,-238.11
36.593,-215.69
36.609,-192.12
36.625,-167.56
36.640,-142.47
36.656,-117.39
36.671,-92.92
36.687,-69.52
36.703,-47.24
36.718,-25.55
36.734,-3.78
36.750,18.47
36.765,40.78
36.781,61.38
36.796,77.32
36.812,85.35
36.828,82.78
36.843,68.67
36.859,44.21
36.875,12.29
36.890,-23.27
36.906,-58.81
36.921,-91.89
36.937,-121.5
36.953,-147.64
36.968,-170.96
36.984,-192.09
37.000,-211.5
37.015,-229.52
37.031,-246.25
37.046,-261.29
37.062,-273.5
37.078,-281.12
37.093,-282.33
37.109,-276.54
37.125,-264.97
37.140,-250.37
37.156,-235.67
37.171,-222.08
37.187,-208.03
37.203,-189.58
37.218,-162.28
37.234,-123.45
37.250,-73.64
37.265,-16.34
37.281,43.57
37.296,101.53
37.312,154.47
37.328,200.56
37.343,238.7
37.359,267.77
37.375,286.79
37.390,295.33
37.406,294.17
37.421,285.2
37.437,270.84
37.453,253.0
37.468,232.39
37.484,208.64
37.500,180.98
37.515,149.15
37.531,114.21
37.546,78.53
37.562,45.31
37.578,17.46
37.593,-3.38
37.609,-17.26
37.625,-25.52
37.640,-29.85
37.656,-31.26
37.671,-29.64
37.687,-24.13
37.703,-13.72
37.718,1.65
37.734,20.8
37.750,41.53
37.765,61.45
37.781,78.69
37.796,92.72
37.812,104.35
37.828,114.98
37.843,125.72
37.859,136.36
37.875,145.16
37.890,149.31
37.906,146.29
37.921,134.92
37.937,116.2
37.953,92.8
37.968,67.75
37.984,43.16
38.000,19.88
38.015,-1.99
38.031,-22.14
38.046,-39.38
38.062,-52.16
38.078,-59.76
38.093,-63.21
38.109,-65.23
38.125,-68.81
38.140,-75.42
38.156,-83.74
38.171,-90.24
38.187,-90.87
38.203,-82.93
38.218,-66.38
38.234,-43.33
38.250,-16.95
38.265,9.87
38.281,34.94
38.296,56.45
38.312,72.7
38.328,82.03
38.343,83.6
38.359,77.91
38.375,67.33
38.390,55.37
38.406,45.62
38.421,40.46
38.437,40.17
38.453,42.94
38.468,45.73
38.484,45.23
38.500,39.17
38.515,27.08
38.531,10.02
38.546,-9.97
38.562,-30.52
38.578,-49.88
38.593,-66.66
38.609,-79.61
38.625,-87.99
38.640,-91.62
38.656,-91.3
38.671,-88.68
38.687,-85.71
38.703,-83.5
38.718,-82.09
38.734,-80.4
38.750,-76.82
38.765,-71.0
38.781,-63.86
38.796,-57.42
38.812,-53.79
38.828,-54.53
38.843,-60.12
38.859,-70.81
38.875,-86.33
38.890,-105.45
38.906,-127.3
38.921,-150.02
38.937,-170.77
38.953,-186.14
38.968,-193.64
38.984,-192.01
39.000,-183.9
39.015,-173.84
39.031,-166.08
39.046,-165.7
39.062,-174.58
39.078,-189.84
39.093,-203.86
39.109,-207.49
39.125,-192.24
39.140,-157.72
39.156,-108.8
39.171,-52.37
39.187,1.05
39.203,43.47
39.218,72.48
39.234,91.64
39.250,107.45
39.265,127.83
39.281,151.69
39.296,172.94
39.312,183.61
39.328,170.01
39.343,119.71
39.359,27.25
39.375,-102.92
39.390,-257.9
39.406,-417.31
39.421,-567.92
39.437,-700.8
39.453,-773.01
39.468,-751.08
39.484,-625.1
39.500,-418.01
39.515,-174.18
39.531,37.7
39.546,207.93
39.562,340.18
39.578,439.24
39.593,509.07
39.609,551.12
39.625,563.12
39.640,546.61
39.656,509.1
39.671,461.8
39.687,418.8
39.703,383.71
39.718,355.0
39.734,329.79
39.750,301.63
39.765,265.02
39.781,219.23
39.796,168.61
39.812,120.35
39.828,83.68
39.843,59.45
39.859,44.38
39.875,34.29
39.890,22.97
39.906,4.61
39.921,-23.65
39.937,-61.03
39.953,-103.12
39.968,-141.06
39.984,-167.87
40.000,-178.0
40.015,-168.54
40.031,-142.8
40.046,-109.71
40.062,-80.4
40.078,-63.93
40.093,-63.73
40.109,-76.02
40.125,-94.63
40.140,-113.33
40.156,-128.52
40.171,-140.7
40.187,-152.78
40.203,-167.16
40.218,-183.79
40.234,-200.24
40.250,-212.83
40.265,-219.75
40.281,-220.83
40.296,-217.03
40.312,-208.8
40.328,-195.0
40.343,-172.83
40.359,-139.35
40.375,-93.17
40.390,-35.86
40.406,27.9
40.421,91.77
40.437,149.46
40.453,196.48
40.468,230.88
40.484,252.87
40.500,263.55
40.515,264.25
40.531,256.32
40.546,241.46
40.562,221.88
40.578,199.86
40.593,177.63
40.609,157.44
40.625,141.33
40.640,131.51
40.656,129.92
40.671,137.2
40.687,151.42
40.703,167.69
40.718,178.95
40.734,178.99
40.750,164.89
40.765,137.28
40.781,98.92
40.796,52.01
40.812,-3.17
40.828,-66.98
40.843,-137.18
40.859,-207.11
40.875,-265.82
40.890,-301.76
40.906,-307.8
40.921,-284.11
40.937,-237.65
40.953,-178.75
40.968,-116.8
40.984,-57.82
41.000,-5.13
41.015,38.79
41.031,71.04
41.046,89.04
41.062,92.51
41.078,84.37
41.093,70.22
41.109,56.73
41.125,49.11
41.140,49.87
41.156,58.56
41.171,72.63
41.187,88.62
41.203,103.69
41.218,115.86
41.234,124.19
41.250,128.63
41.265,129.78
41.281,128.5
41.296,125.78
41.312,122.31
41.328,118.2
41.343,113.41
41.359,107.6
41.375,100.7
41.390,92.86
41.406,84.65
41.421,76.68
41.437,69.44
41.453,63.23
41.468,57.95
41.484,53.3
41.500,48.8
41.515,44.1
41.531,38.96
41.546,33.48
41.562,27.88
41.578,22.42
41.593,17.3
41.609,12.57
41.625,7.99
41.640,3.07
41.656,-2.6
41.671,-9.21
41.687,-16.19
41.703,-22.35
41.718,-26.06
41.734,-25.71
41.750,-20.48
41.765,-10.64
41.781,2.1
41.796,15.18
41.812,25.6
41.828,31.0
41.843,30.28
41.859,23.83
41.875,13.7
41.890,2.7
41.906,-6.15
41.921,-10.65
41.937,-9.94
41.953,-4.87
41.968,2.36
41.984,8.98
42.000,12.47
42.015,11.54
42.031,6.26
42.046,-2.09
42.062,-11.57
42.078,-20.3
42.093,-26.83
42.109,-30.35
42.125,-30.63
42.140,-28.02
42.156,-23.13
42.171,-16.98
42.187,-10.67
42.203,-5.07
42.218,-0.78
42.234,2.13
42.250,3.99
42.265,5.31
42.281,6.28
42.296,7.01
42.312,7.38
42.328,7.34
42.343,7.24
42.359,7.61
42.375,9.31
42.390,13.18
42.406,19.78
42.421,29.04
42.437,40.11
42.453,51.64
42.468,61.94
42.484,69.65
42.500,73.96
42.515,75.01
42.531,73.89
42.546,72.25
42.562,71.98
42.578,74.36
42.593,79.83
42.609,87.73
42.625,96.48
42.640,103.92
42.656,107.95
42.671,107.03
42.687,100.67
42.703,89.45
42.718,74.88
42.734,58.91
42.750,43.37
42.765,29.75
42.781,18.6
42.796,9.91
42.812,3.0
42.828,-3.06
42.843,-9.21
42.859,-16.23
42.875,-24.7
42.890,-35.12
42.906,-48.13
42.921,-64.57
42.937,-85.1
42.953,-109.79
42.968,-137.51
42.984,-165.94
43.000,-191.98
43.015,-212.54
43.031,-225.22
43.046,-228.78
43.062,-223.03
43.078,-208.49
43.093,-186.08
43.109,-157.12
43.125,-123.31
43.140,-86.99
43.156,-50.72
43.171,-17.05
43.187,12.13
43.203,35.91
43.218,54.44
43.234,68.42
43.250,78.62
43.265,85.82
43.281,90.2
43.296,91.93
43.312,91.1
43.328,87.93
43.343,82.64
43.359,75.6
43.375,66.92
43.390,56.7
43.406,45.32
43.421,33.36
43.437,21.72
43.453,11.44
43.468,3.28
43.484,-2.49
43.500,-6.03
43.515,-7.79
43.531,-8.39
43.546,-8.15
43.562,-7.34
43.578,-6.15
43.593,-4.87
43.609,-3.97
43.625,-3.85
43.640,-4.93
43.656,-7.14
43.671,-10.15
43.687,-13.37
43.703,-16.1
43.718,-17.8
43.734,-18.24
43.750,-17.65
43.765,-16.4
43.781,-15.14
43.796,-14.48
43.812,-14.73
43.828,-15.91
43.843,-17.62
43.859,-19.01
43.875,-19.08
43.890,-17.18
43.906,-13.11
43.921,-7.35
43.937,-0.76
43.953,5.86
43.968,12.21
43.984,18.71
44.000,26.31
44.015,36.44
44.031,50.13
44.046,67.72
44.062,88.6
44.078,111.28
44.093,133.58
44.109,153.12
44.125,167.87
44.140,176.36
44.156,178.22
44.171,174.11
44.187,165.57
44.203,154.59
44.218,143.01
44.234,131.87
44.250,120.85
44.265,108.46
44.281,92.96
44.296,73.88
44.312,52.97
44.328,34.09
44.343,21.5
44.359,17.77
44.375,22.18
44.390,30.51
44.406,36.54
44.421,34.21
44.437,19.79
44.453,-7.69
44.468,-46.7
44.484,-94.18
44.500,-145.87
44.515,-195.94
44.531,-237.31
44.546,-263.0
44.562,-268.1
44.578,-251.74
44.593,-217.58
44.609,-172.13
44.625,-121.97
44.640,-71.13
44.656,-19.92
44.671,33.71
44.687,91.85
44.703,154.18
44.718,217.13
44.734,274.69
44.750,320.48
44.765,349.47
44.781,358.92
44.796,348.69
44.812,320.55
44.828,278.02
44.843,225.68
44.859,169.06
44.875,113.77
44.890,65.03
44.906,26.63
44.921,0.11
44.937,-15.23
44.953,-22.14
44.968,-24.21
44.984,-24.95
45.000,-26.97
45.015,-31.91
45.031,-40.27
45.046,-51.88
45.062,-66.22
45.078,-82.44
45.093,-99.55
45.109,-116.53
45.125,-132.48
45.140,-147.09
45.156,-160.81
45.171,-174.67
45.187,-189.37
45.203,-204.63
45.218,-218.54
45.234,-228.12
45.250,-230.48
45.265,-224.11
45.281,-209.83
45.296,-190.26
45.312,-168.93
45.328,-148.78
45.343,-131.5
45.359,-117.43
45.375,-106.5
45.390,-98.74
45.406,-94.36
45.421,-93.53
45.437,-95.23
45.453,-97.21
45.468,-96.43
45.484,-90.17
45.500,-77.09
45.515,-58.09
45.531,-35.82
45.546,-13.67
45.562,5.15
45.578,18.72
45.593,26.42
45.609,28.58
45.625,25.75
45.640,18.74
45.656,8.46
45.671,-3.72
45.687,-15.94
45.703,-26.33
45.718,-33.62
45.734,-37.59
45.750,-39.2
45.765,-39.91
45.781,-40.87
45.796,-42.22
45.812,-42.96
45.828,-41.41
45.843,-35.98
45.859,-25.68
45.875,-10.54
45.890,8.22
45.906,28.89
45.921,49.37
45.937,67.83
45.953,83.17
45.968,95.09
45.984,103.92
46.000,110.26
46.015,114.34
46.031,115.58
46.046,112.82
46.062,104.75
46.078,90.52
46.093,70.32
46.109,45.65
46.125,18.75
46.140,-7.78
46.156,-31.48
46.171,-50.38
46.187,-63.14
46.203,-69.16
46.218,-68.59
46.234,-61.88
46.250,-48.94
46.265,-28.88
46.281,0.4
46.296,41.29
46.312,95.34
46.328,161.97
46.343,237.88
46.359,317.14
46.375,392.65
46.390,457.46
46.406,505.67
46.421,533.04
46.437,537.21
46.453,517.71
46.468,476.16
46.484,416.01
46.500,341.57
46.515,257.29
46.531,167.08
46.546,73.24
46.562,-22.95
46.578,-119.91
46.593,-214.69
46.609,-302.76
46.625,-379.07
46.640,-439.63
46.656,-481.89
46.671,-503.54
46.687,-502.55
46.703,-475.98
46.718,-419.6
46.734,-329.63
46.750,-205.88
46.765,-54.94
46.781,108.9
46.796,266.51
46.812,399.45
46.828,492.6
46.843,537.63
46.859,535.1
46.875,494.05
46.890,429.3
46.906,357.62
46.921,293.82
46.937,248.16
46.953,225.4
46.968,220.98
46.984,222.59
47.000,214.79
47.015,184.9
47.031,126.6
47.046,40.98
47.062,-64.43
47.078,-187.56
47.093,-312.75
47.109,-418.19
47.125,-485.8
47.140,-509.43
47.156,-494.59
47.171,-453.57
47.187,-400.22
47.203,-346.73
47.218,-301.03
47.234,-265.17
47.250,-237.71
47.265,-216.94
47.281,-201.74
47.296,-190.09
47.312,-179.83
47.328,-169.44
47.343,-158.62
47.359,-146.89
47.375,-132.24
47.390,-112.87
47.406,-86.68
47.421,-53.0
47.437,-8.44
47.453,50.65
47.468,125.06
47.484,203.69
47.500,269.91
47.515,307.58
47.531,307.63
47.546,271.87
47.562,210.56
47.578,137.48
47.593,63.95
47.609,-3.78
47.625,-63.98
47.640,-115.89
47.656,-157.73
47.671,-187.32
47.687,-203.3
47.703,-207.71
47.718,-203.18
47.734,-193.26
47.750,-181.52
47.765,-170.76
47.781,-161.39
47.796,-151.51
47.812,-138.53
47.828,-120.42
47.843,-96.99
47.859,-69.34
47.875,-39.81
47.890,-10.65
47.906,16.87
47.921,42.43
47.937,67.39
47.953,93.78
47.968,123.15
47.984,155.86
48.000,191.33
48.015,227.99
48.031,263.56
48.046,295.15
48.062,319.46
48.078,333.04
48.093,332.55
48.109,315.72
48.125,282.37
48.140,234.76
48.156,177.41
48.171,115.56
48.187,54.18
48.203,-2.71
48.218,-51.8
48.234,-90.33
48.250,-115.65
48.265,-125.58
48.281,-119.39
48.296,-98.37
48.312,-66.39
48.328,-28.95
48.343,8.17
48.359,40.28
48.375,64.51
48.390,80.0
48.406,87.44
48.421,88.26
48.437,84.22
48.453,76.88
48.468,67.28
48.484,56.07
48.500,43.57
48.515,29.7
48.531,14.37
48.546,-2.4
48.562,-20.39
48.578,-39.24
48.593,-58.74
48.609,-79.07
48.625,-100.42
48.640,-122.51
48.656,-144.19
48.671,-163.38
48.687,-177.68
48.703,-185.36
48.718,-185.85
48.734,-179.71
48.750,-168.25
48.765,-152.71
48.781,-133.93
48.796,-112.47
48.812,-89.27
48.828,-65.91
48.843,-44.53
48.859,-27.06
48.875,-14.58
48.890,-6.97
48.906,-3.26
48.921,-2.38
48.937,-3.71
48.953,-7.21
48.968,-13.4
48.984,-23.07
49.000,-36.86
49.015,-55.24
49.031,-78.29
49.046,-105.39
49.062,-135.11
49.078,-165.31
49.093,-193.48
49.109,-217.38
49.125,-236.0
49.140,-249.41
49.156,-258.65
49.171,-264.8
49.187,-268.08
49.203,-267.74
49.218,-262.44
49.234,-251.02
49.250,-233.37
49.265,-210.99
49.281,-186.66
49.296,-163.96
49.312,-146.5
49.328,-137.2
49.343,-137.75
49.359,-148.49
49.375,-167.8
49.390,-191.91
49.406,-215.1
49.421,-230.41
49.437,-231.27
49.453,-213.23
49.468,-175.32
49.484,-120.43
49.500,-54.44
49.515,15.73
49.531,83.79
49.546,145.33
49.562,197.98
49.578,240.94
49.593,274.1
49.609,297.83
49.625,312.8
49.640,320.27
49.656,322.18
49.671,320.84
49.687,318.7
49.703,317.97
49.718,320.32
49.734,326.58
49.750,336.77
49.765,349.65
49.781,363.02
49.796,374.12
49.812,380.16
49.828,379.21
49.843,370.91
49.859,356.35
49.875,337.59
49.890,317.29
49.906,297.79
49.921,280.81
49.937,267.24
49.953,256.95
49.968,248.94
49.984,241.73
50.000,233.67
50.015,223.5
50.031,210.96
50.046,196.98
50.062,183.31
50.078,172.08
50.093,164.9
50.109,162.25
50.125,163.21
50.140,165.72
50.156,167.02
50.171,164.45
50.187,156.2
50.203,141.39
50.218,120.34
50.234,94.03
50.250,63.72
50.265,30.54
50.281,-4.59
50.296,-40.87
50.312,-77.3
50.328,-112.47
50.343,-144.68
50.359,-172.08
50.375,-193.16
50.390,-207.23
50.406,-214.36
50.421,-215.49
50.437,-211.9
50.453,-204.84
50.468,-195.3
50.484,-183.91
50.500,-170.91
50.515,-156.28
50.531,-139.82
50.546,-120.88
50.562,-98.69
50.578,-72.54
50.593,-42.11
50.609,-7.72
50.625,29.43
50.640,67.62
50.656,104.96
50.671,139.55
50.687,170.1
50.703,195.6
50.718,215.21
50.734,228.02
50.750,232.98
50.765,228.86
50.781,214.7
50.796,190.43
50.812,156.93
50.828,116.35
50.843,71.52
50.859,25.32
50.875,-19.73
50.890,-62.01
50.906,-100.8
50.921,-136.29
50.937,-169.29
50.953,-200.88
50.968,-231.73
50.984,-261.56
51.000,-288.47
51.015,-309.07
51.031,-319.77
51.046,-318.25
51.062,-304.91
51.078,-283.07
51.093,-258.09
51.109,-235.0
51.125,-216.91
51.140,-203.99
51.156,-194.13
51.171,-184.97
51.187,-175.69
51.203,-167.72
51.218,-164.09
51.234,-167.94
51.250,-180.71
51.265,-201.34
51.281,-226.83
51.296,-253.36
51.312,-277.56
51.328,-297.32
51.343,-311.52
51.359,-319.4
51.375,-320.13
51.390,-312.67
51.406,-296.37
51.421,-271.85
51.437,-241.44
51.453,-208.89
51.468,-178.53
51.484,-154.33
51.500,-139.43
51.515,-136.27
51.531,-146.52
51.546,-170.66
51.562,-206.81
51.578,-249.49
51.593,-289.54
51.609,-315.67
51.625,-317.64
51.640,-289.9
51.656,-233.79
51.671,-157.39
51.687,-72.72
51.703,8.13
51.718,76.55
51.734,129.06
51.750,166.34
51.765,191.22
51.781,206.44
51.796,213.6
51.812,213.49
51.828,207.08
51.843,196.21
51.859,183.41
51.875,171.12
51.890,160.54
51.906,151.29
51.921,141.83
51.937,130.65
51.953,117.21
51.968,102.03
51.984,86.29
52.000,71.21
52.015,57.6
52.031,45.83
52.046,36.0
52.062,28.17
52.078,22.4
52.093,18.74
52.109,17.11
52.125,17.58
52.140,20.29
52.156,25.6
52.171,33.58
52.187,43.66
52.203,54.7
52.218,65.37
52.234,74.8
52.250,83.0
52.265,90.87
52.281,98.97
52.296,106.87
52.312,112.81
52.328,114.17
52.343,108.83
52.359,96.16
52.375,77.57
52.390,55.78
52.406,34.08
52.421,14.91
52.437,-0.56
52.453,-12.45
52.468,-21.66
52.484,-29.43
52.500,-36.81
52.515,-44.38
52.531,-52.28
52.546,-59.94
52.562,-66.68
52.578,-71.77
52.593,-75.0
52.609,-76.83
52.625,-78.13
52.640,-79.84
52.656,-82.36
52.671,-85.47
52.687,-88.28
52.703,-89.97
52.718,-89.65
52.734,-86.59
52.750,-80.29
52.765,-70.65
52.781,-58.34
52.796,-45.36
52.812,-34.55
52.828,-28.54
52.843,-28.33
52.859,-32.29
52.875,-36.17
52.890,-34.87
52.906,-24.55
52.921,-4.31
52.937,23.45
52.953,54.18
52.968,83.19
52.984,107.41
53.000,125.94
53.015,139.67
53.031,150.05
53.046,158.17
53.062,164.37
53.078,168.35
53.093,169.78
53.109,168.62
53.125,165.4
53.140,160.92
53.156,155.97
53.171,150.95
53.187,145.69
53.203,139.7
53.218,132.53
53.234,124.4
53.250,116.49
53.265,110.7
53.281,108.71
53.296,110.95
53.312,115.89
53.328,120.48
53.343,121.63
53.359,117.71
53.375,109.46
53.390,99.56
53.406,91.14
53.421,86.12
53.437,84.48
53.453,84.77
53.468,85.42
53.484,85.96
53.500,87.05
53.515,89.68
53.531,94.2
53.546,99.99
53.562,105.82
53.578,110.76
53.593,114.9
53.609,119.17
53.625,124.62
53.640,131.49
53.656,138.48
53.671,143.18
53.687,143.02
53.703,136.37
53.718,123.12
53.734,104.48
53.750,82.12
53.765,57.33
53.781,30.77
53.796,2.54
53.812,-27.04
53.828,-57.05
53.843,-86.01
53.859,-112.69
53.875,-137.15
53.890,-161.18
53.906,-187.76
53.921,-219.66
53.937,-258.11
53.953,-301.87
53.968,-347.34
53.984,-389.26
54.000,-422.03
54.015,-440.93
54.031,-443.12
54.046,-428.04
54.062,-397.33
54.078,-354.38
54.093,-303.53
54.109,-249.27
54.125,-195.63
54.140,-145.72
54.156,-101.69
54.171,-64.88
54.187,-35.51
54.203,-12.89
54.218,4.24
54.234,17.04
54.250,26.0
54.265,30.71
54.281,30.57
54.296,25.53
54.312,16.81
54.328,6.64
54.343,-2.3
54.359,-7.91
54.375,-9.47
54.390,-7.79
54.406,-4.79
54.421,-2.83
54.437,-4.23
54.453,-10.61
54.468,-22.84
54.484,-40.54
54.500,-61.77
54.515,-83.43
54.531,-102.04
54.546,-115.12
54.562,-122.43
54.578,-126.39
54.593,-131.14
54.609,-140.81
54.625,-157.66
54.640,-180.5
54.656,-205.16
54.671,-225.82
54.687,-236.91
54.703,-234.63
54.718,-217.43
54.734,-185.28
54.750,-139.07
54.765,-79.79
54.781,-8.95
54.796,70.63
54.812,154.33
54.828,235.77
54.843,307.82
54.859,364.02
54.875,400.36
54.890,415.55
54.906,411.59
54.921,392.88
54.937,364.99
54.953,333.89
54.968,304.55
54.984,280.24
55.000,262.02
55.015,249.05
55.031,238.82
55.046,228.45
55.062,215.39
55.078,197.97
55.093,176.11
55.109,151.06
55.125,125.2
55.140,101.33
55.156,82.1
55.171,69.03
55.187,62.36
55.203,61.13
55.218,63.4
55.234,67.26
55.250,70.93
55.265,73.27
55.281,73.6
55.296,71.5
55.312,66.82
55.328,59.72
55.343,50.77
55.359,40.71
55.375,30.47
55.390,20.58
55.406,11.17
55.421,1.98
55.437,-7.36
55.453,-16.97
55.468,-26.65
55.484,-35.75
55.500,-43.76
55.515,-50.3
55.531,-55.55
55.546,-59.96
55.562,-64.16
55.578,-68.47
55.593,-72.77
55.609,-76.51
55.625,-78.82
55.640,-78.94
55.656,-76.32
55.671,-70.99
55.687,-63.49
55.703,-54.74
55.718,-45.72
55.734,-37.09
55.750,-29.04
55.765,-21.33
55.781,-13.56
55.796,-5.53
55.812,2.47
55.828,9.85
55.843,15.94
55.859,20.4
55.875,23.33
55.890,25.2
55.906,26.6
55.921,27.81
55.937,28.68
55.953,28.58
55.968,26.77
55.984,22.71
56.000,16.18
56.015,7.19
56.031,-3.98
56.046,-16.9
56.062,-31.04
56.078,-45.8
56.093,-60.54
56.109,-74.55
56.125,-87.06
56.140,-97.21
56.156,-104.3
56.171,-107.82
56.187,-107.42
56.203,-103.19
56.218,-95.65
56.234,-85.47
56.250,-73.58
56.265,-60.83
56.281,-48.05
56.296,-36.06
56.312,-25.65
56.328,-17.51
56.343,-12.15
56.359,-9.74
56.375,-9.63
56.390,-10.61
56.406,-11.0
56.421,-9.32
56.437,-4.75
56.453,2.5
56.468,11.08
56.484,19.39
56.500,26.36
56.515,32.12
56.531,38.25
56.546,47.01
56.562,60.43
56.578,79.45
56.593,103.36
56.609,129.94
56.625,155.9
56.640,177.65
56.656,191.06
56.671,192.01
56.687,177.06
56.703,144.95
56.718,98.01
56.734,42.62
56.750,-11.9
56.765,-56.04
56.781,-82.95
56.796,-90.45
56.812,-81.01
56.828,-60.1
56.843,-33.48
56.859,-5.77
56.875,20.14
56.890,42.27
56.906,58.74
56.921,67.41
56.937,66.36
56.953,55.13
56.968,35.07
56.984,9.34
57.000,-17.92
57.015,-42.64
57.031,-61.6
57.046,-72.71
57.062,-74.69
57.078,-66.79
57.093,-48.1
57.109,-17.83
57.125,23.86
57.140,75.37
57.156,133.33
57.171,193.04
57.187,249.58
57.203,298.9
57.218,338.45
57.234,367.47
57.250,386.44
57.265,396.45
57.281,398.53
57.296,393.22
57.312,380.45
57.328,359.47
57.343,329.5
57.359,290.21
57.375,242.31
57.390,187.67
57.406,129.3
57.421,70.53
57.437,14.45
57.453,-36.51
57.468,-80.77
57.484,-117.01
57.500,-144.4
57.515,-162.49
57.531,-171.7
57.546,-173.54
57.562,-170.48
57.578,-165.56
57.593,-161.65
57.609,-160.94
57.625,-164.21
57.640,-171.25
57.656,-180.61
57.671,-190.45
57.687,-198.91
57.703,-204.45
57.718,-206.11
57.734,-203.62
57.750,-197.36
57.765,-188.05
57.781,-177.0
57.796,-165.55
57.812,-155.28
57.828,-148.13
57.843,-146.06
57.859,-150.68
57.875,-162.84
57.890,-182.05
57.906,-206.3
57.921,-232.24
57.937,-255.66
57.953,-272.31
57.968,-279.34
57.984,-275.85
58.000,-263.08
58.015,-244.1
58.031,-222.85
58.046,-202.96
58.062,-187.31
58.078,-177.58
58.093,-174.52
58.109,-178.52
58.125,-189.81
58.140,-208.6
58.156,-234.8
58.171,-268.26
58.187,-308.47
58.203,-354.87
58.218,-405.67
58.234,-457.25
58.250,-503.54
58.265,-536.67
58.281,-549.33
58.296,-537.54
58.312,-502.37
58.328,-449.85
58.343,-388.56
58.359,-326.17
58.375,-267.1
58.390,-211.9
58.406,-158.79
58.421,-106.17
58.437,-54.24
58.453,-4.88
58.468,39.84
58.484,79.31
58.500,115.09
58.515,150.02
58.531,186.34
58.546,224.32
58.562,261.48
58.578,293.89
58.593,317.43
58.609,329.75
58.625,331.02
58.640,324.11
58.656,313.48
58.671,303.8
58.687,298.84
58.703,300.21
58.718,307.11
58.734,315.75
58.750,319.86
58.765,311.99
58.781,286.27
58.796,240.85
58.812,179.21
58.828,109.3
58.843,40.73
58.859,-18.59
58.875,-65.08
58.890,-100.35
58.906,-129.92
58.921,-159.94
58.937,-193.88
58.953,-230.86
58.968,-265.77
58.984,-291.2
59.000,-299.94
59.015,-288.38
59.031,-258.4
59.046,-217.11
59.062,-173.43
59.078,-133.99
59.093,-101.29
59.109,-73.47
59.125,-47.31
59.140,-19.14
59.156,12.01
59.171,43.5
59.187,70.53
59.203,89.51
59.218,100.68
59.234,107.02
59.250,113.9
59.265,125.66
59.281,147.45
59.296,181.86
59.312,226.54
59.328,273.07
59.343,309.92
59.359,326.57
59.375,315.49
59.390,277.76
59.406,221.66
59.421,165.67
59.437,131.43
59.453,135.36
59.468,181.95
59.484,264.57
59.500,369.87
59.515,480.9
59.531,585.16
59.546,645.81
59.562,632.38
59.578,539.1
59.593,389.99
59.609,219.22
59.625,52.19
59.640,-88.9
59.656,-208.77
59.671,-309.39
59.687,-390.21
59.703,-446.78
59.718,-476.45
59.734,-479.72
59.750,-463.69
59.765,-437.88
59.781,-409.7
59.796,-384.38
59.812,-361.65
59.828,-340.52
59.843,-317.64
59.859,-290.55
59.875,-259.96
59.890,-230.48
59.906,-207.22
59.921,-192.72
59.937,-187.24
59.953,-186.8
59.968,-187.27
59.984,-183.7
