timestamp,value
00.000,-142.88
00.015,-134.96
00.031,-101.93
00.046,-50.29
00.062,10.28
00.078,69.27
00.093,118.24
00.109,152.33
00.125,170.42
00.140,174.24
00.156,166.78
00.171,151.36
00.187,130.41
00.203,106.04
00.218,79.8
00.234,53.02
00.250,27.29
00.265,4.59
00.281,-12.78
00.296,-23.18
00.312,-26.11
00.328,-23.16
00.343,-17.11
00.359,-10.51
00.375,-4.65
00.390,0.26
00.406,4.74
00.421,9.19
00.437,13.55
00.453,17.98
00.468,22.29
00.484,26.11
00.500,28.46
00.515,28.08
00.531,23.44
00.546,14.43
00.562,2.95
00.578,-7.45
00.593,-12.82
00.609,-10.7
00.625,-1.09
00.640,13.71
00.656,30.28
00.671,45.24
00.687,56.34
00.703,63.0
00.718,65.91
00.734,66.3
00.750,65.09
00.765,62.01
00.781,55.95
00.796,45.8
00.812,31.6
00.828,14.99
00.843,-1.75
00.859,-16.99
00.875,-30.12
00.890,-41.79
00.906,-52.84
00.921,-63.49
00.937,-73.03
00.953,-80.45
00.968,-85.22
00.984,-87.22
01.000,-86.79
01.015,-83.39
01.031,-76.07
01.046,-64.53
01.062,-50.35
01.078,-37.55
01.093,-30.93
01.109,-33.9
01.125,-46.24
01.140,-64.1
01.156,-80.81
01.171,-89.93
01.187,-87.68
01.203,-73.72
01.218,-51.07
01.234,-25.02
01.250,-1.88
01.265,11.9
01.281,11.45
01.296,-3.94
01.312,-29.31
01.328,-54.65
01.343,-68.53
01.359,-63.59
01.375,-40.64
01.390,-9.0
01.406,17.73
01.421,28.12
01.437,19.01
01.453,-3.44
01.468,-27.93
01.484,-44.83
01.500,-51.18
01.515,-50.55
01.531,-49.29
01.546,-51.62
01.562,-56.6
01.578,-58.48
01.593,-49.47
01.609,-24.18
01.625,16.71
01.640,66.11
01.656,113.82
01.671,150.17
01.687,168.31
01.703,165.46
01.718,143.21
01.734,107.06
01.750,65.29
01.765,26.1
01.781,-3.27
01.796,-16.34
01.812,-8.09
01.828,23.12
01.843,70.64
01.859,117.62
01.875,144.0
01.890,140.15
01.906,109.64
01.921,62.18
01.937,7.6
01.953,-46.79
01.968,-96.52
01.984,-139.09
02.000,-172.59
02.015,-195.76
02.031,-206.47
02.046,-204.61
02.062,-193.18
02.078,-176.85
02.093,-159.93
02.109,-145.24
02.125,-133.58
02.140,-123.75
02.156,-112.7
02.171,-96.62
02.187,-74.74
02.203,-48.88
02.218,-21.95
02.234,3.46
02.250,25.95
02.265,45.51
02.281,63.66
02.296,82.86
02.312,105.17
02.328,130.45
02.343,155.84
02.359,177.08
02.375,190.1
02.390,192.37
02.406,183.61
02.421,165.94
02.437,143.03
02.453,118.88
02.468,96.49
02.484,77.54
02.500,62.8
02.515,52.81
02.531,47.72
02.546,47.11
02.562,49.82
02.578,53.96
02.593,57.23
02.609,57.54
02.625,53.59
02.640,45.24
02.656,33.51
02.671,19.76
02.687,5.29
02.703,-8.91
02.718,-22.16
02.734,-33.98
02.750,-43.82
02.765,-51.41
02.781,-56.77
02.796,-60.28
02.812,-62.53
02.828,-63.86
02.843,-64.14
02.859,-62.83
02.875,-59.33
02.890,-53.37
02.906,-45.45
02.921,-36.69
02.937,-28.32
02.953,-21.21
02.968,-15.51
02.984,-10.62
03.000,-5.93
03.015,-1.15
03.031,3.37
03.046,6.85
03.062,8.42
03.078,7.78
03.093,5.16
03.109,1.21
03.125,-3.34
03.140,-8.04
03.156,-12.75
03.171,-17.38
03.187,-21.45
03.203,-24.37
03.218,-25.4
03.234,-24.02
03.250,-20.24
03.265,-14.67
03.281,-8.34
03.296,-2.2
03.312,2.94
03.328,6.67
03.343,8.79
03.359,9.42
03.375,8.83
03.390,7.34
03.406,5.22
03.421,2.77
03.437,0.45
03.453,-1.37
03.468,-2.53
03.484,-3.12
03.500,-3.4
03.515,-3.85
03.531,-4.82
03.546,-6.36
03.562,-8.21
03.578,-9.95
03.593,-11.27
03.609,-12.18
03.625,-13.05
03.640,-14.14
03.656,-15.61
03.671,-17.15
03.687,-18.09
03.703,-17.74
03.718,-15.8
03.734,-12.35
03.750,-7.89
03.765,-3.09
03.781,1.29
03.796,4.81
03.812,7.31
03.828,9.01
03.843,10.35
03.859,11.88
03.875,14.18
03.890,17.73
03.906,22.71
03.921,28.77
03.937,35.2
03.953,41.01
03.968,45.21
03.984,47.15
04.000,46.71
04.015,44.24
04.031,40.48
04.046,36.15
04.062,31.79
04.078,27.62
04.093,23.65
04.109,19.89
04.125,16.43
04.140,13.58
04.156,11.53
04.171,10.38
04.187,9.96
04.203,9.95
04.218,10.0
04.234,9.89
04.250,9.55
04.265,8.94
04.281,8.01
04.296,6.53
04.312,4.36
04.328,1.38
04.343,-2.38
04.359,-6.76
04.375,-11.26
04.390,-15.21
04.406,-17.81
04.421,-18.54
04.437,-17.25
04.453,-14.27
04.468,-10.44
04.484,-6.67
04.500,-3.62
04.515,-1.5
04.531,-0.15
04.546,0.85
04.562,1.77
04.578,2.84
04.593,4.23
04.609,6.16
04.625,8.83
04.640,12.3
04.656,16.28
04.671,20.04
04.687,22.82
04.703,24.07
04.718,23.83
04.734,22.81
04.750,21.87
04.765,21.56
04.781,21.69
04.796,21.52
04.812,20.35
04.828,18.28
04.843,16.23
04.859,15.39
04.875,16.47
04.890,19.17
04.906,22.31
04.921,24.44
04.937,24.53
04.953,22.61
04.968,19.54
04.984,16.44
05.000,14.01
05.015,12.14
05.031,10.09
05.046,7.09
05.062,2.8
05.078,-2.63
05.093,-8.61
05.109,-14.5
05.125,-20.13
05.140,-25.62
05.156,-31.3
05.171,-37.3
05.187,-43.15
05.203,-47.94
05.218,-50.85
05.234,-51.47
05.250,-49.98
05.265,-47.17
05.281,-43.71
05.296,-39.81
05.312,-35.35
05.328,-29.81
05.343,-22.97
05.359,-15.21
05.375,-7.35
05.390,-0.33
05.406,5.31
05.421,9.66
05.437,13.13
05.453,16.12
05.468,18.67
05.484,20.56
05.500,21.52
05.515,21.5
05.531,20.71
05.546,19.5
05.562,18.12
05.578,16.46
05.593,14.15
05.609,10.96
05.625,6.89
05.640,2.39
05.656,-1.77
05.671,-5.0
05.687,-6.96
05.703,-7.74
05.718,-7.71
05.734,-7.44
05.750,-7.35
05.765,-7.71
05.781,-8.63
05.796,-9.97
05.812,-11.6
05.828,-13.35
05.843,-14.94
05.859,-16.11
05.875,-16.47
05.890,-15.85
05.906,-14.13
05.921,-11.47
05.937,-8.2
05.953,-4.7
05.968,-1.24
05.984,2.05
06.000,5.22
06.015,8.41
06.031,11.68
06.046,14.97
06.062,18.13
06.078,20.93
06.093,23.27
06.109,25.09
06.125,26.15
06.140,26.06
06.156,24.43
06.171,21.13
06.187,16.48
06.203,11.16
06.218,6.15
06.234,2.12
06.250,-0.72
06.265,-2.4
06.281,-3.24
06.296,-3.26
06.312,-2.27
06.328,-0.07
06.343,3.2
06.359,6.94
06.375,10.31
06.390,12.28
06.406,12.36
06.421,10.53
06.437,7.24
06.453,3.15
06.468,-0.99
06.484,-4.69
06.500,-7.73
06.515,-10.03
06.531,-11.75
06.546,-12.92
06.562,-13.56
06.578,-13.89
06.593,-14.34
06.609,-15.24
06.625,-16.98
06.640,-19.48
06.656,-22.27
06.671,-24.6
06.687,-25.8
06.703,-25.47
06.718,-23.78
06.734,-21.23
06.750,-18.25
06.765,-15.08
06.781,-11.53
06.796,-7.28
06.812,-2.22
06.828,3.43
06.843,9.11
06.859,14.08
06.875,17.93
06.890,20.53
06.906,21.89
06.921,22.25
06.937,21.71
06.953,20.2
06.968,17.71
06.984,14.44
07.000,10.84
07.015,7.56
07.031,5.19
07.046,3.94
07.062,3.68
07.078,4.01
07.093,4.31
07.109,4.1
07.125,3.2
07.140,1.73
07.171,-1.35
07.187,-2.02
07.203,-1.99
07.218,-1.56
07.234,-1.35
07.250,-1.86
07.265,-3.4
07.281,-5.91
07.296,-9.1
07.312,-12.53
07.328,-15.88
07.343,-19.06
07.359,-22.06
07.375,-24.84
07.390,-27.09
07.406,-28.57
07.421,-29.08
07.437,-28.5
07.453,-26.82
07.468,-24.24
07.484,-20.94
07.500,-16.97
07.515,-12.43
07.531,-7.25
07.546,-1.38
07.562,5.15
07.578,12.15
07.593,19.37
07.609,26.24
07.625,32.09
07.640,36.5
07.656,39.16
07.671,40.08
07.687,39.44
07.703,37.42
07.718,34.24
07.734,30.38
07.750,26.45
07.765,23.08
07.781,20.73
07.796,19.37
07.812,18.44
07.828,17.32
07.843,15.36
07.859,12.39
07.875,8.69
07.890,4.75
07.906,1.03
07.921,-2.32
07.937,-5.38
07.953,-8.42
07.968,-11.57
07.984,-14.86
08.000,-18.14
08.015,-21.11
08.031,-23.51
08.046,-25.09
08.062,-25.78
08.078,-25.66
08.093,-24.89
08.109,-23.71
08.125,-22.28
08.140,-20.72
08.156,-19.02
08.171,-17.12
08.187,-14.88
08.203,-12.32
08.218,-9.39
08.234,-6.11
08.250,-2.5
08.265,1.5
08.281,5.87
08.296,10.62
08.312,15.75
08.328,21.23
08.343,26.61
08.359,31.24
08.375,34.28
08.390,35.07
08.406,33.52
08.421,29.98
08.437,25.34
08.453,20.52
08.468,16.21
08.484,12.53
08.500,9.28
08.515,6.09
08.531,2.78
08.546,-0.54
08.562,-3.68
08.578,-6.46
08.593,-8.81
08.609,-10.84
08.625,-12.54
08.640,-13.67
08.656,-13.8
08.671,-12.69
08.687,-10.33
08.703,-7.23
08.718,-4.28
08.734,-2.42
08.750,-2.2
08.765,-3.58
08.781,-5.93
08.796,-8.56
08.812,-10.97
08.828,-12.88
08.843,-14.23
08.859,-14.79
08.875,-14.32
08.890,-12.6
08.906,-9.66
08.921,-5.83
08.937,-1.74
08.953,1.97
08.968,4.98
08.984,7.14
09.000,8.61
09.015,9.54
09.031,9.94
09.046,9.73
09.062,8.89
09.078,7.72
09.093,6.66
09.109,6.32
09.125,7.06
09.140,8.9
09.156,11.48
09.171,14.27
09.187,16.6
09.203,17.97
09.218,18.19
09.234,17.38
09.250,16.09
09.265,14.86
09.281,14.1
09.296,13.89
09.312,14.11
09.328,14.4
09.343,14.42
09.359,13.97
09.375,12.92
09.390,11.37
09.406,9.44
09.421,7.23
09.437,4.81
09.453,2.33
09.468,-0.1
09.484,-2.46
09.500,-4.72
09.515,-7.16
09.531,-9.96
09.546,-13.33
09.562,-17.27
09.578,-21.43
09.593,-25.38
09.609,-28.69
09.625,-30.97
09.640,-31.9
09.656,-31.51
09.671,-29.8
09.687,-26.99
09.703,-23.26
09.718,-18.86
09.734,-14.09
09.750,-9.18
09.765,-4.35
09.781,0.36
09.796,4.81
09.812,9.06
09.828,13.07
09.843,16.86
09.859,20.37
09.875,23.46
09.890,25.92
09.906,27.44
09.921,27.95
09.937,27.34
09.953,25.77
09.968,23.41
09.984,20.33
10.000,16.69
10.015,12.64
10.031,8.49
10.046,4.61
10.062,1.47
10.078,-0.7
10.093,-1.94
10.109,-2.73
10.125,-3.82
10.140,-5.63
10.156,-8.32
10.171,-11.75
10.187,-15.63
10.203,-19.58
10.218,-23.26
10.234,-26.33
10.250,-28.47
10.265,-29.51
10.281,-29.16
10.296,-27.39
10.312,-24.28
10.328,-20.16
10.343,-15.45
10.359,-10.62
10.375,-6.12
10.390,-2.3
10.406,0.6
10.421,2.76
10.437,4.45
10.453,6.1
10.468,7.97
10.484,10.17
10.500,12.59
10.515,14.95
10.531,16.93
10.546,18.2
10.562,18.61
10.578,18.02
10.593,16.45
10.609,14.12
10.625,11.31
10.640,8.36
10.656,5.6
10.671,3.24
10.687,1.35
10.703,-0.17
10.718,-1.53
10.734,-2.96
10.750,-4.62
10.765,-6.46
10.781,-8.24
10.796,-9.5
10.812,-9.93
10.828,-9.48
10.843,-8.59
10.859,-7.96
10.875,-8.04
10.890,-9.04
10.906,-10.66
10.921,-12.42
10.937,-13.78
10.953,-14.47
10.968,-14.42
10.984,-13.79
11.000,-12.76
11.015,-11.21
11.031,-9.12
11.046,-6.48
11.062,-3.52
11.078,-0.59
11.093,1.91
11.109,3.79
11.125,4.98
11.140,5.62
11.156,6.0
11.171,6.32
11.187,6.72
11.203,7.18
11.218,7.58
11.234,7.92
11.250,8.14
11.265,8.35
11.281,8.58
11.296,8.91
11.312,9.35
11.328,9.9
11.343,10.51
11.359,11.08
11.375,11.63
11.390,12.08
11.406,12.4
11.421,12.47
11.437,12.03
11.453,10.75
11.468,8.39
11.484,4.89
11.500,0.49
11.515,-4.16
11.531,-8.45
11.546,-11.92
11.562,-14.51
11.578,-16.4
11.593,-17.97
11.609,-19.36
11.625,-20.52
11.640,-21.28
11.656,-21.4
11.671,-20.79
11.687,-19.51
11.703,-17.59
11.718,-15.07
11.734,-12.0
11.750,-8.64
11.765,-5.37
11.781,-2.61
11.796,-0.8
11.812,-0.05
11.828,-0.25
11.843,-1.02
11.859,-2.02
11.875,-2.95
11.890,-3.72
11.906,-4.26
11.921,-4.47
11.937,-4.22
11.953,-3.42
11.968,-2.01
11.984,-0.05
12.000,2.23
12.015,4.64
12.031,6.91
12.046,8.99
12.062,10.91
12.078,12.76
12.093,14.65
12.109,16.51
12.125,18.23
12.140,19.45
12.156,19.98
12.171,19.73
12.187,18.85
12.203,17.43
12.218,15.54
12.234,13.26
12.250,10.6
12.265,7.73
12.281,4.92
12.296,2.27
12.312,-0.33
12.328,-3.31
12.343,-7.33
12.359,-12.75
12.375,-19.26
12.390,-25.95
12.406,-31.51
12.421,-34.82
12.437,-35.4
12.453,-33.49
12.468,-29.9
12.484,-25.62
12.500,-21.32
12.515,-17.14
12.531,-13.0
12.546,-8.6
12.562,-3.88
12.578,0.94
12.593,5.5
12.609,9.47
12.625,12.66
12.640,15.09
12.656,16.99
12.671,18.33
12.687,19.02
12.703,18.83
12.718,17.49
12.734,14.98
12.750,11.49
12.765,7.48
12.781,3.51
12.796,-0.07
12.812,-3.08
12.828,-5.48
12.843,-7.22
12.859,-8.15
12.875,-8.16
12.890,-7.33
12.906,-5.98
12.921,-4.59
12.937,-3.62
12.953,-3.24
12.968,-3.39
12.984,-3.8
13.000,-4.21
13.015,-4.69
13.031,-5.46
13.046,-6.86
13.062,-8.97
13.078,-11.54
13.093,-14.02
13.109,-15.79
13.125,-16.35
13.140,-15.53
13.156,-13.45
13.171,-10.31
13.187,-6.36
13.203,-1.88
13.218,2.93
13.234,7.73
13.250,12.2
13.265,16.06
13.281,19.15
13.296,21.32
13.312,22.59
13.328,22.88
13.343,22.02
13.359,20.07
13.375,17.14
13.390,13.5
13.406,9.42
13.421,5.29
13.437,1.29
13.453,-2.18
13.468,-4.92
13.484,-6.9
13.500,-8.03
13.515,-8.48
13.531,-8.41
13.546,-7.93
13.562,-6.96
13.578,-5.61
13.593,-3.88
13.609,-2.1
13.625,-0.68
13.640,0.04
13.656,-0.06
13.671,-0.76
13.687,-1.53
13.703,-1.93
13.718,-1.95
13.734,-1.78
13.750,-1.93
13.765,-2.8
13.781,-4.43
13.796,-6.54
13.812,-8.49
13.828,-9.57
13.843,-9.44
13.859,-8.21
13.875,-6.36
13.890,-4.42
13.906,-2.71
13.921,-1.14
13.937,0.49
13.953,2.37
13.968,4.39
13.984,5.97
14.000,6.52
14.015,5.58
14.031,3.15
14.046,-0.49
14.062,-4.67
14.078,-8.98
14.093,-13.19
14.109,-17.22
14.125,-21.04
14.140,-24.45
14.156,-26.98
14.171,-28.1
14.187,-27.5
14.203,-25.06
14.218,-21.03
14.234,-15.84
14.250,-10.09
14.265,-4.4
14.281,0.69
14.296,4.84
14.312,7.86
14.328,9.77
14.343,10.62
14.359,10.38
14.375,9.15
14.390,7.09
14.406,4.57
14.421,2.05
14.437,0.04
14.453,-1.22
14.468,-1.81
14.484,-1.95
14.500,-2.02
14.515,-2.17
14.531,-2.35
14.546,-2.39
14.562,-2.26
14.578,-2.02
14.593,-2.03
14.609,-2.49
14.625,-3.39
14.640,-4.68
14.656,-6.19
14.671,-7.8
14.687,-9.39
14.703,-10.84
14.718,-11.87
14.734,-12.31
14.750,-11.91
14.765,-10.43
14.781,-7.96
14.796,-4.55
14.812,-0.5
14.828,3.91
14.843,8.49
14.859,12.96
14.875,17.09
14.890,20.67
14.906,23.69
14.921,26.09
14.937,27.87
14.953,28.95
14.968,29.15
14.984,28.38
15.000,26.57
15.015,23.78
15.031,20.2
15.046,16.19
15.062,12.0
15.078,7.93
15.093,4.17
15.109,0.77
15.125,-2.33
15.140,-5.14
15.156,-7.7
15.171,-9.88
15.187,-11.55
15.203,-12.78
15.218,-13.69
15.234,-14.66
15.250,-15.96
15.265,-17.61
15.281,-19.32
15.296,-20.64
15.312,-21.09
15.328,-20.57
15.343,-19.43
15.359,-18.22
15.375,-17.46
15.390,-17.4
15.406,-17.89
15.421,-18.54
15.437,-18.92
15.453,-18.75
15.468,-17.98
15.484,-16.75
15.500,-15.16
15.515,-13.37
15.531,-11.4
15.546,-9.26
15.562,-7.1
15.578,-5.24
15.593,-4.03
15.609,-3.45
15.625,-3.34
15.640,-3.07
15.656,-2.25
15.671,-0.66
15.687,1.54
15.703,4.07
15.718,6.8
15.734,9.77
15.750,13.32
15.765,17.44
15.781,21.89
15.796,25.87
15.812,28.51
15.828,29.08
15.843,27.41
15.859,23.88
15.875,19.19
15.890,14.18
15.906,9.41
15.921,5.26
15.937,1.7
15.953,-1.34
15.968,-4.1
15.984,-6.65
16.000,-9.02
16.015,-11.34
16.031,-13.63
16.046,-15.87
16.062,-17.69
16.078,-18.53
16.093,-17.81
16.109,-15.19
16.125,-11.03
16.140,-6.19
16.156,-1.97
16.171,0.51
16.187,0.77
16.203,-0.94
16.218,-3.82
16.234,-6.95
16.250,-9.51
16.265,-11.13
16.281,-11.52
16.296,-10.69
16.312,-8.69
16.328,-5.59
16.343,-1.49
16.359,3.4
16.375,8.69
16.390,14.0
16.406,18.71
16.421,22.5
16.437,25.09
16.453,26.52
16.468,27.0
16.484,26.96
16.500,26.71
16.515,26.4
16.531,25.88
16.546,24.77
16.562,22.79
16.578,19.86
16.593,16.19
16.609,12.13
16.625,8.04
16.640,4.11
16.656,0.4
16.671,-3.19
16.687,-6.82
16.703,-10.37
16.718,-13.52
16.734,-15.87
16.750,-17.04
16.765,-16.89
16.781,-15.62
16.796,-13.52
16.812,-11.01
16.828,-8.44
16.843,-5.96
16.859,-3.52
16.875,-1.21
16.890,0.82
16.906,2.27
16.921,2.79
16.937,2.25
16.953,0.85
16.968,-1.12
16.984,-3.39
17.000,-5.69
17.015,-7.92
17.031,-10.0
17.046,-11.77
17.062,-13.07
17.078,-13.73
17.093,-13.55
17.109,-12.47
17.125,-10.6
17.140,-8.08
17.156,-5.26
17.171,-2.48
17.187,-0.2
17.203,1.39
17.218,2.2
17.234,2.44
17.250,2.43
17.265,2.42
17.281,2.52
17.296,2.57
17.312,2.37
17.328,1.49
17.343,-0.53
17.359,-3.94
17.375,-8.67
17.390,-14.24
17.406,-19.58
17.421,-23.41
17.437,-25.09
17.453,-24.8
17.468,-23.08
17.484,-20.76
17.500,-18.14
17.515,-14.85
17.531,-10.19
17.546,-3.32
17.562,5.72
17.578,16.12
17.593,26.82
17.609,37.25
17.625,46.97
17.640,55.55
17.656,62.54
17.671,67.42
17.687,70.01
17.703,70.73
17.718,70.39
17.734,69.51
17.750,67.85
17.765,64.23
17.781,57.56
17.796,47.47
17.812,34.56
17.828,19.89
17.843,4.27
17.859,-11.45
17.875,-26.2
17.890,-38.27
17.906,-45.77
17.921,-47.31
17.937,-43.27
17.953,-36.1
17.968,-28.73
17.984,-22.74
18.000,-17.33
18.015,-10.29
18.031,-0.33
18.046,11.82
18.062,23.23
18.078,30.44
18.093,31.47
18.109,26.85
18.125,18.88
18.140,9.84
18.156,0.58
18.171,-9.46
18.187,-20.89
18.203,-33.23
18.218,-44.71
18.234,-52.92
18.250,-56.11
18.265,-54.03
18.281,-47.75
18.296,-39.1
18.312,-29.63
18.328,-20.25
18.343,-11.42
18.359,-3.3
18.375,4.12
18.390,10.92
18.406,17.08
18.421,22.35
18.437,26.0
18.453,27.09
18.468,25.13
18.484,20.22
18.500,13.44
18.515,6.48
18.531,0.87
18.546,-2.71
18.562,-4.58
18.578,-5.68
18.593,-6.83
18.609,-8.07
18.625,-9.01
18.640,-9.08
18.656,-8.14
18.671,-6.39
18.687,-4.24
18.703,-1.92
18.718,0.62
18.734,3.53
18.750,6.7
18.765,9.48
18.781,11.11
18.796,10.72
18.812,8.06
18.828,3.58
18.843,-1.67
18.859,-6.42
18.875,-9.51
18.890,-10.42
18.906,-9.61
18.921,-7.98
18.937,-6.73
18.953,-6.97
18.968,-9.19
18.984,-13.2
19.000,-18.28
19.015,-23.37
19.031,-27.51
19.046,-30.01
19.062,-30.34
19.078,-28.22
19.093,-23.68
19.109,-17.04
19.125,-9.03
19.140,-0.72
19.156,6.72
19.171,12.31
19.187,15.44
19.203,16.12
19.218,14.69
19.234,11.86
19.250,8.46
19.265,5.27
19.281,3.04
19.296,2.27
19.312,3.04
19.328,4.9
19.343,7.17
19.359,8.77
19.375,8.81
19.390,7.0
19.406,3.67
19.421,-0.3
19.437,-3.83
19.453,-6.1
19.468,-6.89
19.484,-6.41
19.500,-5.56
19.515,-5.41
19.531,-6.48
19.546,-8.61
19.562,-10.87
19.578,-12.17
19.593,-11.8
19.609,-9.73
19.625,-6.79
19.640,-4.07
19.656,-2.19
19.671,-0.89
19.687,0.7
19.703,3.45
19.718,7.27
19.734,11.1
19.750,13.52
19.765,13.65
19.781,11.83
19.796,9.6
19.812,8.68
19.828,9.77
19.843,12.45
19.859,15.26
19.875,16.63
19.890,15.72
19.906,12.78
19.921,8.77
19.937,4.89
19.953,1.75
19.968,-0.64
19.984,-2.39
20.000,-3.47
20.015,-3.69
20.031,-2.77
20.046,-0.7
20.062,2.17
20.078,5.23
20.093,7.69
20.109,9.05
20.125,9.1
20.140,8.08
20.156,6.43
20.171,4.72
20.187,3.31
20.203,2.5
20.218,2.3
20.234,2.64
20.250,3.42
20.265,4.42
20.281,5.36
20.296,5.98
20.312,5.98
20.328,5.1
20.343,3.38
20.359,0.94
20.375,-1.83
20.390,-4.61
20.406,-7.09
20.421,-9.2
20.437,-10.96
20.453,-12.44
20.468,-13.73
20.484,-14.82
20.500,-15.7
20.515,-16.4
20.531,-16.88
20.546,-17.03
20.562,-16.69
20.578,-15.73
20.593,-14.0
20.609,-11.55
20.625,-8.42
20.640,-4.76
20.656,-0.89
20.671,2.79
20.687,5.94
20.703,8.34
20.718,9.89
20.734,10.65
20.750,10.78
20.765,10.5
20.781,9.98
20.796,9.3
20.812,8.47
20.828,7.44
20.843,6.15
20.859,4.53
20.875,2.48
20.890,-0.01
20.906,-2.61
20.921,-4.83
20.937,-6.24
20.953,-6.52
20.968,-5.74
20.984,-4.25
21.000,-2.56
21.015,-0.97
21.031,0.36
21.046,1.48
21.062,2.47
21.078,3.22
21.093,3.66
21.109,3.61
21.125,3.14
21.140,2.42
21.156,1.69
21.171,1.21
21.187,0.92
21.203,0.56
21.218,-0.08
21.234,-1.21
21.250,-2.77
21.265,-4.49
21.281,-6.13
21.296,-7.45
21.312,-8.3
21.328,-8.7
21.343,-8.93
21.359,-9.08
21.375,-9.31
21.390,-9.5
21.406,-9.46
21.421,-9.01
21.437,-8.16
21.453,-6.97
21.468,-5.69
21.484,-4.58
21.500,-3.67
21.515,-3.05
21.531,-2.64
21.546,-2.45
21.562,-2.47
21.578,-2.78
21.593,-3.26
21.609,-3.71
21.625,-3.92
21.640,-3.65
21.656,-2.93
21.671,-1.82
21.687,-0.41
21.703,1.27
21.718,3.21
21.734,5.24
21.750,7.18
21.765,8.78
21.781,9.92
21.796,10.43
21.812,10.34
21.828,9.86
21.843,9.11
21.859,8.29
21.875,7.32
21.890,6.02
21.906,4.09
21.921,1.49
21.937,-1.64
21.953,-4.76
21.968,-7.16
21.984,-8.6
22.000,-9.12
22.015,-9.24
22.031,-9.44
22.046,-10.14
22.062,-11.23
22.078,-12.46
22.093,-13.52
22.109,-14.08
22.125,-14.06
22.140,-13.28
22.156,-11.73
22.171,-9.31
22.187,-6.25
22.203,-2.84
22.218,0.46
22.234,3.17
22.250,5.08
22.265,5.96
22.281,5.97
22.296,5.32
22.312,4.4
22.328,3.67
22.343,3.42
22.359,3.65
22.375,3.89
22.390,3.74
22.406,2.82
22.421,1.35
22.437,-0.23
22.453,-1.42
22.468,-2.02
22.484,-2.2
22.500,-2.2
22.515,-2.37
22.531,-2.53
22.546,-2.44
22.562,-1.72
22.578,-0.21
22.593,1.91
22.609,4.2
22.625,5.91
22.640,6.55
22.656,5.73
22.671,3.66
22.687,0.97
22.703,-1.49
22.718,-2.98
22.734,-3.37
22.750,-2.98
22.765,-2.73
22.781,-3.37
22.796,-5.26
22.812,-8.09
22.828,-11.18
22.843,-13.67
22.859,-14.9
22.875,-14.61
22.890,-12.77
22.906,-9.79
22.921,-6.17
22.937,-2.55
22.953,0.69
22.968,3.43
22.984,5.9
23.000,8.52
23.015,11.38
23.031,14.36
23.046,16.88
23.062,18.32
23.078,18.37
23.093,17.02
23.109,14.63
23.125,11.5
23.140,7.92
23.156,4.18
23.171,0.67
23.187,-2.08
23.203,-3.62
23.218,-3.72
23.234,-2.64
23.250,-1.01
23.265,0.34
23.281,0.77
23.296,-0.03
23.312,-1.95
23.328,-4.61
23.343,-7.56
23.359,-10.32
23.375,-12.63
23.390,-14.53
23.406,-16.31
23.421,-18.14
23.437,-20.08
23.453,-21.82
23.468,-22.98
23.484,-23.34
23.500,-22.9
23.515,-22.04
23.531,-21.2
23.546,-20.59
23.562,-20.09
23.578,-19.37
23.593,-18.11
23.609,-16.15
23.625,-13.7
23.640,-11.02
23.656,-8.42
23.671,-6.03
23.687,-3.97
23.703,-2.2
23.718,-0.7
23.734,0.76
23.750,2.4
23.765,4.35
23.781,6.58
23.796,8.79
23.812,10.76
23.828,12.26
23.843,13.27
23.859,13.88
23.875,14.29
23.890,14.53
23.906,14.67
23.921,14.74
23.937,14.56
23.953,14.08
23.968,13.12
23.984,11.49
24.000,9.24
24.015,6.48
24.031,3.47
24.046,0.46
24.062,-2.19
24.078,-4.36
24.093,-5.79
24.109,-6.26
24.125,-5.92
24.140,-5.02
24.156,-4.32
24.171,-4.45
24.187,-5.69
24.203,-7.78
24.218,-10.14
24.234,-12.11
24.250,-13.36
24.265,-14.29
24.281,-15.37
24.296,-17.05
24.312,-19.18
24.328,-21.07
24.343,-21.85
24.359,-20.88
24.375,-17.83
24.390,-12.84
24.406,-6.42
24.421,0.66
24.437,7.38
24.453,12.82
24.468,16.32
24.484,17.62
24.500,17.16
24.515,15.68
24.531,14.06
24.546,12.84
24.562,12.1
24.578,11.55
24.593,10.81
24.609,9.78
24.625,8.25
24.640,6.32
24.656,4.04
24.671,1.59
24.687,-0.59
24.703,-2.01
24.718,-2.32
24.734,-1.72
24.750,-0.55
24.765,0.58
24.781,1.38
24.796,1.94
24.812,2.53
24.828,3.5
24.843,4.97
24.859,6.72
24.875,8.31
24.890,9.32
24.906,9.59
24.921,9.19
24.937,8.35
24.953,7.43
24.968,6.68
24.984,6.16
25.000,5.72
25.015,5.1
25.031,4.07
25.046,2.73
25.062,1.35
25.078,0.43
25.093,0.32
25.109,1.05
25.125,2.24
25.140,3.34
25.156,3.94
25.171,3.8
25.187,3.05
25.203,1.9
25.218,0.8
25.234,0.23
25.250,0.57
25.265,1.92
25.281,4.1
25.296,6.63
25.312,9.0
25.328,10.89
25.343,12.29
25.359,13.35
25.375,14.25
25.390,14.98
25.406,15.31
25.421,14.95
25.437,13.71
25.453,11.64
25.468,8.93
25.484,5.94
25.500,2.84
25.515,-0.26
25.531,-3.28
25.546,-6.02
25.562,-8.35
25.578,-10.23
25.593,-11.81
25.609,-13.24
25.625,-14.49
25.640,-15.56
25.656,-16.27
25.671,-16.61
25.687,-16.55
25.703,-16.11
25.718,-15.24
25.734,-13.84
25.750,-11.76
25.765,-8.89
25.781,-5.51
25.796,-2.13
25.812,0.56
25.828,2.31
25.843,3.41
25.859,4.57
25.875,6.47
25.890,9.21
25.906,12.42
25.921,15.44
25.937,17.94
25.953,19.88
25.968,21.6
25.984,23.32
26.000,24.98
26.015,26.34
26.031,27.09
26.046,27.31
26.062,27.12
26.078,26.71
26.093,25.89
26.109,24.24
26.125,21.57
26.140,18.04
26.156,14.38
26.171,11.17
26.187,8.77
26.203,6.97
26.218,5.51
26.234,4.32
26.250,3.5
26.265,3.19
26.281,3.22
26.296,3.18
26.312,2.41
26.328,0.47
26.343,-2.64
26.359,-6.43
26.375,-9.98
26.390,-12.49
26.406,-13.53
26.421,-13.17
26.437,-11.85
26.453,-10.15
26.468,-8.52
26.484,-7.27
26.500,-6.44
26.515,-5.96
26.531,-5.83
26.546,-6.12
26.562,-6.87
26.578,-8.03
26.593,-9.15
26.609,-9.62
26.625,-9.03
26.640,-7.54
26.656,-5.64
26.671,-3.97
26.687,-2.74
26.703,-1.55
26.718,0.2
26.734,2.94
26.750,6.64
26.765,10.87
26.781,14.95
26.796,18.43
26.812,21.05
26.828,22.8
26.843,23.78
26.859,24.18
26.875,24.28
26.890,24.36
26.906,24.57
26.921,24.84
26.937,24.83
26.953,24.09
26.968,22.36
26.984,19.69
27.000,16.47
27.015,13.18
27.031,10.09
27.046,7.06
27.062,3.97
27.078,0.86
27.093,-2.03
27.109,-4.25
27.125,-5.54
27.140,-6.03
27.156,-6.13
27.171,-6.31
27.187,-6.96
27.203,-8.16
27.218,-9.75
27.234,-11.58
27.250,-13.43
27.265,-15.21
27.281,-16.88
27.296,-18.31
27.312,-19.31
27.328,-19.66
27.343,-19.18
27.359,-17.59
27.375,-14.63
27.390,-10.09
27.406,-4.13
27.421,2.56
27.437,9.04
27.453,14.32
27.468,17.83
27.484,19.68
27.500,20.29
27.515,20.34
27.531,20.4
27.546,20.57
27.562,20.67
27.578,20.54
27.593,20.2
27.609,19.81
27.625,19.58
27.640,19.39
27.656,18.95
27.671,17.98
27.687,16.32
27.703,14.1
27.718,11.61
27.734,9.19
27.750,7.09
27.765,5.42
27.781,4.07
27.796,3.01
27.812,2.18
27.828,1.56
27.843,1.12
27.859,0.83
27.875,0.6
27.890,0.31
27.906,-0.16
27.921,-1.04
27.937,-2.51
27.953,-4.59
27.968,-7.27
27.984,-10.32
28.000,-13.48
28.015,-16.4
28.031,-18.87
28.046,-20.63
28.062,-21.64
28.078,-21.86
28.093,-21.38
28.109,-20.43
28.125,-19.1
28.140,-17.5
28.156,-15.45
28.171,-12.73
28.187,-9.31
28.203,-5.48
28.218,-1.74
28.234,1.29
28.250,3.28
28.265,4.39
28.281,4.83
28.296,5.06
28.312,5.38
28.328,5.92
28.343,6.72
28.359,7.88
28.375,9.39
28.390,11.11
28.406,12.83
28.421,14.0
28.437,14.35
28.453,13.72
28.468,12.15
28.484,9.93
28.500,7.31
28.515,4.64
28.531,2.05
28.546,-0.13
28.562,-1.83
28.578,-3.02
28.593,-3.73
28.609,-4.17
28.625,-4.34
28.640,-4.39
28.656,-4.33
28.671,-4.37
28.687,-4.76
28.703,-5.84
28.718,-7.67
28.734,-9.76
28.750,-11.49
28.765,-12.01
28.781,-11.03
28.796,-8.79
28.812,-6.01
28.828,-3.69
28.843,-2.71
28.859,-3.44
28.875,-5.38
28.890,-7.54
28.906,-8.72
28.921,-8.36
28.937,-6.54
28.953,-3.94
28.968,-1.56
28.984,-0.02
29.000,0.42
29.015,0.12
29.031,-0.39
29.046,-0.57
29.062,-0.16
29.078,0.77
29.093,2.11
29.109,3.71
29.125,5.72
29.140,8.13
29.156,10.79
29.171,13.28
29.187,15.16
29.203,16.05
29.218,15.64
29.234,13.99
29.250,11.42
29.265,8.59
29.281,6.09
29.296,4.43
29.312,3.79
29.328,4.08
29.343,5.01
29.359,6.04
29.375,6.76
29.390,6.92
29.406,6.68
29.421,6.33
29.437,6.09
29.453,5.98
29.468,5.68
29.484,4.84
29.500,3.28
29.515,1.25
29.531,-1.0
29.546,-3.3
29.562,-5.9
29.578,-9.15
29.593,-13.31
29.609,-18.19
29.625,-23.16
29.640,-27.33
29.656,-29.87
29.671,-30.52
29.687,-29.48
29.703,-27.28
29.718,-24.37
29.734,-21.12
29.750,-17.67
29.765,-14.13
29.781,-10.6
29.796,-7.03
29.812,-3.62
29.828,-0.48
29.843,2.15
29.859,4.0
29.875,5.07
29.890,5.57
29.906,5.86
29.921,6.3
29.937,6.97
29.953,7.64
29.968,7.98
29.984,7.82
30.000,7.07
30.015,5.98
30.031,4.87
30.046,4.01
30.062,3.51
30.078,3.46
30.093,3.61
30.109,3.67
30.125,3.32
30.140,2.15
30.156,0.15
30.171,-2.44
30.187,-4.94
30.203,-6.88
30.218,-7.86
30.234,-8.06
30.250,-7.69
30.265,-6.96
30.281,-6.13
30.296,-5.21
30.312,-4.44
30.328,-4.02
30.343,-4.29
30.359,-5.34
30.375,-7.06
30.390,-8.98
30.406,-10.52
30.421,-11.18
30.437,-10.64
30.453,-8.86
30.468,-6.13
30.484,-3.06
30.500,-0.26
30.515,1.66
30.531,2.38
30.546,1.96
30.562,0.77
30.578,-0.56
30.593,-1.45
30.609,-1.68
30.625,-1.25
30.640,-0.46
30.656,0.31
30.671,0.65
30.687,0.44
30.703,-0.37
30.718,-1.47
30.734,-2.48
30.750,-3.09
30.765,-3.16
30.781,-2.75
30.796,-2.06
30.812,-1.31
30.828,-0.49
30.843,0.34
30.859,1.24
30.875,2.17
30.890,3.1
30.906,3.93
30.921,4.65
30.937,5.19
30.953,5.37
30.968,5.07
30.984,4.18
31.000,2.76
31.015,0.9
31.031,-1.23
31.046,-3.46
31.062,-5.67
31.078,-7.66
31.093,-9.28
31.109,-10.34
31.125,-10.72
31.140,-10.38
31.156,-9.6
31.171,-8.71
31.187,-7.94
31.203,-7.36
31.218,-6.7
31.234,-5.68
31.250,-4.14
31.265,-2.29
31.281,-0.52
31.296,0.62
31.312,0.8
31.328,0.15
31.343,-0.99
31.359,-2.05
31.375,-2.63
31.390,-2.43
31.406,-1.56
31.421,-0.3
31.437,1.13
31.453,2.52
31.468,3.86
31.484,4.92
31.500,5.57
31.515,5.65
31.531,5.35
31.546,5.15
31.562,5.51
31.578,6.69
31.593,8.49
31.609,10.26
31.625,11.34
31.640,11.47
31.656,10.82
31.671,9.74
31.687,8.5
31.703,7.07
31.718,5.28
31.734,3.29
31.750,1.54
31.765,0.47
31.781,0.34
31.796,0.86
31.812,1.22
31.828,0.82
31.843,-0.49
31.859,-2.41
31.875,-4.3
31.890,-5.78
31.906,-6.93
31.921,-8.06
31.937,-9.38
31.953,-10.84
31.968,-12.0
31.984,-12.4
32.000,-11.96
32.015,-10.62
32.031,-8.61
32.046,-6.09
32.062,-3.2
32.078,-0.21
32.093,2.48
32.109,4.57
32.125,5.91
32.140,6.5
32.156,6.71
32.171,6.74
32.187,6.78
32.203,7.03
32.218,7.59
32.234,8.49
32.250,9.77
32.265,11.25
32.281,12.41
32.296,12.85
32.312,12.08
32.328,9.9
32.343,6.55
32.359,2.45
32.375,-1.94
32.390,-6.14
32.406,-9.76
32.421,-12.58
32.437,-14.44
32.453,-15.5
32.468,-16.08
32.484,-16.3
32.500,-16.17
32.515,-15.48
32.531,-14.09
32.546,-11.96
32.562,-9.3
32.578,-6.3
32.593,-3.22
32.609,-0.31
32.625,2.26
32.640,4.2
32.656,5.28
32.671,5.22
32.687,3.82
32.703,0.96
32.718,-3.15
32.734,-8.13
32.750,-13.35
32.765,-17.93
32.781,-21.09
32.796,-22.15
32.812,-21.07
32.828,-18.44
32.843,-15.06
32.859,-11.47
32.875,-7.89
32.890,-4.32
32.906,-0.84
32.921,2.1
32.937,3.98
32.953,4.78
32.968,5.1
32.984,5.89
33.000,7.89
33.015,10.86
33.031,13.74
33.046,15.3
33.062,14.92
33.078,13.14
33.093,11.39
33.109,10.95
33.125,12.27
33.140,14.68
33.156,17.1
33.171,18.76
33.187,19.52
33.203,19.83
33.218,19.87
33.234,19.46
33.250,17.89
33.265,14.58
33.281,9.45
33.296,3.38
33.312,-2.35
33.328,-6.62
33.343,-9.05
33.359,-10.11
33.375,-10.61
33.390,-11.39
33.406,-12.75
33.421,-14.44
33.437,-15.92
33.453,-16.86
33.468,-17.3
33.484,-17.57
33.500,-18.06
33.515,-18.86
33.531,-19.68
33.546,-20.1
33.562,-19.78
33.578,-18.71
33.593,-16.99
33.609,-14.74
33.625,-11.96
33.640,-8.66
33.656,-5.04
33.671,-1.37
33.687,1.78
33.703,4.06
33.718,5.26
33.734,5.68
33.750,5.69
33.765,5.78
33.781,6.05
33.796,6.35
33.812,6.3
33.828,5.6
33.843,4.26
33.859,2.68
33.875,1.39
33.890,0.78
33.906,1.03
33.921,1.73
33.937,2.59
33.953,3.28
33.968,3.62
33.984,3.69
34.000,3.75
34.015,3.75
34.031,3.67
34.046,3.58
34.062,3.41
34.078,3.3
34.093,3.38
34.109,3.52
34.125,3.54
34.140,3.34
34.156,2.74
34.171,1.72
34.187,0.46
34.203,-0.93
34.218,-2.25
34.234,-3.3
34.250,-4.13
34.265,-5.02
34.281,-6.43
34.296,-8.86
34.312,-12.49
34.328,-17.02
34.343,-21.89
34.359,-26.32
34.375,-29.87
34.390,-32.55
34.406,-34.57
34.421,-36.3
34.437,-37.76
34.453,-38.71
34.468,-38.52
34.484,-36.72
34.500,-32.87
34.515,-27.05
34.531,-19.91
34.546,-12.31
34.562,-5.4
34.578,0.08
34.593,3.93
34.609,6.67
34.625,9.12
34.640,12.23
34.656,16.5
34.671,21.92
34.687,28.12
34.703,34.3
34.718,39.44
34.734,42.55
34.750,43.05
34.765,41.25
34.781,38.73
34.796,38.03
34.812,41.59
34.828,50.64
34.843,64.01
34.859,78.35
34.875,89.31
34.890,93.12
34.906,88.29
34.921,75.82
34.937,58.9
34.953,41.2
34.968,25.89
34.984,14.53
35.000,7.14
35.015,2.76
35.031,0.04
35.046,-2.07
35.062,-4.31
35.078,-7.02
35.093,-10.57
35.109,-15.24
35.125,-21.33
35.140,-28.95
35.156,-37.85
35.171,-47.42
35.187,-56.92
35.203,-65.58
35.218,-72.94
35.234,-78.88
35.250,-83.31
35.265,-86.08
35.281,-86.84
35.296,-85.02
35.312,-80.23
35.328,-72.55
35.343,-62.51
35.359,-51.09
35.375,-39.39
35.390,-28.29
35.406,-18.39
35.421,-9.95
35.437,-3.03
35.453,2.32
35.468,6.06
35.484,8.39
35.500,9.85
35.515,11.37
35.531,13.99
35.546,18.38
35.562,24.55
35.578,31.8
35.593,38.91
35.609,44.68
35.625,48.48
35.640,50.35
35.656,50.68
35.671,49.97
35.687,48.21
35.703,44.95
35.718,39.81
35.734,32.77
35.750,24.74
35.765,17.32
35.781,12.25
35.796,10.55
35.812,12.14
35.828,15.7
35.843,19.22
35.859,21.08
35.875,20.61
35.890,18.29
35.906,15.33
35.921,12.77
35.937,10.98
35.953,9.63
35.968,8.0
35.984,5.36
36.000,1.53
36.015,-3.23
36.031,-8.29
36.046,-13.05
36.062,-17.24
36.078,-20.77
36.093,-23.63
36.109,-25.67
36.125,-26.66
36.140,-26.24
36.156,-24.33
36.171,-21.16
36.187,-17.38
36.203,-13.88
36.218,-11.38
36.234,-10.13
36.250,-9.65
36.265,-9.09
36.281,-7.59
36.296,-4.77
36.312,-0.88
36.328,3.4
36.343,7.43
36.359,10.95
36.375,13.94
36.390,16.64
36.406,19.27
36.421,21.76
36.437,23.95
36.453,25.6
36.468,26.62
36.484,27.02
36.500,26.88
36.515,26.12
36.531,24.54
36.546,22.09
36.562,18.74
36.578,14.71
36.593,10.27
36.609,5.74
36.625,1.36
36.640,-2.72
36.656,-6.59
36.671,-10.3
36.687,-13.78
36.703,-16.9
36.718,-19.24
36.734,-20.6
36.750,-20.89
36.765,-20.15
36.781,-18.64
36.796,-16.77
36.812,-14.8
36.828,-13.04
36.843,-11.86
36.859,-11.32
36.875,-11.53
36.890,-12.34
36.906,-13.39
36.921,-14.26
36.937,-14.5
36.953,-13.57
36.968,-11.09
36.984,-7.04
37.000,-1.69
37.015,4.24
37.031,9.86
37.046,14.49
37.062,17.75
37.078,19.82
37.093,21.21
37.109,22.46
37.125,23.91
37.140,25.62
37.156,27.25
37.171,28.29
37.187,28.27
37.203,26.76
37.218,23.8
37.234,19.85
37.250,15.67
37.265,12.14
37.281,9.95
37.296,9.33
37.312,10.16
37.328,12.23
37.343,15.22
37.359,18.89
37.375,22.94
37.390,26.77
37.406,29.73
37.421,31.22
37.437,30.89
37.453,28.67
37.468,24.33
37.484,17.3
37.500,6.75
37.515,-7.96
37.531,-26.46
37.546,-46.97
37.562,-66.62
37.578,-82.31
37.593,-91.74
37.609,-94.41
37.625,-91.41
37.640,-84.81
37.656,-76.82
37.671,-69.04
37.687,-62.23
37.703,-56.78
37.718,-53.04
37.734,-51.28
37.750,-51.86
37.765,-54.73
37.781,-59.41
37.796,-65.27
37.812,-71.67
37.828,-78.01
37.843,-83.65
37.859,-87.84
37.875,-89.47
37.890,-87.13
37.906,-79.39
37.921,-64.99
37.937,-43.36
37.953,-14.8
37.968,19.34
37.984,56.65
38.000,93.91
38.015,127.68
38.031,155.07
38.046,174.23
38.062,184.68
38.078,187.07
38.093,182.87
38.109,173.75
38.125,161.31
38.140,146.78
38.156,131.03
38.171,114.46
38.187,97.06
38.203,78.65
38.218,58.95
38.234,38.13
38.250,16.81
38.265,-3.88
38.281,-22.58
38.296,-38.09
38.312,-49.77
38.328,-57.6
38.343,-61.85
38.359,-63.17
38.375,-62.21
38.390,-59.56
38.406,-55.82
38.421,-51.56
38.437,-47.46
38.453,-44.29
38.468,-42.59
38.484,-42.55
38.500,-43.88
38.515,-46.08
38.531,-48.58
38.546,-50.92
38.562,-52.79
38.578,-54.03
38.593,-54.54
38.609,-54.18
38.625,-52.75
38.640,-50.26
38.656,-46.97
38.671,-43.37
38.687,-39.98
38.703,-37.1
38.718,-34.65
38.734,-32.12
38.750,-28.91
38.765,-24.51
38.781,-18.79
38.796,-12.07
38.812,-4.9
38.828,2.02
38.843,8.1
38.859,13.04
38.875,16.71
38.890,19.23
38.906,20.83
38.921,21.84
38.937,22.61
38.953,23.48
38.968,24.54
38.984,25.78
39.000,27.13
39.015,28.36
39.031,29.18
39.046,29.32
39.062,28.59
39.078,26.98
39.093,24.77
39.109,22.3
39.125,20.08
39.140,18.6
39.156,18.13
39.171,18.53
39.187,19.41
39.203,20.15
39.218,20.14
39.234,19.17
39.250,17.29
39.265,14.88
39.281,12.39
39.296,10.0
39.312,7.62
39.328,5.03
39.343,2.1
39.359,-1.03
39.375,-4.02
39.390,-6.57
39.406,-8.38
39.421,-9.42
39.437,-9.74
39.453,-9.3
39.468,-7.99
39.484,-5.71
39.500,-2.48
39.515,1.39
39.531,5.28
39.546,8.49
39.562,10.56
39.578,11.38
39.593,11.33
39.609,10.98
39.625,10.93
39.640,11.47
39.656,12.56
39.671,13.85
39.687,14.9
39.703,15.5
39.718,15.64
39.734,15.63
39.750,15.6
39.765,15.65
39.781,15.7
39.796,15.65
39.812,15.67
39.828,16.0
39.843,16.88
39.859,18.26
39.875,19.77
39.890,20.68
39.906,20.39
39.921,18.59
39.937,15.43
39.953,11.47
39.968,7.26
39.984,3.19
40.000,-0.67
40.015,-4.43
40.031,-8.3
40.046,-12.17
40.062,-15.69
40.078,-18.42
40.093,-20.04
40.109,-20.78
40.125,-21.05
40.140,-21.35
40.156,-21.94
40.171,-22.82
40.187,-23.6
40.203,-23.61
40.218,-22.43
40.234,-19.88
40.250,-16.27
40.265,-12.07
40.281,-7.65
40.296,-3.36
40.312,0.72
40.328,4.39
40.343,7.53
40.359,9.92
40.375,11.37
40.390,11.88
40.406,11.56
40.421,10.89
40.437,10.21
40.453,9.93
40.468,10.24
40.484,11.1
40.500,12.29
40.515,13.6
40.531,14.85
40.546,15.84
40.562,16.58
40.578,17.11
40.593,17.43
40.609,17.56
40.625,17.43
40.640,17.06
40.656,16.55
40.671,16.17
40.687,15.91
40.703,15.69
40.718,15.34
40.734,14.59
40.750,13.45
40.765,12.04
40.781,10.76
40.796,9.7
40.812,8.87
40.828,7.96
40.843,6.77
40.859,5.38
40.875,3.91
40.890,2.61
40.906,1.4
40.921,0.12
40.937,-1.48
40.953,-3.48
40.968,-5.66
40.984,-7.74
41.000,-9.47
41.015,-11.0
41.031,-12.47
41.046,-14.1
41.062,-15.76
41.078,-17.07
41.093,-17.71
41.109,-17.58
41.125,-16.87
41.140,-15.84
41.156,-14.74
41.171,-13.32
41.187,-11.44
41.203,-8.92
41.218,-5.87
41.234,-2.83
41.250,-0.29
41.265,1.36
41.281,2.22
41.296,2.51
41.312,2.72
41.328,3.03
41.343,3.48
41.359,3.98
41.375,4.46
41.390,5.1
41.406,6.04
41.421,7.4
41.437,9.01
41.453,10.49
41.468,11.44
41.484,11.68
41.500,11.26
41.515,10.24
41.531,8.81
41.546,6.94
41.562,4.62
41.578,2.02
41.593,-0.58
41.609,-2.89
41.625,-4.73
41.640,-6.14
41.656,-7.45
41.671,-8.8
41.687,-10.28
41.703,-11.83
41.718,-13.31
41.734,-14.59
41.750,-15.48
41.765,-15.74
41.781,-15.13
41.796,-13.71
41.812,-11.94
41.828,-10.58
41.843,-10.21
41.859,-11.0
41.875,-12.46
41.890,-13.54
41.906,-13.08
41.921,-10.38
41.937,-5.48
41.953,0.9
41.968,7.63
41.984,13.62
42.000,18.28
42.015,21.34
42.031,23.01
42.046,23.61
42.062,23.4
42.078,22.53
42.093,21.0
42.109,18.77
42.125,15.93
42.140,12.82
42.156,9.73
42.171,6.75
42.187,3.89
42.203,1.14
42.218,-1.22
42.234,-2.75
42.250,-2.93
42.265,-1.65
42.281,0.72
42.296,3.54
42.312,5.95
42.328,7.48
42.343,8.08
42.359,8.0
42.375,7.45
42.390,6.54
42.406,5.29
42.421,3.65
42.437,1.78
42.453,-0.13
42.468,-1.8
42.484,-3.13
42.500,-4.22
42.515,-5.22
42.531,-6.35
42.546,-7.81
42.562,-9.81
42.578,-12.41
42.593,-15.42
42.609,-18.41
42.625,-20.81
42.640,-22.26
42.656,-22.79
42.671,-22.76
42.687,-22.56
42.703,-22.47
42.718,-22.55
42.734,-22.74
42.750,-22.98
42.765,-23.13
42.781,-22.91
42.796,-21.94
42.812,-19.95
42.828,-16.85
42.843,-12.93
42.859,-8.58
42.875,-4.24
42.890,-0.08
42.906,3.99
42.921,8.06
42.937,12.19
42.953,16.19
42.968,19.99
42.984,23.45
43.000,26.51
43.015,28.87
43.031,30.04
43.046,29.5
43.062,26.98
43.078,22.8
43.093,17.82
43.109,13.12
43.125,9.56
43.140,7.57
43.156,6.95
43.171,7.16
43.187,7.61
43.203,8.01
43.218,8.34
43.234,8.71
43.250,9.14
43.265,9.36
43.281,9.07
43.296,8.01
43.312,6.16
43.328,3.8
43.343,1.37
43.359,-0.88
43.375,-2.86
43.390,-4.64
43.406,-6.32
43.421,-7.84
43.437,-8.98
43.453,-9.57
43.468,-9.59
43.484,-9.37
43.500,-9.47
43.515,-10.49
43.531,-12.77
43.546,-16.21
43.562,-20.27
43.578,-23.98
43.593,-26.37
43.609,-26.83
43.625,-25.27
43.640,-22.23
43.656,-18.53
43.671,-14.99
43.687,-12.07
43.703,-9.72
43.718,-7.65
43.734,-5.39
43.750,-2.75
43.765,0.4
43.781,4.03
43.796,8.16
43.812,12.77
43.828,17.73
43.843,22.75
43.859,27.13
43.875,30.0
43.890,30.62
43.906,28.7
43.921,24.7
43.937,19.58
43.953,14.62
43.968,10.75
43.984,8.56
44.000,8.06
44.015,8.82
44.031,10.37
44.046,12.08
44.062,13.46
44.078,14.02
44.093,13.51
44.109,11.71
44.125,8.84
44.140,5.17
44.156,1.02
44.171,-3.42
44.187,-8.34
44.203,-13.9
44.218,-20.26
44.234,-27.2
44.250,-34.34
44.265,-40.94
44.281,-46.45
44.296,-50.52
44.312,-53.06
44.328,-54.23
44.343,-54.02
44.359,-52.43
44.375,-49.34
44.390,-44.76
44.406,-38.84
44.421,-31.96
44.437,-24.68
44.453,-17.36
44.468,-10.39
44.484,-3.75
44.500,2.64
44.515,8.76
44.531,14.39
44.546,19.13
44.562,22.44
44.578,23.85
44.593,23.34
44.609,21.12
44.625,17.72
44.640,13.69
44.656,9.3
44.671,4.72
44.687,0.04
44.703,-4.55
44.718,-8.7
44.734,-11.9
44.750,-13.92
44.765,-14.65
44.781,-14.23
44.796,-12.98
44.812,-11.1
44.828,-8.77
44.843,-6.22
44.859,-3.71
44.875,-1.58
44.890,-0.26
44.906,-0.05
44.921,-1.05
44.937,-3.18
44.953,-6.14
44.968,-9.6
44.984,-13.14
45.000,-16.3
45.015,-18.87
45.031,-20.91
45.046,-22.63
45.062,-24.38
45.078,-26.39
45.093,-28.53
45.109,-30.6
45.125,-32.39
45.140,-33.71
45.156,-34.56
45.171,-35.0
45.187,-34.91
45.203,-34.23
45.218,-32.79
45.234,-30.39
45.250,-26.97
45.265,-22.47
45.281,-16.67
45.296,-9.66
45.312,-1.73
45.328,6.73
45.343,15.03
45.359,22.67
45.375,29.37
45.390,35.0
45.406,39.49
45.421,42.92
45.437,45.27
45.453,46.72
45.468,47.53
45.484,47.86
45.500,47.81
45.515,47.29
45.531,46.15
45.546,44.25
45.562,41.61
45.578,38.25
45.593,34.38
45.609,30.24
45.625,26.06
45.640,22.18
45.656,18.98
45.671,16.65
45.687,15.21
45.703,14.32
45.718,13.55
45.734,12.56
45.750,11.25
45.765,9.55
45.781,7.58
45.796,5.3
45.812,2.46
45.828,-1.23
45.843,-6.02
45.859,-11.83
45.875,-18.1
45.890,-23.9
45.906,-28.52
45.921,-31.57
45.937,-33.31
45.953,-34.33
45.968,-35.15
45.984,-36.01
46.000,-36.87
46.015,-37.59
46.031,-38.09
46.046,-38.49
46.062,-38.89
46.078,-39.17
46.093,-38.97
46.109,-37.66
46.125,-34.6
46.140,-29.58
46.156,-22.72
46.171,-14.64
46.187,-6.22
46.203,1.61
46.218,8.08
46.234,12.79
46.250,15.78
46.265,17.46
46.281,18.37
46.296,18.95
46.312,19.47
46.328,20.08
46.343,20.8
46.359,21.73
46.375,22.9
46.390,24.28
46.406,25.87
46.421,27.52
46.437,29.13
46.453,30.61
46.468,32.04
46.484,33.45
46.500,34.84
46.515,36.19
46.531,37.34
46.546,38.17
46.562,38.44
46.578,38.05
46.593,36.89
46.609,35.03
46.625,32.59
46.640,29.6
46.656,26.12
46.671,22.16
46.687,17.85
46.703,13.39
46.718,9.06
46.734,5.07
46.750,1.47
46.765,-1.86
46.781,-5.12
46.796,-8.54
46.812,-12.3
46.828,-16.26
46.843,-20.41
46.859,-24.6
46.875,-28.81
46.890,-33.17
46.906,-37.69
46.921,-42.32
46.937,-46.64
46.953,-50.2
46.968,-52.23
46.984,-52.25
47.000,-50.08
47.015,-45.94
47.031,-40.48
47.046,-34.29
47.062,-27.89
47.078,-21.48
47.093,-15.3
47.109,-9.49
47.125,-4.24
47.140,0.24
47.156,4.03
47.171,7.29
47.187,10.39
47.203,13.42
47.218,16.44
47.234,19.19
47.250,21.52
47.265,23.33
47.281,24.56
47.296,25.13
47.312,24.69
47.328,23.1
47.343,20.26
47.359,16.47
47.375,12.28
47.390,8.27
47.406,4.93
47.421,2.53
47.437,1.25
47.453,0.89
47.468,1.37
47.484,2.39
47.500,3.61
47.515,4.72
47.531,5.5
47.546,5.88
47.562,5.77
47.578,5.22
47.593,4.1
47.609,2.63
47.625,1.2
47.640,0.32
47.656,0.32
47.671,0.96
47.687,1.63
47.703,1.48
47.718,0.07
47.734,-2.55
47.750,-5.71
47.765,-8.8
47.781,-11.31
47.796,-13.03
47.812,-14.11
47.828,-14.66
47.843,-14.71
47.859,-14.16
47.875,-12.84
47.890,-10.6
47.906,-7.65
47.921,-4.31
47.937,-0.88
47.953,2.26
47.968,4.94
47.984,7.11
48.000,8.92
48.015,10.45
48.031,11.82
48.046,12.97
48.062,13.76
48.078,14.13
48.093,14.04
48.109,13.66
48.125,13.25
48.140,13.07
48.156,13.23
48.171,13.62
48.187,14.0
48.203,14.11
48.218,13.78
48.234,12.97
48.250,11.89
48.265,10.63
48.281,9.16
48.296,7.41
48.312,5.34
48.328,3.14
48.343,1.15
48.359,-0.3
48.375,-1.28
48.390,-1.97
48.406,-2.89
48.421,-4.41
48.437,-6.43
48.453,-8.64
48.468,-10.53
48.484,-11.98
48.500,-12.97
48.515,-13.8
48.531,-14.57
48.546,-15.34
48.562,-16.04
48.578,-16.55
48.593,-17.05
48.609,-17.69
48.625,-18.75
48.640,-19.99
48.656,-20.94
48.671,-20.89
48.687,-19.43
48.703,-16.52
48.718,-12.56
48.734,-8.17
48.750,-3.79
48.765,0.17
48.781,3.64
48.796,6.43
48.812,8.49
48.828,9.75
48.843,10.29
48.859,10.38
48.875,10.26
48.890,10.19
48.906,10.03
48.921,9.69
48.937,8.99
48.953,8.06
48.968,7.2
48.984,6.53
49.000,5.99
49.015,5.2
49.031,3.93
49.046,2.14
49.062,0.18
49.078,-1.35
49.093,-1.99
49.109,-1.52
49.125,-0.25
49.140,1.4
49.156,2.99
49.171,4.37
49.187,5.41
49.203,6.05
49.218,6.16
49.234,5.58
49.250,4.49
49.265,3.07
49.281,1.71
49.296,0.49
49.312,-0.54
49.328,-1.69
49.343,-3.24
49.359,-5.3
49.375,-7.8
49.390,-10.37
49.406,-12.75
49.421,-14.63
49.437,-15.98
49.453,-16.76
49.468,-16.96
49.484,-16.68
49.500,-15.97
49.515,-14.93
49.531,-13.47
49.546,-11.62
49.562,-9.25
49.578,-6.57
49.593,-3.84
49.609,-1.31
49.625,0.86
49.640,2.72
49.656,4.5
49.671,6.35
49.687,8.06
49.703,9.31
49.718,9.73
49.734,9.22
49.750,8.04
49.765,6.64
49.781,5.58
49.796,5.09
49.812,5.17
49.828,5.66
49.843,6.27
49.859,6.85
49.875,7.35
49.890,7.75
49.906,8.09
49.921,8.48
49.937,8.95
49.953,9.36
49.968,9.62
49.984,9.59
50.000,9.14
50.015,8.31
50.031,7.26
50.046,6.04
50.062,4.7
50.078,2.94
50.093,0.26
50.109,-3.6
50.125,-8.52
50.140,-14.01
50.156,-19.29
50.171,-23.59
50.187,-26.47
50.203,-27.89
50.218,-28.0
50.234,-27.08
50.250,-25.14
50.265,-22.05
50.281,-17.86
50.296,-12.76
50.312,-7.29
50.328,-2.19
50.343,1.83
50.359,4.53
50.375,6.04
50.390,6.9
50.406,7.75
50.421,8.99
50.437,10.74
50.453,12.63
50.468,14.22
50.484,15.05
50.500,15.19
50.515,14.79
50.531,14.2
50.546,13.54
50.562,12.66
50.578,11.5
50.593,9.97
50.609,8.2
50.625,6.48
50.640,5.12
50.656,4.11
50.671,3.43
50.687,3.03
50.703,2.9
50.718,3.19
50.734,3.89
50.750,4.82
50.765,5.72
50.781,6.35
50.796,6.42
50.812,6.06
50.828,5.42
50.843,4.62
50.859,3.65
50.875,2.29
50.890,0.24
50.906,-2.68
50.921,-6.41
50.937,-10.81
50.953,-15.37
50.968,-19.49
50.984,-22.57
51.000,-24.05
51.015,-23.7
51.031,-21.59
51.046,-18.16
51.062,-14.04
51.078,-9.96
51.093,-6.36
51.109,-3.36
51.125,-0.85
51.140,1.51
51.156,3.84
51.171,6.16
51.187,8.42
51.203,10.66
51.218,12.94
51.234,15.48
51.250,18.34
51.265,21.27
51.281,23.93
51.296,25.78
51.312,26.62
51.328,26.5
51.343,25.67
51.359,24.45
51.375,23.0
51.390,21.46
51.406,19.76
51.421,18.09
51.437,16.55
51.453,15.22
51.468,14.11
51.484,13.03
51.500,11.83
51.515,10.35
51.531,8.68
51.546,6.82
51.562,5.11
51.578,3.69
51.593,2.58
51.609,1.64
51.625,0.51
51.640,-1.2
51.656,-3.79
51.671,-7.32
51.687,-11.76
51.703,-16.72
51.718,-21.9
51.734,-27.11
51.750,-32.09
51.765,-36.51
51.781,-39.92
51.796,-41.77
51.812,-41.58
51.828,-39.31
51.843,-35.15
51.859,-29.65
51.875,-23.51
51.890,-17.18
51.906,-11.06
51.921,-5.31
51.937,-0.06
51.953,4.71
51.968,9.05
51.984,13.15
52.000,17.11
52.015,20.88
52.031,24.37
52.046,27.16
52.062,28.97
52.078,29.73
52.093,29.53
52.109,28.71
52.125,27.75
52.140,26.79
52.156,25.87
52.171,24.92
52.187,23.81
52.203,22.45
52.218,20.96
52.234,19.36
52.250,17.66
52.265,16.0
52.281,14.34
52.296,12.69
52.312,11.17
52.328,9.84
52.343,8.65
52.359,7.42
52.375,5.84
52.390,3.61
52.406,0.6
52.421,-3.04
52.437,-7.1
52.453,-11.25
52.468,-15.42
52.484,-19.64
52.500,-24.08
52.515,-28.81
52.531,-33.59
52.546,-38.0
52.562,-41.4
52.578,-43.17
52.593,-42.92
52.609,-40.56
52.625,-36.25
52.640,-30.27
52.656,-23.12
52.671,-15.3
52.687,-7.25
52.703,0.65
52.718,8.13
52.734,15.16
52.750,21.64
52.765,27.64
52.781,33.32
52.796,38.55
52.812,43.12
52.828,46.75
52.843,49.16
52.859,49.98
52.875,49.12
52.890,46.41
52.906,41.94
52.921,36.0
52.937,28.99
52.953,21.39
52.968,13.7
52.984,6.39
53.000,-0.38
53.015,-6.46
53.031,-11.79
53.046,-16.31
53.062,-19.9
53.078,-22.39
53.093,-23.76
53.109,-24.07
53.125,-23.52
53.140,-22.33
53.156,-20.63
53.171,-18.44
53.187,-15.66
53.203,-12.16
53.218,-7.79
53.234,-2.48
53.250,3.56
53.265,9.76
53.281,15.2
53.296,18.85
53.312,19.71
53.328,17.27
53.343,11.59
53.359,3.18
53.375,-7.02
53.390,-17.93
53.406,-28.5
53.421,-37.88
53.437,-45.16
53.453,-49.63
53.468,-50.78
53.484,-48.39
53.500,-43.14
53.515,-36.11
53.531,-28.65
53.546,-21.78
53.562,-16.02
53.578,-11.06
53.593,-6.17
53.609,-0.74
53.625,5.49
53.640,12.06
53.656,18.19
53.671,23.05
53.687,26.38
53.703,28.31
53.718,29.49
53.734,30.55
53.750,31.76
53.765,33.12
53.781,34.35
53.796,35.14
53.812,35.12
53.828,34.2
53.843,32.36
53.859,29.98
53.875,27.48
53.890,25.2
53.906,23.39
53.921,22.07
53.937,21.19
53.953,20.55
53.968,20.06
53.984,19.51
54.000,18.68
54.015,17.14
54.031,14.5
54.046,10.65
54.062,5.75
54.078,0.19
54.093,-5.6
54.109,-11.13
54.125,-16.22
54.140,-20.87
54.156,-25.35
54.171,-30.06
54.187,-35.35
54.203,-41.31
54.218,-47.6
54.234,-53.5
54.250,-58.07
54.265,-60.68
54.281,-61.07
54.296,-59.26
54.312,-55.47
54.328,-49.71
54.343,-42.04
54.359,-32.73
54.375,-22.43
54.390,-12.03
54.406,-2.61
54.421,5.06
54.437,10.82
54.453,14.9
54.468,17.95
54.484,20.49
54.500,22.87
54.515,25.12
54.531,27.25
54.546,29.19
54.562,30.89
54.578,32.29
54.593,33.14
54.609,33.19
54.625,32.23
54.640,30.35
54.656,27.94
54.671,25.55
54.687,23.59
54.703,22.05
54.718,20.5
54.734,18.22
54.750,14.75
54.765,10.02
54.781,4.46
54.796,-1.14
54.812,-6.2
54.828,-10.44
54.843,-13.96
54.859,-17.13
54.875,-20.33
54.890,-23.72
54.906,-27.22
54.921,-30.52
54.937,-33.39
54.953,-35.87
54.968,-38.11
54.984,-40.2
55.000,-41.92
55.015,-42.77
55.031,-42.03
55.046,-39.31
55.062,-34.7
55.078,-28.86
55.093,-22.96
55.109,-18.01
55.125,-14.5
55.140,-12.19
55.156,-10.21
55.171,-7.44
55.187,-3.03
55.203,3.24
55.218,11.02
55.234,19.36
55.250,27.18
55.265,33.45
55.281,37.43
55.296,38.89
55.312,38.11
55.328,35.7
55.343,32.63
55.359,29.83
55.375,28.11
55.390,27.98
55.406,29.51
55.421,32.35
55.437,35.91
55.453,39.45
55.468,42.21
55.484,43.52
55.500,42.95
55.515,40.48
55.531,36.51
55.546,31.56
55.562,25.96
55.578,19.68
55.593,12.24
55.609,3.28
55.625,-7.16
55.640,-18.38
55.656,-29.17
55.671,-38.29
55.687,-44.93
55.703,-49.07
55.718,-51.07
55.734,-51.61
55.750,-51.06
55.765,-49.58
55.781,-47.18
55.796,-44.0
55.812,-40.25
55.828,-36.15
55.843,-31.9
55.859,-27.41
55.875,-22.6
55.890,-17.34
55.906,-11.59
55.921,-5.46
55.937,0.66
55.953,6.26
55.968,10.9
55.984,14.33
56.000,16.53
56.015,17.85
56.031,18.84
56.046,20.0
56.062,21.69
56.078,23.85
56.093,26.13
56.109,28.01
56.125,29.23
56.140,29.55
56.156,29.0
56.171,27.85
56.187,26.37
56.203,24.7
56.218,22.87
56.234,20.67
56.250,17.68
56.265,13.67
56.281,8.8
56.296,3.58
56.312,-1.2
56.328,-4.8
56.343,-7.03
56.359,-8.01
56.375,-8.19
56.390,-8.04
56.406,-7.71
56.421,-6.98
56.437,-5.45
56.453,-2.77
56.468,1.08
56.484,5.73
56.500,10.49
56.515,14.47
56.531,16.86
56.546,16.96
56.562,14.37
56.578,9.05
56.593,1.44
56.609,-7.61
56.625,-16.98
56.640,-25.42
56.656,-31.86
56.671,-35.47
56.687,-36.0
56.703,-33.61
56.718,-29.08
56.734,-23.26
56.750,-17.03
56.765,-11.1
56.781,-5.84
56.796,-1.45
56.812,2.18
56.828,5.13
56.843,7.69
56.859,9.87
56.875,11.7
56.890,13.02
56.906,13.72
56.921,13.79
56.937,13.28
56.953,12.53
56.968,11.86
56.984,11.62
57.000,12.0
57.015,12.99
57.031,14.52
57.046,16.56
57.062,19.03
57.078,21.78
57.093,24.49
57.109,26.74
57.125,28.12
57.140,28.24
57.156,26.85
57.171,23.91
57.187,19.49
57.203,13.82
57.218,7.29
57.234,0.35
57.250,-6.55
57.265,-12.94
57.281,-18.36
57.296,-22.42
57.312,-24.7
57.328,-25.17
57.343,-24.11
57.359,-22.13
57.375,-20.03
57.390,-18.44
57.406,-17.56
57.421,-17.27
57.437,-17.35
57.453,-17.68
57.468,-18.41
57.484,-19.7
57.500,-21.37
57.515,-22.89
57.531,-23.64
57.546,-23.09
57.562,-21.15
57.578,-18.2
57.593,-14.73
57.609,-11.19
57.625,-7.73
57.640,-4.21
57.656,-0.49
57.671,3.45
57.687,7.49
57.703,11.37
57.718,14.89
57.734,18.0
57.750,20.8
57.765,23.43
57.781,25.9
57.796,28.08
57.812,29.76
57.828,30.86
57.843,31.25
57.859,30.88
57.875,29.84
57.890,28.21
57.906,26.07
57.921,23.46
57.937,20.42
57.953,16.98
57.968,13.34
57.984,9.76
58.000,6.5
58.015,3.94
58.031,2.36
58.046,1.77
58.062,1.97
58.078,2.58
58.093,2.99
58.109,2.65
58.125,1.27
58.140,-1.18
58.156,-4.51
58.171,-8.39
58.187,-12.67
58.203,-17.17
58.218,-21.66
58.234,-25.93
58.250,-29.79
58.265,-32.87
58.281,-34.88
58.296,-35.73
58.312,-35.42
58.328,-34.23
58.343,-32.27
58.359,-29.58
58.375,-26.11
58.390,-21.85
58.406,-17.01
58.421,-11.98
58.437,-7.28
58.453,-3.36
58.468,-0.41
58.484,1.73
58.500,3.43
58.515,5.11
58.531,7.14
58.546,9.51
58.562,11.94
58.578,14.01
58.593,15.44
58.609,16.06
58.625,15.97
58.640,15.43
58.656,14.6
58.671,13.67
58.687,12.65
58.703,11.5
58.718,10.15
58.734,8.75
58.750,7.37
58.765,6.09
58.781,5.04
58.796,4.12
58.812,3.32
58.828,2.51
58.843,1.55
58.859,0.38
58.875,-1.09
58.890,-2.73
58.906,-4.47
58.921,-6.06
58.937,-7.37
58.953,-8.4
58.968,-9.35
58.984,-10.44
59.000,-11.8
59.015,-13.53
59.031,-15.42
59.046,-17.29
59.062,-18.9
59.078,-20.2
59.093,-21.0
59.109,-21.25
59.125,-20.87
59.140,-19.82
59.156,-18.15
59.171,-15.92
59.187,-13.23
59.203,-10.16
59.218,-6.92
59.234,-3.52
59.250,0.01
59.265,3.77
59.281,7.8
59.296,11.89
59.312,15.72
59.328,18.77
59.343,20.53
59.359,20.87
59.375,19.87
59.390,18.05
59.406,15.9
59.421,13.9
59.437,12.19
59.453,10.76
59.468,9.57
59.484,8.59
59.500,7.86
59.515,7.32
59.531,6.82
59.546,6.09
59.562,4.91
59.578,3.11
59.593,0.6
59.609,-2.53
59.625,-5.98
59.640,-9.37
59.656,-12.3
59.671,-14.51
59.687,-15.97
59.703,-16.81
59.718,-17.35
59.734,-17.93
59.750,-18.75
59.765,-19.84
59.781,-21.15
59.796,-22.52
59.812,-23.82
59.828,-24.84
59.843,-25.3
59.859,-24.98
59.875,-23.73
59.890,-21.5
59.906,-18.39
59.921,-14.63
59.937,-10.33
59.953,-5.68
59.968,-0.95
59.984,3.59
