timestamp,value
00.000,9.53
00.015,5.56
00.031,3.89
00.046,4.88
00.062,8.1
00.078,12.41
00.093,16.44
00.109,18.96
00.125,19.26
00.140,17.21
00.156,13.32
00.171,8.46
00.187,3.59
00.203,-0.54
00.218,-3.6
00.234,-5.63
00.250,-7.03
00.265,-8.43
00.281,-10.5
00.296,-13.8
00.312,-18.55
00.328,-24.45
00.343,-30.67
00.359,-35.94
00.375,-38.8
00.390,-38.21
00.406,-34.06
00.421,-27.06
00.437,-18.78
00.453,-10.86
00.468,-4.49
00.484,-0.11
00.500,2.6
00.515,4.33
00.531,5.9
00.546,7.91
00.562,10.81
00.578,14.57
00.593,18.77
00.609,22.76
00.625,25.74
00.640,27.16
00.656,26.78
00.671,24.87
00.687,22.02
00.703,18.98
00.718,16.35
00.734,14.43
00.750,13.41
00.765,13.26
00.781,13.92
00.796,15.15
00.812,16.48
00.828,17.41
00.843,17.29
00.859,15.74
00.875,12.75
00.890,8.69
00.906,4.13
00.921,-0.34
00.937,-4.33
00.953,-7.8
00.968,-10.99
00.984,-14.4
01.000,-18.39
01.015,-23.08
01.031,-28.37
01.046,-33.97
01.062,-39.39
01.078,-43.88
01.093,-46.43
01.109,-46.16
01.125,-42.62
01.140,-36.0
01.156,-27.17
01.171,-17.45
01.187,-8.04
01.203,0.3
01.218,7.67
01.234,14.62
01.250,21.56
01.265,28.21
01.281,33.75
01.296,37.13
01.312,37.6
01.328,35.18
01.343,30.82
01.359,26.33
01.375,23.78
01.390,24.03
01.406,26.43
01.421,29.33
01.437,30.87
01.453,29.7
01.468,25.48
01.484,19.1
01.500,12.53
01.515,7.81
01.531,4.62
01.546,0.42
01.562,-7.69
01.578,-20.76
01.593,-37.78
01.609,-57.09
01.625,-77.97
01.640,-101.18
01.656,-127.98
01.671,-159.53
01.687,-193.36
01.703,-221.08
01.718,-230.4
01.734,-211.95
01.750,-165.3
01.765,-99.76
01.781,-29.01
01.796,35.67
01.812,86.5
01.828,119.46
01.843,132.93
01.859,125.73
01.875,95.28
01.890,39.09
01.906,-41.28
01.921,-136.97
01.937,-215.48
01.953,-242.87
01.968,-205.23
01.984,-119.14
02.000,-15.95
02.015,79.05
02.031,155.21
02.046,212.92
02.062,257.52
02.078,294.56
02.093,325.83
02.109,347.83
02.125,355.81
02.140,348.44
02.156,327.88
02.171,297.88
02.187,261.94
02.203,222.93
02.218,180.15
02.234,135.32
02.250,88.76
02.265,40.76
02.281,-6.77
02.296,-50.69
02.312,-87.78
02.328,-115.79
02.343,-133.41
02.359,-140.48
02.375,-139.07
02.390,-134.2
02.406,-130.5
02.421,-129.88
02.437,-131.85
02.453,-134.92
02.468,-138.21
02.484,-141.19
02.500,-142.65
02.515,-140.64
02.531,-133.11
02.546,-117.79
02.562,-93.29
02.578,-61.31
02.593,-26.9
02.609,2.63
02.625,21.24
02.640,26.74
02.656,21.43
02.671,9.94
02.687,-3.0
02.703,-13.96
02.718,-22.5
02.734,-28.42
02.750,-31.91
02.765,-32.55
02.781,-29.6
02.796,-22.71
02.812,-12.97
02.828,-2.74
02.843,5.75
02.859,10.29
02.875,10.39
02.890,6.75
02.906,0.88
02.921,-5.5
02.937,-11.19
02.953,-15.86
02.968,-20.14
02.984,-24.57
03.000,-29.72
03.015,-35.62
03.031,-41.85
03.046,-47.71
03.062,-52.37
03.078,-55.51
03.093,-57.23
03.109,-58.19
03.125,-58.63
03.140,-58.98
03.156,-59.46
03.171,-59.93
03.187,-59.93
03.203,-58.47
03.218,-54.1
03.234,-44.87
03.250,-33.16
03.265,-19.59
03.281,-4.78
03.296,10.69
03.312,26.31
03.328,41.7
03.343,56.8
03.359,71.76
03.375,86.8
03.390,102.21
03.406,119.06
03.421,138.17
03.437,159.98
03.453,184.14
03.468,208.99
03.484,231.67
03.500,248.71
03.515,257.14
03.531,255.41
03.546,244.58
03.562,227.11
03.578,206.01
03.593,183.87
03.609,162.24
03.625,141.62
03.640,122.04
03.656,103.55
03.671,86.36
03.687,71.1
03.703,58.01
03.718,46.88
03.734,37.1
03.750,27.95
03.765,18.92
03.781,10.0
03.796,1.62
03.812,-5.56
03.828,-10.88
03.843,-14.01
03.859,-15.25
03.875,-15.31
03.890,-15.17
03.906,-15.67
03.921,-17.43
03.937,-20.73
03.953,-25.72
03.968,-32.45
03.984,-40.74
04.000,-50.17
04.015,-59.69
04.031,-67.92
04.046,-73.24
04.062,-74.47
04.078,-71.14
04.093,-63.75
04.109,-53.37
04.125,-41.24
04.140,-28.58
04.156,-16.22
04.171,-5.01
04.187,4.18
04.203,10.39
04.218,13.03
04.234,12.14
04.250,8.68
04.265,4.1
04.281,-0.27
04.296,-3.52
04.312,-5.53
04.328,-6.71
04.343,-7.68
04.359,-8.94
04.375,-10.82
04.390,-13.42
04.406,-16.61
04.421,-20.23
04.437,-23.81
04.453,-26.7
04.468,-28.3
04.484,-28.33
04.500,-27.08
04.515,-25.28
04.531,-23.93
04.546,-23.75
04.562,-25.01
04.578,-27.3
04.593,-29.88
04.609,-31.85
04.625,-32.37
04.640,-31.07
04.656,-28.02
04.671,-23.76
04.687,-19.25
04.703,-15.81
04.718,-14.55
04.734,-16.16
04.750,-20.51
04.765,-26.46
04.781,-32.19
04.796,-35.79
04.812,-35.64
04.828,-30.8
04.843,-21.15
04.859,-7.07
04.875,10.52
04.890,30.18
04.906,49.9
04.921,66.99
04.937,78.44
04.953,81.66
04.968,75.48
04.984,60.75
05.000,40.39
05.015,18.41
05.031,-1.27
05.046,-16.16
05.062,-25.75
05.078,-31.12
05.093,-34.06
05.109,-36.07
05.125,-37.87
05.140,-39.24
05.156,-39.33
05.171,-36.8
05.187,-30.19
05.203,-18.63
05.218,-2.53
05.234,15.84
05.250,32.47
05.265,42.98
05.281,44.47
05.296,36.88
05.312,23.16
05.328,8.06
05.343,-4.15
05.359,-11.1
05.375,-13.03
05.390,-11.94
05.406,-10.15
05.421,-9.39
05.437,-10.24
05.453,-12.52
05.468,-15.75
05.484,-19.45
05.500,-22.87
05.515,-25.2
05.531,-25.35
05.546,-22.22
05.562,-15.23
05.578,-4.71
05.593,8.02
05.609,20.81
05.625,31.32
05.640,37.85
05.656,39.82
05.671,37.91
05.687,33.72
05.703,29.11
05.718,25.42
05.734,23.3
05.750,22.68
05.765,23.04
05.781,23.89
05.796,24.96
05.812,26.28
05.828,28.16
05.843,30.98
05.859,34.86
05.875,39.55
05.890,44.4
05.906,48.44
05.921,50.64
05.937,50.25
05.953,46.97
05.968,41.03
05.984,33.12
06.000,24.21
06.015,15.44
06.031,7.91
06.046,2.41
06.062,-0.7
06.078,-1.64
06.093,-1.17
06.109,-0.44
06.125,-0.59
06.140,-2.59
06.156,-6.93
06.171,-13.58
06.187,-22.12
06.203,-31.6
06.218,-40.86
06.234,-48.61
06.250,-53.66
06.265,-55.06
06.281,-52.38
06.296,-45.73
06.312,-35.83
06.328,-24.03
06.343,-11.84
06.359,-0.71
06.375,8.34
06.390,14.95
06.406,19.37
06.421,22.25
06.437,24.32
06.453,26.04
06.468,27.46
06.484,28.48
06.500,28.91
06.515,28.81
06.531,28.36
06.546,27.81
06.562,27.19
06.578,26.47
06.593,25.59
06.609,24.55
06.625,23.52
06.640,22.68
06.656,22.08
06.671,21.59
06.687,20.94
06.703,19.84
06.718,18.06
06.734,15.69
06.750,12.77
06.765,9.37
06.781,5.4
06.796,0.69
06.812,-4.75
06.828,-10.75
06.843,-16.89
06.859,-22.62
06.875,-27.31
06.890,-30.57
06.906,-32.15
06.921,-32.02
06.937,-30.14
06.953,-26.57
06.968,-21.55
06.984,-15.73
07.000,-10.18
07.015,-6.19
07.031,-4.83
07.046,-6.37
07.062,-10.22
07.078,-15.07
07.093,-19.26
07.109,-21.41
07.125,-20.58
07.140,-16.36
07.156,-8.81
07.171,1.52
07.187,13.58
07.203,25.78
07.218,36.08
07.234,42.56
07.250,43.75
07.265,39.22
07.281,29.72
07.296,16.8
07.312,2.39
07.328,-11.75
07.343,-24.34
07.359,-34.56
07.375,-41.81
07.390,-45.61
07.406,-45.51
07.421,-41.31
07.437,-33.33
07.453,-22.6
07.468,-10.77
07.484,0.3
07.500,8.97
07.515,14.25
07.531,15.9
07.546,14.35
07.562,10.39
07.578,4.84
07.593,-1.52
07.609,-8.26
07.625,-15.07
07.640,-21.8
07.656,-28.35
07.671,-34.5
07.687,-39.85
07.703,-43.77
07.718,-45.65
07.734,-44.89
07.750,-41.23
07.765,-34.77
07.781,-26.04
07.796,-15.92
07.812,-5.58
07.828,3.79
07.843,11.13
07.859,15.74
07.875,17.44
07.890,16.62
07.906,14.09
07.921,10.87
07.937,7.9
07.953,5.77
07.968,4.63
07.984,4.24
08.000,4.29
08.015,4.47
08.031,4.7
08.046,5.11
08.062,5.92
08.078,7.28
08.093,9.25
08.109,11.81
08.125,14.76
08.140,17.91
08.156,20.93
08.171,23.31
08.187,24.46
08.203,23.87
08.218,21.4
08.234,17.47
08.250,13.02
08.265,9.14
08.281,6.68
08.296,5.99
08.312,6.67
08.328,7.98
08.343,9.04
08.359,9.31
08.375,8.65
08.390,7.36
08.406,6.0
08.421,5.2
08.437,5.52
08.453,7.33
08.468,10.67
08.484,15.18
08.500,20.09
08.515,24.45
08.531,27.4
08.546,28.56
08.562,28.2
08.578,27.26
08.593,27.0
08.609,28.63
08.625,32.79
08.640,39.21
08.656,46.79
08.671,53.71
08.687,58.04
08.703,58.2
08.718,53.38
08.734,43.72
08.750,30.28
08.765,14.75
08.781,-0.85
08.796,-14.4
08.812,-24.16
08.828,-28.99
08.843,-28.59
08.859,-23.55
08.875,-15.03
08.890,-4.5
08.906,6.56
08.921,16.74
08.937,24.62
08.953,28.69
08.968,27.58
08.984,20.72
09.000,8.68
09.015,-6.41
09.031,-21.42
09.046,-33.39
09.062,-40.48
09.078,-42.58
09.093,-41.29
09.109,-38.96
09.125,-37.74
09.140,-39.07
09.156,-43.28
09.171,-49.81
09.187,-57.41
09.203,-64.28
09.218,-68.37
09.234,-67.81
09.250,-61.29
09.265,-48.73
09.281,-31.56
09.296,-12.49
09.312,5.21
09.328,18.38
09.343,25.06
09.359,24.75
09.375,18.46
09.390,8.46
09.406,-2.48
09.421,-11.63
09.437,-16.82
09.453,-16.83
09.468,-11.58
09.484,-2.06
09.500,9.76
09.515,21.41
09.531,30.44
09.546,35.1
09.562,34.81
09.578,30.46
09.593,23.85
09.609,16.93
09.625,11.21
09.640,7.15
09.656,4.31
09.671,1.84
09.687,-1.04
09.703,-4.76
09.718,-9.28
09.734,-14.43
09.750,-20.05
09.765,-25.96
09.781,-31.87
09.796,-37.37
09.812,-41.66
09.828,-43.96
09.843,-43.87
09.859,-41.6
09.875,-38.04
09.890,-34.28
09.906,-31.02
09.921,-28.18
09.937,-24.89
09.953,-19.83
09.968,-11.91
09.984,-0.85
10.000,12.62
10.015,27.07
10.031,40.79
10.046,52.39
10.062,60.87
10.078,65.76
10.093,66.91
10.109,64.38
10.125,58.5
10.140,49.94
10.156,39.72
10.171,29.02
10.187,18.96
10.203,10.06
10.218,2.26
10.234,-4.84
10.250,-11.73
10.265,-18.63
10.281,-25.26
10.296,-31.01
10.312,-35.17
10.328,-37.11
10.343,-36.61
10.359,-33.83
10.375,-29.34
10.390,-23.96
10.406,-18.73
10.421,-14.67
10.437,-12.69
10.453,-13.34
10.468,-16.67
10.484,-22.15
10.500,-28.78
10.515,-35.44
10.531,-41.15
10.546,-45.45
10.562,-48.34
10.578,-50.26
10.593,-51.58
10.609,-52.45
10.625,-52.5
10.640,-51.11
10.656,-47.82
10.671,-42.53
10.687,-35.67
10.703,-27.99
10.718,-20.35
10.734,-13.36
10.750,-7.29
10.765,-2.1
10.781,2.46
10.796,6.6
10.812,10.28
10.828,13.43
10.843,15.88
10.859,17.54
10.875,18.44
10.890,18.78
10.906,18.73
10.921,18.5
10.937,18.14
10.953,17.55
10.968,16.59
10.984,15.1
11.000,13.12
11.015,10.74
11.031,8.08
11.046,5.03
11.062,1.45
11.078,-2.94
11.093,-8.08
11.109,-13.57
11.125,-18.65
11.140,-22.44
11.156,-24.33
11.171,-24.32
11.187,-23.03
11.203,-21.37
11.218,-20.27
11.234,-20.36
11.250,-21.85
11.265,-24.64
11.281,-28.39
11.296,-32.57
11.312,-36.62
11.328,-39.91
11.343,-41.89
11.359,-42.12
11.375,-40.43
11.390,-36.88
11.406,-31.89
11.421,-26.04
11.437,-19.96
11.453,-14.13
11.468,-8.82
11.484,-4.01
11.500,0.46
11.515,4.73
11.531,8.89
11.546,12.73
11.562,15.99
11.578,18.31
11.593,19.5
11.609,19.54
11.625,18.63
11.640,17.02
11.656,15.0
11.671,12.91
11.687,10.99
11.703,9.45
11.718,8.45
11.734,8.22
11.750,8.88
11.765,10.4
11.781,12.51
11.796,14.63
11.812,16.08
11.828,16.31
11.843,15.1
11.859,12.59
11.875,9.2
11.890,5.4
11.906,1.38
11.921,-2.77
11.937,-7.12
11.953,-11.6
11.968,-15.92
11.984,-19.61
12.000,-22.15
12.015,-23.4
12.031,-23.52
12.046,-22.97
12.062,-22.15
12.078,-21.16
12.093,-19.83
12.109,-17.8
12.125,-14.88
12.140,-11.12
12.156,-6.89
12.171,-2.62
12.187,1.41
12.203,5.28
12.218,9.3
12.234,13.79
12.250,18.91
12.265,24.41
12.281,29.7
12.296,34.05
12.312,36.86
12.328,37.77
12.343,36.85
12.359,34.39
12.375,30.86
12.390,26.76
12.406,22.46
12.421,18.42
12.437,15.27
12.453,13.66
12.468,14.11
12.484,16.6
12.500,20.44
12.515,24.47
12.531,27.53
12.546,28.74
12.562,27.86
12.578,25.16
12.593,21.12
12.609,16.26
12.625,11.03
12.640,5.73
12.656,0.5
12.671,-4.51
12.687,-9.25
12.703,-13.55
12.718,-17.24
12.734,-20.21
12.750,-22.51
12.765,-24.32
12.781,-25.93
12.796,-27.46
12.812,-28.65
12.828,-28.87
12.843,-27.26
12.859,-23.24
12.875,-16.87
12.890,-8.76
12.906,0.2
12.921,9.26
12.937,17.94
12.953,25.91
12.968,32.85
12.984,38.39
13.000,42.31
13.015,44.49
13.031,45.18
13.046,44.67
13.062,43.2
13.078,40.89
13.093,37.62
13.109,33.32
13.125,28.22
13.140,22.86
13.156,17.8
13.171,13.48
13.187,9.92
13.203,6.99
13.218,4.61
13.234,3.03
13.250,2.68
13.265,3.85
13.281,6.22
13.296,8.59
13.312,9.35
13.328,7.16
13.343,1.66
13.359,-6.19
13.375,-14.61
13.390,-21.66
13.406,-26.09
13.421,-27.73
13.437,-27.34
13.453,-26.09
13.468,-24.99
13.484,-24.67
13.500,-25.35
13.515,-27.14
13.531,-30.13
13.546,-34.06
13.562,-38.28
13.578,-41.42
13.593,-41.83
13.609,-38.26
13.625,-30.43
13.640,-19.31
13.656,-6.85
13.671,4.64
13.687,13.39
13.703,18.74
13.718,21.2
13.734,22.0
13.750,22.21
13.765,22.46
13.781,22.87
13.796,23.35
13.812,23.78
13.828,24.14
13.843,24.35
13.859,24.2
13.875,23.23
13.890,20.84
13.906,16.85
13.921,11.63
13.937,6.3
13.953,2.16
13.968,0.1
13.984,0.12
14.000,1.36
14.015,2.66
14.031,3.02
14.046,2.02
14.062,-0.28
14.078,-3.55
14.093,-7.43
14.109,-11.7
14.125,-16.0
14.140,-19.83
14.156,-22.62
14.171,-24.13
14.187,-24.73
14.203,-25.46
14.218,-27.46
14.234,-31.36
14.250,-36.79
14.265,-42.49
14.281,-46.9
14.296,-48.7
14.312,-47.39
14.328,-43.17
14.343,-36.75
14.359,-28.84
14.375,-20.1
14.390,-11.09
14.406,-2.54
14.421,4.69
14.437,9.87
14.453,12.65
14.468,13.4
14.484,12.98
14.500,12.55
14.515,13.01
14.531,14.82
14.546,17.91
14.562,21.76
14.578,25.68
14.593,28.85
14.609,30.66
14.625,30.61
14.640,28.62
14.656,24.88
14.671,20.0
14.687,14.82
14.703,10.13
14.718,6.43
14.734,3.65
14.750,1.38
14.765,-1.15
14.781,-4.6
14.796,-9.42
14.812,-15.68
14.828,-22.95
14.843,-30.47
14.859,-37.02
14.875,-41.48
14.890,-43.07
14.906,-41.92
14.921,-39.09
14.937,-36.24
14.953,-34.9
14.968,-35.57
14.984,-37.48
15.000,-38.77
15.015,-37.71
15.031,-33.43
15.046,-26.48
15.062,-18.23
15.078,-9.99
15.093,-2.27
15.109,5.47
15.125,14.08
15.140,24.13
15.156,35.01
15.171,45.42
15.187,53.64
15.203,58.39
15.218,59.37
15.234,57.04
15.250,52.51
15.265,46.85
15.281,40.92
15.296,35.08
15.312,29.56
15.328,24.49
15.343,20.25
15.359,17.49
15.375,16.95
15.390,19.22
15.406,24.24
15.421,31.29
15.437,39.14
15.453,46.6
15.468,52.77
15.484,57.24
15.500,59.84
15.515,60.22
15.531,57.82
15.546,51.91
15.562,42.12
15.578,28.71
15.593,12.8
15.609,-3.89
15.625,-19.48
15.640,-32.15
15.656,-40.8
15.671,-44.96
15.687,-44.89
15.703,-41.35
15.718,-35.4
15.734,-28.05
15.750,-20.29
15.765,-12.91
15.781,-6.4
15.796,-1.14
15.812,2.64
15.828,4.89
15.843,5.67
15.859,5.12
15.875,3.43
15.890,0.7
15.906,-2.88
15.921,-6.86
15.937,-10.6
15.953,-13.22
15.968,-13.98
15.984,-12.52
16.000,-8.99
16.015,-4.05
16.031,1.36
16.046,6.24
16.062,9.82
16.078,11.6
16.093,11.37
16.109,9.2
16.125,5.31
16.140,0.14
16.156,-5.64
16.171,-11.24
16.187,-15.9
16.203,-19.09
16.218,-20.58
16.234,-20.67
16.250,-20.03
16.265,-19.67
16.281,-20.55
16.296,-23.17
16.312,-27.56
16.328,-33.11
16.343,-38.77
16.359,-43.4
16.375,-45.81
16.390,-45.24
16.406,-41.47
16.421,-34.9
16.437,-26.37
16.453,-17.1
16.468,-8.19
16.484,-0.44
16.500,5.74
16.515,10.39
16.531,13.75
16.546,16.15
16.562,17.8
16.578,18.94
16.593,19.58
16.609,19.75
16.625,19.55
16.640,18.97
16.656,17.96
16.671,16.28
16.687,13.76
16.703,10.38
16.718,6.64
16.734,3.38
16.750,1.38
16.765,1.13
16.781,2.37
16.796,4.37
16.812,6.18
16.828,7.19
16.843,7.24
16.859,6.57
16.875,5.6
16.890,4.49
16.906,3.15
16.921,1.29
16.937,-1.39
16.953,-5.03
16.968,-9.7
16.984,-15.39
17.000,-21.81
17.015,-28.24
17.031,-33.65
17.046,-36.94
17.062,-37.25
17.078,-34.39
17.093,-28.74
17.109,-21.16
17.125,-12.71
17.140,-4.27
17.156,3.58
17.171,10.46
17.187,16.25
17.203,20.81
17.218,24.09
17.234,26.37
17.250,28.08
17.265,29.73
17.281,31.6
17.296,33.68
17.312,35.55
17.328,36.76
17.343,36.84
17.359,35.73
17.375,33.73
17.390,31.25
17.406,28.6
17.421,25.81
17.437,22.83
17.453,19.74
17.468,17.1
17.484,15.48
17.500,15.24
17.515,15.99
17.531,16.64
17.546,15.71
17.562,12.1
17.578,5.73
17.593,-2.59
17.609,-11.38
17.625,-19.25
17.640,-25.56
17.656,-30.48
17.671,-34.63
17.687,-38.55
17.703,-42.37
17.718,-45.85
17.734,-48.74
17.750,-50.85
17.765,-52.07
17.781,-52.33
17.796,-51.29
17.812,-48.55
17.828,-43.6
17.843,-36.26
17.859,-26.78
17.875,-15.82
17.890,-4.32
17.906,6.82
17.921,16.86
17.937,25.37
17.953,32.15
17.968,37.2
17.984,40.6
18.000,42.53
18.015,43.3
18.031,43.22
18.046,42.59
18.062,41.5
18.078,39.97
18.093,37.91
18.109,35.32
18.125,32.35
18.140,29.41
18.156,27.01
18.171,25.49
18.187,24.9
18.203,24.93
18.218,25.01
18.234,24.47
18.250,22.79
18.265,19.72
18.281,15.29
18.296,9.78
18.312,3.55
18.328,-2.99
18.343,-9.53
18.359,-15.87
18.375,-21.8
18.390,-27.07
18.406,-31.5
18.421,-34.95
18.437,-37.59
18.453,-39.59
18.468,-40.94
18.484,-41.34
18.500,-40.21
18.515,-37.0
18.531,-31.46
18.546,-23.92
18.562,-15.08
18.578,-5.99
18.593,2.53
18.609,9.85
18.625,15.59
18.640,19.48
18.656,21.45
18.671,21.68
18.687,20.53
18.703,18.8
18.718,17.23
18.734,16.42
18.750,16.61
18.765,17.51
18.781,18.46
18.796,18.66
18.812,17.55
18.828,15.12
18.843,12.06
18.859,9.41
18.875,8.18
18.890,8.84
18.906,11.05
18.921,13.85
18.937,16.02
18.953,16.61
18.968,15.16
18.984,11.74
19.000,6.75
19.015,0.78
19.031,-5.58
19.046,-11.71
19.062,-16.93
19.078,-20.74
19.093,-22.76
19.109,-23.05
19.125,-22.19
19.140,-21.02
19.156,-20.32
19.171,-20.26
19.187,-20.34
19.203,-19.44
19.218,-16.5
19.234,-10.97
19.250,-3.18
19.265,5.88
19.281,15.07
19.296,23.57
19.312,31.23
19.328,38.11
19.343,44.2
19.359,48.97
19.375,51.77
19.390,52.22
19.406,50.68
19.421,48.08
19.437,45.44
19.453,43.27
19.468,41.18
19.484,38.17
19.500,33.22
19.515,26.06
19.531,17.39
19.546,8.71
19.562,1.48
19.578,-3.55
19.593,-6.44
19.609,-8.04
19.625,-9.2
19.640,-10.46
19.656,-11.93
19.671,-13.48
19.687,-14.93
19.703,-16.38
19.718,-18.16
19.734,-20.45
19.750,-23.36
19.765,-26.56
19.781,-29.5
19.796,-31.74
19.812,-33.14
19.828,-33.94
19.843,-34.72
19.859,-36.19
19.875,-38.71
19.890,-42.22
19.906,-45.84
19.921,-48.29
19.937,-48.3
19.953,-44.96
19.968,-38.18
19.984,-28.68
20.000,-17.77
20.015,-6.77
20.031,3.31
20.046,12.14
20.062,19.89
20.078,26.81
20.093,33.14
20.109,38.76
20.125,43.49
20.140,47.02
20.156,49.18
20.171,49.86
20.187,49.08
20.203,46.87
20.218,43.17
20.234,38.16
20.250,32.03
20.265,25.36
20.281,18.8
20.296,13.08
20.312,8.72
20.328,5.82
20.343,4.18
20.359,3.25
20.375,2.52
20.390,1.44
20.406,-0.21
20.421,-2.54
20.437,-5.5
20.453,-9.13
20.468,-13.63
20.484,-19.16
20.500,-25.6
20.515,-32.35
20.531,-38.52
20.546,-43.17
20.562,-45.9
20.578,-46.92
20.593,-46.9
20.609,-46.62
20.625,-46.35
20.640,-45.89
20.656,-44.63
20.671,-41.91
20.687,-37.28
20.703,-30.79
20.718,-22.86
20.734,-14.13
20.750,-5.34
20.765,3.07
20.781,10.81
20.796,17.92
20.812,24.56
20.828,30.79
20.843,36.37
20.859,40.79
20.875,43.47
20.890,43.97
20.906,42.31
20.921,38.92
20.937,34.64
20.953,30.49
20.968,27.32
20.984,25.53
21.000,25.04
21.015,25.19
21.031,25.15
21.046,24.16
21.062,21.73
21.078,17.87
21.093,12.87
21.109,7.05
21.125,0.84
21.140,-5.33
21.156,-10.94
21.171,-15.55
21.187,-18.97
21.203,-21.42
21.218,-23.29
21.234,-24.99
21.250,-26.69
21.265,-28.46
21.281,-30.43
21.296,-33.01
21.312,-36.7
21.328,-41.71
21.343,-47.76
21.359,-53.96
21.375,-59.22
21.390,-62.74
21.406,-64.13
21.421,-63.35
21.437,-60.47
21.453,-55.42
21.468,-48.3
21.484,-39.62
21.500,-30.46
21.515,-22.12
21.531,-15.52
21.546,-10.75
21.562,-7.09
21.578,-3.54
21.593,0.65
21.609,5.54
21.625,10.66
21.640,15.31
21.656,18.74
21.671,20.54
21.687,20.59
21.703,19.1
21.718,16.52
21.734,13.45
21.750,10.44
21.765,7.85
21.781,5.89
21.796,4.64
21.812,4.23
21.828,4.93
21.843,6.86
21.859,9.77
21.875,12.94
21.890,15.33
21.906,16.07
21.921,14.92
21.937,12.19
21.953,8.51
21.968,4.36
21.984,-0.24
22.000,-5.63
22.015,-12.03
22.031,-19.43
22.046,-27.28
22.062,-34.67
22.078,-40.61
22.093,-44.3
22.109,-45.13
22.125,-42.78
22.140,-37.09
22.156,-28.18
22.171,-16.7
22.187,-3.72
22.203,9.4
22.218,21.26
22.234,30.83
22.250,37.65
22.265,41.74
22.281,43.45
22.296,43.14
22.312,40.98
22.328,37.08
22.343,31.72
22.359,25.61
22.375,19.82
22.390,15.42
22.406,13.09
22.421,12.98
22.437,14.83
22.453,18.07
22.468,21.85
22.484,25.35
22.500,27.49
22.515,27.52
22.531,25.12
22.546,20.8
22.562,15.86
22.578,11.84
22.593,9.76
22.609,9.61
22.625,10.7
22.640,11.85
22.656,12.17
22.671,11.18
22.687,8.71
22.703,4.71
22.718,-0.73
22.734,-7.17
22.750,-13.78
22.765,-19.39
22.781,-23.41
22.796,-26.22
22.812,-29.24
22.828,-34.13
22.843,-41.49
22.859,-50.29
22.875,-58.12
22.890,-62.33
22.906,-61.24
22.921,-54.97
22.937,-45.05
22.953,-33.68
22.968,-22.78
22.984,-13.43
23.000,-5.85
23.015,0.26
23.031,5.4
23.046,10.32
23.062,15.62
23.078,21.71
23.093,28.3
23.109,34.1
23.125,37.31
23.140,36.27
23.156,30.14
23.171,19.31
23.187,5.46
23.203,-9.09
23.218,-21.9
23.234,-30.93
23.250,-35.05
23.265,-33.85
23.281,-27.72
23.296,-17.67
23.312,-5.31
23.328,7.41
23.343,18.34
23.359,25.6
23.375,28.01
23.390,25.26
23.406,18.2
23.421,8.4
23.437,-2.29
23.453,-12.45
23.468,-21.46
23.484,-29.45
23.500,-36.69
23.515,-43.08
23.531,-48.18
23.546,-51.33
23.562,-52.14
23.578,-50.72
23.593,-47.59
23.609,-43.32
23.625,-38.06
23.640,-31.48
23.656,-22.97
23.671,-12.49
23.687,-0.79
23.703,10.65
23.718,20.15
23.734,26.7
23.750,30.21
23.765,31.64
23.781,32.46
23.796,33.99
23.812,36.62
23.828,39.9
23.843,42.91
23.859,44.77
23.875,45.17
23.890,44.23
23.906,42.3
23.921,39.64
23.937,36.42
23.953,33.05
23.968,30.32
23.984,29.33
24.000,30.87
24.015,35.1
24.031,41.14
24.046,47.23
24.062,51.4
24.078,52.2
24.093,49.18
24.109,42.82
24.125,34.38
24.140,25.44
24.156,17.69
24.171,12.48
24.187,10.28
24.203,10.49
24.218,11.39
24.234,10.71
24.250,6.5
24.265,-2.26
24.281,-15.36
24.296,-31.52
24.312,-48.97
24.328,-66.0
24.343,-80.85
24.359,-91.66
24.375,-96.51
24.390,-93.81
24.406,-83.28
24.421,-66.52
24.437,-46.7
24.453,-27.61
24.468,-12.17
24.484,-1.53
24.500,4.87
24.515,8.34
24.531,10.17
24.546,11.03
24.562,11.25
24.578,11.4
24.593,12.42
24.609,15.25
24.625,20.23
24.640,26.68
24.656,32.97
24.671,37.41
24.687,38.9
24.703,37.33
24.718,33.34
24.734,27.88
24.750,21.85
24.765,15.86
24.781,10.24
24.796,5.14
24.812,0.54
24.828,-3.54
24.843,-7.08
24.859,-9.98
24.875,-12.24
24.890,-13.9
24.906,-15.15
24.921,-16.35
24.937,-17.82
24.953,-19.77
24.968,-22.33
24.984,-25.57
25.000,-29.5
25.015,-34.09
25.031,-39.09
25.046,-43.88
25.062,-47.64
25.078,-49.54
25.093,-49.02
25.109,-46.02
25.125,-40.92
25.140,-34.24
25.156,-26.41
25.171,-17.78
25.187,-8.75
25.203,0.18
25.218,8.32
25.234,15.12
25.250,20.34
25.265,24.17
25.281,27.05
25.296,29.41
25.312,31.42
25.328,32.97
25.343,33.86
25.359,34.09
25.375,33.82
25.390,33.33
25.406,32.75
25.421,32.04
25.437,30.97
25.453,29.51
25.468,27.71
25.484,25.87
25.500,24.28
25.515,23.16
25.531,22.44
25.546,21.81
25.562,20.94
25.578,19.33
25.593,16.68
25.609,12.73
25.625,7.43
25.640,0.93
25.656,-6.41
25.671,-14.1
25.687,-21.68
25.703,-28.73
25.718,-35.0
25.734,-40.41
25.750,-44.95
25.765,-48.5
25.781,-50.78
25.796,-51.38
25.812,-49.8
25.828,-45.76
25.843,-39.34
25.859,-31.01
25.875,-21.56
25.890,-11.7
25.906,-2.09
25.921,6.96
25.937,15.08
25.953,21.88
25.968,26.93
25.984,29.97
26.000,31.07
26.015,30.71
26.031,29.74
26.046,28.7
26.062,27.92
26.078,27.2
26.093,26.29
26.109,25.07
26.125,23.66
26.140,22.2
26.156,20.66
26.171,18.93
26.187,16.82
26.203,14.44
26.218,12.24
26.234,10.79
26.250,10.33
26.265,10.45
26.281,10.27
26.296,8.82
26.312,5.69
26.328,1.14
26.343,-4.08
26.359,-9.16
26.375,-13.62
26.390,-17.46
26.406,-21.0
26.421,-24.7
26.437,-28.89
26.453,-33.72
26.468,-39.05
26.484,-44.34
26.500,-48.72
26.515,-51.24
26.531,-51.19
26.546,-48.3
26.562,-42.81
26.578,-35.18
26.593,-25.84
26.609,-15.09
26.625,-3.42
26.640,8.39
26.656,19.17
26.671,27.76
26.687,33.38
26.703,36.04
26.718,36.36
26.734,35.36
26.750,34.08
26.765,33.23
26.781,33.0
26.796,33.18
26.812,33.3
26.828,32.9
26.843,31.76
26.859,29.99
26.875,27.97
26.890,26.03
26.906,24.24
26.921,22.29
26.937,19.76
26.953,16.48
26.968,12.76
26.984,9.17
27.000,6.07
27.015,3.3
27.031,0.21
27.046,-3.81
27.062,-8.74
27.078,-13.86
27.093,-18.3
27.109,-21.68
27.125,-24.61
27.140,-28.34
27.156,-33.88
27.171,-41.21
27.187,-49.08
27.203,-55.53
27.218,-58.9
27.234,-58.51
27.250,-54.67
27.265,-48.15
27.281,-39.74
27.296,-29.81
27.312,-18.74
27.328,-7.19
27.343,3.93
27.359,13.59
27.375,21.12
27.390,26.54
27.406,30.4
27.421,33.48
27.437,36.37
27.453,39.23
27.468,41.8
27.484,43.72
27.500,44.68
27.515,44.66
27.531,43.8
27.546,42.28
27.562,40.23
27.578,37.65
27.593,34.68
27.609,31.54
27.625,28.66
27.640,26.36
27.656,24.76
27.671,23.62
27.687,22.37
27.703,20.45
27.718,17.52
27.734,13.64
27.750,9.18
27.765,4.75
27.781,0.84
27.796,-2.24
27.812,-4.42
27.828,-5.87
27.843,-7.0
27.859,-8.26
27.875,-10.14
27.890,-13.04
27.906,-17.13
27.921,-22.37
27.937,-28.4
27.953,-34.47
27.968,-39.37
27.984,-41.84
28.000,-40.71
28.015,-35.49
28.031,-26.51
28.046,-14.98
28.062,-2.58
28.078,8.92
28.093,18.37
28.109,25.36
28.125,30.21
28.140,33.83
28.156,37.08
28.171,40.37
28.187,43.36
28.203,45.3
28.218,45.47
28.234,43.77
28.250,40.83
28.265,37.39
28.281,33.95
28.296,30.32
28.312,25.92
28.328,20.48
28.343,14.51
28.359,9.23
28.375,5.77
28.390,4.41
28.406,4.27
28.421,3.87
28.437,2.0
28.453,-1.68
28.468,-6.47
28.484,-11.44
28.500,-15.97
28.515,-20.06
28.531,-24.14
28.546,-28.43
28.562,-32.61
28.578,-36.09
28.593,-38.43
28.609,-39.61
28.625,-40.17
28.640,-40.72
28.656,-41.47
28.671,-42.12
28.687,-41.82
28.703,-39.57
28.718,-34.72
28.734,-27.36
28.750,-18.16
28.765,-8.42
28.781,0.62
28.796,8.11
28.812,13.85
28.828,18.18
28.843,21.81
28.859,25.34
28.875,29.1
28.890,33.05
28.906,36.88
28.921,40.17
28.937,42.46
28.953,43.25
28.968,42.22
28.984,39.31
29.000,34.75
29.015,29.2
29.031,23.37
29.046,17.86
29.062,13.03
29.078,8.96
29.093,5.65
29.109,3.1
29.125,1.29
29.140,0.13
29.156,-0.62
29.171,-1.48
29.187,-3.06
29.203,-5.74
29.218,-9.5
29.234,-13.81
29.250,-18.02
29.265,-21.79
29.281,-25.25
29.296,-28.92
29.312,-33.25
29.328,-38.35
29.343,-43.79
29.359,-48.87
29.375,-52.84
29.390,-55.18
29.406,-55.74
29.421,-54.48
29.437,-51.45
29.453,-46.82
29.468,-40.9
29.484,-34.15
29.500,-27.22
29.515,-20.7
29.531,-14.82
29.546,-9.54
29.562,-4.39
29.578,1.06
29.593,7.03
29.609,13.34
29.625,19.37
29.640,24.51
29.656,28.24
29.671,30.54
29.687,31.8
29.703,32.79
29.718,34.08
29.734,35.83
29.750,37.63
29.765,38.7
29.781,38.47
29.796,36.73
29.812,33.8
29.828,30.3
29.843,26.97
29.859,24.33
29.875,22.49
29.890,21.26
29.906,20.08
29.921,18.45
29.937,16.02
29.953,12.72
29.968,8.67
29.984,4.03
30.000,-1.21
30.015,-7.29
30.031,-14.35
30.046,-22.41
30.062,-30.99
30.078,-39.24
30.093,-46.2
30.109,-51.07
30.125,-53.29
30.140,-52.62
30.156,-49.01
30.171,-42.62
30.187,-34.03
30.203,-24.14
30.218,-14.1
30.234,-5.05
30.250,2.34
30.265,7.88
30.281,11.75
30.296,14.32
30.312,15.9
30.328,16.69
30.343,16.73
30.359,16.01
30.375,14.34
30.390,11.55
30.406,7.57
30.421,2.69
30.437,-2.24
30.453,-6.16
30.468,-8.2
30.484,-8.15
30.500,-6.51
30.515,-4.23
30.531,-2.08
30.546,-0.44
30.562,0.79
30.578,2.05
30.593,3.56
30.609,5.27
30.625,7.06
30.640,8.85
30.656,10.8
30.671,13.21
30.687,16.16
30.703,19.33
30.718,22.13
30.734,23.81
30.750,23.79
30.765,21.92
30.781,18.33
30.796,13.41
30.812,7.46
30.828,0.61
30.843,-7.21
30.859,-15.73
30.875,-24.4
30.890,-32.08
30.906,-37.37
30.921,-39.21
30.937,-37.16
30.953,-31.77
30.968,-24.22
30.984,-15.91
31.000,-7.93
31.015,-0.86
31.031,5.19
31.046,10.34
31.062,14.54
31.078,17.77
31.093,20.02
31.109,21.48
31.125,22.46
31.140,23.11
31.156,23.3
31.171,22.62
31.187,20.79
31.203,17.73
31.218,13.8
31.234,9.5
31.250,5.27
31.265,1.31
31.281,-2.34
31.296,-5.45
31.312,-7.45
31.328,-7.64
31.343,-5.76
31.359,-2.21
31.375,1.86
31.390,5.12
31.406,6.69
31.421,6.29
31.437,4.13
31.453,0.57
31.468,-4.26
31.484,-10.41
31.500,-17.67
31.515,-25.57
31.531,-33.34
31.546,-40.34
31.562,-46.39
31.578,-51.81
31.593,-56.94
31.609,-61.6
31.625,-65.0
31.640,-65.85
31.656,-63.0
31.671,-56.02
31.687,-45.27
31.703,-31.65
31.718,-16.36
31.734,-0.6
31.750,14.51
31.765,27.93
31.781,38.71
31.796,46.19
31.812,50.09
31.828,50.64
31.843,48.53
31.859,44.62
31.875,39.66
31.890,34.2
31.906,28.61
31.921,23.18
31.937,18.23
31.953,14.03
31.968,10.85
31.984,8.87
32.000,8.14
32.015,8.57
32.031,9.89
32.046,11.63
32.062,13.28
32.078,14.46
32.093,14.9
32.109,14.66
32.125,13.81
32.140,12.36
32.156,10.32
32.171,7.73
32.187,4.63
32.203,1.24
32.218,-2.33
32.234,-6.09
32.250,-10.07
32.265,-14.23
32.281,-18.41
32.296,-22.28
32.312,-25.41
32.328,-27.52
32.343,-28.43
32.359,-28.1
32.375,-26.58
32.390,-23.93
32.406,-20.28
32.421,-15.91
32.437,-11.13
32.453,-6.15
32.468,-1.01
32.484,4.41
32.500,10.15
32.515,15.96
32.531,21.32
32.546,25.61
32.562,28.35
32.578,29.46
32.593,29.24
32.609,28.25
32.625,27.14
32.640,26.31
32.656,25.81
32.671,25.34
32.687,24.39
32.703,22.53
32.718,19.6
32.734,15.77
32.750,11.53
32.765,7.6
32.781,4.58
32.796,2.79
32.812,2.13
32.828,2.07
32.843,2.01
32.859,1.51
32.875,0.46
32.890,-0.89
32.906,-2.08
32.921,-2.81
32.937,-3.16
32.953,-3.62
32.968,-4.87
32.984,-7.54
33.000,-11.81
33.015,-17.45
33.031,-23.97
33.046,-30.86
33.062,-37.68
33.078,-43.87
33.093,-48.61
33.109,-50.91
33.125,-49.76
33.140,-44.69
33.156,-35.94
33.171,-24.57
33.187,-12.1
33.203,0.02
33.218,10.83
33.234,20.01
33.250,27.61
33.265,33.71
33.281,38.0
33.296,39.87
33.312,38.9
33.328,35.3
33.343,30.22
33.359,25.41
33.375,22.45
33.390,21.97
33.406,23.35
33.421,24.89
33.437,24.86
33.453,22.23
33.468,17.29
33.484,11.3
33.500,5.91
33.515,2.27
33.531,0.56
33.546,0.07
33.562,-0.54
33.578,-2.48
33.593,-6.47
33.609,-12.29
33.625,-18.94
33.640,-25.21
33.656,-30.14
33.671,-33.59
33.687,-35.92
33.703,-37.67
33.718,-39.02
33.734,-39.86
33.750,-39.97
33.765,-39.63
33.781,-39.7
33.796,-41.12
33.812,-44.19
33.828,-47.9
33.843,-50.22
33.859,-48.9
33.875,-42.71
33.890,-32.17
33.906,-19.37
33.921,-7.1
33.937,2.55
33.953,8.75
33.968,12.21
33.984,14.34
34.000,16.47
34.015,19.15
34.031,22.0
34.046,24.1
34.062,24.64
34.078,23.43
34.093,20.78
34.109,17.44
34.125,14.11
34.140,11.12
34.156,8.54
34.171,6.25
34.187,4.31
34.203,3.03
34.218,2.76
34.234,3.49
34.250,4.96
34.265,6.58
34.281,7.67
34.296,7.74
34.312,6.52
34.328,4.04
34.343,0.61
34.359,-3.4
34.375,-7.61
34.390,-11.67
34.406,-15.36
34.421,-18.55
34.437,-21.29
34.453,-23.9
34.468,-26.95
34.484,-31.09
34.500,-36.86
34.515,-44.31
34.531,-52.59
34.546,-60.1
34.562,-64.9
34.578,-65.5
34.593,-61.46
34.609,-53.51
34.625,-43.04
34.640,-31.58
34.656,-20.26
34.671,-9.64
34.687,-0.05
34.703,8.34
34.718,15.35
34.734,21.0
34.750,25.55
34.765,29.5
34.781,33.22
34.796,36.74
34.812,39.66
34.828,41.33
34.843,41.39
34.859,39.91
34.875,37.4
34.890,34.49
34.906,31.79
34.921,29.63
34.937,28.13
34.953,27.27
34.968,26.76
34.984,26.24
35.000,25.39
35.015,23.88
35.031,21.57
35.046,18.51
35.062,14.78
35.078,10.48
35.093,5.75
35.109,0.77
35.125,-4.07
35.140,-8.2
35.156,-11.29
35.171,-13.43
35.187,-15.48
35.203,-18.58
35.218,-23.66
35.234,-30.74
35.250,-38.89
35.265,-46.51
35.281,-51.98
35.296,-54.12
35.312,-52.33
35.328,-46.7
35.343,-37.62
35.359,-25.86
35.375,-12.52
35.390,0.9
35.406,12.77
35.421,21.86
35.437,27.85
35.453,31.42
35.468,33.85
35.484,36.32
35.500,39.28
35.515,42.37
35.531,44.77
35.546,45.79
35.562,45.31
35.578,43.79
35.593,41.84
35.609,39.72
35.625,37.18
35.640,33.7
35.656,28.88
35.671,22.99
35.687,16.76
35.703,11.08
35.718,6.52
35.734,3.06
35.750,0.39
35.765,-1.79
35.781,-3.55
35.796,-4.89
35.812,-5.69
35.828,-6.12
35.843,-6.51
35.859,-7.31
35.875,-8.87
35.890,-11.45
35.906,-15.19
35.921,-20.45
35.937,-27.66
35.953,-37.02
35.968,-48.2
35.984,-60.19
36.000,-71.35
36.015,-79.88
36.031,-84.31
36.046,-83.67
36.062,-77.91
36.078,-67.67
36.093,-54.23
36.109,-39.18
36.125,-24.14
36.140,-10.27
36.156,1.92
36.171,12.45
36.187,21.72
36.203,29.92
36.218,36.91
36.234,42.08
36.250,44.73
36.265,44.51
36.281,41.85
36.296,37.85
36.312,33.85
36.328,30.89
36.343,29.17
36.359,28.35
36.375,27.87
36.390,27.43
36.406,27.2
36.421,27.52
36.437,28.47
36.453,29.56
36.468,30.01
36.484,29.01
36.500,26.19
36.515,21.53
36.531,15.25
36.546,7.79
36.562,-0.46
36.578,-8.94
36.593,-16.96
36.609,-23.84
36.625,-29.07
36.640,-32.62
36.656,-34.85
36.671,-36.44
36.687,-37.9
36.703,-39.66
36.718,-41.84
36.734,-44.47
36.750,-47.34
36.765,-49.94
36.781,-51.46
36.796,-50.85
36.812,-47.22
36.828,-40.04
36.843,-29.33
36.859,-15.67
36.875,-0.04
36.890,16.46
36.906,32.9
36.921,48.53
36.937,62.64
36.953,74.26
36.968,82.14
36.984,85.09
37.000,82.62
37.015,75.5
37.031,65.68
37.046,55.71
37.062,47.6
37.078,42.09
37.093,38.58
37.109,35.77
37.125,32.66
37.140,29.16
37.156,26.04
37.171,24.25
37.187,24.22
37.203,25.51
37.218,26.97
37.234,27.3
37.250,25.5
37.265,21.14
37.281,14.4
37.296,6.03
37.312,-2.97
37.328,-11.61
37.343,-19.11
37.359,-25.02
37.375,-29.11
37.390,-31.36
37.406,-31.94
37.421,-31.29
37.437,-29.99
37.453,-28.86
37.468,-28.56
37.484,-29.38
37.500,-31.1
37.515,-32.99
37.531,-34.05
37.546,-33.32
37.562,-30.17
37.578,-24.39
37.593,-16.32
37.609,-6.77
37.625,3.14
37.640,12.36
37.656,20.17
37.671,26.6
37.687,32.14
37.703,37.41
37.718,42.64
37.734,47.46
37.750,51.13
37.765,52.97
37.781,52.62
37.796,50.07
37.812,45.32
37.828,38.23
37.843,28.86
37.859,17.54
37.875,5.23
37.890,-6.53
37.906,-16.22
37.921,-22.72
37.937,-25.34
37.953,-23.95
37.968,-19.01
37.984,-11.45
38.000,-2.86
38.015,4.83
38.031,9.94
38.046,11.47
38.062,9.51
38.078,4.91
38.093,-1.37
38.109,-8.97
38.125,-18.16
38.140,-29.24
38.156,-41.79
38.171,-54.02
38.187,-63.27
38.203,-67.0
38.218,-63.89
38.234,-54.28
38.250,-39.94
38.265,-23.31
38.281,-6.64
38.296,8.46
38.312,21.32
38.328,31.82
38.343,40.26
38.359,46.8
38.375,51.37
38.390,53.9
38.406,54.33
38.421,52.83
38.437,49.79
38.453,45.84
38.468,41.47
38.484,37.12
38.500,32.98
38.515,28.93
38.531,24.83
38.546,20.64
38.562,16.62
38.578,13.03
38.593,10.23
38.609,8.17
38.625,6.52
38.640,4.82
38.656,2.43
38.671,-1.02
38.687,-5.58
38.703,-10.91
38.718,-16.43
38.734,-21.46
38.750,-25.57
38.765,-28.72
38.781,-31.24
38.796,-33.81
38.812,-37.14
38.828,-41.59
38.843,-47.09
38.859,-53.16
38.875,-59.09
38.890,-64.08
38.906,-67.4
38.921,-68.31
38.937,-66.3
38.953,-61.03
38.968,-52.71
38.984,-42.03
39.000,-30.07
39.015,-18.1
39.031,-7.13
39.046,2.31
39.062,10.32
39.078,17.23
39.093,23.39
39.109,28.84
39.125,33.34
39.140,36.6
39.156,38.59
39.171,39.7
39.187,40.42
39.203,41.18
39.218,41.98
39.234,42.41
39.250,41.87
39.265,39.95
39.281,36.79
39.296,33.02
39.312,29.51
39.328,26.85
39.343,25.21
39.359,24.31
39.375,23.61
39.390,22.61
39.406,20.96
39.421,18.47
39.437,15.01
39.453,10.54
39.468,5.03
39.484,-1.43
39.500,-8.47
39.515,-15.6
39.531,-22.31
39.546,-28.11
39.562,-32.79
39.578,-36.48
39.593,-39.61
39.609,-42.72
39.625,-46.04
39.640,-49.19
39.656,-51.24
39.671,-50.98
39.687,-47.41
39.703,-40.32
39.718,-30.38
39.734,-18.89
39.750,-7.2
39.765,3.73
39.781,13.81
39.796,23.22
39.812,32.12
39.828,40.3
39.843,47.14
39.859,52.1
39.875,54.87
39.890,55.64
39.906,54.9
39.921,53.29
39.937,51.27
39.953,49.0
39.968,46.43
39.984,43.22
40.000,39.13
40.015,34.18
40.031,28.72
40.046,23.45
40.062,19.16
40.078,16.34
40.093,14.84
40.109,13.97
40.125,12.69
40.140,10.19
40.156,6.21
40.171,1.0
40.187,-4.74
40.203,-10.33
40.218,-15.33
40.234,-19.84
40.250,-24.25
40.265,-29.13
40.281,-34.75
40.296,-40.94
40.312,-47.24
40.328,-53.06
40.343,-57.88
40.359,-61.29
40.375,-62.92
40.390,-62.25
40.406,-58.7
40.421,-51.87
40.437,-41.83
40.453,-29.44
40.468,-16.12
40.484,-3.34
40.500,7.89
40.515,17.29
40.531,25.07
40.546,31.5
40.562,36.46
40.578,39.58
40.593,40.58
40.609,39.65
40.625,37.5
40.640,35.05
40.656,33.02
40.671,31.61
40.687,30.53
40.703,29.26
40.718,27.43
40.734,24.98
40.750,22.07
40.765,19.03
40.781,16.07
40.796,13.34
40.812,10.76
40.828,8.14
40.843,5.23
40.859,1.96
40.875,-1.62
40.890,-5.28
40.906,-8.67
40.921,-11.58
40.937,-13.99
40.953,-16.18
40.968,-18.63
40.984,-21.81
41.000,-25.89
41.015,-30.74
41.031,-36.09
41.046,-41.47
41.062,-46.4
41.078,-50.28
41.093,-52.4
41.109,-52.12
41.125,-48.95
41.140,-42.81
41.156,-34.12
41.171,-23.81
41.187,-13.07
41.203,-3.05
41.218,5.47
41.234,12.27
41.250,17.67
41.265,22.16
41.281,26.08
41.296,29.43
41.312,31.84
41.328,33.0
41.343,32.75
41.359,31.37
41.375,29.27
41.390,26.81
41.406,24.12
41.421,21.15
41.437,17.89
41.453,14.6
41.468,11.91
41.484,10.52
41.500,10.93
41.515,13.11
41.531,16.37
41.546,19.61
41.562,21.69
41.578,21.53
41.593,18.56
41.609,12.84
41.625,5.08
41.640,-3.41
41.656,-11.25
41.671,-17.42
41.687,-21.63
41.703,-24.38
41.718,-26.67
41.734,-29.56
41.750,-33.63
41.765,-38.78
41.781,-44.1
41.796,-48.17
41.812,-49.48
41.828,-46.96
41.843,-40.39
41.859,-30.38
41.875,-18.4
41.890,-6.14
41.906,4.98
41.921,14.07
41.937,20.88
41.953,25.7
41.968,29.02
41.984,31.35
42.000,33.24
42.015,35.06
42.031,36.99
42.046,38.91
42.062,40.53
42.078,41.49
42.093,41.52
42.109,40.67
42.125,39.26
42.140,37.9
42.156,37.02
42.171,36.72
42.187,36.68
42.203,36.44
42.218,35.64
42.234,34.01
42.250,31.54
42.265,28.25
42.281,24.31
42.296,20.06
42.312,15.97
42.328,12.54
42.343,9.94
42.359,7.96
42.375,5.65
42.390,1.77
42.406,-5.02
42.421,-15.39
42.437,-28.96
42.453,-44.23
42.468,-59.09
42.484,-71.58
42.500,-80.25
42.515,-84.38
42.531,-83.98
42.546,-79.59
42.562,-72.07
42.578,-62.33
42.593,-51.48
42.609,-40.64
42.625,-30.97
42.640,-23.22
42.656,-17.43
42.671,-12.91
42.687,-8.62
42.703,-3.75
42.718,1.97
42.734,7.9
42.750,13.1
42.765,16.76
42.781,18.68
42.796,19.38
42.812,19.77
42.828,20.63
42.843,22.25
42.859,24.45
42.875,26.65
42.890,28.57
42.906,30.2
42.921,31.7
42.937,33.12
42.953,34.19
42.968,34.26
42.984,32.62
43.000,28.83
43.015,22.96
43.031,15.84
43.046,8.74
43.062,2.84
43.078,-1.27
43.093,-3.83
43.109,-5.87
43.125,-8.79
43.140,-13.7
43.156,-21.03
43.171,-30.34
43.187,-40.5
43.203,-50.04
43.218,-57.48
43.234,-61.57
43.250,-61.45
43.265,-57.12
43.281,-49.31
43.296,-39.58
43.312,-29.59
43.328,-20.71
43.343,-13.52
43.359,-7.7
43.375,-2.45
43.390,3.16
43.406,9.69
43.421,17.2
43.437,25.2
43.453,32.98
43.468,39.71
43.484,44.68
43.500,47.43
43.515,47.68
43.531,45.45
43.546,41.13
43.562,35.5
43.578,29.59
43.593,24.48
43.609,20.95
43.625,19.31
43.640,19.33
43.656,20.4
43.671,21.64
43.687,22.21
43.703,21.61
43.718,19.78
43.734,17.04
43.750,13.89
43.765,10.57
43.781,7.01
43.796,2.88
43.812,-2.31
43.828,-8.87
43.843,-16.69
43.859,-25.39
43.875,-34.38
43.890,-43.03
43.906,-50.72
43.921,-56.8
43.937,-60.48
43.953,-60.89
43.968,-57.35
43.984,-49.78
44.000,-38.86
44.015,-25.97
44.031,-12.76
44.046,-0.54
44.062,10.01
44.078,18.85
44.093,26.4
44.109,33.1
44.125,39.16
44.140,44.47
44.156,48.89
44.171,52.51
44.187,55.56
44.203,58.28
44.218,60.53
44.234,61.96
44.250,62.13
44.265,60.79
44.281,57.96
44.296,54.02
44.312,49.65
44.328,45.49
44.343,42.17
44.359,39.92
44.375,38.54
44.390,37.38
44.406,35.44
44.421,31.68
44.437,25.45
44.453,16.75
44.468,6.39
44.484,-4.38
44.500,-14.37
44.515,-22.88
44.531,-29.83
44.546,-35.47
44.562,-40.25
44.578,-44.63
44.593,-49.11
44.609,-54.14
44.625,-59.81
44.640,-65.78
44.656,-71.21
44.671,-74.79
44.687,-75.13
44.703,-71.25
44.718,-63.14
44.734,-51.71
44.750,-38.55
44.765,-25.44
44.781,-13.77
44.796,-4.38
44.812,2.65
44.828,7.76
44.843,11.74
44.859,15.22
44.875,18.51
44.890,21.58
44.906,24.03
44.921,25.39
44.937,25.4
44.953,24.1
44.968,21.78
44.984,18.84
45.000,15.54
45.015,11.98
45.031,8.26
45.046,4.73
45.062,2.05
45.078,0.86
45.093,1.49
45.109,3.6
45.125,6.31
45.140,8.55
45.156,9.57
45.171,9.14
45.187,7.6
45.203,5.71
45.218,4.0
45.234,2.74
45.250,1.66
45.265,0.27
45.281,-2.0
45.296,-5.57
45.312,-10.64
45.328,-17.11
45.343,-24.45
45.359,-31.94
45.375,-38.63
45.390,-43.59
45.406,-45.92
45.421,-45.11
45.437,-41.07
45.453,-34.28
45.468,-25.7
45.484,-16.44
45.500,-7.53
45.515,0.54
45.531,7.76
45.546,14.49
45.562,21.19
45.578,27.94
45.593,34.5
45.609,40.44
45.625,45.28
45.640,48.65
45.656,50.35
45.671,50.11
45.687,47.65
45.703,42.85
45.718,35.88
45.734,27.54
45.750,19.13
45.765,12.0
45.781,7.11
45.796,4.62
45.812,3.81
45.828,3.53
45.843,2.86
45.859,1.32
45.875,-0.98
45.890,-3.75
45.906,-6.67
45.921,-9.65
45.937,-12.69
45.953,-15.84
45.968,-19.05
45.984,-22.24
46.000,-25.67
46.015,-29.74
46.031,-34.91
46.046,-41.19
46.062,-47.89
46.078,-53.71
46.093,-57.14
46.109,-57.0
46.125,-52.83
46.140,-45.07
46.156,-34.8
46.171,-23.45
46.187,-12.34
46.203,-2.51
46.218,5.37
46.234,11.13
46.250,14.99
46.265,17.54
46.281,19.44
46.296,21.25
46.312,23.19
46.328,25.03
46.343,26.43
46.359,26.99
46.375,26.67
46.390,25.53
46.406,23.81
46.421,21.63
46.437,19.14
46.453,16.6
46.468,14.38
46.484,12.89
46.500,12.27
46.515,12.25
46.531,12.12
46.546,11.05
46.562,8.51
46.578,4.44
46.593,-0.79
46.609,-6.67
46.625,-12.62
46.640,-18.14
46.656,-22.86
46.671,-26.55
46.687,-29.4
46.703,-31.93
46.718,-34.96
46.734,-39.26
46.750,-45.2
46.765,-52.32
46.781,-59.44
46.796,-65.07
46.812,-67.78
46.828,-66.81
46.843,-61.99
46.859,-53.93
46.875,-43.62
46.890,-32.25
46.906,-21.02
46.921,-11.0
46.937,-2.96
46.953,2.91
46.968,6.89
46.984,9.77
47.000,12.43
47.015,15.37
47.031,18.61
47.046,21.55
47.062,23.42
47.078,23.61
47.093,22.23
47.109,19.87
47.125,17.31
47.140,15.18
47.156,13.62
47.171,12.59
47.187,11.95
47.203,11.88
47.218,12.57
47.234,14.07
47.250,15.84
47.265,16.89
47.281,16.2
47.296,13.15
47.312,7.97
47.328,1.5
47.343,-5.1
47.359,-10.97
47.375,-15.77
47.390,-19.76
47.406,-23.48
47.421,-27.5
47.437,-32.28
47.453,-37.99
47.468,-44.66
47.484,-52.01
47.500,-59.53
47.515,-66.47
47.531,-71.82
47.546,-74.51
47.562,-73.58
47.578,-68.55
47.593,-59.53
47.609,-47.35
47.625,-33.29
47.640,-18.76
47.656,-4.91
47.671,7.5
47.687,18.15
47.703,27.01
47.718,34.08
47.734,39.39
47.750,43.12
47.765,45.58
47.781,47.13
47.796,47.98
47.812,48.05
47.828,47.03
47.843,44.56
47.859,40.54
47.875,35.26
47.890,29.47
47.906,23.97
47.921,19.39
47.937,15.81
47.953,12.96
47.968,10.31
47.984,7.52
48.000,4.53
48.015,1.53
48.031,-1.2
48.046,-3.66
48.062,-6.09
48.078,-8.85
48.093,-12.12
48.109,-15.74
48.125,-19.47
48.140,-23.15
48.156,-26.97
48.171,-31.45
48.187,-37.1
48.203,-43.88
48.218,-51.01
48.234,-57.04
48.250,-60.2
48.265,-59.17
48.281,-53.46
48.296,-43.6
48.312,-30.94
48.328,-17.19
48.343,-4.03
48.359,7.42
48.375,16.53
48.390,23.4
48.406,28.46
48.421,32.33
48.437,35.59
48.453,38.6
48.468,41.51
48.484,44.17
48.500,46.37
48.515,47.67
48.531,47.69
48.546,45.99
48.562,42.31
48.578,36.89
48.593,30.41
48.609,23.87
48.625,18.28
48.640,14.31
48.656,11.96
48.671,10.72
48.687,9.8
48.703,8.55
48.718,6.74
48.734,4.29
48.750,1.35
48.765,-2.06
48.781,-5.87
48.796,-10.0
48.812,-14.22
48.828,-18.23
48.843,-21.94
48.859,-25.53
48.875,-29.61
48.890,-34.81
48.906,-41.44
48.921,-49.24
48.937,-57.33
48.953,-64.33
48.968,-68.69
48.984,-69.22
49.000,-65.26
49.015,-56.94
49.031,-45.17
49.046,-31.41
49.062,-17.33
49.078,-4.37
49.093,6.66
49.109,15.57
49.125,22.71
49.140,28.52
49.156,33.34
49.171,37.25
49.187,40.16
49.203,41.97
49.218,42.74
49.234,42.76
49.250,42.37
49.265,41.84
49.281,41.16
49.296,40.19
49.312,38.73
49.328,36.74
49.343,34.34
49.359,31.78
49.375,29.23
49.390,26.74
49.406,24.18
49.421,21.26
49.437,17.71
49.453,13.38
49.468,8.28
49.484,2.63
49.500,-3.24
49.515,-9.01
49.531,-14.34
49.546,-18.99
49.562,-22.93
49.578,-26.43
49.593,-29.88
49.609,-33.81
49.625,-38.61
49.640,-44.35
49.656,-50.8
49.671,-57.15
49.687,-62.23
49.703,-64.65
49.718,-63.29
49.734,-57.69
49.750,-48.27
49.765,-36.15
49.781,-22.81
49.796,-9.62
49.812,2.5
49.828,13.09
49.843,22.01
49.859,29.45
49.875,35.55
49.890,40.34
49.906,43.87
49.921,46.13
49.937,47.09
49.953,46.88
49.968,45.71
49.984,43.77
50.000,41.38
50.015,38.7
50.031,35.77
50.046,32.57
50.062,29.07
50.078,25.46
50.093,21.99
50.109,18.9
50.125,16.07
50.140,13.16
50.156,9.57
50.171,4.84
50.187,-1.08
50.203,-7.83
50.218,-14.57
50.234,-20.43
50.250,-24.89
50.265,-28.05
50.281,-30.54
50.296,-33.21
50.312,-36.84
50.328,-41.76
50.343,-47.92
50.359,-54.77
50.375,-61.34
50.390,-66.37
50.406,-68.5
50.421,-66.62
50.437,-60.23
50.453,-49.7
50.468,-36.19
50.484,-21.39
50.500,-7.03
50.515,5.6
50.531,15.91
50.546,23.93
50.562,29.99
50.578,34.46
50.593,37.56
50.609,39.39
50.625,40.03
50.640,39.67
50.656,38.6
50.671,37.06
50.687,35.19
50.703,32.95
50.718,30.23
50.734,26.99
50.750,23.51
50.765,20.38
50.781,18.22
50.796,17.39
50.812,17.71
50.828,18.47
50.843,18.76
50.859,17.87
50.875,15.59
50.890,12.23
50.906,8.48
50.921,5.06
50.937,2.45
50.953,0.77
50.968,-0.16
50.984,-0.68
51.000,-1.24
51.015,-2.39
51.031,-4.62
51.046,-8.41
51.062,-13.88
51.078,-20.62
51.093,-27.69
51.109,-33.8
51.125,-37.75
51.140,-38.96
51.156,-37.79
51.171,-35.31
51.187,-32.92
51.203,-31.57
51.218,-31.35
51.234,-31.44
51.250,-30.56
51.265,-27.66
51.281,-22.45
51.296,-15.37
51.312,-7.31
51.328,0.95
51.343,9.08
51.359,17.06
51.375,24.98
51.390,32.6
51.406,39.24
51.421,44.01
51.437,46.36
51.453,46.37
51.468,44.73
51.484,42.36
51.500,40.0
51.515,37.8
51.531,35.44
51.546,32.32
51.562,28.01
51.578,22.51
51.593,16.28
51.609,9.8
51.625,3.41
51.640,-2.87
51.656,-9.15
51.671,-15.47
51.687,-21.83
51.703,-28.02
51.718,-33.99
51.734,-39.69
51.750,-45.0
51.765,-49.49
51.781,-52.27
51.796,-52.36
51.812,-48.91
51.828,-41.7
51.843,-31.26
51.859,-19.02
51.875,-6.88
51.890,3.27
51.906,10.19
51.921,13.65
51.937,14.39
51.953,13.91
51.968,13.48
51.984,13.86
52.000,14.68
52.015,14.74
52.031,12.89
52.046,8.88
52.062,3.75
52.078,-0.79
52.093,-3.07
52.109,-2.58
52.125,0.24
52.140,3.59
52.156,5.13
52.171,3.2
52.187,-2.29
52.203,-9.85
52.218,-17.33
52.234,-22.84
52.250,-25.63
52.265,-25.32
52.281,-23.22
52.296,-21.97
52.312,-24.52
52.328,-32.87
52.343,-46.89
52.359,-64.3
52.375,-80.79
52.390,-90.65
52.406,-86.86
52.421,-65.07
52.437,-25.68
52.453,26.65
52.468,84.95
52.484,142.64
52.500,195.19
52.515,240.71
52.531,279.63
52.546,315.21
52.562,348.66
52.578,377.04
52.593,393.93
52.609,392.04
52.625,366.55
52.640,317.36
52.656,249.77
52.671,162.16
52.687,64.5
52.703,-26.27
52.718,-94.46
52.734,-134.15
52.750,-150.05
52.765,-151.18
52.781,-144.54
52.796,-133.22
52.812,-117.97
52.828,-97.63
52.843,-73.34
52.859,-48.75
52.875,-28.29
52.890,-14.56
52.906,-7.34
52.921,-4.03
52.937,-0.2
52.953,5.72
52.968,14.27
52.984,23.38
53.000,28.66
53.015,25.3
53.031,10.32
53.046,-16.43
53.062,-52.91
53.078,-96.31
53.093,-142.45
53.109,-186.45
53.125,-223.45
53.140,-248.63
53.156,-257.69
53.171,-248.37
53.187,-222.1
53.203,-184.59
53.218,-144.42
53.234,-110.23
53.250,-87.05
53.265,-75.31
53.281,-71.94
53.296,-72.98
53.312,-75.69
53.328,-79.21
53.343,-83.65
53.359,-89.07
53.375,-95.0
53.390,-100.15
53.406,-103.63
53.421,-105.86
53.437,-107.73
53.453,-110.6
53.468,-115.38
53.484,-121.19
53.500,-126.2
53.515,-128.18
53.531,-125.38
53.546,-117.35
53.562,-105.3
53.578,-91.66
53.593,-79.81
53.609,-72.84
53.625,-72.0
53.640,-77.51
53.656,-88.39
53.671,-103.06
53.687,-119.7
53.703,-136.79
53.718,-152.92
53.734,-167.22
53.750,-178.86
53.765,-186.13
53.781,-187.62
53.796,-182.37
53.812,-170.1
53.828,-151.41
53.843,-127.47
53.859,-99.33
53.875,-67.46
53.890,-37.07
53.906,-10.86
53.921,9.88
53.937,25.0
53.953,34.99
53.968,40.62
53.984,42.8
54.000,42.42
54.015,40.05
54.031,36.29
54.046,32.52
54.062,29.94
54.078,29.72
54.093,32.3
54.109,37.4
54.125,44.32
54.140,52.19
54.156,60.22
54.171,68.14
54.187,76.81
54.203,87.38
54.218,100.99
54.234,117.94
54.250,137.6
54.265,158.45
54.281,178.64
54.296,196.48
54.312,211.12
54.328,223.03
54.343,233.41
54.359,243.89
54.375,256.03
54.390,271.4
54.406,290.95
54.421,314.47
54.437,339.94
54.453,363.3
54.468,379.37
54.484,383.5
54.500,373.86
54.515,352.25
54.531,323.85
54.546,294.75
54.562,269.36
54.578,248.77
54.593,230.95
54.609,212.62
54.625,191.37
54.640,167.04
54.656,141.23
54.671,116.26
54.687,93.7
54.703,74.05
54.718,57.24
54.734,43.27
54.750,32.59
54.765,25.71
54.781,22.7
54.796,22.38
54.812,22.66
54.828,20.98
54.843,15.25
54.859,4.52
54.875,-10.72
54.890,-28.59
54.906,-46.57
54.921,-62.14
54.937,-73.6
54.953,-80.4
54.968,-83.1
54.984,-82.86
55.000,-80.9
55.015,-78.14
55.031,-75.05
55.046,-71.96
55.062,-69.23
55.078,-67.47
55.093,-67.3
55.109,-69.1
55.125,-72.85
55.140,-78.11
55.156,-84.2
55.171,-90.42
55.187,-96.16
55.203,-100.81
55.218,-103.84
55.234,-104.62
55.250,-102.33
55.265,-96.41
55.281,-86.64
55.296,-73.67
55.312,-59.14
55.328,-45.49
55.343,-35.18
55.359,-29.85
55.375,-29.68
55.390,-33.13
55.406,-37.71
55.421,-40.75
55.437,-40.36
55.453,-35.82
55.468,-27.6
55.484,-16.8
55.500,-4.79
55.515,7.15
55.531,17.98
55.546,26.81
55.562,33.04
55.578,36.32
55.593,36.64
55.609,34.32
55.625,29.95
55.640,24.26
55.656,17.93
55.671,11.59
55.687,5.72
55.703,0.58
55.718,-3.72
55.734,-7.42
55.750,-10.97
55.765,-14.96
55.781,-19.89
55.796,-25.94
55.812,-32.84
55.828,-39.98
55.843,-46.69
55.859,-52.31
55.875,-56.42
55.890,-58.67
55.906,-58.75
55.921,-56.25
55.937,-50.94
55.953,-42.93
55.968,-32.88
55.984,-22.1
56.000,-12.06
56.015,-4.03
56.031,1.4
56.046,4.49
56.062,6.29
56.078,8.09
56.093,11.07
56.109,15.71
56.125,21.71
56.140,28.08
56.156,33.65
56.171,37.51
56.187,39.43
56.203,39.83
56.218,39.67
56.234,39.93
56.250,41.26
56.265,43.68
56.281,46.56
56.296,48.84
56.312,49.41
56.328,47.66
56.343,43.61
56.359,38.15
56.375,32.69
56.390,28.84
56.406,27.64
56.421,29.27
56.437,32.64
56.453,35.69
56.468,36.1
56.484,32.19
56.500,23.84
56.515,12.87
56.531,2.7
56.546,-3.06
56.562,-2.24
56.578,4.51
56.593,13.36
56.609,18.49
56.625,14.19
56.640,-2.95
56.656,-32.87
56.671,-72.31
56.687,-116.27
56.703,-159.54
56.718,-197.85
56.734,-227.94
56.750,-247.23
56.765,-253.6
56.781,-245.71
56.796,-223.92
56.812,-190.81
56.828,-150.79
56.843,-108.63
56.859,-68.01
56.875,-30.9
56.890,1.9
56.906,29.22
56.921,48.58
56.937,56.84
56.953,52.14
56.968,35.94
56.984,13.61
57.000,-7.16
57.015,-19.46
57.031,-19.97
57.046,-9.92
57.062,6.14
57.078,23.03
57.093,37.28
57.109,47.94
57.125,55.76
57.140,61.62
57.156,65.48
57.171,66.35
57.187,63.06
57.203,55.28
57.218,43.96
57.234,31.04
57.250,18.58
57.265,7.99
57.281,-0.51
57.296,-7.66
57.312,-14.54
57.328,-21.76
57.343,-28.93
57.359,-34.63
57.375,-37.21
57.390,-35.76
57.406,-30.62
57.421,-23.37
57.437,-16.1
57.453,-10.53
57.468,-7.38
57.484,-6.32
57.500,-6.45
57.515,-6.83
57.531,-7.1
57.546,-7.39
57.562,-8.06
57.578,-9.4
57.593,-11.41
57.609,-13.72
57.625,-15.79
57.640,-17.07
57.656,-17.19
57.671,-16.05
57.687,-13.83
57.703,-10.93
57.718,-7.88
57.734,-5.21
57.750,-3.33
57.765,-2.44
57.781,-2.54
57.796,-3.49
57.812,-5.04
57.828,-6.6
57.843,-7.37
57.859,-6.48
57.875,-3.21
57.890,2.59
57.906,10.28
57.921,18.57
57.937,25.97
57.953,31.22
57.968,33.8
57.984,34.02
58.000,32.75
58.015,31.18
58.031,30.39
58.046,31.1
58.062,33.68
58.078,38.2
58.093,44.49
58.109,52.41
58.125,61.74
58.140,72.25
58.156,83.4
58.171,94.13
58.187,102.88
58.203,107.92
58.218,107.99
58.234,102.77
58.250,93.33
58.265,81.75
58.281,70.32
58.296,60.67
58.312,53.18
58.328,47.11
58.343,41.38
58.359,35.4
58.375,29.36
58.390,23.97
58.406,19.71
58.421,16.28
58.437,12.73
58.453,8.09
58.468,2.18
58.484,-3.83
58.500,-7.98
58.515,-8.41
58.531,-4.44
58.546,3.05
58.562,12.06
58.578,20.46
58.593,27.04
58.609,31.91
58.625,36.01
58.640,40.45
58.656,45.64
58.671,51.1
58.687,55.8
58.703,58.81
58.718,59.79
58.734,59.32
58.750,58.4
58.765,57.88
58.781,57.98
58.796,58.18
58.812,57.63
58.828,55.7
58.843,52.13
58.859,46.9
58.875,39.8
58.890,29.87
58.906,15.6
58.921,-4.34
58.937,-30.61
58.953,-62.72
58.968,-99.4
58.984,-139.34
59.000,-181.53
59.015,-224.88
59.031,-267.34
59.046,-304.95
59.062,-331.97
59.078,-342.82
59.093,-334.66
59.109,-309.57
59.125,-274.55
59.140,-238.99
59.156,-210.72
59.171,-192.7
59.187,-181.97
59.203,-171.38
59.218,-153.31
59.234,-123.09
59.250,-80.59
59.265,-30.08
59.281,21.93
59.296,68.6
59.312,104.17
59.328,125.06
59.343,130.28
59.359,121.36
59.375,102.07
59.390,77.66
59.406,53.67
59.421,35.01
59.437,24.45
59.453,22.04
59.468,26.03
59.484,34.06
59.500,44.47
59.515,56.95
59.531,72.52
59.546,92.61
59.562,118.57
59.578,149.89
59.593,184.04
59.609,217.82
59.625,248.86
59.640,276.19
59.656,299.71
59.671,319.15
59.687,333.26
59.703,340.51
59.718,338.52
59.734,324.65
59.750,297.3
59.765,256.39
59.781,203.21
59.796,140.36
59.812,71.65
59.828,-1.57
59.843,-71.75
59.859,-128.27
59.875,-162.58
59.890,-172.19
59.906,-161.07
59.921,-136.69
59.937,-106.3
59.953,-75.46
59.968,-47.67
59.984,-24.66
