timestamp,value
00.000,114.75
00.015,111.46
00.031,103.78
00.046,90.76
00.062,72.92
00.078,52.24
00.093,31.32
00.109,11.92
00.125,-4.67
00.140,-18.41
00.156,-30.23
00.171,-41.86
00.187,-55.19
00.203,-71.13
00.218,-89.36
00.234,-108.57
00.250,-127.72
00.265,-145.44
00.281,-161.1
00.296,-174.95
00.312,-188.2
00.328,-203.08
00.343,-222.45
00.359,-249.7
00.375,-282.58
00.390,-320.58
00.406,-361.57
00.421,-400.86
00.437,-431.38
00.453,-445.75
00.468,-439.16
00.484,-411.34
00.500,-366.98
00.515,-313.63
00.531,-259.36
00.546,-208.93
00.562,-163.99
00.578,-123.89
00.593,-87.55
00.609,-55.24
00.625,-28.15
00.640,-7.86
00.656,4.79
00.671,9.77
00.687,8.3
00.703,1.49
00.718,-10.08
00.734,-26.16
00.750,-46.43
00.765,-69.52
00.781,-92.96
00.796,-113.36
00.812,-127.23
00.828,-131.34
00.843,-124.41
00.859,-106.83
00.875,-80.13
00.890,-46.22
00.906,-6.42
00.921,38.36
00.937,87.03
00.953,137.72
00.968,188.88
00.984,237.7
01.000,280.26
01.015,312.85
01.031,333.25
01.046,342.1
01.062,342.1
01.078,336.7
01.093,328.83
01.109,322.44
01.125,319.09
01.140,318.23
01.156,318.51
01.171,319.18
01.187,321.61
01.203,328.09
01.218,340.59
01.234,359.91
01.250,390.06
01.265,432.13
01.281,483.13
01.296,536.03
01.312,581.65
01.328,612.42
01.343,624.77
01.359,620.74
01.375,607.74
01.390,601.03
01.406,610.88
01.421,636.9
01.437,667.94
01.453,687.25
01.468,681.57
01.484,646.83
01.500,588.92
01.515,485.43
01.531,335.14
01.546,154.93
01.562,-26.92
01.578,-185.32
01.593,-308.68
01.609,-396.22
01.625,-452.28
01.640,-482.72
01.656,-494.22
01.671,-488.73
01.687,-469.76
01.703,-444.53
01.718,-420.75
01.734,-404.96
01.750,-399.27
01.765,-402.21
01.781,-410.52
01.796,-421.16
01.812,-428.43
01.828,-430.21
01.843,-428.92
01.859,-423.0
01.875,-412.2
01.890,-395.76
01.906,-373.28
01.921,-345.3
01.937,-313.17
01.953,-276.12
01.968,-234.34
01.984,-189.76
02.000,-145.85
02.015,-106.67
02.031,-74.91
02.046,-51.74
02.062,-37.22
02.078,-30.29
02.093,-28.22
02.109,-27.71
02.125,-24.63
02.140,-14.74
02.156,4.2
02.171,31.83
02.187,62.86
02.203,89.58
02.218,104.55
02.234,104.58
02.250,91.15
02.265,69.63
02.281,46.56
02.296,26.31
02.312,10.55
02.328,-1.26
02.343,-10.03
02.359,-16.69
02.375,-21.34
02.390,-24.31
02.406,-26.47
02.421,-28.84
02.437,-32.48
02.453,-37.91
02.468,-44.53
02.484,-49.73
02.500,-50.44
02.515,-44.39
02.531,-31.81
02.546,-16.0
02.562,-2.07
02.578,4.7
02.593,1.38
02.609,-11.02
02.625,-27.56
02.640,-41.41
02.656,-46.77
02.671,-41.04
02.687,-25.48
02.703,-3.88
02.718,18.76
02.734,38.57
02.750,53.31
02.765,62.41
02.781,66.51
02.796,67.18
02.812,66.88
02.828,66.22
02.843,67.68
02.859,73.03
02.875,82.71
02.890,95.44
02.906,108.41
02.921,118.54
02.937,123.72
02.953,123.28
02.968,117.93
02.984,109.6
03.000,100.12
03.015,91.19
03.031,84.32
03.046,80.98
03.062,82.31
03.078,88.91
03.093,100.33
03.109,115.52
03.125,133.76
03.140,154.97
03.156,179.77
03.171,208.02
03.187,237.25
03.203,261.58
03.218,272.62
03.234,262.15
03.250,225.74
03.265,165.11
03.281,87.32
03.296,2.43
03.312,-80.29
03.328,-155.13
03.343,-220.58
03.359,-278.25
03.375,-330.94
03.390,-381.18
03.406,-430.75
03.421,-480.52
03.437,-529.8
03.453,-575.51
03.468,-612.05
03.484,-632.54
03.500,-631.25
03.515,-606.07
03.531,-559.67
03.546,-498.48
03.562,-430.38
03.578,-362.02
03.593,-297.23
03.609,-237.24
03.625,-181.65
03.640,-129.76
03.656,-80.9
03.671,-34.29
03.687,11.58
03.703,58.91
03.718,109.78
03.734,164.66
03.750,221.31
03.765,274.91
03.781,319.02
03.796,348.25
03.812,360.35
03.828,357.78
03.843,346.91
03.859,335.46
03.875,329.42
03.890,330.89
03.906,338.17
03.921,347.37
03.937,354.72
03.953,358.01
03.968,357.19
03.984,353.73
04.000,349.57
04.015,346.07
04.031,343.73
04.046,342.21
04.062,340.7
04.078,337.85
04.093,332.25
04.109,322.36
04.125,306.89
04.140,284.57
04.156,253.62
04.171,212.64
04.187,161.52
04.203,102.3
04.218,38.72
04.234,-24.89
04.250,-85.39
04.265,-141.31
04.281,-192.41
04.296,-239.31
04.312,-279.96
04.328,-308.58
04.343,-317.14
04.359,-299.29
04.375,-254.38
04.390,-189.02
04.406,-115.1
04.421,-45.6
04.437,7.05
04.453,36.27
04.468,42.16
04.484,29.7
04.500,5.04
04.515,-27.35
04.531,-65.11
04.546,-106.84
04.562,-150.42
04.578,-196.34
04.593,-244.86
04.609,-295.6
04.625,-347.19
04.640,-398.11
04.656,-447.26
04.671,-493.61
04.687,-535.76
04.703,-549.81
04.718,-517.75
04.734,-435.12
04.750,-315.92
04.765,-184.26
04.781,-60.93
04.796,43.09
04.812,125.42
04.828,188.39
04.843,236.25
04.859,270.11
04.875,289.44
04.890,297.01
04.906,296.61
04.921,292.29
04.937,287.27
04.953,283.43
04.968,281.15
04.984,280.28
05.000,277.91
05.015,271.2
05.031,258.55
05.046,241.95
05.062,224.02
05.078,206.84
05.093,191.49
05.109,177.43
05.125,163.77
05.140,148.14
05.156,129.24
05.171,107.09
05.187,82.98
05.203,58.79
05.218,35.51
05.234,14.04
05.250,-6.34
05.265,-25.48
05.281,-43.26
05.296,-58.15
05.312,-68.31
05.328,-72.59
05.343,-70.68
05.359,-64.35
05.375,-56.16
05.390,-51.38
05.406,-53.46
05.421,-63.38
05.437,-79.31
05.453,-98.42
05.468,-118.46
05.484,-138.18
05.500,-157.24
05.515,-175.95
05.531,-199.15
05.546,-231.01
05.562,-273.59
05.578,-326.37
05.593,-386.82
05.609,-450.63
05.625,-510.92
05.640,-559.77
05.656,-590.2
05.671,-603.41
05.687,-603.39
05.703,-593.96
05.718,-577.46
05.734,-554.22
05.750,-523.24
05.765,-481.73
05.781,-427.07
05.796,-330.05
05.812,-184.27
05.828,-7.46
05.843,168.9
05.859,318.78
05.875,431.21
05.890,505.29
05.906,543.3
05.921,547.17
05.937,520.49
05.953,465.95
05.968,392.44
05.984,314.22
06.000,246.25
06.015,198.14
06.031,171.43
06.046,161.79
06.062,162.33
06.078,167.4
06.093,170.42
06.109,168.46
06.125,162.15
06.140,154.06
06.156,146.22
06.171,139.22
06.187,133.38
06.203,128.76
06.218,125.43
06.234,121.04
06.250,113.66
06.265,102.95
06.281,90.45
06.296,77.98
06.312,66.95
06.328,58.78
06.343,54.2
06.359,53.75
06.375,56.22
06.390,59.78
06.406,63.27
06.421,65.86
06.437,66.85
06.453,65.89
06.468,62.99
06.484,57.93
06.500,50.77
06.515,41.25
06.531,29.04
06.546,14.23
06.562,-2.64
06.578,-20.74
06.593,-38.88
06.609,-55.61
06.625,-70.27
06.640,-82.18
06.656,-91.0
06.671,-96.96
06.687,-100.64
06.703,-102.65
06.718,-103.59
06.734,-103.74
06.750,-103.06
06.765,-102.3
06.781,-101.48
06.796,-100.44
06.812,-99.02
06.828,-97.21
06.843,-95.22
06.859,-93.59
06.875,-93.07
06.890,-89.04
06.906,-80.94
06.921,-68.99
06.937,-53.69
06.953,-35.2
06.968,-12.86
06.984,14.51
07.000,47.34
07.015,84.94
07.031,125.26
07.046,164.45
07.062,199.29
07.078,227.4
07.093,247.07
07.109,257.04
07.125,256.39
07.140,245.04
07.156,224.92
07.171,200.28
07.187,175.97
07.203,156.63
07.218,143.88
07.234,135.44
07.250,125.95
07.265,109.33
07.281,81.63
07.296,43.01
07.312,-2.26
07.328,-47.78
07.343,-86.55
07.359,-113.68
07.375,-127.52
07.390,-129.83
07.406,-124.79
07.421,-117.49
07.437,-112.16
07.453,-111.34
07.468,-115.84
07.484,-124.54
07.500,-135.38
07.515,-146.06
07.531,-154.73
07.546,-160.21
07.562,-162.16
07.578,-160.84
07.593,-156.98
07.609,-151.49
07.625,-144.94
07.640,-137.76
07.656,-130.23
07.671,-123.0
07.687,-117.48
07.703,-115.16
07.718,-117.59
07.734,-125.55
07.750,-138.42
07.765,-153.66
07.781,-167.06
07.796,-173.17
07.812,-166.42
07.828,-142.92
07.843,-102.04
07.859,-47.82
07.875,11.03
07.890,63.07
07.906,97.66
07.921,108.94
07.937,98.26
07.953,74.08
07.968,49.31
07.984,36.63
08.000,44.52
08.015,74.88
08.031,122.82
08.046,178.71
08.062,231.4
08.078,271.36
08.093,293.0
08.109,295.79
08.125,283.72
08.140,263.42
08.156,242.05
08.171,225.02
08.187,214.8
08.203,211.43
08.218,213.65
08.234,219.88
08.250,228.64
08.265,238.12
08.281,245.7
08.296,247.99
08.312,241.82
08.328,225.36
08.343,199.12
08.359,165.96
08.375,129.8
08.390,94.17
08.406,60.7
08.421,28.94
08.437,-2.81
08.453,-36.04
08.468,-70.62
08.484,-104.39
08.500,-133.99
08.515,-156.37
08.531,-170.17
08.546,-176.31
08.562,-177.17
08.578,-175.12
08.593,-171.22
08.609,-164.96
08.625,-154.9
08.640,-140.18
08.656,-121.43
08.671,-100.78
08.687,-81.13
08.703,-65.07
08.718,-54.26
08.734,-49.18
08.750,-49.87
08.765,-55.94
08.781,-66.82
08.796,-81.48
08.812,-98.27
08.828,-115.25
08.843,-130.51
08.859,-142.91
08.875,-152.08
08.890,-158.49
08.906,-162.92
08.921,-166.04
08.937,-168.38
08.953,-170.18
08.968,-171.85
08.984,-174.07
09.000,-177.9
09.015,-184.42
09.031,-194.06
09.046,-206.0
09.062,-217.49
09.078,-224.6
09.093,-223.28
09.109,-211.22
09.125,-188.93
09.140,-159.77
09.156,-128.58
09.171,-99.69
09.187,-75.42
09.203,-55.66
09.218,-39.03
09.234,-23.98
09.250,-10.24
09.265,1.52
09.281,10.48
09.296,16.81
09.312,22.02
09.328,28.38
09.343,37.79
09.359,50.31
09.375,64.22
09.390,76.49
09.406,83.88
09.421,84.41
09.437,77.71
09.453,64.68
09.468,46.69
09.484,25.0
09.500,0.62
09.515,-24.76
09.531,-48.0
09.546,-64.9
09.562,-71.25
09.578,-65.03
09.593,-47.52
09.609,-23.34
09.625,1.44
09.640,21.77
09.656,35.66
09.671,44.6
09.687,52.35
09.703,63.01
09.718,79.06
09.734,100.47
09.750,125.0
09.765,148.89
09.781,168.29
09.796,180.47
09.812,184.69
09.828,182.53
09.843,177.44
09.859,173.41
09.875,173.17
09.890,177.12
09.906,182.25
09.921,182.78
09.937,171.83
09.953,143.47
09.968,94.92
09.984,28.28
10.000,-49.28
10.015,-126.73
10.031,-191.66
10.046,-233.53
10.062,-246.77
10.078,-232.43
10.093,-197.6
10.109,-152.81
10.125,-107.99
10.140,-68.8
10.156,-34.8
10.171,-0.4
10.187,41.46
10.203,94.89
10.218,158.0
10.234,222.76
10.250,278.14
10.265,314.75
10.281,328.31
10.296,320.4
10.312,296.56
10.328,262.94
10.343,223.61
10.359,180.35
10.375,133.55
10.390,84.03
10.406,33.65
10.421,-15.57
10.437,-62.71
10.453,-108.39
10.468,-153.67
10.484,-198.36
10.500,-239.21
10.515,-270.26
10.531,-285.04
10.546,-279.19
10.562,-252.56
10.578,-209.48
10.593,-157.1
10.609,-102.88
10.625,-52.6
10.640,-9.38
10.656,25.89
10.671,53.55
10.687,74.24
10.703,88.35
10.718,96.03
10.734,97.58
10.750,93.45
10.765,84.27
10.781,71.04
10.796,54.7
10.812,36.13
10.828,16.19
10.843,-4.5
10.859,-25.11
10.875,-44.66
10.890,-62.03
10.906,-76.25
10.921,-86.36
10.937,-91.65
10.953,-91.27
10.968,-84.18
10.984,-69.63
11.000,-47.54
11.015,-19.06
11.031,13.32
11.046,46.11
11.062,75.81
11.078,99.43
11.093,115.14
11.109,122.31
11.125,121.35
11.140,113.63
11.156,101.49
11.171,87.87
11.187,76.03
11.203,68.85
11.218,67.66
11.234,71.78
11.250,78.62
11.265,84.91
11.281,88.02
11.296,87.23
11.312,83.87
11.328,80.4
11.343,79.12
11.359,81.15
11.375,86.09
11.390,92.44
11.406,98.33
11.421,102.35
11.437,103.85
11.453,103.31
11.468,102.67
11.484,104.98
11.500,113.68
11.515,130.81
11.531,155.28
11.546,181.96
11.562,202.95
11.578,210.28
11.593,199.19
11.609,170.22
11.625,128.66
11.640,82.14
11.656,37.34
11.671,-2.49
11.687,-38.19
11.703,-72.9
11.718,-109.6
11.734,-148.56
11.750,-186.39
11.765,-216.5
11.781,-231.41
11.796,-225.52
11.812,-197.47
11.828,-151.26
11.843,-95.26
11.859,-40.01
11.875,4.98
11.890,33.49
11.906,43.47
11.921,36.99
11.937,18.9
11.953,-5.01
11.968,-29.09
11.984,-49.05
12.000,-62.17
12.015,-67.27
12.031,-64.38
12.046,-54.58
12.062,-39.55
12.078,-21.39
12.093,-2.59
12.109,14.59
12.125,28.38
12.140,38.03
12.156,43.98
12.171,47.67
12.187,50.6
12.203,53.66
12.218,56.66
12.234,58.41
12.250,57.24
12.265,51.73
12.281,41.29
12.296,26.38
12.312,8.4
12.328,-10.92
12.343,-29.89
12.359,-47.49
12.375,-63.23
12.390,-77.11
12.406,-89.43
12.421,-100.73
12.437,-111.5
12.453,-121.93
12.468,-131.83
12.484,-140.33
12.500,-146.23
12.515,-148.5
12.531,-146.8
12.546,-141.78
12.562,-135.06
12.578,-128.55
12.593,-123.98
12.609,-122.64
12.625,-125.21
12.640,-131.81
12.656,-142.04
12.671,-154.68
12.687,-167.65
12.703,-178.24
12.718,-183.81
12.734,-182.47
12.750,-173.81
12.765,-159.02
12.781,-140.84
12.796,-123.04
12.812,-109.54
12.828,-103.3
12.843,-104.69
12.859,-110.82
12.875,-115.67
12.890,-112.04
12.906,-94.55
12.921,-62.88
12.937,-23.01
12.953,14.5
12.968,38.69
12.984,42.98
13.000,28.14
13.015,1.78
13.031,-25.19
13.046,-42.83
13.062,-45.67
13.078,-33.26
13.093,-8.88
13.109,22.79
13.125,57.49
13.140,92.16
13.156,125.04
13.171,155.07
13.187,181.6
13.203,204.0
13.218,221.44
13.234,232.54
13.250,235.71
13.265,230.18
13.281,217.16
13.296,200.61
13.312,186.47
13.328,180.57
13.343,186.25
13.359,202.98
13.375,226.3
13.390,249.78
13.406,267.41
13.421,275.69
13.437,274.41
13.453,265.89
13.468,253.5
13.484,239.94
13.500,226.41
13.515,212.48
13.531,196.75
13.546,177.93
13.562,155.39
13.578,129.23
13.593,99.9
13.609,67.45
13.625,31.26
13.640,-9.63
13.656,-55.69
13.671,-106.22
13.687,-158.67
13.703,-209.17
13.718,-253.41
13.734,-288.19
13.750,-312.28
13.765,-327.11
13.781,-336.27
13.796,-344.36
13.812,-355.58
13.828,-371.98
13.843,-392.9
13.859,-414.83
13.875,-432.67
13.890,-440.85
13.906,-434.78
13.921,-411.5
13.937,-370.2
13.953,-312.81
13.968,-244.08
13.984,-171.43
14.000,-103.31
14.015,-46.75
14.031,-4.83
14.046,24.35
14.062,46.71
14.078,68.84
14.093,94.55
14.109,123.51
14.125,151.86
14.140,175.25
14.156,192.09
14.171,204.23
14.187,215.63
14.203,229.62
14.218,246.68
14.234,263.93
14.250,277.28
14.265,283.66
14.281,282.65
14.296,276.25
14.312,266.95
14.328,255.64
14.343,241.13
14.359,220.43
14.375,190.74
14.390,151.57
14.406,105.58
14.421,58.09
14.437,15.42
14.453,-17.44
14.468,-38.65
14.484,-48.56
14.500,-50.65
14.515,-49.66
14.531,-50.01
14.546,-54.59
14.562,-64.45
14.578,-78.52
14.593,-94.72
14.609,-111.64
14.625,-126.07
14.640,-136.9
14.656,-143.5
14.671,-145.63
14.687,-142.93
14.703,-135.39
14.718,-123.65
14.734,-109.58
14.750,-97.59
14.765,-88.91
14.781,-86.56
14.796,-92.57
14.812,-107.74
14.828,-131.52
14.843,-162.16
14.859,-196.72
14.875,-231.38
14.890,-263.79
14.906,-286.86
14.921,-297.15
14.937,-293.06
14.953,-275.72
14.968,-248.9
14.984,-218.39
15.000,-190.06
15.015,-154.87
15.031,-133.86
15.046,-122.79
15.062,-118.69
15.078,-117.7
15.093,-116.42
15.109,-112.38
15.125,-104.34
15.140,-91.78
15.156,-74.64
15.171,-55.49
15.187,-32.35
15.203,-6.04
15.218,22.58
15.234,52.51
15.250,82.54
15.265,111.22
15.281,137.2
15.296,159.55
15.312,176.49
15.328,190.65
15.343,203.31
15.359,216.31
15.375,232.05
15.390,253.39
15.406,283.05
15.421,322.29
15.437,369.29
15.453,417.26
15.468,458.6
15.484,483.83
15.500,486.26
15.515,464.67
15.531,423.63
15.546,371.34
15.562,316.06
15.578,263.12
15.593,213.48
15.609,166.72
15.625,121.51
15.640,78.01
15.656,37.95
15.671,3.25
15.687,-25.72
15.703,-50.75
15.718,-74.95
15.734,-101.1
15.750,-129.47
15.765,-158.28
15.781,-184.25
15.796,-204.5
15.812,-217.35
15.828,-222.46
15.843,-219.83
15.859,-208.86
15.875,-188.65
15.890,-159.17
15.906,-122.46
15.921,-83.15
15.937,-47.25
15.953,-19.92
15.968,-3.54
15.984,2.92
16.000,2.84
16.015,-0.37
16.031,-5.14
16.046,-12.22
16.062,-23.68
16.078,-41.14
16.093,-64.39
16.109,-91.4
16.125,-119.35
16.140,-145.85
16.156,-169.66
16.171,-190.3
16.187,-207.02
16.203,-218.14
16.218,-221.29
16.234,-214.29
16.250,-196.54
16.265,-169.55
16.281,-136.2
16.296,-99.71
16.312,-62.42
16.328,-25.46
16.343,10.74
16.359,45.77
16.375,79.08
16.390,110.14
16.406,138.97
16.421,166.18
16.437,192.07
16.453,215.65
16.468,234.11
16.484,243.33
16.500,239.66
16.515,221.77
16.531,191.45
16.546,153.21
16.562,112.59
16.578,74.08
16.593,39.94
16.609,10.2
16.625,-16.37
16.640,-40.91
16.656,-63.79
16.671,-84.72
16.687,-103.3
16.703,-119.58
16.718,-134.18
16.734,-147.65
16.750,-159.83
16.765,-169.38
16.781,-174.07
16.796,-171.84
16.812,-161.78
16.828,-144.98
16.843,-124.16
16.859,-102.69
16.875,-83.34
16.890,-67.43
16.906,-54.76
16.921,-44.19
16.937,-34.39
16.953,-24.33
16.968,-13.18
16.984,-0.31
17.000,14.69
17.015,31.55
17.031,48.93
17.046,64.34
17.062,74.99
17.078,79.42
17.093,78.24
17.109,74.28
17.125,71.41
17.140,72.84
17.156,79.49
17.171,89.55
17.187,99.12
17.203,103.53
17.218,98.91
17.234,83.07
17.250,55.97
17.265,19.64
17.281,-21.85
17.296,-62.95
17.312,-97.09
17.328,-118.07
17.343,-121.26
17.359,-105.2
17.375,-72.32
17.390,-28.43
17.406,18.83
17.421,62.37
17.437,97.29
17.453,121.87
17.468,137.2
17.484,146.43
17.500,152.97
17.515,159.29
17.531,166.5
17.546,174.15
17.562,180.65
17.578,183.98
17.593,182.7
17.609,176.6
17.625,167.85
17.640,159.05
17.656,152.19
17.671,148.11
17.687,147.2
17.703,149.94
17.718,157.45
17.734,171.27
17.750,192.36
17.765,221.73
17.781,257.18
17.796,293.51
17.812,324.53
17.828,345.61
17.843,354.84
17.859,352.44
17.875,339.56
17.890,317.41
17.906,289.88
17.921,260.17
17.937,230.45
17.953,202.36
17.968,177.67
17.984,157.82
18.000,142.98
18.015,131.56
18.031,121.17
18.046,113.12
18.062,107.52
18.078,102.17
18.093,93.07
18.109,76.91
18.125,52.88
18.140,22.94
18.156,-9.4
18.171,-61.28
18.187,-134.53
18.203,-216.76
18.218,-288.77
18.234,-337.89
18.250,-362.54
18.265,-367.74
18.281,-360.16
18.296,-346.76
18.312,-333.37
18.328,-319.94
18.343,-304.66
18.359,-284.29
18.375,-256.53
18.390,-219.81
18.406,-174.7
18.421,-124.91
18.437,-77.69
18.453,-40.41
18.468,-14.45
18.484,2.5
18.500,14.8
18.515,26.48
18.531,40.04
18.546,51.72
18.562,59.12
18.578,59.69
18.593,52.04
18.609,37.83
18.625,18.27
18.640,-6.71
18.656,-37.84
18.671,-73.93
18.687,-110.46
18.703,-139.79
18.718,-154.86
18.734,-151.65
18.750,-129.64
18.765,-92.92
18.781,-48.16
18.796,-2.67
18.812,37.41
18.828,67.28
18.843,83.75
18.859,84.65
18.875,69.69
18.890,41.54
18.906,5.12
18.921,-33.59
18.937,-69.45
18.953,-99.11
18.968,-121.49
18.984,-137.39
19.000,-149.44
19.015,-160.94
19.031,-175.05
19.046,-193.26
19.062,-214.41
19.078,-234.97
19.093,-250.28
19.109,-256.24
19.125,-251.04
19.140,-235.79
19.156,-213.68
19.171,-188.67
19.187,-164.16
19.203,-142.32
19.218,-124.21
19.234,-110.4
19.250,-101.0
19.265,-96.04
19.281,-95.35
19.296,-98.47
19.312,-104.7
19.328,-112.84
19.343,-121.12
19.359,-127.42
19.375,-129.91
19.390,-127.81
19.406,-121.92
19.421,-114.21
19.437,-106.89
19.453,-101.65
19.468,-98.89
19.484,-97.93
19.500,-97.88
19.515,-98.07
19.531,-98.41
19.546,-98.9
19.562,-99.13
19.578,-97.86
19.593,-93.84
19.609,-86.32
19.625,-75.68
19.640,-63.71
19.656,-52.77
19.671,-44.64
19.687,-39.67
19.703,-36.58
19.718,-33.01
19.734,-26.77
19.750,-16.58
19.765,-2.06
19.781,16.15
19.796,37.0
19.812,59.89
19.828,84.98
19.843,113.04
19.859,145.0
19.875,181.36
19.890,221.95
19.906,266.22
19.921,311.78
19.937,354.09
19.953,387.14
19.968,405.16
19.984,405.07
20.000,387.68
20.015,357.75
20.031,322.34
20.046,289.57
20.062,264.27
20.078,246.5
20.093,232.93
20.109,219.33
20.125,203.41
20.140,185.57
20.156,168.15
20.171,154.09
20.187,148.13
20.203,152.55
20.218,166.46
20.234,186.43
20.250,208.06
20.265,227.5
20.281,242.19
20.296,250.79
20.312,253.07
20.328,252.45
20.343,250.77
20.359,247.03
20.375,238.32
20.390,222.51
20.406,200.21
20.421,174.75
20.437,150.4
20.453,111.38
20.468,52.18
20.484,-21.31
20.500,-95.31
20.515,-157.91
20.531,-203.69
20.546,-232.15
20.562,-245.24
20.578,-246.37
20.593,-239.9
20.609,-227.17
20.625,-209.84
20.640,-190.64
20.656,-172.82
20.671,-158.87
20.687,-149.66
20.703,-144.86
20.718,-143.49
20.734,-144.57
20.750,-144.84
20.765,-142.31
20.781,-137.14
20.796,-131.39
20.812,-127.63
20.828,-128.03
20.843,-134.56
20.859,-146.57
20.875,-163.88
20.890,-183.97
20.906,-203.7
20.921,-219.7
20.937,-228.69
20.953,-227.92
20.968,-215.82
20.984,-192.99
21.000,-162.13
21.015,-127.84
21.031,-93.88
21.046,-62.98
21.062,-36.86
21.078,-16.17
21.093,-0.84
21.109,9.75
21.125,16.48
21.140,20.76
21.156,24.01
21.171,27.93
21.187,33.72
21.203,41.37
21.218,49.68
21.234,56.79
21.250,60.96
21.265,61.24
21.281,57.92
21.296,52.2
21.312,46.15
21.328,41.8
21.343,40.65
21.359,43.21
21.375,48.96
21.390,56.55
21.406,64.65
21.421,72.33
21.437,79.53
21.453,87.02
21.468,95.91
21.484,106.89
21.500,120.06
21.515,134.77
21.531,149.82
21.546,164.11
21.562,176.67
21.578,186.82
21.593,193.98
21.609,197.69
21.625,197.33
21.640,192.59
21.656,183.36
21.671,170.0
21.687,153.17
21.703,133.65
21.718,112.04
21.734,88.58
21.750,63.27
21.765,36.33
21.781,8.61
21.796,-18.26
21.812,-41.95
21.828,-60.17
21.843,-71.33
21.859,-75.22
21.875,-72.98
21.890,-66.91
21.906,-59.68
21.921,-53.83
21.937,-51.26
21.953,-52.94
21.968,-58.67
21.984,-67.05
22.000,-75.63
22.015,-81.59
22.031,-82.67
22.046,-78.2
22.062,-69.56
22.078,-59.84
22.093,-52.97
22.109,-52.02
22.125,-58.24
22.140,-70.41
22.156,-85.37
22.171,-99.11
22.187,-108.22
22.203,-110.92
22.218,-107.46
22.234,-99.8
22.250,-90.62
22.265,-82.15
22.281,-75.3
22.296,-69.74
22.312,-64.25
22.328,-57.98
22.343,-51.12
22.359,-44.96
22.375,-41.35
22.390,-41.64
22.406,-45.81
22.421,-52.38
22.437,-58.89
22.453,-63.13
22.468,-64.13
22.484,-62.67
22.500,-60.73
22.515,-60.77
22.531,-64.37
22.546,-71.86
22.562,-82.2
22.578,-93.6
22.593,-104.6
22.609,-114.86
22.625,-125.63
22.640,-139.18
22.656,-157.98
22.671,-183.57
22.687,-215.82
22.703,-252.5
22.718,-289.51
22.734,-321.27
22.750,-341.64
22.765,-345.54
22.781,-330.63
22.796,-298.93
22.812,-256.71
22.828,-212.59
22.843,-174.01
22.859,-144.12
22.875,-120.35
22.890,-96.02
22.906,-63.84
22.921,-19.58
22.937,35.97
22.953,97.47
22.968,157.34
22.984,208.4
23.000,245.95
23.015,268.67
23.031,278.82
23.046,281.57
23.062,283.95
23.078,292.85
23.093,312.9
23.109,344.61
23.125,383.83
23.140,423.43
23.156,455.85
23.171,475.43
23.187,479.38
23.203,467.68
23.218,441.42
23.234,402.11
23.250,351.53
23.265,291.84
23.281,225.95
23.296,157.02
23.312,87.87
23.328,20.27
23.343,-44.6
23.359,-105.56
23.375,-160.62
23.390,-206.88
23.406,-241.3
23.421,-262.03
23.437,-269.33
23.453,-265.87
23.468,-255.93
23.484,-244.14
23.500,-234.23
23.515,-228.3
23.531,-226.65
23.546,-228.08
23.562,-230.54
23.578,-231.76
23.593,-229.75
23.609,-223.14
23.625,-211.44
23.640,-195.25
23.656,-176.15
23.671,-156.43
23.687,-138.2
23.703,-122.72
23.718,-109.71
23.734,-97.5
23.750,-83.66
23.765,-66.16
23.781,-44.39
23.796,-19.41
23.812,6.69
23.828,32.0
23.843,55.65
23.859,78.25
23.875,101.19
23.890,125.81
23.906,152.24
23.921,178.66
23.937,201.47
23.953,216.0
23.968,218.32
23.984,206.82
24.000,183.48
24.015,153.46
24.031,123.29
24.046,98.29
24.062,80.6
24.078,68.74
24.093,58.78
24.109,46.75
24.125,30.6
24.140,10.75
24.156,-10.53
24.171,-31.05
24.187,-49.77
24.203,-67.1
24.218,-83.72
24.234,-99.77
24.250,-113.82
24.265,-123.19
24.281,-124.79
24.296,-116.17
24.312,-96.59
24.328,-67.13
24.343,-30.44
24.359,10.19
24.375,51.28
24.390,89.87
24.406,123.48
24.421,150.07
24.437,168.2
24.453,177.25
24.468,177.78
24.484,171.44
24.500,160.43
24.515,146.64
24.531,131.19
24.546,114.56
24.562,97.28
24.578,80.58
24.593,66.46
24.609,56.91
24.625,52.89
24.640,53.48
24.656,56.24
24.671,58.3
24.687,57.92
24.703,55.06
24.718,51.24
24.734,48.15
24.750,46.53
24.765,45.49
24.781,42.97
24.796,36.77
24.812,25.59
24.828,9.63
24.843,-9.7
24.859,-30.37
24.875,-50.66
24.890,-69.71
24.906,-87.62
24.921,-104.87
24.937,-121.91
24.953,-138.7
24.968,-154.8
24.984,-169.68
25.000,-183.12
25.015,-195.14
25.031,-205.95
25.046,-215.59
25.062,-223.59
25.078,-229.14
25.093,-231.41
25.109,-230.11
25.125,-225.61
25.140,-219.11
25.156,-212.18
25.171,-206.81
25.187,-204.63
25.203,-206.39
25.218,-211.36
25.234,-217.16
25.250,-219.94
25.265,-215.45
25.281,-200.7
25.296,-174.86
25.312,-139.98
25.328,-100.0
25.343,-59.24
25.359,-20.66
25.375,14.89
25.390,48.73
25.406,83.23
25.421,120.9
25.437,163.74
25.453,212.83
25.468,268.01
25.484,327.47
25.500,387.52
25.515,442.61
25.531,486.31
25.546,512.83
25.562,518.59
25.578,503.21
25.593,469.25
25.609,421.18
25.625,364.07
25.640,302.7
25.656,241.41
25.671,184.07
25.687,134.17
25.703,94.41
25.718,66.39
25.734,50.03
25.750,43.56
25.765,43.86
25.781,46.98
25.796,49.08
25.812,47.33
25.828,40.67
25.843,29.62
25.859,16.02
25.875,1.84
25.890,-11.85
25.906,-25.07
25.921,-38.59
25.937,-52.96
25.953,-67.46
25.968,-80.16
25.984,-88.66
26.000,-91.17
26.015,-87.48
26.031,-79.23
26.046,-69.44
26.062,-61.54
26.078,-58.32
26.093,-61.15
26.109,-69.53
26.125,-81.54
26.140,-94.44
26.156,-106.02
26.171,-115.31
26.187,-122.78
26.203,-129.66
26.218,-136.56
26.234,-142.82
26.250,-146.16
26.265,-143.77
26.281,-133.69
26.296,-115.86
26.312,-92.17
26.328,-65.57
26.343,-38.97
26.359,-14.48
26.375,6.55
26.390,23.11
26.406,34.28
26.421,39.38
26.437,38.23
26.453,31.71
26.468,21.41
26.484,9.06
26.500,-3.93
26.515,-16.56
26.531,-27.88
26.546,-36.57
26.562,-40.96
26.578,-39.95
26.593,-33.75
26.609,-24.28
26.625,-15.03
26.640,-9.41
26.656,-9.62
26.671,-15.86
26.687,-26.69
26.703,-40.15
26.718,-54.91
26.734,-70.45
26.750,-86.71
26.765,-103.06
26.781,-117.37
26.796,-126.03
26.812,-125.24
26.828,-112.35
26.843,-87.28
26.859,-53.01
26.875,-14.37
26.890,23.57
26.906,57.3
26.921,85.78
26.937,110.14
26.953,132.35
26.968,153.97
26.984,175.25
27.000,195.31
27.015,212.85
27.031,226.89
27.046,237.06
27.062,243.29
27.078,244.93
27.093,240.1
27.109,226.35
27.125,201.51
27.140,165.24
27.156,119.72
27.171,69.46
27.187,19.89
27.203,-23.97
27.218,-59.02
27.234,-84.23
27.250,-100.24
27.265,-108.77
27.281,-111.89
27.296,-111.88
27.312,-111.15
27.328,-111.58
27.343,-113.78
27.359,-116.63
27.375,-117.15
27.390,-111.7
27.406,-97.78
27.421,-76.05
27.437,-51.16
27.453,-31.06
27.468,-24.45
27.484,-38.0
27.500,-73.62
27.515,-127.63
27.531,-191.75
27.546,-255.32
27.562,-307.96
27.578,-342.01
27.593,-354.02
27.609,-345.14
27.625,-320.38
27.640,-286.84
27.656,-251.4
27.671,-218.55
27.687,-189.29
27.703,-161.62
27.718,-132.48
27.734,-99.65
27.750,-62.92
27.765,-23.7
27.781,16.28
27.796,55.99
27.812,95.47
27.828,135.22
27.843,175.22
27.859,214.32
27.875,250.71
27.890,282.65
27.906,309.64
27.921,332.93
27.937,354.74
27.953,376.78
27.968,399.56
27.984,422.14
28.000,442.7
28.015,459.57
28.031,471.06
28.046,475.05
28.062,468.66
28.078,448.34
28.093,410.96
28.109,355.7
28.125,285.37
28.140,206.14
28.156,125.47
28.171,49.32
28.187,-19.02
28.203,-78.42
28.218,-128.49
28.234,-168.66
28.250,-198.21
28.265,-216.86
28.281,-225.19
28.296,-224.65
28.312,-217.25
28.328,-204.78
28.343,-188.61
28.359,-170.46
28.375,-153.12
28.390,-139.83
28.406,-134.09
28.421,-136.03
28.437,-140.86
28.453,-142.07
28.468,-135.52
28.484,-121.19
28.500,-102.03
28.515,-82.03
28.531,-63.82
28.546,-47.91
28.562,-33.09
28.578,-18.08
28.593,-2.95
28.609,11.05
28.625,22.28
28.640,29.69
28.656,33.03
28.671,32.41
28.687,28.76
28.703,23.69
28.718,18.57
28.734,14.05
28.750,10.04
28.765,6.16
28.781,2.16
28.796,-2.86
28.812,-9.62
28.828,-18.69
28.843,-30.3
28.859,-44.38
28.875,-60.21
28.890,-76.33
28.906,-91.31
28.921,-99.36
28.937,-97.88
28.953,-87.36
28.968,-71.22
28.984,-54.54
29.000,-42.29
29.015,-37.31
29.031,-39.39
29.046,-45.84
29.062,-52.86
29.078,-57.54
29.093,-58.18
29.109,-54.42
29.125,-46.76
29.140,-36.32
29.156,-24.34
29.171,-11.94
29.187,0.12
29.203,11.57
29.218,22.02
29.234,31.37
29.250,39.2
29.265,44.87
29.281,47.57
29.296,46.88
29.312,43.07
29.328,37.12
29.343,30.35
29.359,23.42
29.375,16.41
29.390,8.84
29.406,0.31
29.421,-8.96
29.437,-18.0
29.453,-25.31
29.468,-29.64
29.484,-30.47
29.500,-28.71
29.515,-26.21
29.531,-25.37
29.546,-28.27
29.562,-36.04
29.578,-48.55
29.593,-64.44
29.609,-81.79
29.625,-98.71
29.640,-114.23
29.656,-128.18
29.671,-141.13
29.687,-153.85
29.703,-167.25
29.718,-182.31
29.734,-199.81
29.750,-219.98
29.765,-241.65
29.781,-261.88
29.796,-276.17
29.812,-279.85
29.828,-269.63
29.843,-244.95
29.859,-208.13
29.875,-163.19
29.890,-114.13
29.906,-63.48
29.921,-11.86
29.937,41.31
29.953,96.4
29.968,152.86
29.984,208.93
30.000,262.3
30.015,310.93
30.031,353.47
30.046,388.87
30.062,416.04
30.078,433.7
30.093,440.31
30.109,435.08
30.125,418.3
30.140,391.86
30.156,358.74
30.171,322.35
30.187,285.8
30.203,251.19
30.218,219.95
30.234,192.76
30.250,170.08
30.265,152.03
30.281,138.41
30.296,128.32
30.312,120.04
30.328,111.29
30.343,99.37
30.359,81.99
30.375,57.72
30.390,26.62
30.406,-9.49
30.421,-47.1
30.437,-81.66
30.453,-108.75
30.468,-125.42
30.484,-131.39
30.500,-129.25
30.515,-123.73
30.531,-119.87
30.546,-121.4
30.562,-129.46
30.578,-142.64
30.593,-158.0
30.609,-172.41
30.625,-183.73
30.640,-191.18
30.656,-195.08
30.671,-196.31
30.687,-195.74
30.703,-194.37
30.718,-193.18
30.734,-193.52
30.750,-196.53
30.765,-202.59
30.781,-210.73
30.796,-218.42
30.812,-222.33
30.828,-219.38
30.843,-208.05
30.859,-188.88
30.875,-164.33
30.890,-137.84
30.906,-112.58
30.921,-90.42
30.937,-71.99
30.953,-56.72
30.968,-43.23
30.984,-30.0
31.000,-15.3
31.015,2.51
31.031,24.81
31.046,51.99
31.062,83.14
31.078,115.51
31.093,144.99
31.109,167.5
31.125,180.38
31.140,183.47
31.156,179.14
31.171,171.19
31.187,162.83
31.203,155.67
31.218,149.36
31.234,142.36
31.250,133.29
31.265,121.81
31.281,108.82
31.296,95.7
31.312,83.78
31.328,73.72
31.343,65.44
31.359,58.57
31.375,52.64
31.390,47.17
31.406,41.41
31.421,34.58
31.437,25.39
31.453,12.4
31.468,-5.51
31.484,-28.92
31.500,-57.24
31.515,-88.52
31.531,-119.74
31.546,-147.69
31.562,-169.78
31.578,-184.82
31.593,-193.32
31.609,-196.67
31.625,-196.32
31.640,-192.71
31.656,-185.06
31.671,-171.41
31.687,-150.13
31.703,-120.95
31.718,-85.99
31.734,-49.7
31.750,-17.67
31.765,5.08
31.781,16.02
31.796,15.5
31.812,6.76
31.828,-5.76
31.843,-17.77
31.859,-26.02
31.875,-28.33
31.890,-23.29
31.906,-9.71
31.921,13.18
31.937,44.84
31.953,82.95
31.968,123.52
31.984,161.91
32.000,194.5
32.015,219.93
32.031,239.05
32.046,254.09
32.062,266.91
32.078,277.88
32.093,285.66
32.109,288.01
32.125,283.19
32.140,270.72
32.156,251.41
32.171,226.65
32.187,197.69
32.203,165.29
32.218,130.11
32.234,92.9
32.250,54.65
32.265,15.9
32.281,-23.73
32.296,-65.89
32.312,-112.87
32.328,-166.43
32.343,-226.54
32.359,-290.68
32.375,-354.35
32.390,-412.85
32.406,-462.56
32.421,-501.52
32.437,-529.02
32.453,-544.25
32.468,-545.62
32.484,-531.12
32.500,-499.52
32.515,-451.58
32.531,-390.67
32.546,-321.99
32.562,-250.85
32.578,-181.36
32.593,-115.46
32.609,-53.53
32.625,4.73
32.640,59.5
32.656,110.67
32.671,158.37
32.687,203.52
32.703,248.23
32.718,295.22
32.734,346.78
32.750,403.02
32.765,460.37
32.781,511.67
32.796,547.72
32.812,560.48
32.828,546.17
32.843,506.83
32.859,449.56
32.875,383.95
32.890,318.77
32.906,259.76
32.921,209.81
32.937,170.34
32.953,142.9
32.968,129.38
32.984,130.53
33.000,143.82
33.015,162.87
33.031,179.27
33.046,185.8
33.062,179.77
33.078,163.9
33.093,144.75
33.109,129.12
33.125,120.88
33.140,119.65
33.156,121.84
33.171,122.96
33.187,119.41
33.203,109.09
33.218,90.74
33.234,63.61
33.250,27.59
33.265,-15.6
33.281,-61.73
33.296,-104.61
33.312,-137.98
33.328,-158.27
33.343,-165.95
33.359,-165.38
33.375,-162.63
33.390,-162.92
33.406,-168.97
33.421,-180.79
33.437,-196.73
33.453,-214.88
33.468,-234.15
33.484,-254.02
33.500,-273.99
33.515,-292.96
33.531,-309.22
33.546,-321.06
33.562,-327.93
33.578,-330.66
33.593,-331.09
33.609,-330.79
33.625,-329.49
33.640,-324.79
33.656,-312.92
33.671,-290.51
33.687,-256.33
33.703,-212.42
33.718,-163.51
33.734,-115.13
33.750,-71.58
33.765,-34.09
33.781,-0.72
33.796,32.39
33.812,69.06
33.828,111.04
33.843,156.78
33.859,201.94
33.875,240.82
33.890,268.59
33.906,282.95
33.921,284.54
33.937,276.08
33.953,260.95
33.968,241.97
33.984,220.94
34.000,199.21
34.015,178.08
34.031,158.68
34.046,141.67
34.062,126.43
34.078,111.35
34.093,94.59
34.109,75.41
34.125,54.85
34.140,35.64
34.156,20.92
34.171,12.78
34.187,11.69
34.203,16.39
34.218,24.59
34.234,34.08
34.250,43.32
34.265,51.38
34.281,57.83
34.296,62.25
34.312,63.87
34.328,61.86
34.343,55.56
34.359,44.92
34.375,30.52
34.390,13.63
34.406,-4.2
34.421,-21.34
34.437,-36.44
34.453,-48.63
34.468,-57.55
34.484,-63.7
34.500,-68.04
34.515,-71.74
34.531,-75.97
34.546,-81.66
34.562,-89.44
34.578,-99.86
34.593,-113.47
34.609,-130.69
34.625,-151.78
34.640,-176.33
34.656,-203.0
34.671,-229.6
34.687,-253.28
34.703,-270.99
34.718,-279.79
34.734,-277.07
34.750,-260.75
34.765,-230.2
34.781,-186.88
34.796,-134.89
34.812,-80.59
34.828,-31.05
34.843,8.02
34.859,34.05
34.875,47.81
34.890,52.73
34.906,52.79
34.921,51.44
34.937,50.66
34.953,51.53
34.968,55.08
34.984,62.53
35.000,75.05
35.015,92.76
35.031,114.19
35.046,135.97
35.062,154.14
35.078,165.33
35.093,168.11
35.109,163.72
35.125,155.32
35.140,146.68
35.156,140.47
35.171,137.45
35.187,136.4
35.203,135.39
35.218,132.63
35.234,127.55
35.250,120.59
35.265,112.41
35.281,103.29
35.296,92.78
35.312,80.14
35.328,64.6
35.343,46.23
35.359,25.96
35.375,5.69
35.390,-12.14
35.406,-25.71
35.421,-34.36
35.437,-39.39
35.453,-43.54
35.468,-49.73
35.484,-59.65
35.500,-72.78
35.515,-86.66
35.531,-98.17
35.546,-105.28
35.562,-107.94
35.578,-107.96
35.593,-107.76
35.609,-108.9
35.625,-111.43
35.640,-114.27
35.656,-116.27
35.671,-117.21
35.687,-117.93
35.703,-119.42
35.718,-122.27
35.734,-126.11
35.750,-129.77
35.765,-131.93
35.781,-131.85
35.796,-129.74
35.812,-126.26
35.828,-122.37
35.843,-118.33
35.859,-113.69
35.875,-107.41
35.890,-98.36
35.906,-85.87
35.921,-70.01
35.937,-51.76
35.953,-32.67
35.968,-14.36
35.984,2.14
36.000,16.72
36.015,30.54
36.031,45.02
36.046,61.13
36.062,78.42
36.078,94.78
36.093,107.07
36.109,112.26
36.125,108.76
36.140,96.9
36.156,79.36
36.171,60.15
36.187,43.78
36.203,34.32
36.218,34.51
36.234,44.93
36.250,63.5
36.265,85.93
36.281,106.64
36.296,120.51
36.312,124.32
36.328,117.72
36.343,102.77
36.359,83.06
36.375,62.54
36.390,44.4
36.406,30.85
36.421,22.99
36.437,20.97
36.453,23.78
36.468,29.53
36.484,35.73
36.500,39.76
36.515,39.88
36.531,35.29
36.546,26.48
36.562,14.71
36.578,1.77
36.593,-10.68
36.609,-21.5
36.625,-30.11
36.640,-36.74
36.656,-41.86
36.671,-46.27
36.687,-50.34
36.703,-54.04
36.718,-56.8
36.734,-57.9
36.750,-56.75
36.765,-53.33
36.781,-48.4
36.796,-43.07
36.812,-38.73
36.828,-36.48
36.843,-36.94
36.859,-39.96
36.875,-44.83
36.890,-50.53
36.906,-55.94
36.921,-60.24
36.937,-62.71
36.953,-63.06
36.968,-61.3
36.984,-57.78
37.000,-53.27
37.015,-48.7
37.031,-44.93
37.046,-42.49
37.062,-41.61
37.078,-41.98
37.093,-43.19
37.109,-44.89
37.125,-46.4
37.140,-46.83
37.156,-44.93
37.171,-39.62
37.187,-30.3
37.203,-17.56
37.218,-2.84
37.234,11.91
37.250,24.85
37.265,34.99
37.281,42.02
37.296,46.32
37.312,48.75
37.328,50.64
37.343,53.71
37.359,59.98
37.375,71.3
37.390,88.53
37.406,111.19
37.421,137.03
37.437,162.44
37.453,183.32
37.468,195.9
37.484,197.69
37.500,187.89
37.515,167.5
37.531,138.91
37.546,105.45
37.562,70.72
37.578,38.08
37.593,10.61
37.609,-9.41
37.625,-20.41
37.640,-22.07
37.656,-15.27
37.671,-2.28
37.687,14.1
37.703,31.2
37.718,47.09
37.734,60.9
37.750,72.08
37.765,79.9
37.781,83.15
37.796,80.49
37.812,71.01
37.828,54.8
37.843,33.02
37.859,7.3
37.875,-20.55
37.890,-48.89
37.906,-76.02
37.921,-99.76
37.937,-117.7
37.953,-127.72
37.968,-128.87
37.984,-121.78
38.000,-108.54
38.015,-91.7
38.031,-73.55
38.046,-55.45
38.062,-37.85
38.078,-20.94
38.093,-5.01
38.109,8.91
38.125,19.28
38.140,24.4
38.156,23.24
38.171,15.7
38.187,3.05
38.203,-12.28
38.218,-27.47
38.234,-39.95
38.250,-48.28
38.265,-52.45
38.281,-53.62
38.296,-53.47
38.312,-53.61
38.328,-55.07
38.343,-58.01
38.359,-62.16
38.375,-66.89
38.390,-71.56
38.406,-75.79
38.421,-79.22
38.437,-81.43
38.453,-81.96
38.468,-80.48
38.484,-76.94
38.500,-71.87
38.515,-66.16
38.531,-60.91
38.546,-57.04
38.562,-54.8
38.578,-53.79
38.593,-52.99
38.609,-51.15
38.625,-47.35
38.640,-41.32
38.656,-33.34
38.671,-24.11
38.687,-14.68
38.703,-6.09
38.718,0.62
38.734,4.59
38.750,5.49
38.765,3.52
38.781,-0.45
38.796,-5.08
38.812,-8.88
38.828,-10.94
38.843,-10.76
38.859,-8.66
38.875,-5.45
38.890,-1.84
38.906,1.57
38.921,4.5
38.937,7.17
38.953,10.17
38.968,13.98
38.984,19.24
39.000,26.29
39.015,35.15
39.031,45.42
39.046,56.39
39.062,67.07
39.078,76.47
39.093,83.8
39.109,88.58
39.125,90.72
39.140,90.33
39.156,87.85
39.171,83.94
39.187,79.49
39.203,75.44
39.218,72.75
39.234,71.95
39.250,73.07
39.265,75.75
39.281,79.16
39.296,82.59
39.312,85.49
39.328,87.49
39.343,88.41
39.359,88.18
39.375,86.77
39.390,84.32
39.406,81.34
39.421,78.41
39.437,76.25
39.453,75.45
39.468,76.05
39.484,77.65
39.500,79.41
39.515,80.5
39.531,80.1
39.546,77.95
39.562,74.04
39.578,68.75
39.593,62.75
39.609,56.69
39.625,51.05
39.640,45.79
39.656,40.5
39.671,34.32
39.687,26.42
39.703,15.96
39.718,2.63
39.734,-13.29
39.750,-30.95
39.765,-48.83
39.781,-65.48
39.796,-79.86
39.812,-91.77
39.828,-101.99
39.843,-112.12
39.859,-123.94
39.875,-138.64
39.890,-156.5
39.906,-176.36
39.921,-196.48
39.937,-215.2
39.953,-231.61
39.968,-245.84
39.984,-258.61
40.000,-270.35
40.015,-280.49
40.031,-287.61
40.046,-289.73
40.062,-285.39
40.078,-274.63
40.093,-259.01
40.109,-241.11
40.125,-223.71
40.140,-208.72
40.156,-196.81
40.171,-187.38
40.187,-179.05
40.203,-170.2
40.218,-159.48
40.234,-146.07
40.250,-130.0
40.265,-112.34
40.281,-95.25
40.296,-81.8
40.312,-74.77
40.328,-75.36
40.343,-82.25
40.359,-91.56
40.375,-98.02
40.390,-97.18
40.406,-86.91
40.421,-68.06
40.437,-43.62
40.453,-17.19
40.468,8.59
40.484,32.41
40.500,53.91
40.515,72.81
40.531,88.56
40.546,100.4
40.562,108.19
40.578,112.91
40.593,116.61
40.609,121.88
40.625,130.69
40.640,143.61
40.656,159.36
40.671,175.56
40.687,189.72
40.703,200.3
40.718,207.21
40.734,211.73
40.750,215.76
40.765,220.76
40.781,227.22
40.796,234.36
40.812,240.71
40.828,245.06
40.843,247.22
40.859,248.23
40.875,250.21
40.890,255.78
40.906,267.82
40.921,289.07
40.937,321.35
40.953,364.02
40.968,413.06
40.984,460.83
41.000,497.55
41.015,514.35
41.031,506.26
41.046,474.37
41.062,425.51
41.078,369.56
41.093,315.61
41.109,269.18
41.125,231.45
41.140,200.44
41.156,173.19
41.171,147.29
41.187,121.49
41.203,95.3
41.218,68.06
41.234,38.57
41.250,5.2
41.265,-33.52
41.281,-78.47
41.296,-129.72
41.312,-187.11
41.328,-251.11
41.343,-322.82
41.359,-403.08
41.375,-490.57
41.390,-580.37
41.406,-664.16
41.421,-732.17
41.437,-776.3
41.453,-793.2
41.468,-785.4
41.484,-759.6
41.500,-723.83
41.515,-683.92
41.531,-642.14
41.546,-598.09
41.562,-550.47
41.578,-498.7
41.593,-443.55
41.609,-386.64
41.625,-329.38
41.640,-272.74
41.656,-217.29
41.671,-163.91
41.687,-114.33
41.703,-70.97
41.718,-36.57
41.734,-13.24
41.750,-1.79
41.765,-1.31
41.781,-9.44
41.796,-22.96
41.812,-38.55
41.828,-53.4
41.843,-65.6
41.859,-74.19
41.875,-78.71
41.890,-78.8
41.906,-73.91
41.921,-63.13
41.937,-45.63
41.953,-20.88
41.968,10.77
41.984,47.88
42.000,87.86
42.015,127.62
42.031,164.21
42.046,195.52
42.062,220.94
42.078,241.18
42.093,258.08
42.109,273.79
42.125,289.9
42.140,306.97
42.156,324.57
42.171,341.77
42.187,357.68
42.203,372.03
42.218,385.45
42.234,399.26
42.250,415.35
42.265,435.95
42.281,463.02
42.296,497.29
42.312,537.11
42.328,577.24
42.343,609.36
42.359,623.88
42.375,613.34
42.390,575.36
42.406,513.88
42.421,437.61
42.437,356.48
42.453,278.12
42.468,205.76
42.484,138.77
42.500,74.82
42.515,12.54
42.531,-47.29
42.546,-102.55
42.562,-151.35
42.578,-193.51
42.593,-230.8
42.609,-265.89
42.625,-301.15
42.640,-338.03
42.656,-377.38
42.671,-419.62
42.687,-464.62
42.703,-511.01
42.718,-554.96
42.734,-590.09
42.750,-609.13
42.765,-606.55
42.781,-580.86
42.796,-535.8
42.812,-478.87
42.828,-418.53
42.843,-361.46
42.859,-311.23
42.875,-268.29
42.890,-231.64
42.906,-200.01
42.921,-172.34
42.937,-147.54
42.953,-123.89
42.968,-99.22
42.984,-71.44
43.000,-39.62
43.015,-4.13
43.031,33.7
43.046,72.35
43.062,111.39
43.078,151.86
43.093,195.69
43.109,244.15
43.125,296.19
43.140,347.75
43.156,392.62
43.171,424.53
43.187,439.54
43.203,437.24
43.218,420.49
43.234,394.05
43.250,363.06
43.265,331.87
43.281,303.83
43.296,280.99
43.312,263.79
43.328,250.78
43.343,238.83
43.359,224.3
43.375,204.89
43.390,181.18
43.406,156.48
43.421,135.43
43.437,121.19
43.453,114.03
43.468,111.09
43.484,107.77
43.500,99.76
43.515,84.73
43.531,62.88
43.546,36.33
43.562,8.2
43.578,-18.41
43.593,-40.78
43.609,-56.54
43.625,-63.58
43.640,-60.41
43.656,-46.84
43.671,-24.62
43.687,2.56
43.703,29.88
43.718,53.15
43.734,70.47
43.750,82.78
43.765,93.06
43.781,104.4
43.796,118.02
43.812,132.46
43.828,144.38
43.843,150.53
43.859,149.5
43.875,142.32
43.890,131.62
43.906,120.04
43.921,109.18
43.937,99.06
43.953,88.57
43.968,75.78
43.984,58.56
44.000,34.86
44.015,3.1
44.031,-37.05
44.046,-83.79
44.062,-132.4
44.078,-175.48
44.093,-204.14
44.109,-210.52
44.125,-190.26
44.140,-144.18
44.156,-78.56
44.171,-3.67
44.187,68.74
44.203,128.76
44.218,170.54
44.234,193.04
44.250,198.78
44.265,191.46
44.281,174.15
44.296,148.25
44.312,114.36
44.328,73.23
44.343,26.38
44.359,-24.37
44.375,-77.89
44.390,-134.52
44.406,-194.97
44.421,-258.11
44.437,-319.22
44.453,-369.71
44.468,-399.58
44.484,-401.27
44.500,-373.04
44.515,-319.66
44.531,-250.9
44.546,-177.72
44.562,-109.17
44.578,-50.95
44.593,-5.22
44.609,28.28
44.625,51.13
44.640,65.67
44.656,74.77
44.671,81.44
44.687,88.37
44.703,97.33
44.718,108.88
44.734,123.21
44.750,140.5
44.765,160.78
44.781,183.24
44.796,205.28
44.812,222.07
44.828,227.87
44.843,217.9
44.859,190.39
44.875,147.71
44.890,95.42
44.906,39.89
44.921,-14.25
44.937,-65.41
44.953,-114.52
44.968,-162.59
44.984,-208.34
45.000,-247.2
45.015,-272.38
45.031,-277.77
45.046,-260.53
45.062,-221.95
45.078,-166.87
45.093,-102.08
45.109,-34.86
45.125,27.9
45.140,79.43
45.156,113.47
45.171,125.18
45.187,113.11
45.203,80.88
45.218,36.61
45.234,-9.31
45.250,-48.33
45.265,-76.5
45.281,-95.81
45.296,-112.04
45.312,-131.08
45.328,-155.51
45.343,-182.99
45.359,-207.3
45.375,-221.52
45.390,-221.26
45.406,-206.44
45.421,-181.3
45.437,-152.13
45.453,-124.56
45.468,-101.43
45.484,-82.58
45.500,-65.78
45.515,-48.66
45.531,-29.92
45.546,-9.64
45.562,11.47
45.578,33.05
45.593,55.09
45.609,77.25
45.625,97.92
45.640,114.09
45.656,122.1
45.671,119.21
45.687,105.05
45.703,82.07
45.718,54.61
45.734,27.41
45.750,3.56
45.765,-16.17
45.781,-32.95
45.796,-48.68
45.812,-64.39
45.828,-79.14
45.843,-90.17
45.859,-93.85
45.875,-86.99
45.890,-68.33
45.906,-39.31
45.921,-3.9
45.937,32.51
45.953,64.51
45.968,88.35
45.984,102.3
46.000,106.65
46.015,103.13
46.031,94.0
46.046,81.81
46.062,69.07
46.078,58.23
46.093,50.96
46.109,47.59
46.125,46.72
46.140,45.67
46.156,41.9
46.171,34.4
46.187,24.53
46.203,15.52
46.218,10.83
46.234,12.91
46.250,22.37
46.265,38.59
46.281,60.19
46.296,85.86
46.312,113.89
46.328,142.05
46.343,167.18
46.359,185.56
46.375,193.97
46.390,190.63
46.406,175.77
46.421,151.3
46.437,120.31
46.453,85.88
46.468,50.82
46.484,17.48
46.500,-12.04
46.515,-35.63
46.531,-51.24
46.546,-57.61
46.562,-55.01
46.578,-45.38
46.593,-32.19
46.609,-19.19
46.625,-9.09
46.640,-2.84
46.656,0.17
46.671,1.21
46.687,0.95
46.703,-1.1
46.718,-6.12
46.734,-14.72
46.750,-25.48
46.765,-34.58
46.781,-37.06
46.796,-28.97
46.812,-9.82
46.828,16.45
46.843,42.07
46.859,58.09
46.875,57.98
46.890,40.6
46.906,10.61
46.921,-23.81
46.937,-54.91
46.953,-79.22
46.968,-98.56
46.984,-118.33
47.000,-143.9
47.015,-177.29
47.031,-215.6
47.046,-252.06
47.062,-278.49
47.078,-288.32
47.093,-278.63
47.109,-250.56
47.125,-208.16
47.140,-156.9
47.156,-102.12
47.171,-48.16
47.187,1.79
47.203,45.51
47.218,81.23
47.234,107.51
47.250,123.61
47.265,130.23
47.281,129.64
47.296,125.34
47.312,120.74
47.328,117.64
47.343,115.6
47.359,112.26
47.375,104.58
47.390,90.64
47.406,70.46
47.421,46.07
47.437,20.98
47.453,-1.11
47.468,-17.48
47.484,-26.96
47.500,-29.93
47.515,-28.06
47.531,-23.41
47.546,-17.76
47.562,-12.04
47.578,-5.92
47.593,1.8
47.609,12.4
47.625,26.36
47.640,42.98
47.656,60.3
47.671,76.27
47.687,89.46
47.703,99.88
47.718,109.05
47.734,119.09
47.750,131.72
47.765,147.39
47.781,165.03
47.796,182.17
47.812,196.28
47.828,205.44
47.843,209.12
47.859,208.41
47.875,205.36
47.890,202.31
47.906,201.1
47.921,202.53
47.937,206.13
47.953,210.76
47.968,215.03
47.984,217.79
48.000,218.65
48.015,217.85
48.031,216.16
48.046,214.59
48.062,213.84
48.078,214.0
48.093,214.53
48.109,214.23
48.125,211.34
48.140,204.22
48.156,191.26
48.171,171.47
48.187,144.77
48.203,111.84
48.218,74.17
48.234,34.05
48.250,-5.91
48.265,-43.18
48.281,-75.4
48.296,-100.95
48.312,-119.06
48.328,-129.59
48.343,-133.14
48.359,-130.92
48.375,-124.62
48.390,-116.13
48.406,-107.37
48.421,-99.67
48.437,-93.8
48.453,-90.0
48.468,-88.33
48.484,-89.13
48.500,-93.32
48.515,-102.31
48.531,-117.46
48.546,-139.38
48.562,-167.13
48.578,-198.39
48.593,-230.07
48.609,-259.1
48.625,-283.48
48.640,-302.64
48.656,-317.61
48.671,-330.69
48.687,-345.16
48.703,-364.83
48.718,-393.47
48.734,-433.57
48.750,-484.83
48.765,-543.36
48.781,-601.8
48.796,-651.57
48.812,-685.93
48.828,-702.47
48.843,-703.63
48.859,-695.12
48.875,-683.07
48.890,-671.23
48.906,-660.23
48.921,-648.21
48.937,-632.54
48.953,-611.42
48.968,-584.18
48.984,-550.66
49.000,-510.27
49.015,-462.06
49.031,-405.26
49.046,-340.36
49.062,-269.57
49.078,-196.15
49.093,-123.75
49.109,-55.02
49.125,8.7
49.140,67.48
49.156,122.05
49.171,172.91
49.187,219.94
49.203,261.98
49.218,297.59
49.234,325.75
49.250,346.69
49.265,361.87
49.281,374.02
49.296,386.29
49.312,401.5
49.328,420.93
49.343,443.6
49.359,466.46
49.375,484.92
49.390,494.55
49.406,492.5
49.421,478.71
49.437,455.81
49.453,428.22
49.468,400.3
49.484,374.58
49.500,351.2
49.515,328.28
49.531,303.33
49.546,274.8
49.562,243.2
49.578,210.85
49.593,181.09
49.609,156.72
49.625,138.8
49.640,126.25
49.656,116.41
49.671,105.91
49.687,92.17
49.703,74.06
49.718,52.07
49.734,28.09
49.750,4.81
49.765,-15.18
49.781,-29.87
49.796,-38.32
49.812,-40.74
49.828,-38.18
49.843,-31.93
49.859,-23.2
49.875,-12.78
49.890,-1.3
49.906,10.53
49.921,22.13
49.937,33.0
49.953,43.17
49.968,53.01
49.984,62.59
50.000,71.15
50.015,76.9
50.031,77.59
50.046,71.76
50.062,60.11
50.078,45.53
50.093,32.5
50.109,25.17
50.125,25.69
50.140,33.37
50.156,45.39
50.171,57.95
50.187,67.66
50.203,72.62
50.218,72.49
50.234,68.31
50.250,62.29
50.265,57.46
50.281,57.01
50.296,63.52
50.312,77.84
50.328,98.47
50.343,121.95
50.359,144.12
50.375,161.9
50.390,174.45
50.406,183.22
50.421,191.06
50.437,200.44
50.453,211.89
50.468,223.43
50.484,230.92
50.500,229.27
50.515,214.4
50.531,184.7
50.546,141.48
50.562,88.55
50.578,30.88
50.593,-27.27
50.609,-83.29
50.625,-136.62
50.640,-188.46
50.656,-240.94
50.671,-295.73
50.687,-352.65
50.703,-408.71
50.718,-457.7
50.734,-491.54
50.750,-502.77
50.765,-487.69
50.781,-448.6
50.796,-393.8
50.812,-334.8
50.828,-282.42
50.843,-243.35
50.859,-219.01
50.875,-206.53
50.890,-200.73
50.906,-196.17
50.921,-188.16
50.937,-172.78
50.953,-146.62
50.968,-107.13
50.984,-53.5
51.000,11.5
51.015,81.04
51.031,145.89
51.046,197.19
51.062,229.35
51.078,242.15
51.093,240.52
51.109,232.35
51.125,225.64
51.140,224.61
51.156,228.81
51.171,234.85
51.187,239.3
51.203,240.61
51.218,239.68
51.234,238.95
51.250,240.43
51.265,244.53
51.281,248.03
51.296,245.06
51.312,229.74
51.328,198.95
51.343,153.42
51.359,97.24
51.375,36.67
51.390,-26.18
51.406,-84.17
51.421,-129.38
51.437,-156.51
51.453,-164.54
51.468,-154.23
51.484,-127.05
51.500,-85.98
51.515,-36.7
51.531,12.29
51.546,52.96
51.562,79.23
51.578,89.49
51.593,86.44
51.609,75.59
51.625,63.71
51.640,52.7
51.656,42.89
51.671,34.14
51.687,27.1
51.703,22.32
51.718,19.99
51.734,19.21
51.750,18.84
51.765,17.72
51.781,14.88
51.796,10.12
51.812,3.62
51.828,-4.33
51.843,-14.56
51.859,-25.67
51.875,-37.98
51.890,-51.93
51.906,-68.09
51.921,-86.78
51.937,-107.46
51.953,-128.62
51.968,-147.78
51.984,-162.11
52.000,-168.97
52.015,-167.18
52.031,-157.0
52.046,-140.8
52.062,-122.62
52.078,-106.83
52.093,-96.88
52.109,-93.93
52.125,-96.5
52.140,-101.07
52.156,-103.76
52.171,-101.18
52.187,-91.6
52.203,-75.27
52.218,-53.67
52.234,-29.29
52.250,-5.12
52.265,15.46
52.281,29.1
52.296,33.13
52.312,27.25
52.328,14.32
52.343,-0.13
52.359,-9.49
52.375,-9.39
52.390,0.52
52.406,15.89
52.421,29.68
52.437,35.17
52.453,29.32
52.468,13.57
52.484,-7.36
52.500,-27.84
52.515,-44.17
52.531,-55.44
52.546,-63.14
52.562,-70.01
52.578,-78.77
52.593,-91.15
52.609,-107.51
52.625,-126.75
52.640,-146.18
52.656,-162.27
52.671,-171.69
52.687,-172.54
52.703,-165.7
52.718,-154.79
52.734,-145.27
52.750,-142.62
52.765,-150.29
52.781,-168.38
52.796,-193.53
52.812,-219.82
52.828,-240.73
52.843,-250.84
52.859,-246.83
52.875,-228.05
52.890,-195.89
52.906,-152.87
52.921,-102.06
52.937,-46.85
52.953,9.1
52.968,61.72
52.984,106.79
53.000,141.2
53.015,163.64
53.031,175.23
53.046,178.95
53.062,178.37
53.078,175.77
53.093,171.43
53.109,163.89
53.125,151.14
53.140,132.34
53.156,108.72
53.171,83.48
53.187,60.62
53.203,43.5
53.218,33.65
53.234,30.41
53.250,31.52
53.265,33.99
53.281,35.4
53.296,34.8
53.312,33.15
53.328,32.77
53.343,36.28
53.359,45.61
53.375,61.21
53.390,82.2
53.406,106.86
53.421,133.09
53.437,158.29
53.453,179.34
53.468,192.83
53.484,196.28
53.500,190.06
53.515,178.21
53.531,167.75
53.546,165.81
53.562,176.42
53.578,198.56
53.593,226.68
53.609,253.18
53.625,271.6
53.640,278.92
53.656,275.69
53.671,265.26
53.687,252.09
53.703,240.72
53.718,234.89
53.734,236.49
53.750,244.53
53.765,254.33
53.781,258.52
53.796,249.56
53.812,222.96
53.828,179.64
53.843,125.62
53.859,69.33
53.875,17.85
53.890,-25.83
53.906,-63.51
53.921,-100.12
53.937,-140.62
53.953,-187.38
53.968,-238.93
53.984,-290.38
54.000,-335.01
54.015,-366.48
54.031,-380.56
54.046,-376.19
54.062,-356.09
54.078,-326.32
54.093,-294.45
54.109,-267.67
54.125,-250.38
54.140,-242.63
54.156,-240.2
54.171,-236.12
54.187,-223.49
54.203,-198.5
54.218,-162.18
54.234,-119.6
54.250,-77.66
54.265,-41.96
54.281,-14.57
54.296,5.87
54.312,22.53
54.328,38.22
54.343,53.77
54.359,67.92
54.375,78.69
54.390,85.01
54.406,87.79
54.421,89.71
54.437,93.91
54.453,102.27
54.468,114.19
54.484,126.39
54.500,134.23
54.515,133.96
54.531,124.46
54.546,108.23
54.562,90.72
54.578,77.8
54.593,73.29
54.609,77.02
54.625,84.66
54.640,89.24
54.656,84.18
54.671,66.07
54.687,36.54
54.703,2.12
54.718,-28.25
54.734,-46.47
54.750,-48.49
54.765,-35.75
54.781,-14.17
54.796,8.66
54.812,26.31
54.828,35.34
54.843,35.45
54.859,28.13
54.875,15.21
54.890,-2.07
54.906,-23.01
54.921,-47.49
54.937,-75.96
54.953,-109.61
54.968,-150.11
54.984,-198.03
55.000,-251.17
55.015,-302.91
55.031,-342.84
55.046,-360.13
55.062,-348.24
55.078,-309.07
55.093,-253.84
55.109,-200.03
55.125,-165.2
55.140,-161.29
55.156,-190.82
55.171,-247.08
55.187,-317.3
55.203,-387.08
55.218,-444.12
55.234,-480.33
55.250,-492.43
55.265,-481.19
55.281,-450.6
55.296,-406.64
55.312,-355.93
55.328,-304.69
55.343,-257.96
55.359,-218.99
55.375,-188.75
55.390,-166.21
55.406,-148.13
55.421,-130.06
55.437,-107.95
55.453,-79.59
55.468,-45.63
55.484,-9.09
55.500,25.83
55.515,55.67
55.531,79.02
55.546,97.1
55.562,112.97
55.578,130.11
55.593,150.98
55.609,176.07
55.625,204.08
55.640,232.15
55.656,256.83
55.671,275.22
55.687,286.07
55.703,290.12
55.718,289.95
55.734,289.24
55.750,291.52
55.765,298.86
55.781,310.99
55.796,325.3
55.812,337.53
55.828,343.5
55.843,340.73
55.859,329.17
55.875,311.07
55.890,289.52
55.906,267.13
55.921,245.08
55.937,223.45
55.953,202.01
55.968,181.08
55.984,161.9
56.000,146.19
56.015,135.3
56.031,129.21
56.046,126.82
56.062,126.3
56.078,126.15
56.093,125.43
56.109,123.55
56.125,119.88
56.140,113.59
56.156,103.44
56.171,88.16
56.187,67.21
56.203,41.1
56.218,11.82
56.234,-17.56
56.250,-43.49
56.265,-62.85
56.281,-73.58
56.296,-74.93
56.312,-66.86
56.328,-49.65
56.343,-23.5
56.359,10.95
56.375,51.84
56.390,95.5
56.406,136.91
56.421,170.81
56.437,192.91
56.453,201.21
56.468,195.9
56.484,178.98
56.500,153.29
56.515,122.16
56.531,88.75
56.546,55.97
56.562,26.37
56.578,1.61
56.593,-17.36
56.609,-30.41
56.625,-38.1
56.640,-41.26
56.656,-40.79
56.671,-37.62
56.687,-32.6
56.703,-26.33
56.718,-19.33
56.734,-11.97
56.750,-4.67
56.765,1.81
56.781,6.46
56.796,8.14
56.812,6.01
56.828,-0.07
56.843,-9.33
56.859,-20.31
56.875,-30.96
56.890,-39.36
56.906,-44.15
56.921,-44.68
56.937,-41.28
56.953,-34.96
56.968,-27.11
56.984,-19.08
57.000,-12.02
57.015,-6.58
57.031,-2.9
57.046,-0.94
57.062,-0.32
57.078,-0.82
57.093,-2.14
57.109,-3.89
57.125,-5.49
57.140,-6.34
57.156,-5.94
57.171,-4.16
57.187,-1.48
57.203,1.24
57.218,2.89
57.234,2.71
57.250,0.32
57.265,-4.16
57.281,-10.31
57.296,-17.46
57.312,-24.77
57.328,-31.27
57.343,-36.0
57.359,-38.42
57.375,-38.19
57.390,-35.51
57.406,-31.14
57.421,-26.28
57.437,-22.3
57.453,-20.42
57.468,-21.25
57.484,-24.44
57.500,-29.08
57.515,-33.83
57.531,-37.56
57.546,-39.82
57.562,-40.76
57.578,-40.87
57.593,-40.73
57.609,-40.57
57.625,-40.28
57.640,-39.75
57.656,-38.95
57.671,-37.81
57.687,-36.1
57.703,-33.27
57.718,-28.61
57.734,-21.81
57.750,-13.13
57.765,-3.44
57.781,5.93
57.796,13.83
57.812,19.63
57.828,23.2
57.843,25.03
57.859,25.7
57.875,25.7
57.890,25.36
57.906,24.76
57.921,23.8
57.937,22.22
57.953,19.86
57.968,16.39
57.984,11.83
58.000,6.45
58.015,0.92
58.031,-3.94
58.046,-7.38
58.062,-9.07
58.078,-9.09
58.093,-7.69
58.109,-5.44
58.125,-2.94
58.140,-0.78
58.156,0.31
58.171,-0.11
58.187,-2.19
58.203,-5.85
58.218,-10.65
58.234,-15.99
58.250,-21.44
58.265,-26.53
58.281,-30.92
58.296,-34.35
58.312,-36.38
58.328,-36.64
58.343,-34.98
58.359,-31.5
58.375,-26.49
58.390,-20.52
58.406,-13.95
58.421,-7.2
58.437,-0.88
58.453,4.61
58.468,8.89
58.484,11.86
58.500,13.67
58.515,14.64
58.531,14.99
58.546,14.77
58.562,14.02
58.578,12.72
58.593,11.17
58.609,9.85
58.625,9.18
58.640,9.51
58.656,10.66
58.671,12.12
58.687,13.22
58.703,13.38
58.718,12.05
58.734,9.04
58.750,4.37
58.765,-1.59
58.781,-8.05
58.796,-14.03
58.812,-18.67
58.828,-21.39
58.843,-21.99
58.859,-20.77
58.875,-18.04
58.890,-14.26
58.906,-10.05
58.921,-6.15
58.937,-3.37
58.953,-2.22
58.968,-2.75
58.984,-4.39
59.000,-6.36
59.015,-7.86
59.031,-8.35
59.046,-7.77
59.062,-6.21
59.078,-3.87
59.093,-0.93
59.109,2.49
59.125,6.1
59.140,9.65
59.156,12.87
59.171,15.74
59.187,18.3
59.203,20.71
59.218,22.99
59.234,25.03
59.250,26.64
59.265,27.56
59.281,27.55
59.296,26.42
59.312,24.12
59.328,20.74
59.343,16.64
59.359,12.27
59.375,8.06
59.390,4.37
59.406,1.38
59.421,-0.8
59.437,-2.23
59.453,-2.97
59.468,-3.33
59.484,-3.91
59.500,-5.53
59.515,-9.12
59.531,-15.07
59.546,-23.19
59.562,-32.38
59.578,-40.94
59.593,-47.14
59.609,-49.71
59.625,-48.28
59.640,-43.51
59.656,-36.92
59.671,-30.16
59.687,-24.74
59.703,-21.46
59.718,-20.33
59.734,-20.69
59.750,-21.46
59.765,-21.69
59.781,-20.77
59.796,-18.77
59.812,-16.21
59.828,-13.84
59.843,-12.01
59.859,-10.62
59.875,-8.99
59.890,-6.19
59.906,-1.65
59.921,4.61
59.937,11.9
59.953,19.06
59.968,25.03
59.984,29.06
