timestamp,value
00.000,-4.16
00.015,-2.85
00.031,-1.93
00.046,-1.3
00.062,-0.73
00.078,0.01
00.093,0.99
00.109,2.1
00.125,3.11
00.140,3.82
00.156,4.22
00.171,4.42
00.187,4.63
00.203,5.03
00.218,5.64
00.234,6.38
00.250,7.08
00.265,7.61
00.281,7.88
00.296,7.89
00.312,7.67
00.328,7.32
00.343,6.98
00.359,6.79
00.375,6.83
00.390,7.09
00.406,7.46
00.421,7.83
00.437,8.04
00.453,8.0
00.468,7.67
00.484,7.09
00.500,6.31
00.515,5.39
00.531,4.36
00.546,3.19
00.562,1.85
00.578,0.3
00.593,-1.44
00.609,-3.24
00.625,-4.93
00.640,-6.39
00.656,-7.52
00.671,-8.41
00.687,-9.13
00.703,-9.77
00.718,-10.35
00.734,-10.87
00.750,-11.25
00.765,-11.54
00.781,-11.81
00.796,-12.15
00.812,-12.57
00.828,-12.92
00.843,-12.96
00.859,-12.48
00.875,-11.45
00.890,-9.97
00.906,-8.34
00.921,-6.85
00.937,-5.7
00.953,-4.86
00.968,-4.22
00.984,-3.58
01.000,-2.82
01.015,-1.96
01.031,-1.05
01.046,-0.15
01.062,0.76
01.078,1.74
01.093,2.84
01.109,3.99
01.125,5.08
01.140,5.96
01.156,6.52
01.171,6.81
01.187,6.94
01.203,7.05
01.218,7.3
01.234,7.7
01.250,8.16
01.265,8.59
01.281,8.89
01.296,9.04
01.312,9.11
01.328,9.16
01.343,9.21
01.359,9.3
01.375,9.33
01.390,9.17
01.406,8.83
01.421,8.33
01.437,7.74
01.453,7.15
01.468,6.57
01.484,5.92
01.500,5.21
01.515,4.47
01.531,3.77
01.546,3.22
01.562,2.77
01.578,2.25
01.593,1.49
01.609,0.31
01.625,-1.21
01.640,-2.85
01.656,-4.29
01.671,-5.24
01.687,-5.6
01.703,-5.53
01.718,-5.32
01.734,-5.29
01.750,-5.66
01.765,-6.42
01.781,-7.45
01.796,-8.51
01.812,-9.39
01.828,-9.91
01.843,-10.04
01.859,-9.79
01.875,-9.12
01.890,-8.07
01.906,-6.59
01.921,-4.77
01.937,-2.76
01.953,-0.76
01.968,1.04
01.984,2.51
02.000,3.62
02.015,4.43
02.031,5.02
02.046,5.53
02.062,6.03
02.078,6.57
02.093,7.17
02.109,7.75
02.125,8.26
02.140,8.66
02.156,8.89
02.171,9.04
02.187,9.19
02.203,9.47
02.218,9.97
02.234,10.64
02.250,11.33
02.265,11.85
02.281,12.08
02.296,11.94
02.312,11.5
02.328,10.88
02.343,10.16
02.359,9.42
02.375,8.64
02.390,7.79
02.406,6.85
02.421,5.82
02.437,4.79
02.453,3.81
02.468,2.94
02.484,2.2
02.500,1.53
02.515,0.92
02.531,0.33
02.546,-0.2
02.562,-0.69
02.578,-1.2
02.593,-1.79
02.609,-2.64
02.625,-3.82
02.640,-5.29
02.656,-6.94
02.671,-8.51
02.687,-9.83
02.703,-10.78
02.718,-11.47
02.734,-12.06
02.750,-12.88
02.765,-14.08
02.781,-15.64
02.796,-17.3
02.812,-18.62
02.828,-19.17
02.843,-18.7
02.859,-17.27
02.875,-15.17
02.890,-12.94
02.906,-10.98
02.921,-9.51
02.937,-8.52
02.953,-7.77
02.968,-6.97
02.984,-5.83
03.000,-4.3
03.015,-2.41
03.031,-0.42
03.046,1.38
03.062,2.78
03.078,3.72
03.093,4.29
03.109,4.61
03.125,4.85
03.140,5.01
03.156,5.09
03.171,5.08
03.187,5.1
03.203,5.39
03.218,6.17
03.234,7.52
03.250,9.17
03.265,10.7
03.281,11.62
03.296,11.67
03.312,10.94
03.328,9.78
03.343,8.63
03.359,7.73
03.375,7.09
03.390,6.47
03.406,5.62
03.421,4.4
03.437,2.91
03.453,1.38
03.468,0.06
03.484,-0.91
03.500,-1.66
03.515,-2.38
03.531,-3.25
03.546,-4.34
03.562,-5.61
03.578,-6.91
03.593,-8.14
03.609,-9.3
03.625,-10.43
03.640,-11.57
03.656,-12.67
03.671,-13.56
03.687,-14.12
03.703,-14.35
03.718,-14.44
03.734,-14.66
03.750,-15.23
03.765,-16.1
03.781,-17.04
03.796,-17.68
03.812,-17.73
03.828,-17.07
03.843,-15.88
03.859,-14.42
03.875,-12.97
03.890,-11.63
03.906,-10.32
03.921,-8.86
03.937,-7.13
03.953,-5.12
03.968,-2.88
03.984,-0.61
04.000,1.59
04.015,3.56
04.031,5.17
04.046,6.33
04.062,6.99
04.078,7.18
04.093,7.01
04.109,6.71
04.125,6.45
04.140,6.41
04.156,6.62
04.171,7.0
04.187,7.5
04.203,8.04
04.218,8.62
04.234,9.2
04.250,9.77
04.265,10.26
04.281,10.61
04.296,10.75
04.312,10.65
04.328,10.35
04.343,9.9
04.359,9.37
04.375,8.74
04.390,8.04
04.406,7.22
04.421,6.33
04.437,5.46
04.453,4.68
04.468,4.06
04.484,3.56
04.500,3.06
04.515,2.44
04.531,1.63
04.546,0.62
04.562,-0.48
04.578,-1.5
04.593,-2.33
04.609,-2.87
04.625,-3.26
04.640,-3.63
04.656,-4.14
04.671,-4.96
04.687,-6.07
04.703,-7.43
04.718,-8.87
04.734,-10.26
04.750,-11.41
04.765,-12.25
04.781,-12.62
04.796,-12.39
04.812,-11.45
04.828,-9.82
04.843,-7.65
04.859,-5.21
04.875,-2.91
04.890,-0.97
04.906,0.55
04.921,1.78
04.937,2.91
04.953,4.11
04.968,5.39
04.984,6.62
05.000,7.65
05.015,8.32
05.031,8.67
05.046,8.81
05.062,8.98
05.078,9.36
05.093,10.06
05.109,11.06
05.125,12.2
05.140,13.29
05.156,14.17
05.171,14.72
05.187,14.93
05.203,14.88
05.218,14.67
05.234,14.35
05.250,13.9
05.265,13.25
05.281,12.3
05.296,11.05
05.312,9.56
05.328,8.03
05.343,6.65
05.359,5.56
05.375,4.71
05.390,3.99
05.406,3.23
05.421,2.39
05.437,1.57
05.453,0.93
05.468,0.59
05.484,0.43
05.500,0.24
05.515,-0.34
05.531,-1.46
05.546,-3.05
05.562,-4.79
05.578,-6.31
05.593,-7.45
05.609,-8.28
05.625,-9.19
05.640,-10.45
05.656,-12.22
05.671,-14.25
05.687,-16.08
05.703,-17.24
05.718,-17.41
05.734,-16.64
05.750,-15.16
05.765,-13.36
05.781,-11.49
05.796,-9.63
05.812,-7.7
05.828,-5.58
05.843,-3.27
05.859,-0.94
05.875,1.19
05.890,2.95
05.906,4.32
05.921,5.41
05.937,6.36
05.953,7.31
05.968,8.21
05.984,8.91
06.000,9.32
06.015,9.44
06.031,9.43
06.046,9.51
06.062,9.89
06.078,10.66
06.093,11.73
06.109,12.91
06.125,13.91
06.140,14.55
06.156,14.68
06.171,14.34
06.187,13.65
06.203,12.85
06.218,12.14
06.234,11.65
06.250,11.38
06.265,11.14
06.281,10.75
06.296,10.04
06.312,9.01
06.328,7.76
06.343,6.46
06.359,5.23
06.375,4.08
06.390,2.95
06.406,1.7
06.421,0.27
06.437,-1.4
06.453,-3.17
06.468,-4.92
06.484,-6.56
06.500,-8.11
06.515,-9.64
06.531,-11.21
06.546,-12.8
06.562,-14.25
06.578,-15.39
06.593,-16.07
06.609,-16.38
06.625,-16.47
06.640,-16.54
06.656,-16.69
06.671,-16.85
06.687,-16.88
06.703,-16.66
06.718,-16.21
06.734,-15.57
06.750,-14.81
06.765,-13.9
06.781,-12.59
06.796,-10.64
06.812,-7.93
06.828,-4.61
06.843,-1.06
06.859,2.18
06.875,4.79
06.890,6.64
06.906,7.88
06.921,8.79
06.937,9.62
06.953,10.44
06.968,11.1
06.984,11.45
07.000,11.37
07.015,10.98
07.031,10.54
07.046,10.33
07.062,10.43
07.078,10.76
07.093,11.09
07.109,11.15
07.125,10.88
07.140,10.36
07.156,9.78
07.171,9.32
07.187,9.0
07.203,8.72
07.218,8.28
07.234,7.58
07.250,6.61
07.265,5.57
07.281,4.62
07.296,3.88
07.312,3.39
07.328,3.1
07.343,2.93
07.359,2.73
07.375,2.35
07.390,1.64
07.406,0.57
07.421,-0.81
07.437,-2.4
07.453,-4.01
07.468,-5.53
07.484,-6.98
07.500,-8.49
07.515,-10.22
07.531,-12.24
07.546,-14.41
07.562,-16.49
07.578,-18.21
07.593,-19.41
07.609,-20.1
07.625,-20.35
07.640,-20.25
07.656,-19.75
07.671,-18.73
07.687,-17.09
07.703,-14.84
07.718,-12.18
07.734,-9.37
07.750,-6.67
07.765,-4.2
07.781,-2.0
07.796,0.03
07.812,1.95
07.828,3.79
07.843,5.55
07.859,7.18
07.875,8.64
07.890,9.9
07.906,10.96
07.921,11.8
07.937,12.45
07.953,12.89
07.968,13.14
07.984,13.23
08.000,13.17
08.015,13.02
08.031,12.83
08.046,12.66
08.062,12.54
08.078,12.52
08.093,12.58
08.109,12.64
08.125,12.68
08.140,12.6
08.156,12.36
08.171,11.94
08.187,11.34
08.203,10.57
08.218,9.74
08.234,8.89
08.250,8.06
08.265,7.22
08.281,6.28
08.296,5.18
08.312,3.91
08.328,2.51
08.343,1.04
08.359,-0.3
08.375,-1.41
08.390,-2.28
08.406,-2.87
08.421,-3.29
08.437,-3.65
08.453,-4.08
08.468,-4.71
08.484,-5.7
08.500,-7.07
08.515,-8.83
08.531,-10.85
08.546,-12.89
08.562,-14.67
08.578,-15.85
08.593,-16.16
08.609,-15.49
08.625,-13.87
08.640,-11.54
08.656,-8.85
08.671,-6.07
08.687,-3.41
08.703,-0.99
08.718,1.13
08.734,3.0
08.750,4.59
08.765,5.93
08.781,7.06
08.796,7.99
08.812,8.72
08.828,9.21
08.843,9.43
08.859,9.36
08.875,9.13
08.890,8.9
08.906,8.93
08.921,9.31
08.937,10.0
08.953,10.84
08.968,11.59
08.984,12.05
09.000,12.2
09.015,12.05
09.031,11.67
09.046,11.13
09.062,10.43
09.078,9.65
09.093,8.78
09.109,7.86
09.125,6.89
09.140,5.8
09.156,4.56
09.171,3.19
09.187,1.77
09.203,0.44
09.218,-0.71
09.234,-1.69
09.250,-2.6
09.265,-3.56
09.281,-4.63
09.296,-5.79
09.312,-6.96
09.328,-8.09
09.343,-9.17
09.359,-10.29
09.375,-11.49
09.390,-12.79
09.406,-14.13
09.421,-15.38
09.437,-16.48
09.453,-17.44
09.468,-18.35
09.484,-19.25
09.500,-20.13
09.515,-20.82
09.531,-21.12
09.546,-20.85
09.562,-19.92
09.578,-18.24
09.593,-15.87
09.609,-12.95
09.625,-9.67
09.640,-6.35
09.656,-3.22
09.671,-0.4
09.687,2.08
09.703,4.28
09.718,6.28
09.734,8.02
09.750,9.34
09.765,10.09
09.781,10.22
09.796,9.94
09.812,9.61
09.828,9.52
09.843,9.79
09.859,10.34
09.875,10.92
09.890,11.37
09.906,11.68
09.921,11.94
09.937,12.3
09.953,12.77
09.968,13.16
09.984,13.21
10.000,12.73
10.015,11.71
10.031,10.33
10.046,8.89
10.062,7.65
10.078,6.74
10.093,6.13
10.109,5.67
10.125,5.15
10.140,4.41
10.156,3.38
10.171,2.06
10.187,0.62
10.203,-0.82
10.218,-2.14
10.234,-3.33
10.250,-4.49
10.265,-5.68
10.281,-6.95
10.296,-8.25
10.312,-9.51
10.328,-10.67
10.343,-11.79
10.359,-12.97
10.375,-14.35
10.390,-15.91
10.406,-17.5
10.421,-18.79
10.437,-19.51
10.453,-19.54
10.468,-18.92
10.484,-17.88
10.500,-16.6
10.515,-15.15
10.531,-13.46
10.546,-11.48
10.562,-9.16
10.578,-6.63
10.593,-4.09
10.609,-1.7
10.625,0.46
10.640,2.42
10.656,4.25
10.671,5.97
10.687,7.54
10.703,8.91
10.718,10.04
10.734,10.92
10.750,11.71
10.765,12.51
10.781,13.36
10.796,14.22
10.812,14.99
10.828,15.53
10.843,15.71
10.859,15.51
10.875,14.95
10.890,14.16
10.906,13.29
10.921,12.43
10.937,11.6
10.953,10.77
10.968,9.89
10.984,8.94
11.000,7.97
11.015,7.08
11.031,6.34
11.046,5.76
11.062,5.25
11.078,4.76
11.093,4.14
11.109,3.36
11.125,2.43
11.140,1.45
11.156,0.51
11.171,-0.33
11.187,-1.06
11.203,-1.8
11.218,-2.63
11.234,-3.65
11.250,-4.89
11.265,-6.28
11.281,-7.7
11.296,-8.99
11.312,-10.13
11.328,-11.06
11.343,-11.77
11.359,-12.11
11.375,-11.93
11.390,-11.07
11.406,-9.48
11.421,-7.36
11.437,-5.01
11.453,-2.84
11.468,-1.07
11.484,0.28
11.500,1.42
11.515,2.6
11.531,4.05
11.546,5.78
11.562,7.62
11.578,9.32
11.593,10.63
11.609,11.44
11.625,11.87
11.640,12.12
11.656,12.39
11.671,12.75
11.687,13.13
11.703,13.27
11.718,13.02
11.734,12.37
11.750,11.46
11.765,10.61
11.781,9.98
11.796,9.62
11.812,9.33
11.828,8.88
11.843,8.14
11.859,7.16
11.875,6.18
11.890,5.45
11.906,5.13
11.921,5.13
11.937,5.24
11.953,5.22
11.968,4.92
11.984,4.33
12.000,3.5
12.015,2.51
12.031,1.36
12.046,0.08
12.062,-1.4
12.078,-3.0
12.093,-4.63
12.109,-6.16
12.125,-7.47
12.140,-8.55
12.156,-9.45
12.171,-10.34
12.187,-11.31
12.203,-12.41
12.218,-13.5
12.234,-14.37
12.250,-14.77
12.265,-14.54
12.281,-13.69
12.296,-12.39
12.312,-10.91
12.328,-9.47
12.343,-8.19
12.359,-6.99
12.375,-5.72
12.390,-4.25
12.406,-2.47
12.421,-0.5
12.437,1.48
12.453,3.2
12.468,4.52
12.484,5.42
12.500,6.06
12.515,6.62
12.531,7.22
12.546,7.88
12.562,8.43
12.578,8.7
12.593,8.59
12.609,8.16
12.625,7.62
12.640,7.21
12.656,7.07
12.671,7.15
12.687,7.28
12.703,7.28
12.718,7.05
12.734,6.58
12.750,5.93
12.765,5.22
12.781,4.52
12.796,3.91
12.812,3.4
12.828,2.97
12.843,2.55
12.859,2.12
12.875,1.66
12.890,1.16
12.906,0.66
12.921,0.13
12.937,-0.47
12.953,-1.24
12.968,-2.24
12.984,-3.47
13.000,-4.79
13.015,-6.04
13.031,-7.1
13.046,-7.99
13.062,-8.83
13.078,-9.76
13.093,-10.87
13.109,-12.16
13.125,-13.53
13.140,-14.83
13.156,-15.91
13.171,-16.61
13.187,-16.83
13.203,-16.47
13.218,-15.55
13.234,-14.18
13.250,-12.55
13.265,-10.85
13.281,-9.26
13.296,-7.79
13.312,-6.35
13.328,-4.89
13.343,-3.34
13.359,-1.77
13.375,-0.28
13.390,1.03
13.406,2.13
13.421,3.01
13.437,3.71
13.453,4.27
13.468,4.63
13.484,4.79
13.500,4.77
13.515,4.64
13.531,4.53
13.546,4.6
13.562,4.84
13.578,5.17
13.593,5.43
13.609,5.48
13.625,5.32
13.640,5.0
13.656,4.64
13.671,4.3
13.687,3.99
13.703,3.64
13.718,3.18
13.734,2.66
13.750,2.11
13.765,1.7
13.781,1.44
13.796,1.36
13.812,1.32
13.828,1.2
13.843,0.93
13.859,0.48
13.875,-0.13
13.890,-0.89
13.906,-1.72
13.921,-2.64
13.937,-3.63
13.953,-4.66
13.968,-5.68
13.984,-6.6
14.000,-7.41
14.015,-8.05
14.031,-8.59
14.046,-9.08
14.062,-9.63
14.078,-10.24
14.093,-10.88
14.109,-11.45
14.125,-11.73
14.140,-11.54
14.156,-10.74
14.171,-9.39
14.187,-7.67
14.203,-5.92
14.218,-4.37
14.234,-3.15
14.250,-2.23
14.265,-1.41
14.281,-0.55
14.296,0.48
14.312,1.59
14.328,2.65
14.343,3.54
14.359,4.19
14.375,4.63
14.390,4.94
14.406,5.18
14.421,5.4
14.437,5.62
14.453,5.82
14.468,5.98
14.484,6.14
14.500,6.28
14.515,6.4
14.531,6.52
14.546,6.62
14.562,6.7
14.578,6.75
14.593,6.76
14.609,6.69
14.625,6.58
14.640,6.43
14.656,6.28
14.671,6.12
14.687,5.96
14.703,5.71
14.718,5.31
14.734,4.73
14.750,3.96
14.765,3.04
14.781,2.0
14.796,0.92
14.812,-0.21
14.828,-1.39
14.843,-2.68
14.859,-4.03
14.875,-5.35
14.890,-6.51
14.906,-7.43
14.921,-8.15
14.937,-8.78
14.953,-9.52
14.968,-10.5
14.984,-11.74
15.000,-13.06
15.015,-14.12
15.031,-14.61
15.046,-14.33
15.062,-13.33
15.078,-11.84
15.093,-10.17
15.109,-8.62
15.125,-7.29
15.140,-6.14
15.156,-5.05
15.171,-3.97
15.187,-2.93
15.203,-2.08
15.218,-1.5
15.234,-1.19
15.250,-0.98
15.265,-0.67
15.281,-0.13
15.296,0.63
15.312,1.42
15.328,2.13
15.343,2.63
15.359,3.0
15.375,3.39
15.390,3.92
15.406,4.63
15.421,5.42
15.437,6.1
15.453,6.48
15.468,6.53
15.484,6.27
15.500,5.83
15.515,5.35
15.531,4.86
15.546,4.34
15.562,3.71
15.578,2.97
15.593,2.15
15.609,1.36
15.625,0.7
15.640,0.19
15.656,-0.18
15.671,-0.51
15.687,-0.82
15.703,-1.15
15.718,-1.46
15.734,-1.79
15.750,-2.16
15.765,-2.65
15.781,-3.34
15.796,-4.27
15.812,-5.4
15.828,-6.63
15.843,-7.87
15.859,-9.0
15.875,-10.0
15.890,-10.87
15.906,-11.72
15.921,-12.62
15.937,-13.62
15.953,-14.65
15.968,-15.51
15.984,-15.9
16.000,-15.6
16.015,-14.56
16.031,-13.0
16.046,-11.31
16.062,-9.94
16.078,-9.13
16.093,-8.8
16.109,-8.72
16.125,-8.44
16.140,-7.6
16.156,-6.11
16.171,-4.09
16.187,-1.81
16.203,0.42
16.218,2.39
16.234,4.06
16.250,5.46
16.265,6.7
16.281,7.87
16.296,8.94
16.312,9.86
16.328,10.58
16.343,11.03
16.359,11.28
16.375,11.38
16.390,11.42
16.406,11.4
16.421,11.3
16.437,10.98
16.453,10.41
16.468,9.6
16.484,8.68
16.500,7.88
16.515,7.37
16.531,7.2
16.546,7.26
16.562,7.36
16.578,7.27
16.593,6.92
16.609,6.32
16.625,5.48
16.640,4.49
16.656,3.31
16.671,1.94
16.687,0.4
16.703,-1.23
16.718,-2.83
16.734,-4.31
16.750,-5.73
16.765,-7.22
16.781,-8.85
16.796,-10.71
16.812,-12.68
16.828,-14.52
16.843,-15.93
16.859,-16.63
16.875,-16.42
16.890,-15.39
16.906,-13.81
16.921,-12.04
16.937,-10.46
16.953,-9.2
16.968,-8.21
16.984,-7.26
17.000,-6.12
17.015,-4.64
17.031,-2.88
17.046,-1.01
17.062,0.78
17.078,2.34
17.093,3.67
17.109,4.77
17.125,5.66
17.140,6.34
17.156,6.84
17.171,7.16
17.187,7.34
17.203,7.48
17.218,7.59
17.234,7.7
17.250,7.81
17.265,7.85
17.281,7.79
17.296,7.58
17.312,7.13
17.328,6.38
17.343,5.36
17.359,4.12
17.375,2.88
17.390,1.81
17.406,1.04
17.421,0.51
17.437,0.07
17.453,-0.44
17.468,-1.11
17.484,-1.87
17.500,-2.63
17.515,-3.21
17.531,-3.61
17.546,-3.88
17.562,-4.19
17.578,-4.74
17.593,-5.6
17.609,-6.76
17.625,-8.12
17.640,-9.55
17.656,-10.93
17.671,-12.23
17.687,-13.42
17.703,-14.42
17.718,-15.12
17.734,-15.32
17.750,-14.85
17.765,-13.68
17.781,-11.96
17.796,-9.94
17.812,-7.98
17.828,-6.32
17.843,-5.0
17.859,-3.92
17.875,-2.87
17.890,-1.69
17.906,-0.39
17.921,0.84
17.937,1.8
17.953,2.31
17.968,2.39
17.984,2.25
18.000,2.15
18.015,2.33
18.031,2.81
18.046,3.41
18.062,3.89
18.078,4.08
18.093,3.99
18.109,3.79
18.125,3.77
18.140,4.04
18.156,4.55
18.171,5.08
18.187,5.37
18.203,5.27
18.218,4.77
18.234,4.11
18.250,3.44
18.265,2.93
18.281,2.51
18.296,2.09
18.312,1.57
18.328,0.97
18.343,0.33
18.359,-0.28
18.375,-0.79
18.390,-1.23
18.406,-1.57
18.421,-1.87
18.437,-2.12
18.453,-2.32
18.468,-2.48
18.484,-2.62
18.500,-2.78
18.515,-2.97
18.531,-3.34
18.546,-3.96
18.562,-4.9
18.578,-6.13
18.593,-7.42
18.609,-8.48
18.625,-8.98
18.640,-8.79
18.656,-7.98
18.671,-6.78
18.687,-5.41
18.703,-4.01
18.718,-2.55
18.734,-0.92
18.750,0.89
18.765,2.87
18.781,4.82
18.796,6.52
18.812,7.79
18.828,8.64
18.843,9.19
18.859,9.59
18.875,10.03
18.890,10.58
18.906,11.21
18.921,11.82
18.937,12.31
18.953,12.57
18.968,12.65
18.984,12.7
19.000,12.83
19.015,13.17
19.031,13.67
19.046,14.21
19.062,14.56
19.078,14.57
19.093,14.15
19.109,13.33
19.125,12.26
19.140,11.04
19.156,9.8
19.171,8.57
19.187,7.41
19.203,6.41
19.218,5.61
19.234,5.0
19.250,4.52
19.265,4.05
19.281,3.48
19.296,2.76
19.312,1.87
19.328,0.83
19.343,-0.28
19.359,-1.49
19.375,-2.87
19.390,-4.48
19.406,-6.32
19.421,-8.32
19.437,-10.21
19.453,-11.69
19.468,-12.48
19.484,-12.34
19.500,-11.29
19.515,-9.53
19.531,-7.32
19.546,-4.95
19.562,-2.63
19.578,-0.41
19.593,1.64
19.609,3.47
19.625,5.04
19.640,6.29
19.656,7.24
19.671,7.97
19.687,8.56
19.703,9.11
19.718,9.61
19.734,9.98
19.750,10.16
19.765,10.13
19.781,9.9
19.796,9.56
19.812,9.22
19.828,8.92
19.843,8.72
19.859,8.64
19.875,8.64
19.890,8.63
19.906,8.51
19.921,8.16
19.937,7.55
19.953,6.72
19.968,5.73
19.984,4.73
20.000,3.84
20.015,3.12
20.031,2.61
20.046,2.29
20.062,2.07
20.078,1.78
20.093,1.31
20.109,0.49
20.125,-0.64
20.140,-1.98
20.156,-3.41
20.171,-4.82
20.187,-6.2
20.203,-7.61
20.218,-9.09
20.234,-10.56
20.250,-11.92
20.265,-13.07
20.281,-14.01
20.296,-14.89
20.312,-15.89
20.328,-17.04
20.343,-18.16
20.359,-18.93
20.375,-19.03
20.390,-18.31
20.406,-16.93
20.421,-15.19
20.437,-13.45
20.453,-11.92
20.468,-10.53
20.484,-9.09
20.500,-7.35
20.515,-5.25
20.531,-2.87
20.546,-0.49
20.562,1.7
20.578,3.53
20.593,5.0
20.609,6.17
20.625,7.13
20.640,7.9
20.656,8.44
20.671,8.63
20.687,8.39
20.703,7.76
20.718,6.81
20.734,5.77
20.750,4.88
20.765,4.31
20.781,4.15
20.796,4.36
20.812,4.8
20.828,5.3
20.843,5.79
20.859,6.22
20.875,6.62
20.890,6.99
20.906,7.28
20.921,7.4
20.937,7.29
20.953,6.9
20.968,6.26
20.984,5.43
21.000,4.48
21.015,3.46
21.031,2.46
21.046,1.5
21.062,0.58
21.078,-0.31
21.093,-1.18
21.109,-2.06
21.125,-2.93
21.140,-3.79
21.156,-4.7
21.171,-5.71
21.187,-6.88
21.203,-8.23
21.218,-9.69
21.234,-11.14
21.250,-12.48
21.265,-13.6
21.281,-14.5
21.296,-15.21
21.312,-15.75
21.328,-16.05
21.343,-15.99
21.359,-15.43
21.375,-14.34
21.390,-12.83
21.406,-11.11
21.421,-9.39
21.437,-7.82
21.453,-6.38
21.468,-4.91
21.484,-3.23
21.500,-1.27
21.515,0.9
21.531,3.03
21.546,4.86
21.562,6.21
21.578,7.05
21.593,7.47
21.609,7.69
21.625,7.85
21.640,8.09
21.656,8.4
21.671,8.78
21.687,9.18
21.703,9.63
21.718,10.14
21.734,10.69
21.750,11.26
21.765,11.78
21.781,12.21
21.796,12.48
21.812,12.59
21.828,12.58
21.843,12.5
21.859,12.43
21.875,12.36
21.890,12.29
21.906,12.09
21.921,11.7
21.937,11.08
21.953,10.28
21.968,9.45
21.984,8.72
22.000,8.16
22.015,7.77
22.031,7.47
22.046,7.11
22.062,6.57
22.078,5.85
22.093,4.98
22.109,4.06
22.125,3.17
22.140,2.3
22.156,1.41
22.171,0.43
22.187,-0.68
22.203,-1.85
22.218,-2.92
22.234,-3.74
22.250,-4.23
22.265,-4.41
22.281,-4.37
22.296,-4.2
22.312,-3.89
22.328,-3.41
22.343,-2.67
22.359,-1.62
22.375,-0.36
22.390,0.92
22.406,1.97
22.421,2.63
22.437,2.91
22.453,2.91
22.468,2.78
22.484,2.69
22.500,2.73
22.515,2.92
22.531,3.19
22.546,3.45
22.562,3.63
22.578,3.72
22.593,3.82
22.609,4.0
22.625,4.33
22.640,4.83
22.656,5.43
22.671,6.07
22.687,6.71
22.703,7.36
22.718,8.02
22.734,8.67
22.750,9.17
22.765,9.33
22.781,8.99
22.796,8.12
22.812,6.9
22.828,5.62
22.843,4.57
22.859,3.9
22.875,3.56
22.890,3.41
22.906,3.22
22.921,2.87
22.937,2.31
22.953,1.59
22.968,0.79
22.984,-0.06
23.000,-0.98
23.015,-2.01
23.031,-3.21
23.046,-4.55
23.062,-5.96
23.078,-7.29
23.093,-8.43
23.109,-9.3
23.125,-9.94
23.140,-10.52
23.156,-11.24
23.171,-12.24
23.187,-13.57
23.203,-15.03
23.218,-16.37
23.234,-17.21
23.250,-17.35
23.265,-16.75
23.281,-15.56
23.296,-14.11
23.312,-12.65
23.328,-11.39
23.343,-10.32
23.359,-9.33
23.375,-8.16
23.390,-6.7
23.406,-4.9
23.421,-2.84
23.437,-0.65
23.453,1.52
23.468,3.56
23.484,5.35
23.500,6.78
23.515,7.75
23.531,8.22
23.546,8.24
23.562,7.94
23.578,7.51
23.593,7.13
23.609,6.93
23.625,6.98
23.640,7.23
23.656,7.61
23.671,7.98
23.687,8.2
23.703,8.22
23.718,8.0
23.734,7.59
23.750,7.04
23.765,6.4
23.781,5.69
23.796,4.89
23.812,4.08
23.828,3.32
23.843,2.75
23.859,2.47
23.875,2.5
23.890,2.77
23.906,3.07
23.921,3.23
23.937,3.06
23.953,2.54
23.968,1.76
23.984,0.86
24.000,-0.06
24.015,-1.0
24.031,-2.07
24.046,-3.48
24.062,-5.31
24.078,-7.47
24.093,-9.71
24.109,-11.75
24.125,-13.36
24.140,-14.56
24.156,-15.51
24.171,-16.43
24.187,-17.4
24.203,-18.29
24.218,-18.84
24.234,-18.75
24.250,-17.91
24.265,-16.43
24.281,-14.58
24.296,-12.68
24.312,-10.93
24.328,-9.32
24.343,-7.72
24.359,-6.04
24.375,-4.33
24.390,-2.75
24.406,-1.47
24.421,-0.58
24.437,-0.03
24.453,0.46
24.468,1.17
24.484,2.26
24.500,3.69
24.515,5.23
24.531,6.51
24.546,7.35
24.562,7.67
24.578,7.63
24.593,7.5
24.609,7.5
24.625,7.73
24.640,8.11
24.656,8.52
24.671,8.75
24.687,8.74
24.703,8.49
24.718,8.1
24.734,7.68
24.750,7.28
24.765,6.87
24.781,6.42
24.796,5.87
24.812,5.16
24.828,4.35
24.843,3.54
24.859,2.88
24.875,2.49
24.890,2.31
24.906,2.22
24.921,2.01
24.937,1.52
24.953,0.72
24.968,-0.28
24.984,-1.28
25.000,-2.19
25.015,-2.94
25.031,-3.67
25.046,-4.53
25.062,-5.64
25.078,-7.04
25.093,-8.7
25.109,-10.51
25.125,-12.42
25.140,-14.4
25.156,-16.28
25.171,-17.89
25.187,-18.94
25.203,-19.2
25.218,-18.57
25.234,-17.16
25.250,-15.23
25.265,-13.07
25.281,-10.93
25.296,-8.91
25.312,-6.97
25.328,-5.01
25.343,-2.98
25.359,-0.83
25.375,1.36
25.390,3.48
25.406,5.5
25.421,7.33
25.437,8.93
25.453,10.23
25.468,11.19
25.484,11.78
25.500,12.05
25.515,12.11
25.531,12.09
25.546,12.14
25.562,12.33
25.578,12.63
25.593,12.91
25.609,13.06
25.625,12.94
25.640,12.52
25.656,11.82
25.671,11.02
25.687,10.24
25.703,9.65
25.718,9.29
25.734,9.12
25.750,9.05
25.765,8.91
25.781,8.58
25.796,8.04
25.812,7.33
25.828,6.59
25.843,5.94
25.859,5.39
25.875,4.95
25.890,4.49
25.906,3.93
25.921,3.19
25.937,2.28
25.953,1.26
25.968,0.23
25.984,-0.74
26.000,-1.68
26.015,-2.63
26.031,-3.67
26.046,-4.89
26.062,-6.24
26.078,-7.64
26.093,-8.94
26.109,-9.97
26.125,-10.58
26.140,-10.76
26.156,-10.55
26.171,-9.99
26.187,-9.15
26.203,-8.06
26.218,-6.69
26.234,-5.04
26.250,-3.18
26.265,-1.13
26.281,0.93
26.296,2.87
26.312,4.58
26.328,5.96
26.343,6.96
26.359,7.62
26.375,7.95
26.390,8.01
26.406,7.93
26.421,7.82
26.437,7.86
26.453,8.18
26.468,8.79
26.484,9.58
26.500,10.38
26.515,10.94
26.531,11.07
26.546,10.75
26.562,10.02
26.578,9.03
26.593,7.93
26.609,6.8
26.625,5.7
26.640,4.71
26.656,3.88
26.671,3.29
26.687,2.98
26.703,2.86
26.718,2.78
26.734,2.57
26.750,2.08
26.765,1.35
26.781,0.46
26.796,-0.47
26.812,-1.35
26.828,-2.12
26.843,-2.86
26.859,-3.74
26.875,-4.82
26.890,-6.19
26.906,-7.8
26.921,-9.53
26.937,-11.2
26.953,-12.77
26.968,-14.19
26.984,-15.54
27.000,-16.87
27.015,-18.11
27.031,-19.11
27.046,-19.62
27.062,-19.45
27.078,-18.5
27.093,-16.91
27.109,-14.88
27.125,-12.68
27.140,-10.55
27.156,-8.68
27.171,-7.15
27.187,-5.96
27.203,-5.02
27.218,-4.1
27.234,-3.05
27.250,-1.8
27.265,-0.44
27.281,0.91
27.296,2.19
27.312,3.43
27.328,4.74
27.343,6.19
27.359,7.67
27.375,8.93
27.390,9.73
27.406,9.95
27.421,9.77
27.437,9.51
27.453,9.45
27.468,9.66
27.484,9.97
27.500,10.13
27.515,9.92
27.531,9.39
27.546,8.73
27.562,8.2
27.578,7.96
27.593,7.95
27.609,7.96
27.625,7.74
27.640,7.12
27.656,6.12
27.671,4.97
27.687,3.9
27.703,3.04
27.718,2.41
27.734,1.8
27.750,0.99
27.765,-0.14
27.781,-1.54
27.796,-3.07
27.812,-4.47
27.828,-5.58
27.843,-6.44
27.859,-7.11
27.875,-7.81
27.890,-8.71
27.906,-9.86
27.921,-11.22
27.937,-12.65
27.953,-13.95
27.968,-14.95
27.984,-15.54
28.000,-15.68
28.015,-15.45
28.031,-14.93
28.046,-14.19
28.062,-13.21
28.078,-11.93
28.093,-10.29
28.109,-8.3
28.125,-6.08
28.140,-3.79
28.156,-1.63
28.171,0.24
28.187,1.78
28.203,2.97
28.218,3.83
28.234,4.38
28.250,4.66
28.265,4.68
28.281,4.53
28.296,4.36
28.312,4.32
28.328,4.51
28.343,5.0
28.359,5.78
28.375,6.81
28.390,7.99
28.406,9.16
28.421,10.17
28.437,10.85
28.453,11.14
28.468,10.98
28.484,10.46
28.500,9.73
28.515,8.93
28.531,8.19
28.546,7.52
28.562,6.9
28.578,6.27
28.593,5.54
28.609,4.62
28.625,3.44
28.640,2.06
28.656,0.55
28.671,-0.89
28.687,-2.05
28.703,-2.74
28.718,-2.95
28.734,-2.79
28.750,-2.55
28.765,-2.54
28.781,-3.01
28.796,-4.04
28.812,-5.49
28.828,-7.13
28.843,-8.71
28.859,-10.11
28.875,-11.28
28.890,-12.31
28.906,-13.28
28.921,-14.17
28.937,-14.84
28.953,-15.0
28.968,-14.46
28.984,-13.17
29.000,-11.27
29.015,-9.11
29.031,-7.06
29.046,-5.32
29.062,-3.9
29.078,-2.6
29.093,-1.09
29.109,0.8
29.125,2.98
29.140,5.26
29.156,7.38
29.171,9.14
29.187,10.56
29.203,11.74
29.218,12.74
29.234,13.62
29.250,14.34
29.265,14.83
29.281,15.1
29.296,15.25
29.312,15.38
29.328,15.65
29.343,16.08
29.359,16.6
29.375,17.11
29.390,17.46
29.406,17.53
29.421,17.27
29.437,16.71
29.453,15.87
29.468,14.83
29.484,13.65
29.500,12.36
29.515,11.04
29.531,9.74
29.546,8.49
29.562,7.26
29.578,5.93
29.593,4.41
29.609,2.66
29.625,0.77
29.640,-1.05
29.656,-2.53
29.671,-3.55
29.687,-4.17
29.703,-4.68
29.718,-5.36
29.734,-6.43
29.750,-7.88
29.765,-9.59
29.781,-11.43
29.796,-13.29
29.812,-15.14
29.828,-16.87
29.843,-18.29
29.859,-19.15
29.875,-19.15
29.890,-18.2
29.906,-16.38
29.921,-14.04
29.937,-11.55
29.953,-9.25
29.968,-7.3
29.984,-5.69
30.000,-4.3
30.015,-2.96
30.031,-1.58
30.046,-0.14
30.062,1.27
30.078,2.55
30.093,3.63
30.109,4.52
30.125,5.3
30.140,6.11
30.156,6.97
30.171,7.84
30.187,8.64
30.203,9.18
30.218,9.31
30.234,9.01
30.250,8.35
30.265,7.52
30.281,6.75
30.296,6.25
30.312,6.13
30.328,6.41
30.343,6.95
30.359,7.5
30.375,7.9
30.390,7.96
30.406,7.66
30.421,7.04
30.437,6.29
30.453,5.52
30.468,4.87
30.484,4.3
30.500,3.7
30.515,2.96
30.531,1.93
30.546,0.64
30.562,-0.85
30.578,-2.38
30.593,-3.9
30.609,-5.43
30.625,-7.09
30.640,-8.89
30.656,-10.72
30.671,-12.43
30.687,-13.86
30.703,-14.97
30.718,-15.94
30.734,-16.96
30.750,-18.15
30.765,-19.49
30.781,-20.73
30.796,-21.58
30.812,-21.79
30.828,-21.3
30.843,-20.21
30.859,-18.7
30.875,-16.93
30.890,-14.99
30.906,-12.96
30.921,-10.85
30.937,-8.63
30.953,-6.31
30.968,-3.85
30.984,-1.35
31.000,0.99
31.015,3.01
31.031,4.52
31.046,5.49
31.062,6.04
31.078,6.37
31.093,6.63
31.109,6.88
31.125,7.04
31.140,7.01
31.156,6.84
31.171,6.7
31.187,6.76
31.203,7.17
31.218,7.91
31.234,8.79
31.250,9.63
31.265,10.23
31.281,10.53
31.296,10.56
31.312,10.37
31.328,9.96
31.343,9.27
31.359,8.32
31.375,7.21
31.390,6.18
31.406,5.46
31.421,5.19
31.437,5.32
31.453,5.55
31.468,5.55
31.484,5.09
31.500,4.11
31.515,2.85
31.531,1.59
31.546,0.56
31.562,-0.21
31.578,-0.83
31.593,-1.53
31.609,-2.47
31.625,-3.64
31.640,-4.94
31.656,-6.16
31.671,-7.16
31.687,-7.95
31.703,-8.68
31.718,-9.57
31.734,-10.72
31.750,-12.15
31.765,-13.63
31.781,-14.91
31.796,-15.74
31.812,-15.97
31.828,-15.59
31.843,-14.75
31.859,-13.67
31.875,-12.53
31.890,-11.43
31.906,-10.36
31.921,-9.24
31.937,-7.95
31.953,-6.49
31.968,-4.87
31.984,-3.15
32.000,-1.47
32.015,0.13
32.031,1.57
32.046,2.79
32.062,3.71
32.078,4.29
32.093,4.57
32.109,4.71
32.125,4.93
32.140,5.46
32.156,6.51
32.171,8.11
32.187,10.15
32.203,12.34
32.218,14.29
32.234,15.74
32.250,16.5
32.265,16.63
32.281,16.25
32.296,15.57
32.312,14.68
32.328,13.6
32.343,12.32
32.359,10.85
32.375,9.34
32.390,7.96
32.406,6.88
32.421,6.14
32.437,5.66
32.453,5.29
32.468,4.96
32.484,4.64
32.500,4.38
32.515,4.22
32.531,4.07
32.546,3.79
32.562,3.27
32.578,2.43
32.593,1.32
32.609,0.09
32.625,-1.12
32.640,-2.29
32.656,-3.49
32.671,-4.78
32.687,-6.19
32.703,-7.6
32.718,-8.84
32.734,-9.77
32.750,-10.32
32.765,-10.54
32.781,-10.5
32.796,-10.22
32.812,-9.68
32.828,-8.82
32.843,-7.59
32.859,-6.06
32.875,-4.33
32.890,-2.57
32.906,-0.87
32.921,0.74
32.937,2.24
32.953,3.58
32.968,4.7
32.984,5.54
33.000,6.12
33.015,6.54
33.031,6.89
33.046,7.24
33.062,7.54
33.078,7.71
33.093,7.64
33.109,7.35
33.125,6.95
33.140,6.63
33.156,6.52
33.171,6.7
33.187,7.12
33.203,7.62
33.218,8.05
33.234,8.33
33.250,8.4
33.265,8.25
33.281,7.88
33.296,7.28
33.312,6.48
33.328,5.59
33.343,4.65
33.359,3.75
33.375,2.93
33.390,2.16
33.406,1.4
33.421,0.56
33.437,-0.4
33.453,-1.56
33.468,-2.86
33.484,-4.31
33.500,-5.8
33.515,-7.24
33.531,-8.47
33.546,-9.35
33.562,-9.78
33.578,-9.8
33.593,-9.6
33.609,-9.39
33.625,-9.42
33.640,-9.85
33.656,-10.76
33.671,-12.1
33.687,-13.71
33.703,-15.39
33.718,-16.91
33.734,-18.06
33.750,-18.64
33.765,-18.57
33.781,-17.84
33.796,-16.56
33.812,-14.92
33.828,-13.07
33.843,-11.15
33.859,-9.22
33.875,-7.32
33.890,-5.48
33.906,-3.76
33.921,-2.22
33.937,-0.91
33.953,0.22
33.968,1.19
33.984,2.05
34.000,2.79
34.015,3.38
34.031,3.84
34.046,4.18
34.062,4.53
34.078,4.92
34.093,5.4
34.109,5.85
34.125,6.12
34.140,6.16
34.156,5.9
34.171,5.42
34.187,4.84
34.203,4.23
34.218,3.65
34.234,3.12
34.250,2.68
34.265,2.33
34.281,2.11
34.296,2.03
34.312,2.06
34.328,2.15
34.343,2.21
34.359,2.18
34.375,2.06
34.390,1.84
34.406,1.57
34.421,1.3
34.437,1.04
34.453,0.71
34.468,0.19
34.484,-0.66
34.500,-1.95
34.515,-3.63
34.531,-5.55
34.546,-7.51
34.562,-9.31
34.578,-10.83
34.593,-12.09
34.609,-13.13
34.625,-14.07
34.640,-14.94
34.656,-15.77
34.671,-16.49
34.687,-17.03
34.703,-17.27
34.718,-17.16
34.734,-16.66
34.750,-15.82
34.765,-14.72
34.781,-13.43
34.796,-12.05
34.812,-10.62
34.828,-9.13
34.843,-7.57
34.859,-6.0
34.875,-4.4
34.890,-2.8
34.906,-1.13
34.921,0.61
34.937,2.41
34.953,4.18
34.968,5.74
34.984,6.98
35.000,7.84
35.015,8.41
35.031,8.85
35.046,9.28
35.062,9.68
35.078,9.99
35.093,10.09
35.109,9.93
35.125,9.58
35.140,9.19
35.156,8.91
35.171,8.82
35.187,8.94
35.203,9.22
35.218,9.63
35.234,10.11
35.250,10.59
35.265,11.0
35.281,11.24
35.296,11.25
35.312,10.95
35.328,10.32
35.343,9.38
35.359,8.11
35.375,6.59
35.390,4.97
35.406,3.5
35.421,2.35
35.437,1.64
35.453,1.27
35.468,1.01
35.484,0.63
35.500,-0.02
35.515,-0.91
35.531,-1.9
35.546,-2.78
35.562,-3.51
35.578,-4.24
35.593,-5.13
35.609,-6.31
35.625,-7.69
35.640,-9.04
35.656,-10.1
35.671,-10.81
35.687,-11.26
35.703,-11.69
35.718,-12.25
35.734,-12.89
35.750,-13.31
35.765,-13.16
35.781,-12.22
35.796,-10.53
35.812,-8.42
35.828,-6.29
35.843,-4.46
35.859,-2.99
35.875,-1.78
35.890,-0.67
35.906,0.57
35.921,2.0
35.937,3.67
35.953,5.44
35.968,7.2
35.984,8.72
36.000,9.88
36.015,10.63
36.031,10.99
36.046,11.13
36.062,11.23
36.078,11.37
36.093,11.58
36.109,11.87
36.125,12.16
36.140,12.44
36.156,12.75
36.171,13.05
36.187,13.29
36.203,13.35
36.218,13.08
36.234,12.45
36.250,11.54
36.265,10.48
36.281,9.43
36.296,8.52
36.312,7.74
36.328,7.04
36.343,6.33
36.359,5.65
36.375,5.15
36.390,5.0
36.406,5.22
36.421,5.66
36.437,5.96
36.453,5.76
36.468,4.86
36.484,3.36
36.500,1.58
36.515,-0.14
36.531,-1.56
36.546,-2.72
36.562,-3.82
36.578,-4.98
36.593,-6.23
36.609,-7.37
36.625,-8.2
36.640,-8.65
36.656,-8.74
36.671,-8.65
36.687,-8.5
36.703,-8.32
36.718,-8.06
36.734,-7.53
36.750,-6.66
36.765,-5.49
36.781,-4.16
36.796,-2.91
36.812,-1.9
36.828,-1.21
36.843,-0.78
36.859,-0.44
36.875,0.04
36.890,0.82
36.906,1.93
36.921,3.26
36.937,4.59
36.953,5.72
36.968,6.52
36.984,6.97
37.000,7.13
37.015,7.11
37.031,7.01
37.046,6.83
37.062,6.61
37.078,6.33
37.093,6.05
37.109,5.79
37.125,5.65
37.140,5.6
37.156,5.64
37.171,5.76
37.187,5.88
37.203,6.01
37.218,6.15
37.234,6.27
37.250,6.33
37.265,6.23
37.281,5.86
37.296,5.19
37.312,4.25
37.328,3.1
37.343,1.81
37.359,0.46
37.375,-0.85
37.390,-2.0
37.406,-2.86
37.421,-3.38
37.437,-3.6
37.453,-3.71
37.468,-3.96
37.484,-4.55
37.500,-5.58
37.515,-6.97
37.531,-8.52
37.546,-10.08
37.562,-11.59
37.578,-13.07
37.593,-14.58
37.609,-16.16
37.625,-17.71
37.640,-19.08
37.656,-20.09
37.671,-20.52
37.687,-20.35
37.703,-19.64
37.718,-18.56
37.734,-17.29
37.750,-15.97
37.765,-14.63
37.781,-13.25
37.796,-11.84
37.812,-10.39
37.828,-8.96
37.843,-7.56
37.859,-6.16
37.875,-4.65
37.890,-2.96
37.906,-1.06
37.921,0.93
37.937,2.78
37.953,4.3
37.968,5.36
37.984,5.92
38.000,6.09
38.015,6.0
38.031,5.77
38.046,5.51
38.062,5.33
38.078,5.31
38.093,5.49
38.109,5.8
38.125,6.18
38.140,6.49
38.156,6.67
38.171,6.65
38.187,6.41
38.203,6.0
38.218,5.5
38.234,5.01
38.250,4.64
38.265,4.51
38.281,4.53
38.296,4.58
38.312,4.47
38.328,4.05
38.343,3.37
38.359,2.59
38.375,1.94
38.390,1.56
38.406,1.44
38.421,1.38
38.437,1.13
38.453,0.48
38.468,-0.6
38.484,-2.06
38.500,-3.76
38.515,-5.55
38.531,-7.35
38.546,-9.1
38.562,-10.82
38.578,-12.51
38.593,-14.2
38.609,-15.86
38.625,-17.44
38.640,-18.87
38.656,-19.96
38.671,-20.55
38.687,-20.55
38.703,-19.92
38.718,-18.73
38.734,-17.17
38.750,-15.38
38.765,-13.51
38.781,-11.64
38.796,-9.8
38.812,-7.95
38.828,-6.08
38.843,-4.19
38.859,-2.25
38.875,-0.3
38.890,1.67
38.906,3.65
38.921,5.56
38.937,7.26
38.953,8.63
38.968,9.64
38.984,10.34
39.000,10.88
39.015,11.41
39.031,12.02
39.046,12.66
39.062,13.22
39.078,13.6
39.093,13.75
39.109,13.75
39.125,13.69
39.140,13.6
39.156,13.46
39.171,13.17
39.187,12.61
39.203,11.81
39.218,10.87
39.234,10.0
39.250,9.35
39.265,8.95
39.281,8.74
39.296,8.57
39.312,8.26
39.328,7.74
39.343,7.07
39.359,6.36
39.375,5.77
39.390,5.3
39.406,4.88
39.421,4.32
39.437,3.39
39.453,2.0
39.468,0.18
39.484,-1.85
39.500,-3.82
39.515,-5.51
39.531,-6.8
39.546,-7.67
39.562,-8.22
39.578,-8.54
39.593,-8.7
39.609,-8.77
39.625,-8.82
39.640,-8.99
39.656,-9.35
39.671,-9.9
39.687,-10.52
39.703,-10.97
39.718,-11.04
39.734,-10.57
39.750,-9.58
39.765,-8.22
39.781,-6.72
39.796,-5.27
39.812,-3.92
39.828,-2.64
39.843,-1.25
39.859,0.37
39.875,2.31
39.890,4.51
39.906,6.87
39.921,9.21
39.937,11.34
39.953,13.16
39.968,14.58
39.984,15.57
40.000,16.07
40.015,16.13
40.031,15.83
40.046,15.31
40.062,14.81
40.078,14.48
40.093,14.44
40.109,14.59
40.125,14.82
40.140,14.9
40.156,14.71
40.171,14.2
40.187,13.45
40.203,12.62
40.218,11.84
40.234,11.21
40.250,10.73
40.265,10.35
40.281,9.99
40.296,9.59
40.312,9.06
40.328,8.36
40.343,7.51
40.359,6.53
40.375,5.47
40.390,4.36
40.406,3.23
40.421,2.03
40.437,0.68
40.453,-0.82
40.468,-2.47
40.484,-4.16
40.500,-5.8
40.515,-7.31
40.531,-8.65
40.546,-9.8
40.562,-10.84
40.578,-11.83
40.593,-12.84
40.609,-13.86
40.625,-14.8
40.640,-15.56
40.656,-15.98
40.671,-15.94
40.687,-15.39
40.703,-14.36
40.718,-12.93
40.734,-11.24
40.750,-9.46
40.765,-7.65
40.781,-5.88
40.796,-4.11
40.812,-2.27
40.828,-0.37
40.843,1.55
40.859,3.47
40.875,5.29
40.890,6.89
40.906,8.25
40.921,9.32
40.937,10.11
40.953,10.66
40.968,10.97
40.984,11.06
41.000,11.02
41.015,10.96
41.031,10.92
41.046,10.96
41.062,11.06
41.078,11.21
41.093,11.28
41.109,11.2
41.125,10.92
41.140,10.4
41.156,9.72
41.171,8.93
41.187,8.17
41.203,7.52
41.218,7.02
41.234,6.59
41.250,6.15
41.265,5.58
41.281,4.79
41.296,3.83
41.312,2.79
41.328,1.81
41.343,0.93
41.359,0.15
41.375,-0.65
41.390,-1.57
41.406,-2.71
41.421,-4.05
41.437,-5.52
41.453,-6.99
41.468,-8.38
41.484,-9.69
41.500,-10.95
41.515,-12.18
41.531,-13.34
41.546,-14.43
41.562,-15.42
41.578,-16.34
41.593,-17.27
41.609,-18.22
41.625,-19.08
41.640,-19.65
41.656,-19.6
41.671,-18.72
41.687,-17.03
41.703,-14.76
41.718,-12.29
41.734,-10.02
41.750,-8.09
41.765,-6.47
41.781,-4.99
41.796,-3.43
41.812,-1.71
41.828,0.16
41.843,2.1
41.859,3.98
41.875,5.73
41.890,7.29
41.906,8.57
41.921,9.46
41.937,9.91
41.953,9.95
41.968,9.74
41.984,9.53
42.000,9.57
42.015,9.94
42.031,10.57
42.046,11.21
42.062,11.54
42.078,11.39
42.093,10.76
42.109,9.85
42.125,8.92
42.140,8.16
42.156,7.55
42.171,6.99
42.187,6.35
42.203,5.62
42.218,4.9
42.234,4.3
42.250,3.87
42.265,3.49
42.281,2.95
42.296,2.06
42.312,0.8
42.328,-0.65
42.343,-2.02
42.359,-3.1
42.375,-3.85
42.390,-4.42
42.406,-5.03
42.421,-5.86
42.437,-6.92
42.453,-8.07
42.468,-9.11
42.484,-9.95
42.500,-10.63
42.515,-11.35
42.531,-12.36
42.546,-13.79
42.562,-15.54
42.578,-17.35
42.593,-18.85
42.609,-19.66
42.625,-19.64
42.640,-18.79
42.656,-17.32
42.671,-15.47
42.687,-13.47
42.703,-11.39
42.718,-9.31
42.734,-7.22
42.750,-5.25
42.765,-3.47
42.781,-1.96
42.796,-0.65
42.812,0.64
42.828,2.05
42.843,3.71
42.859,5.57
42.875,7.47
42.890,9.2
42.906,10.59
42.921,11.59
42.937,12.28
42.953,12.79
42.968,13.22
42.984,13.61
43.000,13.95
43.015,14.2
43.031,14.29
43.046,14.12
43.062,13.68
43.078,13.02
43.093,12.22
43.109,11.38
43.125,10.58
43.140,9.84
43.156,9.08
43.171,8.26
43.187,7.36
43.203,6.49
43.218,5.76
43.234,5.28
43.250,5.1
43.265,5.14
43.281,5.25
43.296,5.23
43.312,5.02
43.328,4.56
43.343,3.93
43.359,3.19
43.375,2.41
43.390,1.65
43.406,0.94
43.421,0.25
43.437,-0.39
43.453,-0.98
43.468,-1.6
43.484,-2.33
43.500,-3.33
43.515,-4.65
43.531,-6.27
43.546,-8.05
43.562,-9.77
43.578,-11.12
43.593,-11.85
43.609,-11.79
43.625,-11.0
43.640,-9.62
43.656,-7.95
43.671,-6.25
43.687,-4.63
43.703,-3.08
43.718,-1.46
43.734,0.38
43.750,2.48
43.765,4.75
43.781,6.98
43.796,8.95
43.812,10.48
43.828,11.56
43.843,12.2
43.859,12.5
43.875,12.52
43.890,12.23
43.906,11.61
43.921,10.65
43.937,9.48
43.953,8.25
43.968,7.27
43.984,6.7
44.000,6.59
44.015,6.85
44.031,7.24
44.046,7.49
44.062,7.44
44.078,7.06
44.093,6.42
44.109,5.7
44.125,4.99
44.140,4.34
44.156,3.78
44.171,3.26
44.187,2.77
44.203,2.27
44.218,1.77
44.234,1.25
44.250,0.7
44.265,0.04
44.281,-0.77
44.296,-1.66
44.312,-2.56
44.328,-3.26
44.343,-3.62
44.359,-3.62
44.375,-3.41
44.390,-3.27
44.406,-3.55
44.421,-4.52
44.437,-6.16
44.453,-8.29
44.468,-10.54
44.484,-12.53
44.500,-14.01
44.515,-14.85
44.531,-15.06
44.546,-14.72
44.562,-13.92
44.578,-12.76
44.593,-11.31
44.609,-9.67
44.625,-8.0
44.640,-6.45
44.656,-5.08
44.671,-3.84
44.687,-2.59
44.703,-1.2
44.718,0.41
44.734,2.18
44.750,3.94
44.765,5.44
44.781,6.49
44.796,7.02
44.812,7.13
44.828,7.06
44.843,7.0
44.859,7.04
44.875,7.17
44.890,7.26
44.906,7.2
44.921,6.94
44.937,6.48
44.953,5.85
44.968,5.13
44.984,4.38
45.000,3.63
45.015,2.95
45.031,2.4
45.046,2.04
45.062,1.86
45.078,1.84
45.093,1.86
45.109,1.83
45.125,1.67
45.140,1.26
45.156,0.55
45.171,-0.44
45.187,-1.58
45.203,-2.69
45.218,-3.62
45.234,-4.27
45.250,-4.74
45.265,-5.18
45.281,-5.72
45.296,-6.45
45.312,-7.33
45.328,-8.21
45.343,-9.0
45.359,-9.72
45.375,-10.47
45.390,-11.41
45.406,-12.64
45.421,-14.09
45.437,-15.56
45.453,-16.84
45.468,-17.71
45.484,-18.07
45.500,-17.9
45.515,-17.21
45.531,-16.07
45.546,-14.54
45.562,-12.76
45.578,-10.85
45.593,-8.99
45.609,-7.26
45.625,-5.69
45.640,-4.24
45.656,-2.83
45.671,-1.48
45.687,-0.23
45.703,0.86
45.718,1.72
45.734,2.31
45.750,2.66
45.765,2.86
45.781,3.0
45.796,3.16
45.812,3.36
45.828,3.61
45.843,3.9
45.859,4.19
45.875,4.46
45.890,4.72
45.906,5.03
45.921,5.42
45.937,5.86
45.953,6.24
45.968,6.47
45.984,6.46
46.000,6.18
46.015,5.71
46.031,5.1
46.046,4.39
46.062,3.57
46.078,2.61
46.093,1.5
46.109,0.37
46.125,-0.65
46.140,-1.47
46.156,-2.12
46.171,-2.76
46.187,-3.55
46.203,-4.49
46.218,-5.45
46.234,-6.23
46.250,-6.74
46.265,-7.03
46.281,-7.29
46.296,-7.72
46.312,-8.37
46.328,-9.13
46.343,-9.79
46.359,-10.21
46.375,-10.43
46.390,-10.61
46.406,-10.95
46.421,-11.5
46.437,-12.07
46.453,-12.44
46.468,-12.42
46.484,-11.99
46.500,-11.27
46.515,-10.46
46.531,-9.65
46.546,-8.86
46.562,-7.97
46.578,-6.89
46.593,-5.55
46.609,-3.96
46.625,-2.17
46.640,-0.25
46.656,1.71
46.671,3.64
46.687,5.5
46.703,7.22
46.718,8.75
46.734,10.05
46.750,11.05
46.765,11.71
46.781,12.04
46.796,12.13
46.812,12.12
46.828,12.16
46.843,12.31
46.859,12.52
46.875,12.65
46.890,12.58
46.906,12.26
46.921,11.74
46.937,11.19
46.953,10.71
46.968,10.32
46.984,9.96
47.000,9.51
47.015,8.9
47.031,8.22
47.046,7.62
47.062,7.26
47.078,7.18
47.093,7.28
47.109,7.34
47.125,7.13
47.140,6.47
47.156,5.34
47.171,3.85
47.187,2.16
47.203,0.46
47.218,-1.14
47.234,-2.6
47.250,-3.95
47.265,-5.23
47.281,-6.52
47.296,-7.84
47.312,-9.19
47.328,-10.52
47.343,-11.68
47.359,-12.51
47.375,-12.88
47.390,-12.68
47.406,-11.83
47.421,-10.38
47.437,-8.4
47.453,-6.08
47.468,-3.68
47.484,-1.45
47.500,0.44
47.515,1.95
47.531,3.17
47.546,4.34
47.562,5.61
47.578,7.06
47.593,8.58
47.609,9.89
47.625,10.75
47.640,10.98
47.656,10.59
47.671,9.81
47.687,8.91
47.703,8.13
47.718,7.61
47.734,7.35
47.750,7.24
47.765,7.19
47.781,7.07
47.796,6.86
47.812,6.61
47.828,6.34
47.843,6.04
47.859,5.7
47.875,5.29
47.890,4.79
47.906,4.3
47.921,3.85
47.937,3.46
47.953,3.12
47.968,2.71
47.984,2.14
48.000,1.41
48.015,0.56
48.031,-0.32
48.046,-1.13
48.062,-1.84
48.078,-2.48
48.093,-3.12
48.109,-3.84
48.125,-4.67
48.140,-5.69
48.156,-6.93
48.171,-8.42
48.187,-10.13
48.203,-11.97
48.218,-13.8
48.234,-15.46
48.250,-16.85
48.265,-17.91
48.281,-18.68
48.296,-19.18
48.312,-19.38
48.328,-19.09
48.343,-18.16
48.359,-16.56
48.375,-14.37
48.390,-11.9
48.406,-9.46
48.421,-7.24
48.437,-5.3
48.453,-3.51
48.468,-1.72
48.484,0.16
48.500,2.09
48.515,3.95
48.531,5.6
48.546,6.92
48.562,7.83
48.578,8.34
48.593,8.43
48.609,8.11
48.625,7.51
48.640,6.81
48.656,6.24
48.671,6.01
48.687,6.21
48.703,6.76
48.718,7.5
48.734,8.22
48.750,8.74
48.765,9.01
48.781,9.09
48.796,9.03
48.812,8.91
48.828,8.79
48.843,8.69
48.859,8.51
48.875,8.16
48.890,7.54
48.906,6.64
48.921,5.63
48.937,4.67
48.953,3.94
48.968,3.48
48.984,3.15
49.000,2.73
49.015,2.02
49.031,0.97
49.046,-0.35
49.062,-1.79
49.078,-3.23
49.093,-4.64
49.109,-6.01
49.125,-7.41
49.140,-8.81
49.156,-10.23
49.171,-11.69
49.187,-13.27
49.203,-15.09
49.218,-17.18
49.234,-19.35
49.250,-21.27
49.265,-22.51
49.281,-22.71
49.296,-21.76
49.312,-19.88
49.328,-17.52
49.343,-15.19
49.359,-13.28
49.375,-11.82
49.390,-10.59
49.406,-9.26
49.421,-7.5
49.437,-5.2
49.453,-2.49
49.468,0.32
49.484,2.98
49.500,5.33
49.515,7.33
49.531,9.02
49.546,10.36
49.562,11.32
49.578,11.87
49.593,12.01
49.609,11.81
49.625,11.43
49.640,11.05
49.656,10.75
49.671,10.64
49.687,10.64
49.703,10.61
49.718,10.36
49.734,9.74
49.750,8.67
49.765,7.32
49.781,6.0
49.796,5.0
49.812,4.57
49.828,4.65
49.843,4.98
49.859,5.18
49.875,5.03
49.890,4.52
49.906,3.85
49.921,3.34
49.937,3.07
49.953,3.04
49.968,2.97
49.984,2.61
50.000,1.8
50.015,0.54
50.031,-0.98
50.046,-2.5
50.062,-3.79
50.078,-4.7
50.093,-5.15
50.109,-5.24
50.125,-5.13
50.140,-5.05
50.156,-5.3
50.171,-6.06
50.187,-7.38
50.203,-9.1
50.218,-10.95
50.234,-12.53
50.250,-13.62
50.265,-14.04
50.281,-13.72
50.296,-12.68
50.312,-11.01
50.328,-8.85
50.343,-6.38
50.359,-3.9
50.375,-1.65
50.390,0.25
50.406,1.8
50.421,3.21
50.437,4.63
50.453,6.18
50.468,7.81
50.484,9.38
50.500,10.75
50.515,11.86
50.531,12.66
50.546,13.24
50.562,13.7
50.578,14.03
50.593,14.29
50.609,14.46
50.625,14.59
50.640,14.7
50.656,14.79
50.671,14.87
50.687,14.92
50.703,14.93
50.718,14.83
50.734,14.58
50.750,14.07
50.765,13.28
50.781,12.27
50.796,11.17
50.812,10.11
50.828,9.11
50.843,8.13
50.859,7.01
50.875,5.69
50.890,4.23
50.906,2.77
50.921,1.47
50.937,0.43
50.953,-0.42
50.968,-1.22
50.984,-2.12
51.000,-3.19
51.015,-4.37
51.031,-5.59
51.046,-6.82
51.062,-8.07
51.078,-9.44
51.093,-10.98
51.109,-12.7
51.125,-14.52
51.140,-16.25
51.156,-17.62
51.171,-18.35
51.187,-18.27
51.203,-17.3
51.218,-15.55
51.234,-13.23
51.250,-10.7
51.265,-8.25
51.281,-6.1
51.296,-4.28
51.312,-2.69
51.328,-1.21
51.343,0.27
51.359,1.73
51.375,3.09
51.390,4.22
51.406,5.02
51.421,5.43
51.437,5.47
51.453,5.27
51.468,4.93
51.484,4.56
51.500,4.32
51.515,4.34
51.531,4.76
51.546,5.65
51.562,6.95
51.578,8.46
51.593,9.88
51.609,10.89
51.625,11.3
51.640,11.09
51.656,10.46
51.671,9.72
51.687,9.11
51.703,8.73
51.718,8.49
51.734,8.18
51.750,7.59
51.765,6.67
51.781,5.46
51.796,4.12
51.812,2.79
51.828,1.59
51.843,0.53
51.859,-0.47
51.875,-1.46
51.890,-2.42
51.906,-3.36
51.921,-4.24
51.937,-5.11
51.953,-6.05
51.968,-7.11
51.984,-8.31
52.000,-9.61
52.015,-10.91
52.031,-12.08
52.046,-13.12
52.062,-14.05
52.078,-15.04
52.093,-16.21
52.109,-17.6
52.125,-19.11
52.140,-20.52
52.156,-21.51
52.171,-21.79
52.187,-21.25
52.203,-19.94
52.218,-18.1
52.234,-16.03
52.250,-13.99
52.265,-12.09
52.281,-10.3
52.296,-8.51
52.312,-6.68
52.328,-4.79
52.343,-2.91
52.359,-1.1
52.375,0.58
52.390,2.18
52.406,3.7
52.421,5.07
52.437,6.12
52.453,6.71
52.468,6.76
52.484,6.48
52.500,6.12
52.515,6.01
52.531,6.34
52.546,7.12
52.562,8.18
52.578,9.28
52.593,10.17
52.609,10.75
52.625,11.06
52.640,11.17
52.656,11.19
52.671,11.22
52.687,11.28
52.703,11.31
52.718,11.28
52.734,11.11
52.750,10.74
52.765,10.17
52.781,9.44
52.796,8.6
52.812,7.71
52.828,6.74
52.843,5.72
52.859,4.63
52.875,3.5
52.890,2.32
52.906,1.08
52.921,-0.2
52.937,-1.51
52.953,-2.79
52.968,-4.0
52.984,-5.08
53.000,-6.06
53.015,-7.01
53.031,-8.03
53.046,-9.15
53.062,-10.33
53.078,-11.47
53.093,-12.53
53.109,-13.52
53.125,-14.49
53.140,-15.41
53.156,-16.16
53.171,-16.49
53.187,-16.16
53.203,-15.05
53.218,-13.34
53.234,-11.32
53.250,-9.29
53.265,-7.44
53.281,-5.68
53.296,-3.84
53.312,-1.72
53.328,0.72
53.343,3.39
53.359,6.07
53.375,8.51
53.390,10.49
53.406,11.81
53.421,12.42
53.437,12.32
53.453,11.59
53.468,10.39
53.484,8.97
53.500,7.58
53.515,6.42
53.531,5.58
53.546,4.95
53.562,4.33
53.578,3.49
53.593,2.37
53.609,1.06
53.625,-0.11
53.640,-0.79
53.656,-0.72
53.671,0.13
53.687,1.54
53.703,3.19
53.718,4.78
53.734,6.18
53.750,7.36
53.765,8.38
53.781,9.21
53.796,9.8
53.812,10.01
53.828,9.75
53.843,9.01
53.859,7.93
53.875,6.74
53.890,5.68
53.906,4.83
53.921,4.21
53.937,3.76
53.953,3.38
53.968,2.94
53.984,2.34
54.000,1.51
54.015,0.36
54.031,-1.06
54.046,-2.72
54.062,-4.48
54.078,-6.16
54.093,-7.55
54.109,-8.53
54.125,-9.01
54.140,-8.98
54.156,-8.49
54.171,-7.59
54.187,-6.36
54.203,-4.8
54.218,-2.97
54.234,-0.9
54.250,1.39
54.265,3.79
54.281,6.17
54.296,8.43
54.312,10.41
54.328,12.02
54.343,13.24
54.359,14.05
54.375,14.46
54.390,14.52
54.406,14.22
54.421,13.54
54.437,12.47
54.453,11.1
54.468,9.6
54.484,8.19
54.500,7.14
54.515,6.61
54.531,6.75
54.546,7.54
54.562,8.91
54.578,10.67
54.593,12.66
54.609,14.76
54.625,16.98
54.640,19.49
54.656,22.59
54.671,26.66
54.687,31.89
54.703,38.43
54.718,46.3
54.734,55.4
54.750,65.69
54.765,76.95
54.781,88.79
54.796,100.44
54.812,110.85
54.828,118.78
54.843,123.15
54.859,123.2
54.875,118.61
54.890,109.56
54.906,96.59
54.921,80.61
54.937,62.62
54.953,43.66
54.968,24.54
54.984,5.72
55.000,-12.66
55.015,-30.65
55.031,-48.03
55.046,-64.33
55.062,-78.8
55.078,-90.8
55.093,-100.1
55.109,-106.93
55.125,-111.84
55.140,-115.27
55.156,-117.22
55.171,-117.23
55.187,-114.61
55.203,-108.83
55.218,-99.65
55.234,-87.29
55.250,-72.32
55.265,-55.56
55.281,-37.95
55.296,-20.52
55.312,-4.21
55.328,10.27
55.343,22.59
55.359,32.88
55.375,41.45
55.390,48.62
55.406,54.49
55.421,59.01
55.437,62.1
55.453,63.92
55.468,64.84
55.484,65.4
55.500,66.14
55.515,67.24
55.531,68.58
55.546,69.75
55.562,70.36
55.578,70.23
55.593,69.5
55.609,68.44
55.625,67.35
55.640,66.27
55.656,64.95
55.671,62.93
55.687,59.73
55.703,55.18
55.718,49.32
55.734,42.56
55.750,35.41
55.765,28.24
55.781,21.18
55.796,14.07
55.812,6.64
55.828,-1.27
55.843,-9.52
55.859,-17.64
55.875,-25.06
55.890,-31.26
55.906,-36.07
55.921,-39.7
55.937,-42.55
55.953,-44.99
55.968,-47.23
55.984,-49.23
56.000,-50.86
56.015,-52.08
56.031,-53.01
56.046,-53.94
56.062,-55.13
56.078,-56.71
56.093,-58.45
56.109,-59.96
56.125,-60.77
56.140,-60.6
56.156,-59.42
56.171,-57.46
56.187,-55.02
56.203,-52.23
56.218,-49.02
56.234,-45.12
56.250,-40.27
56.265,-34.38
56.281,-27.62
56.296,-20.38
56.312,-13.21
56.328,-6.6
56.343,-0.95
56.359,3.6
56.375,7.04
56.390,9.47
56.406,10.81
56.421,10.87
56.437,9.24
56.453,5.49
56.468,-0.6
56.484,-8.93
56.500,-19.17
56.515,-30.72
56.531,-42.95
56.546,-55.25
56.562,-66.94
56.578,-77.27
56.593,-85.47
56.609,-91.03
56.625,-93.81
56.640,-94.31
56.656,-93.43
56.671,-92.19
56.687,-91.32
56.703,-91.04
56.718,-91.11
56.734,-91.14
56.750,-90.88
56.765,-90.38
56.781,-89.9
56.796,-89.6
56.812,-89.21
56.828,-88.01
56.843,-85.03
56.859,-79.57
56.875,-71.66
56.890,-62.4
56.906,-53.74
56.921,-48.04
56.937,-47.41
56.953,-53.01
56.968,-64.76
56.984,-81.11
57.000,-99.22
57.015,-115.5
57.031,-126.25
57.046,-128.46
57.062,-120.48
57.078,-102.41
57.093,-76.03
57.109,-44.48
57.125,-11.48
57.140,19.53
57.156,46.17
57.171,67.61
57.187,84.4
57.203,97.9
57.218,109.46
57.234,119.89
57.250,129.17
57.265,136.82
57.281,142.34
57.296,145.52
57.312,146.51
57.328,145.56
57.343,142.74
57.359,137.96
57.375,131.2
57.390,122.78
57.406,113.42
57.421,103.99
57.437,95.16
57.453,87.17
57.468,79.89
57.484,72.91
57.500,65.87
57.515,58.58
57.531,51.01
57.546,43.3
57.562,35.59
57.578,28.08
57.593,20.88
57.609,14.01
57.625,7.39
57.640,0.91
57.656,-5.5
57.671,-11.72
57.687,-17.46
57.703,-22.32
57.718,-26.02
57.734,-28.52
57.750,-30.11
57.765,-31.23
57.781,-32.28
57.796,-33.35
57.812,-34.22
57.828,-34.46
57.843,-33.72
57.859,-31.91
57.875,-29.34
57.890,-26.51
57.906,-23.86
57.921,-21.67
57.937,-19.91
57.953,-18.37
57.968,-16.76
57.984,-14.86
58.000,-12.55
58.015,-9.85
58.031,-6.84
58.046,-3.62
58.062,-0.35
58.078,2.81
58.093,5.68
58.109,8.07
58.125,9.81
58.140,10.84
58.156,11.22
58.171,11.2
58.187,11.19
58.203,11.58
58.218,12.7
58.234,14.6
58.250,17.12
58.265,19.83
58.281,22.26
58.296,23.9
58.312,24.36
58.328,23.52
58.343,21.47
58.359,18.65
58.375,15.6
58.390,12.85
58.406,10.74
58.421,9.33
58.437,8.38
58.453,7.59
58.468,6.71
58.484,5.63
58.500,4.42
58.515,3.15
58.531,1.82
58.546,0.34
58.562,-1.4
58.578,-3.46
58.593,-5.8
58.609,-8.25
58.625,-10.72
58.640,-13.1
58.656,-15.47
58.671,-17.91
58.687,-20.48
58.703,-23.06
58.718,-25.42
58.734,-27.24
58.750,-28.18
58.765,-28.12
58.781,-27.13
58.796,-25.49
58.812,-23.45
58.828,-21.21
58.843,-18.76
58.859,-15.99
58.875,-12.89
58.890,-9.57
58.906,-6.36
58.921,-3.58
58.937,-1.42
58.953,0.14
58.968,1.33
58.984,2.4
59.000,3.52
59.015,4.67
59.031,5.77
59.046,6.69
59.062,7.47
59.078,8.28
59.093,9.36
59.109,10.86
59.125,12.79
59.140,14.97
59.156,17.05
59.171,18.76
59.187,19.86
59.203,20.3
59.218,20.15
59.234,19.47
59.250,18.28
59.265,16.49
59.281,14.12
59.296,11.2
59.312,7.99
59.328,4.85
59.343,2.18
59.359,0.21
59.375,-1.06
59.390,-1.88
59.406,-2.61
59.421,-3.56
59.437,-4.88
59.453,-6.46
59.468,-8.09
59.484,-9.59
59.500,-10.87
59.515,-12.06
59.531,-13.29
59.546,-14.68
59.562,-16.27
59.578,-17.96
59.593,-19.57
59.609,-20.93
59.625,-21.91
59.640,-22.44
59.656,-22.46
59.671,-22.01
59.687,-21.13
59.703,-19.89
59.718,-18.36
59.734,-16.57
59.750,-14.51
59.765,-12.22
59.781,-9.76
59.796,-7.31
59.812,-5.01
59.828,-2.96
59.843,-1.13
59.859,0.67
59.875,2.62
59.890,4.77
59.906,7.06
59.921,9.25
59.937,11.07
59.953,12.38
59.968,13.21
59.984,13.73
