timestamp,value
00.000,-39.14
00.015,-25.22
00.031,4.15
00.046,31.48
00.062,40.51
00.078,25.76
00.093,-4.24
00.109,-31.89
00.125,-41.09
00.140,-26.5
00.156,2.99
00.171,29.78
00.187,37.94
00.203,22.7
00.218,-6.81
00.234,-32.78
00.250,-39.47
00.265,-22.3
00.281,9.03
00.296,36.48
00.312,44.21
00.328,27.91
00.343,-2.7
00.359,-29.43
00.375,-36.44
00.390,-19.35
00.406,11.99
00.421,39.42
00.437,47.19
00.453,31.16
00.468,1.17
00.484,-24.61
00.500,-30.54
00.515,-12.5
00.531,19.29
00.546,46.49
00.562,53.33
00.578,35.83
00.593,4.21
00.609,-22.98
00.625,-29.88
00.640,-12.35
00.656,19.24
00.671,46.31
00.687,52.84
00.703,34.83
00.718,2.57
00.734,-25.26
00.750,-32.66
00.765,-15.53
00.781,15.61
00.796,41.96
00.812,47.44
00.828,28.06
00.843,-5.59
00.859,-34.53
00.875,-42.5
00.890,-25.35
00.906,6.24
00.921,33.18
00.937,39.12
00.953,20.01
00.968,-13.42
00.984,-41.98
01.000,-49.28
01.015,-31.22
01.031,1.21
01.046,28.61
01.062,34.37
01.078,14.46
01.093,-20.01
01.109,-49.39
01.125,-56.83
01.140,-38.13
01.156,-4.41
01.171,24.52
01.187,31.68
01.203,12.88
01.218,-20.74
01.234,-49.3
01.250,-55.83
01.265,-36.14
01.281,-1.61
01.296,27.74
01.312,34.76
01.328,15.34
01.343,-19.05
01.359,-48.17
01.375,-54.77
01.390,-34.6
01.406,0.78
01.421,31.01
01.437,38.73
01.453,19.61
01.468,-14.81
01.484,-44.19
01.500,-51.16
01.515,-31.46
01.531,3.31
01.546,32.73
01.562,39.39
01.578,19.11
01.593,-16.31
01.609,-46.19
01.625,-52.88
01.640,-31.98
01.656,4.72
01.671,36.43
01.687,45.24
01.703,26.52
01.718,-8.16
01.734,-38.11
01.750,-45.44
01.765,-25.5
01.781,10.18
01.796,40.98
01.812,49.09
01.828,29.95
01.843,-4.83
01.859,-34.65
01.875,-41.82
01.890,-21.98
01.906,13.05
01.921,42.59
01.937,48.98
01.953,28.04
01.968,-8.21
01.984,-38.88
02.000,-46.24
02.015,-26.15
02.031,9.19
02.046,38.68
02.062,44.41
02.078,22.21
02.093,-15.6
02.109,-47.66
02.125,-55.8
02.140,-35.71
02.156,0.3
02.171,30.63
02.187,36.88
02.203,14.63
02.218,-23.7
02.234,-56.29
02.250,-64.45
02.265,-43.53
02.281,-5.85
02.296,26.89
02.312,36.09
02.328,17.24
02.343,-17.35
02.359,-46.18
02.375,-51.23
02.390,-28.65
02.406,8.79
02.421,39.53
02.437,45.86
02.453,24.46
02.468,-11.52
02.484,-40.61
02.500,-45.58
02.515,-23.62
02.531,12.0
02.546,40.28
02.562,44.9
02.578,23.97
02.593,-8.96
02.609,-33.39
02.625,-34.14
02.640,-10.49
02.656,23.4
02.671,47.31
02.687,46.95
02.703,22.59
02.718,-11.11
02.734,-34.17
02.750,-33.03
02.765,-8.69
02.781,24.03
02.796,45.57
02.812,43.18
02.828,18.51
02.843,-13.43
02.859,-33.52
02.875,-29.71
02.890,-4.33
02.906,27.39
02.921,46.54
02.937,41.53
02.953,15.09
02.968,-17.32
02.984,-36.85
03.000,-32.11
03.015,-6.02
03.031,25.96
03.046,45.06
03.062,40.05
03.078,13.95
03.093,-17.76
03.109,-36.5
03.125,-31.25
03.140,-5.3
03.156,25.78
03.171,43.46
03.187,36.93
03.203,9.72
03.218,-22.36
03.234,-40.64
03.250,-34.36
03.265,-7.18
03.281,24.99
03.296,43.39
03.312,37.26
03.328,10.22
03.343,-21.78
03.359,-39.99
03.375,-33.61
03.390,-6.28
03.406,26.13
03.421,44.84
03.437,39.09
03.453,12.38
03.468,-19.48
03.484,-37.85
03.500,-31.95
03.515,-5.36
03.531,26.21
03.546,44.21
03.562,38.01
03.578,11.25
03.593,-20.28
03.609,-38.04
03.625,-31.45
03.640,-4.33
03.656,27.46
03.671,45.37
03.687,38.91
03.703,11.8
03.718,-20.11
03.734,-38.41
03.750,-32.7
03.765,-6.83
03.781,23.46
03.796,39.99
03.812,32.73
03.828,5.75
03.843,-25.11
03.859,-41.77
03.875,-34.43
03.890,-7.53
03.906,22.91
03.921,38.83
03.937,30.63
03.953,2.9
03.968,-28.09
03.984,-44.21
04.000,-35.85
04.015,-7.76
04.031,23.79
04.046,40.66
04.062,33.33
04.078,6.45
04.093,-23.84
04.109,-39.66
04.125,-31.71
04.140,-4.88
04.156,24.78
04.171,39.69
04.187,31.08
04.203,4.12
04.218,-24.99
04.234,-38.89
04.250,-29.09
04.265,-1.28
04.281,28.12
04.296,41.65
04.312,31.1
04.328,2.31
04.343,-28.07
04.359,-42.53
04.375,-32.79
04.390,-4.84
04.406,24.76
04.421,38.69
04.437,29.06
04.453,2.0
04.468,-25.92
04.484,-37.72
04.500,-25.85
04.515,2.99
04.531,31.95
04.546,44.04
04.562,32.04
04.578,2.81
04.593,-26.62
04.609,-39.27
04.625,-27.96
04.640,0.23
04.656,28.31
04.671,39.42
04.687,26.73
04.703,-2.57
04.718,-31.39
04.734,-42.96
04.750,-30.53
04.765,-1.57
04.781,26.77
04.796,37.8
04.812,25.02
04.828,-4.01
04.843,-32.05
04.859,-42.48
04.875,-28.88
04.890,0.88
04.906,29.43
04.921,40.11
04.937,26.74
04.953,-2.78
04.968,-31.04
04.984,-41.5
05.000,-28.09
05.015,1.01
05.031,28.33
05.046,37.52
05.062,23.0
05.078,-6.81
05.093,-34.27
05.109,-43.17
05.125,-28.03
05.140,2.3
05.156,30.12
05.171,39.31
05.187,24.8
05.203,-4.51
05.218,-30.92
05.234,-38.55
05.250,-22.52
05.265,7.89
05.281,34.91
05.296,42.8
05.312,27.04
05.328,-2.97
05.343,-29.32
05.359,-36.29
05.375,-19.33
05.390,11.87
05.406,39.28
05.421,47.0
05.437,30.55
05.453,-0.58
05.468,-28.38
05.484,-37.03
05.500,-21.92
05.515,7.42
05.531,33.13
05.546,39.62
05.562,22.74
05.578,-7.78
05.593,-33.95
05.609,-40.24
05.625,-22.53
05.640,8.99
05.656,36.07
05.671,43.01
05.687,25.82
05.703,-5.39
05.718,-32.23
05.734,-38.92
05.750,-21.39
05.765,10.15
05.781,37.27
05.796,44.18
05.812,26.92
05.828,-4.31
05.843,-31.05
05.859,-37.5
05.875,-19.54
05.890,12.49
05.906,40.14
05.921,47.54
05.937,30.77
05.953,0.12
05.968,-25.91
05.984,-31.52
06.000,-12.81
06.015,19.6
06.031,46.92
06.046,53.11
06.062,34.26
06.078,0.97
06.093,-27.79
06.109,-35.74
06.125,-18.65
06.140,12.97
06.156,40.17
06.171,46.65
06.187,28.27
06.203,-4.48
06.218,-32.61
06.234,-39.76
06.250,-21.64
06.265,11.13
06.281,39.45
06.296,46.86
06.312,29.08
06.328,-3.37
06.343,-31.46
06.359,-38.84
06.375,-21.36
06.390,10.19
06.406,36.64
06.421,41.61
06.437,21.23
06.453,-13.4
06.468,-42.7
06.484,-50.01
06.500,-31.23
06.515,2.46
06.531,31.32
06.546,38.43
06.562,19.59
06.578,-14.23
06.593,-43.33
06.609,-50.88
06.625,-32.61
06.640,0.38
06.656,28.41
06.671,34.59
06.687,14.82
06.703,-19.64
06.718,-48.87
06.734,-55.85
06.750,-36.33
06.765,-1.67
06.781,28.09
06.796,35.74
06.812,17.01
06.828,-16.82
06.843,-45.67
06.859,-52.37
06.875,-32.66
06.890,2.01
06.906,31.42
06.921,38.31
06.937,18.47
06.953,-16.49
06.968,-46.15
06.984,-52.99
07.000,-32.66
07.015,3.27
07.031,34.27
07.046,42.75
07.062,24.24
07.078,-9.79
07.093,-38.96
07.109,-45.8
07.125,-25.98
07.140,8.84
07.156,38.16
07.171,44.47
07.187,23.55
07.203,-12.75
07.218,-43.62
07.234,-51.24
07.250,-31.13
07.265,4.97
07.281,36.24
07.296,44.73
07.312,25.76
07.328,-9.12
07.343,-39.23
07.359,-46.72
07.375,-26.96
07.390,8.49
07.406,38.95
07.421,46.62
07.437,26.96
07.453,-8.43
07.468,-38.87
07.484,-46.58
07.500,-27.07
07.515,7.98
07.531,37.9
07.546,44.97
07.562,24.78
07.578,-10.91
07.593,-41.37
07.609,-48.85
07.625,-28.88
07.640,6.76
07.656,37.32
07.671,44.99
07.687,25.26
07.703,-10.14
07.718,-40.42
07.734,-47.72
07.750,-27.44
07.765,8.74
07.781,40.01
07.796,48.42
07.812,29.28
07.828,-5.83
07.843,-36.17
07.859,-43.75
07.875,-23.91
07.890,11.78
07.906,42.6
07.921,50.57
07.937,31.01
07.953,-4.5
07.968,-35.26
07.984,-43.38
08.000,-24.26
08.015,10.49
08.031,40.14
08.046,46.86
08.062,26.16
08.078,-10.16
08.093,-41.24
08.109,-49.11
08.125,-29.18
08.140,6.77
08.156,37.82
08.171,45.98
08.187,26.61
08.203,-8.62
08.218,-38.95
08.234,-46.55
08.250,-27.02
08.265,7.77
08.281,36.95
08.296,42.76
08.312,20.99
08.328,-16.19
08.343,-47.64
08.359,-55.37
08.375,-35.1
08.390,0.92
08.406,31.31
08.421,37.85
08.437,16.13
08.453,-21.59
08.468,-53.77
08.484,-61.97
08.500,-41.54
08.515,-4.57
08.531,27.58
08.546,36.59
08.562,18.0
08.578,-16.13
08.593,-44.68
08.609,-49.84
08.625,-27.72
08.640,9.13
08.656,39.45
08.671,45.67
08.687,24.35
08.703,-11.64
08.718,-40.99
08.734,-46.4
08.750,-24.79
08.765,10.82
08.781,39.32
08.796,43.92
08.812,22.06
08.828,-12.95
08.843,-40.23
08.859,-43.51
08.875,-20.84
08.890,14.21
08.906,40.92
08.921,43.52
08.937,20.63
08.953,-13.89
08.968,-39.5
08.984,-40.94
09.000,-17.34
09.015,17.35
09.031,42.98
09.046,45.05
09.062,23.39
09.078,-7.83
09.093,-28.9
09.109,-26.27
09.125,-0.76
09.140,32.82
09.156,54.74
09.171,51.86
09.187,25.61
09.203,-8.82
09.218,-31.65
09.234,-29.97
09.250,-5.37
09.265,27.03
09.281,47.75
09.296,44.28
09.312,18.48
09.328,-14.51
09.343,-35.46
09.359,-32.16
09.375,-6.74
09.390,25.61
09.406,45.75
09.421,41.68
09.437,15.68
09.453,-17.03
09.468,-37.42
09.484,-33.75
09.500,-8.49
09.515,23.04
09.531,41.95
09.546,36.72
09.562,10.12
09.578,-22.38
09.593,-41.95
09.609,-37.28
09.625,-11.48
09.640,19.89
09.656,38.04
09.671,31.93
09.687,4.95
09.703,-27.09
09.718,-45.32
09.734,-38.75
09.750,-10.86
09.765,22.43
09.781,42.18
09.796,37.29
09.812,11.06
09.828,-20.69
09.843,-39.14
09.859,-33.19
09.875,-6.14
09.890,26.32
09.906,45.35
09.921,39.82
09.937,12.83
09.953,-20.0
09.968,-39.88
09.984,-35.55
10.000,-9.97
10.015,21.49
10.031,40.24
10.046,35.2
10.062,9.4
10.078,-21.8
10.093,-40.01
10.109,-34.42
10.125,-8.47
10.140,22.32
10.156,39.53
10.171,32.62
10.187,5.29
10.203,-26.57
10.218,-44.31
10.234,-37.26
10.250,-9.18
10.265,23.93
10.281,43.21
10.296,37.83
10.312,11.28
10.328,-20.57
10.343,-38.96
10.359,-32.99
10.375,-6.13
10.390,25.93
10.406,44.51
10.421,38.82
10.437,12.29
10.453,-19.38
10.468,-37.66
10.484,-31.85
10.500,-5.54
10.515,25.6
10.531,43.19
10.546,36.85
10.562,10.28
10.578,-20.79
10.593,-38.12
10.609,-31.5
10.625,-4.9
10.640,25.86
10.656,42.58
10.671,35.21
10.687,7.76
10.703,-23.9
10.718,-41.62
10.734,-35.41
10.750,-9.44
10.765,20.47
10.781,36.28
10.796,28.32
10.812,0.94
10.828,-29.81
10.843,-45.88
10.859,-37.57
10.875,-9.5
10.890,22.16
10.906,39.25
10.921,32.07
10.937,5.12
10.953,-25.48
10.968,-41.66
10.984,-33.72
11.000,-6.24
11.015,24.79
11.031,41.39
11.046,34.11
11.062,7.52
11.078,-22.36
11.093,-37.67
11.109,-29.1
11.125,-1.47
11.140,29.13
11.156,44.92
11.171,36.81
11.187,9.72
11.203,-20.22
11.218,-35.37
11.234,-26.84
11.250,0.16
11.265,29.42
11.281,43.43
11.296,33.58
11.312,5.26
11.328,-25.22
11.343,-40.39
11.359,-31.7
11.375,-4.7
11.390,24.29
11.406,37.92
11.421,27.89
11.437,-0.2
11.453,-29.97
11.468,-44.12
11.484,-34.33
11.500,-6.38
11.515,23.37
11.531,37.59
11.546,28.08
11.562,0.49
11.578,-28.84
11.593,-42.67
11.609,-32.71
11.625,-4.72
11.640,25.05
11.656,39.41
11.671,30.25
11.687,3.17
11.703,-25.66
11.718,-39.33
11.734,-29.93
11.750,-3.37
11.765,24.15
11.781,35.9
11.796,24.39
11.812,-4.15
11.828,-33.19
11.843,-45.79
11.859,-34.35
11.875,-5.26
11.890,24.83
11.906,38.78
11.921,28.89
11.937,1.33
11.953,-27.38
11.968,-40.17
11.984,-29.25
12.000,-0.87
12.015,28.52
12.031,41.91
12.046,31.72
12.062,4.19
12.078,-24.21
12.093,-36.62
12.109,-25.57
12.125,2.42
12.140,30.76
12.156,42.71
12.171,31.11
12.187,2.63
12.203,-26.02
12.218,-38.06
12.234,-26.3
12.250,2.43
12.265,31.39
12.281,43.79
12.296,32.51
12.312,4.2
12.328,-24.52
12.343,-37.01
12.359,-26.13
12.375,1.34
12.390,28.87
12.406,39.92
12.421,27.63
12.437,-1.15
12.453,-29.74
12.468,-41.55
12.484,-29.63
12.500,-0.98
12.515,27.56
12.531,39.29
12.546,27.32
12.562,-1.45
12.578,-30.14
12.593,-41.98
12.609,-29.91
12.625,-0.91
12.640,28.16
12.656,40.45
12.671,28.93
12.687,0.39
12.703,-28.39
12.718,-40.7
12.734,-29.44
12.750,-1.5
12.765,26.42
12.781,37.72
12.796,25.58
12.812,-3.04
12.828,-31.31
12.843,-42.62
12.859,-30.08
12.875,-0.85
12.890,28.16
12.906,40.22
12.921,28.47
12.937,-0.13
12.953,-28.72
12.968,-40.67
12.984,-29.03
13.000,-0.85
13.015,27.14
13.031,38.49
13.046,26.55
13.062,-1.56
13.078,-29.03
13.093,-39.39
13.109,-25.98
13.125,3.85
13.140,33.14
13.156,45.21
13.171,33.25
13.187,4.31
13.203,-24.77
13.218,-37.27
13.234,-26.16
13.250,1.65
13.265,29.54
13.281,40.91
13.296,28.85
13.312,0.12
13.328,-28.64
13.343,-40.85
13.359,-29.5
13.375,-1.43
13.390,26.73
13.406,38.44
13.421,26.79
13.437,-1.45
13.453,-29.68
13.468,-41.38
13.484,-29.63
13.500,-1.35
13.515,26.8
13.531,38.28
13.546,26.22
13.562,-2.51
13.578,-31.23
13.593,-43.34
13.609,-31.76
13.625,-3.28
13.640,25.56
13.656,38.19
13.671,27.59
13.687,0.34
13.703,-27.16
13.718,-38.52
13.734,-26.78
13.750,1.28
13.765,29.2
13.781,40.53
13.796,28.42
13.812,-0.39
13.828,-29.28
13.843,-41.6
13.859,-30.14
13.875,-1.54
13.890,27.63
13.906,40.55
13.921,29.79
13.937,1.64
13.953,-27.45
13.968,-40.56
13.984,-29.89
14.000,-1.56
14.015,28.1
14.031,42.04
14.046,32.31
14.062,4.7
14.078,-24.53
14.093,-38.29
14.109,-28.46
14.125,-0.81
14.140,28.39
14.156,41.93
14.171,31.67
14.187,3.27
14.203,-26.93
14.218,-41.58
14.234,-32.22
14.250,-4.39
14.265,25.66
14.281,40.51
14.296,31.64
14.312,4.33
14.328,-25.26
14.343,-39.73
14.359,-30.37
14.375,-2.48
14.390,27.82
14.406,42.97
14.421,34.18
14.437,6.51
14.453,-23.9
14.468,-39.44
14.484,-31.07
14.500,-3.79
14.515,26.34
14.531,41.65
14.546,33.09
14.562,5.48
14.578,-25.21
14.593,-41.33
14.609,-33.71
14.625,-7.14
14.640,22.47
14.656,37.57
14.671,29.07
14.687,1.74
14.703,-28.41
14.718,-43.72
14.734,-34.95
14.750,-6.89
14.765,24.45
14.781,41.24
14.796,34.09
14.812,7.52
14.828,-22.67
14.843,-38.81
14.859,-31.54
14.875,-5.47
14.890,23.66
14.906,38.3
14.921,29.32
14.937,1.46
14.953,-29.23
14.968,-44.95
14.984,-36.27
15.000,-7.87
15.015,24.14
15.031,41.63
15.046,34.81
15.062,7.87
15.078,-23.33
15.093,-40.73
15.109,-34.31
15.125,-8.11
15.140,22.22
15.156,38.77
15.171,31.69
15.187,5.06
15.203,-25.37
15.218,-41.63
15.234,-33.85
15.250,-6.27
15.265,25.23
15.281,42.57
15.296,35.83
15.312,9.18
15.328,-21.51
15.343,-38.17
15.359,-30.89
15.375,-3.93
15.390,26.86
15.406,43.34
15.421,35.59
15.437,7.76
15.453,-24.19
15.468,-42.0
15.484,-35.47
15.500,-8.55
15.515,22.97
15.531,40.79
15.546,34.58
15.562,8.02
15.578,-23.27
15.593,-41.1
15.609,-35.08
15.625,-8.93
15.640,21.81
15.656,39.0
15.671,32.43
15.687,5.85
15.703,-25.07
15.718,-42.13
15.734,-35.08
15.750,-7.81
15.765,23.92
15.781,41.77
15.796,35.42
15.812,8.62
15.828,-22.82
15.843,-40.5
15.859,-33.88
15.875,-6.62
15.890,25.63
15.906,44.34
15.921,38.78
15.937,12.32
15.953,-19.54
15.968,-38.34
15.984,-33.27
16.000,-7.57
16.015,23.39
16.031,41.27
16.046,35.4
16.062,9.15
16.078,-21.98
16.093,-39.64
16.109,-33.29
16.125,-6.58
16.140,24.77
16.156,42.28
16.171,35.5
16.187,8.13
16.203,-23.9
16.218,-42.06
16.234,-35.8
16.250,-8.88
16.265,22.85
16.281,40.87
16.296,34.67
16.312,7.96
16.328,-23.49
16.343,-41.27
16.359,-34.93
16.375,-8.25
16.390,23.01
16.406,40.41
16.421,33.52
16.437,6.07
16.453,-26.09
16.468,-44.4
16.484,-38.16
16.500,-10.94
16.515,21.53
16.531,40.67
16.546,35.65
16.562,9.75
16.578,-21.55
16.593,-39.85
16.609,-34.4
16.625,-8.58
16.640,22.17
16.656,39.54
16.671,32.94
16.687,5.88
16.703,-26.01
16.718,-44.29
16.734,-38.3
16.750,-11.57
16.765,20.21
16.781,38.55
16.796,32.82
16.812,6.58
16.828,-24.47
16.843,-41.82
16.859,-34.87
16.875,-7.3
16.890,25.07
16.906,43.63
16.921,37.67
16.937,10.72
16.953,-21.39
16.968,-40.04
16.984,-34.34
17.000,-7.69
17.015,24.31
17.031,43.06
17.046,37.7
17.062,11.5
17.078,-20.07
17.093,-38.56
17.109,-33.2
17.125,-7.34
17.140,23.53
17.156,41.04
17.171,34.52
17.187,7.45
17.203,-24.5
17.218,-42.82
17.234,-36.73
17.250,-9.75
17.265,22.42
17.281,41.17
17.296,35.67
17.312,9.3
17.328,-22.3
17.343,-40.54
17.359,-34.63
17.375,-8.0
17.390,23.72
17.406,42.01
17.421,36.17
17.437,9.67
17.453,-21.82
17.468,-39.86
17.484,-33.83
17.500,-7.4
17.515,23.71
17.531,41.01
17.546,33.94
17.562,6.2
17.578,-26.36
17.593,-45.17
17.609,-39.58
17.625,-13.18
17.640,18.31
17.656,36.45
17.671,30.68
17.687,4.63
17.703,-26.02
17.718,-42.88
17.734,-35.53
17.750,-7.77
17.765,24.56
17.781,43.01
17.796,37.15
17.812,10.79
17.828,-20.26
17.843,-37.62
17.859,-31.01
17.875,-4.41
17.890,26.34
17.906,42.97
17.921,35.45
17.937,7.94
17.953,-23.55
17.968,-40.72
17.984,-33.51
18.000,-6.18
18.015,25.25
18.031,42.48
18.046,35.48
18.062,8.41
18.078,-22.77
18.093,-39.83
18.109,-32.72
18.125,-5.61
18.140,25.63
18.156,42.84
18.171,36.05
18.187,9.36
18.203,-21.46
18.218,-38.4
18.234,-31.59
18.250,-5.32
18.265,24.58
18.281,40.18
18.296,31.89
18.312,4.21
18.328,-26.78
18.343,-43.02
18.359,-34.91
18.375,-7.14
18.390,24.05
18.406,40.51
18.421,32.67
18.437,5.16
18.453,-25.8
18.468,-42.12
18.484,-34.2
18.500,-6.77
18.515,24.06
18.531,40.27
18.546,32.43
18.562,5.18
18.578,-25.39
18.593,-41.43
18.609,-33.56
18.625,-6.58
18.640,23.47
18.656,38.93
18.671,30.78
18.687,4.04
18.703,-25.12
18.718,-39.07
18.734,-29.02
18.750,-0.45
18.765,30.17
18.781,45.15
18.796,35.85
18.812,7.83
18.828,-22.33
18.843,-36.94
18.859,-27.44
18.875,0.45
18.890,30.15
18.906,44.13
18.921,34.1
18.937,5.84
18.953,-24.08
18.968,-38.29
18.984,-28.57
19.000,-0.97
19.015,27.97
19.031,40.94
19.046,29.96
19.062,1.1
19.078,-29.07
19.093,-43.3
19.109,-33.64
19.125,-6.31
19.140,22.14
19.156,34.63
19.171,23.55
19.187,-4.78
19.203,-33.65
19.218,-46.11
19.234,-34.67
19.250,-6.08
19.265,22.78
19.281,34.9
19.296,23.1
19.312,-5.78
19.328,-34.68
19.343,-46.6
19.359,-34.4
19.375,-5.16
19.390,24.08
19.406,36.45
19.421,25.12
19.437,-2.78
19.453,-30.28
19.468,-40.76
19.484,-27.62
19.500,1.65
19.515,29.95
19.531,40.72
19.546,27.62
19.562,-1.76
19.578,-30.21
19.593,-41.13
19.609,-28.08
19.625,1.19
19.640,29.44
19.656,40.12
19.671,27.01
19.687,-2.13
19.703,-29.93
19.718,-39.82
19.734,-25.53
19.750,4.89
19.765,33.95
19.781,44.97
19.796,31.84
19.812,2.49
19.828,-25.67
19.843,-36.24
19.859,-23.33
19.875,4.76
19.890,30.65
19.906,38.3
19.921,22.55
19.937,-7.79
19.953,-35.02
19.968,-43.14
19.984,-27.2
20.000,3.45
20.015,30.86
20.031,39.02
20.046,23.28
20.062,-6.96
20.078,-33.62
20.093,-40.82
20.109,-23.94
20.125,7.35
20.140,34.93
20.156,42.93
20.171,26.96
20.187,-3.31
20.203,-29.77
20.218,-36.65
20.234,-19.54
20.250,11.66
20.265,38.82
20.281,46.18
20.296,29.62
20.312,-0.94
20.328,-27.28
20.343,-33.76
20.359,-16.32
20.375,14.78
20.390,41.19
20.406,47.2
20.421,29.03
20.437,-2.92
20.453,-29.97
20.468,-36.19
20.484,-17.54
20.500,15.47
20.515,44.06
20.531,52.07
20.546,35.32
20.562,4.01
20.578,-23.2
20.593,-30.25
20.609,-12.84
20.625,18.76
20.640,45.96
20.656,52.77
20.671,35.12
20.687,3.32
20.703,-24.02
20.718,-31.01
20.734,-13.68
20.750,17.35
20.765,43.22
20.781,47.97
20.796,27.81
20.812,-6.43
20.828,-35.59
20.843,-43.43
20.859,-25.96
20.875,5.93
20.890,32.96
20.906,38.71
20.921,19.22
20.937,-14.6
20.953,-43.26
20.968,-50.12
20.984,-30.92
21.000,3.33
21.015,33.03
21.031,41.28
21.046,23.69
21.062,-8.99
21.078,-37.34
21.093,-44.65
21.109,-26.66
21.125,5.63
21.140,32.67
21.156,37.77
21.171,16.93
21.187,-18.53
21.203,-48.67
21.218,-56.46
21.234,-37.62
21.250,-3.36
21.265,26.33
21.281,34.28
21.296,16.09
21.312,-17.18
21.328,-45.7
21.343,-52.42
21.359,-32.98
21.375,1.43
21.390,30.85
21.406,38.2
21.421,19.22
21.437,-14.75
21.453,-43.65
21.468,-50.32
21.484,-30.57
21.500,4.07
21.515,33.34
21.531,39.97
21.546,19.82
21.562,-15.43
21.578,-45.24
21.593,-52.13
21.609,-31.78
21.625,4.11
21.640,34.88
21.656,42.87
21.671,23.61
21.687,-11.32
21.703,-41.31
21.718,-48.7
21.734,-28.97
21.750,6.28
21.765,36.43
21.781,43.78
21.796,23.87
21.812,-11.62
21.828,-41.97
21.843,-49.37
21.859,-29.29
21.875,6.59
21.890,37.49
21.906,45.53
21.921,26.08
21.937,-9.21
21.953,-39.6
21.968,-47.23
21.984,-27.47
22.000,8.03
22.015,38.57
22.031,46.27
22.046,26.61
22.062,-8.76
22.078,-39.05
22.093,-46.37
22.109,-26.11
22.125,10.05
22.140,41.38
22.156,49.99
22.171,31.28
22.187,-3.23
22.203,-32.98
22.218,-40.33
22.234,-20.89
22.250,13.66
22.265,42.77
22.281,48.88
22.296,27.82
22.312,-8.47
22.328,-39.19
22.343,-46.63
22.359,-26.5
22.375,9.22
22.390,39.58
22.406,46.68
22.421,26.1
22.437,-10.25
22.453,-41.37
22.468,-49.29
22.484,-29.54
22.500,5.92
22.515,36.0
22.531,42.69
22.546,21.58
22.562,-15.18
22.578,-46.32
22.593,-53.69
22.609,-32.94
22.625,3.56
22.640,34.25
22.656,40.72
22.671,18.57
22.687,-19.7
22.703,-52.25
22.718,-60.4
22.734,-39.59
22.750,-2.21
22.765,29.99
22.781,38.48
22.796,18.79
22.812,-16.68
22.828,-46.49
22.843,-52.69
22.859,-31.43
22.875,4.59
22.890,34.09
22.906,39.69
22.921,18.33
22.937,-16.84
22.953,-44.66
22.968,-48.38
22.984,-25.65
23.000,10.03
23.015,37.77
23.031,41.58
23.046,19.89
23.062,-13.49
23.078,-38.05
23.093,-38.68
23.109,-14.74
23.125,19.59
23.140,44.15
23.156,44.72
23.171,21.53
23.187,-10.87
23.203,-32.67
23.218,-30.5
23.234,-5.48
23.250,27.48
23.265,48.77
23.281,45.61
23.296,19.68
23.312,-13.84
23.328,-35.5
23.343,-32.84
23.359,-7.83
23.375,24.41
23.390,44.76
23.406,41.22
23.421,16.06
23.437,-15.57
23.453,-34.84
23.468,-30.21
23.484,-4.39
23.500,27.26
23.515,45.99
23.531,40.52
23.546,13.89
23.562,-18.29
23.578,-37.19
23.593,-31.7
23.609,-5.12
23.625,26.81
23.640,45.25
23.656,39.25
23.671,12.24
23.687,-19.85
23.703,-38.2
23.718,-31.89
23.734,-4.56
23.750,27.75
23.765,46.1
23.781,39.64
23.796,12.02
23.812,-20.64
23.828,-39.41
23.843,-33.46
23.859,-6.56
23.875,25.24
23.890,43.21
23.906,36.83
23.921,10.06
23.937,-20.93
23.953,-37.55
23.968,-29.55
23.984,-1.2
24.000,31.14
24.015,48.84
24.031,41.73
24.046,14.03
24.062,-17.97
24.078,-35.81
24.093,-29.41
24.109,-3.12
24.125,26.98
24.140,42.74
24.156,34.53
24.171,6.95
24.187,-23.84
24.203,-39.88
24.218,-31.83
24.234,-4.75
24.250,25.02
24.265,39.53
24.281,29.79
24.296,1.06
24.312,-30.08
24.328,-45.66
24.343,-36.67
24.359,-8.55
24.375,22.1
24.390,37.38
24.406,28.44
24.421,0.71
24.437,-29.3
24.453,-43.88
24.468,-34.42
24.484,-6.65
24.500,22.85
24.515,36.55
24.531,26.32
24.546,-1.81
24.562,-31.03
24.578,-43.91
24.593,-32.51
24.609,-3.37
24.625,26.47
24.640,39.58
24.656,28.39
24.671,-0.42
24.687,-29.63
24.703,-41.93
24.718,-29.9
24.734,-0.6
24.750,28.7
24.765,40.79
24.781,28.62
24.796,-0.6
24.812,-29.54
24.828,-41.14
24.843,-28.46
24.859,1.03
24.875,30.06
24.890,41.85
24.906,29.92
24.921,1.86
24.937,-25.13
24.953,-34.68
24.968,-20.81
24.984,8.28
25.000,35.28
25.015,44.13
25.031,29.53
25.046,0.16
25.062,-26.37
25.078,-34.08
25.093,-17.96
25.109,12.8
25.125,40.4
25.140,48.93
25.156,33.82
25.171,4.51
25.187,-20.99
25.203,-26.86
25.218,-8.67
25.234,23.68
25.250,51.86
25.265,59.85
25.281,43.29
25.296,12.05
25.312,-15.53
25.328,-23.44
25.343,-7.32
25.359,22.78
25.375,48.47
25.390,53.8
25.406,34.72
25.421,1.52
25.437,-27.17
25.453,-35.29
25.468,-18.73
25.484,11.97
25.500,37.97
25.515,43.08
25.531,23.32
25.546,-10.64
25.562,-39.72
25.578,-47.68
25.593,-30.58
25.609,0.57
25.625,26.44
25.640,30.6
25.656,9.35
25.671,-25.97
25.687,-55.58
25.703,-62.78
25.718,-43.7
25.734,-9.87
25.750,18.65
25.765,24.9
25.781,4.99
25.796,-29.46
25.812,-58.15
25.828,-63.89
25.843,-42.6
25.859,-5.99
25.875,25.42
25.890,34.11
25.906,15.76
25.921,-18.08
25.937,-46.95
25.953,-53.38
25.968,-33.1
25.984,2.24
26.000,32.17
26.015,39.26
26.031,19.44
26.046,-15.35
26.062,-44.41
26.078,-50.29
26.093,-29.04
26.109,7.09
26.125,37.1
26.140,43.37
26.156,21.97
26.171,-14.59
26.187,-44.97
26.203,-51.24
26.218,-29.45
26.234,7.74
26.250,38.58
26.265,44.71
26.281,21.91
26.296,-17.12
26.312,-50.28
26.328,-58.75
26.343,-37.96
26.359,-0.43
26.375,31.68
26.390,39.38
26.406,17.96
26.421,-20.18
26.437,-53.07
26.453,-61.93
26.468,-42.25
26.484,-6.32
26.500,24.45
26.515,32.22
26.531,13.39
26.546,-19.36
26.562,-45.13
26.578,-47.36
26.593,-23.86
26.609,11.83
26.625,39.05
26.640,42.28
26.656,20.59
26.671,-11.84
26.687,-34.66
26.703,-33.5
26.718,-8.59
26.734,25.37
26.750,48.35
26.765,46.86
26.781,22.01
26.796,-11.12
26.812,-32.8
26.828,-30.15
26.843,-4.79
26.859,28.18
26.875,49.47
26.890,46.85
26.906,22.4
26.921,-8.77
26.937,-27.77
26.953,-22.97
26.968,2.93
26.984,34.57
27.000,53.14
27.015,47.35
27.031,20.21
27.046,-12.6
27.062,-32.23
27.078,-27.46
27.093,-1.5
27.109,30.0
27.125,48.37
27.140,42.71
27.156,16.44
27.171,-14.74
27.187,-32.33
27.203,-25.83
27.218,0.84
27.234,31.72
27.250,48.34
27.265,40.49
27.281,12.36
27.296,-19.8
27.312,-37.49
27.328,-30.65
27.343,-3.78
27.359,26.76
27.375,42.54
27.390,33.82
27.406,5.33
27.421,-26.46
27.437,-43.27
27.453,-35.63
27.468,-8.65
27.484,21.16
27.500,35.78
27.515,26.28
27.531,-1.89
27.546,-32.07
27.562,-46.42
27.578,-36.37
27.593,-7.86
27.609,22.25
27.625,36.22
27.640,25.88
27.656,-2.58
27.671,-32.14
27.687,-45.18
27.703,-33.68
27.718,-4.16
27.734,26.25
27.750,40.02
27.765,29.45
27.781,1.15
27.796,-27.78
27.812,-40.14
27.828,-28.6
27.843,-0.22
27.859,27.97
27.875,39.21
27.890,26.99
27.906,-1.12
27.921,-27.91
27.937,-36.97
27.953,-22.36
27.968,7.56
27.984,35.3
28.000,44.56
28.015,29.98
28.031,0.26
28.046,-26.82
28.062,-35.09
28.078,-19.29
28.093,11.56
28.109,39.67
28.125,49.04
28.140,34.8
28.156,6.09
28.171,-19.31
28.187,-25.71
28.203,-8.56
28.218,22.48
28.234,49.41
28.250,56.46
28.265,39.39
28.281,8.08
28.296,-19.17
28.312,-26.43
28.328,-9.26
28.343,22.34
28.359,50.0
28.375,57.67
28.390,40.99
28.406,9.84
28.421,-17.55
28.437,-25.36
28.453,-9.44
28.468,19.9
28.484,44.17
28.500,47.52
28.515,26.19
28.531,-9.06
28.546,-39.2
28.562,-47.99
28.578,-31.46
28.593,-0.51
28.609,25.61
28.625,30.52
28.640,10.34
28.656,-23.86
28.671,-52.65
28.687,-59.58
28.703,-40.86
28.718,-7.86
28.734,19.64
28.750,24.99
28.765,4.44
28.781,-30.37
28.796,-59.29
28.812,-65.34
28.828,-44.63
28.843,-8.9
28.859,21.45
28.875,29.11
28.890,10.03
28.906,-24.07
28.921,-52.71
28.937,-58.49
28.953,-37.29
28.968,-0.96
28.984,29.87
29.000,37.66
29.015,18.29
29.031,-16.21
29.046,-44.99
29.062,-50.37
29.078,-28.29
29.093,8.95
29.109,40.16
29.125,47.42
29.140,26.58
29.156,-9.94
29.171,-40.73
29.187,-47.72
29.203,-26.8
29.218,9.41
29.234,39.14
29.250,44.07
29.265,20.05
29.281,-20.08
29.296,-54.12
29.312,-63.28
29.328,-43.05
29.343,-6.04
29.359,25.76
29.375,33.62
29.390,13.16
29.406,-23.14
29.421,-53.59
29.437,-60.04
29.453,-38.63
29.468,-2.02
29.484,28.57
29.500,35.92
29.515,17.13
29.531,-14.74
29.546,-39.06
29.562,-39.97
29.578,-16.05
29.593,18.84
29.609,44.25
29.625,45.37
29.640,21.97
29.656,-11.39
29.671,-34.45
29.687,-33.23
29.703,-8.35
29.718,25.35
29.734,47.94
29.750,46.18
29.765,21.28
29.781,-11.77
29.796,-33.49
29.812,-31.21
29.828,-6.68
29.843,25.2
29.859,45.4
29.875,41.97
29.890,17.11
29.906,-14.15
29.921,-33.15
29.937,-28.55
29.953,-3.19
29.968,27.64
29.984,45.46
30.000,39.43
30.015,12.97
30.031,-18.14
30.046,-35.29
30.062,-27.86
30.078,0.29
30.093,33.0
30.109,51.38
30.125,44.75
30.140,16.97
30.156,-15.73
30.171,-34.46
30.187,-28.56
30.203,-1.95
30.218,29.23
30.234,46.32
30.250,39.01
30.265,11.48
30.281,-19.97
30.296,-36.79
30.312,-28.89
30.328,-0.85
30.343,30.84
30.359,47.59
30.375,39.54
30.390,11.33
30.406,-20.56
30.421,-37.77
30.437,-30.76
30.453,-4.54
30.468,24.46
30.484,38.28
30.500,28.09
30.515,-0.52
30.531,-30.8
30.546,-44.96
30.562,-34.56
30.578,-5.82
30.593,24.23
30.609,37.9
30.625,27.27
30.640,-1.18
30.656,-30.26
30.671,-42.57
30.687,-30.58
30.703,-1.34
30.718,27.85
30.734,39.81
30.750,27.63
30.765,-1.22
30.781,-29.29
30.796,-39.63
30.812,-25.76
30.828,4.3
30.843,32.92
30.859,43.39
30.875,29.78
30.890,0.45
30.906,-26.93
30.921,-35.93
30.937,-21.01
30.953,9.01
30.968,36.43
30.984,45.15
31.000,30.22
31.015,0.77
31.031,-25.32
31.046,-32.16
31.062,-15.01
31.078,16.63
31.093,44.8
31.109,53.69
31.125,38.88
31.140,9.93
31.156,-15.24
31.171,-21.06
31.187,-3.39
31.203,27.74
31.218,54.08
31.234,59.92
31.250,41.26
31.265,8.31
31.281,-20.43
31.296,-28.94
31.312,-12.92
31.328,17.44
31.343,43.57
31.359,49.39
31.375,30.69
31.390,-2.36
31.406,-31.18
31.421,-39.8
31.437,-24.1
31.453,5.38
31.468,29.82
31.484,33.18
31.500,11.7
31.515,-23.62
31.531,-53.45
31.546,-61.37
31.562,-43.45
31.578,-10.85
31.593,16.81
31.609,22.87
31.625,3.41
31.640,-30.29
31.656,-58.44
31.671,-64.26
31.687,-43.87
31.703,-8.8
31.718,20.83
31.734,27.99
31.750,8.8
31.765,-25.03
31.781,-53.19
31.796,-58.6
31.812,-37.44
31.828,-1.75
31.843,27.83
31.859,33.98
31.875,12.94
31.890,-22.94
31.906,-52.57
31.921,-58.27
31.937,-36.13
31.953,1.31
31.968,32.57
31.984,39.57
32.000,18.2
32.015,-18.91
32.031,-49.95
32.046,-56.44
32.062,-34.09
32.078,4.33
32.093,36.59
32.109,43.69
32.125,21.0
32.140,-18.8
32.156,-53.32
32.171,-63.3
32.187,-43.8
32.203,-7.02
32.218,25.36
32.234,34.93
32.250,17.48
32.265,-14.72
32.281,-40.74
32.296,-43.69
32.312,-20.97
32.328,14.22
32.343,41.24
32.359,44.46
32.375,22.8
32.390,-9.66
32.406,-32.58
32.421,-31.54
32.437,-6.83
32.453,26.81
32.468,49.33
32.484,47.39
32.500,22.27
32.515,-10.81
32.531,-32.09
32.546,-28.91
32.562,-3.22
32.578,29.6
32.593,50.12
32.609,46.21
32.625,20.19
32.640,-12.54
32.656,-32.86
32.671,-28.96
32.687,-3.42
32.703,28.44
32.718,47.75
32.734,43.1
32.750,17.25
32.765,-14.43
32.781,-33.29
32.796,-28.22
32.812,-2.4
32.828,28.68
32.843,46.53
32.859,40.47
32.875,14.08
32.890,-16.84
32.906,-33.84
32.921,-26.61
32.937,0.64
32.953,31.66
32.968,47.89
32.984,39.37
33.000,10.68
33.015,-21.57
33.031,-38.75
33.046,-31.07
33.062,-3.53
33.078,27.18
33.093,42.7
33.109,33.81
33.125,5.82
33.140,-24.56
33.156,-39.4
33.171,-30.11
33.187,-2.67
33.203,26.14
33.218,38.85
33.234,27.74
33.250,-0.58
33.265,-29.08
33.281,-40.61
33.296,-28.01
33.312,1.46
33.328,30.61
33.343,42.69
33.359,31.24
33.375,3.98
33.390,-21.86
33.406,-30.01
33.421,-14.69
33.437,15.66
33.453,43.58
33.468,53.04
33.484,38.98
33.500,10.29
33.515,-15.35
33.531,-22.12
33.546,-5.29
33.562,25.67
33.578,52.79
33.593,60.19
33.609,43.39
33.625,12.02
33.640,-15.87
33.656,-24.43
33.671,-9.26
33.687,19.74
33.703,44.37
33.718,48.82
33.734,29.05
33.750,-4.74
33.765,-34.1
33.781,-43.16
33.796,-27.9
33.812,1.17
33.828,25.41
33.843,29.0
33.859,8.33
33.875,-25.57
33.890,-53.62
33.906,-59.89
33.921,-41.02
33.937,-8.64
33.953,17.5
33.968,21.02
33.984,-1.32
34.000,-37.41
34.015,-66.78
34.031,-72.44
34.046,-50.82
34.062,-14.24
34.078,16.39
34.093,23.48
34.109,3.16
34.125,-32.25
34.140,-61.52
34.156,-66.74
34.171,-43.82
34.187,-5.3
34.203,27.15
34.218,35.07
34.234,14.11
34.250,-23.22
34.265,-55.0
34.281,-62.54
34.296,-41.36
34.312,-3.97
34.328,27.73
34.343,35.14
34.359,14.02
34.375,-22.97
34.390,-53.99
34.406,-60.87
34.421,-39.75
34.437,-3.3
34.453,27.39
34.468,35.44
34.484,18.24
34.500,-11.08
34.515,-32.21
34.531,-30.02
34.546,-3.87
34.562,31.82
34.578,56.58
34.593,56.11
34.609,30.87
34.625,-3.97
34.640,-27.97
34.656,-27.29
34.671,-2.92
34.687,30.05
34.703,51.77
34.718,49.27
34.734,24.15
34.750,-8.4
34.765,-28.97
34.781,-25.29
34.796,0.31
34.812,32.43
34.828,51.9
34.843,47.02
34.859,20.57
34.875,-11.8
34.890,-31.05
34.906,-25.84
34.921,0.57
34.937,32.38
34.953,50.71
34.968,44.67
34.984,17.76
35.000,-14.14
35.015,-32.43
35.031,-26.7
35.046,-1.04
35.062,28.52
35.078,43.66
35.093,34.64
35.109,6.09
35.125,-25.57
35.140,-42.09
35.156,-34.04
35.171,-6.6
35.187,23.68
35.203,38.79
35.218,29.91
35.234,2.63
35.250,-26.31
35.265,-39.3
35.281,-28.07
35.296,1.02
35.312,31.04
35.328,44.57
35.343,34.09
35.359,6.35
35.375,-21.58
35.390,-32.7
35.406,-20.1
35.421,8.82
35.437,36.92
35.453,47.8
35.468,35.47
35.484,7.99
35.500,-17.33
35.515,-24.5
35.531,-8.22
35.546,22.61
35.562,50.31
35.578,58.94
35.593,43.68
35.609,13.77
35.625,-12.91
35.640,-20.52
35.656,-4.49
35.671,25.47
35.687,51.21
35.703,56.79
35.718,37.84
35.734,4.27
35.750,-25.61
35.765,-35.84
35.781,-22.08
35.796,5.54
35.812,28.66
35.828,31.52
35.843,10.35
35.859,-24.13
35.875,-53.06
35.890,-60.46
35.906,-42.68
35.921,-10.93
35.937,15.42
35.953,20.07
35.968,-0.48
35.984,-34.71
36.000,-62.79
36.015,-68.16
36.031,-47.26
36.046,-12.02
36.062,17.23
36.078,23.49
36.093,3.15
36.109,-31.65
36.125,-60.17
36.140,-65.08
36.156,-42.65
36.171,-5.28
36.187,25.84
36.203,32.89
36.218,11.94
36.234,-24.47
36.250,-54.76
36.265,-60.7
36.281,-38.17
36.296,0.14
36.312,32.16
36.328,39.15
36.343,16.6
36.359,-22.8
36.375,-56.79
36.390,-66.3
36.406,-46.5
36.421,-9.63
36.437,22.7
36.453,32.15
36.468,14.59
36.484,-17.63
36.500,-43.53
36.515,-46.11
36.531,-22.74
36.546,13.29
36.562,41.12
36.578,44.79
36.593,22.94
36.609,-10.33
36.625,-34.36
36.640,-34.21
36.656,-9.63
36.671,24.81
36.687,48.86
36.703,48.64
36.718,24.88
36.734,-7.43
36.750,-28.5
36.765,-25.33
36.781,0.4
36.796,33.42
36.812,54.18
36.828,50.33
36.843,24.06
36.859,-9.19
36.875,-30.05
36.890,-26.54
36.906,-1.08
36.921,30.91
36.937,50.42
36.953,45.82
36.968,19.8
36.984,-12.23
37.000,-31.49
37.015,-26.68
37.031,-0.89
37.046,30.38
37.062,48.52
37.078,42.71
37.093,16.34
37.109,-14.97
37.125,-32.87
37.140,-27.06
37.156,-1.57
37.171,27.69
37.187,42.59
37.203,33.5
37.218,5.14
37.234,-26.08
37.250,-42.01
37.265,-33.32
37.281,-5.35
37.296,25.24
37.312,40.34
37.328,31.08
37.343,2.96
37.359,-27.26
37.375,-41.75
37.390,-31.95
37.406,-3.79
37.421,25.99
37.437,39.86
37.453,29.86
37.468,2.25
37.484,-26.13
37.500,-38.05
37.515,-25.95
37.531,3.33
37.546,32.81
37.562,45.43
37.578,34.17
37.593,6.16
37.609,-21.47
37.625,-32.02
37.640,-18.91
37.656,10.12
37.671,37.88
37.687,47.99
37.703,34.67
37.718,6.14
37.734,-20.2
37.750,-28.28
37.765,-12.82
37.781,17.36
37.796,44.65
37.812,53.22
37.828,38.33
37.843,9.23
37.859,-16.31
37.875,-22.59
37.890,-5.2
37.906,26.06
37.921,53.01
37.937,59.76
37.953,42.02
37.968,9.69
37.984,-18.92
38.000,-27.85
38.015,-12.75
38.031,16.31
38.046,40.93
38.062,45.19
38.078,25.06
38.093,-9.1
38.109,-38.61
38.125,-47.43
38.140,-31.5
38.156,-1.45
38.171,23.81
38.187,28.17
38.203,7.85
38.218,-26.18
38.234,-54.64
38.250,-61.18
38.265,-42.0
38.281,-8.37
38.296,19.99
38.312,26.42
38.328,7.02
38.343,-26.83
38.359,-55.29
38.375,-61.61
38.390,-41.93
38.406,-7.81
38.421,20.67
38.437,26.69
38.453,6.53
38.468,-27.91
38.484,-56.25
38.500,-61.48
38.515,-39.86
38.531,-3.57
38.546,26.66
38.562,33.44
38.578,12.96
38.593,-22.51
38.609,-51.93
38.625,-57.64
38.640,-35.67
38.656,1.53
38.671,32.58
38.687,39.4
38.703,17.83
38.718,-19.58
38.734,-51.06
38.750,-58.07
38.765,-36.2
38.781,1.96
38.796,34.33
38.812,41.93
38.828,20.05
38.843,-18.84
38.859,-52.54
38.875,-61.94
38.890,-42.11
38.906,-5.21
38.921,27.13
38.937,36.54
38.953,18.74
38.968,-13.98
38.984,-40.63
39.000,-44.12
39.015,-21.66
39.031,13.64
39.046,40.92
39.062,44.16
39.078,21.81
39.093,-12.11
39.109,-36.85
39.125,-37.13
39.140,-12.31
39.156,23.17
39.171,48.84
39.187,50.16
39.203,27.13
39.218,-5.76
39.234,-28.62
39.250,-27.81
39.265,-4.12
39.281,27.85
39.296,48.66
39.312,45.47
39.328,19.72
39.343,-13.71
39.359,-35.55
39.375,-33.41
39.390,-9.12
39.406,22.46
39.421,42.48
39.437,39.16
39.453,14.83
39.468,-15.46
39.484,-33.13
39.500,-26.96
39.531,32.26
39.546,51.04
39.562,45.25
39.578,18.08
39.593,-14.71
39.609,-34.26
39.625,-29.43
39.640,-3.47
39.656,27.96
39.671,46.16
39.687,40.28
39.703,13.71
39.718,-17.82
39.734,-35.76
39.750,-29.49
39.765,-2.82
39.781,28.35
39.796,45.46
39.812,38.13
39.828,10.38
39.843,-21.66
39.859,-39.42
39.875,-32.64
39.890,-5.62
39.906,25.4
39.921,41.93
39.937,34.03
39.953,6.25
39.968,-24.99
39.984,-41.34
40.000,-33.15
40.015,-5.41
40.031,25.28
40.046,40.67
40.062,31.59
40.078,3.29
40.093,-27.51
40.109,-42.79
40.125,-33.65
40.140,-5.81
40.156,24.0
40.171,38.03
40.187,27.97
40.203,-0.16
40.218,-29.54
40.234,-42.76
40.250,-32.0
40.265,-3.81
40.281,24.89
40.296,37.11
40.312,25.76
40.328,-2.12
40.343,-29.42
40.359,-39.49
40.375,-25.76
40.390,3.95
40.406,32.29
40.421,42.72
40.437,29.31
40.453,0.24
40.468,-26.9
40.484,-35.67
40.500,-20.32
40.515,10.59
40.531,39.36
40.546,49.67
40.562,36.07
40.578,7.16
40.593,-19.5
40.609,-27.86
40.625,-12.73
40.640,16.94
40.656,43.54
40.671,51.27
40.687,35.45
40.703,5.33
40.718,-21.26
40.734,-28.53
40.750,-11.87
40.765,19.08
40.781,46.33
40.796,54.07
40.812,37.97
40.828,7.75
40.843,-18.44
40.859,-24.85
40.875,-7.27
40.890,24.15
40.906,50.97
40.921,57.19
40.937,38.66
40.953,5.56
40.968,-23.54
40.984,-32.56
41.000,-17.27
41.015,12.0
41.031,36.62
41.046,40.57
41.062,19.93
41.078,-14.69
41.093,-44.35
41.109,-52.93
41.125,-36.46
41.140,-5.8
41.156,19.93
41.171,24.54
41.187,4.32
41.203,-29.58
41.218,-57.74
41.234,-63.78
41.250,-44.01
41.265,-9.87
41.281,18.81
41.296,25.27
41.312,5.71
41.328,-28.32
41.343,-56.77
41.359,-62.68
41.375,-42.15
41.390,-6.88
41.406,22.84
41.421,29.84
41.437,10.25
41.453,-24.04
41.468,-52.48
41.484,-57.81
41.500,-36.2
41.515,0.09
41.531,30.1
41.546,36.23
41.562,14.64
41.578,-22.15
41.593,-52.7
41.609,-58.99
41.625,-36.93
41.640,0.8
41.656,32.36
41.671,39.22
41.687,16.97
41.703,-21.76
41.718,-54.91
41.734,-63.58
41.750,-43.14
41.765,-5.99
41.781,25.87
41.796,33.68
41.812,12.92
41.828,-23.93
41.843,-55.03
41.859,-61.97
41.875,-40.62
41.890,-3.41
41.906,28.48
41.921,37.79
41.937,21.41
41.953,-7.92
41.968,-29.96
41.984,-29.28
42.000,-4.74
42.015,29.71
42.031,53.82
42.046,53.17
42.062,28.0
42.078,-6.83
42.093,-30.95
42.109,-30.46
42.125,-6.15
42.140,27.0
42.156,49.07
42.171,46.92
42.187,21.89
42.203,-10.9
42.218,-31.93
42.234,-28.64
42.250,-3.02
42.265,29.7
42.281,50.25
42.296,46.53
42.312,20.85
42.328,-11.38
42.343,-31.03
42.359,-26.35
42.375,-0.06
42.390,32.28
42.406,51.55
42.421,46.29
42.437,19.45
42.453,-13.21
42.468,-32.64
42.484,-27.53
42.500,-1.18
42.515,30.54
42.531,48.69
42.546,42.34
42.562,15.09
42.578,-17.06
42.593,-35.39
42.609,-29.43
42.625,-3.35
42.640,26.66
42.656,42.19
42.671,33.57
42.687,5.61
42.703,-25.09
42.718,-40.35
42.734,-31.01
42.750,-2.62
42.765,28.04
42.781,43.02
42.796,33.85
42.812,6.49
42.828,-22.23
42.843,-34.83
42.859,-23.49
42.875,5.17
42.890,34.27
42.906,46.87
42.921,36.0
42.937,8.78
42.953,-17.8
42.968,-27.34
42.984,-13.54
43.000,15.7
43.015,43.25
43.031,53.03
43.046,39.54
43.062,11.18
43.078,-14.68
43.093,-22.19
43.109,-6.33
43.125,23.83
43.140,50.58
43.156,58.0
43.171,41.39
43.187,10.09
43.203,-18.07
43.218,-27.26
43.234,-12.95
43.250,15.19
43.265,39.15
43.281,43.24
43.296,23.38
43.312,-10.3
43.328,-39.46
43.343,-48.35
43.359,-33.05
43.375,-4.12
43.390,19.81
43.406,23.0
43.421,2.07
43.437,-31.83
43.453,-59.48
43.468,-64.98
43.484,-45.17
43.500,-11.88
43.515,14.96
43.531,18.92
43.546,-3.12
43.562,-38.85
43.578,-67.65
43.593,-72.44
43.609,-49.76
43.625,-12.19
43.640,19.03
43.656,26.11
43.671,5.13
43.687,-31.39
43.703,-61.87
43.718,-68.08
43.734,-45.81
43.750,-7.7
43.765,24.27
43.781,31.35
43.796,9.05
43.812,-29.98
43.828,-63.51
43.843,-72.54
43.859,-52.34
43.875,-15.11
43.890,17.67
43.906,28.03
43.921,12.13
43.937,-17.56
43.953,-40.45
43.968,-40.36
43.984,-15.44
44.000,20.56
44.015,47.07
44.031,48.99
44.046,25.97
44.062,-7.31
44.078,-30.24
44.093,-28.51
44.109,-2.66
44.125,32.24
44.140,55.85
44.156,54.6
44.171,29.56
44.187,-4.07
44.203,-26.36
44.218,-24.28
44.234,0.57
44.250,33.07
44.265,53.8
44.281,50.47
44.296,25.2
44.312,-6.79
44.328,-26.41
44.343,-22.0
44.359,3.67
44.375,35.11
44.390,53.53
44.406,47.92
44.421,21.56
44.437,-9.84
44.453,-27.8
44.468,-21.94
44.484,3.65
44.500,32.93
44.515,47.62
44.531,38.02
44.546,8.89
44.562,-23.25
44.578,-40.05
44.593,-32.06
44.609,-4.46
44.625,26.1
44.640,41.52
44.656,32.85
44.671,5.53
44.687,-23.82
44.703,-37.62
44.718,-27.56
44.734,0.2
44.750,28.96
44.765,41.52
44.781,30.52
44.796,2.76
44.812,-24.7
44.828,-34.92
44.843,-20.99
44.859,9.53
44.875,39.31
44.890,51.52
44.906,39.73
44.921,11.7
44.937,-15.23
44.953,-24.61
44.968,-10.48
44.984,18.94
45.000,46.31
45.015,55.59
45.031,41.57
45.046,12.92
45.062,-12.86
45.078,-19.99
45.093,-3.7
45.109,26.6
45.125,52.97
45.140,59.43
45.156,41.43
45.171,8.57
45.187,-21.08
45.203,-31.57
45.218,-18.42
45.234,8.55
45.250,31.22
45.265,33.94
45.281,12.88
45.296,-21.46
45.312,-50.43
45.328,-58.22
45.343,-41.15
45.359,-10.28
45.375,15.24
45.390,19.31
45.406,-1.53
45.421,-35.87
45.437,-64.07
45.453,-69.74
45.468,-49.44
45.484,-14.95
45.500,13.6
45.515,19.44
45.531,-0.96
45.546,-35.55
45.562,-63.81
45.578,-68.6
45.593,-46.24
45.609,-9.07
45.625,21.92
45.640,29.06
45.656,8.42
45.671,-27.58
45.687,-57.57
45.703,-63.46
45.718,-41.11
45.734,-3.05
45.750,28.91
45.765,36.25
45.781,14.54
45.796,-23.64
45.812,-56.26
45.828,-64.49
45.843,-43.71
45.859,-6.26
45.875,26.14
45.890,35.12
45.906,16.52
45.921,-17.15
45.937,-44.54
45.953,-48.14
45.968,-24.8
45.984,12.35
46.000,42.15
46.015,47.9
46.031,27.47
46.046,-5.52
46.062,-30.28
46.078,-31.2
46.093,-7.3
46.109,27.22
46.125,51.86
46.140,51.98
46.156,27.56
46.171,-6.72
46.187,-30.63
46.203,-30.27
46.218,-6.34
46.234,26.36
46.250,48.08
46.265,45.77
46.281,20.84
46.296,-11.73
46.312,-32.54
46.328,-29.22
46.343,-3.84
46.359,28.36
46.375,48.26
46.390,44.07
46.406,18.35
46.421,-13.39
46.437,-32.17
46.453,-26.59
46.468,0.23
46.484,32.58
46.500,51.57
46.515,46.14
46.531,19.61
46.546,-12.23
46.562,-30.71
46.578,-25.14
46.593,0.73
46.609,31.08
46.625,47.57
46.640,40.12
46.656,12.91
46.671,-18.01
46.687,-34.56
46.703,-27.18
46.718,-0.76
46.734,28.36
46.750,42.19
46.765,31.76
46.781,2.49
46.796,-28.87
46.812,-44.27
46.828,-34.9
46.843,-6.59
46.859,23.8
46.875,38.37
46.890,28.68
46.906,0.63
46.921,-29.02
46.937,-42.83
46.953,-32.83
46.968,-5.4
46.984,22.76
47.000,34.7
47.015,23.3
47.031,-4.5
47.046,-31.67
47.062,-41.46
47.078,-27.15
47.093,3.61
47.109,33.51
47.125,45.83
47.140,34.24
47.156,6.56
47.171,-19.9
47.187,-28.77
47.203,-14.2
47.218,15.46
47.234,42.74
47.250,51.54
47.265,36.65
47.281,6.88
47.296,-20.01
47.312,-27.98
47.328,-11.97
47.343,18.79
47.359,46.39
47.375,54.89
47.390,39.66
47.406,10.14
47.421,-15.66
47.437,-21.97
47.453,-4.41
47.468,27.02
47.484,53.97
47.500,60.44
47.515,42.21
47.531,9.32
47.546,-19.79
47.562,-29.09
47.578,-14.31
47.593,14.35
47.609,38.45
47.625,42.08
47.640,21.34
47.656,-13.25
47.671,-42.92
47.687,-51.67
47.703,-35.58
47.718,-5.48
47.734,19.64
47.750,23.64
47.765,2.89
47.781,-31.43
47.796,-59.84
47.812,-65.94
47.828,-45.99
47.843,-11.51
47.859,17.55
47.875,24.33
47.890,4.93
47.906,-29.08
47.921,-57.56
47.937,-63.44
47.953,-42.72
47.968,-7.06
47.984,23.17
48.000,30.71
48.015,11.53
48.031,-22.57
48.046,-51.09
48.062,-56.75
48.078,-35.61
48.093,0.24
48.109,30.02
48.125,36.27
48.140,15.14
48.156,-20.95
48.171,-50.79
48.187,-56.57
48.203,-34.33
48.218,3.3
48.234,34.68
48.250,41.53
48.265,19.64
48.281,-18.35
48.296,-50.48
48.312,-58.08
48.328,-36.64
48.343,1.29
48.359,33.68
48.375,41.74
48.390,20.84
48.406,-16.54
48.421,-48.57
48.437,-56.67
48.453,-36.53
48.468,-0.58
48.484,29.78
48.500,36.8
48.515,16.99
48.531,-16.85
48.546,-43.72
48.562,-46.92
48.578,-24.08
48.593,11.44
48.609,39.02
48.625,43.06
48.640,22.27
48.656,-9.49
48.671,-32.09
48.687,-31.08
48.703,-6.43
48.718,27.46
48.734,50.7
48.750,49.67
48.765,25.18
48.781,-8.01
48.796,-30.25
48.812,-28.49
48.828,-4.1
48.843,28.01
48.859,48.49
48.875,44.87
48.890,18.93
48.906,-14.22
48.921,-35.37
48.937,-32.32
48.953,-7.17
48.968,25.01
48.984,45.28
49.000,41.86
49.015,17.17
49.031,-13.59
49.046,-31.72
49.062,-25.86
49.078,1.0
49.093,33.32
49.109,52.24
49.125,46.56
49.140,19.38
49.156,-13.53
49.171,-33.3
49.187,-28.79
49.203,-3.33
49.218,27.35
49.234,44.62
49.250,37.83
49.265,10.75
49.281,-20.7
49.296,-38.01
49.312,-30.97
49.328,-3.93
49.343,26.86
49.359,42.91
49.375,34.4
49.390,5.96
49.406,-25.91
49.421,-42.83
49.437,-35.21
49.453,-8.04
49.468,22.21
49.484,37.49
49.500,28.78
49.515,1.4
49.531,-28.13
49.546,-42.15
49.562,-32.17
49.578,-4.2
49.593,25.05
49.609,38.13
49.625,27.25
49.640,-1.18
49.656,-30.18
49.671,-42.53
49.687,-30.77
49.703,-1.85
49.718,27.19
49.734,39.35
49.750,27.72
49.765,-0.45
49.781,-27.98
49.796,-38.07
49.812,-24.1
49.828,6.17
49.843,35.36
49.859,46.73
49.875,34.06
49.890,5.25
49.906,-22.31
49.921,-32.18
49.937,-18.48
49.953,10.42
49.968,37.08
49.984,45.42
50.000,30.27
50.015,0.51
50.031,-26.01
50.046,-33.22
50.062,-16.11
50.078,15.98
50.093,44.99
50.109,54.79
50.125,40.62
50.140,11.83
50.156,-13.54
50.171,-19.67
50.187,-2.12
50.203,29.18
50.218,55.96
50.234,62.32
50.250,44.11
50.265,11.5
50.281,-16.97
50.296,-25.32
50.312,-9.38
50.328,20.47
50.343,45.5
50.359,49.65
50.375,28.94
50.390,-6.04
50.406,-36.33
50.421,-45.7
50.437,-30.06
50.453,-0.14
50.468,24.97
50.484,29.02
50.500,8.13
50.515,-26.7
50.531,-56.08
50.546,-63.52
50.562,-45.1
50.578,-12.0
50.593,16.09
50.609,22.48
50.625,3.24
50.640,-30.33
50.656,-58.41
50.671,-64.23
50.687,-43.88
50.703,-8.96
50.718,20.44
50.734,27.29
50.750,7.7
50.765,-26.56
50.781,-55.13
50.796,-60.83
50.812,-39.72
50.828,-3.75
50.843,26.5
50.859,33.64
50.875,13.78
50.890,-20.96
50.906,-49.77
50.921,-55.12
50.937,-33.17
50.953,3.64
50.968,34.08
50.984,40.29
51.000,18.27
51.015,-19.33
51.031,-50.83
51.046,-57.87
51.062,-36.21
51.078,1.53
51.093,33.32
51.109,40.33
51.125,17.97
51.140,-21.19
51.156,-54.92
51.171,-64.1
51.187,-43.84
51.203,-6.34
51.218,26.63
51.234,36.48
51.250,18.72
51.265,-14.41
51.281,-41.78
51.296,-45.94
51.312,-23.67
51.328,12.12
51.343,40.57
51.359,45.38
51.375,24.63
51.390,-8.01
51.406,-31.97
51.421,-32.04
51.437,-7.59
51.453,27.01
51.468,51.38
51.484,51.17
51.500,26.64
51.515,-7.39
51.531,-30.75
51.546,-29.66
51.562,-4.91
51.578,28.64
51.593,51.19
51.609,49.52
51.625,24.78
51.640,-8.26
51.656,-30.26
51.671,-28.65
51.687,-5.08
51.703,25.72
51.718,44.93
51.734,40.76
51.750,15.53
51.765,-15.69
51.781,-34.33
51.796,-29.17
51.812,-3.24
51.828,27.97
51.843,45.83
51.859,39.5
51.875,12.39
51.890,-19.69
51.906,-38.05
51.921,-31.97
51.937,-5.17
51.953,26.42
51.968,44.16
51.984,37.55
52.000,10.46
52.015,-21.06
52.031,-38.45
52.046,-31.4
52.062,-4.1
52.078,27.33
52.093,44.47
52.109,37.42
52.125,10.56
52.140,-19.96
52.156,-36.1
52.171,-28.42
52.187,-1.89
52.203,27.24
52.218,41.21
52.234,31.33
52.250,3.1
52.265,-26.86
52.281,-40.94
52.296,-30.8
52.312,-2.55
52.328,26.97
52.343,40.28
52.359,29.53
52.375,1.09
52.390,-28.09
52.406,-40.78
52.421,-29.49
52.437,-1.12
52.453,27.32
52.468,38.85
52.484,26.59
52.500,-2.18
52.515,-30.21
52.531,-40.75
52.546,-27.19
52.562,2.63
52.578,31.35
52.593,42.37
52.609,29.64
52.625,1.19
52.640,-25.58
52.656,-34.38
52.671,-19.54
52.687,10.41
52.703,38.05
52.718,47.42
52.734,33.54
52.750,5.24
52.765,-19.9
52.781,-26.22
52.796,-9.08
52.812,22.06
52.828,49.36
52.843,57.1
52.859,40.97
52.875,10.62
52.890,-15.9
52.906,-22.85
52.921,-5.96
52.937,24.78
52.953,51.07
52.968,57.01
52.984,38.47
53.000,5.55
53.015,-23.19
53.031,-31.68
53.046,-15.62
53.062,14.72
53.078,40.67
53.093,46.04
53.109,26.66
53.125,-7.13
53.140,-36.56
53.156,-45.43
53.171,-29.56
53.187,0.46
53.203,25.73
53.218,30.09
53.234,9.7
53.250,-24.51
53.265,-53.26
53.281,-60.2
53.296,-41.49
53.312,-8.33
53.328,19.64
53.343,25.79
53.359,6.26
53.375,-27.61
53.390,-55.96
53.406,-61.94
53.421,-41.62
53.437,-6.51
53.453,23.21
53.468,30.41
53.484,11.0
53.500,-23.4
53.515,-52.4
53.531,-58.58
53.546,-37.66
53.562,-1.25
53.578,30.11
53.593,38.79
53.609,20.3
53.625,-13.83
53.640,-43.09
53.656,-49.84
53.671,-29.6
53.687,6.05
53.703,36.57
53.718,44.36
53.734,25.06
53.750,-9.62
53.765,-39.11
53.781,-45.87
53.796,-25.72
53.812,9.38
53.828,38.69
53.843,44.66
53.859,23.25
53.875,-13.33
53.890,-44.03
53.906,-51.06
53.921,-30.34
53.937,5.84
53.953,36.13
53.968,42.48
53.984,20.62
54.000,-17.09
54.015,-49.11
54.031,-57.06
54.046,-36.46
54.062,0.44
54.078,32.01
54.093,39.77
54.109,19.16
54.125,-17.52
54.140,-48.63
54.156,-55.69
54.171,-34.28
54.187,3.17
54.203,34.93
54.218,42.6
54.234,21.89
54.250,-14.62
54.265,-45.33
54.281,-52.12
54.296,-31.09
54.312,5.15
54.328,35.31
54.343,42.0
54.359,22.03
54.375,-11.72
54.390,-38.44
54.406,-41.81
54.421,-19.76
54.437,14.28
54.453,39.84
54.468,41.59
54.484,18.63
54.500,-14.9
54.515,-38.61
54.531,-37.85
54.546,-12.57
54.562,22.67
54.578,47.59
54.593,48.02
54.609,24.29
54.625,-9.03
54.640,-32.07
54.656,-31.27
54.671,-7.37
54.687,25.12
54.703,46.86
54.718,44.96
54.734,20.72
54.750,-11.26
54.765,-31.97
54.781,-29.1
54.796,-4.5
54.812,26.97
54.828,46.41
54.843,41.93
54.859,15.77
54.875,-16.88
54.890,-37.09
54.906,-33.16
54.921,-7.64
54.937,24.21
54.953,43.52
54.968,38.83
54.984,12.89
55.000,-18.86
55.015,-37.61
55.031,-32.01
55.046,-5.07
55.062,27.67
55.078,47.26
55.093,42.3
55.109,15.61
55.125,-17.3
55.140,-37.6
55.156,-33.82
55.171,-8.72
55.187,22.46
55.203,41.11
55.218,36.09
55.234,10.34
55.250,-20.78
55.265,-38.75
55.281,-32.61
55.296,-5.65
55.312,26.52
55.328,45.22
55.343,39.58
55.359,12.93
55.375,-19.04
55.390,-37.71
55.406,-32.29
55.421,-6.28
55.437,24.65
55.453,42.04
55.468,35.35
55.484,8.21
55.500,-23.6
55.515,-41.63
55.531,-35.39
55.546,-8.62
55.562,22.88
55.578,40.66
55.593,34.26
55.609,7.36
55.625,-24.23
55.640,-42.07
55.656,-35.69
55.671,-8.84
55.687,22.72
55.703,40.62
55.718,34.5
55.734,8.13
55.750,-22.76
55.765,-39.91
55.781,-33.1
55.796,-6.34
55.812,24.64
55.828,41.81
55.843,35.39
55.859,9.6
55.875,-19.79
55.890,-35.07
55.906,-26.99
55.921,-0.4
55.937,28.64
55.953,42.57
55.968,32.6
55.984,4.07
56.000,-26.62
56.015,-41.76
56.031,-32.57
56.046,-4.54
56.062,25.86
56.078,40.91
56.093,31.95
56.109,4.3
56.125,-25.68
56.140,-40.45
56.156,-31.38
56.171,-3.97
56.187,25.53
56.203,39.77
56.218,30.44
56.234,3.11
56.250,-25.94
56.265,-39.62
56.281,-29.89
56.296,-2.79
56.312,25.32
56.328,37.54
56.343,26.37
56.359,-1.8
56.375,-30.4
56.390,-42.61
56.406,-31.21
56.421,-3.05
56.437,25.1
56.453,36.5
56.468,24.24
56.484,-4.65
56.500,-33.24
56.515,-44.8
56.531,-32.43
56.546,-3.4
56.562,25.29
56.578,36.92
56.593,24.86
56.609,-3.59
56.625,-31.35
56.640,-41.78
56.656,-28.25
56.671,1.62
56.687,30.64
56.703,42.19
56.718,29.89
56.734,1.34
56.750,-26.27
56.765,-36.45
56.781,-22.96
56.796,6.23
56.812,33.86
56.828,43.5
56.843,29.31
56.859,-0.62
56.875,-28.87
56.890,-39.19
56.906,-25.88
56.921,2.58
56.937,28.74
56.953,36.59
56.968,21.04
56.984,-9.06
57.000,-35.93
57.015,-43.59
57.031,-27.06
57.046,4.38
57.062,32.7
57.078,41.71
57.093,26.5
57.109,-3.82
57.125,-31.29
57.140,-39.86
57.156,-24.54
57.171,5.49
57.187,32.41
57.203,40.32
57.218,24.54
57.234,-5.76
57.250,-32.72
57.265,-40.5
57.281,-24.35
57.296,6.29
57.312,33.52
57.328,41.48
57.343,25.61
57.359,-4.74
57.375,-31.7
57.390,-39.52
57.406,-23.67
57.421,6.28
57.437,32.44
57.453,39.23
57.468,22.46
57.484,-8.14
57.500,-34.51
57.515,-41.11
57.531,-23.79
57.546,7.34
57.562,34.09
57.578,40.79
57.593,23.51
57.609,-7.63
57.625,-34.3
57.640,-40.78
57.656,-23.05
57.671,8.59
57.687,35.69
57.703,42.48
57.718,25.02
57.734,-6.48
57.750,-33.53
57.765,-40.29
57.781,-22.64
57.796,9.15
57.812,36.63
57.828,43.91
57.843,26.99
57.859,-4.02
57.875,-30.69
57.890,-37.28
57.906,-19.71
57.921,11.66
57.937,38.39
57.953,44.74
57.968,26.87
57.984,-4.81
58.000,-31.73
58.015,-38.07
58.031,-19.88
58.046,12.26
58.062,39.65
58.078,46.33
58.093,28.37
58.109,-3.78
58.125,-31.36
58.140,-38.31
58.156,-20.52
58.171,11.53
58.187,39.07
58.203,46.05
58.218,28.44
58.234,-3.34
58.250,-30.52
58.265,-37.05
58.281,-18.85
58.296,13.48
58.312,41.06
58.328,47.73
58.343,29.47
58.359,-3.23
58.375,-31.43
58.390,-38.93
58.406,-21.58
58.421,10.07
58.437,37.11
58.453,43.35
58.468,24.76
58.484,-8.13
58.500,-36.35
58.515,-43.65
58.531,-25.79
58.546,6.67
58.562,34.79
58.578,42.26
58.593,24.87
58.609,-7.02
58.625,-34.61
58.640,-41.73
58.656,-24.15
58.671,7.61
58.687,34.77
58.703,41.18
58.718,22.86
58.734,-9.55
58.750,-37.05
58.765,-43.37
58.781,-24.48
58.796,8.75
58.812,37.02
58.828,43.82
58.843,25.02
58.859,-8.58
58.875,-37.62
58.890,-45.46
58.906,-27.78
58.921,4.65
58.937,32.49
58.953,39.16
58.968,20.53
58.984,-12.59
59.000,-40.79
59.015,-47.52
59.031,-28.63
59.046,4.83
59.062,33.32
59.078,40.15
59.093,21.22
59.109,-12.44
59.125,-41.23
59.140,-48.34
59.156,-29.49
59.171,4.28
59.187,33.4
59.203,41.01
59.218,22.82
59.234,-10.27
59.250,-38.75
59.265,-45.89
59.281,-27.4
59.296,5.68
59.312,33.81
59.328,40.21
59.343,20.8
59.359,-13.27
59.375,-42.21
59.390,-49.06
59.406,-29.58
59.421,4.98
59.437,34.69
59.453,42.42
59.468,23.81
59.484,-9.97
59.500,-39.02
59.515,-46.21
59.531,-27.18
59.546,6.87
59.562,35.95
59.578,42.95
59.593,23.55
59.609,-10.95
59.625,-40.49
59.640,-47.86
59.656,-28.69
59.671,5.72
59.687,35.23
59.703,42.57
59.718,23.36
59.734,-11.04
59.750,-40.45
59.765,-47.51
59.781,-27.8
59.796,7.27
59.812,37.41
59.828,45.17
59.843,26.11
59.859,-8.39
59.875,-38.09
59.890,-45.61
59.906,-26.59
59.921,7.46
59.937,36.23
59.953,42.37
59.968,21.69
59.984,-14.07
