timestamp,value
00.000,19.41
00.015,17.06
00.031,15.26
00.046,14.04
00.062,13.4
00.078,13.23
00.093,13.38
00.109,13.59
00.125,13.48
00.140,12.64
00.156,10.68
00.171,7.38
00.187,2.67
00.203,-3.29
00.218,-10.25
00.234,-17.81
00.250,-25.39
00.265,-32.26
00.281,-37.48
00.296,-40.15
00.312,-39.63
00.328,-35.75
00.343,-28.99
00.359,-20.36
00.375,-11.14
00.390,-2.51
00.406,4.7
00.421,10.14
00.437,13.85
00.453,15.99
00.468,16.72
00.484,16.18
00.500,14.6
00.515,12.36
00.531,9.98
00.546,7.95
00.562,6.49
00.578,5.55
00.593,4.76
00.609,3.76
00.625,2.3
00.640,0.45
00.656,-1.55
00.671,-3.39
00.687,-4.91
00.703,-6.12
00.718,-7.25
00.734,-8.62
00.750,-10.48
00.765,-12.97
00.781,-15.96
00.796,-18.98
00.812,-21.32
00.828,-22.18
00.843,-20.88
00.859,-17.12
00.875,-11.13
00.890,-3.54
00.906,4.66
00.921,12.44
00.937,18.9
00.953,23.47
00.968,25.93
00.984,26.4
01.000,25.21
01.015,22.8
01.031,19.62
01.046,16.15
01.062,12.79
01.078,9.93
01.093,7.77
01.109,6.31
01.125,5.32
01.140,4.46
01.156,3.4
01.171,2.05
01.187,0.52
01.203,-0.93
01.218,-2.11
01.234,-3.03
01.250,-3.95
01.265,-5.25
01.281,-7.28
01.296,-10.21
01.312,-13.9
01.328,-17.97
01.343,-21.75
01.359,-24.4
01.375,-25.04
01.390,-23.04
01.406,-18.21
01.421,-10.92
01.437,-2.11
01.453,7.05
01.468,15.33
01.484,21.79
01.500,25.92
01.515,27.64
01.531,27.21
01.546,25.15
01.562,22.12
01.578,18.77
01.593,15.66
01.609,13.11
01.625,11.22
01.640,9.87
01.656,8.81
01.671,7.81
01.687,6.65
01.703,5.19
01.718,3.39
01.734,1.28
01.750,-1.07
01.765,-3.51
01.781,-5.94
01.796,-8.4
01.812,-11.0
01.828,-13.96
01.843,-17.35
01.859,-21.01
01.875,-24.37
01.890,-26.62
01.906,-26.9
01.921,-24.58
01.937,-19.52
01.953,-12.13
01.968,-3.28
01.984,5.95
02.000,14.43
02.015,21.31
02.031,25.97
02.046,28.16
02.062,27.93
02.078,25.65
02.093,21.96
02.109,17.66
02.125,13.57
02.140,10.31
02.156,8.15
02.171,7.01
02.187,6.53
02.203,6.19
02.218,5.55
02.234,4.37
02.250,2.63
02.265,0.52
02.281,-1.72
02.296,-3.96
02.312,-6.15
02.328,-8.43
02.343,-11.0
02.359,-14.02
02.375,-17.45
02.390,-21.07
02.406,-24.27
02.421,-26.31
02.437,-26.42
02.453,-23.97
02.468,-18.8
02.484,-11.27
02.500,-2.22
02.515,7.19
02.531,15.83
02.546,22.85
02.562,27.77
02.578,30.44
02.593,30.98
02.609,29.62
02.625,26.74
02.640,22.93
02.656,18.83
02.671,15.07
02.687,12.15
02.703,10.18
02.718,8.95
02.734,7.96
02.750,6.76
02.765,5.06
02.781,2.87
02.796,0.41
02.812,-2.04
02.828,-4.27
02.843,-6.25
02.859,-8.1
02.875,-10.0
02.890,-12.18
02.906,-14.72
02.921,-17.54
02.937,-20.33
02.953,-22.48
02.968,-23.22
02.984,-21.86
03.000,-17.92
03.015,-11.48
03.031,-3.12
03.046,6.15
03.062,15.18
03.078,22.87
03.093,28.45
03.109,31.49
03.125,31.93
03.140,30.06
03.156,26.49
03.171,22.02
03.187,17.53
03.203,13.76
03.218,11.19
03.234,9.85
03.250,9.43
03.265,9.44
03.281,9.33
03.296,8.8
03.312,7.7
03.328,6.14
03.343,4.23
03.359,2.12
03.375,-0.17
03.390,-2.73
03.406,-5.69
03.421,-9.2
03.437,-13.32
03.453,-17.9
03.468,-22.5
03.484,-26.41
03.500,-28.75
03.515,-28.67
03.531,-25.71
03.546,-19.92
03.562,-11.9
03.578,-2.66
03.593,6.64
03.609,14.95
03.625,21.49
03.640,25.8
03.656,27.68
03.671,27.21
03.687,24.76
03.703,21.0
03.718,16.79
03.734,13.05
03.750,10.4
03.765,9.09
03.781,8.89
03.796,9.26
03.812,9.48
03.828,9.07
03.843,7.73
03.859,5.51
03.875,2.69
03.890,-0.39
03.906,-3.34
03.921,-5.99
03.937,-8.38
03.953,-10.84
03.968,-13.76
03.984,-17.42
04.000,-21.76
04.015,-26.16
04.031,-29.6
04.046,-30.82
04.062,-28.89
04.078,-23.47
04.093,-15.06
04.109,-4.79
04.125,5.92
04.140,15.78
04.156,23.86
04.171,29.62
04.187,32.97
04.203,34.0
04.218,33.06
04.234,30.61
04.250,27.32
04.265,23.83
04.281,20.68
04.296,18.18
04.312,16.27
04.328,14.7
04.343,13.09
04.359,11.11
04.375,8.62
04.390,5.66
04.406,2.38
04.421,-1.01
04.437,-4.24
04.453,-7.15
04.468,-9.7
04.484,-12.02
04.500,-14.37
04.515,-17.03
04.531,-20.12
04.546,-23.45
04.562,-26.45
04.578,-28.27
04.593,-28.01
04.609,-25.09
04.625,-19.46
04.640,-11.62
04.656,-2.55
04.671,6.6
04.687,14.76
04.703,21.18
04.718,25.4
04.734,27.3
04.750,27.01
04.765,24.85
04.781,21.36
04.796,17.18
04.812,12.99
04.828,9.31
04.843,6.48
04.859,4.54
04.875,3.33
04.890,2.57
04.906,1.93
04.921,1.18
04.937,0.17
04.953,-1.13
04.968,-2.66
04.984,-4.34
05.000,-6.08
05.015,-7.86
05.031,-9.78
05.046,-12.04
05.062,-14.78
05.078,-18.02
05.093,-21.4
05.109,-24.24
05.125,-25.64
05.140,-24.8
05.156,-21.3
05.171,-15.3
05.187,-7.52
05.203,1.01
05.218,9.16
05.234,16.0
05.250,20.9
05.265,23.56
05.281,23.93
05.296,22.2
05.312,18.84
05.328,14.54
05.343,10.16
05.359,6.44
05.375,3.93
05.390,2.81
05.406,2.83
05.421,3.45
05.437,3.97
05.453,3.88
05.468,2.95
05.484,1.32
05.500,-0.64
05.515,-2.53
05.531,-4.1
05.546,-5.44
05.562,-6.86
05.578,-8.84
05.593,-11.68
05.609,-15.47
05.625,-19.83
05.640,-24.0
05.656,-26.95
05.671,-27.67
05.687,-25.51
05.703,-20.29
05.718,-12.54
05.734,-3.28
05.750,6.21
05.765,14.72
05.781,21.39
05.796,25.73
05.812,27.57
05.828,27.0
05.843,24.33
05.859,20.08
05.875,14.98
05.890,9.88
05.906,5.55
05.921,2.48
05.937,0.76
05.953,0.03
05.968,-0.28
05.984,-0.72
06.000,-1.6
06.015,-2.97
06.031,-4.66
06.046,-6.45
06.062,-8.25
06.078,-10.1
06.093,-12.21
06.109,-14.85
06.125,-18.17
06.140,-22.16
06.156,-26.56
06.171,-30.72
06.187,-33.77
06.203,-34.73
06.218,-32.79
06.234,-27.62
06.250,-19.61
06.265,-9.77
06.281,0.52
06.296,9.95
06.312,17.65
06.328,23.15
06.343,26.42
06.359,27.59
06.375,26.89
06.390,24.6
06.406,21.22
06.421,17.46
06.437,14.11
06.453,11.77
06.468,10.61
06.484,10.35
06.500,10.35
06.515,9.97
06.531,8.86
06.546,7.05
06.562,4.82
06.578,2.52
06.593,0.37
06.609,-1.64
06.625,-3.66
06.640,-5.88
06.656,-8.45
06.671,-11.47
06.687,-14.85
06.703,-18.3
06.718,-21.28
06.734,-22.97
06.750,-22.55
06.765,-19.39
06.781,-13.46
06.796,-5.4
06.812,3.54
06.828,11.93
06.843,18.5
06.859,22.49
06.875,23.79
06.890,22.79
06.906,20.15
06.921,16.66
06.937,12.99
06.953,9.65
06.968,6.94
06.984,4.99
07.000,3.73
07.015,3.03
07.031,2.67
07.046,2.42
07.062,2.05
07.078,1.39
07.093,0.31
07.109,-1.18
07.125,-2.91
07.140,-4.72
07.156,-6.5
07.171,-8.38
07.187,-10.69
07.203,-13.78
07.218,-17.77
07.234,-22.31
07.250,-26.47
07.265,-29.06
07.281,-29.01
07.296,-25.81
07.312,-19.74
07.328,-11.8
07.343,-3.31
07.359,4.42
07.375,10.43
07.390,14.34
07.406,16.19
07.421,16.31
07.437,15.16
07.453,13.16
07.468,10.75
07.484,8.33
07.500,6.23
07.515,4.67
07.531,3.67
07.546,3.1
07.562,2.71
07.578,2.23
07.593,1.37
07.609,0.02
07.625,-1.78
07.640,-3.92
07.656,-6.27
07.671,-8.71
07.687,-11.25
07.703,-13.96
07.718,-17.03
07.734,-20.57
07.750,-24.49
07.765,-28.23
07.781,-30.89
07.796,-31.44
07.812,-29.06
07.828,-23.48
07.843,-15.19
07.859,-5.34
07.875,4.59
07.890,13.24
07.906,19.64
07.921,23.38
07.937,24.51
07.953,23.32
07.968,20.32
07.984,16.17
08.000,11.54
08.015,7.03
08.031,3.11
08.046,-0.03
08.062,-2.47
08.078,-4.5
08.093,-6.54
08.109,-8.86
08.125,-11.55
08.140,-14.59
08.156,-17.97
08.171,-21.71
08.187,-25.93
08.203,-30.79
08.218,-36.46
08.234,-43.14
08.250,-50.7
08.265,-58.73
08.281,-66.67
08.296,-74.01
08.312,-80.17
08.328,-84.56
08.343,-86.74
08.359,-86.67
08.375,-84.85
08.390,-81.74
08.406,-77.76
08.421,-73.52
08.437,-69.94
08.453,-67.96
08.468,-68.11
08.484,-70.52
08.500,-74.89
08.515,-80.69
08.531,-86.38
08.546,-89.94
08.562,-89.73
08.578,-85.21
08.593,-76.76
08.609,-65.08
08.625,-51.04
08.640,-35.49
08.656,-19.15
08.671,-1.35
08.687,19.54
08.703,45.03
08.718,75.44
08.734,109.78
08.750,146.32
08.765,182.6
08.781,215.93
08.796,237.84
08.812,239.75
08.828,218.96
08.843,181.17
08.859,135.78
08.875,90.07
08.890,47.69
08.906,9.52
08.921,-24.58
08.937,-54.93
08.953,-80.79
08.968,-100.82
08.984,-114.09
09.000,-121.09
09.015,-124.36
09.031,-125.58
09.046,-126.21
09.062,-127.11
09.078,-128.71
09.093,-130.29
09.109,-130.33
09.125,-126.83
09.140,-118.59
09.156,-105.63
09.171,-88.63
09.187,-68.71
09.203,-46.69
09.218,-22.51
09.234,1.87
09.250,25.53
09.265,49.0
09.281,72.86
09.296,96.47
09.312,118.3
09.328,135.87
09.343,146.76
09.359,149.46
09.375,143.89
09.390,131.5
09.406,116.81
09.421,105.54
09.437,102.1
09.453,109.35
09.468,127.67
09.484,155.82
09.500,192.1
09.515,235.06
09.531,268.68
09.546,280.73
09.562,266.98
09.578,232.81
09.593,190.68
09.609,151.57
09.625,120.89
09.640,98.45
09.656,80.25
09.671,68.61
09.687,58.93
09.703,48.86
09.718,38.49
09.734,31.34
09.750,31.21
09.765,40.65
09.781,60.17
09.796,88.93
09.812,116.1
09.828,136.89
09.843,150.16
09.859,145.55
09.875,120.4
09.890,79.27
09.906,31.62
09.921,-13.49
09.937,-43.96
09.953,-63.48
09.968,-75.62
09.984,-81.93
10.000,-82.63
10.015,-77.92
10.031,-67.06
10.046,-49.71
10.062,-26.56
10.078,1.71
10.093,32.37
10.109,64.33
10.125,95.73
10.140,122.65
10.156,140.48
10.171,143.7
10.187,128.01
10.203,91.85
10.218,38.68
10.234,-25.92
10.250,-93.53
10.265,-157.08
10.281,-212.99
10.296,-260.51
10.312,-301.26
10.328,-336.97
10.343,-368.86
10.359,-387.32
10.375,-383.49
10.390,-352.71
10.406,-299.42
10.421,-234.57
10.437,-169.28
10.453,-115.83
10.468,-73.38
10.484,-38.76
10.500,-8.73
10.515,17.99
10.531,42.69
10.546,66.33
10.562,90.38
10.578,116.74
10.593,146.06
10.609,174.72
10.625,196.25
10.640,205.24
10.656,199.32
10.671,180.11
10.687,151.23
10.703,116.78
10.718,80.78
10.734,47.49
10.750,18.56
10.765,-4.58
10.781,-20.73
10.796,-30.54
10.812,-36.35
10.828,-41.32
10.843,-48.02
10.859,-55.93
10.875,-63.96
10.890,-70.3
10.906,-72.99
10.921,-70.4
10.937,-62.41
10.953,-50.42
10.968,-36.74
10.984,-23.69
11.000,-12.75
11.015,-4.73
11.031,0.53
11.046,3.92
11.062,6.53
11.078,8.41
11.093,8.56
11.109,5.3
11.125,-2.96
11.140,-17.33
11.156,-38.63
11.171,-67.09
11.187,-101.75
11.203,-136.71
11.218,-163.82
11.234,-175.58
11.250,-168.95
11.265,-146.5
11.281,-114.32
11.296,-79.09
11.312,-46.01
11.328,-18.05
11.343,3.69
11.359,18.96
11.375,28.41
11.390,33.91
11.406,38.81
11.421,47.15
11.437,61.77
11.453,83.4
11.468,109.5
11.484,135.33
11.500,155.25
11.515,164.73
11.531,161.63
11.546,146.57
11.562,122.03
11.578,91.06
11.593,56.78
11.609,22.3
11.625,-9.13
11.640,-34.61
11.656,-52.07
11.671,-61.01
11.687,-62.66
11.703,-58.83
11.718,-52.85
11.734,-48.52
11.750,-49.02
11.765,-55.96
11.781,-69.35
11.796,-87.71
11.812,-108.54
11.828,-128.75
11.843,-145.34
11.859,-156.3
11.875,-160.64
11.890,-158.38
11.906,-150.21
11.921,-137.3
11.937,-121.06
11.953,-103.05
11.968,-84.82
11.984,-67.66
12.000,-52.52
12.015,-39.59
12.031,-28.16
12.046,-16.7
12.062,-3.3
12.078,13.71
12.093,35.29
12.109,61.36
12.125,90.76
12.140,121.08
12.156,148.91
12.171,170.24
12.187,181.32
12.203,179.64
12.218,164.88
12.234,139.15
12.250,106.47
12.265,71.71
12.281,39.39
12.296,12.76
12.312,-6.48
12.328,-18.04
12.343,-22.47
12.359,-20.78
12.375,-14.34
12.390,-4.76
12.406,6.16
12.421,16.75
12.437,25.92
12.453,33.44
12.468,39.9
12.484,46.49
12.500,54.74
12.515,65.73
12.531,79.79
12.546,96.11
12.562,112.78
12.578,127.25
12.593,137.11
12.609,140.75
12.625,137.9
12.640,129.64
12.656,117.77
12.671,104.22
12.687,90.36
12.703,76.83
12.718,63.82
12.734,51.51
12.750,40.4
12.765,31.32
12.781,25.07
12.796,21.92
12.812,21.44
12.828,22.46
12.843,23.6
12.859,23.76
12.875,22.44
12.890,19.74
12.906,15.98
12.921,11.39
12.937,5.63
12.953,-1.88
12.968,-11.88
12.984,-24.78
13.000,-40.45
13.015,-58.0
13.031,-76.02
13.046,-92.83
13.062,-106.91
13.078,-117.3
13.093,-123.59
13.109,-125.98
13.125,-125.14
13.140,-121.93
13.156,-117.15
13.171,-111.33
13.187,-104.63
13.203,-96.95
13.218,-88.19
13.234,-78.19
13.250,-66.96
13.265,-54.77
13.281,-42.25
13.296,-30.44
13.312,-20.47
13.328,-13.3
13.343,-9.62
13.359,-9.96
13.375,-14.24
13.390,-21.97
13.406,-32.28
13.421,-43.96
13.437,-55.43
13.453,-64.55
13.468,-68.67
13.484,-65.64
13.500,-54.49
13.515,-35.46
13.531,-9.81
13.546,20.54
13.562,53.52
13.578,87.27
13.593,120.36
13.609,151.9
13.625,180.49
13.640,204.33
13.656,221.84
13.671,232.25
13.687,235.76
13.703,233.18
13.718,225.66
13.734,214.61
13.750,201.81
13.765,187.98
13.781,172.54
13.796,153.96
13.812,130.32
13.828,100.08
13.843,62.84
13.859,19.99
13.875,-26.81
13.890,-69.43
13.906,-97.42
13.921,-104.44
13.937,-91.97
13.953,-67.06
13.968,-37.21
13.984,-7.3
14.000,20.64
14.015,46.28
14.031,70.0
14.046,91.04
14.062,107.66
14.078,118.21
14.093,122.02
14.109,119.92
14.125,113.47
14.140,104.4
14.156,94.11
14.171,83.92
14.187,73.96
14.203,62.84
14.218,51.46
14.234,39.95
14.250,28.09
14.265,15.39
14.281,1.47
14.296,-13.49
14.312,-28.46
14.328,-42.44
14.343,-55.01
14.359,-66.13
14.375,-76.13
14.390,-85.13
14.406,-93.04
14.421,-99.7
14.437,-105.26
14.453,-110.34
14.468,-116.36
14.484,-125.19
14.500,-137.87
14.515,-154.05
14.531,-171.3
14.546,-185.74
14.562,-193.51
14.578,-192.4
14.593,-182.74
14.609,-167.4
14.625,-150.59
14.640,-135.87
14.656,-124.99
14.671,-117.52
14.687,-111.57
14.703,-105.02
14.718,-96.48
14.734,-85.55
14.750,-72.71
14.765,-59.23
14.781,-46.28
14.796,-34.91
14.812,-26.21
14.828,-21.23
14.843,-20.77
14.859,-25.32
14.875,-34.74
14.890,-48.33
14.906,-65.62
14.921,-85.44
14.937,-106.22
14.953,-126.48
14.968,-145.11
14.984,-161.65
15.000,-176.19
15.015,-189.15
15.031,-201.02
15.046,-213.22
15.062,-226.0
15.078,-238.32
15.093,-248.35
15.109,-254.17
15.125,-254.32
15.140,-247.84
15.156,-234.15
15.171,-213.03
15.187,-186.03
15.203,-154.25
15.218,-118.37
15.234,-79.33
15.250,-38.75
15.265,1.21
15.281,38.68
15.296,72.64
15.312,110.83
15.328,152.68
15.343,192.02
15.359,221.28
15.375,236.32
15.390,237.28
15.406,226.92
15.421,208.98
15.437,187.34
15.453,165.63
15.468,145.11
15.484,126.94
15.500,112.15
15.515,101.0
15.531,93.24
15.546,88.18
15.562,84.97
15.578,83.02
15.593,82.66
15.609,83.67
15.625,86.84
15.640,93.29
15.656,103.26
15.671,115.18
15.687,125.76
15.703,131.38
15.718,126.89
15.734,110.47
15.750,82.99
15.765,48.58
15.781,12.87
15.796,-19.1
15.812,-44.43
15.828,-62.64
15.843,-74.72
15.859,-81.95
15.875,-84.61
15.890,-82.97
15.906,-76.86
15.921,-66.59
15.937,-52.89
15.953,-37.11
15.968,-20.82
15.984,-5.49
16.000,7.86
16.015,19.21
16.031,28.8
16.046,37.6
16.062,46.73
16.078,56.89
16.093,67.68
16.109,77.26
16.125,82.54
16.140,80.41
16.156,69.34
16.171,50.41
16.187,27.86
16.203,8.23
16.218,-1.43
16.234,4.22
16.250,26.58
16.265,62.09
16.281,102.87
16.296,139.02
16.312,161.79
16.328,166.46
16.343,153.29
16.359,126.49
16.375,92.28
16.390,56.23
16.406,21.93
16.421,-8.9
16.437,-35.21
16.453,-55.71
16.468,-68.41
16.484,-72.18
16.500,-67.97
16.515,-58.55
16.531,-47.78
16.546,-38.77
16.562,-32.47
16.578,-28.01
16.593,-23.25
16.609,-15.58
16.625,-3.91
16.640,10.85
16.656,26.85
16.671,41.88
16.687,54.29
16.703,63.48
16.718,69.19
16.734,71.8
16.750,72.62
16.765,72.24
16.781,69.82
16.796,64.01
16.812,53.02
16.828,35.71
16.843,12.28
16.859,-16.61
16.875,-51.98
16.890,-89.49
16.906,-121.08
16.921,-138.54
16.937,-136.21
16.953,-113.08
16.968,-73.51
16.984,-21.64
17.000,35.95
17.015,92.04
17.031,141.7
17.046,183.1
17.062,211.97
17.078,227.41
17.093,230.75
17.109,225.1
17.125,214.96
17.140,202.92
17.156,191.22
17.171,182.39
17.187,177.44
17.203,174.58
17.218,170.39
17.234,161.25
17.250,145.59
17.265,124.82
17.281,98.75
17.296,67.7
17.312,33.91
17.328,0.85
17.343,-28.63
17.359,-53.2
17.375,-73.91
17.390,-93.59
17.406,-115.67
17.421,-147.56
17.437,-194.94
17.453,-258.0
17.468,-331.42
17.484,-407.76
17.500,-480.39
17.515,-544.86
17.531,-598.24
17.546,-611.9
17.562,-567.33
17.578,-467.13
17.593,-334.88
17.609,-199.2
17.625,-79.42
17.640,17.0
17.656,90.5
17.671,145.44
17.687,186.19
17.703,215.5
17.718,232.82
17.734,237.95
17.750,232.79
17.765,219.79
17.781,200.07
17.796,173.23
17.812,138.39
17.828,95.82
17.843,45.68
17.859,-8.75
17.875,-59.57
17.890,-96.51
17.906,-112.03
17.921,-105.45
17.937,-82.44
17.953,-51.78
17.968,-21.51
17.984,1.95
18.000,16.14
18.015,22.69
18.031,25.1
18.046,25.84
18.062,25.04
18.078,22.48
18.093,18.62
18.109,14.46
18.125,9.71
18.140,3.21
18.156,-6.02
18.171,-18.09
18.187,-32.29
18.203,-47.49
18.218,-60.89
18.234,-69.42
18.250,-71.8
18.265,-69.9
18.281,-67.95
18.296,-70.81
18.312,-82.28
18.328,-103.88
18.343,-134.48
18.359,-167.8
18.375,-194.39
18.390,-205.2
18.406,-194.75
18.421,-162.31
18.437,-111.68
18.453,-50.12
18.468,17.57
18.484,76.44
18.500,111.51
18.515,117.89
18.531,101.83
18.546,73.16
18.562,39.7
18.578,6.17
18.593,-25.12
18.609,-52.98
18.625,-77.2
18.640,-96.21
18.656,-108.86
18.671,-114.94
18.687,-116.38
18.703,-116.0
18.718,-115.78
18.734,-116.61
18.750,-118.29
18.765,-120.46
18.781,-121.38
18.796,-118.92
18.812,-111.91
18.828,-100.35
18.843,-87.07
18.859,-73.8
18.875,-61.43
18.890,-50.1
18.906,-39.89
18.921,-29.97
18.937,-19.29
18.953,-7.34
18.968,5.51
18.984,18.54
19.000,31.66
19.015,44.98
19.031,58.77
19.046,73.05
19.062,88.03
19.078,103.81
19.093,120.03
19.109,135.83
19.125,150.11
19.140,162.36
19.156,172.56
19.171,181.15
19.187,188.73
19.203,195.74
19.218,201.78
19.234,205.3
19.250,203.92
19.265,195.57
19.281,179.71
19.296,157.6
19.312,131.85
19.328,105.37
19.343,80.4
19.359,58.04
19.375,38.62
19.390,22.35
19.406,9.72
19.421,1.29
19.437,-3.13
19.453,-4.87
19.468,-6.09
19.484,-8.69
19.500,-13.38
19.515,-19.33
19.531,-24.76
19.546,-27.97
19.562,-28.26
19.578,-25.95
19.593,-21.83
19.609,-16.51
19.625,-10.22
19.640,-3.36
19.656,2.86
19.671,6.21
19.687,4.27
19.703,-4.48
19.718,-19.55
19.734,-38.4
19.750,-57.43
19.765,-73.22
19.781,-83.65
19.796,-88.09
19.812,-87.3
19.828,-82.55
19.843,-75.36
19.859,-67.12
19.875,-59.04
19.890,-52.09
19.906,-46.8
19.921,-43.18
19.937,-40.62
19.953,-38.27
19.968,-35.26
19.984,-30.92
20.000,-24.77
20.015,-16.44
20.031,-5.71
20.046,7.38
20.062,22.38
20.078,38.41
20.093,54.13
20.109,68.07
20.125,78.75
20.140,85.14
20.156,86.85
20.171,84.18
20.187,78.2
20.203,70.48
20.218,62.75
20.234,56.54
20.250,52.81
20.265,51.69
20.281,52.61
20.296,54.52
20.312,56.28
20.328,57.02
20.343,56.42
20.359,54.59
20.375,51.86
20.390,48.43
20.406,44.13
20.421,38.51
20.437,31.2
20.453,22.34
20.468,12.77
20.484,3.88
20.500,-2.88
20.515,-6.42
20.531,-6.29
20.546,-2.63
20.562,4.06
20.578,13.13
20.593,23.99
20.609,35.97
20.625,48.31
20.640,60.01
20.656,70.09
20.671,77.8
20.687,82.68
20.703,84.46
20.718,82.96
20.734,78.11
20.750,69.96
20.765,58.73
20.781,44.9
20.796,29.11
20.812,12.2
20.828,-4.91
20.843,-21.2
20.859,-35.37
20.875,-46.07
20.890,-52.2
20.906,-53.48
20.921,-50.51
20.937,-44.53
20.953,-36.57
20.968,-26.75
20.984,-14.05
21.000,3.2
21.015,26.15
21.031,54.59
21.046,86.55
21.062,118.73
21.078,147.44
21.093,169.9
21.109,185.1
21.125,194.21
21.140,200.24
21.156,206.79
21.171,216.5
21.187,229.55
21.203,242.87
21.218,250.69
21.234,246.66
21.250,226.43
21.265,189.94
21.281,141.86
21.296,90.08
21.312,43.04
21.328,6.97
21.343,-15.71
21.359,-26.22
21.375,-27.84
21.390,-23.97
21.406,-16.87
21.421,-7.35
21.437,4.32
21.453,17.4
21.468,30.02
21.484,39.36
21.500,42.57
21.515,37.8
21.531,25.02
21.546,6.12
21.562,-15.76
21.578,-37.35
21.593,-56.19
21.609,-71.13
21.625,-82.43
21.640,-91.18
21.656,-98.6
21.671,-105.48
21.687,-112.25
21.703,-119.05
21.718,-126.17
21.734,-134.02
21.750,-143.04
21.765,-153.27
21.781,-164.16
21.796,-174.62
21.812,-183.38
21.828,-189.08
21.843,-190.16
21.859,-184.91
21.875,-171.67
21.890,-149.76
21.906,-120.36
21.921,-86.56
21.937,-52.53
21.953,-22.03
21.968,2.92
21.984,22.3
22.000,37.08
22.015,47.79
22.031,53.43
22.046,51.81
22.062,40.99
22.078,20.76
22.093,-6.6
22.109,-36.8
22.125,-65.19
22.140,-88.56
22.156,-105.92
22.171,-118.36
22.187,-128.25
22.203,-137.91
22.218,-148.42
22.234,-159.03
22.250,-166.9
22.265,-167.99
22.281,-158.76
22.296,-138.07
22.312,-108.89
22.328,-78.32
22.343,-55.45
22.359,-47.52
22.375,-56.22
22.390,-75.96
22.406,-95.57
22.421,-102.88
22.437,-89.69
22.453,-54.84
22.468,-4.02
22.484,53.32
22.500,107.6
22.515,151.74
22.531,181.82
22.546,196.65
22.562,197.17
22.578,186.48
22.593,169.88
22.609,154.27
22.625,146.42
22.640,150.58
22.656,166.88
22.671,191.29
22.687,217.59
22.703,239.76
22.718,253.89
22.734,258.77
22.750,255.17
22.765,244.96
22.781,230.09
22.796,212.27
22.812,192.48
22.828,171.26
22.843,148.32
22.859,122.73
22.875,93.01
22.890,57.97
22.906,17.7
22.921,-25.91
22.937,-69.37
22.953,-109.12
22.968,-142.36
22.984,-168.12
23.000,-187.16
23.015,-201.15
23.031,-211.67
23.046,-219.33
23.062,-223.88
23.078,-224.74
23.093,-222.45
23.109,-218.17
23.125,-213.75
23.140,-210.77
23.156,-209.97
23.171,-211.73
23.187,-216.36
23.203,-225.26
23.218,-235.79
23.234,-244.76
23.250,-245.45
23.265,-229.11
23.281,-188.09
23.296,-119.41
23.312,-27.0
23.328,78.89
23.343,184.41
23.359,276.04
23.375,342.86
23.390,378.58
23.406,381.27
23.421,353.21
23.437,300.61
23.453,233.08
23.468,162.15
23.484,98.9
23.500,51.25
23.515,21.93
23.531,8.91
23.546,7.01
23.562,10.46
23.578,14.81
23.593,17.54
23.609,17.46
23.625,14.1
23.640,7.8
23.656,-0.15
23.671,-7.5
23.687,-12.2
23.703,-13.42
23.718,-12.42
23.734,-12.6
23.750,-18.67
23.765,-34.72
23.781,-62.09
23.796,-98.49
23.812,-137.86
23.828,-171.82
23.843,-190.71
23.859,-185.48
23.875,-150.51
23.890,-86.6
23.906,-1.83
23.921,89.86
23.937,172.14
23.953,230.54
23.968,255.19
23.984,243.34
24.000,199.25
24.015,132.14
24.031,52.8
24.046,-28.27
24.062,-102.6
24.078,-162.88
24.093,-200.34
24.109,-210.98
24.125,-198.46
24.140,-170.86
24.156,-135.05
24.171,-95.4
24.187,-54.23
24.203,-14.38
24.218,20.16
24.234,45.56
24.250,60.27
24.265,65.57
24.281,65.51
24.296,66.51
24.312,74.19
24.328,92.49
24.343,121.69
24.359,155.58
24.375,184.7
24.390,198.52
24.406,190.37
24.421,159.77
24.437,115.47
24.453,62.68
24.468,5.44
24.484,-53.22
24.500,-110.72
24.515,-164.48
24.531,-212.72
24.546,-249.2
24.562,-271.24
24.578,-279.09
24.593,-275.09
24.609,-260.31
24.625,-233.87
24.640,-193.5
24.656,-137.46
24.671,-66.78
24.687,14.14
24.703,97.98
24.718,177.55
24.734,246.82
24.750,301.91
24.765,339.42
24.781,355.3
24.796,345.84
24.812,309.64
24.828,250.02
24.843,174.71
24.859,94.72
24.875,20.18
24.890,-42.53
24.906,-92.18
24.921,-131.6
24.937,-164.88
24.953,-194.29
24.968,-219.03
24.984,-236.27
25.000,-242.77
25.015,-236.72
25.031,-218.2
25.046,-188.75
25.062,-150.66
25.078,-106.43
25.093,-58.88
25.109,-11.94
25.125,28.85
25.140,57.01
25.156,66.71
25.171,54.87
25.187,22.75
25.203,-23.77
25.218,-75.22
25.234,-120.87
25.250,-151.52
25.265,-161.81
25.281,-151.35
25.296,-124.19
25.312,-86.94
25.328,-46.62
25.343,-9.02
25.359,22.22
25.375,45.29
25.390,59.78
25.406,66.45
25.421,67.33
25.437,65.65
25.453,65.18
25.468,68.74
25.484,77.11
25.500,88.77
25.515,100.89
25.531,110.84
25.546,117.02
25.562,118.13
25.578,112.07
25.593,95.61
25.609,65.59
25.625,21.47
25.640,-32.22
25.656,-85.75
25.671,-126.88
25.687,-145.18
25.703,-136.03
25.718,-102.16
25.734,-52.48
25.750,1.14
25.765,47.25
25.781,77.82
25.796,89.28
25.812,81.84
25.828,58.2
25.843,22.16
25.859,-22.21
25.875,-70.51
25.890,-118.0
25.906,-160.21
25.921,-192.89
25.937,-212.79
25.953,-219.09
25.968,-213.79
25.984,-200.88
26.000,-184.69
26.015,-168.34
26.031,-153.49
26.046,-141.66
26.062,-133.42
26.078,-127.87
26.093,-123.01
26.109,-115.71
26.125,-102.38
26.140,-80.06
26.156,-47.26
26.171,-4.9
26.187,42.8
26.203,90.98
26.218,136.19
26.234,176.19
26.250,209.91
26.265,236.85
26.281,253.04
26.296,254.4
26.312,245.35
26.328,228.64
26.343,203.91
26.359,173.32
26.375,140.39
26.390,109.03
26.406,82.13
26.421,60.17
26.437,41.81
26.453,24.72
26.468,5.99
26.484,-15.21
26.500,-36.74
26.515,-55.55
26.531,-69.1
26.546,-76.42
26.562,-78.38
26.578,-76.65
26.593,-73.36
26.609,-71.8
26.625,-75.14
26.640,-85.23
26.656,-102.26
26.671,-123.82
26.687,-144.71
26.703,-158.33
26.718,-159.11
26.734,-145.31
26.750,-120.67
26.765,-92.23
26.781,-66.84
26.796,-48.51
26.812,-37.17
26.828,-29.68
26.843,-22.28
26.859,-12.54
26.875,-0.34
26.890,12.72
26.906,24.99
26.921,35.86
26.937,45.47
26.953,53.97
26.968,60.98
26.984,65.63
27.000,67.39
27.015,66.65
27.031,64.91
27.046,64.28
27.062,66.59
27.078,72.49
27.093,81.4
27.109,91.83
27.125,102.08
27.140,110.85
27.156,117.42
27.171,121.72
27.187,123.62
27.203,122.77
27.218,118.48
27.234,109.74
27.250,95.52
27.265,75.13
27.281,48.92
27.296,19.04
27.312,-9.93
27.328,-31.66
27.343,-39.66
27.359,-29.95
27.375,-3.39
27.390,33.96
27.406,72.68
27.421,103.9
27.437,122.71
27.453,130.0
27.468,130.9
27.484,131.92
27.500,137.34
27.515,147.01
27.531,156.69
27.546,160.01
27.562,151.27
27.578,127.37
27.593,88.9
27.609,39.51
27.625,-14.39
27.640,-64.9
27.656,-104.83
27.671,-129.65
27.687,-139.03
27.703,-136.61
27.718,-128.1
27.734,-118.49
27.750,-110.77
27.765,-104.25
27.781,-94.84
27.796,-76.86
27.812,-45.41
27.828,1.67
27.843,63.16
27.859,134.63
27.875,208.95
27.890,275.49
27.906,322.58
27.921,340.88
27.937,326.38
27.953,281.61
27.968,214.43
27.984,135.56
28.000,55.09
28.015,-20.09
28.031,-89.04
28.046,-154.2
28.062,-217.31
28.078,-277.09
28.093,-329.92
28.109,-372.57
28.125,-404.49
28.140,-428.35
28.156,-435.11
28.171,-418.11
28.187,-376.91
28.203,-318.13
28.218,-251.43
28.234,-184.17
28.250,-119.86
28.265,-59.06
28.281,-1.08
28.296,53.21
28.312,103.74
28.328,147.07
28.343,178.84
28.359,196.45
28.375,200.72
28.390,195.63
28.406,187.05
28.421,180.6
28.437,177.42
28.453,176.33
28.468,173.8
28.484,166.38
28.500,152.62
28.515,133.12
28.531,109.62
28.546,84.58
28.562,61.46
28.578,45.14
28.593,40.83
28.609,51.7
28.625,76.95
28.640,110.09
28.656,139.47
28.671,151.81
28.687,137.56
28.703,95.34
28.718,32.78
28.734,-36.74
28.750,-99.61
28.765,-146.18
28.781,-172.68
28.796,-180.48
28.812,-174.31
28.828,-160.0
28.843,-143.45
28.859,-130.15
28.875,-124.62
28.890,-129.59
28.906,-144.01
28.921,-162.21
28.937,-175.48
28.953,-176.36
28.968,-161.69
28.984,-134.36
29.000,-101.96
29.015,-73.78
29.031,-57.41
29.046,-55.78
29.062,-66.36
29.078,-82.49
29.093,-97.36
29.109,-105.55
29.125,-103.73
29.140,-90.35
29.156,-65.75
29.171,-32.33
29.187,5.84
29.203,43.94
29.218,77.37
29.234,100.53
29.250,108.45
29.265,97.99
29.281,68.98
29.296,24.2
29.312,-31.23
29.328,-90.58
29.343,-146.54
29.359,-184.25
29.375,-190.92
29.390,-162.68
29.406,-108.51
29.421,-44.27
29.437,16.37
29.453,65.74
29.468,100.96
29.484,121.69
29.500,130.17
29.515,127.41
29.531,114.35
29.546,93.8
29.562,71.21
29.578,53.34
29.593,45.48
29.609,49.34
29.625,62.92
29.640,81.23
29.656,96.71
29.671,102.92
29.687,96.73
29.703,79.22
29.718,54.46
29.734,27.14
29.750,1.07
29.765,-20.87
29.781,-35.89
29.796,-41.93
29.812,-36.16
29.828,-18.35
29.843,6.76
29.859,30.6
29.875,45.24
29.890,47.2
29.906,38.12
29.921,22.93
29.937,6.23
29.953,-9.36
29.968,-23.87
29.984,-38.46
30.000,-53.42
30.015,-67.29
30.031,-77.58
30.046,-82.53
30.062,-80.85
30.078,-72.93
30.093,-60.41
30.109,-45.87
30.125,-31.64
30.140,-18.81
30.156,-7.11
30.171,3.82
30.187,13.85
30.203,22.29
30.218,27.92
30.234,29.73
30.250,27.04
30.265,20.61
30.281,11.96
30.296,5.33
30.312,5.14
30.328,14.36
30.343,34.1
30.359,63.09
30.375,98.18
30.390,133.8
30.406,163.27
30.421,180.84
30.437,183.63
30.453,172.53
30.468,152.77
30.484,133.27
30.500,122.7
30.515,125.33
30.531,137.09
30.546,146.99
30.562,142.07
30.578,113.33
30.593,58.81
30.609,-15.41
30.625,-97.44
30.640,-174.52
30.656,-231.06
30.671,-256.66
30.687,-251.13
30.703,-223.26
30.718,-184.15
30.734,-142.67
30.750,-103.07
30.765,-65.67
30.781,-29.71
30.796,7.47
30.812,46.0
30.828,85.14
30.843,124.59
30.859,164.72
30.875,205.01
30.890,236.55
30.906,251.97
30.921,247.24
30.937,223.63
30.953,185.86
30.968,140.63
30.984,93.99
31.000,51.78
31.015,12.73
31.031,-24.51
31.046,-60.0
31.062,-93.54
31.078,-124.8
31.093,-154.22
31.109,-182.72
31.125,-211.74
31.140,-236.48
31.156,-251.53
31.171,-249.67
31.187,-224.0
31.203,-172.2
31.218,-98.52
31.234,-14.35
31.250,64.79
31.265,122.33
31.281,145.69
31.296,129.18
31.312,76.47
31.328,-0.97
31.343,-87.79
31.359,-168.13
31.375,-229.46
31.390,-257.89
31.406,-247.46
31.421,-205.87
31.437,-152.29
31.453,-104.89
31.468,-71.37
31.484,-49.33
31.500,-31.76
31.515,-13.61
31.531,5.84
31.546,23.35
31.562,35.53
31.578,41.77
31.593,45.13
31.609,49.31
31.625,55.51
31.640,62.1
31.656,66.99
31.671,68.51
31.687,67.22
31.703,66.45
31.718,70.89
31.734,84.01
31.750,105.38
31.765,127.6
31.781,142.4
31.796,143.65
31.812,130.07
31.828,104.99
31.843,74.35
31.859,43.95
31.875,17.65
31.890,-3.38
31.906,-19.77
31.921,-32.35
31.937,-41.58
31.953,-47.62
31.968,-50.94
31.984,-52.49
32.000,-53.35
32.015,-54.28
32.031,-55.62
32.046,-56.44
32.062,-55.14
32.078,-50.31
32.093,-41.28
32.109,-28.35
32.125,-12.8
32.140,3.58
32.156,18.88
32.171,31.42
32.187,39.99
32.203,44.05
32.218,43.66
32.234,39.57
32.250,33.06
32.265,25.64
32.281,18.52
32.296,12.33
32.312,7.03
32.328,2.39
32.343,-1.81
32.359,-5.52
32.375,-8.42
32.390,-10.19
32.406,-10.67
32.421,-10.04
32.437,-8.6
32.453,-7.44
32.468,-6.86
32.484,-6.77
32.500,-6.85
32.515,-6.76
32.531,-6.32
32.546,-5.58
32.562,-4.78
32.578,-4.24
32.593,-4.12
32.609,-4.3
32.625,-4.49
32.640,-4.43
32.656,-4.1
32.671,-3.76
32.687,-3.96
32.703,-5.37
32.718,-8.52
32.734,-13.57
32.750,-20.08
32.765,-27.31
32.781,-34.42
32.796,-40.8
32.812,-46.16
32.828,-50.65
32.843,-54.64
32.859,-58.46
32.875,-62.12
32.890,-65.07
32.906,-66.42
32.921,-65.09
32.937,-60.27
32.953,-51.59
32.968,-39.39
32.984,-24.64
33.000,-8.7
33.015,6.99
33.031,21.26
33.046,33.34
33.062,42.9
33.078,49.93
33.093,54.66
33.109,57.31
33.125,58.18
33.140,57.56
33.156,55.82
33.171,53.47
33.187,50.99
33.203,48.77
33.218,46.97
33.234,45.46
33.250,44.01
33.265,42.36
33.281,40.43
33.296,38.36
33.312,36.42
33.328,34.85
33.343,33.75
33.359,33.05
33.375,32.47
33.390,31.8
33.406,30.9
33.421,29.88
33.437,29.07
33.453,28.83
33.468,29.38
33.484,30.79
33.500,32.84
33.515,35.17
33.531,37.36
33.546,39.11
33.562,40.28
33.578,40.9
33.593,41.09
33.609,40.89
33.625,40.28
33.640,39.13
33.656,37.28
33.671,34.81
33.687,32.19
33.703,30.25
33.718,30.04
33.734,32.41
33.750,37.58
33.765,44.96
33.781,53.32
33.796,61.15
33.812,67.07
33.828,70.1
33.843,69.89
33.859,66.66
33.875,61.23
33.890,54.93
33.906,49.3
33.921,45.5
33.937,43.77
33.953,42.83
33.968,40.07
33.984,32.31
34.000,17.01
34.015,-6.53
34.031,-36.57
34.046,-69.2
34.062,-99.39
34.078,-122.39
34.093,-135.07
34.109,-136.75
34.125,-129.16
34.140,-115.82
34.156,-100.96
34.171,-88.29
34.187,-80.11
34.203,-76.97
34.218,-77.94
34.234,-81.34
34.250,-85.57
34.265,-89.74
34.281,-93.62
34.296,-97.45
34.312,-101.32
34.328,-105.09
34.343,-108.5
34.359,-111.36
34.375,-113.74
34.390,-115.69
34.406,-116.86
34.421,-116.26
34.437,-112.42
34.453,-103.95
34.468,-90.29
34.484,-72.21
34.500,-51.56
34.515,-30.73
34.531,-11.78
34.546,4.02
34.562,16.34
34.578,25.55
34.593,32.29
34.609,37.06
34.625,40.03
34.640,41.02
34.656,39.66
34.671,35.76
34.687,29.74
34.703,22.85
34.718,17.08
34.734,14.46
34.750,16.18
34.765,21.97
34.781,30.15
34.796,38.27
34.812,44.27
34.828,47.23
34.843,47.54
34.859,46.37
34.875,44.64
34.890,42.46
34.906,39.12
34.921,33.65
34.937,25.62
34.953,15.61
34.968,5.12
34.984,-4.11
35.000,-10.8
35.015,-14.7
35.031,-16.64
35.046,-18.01
35.062,-20.21
35.078,-24.02
35.093,-29.35
35.109,-35.25
35.125,-40.3
35.140,-43.15
35.156,-42.86
35.171,-39.3
35.187,-33.01
35.203,-24.89
35.218,-15.81
35.234,-6.44
35.250,2.82
35.265,11.69
35.281,19.78
35.296,26.62
35.312,31.77
35.328,35.01
35.343,36.43
35.359,36.26
35.375,34.79
35.390,32.51
35.406,30.48
35.421,30.51
35.437,34.8
35.453,44.79
35.468,59.8
35.484,76.46
35.500,89.53
35.515,93.96
35.531,87.22
35.546,70.59
35.562,48.57
35.578,26.68
35.593,8.93
35.609,-3.53
35.625,-12.08
35.640,-19.02
35.656,-25.77
35.671,-32.01
35.687,-36.27
35.703,-37.03
35.718,-33.83
35.734,-27.56
35.750,-20.1
35.765,-13.57
35.781,-9.57
35.796,-8.83
35.812,-11.27
35.828,-16.24
35.843,-22.68
35.859,-29.41
35.875,-35.21
35.890,-38.94
35.906,-39.77
35.921,-37.29
35.937,-31.5
35.953,-22.94
35.968,-12.5
35.984,-1.31
36.000,9.53
36.015,19.02
36.031,26.57
36.046,31.92
36.062,35.27
36.078,37.17
36.093,38.3
36.109,39.3
36.125,40.61
36.140,42.33
36.156,44.23
36.171,45.81
36.187,46.58
36.203,46.16
36.218,44.55
36.234,41.99
36.250,38.99
36.265,36.13
36.281,33.87
36.296,32.4
36.312,31.59
36.328,31.01
36.343,30.14
36.359,28.62
36.375,26.36
36.390,23.59
36.406,20.8
36.421,18.46
36.437,16.95
36.453,16.33
36.468,16.42
36.484,16.93
36.500,17.72
36.515,18.66
36.531,19.86
36.546,21.73
36.562,24.98
36.578,30.41
36.593,38.53
36.609,49.43
36.625,62.61
36.640,77.33
36.656,92.36
36.671,106.39
36.687,118.41
36.703,128.0
36.718,135.14
36.734,140.01
36.750,142.95
36.765,144.14
36.781,143.88
36.796,141.76
36.812,136.96
36.828,129.01
36.843,118.33
36.859,106.37
36.875,95.09
36.890,86.49
36.906,81.33
36.921,78.99
36.937,76.17
36.953,67.82
36.968,49.04
36.984,17.06
37.000,-27.82
37.015,-82.4
37.031,-141.05
37.046,-199.1
37.062,-247.22
37.078,-276.16
37.093,-281.68
37.109,-266.29
37.125,-236.54
37.140,-199.46
37.156,-162.68
37.171,-129.11
37.187,-101.07
37.203,-79.98
37.218,-66.42
37.234,-58.99
37.250,-53.86
37.265,-46.13
37.281,-31.56
37.296,-9.11
37.312,17.49
37.328,40.28
37.343,52.19
37.359,50.24
37.375,36.55
37.390,16.47
37.406,-4.5
37.421,-22.24
37.437,-37.31
37.453,-50.47
37.468,-61.47
37.484,-68.25
37.500,-68.52
37.515,-61.3
37.531,-47.77
37.546,-30.83
37.562,-13.71
37.578,-0.01
37.593,8.4
37.609,11.44
37.625,10.86
37.640,8.9
37.656,7.3
37.671,6.6
37.687,6.33
37.703,5.49
37.718,3.04
37.734,-1.03
37.750,-5.88
37.765,-10.02
37.781,-12.18
37.796,-11.85
37.812,-9.46
37.828,-5.91
37.843,-2.19
37.859,1.0
37.875,3.82
37.890,6.92
37.906,11.04
37.921,16.43
37.937,22.53
37.953,28.26
37.968,32.82
37.984,35.73
38.000,36.75
38.015,36.16
38.031,34.3
38.046,31.3
38.062,26.94
38.078,20.44
38.093,11.17
38.109,-0.31
38.125,-12.91
38.140,-25.52
38.156,-36.69
38.171,-45.07
38.187,-49.59
38.203,-49.64
38.218,-45.77
38.234,-39.17
38.250,-30.49
38.265,-20.91
38.281,-12.25
38.296,-5.85
38.312,-2.31
38.328,-1.67
38.343,-3.84
38.359,-9.72
38.375,-20.51
38.390,-35.76
38.406,-54.54
38.421,-75.87
38.437,-97.9
38.453,-118.41
38.468,-135.51
38.484,-143.56
38.500,-138.49
38.515,-126.94
38.531,-112.85
38.546,-94.76
38.562,-72.38
38.578,-45.85
38.593,-15.87
38.609,16.28
38.625,49.08
38.640,80.27
38.656,107.77
38.671,131.32
38.687,150.53
38.703,164.32
38.718,171.97
38.734,173.51
38.750,169.96
38.765,163.12
38.781,154.33
38.796,144.15
38.812,133.07
38.828,120.19
38.843,103.66
38.859,82.5
38.875,57.44
38.890,30.93
38.906,6.23
38.921,-14.23
38.937,-29.44
38.953,-39.42
38.968,-45.53
38.984,-50.02
39.000,-54.77
39.015,-60.84
39.031,-68.26
39.046,-76.28
39.062,-83.72
39.078,-89.13
39.093,-90.79
39.109,-87.57
39.125,-79.46
39.140,-67.35
39.156,-52.75
39.171,-37.32
39.187,-22.52
39.203,-9.41
39.218,1.45
39.234,10.13
39.250,17.14
39.265,23.37
39.281,29.86
39.296,37.34
39.312,45.74
39.328,53.95
39.343,60.3
39.359,63.44
39.375,63.17
39.390,60.73
39.406,58.23
39.421,57.51
39.437,59.14
39.453,62.09
39.468,64.46
39.484,64.54
39.500,61.88
39.515,57.31
39.531,52.44
39.546,48.53
39.562,45.78
39.578,43.16
39.593,38.97
39.609,31.8
39.625,21.28
39.640,8.32
39.656,-5.29
39.671,-17.65
39.687,-27.51
39.703,-34.65
39.718,-39.55
39.734,-42.72
39.750,-43.96
39.765,-42.18
39.781,-35.54
39.796,-22.36
39.812,-2.01
39.828,24.43
39.843,54.18
39.859,83.58
39.875,109.38
39.890,129.8
39.906,145.1
39.921,157.24
39.937,168.77
39.953,181.63
39.968,196.4
39.984,212.26
40.000,227.66
40.015,241.16
40.031,251.85
40.046,259.34
40.062,263.34
40.078,263.01
40.093,257.75
40.109,247.76
40.125,234.2
40.140,218.56
40.156,201.71
40.171,183.35
40.187,162.08
40.203,136.27
40.218,104.84
40.234,68.6
40.250,30.46
40.265,-5.61
40.281,-36.1
40.296,-59.11
40.312,-74.52
40.328,-83.4
40.343,-87.22
40.359,-88.28
40.375,-88.07
40.390,-87.11
40.406,-85.38
40.421,-83.06
40.437,-80.85
40.453,-79.62
40.468,-79.84
40.484,-81.4
40.500,-86.42
40.515,-95.52
40.531,-107.01
40.546,-117.73
40.562,-125.22
40.578,-129.06
40.593,-130.5
40.609,-131.4
40.625,-133.28
40.640,-142.56
40.656,-162.41
40.671,-190.63
40.687,-221.03
40.703,-248.18
40.718,-270.38
40.734,-289.08
40.750,-307.19
40.765,-327.11
40.781,-358.88
40.796,-407.14
40.812,-467.85
40.828,-530.42
40.843,-585.33
40.859,-628.7
40.875,-661.68
40.890,-687.81
40.906,-710.94
40.921,-746.14
40.937,-802.55
40.953,-877.69
40.968,-958.44
40.984,-1029.26
41.000,-1078.35
41.015,-1099.11
41.031,-1090.06
41.046,-979.64
41.062,-744.63
41.078,-422.1
41.093,-88.82
41.109,191.85
41.125,396.69
41.140,532.53
41.156,616.82
41.171,665.54
41.187,690.25
41.203,687.29
41.218,656.62
41.234,606.78
41.250,555.22
41.265,517.22
41.281,499.62
41.296,501.08
41.312,514.75
41.328,531.77
41.343,534.64
41.359,512.46
41.375,466.28
41.390,407.79
41.406,351.07
41.421,305.67
41.437,276.52
41.453,263.98
41.468,265.06
41.484,269.55
41.500,269.87
41.515,264.59
41.531,257.64
41.546,253.22
41.562,252.41
41.578,252.99
41.593,251.41
41.609,244.88
41.625,229.91
41.640,206.44
41.656,178.36
41.671,151.46
41.687,129.91
41.703,114.01
41.718,100.27
41.734,83.93
41.750,61.44
41.765,31.17
41.781,-4.85
41.796,-41.78
41.812,-74.23
41.828,-98.86
41.843,-115.63
41.859,-127.63
41.875,-138.28
41.890,-149.89
41.906,-163.26
41.921,-178.35
41.937,-195.13
41.953,-213.5
41.968,-232.45
41.984,-249.11
42.000,-259.52
42.015,-258.75
42.031,-243.43
42.046,-213.72
42.062,-173.54
42.078,-128.66
42.093,-84.07
42.109,-42.17
42.125,1.23
42.140,45.29
42.156,84.97
42.171,113.17
42.187,124.78
42.203,119.61
42.218,102.28
42.234,80.11
42.250,60.25
42.265,47.26
42.281,41.15
42.296,40.27
42.312,42.42
42.328,45.44
42.343,47.3
42.359,46.57
42.375,42.41
42.390,34.95
42.406,24.78
42.421,12.18
42.437,-1.55
42.453,-14.64
42.468,-25.35
42.484,-32.55
42.500,-35.62
42.515,-34.25
42.531,-27.98
42.546,-16.31
42.562,0.57
42.578,21.75
42.593,44.81
42.609,65.78
42.625,80.02
42.640,83.87
42.656,76.15
42.671,58.88
42.687,36.22
42.703,12.67
42.718,-8.49
42.734,-26.14
42.750,-40.96
42.765,-54.17
42.781,-66.26
42.796,-76.59
42.812,-83.88
42.828,-87.45
42.843,-88.07
42.859,-87.71
42.875,-88.9
42.890,-93.49
42.906,-101.84
42.921,-112.43
42.937,-122.39
42.953,-128.45
42.968,-127.79
42.984,-118.7
43.000,-100.66
43.015,-74.58
43.031,-42.48
43.046,-7.09
43.062,28.89
43.078,63.32
43.093,95.11
43.109,124.09
43.125,150.59
43.140,174.75
43.156,195.51
43.171,210.63
43.187,217.39
43.203,213.83
43.218,199.69
43.234,176.91
43.250,149.16
43.265,120.85
43.281,95.98
43.296,76.82
43.312,63.73
43.328,55.78
43.343,51.98
43.359,51.76
43.375,55.02
43.390,61.73
43.406,71.26
43.421,82.46
43.437,93.37
43.453,101.92
43.468,107.02
43.484,109.21
43.500,109.8
43.515,109.64
43.531,108.24
43.546,103.8
43.562,94.48
43.578,78.95
43.593,57.08
43.609,30.34
43.625,1.29
43.640,-28.0
43.656,-56.87
43.671,-85.86
43.687,-117.23
43.703,-148.25
43.718,-172.83
43.734,-185.49
43.750,-184.78
43.765,-172.65
43.781,-152.6
43.796,-127.39
43.812,-98.46
43.828,-66.52
43.843,-32.47
43.859,2.13
43.875,34.12
43.890,59.97
43.906,78.16
43.921,89.05
43.937,94.49
43.953,96.74
43.968,97.66
43.984,98.52
44.000,99.8
44.015,101.57
44.031,101.28
44.046,99.28
44.062,96.76
44.078,94.93
44.093,94.21
44.109,94.2
44.125,93.75
44.140,91.21
44.156,84.79
44.171,73.32
44.187,57.28
44.203,37.94
44.218,17.01
44.234,-3.99
44.250,-24.02
44.265,-42.52
44.281,-59.43
44.296,-74.96
44.312,-89.17
44.328,-101.4
44.343,-110.81
44.359,-116.54
44.375,-117.98
44.390,-114.95
44.406,-107.78
44.421,-97.65
44.437,-86.25
44.453,-75.4
44.468,-66.04
44.484,-58.33
44.500,-51.49
44.515,-44.12
44.531,-34.77
44.546,-22.43
44.562,-7.12
44.578,10.36
44.593,28.65
44.609,46.44
44.625,62.29
44.640,74.73
44.656,82.6
44.671,85.59
44.687,84.83
44.703,82.84
44.718,83.23
44.734,89.39
44.750,102.81
44.765,121.61
44.781,140.55
44.796,152.99
44.812,153.6
44.828,140.63
44.843,115.54
44.859,82.66
44.875,47.39
44.890,14.43
44.906,-13.38
44.921,-35.32
44.937,-51.93
44.953,-64.42
44.968,-74.38
44.984,-85.94
45.000,-103.46
45.015,-129.2
45.031,-161.24
45.046,-193.49
45.062,-218.19
45.078,-228.61
45.093,-222.08
45.109,-201.1
45.125,-175.58
45.140,-157.08
45.156,-153.51
45.171,-165.97
45.187,-189.82
45.203,-217.83
45.218,-242.62
45.234,-258.17
45.250,-260.41
45.265,-252.3
45.281,-240.78
45.296,-233.87
45.312,-237.85
45.328,-256.27
45.343,-289.91
45.359,-336.04
45.375,-388.49
45.390,-414.54
45.406,-388.95
45.421,-307.21
45.437,-189.79
45.453,-66.35
45.468,42.47
45.484,129.35
45.500,195.67
45.515,245.33
45.531,281.78
45.546,305.05
45.562,311.64
45.578,299.44
45.593,270.69
45.609,230.96
45.625,186.36
45.640,142.09
45.656,102.01
45.671,71.05
45.687,51.8
45.703,45.17
45.718,51.49
45.734,70.91
45.750,102.6
45.765,143.53
45.781,188.88
45.796,229.95
45.812,256.32
45.828,260.09
45.843,240.22
45.859,201.75
45.875,152.54
45.890,100.91
45.906,54.33
45.921,19.04
45.937,-2.15
45.953,-7.47
45.968,1.67
45.984,20.04
46.000,39.97
46.015,53.49
46.031,54.71
46.046,40.45
46.062,11.3
46.078,-27.82
46.093,-68.21
46.109,-100.9
46.125,-119.81
46.140,-123.55
46.156,-115.26
46.171,-100.73
46.187,-85.81
46.203,-74.37
46.218,-67.1
46.234,-61.57
46.250,-54.58
46.265,-44.15
46.281,-30.18
46.296,-13.95
46.312,3.18
46.328,20.8
46.343,38.98
46.359,57.88
46.375,77.08
46.390,94.52
46.406,107.49
46.421,114.41
46.437,116.06
46.453,115.28
46.468,115.38
46.484,117.17
46.500,118.35
46.515,114.3
46.531,99.28
46.546,69.73
46.562,26.66
46.578,-24.46
46.593,-76.02
46.609,-120.9
46.625,-155.73
46.640,-180.5
46.656,-191.89
46.671,-188.25
46.687,-171.33
46.703,-146.15
46.718,-118.39
46.734,-95.06
46.750,-75.88
46.765,-59.91
46.781,-46.28
46.796,-33.54
46.812,-20.84
46.828,-8.34
46.843,3.55
46.859,14.4
46.875,23.53
46.890,30.6
46.906,34.56
46.921,34.92
46.937,32.91
46.953,29.96
46.968,27.32
46.984,25.59
47.000,24.51
47.015,23.14
47.031,20.7
47.046,16.25
47.062,9.74
47.078,3.26
47.093,-0.89
47.109,-0.61
47.125,5.17
47.140,16.55
47.156,32.94
47.171,53.38
47.187,75.98
47.203,92.32
47.218,94.71
47.234,78.91
47.250,47.01
47.265,5.07
47.281,-40.37
47.296,-84.33
47.312,-123.58
47.328,-156.62
47.343,-183.15
47.359,-202.68
47.375,-215.64
47.390,-222.06
47.406,-222.57
47.421,-218.37
47.437,-210.74
47.453,-200.8
47.468,-189.51
47.484,-177.43
47.500,-163.72
47.515,-148.75
47.531,-132.52
47.546,-115.44
47.562,-98.18
47.578,-81.12
47.593,-64.34
47.609,-47.72
47.625,-31.19
47.640,-14.54
47.656,2.12
47.671,18.57
47.687,34.18
47.703,48.47
47.718,61.56
47.734,74.07
47.750,86.61
47.765,99.28
47.781,111.68
47.796,122.96
47.812,132.32
47.828,139.0
47.843,142.49
47.859,142.59
47.875,139.32
47.890,132.96
47.906,124.01
47.921,113.33
47.937,101.75
47.953,89.86
47.968,77.63
47.984,64.92
48.000,52.29
48.015,41.46
48.031,35.33
48.046,36.84
48.062,47.81
48.078,67.82
48.093,94.26
48.109,123.11
48.125,150.41
48.140,173.27
48.156,190.18
48.171,200.7
48.187,204.94
48.203,203.28
48.218,196.25
48.234,184.64
48.250,169.4
48.265,151.45
48.281,131.44
48.296,109.86
48.312,87.2
48.328,64.29
48.343,42.57
48.359,23.6
48.375,8.55
48.390,-2.21
48.406,-9.21
48.421,-13.56
48.437,-16.54
48.453,-19.12
48.468,-21.88
48.484,-24.54
48.500,-26.62
48.515,-27.59
48.531,-26.78
48.546,-23.27
48.562,-15.98
48.578,-4.21
48.593,11.88
48.609,31.11
48.625,52.58
48.640,74.87
48.656,96.31
48.671,115.12
48.687,129.82
48.703,139.67
48.718,144.64
48.734,145.5
48.750,143.56
48.765,141.84
48.781,142.39
48.796,145.43
48.812,149.34
48.828,151.9
48.843,151.6
48.859,148.04
48.875,141.66
48.890,133.28
48.906,125.68
48.921,120.72
48.937,118.5
48.953,117.23
48.968,113.98
48.984,105.88
49.000,90.8
49.015,67.8
49.031,26.55
49.046,-34.14
49.062,-105.88
49.078,-174.05
49.093,-226.27
49.109,-258.11
49.125,-271.67
49.140,-271.55
49.156,-261.97
49.171,-245.73
49.187,-223.14
49.203,-195.6
49.218,-166.58
49.234,-140.59
49.250,-122.43
49.265,-115.1
49.281,-118.86
49.296,-130.95
49.312,-145.83
49.328,-155.21
49.343,-152.23
49.359,-134.47
49.375,-105.06
49.390,-71.1
49.406,-40.21
49.421,-17.69
49.437,-6.56
49.453,-6.28
49.468,-12.82
49.484,-21.35
49.500,-28.42
49.515,-32.45
49.531,-32.65
49.546,-27.65
49.562,-15.55
49.578,4.6
49.593,31.06
49.609,58.89
49.625,81.75
49.640,94.04
49.656,92.79
49.671,78.33
49.687,54.17
49.703,25.73
49.718,-1.06
49.734,-20.68
49.750,-31.18
49.765,-32.66
49.781,-28.14
49.796,-22.67
49.812,-21.98
49.828,-30.7
49.843,-50.8
49.859,-81.0
49.875,-113.37
49.890,-138.02
49.906,-145.83
49.921,-133.02
49.937,-102.08
49.953,-59.78
49.968,-14.13
49.984,28.08
50.000,61.81
50.015,86.31
50.031,100.87
50.046,105.84
50.062,102.89
50.078,96.1
50.093,91.05
50.109,92.36
50.125,101.15
50.140,112.64
50.156,118.61
50.171,109.99
50.187,84.7
50.203,44.43
50.218,-6.24
50.234,-60.93
50.250,-112.58
50.265,-155.89
50.281,-188.04
50.296,-207.8
50.312,-215.39
50.328,-211.78
50.343,-199.29
50.359,-180.96
50.375,-159.99
50.390,-139.23
50.406,-120.84
50.421,-105.82
50.437,-93.79
50.453,-83.62
50.468,-73.87
50.484,-63.84
50.500,-53.41
50.515,-42.97
50.531,-33.34
50.546,-25.55
50.562,-20.23
50.578,-17.19
50.593,-15.47
50.609,-13.58
50.625,-10.19
50.640,-4.38
50.656,4.27
50.671,15.53
50.687,28.53
50.703,42.22
50.718,55.79
50.734,68.76
50.750,81.06
50.765,92.74
50.781,103.83
50.796,114.26
50.812,123.7
50.828,131.55
50.843,137.17
50.859,140.08
50.875,140.2
50.890,137.77
50.906,133.28
50.921,127.23
50.937,120.04
50.953,111.96
50.968,103.2
50.984,93.98
51.000,84.51
51.015,74.8
51.031,64.51
51.046,52.91
51.062,39.13
51.078,22.49
51.093,2.95
51.109,-18.77
51.125,-41.31
51.140,-63.07
51.156,-82.61
51.171,-98.87
51.187,-111.34
51.203,-119.95
51.218,-125.03
51.234,-127.07
51.250,-126.54
51.265,-123.66
51.281,-118.18
51.296,-109.44
51.312,-96.76
51.328,-79.83
51.343,-59.13
51.359,-36.01
51.375,-12.33
51.390,10.01
51.406,29.5
51.421,45.31
51.437,57.13
51.453,65.0
51.468,69.09
51.484,69.59
51.500,66.79
51.515,61.16
51.531,53.44
51.546,44.58
51.562,35.55
51.578,27.13
51.593,19.81
51.609,13.68
51.625,8.5
51.640,3.89
51.656,-0.66
51.671,-5.6
51.687,-11.13
51.703,-17.03
51.718,-22.47
51.734,-26.05
51.750,-26.24
51.765,-22.01
51.781,-13.47
51.796,-2.2
51.812,9.19
51.828,17.89
51.843,21.78
51.859,20.15
51.875,13.66
51.890,3.97
51.906,-6.96
51.921,-17.29
51.937,-25.56
51.953,-30.57
51.968,-31.45
51.984,-27.81
52.000,-19.9
52.015,-8.83
52.031,3.56
52.046,15.21
52.062,24.32
52.078,29.77
52.093,31.34
52.109,29.51
52.125,25.06
52.140,18.68
52.156,10.81
52.171,1.66
52.187,-8.48
52.203,-19.12
52.218,-29.54
52.234,-38.83
52.250,-46.2
52.265,-51.1
52.281,-53.37
52.296,-53.33
52.312,-51.76
52.328,-49.74
52.343,-48.52
52.359,-49.17
52.375,-52.05
52.390,-56.59
52.406,-61.12
52.421,-63.35
52.437,-61.07
52.453,-53.08
52.468,-39.68
52.484,-22.94
52.500,-6.2
52.515,7.13
52.531,14.73
52.546,16.25
52.562,13.5
52.578,9.76
52.593,8.68
52.609,13.2
52.625,24.48
52.640,41.68
52.656,62.45
52.671,84.05
52.687,104.27
52.703,121.89
52.718,136.62
52.734,148.65
52.750,158.41
52.765,165.8
52.781,170.15
52.796,170.66
52.812,167.18
52.828,160.46
52.843,151.84
52.859,142.33
52.875,132.06
52.890,120.31
52.906,105.58
52.921,86.04
52.937,60.48
52.953,28.91
52.968,-7.45
52.984,-46.9
53.000,-88.15
53.015,-130.6
53.031,-171.58
53.046,-205.25
53.062,-225.03
53.078,-227.45
53.093,-213.87
53.109,-188.64
53.125,-156.58
53.140,-121.69
53.156,-87.31
53.171,-55.94
53.187,-29.44
53.203,-8.97
53.218,5.56
53.234,15.57
53.250,23.34
53.265,31.08
53.281,40.47
53.296,50.85
53.312,60.04
53.328,65.11
53.343,62.88
53.359,50.82
53.375,28.05
53.390,-3.65
53.406,-39.64
53.421,-72.22
53.437,-92.29
53.453,-94.0
53.468,-77.68
53.484,-50.0
53.500,-21.11
53.515,-0.19
53.531,8.12
53.546,4.76
53.562,-5.57
53.578,-17.59
53.593,-27.84
53.609,-35.24
53.625,-40.17
53.640,-43.67
53.656,-45.39
53.671,-44.64
53.687,-41.31
53.703,-36.28
53.718,-31.12
53.734,-27.34
53.750,-25.66
53.765,-25.69
53.781,-26.37
53.796,-26.5
53.812,-25.41
53.828,-23.1
53.843,-20.03
53.859,-17.01
53.875,-15.04
53.890,-14.79
53.906,-16.27
53.921,-18.71
53.937,-20.52
53.953,-19.81
53.968,-15.43
53.984,-6.84
54.000,5.55
54.015,20.42
54.031,36.12
54.046,51.26
54.062,64.91
54.078,76.81
54.093,86.96
54.109,95.32
54.125,101.74
54.140,105.76
54.156,106.46
54.171,102.68
54.187,93.22
54.203,77.14
54.218,54.25
54.234,25.36
54.250,-7.47
54.265,-40.98
54.281,-71.18
54.296,-94.55
54.312,-108.71
54.328,-112.81
54.343,-107.36
54.359,-93.95
54.375,-74.7
54.390,-51.59
54.406,-25.89
54.421,2.21
54.437,32.74
54.453,65.51
54.468,99.69
54.484,133.55
54.500,164.4
54.515,189.17
54.531,205.19
54.546,211.06
54.562,207.07
54.578,194.05
54.593,173.05
54.609,145.32
54.625,112.5
54.640,76.7
54.656,40.61
54.671,7.19
54.687,-22.51
54.703,-44.83
54.718,-56.15
54.734,-55.32
54.750,-44.64
54.765,-28.51
54.781,-11.36
54.796,3.99
54.812,16.46
54.828,26.35
54.843,34.68
54.859,41.72
54.875,47.03
54.890,50.13
54.906,51.27
54.921,51.22
54.937,51.7
54.953,53.55
54.968,57.13
54.984,62.22
55.000,67.61
55.015,71.81
55.031,73.8
55.046,73.67
55.062,72.05
55.078,70.17
55.093,69.18
55.109,69.86
55.125,72.36
55.140,75.86
55.156,78.88
55.171,79.55
55.187,78.93
55.203,77.28
55.218,74.98
55.234,72.3
55.250,69.45
55.265,66.55
55.281,63.4
55.296,59.65
55.312,54.89
55.328,48.8
55.343,40.63
55.359,29.96
55.375,16.88
55.390,2.22
55.406,-12.45
55.421,-25.03
55.437,-33.5
55.453,-36.77
55.468,-35.23
55.484,-31.14
55.500,-27.45
55.515,-26.89
55.531,-31.04
55.546,-40.0
55.562,-52.29
55.578,-65.42
55.593,-76.86
55.609,-84.87
55.625,-89.36
55.640,-91.6
55.656,-93.76
55.671,-98.1
55.687,-106.46
55.703,-119.14
55.718,-134.69
55.734,-150.46
55.750,-163.6
55.765,-172.26
55.781,-175.93
55.796,-175.63
55.812,-173.59
55.828,-173.56
55.843,-177.92
55.859,-186.45
55.875,-196.27
55.890,-203.24
55.906,-203.74
55.921,-195.65
55.937,-179.05
55.953,-156.01
55.968,-132.21
55.984,-112.82
56.000,-101.13
56.015,-98.56
56.031,-105.31
56.046,-120.0
56.062,-138.91
56.078,-156.39
56.093,-166.78
56.109,-170.56
56.125,-170.57
56.140,-170.44
56.156,-173.22
56.171,-180.7
56.187,-192.76
56.203,-207.43
56.218,-222.42
56.234,-236.84
56.250,-256.2
56.265,-283.74
56.281,-316.84
56.296,-347.41
56.312,-365.86
56.328,-365.46
56.343,-344.61
56.359,-307.23
56.375,-232.21
56.390,-120.86
56.406,5.58
56.421,118.97
56.437,202.48
56.453,255.17
56.468,283.99
56.484,296.48
56.500,297.63
56.515,290.43
56.531,272.43
56.546,243.91
56.562,209.42
56.578,175.34
56.593,146.66
56.609,124.82
56.625,108.63
56.640,95.91
56.656,84.86
56.671,71.04
56.687,52.35
56.703,31.33
56.718,12.14
56.734,-1.77
56.750,-9.66
56.765,-12.7
56.781,-12.84
56.796,-11.85
56.812,-13.1
56.828,-18.08
56.843,-25.79
56.859,-34.08
56.875,-40.66
56.890,-44.72
56.906,-46.35
56.921,-46.12
56.937,-44.52
56.953,-42.8
56.968,-41.01
56.984,-37.35
57.000,-32.74
57.015,-26.59
57.031,-18.64
57.046,-8.95
57.062,2.02
57.078,13.53
57.093,24.33
57.109,33.45
57.125,40.67
57.140,46.35
57.156,51.8
57.171,58.19
57.187,66.63
57.203,77.65
57.218,91.1
57.234,106.1
57.250,121.33
57.265,135.49
57.281,147.6
57.296,157.79
57.312,167.15
57.328,178.42
57.343,194.7
57.359,217.95
57.375,247.45
57.390,279.02
57.406,305.87
57.421,320.77
57.437,319.18
57.453,300.91
57.468,271.71
57.484,239.8
57.500,212.64
57.515,194.28
57.531,185.06
57.546,182.84
57.562,184.43
57.578,186.66
57.593,186.19
57.609,181.72
57.625,171.98
57.640,156.23
57.656,135.39
57.671,112.96
57.687,94.41
57.703,84.65
57.718,85.51
57.734,94.54
57.750,108.97
57.765,125.16
57.781,140.2
57.796,152.55
57.812,162.52
57.828,171.46
57.843,180.34
57.859,188.92
57.875,179.39
57.890,141.47
57.906,76.52
57.921,-1.59
57.937,-75.34
57.953,-133.3
57.968,-173.27
57.984,-199.52
58.000,-217.7
58.015,-231.59
58.031,-239.23
58.046,-237.25
58.062,-223.58
58.078,-200.86
58.093,-174.91
58.109,-152.39
58.125,-138.9
58.140,-136.55
58.156,-143.48
58.171,-152.82
58.187,-157.38
58.203,-152.94
58.218,-139.91
58.234,-122.09
58.250,-104.11
58.265,-89.83
58.281,-80.26
58.296,-73.86
58.312,-67.21
58.328,-58.64
58.343,-49.85
58.359,-45.07
58.375,-48.11
58.390,-60.18
58.406,-79.77
58.421,-102.9
58.437,-125.01
58.453,-141.86
58.468,-150.61
58.484,-149.29
58.500,-135.92
58.515,-108.79
58.531,-65.09
58.546,-10.04
58.562,43.06
58.578,78.88
58.593,89.25
58.609,76.53
58.625,50.25
58.640,21.81
58.656,0.05
58.671,-11.2
58.687,-14.28
58.703,-12.45
58.718,-8.49
58.734,-4.14
58.765,4.41
58.781,10.98
58.796,22.44
58.812,40.45
58.828,64.21
58.843,89.96
58.859,111.57
58.875,122.83
58.890,119.58
58.906,101.38
58.921,71.47
58.937,35.34
58.953,-1.2
58.968,-33.35
58.984,-57.43
59.000,-70.39
59.015,-69.74
59.031,-54.84
59.046,-27.58
59.062,7.41
59.078,43.43
59.093,73.28
59.109,91.32
59.125,94.05
59.140,81.23
59.156,56.05
59.171,23.41
59.187,-11.24
59.203,-42.9
59.218,-68.11
59.234,-85.07
59.250,-93.05
59.265,-93.71
59.281,-89.91
59.296,-84.51
59.312,-80.34
59.328,-79.28
59.343,-82.11
59.359,-88.79
59.375,-98.56
59.390,-109.85
59.406,-122.8
59.421,-138.16
59.437,-151.36
59.453,-156.52
59.468,-148.2
59.484,-125.37
59.500,-92.73
59.515,-61.62
59.531,-33.12
59.546,-4.26
59.562,29.79
59.578,74.01
59.593,130.67
59.609,197.31
59.625,267.24
59.640,326.8
59.656,361.24
59.671,363.03
59.687,334.29
59.703,285.88
59.718,231.55
59.734,181.34
59.750,139.47
59.765,105.39
59.781,76.66
59.796,49.76
59.812,24.7
59.828,2.38
59.843,-16.27
59.859,-30.9
59.875,-42.5
59.890,-53.47
59.906,-67.02
59.921,-82.62
59.937,-98.74
59.953,-111.19
59.968,-115.56
59.984,-108.81
