timestamp,value
00.000,-7.61
00.015,-13.9
00.031,-20.89
00.046,-28.44
00.062,-36.13
00.078,-43.36
00.093,-49.61
00.109,-54.53
00.125,-58.25
00.140,-61.19
00.156,-64.12
00.171,-67.79
00.187,-72.61
00.203,-78.49
00.218,-84.62
00.234,-89.56
00.250,-91.48
00.265,-88.82
00.281,-80.63
00.296,-67.11
00.312,-49.5
00.328,-29.75
00.343,-10.08
00.359,7.73
00.375,22.57
00.390,34.19
00.406,42.93
00.421,49.45
00.437,54.38
00.453,58.17
00.468,61.12
00.484,63.26
00.500,64.67
00.515,65.35
00.531,65.33
00.546,64.58
00.562,63.04
00.578,60.73
00.593,57.73
00.609,54.39
00.625,51.1
00.640,48.34
00.656,46.38
00.671,45.23
00.687,44.5
00.703,43.63
00.718,42.0
00.734,39.17
00.750,35.11
00.765,30.1
00.781,24.69
00.796,19.43
00.812,14.72
00.828,10.58
00.843,6.78
00.859,2.87
00.875,-1.61
00.890,-6.84
00.906,-12.76
00.921,-19.0
00.937,-25.13
00.953,-30.72
00.968,-35.59
00.984,-39.83
01.000,-43.78
01.015,-47.95
01.031,-52.75
01.046,-58.53
01.062,-65.13
01.078,-71.93
01.093,-77.68
01.109,-80.75
01.125,-79.53
01.140,-72.99
01.156,-61.11
01.171,-44.91
01.187,-26.35
01.203,-7.63
01.218,9.29
01.234,23.18
01.250,33.7
01.265,41.15
01.281,46.23
01.296,49.65
01.312,51.98
01.328,53.45
01.343,54.23
01.359,54.27
01.375,53.62
01.390,52.36
01.406,50.59
01.421,48.5
01.437,46.19
01.453,43.82
01.468,41.5
01.484,39.41
01.500,37.72
01.515,36.5
01.531,35.74
01.546,35.13
01.562,34.21
01.578,32.37
01.593,29.21
01.609,24.57
01.625,18.79
01.640,12.39
01.656,6.02
01.671,0.23
01.687,-4.85
01.703,-9.3
01.718,-13.48
01.734,-17.71
01.750,-22.23
01.765,-26.9
01.781,-31.55
01.796,-35.9
01.812,-39.74
01.828,-43.12
01.843,-46.26
01.859,-49.64
01.875,-53.67
01.890,-58.72
01.906,-64.82
01.921,-71.5
01.937,-77.75
01.953,-82.08
01.968,-82.9
01.984,-78.93
02.000,-69.74
02.015,-55.89
02.031,-38.91
02.046,-20.86
02.062,-3.76
02.078,10.92
02.093,22.56
02.109,31.21
02.125,37.43
02.140,41.8
02.156,44.77
02.171,46.62
02.187,47.41
02.203,47.31
02.218,46.47
02.234,45.17
02.250,43.59
02.265,41.96
02.281,40.36
02.296,38.82
02.312,37.42
02.328,36.2
02.343,35.25
02.359,34.55
02.375,33.99
02.390,33.26
02.406,31.96
02.421,29.71
02.437,26.28
02.453,21.7
02.468,16.28
02.484,10.48
02.500,4.78
02.515,-0.48
02.531,-5.18
02.546,-9.51
02.562,-13.77
02.578,-18.35
02.593,-23.44
02.609,-28.99
02.625,-34.72
02.640,-40.25
02.656,-45.32
02.671,-49.86
02.687,-54.14
02.703,-58.5
02.718,-63.39
02.734,-69.01
02.750,-75.16
02.765,-81.23
02.781,-86.04
02.796,-88.22
02.812,-86.38
02.828,-79.67
02.843,-68.01
02.859,-52.42
02.875,-34.6
02.890,-16.6
02.906,-0.21
02.921,13.61
02.937,24.62
02.953,33.2
02.968,39.92
02.984,45.24
03.000,49.37
03.015,52.37
03.031,54.32
03.046,55.22
03.062,55.32
03.078,54.72
03.093,53.47
03.109,51.53
03.125,48.96
03.140,45.94
03.156,42.83
03.171,40.03
03.187,37.84
03.203,36.4
03.218,35.51
03.234,34.83
03.250,33.85
03.265,32.16
03.281,29.53
03.296,25.92
03.312,21.54
03.328,16.74
03.343,11.89
03.359,7.27
03.375,2.99
03.390,-1.05
03.406,-5.1
03.421,-9.45
03.437,-14.32
03.453,-19.72
03.468,-25.53
03.484,-31.44
03.500,-37.14
03.515,-42.42
03.531,-47.18
03.546,-51.54
03.562,-55.79
03.578,-60.32
03.593,-65.43
03.609,-71.21
03.625,-77.29
03.640,-82.66
03.656,-85.89
03.671,-85.42
03.687,-80.06
03.703,-69.58
03.718,-54.79
03.734,-37.42
03.750,-19.59
03.765,-3.17
03.781,10.7
03.796,21.68
03.812,30.11
03.828,36.65
03.843,41.86
03.859,46.13
03.875,49.65
03.890,52.4
03.906,54.29
03.921,55.3
03.937,55.36
03.953,54.54
03.968,53.0
03.984,50.94
04.000,48.6
04.015,46.26
04.031,44.08
04.046,42.19
04.062,40.67
04.078,39.45
04.093,38.44
04.109,37.43
04.125,36.18
04.140,34.41
04.156,31.95
04.171,28.6
04.187,24.45
04.203,19.69
04.218,14.65
04.234,9.65
04.250,4.97
04.265,0.65
04.281,-3.47
04.296,-7.66
04.312,-12.31
04.328,-17.55
04.343,-23.38
04.359,-29.58
04.375,-35.75
04.390,-41.43
04.406,-46.31
04.421,-50.31
04.437,-53.64
04.453,-56.8
04.468,-60.36
04.484,-64.84
04.500,-70.42
04.515,-76.66
04.531,-82.54
04.546,-86.58
04.562,-87.13
04.578,-82.93
04.593,-73.5
04.609,-59.4
04.625,-42.08
04.640,-23.57
04.656,-5.79
04.671,9.73
04.687,22.22
04.703,31.66
04.718,38.49
04.734,43.41
04.750,47.08
04.765,50.01
04.781,52.42
04.796,54.34
04.812,55.69
04.828,56.35
04.843,56.3
04.859,55.54
04.875,54.16
04.890,52.27
04.906,50.01
04.921,47.57
04.937,45.12
04.953,42.81
04.968,40.71
04.984,38.82
05.000,36.99
05.015,35.07
05.031,32.94
05.046,30.57
05.062,27.92
05.078,24.96
05.093,21.68
05.109,18.04
05.125,14.15
05.140,10.15
05.156,6.17
05.171,2.3
05.187,-1.6
05.203,-5.79
05.218,-10.57
05.234,-16.1
05.250,-22.28
05.265,-28.7
05.281,-34.87
05.296,-40.31
05.312,-44.85
05.328,-48.66
05.343,-52.19
05.359,-55.96
05.375,-60.46
05.390,-65.84
05.406,-71.84
05.421,-77.8
05.437,-82.62
05.453,-84.96
05.468,-83.54
05.484,-77.52
05.500,-66.76
05.515,-52.06
05.531,-34.95
05.546,-17.38
05.562,-1.15
05.578,12.44
05.593,22.9
05.609,30.36
05.625,35.37
05.640,38.57
05.656,40.46
05.671,41.41
05.687,41.67
05.703,41.43
05.718,40.87
05.734,40.15
05.750,39.41
05.765,38.67
05.781,37.96
05.796,37.21
05.812,36.5
05.828,35.93
05.843,35.58
05.859,35.46
05.875,35.45
05.890,35.22
05.906,34.43
05.921,32.72
05.937,29.9
05.953,26.02
05.968,21.34
05.984,16.22
06.000,11.06
06.015,6.16
06.031,1.55
06.046,-2.9
06.062,-7.37
06.078,-12.13
06.093,-17.24
06.109,-22.59
06.125,-27.93
06.140,-32.9
06.156,-37.22
06.171,-40.79
06.187,-43.8
06.203,-46.57
06.218,-49.67
06.234,-53.65
06.250,-58.79
06.265,-64.99
06.281,-71.57
06.296,-77.34
06.312,-80.77
06.328,-80.45
06.343,-75.39
06.359,-65.51
06.375,-51.62
06.390,-35.23
06.406,-18.22
06.421,-2.3
06.437,11.31
06.453,22.1
06.468,30.08
06.484,35.71
06.500,39.45
06.515,41.75
06.531,42.96
06.546,43.25
06.562,42.84
06.578,41.86
06.593,40.48
06.609,38.84
06.625,37.06
06.640,35.17
06.656,33.21
06.671,31.24
06.687,29.31
06.703,27.53
06.718,26.01
06.734,24.67
06.750,23.44
06.765,22.07
06.781,20.29
06.796,17.87
06.812,14.68
06.828,10.73
06.843,6.24
06.859,1.49
06.875,-3.27
06.890,-7.81
06.906,-12.09
06.921,-16.22
06.937,-20.42
06.953,-24.9
06.968,-29.88
06.984,-35.35
07.000,-41.13
07.015,-46.83
07.031,-52.1
07.046,-56.73
07.062,-60.81
07.078,-64.69
07.093,-68.9
07.109,-73.87
07.125,-79.61
07.140,-85.57
07.156,-90.58
07.171,-93.07
07.187,-91.46
07.203,-84.72
07.218,-72.69
07.234,-56.32
07.250,-37.45
07.265,-18.26
07.281,-0.69
07.296,14.0
07.312,25.45
07.328,33.95
07.343,40.1
07.359,44.52
07.375,47.68
07.390,49.86
07.406,51.37
07.421,52.39
07.437,53.08
07.453,53.5
07.468,53.5
07.484,52.96
07.500,51.75
07.515,49.95
07.531,47.79
07.546,45.57
07.562,43.51
07.578,41.8
07.593,40.48
07.609,39.39
07.625,38.34
07.640,37.01
07.656,35.14
07.671,32.47
07.687,28.95
07.703,24.73
07.718,20.09
07.734,15.43
07.750,11.01
07.765,6.9
07.781,2.96
07.796,-1.17
07.812,-5.93
07.828,-11.57
07.843,-18.12
07.859,-25.31
07.875,-32.65
07.890,-39.63
07.906,-45.8
07.921,-51.01
07.937,-55.53
07.953,-59.9
07.968,-64.85
07.984,-70.96
08.000,-78.42
08.015,-86.7
08.031,-94.47
08.046,-99.84
08.062,-100.87
08.078,-96.21
08.093,-85.42
08.109,-69.26
08.125,-49.44
08.140,-28.15
08.156,-7.52
08.171,10.87
08.187,26.22
08.203,38.38
08.218,47.69
08.234,54.75
08.250,60.09
08.265,64.05
08.281,66.85
08.296,68.58
08.312,69.33
08.328,69.2
08.343,68.29
08.359,66.71
08.375,64.51
08.390,61.76
08.406,58.6
08.421,55.32
08.437,52.29
08.453,49.79
08.468,47.88
08.484,46.4
08.500,45.0
08.515,43.34
08.531,41.14
08.546,38.27
08.562,34.86
08.578,30.96
08.593,26.67
08.609,22.03
08.625,17.09
08.640,11.97
08.656,6.86
08.671,1.81
08.687,-3.19
08.703,-8.26
08.718,-13.62
08.734,-19.43
08.750,-25.69
08.765,-32.21
08.781,-38.67
08.796,-44.73
08.812,-50.27
08.828,-55.39
08.843,-60.39
08.859,-65.69
08.875,-71.63
08.890,-78.34
08.906,-85.53
08.921,-92.42
08.937,-97.65
08.953,-99.62
08.968,-96.88
08.984,-88.51
09.000,-74.66
09.015,-56.45
09.031,-35.85
09.046,-15.09
09.062,3.89
09.078,19.87
09.093,32.42
09.109,41.77
09.125,48.51
09.140,53.29
09.156,56.76
09.171,59.36
09.187,61.36
09.203,62.86
09.218,63.77
09.234,64.01
09.250,63.5
09.265,62.24
09.281,60.43
09.296,58.33
09.312,56.25
09.328,54.35
09.343,52.66
09.359,51.07
09.375,49.48
09.390,47.83
09.406,46.15
09.421,44.45
09.437,42.66
09.453,40.62
09.468,38.08
09.484,34.83
09.500,30.82
09.515,26.16
09.531,21.17
09.546,16.17
09.562,11.42
09.578,6.98
09.593,2.78
09.609,-1.42
09.625,-5.9
09.640,-10.91
09.656,-16.51
09.671,-22.52
09.687,-28.59
09.703,-34.33
09.718,-39.53
09.734,-44.23
09.750,-48.72
09.765,-53.48
09.781,-58.91
09.796,-65.25
09.812,-72.44
09.828,-79.92
09.843,-86.66
09.859,-91.24
09.875,-92.03
09.890,-87.72
09.906,-77.81
09.921,-62.8
09.937,-44.25
09.953,-24.33
09.968,-5.18
09.984,11.6
10.000,25.25
10.015,35.7
10.031,43.41
10.046,48.91
10.062,52.78
10.078,55.46
10.093,57.23
10.109,58.3
10.125,58.73
10.140,58.56
10.156,57.71
10.171,56.24
10.187,54.25
10.203,51.98
10.218,49.73
10.234,47.72
10.250,46.13
10.265,45.06
10.281,44.45
10.296,44.16
10.312,43.88
10.328,43.11
10.343,41.42
10.359,38.41
10.375,33.99
10.390,28.42
10.406,22.16
10.421,15.75
10.437,9.7
10.453,4.24
10.468,-0.63
10.484,-5.04
10.500,-9.27
10.515,-13.6
10.531,-18.21
10.546,-23.09
10.562,-28.03
10.578,-32.66
10.593,-36.67
10.609,-40.0
10.625,-42.9
10.640,-46.01
10.656,-50.04
10.671,-55.48
10.687,-62.33
10.703,-69.93
10.718,-77.0
10.734,-81.88
10.750,-82.97
10.765,-79.02
10.781,-69.65
10.796,-55.45
10.812,-37.86
10.828,-18.97
10.843,-0.85
10.859,14.81
10.875,27.08
10.890,35.82
10.906,41.52
10.921,44.89
10.937,46.63
10.953,47.31
10.968,47.24
10.984,46.63
11.000,45.74
11.015,44.78
11.031,43.92
11.046,43.2
11.062,42.49
11.078,41.57
11.093,40.29
11.109,38.63
11.125,36.75
11.140,34.95
11.156,33.39
11.171,32.1
11.187,30.81
11.203,29.04
11.218,26.38
11.234,22.62
11.250,17.8
11.265,12.33
11.281,6.75
11.296,1.47
11.312,-3.23
11.328,-7.45
11.343,-11.47
11.359,-15.59
11.375,-20.06
11.390,-24.95
11.406,-30.11
11.421,-35.23
11.437,-40.02
11.453,-44.27
11.468,-48.0
11.484,-51.57
11.500,-55.41
11.515,-60.08
11.531,-65.84
11.546,-72.5
11.562,-79.11
11.578,-84.17
11.593,-85.93
11.609,-82.88
11.625,-74.37
11.640,-60.81
11.656,-43.69
11.671,-25.07
11.687,-7.06
11.703,8.74
11.718,21.52
11.734,31.22
11.750,38.29
11.765,43.31
11.781,46.92
11.796,49.61
11.812,51.71
11.828,53.44
11.843,54.79
11.859,55.69
11.875,55.94
11.890,55.39
11.906,53.94
11.921,51.65
11.937,48.81
11.953,45.81
11.968,43.08
11.984,40.91
12.000,39.48
12.015,38.63
12.031,38.16
12.046,37.68
12.062,36.76
12.078,35.11
12.093,32.48
12.109,28.8
12.125,24.15
12.140,18.85
12.156,13.16
12.171,7.48
12.187,2.04
12.203,-3.21
12.218,-8.47
12.234,-14.06
12.250,-20.09
12.265,-26.48
12.281,-32.86
12.296,-38.8
12.312,-43.94
12.328,-48.21
12.343,-51.95
12.359,-55.66
12.375,-59.97
12.390,-65.29
12.406,-71.74
12.421,-78.99
12.437,-86.22
12.453,-92.11
12.468,-95.11
12.484,-93.77
12.500,-87.1
12.515,-75.05
12.531,-58.59
12.546,-39.54
12.562,-20.16
12.578,-2.51
12.593,12.12
12.609,23.35
12.625,31.58
12.640,37.76
12.656,42.78
12.671,47.25
12.687,51.42
12.703,55.19
12.718,58.24
12.734,60.33
12.750,61.39
12.765,61.44
12.781,60.66
12.796,59.29
12.812,57.44
12.828,55.29
12.843,52.97
12.859,50.66
12.875,48.54
12.890,46.79
12.906,45.38
12.921,44.13
12.937,42.78
12.953,40.91
12.968,38.32
12.984,34.99
13.000,31.1
13.015,26.95
13.031,22.79
13.046,18.68
13.062,14.6
13.078,10.38
13.093,5.88
13.109,1.02
13.125,-4.23
13.140,-9.8
13.156,-15.62
13.171,-21.64
13.187,-27.78
13.203,-33.86
13.218,-39.66
13.234,-45.02
13.250,-49.76
13.265,-53.93
13.281,-57.82
13.296,-61.83
13.312,-66.55
13.328,-72.39
13.343,-79.38
13.359,-86.92
13.375,-93.75
13.390,-98.16
13.406,-98.34
13.421,-93.11
13.437,-82.16
13.453,-66.38
13.468,-47.5
13.484,-27.73
13.500,-9.0
13.515,7.35
13.531,20.77
13.546,31.31
13.562,39.43
13.578,45.74
13.593,50.72
13.609,54.72
13.625,57.87
13.640,60.07
13.656,61.25
13.671,61.38
13.687,60.49
13.703,58.86
13.718,56.87
13.734,54.94
13.750,53.4
13.765,52.34
13.781,51.64
13.796,51.07
13.812,50.39
13.828,49.42
13.843,48.11
13.859,46.52
13.875,44.64
13.890,42.47
13.906,39.92
13.921,36.76
13.937,32.91
13.953,28.37
13.968,23.32
13.984,18.04
14.000,12.83
14.015,7.85
14.031,3.11
14.046,-1.51
14.062,-6.28
14.078,-11.37
14.093,-16.84
14.109,-22.65
14.125,-28.58
14.140,-34.45
14.156,-40.14
14.171,-45.53
14.187,-50.61
14.203,-55.4
14.218,-60.0
14.234,-64.62
14.250,-69.63
14.265,-75.27
14.281,-81.52
14.296,-87.82
14.312,-92.86
14.328,-94.96
14.343,-92.45
14.359,-84.33
14.375,-70.75
14.390,-53.01
14.406,-33.17
14.421,-13.52
14.437,4.07
14.453,18.53
14.468,29.61
14.484,37.66
14.500,43.38
14.515,47.44
14.531,50.48
14.546,52.89
14.562,54.9
14.578,56.57
14.593,57.82
14.609,58.54
14.625,58.54
14.640,57.72
14.656,55.98
14.671,53.41
14.687,50.23
14.703,46.8
14.718,43.58
14.734,40.94
14.750,38.97
14.765,37.43
14.781,35.82
14.796,33.55
14.812,30.22
14.828,25.77
14.843,20.49
14.859,14.9
14.875,9.57
14.890,4.85
14.906,0.84
14.921,-2.67
14.937,-6.08
14.953,-9.9
14.968,-14.52
14.984,-20.05
15.000,-26.27
15.015,-32.66
15.031,-38.64
15.046,-43.7
15.062,-47.71
15.078,-50.86
15.093,-53.71
15.109,-56.88
15.125,-60.91
15.140,-66.0
15.156,-71.88
15.171,-77.74
15.187,-82.22
15.203,-83.74
15.218,-80.92
15.234,-73.05
15.250,-60.38
15.265,-44.24
15.281,-26.57
15.296,-9.42
15.312,5.66
15.328,17.91
15.343,27.29
15.359,34.22
15.375,39.18
15.390,42.51
15.406,44.35
15.421,44.79
15.437,44.05
15.453,42.48
15.468,40.54
15.484,38.61
15.500,36.9
15.515,35.4
15.531,33.91
15.546,32.28
15.562,30.45
15.578,28.68
15.593,27.27
15.609,26.5
15.625,26.38
15.640,26.5
15.656,26.22
15.671,24.77
15.687,21.73
15.703,17.16
15.718,11.65
15.734,5.95
15.750,0.76
15.765,-3.62
15.781,-7.38
15.796,-10.99
15.812,-15.05
15.828,-19.94
15.843,-25.77
15.859,-32.33
15.875,-39.25
15.890,-45.99
15.906,-52.07
15.921,-57.28
15.937,-61.73
15.953,-65.94
15.968,-70.53
15.984,-76.06
16.000,-82.5
16.015,-89.09
16.031,-94.38
16.046,-96.51
16.062,-93.85
16.078,-85.49
16.093,-71.64
16.109,-53.61
16.125,-33.51
16.140,-13.61
16.156,4.2
16.171,18.81
16.187,30.06
16.203,38.39
16.218,44.67
16.234,49.71
16.250,54.0
16.265,57.65
16.281,60.53
16.296,62.36
16.312,62.98
16.328,62.34
16.343,60.53
16.359,57.77
16.375,54.36
16.390,50.65
16.406,47.05
16.421,44.05
16.437,42.04
16.453,41.22
16.468,41.42
16.484,42.13
16.500,42.53
16.515,41.87
16.531,39.54
16.546,35.44
16.562,29.91
16.578,23.58
16.593,17.22
16.609,11.41
16.625,6.42
16.640,2.07
16.656,-2.06
16.671,-6.54
16.687,-11.72
16.703,-17.65
16.718,-24.02
16.734,-30.37
16.750,-36.23
16.765,-41.39
16.781,-45.95
16.796,-50.3
16.812,-55.03
16.828,-60.6
16.843,-67.35
16.859,-75.16
16.875,-83.42
16.890,-90.9
16.906,-95.94
16.921,-96.69
16.937,-91.82
16.953,-80.98
16.968,-64.96
16.984,-45.68
17.000,-25.48
17.015,-6.5
17.031,9.85
17.046,23.01
17.062,33.21
17.078,41.08
17.093,47.23
17.109,52.24
17.125,56.45
17.140,60.01
17.156,62.97
17.171,65.23
17.187,66.65
17.203,67.1
17.218,66.58
17.234,65.2
17.250,63.25
17.265,60.98
17.281,58.66
17.296,56.46
17.312,54.46
17.328,52.71
17.343,51.18
17.359,49.81
17.375,48.37
17.390,46.57
17.406,44.03
17.421,40.44
17.437,35.75
17.453,30.19
17.468,24.27
17.484,18.47
17.500,13.11
17.515,8.1
17.531,3.07
17.546,-2.5
17.562,-8.97
17.578,-16.32
17.593,-24.21
17.609,-32.07
17.625,-39.37
17.640,-45.83
17.656,-51.46
17.671,-56.53
17.687,-61.46
17.703,-66.6
17.718,-72.3
17.734,-78.72
17.750,-85.6
17.765,-92.22
17.781,-97.34
17.796,-99.39
17.812,-96.82
17.828,-88.71
17.843,-75.1
17.859,-57.17
17.875,-36.92
17.890,-16.59
17.906,1.97
17.921,17.61
17.937,29.97
17.953,39.34
17.968,46.43
17.984,51.91
18.000,56.24
18.015,59.64
18.031,62.09
18.046,63.51
18.062,63.9
18.078,63.23
18.093,61.56
18.109,59.1
18.125,56.08
18.140,52.78
18.156,49.41
18.171,46.17
18.187,43.19
18.203,40.6
18.218,38.42
18.234,36.57
18.250,34.96
18.265,33.42
18.281,31.6
18.296,29.01
18.312,25.21
18.328,19.98
18.343,13.48
18.359,6.01
18.375,-2.06
18.390,-9.87
18.406,-16.75
18.421,-22.35
18.437,-27.02
18.453,-31.52
18.468,-36.63
18.484,-42.84
18.500,-50.47
18.515,-59.55
18.531,-68.81
18.546,-76.75
18.562,-82.32
18.578,-85.69
18.593,-88.0
18.609,-90.77
18.625,-95.34
18.640,-102.67
18.656,-113.04
18.671,-124.02
18.687,-131.97
18.703,-133.42
18.718,-126.65
18.734,-111.94
18.750,-90.96
18.765,-65.97
18.781,-39.39
18.796,-13.18
18.812,13.66
18.828,43.14
18.843,77.03
18.859,115.48
18.875,157.65
18.890,203.14
18.906,252.3
18.921,305.29
18.937,346.97
18.953,361.77
18.968,340.97
18.984,288.99
19.000,218.39
19.015,141.58
19.031,67.24
19.046,0.4
19.062,-56.77
19.078,-103.78
19.093,-138.9
19.109,-161.82
19.125,-171.71
19.140,-169.25
19.156,-156.85
19.171,-137.67
19.187,-114.99
19.203,-92.03
19.218,-71.75
19.234,-54.66
19.250,-41.13
19.265,-31.33
19.281,-25.79
19.296,-24.96
19.312,-28.46
19.328,-35.31
19.343,-44.51
19.359,-55.39
19.375,-66.47
19.390,-76.17
19.406,-82.97
19.421,-86.31
19.437,-86.78
19.453,-85.47
19.468,-83.66
19.484,-82.28
19.500,-81.59
19.515,-80.41
19.531,-76.83
19.546,-68.88
19.562,-55.58
19.578,-37.34
19.593,-15.63
19.609,7.41
19.625,29.54
19.640,48.9
19.656,64.56
19.671,76.35
19.687,84.7
19.703,90.32
19.718,93.88
19.734,95.85
19.750,96.5
19.765,96.12
19.781,95.37
19.796,95.13
19.812,96.21
19.828,99.14
19.843,104.09
19.859,110.52
19.875,117.22
19.890,122.85
19.906,126.74
19.921,129.38
19.937,132.14
19.953,136.35
19.968,142.63
19.984,150.84
20.000,159.72
20.015,167.1
20.031,170.77
20.046,169.47
20.062,163.55
20.078,154.56
20.093,144.08
20.109,132.84
20.125,120.83
20.140,106.58
20.156,87.35
20.171,60.0
20.187,22.39
20.203,-25.34
20.218,-80.86
20.234,-140.86
20.250,-201.85
20.265,-260.29
20.281,-307.8
20.296,-333.42
20.312,-330.1
20.328,-299.83
20.343,-251.89
20.359,-196.81
20.375,-142.81
20.390,-98.07
20.406,-62.86
20.421,-37.44
20.437,-22.73
20.453,-19.42
20.468,-26.68
20.484,-41.73
20.500,-60.36
20.515,-78.3
20.531,-92.59
20.546,-101.8
20.562,-107.14
20.578,-111.76
20.593,-119.32
20.609,-131.82
20.625,-147.86
20.640,-162.52
20.656,-168.98
20.671,-161.27
20.687,-136.17
20.703,-95.39
20.718,-45.0
20.734,6.54
20.750,51.39
20.765,84.55
20.781,104.68
20.796,113.33
20.812,113.56
20.828,109.36
20.843,104.52
20.859,102.3
20.875,104.9
20.890,112.9
20.906,124.57
20.921,136.04
20.937,142.57
20.953,140.34
20.968,128.7
20.984,110.44
21.000,90.68
21.015,74.38
21.031,64.37
21.046,60.54
21.062,60.82
21.078,62.88
21.093,65.07
21.109,66.33
21.125,64.76
21.140,56.97
21.156,39.2
21.171,10.16
21.187,-26.48
21.203,-61.68
21.218,-84.06
21.234,-84.77
21.250,-61.34
21.265,-18.66
21.281,33.52
21.296,84.88
21.312,127.88
21.328,158.61
21.343,175.57
21.359,177.76
21.375,163.97
21.390,133.9
21.406,89.88
21.421,37.72
21.437,-14.44
21.453,-58.69
21.468,-89.97
21.484,-107.25
21.500,-112.84
21.515,-110.69
21.531,-104.32
21.546,-95.8
21.562,-85.7
21.578,-73.83
21.593,-60.31
21.609,-45.93
21.625,-32.12
21.640,-20.3
21.656,-11.64
21.671,-6.67
21.687,-5.3
21.703,-7.05
21.718,-11.2
21.734,-16.89
21.750,-23.27
21.765,-29.53
21.781,-34.83
21.796,-38.54
21.812,-40.21
21.828,-39.64
21.843,-37.01
21.859,-32.85
21.875,-28.06
21.890,-23.65
21.906,-20.64
21.921,-19.62
21.937,-20.63
21.953,-23.09
21.968,-25.82
21.984,-27.43
22.000,-26.68
22.015,-22.94
22.031,-16.3
22.046,-7.63
22.062,1.85
22.078,10.95
22.093,18.84
22.109,25.32
22.125,30.6
22.140,35.14
22.156,39.25
22.171,42.97
22.187,46.05
22.203,48.17
22.218,49.13
22.234,48.93
22.250,47.78
22.265,45.91
22.281,43.52
22.296,40.72
22.312,37.56
22.328,34.13
22.343,30.55
22.359,27.12
22.375,24.05
22.390,21.48
22.406,19.28
22.421,17.13
22.437,14.68
22.453,11.63
22.468,7.81
22.484,3.24
22.500,-1.84
22.515,-7.14
22.531,-12.4
22.546,-17.43
22.562,-22.24
22.578,-26.85
22.593,-31.38
22.609,-35.97
22.625,-40.78
22.640,-45.96
22.656,-51.59
22.671,-57.62
22.687,-63.7
22.703,-69.16
22.718,-73.1
22.734,-74.48
22.750,-72.47
22.765,-66.75
22.781,-57.55
22.796,-45.77
22.812,-32.68
22.828,-19.54
22.843,-7.44
22.859,2.99
22.875,11.62
22.890,18.58
22.906,24.14
22.921,28.5
22.937,31.72
22.953,33.85
22.968,34.96
22.984,35.16
23.000,34.64
23.015,33.59
23.031,32.09
23.046,30.18
23.062,27.82
23.078,25.07
23.093,22.08
23.109,19.16
23.125,16.54
23.140,14.33
23.156,12.5
23.171,10.79
23.187,8.92
23.203,6.74
23.218,4.15
23.234,1.16
23.250,-2.1
23.265,-5.57
23.281,-9.2
23.296,-12.88
23.312,-16.56
23.328,-20.13
23.343,-23.52
23.359,-26.68
23.375,-29.69
23.390,-32.61
23.406,-35.62
23.421,-38.94
23.437,-42.76
23.453,-47.15
23.468,-51.87
23.484,-56.3
23.500,-59.48
23.515,-60.33
23.531,-57.94
23.546,-51.9
23.562,-42.53
23.578,-30.78
23.593,-18.02
23.609,-5.63
23.625,5.36
23.640,14.47
23.656,21.67
23.671,27.29
23.687,31.64
23.703,35.01
23.718,37.58
23.734,39.42
23.750,40.6
23.765,41.16
23.781,41.16
23.796,40.56
23.812,39.38
23.828,37.58
23.843,35.23
23.859,32.53
23.875,29.73
23.890,27.07
23.906,24.67
23.921,22.49
23.937,20.48
23.953,18.48
23.968,16.46
23.984,14.35
24.000,12.05
24.015,9.48
24.031,6.55
24.046,3.26
24.062,-0.35
24.078,-4.1
24.093,-7.82
24.109,-11.35
24.125,-14.64
24.140,-17.73
24.156,-20.69
24.171,-23.59
24.187,-26.52
24.203,-29.66
24.218,-33.18
24.234,-37.14
24.250,-41.31
24.265,-45.02
24.281,-47.32
24.296,-47.22
24.312,-44.07
24.328,-37.77
24.343,-28.9
24.359,-18.46
24.375,-7.54
24.390,2.95
24.406,12.4
24.421,20.46
24.437,26.99
24.453,31.84
24.468,34.95
24.484,36.4
24.500,36.39
24.515,35.29
24.531,33.45
24.546,31.23
24.562,28.89
24.578,26.53
24.593,24.22
24.609,21.98
24.625,19.84
24.640,17.94
24.656,16.38
24.671,15.18
24.687,14.24
24.703,13.45
24.718,12.59
24.734,11.51
24.750,10.0
24.765,7.86
24.781,4.99
24.796,1.41
24.812,-2.8
24.828,-7.45
24.843,-12.26
24.859,-16.97
24.875,-21.35
24.890,-25.28
24.906,-28.79
24.921,-32.03
24.937,-35.2
24.953,-38.49
24.968,-42.06
24.984,-45.81
25.000,-49.34
25.015,-51.92
25.031,-52.66
25.046,-50.77
25.062,-45.82
25.078,-37.95
25.093,-27.83
25.109,-16.47
25.125,-5.02
25.140,5.58
25.156,14.75
25.171,22.28
25.187,28.16
25.203,32.61
25.218,35.73
25.234,37.74
25.250,38.83
25.265,39.08
25.281,38.52
25.296,37.23
25.312,35.29
25.328,32.84
25.343,30.14
25.359,27.39
25.375,24.86
25.390,22.72
25.406,21.03
25.421,19.68
25.437,18.48
25.453,17.24
25.468,15.72
25.484,13.83
25.500,11.5
25.515,8.77
25.531,5.63
25.546,2.08
25.562,-1.93
25.578,-6.42
25.593,-11.3
25.609,-16.37
25.625,-21.33
25.640,-25.95
25.656,-30.14
25.671,-34.02
25.687,-37.77
25.703,-41.58
25.718,-45.56
25.734,-49.73
25.750,-54.02
25.765,-58.24
25.781,-61.96
25.796,-64.46
25.812,-64.84
25.828,-62.21
25.843,-56.07
25.859,-46.61
25.875,-34.69
25.890,-21.69
25.906,-9.04
25.921,2.14
25.937,11.3
25.953,18.39
25.968,23.67
25.984,27.53
26.000,30.34
26.015,32.36
26.031,33.82
26.046,34.81
26.062,35.36
26.078,35.37
26.093,34.82
26.109,33.71
26.125,32.2
26.140,30.53
26.156,28.98
26.171,27.77
26.187,26.95
26.203,26.4
26.218,25.82
26.234,24.85
26.250,23.23
26.265,20.77
26.281,17.5
26.296,13.62
26.312,9.4
26.328,5.11
26.343,0.89
26.359,-3.25
26.375,-7.43
26.390,-11.78
26.406,-16.3
26.421,-20.97
26.437,-25.64
26.453,-30.19
26.468,-34.47
26.484,-38.43
26.500,-42.03
26.515,-45.4
26.531,-48.63
26.546,-51.98
26.562,-55.59
26.578,-59.43
26.593,-63.1
26.609,-65.81
26.625,-66.5
26.640,-64.21
26.656,-58.5
26.671,-49.51
26.687,-38.21
26.703,-25.91
26.718,-13.94
26.734,-3.32
26.750,5.51
26.765,12.63
26.781,18.31
26.796,22.92
26.812,26.8
26.828,30.12
26.843,32.98
26.859,35.41
26.875,37.34
26.890,38.68
26.906,39.37
26.921,39.32
26.937,38.55
26.953,37.16
26.968,35.27
26.984,33.11
27.000,30.92
27.015,28.86
27.031,27.07
27.046,25.5
27.062,23.97
27.078,22.19
27.093,19.95
27.109,17.09
27.125,13.72
27.140,10.05
27.156,6.25
27.171,2.37
27.187,-1.72
27.203,-6.18
27.218,-11.08
27.234,-16.24
27.250,-21.4
27.265,-26.13
27.281,-30.23
27.296,-33.67
27.312,-36.76
27.328,-39.89
27.343,-43.5
27.359,-47.8
27.375,-52.72
27.390,-58.0
27.406,-62.93
27.421,-66.56
27.437,-67.72
27.453,-65.44
27.468,-59.09
27.484,-48.85
27.500,-35.59
27.515,-20.71
27.531,-5.86
27.546,7.65
27.562,19.01
27.578,27.98
27.593,34.77
27.609,39.81
27.625,43.5
27.640,46.11
27.656,47.8
27.671,48.65
27.687,48.77
27.703,48.25
27.718,47.19
27.734,45.75
27.750,44.07
27.765,42.31
27.781,40.64
27.796,39.17
27.812,37.97
27.828,37.02
27.843,35.98
27.859,34.43
27.875,31.95
27.890,28.33
27.906,23.78
27.921,18.65
27.937,13.48
27.953,8.77
27.968,4.81
27.984,1.43
28.000,-1.86
28.015,-5.6
28.031,-10.09
28.046,-15.08
28.062,-20.09
28.078,-24.41
28.093,-27.46
28.109,-29.01
28.125,-29.61
28.140,-30.22
28.156,-31.85
28.171,-35.0
28.187,-39.14
28.203,-43.07
28.218,-44.83
28.234,-42.14
28.250,-33.1
28.265,-17.45
28.281,3.92
28.296,29.61
28.312,58.5
28.328,89.98
28.343,122.28
28.359,152.84
28.375,178.71
28.390,197.4
28.406,206.56
28.421,205.17
28.437,193.56
28.453,172.67
28.468,143.35
28.484,103.85
28.500,53.13
28.515,-5.99
28.531,-65.82
28.546,-117.02
28.562,-151.28
28.578,-164.0
28.593,-155.47
28.609,-129.41
28.625,-94.76
28.640,-60.04
28.656,-30.67
28.671,-9.41
28.687,-0.12
28.703,-7.66
28.718,-35.77
28.734,-84.54
28.750,-147.74
28.765,-219.04
28.781,-290.86
28.796,-355.56
28.812,-392.66
28.828,-386.03
28.843,-333.99
28.859,-251.18
28.875,-169.42
28.890,-93.54
28.906,-23.67
28.921,38.46
28.937,90.95
28.953,129.57
28.968,151.22
28.984,157.87
29.000,157.62
29.015,161.65
29.031,180.26
29.046,213.14
29.062,251.68
29.078,283.01
29.093,295.42
29.109,281.57
29.125,242.09
29.140,185.85
29.156,127.43
29.171,82.92
29.187,61.12
29.203,63.1
29.218,82.83
29.234,109.02
29.250,127.66
29.265,127.01
29.281,102.24
29.296,58.18
29.312,8.3
29.328,-32.51
29.343,-52.67
29.359,-48.22
29.375,-24.5
29.390,6.22
29.406,30.8
29.421,41.08
29.437,36.66
29.453,23.69
29.468,9.03
29.484,-3.5
29.500,-14.54
29.515,-27.26
29.531,-43.73
29.546,-61.73
29.562,-74.56
29.578,-74.72
29.593,-58.24
29.609,-28.39
29.625,5.35
29.640,31.2
29.656,40.49
29.671,31.28
29.687,8.57
29.703,-18.66
29.718,-42.28
29.734,-57.93
29.750,-65.64
29.765,-67.78
29.781,-66.67
29.796,-63.48
29.812,-58.86
29.828,-54.11
29.843,-51.57
29.859,-53.8
29.875,-62.06
29.890,-75.41
29.906,-91.11
29.921,-106.08
29.937,-118.31
29.953,-127.21
29.968,-133.04
29.984,-135.82
30.000,-134.83
30.015,-129.05
30.031,-117.94
30.046,-102.15
30.062,-83.36
30.078,-63.67
30.093,-44.58
30.109,-26.71
30.125,-9.81
30.140,6.61
30.156,22.69
30.171,37.91
30.187,51.12
30.203,60.96
30.218,66.29
30.234,66.84
30.250,63.15
30.265,56.56
30.281,48.6
30.296,40.58
30.312,33.21
30.328,26.72
30.343,20.97
30.359,15.85
30.375,11.44
30.390,7.88
30.406,5.34
30.421,3.66
30.437,2.41
30.453,0.95
30.468,-1.36
30.484,-4.92
30.500,-9.72
30.515,-15.42
30.531,-21.53
30.546,-27.58
30.562,-33.41
30.578,-39.18
30.593,-45.28
30.609,-52.06
30.625,-59.54
30.640,-67.18
30.656,-73.85
30.671,-78.11
30.687,-78.49
30.703,-74.06
30.718,-64.71
30.734,-51.23
30.750,-35.1
30.765,-18.14
30.781,-2.08
30.796,11.9
30.812,23.22
30.828,31.99
30.843,38.61
30.859,43.64
30.875,47.54
30.890,50.64
30.906,53.09
30.921,54.89
30.937,55.98
30.953,56.29
30.968,55.77
30.984,54.38
31.000,52.32
31.015,49.83
31.031,47.28
31.046,45.07
31.062,43.38
31.078,42.24
31.093,41.49
31.109,40.75
31.125,39.63
31.140,37.87
31.156,35.31
31.171,31.93
31.187,27.92
31.203,23.5
31.218,18.98
31.234,14.59
31.250,10.35
31.265,6.12
31.281,1.65
31.296,-3.3
31.312,-8.84
31.328,-14.75
31.343,-20.66
31.359,-26.11
31.375,-30.82
31.390,-34.86
31.406,-38.63
31.421,-42.7
31.437,-47.63
31.453,-53.7
31.468,-60.61
31.484,-67.56
31.500,-73.17
31.515,-75.88
31.531,-74.36
31.546,-67.96
31.562,-56.87
31.578,-42.14
31.593,-25.37
31.609,-8.2
31.625,7.87
31.640,21.86
31.656,33.34
31.671,42.21
31.687,48.72
31.703,53.2
31.718,56.03
31.734,57.56
31.750,58.12
31.765,57.86
31.781,56.91
31.796,55.4
31.812,53.43
31.828,51.18
31.843,48.79
31.859,46.38
31.875,44.05
31.890,41.94
31.906,40.07
31.921,38.35
31.937,36.7
31.953,34.88
31.968,32.69
31.984,29.97
32.000,26.66
32.015,22.83
32.031,18.67
32.046,14.28
32.062,9.67
32.078,4.85
32.093,-0.28
32.109,-5.74
32.125,-11.4
32.140,-17.14
32.156,-22.8
32.171,-28.24
32.187,-33.43
32.203,-38.52
32.218,-43.69
32.234,-49.2
32.250,-55.18
32.265,-61.41
32.281,-67.29
32.296,-71.82
32.312,-73.72
32.328,-71.9
32.343,-65.79
32.359,-55.6
32.375,-42.29
32.390,-27.32
32.406,-12.13
32.421,2.02
32.437,14.31
32.453,24.45
32.468,32.48
32.484,38.62
32.500,43.28
32.515,46.78
32.531,49.41
32.546,51.4
32.562,52.75
32.578,53.36
32.593,53.1
32.609,51.9
32.625,49.86
32.640,47.26
32.656,44.46
32.671,41.79
32.687,39.53
32.703,37.69
32.718,36.16
32.734,34.74
32.750,33.19
32.765,31.35
32.781,29.13
32.796,26.43
32.812,23.14
32.828,19.18
32.843,14.48
32.859,9.15
32.875,3.4
32.890,-2.48
32.906,-8.13
32.921,-13.31
32.937,-17.94
32.953,-22.03
32.968,-25.7
32.984,-29.15
33.000,-32.61
33.015,-36.35
33.031,-40.72
33.046,-45.95
33.062,-52.07
33.078,-58.66
33.093,-64.76
33.109,-68.91
33.125,-69.66
33.140,-65.86
33.156,-57.28
33.171,-44.68
33.187,-29.56
33.203,-13.75
33.218,1.13
33.234,14.02
33.250,24.51
33.265,32.72
33.281,39.0
33.296,43.66
33.312,46.9
33.328,48.9
33.343,49.8
33.359,49.86
33.375,49.37
33.390,48.59
33.406,47.75
33.421,46.96
33.437,46.16
33.453,45.28
33.468,44.35
33.484,43.43
33.500,42.65
33.515,41.99
33.531,41.27
33.546,40.12
33.562,38.17
33.578,35.19
33.593,31.17
33.609,26.48
33.625,21.55
33.640,16.85
33.656,12.63
33.671,8.83
33.687,5.23
33.703,1.42
33.718,-2.85
33.734,-7.64
33.750,-12.79
33.765,-18.0
33.781,-22.99
33.796,-27.54
33.812,-31.58
33.828,-35.22
33.843,-38.7
33.859,-42.41
33.875,-46.63
33.890,-51.48
33.906,-56.75
33.921,-61.67
33.937,-65.13
33.953,-65.86
33.968,-62.88
33.984,-55.9
34.000,-45.46
34.015,-32.73
34.031,-19.12
34.046,-5.94
34.062,5.94
34.078,16.05
34.093,24.21
34.109,30.4
34.125,34.73
34.140,37.38
34.156,38.65
34.171,38.92
34.187,38.57
34.203,37.92
34.218,37.03
34.234,35.89
34.250,34.41
34.265,32.58
34.281,30.49
34.296,28.34
34.312,26.37
34.328,24.85
34.343,23.94
34.359,23.55
34.375,23.52
34.390,23.43
34.406,22.87
34.421,21.54
34.437,19.3
34.453,16.3
34.468,12.86
34.484,9.32
34.500,5.89
34.515,2.66
34.531,-0.53
34.546,-3.94
34.562,-7.79
34.578,-12.18
34.593,-16.95
34.609,-21.87
34.625,-26.62
34.640,-31.06
34.656,-35.2
34.671,-39.22
34.687,-43.38
34.703,-47.8
34.718,-52.36
34.734,-56.61
34.750,-59.88
34.765,-61.3
34.781,-60.12
34.796,-55.79
34.812,-48.29
34.828,-38.12
34.843,-26.3
34.859,-14.11
34.875,-2.77
34.890,6.77
34.906,14.2
34.921,19.63
34.937,23.52
34.953,26.41
34.968,28.75
34.984,30.83
35.000,32.72
35.015,34.38
35.031,35.65
35.046,36.38
35.062,36.43
35.078,35.64
35.093,34.02
35.109,31.72
35.125,29.1
35.140,26.63
35.156,24.74
35.171,23.57
35.187,22.96
35.203,22.47
35.218,21.53
35.234,19.76
35.250,17.01
35.265,13.5
35.281,9.53
35.296,5.44
35.312,1.4
35.328,-2.62
35.343,-6.76
35.359,-11.19
35.375,-15.9
35.390,-20.8
35.406,-25.65
35.421,-30.19
35.437,-34.23
35.453,-37.67
35.468,-40.55
35.484,-43.06
35.500,-45.47
35.515,-47.96
35.531,-50.64
35.546,-53.37
35.562,-55.6
35.578,-56.54
35.593,-55.27
35.609,-51.09
35.625,-43.74
35.640,-33.65
35.656,-21.76
35.671,-9.31
35.687,2.46
35.703,12.68
35.718,20.9
35.734,27.09
35.750,31.38
35.765,34.06
35.781,35.31
35.796,35.4
35.812,34.6
35.828,33.24
35.843,31.63
35.859,30.0
35.875,28.48
35.890,27.1
35.906,25.87
35.921,24.78
35.937,23.91
35.953,23.36
35.968,23.07
35.984,22.88
36.000,22.56
36.015,21.81
36.031,20.42
36.046,18.26
36.062,15.33
36.078,11.79
36.093,7.89
36.109,3.88
36.125,0.05
36.140,-3.41
36.156,-6.44
36.171,-9.13
36.187,-11.67
36.203,-14.32
36.218,-17.26
36.234,-20.5
36.250,-23.92
36.265,-27.24
36.281,-30.36
36.296,-33.37
36.312,-36.61
36.328,-40.54
36.343,-45.46
36.359,-51.29
36.375,-57.3
36.390,-62.21
36.406,-64.51
36.421,-63.01
36.437,-57.22
36.453,-47.54
36.468,-35.15
36.484,-21.6
36.500,-8.36
36.515,3.5
36.531,13.55
36.546,21.76
36.562,28.34
36.578,33.58
36.593,37.66
36.609,40.69
36.625,42.78
36.640,44.07
36.656,44.7
36.671,44.83
36.687,44.53
36.703,43.81
36.718,42.66
36.734,41.09
36.750,39.15
36.765,37.02
36.781,34.86
36.796,32.71
36.812,30.53
36.828,28.14
36.843,25.36
36.859,22.14
36.875,18.52
36.890,14.73
36.906,11.08
36.921,7.81
36.937,5.01
36.953,2.66
36.968,0.52
36.984,-1.73
37.000,-4.4
37.015,-7.76
37.031,-11.87
37.046,-16.58
37.062,-21.63
37.078,-26.66
37.093,-31.32
37.109,-35.52
37.125,-39.27
37.140,-42.8
37.156,-46.41
37.171,-50.49
37.187,-55.33
37.203,-61.05
37.218,-67.54
37.234,-74.12
37.250,-79.69
37.265,-82.8
37.281,-82.03
37.296,-76.54
37.312,-66.46
37.328,-52.89
37.343,-37.6
37.359,-22.5
37.375,-8.98
37.390,2.37
37.406,11.6
37.421,19.21
37.437,25.72
37.453,31.48
37.468,36.58
37.484,40.98
37.500,44.63
37.515,47.53
37.531,49.68
37.546,50.98
37.562,51.32
37.578,50.58
37.593,48.84
37.609,46.33
37.625,43.51
37.640,40.89
37.656,38.85
37.671,37.48
37.687,36.54
37.703,35.59
37.718,34.14
37.734,31.83
37.750,28.5
37.765,24.25
37.781,19.35
37.796,14.18
37.812,9.16
37.828,4.68
37.843,1.02
37.859,-1.74
37.875,-3.87
37.890,-5.8
37.906,-8.07
37.921,-11.04
37.937,-14.88
37.953,-19.42
37.968,-24.38
37.984,-29.5
38.000,-34.65
38.015,-39.79
38.031,-44.97
38.046,-50.23
38.062,-55.65
38.078,-61.35
38.093,-67.2
38.109,-72.81
38.125,-77.46
38.140,-79.99
38.156,-79.23
38.171,-74.3
38.187,-65.04
38.203,-52.16
38.218,-37.11
38.234,-21.59
38.250,-7.04
38.265,5.51
38.281,15.73
38.296,23.69
38.312,29.71
38.328,34.22
38.343,37.52
38.359,39.93
38.375,41.73
38.390,43.19
38.406,44.44
38.421,45.51
38.437,46.26
38.453,46.48
38.468,46.03
38.484,44.85
38.500,43.1
38.515,41.09
38.531,39.11
38.546,37.38
38.562,36.04
38.578,34.96
38.593,33.85
38.609,32.47
38.625,30.52
38.640,27.89
38.656,24.7
38.671,21.11
38.687,17.39
38.703,13.84
38.718,10.61
38.734,7.66
38.750,4.87
38.765,1.91
38.781,-1.52
38.796,-5.57
38.812,-10.3
38.828,-15.55
38.843,-20.96
38.859,-26.16
38.875,-30.87
38.890,-34.97
38.906,-38.56
38.921,-41.97
38.937,-45.53
38.953,-49.63
38.968,-54.45
38.984,-59.87
39.000,-65.33
39.015,-69.85
39.031,-72.17
39.046,-71.05
39.062,-65.72
39.078,-56.03
39.093,-42.77
39.109,-27.36
39.125,-11.56
39.140,3.07
39.156,15.53
39.171,25.45
39.187,32.99
39.203,38.53
39.218,42.58
39.234,45.34
39.250,46.9
39.265,47.36
39.281,46.78
39.296,45.45
39.312,43.77
39.328,42.09
39.343,40.62
39.359,39.45
39.375,38.54
39.390,37.78
39.406,37.12
39.421,36.55
39.437,36.06
39.453,35.63
39.468,35.1
39.484,34.27
39.500,32.92
39.515,30.88
39.531,28.04
39.546,24.46
39.562,20.31
39.578,15.89
39.593,11.5
39.609,7.35
39.625,3.45
39.640,-0.44
39.656,-4.64
39.671,-9.46
39.687,-14.92
39.703,-20.76
39.718,-26.47
39.734,-31.5
39.750,-35.48
39.765,-38.46
39.781,-40.8
39.796,-43.13
39.812,-46.07
39.828,-50.04
39.843,-55.13
39.859,-61.02
39.875,-66.9
39.890,-71.49
39.906,-73.36
39.921,-71.29
39.937,-64.66
39.953,-53.78
39.968,-39.83
39.984,-24.51
40.000,-9.53
40.015,3.83
40.031,14.95
40.046,23.73
40.062,30.42
40.078,35.31
40.093,38.66
40.109,40.72
40.125,41.84
40.140,42.35
40.156,42.67
40.171,43.04
40.187,43.51
40.203,43.98
40.218,44.25
40.234,44.21
40.250,43.82
40.265,43.25
40.281,42.64
40.296,42.09
40.312,41.57
40.328,40.85
40.343,39.76
40.359,38.08
40.375,35.7
40.390,32.65
40.406,29.07
40.421,25.09
40.437,20.91
40.453,16.7
40.468,12.57
40.484,8.63
40.500,4.85
40.515,1.11
40.531,-2.82
40.546,-7.11
40.562,-11.99
40.578,-17.42
40.593,-23.24
40.609,-29.17
40.625,-34.87
40.640,-40.12
40.656,-44.86
40.671,-49.29
40.687,-53.68
40.703,-58.43
40.718,-63.69
40.734,-69.37
40.750,-75.07
40.765,-79.86
40.781,-82.64
40.796,-82.2
40.812,-77.67
40.828,-68.76
40.843,-56.02
40.859,-40.69
40.875,-24.44
40.890,-8.96
40.906,4.6
40.921,15.68
40.937,24.36
40.953,31.13
40.968,36.54
40.984,41.02
41.000,44.82
41.015,47.97
41.031,50.35
41.046,51.87
41.062,52.43
41.078,52.11
41.093,51.09
41.109,49.64
41.125,48.0
41.140,46.31
41.156,44.62
41.171,42.86
41.187,40.98
41.203,38.93
41.218,36.78
41.234,34.59
41.250,32.35
41.265,30.0
41.281,27.37
41.296,24.35
41.312,20.95
41.328,17.31
41.343,13.71
41.359,10.38
41.375,7.45
41.390,4.89
41.406,2.45
41.421,-0.19
41.437,-3.34
41.453,-7.2
41.468,-11.81
41.484,-17.0
41.500,-22.5
41.515,-27.96
41.531,-33.07
41.546,-37.64
41.562,-41.68
41.578,-45.35
41.593,-49.07
41.609,-53.31
41.625,-58.44
41.640,-64.55
41.656,-71.28
41.671,-77.68
41.687,-82.43
41.703,-84.05
41.718,-81.33
41.734,-73.78
41.750,-61.81
41.765,-46.57
41.781,-29.76
41.796,-13.12
41.812,1.94
41.828,14.47
41.843,24.19
41.859,31.29
41.875,36.23
41.890,39.59
41.906,41.89
41.921,43.44
41.937,44.31
41.953,44.59
41.968,44.3
41.984,43.56
42.000,42.57
42.015,41.5
42.031,40.48
42.046,39.55
42.062,38.69
42.078,37.92
42.093,37.37
42.109,37.16
42.125,37.28
42.140,37.57
42.156,37.67
42.171,37.13
42.187,35.62
42.203,32.99
42.218,29.36
42.234,25.06
42.250,20.39
42.265,15.6
42.281,10.82
42.296,6.03
42.312,1.24
42.328,-3.55
42.343,-8.35
42.359,-13.13
42.375,-17.86
42.390,-22.57
42.406,-27.25
42.421,-31.73
42.437,-35.96
42.453,-39.91
42.468,-43.53
42.484,-46.99
42.500,-50.5
42.515,-54.3
42.531,-58.7
42.546,-63.78
42.562,-69.3
42.578,-74.62
42.593,-78.62
42.609,-79.9
42.625,-77.28
42.640,-70.16
42.656,-58.82
42.671,-44.44
42.687,-28.68
42.703,-13.25
42.718,0.56
42.734,12.05
42.750,21.17
42.765,28.14
42.781,33.39
42.796,37.32
42.812,40.28
42.828,42.6
42.843,44.45
42.859,45.93
42.875,47.02
42.890,47.64
42.906,47.65
42.921,47.1
42.937,46.03
42.953,44.52
42.968,42.81
42.984,41.04
43.000,39.41
43.015,38.05
43.031,36.97
43.046,36.04
43.062,35.0
43.078,33.53
43.093,31.25
43.109,28.08
43.125,24.09
43.140,19.67
43.156,15.27
43.171,11.25
43.187,7.73
43.203,4.58
43.218,1.51
43.234,-1.84
43.250,-5.65
43.265,-9.96
43.281,-14.6
43.296,-19.32
43.312,-23.9
43.328,-28.26
43.343,-32.42
43.359,-36.57
43.375,-40.97
43.390,-45.93
43.406,-51.67
43.421,-58.22
43.437,-65.23
43.453,-71.87
43.468,-76.86
43.484,-78.7
43.500,-76.19
43.515,-68.76
43.531,-56.79
43.546,-41.5
43.562,-24.76
43.578,-8.34
43.593,6.32
43.609,18.48
43.625,28.0
43.640,35.11
43.656,40.24
43.671,43.78
43.687,45.97
43.703,46.93
43.718,46.79
43.734,45.77
43.750,44.14
43.765,42.24
43.781,40.4
43.796,38.82
43.812,37.53
43.828,36.45
43.843,35.5
43.859,34.7
43.875,34.21
43.890,34.09
43.906,34.27
43.921,34.42
43.937,34.01
43.953,32.5
43.968,29.57
43.984,25.31
44.000,20.13
44.015,14.68
44.031,9.6
44.046,5.23
44.062,1.58
44.078,-1.72
44.093,-5.14
44.109,-9.16
44.125,-13.98
44.140,-19.53
44.156,-25.49
44.171,-31.38
44.187,-36.88
44.203,-41.83
44.218,-46.44
44.234,-51.08
44.250,-56.18
44.265,-62.08
44.281,-68.76
44.296,-75.74
44.312,-82.0
44.328,-86.11
44.343,-86.61
44.359,-82.45
44.375,-73.31
44.390,-59.82
44.406,-43.39
44.421,-25.83
44.437,-8.9
44.453,6.12
44.468,18.62
44.484,28.55
44.500,36.18
44.515,41.95
44.531,46.27
44.546,49.42
44.562,51.62
44.578,52.98
44.593,53.61
44.609,53.62
44.625,53.15
44.640,52.3
44.656,51.12
44.671,49.67
44.687,48.02
44.703,46.32
44.718,44.74
44.734,43.39
44.750,42.27
44.765,41.27
44.781,40.07
44.796,38.22
44.812,35.44
44.828,31.56
44.843,26.81
44.859,21.68
44.875,16.68
44.890,12.29
44.906,8.71
44.921,5.77
44.937,2.99
44.953,-0.2
44.968,-4.23
44.984,-9.25
45.000,-15.09
45.015,-21.38
45.031,-27.67
45.046,-33.63
45.062,-39.07
45.078,-44.06
45.093,-48.84
45.109,-53.78
45.125,-59.28
45.140,-65.56
45.156,-72.55
45.171,-79.58
45.187,-85.53
45.203,-88.87
45.218,-88.16
45.234,-82.35
45.250,-71.38
45.265,-56.17
45.281,-38.43
45.296,-20.25
45.312,-3.45
45.328,10.8
45.343,22.13
45.359,30.81
45.375,37.47
45.390,42.77
45.406,47.18
45.421,51.02
45.437,54.37
45.453,57.14
45.468,59.2
45.484,60.37
45.500,60.49
45.515,59.46
45.531,57.38
45.546,54.45
45.562,51.05
45.578,47.58
45.593,44.39
45.609,41.74
45.625,39.68
45.640,38.06
45.656,36.64
45.671,35.03
45.687,32.92
45.703,30.12
45.718,26.65
45.734,22.75
45.750,18.81
45.765,15.2
45.781,12.13
45.796,9.49
45.812,6.79
45.828,3.45
45.843,-1.04
45.859,-6.87
45.875,-13.78
45.890,-21.14
45.906,-28.27
45.921,-34.68
45.937,-40.2
45.953,-45.06
45.968,-49.67
45.984,-54.52
46.000,-59.97
46.015,-66.23
46.031,-73.09
46.046,-79.95
46.062,-85.76
46.078,-89.04
46.093,-88.37
46.109,-82.7
46.125,-71.85
46.140,-56.74
46.156,-39.12
46.171,-21.05
46.187,-4.39
46.203,9.65
46.218,20.75
46.234,29.17
46.250,35.61
46.265,40.76
46.281,45.12
46.296,48.95
46.312,52.24
46.328,54.87
46.343,56.69
46.359,57.61
46.375,57.64
46.390,56.84
46.406,55.32
46.421,53.23
46.437,50.72
46.453,48.07
46.468,45.55
46.484,43.4
46.500,41.77
46.515,40.61
46.531,39.67
46.546,38.59
46.562,37.0
46.578,34.66
46.593,31.45
46.609,27.5
46.625,23.13
46.640,18.74
46.656,14.61
46.671,10.84
46.687,7.28
46.703,3.6
46.718,-0.53
46.734,-5.39
46.750,-10.95
46.765,-16.98
46.781,-23.11
46.796,-28.96
46.812,-34.26
46.828,-38.95
46.843,-43.13
46.859,-47.16
46.875,-51.41
46.890,-56.25
46.906,-61.87
46.921,-68.2
46.937,-74.71
46.953,-80.5
46.968,-84.25
46.984,-84.56
47.000,-80.29
47.015,-70.98
47.031,-57.11
47.046,-40.03
47.062,-21.67
47.078,-3.98
47.093,11.49
47.109,23.83
47.125,32.92
47.140,39.15
47.156,43.15
47.171,45.6
47.187,46.98
47.203,47.69
47.218,47.97
47.234,47.94
47.250,47.63
47.265,47.04
47.281,46.06
47.296,44.73
47.312,43.11
47.328,41.3
47.343,39.65
47.359,38.39
47.375,37.65
47.390,37.33
47.406,37.1
47.421,36.47
47.437,34.94
47.453,32.23
47.468,28.25
47.484,23.29
47.500,17.8
47.515,12.24
47.531,7.0
47.546,2.24
47.562,-2.11
47.578,-6.29
47.593,-10.57
47.609,-15.17
47.625,-20.11
47.640,-25.29
47.656,-30.49
47.671,-35.43
47.687,-39.94
47.703,-44.06
47.718,-48.06
47.734,-52.32
47.750,-57.3
47.765,-63.19
47.781,-69.68
47.796,-75.86
47.812,-80.25
47.828,-81.28
47.843,-77.7
47.859,-69.16
47.875,-56.2
47.890,-40.24
47.906,-23.11
47.921,-6.5
47.937,8.34
47.953,20.75
47.968,30.55
47.984,37.94
48.000,43.2
48.015,46.68
48.031,48.79
48.046,49.89
48.062,50.34
48.078,50.37
48.093,50.08
48.109,49.47
48.125,48.53
48.140,47.27
48.156,45.77
48.171,44.12
48.187,42.42
48.203,40.76
48.218,39.13
48.234,37.53
48.250,35.93
48.265,34.27
48.281,32.36
48.296,30.05
48.312,27.12
48.328,23.41
48.343,19.0
48.359,14.08
48.375,9.02
48.390,4.18
48.406,-0.26
48.421,-4.38
48.437,-8.46
48.453,-12.83
48.468,-17.72
48.484,-23.06
48.500,-28.58
48.515,-33.89
48.531,-38.72
48.546,-43.01
48.562,-46.94
48.578,-50.93
48.593,-55.4
48.609,-60.72
48.625,-66.9
48.640,-73.58
48.656,-79.79
48.671,-84.09
48.687,-84.95
48.703,-81.1
48.718,-72.03
48.734,-58.26
48.750,-41.2
48.765,-22.81
48.781,-5.03
48.796,10.7
48.812,23.71
48.828,33.94
48.843,41.76
48.859,47.72
48.875,52.22
48.890,55.52
48.906,57.73
48.921,58.98
48.937,59.36
48.953,58.97
48.968,57.84
48.984,56.01
49.000,53.48
49.015,50.4
49.031,47.07
49.046,43.9
49.062,41.41
49.078,39.91
49.093,39.4
49.109,39.52
49.125,39.68
49.140,39.24
49.156,37.78
49.171,35.12
49.187,31.36
49.203,26.76
49.218,21.66
49.234,16.43
49.250,11.36
49.265,6.65
49.281,2.33
49.296,-1.77
49.312,-5.98
49.328,-10.59
49.343,-15.79
49.359,-21.45
49.375,-27.21
49.390,-32.61
49.406,-37.31
49.421,-41.25
49.437,-44.63
49.453,-47.97
49.468,-51.87
49.484,-56.81
49.500,-62.99
49.515,-70.15
49.531,-77.47
49.546,-83.66
49.562,-87.19
49.578,-86.58
49.593,-80.9
49.609,-70.03
49.625,-54.83
49.640,-36.97
49.656,-18.5
49.671,-1.26
49.687,13.44
49.703,25.06
49.718,33.79
49.734,40.19
49.750,44.92
49.765,48.38
49.781,50.79
49.796,52.22
49.812,52.78
49.828,52.61
49.843,51.87
49.859,50.78
49.875,49.46
49.890,47.97
49.906,46.36
49.921,44.64
49.937,42.91
49.953,41.32
49.968,39.92
49.984,38.7
50.000,37.55
50.015,36.27
50.031,34.6
50.046,32.32
50.062,29.32
50.078,25.62
50.093,21.46
50.109,17.14
50.125,12.98
50.140,9.21
50.156,5.78
50.171,2.51
50.187,-0.92
50.203,-4.74
50.218,-9.05
50.234,-13.76
50.250,-18.64
50.265,-23.55
50.281,-28.31
50.296,-32.96
50.312,-37.47
50.328,-41.79
50.343,-45.92
50.359,-49.91
50.375,-53.92
50.390,-58.31
50.406,-63.35
50.421,-68.98
50.437,-74.62
50.453,-79.08
50.468,-80.77
50.484,-78.3
50.500,-70.89
50.515,-58.76
50.531,-43.2
50.546,-26.14
50.562,-9.62
50.578,4.76
50.593,16.17
50.609,24.54
50.625,30.24
50.640,33.96
50.656,36.33
50.671,37.89
50.687,39.01
50.703,39.89
50.718,40.58
50.734,41.01
50.750,41.06
50.765,40.61
50.781,39.71
50.796,38.56
50.812,37.37
50.828,36.48
50.843,36.0
50.859,35.93
50.875,36.13
50.890,36.4
50.906,36.49
50.921,36.15
50.937,35.2
50.953,33.39
50.968,30.57
50.984,26.76
51.000,22.18
51.015,17.35
51.031,12.76
51.046,8.79
51.062,5.44
51.078,2.45
51.093,-0.63
51.109,-4.25
51.125,-8.61
51.140,-13.61
51.156,-18.92
51.171,-24.18
51.187,-29.02
51.203,-33.39
51.218,-37.31
51.234,-40.91
51.250,-44.45
51.265,-48.15
51.281,-52.32
51.296,-57.05
51.312,-62.22
51.328,-67.23
51.343,-71.08
51.359,-72.42
51.375,-70.06
51.390,-63.33
51.406,-52.4
51.421,-38.39
51.437,-22.95
51.453,-7.93
51.468,5.26
51.484,15.82
51.500,23.69
51.515,29.32
51.531,33.37
51.546,36.4
51.562,38.68
51.578,40.28
51.593,41.06
51.609,40.94
51.625,39.98
51.640,38.44
51.656,36.67
51.671,35.02
51.687,33.64
51.703,32.54
51.718,31.67
51.734,30.93
51.750,30.32
51.765,29.85
51.781,29.45
51.796,28.92
51.812,27.97
51.828,26.17
51.843,23.31
51.859,19.47
51.875,14.98
51.890,10.37
51.906,6.04
51.921,2.11
51.937,-1.55
51.953,-5.27
51.968,-9.4
51.984,-14.13
52.000,-19.35
52.015,-24.84
52.031,-30.25
52.046,-35.3
52.062,-39.84
52.078,-43.84
52.093,-47.41
52.109,-50.88
52.125,-54.66
52.140,-59.06
52.156,-64.15
52.171,-69.44
52.187,-73.96
52.203,-76.44
52.218,-75.65
52.234,-70.77
52.250,-61.73
52.265,-49.18
52.281,-34.37
52.296,-18.86
52.312,-4.12
52.328,8.72
52.343,19.0
52.359,26.7
52.375,32.13
52.390,35.87
52.406,38.48
52.421,40.4
52.437,41.79
52.453,42.73
52.468,43.21
52.484,43.13
52.500,42.57
52.515,41.55
52.531,40.12
52.546,38.34
52.562,36.37
52.578,34.36
52.593,32.55
52.609,31.2
52.625,30.34
52.640,30.01
52.656,29.99
52.671,29.95
52.687,29.43
52.703,28.04
52.718,25.47
52.734,21.75
52.750,17.14
52.765,12.02
52.781,6.82
52.796,1.76
52.812,-3.12
52.828,-7.96
52.843,-12.97
52.859,-18.19
52.875,-23.53
52.890,-28.72
52.906,-33.55
52.921,-37.9
52.937,-41.83
52.953,-45.57
52.968,-49.47
52.984,-53.91
53.000,-59.13
53.015,-65.09
53.031,-71.32
53.046,-77.02
53.062,-80.9
53.078,-81.67
53.093,-78.3
53.109,-70.4
53.125,-58.33
53.140,-43.28
53.156,-26.84
53.171,-10.65
53.187,3.88
53.203,16.05
53.218,25.65
53.234,33.04
53.250,38.8
53.265,43.45
53.281,47.33
53.296,50.55
53.312,53.07
53.328,54.8
53.343,55.69
53.359,55.71
53.375,54.86
53.390,53.17
53.406,50.72
53.421,47.63
53.437,44.2
53.453,40.81
53.468,37.82
53.484,35.44
53.500,33.62
53.515,32.18
53.531,30.91
53.546,29.49
53.562,27.58
53.578,24.97
53.593,21.52
53.609,17.31
53.625,12.74
53.640,8.24
53.656,4.22
53.671,0.82
53.687,-2.2
53.703,-5.34
53.718,-9.0
53.734,-13.41
53.750,-18.42
53.765,-23.61
53.781,-28.6
53.796,-33.22
53.812,-37.57
53.828,-41.98
53.843,-46.77
53.859,-52.08
53.875,-58.04
53.890,-64.53
53.906,-71.32
53.921,-77.98
53.937,-83.65
53.953,-87.16
53.968,-87.19
53.984,-82.66
54.000,-73.18
54.015,-59.41
54.031,-42.85
54.046,-25.49
54.062,-9.16
54.078,4.96
54.093,16.43
54.109,25.47
54.125,32.62
54.140,38.42
54.156,43.16
54.171,46.94
54.187,49.7
54.203,51.37
54.218,52.0
54.234,51.78
54.250,50.95
54.265,49.79
54.281,48.51
54.296,47.2
54.312,45.89
54.328,44.6
54.343,43.33
54.359,42.13
54.375,41.06
54.390,40.07
54.406,39.02
54.421,37.65
54.437,35.68
54.453,32.91
54.468,29.31
54.484,24.96
54.500,20.22
54.515,15.46
54.531,11.02
54.546,7.13
54.562,3.85
54.578,0.98
54.593,-1.79
54.609,-4.91
54.625,-8.79
54.640,-13.59
54.656,-19.22
54.671,-25.32
54.687,-31.4
54.703,-36.97
54.718,-41.86
54.734,-46.12
54.750,-50.03
54.765,-54.04
54.781,-58.5
54.796,-63.54
54.812,-69.07
54.828,-74.58
54.843,-79.13
54.859,-81.45
54.875,-80.16
54.890,-74.28
54.906,-63.65
54.921,-49.01
54.937,-31.98
54.953,-14.53
54.968,1.55
54.984,15.09
55.000,25.7
55.015,33.65
55.031,39.5
55.046,43.69
55.062,46.64
55.078,48.48
55.093,49.39
55.109,49.55
55.125,49.2
55.140,48.58
55.156,47.82
55.171,46.99
55.187,45.99
55.203,44.82
55.218,43.46
55.234,42.05
55.250,40.73
55.265,39.62
55.281,38.66
55.296,37.7
55.312,36.51
55.328,34.76
55.343,32.34
55.359,29.14
55.375,25.3
55.390,21.08
55.406,16.8
55.421,12.71
55.437,9.01
55.453,5.73
55.468,2.7
55.484,-0.27
55.500,-3.48
55.515,-7.12
55.531,-11.23
55.546,-15.74
55.562,-20.46
55.578,-25.19
55.593,-29.79
55.609,-34.25
55.625,-38.65
55.640,-43.18
55.656,-48.09
55.671,-53.44
55.687,-59.18
55.703,-64.96
55.718,-70.1
55.734,-73.59
55.750,-74.32
55.765,-71.21
55.781,-63.71
55.796,-52.05
55.812,-37.21
55.828,-20.92
55.843,-5.07
55.859,8.7
55.875,19.48
55.890,27.1
55.906,32.02
55.921,34.93
55.937,36.46
55.953,37.07
55.968,37.03
55.984,36.61
56.000,36.09
56.015,35.79
56.031,35.85
56.046,36.18
56.062,36.51
56.078,36.49
56.093,35.91
56.109,34.75
56.125,33.25
56.140,31.78
56.156,30.53
56.171,29.45
56.187,28.25
56.203,26.52
56.218,23.93
56.234,20.38
56.250,16.05
56.265,11.36
56.281,6.81
56.296,2.71
56.312,-0.85
56.328,-4.13
56.343,-7.44
56.359,-11.15
56.375,-15.45
56.390,-20.29
56.406,-25.43
56.421,-30.53
56.437,-35.34
56.453,-39.68
56.468,-43.64
56.484,-47.42
56.500,-51.46
56.515,-56.18
56.531,-61.8
56.546,-68.15
56.562,-74.51
56.578,-79.63
56.593,-81.97
56.609,-80.22
56.625,-73.66
56.640,-62.48
56.656,-47.72
56.671,-31.02
56.687,-14.2
56.703,1.25
56.718,14.38
56.734,24.92
56.750,33.03
56.765,39.2
56.781,43.92
56.796,47.54
56.812,50.2
56.828,51.91
56.843,52.69
56.859,52.56
56.875,51.63
56.890,50.03
56.906,47.93
56.921,45.44
56.937,42.7
56.953,39.92
56.968,37.29
56.984,35.03
57.000,33.27
57.015,31.93
57.031,30.79
57.046,29.53
57.062,27.77
57.078,25.23
57.093,21.85
57.109,17.76
57.125,13.33
57.140,8.9
57.156,4.78
57.171,0.95
57.187,-2.82
57.203,-6.96
57.218,-11.74
57.234,-17.2
57.250,-23.11
57.265,-29.03
57.281,-34.54
57.296,-39.36
57.312,-43.5
57.328,-47.25
57.343,-51.03
57.359,-55.26
57.375,-60.33
57.390,-66.24
57.406,-72.61
57.421,-78.47
57.437,-82.47
57.453,-83.13
57.468,-79.3
57.484,-70.63
57.500,-57.7
57.515,-41.97
57.531,-25.31
57.546,-9.37
57.562,4.69
57.578,16.44
57.593,26.03
57.609,33.89
57.625,40.43
57.640,45.95
57.656,50.52
57.671,54.15
57.687,56.81
57.703,58.49
57.718,59.21
57.734,58.98
57.750,57.92
57.765,56.15
57.781,53.89
57.796,51.34
57.812,48.71
57.828,46.2
57.843,43.89
57.859,41.86
57.875,40.12
57.890,38.55
57.906,36.88
57.921,34.85
57.937,32.19
57.953,28.72
57.968,24.57
57.984,20.01
58.000,15.46
58.015,11.2
58.031,7.19
58.046,3.12
58.062,-1.42
58.078,-6.64
58.093,-12.57
58.109,-18.84
58.125,-25.04
58.140,-30.79
58.156,-35.94
58.171,-40.59
58.187,-44.91
58.203,-49.17
58.218,-53.59
58.234,-58.36
58.250,-63.6
58.265,-69.17
58.281,-74.54
58.296,-78.68
58.312,-80.21
58.328,-77.78
58.343,-70.63
58.359,-58.96
58.375,-43.89
58.390,-27.22
58.406,-10.88
58.421,3.63
58.437,15.56
58.453,24.83
58.468,31.93
58.484,37.51
58.500,42.07
58.515,46.0
58.531,49.4
58.546,52.16
58.562,54.1
58.578,55.04
58.593,54.9
58.609,53.82
58.625,52.12
58.640,50.1
58.656,48.0
58.671,45.89
58.687,43.77
58.703,41.62
58.718,39.52
58.734,37.55
58.750,35.78
58.765,34.18
58.781,32.55
58.796,30.69
58.812,28.43
58.828,25.76
58.843,22.78
58.859,19.73
58.875,16.7
58.890,13.74
58.906,10.78
58.921,7.61
58.937,3.99
58.953,-0.3
58.968,-5.35
58.984,-11.1
59.000,-17.23
59.015,-23.41
59.031,-29.29
59.046,-34.66
59.062,-39.54
59.078,-44.12
59.093,-48.66
59.109,-53.43
59.125,-58.64
59.140,-64.27
59.156,-70.04
59.171,-75.22
59.187,-78.71
59.203,-79.18
59.218,-75.44
59.234,-66.9
59.250,-53.88
59.265,-37.65
59.281,-20.07
59.296,-3.18
59.312,11.48
59.328,23.06
59.343,31.48
59.359,37.22
59.375,41.02
59.390,43.54
59.406,45.28
59.421,46.56
59.437,47.53
59.453,48.21
59.468,48.63
59.484,48.69
59.500,48.34
59.515,47.52
59.531,46.2
59.546,44.46
59.562,42.4
59.578,40.18
59.593,37.9
59.609,35.72
59.625,33.73
59.640,31.91
59.656,30.19
59.671,28.37
59.687,26.27
59.703,23.71
59.718,20.77
59.734,17.6
59.750,14.53
59.765,11.82
59.781,9.6
59.796,7.75
59.812,5.9
59.828,3.67
59.843,0.7
59.859,-3.15
59.875,-7.83
59.890,-13.06
59.906,-18.54
59.921,-23.98
59.937,-29.11
59.953,-33.89
59.968,-38.32
59.984,-42.55
