timestamp,value
00.000,-21.7
00.015,-16.32
00.031,-12.56
00.046,-10.04
00.062,-8.49
00.078,-7.69
00.093,-7.31
00.109,-7.04
00.125,-6.76
00.140,-6.67
00.156,-7.44
00.171,-9.9
00.187,-14.73
00.203,-22.13
00.218,-31.58
00.234,-41.98
00.250,-52.06
00.265,-60.73
00.281,-67.44
00.296,-72.27
00.312,-75.67
00.328,-78.13
00.343,-79.97
00.359,-81.03
00.375,-80.81
00.390,-78.76
00.406,-74.47
00.421,-67.86
00.437,-59.11
00.453,-48.53
00.468,-36.56
00.484,-23.9
00.500,-11.59
00.515,-1.04
00.531,6.36
00.546,9.8
00.562,9.46
00.578,6.6
00.593,3.21
00.609,1.14
00.625,1.48
00.640,4.33
00.656,8.95
00.671,14.36
00.687,19.79
00.703,24.95
00.718,29.83
00.734,34.44
00.750,38.57
00.765,41.8
00.781,43.78
00.796,44.37
00.812,43.86
00.828,42.82
00.843,41.87
00.859,41.38
00.875,41.33
00.890,41.31
00.906,40.81
00.921,39.43
00.937,37.11
00.953,34.15
00.968,31.0
00.984,27.91
01.000,24.9
01.015,21.64
01.031,17.73
01.046,12.91
01.062,7.28
01.078,1.24
01.093,-4.67
01.109,-10.02
01.125,-14.72
01.140,-19.02
01.156,-23.37
01.171,-28.23
01.187,-33.86
01.203,-40.28
01.218,-47.26
01.234,-54.27
01.250,-60.54
01.265,-65.03
01.281,-66.58
01.296,-64.19
01.312,-57.39
01.328,-46.39
01.343,-32.15
01.359,-16.13
01.375,0.06
01.390,15.13
01.406,28.21
01.421,38.88
01.437,46.97
01.453,52.45
01.468,55.44
01.484,56.24
01.500,55.47
01.515,53.89
01.531,52.34
01.546,51.33
01.562,50.93
01.578,50.81
01.593,50.37
01.609,49.24
01.625,47.4
01.640,45.2
01.656,43.11
01.671,41.47
01.687,40.18
01.703,38.76
01.718,36.66
01.734,33.43
01.750,28.99
01.765,23.65
01.781,17.89
01.796,12.18
01.812,6.83
01.828,1.9
01.843,-2.74
01.859,-7.27
01.875,-12.0
01.890,-17.16
01.906,-22.95
01.921,-29.25
01.937,-35.54
01.953,-40.9
01.968,-44.1
01.984,-43.96
02.000,-39.67
02.015,-31.14
02.031,-18.99
02.046,-4.48
02.062,10.93
02.078,25.89
02.093,39.35
02.109,50.6
02.125,59.15
02.140,64.73
02.156,67.21
02.171,66.73
02.187,63.74
02.203,58.93
02.218,53.26
02.234,47.58
02.250,42.52
02.265,38.28
02.281,34.67
02.296,31.22
02.312,27.41
02.328,23.02
02.343,18.22
02.359,13.61
02.375,9.98
02.390,7.94
02.406,7.56
02.421,8.3
02.437,9.13
02.453,8.89
02.468,6.71
02.484,2.33
02.500,-3.88
02.515,-11.16
02.531,-18.67
02.546,-25.91
02.562,-32.71
02.578,-39.36
02.593,-46.3
02.609,-53.92
02.625,-62.34
02.640,-71.19
02.656,-79.61
02.671,-86.28
02.687,-89.77
02.703,-88.88
02.718,-83.0
02.734,-72.32
02.750,-57.8
02.765,-41.0
02.781,-23.59
02.796,-7.09
02.812,7.37
02.828,19.08
02.843,27.76
02.859,33.42
02.875,36.37
02.890,37.16
02.906,36.5
02.921,35.18
02.937,33.9
02.953,33.12
02.968,32.94
02.984,33.19
03.000,33.56
03.015,33.72
03.031,33.56
03.046,33.08
03.062,32.42
03.078,31.72
03.093,30.97
03.109,29.97
03.125,28.33
03.140,25.6
03.156,21.44
03.171,15.84
03.187,9.08
03.203,1.73
03.218,-5.54
03.234,-12.23
03.250,-18.14
03.265,-23.42
03.281,-28.52
03.296,-34.01
03.312,-40.34
03.328,-47.82
03.343,-56.42
03.359,-65.72
03.375,-74.79
03.390,-82.31
03.406,-86.7
03.421,-86.55
03.437,-81.09
03.453,-70.36
03.468,-55.33
03.484,-37.57
03.500,-18.85
03.515,-0.7
03.531,15.76
03.546,29.91
03.562,41.4
03.578,50.06
03.593,55.85
03.609,58.86
03.625,59.49
03.640,58.36
03.656,56.28
03.671,54.01
03.687,52.09
03.703,50.65
03.718,49.51
03.734,48.33
03.750,46.76
03.765,44.64
03.781,41.96
03.796,38.9
03.812,35.61
03.828,32.14
03.843,28.4
03.859,24.22
03.875,19.4
03.890,13.83
03.906,7.6
03.921,0.94
03.937,-5.76
03.953,-12.14
03.968,-18.02
03.984,-23.3
04.000,-28.19
04.015,-32.97
04.031,-38.0
04.046,-43.62
04.062,-50.11
04.078,-57.41
04.093,-65.1
04.109,-72.23
04.125,-77.39
04.140,-79.06
04.156,-76.0
04.171,-67.73
04.187,-54.76
04.203,-38.45
04.218,-20.65
04.234,-3.2
04.250,12.5
04.265,25.61
04.281,35.81
04.296,43.07
04.312,47.55
04.328,49.47
04.343,49.22
04.359,47.35
04.375,44.55
04.390,41.6
04.406,39.19
04.421,37.76
04.437,37.28
04.453,37.37
04.468,37.45
04.484,36.97
04.500,35.78
04.515,33.99
04.531,31.89
04.546,29.67
04.562,27.25
04.578,24.2
04.593,20.03
04.609,14.46
04.625,7.59
04.640,0.04
04.656,-7.43
04.671,-14.16
04.687,-19.88
04.703,-24.74
04.718,-29.19
04.734,-33.84
04.750,-39.2
04.765,-45.53
04.781,-52.58
04.796,-59.7
04.812,-65.76
04.828,-69.44
04.843,-69.61
04.859,-65.54
04.875,-57.31
04.890,-45.65
04.906,-31.89
04.921,-17.5
04.937,-3.84
04.953,8.22
04.968,18.24
04.984,26.15
05.000,32.09
05.015,36.16
05.031,38.51
05.046,39.31
05.062,38.92
05.078,37.91
05.093,36.85
05.109,36.18
05.125,36.04
05.140,36.26
05.156,36.45
05.171,36.3
05.187,35.68
05.203,34.69
05.218,33.49
05.234,32.15
05.250,30.5
05.265,28.22
05.281,24.96
05.296,20.5
05.312,14.82
05.328,8.15
05.343,0.9
05.359,-6.44
05.375,-13.4
05.390,-19.67
05.406,-25.23
05.421,-30.31
05.437,-35.34
05.453,-40.7
05.468,-46.57
05.484,-52.74
05.500,-58.57
05.515,-63.12
05.531,-65.37
05.546,-64.47
05.562,-59.95
05.578,-51.82
05.593,-40.64
05.609,-27.35
05.625,-13.12
05.640,0.93
05.656,13.94
05.671,25.27
05.687,34.57
05.703,41.62
05.718,46.28
05.734,48.53
05.750,48.52
05.765,46.67
05.781,43.65
05.796,40.26
05.812,37.22
05.828,34.94
05.843,33.48
05.859,32.59
05.875,31.82
05.890,30.77
05.906,29.17
05.921,26.99
05.937,24.38
05.953,21.48
05.968,18.41
05.984,15.11
06.000,11.44
06.015,7.25
06.031,2.48
06.046,-2.75
06.062,-8.24
06.078,-13.76
06.093,-19.21
06.109,-24.67
06.125,-30.36
06.140,-36.59
06.156,-43.54
06.171,-51.23
06.187,-59.4
06.203,-67.41
06.218,-74.33
06.234,-78.96
06.250,-80.13
06.265,-76.94
06.281,-69.17
06.296,-57.29
06.312,-42.44
06.328,-26.18
06.343,-9.99
06.359,4.94
06.375,17.91
06.390,28.61
06.406,37.06
06.421,43.32
06.437,47.49
06.453,49.68
06.468,50.04
06.484,48.94
06.500,46.91
06.515,44.56
06.531,42.38
06.546,40.66
06.562,39.37
06.578,38.24
06.593,36.91
06.609,35.05
06.625,32.59
06.640,29.66
06.656,26.44
06.671,23.09
06.687,19.57
06.703,15.69
06.718,11.17
06.734,5.86
06.750,-0.15
06.765,-6.49
06.781,-12.69
06.796,-18.33
06.812,-23.24
06.828,-27.63
06.843,-31.89
06.859,-36.53
06.875,-41.92
06.890,-48.13
06.906,-54.94
06.921,-61.67
06.937,-67.38
06.953,-70.88
06.968,-71.12
06.984,-67.35
07.000,-59.43
07.015,-47.91
07.031,-33.89
07.046,-18.87
07.062,-4.24
07.078,8.85
07.093,19.77
07.109,28.28
07.125,34.43
07.140,38.43
07.156,40.52
07.171,40.97
07.187,40.12
07.203,38.43
07.218,36.38
07.234,34.44
07.250,32.87
07.265,31.69
07.281,30.72
07.296,29.68
07.312,28.34
07.328,26.58
07.343,24.42
07.359,21.94
07.375,19.19
07.390,16.17
07.406,12.73
07.421,8.8
07.437,4.3
07.453,-0.67
07.468,-5.93
07.484,-11.22
07.500,-16.3
07.515,-21.02
07.531,-25.45
07.546,-29.86
07.562,-34.62
07.578,-40.07
07.593,-46.22
07.609,-52.69
07.625,-58.64
07.640,-62.94
07.656,-64.45
07.671,-62.32
07.687,-56.25
07.703,-46.55
07.718,-34.09
07.734,-20.06
07.750,-5.76
07.765,7.67
07.781,19.32
07.796,28.64
07.812,35.36
07.828,39.47
07.843,41.2
07.859,40.94
07.875,39.28
07.890,36.8
07.906,34.06
07.921,31.4
07.937,29.03
07.953,27.0
07.968,25.25
07.984,23.66
08.000,22.06
08.015,20.35
08.031,18.44
08.046,16.25
08.062,13.69
08.078,10.65
08.093,6.98
08.109,2.53
08.125,-2.75
08.140,-8.69
08.156,-14.86
08.171,-20.75
08.187,-25.94
08.203,-30.31
08.218,-34.1
08.234,-37.87
08.250,-42.27
08.265,-47.81
08.281,-54.57
08.296,-62.04
08.312,-69.16
08.328,-74.48
08.343,-76.57
08.359,-74.37
08.375,-67.52
08.390,-56.41
08.406,-42.12
08.421,-26.08
08.437,-9.77
08.453,5.53
08.468,18.92
08.484,29.85
08.500,38.09
08.515,43.68
08.531,46.83
08.546,47.91
08.562,47.33
08.578,45.57
08.593,43.12
08.609,40.42
08.625,37.8
08.640,35.4
08.656,33.25
08.671,31.23
08.687,29.25
08.703,27.2
08.718,25.08
08.734,22.89
08.750,20.59
08.765,18.01
08.781,14.88
08.796,10.99
08.812,6.21
08.828,0.62
08.843,-5.5
08.859,-11.74
08.875,-17.74
08.890,-23.23
08.906,-28.25
08.921,-33.1
08.937,-38.28
08.953,-44.3
08.968,-51.47
08.984,-59.57
09.000,-67.84
09.015,-74.9
09.031,-79.12
09.046,-79.03
09.062,-73.83
09.078,-63.64
09.093,-49.45
09.109,-32.86
09.125,-15.6
09.140,0.88
09.156,15.66
09.171,28.33
09.187,38.9
09.203,47.45
09.218,54.1
09.234,58.89
09.250,61.93
09.265,63.52
09.281,64.11
09.296,64.23
09.312,64.27
09.328,64.28
09.343,64.06
09.359,63.27
09.375,61.79
09.390,59.8
09.406,57.85
09.421,56.47
09.437,55.96
09.453,56.07
09.468,56.04
09.484,54.93
09.500,51.98
09.515,46.95
09.531,40.19
09.546,32.54
09.562,24.94
09.578,18.18
09.593,12.46
09.609,7.33
09.625,1.63
09.640,-6.13
09.656,-17.46
09.671,-33.22
09.687,-53.13
09.703,-75.54
09.718,-97.58
09.734,-115.85
09.750,-127.37
09.765,-130.45
09.781,-125.1
09.796,-112.91
09.812,-96.42
09.828,-78.26
09.843,-60.46
09.859,-44.05
09.875,-29.2
09.890,-15.6
09.906,-2.91
09.921,8.81
09.937,19.04
09.953,27.04
09.968,32.11
09.984,34.01
10.000,33.02
10.015,29.87
10.031,25.4
10.046,20.3
10.062,14.88
10.078,9.29
10.093,3.72
10.109,-1.48
10.125,-5.77
10.140,-8.67
10.156,-10.04
10.171,-10.18
10.187,-9.75
10.203,-9.51
10.218,-9.91
10.234,-10.9
10.250,-11.94
10.265,-12.29
10.281,-11.42
10.296,-9.39
10.312,-6.92
10.328,-5.15
10.343,-5.34
10.359,-8.27
10.375,-14.02
10.390,-21.81
10.406,-30.16
10.421,-37.24
10.437,-41.35
10.453,-41.28
10.468,-36.57
10.484,-27.73
10.500,-15.93
10.515,-2.81
10.531,10.07
10.546,21.49
10.562,30.86
10.578,37.97
10.593,42.85
10.609,45.59
10.625,46.23
10.640,44.94
10.656,42.14
10.671,38.54
10.687,34.95
10.703,32.07
10.718,30.2
10.734,29.17
10.750,28.53
10.765,27.78
10.781,26.63
10.796,25.04
10.812,23.2
10.828,21.31
10.843,19.39
10.859,17.29
10.875,14.61
10.890,11.0
10.906,6.17
10.921,0.11
10.937,-6.87
10.953,-14.3
10.968,-21.58
10.984,-28.33
11.000,-34.4
11.015,-39.97
11.031,-45.43
11.046,-51.21
11.062,-57.61
11.078,-64.59
11.093,-71.65
11.109,-77.8
11.125,-81.69
11.140,-81.86
11.156,-77.24
11.171,-67.39
11.187,-52.9
11.203,-35.16
11.218,-16.09
11.234,2.41
11.250,18.89
11.265,32.56
11.281,43.18
11.296,50.88
11.312,55.96
11.328,58.71
11.343,59.47
11.359,58.7
11.375,56.94
11.390,54.84
11.406,53.0
11.421,51.69
11.437,50.9
11.453,50.23
11.468,49.18
11.484,47.27
11.500,44.32
11.515,40.4
11.531,35.8
11.546,30.85
11.562,25.7
11.578,20.34
11.593,14.53
11.609,8.11
11.625,1.0
11.640,-6.58
11.656,-14.24
11.671,-21.6
11.687,-28.27
11.703,-34.08
11.718,-39.08
11.734,-43.57
11.750,-47.99
11.765,-52.84
11.781,-58.44
11.796,-64.83
11.812,-71.49
11.828,-77.28
11.843,-80.68
11.859,-80.21
11.875,-74.9
11.890,-64.67
11.906,-50.28
11.921,-33.14
11.937,-14.89
11.953,2.97
11.968,19.36
11.984,33.59
12.000,45.31
12.015,54.43
12.031,60.91
12.046,64.88
12.062,66.52
12.078,66.15
12.093,64.31
12.109,61.61
12.125,58.63
12.140,55.85
12.156,53.47
12.171,51.41
12.187,49.4
12.203,47.21
12.218,44.7
12.234,41.94
12.250,39.03
12.265,35.93
12.281,32.52
12.296,28.6
12.312,24.0
12.328,18.73
12.343,12.98
12.359,6.97
12.375,0.9
12.390,-5.06
12.406,-10.85
12.421,-16.34
12.437,-21.45
12.453,-26.21
12.468,-30.77
12.484,-35.47
12.500,-40.76
12.515,-46.92
12.531,-53.9
12.546,-61.14
12.562,-67.58
12.578,-71.85
12.593,-72.59
12.609,-68.78
12.625,-60.04
12.640,-46.82
12.656,-30.33
12.671,-12.28
12.687,5.62
12.703,21.92
12.718,35.76
12.734,46.85
12.750,55.28
12.765,61.25
12.781,65.0
12.796,66.68
12.812,66.52
12.828,64.92
12.843,62.41
12.859,59.59
12.875,56.96
12.890,54.82
12.906,53.19
12.921,51.88
12.937,50.59
12.953,49.1
12.968,47.24
12.984,45.02
13.000,42.46
13.015,39.61
13.031,36.4
13.046,32.65
13.062,28.23
13.078,23.01
13.093,17.08
13.109,10.68
13.125,4.22
13.140,-1.92
13.156,-7.52
13.171,-12.69
13.187,-17.66
13.203,-22.78
13.218,-28.31
13.234,-34.39
13.250,-40.98
13.265,-47.9
13.281,-54.78
13.296,-60.96
13.312,-65.5
13.328,-67.22
13.343,-65.06
13.359,-58.43
13.375,-47.46
13.390,-33.11
13.406,-16.97
13.421,-0.88
13.437,13.54
13.453,25.22
13.468,33.72
13.484,39.12
13.500,41.79
13.515,42.18
13.531,40.73
13.546,37.82
13.562,33.85
13.578,29.32
13.593,24.79
13.609,20.87
13.625,17.93
13.640,16.07
13.656,15.14
13.671,14.8
13.687,14.7
13.703,14.59
13.718,14.39
13.734,14.09
13.750,13.72
13.765,13.14
13.781,12.06
13.796,10.13
13.812,6.97
13.828,2.44
13.843,-3.32
13.859,-9.85
13.875,-16.51
13.890,-22.69
13.906,-27.98
13.921,-32.29
13.937,-35.84
13.953,-39.13
13.968,-42.76
13.984,-47.24
14.000,-52.8
14.015,-59.15
14.031,-65.42
14.046,-70.25
14.062,-72.08
14.078,-69.65
14.093,-62.4
14.109,-50.63
14.125,-35.53
14.140,-18.79
14.156,-2.17
14.171,12.96
14.187,25.71
14.203,35.84
14.218,43.42
14.234,48.72
14.250,51.98
14.265,53.37
14.281,52.98
14.296,51.04
14.312,48.02
14.328,44.53
14.343,41.26
14.359,38.69
14.375,36.91
14.390,35.66
14.406,34.49
14.421,33.02
14.437,31.04
14.453,28.67
14.468,26.07
14.484,23.37
14.500,20.49
14.515,17.21
14.531,13.31
14.546,8.62
14.562,3.24
14.578,-2.68
14.593,-8.82
14.609,-14.82
14.625,-20.42
14.640,-25.48
14.656,-30.04
14.671,-34.34
14.687,-38.73
14.703,-43.49
14.718,-48.83
14.734,-54.74
14.750,-61.02
14.765,-67.23
14.781,-72.75
14.796,-76.7
14.812,-78.04
14.828,-75.84
14.843,-69.39
14.859,-58.66
14.875,-44.3
14.890,-27.61
14.906,-10.18
14.921,6.49
14.937,21.24
14.953,33.43
14.968,42.85
14.984,49.6
15.000,53.9
15.015,56.04
15.031,56.36
15.046,55.28
15.062,53.29
15.078,50.88
15.093,48.52
15.109,46.49
15.125,44.94
15.140,43.74
15.156,42.72
15.171,41.58
15.187,40.13
15.203,38.24
15.218,35.93
15.234,33.3
15.250,30.45
15.265,27.4
15.281,24.02
15.296,20.11
15.312,15.4
15.328,9.77
15.343,3.33
15.359,-3.63
15.375,-10.64
15.390,-17.38
15.406,-23.59
15.421,-29.27
15.437,-34.54
15.453,-39.6
15.468,-44.73
15.484,-50.17
15.500,-56.1
15.515,-62.38
15.531,-68.56
15.546,-73.71
15.562,-76.59
15.578,-75.94
15.593,-70.87
15.609,-61.27
15.625,-47.79
15.640,-31.79
15.656,-14.82
15.671,1.63
15.687,16.51
15.703,29.21
15.718,39.49
15.734,47.33
15.750,52.76
15.765,55.94
15.781,57.13
15.796,56.79
15.812,55.49
15.828,53.88
15.843,52.44
15.859,51.46
15.875,50.99
15.890,50.92
15.906,51.08
15.921,51.25
15.937,51.19
15.953,50.64
15.968,49.41
15.984,47.44
16.000,44.84
16.015,41.93
16.031,39.0
16.046,36.26
16.062,33.65
16.078,30.94
16.093,27.81
16.109,24.16
16.125,20.18
16.140,16.31
16.156,13.07
16.171,10.75
16.187,9.33
16.203,8.37
16.218,7.29
16.234,5.45
16.250,2.37
16.265,-2.14
16.281,-7.89
16.296,-14.23
16.312,-20.03
16.328,-23.84
16.343,-24.32
16.359,-20.75
16.375,-13.58
16.390,-4.52
16.406,3.88
16.421,9.04
16.437,9.33
16.453,4.52
16.468,-4.21
16.484,-14.97
16.500,-25.81
16.515,-35.35
16.531,-42.83
16.546,-47.89
16.562,-50.3
16.578,-49.78
16.593,-46.21
16.609,-39.85
16.625,-31.45
16.640,-22.13
16.656,-13.01
16.671,-4.81
16.687,2.25
16.703,8.36
16.718,13.79
16.734,18.63
16.750,22.72
16.765,25.63
16.781,26.96
16.796,26.46
16.812,24.22
16.828,20.47
16.843,15.6
16.859,9.92
16.875,3.69
16.890,-2.88
16.906,-9.53
16.921,-16.07
16.937,-22.25
16.953,-27.96
16.968,-33.26
16.984,-38.4
17.000,-43.81
17.015,-49.93
17.031,-57.0
17.046,-64.83
17.062,-72.78
17.078,-79.69
17.093,-84.24
17.109,-85.3
17.125,-82.25
17.140,-75.21
17.156,-65.07
17.171,-53.18
17.187,-40.97
17.203,-29.66
17.218,-20.04
17.234,-12.44
17.250,-6.89
17.265,-3.18
17.281,-1.01
17.312,0.27
17.328,0.24
17.343,0.32
17.359,0.78
17.375,1.73
17.390,2.97
17.406,4.08
17.421,4.49
17.437,3.66
17.453,1.29
17.468,-2.65
17.484,-7.85
17.500,-13.79
17.515,-19.96
17.531,-26.01
17.546,-31.83
17.562,-37.57
17.578,-43.51
17.593,-49.79
17.609,-56.32
17.625,-62.68
17.640,-68.24
17.656,-72.42
17.671,-75.04
17.687,-76.34
17.703,-76.97
17.718,-77.75
17.734,-79.32
17.750,-81.9
17.765,-85.16
17.781,-88.21
17.796,-89.67
17.812,-87.78
17.828,-80.65
17.843,-66.66
17.859,-45.09
17.875,-16.55
17.890,16.78
17.906,51.5
17.921,83.65
17.937,109.67
17.953,127.26
17.968,135.67
17.984,135.71
18.000,129.2
18.015,118.37
18.031,105.3
18.046,91.66
18.062,78.65
18.078,67.02
18.093,57.25
18.109,49.5
18.125,43.71
18.140,39.49
18.156,36.28
18.171,33.45
18.187,30.53
18.203,27.35
18.218,24.1
18.234,21.12
18.250,18.7
18.265,16.84
18.281,15.19
18.296,13.19
18.312,10.28
18.328,6.21
18.343,1.1
18.359,-4.57
18.375,-10.15
18.390,-15.02
18.406,-18.81
18.421,-21.51
18.437,-23.41
18.453,-25.11
18.468,-27.28
18.484,-30.59
18.500,-35.52
18.515,-42.22
18.531,-50.41
18.546,-59.28
18.562,-67.6
18.578,-73.86
18.593,-76.52
18.609,-74.43
18.625,-67.15
18.640,-55.16
18.656,-39.76
18.671,-22.77
18.687,-6.0
18.703,9.21
18.718,22.1
18.734,32.51
18.750,40.56
18.765,46.38
18.781,50.02
18.796,51.54
18.812,51.14
18.828,49.3
18.843,46.75
18.859,44.22
18.875,42.19
18.890,40.78
18.906,39.86
18.921,39.17
18.937,38.5
18.953,37.75
18.968,36.86
18.984,35.79
19.000,34.42
19.015,32.51
19.031,29.8
19.046,26.05
19.062,21.14
19.078,15.13
19.093,8.22
19.109,0.77
19.125,-6.77
19.140,-14.01
19.156,-20.7
19.171,-26.71
19.187,-32.12
19.203,-37.08
19.218,-41.87
19.234,-46.89
19.250,-52.54
19.265,-59.09
19.281,-66.47
19.296,-74.06
19.312,-80.68
19.328,-84.82
19.343,-84.98
19.359,-80.13
19.375,-70.08
19.390,-55.51
19.406,-37.83
19.421,-18.88
19.437,-0.37
19.453,16.3
19.468,30.3
19.484,41.31
19.500,49.41
19.515,54.91
19.531,58.19
19.546,59.59
19.562,59.48
19.578,58.22
19.593,56.24
19.609,53.97
19.625,51.83
19.640,50.05
19.656,48.69
19.671,47.58
19.687,46.41
19.703,44.9
19.718,42.88
19.734,40.3
19.750,37.21
19.765,33.71
19.781,29.84
19.796,25.58
19.812,20.93
19.828,15.89
19.843,10.51
19.859,4.88
19.875,-0.92
19.890,-6.83
19.906,-12.74
19.921,-18.6
19.937,-24.34
19.953,-29.96
19.968,-35.57
19.984,-41.43
20.000,-47.86
20.015,-55.13
20.031,-63.27
20.046,-71.77
20.062,-79.59
20.078,-85.22
20.093,-87.06
20.109,-83.87
20.125,-75.25
20.140,-61.76
20.156,-44.79
20.171,-26.24
20.187,-8.03
20.203,8.33
20.218,21.96
20.234,32.5
20.250,40.05
20.265,44.87
20.281,47.32
20.296,47.77
20.312,46.63
20.328,44.45
20.343,41.89
20.359,39.64
20.375,38.29
20.390,38.13
20.406,39.0
20.421,40.41
20.437,41.69
20.453,42.19
20.468,41.58
20.484,39.81
20.500,37.02
20.515,33.47
20.531,29.29
20.546,24.48
20.562,18.95
20.578,12.61
20.593,5.52
20.609,-2.07
20.625,-9.76
20.640,-17.08
20.656,-23.63
20.671,-29.26
20.687,-34.08
20.703,-38.47
20.718,-42.88
20.734,-47.75
20.750,-53.27
20.765,-59.38
20.781,-65.61
20.796,-71.13
20.812,-74.83
20.828,-75.53
20.843,-72.2
20.859,-64.35
20.875,-52.16
20.890,-36.58
20.906,-19.16
20.921,-1.63
20.937,14.53
20.953,28.29
20.968,39.28
20.984,47.59
21.000,53.5
21.015,57.27
21.031,59.07
21.046,59.04
21.062,57.54
21.078,55.2
21.093,52.85
21.109,51.17
21.125,50.5
21.140,50.65
21.156,51.06
21.171,51.14
21.187,50.43
21.203,48.85
21.218,46.54
21.234,43.72
21.250,40.62
21.265,37.26
21.281,33.6
21.296,29.55
21.312,25.06
21.328,20.05
21.343,14.57
21.359,8.7
21.375,2.62
21.390,-3.38
21.406,-9.04
21.421,-14.2
21.437,-18.79
21.453,-22.85
21.468,-26.61
21.484,-30.41
21.500,-34.72
21.515,-39.92
21.531,-45.97
21.546,-52.16
21.562,-57.08
21.578,-58.91
21.593,-56.0
21.609,-47.5
21.625,-33.69
21.640,-15.93
21.656,3.72
21.671,23.08
21.687,40.27
21.703,54.09
21.718,64.04
21.734,70.3
21.750,73.4
21.765,73.97
21.781,72.47
21.796,69.03
21.812,63.56
21.828,55.91
21.843,46.33
21.859,35.53
21.875,24.75
21.890,15.33
21.906,8.36
21.921,4.35
21.937,3.09
21.953,3.85
21.968,5.6
21.984,7.39
22.000,8.58
22.015,8.83
22.031,8.1
22.046,6.48
22.062,4.05
22.078,0.76
22.093,-3.48
22.109,-8.76
22.125,-15.07
22.140,-22.27
22.156,-30.14
22.171,-38.44
22.187,-46.93
22.203,-55.42
22.218,-63.78
22.234,-71.88
22.250,-79.75
22.265,-87.48
22.281,-95.18
22.296,-102.8
22.312,-109.95
22.328,-115.84
22.343,-119.4
22.359,-119.56
22.375,-115.5
22.390,-107.05
22.406,-94.71
22.421,-79.56
22.437,-63.02
22.453,-46.5
22.468,-31.17
22.484,-17.74
22.500,-6.51
22.515,2.52
22.531,9.48
22.546,14.5
22.562,17.8
22.578,19.71
22.593,20.88
22.609,22.13
22.625,24.31
22.640,28.01
22.656,33.33
22.671,39.85
22.687,46.87
22.703,53.63
22.718,59.61
22.734,64.62
22.750,68.53
22.765,71.29
22.781,72.67
22.796,72.39
22.812,70.17
22.828,66.01
22.843,60.11
22.859,52.91
22.875,44.9
22.890,36.4
22.906,27.66
22.921,18.79
22.937,9.91
22.953,1.14
22.968,-7.34
22.984,-15.39
23.000,-22.99
23.015,-30.25
23.031,-37.44
23.046,-44.88
23.062,-52.73
23.078,-60.87
23.093,-68.63
23.109,-74.79
23.125,-77.77
23.140,-76.08
23.156,-68.87
23.171,-56.38
23.187,-39.95
23.203,-21.61
23.218,-3.51
23.234,12.75
23.250,26.32
23.265,37.09
23.281,45.35
23.296,51.42
23.312,55.45
23.328,57.4
23.343,57.26
23.359,55.22
23.375,51.79
23.390,47.72
23.406,43.89
23.421,40.96
23.437,39.22
23.453,38.4
23.468,37.82
23.484,36.6
23.500,33.95
23.515,29.46
23.531,23.23
23.546,15.94
23.562,8.72
23.578,2.96
23.593,-0.01
23.609,0.57
23.625,4.47
23.640,10.23
23.656,15.45
23.671,17.32
23.687,13.52
23.703,2.96
23.718,-13.81
23.734,-34.76
23.750,-57.1
23.765,-78.28
23.781,-96.84
23.796,-112.72
23.812,-126.87
23.828,-140.39
23.843,-153.47
23.859,-164.81
23.875,-171.78
23.890,-171.41
23.906,-161.58
23.921,-142.01
23.937,-114.44
23.953,-81.96
23.968,-48.03
23.984,-15.57
24.000,13.43
24.015,37.9
24.031,57.32
24.046,71.72
24.062,81.59
24.078,87.87
24.093,91.82
24.109,94.77
24.125,97.53
24.140,100.3
24.156,102.67
24.171,104.0
24.187,103.92
24.203,102.56
24.218,100.52
24.234,98.53
24.250,97.14
24.265,96.42
24.281,96.13
24.296,95.8
24.312,95.11
24.328,93.92
24.343,92.16
24.359,89.78
24.375,86.61
24.390,82.31
24.406,76.52
24.421,69.07
24.437,60.05
24.453,49.79
24.468,38.73
24.484,27.1
24.500,14.92
24.515,2.02
24.531,-11.84
24.546,-26.84
24.562,-43.05
24.578,-60.37
24.593,-78.41
24.609,-96.33
24.625,-112.86
24.640,-126.35
24.656,-135.13
24.671,-137.96
24.687,-134.48
24.703,-125.31
24.718,-111.94
24.734,-96.36
24.750,-80.55
24.765,-66.22
24.781,-54.48
24.796,-45.88
24.812,-40.43
24.828,-37.64
24.843,-36.79
24.859,-37.11
24.875,-37.74
24.890,-37.82
24.906,-36.41
24.921,-32.5
24.937,-25.32
24.953,-14.67
24.968,-1.09
24.984,14.23
25.000,29.72
25.015,43.95
25.031,55.85
25.046,64.99
25.062,71.43
25.078,75.64
25.093,78.19
25.109,79.72
25.125,80.66
25.140,81.22
25.156,81.3
25.171,80.64
25.187,78.87
25.203,75.8
25.218,71.41
25.234,65.79
25.250,59.08
25.265,51.45
25.281,43.18
25.296,34.68
25.312,26.47
25.328,18.98
25.343,12.4
25.359,6.64
25.375,1.53
25.390,-2.82
25.406,-5.89
25.421,-6.74
25.437,-4.48
25.453,1.26
25.468,10.11
25.484,20.96
25.500,32.35
25.515,42.96
25.531,51.99
25.546,59.12
25.562,64.49
25.578,68.32
25.593,70.74
25.609,71.81
25.625,71.53
25.640,69.93
25.656,67.13
25.671,63.26
25.687,58.46
25.703,52.93
25.718,46.88
25.734,40.55
25.750,34.22
25.765,28.08
25.781,22.26
25.796,16.83
25.812,11.89
25.828,7.56
25.843,3.94
25.859,1.03
25.875,-1.45
25.890,-3.97
25.906,-7.1
25.921,-11.2
25.937,-16.23
25.953,-21.72
25.968,-27.03
25.984,-31.62
26.000,-35.23
26.015,-37.93
26.031,-40.03
26.046,-41.85
26.062,-43.61
26.078,-45.44
26.093,-47.37
26.109,-49.3
26.125,-50.95
26.140,-51.7
26.156,-50.7
26.171,-47.0
26.187,-40.01
26.203,-29.7
26.218,-16.88
26.234,-2.88
26.250,10.77
26.265,22.82
26.281,32.54
26.296,39.83
26.312,44.93
26.328,48.2
26.343,49.84
26.359,49.88
26.375,48.33
26.390,45.37
26.406,41.42
26.421,37.06
26.437,32.86
26.453,29.22
26.468,26.25
26.484,23.79
26.500,21.6
26.515,19.5
26.531,17.44
26.546,15.44
26.562,13.48
26.578,11.39
26.593,8.87
26.609,5.51
26.625,1.08
26.640,-4.38
26.656,-10.46
26.671,-16.61
26.687,-22.27
26.703,-27.09
26.718,-31.06
26.734,-34.52
26.750,-38.0
26.765,-42.02
26.781,-46.94
26.796,-52.77
26.812,-59.15
26.828,-65.28
26.843,-70.09
26.859,-72.42
26.875,-71.43
26.890,-66.75
26.906,-58.63
26.921,-47.9
26.937,-35.74
26.953,-23.24
26.968,-11.27
26.984,-0.38
27.000,9.16
27.015,17.13
27.031,23.32
27.046,27.61
27.062,29.97
27.078,30.58
27.093,29.82
27.109,28.12
27.125,25.76
27.140,22.86
27.156,19.48
27.171,15.67
27.187,11.68
27.203,7.92
27.218,4.7
27.234,2.16
27.250,0.15
27.265,-1.78
27.281,-4.1
27.296,-7.17
27.312,-11.07
27.328,-15.59
27.343,-20.41
27.359,-25.15
27.375,-29.54
27.390,-33.46
27.406,-36.93
27.421,-40.08
27.437,-43.16
27.453,-46.46
27.468,-50.2
27.484,-54.56
27.500,-59.48
27.515,-64.61
27.531,-69.22
27.546,-72.38
27.562,-73.09
27.578,-70.61
27.593,-64.7
27.609,-55.66
27.625,-44.35
27.640,-31.93
27.656,-19.53
27.671,-8.0
27.687,2.11
27.703,10.64
27.718,17.64
27.734,23.25
27.750,27.61
27.765,30.78
27.781,32.8
27.796,33.75
27.812,33.75
27.828,33.04
27.843,31.86
27.859,30.48
27.875,29.06
27.890,27.7
27.906,26.37
27.921,25.03
27.937,23.62
27.953,22.11
27.968,20.49
27.984,18.85
28.000,17.27
28.015,15.75
28.031,14.24
28.046,12.58
28.062,10.59
28.078,8.16
28.093,5.24
28.109,1.87
28.125,-1.87
28.140,-6.04
28.156,-10.84
28.171,-16.6
28.187,-23.62
28.203,-31.96
28.218,-41.26
28.234,-50.7
28.250,-59.02
28.265,-64.93
28.281,-67.43
28.296,-66.03
28.312,-60.89
28.328,-52.7
28.343,-42.41
28.359,-31.01
28.375,-19.31
28.390,-7.98
28.406,2.48
28.421,11.65
28.437,19.27
28.453,25.25
28.468,29.73
28.484,32.97
28.500,35.32
28.515,37.03
28.531,38.21
28.546,38.77
28.562,38.47
28.578,37.14
28.593,34.7
28.609,31.33
28.625,27.32
28.640,23.08
28.656,18.94
28.671,15.07
28.687,11.52
28.703,8.2
28.718,5.01
28.734,1.79
28.750,-1.58
28.765,-5.19
28.781,-9.06
28.796,-13.14
28.812,-17.31
28.828,-21.4
28.843,-25.3
28.859,-29.08
28.875,-32.91
28.890,-36.97
28.906,-41.26
28.921,-45.47
28.937,-48.95
28.953,-50.9
28.968,-50.53
28.984,-47.29
29.000,-41.06
29.015,-32.15
29.031,-21.19
29.046,-9.03
29.062,3.47
29.078,15.62
29.093,26.85
29.109,36.83
29.125,45.36
29.140,52.29
29.156,57.51
29.171,60.94
29.187,62.6
29.203,62.59
29.218,61.18
29.234,58.69
29.250,55.43
29.265,51.66
29.281,47.59
29.296,43.35
29.312,39.04
29.328,34.74
29.343,30.5
29.359,26.37
29.375,22.31
29.390,18.23
29.406,13.93
29.421,9.18
29.437,3.79
29.453,-2.25
29.468,-8.79
29.484,-15.49
29.500,-22.07
29.515,-28.41
29.531,-34.71
29.546,-41.33
29.562,-48.67
29.578,-56.79
29.593,-65.26
29.609,-73.21
29.625,-79.44
29.640,-82.84
29.656,-82.61
29.671,-78.53
29.687,-70.95
29.703,-60.72
29.718,-48.9
29.734,-36.52
29.750,-24.4
29.765,-12.96
29.781,-2.42
29.796,7.2
29.812,15.85
29.828,23.44
29.843,29.89
29.859,35.11
29.875,39.16
29.890,42.08
29.906,43.93
29.921,44.64
29.937,44.11
29.953,42.26
29.968,39.21
29.984,35.32
30.000,31.05
30.015,26.9
30.031,23.12
30.046,19.67
30.062,16.35
30.078,12.85
30.093,8.88
30.109,4.32
30.125,-0.88
30.140,-6.68
30.156,-12.95
30.171,-19.5
30.187,-26.09
30.203,-32.47
30.218,-38.54
30.234,-44.33
30.250,-50.02
30.265,-55.84
30.281,-61.92
30.296,-68.19
30.312,-74.24
30.328,-79.37
30.343,-82.62
30.359,-83.03
30.375,-79.94
30.390,-73.17
30.406,-63.16
30.421,-50.83
30.437,-37.36
30.453,-23.75
30.468,-10.76
30.484,1.27
30.500,12.19
30.515,21.88
30.531,30.27
30.546,37.21
30.562,42.66
30.578,46.63
30.593,49.17
30.609,50.39
30.625,50.42
30.640,49.43
30.656,47.69
30.671,45.54
30.687,43.28
30.703,41.14
30.718,39.17
30.734,37.22
30.750,35.0
30.765,32.31
30.781,29.09
30.796,25.44
30.812,21.56
30.828,17.54
30.843,13.39
30.859,8.95
30.875,4.11
30.890,-1.17
30.906,-6.72
30.921,-12.22
30.937,-17.51
30.953,-22.51
30.968,-27.45
30.984,-32.67
31.000,-38.52
31.015,-45.16
31.031,-52.46
31.046,-59.96
31.062,-66.82
31.078,-72.08
31.093,-74.66
31.109,-73.76
31.125,-68.98
31.140,-60.44
31.156,-48.84
31.171,-35.18
31.187,-20.63
31.203,-6.25
31.218,7.12
31.234,18.98
31.250,29.14
31.265,37.62
31.281,44.63
31.296,50.33
31.312,54.89
31.328,58.36
31.343,60.72
31.359,61.94
31.375,62.04
31.390,61.11
31.406,59.24
31.421,56.65
31.437,53.56
31.453,50.31
31.468,47.18
31.484,44.34
31.500,41.77
31.515,39.25
31.531,36.47
31.546,33.18
31.562,29.33
31.578,25.01
31.593,20.43
31.609,15.67
31.625,10.68
31.640,5.3
31.656,-0.57
31.671,-6.85
31.687,-13.32
31.703,-19.6
31.718,-25.46
31.734,-30.83
31.750,-35.83
31.765,-40.81
31.781,-46.05
31.796,-51.84
31.812,-58.34
31.828,-65.59
31.843,-73.39
31.859,-81.28
31.875,-88.32
31.890,-93.2
31.906,-94.59
31.921,-91.46
31.937,-83.51
31.953,-71.27
31.968,-55.95
31.984,-39.05
32.000,-21.99
32.015,-5.78
32.031,9.0
32.046,22.1
32.062,33.47
32.078,43.12
32.093,51.13
32.109,57.59
32.125,62.62
32.140,66.32
32.156,68.71
32.171,69.81
32.187,69.63
32.203,68.32
32.218,66.08
32.234,63.21
32.250,60.02
32.265,56.8
32.281,53.74
32.296,50.94
32.312,48.43
32.328,46.11
32.343,43.77
32.359,41.12
32.375,37.84
32.390,33.8
32.406,29.09
32.421,24.02
32.437,18.92
32.453,14.06
32.468,9.44
32.484,4.78
32.500,-0.29
32.515,-6.02
32.531,-12.42
32.546,-19.19
32.562,-25.9
32.578,-32.25
32.593,-38.06
32.609,-43.47
32.625,-48.75
32.640,-54.3
32.656,-60.46
32.671,-67.44
32.687,-75.19
32.703,-83.14
32.718,-90.22
32.734,-94.99
32.750,-95.98
32.765,-92.21
32.781,-83.56
32.796,-70.8
32.812,-55.34
32.828,-38.77
32.843,-22.36
32.859,-6.93
32.875,7.14
32.890,19.75
32.906,30.86
32.921,40.41
32.937,48.4
32.953,54.92
32.968,60.12
32.984,64.14
33.000,67.05
33.015,68.77
33.031,69.19
33.046,68.26
33.062,66.11
33.078,63.04
33.093,59.44
33.109,55.69
33.125,52.08
33.140,48.76
33.156,45.7
33.171,42.81
33.187,39.86
33.203,36.72
33.218,33.24
33.234,29.43
33.250,25.42
33.265,21.4
33.281,17.5
33.296,13.73
33.312,9.94
33.328,5.8
33.343,1.08
33.359,-4.39
33.375,-10.53
33.390,-17.11
33.406,-23.76
33.421,-30.18
33.437,-36.16
33.453,-41.72
33.468,-47.06
33.484,-52.49
33.500,-58.39
33.515,-64.92
33.531,-71.88
33.546,-78.59
33.562,-83.94
33.578,-86.64
33.593,-85.57
33.609,-80.16
33.625,-70.53
33.640,-57.55
33.656,-42.48
33.671,-26.65
33.687,-11.14
33.703,3.36
33.718,16.56
33.734,28.38
33.750,38.78
33.765,47.75
33.781,55.16
33.796,60.92
33.812,64.99
33.828,67.41
33.843,68.39
33.859,68.19
33.875,67.05
33.890,65.22
33.906,62.85
33.921,60.03
33.937,56.86
33.953,53.54
33.968,50.28
33.984,47.33
34.000,44.82
34.015,42.62
34.031,40.42
34.046,37.84
34.062,34.56
34.078,30.5
34.093,25.87
34.109,20.96
34.125,16.09
34.140,11.41
34.156,6.81
34.171,2.09
34.187,-2.97
34.203,-8.45
34.218,-14.28
34.234,-20.3
34.250,-26.29
34.265,-32.02
34.281,-37.39
34.296,-42.39
34.312,-47.15
34.328,-51.94
34.343,-57.13
34.359,-63.02
34.375,-69.76
34.390,-77.15
34.406,-84.56
34.421,-91.01
34.437,-95.27
34.453,-96.12
34.468,-92.75
34.484,-84.91
34.500,-73.05
34.515,-58.18
34.531,-41.66
34.546,-24.73
34.562,-8.42
34.578,6.65
34.593,20.17
34.609,32.03
34.625,42.24
34.640,50.79
34.656,57.72
34.671,63.07
34.687,66.93
34.703,69.45
34.718,70.75
34.734,71.01
34.750,70.36
34.765,68.92
34.781,66.81
34.796,64.2
34.812,61.27
34.828,58.27
34.843,55.44
34.859,52.93
34.875,50.74
34.890,48.68
34.906,46.44
34.921,43.71
34.937,40.31
34.953,36.27
34.968,31.75
34.984,27.0
35.000,22.23
35.015,17.48
35.031,12.61
35.046,7.4
35.062,1.63
35.078,-4.75
35.093,-11.6
35.109,-18.65
35.125,-25.54
35.140,-31.99
35.156,-37.85
35.171,-43.17
35.187,-48.11
35.203,-52.94
35.218,-57.94
35.234,-63.32
35.250,-69.26
35.265,-75.69
35.281,-82.3
35.296,-88.4
35.312,-92.96
35.328,-94.84
35.343,-93.0
35.359,-86.88
35.375,-76.59
35.390,-62.9
35.406,-47.07
35.421,-30.55
35.437,-14.55
35.453,0.11
35.468,13.11
35.484,24.43
35.500,34.24
35.515,42.67
35.531,49.72
35.546,55.36
35.562,59.5
35.578,62.23
35.593,63.71
35.609,64.17
35.625,63.81
35.640,62.7
35.656,60.87
35.671,58.3
35.687,55.14
35.703,51.67
35.718,48.32
35.734,45.4
35.750,43.01
35.765,40.94
35.781,38.76
35.796,36.06
35.812,32.52
35.828,28.21
35.843,23.39
35.859,18.45
35.875,13.68
35.890,9.25
35.906,5.1
35.921,1.09
35.937,-2.94
35.953,-7.22
35.968,-11.87
35.984,-16.9
36.000,-22.23
36.015,-27.68
36.031,-32.99
36.046,-37.98
36.062,-42.63
36.078,-47.06
36.093,-51.59
36.109,-56.57
36.125,-62.21
36.140,-68.45
36.156,-74.83
36.171,-80.47
36.187,-84.18
36.203,-84.78
36.218,-81.42
36.234,-73.84
36.250,-62.51
36.265,-48.51
36.281,-33.24
36.296,-18.0
36.312,-3.82
36.328,8.75
36.343,19.52
36.359,28.56
36.375,36.01
36.390,42.03
36.406,46.71
36.421,50.09
36.437,52.2
36.453,53.05
36.468,52.72
36.484,51.34
36.500,49.11
36.515,46.33
36.531,43.3
36.546,40.37
36.562,37.78
36.578,35.75
36.593,34.31
36.609,33.35
36.625,32.59
36.640,31.63
36.656,30.13
36.671,27.83
36.687,24.68
36.703,20.84
36.718,16.59
36.734,12.22
36.750,7.93
36.765,3.69
36.781,-0.67
36.796,-5.39
36.812,-10.62
36.828,-16.35
36.843,-22.36
36.859,-28.34
36.875,-34.05
36.890,-39.38
36.906,-44.44
36.921,-49.45
36.937,-54.77
36.953,-60.6
36.968,-66.96
36.984,-73.43
37.000,-79.21
37.015,-83.2
37.031,-84.23
37.046,-81.45
37.062,-74.56
37.078,-63.93
37.093,-50.51
37.109,-35.53
37.125,-20.2
37.140,-5.51
37.156,7.95
37.171,19.93
37.187,30.4
37.203,39.42
37.218,47.08
37.234,53.4
37.250,58.35
37.265,61.88
37.281,63.95
37.296,64.57
37.312,63.84
37.328,61.94
37.343,59.13
37.359,55.76
37.375,52.19
37.390,48.77
37.406,45.76
37.421,43.24
37.437,41.15
37.453,39.26
37.468,37.3
37.484,34.97
37.500,32.06
37.515,28.42
37.531,24.05
37.546,19.08
37.562,13.67
37.578,8.07
37.593,2.43
37.609,-3.15
37.625,-8.73
37.640,-14.4
37.656,-20.26
37.671,-26.26
37.687,-32.21
37.703,-37.84
37.718,-42.92
37.734,-47.44
37.750,-51.58
37.765,-55.79
37.781,-60.53
37.796,-66.16
37.812,-72.63
37.828,-79.37
37.843,-85.29
37.859,-89.05
37.875,-89.36
37.890,-85.41
37.906,-77.14
37.921,-65.26
37.937,-51.0
37.953,-35.7
37.968,-20.43
37.984,-5.9
38.000,7.55
38.015,19.79
38.031,30.7
38.046,40.22
38.062,48.29
38.078,54.9
38.093,60.15
38.109,64.07
38.125,66.71
38.140,68.01
38.156,67.95
38.171,66.61
38.187,64.19
38.203,61.05
38.218,57.58
38.234,54.15
38.250,51.01
38.265,48.22
38.281,45.66
38.296,43.01
38.312,39.89
38.328,35.94
38.343,31.04
38.359,25.23
38.375,18.8
38.390,12.09
38.406,5.47
38.421,-0.86
38.437,-6.89
38.453,-12.76
38.468,-18.72
38.484,-24.92
38.500,-31.45
38.515,-38.21
38.531,-44.95
38.546,-51.42
38.562,-57.39
38.578,-62.74
38.593,-67.54
38.609,-71.97
38.625,-76.26
38.640,-80.61
38.656,-85.01
38.671,-89.14
38.687,-92.25
38.703,-93.32
38.718,-91.28
38.734,-85.29
38.750,-75.13
38.765,-61.24
38.781,-44.68
38.796,-26.71
38.812,-8.56
38.828,8.89
38.843,25.11
38.859,39.86
38.875,53.02
38.890,64.45
38.906,74.01
38.921,81.53
38.937,86.9
38.953,90.03
38.968,91.0
38.984,89.92
39.000,87.03
39.015,82.7
39.031,77.41
39.046,71.68
39.062,66.04
39.078,60.86
39.093,56.33
39.109,52.49
39.125,49.23
39.140,46.31
39.156,43.49
39.171,40.5
39.187,37.16
39.203,33.39
39.218,29.16
39.234,24.52
39.250,19.56
39.265,14.32
39.281,8.81
39.296,2.97
39.312,-3.26
39.328,-9.87
39.343,-16.79
39.359,-23.76
39.375,-30.57
39.390,-37.02
39.406,-43.08
39.421,-48.83
39.437,-54.5
39.453,-60.4
39.468,-66.71
39.484,-73.46
39.500,-80.37
39.515,-86.86
39.531,-92.05
39.546,-94.94
39.562,-94.49
39.578,-89.96
39.593,-81.17
39.609,-68.6
39.625,-53.33
39.640,-36.79
39.656,-20.37
39.671,-5.03
39.687,8.73
39.703,20.86
39.718,31.52
39.734,40.8
39.750,48.65
39.765,54.83
39.781,59.15
39.796,61.58
39.812,62.29
39.828,61.59
39.843,59.82
39.859,57.25
39.875,54.1
39.890,50.61
39.906,46.97
39.921,43.48
39.937,40.38
39.953,37.77
39.968,35.59
39.984,33.59
40.000,31.41
40.015,28.75
40.031,25.47
40.046,21.56
40.062,17.24
40.078,12.72
40.093,8.15
40.109,3.51
40.125,-1.37
40.140,-6.72
40.156,-12.64
40.171,-19.03
40.187,-25.65
40.203,-32.16
40.218,-38.34
40.234,-44.18
40.250,-49.9
40.265,-55.91
40.281,-62.53
40.296,-69.87
40.312,-77.7
40.328,-85.34
40.343,-91.78
40.359,-95.88
40.375,-96.55
40.390,-93.06
40.406,-85.28
40.421,-73.64
40.437,-59.18
40.453,-43.1
40.468,-26.6
40.484,-10.53
40.500,4.55
40.515,18.37
40.531,30.81
40.546,41.73
40.562,51.08
40.578,58.75
40.593,64.81
40.609,69.34
40.625,72.45
40.640,74.2
40.656,74.61
40.671,73.75
40.687,71.75
40.703,68.87
40.718,65.41
40.734,61.72
40.750,58.06
40.765,54.51
40.781,51.01
40.796,47.43
40.812,43.63
40.828,39.49
40.843,35.03
40.859,30.25
40.875,25.24
40.890,20.07
40.906,14.75
40.921,9.31
40.937,3.64
40.953,-2.34
40.968,-8.72
40.984,-15.45
41.000,-22.28
41.015,-28.88
41.031,-34.94
41.046,-40.31
41.062,-45.07
41.078,-49.57
41.093,-54.25
41.109,-59.54
41.125,-65.59
41.140,-72.26
41.156,-78.96
41.171,-84.7
41.187,-88.26
41.203,-88.39
41.218,-84.3
41.234,-75.81
41.250,-63.58
41.265,-48.81
41.281,-32.91
41.296,-17.11
41.312,-2.17
41.328,11.55
41.343,23.97
41.359,35.05
41.375,44.73
41.390,52.86
41.406,59.38
41.421,64.31
41.437,67.7
41.453,69.63
41.468,70.15
41.484,69.28
41.500,67.16
41.515,64.02
41.531,60.3
41.546,56.51
41.562,53.14
41.578,50.45
41.593,48.39
41.609,46.63
41.625,44.66
41.640,42.04
41.656,38.55
41.671,34.29
41.687,29.56
41.703,24.73
41.718,20.0
41.734,15.33
41.750,10.49
41.765,5.18
41.781,-0.69
41.796,-7.07
41.812,-13.7
41.828,-20.3
41.843,-26.64
41.859,-32.71
41.875,-38.63
41.890,-44.64
41.906,-51.02
41.921,-57.94
41.937,-65.43
41.953,-73.25
41.968,-80.83
41.984,-87.3
42.000,-91.57
42.015,-92.59
42.031,-89.57
42.046,-82.21
42.062,-70.86
42.078,-56.44
42.093,-40.22
42.109,-23.58
42.125,-7.67
42.140,6.81
42.156,19.5
42.171,30.43
42.187,39.76
42.203,47.58
42.218,53.92
42.234,58.73
42.250,61.94
42.265,63.53
42.281,63.62
42.296,62.38
42.312,60.07
42.328,56.99
42.343,53.46
42.359,49.82
42.375,46.42
42.390,43.49
42.406,41.12
42.421,39.18
42.437,37.43
42.453,35.5
42.468,33.04
42.484,29.84
42.500,25.89
42.515,21.34
42.531,16.32
42.546,10.99
42.562,5.35
42.578,-0.63
42.593,-6.91
42.609,-13.4
42.625,-19.9
42.640,-26.11
42.656,-31.87
42.671,-37.1
42.687,-41.9
42.703,-46.52
42.718,-51.31
42.734,-56.58
42.750,-62.49
42.765,-68.94
42.781,-75.34
42.796,-80.7
42.812,-83.79
42.828,-83.38
42.843,-78.76
42.859,-69.88
42.875,-57.42
42.890,-42.57
42.906,-26.72
42.921,-11.08
42.937,3.52
42.953,16.62
42.968,28.12
42.984,38.03
43.000,46.38
43.015,53.18
43.031,58.42
43.046,62.14
43.062,64.39
43.078,65.29
43.093,64.93
43.109,63.42
43.125,60.87
43.140,57.45
43.156,53.44
43.171,49.22
43.187,45.13
43.203,41.47
43.218,38.32
43.234,35.51
43.250,32.76
43.265,29.69
43.281,26.06
43.296,21.83
43.312,17.23
43.328,12.53
43.343,8.01
43.359,3.75
43.375,-0.41
43.390,-4.66
43.406,-9.24
43.421,-14.19
43.437,-19.37
43.453,-24.56
43.468,-29.56
43.484,-34.36
43.500,-39.09
43.515,-44.06
43.531,-49.51
43.546,-55.62
43.562,-62.36
43.578,-69.47
43.593,-76.35
43.609,-82.11
43.625,-85.69
43.640,-86.06
43.656,-82.53
43.671,-74.89
43.687,-63.59
43.703,-49.61
43.718,-34.18
43.734,-18.53
43.750,-3.58
43.765,10.14
43.781,22.43
43.796,33.34
43.812,43.01
43.828,51.5
43.843,58.71
43.859,64.52
43.875,68.79
43.890,71.53
43.906,72.8
43.921,72.79
43.937,71.65
43.953,69.6
43.968,66.86
43.984,63.61
44.000,60.12
44.015,56.56
44.031,53.11
44.046,49.81
44.062,46.59
44.078,43.32
44.093,39.83
44.109,36.0
44.125,31.78
44.140,27.21
44.156,22.38
44.171,17.43
44.187,12.44
44.203,7.41
44.218,2.16
44.234,-3.49
44.250,-9.66
44.265,-16.23
44.281,-22.96
44.296,-29.48
44.312,-35.53
44.328,-41.06
44.343,-46.28
44.359,-51.55
44.375,-57.31
44.390,-63.74
44.406,-70.75
44.421,-77.84
44.437,-84.17
44.453,-88.6
44.468,-90.02
44.484,-87.64
44.500,-81.22
44.515,-71.21
44.531,-58.56
44.546,-44.52
44.562,-30.27
44.578,-16.69
44.593,-4.3
44.609,6.72
44.625,16.37
44.640,24.68
44.656,31.71
44.671,37.5
44.687,42.09
44.703,45.55
44.718,47.91
44.734,49.19
44.750,49.38
44.765,48.53
44.781,46.72
44.796,44.17
44.812,41.16
44.828,38.05
44.843,35.13
44.859,32.58
44.875,30.43
44.890,28.48
44.906,26.47
44.921,24.15
44.937,21.36
44.953,18.11
44.968,14.54
44.984,10.83
45.000,7.09
45.015,3.26
45.031,-0.87
45.046,-5.47
45.062,-10.62
45.078,-16.15
45.093,-21.76
45.109,-27.1
45.125,-31.96
45.140,-36.32
45.156,-40.36
45.171,-44.37
45.187,-48.61
45.203,-53.24
45.218,-58.29
45.234,-63.57
45.250,-68.69
45.265,-72.95
45.281,-75.43
45.296,-75.13
45.312,-71.34
45.328,-63.84
45.343,-53.06
45.359,-39.99
45.375,-25.85
45.390,-11.8
45.406,1.39
45.421,13.31
45.437,23.85
45.453,32.99
45.468,40.74
45.484,46.99
45.500,51.66
45.515,54.8
45.531,56.51
45.546,57.02
45.562,56.56
45.578,55.35
45.593,53.51
45.609,51.21
45.625,48.64
45.640,45.97
45.656,43.42
45.671,41.16
45.687,39.19
45.703,37.47
45.718,35.78
45.734,33.82
45.750,31.34
45.765,28.19
45.781,24.35
45.796,20.05
45.812,15.6
45.828,11.25
45.843,7.18
45.859,3.35
45.875,-0.43
45.890,-4.4
45.906,-8.75
45.921,-13.55
45.937,-18.71
45.953,-24.07
45.968,-29.48
45.984,-34.78
46.000,-39.91
46.015,-44.87
46.031,-49.79
46.046,-54.84
46.062,-60.26
46.078,-66.12
46.093,-72.31
46.109,-78.41
46.125,-83.56
46.140,-86.75
46.156,-86.93
46.171,-83.4
46.187,-76.03
46.203,-65.32
46.218,-52.25
46.234,-38.06
46.250,-23.88
46.265,-10.45
46.281,1.81
46.296,12.85
46.312,22.76
46.328,31.59
46.343,39.26
46.359,45.62
46.375,50.53
46.390,53.94
46.406,55.97
46.421,56.75
46.437,56.48
46.453,55.33
46.468,53.46
46.484,51.04
46.500,48.25
46.515,45.33
46.531,42.54
46.546,40.1
46.562,38.11
46.578,36.54
46.593,35.17
46.609,33.7
46.625,31.76
46.640,29.06
46.656,25.53
46.671,21.29
46.687,16.62
46.703,11.87
46.718,7.26
46.734,2.84
46.750,-1.6
46.765,-6.29
46.781,-11.46
46.796,-17.07
46.812,-22.95
46.828,-28.73
46.843,-34.11
46.859,-39.01
46.875,-43.56
46.890,-48.06
46.906,-52.81
46.921,-58.0
46.937,-63.68
46.953,-69.7
46.968,-75.63
46.984,-80.85
47.000,-84.46
47.015,-85.53
47.031,-83.27
47.046,-77.35
47.062,-68.0
47.078,-55.98
47.093,-42.39
47.109,-28.34
47.125,-14.7
47.140,-2.01
47.156,9.53
47.171,19.9
47.187,29.08
47.203,37.02
47.218,43.71
47.234,49.09
47.250,53.11
47.265,55.8
47.281,57.22
47.296,57.48
47.312,56.75
47.328,55.2
47.343,53.01
47.359,50.39
47.375,47.52
47.390,44.61
47.406,41.81
47.421,39.25
47.437,37.03
47.453,35.01
47.468,32.98
47.484,30.6
47.500,27.63
47.515,23.99
47.531,19.9
47.546,15.69
47.562,11.6
47.578,7.71
47.593,3.84
47.609,-0.35
47.625,-5.12
47.640,-10.53
47.656,-16.41
47.671,-22.37
47.687,-28.06
47.703,-33.33
47.718,-38.17
47.734,-42.69
47.750,-47.14
47.765,-51.74
47.781,-56.67
47.796,-62.02
47.812,-67.64
47.828,-73.09
47.843,-77.65
47.859,-80.34
47.875,-80.21
47.890,-76.59
47.906,-69.32
47.921,-58.84
47.937,-46.03
47.953,-32.03
47.968,-17.9
47.984,-4.53
48.000,7.64
48.015,18.36
48.031,27.6
48.046,35.41
48.062,41.84
48.078,46.9
48.093,50.64
48.109,53.08
48.125,54.21
48.140,54.11
48.156,52.87
48.171,50.67
48.187,47.83
48.203,44.69
48.218,41.51
48.234,38.55
48.250,35.93
48.265,33.71
48.281,31.82
48.296,30.14
48.312,28.43
48.328,26.49
48.343,24.09
48.359,21.12
48.375,17.62
48.390,13.7
48.406,9.48
48.421,5.05
48.437,0.37
48.453,-4.62
48.468,-9.93
48.484,-15.55
48.500,-21.36
48.515,-27.2
48.531,-32.93
48.546,-38.44
48.562,-43.72
48.578,-48.94
48.593,-54.36
48.609,-60.22
48.625,-66.7
48.640,-73.63
48.656,-80.43
48.671,-86.14
48.687,-89.56
48.703,-89.6
48.718,-85.58
48.734,-77.44
48.750,-65.74
48.765,-51.53
48.781,-36.01
48.796,-20.26
48.812,-5.12
48.828,8.92
48.843,21.61
48.859,32.87
48.875,42.67
48.890,51.04
48.906,57.95
48.921,63.42
48.937,67.4
48.953,69.83
48.968,70.71
48.984,70.07
49.000,68.18
49.015,65.35
49.031,62.01
49.046,58.49
49.062,55.1
49.078,52.0
49.093,49.18
49.109,46.56
49.125,43.93
49.140,41.06
49.156,37.76
49.171,33.9
49.187,29.49
49.203,24.69
49.218,19.73
49.234,14.78
49.250,9.92
49.265,5.08
49.281,0.11
49.296,-5.14
49.312,-10.74
49.328,-16.64
49.343,-22.64
49.359,-28.57
49.375,-34.29
49.390,-39.76
49.406,-45.11
49.421,-50.56
49.437,-56.34
49.453,-62.72
49.468,-69.71
49.484,-77.13
49.500,-84.38
49.515,-90.45
49.531,-94.06
49.546,-93.97
49.562,-89.37
49.578,-80.12
49.593,-66.89
49.609,-50.91
49.625,-33.68
49.640,-16.54
49.656,-0.44
49.671,14.16
49.687,27.16
49.703,38.63
49.718,48.68
49.734,57.29
49.750,64.38
49.765,69.79
49.781,73.44
49.796,75.31
49.812,75.53
49.828,74.27
49.843,71.78
49.859,68.38
49.875,64.43
49.890,60.29
49.906,56.36
49.921,52.93
49.937,50.15
49.953,47.92
49.968,45.89
49.984,43.6
50.000,40.7
50.015,37.0
50.031,32.57
50.046,27.68
50.062,22.62
50.078,17.59
50.093,12.66
50.109,7.74
50.125,2.71
50.140,-2.52
50.156,-8.0
50.171,-13.7
50.187,-19.55
50.203,-25.41
50.218,-31.18
50.234,-36.76
50.250,-42.16
50.265,-47.57
50.281,-53.24
50.296,-59.5
50.312,-66.48
50.328,-73.94
50.343,-81.19
50.359,-87.1
50.375,-90.3
50.390,-89.64
50.406,-84.45
50.421,-74.87
50.437,-61.74
50.453,-46.37
50.468,-30.12
50.484,-14.12
50.500,0.92
50.515,14.7
50.531,27.06
50.546,37.91
50.562,47.11
50.578,54.51
50.593,60.04
50.609,63.77
50.625,65.87
50.640,66.6
50.656,66.2
50.671,64.81
50.687,62.58
50.703,59.64
50.718,56.25
50.734,52.7
50.750,49.32
50.765,46.3
50.781,43.6
50.796,40.99
50.812,38.1
50.828,34.67
50.843,30.6
50.859,26.04
50.875,21.24
50.890,16.48
50.906,11.86
50.921,7.38
50.937,2.86
50.953,-1.91
50.968,-7.1
50.984,-12.74
51.000,-18.72
51.015,-24.89
51.031,-30.99
51.046,-36.86
51.062,-42.38
51.078,-47.61
51.093,-52.76
51.109,-58.17
51.125,-64.15
51.140,-70.75
51.156,-77.59
51.171,-83.82
51.187,-88.16
51.203,-89.35
51.218,-86.41
51.234,-79.01
51.250,-67.48
51.265,-52.75
51.281,-36.07
51.296,-18.73
51.312,-1.86
51.328,13.73
51.343,27.59
51.359,39.49
51.375,49.49
51.390,57.76
51.406,64.43
51.421,69.59
51.437,73.22
51.453,75.26
51.468,75.7
51.484,74.67
51.500,72.42
51.515,69.3
51.531,65.63
51.546,61.71
51.562,57.71
51.578,53.81
51.593,50.16
51.609,46.85
51.625,43.9
51.640,41.14
51.656,38.34
51.671,35.14
51.687,31.32
51.703,26.85
51.718,21.9
51.734,16.69
51.750,11.45
51.765,6.23
51.781,0.9
51.796,-4.69
51.812,-10.75
51.828,-17.25
51.843,-24.05
51.859,-30.89
51.875,-37.5
51.890,-43.65
51.906,-49.26
51.921,-54.46
51.937,-59.52
51.953,-64.83
51.968,-70.69
51.984,-77.14
52.000,-83.8
52.015,-89.84
52.031,-94.02
52.046,-95.07
52.062,-92.02
52.078,-84.5
52.093,-72.86
52.109,-58.06
52.125,-41.39
52.140,-24.11
52.156,-7.18
52.171,8.78
52.187,23.41
52.203,36.49
52.218,47.86
52.234,57.39
52.250,65.05
52.265,70.88
52.281,74.93
52.296,77.28
52.312,77.92
52.328,76.93
52.343,74.47
52.359,70.87
52.375,66.54
52.390,61.89
52.406,57.29
52.421,52.96
52.437,49.06
52.453,45.65
52.468,42.69
52.484,40.04
52.500,37.44
52.515,34.51
52.531,30.99
52.546,26.8
52.562,22.09
52.578,17.16
52.593,12.23
52.609,7.37
52.625,2.36
52.640,-3.05
52.656,-9.08
52.671,-15.67
52.687,-22.52
52.703,-29.15
52.718,-35.12
52.734,-40.2
52.750,-44.48
52.765,-48.33
52.781,-52.26
52.796,-56.78
52.812,-62.22
52.828,-68.64
52.843,-75.61
52.859,-82.27
52.875,-87.41
52.890,-89.74
52.906,-88.17
52.921,-82.22
52.937,-72.08
52.953,-58.59
52.968,-42.98
52.984,-26.53
53.000,-10.29
53.015,4.99
53.031,18.88
53.046,31.13
53.062,41.63
53.078,50.3
53.093,57.14
53.109,62.19
53.125,65.49
53.140,67.1
53.156,67.09
53.171,65.6
53.187,62.86
53.203,59.21
53.218,55.04
53.234,50.75
53.250,46.7
53.265,43.08
53.281,39.96
53.296,37.23
53.312,34.67
53.328,31.96
53.343,28.83
53.359,25.18
53.375,21.11
53.390,16.88
53.406,12.74
53.421,8.8
53.437,4.98
53.453,1.03
53.468,-3.35
53.484,-8.31
53.500,-13.73
53.515,-19.4
53.531,-24.98
53.546,-30.26
53.562,-35.22
53.578,-39.99
53.593,-44.85
53.609,-50.12
53.625,-56.02
53.640,-62.57
53.656,-69.55
53.671,-76.34
53.687,-82.07
53.703,-85.67
53.718,-86.02
53.734,-82.32
53.750,-74.3
53.765,-62.37
53.781,-47.52
53.796,-31.18
53.812,-14.75
53.828,0.59
53.843,14.11
53.859,25.56
53.875,34.99
53.890,42.67
53.906,48.83
53.921,53.66
53.937,57.24
53.953,59.61
53.968,60.82
53.984,60.86
54.000,59.79
54.015,57.71
54.031,54.82
54.046,51.41
54.062,47.8
54.078,44.29
54.093,41.11
54.109,38.31
54.125,35.8
54.140,33.34
54.156,30.64
54.171,27.46
54.187,23.71
54.203,19.49
54.218,15.04
54.234,10.63
54.250,6.44
54.265,2.47
54.281,-1.42
54.296,-5.52
54.312,-10.04
54.328,-15.12
54.343,-20.71
54.359,-26.69
54.375,-32.81
54.390,-38.9
54.406,-44.87
54.421,-50.71
54.437,-56.55
54.453,-62.6
54.468,-69.08
54.484,-76.01
54.500,-83.05
54.515,-89.39
54.531,-93.9
54.546,-95.29
54.562,-92.62
54.578,-85.43
54.593,-74.09
54.609,-59.55
54.625,-43.11
54.640,-26.11
54.656,-9.63
54.671,5.55
54.687,19.07
54.703,30.83
54.718,40.91
54.734,49.5
54.750,56.73
54.765,62.68
54.781,67.32
54.796,70.55
54.812,72.24
54.828,72.32
54.843,70.81
54.859,67.89
54.875,63.89
54.890,59.34
54.906,54.77
54.921,50.6
54.937,47.09
54.953,44.16
54.968,41.54
54.984,38.82
55.000,35.64
55.015,31.84
55.031,27.5
55.046,22.88
55.062,18.22
55.078,13.77
55.093,9.54
55.109,5.37
55.125,1.02
55.140,-3.78
55.156,-9.17
55.171,-15.14
55.187,-21.48
55.203,-27.92
55.218,-34.14
55.234,-39.93
55.250,-45.31
55.265,-50.42
55.281,-55.6
55.296,-61.17
55.312,-67.33
55.328,-73.96
55.343,-80.58
55.359,-86.33
55.375,-90.13
55.390,-90.94
55.406,-87.98
55.421,-80.99
55.437,-70.28
55.453,-56.67
55.468,-41.27
55.484,-25.26
55.500,-9.53
55.515,5.27
55.531,18.75
55.546,30.75
55.562,41.16
55.578,49.94
55.593,57.02
55.609,62.42
55.625,66.15
55.640,68.32
55.656,69.02
55.671,68.26
55.687,66.16
55.703,62.88
55.718,58.75
55.734,54.19
55.750,49.76
55.765,45.91
55.781,42.9
55.796,40.68
55.812,38.9
55.828,37.0
55.843,34.49
55.859,31.07
55.875,26.76
55.890,21.83
55.906,16.67
55.921,11.59
55.937,6.68
55.953,1.83
55.968,-3.18
55.984,-8.52
56.000,-14.16
56.015,-19.93
56.031,-25.59
56.046,-31.05
56.062,-36.29
56.078,-41.38
56.093,-46.46
56.109,-51.57
56.125,-56.81
56.140,-62.26
56.156,-68.01
56.171,-73.97
56.187,-79.68
56.203,-84.16
56.218,-86.13
56.234,-84.37
56.250,-78.13
56.265,-67.51
56.281,-53.36
56.296,-37.1
56.312,-20.18
56.328,-3.81
56.343,11.22
56.359,24.5
56.375,35.81
56.390,45.13
56.406,52.5
56.421,58.09
56.437,62.05
56.453,64.64
56.468,65.99
56.484,66.12
56.500,65.03
56.515,62.76
56.531,59.43
56.546,55.25
56.562,50.6
56.578,45.88
56.593,41.54
56.609,37.93
56.625,35.23
56.640,33.31
56.656,31.78
56.671,30.03
56.687,27.48
56.703,23.8
56.718,19.05
56.734,13.62
56.750,8.05
56.765,2.77
56.781,-2.09
56.796,-6.69
56.812,-11.39
56.828,-16.51
56.843,-22.17
56.859,-28.21
56.875,-34.34
56.890,-40.2
56.906,-45.57
56.921,-50.49
56.937,-55.25
56.953,-60.28
56.968,-65.96
56.984,-72.39
57.000,-79.26
57.015,-85.75
57.031,-90.68
57.046,-92.77
57.062,-90.95
57.078,-84.73
57.093,-74.22
57.109,-60.2
57.125,-43.81
57.140,-26.4
57.156,-9.16
57.171,6.94
57.187,21.27
57.203,33.54
57.218,43.74
57.234,52.08
57.250,58.78
57.265,64.14
57.281,68.25
57.296,71.17
57.312,72.78
57.328,72.96
57.343,71.69
57.359,69.12
57.375,65.57
57.390,61.45
57.406,57.24
57.421,53.24
57.437,49.68
57.453,46.52
57.468,43.57
57.484,40.61
57.500,37.43
57.515,33.93
57.531,30.08
57.546,25.97
57.562,21.69
57.578,17.29
57.593,12.74
57.609,7.9
57.625,2.63
57.640,-3.18
57.656,-9.54
57.671,-16.3
57.687,-23.21
57.703,-29.93
57.718,-36.28
57.734,-42.13
57.750,-47.53
57.765,-52.64
57.781,-57.78
57.796,-63.23
57.812,-69.19
57.828,-75.64
57.843,-82.12
57.859,-87.77
57.875,-91.37
57.890,-91.74
57.906,-88.03
57.921,-80.07
57.937,-68.34
57.953,-53.89
57.968,-37.92
57.984,-21.56
58.000,-5.74
58.015,8.95
58.031,22.12
58.046,33.56
58.062,43.2
58.078,51.1
58.093,57.41
58.109,62.3
58.125,65.89
58.140,68.19
58.156,69.15
58.171,68.74
58.187,67.03
58.203,64.22
58.218,60.65
58.234,56.74
58.250,52.85
58.265,49.29
58.281,46.12
58.296,43.24
58.312,40.43
58.328,37.42
58.343,34.0
58.359,30.11
58.375,25.9
58.390,21.53
58.406,17.25
58.421,13.15
58.437,9.18
58.453,5.17
58.468,0.88
58.484,-3.86
58.500,-9.16
58.515,-14.94
58.531,-21.0
58.546,-27.01
58.562,-32.7
58.578,-37.85
58.593,-42.48
58.609,-46.88
58.625,-51.41
58.640,-56.48
58.656,-62.31
58.671,-68.77
58.687,-75.27
58.703,-80.81
58.718,-84.19
58.734,-84.26
58.750,-80.31
58.765,-72.2
58.781,-60.46
58.796,-46.17
58.812,-30.63
58.828,-15.03
58.843,-0.26
58.859,13.16
58.875,25.06
58.890,35.39
58.906,44.16
58.921,51.31
58.937,56.76
58.953,60.49
58.968,62.53
58.984,63.09
59.000,62.33
59.015,60.51
59.031,57.79
59.046,54.38
59.062,50.54
59.078,46.52
59.093,42.71
59.109,39.33
59.125,36.5
59.140,34.14
59.156,31.96
59.171,29.61
59.187,26.81
59.203,23.44
59.218,19.51
59.234,15.21
59.250,10.72
59.265,6.14
59.281,1.48
59.296,-3.37
59.312,-8.53
59.328,-14.04
59.343,-19.78
59.359,-25.54
59.375,-31.09
59.390,-36.24
59.406,-41.0
59.421,-45.51
59.437,-50.1
59.453,-55.11
59.468,-60.79
59.484,-67.15
59.500,-73.86
59.515,-80.14
59.531,-84.84
59.546,-86.7
59.562,-84.71
59.578,-78.47
59.593,-68.32
59.609,-55.26
59.625,-40.62
59.640,-25.57
59.656,-10.97
59.671,2.78
59.687,15.49
59.703,27.07
59.718,37.32
59.734,46.05
59.750,53.12
59.765,58.54
59.781,62.42
59.796,64.85
59.812,65.81
59.828,65.27
59.843,63.26
59.859,60.02
59.875,56.02
59.890,51.82
59.906,47.89
59.921,44.52
59.937,41.7
59.953,39.2
59.968,36.74
59.984,34.0
