timestamp,value
00.000,9.08
00.015,8.79
00.031,8.53
00.046,8.64
00.062,9.25
00.078,10.25
00.093,11.34
00.109,12.15
00.125,12.48
00.140,12.31
00.156,11.89
00.171,11.52
00.187,11.49
00.203,11.8
00.218,12.25
00.234,12.52
00.250,12.32
00.265,11.61
00.281,10.57
00.296,9.59
00.312,8.95
00.328,8.73
00.343,8.69
00.359,8.43
00.375,7.71
00.390,6.46
00.406,4.91
00.421,3.33
00.437,1.98
00.453,0.9
00.468,-0.06
00.484,-1.08
00.500,-2.36
00.515,-3.89
00.531,-5.63
00.546,-7.43
00.562,-9.18
00.578,-10.79
00.593,-12.18
00.609,-13.3
00.625,-14.07
00.640,-14.5
00.656,-14.57
00.671,-14.45
00.687,-14.29
00.703,-14.35
00.718,-14.78
00.734,-15.62
00.750,-16.67
00.765,-17.49
00.781,-17.58
00.796,-16.57
00.812,-14.44
00.828,-11.58
00.843,-8.58
00.859,-6.02
00.875,-4.17
00.890,-2.87
00.906,-1.71
00.921,-0.27
00.937,1.59
00.953,3.73
00.968,5.77
00.984,7.42
01.000,8.54
01.015,9.27
01.031,9.89
01.046,10.64
01.062,11.58
01.078,12.54
01.093,13.29
01.109,13.62
01.125,13.51
01.140,13.0
01.156,12.27
01.171,11.49
01.187,10.79
01.203,10.15
01.218,9.53
01.234,8.91
01.250,8.34
01.265,7.91
01.281,7.71
01.296,7.76
01.312,7.96
01.328,7.95
01.343,7.41
01.359,6.08
01.375,4.09
01.390,1.83
01.406,-0.13
01.421,-1.36
01.437,-1.73
01.453,-1.43
01.468,-1.0
01.484,-0.84
01.500,-1.24
01.515,-2.22
01.531,-3.58
01.546,-5.07
01.562,-6.5
01.578,-7.81
01.593,-9.04
01.609,-10.27
01.625,-11.49
01.640,-12.61
01.656,-13.59
01.671,-14.46
01.687,-15.45
01.703,-16.85
01.718,-19.0
01.734,-21.88
01.750,-25.11
01.765,-27.86
01.781,-29.21
01.796,-28.54
01.812,-25.71
01.828,-21.17
01.843,-15.68
01.859,-10.1
01.875,-4.94
01.890,-0.39
01.906,3.7
01.921,7.43
01.937,10.82
01.953,13.75
01.968,15.96
01.984,17.39
02.000,18.08
02.015,18.28
02.031,18.24
02.046,18.13
02.062,17.86
02.078,17.25
02.093,16.09
02.109,14.23
02.125,11.87
02.140,9.37
02.156,7.15
02.171,5.54
02.187,4.57
02.203,4.04
02.218,3.62
02.234,3.13
02.250,2.52
02.265,2.02
02.281,1.82
02.296,2.01
02.312,2.41
02.328,2.68
02.343,2.52
02.359,1.82
02.375,0.79
02.390,-0.27
02.406,-1.0
02.421,-1.27
02.437,-1.15
02.453,-0.91
02.468,-0.78
02.484,-0.86
02.500,-1.12
02.515,-1.37
02.531,-1.53
02.546,-1.51
02.562,-1.39
02.578,-1.21
02.593,-1.08
02.609,-1.1
02.625,-1.33
02.640,-1.91
02.656,-2.87
02.671,-4.29
02.687,-6.14
02.703,-8.31
02.718,-10.56
02.734,-12.6
02.750,-14.14
02.765,-14.84
02.781,-14.55
02.796,-13.3
02.812,-11.37
02.828,-9.23
02.843,-7.3
02.859,-5.79
02.875,-4.65
02.890,-3.63
02.906,-2.45
02.921,-1.04
02.937,0.48
02.953,1.8
02.968,2.72
02.984,3.22
03.000,3.49
03.015,3.85
03.031,4.5
03.046,5.5
03.062,6.61
03.078,7.56
03.093,8.06
03.109,8.0
03.125,7.49
03.140,6.76
03.156,6.07
03.171,5.59
03.187,5.29
03.203,4.91
03.218,4.2
03.234,3.08
03.250,1.63
03.265,0.18
03.281,-1.03
03.296,-1.94
03.312,-2.74
03.328,-3.78
03.343,-5.35
03.359,-7.45
03.375,-9.76
03.390,-11.91
03.406,-13.57
03.421,-14.64
03.437,-15.27
03.453,-15.62
03.468,-15.85
03.484,-15.97
03.500,-15.94
03.515,-15.72
03.531,-15.36
03.546,-14.95
03.562,-14.65
03.578,-14.7
03.593,-15.24
03.609,-16.39
03.625,-18.08
03.640,-19.98
03.656,-21.59
03.671,-22.47
03.687,-22.32
03.703,-21.13
03.718,-19.12
03.734,-16.46
03.750,-13.28
03.765,-9.62
03.781,-5.54
03.796,-1.22
03.812,2.87
03.828,6.2
03.843,8.26
03.859,8.89
03.875,8.39
03.890,7.44
03.906,6.81
03.921,7.1
03.937,8.38
03.953,10.25
03.968,12.06
03.984,13.26
04.000,13.76
04.015,13.92
04.031,14.4
04.046,15.72
04.062,18.01
04.078,20.94
04.093,24.01
04.109,26.86
04.125,29.36
04.140,31.6
04.156,33.56
04.171,35.05
04.187,35.62
04.203,34.81
04.218,32.49
04.234,28.91
04.250,24.71
04.265,20.63
04.281,17.17
04.296,14.42
04.312,12.07
04.328,9.6
04.343,6.6
04.359,2.91
04.375,-1.25
04.390,-5.46
04.406,-9.31
04.421,-12.62
04.437,-15.54
04.453,-18.39
04.468,-21.44
04.484,-24.73
04.500,-28.0
04.515,-30.88
04.531,-33.12
04.546,-34.67
04.562,-35.74
04.578,-36.55
04.593,-37.24
04.609,-37.77
04.625,-38.01
04.640,-37.84
04.656,-37.19
04.671,-36.09
04.687,-34.54
04.703,-32.48
04.718,-29.82
04.734,-26.36
04.750,-22.1
04.765,-17.17
04.781,-11.87
04.796,-6.59
04.812,-1.75
04.828,2.38
04.843,5.67
04.859,8.15
04.875,10.04
04.890,11.52
04.906,12.79
04.921,13.95
04.937,14.97
04.953,15.8
04.968,16.4
04.984,16.8
05.000,17.1
05.015,17.41
05.031,17.75
05.046,18.08
05.062,18.24
05.078,18.04
05.093,17.35
05.109,16.21
05.125,14.88
05.140,13.73
05.156,13.0
05.171,12.76
05.187,12.76
05.203,12.59
05.218,11.85
05.234,10.49
05.250,8.76
05.265,7.21
05.281,6.31
05.296,6.29
05.312,7.04
05.328,8.18
05.343,9.31
05.359,10.17
05.375,10.83
05.390,11.47
05.406,12.28
05.421,13.17
05.437,13.92
05.453,14.21
05.468,13.81
05.484,12.78
05.500,11.34
05.515,9.85
05.531,8.5
05.546,7.35
05.562,6.11
05.578,4.51
05.593,2.33
05.609,-0.43
05.625,-3.5
05.640,-6.47
05.656,-8.93
05.671,-10.62
05.687,-11.47
05.703,-11.61
05.718,-11.22
05.734,-10.41
05.750,-9.26
05.765,-7.84
05.781,-6.31
05.796,-4.94
05.812,-4.01
05.828,-3.73
05.843,-4.07
05.859,-4.86
05.875,-5.74
05.890,-6.39
05.906,-6.54
05.921,-6.07
05.937,-5.08
05.953,-3.7
05.968,-2.14
05.984,-0.58
06.000,0.85
06.015,2.07
06.031,3.08
06.046,3.94
06.062,4.67
06.078,5.24
06.093,5.6
06.109,5.71
06.125,5.61
06.140,5.41
06.156,5.19
06.171,4.93
06.187,4.55
06.203,3.96
06.218,3.15
06.234,2.27
06.250,1.55
06.265,1.24
06.281,1.36
06.296,1.8
06.312,2.25
06.328,2.37
06.343,1.97
06.359,1.07
06.375,-0.13
06.390,-1.38
06.406,-2.47
06.421,-3.38
06.437,-4.18
06.453,-5.07
06.468,-6.18
06.484,-7.49
06.500,-8.87
06.515,-10.17
06.531,-11.31
06.546,-12.39
06.562,-13.59
06.578,-15.07
06.593,-16.82
06.609,-18.57
06.625,-19.83
06.640,-20.1
06.656,-19.05
06.671,-16.75
06.687,-13.53
06.703,-9.92
06.718,-6.39
06.734,-3.23
06.750,-0.5
06.765,1.83
06.781,3.78
06.796,5.35
06.812,6.39
06.828,6.92
06.843,7.05
06.859,7.02
06.875,7.18
06.890,7.7
06.906,8.64
06.921,9.74
06.937,10.75
06.953,11.37
06.968,11.59
06.984,11.54
07.000,11.5
07.015,11.73
07.031,12.33
07.046,13.14
07.062,13.87
07.078,14.17
07.093,13.87
07.109,13.03
07.125,11.91
07.140,10.76
07.156,9.77
07.171,8.95
07.187,8.16
07.203,7.35
07.218,6.47
07.234,5.63
07.250,4.99
07.265,4.66
07.281,4.58
07.296,4.58
07.312,4.33
07.328,3.57
07.343,2.23
07.359,0.43
07.375,-1.51
07.390,-3.29
07.406,-4.71
07.421,-5.77
07.437,-6.71
07.453,-7.87
07.468,-9.43
07.484,-11.38
07.500,-13.54
07.515,-15.67
07.531,-17.62
07.546,-19.41
07.562,-21.12
07.578,-22.71
07.593,-24.0
07.609,-24.63
07.625,-24.15
07.640,-22.3
07.656,-19.12
07.671,-14.92
07.687,-10.31
07.703,-5.87
07.718,-2.05
07.734,0.95
07.750,3.21
07.765,4.96
07.781,6.54
07.796,8.13
07.812,9.76
07.828,11.29
07.843,12.49
07.859,13.24
07.875,13.59
07.890,13.7
07.906,13.78
07.921,13.96
07.937,14.26
07.953,14.61
07.968,14.94
07.984,15.28
08.000,15.73
08.015,16.35
08.031,17.07
08.046,17.65
08.062,17.74
08.078,17.08
08.093,15.63
08.109,13.6
08.125,11.43
08.140,9.56
08.156,8.27
08.171,7.52
08.187,7.04
08.203,6.37
08.218,5.24
08.234,3.62
08.250,1.74
08.265,-0.02
08.281,-1.34
08.296,-2.1
08.312,-2.51
08.328,-2.82
08.343,-3.28
08.359,-3.93
08.375,-4.69
08.390,-5.35
08.406,-5.86
08.421,-6.36
08.437,-7.04
08.453,-8.19
08.468,-9.87
08.484,-11.97
08.500,-14.2
08.515,-16.3
08.531,-18.05
08.546,-19.42
08.562,-20.48
08.578,-21.18
08.593,-21.43
08.609,-20.94
08.625,-19.43
08.640,-16.78
08.656,-13.15
08.671,-8.93
08.687,-4.68
08.703,-0.89
08.718,2.11
08.734,4.28
08.750,5.77
08.765,6.83
08.781,7.61
08.796,8.16
08.812,8.48
08.828,8.52
08.843,8.4
08.859,8.33
08.875,8.48
08.890,8.96
08.906,9.76
08.921,10.59
08.937,11.26
08.953,11.6
08.968,11.55
08.984,11.32
09.000,11.13
09.015,11.1
09.031,11.25
09.046,11.45
09.062,11.46
09.078,11.12
09.093,10.42
09.109,9.42
09.125,8.37
09.140,7.47
09.156,6.78
09.171,6.26
09.187,5.72
09.203,5.04
09.218,4.19
09.234,3.31
09.250,2.56
09.265,2.1
09.281,1.97
09.296,1.98
09.312,1.84
09.328,1.27
09.343,0.09
09.359,-1.64
09.375,-3.63
09.390,-5.52
09.406,-7.01
09.421,-8.01
09.437,-8.77
09.453,-9.58
09.468,-10.72
09.484,-12.27
09.500,-14.04
09.515,-15.65
09.531,-16.69
09.546,-16.89
09.562,-16.14
09.578,-14.62
09.593,-12.53
09.609,-10.05
09.625,-7.31
09.640,-4.39
09.656,-1.35
09.671,1.64
09.687,4.32
09.703,6.4
09.718,7.71
09.734,8.32
09.750,8.49
09.765,8.56
09.781,8.76
09.796,9.1
09.812,9.4
09.828,9.51
09.843,9.39
09.859,9.19
09.875,9.21
09.890,9.69
09.906,10.65
09.921,11.91
09.937,13.08
09.953,13.73
09.968,13.69
09.984,13.03
10.000,12.03
10.015,11.04
10.031,10.31
10.046,9.86
10.062,9.55
10.078,9.15
10.093,8.45
10.109,7.38
10.125,6.07
10.140,4.73
10.156,3.55
10.171,2.62
10.187,1.9
10.203,1.24
10.218,0.52
10.234,-0.34
10.250,-1.35
10.265,-2.48
10.281,-3.67
10.296,-4.88
10.312,-6.07
10.328,-7.21
10.343,-8.3
10.359,-9.4
10.375,-10.58
10.390,-11.83
10.406,-13.08
10.421,-14.25
10.437,-15.35
10.453,-16.47
10.468,-17.78
10.484,-19.42
10.500,-21.28
10.515,-23.07
10.531,-24.29
10.546,-24.51
10.562,-23.51
10.578,-21.33
10.593,-18.24
10.609,-14.57
10.625,-10.65
10.640,-6.69
10.656,-2.88
10.671,0.61
10.687,3.67
10.703,6.22
10.718,8.22
10.734,9.73
10.750,10.85
10.765,11.71
10.781,12.47
10.796,13.22
10.812,14.04
10.828,14.96
10.843,15.97
10.859,17.05
10.875,18.17
10.890,19.32
10.906,20.49
10.921,21.66
10.937,22.66
10.953,23.34
10.968,23.67
10.984,23.8
11.000,24.02
11.015,24.68
11.031,25.99
11.046,27.96
11.062,30.39
11.078,32.98
11.093,35.5
11.109,37.85
11.125,40.03
11.140,42.1
11.156,44.04
11.171,45.66
11.187,46.67
11.203,46.82
11.218,45.86
11.234,43.79
11.250,40.71
11.265,36.74
11.281,32.03
11.296,26.64
11.312,20.55
11.328,13.9
11.343,7.14
11.359,0.87
11.375,-4.12
11.390,-7.39
11.406,-9.07
11.421,-9.93
11.437,-11.22
11.453,-14.14
11.468,-19.32
11.484,-26.53
11.500,-34.95
11.515,-43.42
11.531,-50.99
11.546,-57.16
11.562,-61.87
11.578,-65.3
11.593,-67.66
11.609,-69.02
11.625,-69.39
11.640,-68.89
11.656,-67.63
11.671,-65.83
11.687,-63.66
11.703,-61.26
11.718,-58.69
11.734,-56.04
11.750,-53.22
11.765,-50.14
11.781,-46.72
11.796,-42.86
11.812,-38.68
11.828,-34.5
11.843,-30.64
11.859,-27.36
11.875,-24.66
11.890,-22.14
11.906,-19.29
11.921,-15.76
11.937,-11.47
11.953,-6.76
11.968,-2.19
11.984,1.79
12.000,5.0
12.015,7.51
12.031,9.65
12.046,11.66
12.062,13.56
12.078,15.2
12.093,16.37
12.109,16.96
12.125,17.12
12.140,17.13
12.156,17.21
12.171,17.53
12.187,18.03
12.203,18.5
12.218,18.76
12.234,18.68
12.250,18.32
12.265,17.8
12.281,17.32
12.296,16.95
12.312,16.61
12.328,16.09
12.343,15.1
12.359,13.48
12.375,11.16
12.390,8.33
12.406,5.3
12.421,2.37
12.437,-0.29
12.453,-2.72
12.468,-5.06
12.484,-7.47
12.500,-9.97
12.515,-12.55
12.531,-15.05
12.546,-17.21
12.562,-18.8
12.578,-19.59
12.593,-19.35
12.609,-17.91
12.625,-15.21
12.640,-11.35
12.656,-6.7
12.671,-1.76
12.687,2.87
12.703,6.64
12.718,9.26
12.734,10.81
12.750,11.6
12.765,12.0
12.781,12.29
12.796,12.43
12.812,12.24
12.828,11.57
12.843,10.5
12.859,9.44
12.875,8.96
12.890,9.49
12.906,11.17
12.921,13.8
12.937,16.91
12.953,20.03
12.968,22.77
12.984,24.96
13.000,26.57
13.015,27.65
13.031,28.19
13.046,28.17
13.062,27.59
13.078,26.36
13.093,24.53
13.109,22.13
13.125,19.33
13.140,16.44
13.156,13.68
13.171,11.17
13.187,8.9
13.203,6.68
13.218,4.28
13.234,1.6
13.250,-1.31
13.265,-4.31
13.281,-7.11
13.296,-9.54
13.312,-11.59
13.328,-13.32
13.343,-14.84
13.359,-16.25
13.375,-17.6
13.390,-18.86
13.406,-20.07
13.421,-21.28
13.437,-22.64
13.453,-24.22
13.468,-25.98
13.484,-27.69
13.500,-28.89
13.515,-29.1
13.531,-28.03
13.546,-25.66
13.562,-22.23
13.578,-18.21
13.593,-14.02
13.609,-9.95
13.625,-6.19
13.640,-2.77
13.656,0.29
13.671,2.89
13.687,4.99
13.703,6.57
13.718,7.69
13.734,8.52
13.750,9.26
13.765,10.03
13.781,10.93
13.796,11.89
13.812,12.8
13.828,13.55
13.843,14.03
13.859,14.21
13.875,14.08
13.890,13.71
13.906,13.12
13.921,12.39
13.937,11.47
13.953,10.41
13.968,9.25
13.984,8.13
14.000,7.32
14.015,7.1
14.031,7.54
14.046,8.53
14.062,9.68
14.078,10.5
14.093,10.65
14.109,10.13
14.125,9.21
14.140,8.34
14.156,7.85
14.171,7.72
14.187,7.63
14.203,7.17
14.218,6.03
14.234,4.24
14.250,2.08
14.265,-0.08
14.281,-1.92
14.296,-3.31
14.312,-4.34
14.328,-5.15
14.343,-5.79
14.359,-6.26
14.375,-6.48
14.390,-6.37
14.406,-6.04
14.421,-5.71
14.437,-5.72
14.453,-6.43
14.468,-8.03
14.484,-10.34
14.500,-12.95
14.515,-15.23
14.531,-16.62
14.546,-16.97
14.562,-16.44
14.578,-15.6
14.593,-15.13
14.609,-15.52
14.625,-16.82
14.640,-18.71
14.656,-20.55
14.671,-21.67
14.687,-21.73
14.703,-20.64
14.718,-18.6
14.734,-15.87
14.750,-12.62
14.765,-8.84
14.781,-4.45
14.796,0.62
14.812,6.29
14.828,12.29
14.843,18.3
14.859,24.04
14.875,29.32
14.890,34.01
14.906,37.94
14.921,40.82
14.937,42.26
14.953,42.02
14.968,39.98
14.984,36.39
15.000,31.76
15.015,26.64
15.031,21.59
15.046,16.83
15.062,12.27
15.078,7.66
15.093,2.76
15.109,-2.56
15.125,-8.11
15.140,-13.52
15.156,-18.42
15.171,-22.52
15.187,-25.79
15.203,-28.32
15.218,-30.18
15.234,-31.31
15.250,-31.59
15.265,-30.82
15.281,-28.94
15.296,-26.14
15.312,-22.81
15.328,-19.5
15.343,-16.63
15.359,-14.41
15.375,-12.83
15.390,-11.72
15.406,-10.88
15.421,-10.17
15.437,-9.69
15.453,-9.54
15.468,-9.83
15.484,-10.36
15.500,-10.72
15.515,-10.43
15.531,-9.1
15.546,-6.69
15.562,-3.47
15.578,0.01
15.593,3.26
15.609,5.91
15.625,7.91
15.640,9.38
15.656,10.54
15.671,11.59
15.687,12.56
15.703,13.44
15.718,14.2
15.734,14.88
15.750,15.5
15.765,16.12
15.781,16.66
15.796,16.95
15.812,16.78
15.828,15.93
15.843,14.41
15.859,12.4
15.875,10.4
15.890,8.79
15.906,7.9
15.921,7.79
15.937,8.23
15.953,8.85
15.968,9.27
15.984,9.23
16.000,8.67
16.015,7.73
16.031,6.56
16.046,5.34
16.062,4.17
16.078,3.09
16.093,2.07
16.109,1.07
16.125,0.06
16.140,-0.99
16.156,-2.05
16.171,-3.12
16.187,-4.21
16.203,-5.26
16.218,-6.2
16.234,-6.91
16.250,-7.37
16.265,-7.53
16.281,-7.43
16.296,-7.19
16.312,-6.96
16.328,-6.87
16.343,-6.99
16.359,-7.29
16.375,-7.61
16.390,-7.84
16.406,-7.89
16.421,-7.74
16.437,-7.38
16.453,-6.73
16.468,-5.6
16.484,-3.79
16.500,-1.14
16.515,2.29
16.531,6.16
16.546,9.85
16.562,12.81
16.578,14.72
16.593,15.64
16.609,15.88
16.625,15.87
16.640,15.84
16.656,15.87
16.671,15.85
16.687,15.52
16.703,14.84
16.718,13.91
16.734,13.02
16.750,12.43
16.765,12.31
16.781,12.62
16.796,13.15
16.812,13.61
16.828,13.7
16.843,13.35
16.859,12.65
16.875,11.87
16.890,11.32
16.906,11.23
16.921,11.61
16.937,12.14
16.953,12.39
16.968,11.93
16.984,10.58
17.000,8.43
17.015,5.81
17.031,3.13
17.046,0.68
17.062,-1.51
17.078,-3.62
17.093,-5.85
17.109,-8.22
17.125,-10.63
17.140,-12.91
17.156,-14.92
17.171,-16.68
17.187,-18.35
17.203,-20.05
17.218,-21.77
17.234,-23.32
17.250,-24.48
17.265,-25.11
17.281,-25.28
17.296,-25.26
17.312,-25.26
17.328,-25.43
17.343,-25.63
17.359,-25.54
17.375,-24.74
17.390,-22.98
17.406,-20.26
17.421,-16.88
17.437,-13.34
17.453,-10.12
17.468,-7.54
17.484,-5.67
17.500,-4.3
17.515,-3.07
17.531,-1.62
17.546,0.2
17.562,2.28
17.578,4.36
17.593,6.07
17.609,7.19
17.625,7.68
17.640,7.62
17.656,7.25
17.671,6.75
17.687,6.24
17.703,5.83
17.718,5.62
17.734,5.74
17.750,6.35
17.765,7.51
17.781,9.16
17.796,11.0
17.812,12.55
17.828,13.37
17.843,13.24
17.859,12.17
17.875,10.51
17.890,8.69
17.906,7.03
17.921,5.63
17.937,4.33
17.953,2.8
17.968,0.82
17.984,-1.62
18.000,-4.28
18.015,-6.88
18.031,-9.14
18.046,-10.99
18.062,-12.53
18.078,-13.92
18.093,-15.27
18.109,-16.58
18.125,-17.71
18.140,-18.45
18.156,-18.7
18.171,-18.52
18.187,-18.11
18.203,-17.62
18.218,-17.08
18.234,-16.19
18.250,-14.62
18.265,-12.14
18.281,-8.81
18.296,-5.08
18.312,-1.6
18.328,1.13
18.343,2.97
18.359,4.16
18.375,5.24
18.390,6.6
18.406,8.37
18.421,10.35
18.437,12.16
18.453,13.53
18.468,14.46
18.484,15.15
18.500,15.91
18.515,16.95
18.531,18.4
18.546,20.16
18.562,22.09
18.578,24.03
18.593,25.94
18.609,27.85
18.625,29.84
18.640,31.95
18.656,34.14
18.671,36.27
18.687,38.1
18.703,39.47
18.718,40.32
18.734,40.92
18.750,41.69
18.765,43.18
18.781,45.79
18.796,49.59
18.812,54.22
18.828,59.07
18.843,63.56
18.859,67.49
18.875,71.17
18.890,75.35
18.906,80.9
18.921,88.33
18.937,97.54
18.953,107.76
18.968,117.89
18.984,127.02
19.000,134.78
19.015,141.56
19.031,148.35
19.046,156.24
19.062,166.01
19.078,177.76
19.093,190.98
19.109,204.8
19.125,218.31
19.140,230.82
19.156,242.02
19.171,251.87
19.187,260.55
19.203,268.46
19.218,276.29
19.234,284.9
19.250,294.78
19.265,305.31
19.281,314.3
19.296,318.28
19.312,313.55
19.328,297.73
19.343,270.92
19.359,235.68
19.375,196.13
19.390,156.33
19.406,119.07
19.421,85.39
19.437,55.17
19.453,27.79
19.468,2.91
19.484,-19.48
19.500,-39.4
19.515,-57.07
19.531,-72.85
19.546,-86.95
19.562,-98.94
19.578,-107.89
19.593,-112.75
19.609,-112.86
19.625,-108.52
19.640,-101.11
19.656,-92.68
19.671,-85.27
19.687,-80.28
19.703,-78.06
19.718,-78.15
19.734,-79.89
19.750,-82.99
19.765,-87.99
19.781,-96.12
19.796,-108.65
19.812,-126.17
19.828,-148.15
19.843,-172.94
19.859,-198.44
19.875,-222.97
19.890,-245.82
19.906,-267.43
19.921,-288.99
19.937,-311.89
19.953,-337.4
19.968,-366.57
19.984,-399.8
20.000,-436.01
20.015,-472.03
20.031,-502.11
20.046,-519.36
20.062,-518.22
20.078,-497.24
20.093,-460.52
20.109,-416.43
20.125,-374.45
20.140,-341.11
20.156,-317.99
20.171,-302.11
20.187,-288.74
20.203,-274.41
20.218,-258.33
20.234,-241.44
20.250,-224.14
20.265,-204.73
20.281,-179.62
20.296,-145.43
20.312,-101.38
20.328,-50.47
20.343,1.44
20.359,47.94
20.375,84.62
20.390,110.33
20.406,126.73
20.421,136.7
20.437,142.83
20.453,146.69
20.468,148.91
20.484,149.9
20.500,150.24
20.515,150.75
20.531,151.96
20.546,153.68
20.562,154.79
20.578,153.62
20.593,148.62
20.609,139.01
20.625,125.03
20.640,107.89
20.656,89.28
20.671,70.6
20.687,52.6
20.703,35.16
20.718,17.61
20.734,-0.63
20.750,-19.53
20.765,-38.31
20.781,-55.58
20.796,-69.89
20.812,-80.15
20.828,-85.87
20.843,-87.21
20.859,-85.07
20.875,-80.85
20.890,-76.37
20.906,-73.32
20.921,-72.94
20.937,-75.73
20.953,-81.41
20.968,-89.24
20.984,-98.54
21.000,-109.19
21.015,-121.82
21.031,-137.76
21.046,-158.54
21.062,-185.41
21.078,-218.37
21.093,-255.6
21.109,-293.16
21.125,-325.44
21.140,-346.36
21.156,-351.18
21.171,-338.21
21.187,-309.62
21.203,-271.15
21.218,-230.55
21.234,-195.66
21.250,-172.58
21.265,-164.83
21.281,-172.83
21.296,-194.1
21.312,-223.56
21.328,-254.42
21.343,-279.26
21.359,-291.7
21.375,-288.04
21.390,-268.12
21.406,-235.25
21.421,-194.75
21.437,-152.22
21.453,-111.6
21.468,-74.55
21.484,-40.65
21.500,-8.49
21.515,23.27
21.531,55.3
21.546,87.51
21.562,119.32
21.578,149.9
21.593,178.65
21.609,205.2
21.625,229.38
21.640,251.09
21.656,270.19
21.671,286.29
21.687,298.99
21.703,308.03
21.718,313.59
21.734,316.5
21.750,318.24
21.765,320.57
21.781,325.31
21.796,334.05
21.812,348.07
21.828,367.93
21.843,393.0
21.859,420.96
21.875,447.7
21.890,468.05
21.906,477.17
21.921,472.31
21.937,453.66
21.953,424.33
21.968,389.06
21.984,352.62
22.000,318.43
22.015,288.13
22.031,261.9
22.046,239.26
22.062,219.69
22.078,202.55
22.093,186.97
22.109,171.7
22.125,155.15
22.140,135.83
22.156,112.9
22.171,86.44
22.187,57.68
22.203,28.72
22.218,1.9
22.234,-21.0
22.250,-39.58
22.265,-55.39
22.281,-71.71
22.296,-92.45
22.312,-120.45
22.328,-156.04
22.343,-196.47
22.359,-236.79
22.375,-271.41
22.390,-295.96
22.406,-308.38
22.421,-308.83
22.437,-298.65
22.453,-279.3
22.468,-251.81
22.484,-216.88
22.500,-175.72
22.515,-130.57
22.531,-84.95
22.546,-43.21
22.562,-9.46
22.578,13.46
22.593,24.49
22.609,24.57
22.625,16.11
22.640,2.2
22.656,-14.17
22.671,-30.54
22.687,-44.93
22.703,-55.51
22.718,-60.53
22.734,-58.61
22.750,-49.28
22.765,-33.31
22.781,-12.69
22.796,10.08
22.812,32.95
22.828,54.91
22.843,76.21
22.859,97.71
22.875,120.22
22.890,143.93
22.906,168.06
22.921,191.09
22.937,211.23
22.953,226.88
22.968,237.03
22.984,241.43
23.000,240.4
23.015,234.63
23.031,224.78
23.046,211.2
23.062,193.83
23.078,172.56
23.093,147.42
23.109,118.94
23.125,88.25
23.140,56.85
23.156,26.36
23.171,-1.76
23.187,-26.43
23.203,-47.02
23.218,-63.18
23.234,-74.89
23.250,-82.36
23.265,-86.13
23.281,-87.09
23.296,-86.47
23.312,-85.43
23.328,-84.9
23.343,-85.18
23.359,-86.05
23.375,-86.98
23.390,-87.5
23.406,-87.44
23.421,-87.19
23.437,-87.23
23.453,-87.88
23.468,-89.09
23.484,-90.31
23.500,-90.75
23.515,-89.64
23.531,-86.49
23.546,-81.17
23.562,-73.96
23.578,-65.26
23.593,-55.57
23.609,-45.39
23.625,-35.08
23.640,-24.99
23.656,-15.38
23.671,-6.48
23.687,1.54
23.703,8.65
23.718,14.85
23.734,20.18
23.750,24.49
23.765,27.56
23.781,29.06
23.796,28.63
23.812,26.18
23.828,21.99
23.843,16.76
23.859,11.35
23.875,6.59
23.890,2.87
23.906,0.16
23.921,-1.94
23.937,-4.02
23.953,-6.46
23.968,-9.36
23.984,-12.52
24.000,-15.71
24.015,-18.7
24.031,-21.49
24.046,-24.03
24.062,-26.18
24.078,-27.7
24.093,-28.19
24.109,-27.38
24.125,-25.18
24.140,-21.9
24.156,-18.06
24.171,-14.3
24.187,-11.09
24.203,-8.62
24.218,-6.81
24.234,-5.38
24.250,-4.14
24.265,-3.02
24.281,-2.07
24.296,-1.36
24.312,-0.92
24.328,-0.65
24.343,-0.28
24.359,0.45
24.375,1.73
24.390,3.55
24.406,5.68
24.421,7.85
24.437,9.76
24.453,11.18
24.468,12.12
24.484,12.7
24.500,13.17
24.515,13.79
24.531,14.74
24.546,15.95
24.562,17.23
24.578,18.29
24.593,18.85
24.609,18.87
24.625,18.45
24.640,17.85
24.656,17.26
24.671,16.76
24.687,16.27
24.703,15.7
24.718,15.06
24.734,14.45
24.750,14.02
24.765,13.85
24.781,13.86
24.796,13.9
24.812,13.81
24.828,13.56
24.843,13.28
24.859,13.18
24.875,13.42
24.890,14.0
24.906,14.68
24.921,15.12
24.937,14.96
24.953,14.0
24.968,12.29
24.984,10.07
25.000,7.81
25.015,5.98
25.031,4.91
25.046,4.64
25.062,5.04
25.078,5.8
25.093,6.66
25.109,7.54
25.125,8.5
25.140,9.68
25.156,11.05
25.171,12.37
25.187,13.23
25.203,13.27
25.218,12.36
25.234,10.68
25.250,8.59
25.265,6.52
25.281,4.71
25.296,3.26
25.312,2.09
25.328,1.14
25.343,0.39
25.359,-0.16
25.375,-0.5
25.390,-0.72
25.406,-0.99
25.421,-1.48
25.437,-2.27
25.453,-3.32
25.468,-4.5
25.484,-5.55
25.500,-6.29
25.515,-6.57
25.531,-6.43
25.546,-6.12
25.562,-5.96
25.578,-6.17
25.593,-6.83
25.609,-7.85
25.625,-8.95
25.640,-9.88
25.656,-10.4
25.671,-10.45
25.687,-10.14
25.703,-9.7
25.718,-9.3
25.734,-8.97
25.750,-8.68
25.765,-8.28
25.781,-7.72
25.796,-6.93
25.812,-5.98
25.828,-4.91
25.843,-3.73
25.859,-2.4
25.875,-0.83
25.890,0.99
25.906,2.95
25.921,4.83
25.937,6.43
25.953,7.63
25.968,8.49
25.984,9.24
26.000,10.12
26.015,11.25
26.031,12.5
26.046,13.57
26.062,13.98
26.078,13.43
26.093,11.85
26.109,9.54
26.125,6.98
26.140,4.68
26.156,2.88
26.171,1.69
26.187,1.03
26.203,0.77
26.218,0.87
26.234,1.33
26.250,2.13
26.265,3.16
26.281,4.18
26.296,4.89
26.312,5.12
26.328,4.89
26.343,4.37
26.359,3.84
26.375,3.49
26.390,3.44
26.406,3.62
26.421,3.91
26.437,4.14
26.453,4.26
26.468,4.27
26.484,4.22
26.500,4.25
26.515,4.35
26.531,4.46
26.546,4.52
26.562,4.37
26.578,3.99
26.593,3.44
26.609,2.84
26.625,2.3
26.640,1.85
26.656,1.27
26.671,0.3
26.687,-1.4
26.703,-4.11
26.718,-7.9
26.734,-12.7
26.750,-18.32
26.765,-24.52
26.781,-31.02
26.796,-37.6
26.812,-43.96
26.828,-49.71
26.843,-54.4
26.859,-57.62
26.875,-59.07
26.890,-58.73
26.906,-56.83
26.921,-53.68
26.937,-49.66
26.953,-44.87
26.968,-39.19
26.984,-32.45
27.000,-24.54
27.015,-15.66
27.031,-6.35
27.046,2.68
27.062,10.78
27.078,17.61
27.093,23.17
27.109,27.71
27.125,31.48
27.140,34.52
27.156,36.66
27.171,37.6
27.187,37.21
27.203,35.61
27.218,33.16
27.234,30.27
27.250,27.17
27.265,23.8
27.281,19.94
27.296,15.39
27.312,10.19
27.328,4.65
27.343,-0.71
27.359,-5.41
27.375,-9.18
27.390,-11.94
27.406,-13.76
27.421,-14.62
27.437,-14.42
27.453,-13.0
27.468,-10.31
27.484,-6.56
27.500,-2.18
27.515,2.24
27.531,6.16
27.546,9.29
27.562,11.55
27.578,13.12
27.593,14.23
27.609,15.02
27.625,15.5
27.640,15.48
27.656,14.7
27.671,12.91
27.687,9.96
27.703,5.92
27.718,1.14
27.734,-3.92
27.750,-8.77
27.765,-13.12
27.781,-17.01
27.796,-20.73
27.812,-24.5
27.828,-28.29
27.843,-31.73
27.859,-34.17
27.875,-35.07
27.890,-34.31
27.906,-32.2
27.921,-29.45
27.937,-26.79
27.953,-24.55
27.968,-22.7
27.984,-20.89
28.000,-18.84
28.015,-16.53
28.031,-14.26
28.046,-12.44
28.062,-11.44
28.078,-11.3
28.093,-11.7
28.109,-12.18
28.125,-12.26
28.140,-11.76
28.156,-10.72
28.171,-9.32
28.187,-7.72
28.203,-6.0
28.218,-4.12
28.234,-1.99
28.250,0.42
28.265,3.04
28.281,5.6
28.296,7.74
28.312,9.19
28.328,9.82
28.343,9.79
28.359,9.4
28.375,9.01
28.390,8.83
28.406,8.88
28.421,8.96
28.437,8.91
28.453,8.74
28.468,8.61
28.484,8.88
28.500,9.67
28.515,10.93
28.531,12.27
28.546,13.31
28.562,13.73
28.578,13.55
28.593,13.1
28.609,12.76
28.625,12.82
28.640,13.21
28.656,13.67
28.671,13.86
28.687,13.61
28.703,13.0
28.718,12.27
28.734,11.7
28.750,11.39
28.765,11.29
28.781,11.17
28.796,10.84
28.812,10.27
28.828,9.63
28.843,9.21
28.859,9.17
28.875,9.43
28.890,9.68
28.906,9.54
28.921,8.79
28.937,7.54
28.953,6.27
28.968,5.64
28.984,6.18
29.000,8.06
29.015,10.85
29.031,13.75
29.046,15.79
29.062,16.15
29.078,14.42
29.093,10.66
29.109,5.29
29.125,-1.07
29.140,-7.82
29.156,-14.55
29.171,-21.05
29.187,-27.09
29.203,-32.36
29.218,-36.39
29.234,-38.59
29.250,-38.43
29.265,-35.79
29.281,-30.93
29.296,-24.51
29.312,-17.26
29.328,-9.75
29.343,-2.32
29.359,4.85
29.375,11.52
29.390,17.33
29.406,21.79
29.421,24.53
29.437,25.45
29.453,24.85
29.468,23.3
29.484,21.29
29.500,19.19
29.515,17.02
29.531,14.67
29.546,12.04
29.562,9.19
29.578,6.37
29.593,3.85
29.609,1.81
29.625,0.25
29.640,-0.97
29.656,-2.05
29.671,-3.16
29.687,-4.39
29.703,-5.78
29.718,-7.27
29.734,-8.86
29.750,-10.42
29.765,-11.87
29.781,-13.05
29.796,-13.8
29.812,-13.94
29.828,-13.28
29.843,-11.7
29.859,-9.14
29.875,-5.78
29.890,-1.96
29.906,1.76
29.921,4.87
29.937,7.07
29.953,8.42
29.968,9.26
29.984,9.92
30.000,10.6
30.015,11.2
30.031,11.41
30.046,10.99
30.062,9.95
30.078,8.61
30.093,7.46
30.109,6.94
30.125,7.12
30.140,7.81
30.156,8.59
30.171,9.11
30.187,9.23
30.203,9.09
30.218,8.83
30.234,8.52
30.250,8.09
30.265,7.29
30.281,5.94
30.296,4.05
30.312,1.8
30.328,-0.47
30.343,-2.39
30.359,-3.8
30.375,-4.74
30.390,-5.42
30.406,-6.09
30.421,-6.84
30.437,-7.57
30.453,-8.02
30.468,-7.86
30.484,-6.93
30.500,-5.41
30.515,-3.82
30.531,-2.75
30.546,-2.69
30.562,-3.71
30.578,-5.48
30.593,-7.36
30.609,-8.72
30.625,-9.19
30.640,-8.81
30.656,-7.89
30.671,-6.73
30.687,-5.55
30.703,-4.2
30.718,-2.52
30.734,-0.41
30.750,1.96
30.765,4.24
30.781,5.99
30.796,6.98
30.812,7.21
30.828,6.92
30.843,6.49
30.859,6.18
30.875,6.12
30.890,6.13
30.906,5.99
30.921,5.55
30.937,4.8
30.953,3.98
30.968,3.37
30.984,3.14
31.000,3.24
31.015,3.41
31.031,3.29
31.046,2.61
31.062,1.41
31.078,0.01
31.093,-1.12
31.109,-1.62
31.125,-1.42
31.140,-0.77
31.156,-0.11
31.171,0.19
31.187,-0.11
31.203,-0.86
31.218,-1.84
31.234,-2.75
31.250,-3.5
31.265,-4.2
31.281,-5.06
31.296,-6.18
31.312,-7.45
31.328,-8.64
31.343,-9.5
31.359,-10.02
31.375,-10.42
31.390,-11.03
31.406,-12.03
31.421,-13.32
31.437,-14.45
31.453,-14.79
31.468,-13.86
31.484,-11.56
31.500,-8.2
31.515,-4.43
31.531,-0.88
31.546,2.02
31.562,4.13
31.578,5.55
31.593,6.54
31.609,7.3
31.625,7.9
31.640,8.18
31.656,7.95
31.671,7.06
31.687,5.59
31.703,3.81
31.718,2.06
31.734,0.58
31.750,-0.6
31.765,-1.6
31.781,-2.62
31.796,-3.67
31.812,-4.54
31.828,-4.87
31.843,-4.3
31.859,-2.68
31.875,-0.1
31.890,3.0
31.906,6.09
31.921,8.59
31.937,10.11
31.953,10.45
31.968,9.82
31.984,8.55
32.000,7.0
32.015,5.35
32.031,3.57
32.046,1.45
32.062,-1.12
32.078,-4.07
32.093,-7.2
32.109,-10.17
32.125,-12.73
32.140,-14.83
32.156,-16.56
32.171,-18.01
32.187,-19.19
32.203,-19.97
32.218,-20.19
32.234,-19.86
32.250,-19.19
32.265,-18.55
32.281,-18.3
32.296,-18.57
32.312,-19.16
32.328,-19.67
32.343,-19.57
32.359,-18.56
32.375,-16.62
32.390,-14.04
32.406,-11.27
32.421,-8.68
32.437,-6.3
32.453,-3.87
32.468,-1.13
32.484,2.22
32.500,6.08
32.515,10.03
32.531,13.55
32.546,16.11
32.562,17.58
32.578,18.17
32.593,18.41
32.609,18.69
32.625,19.3
32.640,20.21
32.656,21.22
32.671,22.23
32.687,23.28
32.703,24.56
32.718,26.19
32.734,28.11
32.750,29.89
32.765,30.92
32.781,30.58
32.796,28.51
32.812,24.85
32.828,20.1
32.843,14.96
32.859,10.0
32.875,5.52
32.890,1.42
32.906,-2.59
32.921,-6.8
32.937,-11.27
32.953,-15.71
32.968,-19.7
32.984,-22.79
33.000,-24.79
33.015,-25.76
33.031,-26.01
33.046,-25.81
33.062,-25.25
33.078,-24.28
33.093,-22.79
33.109,-20.78
33.125,-18.44
33.140,-16.02
33.156,-13.77
33.171,-11.65
33.187,-9.3
33.203,-6.16
33.218,-1.77
33.234,3.97
33.250,10.65
33.265,17.54
33.281,23.78
33.296,28.69
33.312,31.97
33.328,33.72
33.343,34.23
33.359,33.76
33.375,32.36
33.390,29.94
33.406,26.4
33.421,21.78
33.437,16.41
33.453,10.79
33.468,5.4
33.484,0.56
33.500,-3.63
33.515,-7.29
33.531,-10.54
33.546,-13.37
33.562,-15.62
33.578,-16.96
33.593,-17.19
33.609,-16.34
33.625,-14.72
33.640,-12.77
33.656,-10.92
33.671,-9.33
33.687,-7.97
33.703,-6.59
33.718,-4.94
33.734,-2.96
33.750,-0.86
33.765,0.97
33.781,2.21
33.796,2.58
33.812,2.17
33.828,1.12
33.843,-0.38
33.859,-2.15
33.875,-4.13
33.890,-6.35
33.906,-8.74
33.921,-11.13
33.937,-13.29
33.953,-14.95
33.968,-15.9
33.984,-16.13
34.000,-15.72
34.015,-14.81
34.031,-13.52
34.046,-11.81
34.062,-9.52
34.078,-6.57
34.093,-3.02
34.109,0.9
34.125,4.69
34.140,7.84
34.156,9.98
34.171,11.04
34.187,11.21
34.203,10.82
34.218,10.15
34.234,9.43
34.250,8.78
34.265,8.25
34.281,7.94
34.296,7.87
34.312,8.07
34.328,8.53
34.343,9.2
34.359,9.98
34.375,10.79
34.390,11.58
34.406,12.26
34.421,12.87
34.437,13.46
34.453,14.1
34.468,14.85
34.484,15.72
34.500,16.55
34.515,17.04
34.531,16.94
34.546,16.03
34.562,14.33
34.578,12.07
34.593,9.47
34.609,6.83
34.625,4.37
34.640,2.21
34.656,0.37
34.671,-1.17
34.687,-2.58
34.703,-4.01
34.718,-5.59
34.734,-7.37
34.750,-9.29
34.765,-11.25
34.781,-13.17
34.796,-15.02
34.812,-16.83
34.828,-18.57
34.843,-20.04
34.859,-20.93
34.875,-21.0
34.890,-20.12
34.906,-18.36
34.921,-15.96
34.937,-13.1
34.953,-9.87
34.968,-6.26
34.984,-2.22
35.000,2.13
35.015,6.41
35.031,10.18
35.046,13.07
35.062,14.98
35.078,16.2
35.093,17.12
35.109,18.05
35.125,19.08
35.140,20.02
35.156,20.5
35.171,20.27
35.187,19.37
35.203,18.03
35.218,16.71
35.234,15.73
35.250,15.2
35.265,14.98
35.281,14.78
35.296,14.42
35.312,13.8
35.328,13.07
35.343,12.41
35.359,12.03
35.375,11.92
35.390,11.89
35.406,11.69
35.421,11.07
35.437,10.01
35.453,8.6
35.468,7.08
35.484,5.59
35.500,4.23
35.515,2.85
35.531,1.27
35.546,-0.57
35.562,-2.61
35.578,-4.61
35.593,-6.3
35.609,-7.51
35.625,-8.33
35.640,-9.04
35.656,-10.03
35.671,-11.53
35.687,-13.42
35.703,-15.43
35.718,-17.14
35.734,-18.21
35.750,-18.66
35.765,-18.64
35.781,-18.33
35.796,-17.78
35.812,-16.83
35.828,-15.16
35.843,-12.67
35.859,-9.45
35.875,-5.87
35.890,-2.49
35.906,0.25
35.921,2.18
35.937,3.46
35.953,4.38
35.968,5.3
35.984,6.34
36.000,7.47
36.015,8.5
36.031,9.19
36.046,9.45
36.062,9.35
36.078,9.12
36.093,8.96
36.109,9.06
36.125,9.42
36.140,9.95
36.156,10.45
36.171,10.71
36.187,10.64
36.203,10.29
36.218,9.81
36.234,9.39
36.250,9.1
36.265,8.85
36.281,8.46
36.296,7.73
36.312,6.61
36.328,5.3
36.343,4.13
36.359,3.39
36.375,3.12
36.390,3.11
36.406,2.95
36.421,2.26
36.437,0.97
36.453,-0.76
36.468,-2.57
36.484,-4.13
36.500,-5.29
36.515,-6.16
36.531,-6.94
36.546,-7.84
36.562,-9.03
36.578,-10.49
36.593,-12.17
36.609,-13.98
36.625,-15.8
36.640,-17.47
36.656,-18.74
36.671,-19.27
36.687,-18.81
36.703,-17.23
36.718,-14.57
36.734,-11.08
36.750,-7.14
36.765,-3.19
36.781,0.39
36.796,3.36
36.812,5.69
36.828,7.46
36.843,8.82
36.859,9.92
36.875,10.83
36.890,11.5
36.906,11.85
36.921,11.81
36.937,11.42
36.953,10.92
36.968,10.58
36.984,10.58
37.000,10.95
37.015,11.41
37.031,11.62
37.046,11.29
37.062,10.4
37.078,9.12
37.093,7.86
37.109,6.97
37.125,6.6
37.140,6.7
37.156,6.94
37.171,6.96
37.187,6.48
37.203,5.41
37.218,3.83
37.234,1.94
37.250,-0.08
37.265,-2.23
37.281,-4.53
37.296,-7.06
37.312,-9.68
37.328,-12.12
37.343,-14.04
37.359,-15.27
37.375,-15.9
37.390,-16.32
37.406,-17.0
37.421,-18.18
37.437,-19.85
37.453,-21.66
37.468,-23.1
37.484,-23.81
37.500,-23.7
37.515,-22.93
37.531,-21.83
37.546,-20.6
37.562,-19.25
37.578,-17.64
37.593,-15.55
37.609,-12.86
37.625,-9.65
37.640,-6.23
37.656,-2.96
37.671,-0.11
37.687,2.26
37.703,4.33
37.718,6.22
37.734,8.01
37.750,9.58
37.765,10.6
37.781,10.83
37.796,10.25
37.812,9.07
37.828,7.79
37.843,6.91
37.859,6.71
37.875,7.2
37.890,8.09
37.906,8.94
37.921,9.43
37.937,9.52
37.953,9.36
37.968,9.31
37.984,9.76
38.000,10.78
38.015,12.24
38.031,13.81
38.046,15.08
38.062,15.84
38.078,16.08
38.093,15.94
38.109,15.6
38.125,15.16
38.140,14.56
38.156,13.65
38.171,12.31
38.187,10.56
38.203,8.62
38.218,6.73
38.234,5.05
38.250,3.55
38.265,1.98
38.281,-0.05
38.296,-2.77
38.312,-6.1
38.328,-9.69
38.343,-12.97
38.359,-15.53
38.375,-17.31
38.390,-18.55
38.406,-19.55
38.421,-20.45
38.437,-20.99
38.453,-20.74
38.468,-19.31
38.484,-16.7
38.500,-13.36
38.515,-10.04
38.531,-7.37
38.546,-5.68
38.562,-4.86
38.578,-4.56
38.593,-4.37
38.609,-4.01
38.625,-3.37
38.640,-2.51
38.656,-1.58
38.671,-0.75
38.687,-0.15
38.703,0.21
38.718,0.45
38.734,0.79
38.750,1.51
38.765,2.79
38.781,4.62
38.796,6.8
38.812,9.11
38.828,11.34
38.843,13.42
38.859,15.35
38.875,17.08
38.890,18.54
38.906,19.56
38.921,19.95
38.937,19.61
38.953,18.62
38.968,17.21
38.984,15.7
39.000,14.38
39.015,13.29
39.031,12.3
39.046,11.18
39.062,9.74
39.078,7.94
39.093,5.99
39.109,4.13
39.125,2.53
39.140,1.18
39.156,-0.17
39.171,-1.79
39.187,-3.81
39.203,-6.09
39.218,-8.39
39.234,-10.42
39.250,-12.14
39.265,-13.75
39.281,-15.54
39.296,-17.66
39.312,-19.96
39.328,-21.98
39.343,-23.17
39.359,-23.1
39.375,-21.69
39.390,-19.24
39.406,-16.27
39.421,-13.32
39.437,-10.77
39.453,-8.7
39.468,-7.02
39.484,-5.66
39.500,-4.6
39.515,-3.94
39.531,-3.89
39.546,-4.6
39.562,-5.98
39.578,-7.77
39.593,-9.54
39.609,-10.89
39.625,-11.59
39.640,-11.64
39.656,-11.15
39.671,-10.19
39.687,-8.78
39.703,-6.79
39.718,-4.14
39.734,-0.87
39.750,2.88
39.765,6.9
39.781,10.92
39.796,14.71
39.812,18.1
39.828,20.93
39.843,23.11
39.859,24.56
39.875,25.14
39.890,24.73
39.906,23.29
39.921,20.82
39.937,17.43
39.953,13.44
39.968,9.29
39.984,5.39
40.000,2.06
40.015,-0.69
40.031,-3.04
40.046,-5.18
40.062,-7.23
40.078,-9.12
40.093,-10.65
40.109,-11.72
40.125,-12.41
40.140,-13.06
40.156,-14.09
40.171,-15.76
40.187,-17.97
40.203,-20.24
40.218,-21.92
40.234,-22.41
40.250,-21.48
40.265,-19.24
40.281,-16.09
40.296,-12.46
40.312,-8.69
40.328,-4.97
40.343,-1.46
40.359,1.75
40.375,4.53
40.390,6.67
40.406,8.08
40.421,8.73
40.437,8.77
40.453,8.51
40.468,8.31
40.484,8.42
40.500,8.96
40.515,9.79
40.531,10.56
40.546,10.89
40.562,10.5
40.578,9.42
40.593,7.98
40.609,6.62
40.625,5.72
40.640,5.37
40.656,5.45
40.671,5.62
40.687,5.67
40.703,5.51
40.718,5.23
40.734,5.04
40.750,5.07
40.765,5.36
40.781,5.71
40.796,5.8
40.812,5.32
40.828,4.19
40.843,2.52
40.859,0.62
40.875,-1.16
40.890,-2.66
40.906,-3.92
40.921,-5.17
40.937,-6.55
40.953,-8.1
40.968,-9.64
40.984,-10.99
41.000,-12.04
41.015,-12.94
41.031,-13.96
41.046,-15.37
41.062,-17.18
41.078,-19.1
41.093,-20.58
41.109,-21.09
41.125,-20.36
41.140,-18.44
41.156,-15.71
41.171,-12.67
41.187,-9.71
41.203,-6.98
41.218,-4.49
41.234,-2.12
41.250,0.19
41.265,2.34
41.281,4.18
41.296,5.57
41.312,6.46
41.328,7.0
41.343,7.48
41.359,8.04
41.375,8.74
41.390,9.42
41.406,9.79
41.421,9.6
41.437,8.77
41.453,7.49
41.468,6.15
41.484,5.13
41.500,4.62
41.515,4.55
41.531,4.66
41.546,4.65
41.562,4.42
41.578,4.05
41.593,3.76
41.609,3.79
41.625,4.15
41.640,4.61
41.656,4.8
41.671,4.4
41.687,3.26
41.703,1.59
41.718,-0.22
41.734,-1.73
41.750,-2.67
41.765,-3.06
41.781,-3.23
41.796,-3.56
41.812,-4.35
41.828,-5.66
41.843,-7.21
41.859,-8.67
41.875,-9.72
41.890,-10.31
41.906,-10.64
41.921,-10.95
41.937,-11.47
41.953,-12.2
41.968,-13.07
41.984,-13.87
42.000,-14.47
42.015,-14.8
42.031,-14.86
42.046,-14.6
42.062,-13.82
42.078,-12.3
42.093,-9.75
42.109,-6.13
42.125,-1.69
42.140,3.07
42.156,7.49
42.171,11.02
42.187,13.41
42.203,14.75
42.218,15.4
42.234,15.87
42.250,16.47
42.265,17.22
42.281,17.93
42.296,18.31
42.312,18.19
42.328,17.68
42.343,17.01
42.359,16.4
42.375,16.02
42.390,15.76
42.406,15.37
42.421,14.62
42.437,13.46
42.453,12.16
42.468,11.09
42.484,10.52
42.500,10.51
42.515,10.8
42.531,10.98
42.546,10.74
42.562,10.01
42.578,8.94
42.593,7.88
42.609,7.06
42.625,6.53
42.640,6.09
42.656,5.42
42.671,4.23
42.687,2.45
42.703,0.21
42.718,-2.25
42.734,-4.7
42.750,-7.01
42.765,-9.23
42.781,-11.52
42.796,-14.03
42.812,-16.79
42.828,-19.61
42.843,-22.13
42.859,-24.04
42.875,-25.19
42.890,-25.64
42.906,-25.6
42.921,-25.33
42.937,-24.86
42.953,-24.05
42.968,-22.57
42.984,-20.19
43.000,-16.91
43.015,-12.98
43.031,-8.84
43.046,-4.93
43.062,-1.5
43.078,1.42
43.093,3.85
43.109,5.9
43.125,7.55
43.140,8.71
43.156,9.38
43.171,9.55
43.187,9.35
43.203,8.95
43.218,8.57
43.234,8.3
43.250,8.17
43.265,8.09
43.281,7.85
43.296,7.33
43.312,6.46
43.328,5.37
43.343,4.43
43.359,4.13
43.375,4.83
43.390,6.74
43.406,9.71
43.421,13.22
43.437,16.71
43.453,19.71
43.468,21.93
43.484,23.37
43.500,24.04
43.515,23.88
43.531,22.83
43.546,20.87
43.562,18.1
43.578,14.89
43.593,11.7
43.609,8.84
43.625,6.47
43.640,4.39
43.656,2.27
43.671,-0.01
43.687,-2.34
43.703,-4.36
43.718,-5.75
43.734,-6.49
43.750,-7.0
43.765,-7.84
43.781,-9.62
43.796,-12.62
43.812,-16.58
43.828,-20.82
43.843,-24.44
43.859,-26.66
43.875,-27.12
43.890,-25.93
43.906,-23.48
43.921,-20.29
43.937,-16.82
43.953,-13.18
43.968,-9.4
43.984,-5.4
44.000,-1.26
44.015,2.69
44.031,6.03
44.046,8.49
44.062,10.12
44.078,11.22
44.093,12.21
44.109,13.24
44.125,14.19
44.140,14.73
44.156,14.49
44.171,13.26
44.187,11.24
44.203,8.9
44.218,6.68
44.234,4.95
44.250,3.68
44.265,2.71
44.281,1.81
44.296,0.86
44.312,-0.1
44.328,-0.93
44.343,-1.42
44.359,-1.57
44.375,-1.4
44.390,-1.17
44.406,-1.07
44.421,-1.19
44.437,-1.53
44.453,-1.9
44.468,-2.12
44.484,-2.1
44.500,-1.93
44.515,-1.81
44.531,-1.99
44.546,-2.57
44.562,-3.48
44.578,-4.52
44.593,-5.47
44.609,-6.22
44.625,-6.93
44.640,-7.92
44.656,-9.5
44.671,-11.87
44.687,-14.92
44.703,-18.33
44.718,-21.69
44.734,-24.61
44.750,-26.83
44.765,-28.26
44.781,-28.86
44.796,-28.59
44.812,-27.29
44.828,-24.86
44.843,-21.28
44.859,-16.82
44.875,-11.85
44.890,-6.92
44.906,-2.48
44.921,1.18
44.937,4.01
44.953,6.16
44.968,7.84
44.984,9.26
45.000,10.49
45.015,11.47
45.031,12.06
45.046,12.13
45.062,11.68
45.078,10.87
45.093,10.0
45.109,9.33
45.125,9.03
45.140,9.06
45.156,9.26
45.171,9.44
45.187,9.5
45.203,9.46
45.218,9.39
45.234,9.34
45.250,9.32
45.265,9.25
45.281,8.96
45.296,8.2
45.312,6.89
45.328,5.13
45.343,3.22
45.359,1.53
45.375,0.34
45.390,-0.34
45.406,-0.81
45.421,-1.51
45.437,-2.82
45.453,-4.82
45.468,-7.28
45.484,-9.93
45.500,-12.56
45.515,-15.31
45.531,-18.41
45.546,-22.07
45.562,-26.12
45.578,-30.0
45.593,-32.92
45.609,-34.26
45.625,-33.71
45.640,-31.47
45.656,-28.16
45.671,-24.44
45.687,-20.83
45.703,-17.41
45.718,-14.02
45.734,-10.36
45.750,-6.29
45.765,-1.86
45.781,2.66
45.796,6.88
45.812,10.56
45.828,13.53
45.843,15.8
45.859,17.4
45.875,18.37
45.890,18.74
45.906,18.65
45.921,18.33
45.937,18.1
45.953,18.2
45.968,18.74
45.984,19.61
46.000,20.54
46.015,21.23
46.031,21.51
46.046,21.4
46.062,21.11
46.078,20.94
46.093,21.12
46.109,21.69
46.125,22.47
46.140,23.15
46.156,23.33
46.171,22.75
46.187,21.4
46.203,19.48
46.218,17.28
46.234,15.06
46.250,12.92
46.265,10.75
46.281,8.36
46.296,5.65
46.312,2.68
46.328,-0.34
46.343,-3.14
46.359,-5.56
46.375,-7.64
46.390,-9.56
46.406,-11.51
46.421,-13.56
46.437,-15.57
46.453,-17.19
46.468,-18.13
46.484,-18.32
46.500,-17.95
46.515,-17.41
46.531,-17.12
46.546,-17.31
46.562,-17.96
46.578,-18.9
46.593,-19.89
46.609,-20.73
46.625,-21.34
46.640,-21.71
46.656,-21.83
46.671,-21.62
46.687,-20.93
46.703,-19.55
46.718,-17.35
46.734,-14.27
46.750,-10.46
46.765,-6.27
46.781,-2.21
46.796,1.2
46.812,3.72
46.828,5.41
46.843,6.54
46.859,7.47
46.875,8.45
46.890,9.44
46.906,10.29
46.921,10.78
46.937,10.86
46.953,10.68
46.968,10.56
46.984,10.74
47.000,11.27
47.015,12.0
47.031,12.64
47.046,12.98
47.062,13.01
47.078,12.8
47.093,12.54
47.109,12.29
47.125,12.04
47.140,11.62
47.156,10.92
47.171,9.92
47.187,8.8
47.203,7.8
47.218,7.05
47.234,6.58
47.250,6.2
47.265,5.67
47.281,4.79
47.296,3.41
47.312,1.6
47.328,-0.47
47.343,-2.57
47.359,-4.51
47.375,-6.18
47.390,-7.62
47.406,-8.88
47.421,-10.0
47.437,-11.03
47.453,-11.87
47.468,-12.48
47.484,-12.85
47.500,-13.11
47.515,-13.58
47.531,-14.6
47.546,-16.34
47.562,-18.66
47.578,-21.16
47.593,-23.18
47.609,-24.16
47.625,-23.83
47.640,-22.26
47.656,-19.77
47.671,-16.79
47.687,-13.56
47.703,-10.08
47.718,-6.36
47.734,-2.43
47.750,1.41
47.765,4.67
47.781,6.94
47.796,8.06
47.812,8.28
47.828,8.13
47.843,8.2
47.859,8.83
47.875,9.95
47.890,11.14
47.906,11.84
47.921,11.83
47.937,11.25
47.953,10.61
47.968,10.51
47.984,11.31
48.000,12.85
48.015,14.62
48.031,15.99
48.046,16.53
48.062,16.31
48.078,15.6
48.093,14.82
48.109,14.15
48.125,13.56
48.140,12.79
48.156,11.66
48.171,10.19
48.187,8.56
48.203,7.14
48.218,6.11
48.234,5.56
48.250,5.34
48.265,5.2
48.281,4.87
48.296,4.24
48.312,3.3
48.328,2.09
48.343,0.68
48.359,-0.91
48.375,-2.8
48.390,-5.06
48.406,-7.79
48.421,-10.85
48.437,-13.94
48.453,-16.6
48.468,-18.54
48.484,-19.64
48.500,-20.09
48.515,-20.38
48.531,-20.99
48.546,-22.25
48.562,-24.07
48.578,-26.07
48.593,-27.62
48.609,-28.22
48.625,-27.57
48.640,-25.68
48.656,-22.81
48.671,-19.29
48.687,-15.4
48.703,-11.29
48.718,-7.09
48.734,-2.89
48.750,1.05
48.765,4.4
48.781,6.79
48.796,7.93
48.812,7.75
48.828,6.38
48.843,4.14
48.859,1.4
48.875,-1.51
48.890,-4.35
48.906,-6.98
48.921,-9.1
48.937,-10.31
48.953,-10.09
48.968,-7.98
48.984,-3.88
49.000,1.97
49.015,8.92
49.031,16.21
49.046,23.15
49.062,29.45
49.078,35.09
49.093,40.2
49.109,44.86
49.125,48.84
49.140,51.79
49.156,53.25
49.171,53.01
49.187,51.08
49.203,47.74
49.218,43.33
49.234,38.15
49.250,32.33
49.265,25.98
49.281,19.29
49.296,12.63
49.312,6.56
49.328,1.53
49.343,-2.23
49.359,-4.93
49.375,-7.09
49.390,-9.29
49.406,-11.84
49.421,-14.65
49.437,-17.31
49.453,-19.35
49.468,-20.57
49.484,-21.23
49.500,-21.81
49.515,-22.89
49.531,-24.65
49.546,-26.92
49.562,-29.19
49.578,-30.98
49.593,-31.91
49.609,-31.95
49.625,-31.19
49.640,-29.64
49.656,-27.28
49.671,-23.94
49.687,-19.66
49.703,-14.69
49.718,-9.56
49.734,-4.85
49.750,-1.05
49.765,1.66
49.781,3.48
49.796,4.74
49.812,5.91
49.828,7.24
49.843,8.75
49.859,10.22
49.875,11.38
49.890,11.97
49.906,11.91
49.921,11.42
49.937,10.82
49.953,10.52
49.968,10.73
49.984,11.31
50.000,11.94
50.015,12.17
50.031,11.72
50.046,10.55
50.062,9.0
50.078,7.49
50.093,6.41
50.109,5.84
50.125,5.57
50.140,5.34
50.156,5.0
50.171,4.55
50.187,4.17
50.203,3.95
50.218,3.81
50.234,3.5
50.250,2.71
50.265,1.23
50.281,-0.83
50.296,-3.18
50.312,-5.48
50.328,-7.53
50.343,-9.4
50.359,-11.39
50.375,-13.85
50.390,-16.83
50.406,-20.2
50.421,-23.47
50.437,-26.1
50.453,-27.68
50.468,-28.07
50.484,-27.55
50.500,-26.59
50.515,-25.66
50.531,-24.96
50.546,-24.42
50.562,-23.75
50.578,-22.57
50.593,-20.57
50.609,-17.66
50.625,-13.94
50.640,-9.66
50.656,-5.06
50.671,-0.28
50.687,4.5
50.703,9.11
50.718,13.27
50.734,16.6
50.750,18.74
50.765,19.52
50.781,19.1
50.796,17.97
50.812,16.79
50.828,16.1
50.843,16.09
50.859,16.62
50.875,17.32
50.890,17.86
50.906,18.19
50.921,18.46
50.937,18.93
50.953,19.74
50.968,20.81
50.984,21.83
51.000,22.51
51.015,22.64
51.031,22.31
51.046,21.81
51.062,21.37
51.078,21.1
51.093,20.87
51.109,20.42
51.125,19.47
51.140,17.95
51.156,15.95
51.171,13.76
51.187,11.72
51.203,10.04
51.218,8.66
51.234,7.43
51.250,6.12
51.265,4.59
51.281,2.86
51.296,0.97
51.312,-1.0
51.328,-3.06
51.343,-5.28
51.359,-7.74
51.375,-10.41
51.390,-13.17
51.406,-15.8
51.421,-18.17
51.437,-20.18
51.453,-21.95
51.468,-23.63
51.484,-25.41
51.500,-27.36
51.515,-29.27
51.531,-30.76
51.546,-31.3
51.562,-30.48
51.578,-28.2
51.593,-24.79
51.609,-20.79
51.625,-16.85
51.640,-13.45
51.656,-10.71
51.671,-8.47
51.687,-6.49
51.703,-4.51
51.718,-2.61
51.734,-1.03
51.750,-0.14
51.765,-0.22
51.781,-1.32
51.796,-3.21
51.812,-5.49
51.828,-7.73
51.843,-9.57
51.859,-10.86
51.875,-11.49
51.890,-11.35
51.906,-10.14
51.921,-7.59
51.937,-3.52
51.953,1.99
51.968,8.54
51.984,15.5
52.000,22.24
52.015,28.36
52.031,33.73
52.046,38.51
52.062,42.84
52.078,46.7
52.093,49.81
52.109,51.67
52.125,51.82
52.140,50.07
52.156,46.52
52.171,41.54
52.187,35.66
52.203,29.23
52.218,22.5
52.234,15.59
52.250,8.65
52.265,1.95
52.281,-4.17
52.296,-9.4
52.312,-13.59
52.328,-16.83
52.343,-19.42
52.359,-21.73
52.375,-24.03
52.390,-26.48
52.406,-29.06
52.421,-31.67
52.437,-34.2
52.453,-36.46
52.468,-38.32
52.484,-39.58
52.500,-40.01
52.515,-39.37
52.531,-37.47
52.546,-34.28
52.562,-29.99
52.578,-25.0
52.593,-19.86
52.609,-15.12
52.625,-11.18
52.640,-8.1
52.656,-5.68
52.671,-3.53
52.687,-1.3
52.703,1.17
52.718,3.79
52.734,6.25
52.750,8.24
52.765,9.66
52.781,10.61
52.796,11.36
52.812,12.2
52.828,13.29
52.843,14.64
52.859,16.13
52.875,17.58
52.890,18.89
52.906,19.97
52.921,20.75
52.937,21.09
52.953,20.89
52.968,20.04
52.984,18.56
53.000,16.58
53.015,14.34
53.031,12.19
53.046,10.41
53.062,9.15
53.078,8.35
53.093,7.8
53.109,7.17
53.125,6.29
53.140,5.17
53.156,3.91
53.171,2.71
53.187,1.65
53.203,0.66
53.218,-0.5
53.234,-2.11
53.250,-4.37
53.265,-7.22
53.281,-10.51
53.296,-14.05
53.312,-17.63
53.328,-21.16
53.343,-24.61
53.359,-27.94
53.375,-31.12
53.390,-34.05
53.406,-36.59
53.421,-38.63
53.437,-40.14
53.453,-41.14
53.468,-41.7
53.484,-41.85
53.500,-41.43
53.515,-40.14
53.531,-37.56
53.546,-33.38
53.562,-27.57
53.578,-20.48
53.593,-12.7
53.609,-4.87
53.625,2.53
53.640,9.24
53.656,15.31
53.671,20.81
53.687,25.73
53.703,29.99
53.718,33.49
53.734,36.24
53.750,38.39
53.765,40.3
53.781,42.33
53.796,44.69
53.812,47.42
53.828,50.34
53.843,53.23
53.859,55.95
53.875,58.59
53.890,61.46
53.906,65.0
53.921,69.63
53.937,75.52
53.953,82.5
53.968,90.13
53.984,97.8
54.000,104.82
54.015,110.61
54.031,114.71
54.046,116.76
54.062,116.53
54.078,113.87
54.093,108.59
54.109,100.63
54.125,89.9
54.140,76.34
54.156,60.04
54.171,41.27
54.187,20.55
54.203,-1.34
54.218,-23.51
54.234,-45.2
54.250,-65.81
54.265,-84.99
54.281,-102.42
54.296,-117.78
54.312,-130.57
54.328,-140.27
54.343,-146.5
54.359,-149.22
54.375,-148.73
54.390,-145.47
54.406,-139.86
54.421,-131.94
54.437,-121.62
54.453,-108.82
54.468,-93.81
54.484,-77.34
54.500,-60.44
54.515,-44.2
54.531,-29.49
54.546,-16.9
54.562,-6.65
54.578,1.16
54.593,6.51
54.609,9.49
54.625,10.24
54.640,9.06
54.656,6.35
54.671,2.56
54.687,-2.12
54.703,-7.77
54.718,-14.8
54.734,-23.82
54.750,-35.37
54.765,-49.63
54.781,-65.97
54.796,-82.9
54.812,-98.01
54.828,-108.64
54.843,-112.22
54.859,-106.91
54.875,-91.73
54.890,-66.69
54.906,-32.77
54.921,8.14
54.937,53.21
54.953,98.71
54.968,140.36
54.984,173.92
55.000,195.94
55.015,204.51
55.031,199.62
55.046,182.94
55.062,157.42
55.078,126.52
55.093,93.5
55.109,61.07
55.125,31.21
55.140,5.15
55.156,-16.6
55.171,-33.95
55.187,-47.31
55.203,-57.39
55.218,-65.03
55.234,-71.03
55.250,-76.0
55.265,-80.17
55.281,-83.53
55.296,-85.9
55.312,-86.95
55.328,-86.53
55.343,-84.54
55.359,-81.13
55.375,-76.54
55.390,-71.04
55.406,-64.84
55.421,-58.15
55.437,-51.11
55.453,-43.8
55.468,-36.28
55.484,-28.64
55.500,-20.95
55.515,-13.39
55.531,-6.18
55.546,0.37
55.562,5.88
55.578,10.05
55.593,12.73
55.609,13.99
55.625,14.12
55.640,13.53
55.656,12.59
55.671,11.61
55.687,10.65
55.703,9.63
55.718,8.36
55.734,6.85
55.750,5.19
55.765,3.66
55.781,2.56
55.796,2.04
55.812,2.06
55.828,2.48
55.843,3.15
55.859,4.02
55.875,5.24
55.890,6.98
55.906,9.28
55.921,12.0
55.937,14.75
55.953,17.09
55.968,18.77
55.984,19.73
56.000,20.23
56.015,20.64
56.031,21.26
56.046,22.18
56.062,23.25
56.078,24.12
56.093,24.4
56.109,23.85
56.125,22.39
56.140,20.15
56.156,17.34
56.171,14.22
56.187,10.99
56.203,7.87
56.218,5.08
56.234,2.91
56.250,1.64
56.265,1.5
56.281,2.58
56.296,4.77
56.312,7.65
56.328,10.66
56.343,13.27
56.359,15.12
56.375,16.17
56.390,16.63
56.406,16.81
56.421,16.98
56.437,17.28
56.453,17.66
56.468,17.98
56.484,18.16
56.500,18.25
56.515,18.43
56.531,18.82
56.546,19.43
56.562,20.03
56.578,20.28
56.593,19.96
56.609,19.01
56.625,17.67
56.640,16.34
56.656,15.38
56.671,14.89
56.687,14.67
56.703,14.26
56.718,13.19
56.734,11.31
56.750,8.79
56.765,6.12
56.781,3.76
56.796,2.02
56.812,0.85
56.828,-0.04
56.843,-0.95
56.859,-2.01
56.875,-3.06
56.890,-3.82
56.906,-4.08
56.921,-3.88
56.937,-3.54
56.953,-3.43
56.968,-3.83
56.984,-4.72
57.000,-5.91
57.015,-7.11
57.031,-8.19
57.046,-9.16
57.062,-10.15
57.078,-11.26
57.093,-12.47
57.109,-13.56
57.125,-14.21
57.140,-14.09
57.156,-12.95
57.171,-10.74
57.187,-7.61
57.203,-3.93
57.218,-0.17
57.234,3.22
57.250,6.06
57.265,8.39
57.281,10.49
57.296,12.58
57.312,14.73
57.328,16.75
57.343,18.23
57.359,18.89
57.375,18.55
57.390,17.43
57.406,15.84
57.421,14.14
57.437,12.5
57.453,10.96
57.468,9.43
57.484,7.94
57.500,6.68
57.515,5.9
57.531,5.9
57.546,6.69
57.562,7.98
57.578,9.26
57.593,10.03
57.609,9.98
57.625,9.21
57.640,8.1
57.656,6.99
57.671,6.06
57.687,5.18
57.703,4.01
57.718,2.31
57.734,-0.01
57.750,-2.66
57.765,-5.21
57.781,-7.32
57.796,-8.9
57.812,-10.14
57.828,-11.3
57.843,-12.59
57.859,-13.86
57.875,-14.8
57.890,-15.1
57.906,-14.63
57.921,-13.65
57.937,-12.71
57.953,-12.24
57.968,-12.49
57.984,-13.24
58.000,-13.94
58.015,-14.05
58.031,-13.28
58.046,-11.66
58.062,-9.58
58.078,-7.56
58.093,-5.89
58.109,-4.73
58.125,-3.92
58.140,-3.16
58.156,-2.19
58.171,-0.97
58.187,0.38
58.203,1.57
58.218,2.4
58.234,2.8
58.250,2.84
58.265,2.79
58.281,2.84
58.296,3.03
58.312,3.17
58.328,2.97
58.343,2.23
58.359,1.0
58.375,-0.33
58.390,-1.32
58.406,-1.63
58.421,-1.25
58.437,-0.48
58.453,0.29
58.468,0.81
58.484,1.07
58.500,1.32
58.515,1.82
58.531,2.69
58.546,3.84
58.562,5.0
58.578,5.95
58.593,6.64
58.609,7.16
58.625,7.67
58.640,8.17
58.656,8.45
58.671,8.15
58.687,6.89
58.703,4.53
58.718,1.21
58.734,-2.64
58.750,-6.5
58.765,-9.86
58.781,-12.42
58.796,-14.07
58.812,-14.88
58.828,-14.97
58.843,-14.5
58.859,-13.57
58.875,-12.23
58.890,-10.53
58.906,-8.42
58.921,-5.86
58.937,-2.86
58.953,0.53
58.968,4.21
58.984,8.03
59.000,11.84
59.015,15.36
59.031,18.29
59.046,20.3
59.062,21.18
59.078,20.9
59.093,19.69
59.109,17.99
59.125,16.21
59.140,14.68
59.156,13.52
59.171,12.7
59.187,12.14
59.203,11.79
59.218,11.68
59.234,11.83
59.250,12.22
59.265,12.77
59.281,13.34
59.296,13.82
59.312,14.08
59.328,14.01
59.343,13.56
59.359,12.78
59.375,11.77
59.390,10.65
59.406,9.41
59.421,7.94
59.437,6.04
59.453,3.68
59.468,1.02
59.484,-1.56
59.500,-3.62
59.515,-4.96
59.531,-5.68
59.546,-6.25
59.562,-7.15
59.578,-8.78
59.593,-11.2
59.609,-14.27
59.625,-17.73
59.640,-21.35
59.656,-24.98
59.671,-28.47
59.687,-31.66
59.703,-34.29
59.718,-36.1
59.734,-36.91
59.750,-36.76
59.765,-35.8
59.781,-34.29
59.796,-32.44
59.812,-30.27
59.828,-27.66
59.843,-24.4
59.859,-20.4
59.875,-15.71
59.890,-10.61
59.906,-5.6
59.921,-1.12
59.937,2.46
59.953,5.01
59.968,6.63
59.984,7.6
