timestamp,value
00.000,352.64
00.015,313.87
00.031,283.21
00.046,254.73
00.062,221.41
00.078,178.04
00.093,122.79
00.109,57.67
00.125,-12.69
00.140,-82.92
00.156,-148.4
00.171,-206.01
00.187,-253.84
00.203,-290.77
00.218,-315.76
00.234,-327.76
00.250,-326.23
00.265,-311.61
00.281,-285.74
00.296,-251.59
00.312,-212.65
00.328,-172.12
00.343,-132.45
00.359,-95.08
00.375,-60.57
00.390,-29.13
00.406,-1.08
00.421,23.07
00.437,42.82
00.453,57.81
00.468,68.05
00.484,73.99
00.500,76.42
00.515,76.3
00.531,74.33
00.546,70.87
00.562,65.93
00.578,59.51
00.593,51.63
00.609,42.7
00.625,33.46
00.640,24.84
00.656,17.81
00.671,13.04
00.687,10.89
00.703,11.42
00.718,14.38
00.734,19.29
00.750,25.55
00.765,32.65
00.781,39.9
00.796,46.55
00.812,51.86
00.828,55.09
00.843,55.69
00.859,53.3
00.875,47.89
00.890,39.84
00.906,29.91
00.921,18.82
00.937,7.14
00.953,-4.94
00.968,-17.54
00.984,-31.0
01.000,-45.67
01.015,-61.55
01.031,-78.02
01.046,-93.81
01.062,-107.19
01.078,-116.24
01.093,-119.73
01.109,-116.99
01.125,-108.21
01.140,-93.93
01.156,-75.18
01.171,-53.3
01.187,-29.84
01.203,-6.66
01.218,13.89
01.234,28.7
01.250,34.34
01.265,27.68
01.281,6.89
01.296,-28.31
01.312,-76.51
01.328,-135.08
01.343,-200.8
01.359,-270.71
01.375,-342.73
01.390,-415.36
01.406,-487.42
01.421,-557.86
01.437,-625.56
01.453,-689.37
01.468,-747.38
01.484,-796.2
01.500,-830.36
01.515,-843.27
01.531,-829.39
01.546,-787.32
01.562,-721.49
01.578,-641.59
01.593,-560.47
01.609,-489.92
01.625,-437.76
01.640,-406.19
01.656,-392.77
01.671,-392.95
01.687,-402.07
01.703,-416.31
01.718,-432.17
01.734,-446.34
01.750,-455.09
01.765,-455.27
01.781,-444.79
01.796,-423.2
01.812,-391.49
01.828,-351.46
01.843,-304.85
01.859,-252.36
01.875,-193.89
01.890,-128.74
01.906,-56.62
01.921,21.6
01.937,103.37
01.953,184.77
01.968,261.09
01.984,327.35
02.000,379.5
02.015,414.74
02.031,431.94
02.046,431.08
02.062,413.05
02.078,379.55
02.093,332.9
02.109,276.1
02.125,212.6
02.140,146.47
02.156,81.91
02.171,22.88
02.187,-27.43
02.203,-66.9
02.218,-94.49
02.234,-110.2
02.250,-114.59
02.265,-108.65
02.281,-93.39
02.296,-70.01
02.312,-39.91
02.328,-4.9
02.343,32.79
02.359,70.61
02.375,105.96
02.390,136.75
02.406,161.5
02.421,179.83
02.437,192.04
02.453,198.91
02.468,201.56
02.484,201.02
02.500,198.23
02.515,194.17
02.531,190.03
02.546,187.31
02.562,187.68
02.578,192.53
02.593,202.32
02.609,216.41
02.625,232.95
02.640,249.48
02.656,263.58
02.671,273.56
02.687,278.91
02.703,280.42
02.718,279.75
02.734,278.93
02.750,280.09
02.765,285.13
02.781,295.38
02.796,310.97
02.812,330.36
02.828,350.45
02.843,367.56
02.859,378.99
02.875,384.33
02.890,385.56
02.906,385.66
02.921,386.72
02.937,388.37
02.953,387.95
02.968,381.89
02.984,367.61
03.000,344.74
03.015,314.67
03.031,279.0
03.046,237.97
03.062,190.28
03.078,134.06
03.093,68.53
03.109,-4.89
03.125,-82.32
03.140,-157.79
03.156,-224.55
03.171,-276.83
03.187,-311.27
03.203,-327.74
03.218,-329.66
03.234,-322.97
03.250,-314.32
03.265,-308.81
03.281,-308.11
03.296,-310.15
03.312,-309.97
03.328,-301.55
03.343,-279.77
03.359,-242.13
03.375,-189.76
03.390,-127.82
03.406,-65.1
03.421,-11.8
03.437,23.58
03.453,37.33
03.468,32.19
03.484,16.15
03.500,-0.81
03.515,-10.31
03.531,-8.38
03.546,4.05
03.562,22.79
03.578,42.4
03.593,58.0
03.609,66.28
03.625,65.81
03.640,57.71
03.656,46.35
03.671,38.9
03.687,43.35
03.703,65.41
03.718,105.32
03.734,157.03
03.750,209.85
03.765,251.95
03.781,273.75
03.796,270.1
03.812,241.02
03.828,191.19
03.843,129.24
03.859,66.34
03.875,14.38
03.890,-16.7
03.906,-21.61
03.921,-1.64
03.937,36.1
03.953,81.26
03.968,123.76
03.984,156.64
04.000,176.51
04.015,182.55
04.031,174.84
04.046,154.37
04.062,124.38
04.078,91.71
04.093,66.34
04.109,57.92
04.125,71.21
04.140,102.34
04.156,139.56
04.171,167.79
04.187,176.44
04.203,165.01
04.218,143.64
04.234,127.86
04.250,130.13
04.265,153.07
04.281,187.79
04.296,218.44
04.312,229.61
04.328,213.51
04.343,172.29
04.359,115.78
04.375,56.13
04.390,2.36
04.406,-41.66
04.421,-77.0
04.437,-106.55
04.453,-132.24
04.468,-153.71
04.484,-169.19
04.500,-177.17
04.515,-178.18
04.531,-174.55
04.546,-168.12
04.562,-157.81
04.578,-138.72
04.593,-104.61
04.609,-52.08
04.625,14.97
04.640,84.76
04.656,142.12
04.671,175.54
04.687,183.31
04.703,174.29
04.718,162.75
04.734,159.76
04.750,167.09
04.765,176.93
04.781,177.06
04.796,159.03
04.812,122.55
04.828,75.14
04.843,26.68
04.859,-16.37
04.875,-54.19
04.890,-91.71
04.906,-133.4
04.921,-178.89
04.937,-221.54
04.953,-251.54
04.968,-261.11
04.984,-249.36
05.000,-222.83
05.015,-193.21
05.031,-172.4
05.046,-167.85
05.062,-180.8
05.078,-206.35
05.093,-236.21
05.109,-261.35
05.125,-274.4
05.140,-270.2
05.156,-246.31
05.171,-203.43
05.187,-145.54
05.203,-80.12
05.218,-17.12
05.234,32.75
05.250,60.62
05.265,61.68
05.281,36.39
05.296,-10.12
05.312,-69.91
05.328,-134.32
05.343,-196.19
05.359,-250.49
05.375,-294.78
05.390,-329.07
05.406,-355.53
05.421,-378.13
05.437,-401.66
05.453,-429.75
05.468,-462.12
05.484,-494.22
05.500,-518.09
05.515,-525.98
05.531,-513.7
05.546,-482.06
05.562,-436.14
05.578,-382.76
05.593,-328.43
05.609,-278.39
05.625,-237.62
05.640,-210.74
05.656,-200.47
05.671,-204.99
05.687,-216.32
05.703,-221.53
05.718,-207.38
05.734,-166.38
05.750,-100.79
05.765,-22.51
05.781,51.75
05.796,106.71
05.812,133.54
05.828,131.34
05.843,105.16
05.859,62.43
05.875,10.33
05.890,-45.3
05.906,-99.45
05.921,-147.2
05.937,-183.64
05.953,-205.1
05.968,-210.15
05.984,-200.3
06.000,-179.59
06.015,-153.46
06.031,-126.92
06.046,-103.32
06.062,-83.73
06.078,-67.37
06.093,-52.73
06.109,-38.57
06.125,-24.67
06.140,-11.63
06.156,-0.28
06.171,9.07
06.187,17.28
06.203,26.0
06.218,37.01
06.234,51.58
06.250,69.7
06.265,89.91
06.281,109.97
06.296,127.63
06.312,141.24
06.328,150.28
06.343,155.23
06.359,156.9
06.375,156.21
06.390,153.58
06.406,149.22
06.421,143.39
06.437,136.89
06.453,130.82
06.468,126.35
06.484,124.46
06.500,125.86
06.515,131.04
06.531,140.25
06.546,152.99
06.562,167.33
06.578,180.05
06.593,187.42
06.609,187.08
06.625,179.82
06.640,169.87
06.656,163.54
06.671,166.45
06.687,180.92
06.703,204.9
06.718,232.7
06.734,257.27
06.750,273.17
06.765,278.27
06.781,273.96
06.796,264.12
06.812,253.07
06.828,243.84
06.843,237.57
06.859,233.61
06.875,230.41
06.890,226.3
06.906,220.08
06.921,211.15
06.937,199.65
06.953,186.32
06.968,172.58
06.984,160.88
07.000,154.45
07.015,156.19
07.031,166.78
07.046,183.02
07.062,197.45
07.078,200.53
07.093,184.05
07.109,144.96
07.125,87.43
07.140,21.99
07.156,-38.26
07.171,-81.99
07.187,-103.16
07.203,-101.9
07.218,-82.66
07.234,-51.41
07.250,-13.27
07.265,27.79
07.281,67.83
07.296,101.77
07.312,124.15
07.328,130.95
07.343,121.79
07.359,100.91
07.375,75.73
07.390,53.93
07.406,40.16
07.421,35.08
07.437,36.13
07.453,39.82
07.468,43.16
07.484,43.92
07.500,39.93
07.515,28.4
07.531,6.03
07.546,-29.41
07.562,-76.77
07.578,-130.28
07.593,-180.28
07.609,-216.03
07.625,-229.24
07.640,-216.44
07.656,-179.69
07.671,-125.75
07.687,-63.44
07.703,-0.81
07.718,56.99
07.734,108.39
07.750,154.23
07.765,195.35
07.781,232.11
07.796,264.37
07.812,291.61
07.828,313.57
07.843,330.49
07.859,342.44
07.875,349.05
07.890,348.77
07.906,337.98
07.921,314.3
07.937,278.62
07.953,235.23
07.968,190.6
07.984,151.03
08.000,119.91
08.015,97.47
08.031,80.49
08.046,62.09
08.062,36.66
08.078,1.77
08.093,-42.72
08.109,-95.66
08.125,-155.47
08.140,-220.11
08.156,-284.69
08.171,-342.41
08.187,-387.89
08.203,-416.47
08.218,-426.29
08.234,-420.82
08.250,-407.06
08.265,-392.2
08.281,-387.35
08.296,-395.2
08.312,-397.81
08.328,-382.0
08.343,-344.93
08.359,-286.4
08.375,-210.19
08.390,-122.16
08.406,-28.85
08.421,63.1
08.437,147.97
08.453,219.71
08.468,270.95
08.484,298.04
08.500,303.09
08.515,291.88
08.531,271.63
08.546,247.64
08.562,221.79
08.578,193.75
08.593,162.18
08.609,125.54
08.625,85.07
08.640,44.16
08.656,5.35
08.671,-30.45
08.687,-63.25
08.703,-91.81
08.718,-111.81
08.734,-117.72
08.750,-106.36
08.765,-78.24
08.781,-38.07
08.796,6.25
08.812,47.04
08.828,79.61
08.843,103.25
08.859,120.89
08.875,136.38
08.890,151.75
08.906,167.1
08.921,180.33
08.937,187.79
08.953,185.87
08.968,172.51
08.984,148.35
09.000,116.76
09.015,82.44
09.031,49.04
09.046,18.54
09.062,-8.75
09.078,-32.95
09.093,-53.38
09.109,-68.02
09.125,-74.76
09.140,-73.02
09.156,-65.1
09.171,-55.82
09.187,-50.43
09.203,-52.88
09.218,-65.06
09.234,-87.56
09.250,-120.85
09.265,-165.51
09.281,-221.15
09.296,-284.66
09.312,-349.44
09.328,-405.79
09.343,-444.18
09.359,-457.93
09.375,-444.96
09.390,-407.81
09.406,-351.56
09.421,-282.14
09.437,-205.64
09.453,-128.67
09.468,-58.54
09.484,-2.86
09.500,32.66
09.515,46.68
09.531,42.54
09.546,27.44
09.562,9.92
09.578,-2.75
09.593,-6.51
09.609,-0.58
09.625,13.11
09.640,31.77
09.656,53.64
09.671,78.3
09.687,107.85
09.703,146.67
09.718,199.74
09.734,269.53
09.750,353.35
09.765,442.33
09.781,523.21
09.796,582.3
09.812,607.67
09.828,592.88
09.843,538.15
09.859,449.91
09.875,338.73
09.890,216.98
09.906,96.44
09.921,-13.64
09.937,-107.94
09.953,-187.7
09.968,-257.35
09.984,-320.86
10.000,-378.1
10.015,-424.47
10.031,-452.78
10.046,-457.04
10.062,-435.34
10.078,-390.71
10.093,-333.28
10.109,-274.42
10.125,-222.63
10.140,-180.9
10.156,-148.41
10.171,-123.23
10.187,-104.73
10.203,-94.02
10.218,-92.91
10.234,-106.9
10.250,-140.27
10.265,-193.87
10.281,-263.44
10.296,-342.09
10.312,-422.74
10.328,-500.39
10.343,-572.59
10.359,-614.52
10.375,-606.72
10.390,-543.15
10.406,-437.29
10.421,-312.34
10.437,-188.36
10.453,-74.98
10.468,25.8
10.484,114.72
10.500,192.91
10.515,257.08
10.531,304.32
10.546,334.08
10.562,352.44
10.578,364.62
10.593,373.12
10.609,377.05
10.625,374.14
10.640,363.16
10.656,342.07
10.671,310.48
10.687,262.73
10.703,201.16
10.718,128.46
10.734,48.41
10.750,-32.43
10.765,-104.28
10.781,-157.15
10.796,-189.76
10.812,-205.8
10.828,-212.04
10.843,-214.25
10.859,-215.97
10.875,-216.52
10.890,-212.76
10.906,-202.0
10.921,-184.49
10.937,-164.31
10.953,-145.89
10.968,-131.09
10.984,-117.76
11.000,-102.2
11.015,-80.29
11.031,-49.57
11.046,-10.94
11.062,31.55
11.078,72.22
11.093,106.28
11.109,131.35
11.125,148.76
11.140,161.92
11.156,175.56
11.171,194.4
11.187,221.58
11.203,258.19
11.218,302.93
11.234,352.0
11.250,399.0
11.265,436.35
11.281,456.8
11.296,456.61
11.312,436.93
11.328,403.38
11.343,363.71
11.359,324.5
11.375,288.86
11.390,256.3
11.406,224.63
11.421,192.27
11.437,159.92
11.453,129.85
11.468,103.84
11.484,81.43
11.500,59.98
11.515,35.98
11.531,7.55
11.546,-24.46
11.562,-56.61
11.578,-84.38
11.593,-104.11
11.609,-114.32
11.625,-115.92
11.640,-111.58
11.656,-105.13
11.671,-100.32
11.687,-100.08
11.703,-105.37
11.718,-114.71
11.734,-124.69
11.750,-131.2
11.765,-130.88
11.781,-122.39
11.796,-106.87
11.812,-87.02
11.828,-66.03
11.843,-46.41
11.859,-29.31
11.875,-14.95
11.890,-2.95
11.906,7.43
11.921,17.07
11.937,26.82
11.953,37.57
11.968,49.42
11.984,61.18
12.000,70.32
12.015,73.66
12.031,68.88
12.046,56.09
12.062,38.51
12.078,21.57
12.093,10.8
12.109,9.16
12.125,15.77
12.140,26.54
12.156,36.24
12.171,40.89
12.187,38.81
12.203,30.44
12.218,17.11
12.234,0.31
12.250,-18.68
12.265,-38.08
12.281,-55.47
12.296,-68.51
12.312,-75.94
12.328,-78.31
12.343,-77.81
12.359,-76.96
12.375,-77.18
12.390,-78.36
12.406,-79.18
12.421,-78.21
12.437,-74.97
12.453,-70.01
12.468,-64.6
12.484,-59.85
12.500,-56.44
12.515,-54.34
12.531,-53.01
12.546,-51.54
12.562,-48.89
12.578,-44.18
12.593,-36.89
12.609,-27.32
12.625,-16.54
12.640,-6.28
12.656,1.97
12.671,7.44
12.687,10.39
12.703,11.85
12.718,12.69
12.734,13.33
12.750,13.34
12.765,11.93
12.781,8.62
12.796,3.74
12.812,-1.59
12.828,-6.02
12.843,-8.66
12.859,-9.62
12.875,-9.59
12.890,-9.53
12.906,-9.87
12.921,-10.41
12.937,-10.73
12.953,-10.63
12.968,-10.58
12.984,-11.29
13.000,-13.3
13.015,-16.5
13.031,-20.58
13.046,-25.47
13.062,-31.63
13.078,-39.48
13.093,-48.4
13.109,-56.26
13.125,-60.13
13.140,-57.84
13.156,-49.52
13.171,-37.89
13.187,-26.81
13.203,-19.26
13.218,-15.83
13.234,-14.89
13.250,-13.96
13.265,-11.37
13.281,-6.95
13.296,-1.71
13.312,3.45
13.328,8.54
13.343,14.3
13.359,21.27
13.375,29.09
13.390,36.31
13.406,41.26
13.421,43.26
13.437,42.96
13.453,41.93
13.468,41.46
13.484,41.74
13.500,41.88
13.515,40.67
13.531,37.63
13.546,33.53
13.562,30.11
13.578,29.0
13.593,30.61
13.609,33.41
13.625,34.24
13.640,29.59
13.656,16.98
13.671,-3.93
13.687,-31.06
13.703,-60.61
13.718,-88.1
13.734,-109.45
13.750,-121.94
13.765,-124.82
13.781,-119.25
13.796,-108.05
13.812,-94.57
13.828,-81.83
13.843,-72.01
13.859,-66.36
13.875,-65.27
13.890,-68.64
13.906,-75.89
13.921,-85.79
13.937,-96.36
13.953,-104.68
13.968,-107.49
13.984,-102.39
14.000,-88.58
14.015,-67.15
14.031,-40.69
14.046,-12.09
14.062,15.79
14.078,40.49
14.093,59.49
14.109,70.45
14.125,71.9
14.140,64.65
14.156,52.4
14.171,40.51
14.187,34.42
14.203,36.78
14.218,46.11
14.234,57.1
14.250,63.07
14.265,58.92
14.281,43.24
14.296,18.34
14.312,-11.3
14.328,-40.43
14.343,-64.42
14.359,-79.65
14.375,-83.66
14.390,-75.31
14.406,-55.3
14.421,-26.5
14.437,5.84
14.453,34.86
14.468,54.81
14.484,63.12
14.500,61.55
14.515,56.05
14.531,55.14
14.546,66.74
14.562,95.27
14.578,138.91
14.593,188.12
14.609,230.02
14.625,253.1
14.640,250.92
14.656,224.34
14.671,180.76
14.687,130.38
14.703,82.66
14.718,41.55
14.734,2.27
14.750,-42.32
14.765,-96.61
14.781,-161.12
14.796,-232.29
14.812,-304.48
14.828,-372.29
14.843,-429.78
14.859,-472.01
14.875,-498.71
14.890,-507.68
14.906,-493.98
14.921,-454.41
14.937,-389.21
14.953,-302.4
14.968,-200.53
14.984,-88.0
15.000,31.66
15.015,149.93
15.031,260.54
15.046,361.07
15.062,449.52
15.078,524.19
15.093,584.18
15.109,612.25
15.125,596.28
15.140,564.63
15.156,532.62
15.171,495.03
15.187,449.84
15.203,395.22
15.218,330.61
15.234,257.81
15.250,181.48
15.265,111.09
15.281,56.13
15.296,17.54
15.312,-6.96
15.328,-20.78
15.343,-30.61
15.359,-43.81
15.375,-65.72
15.390,-97.71
15.406,-134.85
15.421,-169.66
15.437,-199.37
15.453,-222.53
15.468,-238.02
15.484,-247.25
15.500,-252.66
15.515,-256.13
15.531,-258.13
15.546,-256.99
15.562,-251.05
15.578,-242.54
15.593,-233.86
15.609,-225.61
15.625,-217.34
15.640,-207.31
15.656,-192.93
15.671,-172.17
15.687,-144.02
15.703,-109.55
15.718,-72.81
15.734,-37.62
15.750,-5.47
15.765,23.98
15.781,51.89
15.796,78.7
15.812,102.41
15.828,119.22
15.843,125.42
15.859,119.38
15.875,103.78
15.890,85.08
15.906,70.29
15.921,63.7
15.937,65.45
15.953,72.24
15.968,79.42
15.984,83.89
16.000,84.93
16.015,83.82
16.031,82.72
16.046,83.88
16.062,89.61
16.078,102.38
16.093,124.28
16.109,155.2
16.125,191.66
16.140,226.99
16.156,253.41
16.171,265.42
16.187,262.14
16.203,247.33
16.218,226.95
16.234,206.31
16.250,187.55
16.265,169.82
16.281,150.91
16.296,129.63
16.312,107.07
16.328,85.74
16.343,67.86
16.359,53.7
16.375,41.3
16.390,27.3
16.406,8.92
16.421,-14.85
16.437,-42.5
16.453,-69.72
16.468,-90.66
16.484,-98.97
16.500,-89.63
16.515,-60.7
16.531,-14.76
16.546,41.1
16.562,96.72
16.578,141.36
16.593,167.22
16.609,171.29
16.625,155.56
16.640,125.34
16.656,86.77
16.671,44.74
16.687,2.71
16.703,-36.42
16.718,-69.93
16.734,-94.71
16.750,-108.14
16.765,-109.34
16.781,-100.04
16.796,-84.74
16.812,-69.42
16.828,-59.58
16.843,-58.71
16.859,-67.6
16.875,-83.9
16.890,-103.03
16.906,-119.4
16.921,-128.46
16.937,-128.27
16.953,-120.06
16.968,-107.43
16.984,-94.86
17.000,-85.94
17.015,-82.27
17.031,-83.68
17.046,-89.02
17.062,-97.4
17.078,-108.58
17.093,-122.67
17.109,-139.45
17.125,-158.2
17.140,-177.75
17.156,-197.02
17.171,-215.4
17.187,-232.71
17.203,-248.79
17.218,-263.21
17.234,-275.39
17.250,-284.95
17.265,-292.02
17.281,-296.95
17.296,-300.15
17.312,-301.82
17.328,-301.74
17.343,-299.2
17.359,-292.66
17.375,-279.35
17.390,-255.44
17.406,-216.4
17.421,-158.54
17.437,-80.76
17.453,13.93
17.468,118.78
17.484,224.68
17.500,322.52
17.515,405.02
17.531,467.5
17.546,508.02
17.562,526.98
17.578,526.97
17.593,511.98
17.609,486.53
17.625,454.0
17.640,415.53
17.656,369.91
17.671,315.17
17.687,251.08
17.703,180.53
17.718,109.43
17.734,44.63
17.750,-8.71
17.765,-48.85
17.781,-77.0
17.796,-95.5
17.812,-105.69
17.828,-107.02
17.843,-98.14
17.859,-78.64
17.875,-50.22
17.890,-16.46
17.906,18.47
17.921,51.3
17.937,80.27
17.953,104.5
17.968,122.81
17.984,132.54
18.000,129.68
18.015,110.11
18.031,71.81
18.046,16.87
18.062,-48.05
18.078,-112.66
18.093,-166.03
18.109,-200.0
18.125,-211.81
18.140,-204.49
18.156,-185.48
18.171,-163.45
18.187,-145.44
18.203,-135.26
18.218,-133.74
18.234,-139.51
18.250,-149.84
18.265,-161.02
18.281,-168.05
18.296,-165.64
18.312,-149.51
18.328,-118.83
18.343,-77.44
18.359,-33.24
18.375,4.66
18.390,29.43
18.406,38.28
18.421,32.12
18.437,13.25
18.453,-16.49
18.468,-56.53
18.484,-106.94
18.500,-167.5
18.515,-237.48
18.531,-315.67
18.546,-400.1
18.562,-487.11
18.578,-570.33
18.593,-640.52
18.609,-687.22
18.625,-702.04
18.640,-681.69
18.656,-629.44
18.671,-553.74
18.687,-464.89
18.703,-371.5
18.718,-278.93
18.734,-189.55
18.750,-104.58
18.765,-25.59
18.781,45.58
18.796,107.07
18.812,158.6
18.828,201.93
18.843,240.58
18.859,278.43
18.875,318.67
18.890,362.9
18.906,411.11
18.921,462.65
18.937,516.49
18.953,571.49
18.968,625.53
18.984,674.87
19.000,713.57
19.015,734.36
19.031,730.34
19.046,697.12
19.062,633.76
19.078,542.26
19.093,426.94
19.109,293.51
19.125,148.97
19.140,1.91
19.156,-137.22
19.171,-257.27
19.187,-348.12
19.203,-402.86
19.218,-420.11
19.234,-403.88
19.250,-362.36
19.265,-305.9
19.281,-244.09
19.296,-183.62
19.312,-127.68
19.328,-76.31
19.343,-28.23
19.359,16.81
19.375,57.09
19.390,88.94
19.406,108.11
19.421,111.88
19.437,100.24
19.453,75.58
19.468,41.53
19.484,1.83
19.500,-40.31
19.515,-81.98
19.531,-119.93
19.546,-150.51
19.562,-169.8
19.578,-175.03
19.593,-165.43
19.609,-142.87
19.625,-111.33
19.640,-75.99
19.656,-41.66
19.671,-11.47
19.687,13.61
19.703,35.0
19.718,55.07
19.734,75.91
19.750,98.56
19.765,122.86
19.781,147.5
19.796,170.71
19.812,190.73
19.828,206.07
19.843,215.52
19.859,217.82
19.875,211.79
19.890,196.73
19.906,172.99
19.921,141.84
19.937,105.2
19.953,65.16
19.968,23.42
19.984,-18.63
20.000,-59.66
20.015,-98.08
20.031,-131.68
20.046,-157.77
20.062,-174.08
20.078,-179.86
20.093,-176.59
20.109,-168.22
20.125,-160.03
20.140,-156.85
20.156,-161.21
20.171,-172.18
20.187,-185.59
20.203,-195.5
20.218,-196.74
20.234,-186.78
20.250,-166.71
20.265,-140.41
20.281,-112.95
20.296,-88.97
20.312,-71.64
20.328,-62.59
20.343,-62.42
20.359,-71.1
20.375,-88.23
20.390,-113.17
20.406,-144.6
20.421,-180.09
20.437,-215.94
20.453,-247.14
20.468,-267.96
20.484,-273.22
20.500,-259.59
20.515,-226.22
20.531,-174.85
20.546,-108.86
20.562,-31.99
20.578,52.24
20.593,141.01
20.609,231.19
20.625,318.72
20.640,397.96
20.656,462.21
20.671,504.91
20.687,520.59
20.703,505.87
20.718,459.59
20.734,383.93
20.750,285.06
20.765,173.38
20.781,62.5
20.796,-33.15
20.812,-101.58
20.828,-136.48
20.843,-139.0
20.859,-117.49
20.875,-84.49
20.890,-52.88
20.906,-32.14
20.921,-25.84
20.937,-31.21
20.953,-40.35
20.968,-43.28
20.984,-31.04
21.000,1.08
21.015,52.01
21.031,114.66
21.046,178.33
21.062,232.01
21.078,267.34
21.093,280.48
21.109,271.39
21.125,243.09
21.140,200.61
21.156,150.72
21.171,101.28
21.187,60.08
21.203,34.21
21.218,28.37
21.234,43.97
21.250,78.08
21.265,124.47
21.281,175.19
21.296,221.87
21.312,256.07
21.328,269.74
21.343,258.14
21.359,222.79
21.375,173.11
21.390,122.86
21.406,86.09
21.421,72.06
21.437,81.49
21.453,105.7
21.468,128.46
21.484,132.35
21.500,105.71
21.515,46.55
21.531,-40.14
21.546,-144.59
21.562,-255.74
21.578,-361.1
21.593,-441.45
21.609,-481.08
21.625,-477.05
21.640,-438.82
21.656,-378.67
21.671,-307.44
21.687,-232.34
21.703,-158.14
21.718,-88.71
21.734,-26.8
21.750,24.85
21.765,64.89
21.781,94.51
21.796,120.77
21.812,146.64
21.828,172.44
21.843,196.03
21.859,213.74
21.875,221.42
21.890,214.66
21.906,190.88
21.921,145.0
21.937,84.11
21.953,16.61
21.968,-50.2
21.984,-110.6
22.000,-159.48
22.015,-191.72
22.031,-203.62
22.046,-194.17
22.062,-165.9
22.078,-124.52
22.093,-79.89
22.109,-41.4
22.125,-14.79
22.140,-0.71
22.156,4.05
22.171,3.52
22.187,0.42
22.203,-3.88
22.218,-8.25
22.234,-12.62
22.250,-16.23
22.265,-17.77
22.281,-16.32
22.296,-12.1
22.312,-6.76
22.328,-2.35
22.343,-0.55
22.359,-1.25
22.375,-3.69
22.390,-6.44
22.406,-8.0
22.421,-7.52
22.437,-5.12
22.453,-1.82
22.468,1.05
22.484,2.48
22.500,2.35
22.515,1.07
22.531,-0.53
22.546,-1.54
22.562,-1.41
22.578,-0.23
22.593,1.43
22.609,2.82
22.625,3.35
22.640,2.92
22.656,1.74
22.671,0.25
22.687,-1.11
22.703,-2.02
22.718,-2.55
22.734,-2.92
22.750,-3.49
22.765,-4.51
22.781,-6.06
22.796,-8.03
22.812,-10.16
22.828,-12.48
22.843,-14.63
22.859,-16.68
22.875,-18.73
22.890,-21.19
22.906,-24.48
22.921,-29.1
22.937,-35.76
22.953,-45.02
22.968,-57.55
22.984,-73.36
23.000,-92.12
23.015,-112.76
23.031,-133.6
23.046,-152.71
23.062,-167.4
23.078,-175.07
23.093,-173.69
23.109,-162.23
23.125,-140.75
23.140,-110.58
23.156,-74.07
23.171,-34.27
23.187,5.42
23.203,41.84
23.218,72.42
23.234,95.45
23.250,110.2
23.265,116.94
23.281,116.76
23.296,111.12
23.312,101.96
23.328,90.9
23.343,79.42
23.359,68.48
23.375,58.56
23.390,49.56
23.406,41.1
23.421,32.69
23.437,23.81
23.453,14.55
23.468,5.23
23.484,-3.39
23.500,-10.46
23.515,-15.03
23.531,-16.52
23.546,-14.74
23.562,-9.98
23.578,-2.67
23.593,6.73
23.609,17.78
23.625,30.01
23.640,42.87
23.656,55.7
23.671,67.62
23.687,77.62
23.703,84.84
23.718,89.05
23.734,90.64
23.750,90.56
23.765,89.9
23.781,89.5
23.796,90.02
23.812,91.91
23.828,95.61
23.843,101.51
23.859,109.45
23.875,117.84
23.890,123.61
23.906,122.96
23.921,113.24
23.937,94.9
23.953,72.1
23.968,51.07
23.984,37.63
24.000,34.87
24.015,42.46
24.031,58.12
24.046,78.6
24.062,101.81
24.078,126.13
24.093,148.63
24.109,164.09
24.125,166.21
24.140,149.92
24.156,114.45
24.171,64.16
24.187,6.82
24.203,-49.82
24.218,-100.6
24.234,-143.88
24.250,-179.75
24.265,-207.55
24.281,-225.38
24.296,-230.7
24.312,-222.19
24.328,-200.97
24.343,-170.68
24.359,-136.14
24.375,-102.42
24.390,-73.62
24.406,-52.11
24.421,-38.82
24.437,-33.43
24.453,-34.59
24.468,-40.46
24.484,-49.04
24.500,-58.31
24.515,-66.45
24.531,-71.78
24.546,-72.46
24.562,-67.24
24.578,-55.86
24.593,-39.64
24.609,-21.31
24.625,-3.63
24.640,11.82
24.656,25.3
24.671,38.23
24.687,52.17
24.703,67.65
24.718,84.31
24.734,101.37
24.750,118.21
24.765,134.55
24.781,149.88
24.796,162.96
24.812,171.74
24.828,174.14
24.843,169.27
24.859,158.55
24.875,145.85
24.890,136.27
24.906,134.14
24.921,141.03
24.937,155.1
24.953,171.6
24.968,184.77
24.984,189.69
25.000,183.96
25.015,167.82
25.031,143.42
25.046,113.93
25.062,82.4
25.078,51.62
25.093,23.96
25.109,0.91
25.125,-17.44
25.140,-32.53
25.156,-46.95
25.171,-63.13
25.187,-82.04
25.203,-102.42
25.218,-121.05
25.234,-134.23
25.250,-139.26
25.265,-135.58
25.281,-124.85
25.296,-110.36
25.312,-96.05
25.328,-85.58
25.343,-81.46
25.359,-84.52
25.375,-93.88
25.390,-107.22
25.406,-121.71
25.421,-135.19
25.437,-146.69
25.453,-156.66
25.468,-166.34
25.484,-177.02
25.500,-189.58
25.515,-204.68
25.531,-222.95
25.546,-244.86
25.562,-270.42
25.578,-298.47
25.593,-326.38
25.609,-350.76
25.625,-368.47
25.640,-377.91
25.656,-379.57
25.671,-375.45
25.687,-367.76
25.703,-358.04
25.718,-346.81
25.734,-334.47
25.750,-321.63
25.765,-309.08
25.781,-296.79
25.796,-282.76
25.812,-262.64
25.828,-230.73
25.843,-182.6
25.859,-117.79
25.875,-41.1
25.890,38.76
25.906,112.54
25.921,173.9
25.937,221.42
25.953,257.76
25.968,287.35
25.984,313.68
26.000,338.17
26.015,360.66
26.031,380.45
26.046,397.64
26.062,413.32
26.078,428.98
26.093,445.49
26.109,462.13
26.125,476.57
26.140,485.28
26.156,484.92
26.171,472.76
26.187,447.97
26.203,412.11
26.218,369.03
26.234,323.24
26.250,278.49
26.265,236.48
26.281,196.74
26.296,157.48
26.312,115.51
26.328,67.03
26.343,8.14
26.359,-64.64
26.375,-153.26
26.390,-256.78
26.406,-370.73
26.421,-487.51
26.437,-591.8
26.453,-667.2
26.468,-700.02
26.484,-683.96
26.500,-622.43
26.515,-527.12
26.531,-413.33
26.546,-295.38
26.562,-183.94
26.578,-85.51
26.593,-3.99
26.609,58.86
26.625,103.08
26.640,130.32
26.656,143.65
26.671,147.24
26.687,145.38
26.703,141.67
26.718,138.6
26.734,136.63
26.750,134.91
26.765,132.02
26.781,126.79
26.796,118.94
26.812,109.27
26.828,99.16
26.843,90.13
26.859,83.36
26.875,78.88
26.890,75.99
26.906,73.36
26.921,69.63
26.937,64.04
26.953,56.67
26.968,48.25
26.984,40.05
27.000,33.44
27.015,28.89
27.031,26.37
27.046,25.0
27.062,23.47
27.078,20.68
27.093,16.45
27.109,11.5
27.125,7.65
27.140,7.36
27.156,12.07
27.171,22.53
27.187,38.08
27.203,56.88
27.218,76.63
27.234,95.52
27.250,110.77
27.265,119.74
27.281,120.54
27.296,112.52
27.312,97.44
27.328,79.52
27.343,63.86
27.359,53.89
27.375,51.24
27.390,53.07
27.406,53.9
27.421,48.61
27.437,34.41
27.453,11.87
27.468,-15.75
27.484,-44.98
27.500,-73.21
27.515,-99.48
27.531,-123.71
27.546,-145.93
27.562,-164.41
27.578,-177.0
27.593,-181.7
27.609,-177.52
27.625,-164.48
27.640,-142.88
27.656,-113.95
27.671,-78.83
27.687,-40.0
27.703,0.7
27.718,41.52
27.734,80.01
27.750,112.31
27.765,133.33
27.781,138.35
27.796,125.26
27.812,96.3
27.828,58.41
27.843,21.17
27.859,-7.16
27.875,-22.59
27.890,-26.19
27.906,-22.47
27.921,-16.46
27.937,-11.34
27.953,-7.98
27.968,-5.67
27.984,-3.44
28.000,-1.27
28.015,-0.16
28.031,-0.63
28.046,-2.47
28.062,-4.62
28.078,-5.77
28.093,-4.86
28.109,-1.75
28.125,3.27
28.140,9.85
28.156,17.63
28.171,27.14
28.187,39.26
28.203,54.59
28.218,72.79
28.234,92.36
28.250,110.34
28.265,123.47
28.281,129.09
28.296,125.79
28.312,113.76
28.328,94.26
28.343,69.28
28.359,40.46
28.375,10.07
28.390,-20.34
28.406,-49.62
28.421,-76.98
28.437,-102.04
28.453,-124.44
28.468,-143.01
28.484,-155.64
28.500,-158.37
28.515,-148.0
28.531,-123.87
28.546,-88.99
28.562,-49.88
28.578,-14.35
28.593,11.28
28.609,24.52
28.625,26.98
28.640,23.33
28.656,18.16
28.671,14.11
28.687,11.67
28.703,10.0
28.718,8.22
28.734,6.13
28.750,4.22
28.765,3.03
28.781,2.84
28.796,3.46
28.812,4.63
28.828,5.86
28.843,6.85
28.859,7.39
28.875,7.08
28.890,5.39
28.906,1.85
28.921,-3.48
28.937,-9.98
28.953,-16.72
28.968,-23.19
28.984,-29.56
29.000,-36.67
29.015,-45.6
29.031,-56.9
29.046,-70.2
29.062,-83.84
29.078,-94.7
29.093,-99.84
29.109,-97.11
29.125,-85.48
29.140,-65.19
29.156,-37.41
29.171,-4.66
29.187,28.58
29.203,56.22
29.218,72.21
29.234,73.52
29.250,62.7
29.265,47.77
29.281,39.11
29.296,44.16
29.312,63.49
29.328,89.68
29.343,111.14
29.359,117.49
29.375,104.54
29.390,75.38
29.406,37.65
29.421,-0.8
29.437,-35.19
29.453,-64.03
29.468,-87.64
29.484,-105.56
29.500,-115.93
29.515,-116.31
29.531,-105.4
29.546,-84.51
29.562,-57.71
29.578,-30.13
29.593,-6.47
29.609,10.91
29.625,22.47
29.640,30.68
29.656,38.49
29.671,47.75
29.687,58.42
29.703,68.76
29.718,76.29
29.734,78.91
29.750,76.09
29.765,69.03
29.781,60.06
29.796,51.69
29.812,45.45
29.828,41.41
29.843,38.62
29.859,35.75
29.875,31.94
29.890,27.22
29.906,22.56
29.921,19.36
29.937,19.03
29.953,22.57
29.968,30.52
29.984,42.66
30.000,57.58
30.015,72.47
30.031,83.4
30.046,86.53
30.062,79.84
30.078,64.48
30.093,44.75
30.109,26.79
30.125,16.16
30.140,15.74
30.156,24.88
30.171,40.05
30.187,56.82
30.203,71.59
30.218,82.46
30.234,88.75
30.250,90.03
30.265,85.43
30.281,74.06
30.296,55.99
30.312,32.77
30.328,6.99
30.343,-18.84
30.359,-43.56
30.375,-68.45
30.390,-96.41
30.406,-130.06
30.421,-169.37
30.437,-210.68
30.453,-247.64
30.468,-273.62
30.484,-284.13
30.500,-278.36
30.515,-258.6
30.531,-228.71
30.546,-192.39
30.562,-152.39
30.578,-110.95
30.593,-70.5
30.609,-33.76
30.625,-3.19
30.640,19.92
30.656,36.15
30.671,47.65
30.687,57.14
30.703,66.61
30.718,76.33
30.734,85.18
30.750,91.54
30.765,94.51
30.781,94.33
30.796,92.37
30.812,90.53
30.828,90.44
30.843,92.94
30.859,97.72
30.875,103.43
30.890,108.07
30.906,109.68
30.921,106.91
30.937,99.58
30.953,88.75
30.968,76.07
30.984,63.18
31.000,51.05
31.015,39.9
31.031,29.51
31.046,19.86
31.062,11.38
31.078,4.87
31.093,1.01
31.109,-0.21
31.125,0.59
31.140,2.5
31.156,4.88
31.171,7.79
31.187,11.97
31.203,18.27
31.218,27.09
31.234,37.82
31.250,48.7
31.265,57.47
31.281,62.14
31.296,61.74
31.312,56.79
31.328,49.16
31.343,41.48
31.359,36.24
31.375,35.28
31.390,39.15
31.406,47.82
31.421,60.94
31.437,78.22
31.453,99.49
31.468,124.32
31.484,151.79
31.500,180.49
31.515,209.16
31.531,237.05
31.546,264.71
31.562,293.45
31.578,324.25
31.593,356.16
31.609,385.34
31.625,405.59
31.640,410.35
31.656,395.46
31.671,361.21
31.687,312.89
31.703,258.94
31.718,208.17
31.734,166.96
31.750,137.68
31.765,119.1
31.781,108.06
31.796,101.46
31.812,97.43
31.828,95.36
31.843,95.0
31.859,95.68
31.875,96.03
31.890,94.25
31.906,88.94
31.921,79.66
31.937,67.16
31.953,52.88
31.968,38.34
31.984,24.32
32.000,10.77
32.015,-2.79
32.031,-16.84
32.046,-31.46
32.062,-46.06
32.078,-59.73
32.093,-71.46
32.109,-80.56
32.125,-87.12
32.140,-91.92
32.156,-96.38
32.171,-102.15
32.187,-110.72
32.203,-123.1
32.218,-139.55
32.234,-159.6
32.250,-182.21
32.265,-206.25
32.281,-230.99
32.296,-256.4
32.312,-283.24
32.328,-312.89
32.343,-346.61
32.359,-384.92
32.375,-426.93
32.390,-470.18
32.406,-511.23
32.421,-546.4
32.437,-572.81
32.453,-588.96
32.468,-594.94
32.484,-592.29
32.500,-583.78
32.515,-573.25
32.531,-564.99
32.546,-562.45
32.562,-566.68
32.578,-575.26
32.593,-582.61
32.609,-581.91
32.625,-568.1
32.640,-540.2
32.656,-501.93
32.671,-459.83
32.687,-420.28
32.703,-387.02
32.718,-360.26
32.734,-337.91
32.750,-317.43
32.765,-297.42
32.781,-277.84
32.796,-259.26
32.812,-241.74
32.828,-224.46
32.843,-206.17
32.859,-186.06
32.875,-164.62
32.890,-143.38
32.906,-124.28
32.921,-108.67
32.937,-96.62
32.953,-86.89
32.968,-77.61
32.984,-67.07
33.000,-54.5
33.015,-40.39
33.031,-26.25
33.046,-13.69
33.062,-3.67
33.078,4.12
33.093,11.11
33.109,19.03
33.125,29.24
33.140,42.07
33.156,56.82
33.171,72.13
33.187,86.86
33.203,100.72
33.218,114.68
33.234,130.49
33.250,149.78
33.265,173.3
33.281,200.39
33.296,229.43
33.312,258.14
33.328,284.47
33.343,306.96
33.359,324.79
33.375,337.55
33.390,345.23
33.406,348.52
33.421,348.89
33.437,347.98
33.453,346.22
33.468,341.51
33.484,329.11
33.500,303.5
33.515,261.65
33.531,205.59
33.546,143.16
33.562,85.67
33.578,44.18
33.593,25.9
33.609,32.37
33.625,60.44
33.640,104.61
33.656,159.37
33.671,219.74
33.687,280.73
33.703,336.32
33.718,379.78
33.734,405.38
33.750,410.56
33.765,396.75
33.781,368.77
33.796,333.12
33.812,295.4
33.828,258.75
33.843,223.43
33.859,187.64
33.875,149.37
33.890,107.99
33.906,65.06
33.921,24.03
33.937,-10.86
33.953,-36.6
33.968,-52.37
33.984,-59.87
34.000,-62.34
34.015,-62.93
34.031,-63.33
34.046,-63.31
34.062,-61.47
34.078,-56.21
34.093,-46.72
34.109,-33.28
34.125,-16.83
34.140,1.89
34.156,22.63
34.171,45.65
34.187,71.26
34.203,99.33
34.218,129.01
34.234,158.67
34.250,186.31
34.265,210.12
34.281,228.93
34.296,242.42
34.312,250.79
34.328,254.39
34.343,253.37
34.359,247.63
34.375,237.12
34.390,222.39
34.406,204.75
34.421,185.89
34.437,167.33
34.453,149.78
34.468,133.17
34.484,116.81
34.500,99.97
34.515,82.36
34.531,64.38
34.546,46.99
34.562,31.56
34.578,19.38
34.593,11.3
34.609,7.0
34.625,4.5
34.640,0.65
34.656,-7.72
34.671,-22.0
34.687,-40.81
34.703,-60.31
34.718,-75.95
34.734,-84.6
34.750,-86.01
34.765,-82.69
34.781,-78.29
34.796,-75.46
34.812,-74.68
34.828,-74.5
34.843,-72.57
34.859,-67.03
34.875,-57.11
34.890,-43.02
34.906,-25.38
34.921,-4.7
34.937,18.96
34.953,45.92
34.968,76.67
34.984,111.34
35.000,148.91
35.015,187.02
35.031,222.19
35.046,250.94
35.062,271.08
35.078,282.49
35.093,286.77
35.109,285.84
35.125,280.79
35.140,271.09
35.156,255.21
35.171,232.0
35.187,201.55
35.203,165.47
35.218,126.12
35.234,85.58
35.250,45.03
35.265,4.84
35.281,-35.05
35.296,-74.72
35.312,-114.21
35.328,-153.8
35.343,-194.07
35.359,-235.66
35.375,-278.91
35.390,-323.28
35.406,-367.39
35.421,-409.25
35.437,-446.85
35.453,-478.78
35.468,-504.64
35.484,-525.11
35.500,-542.05
35.515,-558.3
35.531,-577.0
35.546,-600.29
35.562,-627.81
35.578,-655.54
35.593,-676.0
35.609,-680.41
35.625,-661.82
35.640,-618.08
35.656,-553.03
35.671,-475.07
35.687,-393.88
35.703,-316.92
35.718,-247.82
35.734,-186.51
35.750,-131.41
35.765,-81.42
35.781,-36.88
35.796,1.04
35.812,31.27
35.828,53.85
35.843,70.06
35.859,81.88
35.875,91.45
35.890,100.9
35.906,112.52
35.921,128.57
35.937,150.53
35.953,177.48
35.968,205.31
35.984,226.84
36.000,233.84
36.015,219.65
36.031,181.35
36.046,120.66
36.062,43.67
36.078,-40.34
36.093,-120.52
36.109,-185.9
36.125,-227.2
36.140,-238.84
36.156,-220.41
36.171,-177.03
36.187,-118.08
36.203,-54.15
36.218,6.18
36.234,58.35
36.250,102.02
36.265,139.32
36.281,172.98
36.296,205.3
36.312,237.82
36.328,271.48
36.343,306.62
36.359,342.29
36.375,375.84
36.390,403.14
36.406,419.59
36.421,421.75
36.437,408.7
36.453,382.43
36.468,347.11
36.484,307.85
36.500,269.18
36.515,234.09
36.531,203.66
36.546,177.03
36.562,151.85
36.578,124.88
36.593,92.63
36.609,52.01
36.625,1.17
36.640,-59.69
36.656,-127.65
36.671,-196.8
36.687,-258.83
36.703,-304.54
36.718,-326.17
36.734,-319.65
36.750,-286.45
36.765,-233.52
36.781,-171.44
36.796,-111.15
36.812,-60.8
36.828,-23.66
36.843,1.6
36.859,19.25
36.875,33.92
36.890,48.18
36.906,61.44
36.921,70.2
36.937,69.69
36.953,56.25
36.968,29.6
36.984,-6.21
37.000,-43.48
37.015,-73.04
37.031,-86.97
37.046,-81.02
37.062,-55.73
37.078,-16.42
37.093,28.38
37.109,69.2
37.125,97.99
37.140,110.45
37.156,107.23
37.171,93.48
37.187,77.0
37.203,65.29
37.218,62.64
37.234,69.04
37.250,80.83
37.265,92.88
37.281,100.99
37.296,103.5
37.312,101.09
37.328,96.06
37.343,91.35
37.359,90.14
37.375,95.71
37.390,110.71
37.406,135.56
37.421,167.12
37.437,198.76
37.453,221.73
37.468,228.62
37.484,215.96
37.500,185.42
37.515,142.54
37.531,93.83
37.546,43.45
37.562,-8.28
37.578,-63.64
37.593,-124.72
37.609,-189.71
37.625,-252.06
37.640,-302.54
37.656,-333.2
37.671,-341.12
37.687,-329.34
37.703,-304.72
37.718,-274.09
37.734,-241.27
37.750,-206.44
37.765,-168.23
37.781,-126.66
37.796,-84.82
37.812,-48.2
37.828,-21.87
37.843,-7.95
37.859,-4.73
37.875,-7.93
37.890,-12.97
37.906,-16.83
37.921,-18.62
37.937,-18.88
37.953,-18.66
37.968,-18.17
37.984,-16.39
38.000,-10.95
38.015,0.99
38.031,21.52
38.046,50.49
38.062,84.54
38.078,117.44
38.093,141.34
38.109,149.27
38.125,137.53
38.140,107.01
38.156,63.19
38.171,14.58
38.187,-29.73
38.203,-62.84
38.218,-81.88
38.234,-88.24
38.250,-86.36
38.265,-81.22
38.281,-76.21
38.296,-72.24
38.312,-68.48
38.328,-63.82
38.343,-58.26
38.359,-52.88
38.375,-48.78
38.390,-45.84
38.406,-42.37
38.421,-35.9
38.437,-24.87
38.453,-9.8
38.468,7.0
38.484,22.6
38.500,35.08
38.515,44.51
38.531,52.44
38.546,60.48
38.562,68.86
38.578,75.76
38.593,77.6
38.609,70.42
38.625,51.84
38.640,22.51
38.656,-13.44
38.671,-49.1
38.687,-76.66
38.703,-89.66
38.718,-85.16
38.734,-64.84
38.750,-34.68
38.765,-3.27
38.781,20.74
38.796,30.96
38.812,24.73
38.828,3.42
38.843,-28.21
38.859,-63.49
38.875,-95.44
38.890,-118.35
38.906,-128.95
38.921,-127.27
38.937,-116.71
38.953,-103.29
38.968,-93.7
38.984,-92.7
39.000,-101.11
39.015,-115.25
39.031,-128.48
39.046,-134.08
39.062,-128.21
39.078,-111.16
39.093,-87.16
39.109,-62.6
39.125,-43.57
39.140,-33.9
39.156,-33.88
39.171,-40.1
39.187,-46.35
39.203,-45.4
39.218,-31.15
39.234,-0.87
39.250,43.73
39.265,96.97
39.281,150.97
39.296,198.41
39.312,234.6
39.328,258.3
39.343,271.17
39.359,276.58
39.375,278.15
39.390,278.85
39.406,280.6
39.421,283.98
39.437,288.12
39.453,290.85
39.468,289.03
39.484,279.65
39.500,260.81
39.515,232.36
39.531,196.02
39.546,154.75
39.562,111.71
39.578,69.6
39.593,30.35
39.609,-4.97
39.625,-35.63
39.640,-61.11
39.656,-80.83
39.671,-94.33
39.687,-101.3
39.703,-101.84
39.718,-96.59
39.734,-86.78
39.750,-74.39
39.765,-61.56
39.781,-50.25
39.796,-41.55
39.812,-35.46
39.828,-30.81
39.843,-26.09
39.859,-20.25
39.875,-13.58
39.890,-7.9
39.906,-5.65
39.921,-8.81
39.937,-17.78
39.953,-31.18
39.968,-46.51
39.984,-61.31
40.000,-73.94
40.015,-83.74
40.031,-90.43
40.046,-93.49
40.062,-91.88
40.078,-84.37
40.093,-70.32
40.109,-50.39
40.125,-26.58
40.140,-1.65
40.156,22.07
40.171,43.24
40.187,61.9
40.203,78.8
40.218,94.86
40.234,110.49
40.250,125.17
40.265,137.73
40.281,146.73
40.296,151.32
40.312,151.66
40.328,149.03
40.343,145.29
40.359,142.3
40.375,141.3
40.390,142.65
40.406,146.1
40.421,151.09
40.437,157.21
40.453,164.27
40.468,172.04
40.484,179.65
40.500,185.59
40.515,188.18
40.531,186.59
40.546,181.59
40.562,175.13
40.578,169.11
40.593,163.86
40.609,157.5
40.625,146.26
40.640,126.38
40.656,95.92
40.671,55.59
40.687,8.34
40.703,-42.4
40.718,-93.85
40.734,-143.67
40.750,-188.8
40.765,-224.26
40.781,-243.55
40.796,-240.86
40.812,-213.9
40.828,-165.72
40.843,-104.6
40.859,-41.51
40.875,13.33
40.890,53.07
40.906,74.91
40.921,79.19
40.937,67.46
40.953,41.07
40.968,1.41
40.984,-49.19
41.000,-106.1
41.015,-162.23
41.031,-209.01
41.046,-238.52
41.062,-245.63
41.078,-229.38
41.093,-192.93
41.109,-141.95
41.125,-83.2
41.140,-22.59
41.156,35.53
41.171,88.42
41.187,134.45
41.203,172.7
41.218,202.66
41.234,224.36
41.250,238.52
41.265,245.61
41.281,246.11
41.296,240.31
41.312,228.75
41.328,212.16
41.343,191.46
41.359,167.53
41.375,141.29
41.390,114.02
41.406,86.07
41.421,57.73
41.437,29.77
41.453,3.61
41.468,-18.76
41.484,-35.9
41.500,-47.94
41.515,-57.37
41.531,-68.57
41.546,-88.48
41.562,-123.67
41.578,-178.09
41.593,-251.4
41.609,-338.81
41.625,-433.3
41.640,-527.65
41.656,-616.47
41.671,-685.98
41.687,-723.22
41.703,-718.36
41.718,-669.14
41.734,-582.72
41.750,-472.62
41.765,-354.24
41.781,-239.92
41.796,-137.51
41.812,-50.64
41.828,18.91
41.843,70.91
41.859,106.07
41.875,126.24
41.890,135.21
41.906,137.37
41.921,137.73
41.937,140.92
41.953,149.93
41.968,164.94
41.984,184.23
42.000,204.79
42.015,223.42
42.031,239.71
42.046,252.6
42.062,261.68
42.078,266.49
42.093,266.19
42.109,258.68
42.125,241.42
42.140,212.53
42.156,169.48
42.171,115.49
42.187,54.69
42.203,-8.18
42.218,-68.04
42.234,-119.01
42.250,-155.05
42.265,-171.09
42.281,-165.07
42.296,-139.38
42.312,-101.05
42.328,-60.39
42.343,-26.76
42.359,-5.57
42.375,2.74
42.390,1.3
42.406,-5.85
42.421,-16.05
42.437,-28.33
42.453,-42.92
42.468,-60.13
42.484,-78.98
42.500,-97.21
42.515,-112.57
42.531,-123.73
42.546,-131.3
42.562,-135.78
42.578,-137.86
42.593,-137.48
42.609,-134.08
42.625,-126.6
42.640,-114.17
42.656,-96.82
42.671,-75.75
42.687,-52.96
42.703,-30.69
42.718,-10.94
42.734,5.22
42.750,17.61
42.765,27.02
42.781,34.47
42.796,40.71
42.812,45.76
42.828,49.08
42.843,49.8
42.859,46.82
42.875,39.33
42.890,26.9
42.906,9.89
42.921,-10.98
42.937,-34.82
42.953,-60.65
42.968,-87.43
42.984,-113.98
43.000,-139.03
43.015,-161.12
43.031,-178.72
43.046,-189.93
43.062,-193.08
43.078,-187.05
43.093,-171.61
43.109,-147.47
43.125,-116.11
43.140,-79.56
43.156,-39.73
43.171,-1.0
43.187,33.22
43.203,60.45
43.218,79.27
43.234,89.48
43.250,92.06
43.265,89.01
43.281,82.96
43.296,76.57
43.312,71.47
43.328,68.44
43.343,67.34
43.359,67.67
43.375,69.4
43.390,73.23
43.406,80.36
43.421,91.84
43.437,107.77
43.453,127.18
43.468,148.63
43.484,170.62
43.500,192.17
43.515,212.9
43.531,232.76
43.546,251.53
43.562,268.48
43.578,282.3
43.593,291.53
43.609,295.08
43.625,292.39
43.640,283.43
43.656,268.52
43.671,248.35
43.687,223.87
43.703,196.49
43.718,167.83
43.734,139.65
43.750,113.41
43.765,89.97
43.781,69.49
43.796,51.88
43.812,37.18
43.828,25.82
43.843,18.6
43.859,16.04
43.875,17.95
43.890,23.27
43.906,30.59
43.921,38.94
43.937,48.13
43.953,58.49
43.968,70.33
43.984,83.11
44.000,95.49
44.015,105.49
44.031,111.17
44.046,110.96
44.062,103.59
44.078,87.72
44.093,61.98
44.109,26.05
44.125,-18.33
44.140,-66.52
44.156,-111.85
44.171,-147.64
44.187,-169.86
44.203,-178.42
44.218,-176.8
44.234,-169.83
44.250,-161.25
44.265,-152.42
44.281,-142.63
44.296,-130.61
44.312,-115.99
44.328,-99.89
44.343,-84.08
44.359,-69.72
44.375,-56.65
44.390,-43.61
44.406,-29.51
44.421,-14.27
44.437,0.82
44.453,13.54
44.468,21.47
44.484,22.51
44.500,15.47
44.515,-0.08
44.531,-23.54
44.546,-53.3
44.562,-86.41
44.578,-118.84
44.593,-146.29
44.609,-165.1
44.625,-173.1
44.640,-169.74
44.656,-155.78
44.671,-132.56
44.687,-102.09
44.703,-67.0
44.718,-30.98
44.734,1.58
44.750,26.66
44.765,42.02
44.781,48.12
44.796,47.58
44.812,43.88
44.828,39.44
44.843,34.83
44.859,29.01
44.875,20.76
44.890,10.08
44.906,-1.42
44.921,-11.18
44.937,-17.17
44.953,-18.68
44.968,-16.68
44.984,-12.94
45.000,-9.13
45.015,-6.33
45.031,-4.78
45.046,-4.47
45.062,-5.33
45.078,-7.46
45.093,-10.92
45.109,-15.76
45.125,-21.63
45.140,-27.66
45.156,-32.59
45.171,-35.0
45.187,-34.18
45.203,-30.59
45.218,-25.89
45.234,-22.09
45.250,-20.7
45.265,-21.77
45.281,-23.81
45.296,-24.85
45.312,-23.39
45.328,-19.16
45.343,-12.95
45.359,-5.76
45.375,2.07
45.390,11.04
45.406,22.12
45.421,36.05
45.437,52.48
45.453,70.18
45.468,87.32
45.484,102.29
45.500,114.27
45.515,123.32
45.531,130.16
45.546,135.62
45.562,140.29
45.578,143.96
45.593,145.95
45.609,145.05
45.625,139.72
45.640,128.28
45.656,109.29
45.671,82.28
45.687,48.49
45.703,11.0
45.718,-26.01
45.734,-58.18
45.750,-82.65
45.765,-98.73
45.781,-107.62
45.796,-111.46
45.812,-112.34
45.828,-111.67
45.843,-110.57
45.859,-110.12
45.875,-111.58
45.890,-116.22
45.906,-124.83
45.921,-137.2
45.937,-151.87
45.953,-166.27
45.968,-177.27
45.984,-182.0
46.000,-178.96
46.015,-168.99
46.031,-155.54
46.046,-143.6
46.062,-137.7
46.078,-140.1
46.093,-149.69
46.109,-162.35
46.125,-172.55
46.140,-175.3
46.156,-167.72
46.171,-149.62
46.187,-123.23
46.203,-92.28
46.218,-61.04
46.234,-32.8
46.250,-8.97
46.265,11.29
46.281,30.59
46.296,52.17
46.312,78.51
46.328,110.24
46.343,145.51
46.359,180.5
46.375,210.58
46.390,231.84
46.406,242.44
46.421,243.38
46.437,238.11
46.453,231.24
46.468,226.77
46.484,226.27
46.500,228.38
46.515,229.71
46.531,226.5
46.546,216.51
46.562,199.91
46.578,178.71
46.593,155.37
46.609,131.58
46.625,107.79
46.640,83.69
46.656,59.0
46.671,33.95
46.687,9.25
46.703,-14.42
46.718,-36.93
46.734,-58.53
46.750,-79.39
46.765,-99.05
46.781,-116.4
46.796,-130.13
46.812,-139.42
46.828,-144.03
46.843,-144.18
46.859,-139.99
46.875,-131.37
46.890,-118.39
46.906,-101.81
46.921,-83.26
46.937,-64.9
46.953,-48.86
46.968,-36.46
46.984,-28.14
47.000,-23.74
47.015,-22.71
47.031,-24.42
47.046,-28.01
47.062,-32.27
47.078,-35.88
47.093,-37.86
47.109,-37.94
47.125,-36.79
47.140,-35.69
47.156,-35.75
47.171,-37.46
47.187,-40.3
47.203,-43.08
47.218,-44.42
47.234,-43.27
47.250,-39.32
47.265,-33.26
47.281,-26.64
47.296,-21.28
47.312,-18.87
47.328,-20.3
47.343,-25.67
47.359,-34.19
47.375,-44.48
47.390,-54.73
47.406,-62.98
47.421,-67.53
47.437,-67.2
47.453,-61.86
47.468,-52.42
47.484,-40.75
47.500,-29.03
47.515,-19.1
47.531,-11.87
47.546,-7.22
47.562,-4.43
47.578,-2.67
47.593,-1.53
47.609,-0.91
47.625,-0.84
47.640,-1.23
47.656,-2.0
47.671,-3.09
47.687,-4.62
47.703,-7.01
47.718,-10.42
47.734,-14.45
47.750,-17.96
47.765,-19.24
47.781,-17.03
47.796,-11.15
47.812,-3.01
47.828,4.91
47.843,9.9
47.859,10.43
47.875,6.61
47.890,-0.02
47.906,-7.14
47.921,-13.2
47.937,-17.75
47.953,-21.58
47.968,-25.84
47.984,-31.27
48.000,-37.4
48.015,-42.95
48.031,-46.47
48.046,-47.0
48.062,-44.6
48.078,-40.09
48.093,-34.56
48.109,-28.62
48.125,-22.2
48.140,-14.43
48.156,-4.29
48.171,8.84
48.187,24.76
48.203,42.13
48.218,58.86
48.234,72.79
48.250,82.43
48.265,87.58
48.281,89.37
48.296,89.65
48.312,90.09
48.328,91.56
48.343,93.68
48.359,95.27
48.375,95.17
48.390,92.69
48.406,88.07
48.421,81.98
48.437,75.14
48.453,67.84
48.468,59.83
48.484,50.36
48.500,38.49
48.515,23.4
48.531,4.49
48.546,-18.44
48.562,-45.04
48.578,-74.2
48.593,-104.4
48.609,-133.93
48.625,-161.14
48.640,-184.56
48.656,-202.74
48.671,-214.2
48.687,-217.46
48.703,-211.71
48.718,-197.12
48.734,-175.37
48.750,-149.03
48.765,-120.59
48.781,-91.66
48.796,-62.64
48.812,-33.29
48.828,-3.6
48.843,25.56
48.859,53.05
48.875,78.29
48.890,101.75
48.906,124.68
48.921,147.86
48.937,170.46
48.953,189.98
48.968,202.85
48.984,205.77
49.000,196.87
49.015,175.93
49.031,144.28
49.046,104.43
49.062,59.67
49.078,14.32
49.093,-26.49
49.109,-57.76
49.125,-75.76
49.140,-79.1
49.156,-69.03
49.171,-48.86
49.187,-22.54
49.203,5.95
49.218,33.39
49.234,57.42
49.250,76.3
49.265,88.85
49.281,94.59
49.296,93.83
49.312,87.94
49.328,79.43
49.343,71.28
49.359,66.3
49.375,66.5
49.390,72.16
49.406,81.81
49.421,93.11
49.437,103.55
49.453,111.42
49.468,116.32
49.484,119.18
49.500,121.62
49.515,125.6
49.531,132.33
49.546,142.02
49.562,154.08
49.578,167.47
49.593,180.95
49.609,193.14
49.625,202.56
49.640,207.7
49.656,207.72
49.671,201.97
49.687,189.59
49.703,169.06
49.718,138.08
49.734,94.1
49.750,35.7
49.765,-36.26
49.781,-119.12
49.796,-204.28
49.812,-279.53
49.828,-333.04
49.843,-358.07
49.859,-355.28
49.875,-331.24
49.890,-294.37
49.906,-251.88
49.921,-208.48
49.937,-166.52
49.953,-127.9
49.968,-94.8
49.984,-69.19
50.000,-51.97
50.015,-42.42
50.031,-38.25
50.046,-36.43
50.062,-34.33
50.078,-30.18
50.093,-23.8
50.109,-16.52
50.125,-10.19
50.140,-6.2
50.156,-4.92
50.171,-5.56
50.187,-6.73
50.203,-7.14
50.218,-5.91
50.234,-3.08
50.250,0.46
50.265,3.58
50.281,5.39
50.296,5.61
50.312,4.68
50.328,3.36
50.343,2.39
50.359,2.26
50.375,2.98
50.390,4.15
50.406,5.25
50.421,5.84
50.437,5.75
50.453,5.17
50.468,4.42
50.484,3.8
50.500,3.5
50.515,3.55
50.531,3.82
50.546,4.14
50.562,4.34
50.578,4.29
50.593,4.04
50.609,3.73
50.625,3.43
50.640,3.24
50.656,3.33
50.671,3.91
50.687,5.32
50.703,7.81
50.718,11.53
50.734,16.62
50.750,23.07
50.765,30.61
50.781,38.85
50.796,47.2
50.812,55.01
50.828,61.63
50.843,66.57
50.859,69.27
50.875,69.39
50.890,66.79
50.906,61.58
50.921,54.05
50.937,44.72
50.953,34.33
50.968,23.6
50.984,13.35
51.000,4.09
51.015,-3.82
51.031,-10.47
51.046,-16.18
51.062,-21.25
51.078,-26.04
51.093,-30.65
51.109,-34.87
51.125,-38.28
51.140,-40.39
51.156,-40.85
51.171,-39.65
51.187,-37.07
51.203,-33.48
51.218,-29.3
51.234,-24.85
51.250,-20.18
51.265,-15.38
51.281,-10.69
51.296,-6.75
51.312,-4.53
51.328,-4.94
51.343,-8.69
51.359,-15.9
51.375,-25.66
51.390,-36.31
51.406,-45.64
51.421,-51.81
51.437,-53.94
51.453,-51.84
51.468,-46.25
51.484,-38.39
51.500,-29.9
51.515,-22.12
51.531,-15.99
51.546,-11.2
51.562,-6.45
51.578,0.09
51.593,11.12
51.609,28.6
51.625,52.42
51.640,79.3
51.656,103.87
51.671,120.43
51.687,125.47
51.703,118.78
51.718,102.71
51.734,81.32
51.750,58.56
51.765,37.17
51.781,18.44
51.796,2.83
51.812,-9.7
51.828,-19.8
51.843,-25.04
51.859,-25.39
51.875,-21.48
51.890,-13.93
51.906,-2.57
51.921,13.11
51.937,32.87
51.953,54.81
51.968,75.34
51.984,90.54
52.000,97.25
52.015,95.25
52.031,86.62
52.046,74.64
52.062,62.27
52.078,50.86
52.093,40.17
52.109,29.38
52.125,17.96
52.140,5.43
52.156,-8.55
52.171,-25.04
52.187,-45.54
52.203,-70.86
52.218,-99.61
52.234,-127.78
52.250,-150.01
52.265,-162.01
52.281,-162.77
52.296,-154.97
52.312,-143.41
52.328,-132.42
52.343,-123.59
52.359,-114.86
52.375,-101.67
52.390,-79.2
52.406,-44.87
52.421,0.77
52.437,54.79
52.453,113.73
52.468,175.3
52.484,238.82
52.500,304.45
52.515,371.68
52.531,438.06
52.546,498.56
52.562,546.48
52.578,575.27
52.593,580.11
52.609,558.97
52.625,512.52
52.640,443.45
52.656,355.96
52.671,255.41
52.687,147.98
52.703,40.39
52.718,-61.03
52.734,-151.09
52.750,-226.43
52.765,-285.76
52.781,-329.5
52.796,-359.4
52.812,-377.89
52.828,-387.37
52.843,-389.88
52.859,-386.8
52.875,-378.89
52.890,-366.5
52.906,-349.99
52.921,-330.25
52.937,-309.03
52.953,-288.86
52.968,-272.25
52.984,-260.68
53.000,-253.65
53.015,-248.65
53.031,-241.95
53.046,-230.16
53.062,-211.6
53.078,-187.01
53.093,-158.95
53.109,-130.78
53.125,-105.32
53.140,-84.22
53.156,-67.73
53.171,-55.15
53.187,-45.4
53.203,-37.45
53.218,-30.57
53.234,-24.1
53.250,-17.48
53.265,-10.26
53.281,-2.21
53.296,6.64
53.312,15.81
53.328,24.51
53.343,31.81
53.359,36.93
53.375,39.52
53.390,39.77
53.406,38.19
53.421,35.49
53.437,32.28
53.453,28.95
53.468,25.62
53.484,22.32
53.500,19.04
53.515,15.88
53.531,12.84
53.546,9.78
53.562,6.34
53.578,2.11
53.593,-3.21
53.609,-9.57
53.625,-16.44
53.640,-22.98
53.656,-28.2
53.671,-31.23
53.687,-31.61
53.703,-29.4
53.718,-25.27
53.734,-20.43
53.750,-16.34
53.765,-14.27
53.781,-14.89
53.796,-18.0
53.812,-22.59
53.828,-27.21
53.843,-30.52
53.859,-31.72
53.875,-30.74
53.890,-28.26
53.906,-25.38
53.921,-23.24
53.937,-22.79
53.953,-24.48
53.968,-28.19
53.984,-33.26
54.000,-38.64
54.015,-43.33
54.031,-46.79
54.046,-49.32
54.062,-52.03
54.078,-56.5
54.093,-64.06
54.109,-75.27
54.125,-89.43
54.140,-104.64
54.156,-118.12
54.171,-126.93
54.187,-128.76
54.203,-122.67
54.218,-109.33
54.234,-90.82
54.250,-69.95
54.265,-49.48
54.281,-31.48
54.296,-17.04
54.312,-6.48
54.328,0.44
54.343,4.07
54.359,5.14
54.375,4.59
54.390,3.81
54.406,4.29
54.421,7.58
54.437,14.84
54.453,26.69
54.468,42.96
54.484,62.42
54.500,82.9
54.515,101.48
54.531,115.32
54.546,122.51
54.562,122.67
54.578,117.22
54.593,109.0
54.609,101.76
54.625,99.19
54.640,103.67
54.656,115.1
54.671,130.26
54.687,143.1
54.703,146.24
54.718,133.39
54.734,101.91
54.750,54.6
54.765,-0.53
54.781,-52.53
54.796,-91.1
54.812,-109.74
54.828,-107.58
54.843,-89.11
54.859,-62.14
54.875,-35.17
54.890,-15.14
54.906,-6.05
54.921,-8.63
54.937,-21.1
54.953,-39.83
54.968,-60.27
54.984,-77.59
55.000,-87.24
55.015,-85.9
55.031,-72.26
55.046,-47.57
55.062,-15.47
55.078,18.84
55.093,50.18
55.109,74.71
55.125,91.02
55.140,100.07
55.156,104.22
55.171,105.98
55.187,106.9
55.203,107.18
55.218,105.96
55.234,102.28
55.250,95.78
55.265,87.03
55.281,77.33
55.296,68.05
55.312,60.18
55.328,54.1
55.343,49.7
55.359,46.72
55.375,44.96
55.390,44.32
55.406,44.46
55.421,44.89
55.437,44.84
55.453,43.55
55.468,40.47
55.484,35.39
55.500,28.58
55.515,20.36
55.531,11.2
55.546,1.46
55.562,-8.35
55.578,-17.61
55.593,-25.37
55.609,-30.64
55.625,-32.51
55.640,-30.36
55.656,-24.24
55.671,-14.78
55.687,-3.14
55.703,9.03
55.718,19.97
55.734,27.98
55.750,31.91
55.765,31.48
55.781,27.42
55.796,21.06
55.812,14.0
55.828,7.52
55.843,2.15
55.859,-2.07
55.875,-5.45
55.890,-8.01
55.906,-9.5
55.921,-9.47
55.937,-7.85
55.953,-5.23
55.968,-2.75
55.984,-1.81
56.000,-3.37
56.015,-7.68
56.031,-13.98
56.046,-20.98
56.062,-27.31
56.078,-32.29
56.093,-36.08
56.109,-39.56
56.125,-43.68
56.140,-48.75
56.156,-54.1
56.171,-58.21
56.187,-59.32
56.203,-56.33
56.218,-49.45
56.234,-40.12
56.250,-30.57
56.265,-23.07
56.281,-19.28
56.296,-19.93
56.312,-24.58
56.328,-31.32
56.343,-36.75
56.359,-36.81
56.375,-28.31
56.390,-10.7
56.406,12.67
56.421,35.03
56.437,48.42
56.453,46.87
56.468,28.92
56.484,-1.46
56.500,-36.63
56.515,-68.0
56.531,-88.57
56.546,-94.5
56.562,-85.23
56.578,-63.08
56.593,-32.66
56.609,-0.19
56.625,27.91
56.640,46.89
56.656,55.63
56.671,56.82
56.687,55.48
56.703,56.22
56.718,60.67
56.734,67.17
56.750,72.52
56.765,74.91
56.781,75.45
56.796,77.81
56.812,85.72
56.828,100.08
56.843,118.16
56.859,134.78
56.875,145.0
56.890,146.43
56.906,140.01
56.921,128.58
56.937,115.02
56.953,100.85
56.968,85.62
56.984,68.04
57.000,47.29
57.015,24.2
57.031,1.4
57.046,-17.24
57.062,-28.21
57.078,-29.76
57.093,-22.69
57.109,-10.25
57.125,2.96
57.140,12.45
57.156,15.43
57.171,11.24
57.187,1.33
57.203,-11.81
57.218,-25.76
57.234,-38.91
57.250,-50.59
57.265,-60.6
57.281,-68.78
57.296,-75.01
57.312,-79.43
57.328,-82.65
57.343,-85.73
57.359,-89.32
57.375,-92.89
57.390,-94.41
57.406,-90.89
57.421,-79.78
57.437,-60.38
57.453,-34.2
57.468,-4.32
57.484,26.13
57.500,55.41
57.515,83.67
57.531,112.2
57.546,142.4
57.562,174.49
57.578,207.2
57.593,238.28
57.609,265.12
57.625,285.59
57.640,298.34
57.656,303.15
57.671,300.85
57.687,293.36
57.703,283.44
57.718,274.1
57.734,267.99
57.750,266.43
57.765,268.54
57.781,270.89
57.796,268.03
57.812,254.53
57.828,227.53
57.843,188.6
57.859,143.54
57.875,100.03
57.890,64.07
57.906,37.1
57.921,15.83
57.937,-5.59
57.953,-31.6
57.968,-62.81
57.984,-95.87
58.000,-126.14
58.015,-150.7
58.031,-169.94
58.046,-186.59
58.062,-203.45
58.078,-221.53
58.093,-239.32
58.109,-254.0
58.125,-262.71
58.140,-263.4
58.156,-254.7
58.171,-235.82
58.187,-206.48
58.203,-167.43
58.218,-121.19
58.234,-71.94
58.250,-24.92
58.265,14.96
58.281,44.4
58.296,62.4
58.312,70.16
58.328,70.34
58.343,66.31
58.359,61.23
58.375,57.55
58.390,56.48
58.406,58.01
58.421,61.09
58.437,63.95
58.453,64.65
58.468,61.36
58.484,53.01
58.500,39.45
58.515,21.66
58.531,1.34
58.546,-19.42
58.562,-38.82
58.578,-55.78
58.593,-69.94
58.609,-81.48
58.625,-90.66
58.640,-97.75
58.656,-102.73
58.671,-105.59
58.687,-106.18
58.703,-104.33
58.718,-100.03
58.734,-93.37
58.750,-84.84
58.765,-75.08
58.781,-64.98
58.796,-55.24
58.812,-46.47
58.828,-38.88
58.843,-32.52
58.859,-27.52
58.875,-23.91
58.890,-21.81
58.906,-21.09
58.921,-21.46
58.937,-22.41
58.953,-23.56
58.968,-24.69
58.984,-25.96
59.000,-27.85
59.015,-30.86
59.031,-35.31
59.046,-41.18
59.062,-47.99
59.078,-54.95
59.093,-61.12
59.109,-65.61
59.125,-67.77
59.140,-67.54
59.156,-65.53
59.171,-63.03
59.187,-61.44
59.203,-61.59
59.218,-63.08
59.234,-64.13
59.250,-62.28
59.265,-55.39
59.281,-42.78
59.296,-25.64
59.312,-6.65
59.328,11.25
59.343,25.98
59.359,36.88
59.375,44.61
59.390,50.43
59.406,55.56
59.421,60.64
59.437,65.65
59.453,69.94
59.468,72.45
59.484,72.07
59.500,67.98
59.515,60.19
59.531,49.82
59.546,38.94
59.562,30.2
59.578,25.78
59.593,26.74
59.609,32.36
59.625,40.38
59.640,47.58
59.656,50.96
59.671,48.59
59.687,40.21
59.703,27.22
59.718,11.99
59.734,-2.92
59.750,-15.58
59.765,-25.02
59.781,-31.11
59.796,-34.09
59.812,-34.46
59.828,-32.73
59.843,-29.63
59.859,-26.05
59.875,-22.97
59.890,-21.25
59.906,-21.28
59.921,-22.83
59.937,-25.23
59.953,-27.69
59.968,-29.7
59.984,-31.12
