timestamp,value
00.000,11.95
00.015,8.17
00.031,4.91
00.046,2.72
00.062,1.78
00.078,1.73
00.093,2.1
00.109,2.16
00.125,1.15
00.140,-1.39
00.156,-5.41
00.171,-10.31
00.187,-15.2
00.203,-19.06
00.218,-21.31
00.234,-21.72
00.250,-20.45
00.265,-17.95
00.281,-14.56
00.296,-10.4
00.312,-5.47
00.328,0.19
00.343,6.52
00.359,13.34
00.375,20.61
00.390,28.33
00.406,36.5
00.421,44.99
00.437,53.28
00.453,60.68
00.468,66.58
00.484,70.72
00.500,73.35
00.515,75.26
00.531,77.3
00.546,80.16
00.562,83.96
00.578,88.13
00.593,91.9
00.609,94.6
00.625,96.05
00.640,96.47
00.656,96.31
00.671,95.77
00.687,94.8
00.703,93.07
00.718,89.99
00.734,84.95
00.750,77.63
00.765,67.8
00.781,55.34
00.796,40.33
00.812,23.03
00.828,4.15
00.843,-15.17
00.859,-33.52
00.875,-49.63
00.890,-62.51
00.906,-71.78
00.921,-77.66
00.937,-80.81
00.953,-82.14
00.968,-82.4
00.984,-82.13
01.000,-81.51
01.015,-80.21
01.031,-77.49
01.046,-72.36
01.062,-63.94
01.078,-52.08
01.093,-37.64
01.109,-22.52
01.125,-9.17
01.140,0.19
01.156,4.57
01.171,4.63
01.187,2.57
01.203,1.52
01.218,4.21
01.234,11.89
01.250,23.8
01.265,37.47
01.281,49.52
01.296,57.1
01.312,58.65
01.328,54.54
01.343,46.71
01.359,37.85
01.375,30.18
01.390,24.81
01.406,21.42
01.421,18.65
01.437,14.87
01.453,9.02
01.468,1.08
01.484,-7.93
01.500,-16.71
01.515,-24.43
01.531,-31.25
01.546,-38.34
01.562,-47.42
01.578,-59.86
01.593,-76.16
01.609,-95.83
01.625,-117.71
01.640,-140.54
01.656,-163.22
01.671,-184.71
01.687,-203.62
01.703,-217.96
01.718,-225.12
01.734,-222.73
01.750,-209.18
01.765,-184.19
01.781,-148.65
01.796,-104.26
01.812,-53.08
01.828,2.56
01.843,59.53
01.859,113.36
01.875,158.22
01.890,188.23
01.906,199.15
01.921,190.36
01.937,165.26
01.953,130.42
01.968,93.41
01.984,60.53
02.000,35.2
02.015,17.84
02.031,6.97
02.046,0.39
02.062,-3.65
02.078,-6.33
02.093,-8.43
02.109,-10.7
02.125,-13.96
02.140,-18.81
02.156,-25.41
02.171,-33.29
02.187,-41.55
02.203,-48.79
02.218,-53.71
02.234,-55.36
02.250,-52.95
02.265,-45.74
02.281,-32.72
02.296,-12.65
02.312,15.4
02.328,51.15
02.343,92.45
02.359,134.73
02.375,171.48
02.390,196.0
02.406,203.32
02.421,192.14
02.437,165.53
02.453,130.1
02.468,93.82
02.484,63.62
02.500,43.22
02.515,32.59
02.531,28.86
02.546,27.92
02.562,26.17
02.578,21.7
02.593,14.27
02.609,4.87
02.625,-5.05
02.640,-14.04
02.656,-21.02
02.671,-25.22
02.687,-26.76
02.703,-26.41
02.718,-25.52
02.734,-25.81
02.750,-28.55
02.765,-34.15
02.781,-41.98
02.796,-50.57
02.812,-58.14
02.828,-63.43
02.843,-65.9
02.859,-65.45
02.875,-62.71
02.890,-58.4
02.906,-53.16
02.921,-47.48
02.937,-41.42
02.953,-34.5
02.968,-26.06
02.984,-15.53
03.000,-2.82
03.015,11.08
03.031,24.28
03.046,34.64
03.062,40.36
03.078,40.76
03.093,36.55
03.109,29.27
03.125,20.63
03.140,11.74
03.156,2.86
03.171,-6.15
03.187,-15.17
03.203,-23.31
03.218,-28.93
03.234,-30.29
03.250,-26.45
03.265,-17.88
03.281,-6.52
03.296,4.98
03.312,14.55
03.328,21.39
03.343,25.96
03.359,29.56
03.375,33.43
03.390,38.02
03.406,42.94
03.421,47.28
03.437,50.0
03.453,50.62
03.468,49.24
03.484,46.43
03.500,42.93
03.515,39.35
03.531,35.93
03.546,32.58
03.562,29.15
03.578,25.55
03.593,22.03
03.609,18.97
03.625,16.8
03.640,15.66
03.656,15.24
03.671,14.77
03.687,13.39
03.703,10.37
03.718,5.38
03.734,-1.35
03.750,-9.24
03.765,-17.46
03.781,-25.16
03.796,-31.79
03.812,-37.16
03.828,-41.44
03.843,-45.15
03.859,-48.91
03.875,-53.16
03.890,-57.86
03.906,-62.57
03.921,-66.53
03.937,-68.89
03.953,-69.19
03.968,-67.55
03.984,-64.61
04.000,-61.34
04.015,-58.68
04.031,-57.12
04.046,-56.87
04.062,-57.7
04.078,-59.23
04.093,-61.11
04.109,-63.0
04.125,-64.79
04.140,-66.51
04.156,-68.37
04.171,-70.65
04.187,-73.43
04.203,-76.31
04.218,-78.36
04.234,-78.3
04.250,-74.88
04.265,-67.29
04.281,-55.44
04.296,-39.69
04.312,-20.7
04.328,0.82
04.343,24.25
04.359,49.09
04.375,74.8
04.390,100.97
04.406,127.34
04.421,153.51
04.437,179.08
04.453,203.22
04.468,224.62
04.484,241.6
04.500,252.6
04.515,256.47
04.531,252.9
04.546,242.23
04.562,225.4
04.578,203.58
04.593,177.98
04.609,150.03
04.625,121.26
04.640,93.52
04.656,68.61
04.671,47.98
04.687,32.08
04.703,20.46
04.718,11.89
04.734,4.99
04.750,-1.17
04.765,-6.66
04.781,-10.76
04.796,-12.63
04.812,-11.64
04.828,-7.87
04.843,-2.16
04.859,4.37
04.875,10.75
04.890,16.15
04.906,20.35
04.921,23.4
04.937,25.41
04.953,26.57
04.968,27.09
04.984,27.02
05.000,26.4
05.015,25.14
05.031,22.91
05.046,19.36
05.062,14.26
05.078,7.71
05.093,-0.09
05.109,-8.75
05.125,-18.04
05.140,-27.99
05.156,-38.67
05.171,-50.05
05.187,-61.6
05.203,-72.41
05.218,-81.23
05.234,-86.98
05.250,-89.11
05.265,-87.77
05.281,-83.69
05.296,-78.04
05.312,-71.88
05.328,-66.01
05.343,-60.84
05.359,-56.57
05.375,-53.01
05.390,-50.0
05.406,-47.35
05.421,-44.86
05.437,-42.46
05.453,-39.93
05.468,-37.1
05.484,-33.88
05.500,-30.37
05.515,-26.83
05.531,-23.85
05.546,-22.0
05.562,-21.5
05.578,-22.23
05.593,-23.57
05.609,-24.71
05.625,-25.06
05.640,-24.37
05.656,-22.81
05.671,-20.78
05.687,-18.7
05.703,-16.77
05.718,-15.12
05.734,-13.83
05.750,-13.18
05.765,-13.52
05.781,-15.22
05.796,-18.62
05.812,-23.8
05.828,-30.65
05.843,-38.92
05.859,-48.14
05.875,-57.55
05.890,-66.48
05.906,-74.43
05.921,-81.12
05.937,-86.77
05.953,-91.8
05.968,-96.48
05.984,-100.91
06.000,-104.79
06.015,-107.53
06.031,-108.76
06.046,-108.51
06.062,-106.95
06.078,-104.44
06.093,-101.17
06.109,-97.11
06.125,-92.13
06.140,-86.15
06.156,-79.24
06.171,-71.55
06.187,-63.18
06.203,-53.99
06.218,-43.76
06.234,-32.21
06.250,-19.43
06.265,-5.78
06.281,8.15
06.296,21.74
06.312,34.27
06.328,45.19
06.343,53.83
06.359,59.42
06.375,61.44
06.390,59.84
06.406,55.27
06.421,49.04
06.437,42.75
06.453,37.71
06.468,34.86
06.484,34.51
06.500,36.55
06.515,40.75
06.531,46.69
06.546,53.85
06.562,61.44
06.578,68.49
06.593,74.06
06.609,77.41
06.625,78.15
06.640,76.23
06.656,71.89
06.671,65.4
06.687,57.12
06.703,47.47
06.718,36.81
06.734,25.55
06.750,14.15
06.765,2.92
06.781,-7.78
06.796,-17.4
06.812,-25.35
06.828,-30.86
06.843,-33.28
06.859,-32.3
06.875,-28.12
06.890,-21.3
06.906,-12.75
06.921,-3.45
06.937,5.81
06.953,14.27
06.968,21.33
06.984,26.41
07.000,29.02
07.015,28.9
07.031,26.06
07.046,20.94
07.062,14.22
07.078,6.78
07.093,-0.71
07.109,-7.69
07.125,-14.02
07.140,-19.92
07.156,-25.72
07.171,-31.88
07.187,-38.8
07.203,-46.63
07.218,-55.22
07.234,-64.16
07.250,-72.5
07.265,-79.01
07.281,-82.38
07.296,-81.44
07.312,-75.57
07.328,-65.21
07.343,-51.68
07.359,-36.95
07.375,-23.26
07.390,-12.38
07.406,-5.32
07.421,-2.12
07.437,-2.02
07.453,-3.66
07.468,-5.52
07.484,-6.24
07.500,-4.79
07.515,-0.75
07.531,5.64
07.546,13.58
07.562,22.03
07.578,29.94
07.593,36.75
07.609,42.26
07.625,46.79
07.640,50.92
07.656,55.15
07.671,59.75
07.687,64.74
07.703,69.98
07.718,75.31
07.734,80.53
07.750,85.31
07.765,89.31
07.781,92.33
07.796,94.07
07.812,94.46
07.828,93.52
07.843,91.34
07.859,88.17
07.875,84.27
07.890,79.97
07.906,75.71
07.921,72.29
07.937,70.07
07.953,68.96
07.968,68.43
07.984,67.61
08.000,65.97
08.015,63.33
08.031,60.08
08.046,57.03
08.062,55.7
08.078,56.62
08.093,59.06
08.109,61.36
08.125,61.82
08.140,59.89
08.156,56.27
08.171,52.96
08.187,52.35
08.203,57.82
08.218,70.69
08.234,89.67
08.250,111.76
08.265,133.97
08.281,154.89
08.296,174.53
08.312,194.01
08.328,214.47
08.343,238.9
08.359,268.47
08.375,301.99
08.390,336.8
08.406,369.58
08.421,396.86
08.437,413.97
08.453,415.72
08.468,397.22
08.484,359.2
08.500,304.95
08.515,239.32
08.531,167.51
08.546,93.63
08.562,20.07
08.578,-53.18
08.593,-126.4
08.609,-217.96
08.625,-329.17
08.640,-445.32
08.656,-543.42
08.671,-606.28
08.687,-630.25
08.703,-618.68
08.718,-579.21
08.734,-514.88
08.750,-426.7
08.765,-314.02
08.781,-180.34
08.796,-42.31
08.812,81.02
08.828,173.38
08.843,226.4
08.859,240.76
08.875,225.16
08.890,191.95
08.906,155.62
08.921,126.33
08.937,107.51
08.953,97.91
08.968,93.93
08.984,92.25
09.000,90.74
09.015,88.8
09.031,85.69
09.046,81.23
09.062,73.58
09.078,59.25
09.093,35.33
09.109,1.2
09.125,-40.69
09.140,-85.69
09.156,-127.84
09.171,-161.95
09.187,-184.4
09.203,-194.49
09.218,-194.6
09.234,-188.66
09.250,-180.57
09.265,-172.84
09.281,-166.42
09.296,-161.15
09.312,-156.76
09.328,-153.45
09.343,-151.96
09.359,-153.24
09.375,-157.32
09.390,-162.95
09.406,-167.11
09.421,-165.24
09.437,-152.32
09.453,-123.74
09.468,-76.87
09.484,-11.81
09.500,68.24
09.515,157.27
09.531,247.2
09.546,329.6
09.562,397.3
09.578,445.14
09.593,470.42
09.609,472.31
09.625,451.82
09.640,412.34
09.656,359.68
09.671,301.75
09.687,246.99
09.703,202.57
09.718,172.69
09.734,157.96
09.750,155.27
09.765,159.11
09.781,163.72
09.796,164.67
09.812,159.6
09.828,147.88
09.843,129.52
09.859,103.54
09.875,68.19
09.890,21.14
09.906,-39.46
09.921,-112.74
09.937,-193.85
09.953,-273.84
09.968,-342.05
09.984,-388.93
10.000,-409.16
10.015,-402.51
10.031,-373.38
10.046,-329.66
10.062,-279.93
10.078,-231.81
10.093,-190.69
10.109,-159.69
10.125,-139.66
10.140,-130.25
10.156,-129.86
10.171,-136.21
10.187,-148.91
10.203,-168.02
10.218,-192.9
10.234,-221.05
10.250,-248.23
10.265,-268.71
10.281,-278.49
10.296,-274.28
10.312,-254.22
10.328,-221.9
10.343,-182.69
10.359,-141.74
10.375,-102.16
10.390,-65.62
10.406,-31.67
10.421,-2.58
10.437,20.53
10.453,37.82
10.468,44.41
10.484,35.93
10.500,11.62
10.515,-24.0
10.531,-63.72
10.546,-98.86
10.562,-128.67
10.578,-154.61
10.593,-179.56
10.609,-214.24
10.625,-268.91
10.640,-348.04
10.656,-447.96
10.671,-559.93
10.687,-671.18
10.703,-776.76
10.718,-871.47
10.734,-906.62
10.750,-846.95
10.765,-688.48
10.781,-464.77
10.796,-224.58
10.812,-27.5
10.828,130.53
10.843,261.22
10.859,376.2
10.875,483.56
10.890,579.07
10.906,651.78
10.921,694.03
10.937,705.88
10.953,692.96
10.968,665.0
10.984,611.54
11.000,528.33
11.015,421.6
11.031,301.62
11.046,181.14
11.062,73.06
11.078,-11.48
11.093,-66.47
11.109,-91.07
11.125,-95.84
11.140,-91.24
11.156,-87.28
11.171,-88.88
11.187,-98.45
11.203,-114.97
11.218,-134.76
11.234,-153.73
11.250,-167.74
11.265,-177.29
11.281,-181.83
11.296,-180.52
11.312,-174.51
11.328,-165.73
11.343,-156.79
11.359,-149.06
11.375,-142.52
11.390,-135.47
11.406,-127.15
11.421,-115.29
11.437,-97.35
11.453,-71.8
11.468,-38.88
11.484,0.15
11.500,43.5
11.515,89.04
11.531,134.67
11.546,177.74
11.562,216.57
11.578,250.24
11.593,278.53
11.609,301.13
11.625,318.04
11.640,330.3
11.656,339.9
11.671,349.4
11.687,360.25
11.703,371.8
11.718,380.63
11.734,381.64
11.750,370.17
11.765,344.57
11.781,307.58
11.796,265.18
11.812,224.23
11.828,189.5
11.843,162.46
11.859,142.03
11.875,126.11
11.890,113.21
11.906,102.92
11.921,95.57
11.937,91.07
11.953,88.57
11.968,86.5
11.984,83.56
12.000,79.36
12.015,74.24
12.031,68.96
12.046,64.15
12.062,59.91
12.078,55.92
12.093,51.74
12.109,47.16
12.125,42.16
12.140,37.09
12.156,31.83
12.171,25.93
12.187,18.49
12.203,8.72
12.218,-3.81
12.234,-18.67
12.250,-34.91
12.265,-51.4
12.281,-66.93
12.296,-80.8
12.312,-92.59
12.328,-101.98
12.343,-108.69
12.359,-112.91
12.375,-115.52
12.390,-118.32
12.406,-123.29
12.421,-131.26
12.437,-141.13
12.453,-149.69
12.468,-153.0
12.484,-148.46
12.500,-136.5
12.515,-120.82
12.531,-107.06
12.546,-100.45
12.562,-103.81
12.578,-116.8
12.593,-136.4
12.609,-158.43
12.625,-179.15
12.640,-195.71
12.656,-206.32
12.671,-209.71
12.687,-205.31
12.703,-193.38
12.718,-175.34
12.734,-152.92
12.750,-127.62
12.765,-100.49
12.781,-71.62
12.796,-40.9
12.812,-8.6
12.828,23.58
12.843,52.43
12.859,73.91
12.875,85.1
12.890,84.49
12.906,72.57
12.921,52.14
12.937,27.71
12.953,4.33
12.968,-13.41
12.984,-23.19
13.000,-24.8
13.015,-18.7
13.031,-6.87
13.046,8.06
13.062,24.17
13.078,41.13
13.093,59.86
13.109,82.25
13.125,108.02
13.140,135.28
13.156,163.14
13.171,189.97
13.187,213.33
13.203,231.32
13.218,243.98
13.234,252.81
13.250,261.31
13.265,269.28
13.281,273.05
13.296,269.24
13.312,252.69
13.328,215.97
13.343,152.36
13.359,59.44
13.375,-59.31
13.390,-191.96
13.406,-326.31
13.421,-451.88
13.437,-542.22
13.453,-566.71
13.468,-511.45
13.484,-390.95
13.500,-237.45
13.515,-90.32
13.531,46.37
13.546,173.89
13.562,289.56
13.578,394.17
13.593,484.03
13.609,555.97
13.625,609.9
13.640,648.45
13.656,658.62
13.671,632.82
13.687,590.45
13.703,534.46
13.718,456.15
13.734,357.61
13.750,246.94
13.765,135.25
13.781,34.0
13.796,-48.21
13.812,-104.01
13.828,-133.87
13.843,-146.39
13.859,-149.09
13.875,-148.05
13.890,-149.83
13.906,-159.91
13.921,-180.74
13.937,-211.25
13.953,-245.41
13.968,-278.54
13.984,-310.64
14.000,-341.55
14.015,-371.04
14.031,-400.67
14.046,-432.44
14.062,-467.13
14.078,-503.47
14.093,-536.78
14.109,-562.39
14.125,-578.08
14.140,-581.81
14.156,-571.84
14.171,-548.4
14.187,-513.62
14.203,-470.96
14.218,-424.43
14.234,-376.68
14.250,-329.05
14.265,-281.16
14.281,-229.9
14.296,-171.0
14.312,-102.53
14.328,-27.07
14.343,48.26
14.359,114.04
14.375,162.4
14.390,189.24
14.406,195.21
14.421,184.7
14.437,163.88
14.453,138.26
14.468,111.77
14.484,87.3
14.500,67.53
14.515,55.51
14.531,53.76
14.546,63.15
14.562,81.63
14.578,104.36
14.593,125.03
14.609,138.15
14.625,141.17
14.640,135.21
14.656,124.2
14.671,112.87
14.687,104.68
14.703,100.78
14.718,100.42
14.734,102.28
14.750,105.63
14.765,110.72
14.781,118.18
14.796,128.1
14.812,139.7
14.828,151.34
14.843,161.19
14.859,167.73
14.875,169.63
14.890,165.5
14.906,154.01
14.921,134.14
14.937,106.23
14.953,72.74
14.968,37.98
14.984,6.9
15.000,-16.66
15.015,-31.46
15.031,-39.05
15.046,-42.75
15.062,-46.24
15.078,-51.95
15.093,-60.57
15.109,-71.13
15.125,-81.95
15.140,-91.02
15.156,-96.51
15.171,-96.62
15.187,-89.99
15.203,-76.32
15.218,-57.01
15.234,-35.23
15.250,-15.15
15.265,-0.7
15.281,6.05
15.296,5.59
15.312,0.88
15.328,-4.18
15.343,-6.34
15.359,-4.47
15.375,0.25
15.390,5.05
15.406,7.36
15.421,6.23
15.437,2.68
15.453,-0.73
15.468,-1.6
15.484,1.04
15.500,6.09
15.515,11.02
15.531,13.16
15.546,11.41
15.562,6.8
15.578,1.89
15.593,-0.75
15.609,0.16
15.625,3.72
15.640,7.5
15.656,8.95
15.671,6.86
15.687,2.03
15.703,-3.08
15.718,-5.97
15.734,-5.49
15.750,-2.51
15.765,0.55
15.781,1.14
15.796,-2.01
15.812,-8.04
15.828,-14.79
15.843,-19.76
15.859,-21.66
15.875,-20.81
15.890,-18.71
15.906,-16.89
15.921,-15.91
15.937,-15.18
15.953,-13.29
15.968,-9.29
15.984,-3.17
16.000,3.86
16.015,10.04
16.031,13.95
16.046,15.1
16.062,14.06
16.078,11.93
16.093,9.68
16.109,7.76
16.125,5.96
16.140,3.86
16.156,1.26
16.171,-1.46
16.187,-3.52
16.203,-4.21
16.218,-3.33
16.234,-1.48
16.250,0.22
16.265,0.69
16.281,-0.54
16.296,-3.19
16.312,-6.23
16.328,-8.53
16.343,-9.54
16.359,-9.41
16.375,-8.91
16.390,-8.91
16.406,-9.96
16.421,-12.05
16.437,-14.77
16.453,-17.49
16.468,-19.62
16.484,-20.87
16.500,-21.17
16.515,-20.65
16.531,-19.45
16.546,-17.76
16.562,-15.54
16.578,-12.58
16.593,-8.57
16.609,-3.18
16.625,3.38
16.640,10.48
16.656,17.07
16.671,22.03
16.687,24.77
16.703,25.53
16.718,25.37
16.734,25.68
16.750,27.77
16.765,32.17
16.781,38.71
16.796,46.74
16.812,55.29
16.828,63.71
16.843,71.54
16.859,78.43
16.875,83.95
16.890,87.51
16.906,88.34
16.921,85.96
16.937,80.3
16.953,71.76
16.968,61.36
16.984,50.35
17.000,39.97
17.015,31.09
17.031,24.05
17.046,18.53
17.062,13.89
17.078,9.45
17.093,4.69
17.109,-0.32
17.125,-5.36
17.140,-9.84
17.156,-13.25
17.171,-15.29
17.187,-15.87
17.203,-15.14
17.218,-13.22
17.234,-10.29
17.250,-6.39
17.265,-1.7
17.281,3.54
17.296,8.89
17.312,13.78
17.328,17.51
17.343,19.45
17.359,19.31
17.375,17.17
17.390,13.5
17.406,8.88
17.421,3.85
17.437,-1.34
17.453,-6.75
17.468,-12.31
17.484,-17.92
17.500,-23.26
17.515,-27.86
17.531,-31.31
17.546,-33.46
17.562,-34.23
17.578,-33.79
17.593,-32.32
17.609,-29.79
17.625,-26.34
17.640,-22.11
17.656,-17.35
17.671,-12.51
17.687,-8.04
17.703,-4.27
17.718,-1.53
17.734,0.06
17.750,0.56
17.765,0.12
17.781,-1.07
17.796,-2.84
17.812,-5.1
17.828,-7.75
17.843,-10.6
17.859,-13.33
17.875,-15.39
17.890,-16.41
17.906,-16.07
17.921,-14.42
17.937,-11.64
17.953,-8.06
17.968,-3.9
17.984,0.75
18.000,5.73
18.015,11.0
18.031,16.3
18.046,21.36
18.062,25.97
18.078,30.04
18.093,33.48
18.109,36.18
18.125,37.94
18.140,38.42
18.156,37.5
18.171,35.34
18.187,32.45
18.203,29.6
18.218,27.46
18.234,26.47
18.250,26.42
18.265,26.78
18.281,26.65
18.296,25.28
18.312,22.24
18.328,17.64
18.343,11.97
18.359,5.89
18.375,0.09
18.390,-5.0
18.406,-9.24
18.421,-12.79
18.437,-15.87
18.453,-18.68
18.468,-21.25
18.484,-23.49
18.500,-25.29
18.515,-26.4
18.531,-26.57
18.546,-25.48
18.562,-22.91
18.578,-18.69
18.593,-12.8
18.609,-5.55
18.625,2.49
18.640,10.57
18.656,17.96
18.671,24.01
18.687,28.4
18.703,31.08
18.718,32.13
18.734,31.83
18.750,30.46
18.765,28.3
18.781,25.61
18.796,22.75
18.812,20.04
18.828,17.88
18.843,16.47
18.859,15.8
18.875,15.67
18.890,15.71
18.906,15.62
18.921,15.12
18.937,14.12
18.953,12.59
18.968,10.69
18.984,8.47
19.000,5.98
19.015,3.29
19.031,0.43
19.046,-2.49
19.062,-5.41
19.078,-8.36
19.093,-11.43
19.109,-14.68
19.125,-18.22
19.140,-22.14
19.156,-26.33
19.171,-30.68
19.187,-34.93
19.203,-38.67
19.218,-41.58
19.234,-43.31
19.250,-43.5
19.265,-41.92
19.281,-38.55
19.296,-33.54
19.312,-27.2
19.328,-19.89
19.343,-11.83
19.359,-3.37
19.375,5.4
19.390,14.29
19.406,23.2
19.421,32.01
19.437,40.67
19.453,49.18
19.468,57.64
19.484,66.26
19.500,74.92
19.515,83.32
19.531,90.87
19.546,96.89
19.562,100.82
19.578,102.4
19.593,101.68
19.609,98.8
19.625,94.07
19.640,87.59
19.656,79.52
19.671,70.26
19.687,60.41
19.703,50.97
19.718,43.1
19.734,37.79
19.750,35.57
19.765,36.5
19.781,39.97
19.796,44.94
19.812,50.26
19.828,54.54
19.843,56.79
19.859,56.23
19.875,52.45
19.890,45.38
19.906,35.22
19.921,22.5
19.937,7.94
19.953,-7.26
19.968,-21.95
19.984,-34.95
20.000,-45.37
20.015,-52.75
20.031,-57.07
20.046,-58.64
20.062,-57.97
20.078,-55.62
20.093,-52.16
20.109,-48.32
20.125,-44.83
20.140,-42.25
20.156,-40.88
20.171,-40.5
20.187,-40.48
20.203,-40.14
20.218,-38.89
20.234,-36.41
20.250,-32.89
20.265,-28.69
20.281,-24.16
20.296,-19.64
20.312,-15.21
20.328,-10.8
20.343,-6.41
20.359,-2.02
20.375,2.32
20.390,6.52
20.406,10.31
20.421,13.52
20.437,15.85
20.453,17.12
20.468,17.35
20.484,16.77
20.500,15.59
20.515,14.13
20.531,12.51
20.546,10.56
20.562,7.97
20.578,4.39
20.593,-0.35
20.609,-6.05
20.625,-12.21
20.640,-18.27
20.656,-23.57
20.671,-27.93
20.687,-31.3
20.703,-34.0
20.718,-36.42
20.734,-38.87
20.750,-41.41
20.765,-44.11
20.781,-46.87
20.796,-49.6
20.812,-52.43
20.828,-55.24
20.843,-57.96
20.859,-60.51
20.875,-63.03
20.890,-65.68
20.906,-68.86
20.921,-72.72
20.937,-77.09
20.953,-81.49
20.968,-85.09
20.984,-87.09
21.000,-87.02
21.015,-84.82
21.031,-80.6
21.046,-74.52
21.062,-66.6
21.078,-56.89
21.093,-45.72
21.109,-33.82
21.125,-22.31
21.140,-12.42
21.156,-4.87
21.171,0.23
21.187,3.38
21.203,5.56
21.218,7.74
21.234,10.66
21.250,14.67
21.265,19.77
21.281,25.66
21.296,31.99
21.312,38.16
21.328,43.6
21.343,47.93
21.359,51.14
21.375,53.52
21.390,55.51
21.406,57.51
21.421,59.78
21.437,62.48
21.453,65.54
21.468,68.89
21.484,72.14
21.500,74.75
21.515,75.95
21.531,74.99
21.546,71.53
21.562,65.81
21.578,58.66
21.593,51.1
21.609,43.96
21.625,37.38
21.640,31.03
21.656,24.38
21.671,17.15
21.687,9.48
21.703,1.74
21.718,-5.74
21.734,-12.9
21.750,-19.96
21.765,-27.29
21.781,-35.01
21.796,-42.68
21.812,-49.6
21.828,-54.95
21.843,-58.2
21.859,-59.35
21.875,-58.78
21.890,-56.91
21.906,-53.81
21.921,-49.07
21.937,-41.68
21.953,-30.68
21.968,-15.33
21.984,4.37
22.000,27.72
22.015,53.36
22.031,79.58
22.046,104.77
22.062,127.58
22.078,147.21
22.093,163.33
22.109,176.0
22.125,185.33
22.140,191.37
22.156,193.95
22.171,192.69
22.187,187.41
22.203,178.25
22.218,165.84
22.234,151.1
22.250,135.13
22.265,118.8
22.281,102.74
22.296,87.44
22.312,73.49
22.328,61.59
22.343,52.56
22.359,47.0
22.375,45.03
22.390,46.35
22.406,50.16
22.421,55.31
22.437,60.44
22.453,64.09
22.468,64.91
22.484,62.01
22.500,55.33
22.515,45.66
22.531,34.5
22.546,23.47
22.562,13.72
22.578,5.67
22.593,-0.95
22.609,-6.57
22.625,-11.45
22.640,-15.29
22.656,-17.17
22.671,-15.74
22.687,-9.34
22.703,3.4
22.718,22.83
22.734,47.48
22.750,74.02
22.765,97.68
22.781,114.0
22.796,120.39
22.812,117.19
22.828,107.28
22.843,94.68
22.859,82.47
22.875,71.31
22.890,59.34
22.906,43.02
22.921,18.75
22.937,-15.78
22.953,-60.48
22.968,-112.83
22.984,-168.13
23.000,-220.46
23.015,-264.06
23.031,-294.7
23.046,-310.71
23.062,-313.03
23.078,-304.76
23.093,-289.82
23.109,-271.96
23.125,-254.25
23.140,-239.05
23.156,-228.24
23.171,-223.24
23.187,-224.61
23.203,-231.43
23.218,-241.22
23.234,-250.14
23.250,-253.93
23.265,-249.27
23.281,-234.94
23.296,-212.17
23.312,-184.1
23.328,-154.8
23.343,-127.74
23.359,-104.9
23.375,-86.56
23.390,-71.75
23.406,-59.1
23.421,-47.58
23.437,-36.94
23.453,-27.28
23.468,-18.87
23.484,-11.66
23.500,-5.27
23.515,0.71
23.531,6.45
23.546,11.65
23.562,15.73
23.578,17.87
23.593,17.66
23.609,14.95
23.625,9.98
23.640,3.27
23.656,-4.74
23.671,-13.46
23.687,-21.95
23.703,-28.91
23.718,-32.9
23.734,-32.47
23.750,-26.55
23.765,-14.34
23.781,4.91
23.796,31.87
23.812,67.24
23.828,111.18
23.843,162.91
23.859,220.04
23.875,278.82
23.890,334.65
23.906,382.96
23.921,420.25
23.937,444.44
23.953,455.08
23.968,452.83
23.984,439.03
24.000,415.15
24.015,382.5
24.031,342.36
24.046,296.06
24.062,245.51
24.078,193.08
24.093,141.48
24.109,92.98
24.125,49.1
24.140,10.27
24.156,-23.9
24.171,-54.29
24.187,-81.7
24.203,-106.62
24.218,-129.14
24.234,-148.98
24.250,-165.61
24.265,-178.43
24.281,-186.9
24.296,-190.75
24.312,-190.48
24.328,-187.37
24.343,-183.25
24.359,-179.85
24.375,-178.02
24.390,-177.23
24.406,-175.85
24.421,-171.84
24.437,-163.31
24.453,-149.14
24.468,-129.15
24.484,-103.82
24.500,-74.35
24.515,-42.47
24.531,-10.53
24.546,18.53
24.562,41.7
24.578,56.84
24.593,63.34
24.609,62.35
24.625,56.28
24.640,47.51
24.656,37.26
24.671,24.88
24.687,8.14
24.703,-15.64
24.718,-48.13
24.734,-89.05
24.750,-135.92
24.765,-184.61
24.781,-230.41
24.796,-268.68
24.812,-295.46
24.828,-307.44
24.843,-302.27
24.859,-279.02
24.875,-238.87
24.890,-185.38
24.906,-124.28
24.921,-62.77
24.937,-7.94
24.953,34.8
24.968,62.84
24.984,76.9
25.000,80.5
25.015,78.82
25.031,77.15
25.046,79.38
25.062,86.81
25.078,98.15
25.093,110.53
25.109,120.91
25.125,127.55
25.140,130.44
25.156,131.07
25.171,131.24
25.187,131.94
25.203,132.75
25.218,132.33
25.234,129.48
25.250,124.04
25.265,117.24
25.281,111.1
25.296,107.48
25.312,107.21
25.328,109.91
25.343,114.48
25.359,120.01
25.375,126.47
25.390,134.71
25.406,146.18
25.421,161.93
25.437,181.74
25.453,203.66
25.468,224.58
25.484,241.07
25.500,250.59
25.515,252.07
25.531,245.74
25.546,232.63
25.562,213.63
25.578,188.86
25.593,157.69
25.609,119.15
25.625,72.6
25.640,18.15
25.656,-42.97
25.671,-108.54
25.687,-175.5
25.703,-240.31
25.718,-299.59
25.734,-350.43
25.750,-390.99
25.765,-420.62
25.781,-439.73
25.796,-449.26
25.812,-450.22
25.828,-443.2
25.843,-428.47
25.859,-406.41
25.875,-377.74
25.890,-343.95
25.906,-307.09
25.921,-269.22
25.937,-231.83
25.953,-195.36
25.968,-159.22
25.984,-122.38
26.000,-84.24
26.015,-45.09
26.031,-6.48
26.046,29.15
26.062,59.35
26.078,82.19
26.093,96.93
26.109,104.25
26.125,106.01
26.140,104.62
26.156,102.54
26.171,101.49
26.187,102.23
26.203,104.8
26.218,108.64
26.234,113.21
26.250,118.1
26.265,123.29
26.281,128.76
26.296,134.22
26.312,138.96
26.328,142.0
26.343,142.76
26.359,141.19
26.375,138.14
26.390,134.93
26.406,132.96
26.421,133.31
26.437,136.36
26.453,141.82
26.468,148.91
26.484,156.65
26.500,163.64
26.515,168.43
26.531,169.55
26.546,165.74
26.562,156.28
26.578,140.82
26.593,119.12
26.609,90.62
26.625,54.43
26.640,9.65
26.656,-43.69
26.671,-103.9
26.687,-167.76
26.703,-231.01
26.718,-289.84
26.734,-341.71
26.750,-386.03
26.765,-423.47
26.781,-455.07
26.796,-480.85
26.812,-499.33
26.828,-507.86
26.843,-503.4
26.859,-483.94
26.875,-449.32
26.890,-401.81
26.906,-345.51
26.921,-285.31
26.937,-225.58
26.953,-168.92
26.968,-116.19
26.984,-66.65
27.000,-18.67
27.015,29.35
27.031,78.37
27.046,128.02
27.062,176.23
27.078,219.28
27.093,252.73
27.109,272.47
27.125,276.59
27.140,266.21
27.156,245.29
27.171,219.56
27.187,194.5
27.203,173.87
27.218,158.93
27.234,149.09
27.250,142.72
27.265,138.56
27.281,135.97
27.296,134.66
27.312,134.67
27.328,135.76
27.343,137.54
27.359,139.56
27.375,141.66
27.390,143.9
27.406,146.87
27.421,151.18
27.437,156.81
27.453,163.24
27.468,169.14
27.484,172.43
27.500,171.13
27.515,163.7
27.531,149.4
27.546,128.26
27.562,100.68
27.578,66.69
27.593,26.17
27.609,-21.14
27.625,-74.73
27.640,-132.33
27.656,-190.04
27.671,-242.89
27.687,-286.07
27.703,-316.07
27.718,-331.71
27.734,-333.62
27.750,-323.87
27.765,-304.98
27.781,-278.77
27.796,-246.6
27.812,-209.35
27.828,-167.74
27.843,-122.56
27.859,-74.68
27.875,-25.22
27.890,24.06
27.906,70.52
27.921,111.09
27.937,142.64
27.953,163.3
27.968,173.45
27.984,175.97
28.000,175.59
28.015,177.47
28.031,185.44
28.046,200.7
28.062,222.07
28.078,246.72
28.093,271.51
28.109,294.0
28.125,312.69
28.140,326.83
28.156,336.2
28.171,340.79
28.187,340.75
28.203,336.47
28.218,328.19
28.234,316.02
28.250,299.56
28.265,277.8
28.281,249.51
28.296,213.99
28.312,171.4
28.328,123.18
28.343,71.74
28.359,20.09
28.375,-28.76
28.390,-72.01
28.406,-107.55
28.421,-133.97
28.437,-150.59
28.453,-157.68
28.468,-156.16
28.484,-147.56
28.500,-133.56
28.515,-115.67
28.531,-94.93
28.546,-72.06
28.562,-47.49
28.578,-21.58
28.593,5.22
28.609,32.4
28.625,59.63
28.640,86.64
28.656,113.19
28.671,138.79
28.687,162.51
28.703,183.19
28.718,200.04
28.734,213.08
28.750,223.38
28.765,232.43
28.781,241.14
28.796,249.1
28.812,254.31
28.828,254.21
28.843,246.84
28.859,232.01
28.875,211.42
28.890,187.95
28.906,164.35
28.921,142.27
28.937,122.2
28.953,103.75
28.968,86.49
28.984,70.5
29.000,56.32
29.015,44.62
29.031,35.76
29.046,29.48
29.062,25.04
29.078,21.57
29.093,18.41
29.109,15.36
29.125,12.65
29.140,10.63
29.156,8.67
29.171,5.99
29.187,2.08
29.203,-3.14
29.218,-9.52
29.234,-16.61
29.250,-24.46
29.265,-32.79
29.281,-41.0
29.296,-49.21
29.312,-57.54
29.328,-65.86
29.343,-73.85
29.359,-81.35
29.375,-88.23
29.390,-95.01
29.406,-101.67
29.421,-107.64
29.437,-113.98
29.453,-121.24
29.468,-128.86
29.484,-135.59
29.500,-140.56
29.515,-143.44
29.531,-145.86
29.546,-148.9
29.562,-152.39
29.578,-160.96
29.593,-177.58
29.609,-201.42
29.625,-228.33
29.640,-254.5
29.656,-276.76
29.671,-297.78
29.687,-319.69
29.703,-342.13
29.718,-374.84
29.734,-423.79
29.750,-486.45
29.765,-552.39
29.781,-610.56
29.796,-651.27
29.812,-678.54
29.828,-698.42
29.843,-715.39
29.859,-750.26
29.875,-815.38
29.890,-903.97
29.906,-991.29
29.921,-1050.18
29.937,-1059.6
29.953,-1029.19
29.968,-980.49
29.984,-937.65
30.000,-945.04
30.015,-1030.43
30.031,-1190.26
30.046,-1392.27
30.062,-1596.93
30.078,-1768.0
30.093,-1901.94
30.109,-2002.72
30.125,-1919.31
30.140,-1568.12
30.156,-979.51
30.171,-289.45
30.187,357.85
30.203,825.21
30.218,1152.49
30.234,1382.63
30.250,1545.59
30.265,1661.7
30.281,1725.12
30.296,1724.49
30.312,1665.09
30.328,1570.66
30.343,1468.52
30.359,1384.92
30.375,1318.28
30.390,1262.78
30.406,1215.2
30.421,1154.83
30.437,1066.97
30.453,952.89
30.468,828.73
30.484,713.55
30.500,624.79
30.515,558.52
30.531,506.93
30.546,463.76
30.562,411.22
30.578,337.26
30.593,242.0
30.609,137.16
30.625,37.75
30.640,-41.99
30.656,-101.46
30.671,-143.39
30.687,-170.94
30.703,-195.89
30.718,-226.9
30.734,-265.57
30.750,-307.31
30.765,-346.61
30.781,-378.69
30.796,-405.15
30.812,-427.28
30.828,-443.85
30.843,-457.53
30.859,-466.98
30.875,-466.76
30.890,-450.88
30.906,-417.18
30.921,-368.17
30.937,-310.89
30.953,-251.63
30.968,-168.09
30.984,-56.82
31.000,67.79
31.015,182.31
31.031,269.28
31.046,323.13
31.062,347.14
31.078,348.93
31.093,337.4
31.109,320.03
31.125,297.6
31.140,270.55
31.156,240.33
31.171,209.77
31.187,181.34
31.203,156.4
31.218,135.54
31.234,118.93
31.250,106.35
31.265,93.98
31.281,79.73
31.296,64.04
31.312,49.42
31.328,38.3
31.343,31.79
31.359,29.69
31.375,30.94
31.390,34.08
31.406,35.34
31.421,32.3
31.437,24.62
31.453,12.98
31.468,-0.39
31.484,-13.85
31.500,-26.41
31.515,-37.42
31.531,-46.39
31.546,-54.1
31.562,-61.0
31.578,-66.85
31.593,-70.98
31.609,-72.83
31.625,-72.26
31.640,-69.7
31.656,-65.87
31.671,-61.38
31.687,-57.23
31.703,-54.25
31.718,-52.79
31.734,-52.98
31.750,-54.76
31.765,-58.15
31.781,-63.18
31.796,-69.91
31.812,-78.02
31.828,-87.14
31.843,-96.89
31.859,-106.76
31.875,-116.18
31.890,-124.38
31.906,-130.62
31.921,-133.88
31.937,-135.44
31.953,-135.61
31.968,-134.61
31.984,-132.67
32.000,-129.98
32.015,-126.8
32.031,-123.32
32.046,-119.77
32.062,-116.35
32.078,-113.2
32.093,-110.04
32.109,-106.67
32.125,-102.95
32.140,-98.7
32.156,-93.86
32.171,-88.38
32.187,-82.34
32.203,-75.98
32.218,-69.5
32.234,-62.96
32.250,-56.46
32.265,-50.13
32.281,-44.05
32.296,-38.23
32.312,-32.62
32.328,-27.13
32.343,-21.7
32.359,-16.2
32.375,-10.45
32.390,-4.28
32.406,2.29
32.421,9.21
32.437,16.32
32.453,23.37
32.468,30.06
32.484,36.04
32.500,40.98
32.515,44.64
32.531,46.88
32.546,47.56
32.562,46.71
32.578,44.45
32.593,41.01
32.609,36.65
32.625,31.63
32.640,26.34
32.656,21.05
32.671,16.07
32.687,11.6
32.703,7.69
32.718,4.46
32.734,1.9
32.765,-1.37
32.781,-2.23
32.796,-2.73
32.812,-2.9
32.828,-2.84
32.843,-2.65
32.859,-2.38
32.875,-2.14
32.890,-1.93
32.906,-1.82
32.921,-1.84
32.937,-2.07
32.953,-2.45
32.968,-3.02
32.984,-3.79
33.000,-4.74
33.015,-5.88
33.031,-7.15
33.046,-8.48
33.062,-9.87
33.078,-11.35
33.093,-12.77
33.109,-14.12
33.125,-15.38
33.140,-16.51
33.156,-17.55
33.171,-18.48
33.187,-19.25
33.203,-19.92
33.218,-20.54
33.234,-21.08
33.250,-21.57
33.265,-22.0
33.281,-22.4
33.296,-22.82
33.312,-23.24
33.328,-23.62
33.343,-23.94
33.359,-24.15
33.375,-24.16
33.390,-23.95
33.406,-23.46
33.421,-22.75
33.437,-21.93
33.453,-21.05
33.468,-20.23
33.484,-19.48
33.500,-18.89
33.515,-18.36
33.531,-17.91
33.546,-17.43
33.562,-16.78
33.578,-15.97
33.593,-14.83
33.609,-13.29
33.625,-11.18
33.640,-8.37
33.656,-4.74
33.671,-0.3
33.687,4.82
33.703,10.45
33.718,16.22
33.734,21.84
33.750,27.11
33.765,31.99
33.781,36.66
33.796,41.31
33.812,46.1
33.828,51.01
33.843,55.78
33.859,59.9
33.875,63.0
33.890,64.78
33.906,65.39
33.921,65.35
33.937,65.29
33.953,65.83
33.968,67.32
33.984,69.75
34.000,72.84
34.015,76.59
34.031,81.23
34.046,87.67
34.062,97.35
34.078,111.68
34.093,131.73
34.109,157.69
34.125,188.76
34.140,223.33
34.156,259.58
34.171,295.72
34.187,330.46
34.203,363.03
34.218,393.12
34.234,420.99
34.250,447.4
34.265,473.14
34.281,498.35
34.296,521.7
34.312,539.86
34.328,548.25
34.343,542.46
34.359,520.1
34.375,482.31
34.390,433.52
34.406,380.19
34.421,328.67
34.437,283.58
34.453,246.96
34.468,218.81
34.484,197.89
34.500,182.46
34.515,170.75
34.531,160.77
34.546,150.19
34.562,136.85
34.578,119.37
34.593,97.75
34.609,73.68
34.625,50.07
34.640,30.2
34.656,16.64
34.671,10.29
34.687,10.06
34.703,13.56
34.718,17.8
34.734,20.27
34.750,19.77
34.765,16.48
34.781,11.52
34.796,6.41
34.812,2.29
34.828,-0.56
34.843,-2.52
34.859,-4.68
34.875,-8.24
34.890,-14.17
34.906,-22.91
34.921,-34.38
34.937,-47.94
34.953,-62.49
34.968,-76.87
34.984,-89.85
35.000,-100.45
35.015,-108.05
35.031,-112.3
35.046,-113.37
35.062,-111.89
35.078,-108.78
35.093,-105.1
35.109,-101.91
35.125,-100.01
35.140,-99.86
35.156,-101.54
35.171,-104.46
35.187,-107.73
35.203,-110.3
35.218,-111.15
35.234,-109.54
35.250,-105.24
35.265,-98.2
35.281,-88.56
35.296,-76.56
35.312,-62.47
35.328,-46.9
35.343,-30.86
35.359,-15.67
35.375,-2.74
35.390,6.76
35.406,12.22
35.421,13.67
35.437,11.54
35.453,6.51
35.468,-0.78
35.484,-9.82
35.500,-20.34
35.515,-32.27
35.531,-45.71
35.546,-60.7
35.562,-76.93
35.578,-93.54
35.593,-109.26
35.609,-122.62
35.625,-132.46
35.640,-138.17
35.656,-139.84
35.671,-137.85
35.687,-132.4
35.703,-123.11
35.718,-109.08
35.734,-89.37
35.750,-63.69
35.765,-33.08
35.781,-0.08
35.796,31.4
35.812,56.53
35.828,70.54
35.843,69.66
35.859,52.17
35.875,19.21
35.890,-24.96
35.906,-73.46
35.921,-118.11
35.937,-151.14
35.953,-167.22
35.968,-164.51
35.984,-144.84
36.000,-112.83
36.015,-74.43
36.031,-35.23
36.046,0.41
36.062,29.79
36.078,52.03
36.093,67.32
36.109,76.79
36.125,82.11
36.140,85.24
36.156,88.02
36.171,91.88
36.187,97.36
36.203,103.81
36.218,110.06
36.234,114.52
36.250,116.02
36.265,114.02
36.281,108.89
36.296,101.69
36.312,93.66
36.328,85.84
36.343,78.58
36.359,71.74
36.375,64.75
36.390,57.08
36.406,48.42
36.421,38.84
36.437,28.83
36.453,18.85
36.468,9.23
36.484,-0.11
36.500,-9.43
36.515,-19.21
36.531,-29.82
36.546,-41.32
36.562,-53.54
36.578,-65.79
36.593,-77.2
36.609,-86.89
36.625,-94.18
36.640,-98.89
36.656,-101.36
36.671,-102.34
36.687,-102.51
36.703,-102.34
36.718,-101.5
36.734,-99.05
36.750,-93.63
36.765,-84.06
36.781,-69.95
36.796,-52.06
36.812,-32.46
36.828,-14.01
36.843,0.3
36.859,8.44
36.875,9.77
36.890,5.3
36.906,-2.72
36.921,-11.59
36.937,-18.79
36.953,-22.69
36.968,-22.72
36.984,-19.42
37.000,-14.05
37.015,-8.19
37.031,-3.34
37.046,-0.3
37.062,0.87
37.078,0.94
37.093,1.06
37.109,2.36
37.125,5.54
37.140,10.77
37.156,17.81
37.171,26.1
37.187,35.11
37.203,44.2
37.218,52.58
37.234,59.41
37.250,63.92
37.265,65.48
37.281,63.93
37.296,59.75
37.312,53.83
37.328,47.38
37.343,41.47
37.359,36.77
37.375,33.5
37.390,31.46
37.406,30.24
37.421,29.43
37.437,28.81
37.453,28.14
37.468,27.18
37.484,25.45
37.500,22.36
37.515,17.47
37.531,10.54
37.546,1.93
37.562,-7.6
37.578,-16.97
37.593,-25.22
37.609,-31.62
37.625,-35.85
37.640,-37.88
37.656,-37.79
37.671,-35.81
37.687,-32.13
37.703,-26.91
37.718,-20.34
37.734,-12.82
37.750,-4.68
37.765,3.56
37.781,11.37
37.796,18.35
37.812,24.11
37.828,28.45
37.843,31.45
37.859,33.36
37.875,34.68
37.890,36.05
37.906,38.16
37.921,41.41
37.937,46.03
37.953,51.95
37.968,58.88
37.984,66.4
38.000,73.93
38.015,80.82
38.031,86.23
38.046,89.18
38.062,88.48
38.078,83.0
38.093,71.8
38.109,54.33
38.125,30.55
38.140,0.89
38.156,-33.84
38.171,-72.56
38.187,-113.99
38.203,-156.54
38.218,-198.23
38.234,-236.59
38.250,-268.92
38.265,-292.44
38.281,-304.57
38.296,-303.33
38.312,-287.6
38.328,-257.5
38.343,-214.49
38.359,-161.37
38.375,-101.83
38.390,-40.02
38.406,20.39
38.421,76.59
38.437,126.75
38.453,169.87
38.468,205.29
38.484,232.62
38.500,251.63
38.515,262.35
38.531,265.21
38.546,260.94
38.562,250.47
38.578,234.57
38.593,214.01
38.609,189.41
38.625,161.66
38.640,131.84
38.656,101.07
38.671,70.28
38.687,39.89
38.703,9.91
38.718,-19.87
38.734,-49.18
38.750,-77.16
38.765,-101.98
38.781,-121.58
38.796,-134.25
38.812,-139.44
38.828,-138.15
38.843,-132.58
38.859,-125.28
38.875,-118.17
38.890,-111.86
38.906,-105.67
38.921,-98.53
38.937,-89.86
38.953,-80.04
38.968,-70.41
38.984,-62.31
39.000,-56.31
39.015,-51.84
39.031,-47.48
39.046,-41.8
39.062,-34.24
39.078,-25.36
39.093,-16.3
39.109,-8.3
39.125,-1.68
39.140,4.31
39.156,11.07
39.171,20.17
39.187,32.32
39.203,46.98
39.218,62.55
39.234,76.93
39.250,88.15
39.265,95.3
39.281,98.71
39.296,99.87
39.312,101.14
39.328,105.0
39.343,113.3
39.359,126.94
39.375,145.4
39.390,166.39
39.406,186.36
39.421,201.04
39.437,206.62
39.453,201.08
39.468,184.77
39.484,160.14
39.500,130.97
39.515,100.97
39.531,72.69
39.546,47.49
39.562,25.63
39.578,7.08
39.593,-8.08
39.609,-19.63
39.625,-27.6
39.640,-32.5
39.656,-35.46
39.671,-37.84
39.687,-40.65
39.703,-44.4
39.718,-48.85
39.734,-53.3
39.750,-56.99
39.765,-59.42
39.781,-60.36
39.796,-60.07
39.812,-58.97
39.828,-57.34
39.843,-55.23
39.859,-52.42
39.875,-48.47
39.890,-42.95
39.906,-35.64
39.921,-26.62
39.937,-16.16
39.953,-4.77
39.968,7.31
39.984,19.93
40.000,33.0
40.015,46.59
40.031,60.77
40.046,75.75
40.062,91.81
40.078,109.45
40.093,129.22
40.109,151.43
40.125,175.98
40.140,202.12
40.156,228.58
40.171,253.98
40.187,277.35
40.203,298.4
40.218,317.51
40.234,335.21
40.250,351.41
40.265,365.0
40.281,373.94
40.296,375.78
40.312,368.81
40.328,352.7
40.343,328.74
40.359,299.29
40.375,267.04
40.390,234.23
40.406,202.18
40.421,171.31
40.437,141.58
40.453,112.95
40.468,85.59
40.484,59.81
40.500,35.65
40.515,12.84
40.531,-9.17
40.546,-30.94
40.562,-52.86
40.578,-74.88
40.593,-96.5
40.609,-116.99
40.625,-135.63
40.640,-152.2
40.656,-166.66
40.671,-179.0
40.687,-189.06
40.703,-196.6
40.718,-201.33
40.734,-202.84
40.750,-200.84
40.765,-195.46
40.781,-188.1
40.796,-180.42
40.812,-174.19
40.828,-171.06
40.843,-172.71
40.859,-180.75
40.875,-196.25
40.890,-219.43
40.906,-249.65
40.921,-287.07
40.937,-330.83
40.953,-379.16
40.968,-429.73
40.984,-480.6
41.000,-530.43
41.015,-578.23
41.031,-622.88
41.046,-663.07
41.062,-699.95
41.078,-733.65
41.093,-763.34
41.109,-787.3
41.125,-804.11
41.140,-812.45
41.156,-810.58
41.171,-795.9
41.187,-765.29
41.203,-719.53
41.218,-659.36
41.234,-586.11
41.250,-502.0
41.265,-411.58
41.281,-321.34
41.296,-238.73
41.312,-171.23
41.328,-104.06
41.343,-34.83
41.359,31.66
41.375,88.18
41.390,132.33
41.406,166.72
41.421,195.07
41.437,218.11
41.453,232.67
41.468,234.59
41.484,218.85
41.500,186.76
41.515,142.57
41.531,95.69
41.546,53.34
41.562,18.89
41.578,-7.31
41.593,-26.04
41.609,-37.71
41.625,-44.81
41.640,-48.51
41.656,-49.4
41.671,-47.62
41.687,-44.01
41.703,-39.53
41.718,-35.54
41.734,-32.49
41.750,-29.52
41.765,-26.83
41.781,-23.95
41.796,-20.43
41.812,-15.85
41.828,-10.77
41.843,-6.2
41.859,-2.88
41.875,-0.9
41.890,0.45
41.906,1.47
41.921,2.72
41.937,4.61
41.953,7.54
41.968,11.32
41.984,15.51
42.000,19.72
42.015,23.93
42.031,28.48
42.046,33.45
42.062,38.99
42.078,45.0
42.093,51.31
42.109,57.53
42.125,63.2
42.140,67.9
42.156,71.5
42.171,74.17
42.187,76.1
42.203,77.59
42.218,78.8
42.234,79.81
42.250,80.5
42.265,80.61
42.281,79.63
42.296,76.89
42.312,71.76
42.328,63.64
42.343,52.14
42.359,37.24
42.375,19.5
42.390,-0.1
42.406,-20.13
42.421,-38.95
42.437,-55.01
42.453,-66.94
42.468,-73.68
42.484,-74.57
42.500,-69.27
42.515,-57.9
42.531,-40.91
42.546,-19.19
42.562,5.91
42.578,32.76
42.593,59.45
42.609,84.24
42.625,105.89
42.640,123.95
42.656,138.7
42.671,151.16
42.687,162.57
42.703,174.08
42.718,186.44
42.734,199.92
42.750,214.46
42.765,229.88
42.781,246.14
42.796,263.32
42.812,281.61
42.828,301.3
42.843,322.68
42.859,346.0
42.875,371.13
42.890,397.14
42.906,421.86
42.921,441.88
42.937,453.39
42.953,453.24
42.968,440.31
42.984,415.82
43.000,383.16
43.015,346.47
43.031,309.37
43.046,274.12
43.062,241.44
43.078,211.3
43.093,183.51
43.109,158.14
43.125,135.29
43.140,114.93
43.156,96.6
43.171,79.49
43.187,62.93
43.203,46.64
43.218,31.02
43.234,16.97
43.250,5.36
43.265,-3.27
43.281,-9.02
43.296,-12.48
43.312,-14.69
43.328,-16.46
43.343,-18.39
43.359,-20.48
43.375,-22.37
43.390,-23.71
43.406,-24.13
43.421,-23.69
43.437,-22.63
43.453,-21.52
43.468,-20.66
43.484,-20.3
43.500,-20.32
43.515,-20.49
43.531,-20.66
43.546,-20.75
43.562,-20.94
43.578,-21.52
43.593,-22.68
43.609,-24.3
43.625,-26.08
43.640,-27.71
43.656,-28.83
43.671,-29.44
43.687,-29.58
43.703,-29.47
43.718,-29.36
43.734,-29.29
43.750,-29.25
43.765,-29.28
43.781,-29.5
43.796,-29.96
43.812,-30.9
43.828,-32.37
43.843,-34.42
43.859,-37.13
43.875,-40.42
43.890,-44.21
43.906,-48.53
43.921,-53.24
43.937,-58.17
43.953,-63.13
43.968,-67.69
43.984,-71.34
44.000,-73.55
44.015,-73.8
44.031,-71.82
44.046,-67.74
44.062,-61.94
44.078,-55.04
44.093,-47.8
44.109,-40.83
44.125,-34.52
44.140,-29.24
44.156,-25.08
44.171,-22.14
44.187,-20.41
44.203,-19.72
44.218,-19.7
44.234,-19.9
44.250,-19.64
44.265,-18.33
44.281,-15.7
44.296,-11.64
44.312,-6.39
44.328,-0.39
44.343,6.0
44.359,12.63
44.375,19.44
44.390,26.6
44.406,34.04
44.421,41.42
44.437,48.04
44.453,52.96
44.468,55.2
44.484,54.06
44.500,49.39
44.515,41.45
44.531,30.99
44.546,18.9
44.562,6.09
44.578,-6.5
44.593,-18.03
44.609,-27.79
44.625,-35.46
44.640,-41.17
44.656,-45.67
44.671,-49.86
44.687,-54.57
44.703,-60.04
44.718,-65.71
44.734,-70.47
44.750,-72.94
44.765,-71.97
44.781,-66.95
44.796,-57.9
44.812,-45.36
44.828,-30.29
44.843,-13.98
44.859,2.19
44.875,16.81
44.890,28.55
44.906,36.5
44.921,40.24
44.937,39.96
44.953,36.48
44.968,31.17
44.984,25.45
45.000,20.78
45.015,18.23
45.031,18.32
45.046,20.95
45.062,25.46
45.078,30.67
45.093,35.21
45.109,37.91
45.125,37.85
45.140,34.8
45.156,29.17
45.171,21.84
45.187,13.86
45.203,6.22
45.218,-0.53
45.234,-6.23
45.250,-11.06
45.265,-15.36
45.281,-19.47
45.296,-23.55
45.312,-27.61
45.328,-31.49
45.343,-35.04
45.359,-38.17
45.375,-40.83
45.390,-43.05
45.406,-44.78
45.421,-46.01
45.437,-46.72
45.453,-47.0
45.468,-46.91
45.484,-46.54
45.500,-45.87
45.515,-44.73
45.531,-42.83
45.546,-40.03
45.562,-36.27
45.578,-31.64
45.593,-26.43
45.609,-20.88
45.625,-15.26
45.640,-9.84
45.656,-4.9
45.671,-0.63
45.687,2.72
45.703,5.03
45.718,6.28
45.734,6.61
45.750,6.25
45.765,5.43
45.781,4.41
45.796,3.33
45.812,2.37
45.828,1.66
45.843,1.27
45.859,1.24
45.875,1.47
45.890,1.8
45.906,1.97
45.921,1.79
45.937,1.12
45.953,0.1
45.968,-0.99
45.984,-1.85
46.000,-2.26
46.015,-2.21
46.031,-1.81
46.046,-1.18
46.062,-0.52
46.078,-0.03
46.093,0.19
46.109,-0.01
46.125,-0.68
46.140,-1.85
46.156,-3.48
46.171,-5.49
46.187,-7.77
46.203,-10.24
46.218,-12.81
46.234,-15.22
46.250,-17.22
46.265,-18.43
46.281,-18.55
46.296,-17.49
46.312,-15.38
46.328,-12.49
46.343,-9.12
46.359,-5.48
46.375,-1.68
46.390,2.09
46.406,5.71
46.421,8.94
46.437,11.51
46.453,13.25
46.468,14.21
46.484,14.64
46.500,14.83
46.515,15.08
46.531,15.37
46.546,15.58
46.562,15.52
46.578,15.05
46.593,14.17
46.609,13.03
46.625,11.82
46.640,10.66
46.656,9.65
46.671,8.73
46.687,7.73
46.703,6.57
46.718,5.14
46.734,3.48
46.750,1.63
46.765,-0.33
46.781,-2.27
46.796,-4.03
46.812,-5.43
46.828,-6.43
46.843,-6.95
46.859,-7.23
46.875,-7.43
46.890,-7.92
46.906,-8.84
46.921,-10.15
46.937,-11.64
46.953,-13.07
46.968,-14.34
46.984,-15.47
47.000,-16.66
47.015,-17.95
47.031,-19.21
47.046,-20.15
47.062,-20.44
47.078,-20.0
47.093,-18.92
47.109,-17.46
47.125,-15.79
47.140,-13.89
47.156,-11.67
47.171,-9.06
47.187,-6.15
47.203,-3.19
47.218,-0.46
47.234,1.92
47.250,3.96
47.265,5.86
47.281,7.72
47.296,9.61
47.312,11.38
47.328,12.79
47.343,13.72
47.359,14.06
47.375,13.76
47.390,12.89
47.406,11.45
47.421,9.56
47.437,7.35
47.453,5.04
47.468,2.84
47.484,0.91
47.500,-0.62
47.515,-1.76
47.531,-2.51
47.546,-2.99
47.562,-3.31
47.578,-3.63
47.593,-4.05
47.609,-4.63
47.625,-5.42
47.640,-6.34
47.656,-7.32
47.671,-8.23
47.687,-9.0
47.703,-9.5
47.718,-9.67
47.734,-9.45
47.750,-8.9
47.765,-8.2
47.781,-7.66
47.796,-7.62
47.812,-8.33
47.828,-9.88
47.843,-12.05
47.859,-14.37
47.875,-16.29
47.890,-17.3
47.906,-17.08
47.921,-15.62
47.937,-13.26
47.953,-10.47
47.968,-7.7
47.984,-5.26
48.000,-3.17
48.015,-1.36
48.031,0.27
48.046,1.73
48.062,3.0
48.078,4.06
48.093,4.93
48.109,5.75
48.125,6.68
48.140,7.87
48.156,9.32
48.171,10.94
48.187,12.43
48.203,13.58
48.218,14.19
48.234,14.25
48.250,13.87
48.265,13.17
48.281,12.27
48.296,11.17
48.312,9.9
48.328,8.35
48.343,6.65
48.359,4.83
48.375,3.06
48.390,1.5
48.406,0.14
48.421,-1.0
48.437,-2.02
48.453,-2.97
48.468,-3.92
48.484,-4.81
48.500,-5.77
48.515,-6.87
48.531,-8.21
48.546,-9.91
48.562,-12.0
48.578,-14.33
48.593,-16.72
48.609,-18.9
48.625,-20.49
48.640,-21.31
48.656,-21.21
48.671,-20.12
48.687,-18.15
48.703,-15.4
48.718,-12.07
48.734,-8.4
48.750,-4.64
48.765,-0.94
48.781,2.42
48.796,5.28
48.812,7.6
48.828,9.19
48.843,10.12
48.859,10.44
48.875,10.23
48.890,9.68
48.906,8.93
48.921,8.07
48.937,7.24
48.953,6.52
48.968,5.91
48.984,5.52
49.000,5.34
49.015,5.35
49.031,5.51
49.046,5.68
49.062,5.78
49.078,5.79
49.093,5.78
49.109,5.73
49.125,5.73
49.140,5.7
49.156,5.49
49.171,4.87
49.187,3.72
49.203,2.03
49.218,-0.07
49.234,-2.37
49.250,-4.73
49.265,-6.97
49.281,-9.12
49.296,-11.31
49.312,-13.65
49.328,-16.23
49.343,-18.96
49.359,-21.65
49.375,-24.04
49.390,-25.8
49.406,-26.58
49.421,-26.13
49.437,-24.29
49.453,-21.12
49.468,-16.85
49.484,-11.85
49.500,-6.62
49.515,-1.66
49.531,2.61
49.546,5.98
49.562,8.37
49.578,9.92
49.593,10.78
49.609,11.21
49.625,11.41
49.640,11.45
49.656,11.51
49.671,11.54
49.687,11.56
49.703,11.59
49.718,11.67
49.734,11.75
49.750,11.89
49.765,11.96
49.781,11.82
49.796,11.32
49.812,10.36
49.828,8.93
49.843,7.17
49.859,5.29
49.875,3.47
49.890,1.87
49.906,0.55
49.921,-0.52
49.937,-1.31
49.953,-1.88
49.968,-2.18
49.984,-2.16
50.000,-1.9
50.015,-1.55
50.031,-1.32
50.046,-1.4
50.062,-1.86
50.078,-2.48
50.093,-3.22
50.109,-3.9
50.125,-4.54
50.140,-5.3
50.156,-6.4
50.171,-7.86
50.187,-9.49
50.203,-10.88
50.218,-11.57
50.234,-11.4
50.250,-10.44
50.265,-9.01
50.281,-7.44
50.296,-5.98
50.312,-4.65
50.328,-3.35
50.343,-1.97
50.359,-0.48
50.375,1.01
50.390,2.4
50.406,3.62
50.421,4.66
50.437,5.63
50.453,6.58
50.468,7.52
50.484,8.35
50.500,8.92
50.515,9.12
50.531,8.96
50.546,8.54
50.562,8.06
50.578,7.69
50.593,7.59
50.609,7.73
50.625,7.95
50.640,8.1
50.656,8.05
50.671,7.86
50.687,7.58
50.703,7.36
50.718,7.13
50.734,6.81
50.750,6.2
50.765,5.15
50.781,3.57
50.796,1.56
50.812,-0.81
50.828,-3.43
50.843,-6.2
50.859,-9.09
50.875,-12.02
50.890,-14.9
50.906,-17.52
50.921,-19.74
50.937,-21.37
50.953,-22.29
50.968,-22.42
50.984,-21.69
51.000,-20.13
51.015,-17.83
51.031,-14.99
51.046,-11.86
51.062,-8.62
51.078,-5.47
51.093,-2.53
51.109,0.14
51.125,2.54
51.140,4.6
51.156,6.22
51.171,7.38
51.187,8.1
51.203,8.55
51.218,8.79
51.234,8.89
51.250,8.8
51.265,8.43
51.281,7.69
51.296,6.65
51.312,5.48
51.328,4.44
51.343,3.78
51.359,3.55
51.375,3.7
51.390,4.19
51.406,4.96
51.421,5.95
51.437,7.03
51.453,8.05
51.468,8.6
51.484,8.42
51.500,7.18
51.515,4.78
51.531,1.47
51.546,-2.35
51.562,-6.17
51.578,-9.51
51.593,-12.02
51.609,-13.62
51.625,-14.36
51.640,-14.52
51.656,-14.39
51.671,-14.13
51.687,-13.78
51.703,-13.19
51.718,-12.18
51.734,-10.67
51.750,-8.7
51.765,-6.39
51.781,-3.94
51.796,-1.6
51.812,0.53
51.828,2.31
51.843,3.7
51.859,4.68
51.875,5.2
51.890,5.34
51.906,5.3
51.921,5.35
51.937,5.65
51.953,6.36
51.968,7.36
51.984,8.57
52.000,9.8
52.015,10.82
52.031,11.46
52.046,11.7
52.062,11.53
52.078,10.99
52.093,10.19
52.109,9.09
52.125,7.76
52.140,6.23
52.156,4.48
52.171,2.56
52.187,0.59
52.203,-1.33
52.218,-3.05
52.234,-4.51
52.250,-5.7
52.265,-6.71
52.281,-7.65
52.296,-8.64
52.312,-9.67
52.328,-10.57
52.343,-11.21
52.359,-11.46
52.375,-11.37
52.390,-11.18
52.406,-11.2
52.421,-11.64
52.437,-12.51
52.453,-13.5
52.468,-14.24
52.484,-14.37
52.500,-13.67
52.515,-12.21
52.531,-10.23
52.546,-8.01
52.562,-5.78
52.578,-3.73
52.593,-1.79
52.609,0.06
52.625,1.86
52.640,3.63
52.656,5.23
52.671,6.5
52.687,7.26
52.703,7.35
52.718,6.73
52.734,5.59
52.750,4.14
52.765,2.69
52.781,1.53
52.796,0.81
52.812,0.54
52.828,0.73
52.843,1.29
52.859,2.2
52.875,3.44
52.890,4.87
52.906,6.26
52.921,7.34
52.937,7.87
52.953,7.73
52.968,6.99
52.984,5.75
53.000,4.17
53.015,2.38
53.031,0.47
53.046,-1.48
53.062,-3.35
53.078,-5.1
53.093,-6.72
53.109,-8.19
53.125,-9.58
53.140,-10.86
53.156,-11.94
53.171,-12.65
53.187,-12.82
53.203,-12.28
53.218,-11.09
53.234,-9.34
53.250,-7.16
53.265,-4.67
53.281,-1.98
53.296,0.83
53.312,3.57
53.328,6.04
53.343,8.04
53.359,9.27
53.375,9.67
53.390,9.28
53.406,8.3
53.421,6.96
53.437,5.57
53.453,4.36
53.468,3.45
53.484,2.94
53.500,2.75
53.515,2.71
53.531,2.59
53.546,2.24
53.562,1.62
53.578,0.89
53.593,0.2
53.609,-0.32
53.625,-0.62
53.640,-0.92
53.656,-1.48
53.671,-2.49
53.687,-3.97
53.703,-5.73
53.718,-7.41
53.734,-8.78
53.750,-9.79
53.765,-10.49
53.781,-11.18
53.796,-11.92
53.812,-12.73
53.828,-13.46
53.843,-13.96
53.859,-14.1
53.875,-13.86
53.890,-13.28
53.906,-12.34
53.921,-11.13
53.937,-9.69
53.953,-8.11
53.968,-6.37
53.984,-4.53
54.000,-2.62
54.015,-0.66
54.031,1.38
54.046,3.58
54.062,5.86
54.078,8.22
54.093,10.52
54.109,12.54
54.125,14.14
54.140,15.08
54.156,15.21
54.171,14.51
54.187,13.16
54.203,11.4
54.218,9.6
54.234,8.1
54.250,7.06
54.265,6.53
54.281,6.38
54.296,6.44
54.312,6.46
54.328,6.43
54.343,6.34
54.359,6.29
54.375,6.24
54.390,6.18
54.406,5.98
54.421,5.54
54.437,4.86
54.453,3.85
54.468,2.55
54.484,0.92
54.500,-0.92
54.515,-3.02
54.531,-5.28
54.546,-7.61
54.562,-9.83
54.578,-11.71
54.593,-13.06
54.609,-13.68
54.625,-13.55
54.640,-12.61
54.656,-11.04
54.671,-9.0
54.687,-6.7
54.703,-4.23
54.718,-1.74
54.734,0.65
54.750,2.84
54.765,4.66
54.781,6.03
54.796,7.02
54.812,7.83
54.828,8.64
54.843,9.65
54.859,10.89
54.875,12.14
54.890,13.17
54.906,13.65
54.921,13.43
54.937,12.53
54.953,11.11
54.968,9.38
54.984,7.46
55.000,5.56
55.015,3.66
55.031,1.84
55.046,0.15
55.062,-1.32
55.078,-2.47
55.093,-3.19
55.109,-3.56
55.125,-3.69
55.140,-3.7
55.156,-3.74
55.171,-3.81
55.187,-3.88
55.203,-3.89
55.218,-3.79
55.234,-3.57
55.250,-3.28
55.265,-2.94
55.281,-2.56
55.296,-2.18
55.312,-1.79
55.328,-1.46
55.343,-1.25
55.359,-1.21
55.375,-1.3
55.390,-1.39
55.406,-1.27
55.421,-0.69
55.437,0.51
55.453,2.38
55.468,4.89
55.484,7.87
55.500,11.21
55.515,14.86
55.531,18.85
55.546,23.23
55.562,28.04
55.578,33.12
55.593,38.12
55.609,42.56
55.625,45.94
55.640,47.87
55.656,48.25
55.671,47.07
55.687,44.4
55.703,40.35
55.718,35.05
55.734,28.69
55.750,21.47
55.765,13.45
55.781,4.33
55.796,-6.43
55.812,-19.47
55.828,-35.04
55.843,-52.53
55.859,-70.41
55.875,-86.63
55.890,-99.16
55.906,-106.75
55.921,-109.09
55.937,-106.6
55.953,-100.14
55.968,-90.57
55.984,-78.53
56.000,-64.83
56.015,-50.29
56.031,-35.89
56.046,-22.59
56.062,-10.97
56.078,-1.05
56.093,7.51
56.109,15.25
56.125,22.69
56.140,29.94
56.156,36.76
56.171,42.7
56.187,47.3
56.203,50.08
56.218,50.9
56.234,49.8
56.250,47.15
56.265,43.48
56.281,39.31
56.296,35.04
56.312,30.86
56.328,26.88
56.343,23.06
56.359,19.55
56.375,16.39
56.390,13.71
56.406,11.5
56.421,9.64
56.437,7.95
56.453,6.27
56.468,4.51
56.484,2.7
56.500,0.96
56.515,-0.63
56.531,-1.98
56.546,-3.1
56.562,-4.11
56.578,-5.07
56.593,-6.04
56.609,-7.18
56.625,-8.53
56.640,-10.06
56.656,-11.71
56.671,-13.34
56.687,-14.76
56.703,-15.93
56.718,-16.74
56.734,-17.24
56.750,-17.5
56.765,-17.68
56.781,-17.91
56.796,-18.27
56.812,-18.81
56.828,-19.42
56.843,-20.05
56.859,-20.37
56.875,-20.17
56.890,-19.26
56.906,-17.63
56.921,-15.47
56.937,-13.03
56.953,-10.59
56.968,-8.32
56.984,-6.31
57.000,-4.48
57.015,-2.79
57.031,-1.21
57.046,0.29
57.062,1.66
57.078,2.83
57.093,3.84
57.109,4.66
57.125,5.34
57.140,5.94
57.156,6.42
57.171,6.78
57.187,7.05
57.203,7.17
57.218,7.1
57.234,6.9
57.250,6.68
57.265,6.48
57.281,6.29
57.296,5.96
57.312,5.25
57.328,4.02
57.343,2.22
57.375,-2.34
57.390,-4.43
57.406,-6.06
57.421,-7.18
57.437,-7.91
57.453,-8.41
57.468,-8.77
57.484,-8.98
57.500,-9.02
57.515,-8.92
57.531,-8.72
57.546,-8.57
57.562,-8.71
57.578,-9.23
57.593,-10.22
57.609,-11.59
57.625,-13.15
57.640,-14.59
57.656,-15.66
57.671,-16.12
57.687,-15.77
57.703,-14.55
57.718,-12.58
57.734,-10.07
57.750,-7.29
57.765,-4.53
57.781,-1.9
57.796,0.48
57.812,2.59
57.828,4.46
57.843,6.1
57.859,7.45
57.875,8.35
57.890,8.78
57.906,8.7
57.921,8.26
57.937,7.73
57.953,7.43
57.968,7.58
57.984,8.26
58.000,9.31
58.015,10.4
58.031,11.21
58.046,11.5
58.062,11.19
58.078,10.32
58.093,9.0
58.109,7.3
58.125,5.2
58.140,2.69
58.156,-0.17
58.171,-3.2
58.187,-6.16
58.203,-8.73
58.218,-10.67
58.234,-11.92
58.250,-12.49
58.265,-12.54
58.281,-12.28
58.296,-11.8
58.312,-11.15
58.328,-10.34
58.343,-9.36
58.359,-8.27
58.375,-7.23
58.390,-6.4
58.406,-5.95
58.421,-5.9
58.437,-6.17
58.453,-6.56
58.468,-6.86
58.484,-6.88
58.500,-6.55
58.515,-5.93
58.531,-5.13
58.546,-4.37
58.562,-3.66
58.578,-2.99
58.593,-2.13
58.609,-0.91
58.625,0.73
58.640,2.65
58.656,4.43
58.671,5.7
58.687,6.24
58.703,6.1
58.718,5.53
58.734,4.88
58.750,4.34
58.765,3.98
58.781,3.8
58.796,3.76
58.812,3.86
58.828,4.2
58.843,4.81
58.859,5.56
58.875,6.25
58.890,6.58
58.906,6.35
58.921,5.59
58.937,4.36
58.953,2.69
58.968,0.65
58.984,-1.73
59.000,-4.4
59.015,-7.18
59.031,-9.81
59.046,-12.06
59.062,-13.67
59.078,-14.6
59.093,-14.93
59.109,-14.78
59.125,-14.34
59.140,-13.78
59.156,-13.16
59.171,-12.51
59.187,-11.73
59.203,-10.65
59.218,-9.17
59.234,-7.32
59.250,-5.26
59.265,-3.32
59.281,-1.71
59.296,-0.52
59.312,0.34
59.328,1.0
59.343,1.59
59.359,2.08
59.375,2.44
59.390,2.7
59.406,2.92
59.421,3.27
59.437,3.84
59.453,4.62
59.468,5.42
59.484,6.11
59.500,6.48
59.515,6.45
59.531,6.02
59.546,5.15
59.562,3.92
59.578,2.45
59.593,0.9
59.609,-0.49
59.625,-1.41
59.640,-1.81
59.656,-1.7
59.671,-1.28
59.687,-0.72
59.703,-0.13
59.718,0.47
59.734,1.04
59.750,1.45
59.765,1.57
59.781,1.21
59.796,0.29
59.812,-1.23
59.828,-3.26
59.843,-5.61
59.859,-8.0
59.875,-10.17
59.890,-11.87
59.906,-12.86
59.921,-13.01
59.937,-12.33
59.953,-10.92
59.968,-9.03
59.984,-6.89
