timestamp,value
00.000,-75.47
00.015,-48.64
00.031,-31.47
00.046,-26.47
00.062,-31.39
00.078,-40.48
00.093,-46.66
00.109,-43.7
00.125,-28.15
00.140,-0.61
00.156,34.32
00.171,69.37
00.187,97.03
00.203,112.21
00.218,113.98
00.234,105.45
00.250,92.11
00.265,78.86
00.281,67.61
00.296,57.02
00.312,44.06
00.328,26.81
00.343,6.3
00.359,-13.39
00.375,-26.93
00.390,-30.11
00.406,-21.73
00.421,-3.98
00.437,18.81
00.453,41.61
00.468,59.98
00.484,70.71
00.500,71.81
00.515,62.48
00.531,43.27
00.546,16.37
00.562,-14.05
00.578,-42.2
00.593,-62.01
00.609,-69.12
00.625,-62.56
00.640,-45.65
00.656,-25.05
00.671,-8.55
00.687,-2.35
00.703,-8.79
00.718,-25.68
00.734,-47.68
00.750,-68.52
00.765,-83.18
00.781,-89.51
00.796,-88.14
00.812,-81.64
00.828,-73.19
00.843,-65.34
00.859,-59.45
00.875,-55.69
00.890,-53.36
00.906,-51.27
00.921,-48.3
00.937,-43.46
00.953,-36.64
00.968,-28.98
00.984,-22.89
01.000,-21.21
01.015,-25.7
01.031,-35.58
01.046,-47.43
01.062,-56.37
01.078,-58.23
01.093,-51.63
01.109,-38.58
01.125,-23.45
01.140,-10.77
01.156,-3.27
01.171,-0.92
01.187,-1.74
01.203,-3.25
01.218,-4.1
01.234,-4.85
01.250,-7.49
01.265,-14.32
01.281,-26.37
01.296,-42.3
01.312,-58.21
01.328,-68.77
01.343,-69.1
01.359,-56.96
01.375,-33.96
01.390,-5.11
01.406,23.04
01.421,44.59
01.437,56.55
01.453,59.6
01.468,57.38
01.484,54.85
01.500,56.06
01.515,62.65
01.531,73.36
01.546,84.5
01.562,91.38
01.578,90.11
01.593,79.13
01.609,59.73
01.625,35.68
01.640,11.76
01.656,-7.99
01.671,-21.38
01.687,-28.52
01.703,-31.15
01.718,-31.37
01.734,-30.31
01.750,-27.7
01.765,-22.03
01.781,-11.54
01.796,4.47
01.812,25.08
01.828,47.37
01.843,66.97
01.859,79.25
01.875,80.8
01.890,70.5
01.906,50.01
01.921,23.15
01.937,-5.49
01.953,-32.01
01.968,-54.17
01.984,-71.48
02.000,-84.76
02.015,-94.96
02.031,-102.29
02.046,-105.64
02.062,-102.78
02.078,-91.36
02.093,-70.17
02.109,-40.44
02.125,-6.24
02.140,26.25
02.156,50.57
02.171,62.35
02.187,61.0
02.203,49.86
02.218,34.68
02.234,21.17
02.250,12.65
02.265,9.2
02.281,8.48
02.296,7.19
02.312,2.79
02.328,-5.64
02.343,-17.54
02.359,-31.44
02.375,-45.38
02.390,-57.15
02.406,-64.37
02.421,-64.59
02.437,-55.79
02.453,-37.26
02.468,-10.1
02.484,22.58
02.500,56.2
02.515,85.92
02.531,107.81
02.546,119.86
02.562,122.29
02.578,117.12
02.593,107.16
02.609,94.91
02.625,81.93
02.640,68.6
02.656,54.6
02.671,39.56
02.687,23.58
02.703,7.39
02.718,-7.83
02.734,-20.89
02.750,-30.88
02.765,-37.4
02.781,-40.51
02.796,-40.61
02.812,-38.26
02.828,-34.13
02.843,-28.96
02.859,-23.55
02.875,-18.67
02.890,-14.91
02.906,-12.56
02.921,-11.55
02.937,-11.45
02.953,-11.64
02.968,-11.53
02.984,-10.76
03.000,-9.3
03.015,-7.33
03.031,-5.14
03.046,-2.89
03.062,-0.73
03.078,1.18
03.093,2.42
03.109,2.35
03.125,0.33
03.140,-4.05
03.156,-10.65
03.171,-18.79
03.187,-27.46
03.203,-35.7
03.218,-42.86
03.234,-48.79
03.250,-53.78
03.265,-58.27
03.281,-62.69
03.296,-67.32
03.312,-72.24
03.328,-77.38
03.343,-82.58
03.359,-87.47
03.375,-91.47
03.390,-93.84
03.406,-93.81
03.421,-90.92
03.437,-85.24
03.453,-77.44
03.468,-68.57
03.484,-59.72
03.500,-51.66
03.515,-44.65
03.531,-38.45
03.546,-32.61
03.562,-26.77
03.578,-20.83
03.593,-14.98
03.609,-9.48
03.625,-4.5
03.640,-0.04
03.656,4.17
03.671,8.47
03.687,12.94
03.703,17.31
03.718,20.91
03.734,22.82
03.750,22.33
03.765,19.23
03.781,13.9
03.796,7.34
03.812,1.04
03.828,-3.44
03.843,-4.82
03.859,-2.46
03.875,3.29
03.890,11.01
03.906,18.4
03.921,22.95
03.937,22.86
03.953,17.97
03.968,9.94
03.984,1.83
04.000,-3.24
04.015,-3.49
04.031,0.82
04.046,7.59
04.062,14.04
04.078,18.2
04.093,19.82
04.109,20.23
04.125,21.43
04.140,24.67
04.156,29.67
04.171,34.68
04.187,37.29
04.203,35.63
04.218,29.28
04.234,19.39
04.250,8.19
04.265,-1.87
04.281,-8.95
04.296,-12.3
04.312,-12.13
04.328,-9.35
04.343,-5.12
04.359,-0.5
04.375,3.78
04.390,7.34
04.406,10.23
04.421,12.79
04.437,15.41
04.453,18.43
04.468,21.9
04.484,25.61
04.500,29.23
04.515,32.45
04.531,35.13
04.546,37.22
04.562,38.5
04.578,38.37
04.593,36.01
04.609,30.76
04.625,22.56
04.640,12.28
04.656,1.48
04.671,-8.06
04.687,-15.02
04.703,-18.94
04.718,-20.3
04.734,-20.14
04.750,-19.59
04.765,-19.42
04.781,-19.92
04.796,-20.92
04.812,-22.02
04.828,-22.83
04.843,-23.13
04.859,-22.98
04.875,-22.69
04.890,-22.65
04.906,-23.2
04.921,-24.46
04.937,-26.21
04.953,-27.91
04.968,-28.86
04.984,-28.42
05.000,-26.26
05.015,-22.55
05.031,-17.8
05.046,-12.71
05.062,-7.88
05.078,-3.63
05.093,0.1
05.109,3.66
05.125,7.49
05.140,11.93
05.156,16.99
05.171,22.37
05.187,27.42
05.203,31.36
05.218,33.38
05.234,32.95
05.250,29.99
05.265,25.09
05.281,19.57
05.296,15.23
05.312,13.99
05.328,17.21
05.343,25.04
05.359,36.1
05.375,47.7
05.390,56.62
05.406,60.25
05.421,57.57
05.437,49.43
05.453,38.13
05.468,26.4
05.484,16.43
05.500,9.17
05.515,4.28
05.531,0.68
05.546,-2.83
05.562,-7.02
05.578,-12.05
05.593,-17.57
05.609,-22.87
05.625,-27.11
05.640,-29.38
05.656,-28.93
05.671,-25.32
05.687,-18.67
05.703,-9.85
05.718,-0.49
05.734,7.42
05.750,12.33
05.765,13.73
05.781,12.55
05.796,10.82
05.812,10.71
05.828,13.33
05.843,17.99
05.859,22.28
05.875,23.1
05.890,18.18
05.906,7.2
05.921,-7.85
05.937,-23.47
05.953,-36.07
05.968,-43.23
05.984,-44.44
06.000,-40.87
06.015,-34.46
06.031,-26.92
06.046,-19.0
06.062,-10.45
06.078,-0.56
06.093,11.0
06.109,23.61
06.125,35.59
06.140,44.91
06.156,49.93
06.171,50.13
06.187,46.3
06.203,40.18
06.218,33.69
06.234,28.26
06.250,24.67
06.265,23.24
06.281,24.14
06.296,27.42
06.312,32.74
06.328,39.02
06.343,44.48
06.359,47.08
06.375,45.26
06.390,38.7
06.406,28.47
06.421,16.52
06.437,4.88
06.453,-5.25
06.468,-13.74
06.484,-21.23
06.500,-28.46
06.515,-35.46
06.531,-41.21
06.546,-43.98
06.562,-42.16
06.578,-35.31
06.593,-24.99
06.609,-14.55
06.625,-7.87
06.640,-7.46
06.656,-12.96
06.671,-21.0
06.687,-26.75
06.703,-26.32
06.718,-18.82
06.734,-6.97
06.750,4.13
06.765,9.37
06.781,5.99
06.796,-5.45
06.812,-21.34
06.828,-36.47
06.843,-45.84
06.859,-46.15
06.875,-36.8
06.890,-20.12
06.906,-0.99
06.921,14.69
06.937,22.04
06.953,19.31
06.968,8.73
06.984,-4.29
07.000,-13.64
07.015,-15.09
07.031,-7.71
07.046,6.15
07.062,22.51
07.078,37.57
07.093,48.86
07.109,55.16
07.125,55.84
07.140,50.38
07.156,38.6
07.171,21.42
07.187,1.43
07.203,-17.42
07.218,-31.06
07.234,-36.71
07.250,-33.83
07.265,-24.26
07.281,-11.19
07.296,1.86
07.312,12.21
07.328,18.49
07.343,20.71
07.359,19.73
07.375,16.8
07.390,13.03
07.406,9.14
07.421,5.43
07.437,1.84
07.453,-1.83
07.468,-5.79
07.484,-10.06
07.500,-14.5
07.515,-18.91
07.531,-23.12
07.546,-27.11
07.562,-31.03
07.578,-35.08
07.593,-39.46
07.609,-44.36
07.625,-49.91
07.640,-56.2
07.656,-63.26
07.671,-71.06
07.687,-79.55
07.703,-88.51
07.718,-97.58
07.734,-106.23
07.750,-113.71
07.765,-119.17
07.781,-121.7
07.796,-120.57
07.812,-115.36
07.828,-106.05
07.843,-92.97
07.859,-76.75
07.875,-58.12
07.890,-37.73
07.906,-16.1
07.921,6.49
07.937,29.78
07.953,53.52
07.968,77.25
07.984,100.18
08.000,121.24
08.015,139.22
08.031,153.02
08.046,161.96
08.062,165.95
08.078,165.49
08.093,161.52
08.109,155.14
08.125,147.28
08.140,138.51
08.156,128.99
08.171,118.53
08.187,106.83
08.203,93.63
08.218,78.93
08.234,63.1
08.250,46.76
08.265,30.71
08.281,15.75
08.296,2.46
08.312,-8.99
08.328,-18.85
08.343,-27.74
08.359,-36.4
08.375,-45.43
08.390,-55.04
08.406,-64.9
08.421,-74.25
08.437,-82.13
08.453,-87.71
08.468,-90.44
08.484,-90.22
08.500,-87.3
08.515,-82.19
08.531,-75.54
08.546,-68.06
08.562,-60.42
08.578,-53.18
08.593,-46.78
08.609,-41.44
08.625,-37.24
08.640,-34.15
08.656,-32.07
08.671,-30.89
08.687,-30.38
08.703,-30.24
08.718,-30.08
08.734,-29.52
08.750,-28.34
08.765,-26.51
08.781,-24.2
08.796,-21.77
08.812,-19.63
08.828,-18.16
08.843,-17.53
08.859,-17.72
08.875,-18.42
08.890,-19.2
08.906,-19.69
08.921,-19.8
08.937,-19.8
08.953,-20.29
08.968,-21.94
08.984,-25.36
09.000,-30.81
09.015,-38.15
09.031,-46.77
09.046,-55.67
09.062,-63.62
09.078,-69.38
09.093,-72.04
09.109,-71.27
09.125,-67.4
09.140,-61.13
09.156,-53.17
09.171,-43.86
09.187,-33.05
09.203,-20.44
09.218,-6.14
09.234,9.06
09.250,23.73
09.265,36.25
09.281,45.51
09.296,51.25
09.312,54.03
09.328,54.9
09.343,54.78
09.359,54.17
09.375,53.25
09.390,52.1
09.406,50.97
09.421,50.26
09.437,50.27
09.453,50.89
09.468,51.56
09.484,51.36
09.500,49.52
09.515,45.74
09.531,40.39
09.546,34.32
09.562,28.53
09.578,23.81
09.593,20.49
09.609,18.43
09.625,17.14
09.640,16.02
09.656,14.53
09.671,12.33
09.687,9.34
09.703,5.76
09.718,2.01
09.734,-1.4
09.750,-3.96
09.765,-5.26
09.781,-5.13
09.796,-3.64
09.812,-1.1
09.828,1.98
09.843,5.06
09.859,7.67
09.875,9.5
09.890,10.52
09.906,10.92
09.921,10.97
09.937,10.92
09.953,10.9
09.968,10.89
09.984,10.85
10.000,10.74
10.015,10.55
10.031,10.31
10.046,10.05
10.062,9.75
10.078,9.35
10.093,8.84
10.109,8.23
10.125,7.58
10.140,6.93
10.156,6.26
10.171,5.55
10.187,4.75
10.203,3.85
10.218,2.91
10.234,1.98
10.250,1.07
10.265,0.12
10.281,-0.97
10.296,-2.33
10.312,-3.92
10.328,-5.61
10.343,-7.14
10.359,-8.2
10.375,-8.49
10.390,-7.87
10.406,-6.25
10.421,-3.68
10.437,-0.33
10.453,3.58
10.468,7.71
10.484,11.71
10.500,15.28
10.515,18.17
10.531,20.31
10.546,21.73
10.562,22.57
10.578,23.01
10.593,23.27
10.609,23.49
10.625,23.77
10.640,24.14
10.656,24.5
10.671,24.74
10.687,24.76
10.703,24.54
10.718,24.19
10.734,23.87
10.750,23.77
10.765,23.93
10.781,24.27
10.796,24.56
10.812,24.64
10.828,24.4
10.843,23.86
10.859,23.15
10.875,22.43
10.890,21.78
10.906,21.15
10.921,20.52
10.937,19.86
10.953,19.26
10.968,18.94
10.984,19.23
11.000,20.45
11.015,22.82
11.031,26.41
11.046,31.06
11.062,36.42
11.078,42.03
11.093,47.42
11.109,52.18
11.125,56.14
11.140,59.35
11.156,61.94
11.171,64.15
11.187,66.19
11.203,68.13
11.218,69.98
11.234,71.7
11.250,73.17
11.265,74.31
11.281,75.08
11.296,75.44
11.312,75.44
11.328,75.22
11.343,74.88
11.359,74.49
11.375,73.95
11.390,73.0
11.406,71.28
11.421,68.48
11.437,64.44
11.453,59.24
11.468,53.15
11.484,46.56
11.500,39.9
11.515,33.46
11.531,27.33
11.546,21.34
11.562,15.1
11.578,8.21
11.593,0.42
11.609,-8.22
11.625,-17.3
11.640,-26.1
11.656,-33.8
11.671,-39.63
11.687,-43.09
11.703,-44.11
11.718,-43.16
11.734,-41.09
11.750,-39.07
11.765,-38.19
11.781,-39.18
11.796,-42.18
11.812,-46.69
11.828,-51.83
11.843,-56.77
11.859,-61.08
11.875,-64.79
11.890,-68.26
11.906,-71.82
11.921,-75.46
11.937,-78.83
11.953,-81.42
11.968,-82.74
11.984,-82.65
12.000,-81.3
12.015,-79.08
12.031,-76.34
12.046,-73.35
12.062,-70.2
12.078,-67.0
12.093,-63.86
12.109,-60.9
12.125,-58.2
12.140,-55.65
12.156,-53.11
12.171,-50.45
12.187,-47.68
12.203,-45.02
12.218,-42.8
12.234,-41.37
12.250,-40.9
12.265,-41.35
12.281,-42.34
12.296,-43.3
12.312,-43.61
12.328,-42.76
12.343,-40.5
12.359,-36.85
12.375,-32.06
12.390,-26.55
12.406,-20.8
12.421,-15.25
12.437,-10.37
12.453,-6.61
12.468,-4.41
12.484,-4.03
12.500,-5.39
12.515,-8.02
12.531,-11.12
12.546,-13.84
12.562,-15.48
12.578,-15.77
12.593,-14.85
12.609,-13.16
12.625,-11.16
12.640,-9.17
12.656,-7.3
12.671,-5.57
12.687,-3.99
12.703,-2.73
12.718,-2.08
12.734,-2.36
12.750,-3.71
12.765,-6.02
12.781,-8.84
12.796,-11.58
12.812,-13.67
12.828,-14.84
12.843,-15.12
12.859,-14.76
12.875,-14.13
12.890,-13.45
12.906,-12.67
12.921,-11.52
12.937,-9.65
12.953,-6.85
12.968,-3.22
12.984,0.7
13.000,4.17
13.015,6.48
13.031,7.23
13.046,6.57
13.062,5.38
13.078,5.15
13.093,7.59
13.109,14.1
13.125,25.29
13.140,40.55
13.156,58.15
13.171,75.54
13.187,89.96
13.203,99.3
13.218,102.74
13.234,101.03
13.250,96.22
13.265,90.93
13.281,87.26
13.296,85.99
13.312,86.31
13.328,86.28
13.343,83.87
13.359,77.96
13.375,68.98
13.390,58.87
13.406,50.35
13.421,45.98
13.437,47.28
13.453,54.18
13.468,64.97
13.484,76.52
13.500,84.97
13.515,86.67
13.531,79.36
13.546,62.93
13.562,39.6
13.578,13.35
13.593,-11.48
13.609,-31.49
13.625,-45.23
13.640,-53.24
13.656,-57.37
13.671,-59.72
13.687,-61.88
13.703,-64.48
13.718,-67.38
13.734,-69.97
13.750,-71.58
13.765,-71.72
13.781,-70.1
13.796,-66.52
13.812,-60.89
13.828,-53.28
13.843,-44.11
13.859,-34.26
13.875,-24.94
13.890,-17.34
13.906,-12.09
13.921,-8.84
13.937,-6.18
13.953,-2.12
13.968,5.09
13.984,15.89
14.000,28.83
14.015,40.68
14.031,47.38
14.046,45.61
14.062,34.2
14.078,14.88
14.093,-8.18
14.109,-29.77
14.125,-45.44
14.140,-52.94
14.156,-52.55
14.171,-46.5
14.187,-37.75
14.203,-28.77
14.218,-20.94
14.234,-14.51
14.250,-8.86
14.265,-2.79
14.281,5.1
14.296,16.06
14.312,30.59
14.328,47.76
14.343,64.95
14.359,78.2
14.375,83.47
14.390,78.1
14.406,62.06
14.421,38.08
14.437,10.84
14.453,-14.7
14.468,-34.78
14.484,-47.76
14.500,-54.17
14.515,-55.87
14.531,-55.12
14.546,-53.57
14.562,-51.83
14.578,-49.36
14.593,-44.98
14.609,-37.42
14.625,-25.97
14.640,-10.84
14.656,6.83
14.671,25.23
14.687,42.35
14.703,56.2
14.718,65.13
14.734,68.06
14.750,64.76
14.765,56.11
14.781,44.02
14.796,31.03
14.812,19.57
14.828,11.24
14.843,6.23
14.859,3.55
14.875,1.62
14.890,-0.93
14.906,-4.65
14.921,-9.16
14.937,-13.43
14.953,-16.34
14.968,-17.03
14.984,-15.19
15.000,-11.08
15.015,-5.57
15.031,-0.01
15.046,4.08
15.062,5.36
15.078,3.22
15.093,-2.06
15.109,-9.22
15.125,-16.65
15.140,-22.99
15.156,-27.71
15.171,-31.23
15.187,-34.43
15.203,-38.13
15.218,-42.46
15.234,-46.87
15.250,-50.3
15.265,-51.82
15.281,-51.1
15.296,-48.59
15.312,-45.33
15.328,-42.47
15.343,-40.8
15.359,-40.46
15.375,-40.9
15.390,-40.93
15.406,-39.07
15.421,-33.86
15.437,-24.37
15.453,-10.59
15.468,6.27
15.484,23.93
15.500,39.59
15.515,50.69
15.531,55.7
15.546,54.51
15.562,48.29
15.578,39.02
15.593,28.79
15.609,19.25
15.625,11.34
15.640,5.34
15.656,0.97
15.671,-2.41
15.687,-5.49
15.703,-8.85
15.718,-12.62
15.734,-16.53
15.750,-20.02
15.765,-22.66
15.781,-24.39
15.796,-25.68
15.812,-27.36
15.828,-30.19
15.843,-34.54
15.859,-40.15
15.875,-46.0
15.890,-50.48
15.906,-51.66
15.921,-47.69
15.937,-37.47
15.953,-21.35
15.968,-1.58
15.984,17.89
16.000,32.43
16.015,38.27
16.031,33.98
16.046,21.14
16.062,3.81
16.078,-13.09
16.093,-25.6
16.109,-31.99
16.125,-32.82
16.140,-29.94
16.156,-25.23
16.171,-19.75
16.187,-13.8
16.203,-7.71
16.218,-2.58
16.234,-0.45
16.250,-3.46
16.265,-12.72
16.281,-27.05
16.296,-42.69
16.312,-54.28
16.328,-56.68
16.343,-46.92
16.359,-25.38
16.375,4.22
16.390,36.12
16.406,64.07
16.421,83.01
16.437,90.04
16.453,84.83
16.468,69.5
16.484,48.24
16.500,26.45
16.515,9.48
16.531,1.15
16.546,2.4
16.562,10.87
16.578,21.75
16.593,29.79
16.609,31.46
16.625,26.27
16.640,16.62
16.656,6.32
16.671,-1.23
16.687,-4.38
16.703,-3.39
16.718,0.34
16.734,5.32
16.750,10.7
16.765,16.17
16.781,21.54
16.796,26.2
16.812,29.12
16.828,29.21
16.843,25.89
16.859,19.56
16.875,11.5
16.890,3.38
16.906,-3.43
16.921,-8.47
16.937,-12.3
16.953,-16.06
16.968,-20.89
16.984,-27.26
17.000,-34.66
17.015,-41.82
17.031,-47.33
17.046,-50.17
17.062,-50.21
17.078,-48.26
17.093,-45.63
17.109,-43.67
17.125,-43.21
17.140,-44.3
17.156,-46.36
17.171,-48.44
17.187,-49.64
17.203,-49.47
17.218,-47.96
17.234,-45.51
17.250,-42.73
17.265,-40.2
17.281,-38.28
17.296,-37.03
17.312,-36.36
17.328,-36.07
17.343,-35.98
17.359,-35.97
17.375,-35.87
17.390,-35.49
17.406,-34.6
17.421,-32.99
17.437,-30.68
17.453,-27.89
17.468,-25.06
17.484,-22.65
17.500,-21.01
17.515,-20.16
17.531,-19.87
17.546,-19.78
17.562,-19.54
17.578,-18.98
17.593,-18.06
17.609,-16.89
17.625,-15.5
17.640,-13.93
17.656,-12.09
17.671,-9.94
17.687,-7.43
17.703,-4.65
17.718,-1.76
17.734,1.0
17.750,3.37
17.765,5.17
17.781,6.31
17.796,6.83
17.812,6.82
17.828,6.45
17.843,5.83
17.859,5.07
17.875,4.26
17.890,3.45
17.906,2.67
17.921,1.86
17.937,0.8
17.953,-0.8
17.968,-3.14
17.984,-6.09
18.000,-9.21
18.015,-11.72
18.031,-12.83
18.046,-12.03
18.062,-9.22
18.078,-4.79
18.093,0.66
18.109,6.5
18.125,12.29
18.140,17.81
18.156,22.98
18.171,27.7
18.187,31.79
18.203,34.96
18.218,36.93
18.234,37.62
18.250,37.13
18.265,35.73
18.281,33.71
18.296,31.22
18.312,28.2
18.328,24.49
18.343,20.02
18.359,15.01
18.375,9.97
18.390,5.53
18.406,2.13
18.421,-0.18
18.437,-1.8
18.453,-3.34
18.468,-5.33
18.484,-7.88
18.500,-10.67
18.515,-13.06
18.531,-14.38
18.546,-14.07
18.562,-11.8
18.578,-7.39
18.593,-0.88
18.609,7.41
18.625,16.74
18.640,25.89
18.656,33.33
18.671,37.56
18.687,37.64
18.703,33.62
18.718,26.65
18.734,18.7
18.750,11.92
18.765,7.89
18.781,7.04
18.796,8.61
18.812,11.02
18.828,12.59
18.843,12.33
18.859,10.37
18.875,8.17
18.890,8.05
18.906,12.43
18.921,22.95
18.937,39.82
18.953,61.61
18.968,85.48
18.984,107.93
19.000,125.56
19.015,135.97
19.031,138.04
19.046,131.93
19.062,118.62
19.078,99.44
19.093,75.72
19.109,48.68
19.125,19.75
19.140,-9.25
19.156,-36.07
19.171,-58.36
19.187,-74.25
19.203,-82.93
19.218,-84.84
19.234,-81.43
19.250,-74.63
19.265,-66.06
19.281,-56.79
19.296,-47.26
19.312,-37.44
19.328,-27.03
19.343,-15.6
19.359,-2.78
19.375,11.61
19.390,27.16
19.406,42.74
19.421,56.37
19.437,65.74
19.453,68.99
19.468,65.47
19.484,56.04
19.500,42.74
19.515,28.1
19.531,14.28
19.546,2.57
19.562,-6.69
19.578,-13.76
19.593,-19.05
19.609,-22.89
19.625,-25.32
19.640,-26.28
19.656,-25.83
19.671,-24.35
19.687,-22.61
19.703,-21.71
19.718,-22.73
19.734,-26.35
19.750,-32.56
19.765,-40.45
19.781,-48.45
19.796,-54.91
19.812,-58.56
19.828,-59.02
19.843,-56.84
19.859,-53.31
19.875,-49.92
19.890,-47.7
19.906,-46.7
19.921,-45.86
19.937,-43.45
19.953,-37.77
19.968,-28.05
19.984,-15.05
20.000,-1.02
20.015,11.03
20.031,18.43
20.046,19.96
20.062,16.39
20.078,10.31
20.093,5.33
20.109,4.79
20.125,10.83
20.140,23.78
20.156,42.22
20.171,63.47
20.187,84.43
20.203,102.18
20.218,114.51
20.234,120.27
20.250,119.53
20.265,113.54
20.281,104.42
20.296,94.42
20.312,85.02
20.328,76.4
20.343,67.52
20.359,56.82
20.375,43.25
20.390,26.97
20.406,9.37
20.421,-7.59
20.437,-22.2
20.453,-33.6
20.468,-41.79
20.484,-47.12
20.500,-49.88
20.515,-49.89
20.531,-46.73
20.546,-39.99
20.562,-29.56
20.578,-16.02
20.593,-0.88
20.609,13.45
20.625,24.1
20.640,28.6
20.656,25.92
20.671,16.98
20.687,4.4
20.703,-8.48
20.718,-19.03
20.734,-26.11
20.750,-30.02
20.765,-31.76
20.781,-32.17
20.796,-31.5
20.812,-29.72
20.828,-27.01
20.843,-24.06
20.859,-21.89
20.875,-21.29
20.890,-22.23
20.906,-23.77
20.921,-24.71
20.937,-24.26
20.953,-22.62
20.968,-20.94
20.984,-20.61
21.000,-22.5
21.015,-26.33
21.031,-30.68
21.046,-33.63
21.062,-33.67
21.078,-30.35
21.093,-24.6
21.109,-18.37
21.125,-13.88
21.140,-12.84
21.156,-15.86
21.171,-22.39
21.187,-30.97
21.203,-39.8
21.218,-47.26
21.234,-52.3
21.250,-54.56
21.265,-54.28
21.281,-52.03
21.296,-48.49
21.312,-44.24
21.328,-39.75
21.343,-35.29
21.359,-30.99
21.375,-26.92
21.390,-23.07
21.406,-19.39
21.421,-15.83
21.437,-12.36
21.453,-9.01
21.468,-5.93
21.484,-3.31
21.500,-1.33
21.515,-0.06
21.531,0.57
21.546,0.78
21.562,0.8
21.578,0.79
21.593,0.69
21.609,0.36
21.625,-0.41
21.640,-1.68
21.656,-3.31
21.671,-5.01
21.687,-6.53
21.703,-7.84
21.718,-9.16
21.734,-10.86
21.750,-13.21
21.765,-16.21
21.781,-19.58
21.796,-22.85
21.812,-25.55
21.828,-27.38
21.843,-28.19
21.859,-27.94
21.875,-26.65
21.890,-24.46
21.906,-21.62
21.921,-18.51
21.937,-15.47
21.953,-12.72
21.968,-10.21
21.984,-7.66
22.000,-4.8
22.015,-1.54
22.031,1.93
22.046,5.26
22.062,8.07
22.078,10.2
22.093,11.63
22.109,12.51
22.125,13.0
22.140,13.27
22.156,13.45
22.171,13.72
22.187,14.28
22.203,15.22
22.218,16.5
22.234,17.86
22.250,18.94
22.265,19.45
22.281,19.31
22.296,18.63
22.312,17.69
22.328,16.75
22.343,15.96
22.359,15.32
22.375,14.71
22.390,14.01
22.406,13.16
22.421,12.21
22.437,11.37
22.453,10.96
22.468,11.29
22.484,12.62
22.500,14.91
22.515,17.82
22.531,20.7
22.546,22.78
22.562,23.5
22.578,22.79
22.593,21.09
22.609,19.13
22.625,17.67
22.640,17.11
22.656,17.44
22.671,18.38
22.687,19.56
22.703,20.79
22.718,22.16
22.734,23.82
22.750,25.89
22.765,28.32
22.781,30.88
22.796,33.3
22.812,35.26
22.828,36.45
22.843,36.49
22.859,34.89
22.875,31.14
22.890,24.91
22.906,16.29
22.921,5.82
22.937,-5.48
22.953,-16.45
22.968,-26.09
22.984,-33.77
23.000,-39.39
23.015,-43.27
23.031,-45.96
23.046,-47.92
23.062,-49.43
23.078,-50.47
23.093,-50.79
23.109,-50.01
23.125,-47.81
23.140,-44.04
23.156,-38.96
23.171,-33.12
23.187,-27.16
23.203,-21.48
23.218,-15.85
23.234,-9.52
23.250,-1.53
23.265,8.78
23.281,21.29
23.296,34.95
23.312,48.11
23.328,58.86
23.343,65.67
23.359,67.83
23.375,65.66
23.390,60.41
23.406,54.03
23.421,48.57
23.437,45.64
23.453,45.86
23.468,48.54
23.484,51.99
23.500,54.12
23.515,53.25
23.531,48.78
23.546,41.32
23.562,32.46
23.578,24.08
23.593,17.75
23.609,14.18
23.625,13.08
23.640,13.39
23.656,13.53
23.671,11.93
23.687,7.43
23.703,-0.22
23.718,-10.26
23.734,-21.07
23.750,-30.58
23.765,-36.93
23.781,-38.91
23.796,-36.41
23.812,-30.24
23.828,-21.97
23.843,-13.38
23.859,-6.09
23.875,-1.22
23.890,0.75
23.906,0.04
23.921,-2.54
23.937,-5.87
23.953,-8.8
23.968,-10.48
23.984,-10.68
24.000,-9.75
24.015,-8.46
24.031,-7.65
24.046,-8.02
24.062,-9.85
24.078,-13.12
24.093,-17.58
24.109,-22.94
24.125,-28.89
24.140,-35.05
24.156,-40.74
24.171,-44.94
24.187,-46.37
24.203,-43.76
24.218,-36.38
24.234,-24.37
24.250,-8.84
24.265,8.26
24.281,24.68
24.296,38.44
24.312,48.27
24.328,53.8
24.343,55.38
24.359,53.92
24.375,50.44
24.390,45.89
24.406,40.98
24.421,36.23
24.437,31.95
24.453,28.28
24.468,25.25
24.484,22.73
24.500,20.49
24.515,18.23
24.531,15.61
24.546,12.37
24.562,8.37
24.578,3.67
24.593,-1.54
24.609,-6.88
24.625,-11.9
24.640,-16.14
24.656,-19.39
24.671,-21.78
24.687,-23.83
24.703,-26.24
24.718,-29.63
24.734,-34.16
24.750,-39.44
24.765,-44.46
24.781,-47.92
24.796,-48.58
24.812,-45.58
24.828,-38.7
24.843,-28.53
24.859,-16.32
24.875,-3.87
24.890,6.95
24.906,14.74
24.921,19.0
24.937,20.38
24.953,20.39
24.968,20.86
24.984,23.18
25.000,27.72
25.015,33.78
25.031,39.91
25.046,44.53
25.062,46.56
25.078,45.7
25.093,42.3
25.109,37.01
25.125,30.36
25.140,22.58
25.156,13.59
25.171,3.29
25.187,-8.21
25.203,-20.48
25.218,-32.79
25.234,-44.27
25.250,-54.1
25.265,-61.57
25.281,-66.1
25.296,-67.09
25.312,-63.86
25.328,-55.74
25.343,-42.39
25.359,-23.97
25.375,-1.4
25.390,23.69
25.406,49.27
25.421,73.33
25.437,94.3
25.453,111.22
25.468,123.73
25.484,131.94
25.500,136.12
25.515,136.6
25.531,133.63
25.546,127.4
25.562,118.01
25.578,105.53
25.593,90.11
25.609,72.07
25.625,52.08
25.640,31.16
25.656,10.56
25.671,-8.54
25.687,-25.23
25.703,-38.99
25.718,-49.69
25.734,-57.36
25.750,-62.2
25.765,-64.46
25.781,-64.58
25.796,-63.19
25.812,-61.07
25.828,-58.96
25.843,-57.33
25.859,-56.39
25.875,-56.01
25.890,-56.01
25.906,-56.15
25.921,-56.27
25.937,-56.17
25.953,-55.62
25.968,-54.38
25.984,-52.26
26.000,-49.27
26.015,-45.66
26.031,-41.92
26.046,-38.61
26.062,-36.21
26.078,-35.03
26.093,-35.08
26.109,-36.08
26.125,-37.58
26.140,-39.04
26.156,-39.99
26.171,-40.15
26.187,-39.5
26.203,-38.3
26.218,-37.06
26.234,-36.26
26.250,-36.15
26.265,-36.6
26.281,-37.05
26.296,-36.7
26.312,-34.78
26.328,-30.89
26.343,-25.03
26.359,-17.72
26.375,-9.7
26.390,-1.74
26.406,5.46
26.421,11.41
26.437,15.82
26.453,18.64
26.468,20.04
26.484,20.36
26.500,20.02
26.515,19.44
26.531,18.91
26.546,18.62
26.562,18.66
26.578,19.04
26.593,19.72
26.609,20.62
26.625,21.6
26.640,22.48
26.656,23.03
26.671,23.01
26.687,22.22
26.703,20.51
26.718,17.9
26.734,14.5
26.750,10.58
26.765,6.52
26.781,2.64
26.796,-0.8
26.812,-3.71
26.828,-6.13
26.843,-8.22
26.859,-10.14
26.875,-12.09
26.890,-14.2
26.906,-16.49
26.921,-18.8
26.937,-20.8
26.953,-22.02
26.968,-21.96
26.984,-20.28
27.000,-16.91
27.015,-12.09
27.031,-6.33
27.046,-0.25
27.062,5.45
27.078,10.26
27.093,13.8
27.109,15.96
27.125,16.9
27.140,16.95
27.156,16.54
27.171,15.97
27.187,15.34
27.203,14.49
27.218,13.16
27.234,11.07
27.250,8.09
27.265,4.35
27.281,0.3
27.296,-3.27
27.312,-5.43
27.328,-5.17
27.343,-1.79
27.359,4.86
27.375,14.2
27.390,24.96
27.406,35.45
27.421,43.99
27.437,49.28
27.453,50.6
27.468,47.94
27.484,41.83
27.500,33.23
27.515,23.25
27.531,12.96
27.546,3.27
27.562,-5.16
27.578,-11.93
27.593,-16.89
27.609,-19.96
27.625,-21.22
27.640,-20.81
27.656,-18.96
27.671,-16.02
27.687,-12.41
27.703,-8.54
27.718,-4.77
27.734,-1.36
27.750,1.52
27.765,3.72
27.781,5.13
27.796,5.69
27.812,5.39
27.828,4.25
27.843,2.42
27.859,0.1
27.875,-2.45
27.890,-4.98
27.906,-7.34
27.921,-9.51
27.937,-11.63
27.953,-13.89
27.968,-16.4
27.984,-19.09
28.000,-21.61
28.015,-23.5
28.031,-24.44
28.046,-24.5
28.062,-24.24
28.078,-24.52
28.093,-26.12
28.109,-29.32
28.125,-33.71
28.140,-38.26
28.156,-41.85
28.171,-43.75
28.187,-43.94
28.203,-43.05
28.218,-42.02
28.234,-41.61
28.250,-42.16
28.265,-43.48
28.281,-44.97
28.296,-45.71
28.312,-44.66
28.328,-40.72
28.343,-33.04
28.359,-21.35
28.375,-6.19
28.390,10.89
28.406,27.59
28.421,41.36
28.437,50.0
28.453,52.31
28.468,48.45
28.484,40.0
28.500,29.68
28.515,20.68
28.531,15.79
28.546,16.6
28.562,22.94
28.578,33.0
28.593,43.81
28.609,52.24
28.625,55.76
28.640,53.19
28.656,44.91
28.671,32.66
28.687,19.2
28.703,7.5
28.718,0.04
28.734,-1.85
28.750,1.65
28.765,8.94
28.781,17.5
28.796,24.69
28.812,28.43
28.828,27.7
28.843,22.55
28.859,13.99
28.875,3.53
28.890,-7.13
28.906,-16.56
28.921,-23.77
28.937,-28.49
28.953,-31.11
28.968,-32.57
28.984,-34.02
29.000,-36.48
29.015,-40.61
29.031,-46.54
29.046,-53.82
29.062,-61.27
29.078,-67.04
29.093,-69.01
29.109,-65.34
29.125,-55.24
29.140,-39.44
29.156,-20.13
29.171,-0.45
29.187,16.49
29.203,28.56
29.218,35.27
29.234,37.79
29.250,38.33
29.265,39.23
29.281,42.06
29.296,47.15
29.312,53.6
29.328,59.79
29.343,64.09
29.359,65.39
29.375,63.3
29.390,58.02
29.406,49.9
29.421,39.2
29.437,26.03
29.453,10.59
29.468,-6.56
29.484,-24.29
29.500,-40.85
29.515,-54.16
29.531,-62.28
29.546,-64.01
29.562,-59.22
29.578,-48.95
29.593,-35.19
29.609,-20.36
29.625,-6.8
29.640,3.86
29.656,10.97
29.671,15.03
29.687,17.31
29.703,19.46
29.718,22.94
29.734,28.51
29.750,36.03
29.765,44.44
29.781,52.17
29.796,57.68
29.812,59.9
29.828,58.52
29.843,53.95
29.859,47.1
29.875,38.98
29.890,30.54
29.906,22.47
29.921,15.18
29.937,8.87
29.953,3.63
29.968,-0.59
29.984,-3.94
30.000,-6.67
30.015,-9.13
30.031,-11.63
30.046,-14.41
30.062,-17.45
30.078,-20.53
30.093,-23.2
30.109,-24.95
30.125,-25.41
30.140,-24.47
30.156,-22.35
30.171,-19.49
30.187,-16.42
30.203,-13.6
30.218,-11.22
30.234,-9.3
30.250,-7.7
30.265,-6.25
30.281,-4.87
30.296,-3.48
30.312,-2.05
30.328,-0.53
30.343,0.99
30.359,2.27
30.375,2.8
30.390,2.06
30.406,-0.25
30.421,-4.01
30.437,-8.6
30.453,-13.22
30.468,-17.21
30.484,-20.37
30.500,-22.86
30.515,-24.98
30.531,-26.86
30.546,-28.33
30.562,-29.0
30.578,-28.57
30.593,-26.99
30.609,-24.54
30.625,-21.64
30.640,-18.68
30.656,-15.9
30.671,-13.4
30.687,-11.12
30.703,-8.89
30.718,-6.31
30.734,-2.59
30.750,3.4
30.765,12.81
30.781,26.3
30.796,43.5
30.812,62.43
30.828,79.72
30.843,91.18
30.859,93.15
30.875,83.84
30.890,64.16
30.906,37.6
30.921,9.21
30.937,-16.04
30.953,-34.8
30.968,-46.04
30.984,-50.77
31.000,-51.21
31.015,-49.6
31.031,-47.62
31.046,-46.05
31.062,-44.83
31.078,-43.15
31.093,-39.75
31.109,-33.18
31.125,-22.34
31.140,-7.01
31.156,11.94
31.171,32.51
31.187,52.13
31.203,68.29
31.218,79.06
31.234,83.64
31.250,82.54
31.265,77.48
31.281,70.78
31.296,64.75
31.312,60.61
31.328,58.06
31.343,55.3
31.359,49.81
31.375,39.61
31.390,24.53
31.406,6.6
31.421,-10.5
31.437,-22.71
31.453,-27.1
31.468,-22.97
31.484,-12.09
31.500,1.83
31.515,14.18
31.531,20.94
31.546,19.73
31.562,10.57
31.578,-4.15
31.593,-20.57
31.609,-34.76
31.625,-43.9
31.640,-47.03
31.656,-44.98
31.671,-39.61
31.687,-32.9
31.703,-26.27
31.718,-20.21
31.734,-14.36
31.750,-7.89
31.765,0.2
31.781,10.44
31.796,22.43
31.812,34.55
31.828,43.99
31.843,47.45
31.859,42.43
31.875,28.45
31.890,7.76
31.906,-14.93
31.921,-33.87
31.937,-44.12
31.953,-42.96
31.968,-30.62
31.984,-9.93
32.000,14.69
32.015,38.23
32.031,56.03
32.046,64.61
32.062,62.42
32.078,50.34
32.093,31.78
32.109,11.78
32.125,-4.48
32.140,-13.4
32.156,-14.22
32.171,-9.08
32.187,-1.81
32.203,3.74
32.218,5.19
32.234,2.25
32.250,-3.84
32.265,-11.23
32.281,-18.39
32.296,-24.47
32.312,-29.21
32.328,-32.55
32.343,-34.48
32.359,-35.05
32.375,-34.49
32.390,-33.33
32.406,-32.35
32.421,-32.29
32.437,-33.59
32.453,-36.27
32.468,-39.87
32.484,-43.7
32.500,-47.13
32.515,-49.78
32.531,-51.63
32.546,-52.89
32.562,-53.96
32.578,-55.24
32.593,-57.05
32.609,-59.64
32.625,-63.14
32.640,-67.53
32.656,-72.58
32.671,-77.72
32.687,-81.95
32.703,-83.92
32.718,-82.29
32.734,-76.16
32.750,-65.55
32.765,-51.59
32.781,-36.32
32.796,-22.11
32.812,-11.06
32.828,-4.25
32.843,-1.62
32.859,-1.91
32.875,-3.2
32.890,-3.48
32.906,-1.2
32.921,4.28
32.937,12.69
32.953,22.94
32.968,33.6
32.984,43.15
33.000,50.45
33.015,54.81
33.031,56.0
33.046,54.27
33.062,50.21
33.078,44.7
33.093,38.7
33.109,33.08
33.125,28.35
33.140,24.57
33.156,21.44
33.171,18.43
33.187,15.12
33.203,11.4
33.218,7.51
33.234,3.85
33.250,0.79
33.265,-1.53
33.281,-3.27
33.296,-4.79
33.312,-6.45
33.328,-8.47
33.343,-10.89
33.359,-13.6
33.375,-16.46
33.390,-19.35
33.406,-22.14
33.421,-24.73
33.437,-26.91
33.453,-28.57
33.468,-29.62
33.484,-30.08
33.500,-29.9
33.515,-29.02
33.531,-27.23
33.546,-24.36
33.562,-20.39
33.578,-15.53
33.593,-10.21
33.609,-4.83
33.625,0.28
33.640,5.06
33.656,9.52
33.671,13.66
33.687,17.29
33.703,20.05
33.718,21.63
33.734,21.97
33.750,21.46
33.765,20.85
33.781,21.01
33.796,22.51
33.812,25.37
33.828,28.91
33.843,32.04
33.859,33.58
33.875,32.68
33.890,29.16
33.906,23.51
33.921,16.87
33.937,10.63
33.953,6.16
33.968,4.36
33.984,5.31
34.000,8.19
34.015,11.38
34.031,12.9
34.046,11.17
34.062,5.53
34.078,-3.39
34.093,-13.84
34.109,-23.52
34.125,-30.43
34.140,-33.53
34.156,-33.14
34.171,-30.71
34.187,-28.07
34.203,-26.57
34.218,-26.41
34.234,-26.63
34.250,-25.62
34.265,-22.07
34.281,-15.57
34.296,-6.84
34.312,2.74
34.328,11.85
34.343,19.8
34.359,26.76
34.375,33.46
34.390,40.62
34.406,48.5
34.421,56.66
34.437,63.96
34.453,68.93
34.468,70.2
34.484,66.99
34.500,59.53
34.515,49.16
34.531,38.01
34.546,28.39
34.562,22.0
34.578,19.42
34.593,20.11
34.609,22.73
34.625,25.68
34.640,27.67
34.656,28.0
34.671,26.79
34.687,25.02
34.703,24.27
34.718,26.36
34.734,32.6
34.750,42.97
34.765,55.82
34.781,68.09
34.796,76.15
34.812,77.21
34.828,70.6
34.843,58.19
34.859,43.92
34.875,32.29
34.890,26.46
34.906,26.82
34.921,30.87
34.937,34.36
34.953,33.27
34.968,25.71
34.984,12.66
35.000,-2.68
35.015,-16.41
35.031,-25.74
35.046,-29.8
35.062,-29.57
35.078,-26.93
35.093,-23.67
35.109,-20.97
35.125,-19.41
35.140,-19.28
35.156,-20.71
35.171,-23.61
35.187,-27.43
35.203,-31.14
35.218,-33.45
35.234,-33.18
35.250,-29.89
35.265,-24.12
35.281,-17.44
35.296,-11.94
35.312,-9.62
35.328,-11.57
35.343,-17.64
35.359,-26.55
35.375,-36.24
35.390,-44.68
35.406,-50.37
35.421,-52.76
35.437,-52.25
35.453,-49.92
35.468,-47.12
35.484,-45.03
35.500,-44.38
35.515,-45.18
35.531,-46.73
35.546,-47.93
35.562,-47.63
35.578,-45.21
35.593,-40.83
35.609,-35.33
35.625,-29.86
35.640,-25.29
35.656,-21.75
35.671,-18.71
35.687,-15.28
35.703,-10.81
35.718,-5.22
35.734,0.94
35.750,6.79
35.765,11.63
35.781,15.15
35.796,17.6
35.812,19.46
35.828,21.16
35.843,22.84
35.859,24.28
35.875,25.07
35.890,24.81
35.906,23.46
35.921,21.3
35.937,18.87
35.953,16.77
35.968,15.37
35.984,14.61
36.000,14.13
36.015,13.35
36.031,11.8
36.046,9.45
36.062,6.64
36.078,3.9
36.093,1.67
36.125,-1.44
36.140,-3.17
36.156,-5.63
36.171,-8.83
36.187,-12.24
36.203,-15.07
36.218,-16.57
36.234,-16.41
36.250,-14.68
36.265,-11.77
36.281,-8.07
36.296,-3.69
36.312,1.58
36.328,8.09
36.343,15.95
36.359,24.83
36.375,33.86
36.390,41.88
36.406,47.83
36.421,51.13
36.437,51.81
36.453,50.49
36.468,48.08
36.484,45.39
36.500,42.94
36.515,40.84
36.531,38.95
36.546,37.11
36.562,35.25
36.578,33.53
36.593,32.17
36.609,31.34
36.625,30.97
36.640,30.82
36.656,30.52
36.671,29.72
36.687,28.18
36.703,25.79
36.718,22.58
36.734,18.57
36.750,13.87
36.765,8.61
36.781,3.01
36.796,-2.69
36.812,-8.38
36.828,-14.15
36.843,-20.27
36.859,-26.94
36.875,-34.11
36.890,-41.22
36.906,-47.3
36.921,-51.26
36.937,-52.39
36.953,-50.61
36.968,-46.61
36.984,-41.52
37.000,-36.57
37.015,-32.66
37.031,-30.11
37.046,-28.78
37.062,-28.29
37.078,-28.37
37.093,-29.04
37.109,-30.58
37.125,-33.28
37.140,-37.2
37.156,-42.1
37.171,-47.38
37.187,-52.41
37.203,-56.79
37.218,-60.46
37.234,-63.67
37.250,-66.74
37.265,-69.8
37.281,-72.6
37.296,-74.61
37.312,-75.1
37.328,-73.44
37.343,-69.28
37.359,-62.52
37.375,-53.31
37.390,-41.9
37.406,-28.6
37.421,-13.77
37.437,2.04
37.453,18.1
37.468,33.42
37.484,46.97
37.500,57.96
37.515,65.98
37.531,71.17
37.546,74.18
37.562,75.79
37.578,76.79
37.593,77.73
37.609,78.91
37.625,80.44
37.640,82.32
37.656,84.47
37.671,86.74
37.687,88.97
37.703,90.85
37.718,91.98
37.734,91.76
37.750,89.47
37.765,84.52
37.781,76.59
37.796,65.92
37.812,53.26
37.828,39.71
37.843,26.36
37.859,13.92
37.875,2.62
37.890,-7.7
37.906,-17.24
37.921,-26.09
37.937,-34.07
37.953,-40.94
37.968,-46.62
37.984,-51.32
38.000,-55.47
38.015,-59.42
38.031,-63.37
38.046,-67.22
38.062,-70.73
38.078,-73.82
38.093,-76.61
38.109,-79.52
38.125,-82.95
38.140,-87.06
38.156,-91.57
38.171,-95.81
38.187,-98.91
38.203,-99.98
38.218,-98.35
38.234,-93.63
38.250,-85.74
38.265,-74.94
38.281,-61.81
38.296,-47.16
38.312,-31.89
38.328,-16.86
38.343,-2.71
38.359,10.15
38.375,21.61
38.390,31.69
38.406,40.59
38.421,48.59
38.437,56.05
38.453,63.31
38.468,70.65
38.484,78.15
38.500,85.67
38.515,92.91
38.531,99.51
38.546,105.18
38.562,109.72
38.578,112.98
38.593,114.81
38.609,115.08
38.625,113.72
38.640,110.72
38.656,106.2
38.671,100.28
38.687,92.99
38.703,84.28
38.718,74.07
38.734,62.45
38.750,49.84
38.765,36.86
38.781,24.27
38.796,12.66
38.812,2.3
38.828,-6.78
38.843,-14.71
38.859,-21.58
38.875,-27.36
38.890,-31.96
38.906,-35.37
38.921,-37.61
38.937,-38.85
38.953,-39.31
38.968,-39.24
38.984,-38.87
39.000,-38.37
39.015,-37.85
39.031,-37.29
39.046,-36.52
39.062,-35.26
39.078,-33.24
39.093,-30.39
39.109,-26.91
39.125,-23.23
39.140,-19.89
39.156,-17.36
39.171,-15.9
39.187,-15.56
39.203,-16.19
39.218,-17.62
39.234,-19.69
39.250,-22.21
39.265,-25.04
39.281,-28.05
39.296,-31.04
39.312,-33.82
39.328,-36.2
39.343,-38.0
39.359,-39.16
39.375,-39.74
39.390,-39.87
39.406,-39.78
39.421,-39.7
39.437,-39.75
39.453,-39.85
39.468,-39.73
39.484,-38.96
39.500,-37.11
39.515,-33.94
39.531,-29.56
39.546,-24.41
39.562,-19.09
39.578,-14.23
39.593,-10.19
39.609,-7.04
39.625,-4.6
39.640,-2.67
39.656,-1.17
39.671,-0.18
39.687,0.11
39.703,-0.38
39.718,-1.5
39.734,-2.94
39.750,-4.32
39.765,-5.36
39.781,-5.97
39.796,-6.27
39.812,-6.42
39.828,-6.52
39.843,-6.56
39.859,-6.4
39.875,-5.95
39.890,-5.25
39.906,-4.47
39.921,-3.86
39.937,-3.65
39.953,-3.96
39.968,-4.79
39.984,-6.01
40.000,-7.53
40.015,-9.29
40.031,-11.29
40.046,-13.62
40.062,-16.3
40.078,-19.3
40.093,-22.42
40.109,-25.34
40.125,-27.66
40.140,-28.96
40.156,-28.91
40.171,-27.37
40.187,-24.35
40.203,-20.1
40.218,-15.02
40.234,-9.56
40.250,-4.2
40.265,0.66
40.281,4.79
40.296,8.11
40.312,10.68
40.328,12.66
40.343,14.18
40.359,15.29
40.375,16.02
40.390,16.36
40.406,16.34
40.421,16.05
40.437,15.52
40.453,14.8
40.468,13.85
40.484,12.62
40.500,11.12
40.515,9.41
40.531,7.6
40.546,5.75
40.562,3.8
40.578,1.58
40.593,-1.14
40.609,-4.46
40.625,-8.35
40.640,-12.57
40.656,-16.78
40.671,-20.78
40.687,-24.51
40.703,-28.07
40.718,-31.63
40.734,-35.2
40.750,-38.51
40.765,-41.09
40.781,-42.35
40.796,-41.81
40.812,-39.29
40.828,-34.93
40.843,-29.15
40.859,-22.49
40.875,-15.48
40.890,-8.46
40.906,-1.64
40.921,4.89
40.937,11.04
40.953,16.69
40.968,21.67
40.984,25.77
41.000,28.83
41.015,30.79
41.031,31.69
41.046,31.64
41.062,30.83
41.078,29.45
41.093,27.71
41.109,25.85
41.125,24.1
41.140,22.67
41.156,21.7
41.171,21.26
41.187,21.31
41.203,21.7
41.218,22.22
41.234,22.6
41.250,22.59
41.265,22.0
41.281,20.76
41.296,18.91
41.312,16.66
41.328,14.26
41.343,11.96
41.359,9.95
41.375,8.34
41.390,7.06
41.406,5.93
41.421,4.69
41.437,3.03
41.453,0.68
41.468,-2.48
41.484,-6.36
41.500,-10.55
41.515,-14.4
41.531,-17.13
41.546,-18.03
41.562,-16.71
41.578,-13.21
41.593,-7.97
41.609,-1.72
41.625,4.74
41.640,10.74
41.656,15.86
41.671,19.92
41.687,22.97
41.703,25.23
41.718,26.98
41.734,28.53
41.750,30.08
41.765,31.72
41.781,33.36
41.796,34.8
41.812,35.84
41.828,36.37
41.843,36.44
41.859,36.26
41.875,36.14
41.890,36.35
41.906,37.05
41.921,38.19
41.937,39.47
41.953,40.47
41.968,40.71
41.984,39.81
42.000,37.64
42.015,34.35
42.031,30.36
42.046,26.21
42.062,22.36
42.078,19.1
42.093,16.51
42.109,14.46
42.125,12.73
42.140,11.03
42.156,9.08
42.171,6.56
42.187,3.27
42.203,-0.74
42.218,-5.09
42.234,-9.0
42.250,-11.57
42.265,-12.04
42.281,-10.15
42.296,-6.33
42.312,-1.53
42.328,3.1
42.343,6.59
42.359,8.52
42.375,9.07
42.390,8.84
42.406,8.57
42.421,8.84
42.437,9.91
42.453,11.73
42.468,14.04
42.484,16.53
42.500,18.93
42.515,21.08
42.531,22.87
42.546,24.25
42.562,25.19
42.578,25.63
42.593,25.53
42.609,24.76
42.625,23.16
42.640,20.52
42.656,16.57
42.671,11.16
42.687,4.29
42.703,-3.72
42.718,-12.26
42.734,-20.53
42.750,-27.82
42.765,-33.67
42.781,-37.95
42.796,-40.87
42.812,-42.74
42.828,-43.87
42.843,-44.61
42.859,-45.36
42.875,-46.66
42.890,-49.09
42.906,-53.14
42.921,-58.75
42.937,-65.27
42.953,-71.4
42.968,-75.61
42.984,-76.57
43.000,-73.58
43.015,-66.82
43.031,-57.16
43.046,-45.95
43.062,-34.56
43.078,-24.08
43.093,-15.08
43.109,-7.59
43.125,-1.31
43.140,4.17
43.156,9.14
43.171,13.67
43.187,17.62
43.203,20.78
43.218,23.02
43.234,24.36
43.250,24.93
43.265,24.94
43.281,24.59
43.296,24.01
43.312,23.28
43.328,22.45
43.343,21.53
43.359,20.58
43.375,19.6
43.390,18.58
43.406,17.48
43.421,16.22
43.437,14.73
43.453,13.0
43.468,11.07
43.484,9.02
43.500,6.99
43.515,5.06
43.531,3.27
43.546,1.59
43.562,-0.02
43.578,-1.61
43.593,-3.19
43.609,-4.76
43.625,-6.3
43.640,-7.8
43.656,-9.28
43.671,-10.74
43.687,-12.21
43.703,-13.71
43.718,-15.17
43.734,-16.47
43.750,-17.4
43.765,-17.65
43.781,-16.97
43.796,-15.25
43.812,-12.51
43.828,-9.0
43.843,-5.05
43.859,-1.03
43.875,2.77
43.890,6.13
43.906,8.97
43.921,11.23
43.937,12.83
43.953,13.72
43.968,13.8
43.984,13.07
44.000,11.6
44.015,9.6
44.031,7.35
44.046,5.17
44.062,3.29
44.078,1.83
44.093,0.83
44.109,0.23
44.125,-0.02
44.140,0.06
44.156,0.39
44.171,0.88
44.187,1.39
44.203,1.79
44.218,2.0
44.234,2.03
44.250,1.93
44.265,1.74
44.281,1.45
44.296,0.96
44.312,0.22
44.328,-0.8
44.343,-1.94
44.359,-2.98
44.375,-3.65
44.390,-3.76
44.406,-3.25
44.421,-2.2
44.437,-0.86
44.453,0.5
44.468,1.66
44.484,2.48
44.500,3.03
44.515,3.52
44.531,4.24
44.546,5.51
44.562,7.6
44.578,10.67
44.593,14.71
44.609,19.54
44.625,24.88
44.640,30.39
44.656,35.75
44.671,40.74
44.687,45.22
44.703,49.15
44.718,52.55
44.734,55.51
44.750,58.12
44.765,60.46
44.781,62.49
44.796,64.03
44.812,64.82
44.828,64.55
44.843,63.0
44.859,60.11
44.875,55.93
44.890,50.58
44.906,44.17
44.921,36.92
44.937,29.19
44.953,21.52
44.968,14.58
44.984,8.81
45.000,4.3
45.015,0.69
45.031,-2.68
45.046,-6.44
45.062,-10.94
45.078,-16.2
45.093,-21.99
45.109,-27.99
45.125,-33.89
45.140,-39.4
45.156,-44.29
45.171,-48.24
45.187,-51.04
45.203,-52.67
45.218,-53.33
45.234,-53.46
45.250,-53.58
45.265,-54.1
45.281,-55.24
45.296,-56.95
45.312,-58.98
45.328,-60.98
45.343,-62.62
45.359,-63.59
45.375,-63.66
45.390,-62.65
45.406,-60.38
45.421,-56.76
45.437,-51.79
45.453,-45.64
45.468,-38.64
45.484,-31.22
45.500,-23.86
45.515,-17.04
45.531,-11.1
45.546,-6.28
45.562,-2.64
45.578,-0.14
45.593,1.38
45.609,2.2
45.625,2.63
45.640,3.02
45.656,3.62
45.671,4.55
45.687,5.78
45.703,7.16
45.718,8.46
45.734,9.49
45.750,10.1
45.765,10.35
45.781,10.34
45.796,10.23
45.812,10.12
45.828,10.03
45.843,9.82
45.859,9.29
45.875,8.3
45.890,6.82
45.906,4.97
45.921,2.97
45.937,1.05
45.953,-0.66
45.968,-2.17
45.984,-3.57
46.000,-4.96
46.015,-6.38
46.031,-7.83
46.046,-9.27
46.062,-10.55
46.078,-11.55
46.093,-12.06
46.109,-11.87
46.125,-10.81
46.140,-8.85
46.156,-6.09
46.171,-2.81
46.187,0.66
46.203,4.06
46.218,7.19
46.234,9.94
46.250,12.27
46.265,14.13
46.281,15.49
46.296,16.36
46.312,16.81
46.328,16.95
46.343,16.93
46.359,16.83
46.375,16.62
46.390,16.26
46.406,15.7
46.421,14.97
46.437,14.2
46.453,13.49
46.468,12.96
46.484,12.61
46.500,12.38
46.515,12.2
46.531,12.03
46.546,11.85
46.562,11.67
46.578,11.45
46.593,11.15
46.609,10.72
46.625,10.13
46.640,9.4
46.656,8.56
46.671,7.64
46.687,6.66
46.703,5.65
46.718,4.67
46.734,3.75
46.750,2.91
46.765,2.16
46.781,1.47
46.796,0.84
46.812,0.25
46.828,-0.33
46.843,-0.97
46.859,-1.75
46.875,-2.72
46.890,-3.77
46.906,-4.63
46.921,-4.91
46.937,-4.22
46.953,-2.42
46.968,0.38
46.984,3.77
47.000,7.27
47.015,10.43
47.031,12.98
47.046,14.81
47.062,15.95
47.078,16.47
47.093,16.46
47.109,16.02
47.125,15.25
47.140,14.33
47.156,13.47
47.171,12.88
47.187,12.7
47.203,12.96
47.218,13.51
47.234,14.14
47.250,14.55
47.265,14.54
47.281,14.08
47.296,13.25
47.312,12.26
47.328,11.26
47.343,10.31
47.359,9.38
47.375,8.42
47.390,7.42
47.406,6.42
47.421,5.51
47.437,4.65
47.453,3.65
47.468,2.23
47.484,0.07
47.500,-2.95
47.515,-6.72
47.531,-10.85
47.546,-14.92
47.562,-18.57
47.578,-21.64
47.593,-24.13
47.609,-26.14
47.625,-27.74
47.640,-28.98
47.656,-29.79
47.671,-30.06
47.687,-29.66
47.703,-28.46
47.718,-26.35
47.734,-23.29
47.750,-19.31
47.765,-14.56
47.781,-9.28
47.796,-3.8
47.812,1.49
47.828,6.18
47.843,9.89
47.859,12.3
47.875,13.27
47.890,12.94
47.906,11.68
47.921,9.98
47.937,8.23
47.953,6.6
47.968,4.9
47.984,2.75
48.000,-0.44
48.015,-5.29
48.031,-12.37
48.046,-21.99
48.062,-34.05
48.078,-47.75
48.093,-61.61
48.109,-73.72
48.125,-82.25
48.140,-86.06
48.156,-85.01
48.171,-79.85
48.187,-71.66
48.203,-61.32
48.218,-49.13
48.234,-34.85
48.250,-18.1
48.265,1.29
48.281,22.98
48.296,46.19
48.312,69.84
48.328,92.92
48.343,114.62
48.359,134.51
48.375,152.48
48.390,168.69
48.406,183.38
48.421,196.68
48.437,208.35
48.453,217.77
48.468,223.87
48.484,225.5
48.500,221.83
48.515,212.75
48.531,199.14
48.546,182.73
48.562,165.71
48.578,149.98
48.593,136.61
48.609,125.44
48.625,115.29
48.640,104.41
48.656,91.09
48.671,74.13
48.687,53.12
48.703,28.39
48.718,0.83
48.734,-28.24
48.750,-57.38
48.765,-85.19
48.781,-110.55
48.796,-132.77
48.812,-151.57
48.828,-166.71
48.843,-177.7
48.859,-183.62
48.875,-183.27
48.890,-175.65
48.906,-160.52
48.921,-138.62
48.937,-111.61
48.953,-81.59
48.968,-50.59
48.984,-20.35
49.000,7.63
49.015,31.76
49.031,50.3
49.046,61.61
49.062,64.67
49.078,59.61
49.093,47.75
49.109,31.25
49.125,12.35
49.140,-7.24
49.156,-26.57
49.171,-45.34
49.187,-63.37
49.203,-80.17
49.218,-94.76
49.234,-105.79
49.250,-111.91
49.265,-112.3
49.281,-106.84
49.296,-96.23
49.312,-81.88
49.328,-65.57
49.343,-49.28
49.359,-34.7
49.375,-22.77
49.390,-13.24
49.406,-4.69
49.421,4.81
49.437,16.82
49.453,31.47
49.468,46.96
49.484,59.94
49.500,66.68
49.515,64.46
49.531,52.78
49.546,33.77
49.562,11.68
49.578,-8.4
49.593,-22.11
49.609,-26.91
49.625,-22.75
49.640,-11.79
49.656,2.43
49.671,16.13
49.687,26.36
49.703,31.59
49.718,31.82
49.734,28.09
49.750,21.87
49.765,14.44
49.781,6.68
49.796,-1.07
49.812,-8.73
49.828,-16.4
49.843,-24.2
49.859,-32.26
49.875,-40.77
49.890,-49.85
49.906,-59.41
49.921,-69.1
49.937,-78.22
49.953,-85.91
49.968,-91.49
49.984,-94.75
50.000,-96.1
50.015,-96.45
50.031,-96.81
50.046,-97.9
50.062,-99.73
50.078,-101.75
50.093,-103.0
50.109,-102.67
50.125,-100.46
50.140,-96.76
50.156,-92.46
50.171,-88.52
50.187,-85.4
50.203,-82.56
50.218,-78.49
50.234,-71.15
50.250,-58.81
50.265,-40.88
50.281,-18.38
50.296,6.11
50.312,29.17
50.328,47.44
50.343,58.65
50.359,62.15
50.375,59.01
50.390,51.69
50.406,43.23
50.421,36.52
50.437,33.52
50.453,34.91
50.468,40.02
50.484,47.2
50.500,54.39
50.515,59.71
50.531,62.01
50.546,60.99
50.562,57.07
50.578,51.08
50.593,43.92
50.609,36.35
50.625,28.91
50.640,21.96
50.656,15.7
50.671,10.24
50.687,5.55
50.703,1.43
50.718,-2.41
50.734,-6.22
50.750,-10.13
50.765,-14.03
50.781,-17.58
50.796,-20.33
50.812,-21.92
50.828,-22.22
50.843,-21.4
50.859,-19.86
50.875,-18.1
50.890,-16.55
50.906,-15.42
50.921,-14.63
50.937,-13.94
50.953,-13.04
50.968,-11.76
50.984,-10.16
51.000,-8.5
51.015,-7.2
51.031,-6.58
51.046,-6.83
51.062,-7.93
51.078,-9.68
51.093,-11.84
51.109,-14.12
51.125,-16.22
51.140,-17.8
51.156,-18.51
51.171,-18.1
51.187,-16.52
51.203,-13.94
51.218,-10.75
51.234,-7.44
51.250,-4.41
51.265,-1.92
51.281,-0.02
51.296,1.44
51.312,2.65
51.328,3.7
51.343,4.51
51.359,4.86
51.375,4.44
51.390,3.04
51.406,0.64
51.421,-2.64
51.437,-6.62
51.453,-11.24
51.468,-16.61
51.484,-22.99
51.500,-30.62
51.515,-39.57
51.531,-49.49
51.546,-59.61
51.562,-68.8
51.578,-75.66
51.593,-78.84
51.609,-77.31
51.625,-70.66
51.640,-59.27
51.656,-44.3
51.671,-27.4
51.687,-10.35
51.703,5.36
51.718,18.76
51.734,29.39
51.750,37.25
51.765,42.61
51.781,45.82
51.796,47.29
51.812,47.47
51.828,46.76
51.843,45.53
51.859,44.03
51.875,42.32
51.890,40.27
51.906,37.77
51.921,34.72
51.937,31.2
51.953,27.43
51.968,23.74
51.984,20.39
52.000,17.48
52.015,14.98
52.031,12.72
52.046,10.54
52.062,8.36
52.078,6.19
52.093,4.11
52.109,2.17
52.125,0.4
52.140,-1.23
52.156,-2.81
52.171,-4.38
52.187,-5.92
52.203,-7.36
52.218,-8.62
52.234,-9.71
52.250,-10.73
52.265,-11.91
52.281,-13.41
52.296,-15.31
52.312,-17.38
52.328,-19.17
52.343,-20.11
52.359,-19.71
52.375,-17.77
52.390,-14.43
52.406,-10.08
52.421,-5.17
52.437,-0.05
52.453,5.12
52.468,10.32
52.484,15.5
52.500,20.48
52.515,24.9
52.531,28.38
52.546,30.6
52.562,31.45
52.578,30.97
52.593,29.24
52.609,26.32
52.625,22.25
52.640,17.16
52.656,11.38
52.671,5.41
52.687,-0.22
52.703,-5.07
52.718,-8.91
52.734,-11.73
52.750,-13.66
52.765,-14.89
52.781,-15.61
52.796,-16.08
52.812,-16.53
52.828,-17.19
52.843,-18.1
52.859,-19.11
52.875,-19.94
52.890,-20.24
52.906,-19.91
52.921,-19.05
52.937,-18.03
52.953,-17.34
52.968,-17.44
52.984,-18.59
53.000,-20.8
53.015,-23.93
53.031,-27.7
53.046,-31.79
53.062,-35.85
53.078,-39.55
53.093,-42.53
53.109,-44.5
53.125,-45.27
53.140,-44.78
53.156,-43.13
53.171,-40.54
53.187,-37.24
53.203,-33.4
53.218,-28.96
53.234,-23.77
53.250,-17.62
53.265,-10.46
53.281,-2.58
53.296,5.43
53.312,12.85
53.328,19.15
53.343,24.2
53.359,28.32
53.375,32.14
53.390,36.28
53.406,40.99
53.421,46.01
53.437,50.53
53.453,53.52
53.468,54.12
53.484,52.02
53.500,47.63
53.515,41.94
53.531,36.09
53.546,30.92
53.562,26.54
53.578,22.3
53.593,17.11
53.609,10.0
53.625,0.71
53.640,-9.86
53.656,-19.67
53.671,-26.06
53.687,-26.58
53.703,-19.96
53.718,-6.78
53.734,10.43
53.750,27.79
53.765,41.11
53.781,47.21
53.796,44.91
53.812,35.41
53.828,21.9
53.843,8.43
53.859,-1.38
53.875,-5.36
53.890,-3.35
53.906,3.16
53.921,11.81
53.937,20.25
53.953,26.88
53.968,31.03
53.984,32.75
54.000,32.42
54.015,30.53
54.031,27.61
54.046,24.3
54.062,21.4
54.078,19.64
54.093,19.4
54.109,20.46
54.125,21.99
54.140,22.92
54.156,22.41
54.171,20.19
54.187,16.62
54.203,12.5
54.218,8.6
54.234,5.37
54.250,2.81
54.265,0.59
54.281,-1.71
54.296,-4.52
54.312,-8.06
54.328,-12.38
54.343,-17.3
54.359,-22.42
54.375,-27.06
54.390,-30.38
54.406,-31.62
54.421,-30.45
54.437,-27.19
54.453,-22.75
54.468,-18.38
54.484,-15.22
54.500,-13.85
54.515,-14.2
54.531,-15.62
54.546,-17.27
54.562,-18.58
54.578,-19.44
54.593,-20.19
54.609,-21.31
54.625,-23.05
54.640,-25.21
54.656,-27.19
54.671,-28.17
54.687,-27.52
54.703,-25.04
54.718,-20.96
54.734,-15.76
54.750,-10.06
54.765,-4.35
54.781,1.06
54.796,5.93
54.812,10.14
54.828,13.64
54.843,16.44
54.859,18.64
54.875,20.44
54.890,21.94
54.906,23.11
54.921,23.78
54.937,23.64
54.953,22.49
54.968,20.29
54.984,17.28
55.000,13.86
55.015,10.46
55.031,7.34
55.046,4.5
55.062,1.77
55.078,-1.15
55.093,-4.51
55.109,-8.41
55.125,-12.76
55.140,-17.3
55.156,-21.67
55.171,-25.41
55.187,-28.1
55.203,-29.42
55.218,-29.29
55.234,-27.93
55.250,-25.79
55.265,-23.5
55.281,-21.65
55.296,-20.63
55.312,-20.49
55.328,-21.08
55.343,-22.07
55.359,-23.16
55.375,-24.2
55.390,-25.14
55.406,-26.01
55.421,-26.74
55.437,-27.08
55.453,-26.57
55.468,-24.63
55.484,-20.73
55.500,-14.62
55.515,-6.53
55.531,2.85
55.546,12.45
55.562,21.21
55.578,28.36
55.593,33.62
55.609,37.23
55.625,39.72
55.640,41.65
55.656,43.38
55.671,44.97
55.687,46.23
55.703,46.8
55.718,46.36
55.734,44.61
55.750,41.38
55.765,36.71
55.781,30.83
55.796,24.26
55.812,17.76
55.828,12.22
55.843,8.46
55.859,7.03
55.875,7.95
55.890,10.74
55.906,14.46
55.921,18.05
55.937,20.65
55.953,21.8
55.968,21.53
55.984,20.21
56.000,18.27
56.015,15.99
56.031,13.43
56.046,10.51
56.062,7.12
56.078,3.3
56.093,-0.82
56.109,-5.01
56.125,-9.11
56.140,-13.02
56.156,-16.64
56.171,-19.82
56.187,-22.19
56.203,-23.32
56.218,-22.82
56.234,-20.55
56.250,-16.75
56.265,-11.95
56.281,-6.81
56.296,-1.82
56.312,2.82
56.328,7.22
56.343,11.59
56.359,16.13
56.375,20.89
56.390,25.83
56.406,30.88
56.421,35.93
56.437,40.96
56.453,45.93
56.468,50.85
56.484,55.85
56.500,61.05
56.515,66.43
56.531,71.65
56.546,75.92
56.562,78.13
56.578,77.24
56.593,72.8
56.609,65.3
56.625,56.13
56.640,47.2
56.656,40.15
56.671,35.75
56.687,33.61
56.703,32.39
56.718,30.31
56.734,25.79
56.750,17.89
56.765,6.45
56.781,-7.83
56.796,-23.68
56.812,-39.39
56.828,-53.15
56.843,-63.38
56.859,-69.18
56.875,-70.58
56.890,-68.55
56.906,-64.72
56.921,-60.85
56.937,-58.24
56.953,-57.3
56.968,-57.59
56.984,-58.05
57.000,-57.5
57.015,-55.21
57.031,-51.2
57.046,-46.32
57.062,-42.04
57.078,-39.8
57.093,-40.22
57.109,-42.42
57.125,-43.92
57.140,-41.22
57.156,-31.18
57.171,-12.35
57.187,14.14
57.203,44.7
57.218,74.27
57.234,97.96
57.250,112.56
57.265,117.25
57.281,113.5
57.296,104.18
57.312,92.4
57.328,80.73
57.343,70.7
57.359,62.71
57.375,56.26
57.390,50.33
57.406,43.71
57.421,35.33
57.437,24.53
57.453,11.31
57.468,-3.55
57.484,-18.62
57.500,-32.09
57.515,-42.26
57.531,-47.97
57.546,-48.91
57.562,-45.62
57.578,-39.35
57.593,-31.7
57.609,-24.37
57.625,-18.85
57.640,-16.32
57.656,-17.38
57.671,-21.88
57.687,-28.83
57.703,-36.58
57.718,-43.14
57.734,-46.82
57.750,-46.72
57.765,-42.89
57.781,-36.1
57.796,-27.41
57.812,-17.89
57.828,-8.31
57.843,0.81
57.859,9.16
57.875,16.61
57.890,23.28
57.906,29.59
57.921,36.19
57.937,43.7
57.953,52.23
57.968,60.98
57.984,68.23
58.000,71.75
58.015,69.64
58.031,61.09
58.046,46.96
58.062,29.58
58.078,12.08
58.093,-2.53
58.109,-12.37
58.125,-17.0
58.140,-17.34
58.156,-15.08
58.171,-12.16
58.187,-10.11
58.203,-9.91
58.218,-11.77
58.234,-15.3
58.250,-19.71
58.265,-24.18
58.281,-28.12
58.296,-31.29
58.312,-33.82
58.328,-36.01
58.343,-38.19
58.359,-40.47
58.375,-42.76
58.390,-44.74
58.406,-45.8
58.421,-45.14
58.437,-41.85
58.453,-35.24
58.468,-25.34
58.484,-13.39
58.500,-1.67
58.515,7.13
58.531,11.03
58.546,9.76
58.562,4.94
58.578,-0.58
58.593,-3.97
58.609,-3.8
58.625,-0.6
58.640,3.36
58.656,5.23
58.671,2.84
58.687,-4.52
58.703,-15.83
58.718,-28.84
58.734,-40.51
58.750,-47.85
58.765,-48.64
58.781,-42.05
58.796,-28.95
58.812,-11.78
58.828,6.16
58.843,21.76
58.859,33.13
58.875,40.12
58.890,43.92
58.906,46.15
58.921,47.94
58.937,49.41
58.953,50.11
58.968,49.53
58.984,47.61
59.000,44.7
59.015,40.99
59.031,36.17
59.046,29.33
59.062,19.53
59.078,6.52
59.093,-8.72
59.109,-24.19
59.125,-37.44
59.140,-46.48
59.156,-50.4
59.171,-49.5
59.187,-45.06
59.203,-38.77
59.218,-32.23
59.234,-26.49
59.250,-21.9
59.265,-18.13
59.281,-14.51
59.296,-10.41
59.312,-5.6
59.328,-0.49
59.343,4.12
59.359,7.33
59.375,8.7
59.390,8.45
59.406,7.32
59.421,6.22
59.437,5.68
59.453,5.8
59.468,6.24
59.484,6.54
59.500,6.51
59.515,6.3
59.531,6.42
59.546,7.63
59.562,10.59
59.578,15.75
59.593,23.21
59.609,32.58
59.625,42.8
59.640,52.2
59.656,58.63
59.671,60.07
59.687,55.37
59.703,44.67
59.718,29.67
59.734,13.12
59.750,-2.05
59.765,-13.7
59.781,-21.08
59.796,-24.96
59.812,-27.05
59.828,-29.21
59.843,-32.7
59.859,-37.76
59.875,-43.72
59.890,-49.43
59.906,-53.88
59.921,-56.37
59.937,-56.65
59.953,-54.6
59.968,-50.12
59.984,-43.2
