timestamp,value
00.000,132.35
00.015,116.06
00.031,102.09
00.046,88.51
00.062,73.24
00.078,54.23
00.093,29.64
00.109,-1.65
00.125,-39.21
00.140,-80.58
00.156,-121.49
00.171,-156.99
00.187,-183.47
00.203,-200.25
00.218,-210.16
00.234,-218.32
00.250,-229.84
00.265,-247.35
00.281,-269.81
00.296,-292.97
00.312,-311.16
00.328,-319.39
00.343,-314.67
00.359,-296.41
00.375,-266.17
00.390,-227.36
00.406,-185.02
00.421,-145.23
00.437,-114.11
00.453,-96.11
00.468,-92.63
00.484,-101.52
00.500,-117.77
00.515,-135.63
00.531,-150.53
00.546,-160.24
00.562,-164.68
00.578,-164.95
00.593,-162.17
00.609,-156.85
00.625,-149.01
00.640,-138.51
00.656,-125.56
00.671,-110.78
00.687,-95.0
00.703,-79.1
00.718,-63.88
00.734,-50.01
00.750,-37.93
00.765,-27.98
00.781,-20.28
00.796,-14.75
00.812,-11.06
00.828,-8.64
00.843,-6.73
00.859,-4.6
00.875,-1.69
00.890,2.24
00.906,7.04
00.921,12.25
00.937,17.28
00.953,21.63
00.968,25.01
00.984,27.41
01.000,28.93
01.015,29.67
01.031,29.59
01.046,28.54
01.062,26.36
01.078,23.02
01.093,18.65
01.109,13.58
01.125,8.21
01.140,2.95
01.156,-1.82
01.171,-5.8
01.187,-8.83
01.203,-10.95
01.218,-12.43
01.234,-13.63
01.250,-14.81
01.265,-15.83
01.281,-16.09
01.296,-14.71
01.312,-10.99
01.328,-4.82
01.343,3.13
01.359,11.51
01.375,18.71
01.390,23.1
01.406,23.38
01.421,18.62
01.437,8.57
01.453,-6.15
01.468,-23.73
01.484,-41.32
01.500,-55.65
01.515,-63.94
01.531,-64.88
01.546,-58.96
01.562,-48.09
01.578,-34.9
01.593,-21.77
01.609,-10.32
01.625,-1.23
01.640,5.59
01.656,10.76
01.671,15.15
01.687,19.7
01.703,25.13
01.718,31.72
01.734,39.1
01.750,46.3
01.765,52.04
01.781,55.19
01.796,55.1
01.812,51.8
01.828,45.93
01.843,38.44
01.859,30.26
01.875,22.02
01.890,14.01
01.906,6.21
01.921,-1.43
01.937,-8.85
01.953,-15.78
01.968,-21.85
01.984,-26.73
02.000,-30.25
02.015,-32.4
02.031,-33.3
02.046,-33.08
02.062,-31.77
02.078,-29.34
02.093,-25.74
02.109,-20.93
02.125,-14.91
02.140,-7.82
02.156,0.13
02.171,8.57
02.187,17.03
02.203,25.11
02.218,32.55
02.234,39.33
02.250,45.54
02.265,51.26
02.281,56.34
02.296,60.42
02.312,63.07
02.328,64.06
02.343,63.55
02.359,62.19
02.375,60.89
02.390,60.51
02.406,61.61
02.421,64.33
02.437,68.64
02.453,74.5
02.468,82.0
02.484,91.29
02.500,102.37
02.515,114.93
02.531,128.22
02.546,141.11
02.562,152.21
02.578,159.99
02.593,162.96
02.609,159.95
02.625,150.47
02.640,135.07
02.656,115.38
02.671,93.75
02.687,72.48
02.703,53.03
02.718,35.56
02.734,18.98
02.750,1.62
02.765,-18.04
02.781,-40.64
02.796,-65.71
02.812,-91.68
02.828,-116.18
02.843,-136.44
02.859,-149.73
02.875,-154.0
02.890,-148.54
02.906,-134.53
02.921,-115.1
02.937,-94.75
02.953,-78.2
02.968,-69.09
02.984,-68.88
03.000,-76.65
03.015,-89.51
03.031,-103.77
03.046,-116.04
03.062,-124.16
03.078,-127.47
03.093,-126.48
03.109,-122.35
03.125,-116.27
03.140,-109.12
03.156,-101.51
03.171,-93.84
03.187,-86.34
03.203,-79.13
03.218,-72.08
03.234,-64.86
03.250,-56.99
03.265,-48.09
03.281,-38.13
03.296,-27.53
03.312,-17.01
03.328,-7.35
03.343,0.86
03.359,7.46
03.375,12.64
03.390,16.84
03.406,20.56
03.421,24.24
03.437,28.06
03.453,31.94
03.468,35.53
03.484,38.37
03.500,40.14
03.515,40.7
03.531,40.28
03.546,39.2
03.562,37.79
03.578,36.14
03.593,34.08
03.609,31.35
03.625,27.74
03.640,23.36
03.656,18.61
03.671,14.15
03.687,10.62
03.703,8.45
03.718,7.7
03.734,8.02
03.750,8.78
03.765,9.25
03.781,8.84
03.796,7.28
03.812,4.61
03.828,1.2
03.843,-2.43
03.859,-5.71
03.875,-8.26
03.890,-9.94
03.906,-10.91
03.921,-11.54
03.937,-12.25
03.953,-13.37
03.968,-15.0
03.984,-17.03
04.000,-19.17
04.015,-21.14
04.031,-22.66
04.046,-23.61
04.062,-23.89
04.078,-23.48
04.093,-22.46
04.109,-20.98
04.125,-19.3
04.140,-17.75
04.156,-16.76
04.171,-16.74
04.187,-18.03
04.203,-20.78
04.218,-24.66
04.234,-28.86
04.250,-32.1
04.265,-33.01
04.281,-30.54
04.296,-24.27
04.312,-14.47
04.328,-1.96
04.343,12.2
04.359,26.96
04.375,41.35
04.390,54.42
04.406,65.14
04.421,72.47
04.437,75.6
04.453,74.15
04.468,68.4
04.484,59.26
04.500,48.04
04.515,36.14
04.531,24.75
04.546,14.73
04.562,6.54
04.578,0.24
04.593,-4.55
04.609,-8.52
04.625,-12.53
04.640,-17.21
04.656,-22.66
04.671,-28.19
04.687,-32.44
04.703,-33.74
04.718,-30.71
04.734,-22.85
04.750,-10.78
04.765,3.87
04.781,18.91
04.796,32.27
04.812,42.44
04.828,48.81
04.843,51.56
04.859,51.41
04.875,49.24
04.890,45.74
04.906,41.32
04.921,36.11
04.937,30.25
04.953,24.01
04.968,17.8
04.984,12.09
05.000,7.18
05.015,3.19
05.031,0.06
05.046,-2.29
05.062,-3.84
05.078,-4.52
05.093,-4.3
05.109,-3.28
05.125,-1.79
05.140,-0.29
05.156,0.78
05.171,1.17
05.187,0.84
05.203,-0.04
05.218,-1.22
05.234,-2.47
05.250,-3.67
05.265,-4.74
05.281,-5.7
05.296,-6.54
05.312,-7.31
05.328,-8.07
05.343,-8.92
05.359,-10.07
05.375,-11.63
05.390,-13.54
05.406,-15.49
05.421,-16.93
05.437,-17.23
05.453,-15.93
05.468,-12.97
05.484,-8.65
05.500,-3.54
05.515,1.71
05.531,6.61
05.546,10.82
05.562,14.2
05.578,16.66
05.593,18.13
05.609,18.62
05.625,18.27
05.640,17.33
05.656,16.12
05.671,14.97
05.687,14.06
05.703,13.5
05.718,13.26
05.734,13.25
05.750,13.35
05.765,13.41
05.781,13.26
05.796,12.79
05.812,11.97
05.828,10.87
05.843,9.68
05.859,8.6
05.875,7.76
05.890,7.14
05.906,6.56
05.921,5.8
05.937,4.64
05.953,3.01
05.968,1.03
05.984,-1.1
06.000,-3.1
06.015,-4.73
06.031,-5.77
06.046,-6.12
06.062,-5.74
06.078,-4.69
06.093,-3.09
06.109,-1.1
06.125,1.13
06.140,3.48
06.156,5.83
06.171,8.0
06.187,9.77
06.203,10.97
06.218,11.42
06.234,11.16
06.250,10.3
06.265,9.05
06.281,7.58
06.296,5.97
06.312,4.26
06.328,2.47
06.343,0.64
06.359,-1.14
06.375,-2.75
06.390,-4.2
06.406,-5.48
06.421,-6.63
06.437,-7.62
06.453,-8.26
06.468,-8.3
06.484,-7.53
06.500,-5.94
06.515,-3.72
06.531,-1.28
06.546,0.98
06.562,2.75
06.578,3.98
06.593,4.75
06.609,5.21
06.625,5.42
06.640,5.35
06.656,4.99
06.671,4.44
06.687,3.95
06.703,3.81
06.718,4.19
06.734,5.03
06.750,6.1
06.765,7.18
06.781,8.22
06.796,9.38
06.812,10.98
06.828,13.23
06.843,16.15
06.859,19.46
06.875,22.74
06.890,25.57
06.906,27.53
06.921,28.24
06.937,27.38
06.953,24.76
06.968,20.57
06.984,15.34
07.000,9.97
07.015,5.35
07.031,2.01
07.046,-0.17
07.062,-1.86
07.078,-3.92
07.093,-6.95
07.109,-10.96
07.125,-15.42
07.140,-19.56
07.156,-22.71
07.171,-24.64
07.187,-25.43
07.203,-25.38
07.218,-24.72
07.234,-23.56
07.250,-21.94
07.265,-19.94
07.281,-17.84
07.296,-16.03
07.312,-14.9
07.328,-14.64
07.343,-15.11
07.359,-15.92
07.375,-16.55
07.390,-16.55
07.406,-15.74
07.421,-14.21
07.437,-12.25
07.453,-10.21
07.468,-8.3
07.484,-6.53
07.500,-4.79
07.515,-2.95
07.531,-0.98
07.546,0.99
07.562,2.73
07.578,4.04
07.593,4.86
07.609,5.24
07.625,5.29
07.640,5.13
07.656,4.76
07.671,4.19
07.687,3.44
07.703,2.62
07.718,1.94
07.734,1.56
07.750,1.55
07.765,1.8
07.781,2.1
07.796,2.26
07.812,2.25
07.828,2.13
07.843,2.04
07.859,2.04
07.875,2.11
07.890,2.13
07.906,1.95
07.921,1.52
07.937,0.86
07.953,0.06
07.968,-0.78
07.984,-1.64
08.000,-2.53
08.015,-3.5
08.031,-4.59
08.046,-5.79
08.062,-7.06
08.078,-8.34
08.093,-9.53
08.109,-10.53
08.125,-11.19
08.140,-11.4
08.156,-11.09
08.171,-10.22
08.187,-8.88
08.203,-7.18
08.218,-5.26
08.234,-3.28
08.250,-1.42
08.265,0.16
08.281,1.32
08.296,1.94
08.312,2.05
08.328,1.75
08.343,1.24
08.359,0.66
08.375,0.06
08.390,-0.59
08.406,-1.43
08.421,-2.55
08.437,-3.92
08.453,-5.43
08.468,-6.91
08.484,-8.19
08.500,-9.21
08.515,-10.03
08.531,-10.77
08.546,-11.58
08.562,-12.59
08.578,-13.83
08.593,-15.25
08.609,-16.82
08.625,-18.48
08.640,-20.18
08.656,-21.91
08.671,-23.69
08.687,-25.51
08.703,-27.36
08.718,-29.17
08.734,-30.78
08.750,-31.89
08.765,-32.18
08.781,-31.25
08.796,-28.87
08.812,-24.96
08.828,-19.77
08.843,-13.76
08.859,-7.52
08.875,-1.65
08.890,3.48
08.906,7.7
08.921,11.03
08.937,13.56
08.953,15.34
08.968,16.4
08.984,16.72
09.000,16.32
09.015,15.37
09.031,14.2
09.046,13.2
09.062,12.7
09.078,12.83
09.093,13.43
09.109,14.13
09.125,14.53
09.140,14.38
09.156,13.71
09.171,12.79
09.187,11.96
09.203,11.45
09.218,11.25
09.234,11.12
09.250,10.73
09.265,9.85
09.281,8.46
09.296,6.72
09.312,4.9
09.328,3.19
09.343,1.62
09.359,0.07
09.375,-1.66
09.390,-3.66
09.406,-5.88
09.421,-8.1
09.437,-10.03
09.453,-11.47
09.468,-12.36
09.484,-12.85
09.500,-13.18
09.515,-13.55
09.531,-14.08
09.546,-14.7
09.562,-15.26
09.578,-15.59
09.593,-15.59
09.609,-15.28
09.625,-14.69
09.640,-13.91
09.656,-12.91
09.671,-11.62
09.687,-9.94
09.703,-7.83
09.718,-5.36
09.734,-2.71
09.750,-0.18
09.765,1.99
09.781,3.59
09.796,4.58
09.812,4.98
09.828,4.93
09.843,4.57
09.859,4.06
09.875,3.53
09.890,3.13
09.906,2.98
09.921,3.18
09.937,3.77
09.953,4.72
09.968,5.86
09.984,6.97
10.000,7.82
10.015,8.21
10.031,8.02
10.046,7.16
10.062,5.63
10.078,3.46
10.093,0.77
10.109,-2.2
10.125,-5.1
10.140,-7.6
10.156,-9.44
10.171,-10.51
10.187,-10.96
10.203,-11.01
10.218,-10.92
10.234,-10.86
10.250,-10.86
10.265,-10.9
10.281,-10.96
10.296,-11.09
10.312,-11.32
10.328,-11.62
10.343,-11.86
10.359,-11.82
10.375,-11.28
10.390,-10.12
10.406,-8.4
10.421,-6.3
10.437,-4.04
10.453,-1.78
10.468,0.42
10.484,2.57
10.500,4.6
10.515,6.38
10.531,7.7
10.546,8.38
10.562,8.41
10.578,7.94
10.593,7.19
10.609,6.34
10.625,5.44
10.640,4.4
10.656,3.1
10.671,1.54
10.687,-0.13
10.703,-1.72
10.718,-3.03
10.734,-4.1
10.750,-5.15
10.765,-6.47
10.781,-8.23
10.796,-10.39
10.812,-12.7
10.828,-14.8
10.843,-16.43
10.859,-17.39
10.875,-17.61
10.890,-17.07
10.906,-15.69
10.921,-13.45
10.937,-10.4
10.953,-6.74
10.968,-2.83
10.984,0.99
11.000,4.43
11.015,7.37
11.031,9.85
11.046,11.9
11.062,13.57
11.078,14.79
11.093,15.54
11.109,15.78
11.125,15.63
11.140,15.26
11.156,14.88
11.171,14.63
11.187,14.54
11.203,14.49
11.218,14.28
11.234,13.73
11.250,12.74
11.265,11.36
11.281,9.76
11.296,8.1
11.312,6.54
11.328,5.13
11.343,3.89
11.359,2.77
11.375,1.78
11.390,0.88
11.406,0.02
11.421,-0.91
11.437,-2.07
11.453,-3.53
11.468,-5.23
11.484,-6.91
11.500,-8.25
11.515,-8.91
11.531,-8.74
11.546,-7.75
11.562,-6.15
11.578,-4.23
11.593,-2.24
11.609,-0.36
11.625,1.29
11.640,2.72
11.656,3.94
11.671,5.04
11.687,6.11
11.703,7.23
11.718,8.43
11.734,9.67
11.750,10.88
11.765,12.0
11.781,13.03
11.796,14.09
11.812,15.31
11.828,16.8
11.843,18.55
11.859,20.45
11.875,22.31
11.890,23.91
11.906,25.03
11.921,25.53
11.937,25.32
11.953,24.38
11.968,22.8
11.984,20.73
12.000,18.39
12.015,16.01
12.031,13.78
12.046,11.76
12.062,9.9
12.078,8.07
12.093,6.13
12.109,3.99
12.125,1.68
12.140,-0.66
12.156,-2.84
12.171,-4.63
12.187,-5.86
12.203,-6.39
12.218,-6.18
12.234,-5.25
12.250,-3.69
12.265,-1.65
12.281,0.66
12.296,3.02
12.312,5.22
12.328,7.08
12.343,8.54
12.359,9.6
12.375,10.33
12.390,10.76
12.406,10.85
12.421,10.45
12.437,9.49
12.453,7.94
12.468,5.99
12.484,3.98
12.500,2.25
12.515,1.0
12.531,0.24
12.546,-0.25
12.562,-0.79
12.578,-1.61
12.593,-2.79
12.609,-4.26
12.625,-5.84
12.640,-7.41
12.656,-8.87
12.671,-10.17
12.687,-11.27
12.703,-12.12
12.718,-12.72
12.734,-13.16
12.750,-13.59
12.765,-14.15
12.781,-14.85
12.796,-15.45
12.812,-15.56
12.828,-14.75
12.843,-12.77
12.859,-9.72
12.875,-6.0
12.890,-2.2
12.906,1.11
12.921,3.64
12.937,5.4
12.953,6.72
12.968,7.99
12.984,9.52
13.000,11.32
13.015,13.12
13.031,14.38
13.046,14.62
13.062,13.52
13.078,11.15
13.093,7.94
13.109,4.6
13.125,1.89
13.140,0.41
13.156,0.54
13.171,2.31
13.187,5.48
13.203,9.49
13.218,13.69
13.234,17.45
13.250,20.31
13.265,22.13
13.281,23.01
13.296,23.29
13.312,23.31
13.328,23.23
13.343,22.98
13.359,22.32
13.375,20.97
13.390,18.82
13.406,16.07
13.421,13.12
13.437,10.51
13.453,8.67
13.468,7.69
13.484,7.31
13.500,7.03
13.515,6.29
13.531,4.79
13.546,2.63
13.562,0.26
13.578,-1.77
13.593,-2.97
13.609,-3.22
13.625,-2.75
13.640,-1.99
13.656,-1.31
13.671,-0.83
13.687,-0.36
13.703,0.41
13.718,1.7
13.734,3.46
13.750,5.43
13.765,7.21
13.781,8.49
13.796,9.18
13.812,9.4
13.828,9.42
13.843,9.47
13.859,9.62
13.875,9.78
13.890,9.74
13.906,9.28
13.921,8.37
13.937,7.14
13.953,5.86
13.968,4.83
13.984,4.27
14.000,4.16
14.015,4.29
14.031,4.33
14.046,4.0
14.062,3.2
14.078,2.04
14.093,0.74
14.109,-0.46
14.125,-1.42
14.140,-2.2
14.156,-2.92
14.171,-3.79
14.187,-4.96
14.203,-6.46
14.218,-8.19
14.234,-9.94
14.250,-11.35
14.265,-12.1
14.281,-11.96
14.296,-10.92
14.312,-9.13
14.328,-6.84
14.343,-4.25
14.359,-1.42
14.375,1.72
14.390,5.31
14.406,9.4
14.421,13.84
14.437,18.3
14.453,22.34
14.468,25.59
14.484,27.81
14.500,28.99
14.515,29.3
14.531,28.93
14.546,28.06
14.562,26.79
14.578,25.14
14.593,23.13
14.609,20.8
14.625,18.23
14.640,15.47
14.656,12.57
14.671,9.47
14.687,6.16
14.703,2.68
14.718,-0.88
14.734,-4.37
14.750,-7.65
14.765,-10.62
14.781,-13.21
14.796,-15.36
14.812,-17.0
14.828,-18.01
14.843,-18.33
14.859,-18.02
14.875,-17.25
14.890,-16.29
14.906,-15.41
14.921,-14.79
14.937,-14.47
14.953,-14.39
14.968,-14.35
14.984,-14.13
15.000,-13.58
15.015,-12.6
15.031,-11.19
15.046,-9.41
15.062,-7.39
15.078,-5.35
15.093,-3.52
15.109,-2.17
15.125,-1.47
15.140,-1.49
15.156,-2.14
15.171,-3.19
15.187,-4.38
15.203,-5.48
15.218,-6.37
15.234,-7.02
15.250,-7.51
15.265,-7.96
15.281,-8.56
15.296,-9.47
15.312,-10.82
15.328,-12.59
15.343,-14.65
15.359,-16.77
15.375,-18.66
15.390,-20.14
15.406,-21.08
15.421,-21.49
15.437,-21.44
15.453,-21.05
15.468,-20.47
15.484,-19.74
15.500,-18.9
15.515,-17.93
15.531,-16.76
15.546,-15.39
15.562,-13.9
15.578,-12.52
15.593,-11.5
15.609,-11.05
15.625,-11.26
15.640,-12.05
15.656,-13.25
15.671,-14.66
15.687,-16.1
15.703,-17.4
15.718,-18.38
15.734,-18.77
15.750,-18.22
15.765,-16.39
15.781,-13.09
15.796,-8.39
15.812,-2.61
15.828,3.76
15.843,10.18
15.859,16.26
15.875,21.83
15.890,26.88
15.906,31.53
15.921,35.85
15.937,39.83
15.953,43.39
15.968,46.36
15.984,48.59
16.000,49.91
16.015,50.28
16.031,49.71
16.046,48.29
16.062,46.21
16.078,43.62
16.093,40.68
16.109,37.45
16.125,33.98
16.140,30.32
16.156,26.56
16.171,22.88
16.187,19.43
16.203,16.37
16.218,13.8
16.234,11.75
16.250,10.2
16.265,9.05
16.281,8.18
16.296,7.38
16.312,6.5
16.328,5.42
16.343,4.11
16.359,2.6
16.375,0.96
16.390,-0.81
16.406,-2.71
16.421,-4.78
16.437,-7.02
16.453,-9.37
16.468,-11.76
16.484,-14.1
16.500,-16.34
16.515,-18.47
16.531,-20.5
16.546,-22.37
16.562,-23.85
16.578,-24.66
16.593,-24.45
16.609,-23.01
16.625,-20.36
16.640,-16.78
16.656,-12.76
16.671,-8.79
16.687,-5.21
16.703,-2.09
16.718,0.6
16.734,3.02
16.750,5.25
16.765,7.31
16.781,9.16
16.796,10.73
16.812,11.91
16.828,12.58
16.843,12.64
16.859,12.1
16.875,11.21
16.890,10.44
16.906,10.42
16.921,11.65
16.937,14.27
16.953,17.94
16.968,21.91
16.984,25.36
17.000,27.63
17.015,28.41
17.031,27.76
17.046,25.97
17.062,23.42
17.078,20.4
17.093,17.15
17.109,13.79
17.125,10.38
17.140,7.0
17.156,3.67
17.171,0.38
17.187,-2.9
17.203,-6.23
17.218,-9.57
17.234,-12.83
17.250,-15.87
17.265,-18.53
17.281,-20.71
17.296,-22.4
17.312,-23.65
17.328,-24.57
17.343,-25.28
17.359,-25.87
17.375,-26.35
17.390,-26.68
17.406,-26.75
17.421,-26.41
17.437,-25.48
17.453,-23.92
17.468,-21.79
17.484,-19.34
17.500,-16.9
17.515,-14.77
17.531,-13.14
17.546,-11.95
17.562,-11.02
17.578,-10.13
17.593,-9.11
17.609,-7.94
17.625,-6.65
17.640,-5.32
17.656,-3.98
17.671,-2.64
17.687,-1.29
17.703,0.03
17.718,1.23
17.734,2.18
17.750,2.81
17.765,3.07
17.781,3.04
17.796,2.79
17.812,2.44
17.828,2.04
17.843,1.62
17.859,1.16
17.875,0.67
17.890,0.15
17.906,-0.39
17.921,-0.91
17.937,-1.41
17.953,-1.95
17.968,-2.6
17.984,-3.41
18.000,-4.41
18.015,-5.52
18.031,-6.6
18.046,-7.56
18.062,-8.33
18.078,-9.02
18.093,-9.77
18.109,-10.76
18.125,-12.05
18.140,-13.58
18.156,-15.19
18.171,-16.7
18.187,-17.99
18.203,-19.01
18.218,-19.77
18.234,-20.24
18.250,-20.33
18.265,-19.93
18.281,-18.98
18.296,-17.59
18.312,-15.93
18.328,-14.23
18.343,-12.64
18.359,-11.18
18.375,-9.81
18.390,-8.41
18.406,-6.94
18.421,-5.44
18.437,-3.96
18.453,-2.52
18.468,-1.16
18.484,0.17
18.500,1.46
18.515,2.66
18.531,3.71
18.546,4.6
18.562,5.34
18.578,6.0
18.593,6.61
18.609,7.16
18.625,7.6
18.640,7.89
18.656,8.01
18.671,7.95
18.687,7.77
18.703,7.48
18.718,7.07
18.734,6.54
18.750,5.9
18.765,5.19
18.781,4.47
18.796,3.77
18.812,3.04
18.828,2.27
18.843,1.43
18.859,0.53
18.875,-0.43
18.890,-1.44
18.906,-2.57
18.921,-3.87
18.937,-5.36
18.953,-6.95
18.968,-8.52
18.984,-9.89
19.000,-10.95
19.015,-11.67
19.031,-12.08
19.046,-12.19
19.062,-11.92
19.078,-11.19
19.093,-9.98
19.109,-8.37
19.125,-6.59
19.140,-4.9
19.156,-3.46
19.171,-2.3
19.187,-1.33
19.203,-0.39
19.218,0.63
19.234,1.71
19.250,2.82
19.265,3.87
19.281,4.83
19.296,5.68
19.312,6.42
19.328,7.04
19.343,7.51
19.359,7.81
19.375,7.92
19.390,7.85
19.406,7.61
19.421,7.23
19.437,6.74
19.453,6.22
19.468,5.72
19.484,5.3
19.500,4.92
19.515,4.51
19.531,3.98
19.546,3.25
19.562,2.29
19.578,1.16
19.593,-0.09
19.609,-1.37
19.625,-2.65
19.640,-3.92
19.656,-5.2
19.671,-6.5
19.687,-7.83
19.703,-9.17
19.718,-10.5
19.734,-11.79
19.750,-13.01
19.765,-14.14
19.781,-15.13
19.796,-15.95
19.812,-16.54
19.828,-16.82
19.843,-16.72
19.859,-16.19
19.875,-15.23
19.890,-13.86
19.906,-12.11
19.921,-10.04
19.937,-7.73
19.953,-5.32
19.968,-2.98
19.984,-0.87
20.000,0.85
20.015,2.17
20.031,3.19
20.046,4.09
20.062,5.06
20.078,6.2
20.093,7.48
20.109,8.77
20.125,9.92
20.140,10.82
20.156,11.49
20.171,11.99
20.187,12.41
20.203,12.77
20.218,13.06
20.234,13.16
20.250,13.02
20.265,12.58
20.281,11.89
20.296,11.07
20.312,10.18
20.328,9.27
20.343,8.3
20.359,7.2
20.375,5.95
20.390,4.56
20.406,3.08
20.421,1.57
20.437,0.06
20.453,-1.47
20.468,-3.03
20.484,-4.6
20.500,-6.11
20.515,-7.48
20.531,-8.72
20.546,-9.89
20.562,-11.1
20.578,-12.45
20.593,-13.91
20.609,-15.33
20.625,-16.46
20.640,-17.07
20.656,-17.01
20.671,-16.28
20.687,-15.0
20.703,-13.38
20.718,-11.61
20.734,-9.83
20.750,-8.08
20.765,-6.33
20.781,-4.51
20.796,-2.6
20.812,-0.61
20.828,1.37
20.843,3.22
20.859,4.86
20.875,6.27
20.890,7.47
20.906,8.5
20.921,9.42
20.937,10.31
20.953,11.2
20.968,12.14
20.984,13.12
21.000,14.1
21.015,14.99
21.031,15.68
21.046,16.09
21.062,16.15
21.078,15.84
21.093,15.17
21.109,14.2
21.125,13.03
21.140,11.78
21.156,10.54
21.171,9.38
21.187,8.27
21.203,7.12
21.218,5.84
21.234,4.4
21.250,2.82
21.265,1.22
21.281,-0.32
21.296,-1.72
21.312,-2.99
21.328,-4.11
21.343,-5.14
21.359,-6.07
21.375,-6.95
21.390,-7.81
21.406,-8.72
21.421,-9.75
21.437,-10.91
21.453,-12.15
21.468,-13.31
21.484,-14.23
21.500,-14.75
21.515,-14.78
21.531,-14.35
21.546,-13.59
21.562,-12.64
21.578,-11.63
21.593,-10.61
21.609,-9.59
21.625,-8.61
21.640,-7.73
21.656,-7.03
21.671,-6.6
21.687,-6.46
21.703,-6.49
21.718,-6.51
21.734,-6.3
21.750,-5.73
21.765,-4.76
21.781,-3.49
21.796,-2.07
21.812,-0.64
21.828,0.75
21.843,2.09
21.859,3.44
21.875,4.82
21.890,6.24
21.906,7.66
21.921,8.99
21.937,10.17
21.953,11.09
21.968,11.71
21.984,11.99
22.000,11.93
22.015,11.59
22.031,10.99
22.046,10.2
22.062,9.18
22.078,7.86
22.093,6.18
22.109,4.09
22.125,1.7
22.140,-0.83
22.156,-3.24
22.171,-5.27
22.187,-6.82
22.203,-7.84
22.218,-8.43
22.234,-8.69
22.250,-8.67
22.265,-8.36
22.281,-7.71
22.296,-6.66
22.312,-5.23
22.328,-3.49
22.343,-1.54
22.359,0.57
22.375,2.8
22.390,5.15
22.406,7.6
22.421,10.08
22.437,12.46
22.453,14.58
22.468,16.34
22.484,17.73
22.500,18.78
22.515,19.55
22.531,20.12
22.546,20.45
22.562,20.53
22.578,20.3
22.593,19.76
22.609,18.92
22.625,17.85
22.640,16.59
22.656,15.17
22.671,13.56
22.687,11.68
22.703,9.4
22.718,6.65
22.734,3.37
22.750,-0.4
22.765,-4.58
22.781,-9.05
22.796,-13.66
22.812,-18.26
22.828,-22.74
22.843,-27.01
22.859,-31.05
22.875,-34.81
22.890,-38.26
22.906,-41.31
22.921,-43.88
22.937,-45.91
22.953,-47.39
22.968,-48.38
22.984,-48.96
23.000,-49.18
23.015,-49.0
23.031,-48.31
23.046,-47.01
23.062,-45.07
23.078,-42.58
23.093,-39.72
23.109,-36.65
23.125,-33.5
23.140,-30.36
23.156,-27.42
23.171,-24.91
23.187,-23.17
23.203,-22.43
23.218,-22.66
23.234,-23.5
23.250,-24.26
23.265,-24.18
23.281,-22.74
23.296,-19.85
23.312,-15.92
23.328,-11.66
23.343,-7.86
23.359,-5.01
23.375,-3.25
23.390,-2.32
23.406,-1.79
23.421,-1.22
23.437,-0.31
23.453,1.09
23.468,2.96
23.484,5.21
23.500,7.78
23.515,10.53
23.531,13.31
23.546,15.88
23.562,18.03
23.578,19.63
23.593,20.68
23.609,21.35
23.625,21.96
23.640,22.86
23.656,24.35
23.671,26.54
23.687,29.31
23.703,32.29
23.718,34.95
23.734,36.77
23.750,37.35
23.765,36.59
23.781,34.66
23.796,31.88
23.812,28.59
23.828,25.05
23.843,21.37
23.859,17.62
23.875,13.89
23.890,10.34
23.906,7.21
23.921,4.69
23.937,2.89
23.953,1.75
23.968,1.18
23.984,1.05
24.000,1.39
24.015,2.25
24.031,3.69
24.046,5.77
24.062,8.45
24.078,11.61
24.093,15.07
24.109,18.64
24.125,22.09
24.140,25.27
24.156,27.97
24.171,30.08
24.187,31.57
24.203,32.49
24.218,32.98
24.234,33.23
24.250,33.35
24.265,33.34
24.281,33.04
24.296,32.27
24.312,30.91
24.328,29.0
24.343,26.77
24.359,24.53
24.375,22.56
24.390,20.96
24.406,19.62
24.421,18.32
24.437,16.84
24.453,15.09
24.468,13.15
24.484,11.22
24.500,9.55
24.515,8.35
24.531,7.71
24.546,7.57
24.562,7.75
24.578,7.97
24.593,7.94
24.609,7.46
24.625,6.5
24.640,5.22
24.656,3.93
24.671,2.96
24.687,2.52
24.703,2.57
24.718,2.84
24.734,2.85
24.750,2.11
24.765,0.2
24.781,-3.04
24.796,-7.48
24.812,-12.66
24.828,-17.94
24.843,-22.65
24.859,-26.34
24.875,-28.86
24.890,-30.38
24.906,-31.22
24.921,-31.65
24.937,-31.64
24.953,-30.82
24.968,-28.63
24.984,-24.51
25.000,-18.21
25.015,-9.87
25.031,-0.08
25.046,10.34
25.062,20.51
25.078,29.67
25.093,37.28
25.109,42.94
25.125,46.33
25.140,47.14
25.156,45.15
25.171,40.29
25.187,32.8
25.203,23.32
25.218,12.8
25.234,2.32
25.250,-7.1
25.265,-14.71
25.281,-20.16
25.296,-23.41
25.312,-24.67
25.328,-24.3
25.343,-22.75
25.359,-20.55
25.375,-18.27
25.390,-16.44
25.406,-15.44
25.421,-15.39
25.437,-16.17
25.453,-17.52
25.468,-19.16
25.484,-20.9
25.500,-22.69
25.515,-24.55
25.531,-26.48
25.546,-28.45
25.562,-30.39
25.578,-32.14
25.593,-33.52
25.609,-34.23
25.625,-33.89
25.640,-32.07
25.656,-28.46
25.671,-22.97
25.687,-15.89
25.703,-7.87
25.718,0.29
25.734,7.83
25.750,14.22
25.765,19.3
25.781,23.17
25.796,26.15
25.812,28.6
25.828,30.78
25.843,32.81
25.859,34.66
25.875,36.19
25.890,37.19
25.906,37.48
25.921,36.87
25.937,35.22
25.953,32.48
25.968,28.69
25.984,24.01
26.000,18.68
26.015,12.98
26.031,7.19
26.046,1.56
26.062,-3.75
26.078,-8.58
26.093,-12.79
26.109,-16.36
26.125,-19.33
26.140,-21.82
26.156,-23.97
26.171,-25.83
26.187,-27.33
26.203,-28.3
26.218,-28.58
26.234,-28.1
26.250,-26.92
26.265,-25.19
26.281,-23.06
26.296,-20.65
26.312,-18.05
26.328,-15.32
26.343,-12.58
26.359,-9.91
26.375,-7.29
26.390,-4.64
26.406,-1.79
26.421,1.37
26.437,4.87
26.453,8.59
26.468,12.39
26.484,16.13
26.500,19.75
26.515,23.29
26.531,26.78
26.546,30.19
26.562,33.46
26.578,36.43
26.593,38.94
26.609,40.79
26.625,41.81
26.640,41.86
26.656,40.91
26.671,39.02
26.687,36.39
26.703,33.26
26.718,29.71
26.734,25.64
26.750,20.75
26.765,14.66
26.781,7.19
26.796,-1.57
26.812,-11.25
26.828,-21.24
26.843,-30.88
26.859,-39.64
26.875,-47.07
26.890,-52.79
26.906,-56.48
26.921,-57.85
26.937,-56.76
26.953,-53.32
26.968,-47.98
26.984,-41.45
27.000,-34.61
27.015,-28.24
27.031,-22.88
27.046,-18.74
27.062,-15.63
27.078,-13.22
27.093,-11.14
27.109,-9.2
27.125,-7.51
27.140,-6.36
27.156,-6.06
27.171,-6.72
27.187,-8.21
27.203,-10.04
27.218,-11.66
27.234,-12.56
27.250,-12.41
27.265,-11.2
27.281,-9.13
27.296,-6.5
27.312,-3.57
27.328,-0.57
27.343,2.43
27.359,5.43
27.375,8.42
27.390,11.39
27.406,14.27
27.421,16.97
27.437,19.4
27.453,21.55
27.468,23.41
27.484,24.97
27.500,26.16
27.515,26.84
27.531,26.88
27.546,26.21
27.562,24.82
27.578,22.85
27.593,20.46
27.609,17.87
27.625,15.24
27.640,12.65
27.656,10.14
27.671,7.69
27.687,5.27
27.703,2.86
27.718,0.55
27.734,-1.41
27.750,-2.63
27.765,-2.69
27.781,-1.32
27.796,1.43
27.812,5.2
27.828,9.41
27.843,13.43
27.859,16.84
27.875,19.52
27.890,21.66
27.906,23.57
27.921,25.5
27.937,27.46
27.953,29.22
27.968,30.36
27.984,30.48
28.000,29.27
28.015,26.69
28.031,22.92
28.046,18.39
28.062,13.6
28.078,9.01
28.093,5.01
28.109,1.8
28.125,-0.6
28.140,-2.3
28.156,-3.52
28.171,-4.52
28.187,-5.51
28.203,-6.62
28.218,-7.91
28.234,-9.41
28.250,-11.1
28.265,-12.99
28.281,-15.07
28.296,-17.33
28.312,-19.75
28.328,-22.39
28.343,-25.23
28.359,-28.24
28.375,-31.2
28.390,-33.71
28.406,-35.22
28.421,-35.14
28.437,-33.12
28.453,-29.27
28.468,-24.14
28.484,-18.65
28.500,-13.71
28.515,-9.86
28.531,-7.15
28.546,-5.17
28.562,-3.37
28.578,-1.4
28.593,0.71
28.609,2.59
28.625,3.73
28.640,3.81
28.656,2.81
28.671,1.07
28.687,-0.88
28.703,-2.57
28.718,-3.71
28.734,-4.26
28.750,-4.39
28.765,-4.39
28.781,-4.53
28.796,-4.96
28.812,-5.66
28.828,-6.51
28.843,-7.37
28.859,-8.2
28.875,-9.07
28.890,-10.19
28.906,-11.71
28.921,-13.66
28.937,-15.85
28.953,-18.0
28.968,-19.8
28.984,-20.99
29.000,-21.45
29.015,-21.08
29.031,-19.75
29.046,-17.36
29.062,-13.81
29.078,-9.21
29.093,-3.83
29.109,1.86
29.125,7.37
29.140,12.33
29.156,16.57
29.171,20.08
29.187,22.96
29.203,25.27
29.218,26.97
29.234,28.04
29.250,28.43
29.265,28.2
29.281,27.48
29.296,26.41
29.312,25.03
29.328,23.3
29.343,21.08
29.359,18.3
29.375,15.02
29.390,11.51
29.406,8.11
29.421,5.16
29.437,2.77
29.453,0.9
29.468,-0.75
29.484,-2.48
29.500,-4.51
29.515,-6.85
29.531,-9.39
29.546,-11.89
29.562,-14.13
29.578,-15.94
29.593,-17.25
29.609,-18.01
29.625,-18.24
29.640,-17.96
29.656,-17.22
29.671,-16.1
29.687,-14.66
29.703,-12.91
29.718,-10.8
29.734,-8.26
29.750,-5.24
29.765,-1.73
29.781,2.15
29.796,6.24
29.812,10.29
29.828,14.13
29.843,17.53
29.859,20.35
29.875,22.42
29.890,23.66
29.906,24.1
29.921,23.97
29.937,23.72
29.953,23.93
29.968,25.22
29.984,28.02
30.000,32.5
30.015,38.46
30.031,45.43
30.046,52.77
30.062,59.85
30.078,66.13
30.093,71.18
30.109,74.74
30.125,76.69
30.140,77.19
30.156,76.56
30.171,75.28
30.187,73.84
30.203,72.54
30.218,71.5
30.234,70.59
30.250,69.66
30.265,68.6
30.281,67.4
30.296,66.03
30.312,64.41
30.328,62.32
30.343,59.5
30.359,55.76
30.375,50.99
30.390,45.11
30.406,37.93
30.421,29.18
30.437,18.63
30.453,6.33
30.468,-7.17
30.484,-20.88
30.500,-33.66
30.515,-44.66
30.531,-53.61
30.546,-60.81
30.562,-66.94
30.578,-72.6
30.593,-78.28
30.609,-84.31
30.625,-90.93
30.640,-98.33
30.656,-106.42
30.671,-114.68
30.687,-122.03
30.703,-127.08
30.718,-128.44
30.734,-125.33
30.750,-117.79
30.765,-106.7
30.781,-93.51
30.796,-79.8
30.812,-66.95
30.828,-55.86
30.843,-46.95
30.859,-40.1
30.875,-34.87
30.890,-30.62
30.906,-26.72
30.921,-22.76
30.937,-18.55
30.953,-14.21
30.968,-10.04
30.984,-6.52
31.000,-4.2
31.015,-3.6
31.031,-4.98
31.046,-8.21
31.062,-12.69
31.078,-17.55
31.093,-21.85
31.109,-24.89
31.125,-26.45
31.140,-26.72
31.156,-26.24
31.171,-25.59
31.187,-25.22
31.203,-25.36
31.218,-25.98
31.234,-26.93
31.250,-27.94
31.265,-28.74
31.281,-29.03
31.296,-28.6
31.312,-27.31
31.328,-25.14
31.343,-22.25
31.359,-18.87
31.375,-15.34
31.390,-11.98
31.406,-8.96
31.421,-6.35
31.437,-4.12
31.453,-2.17
31.468,-0.46
31.484,1.01
31.500,2.18
31.515,2.96
31.531,3.28
31.546,3.18
31.562,2.77
31.578,2.25
31.593,1.86
31.609,1.74
31.625,1.92
31.640,2.33
31.656,2.8
31.671,3.16
31.687,3.39
31.703,3.5
31.718,3.6
31.734,3.74
31.750,3.87
31.765,3.88
31.781,3.66
31.796,3.18
31.812,2.48
31.828,1.71
31.843,0.98
31.859,0.32
31.875,-0.33
31.890,-1.07
31.906,-2.0
31.921,-3.13
31.937,-4.39
31.953,-5.69
31.968,-6.92
31.984,-7.99
32.000,-8.84
32.015,-9.36
32.031,-9.49
32.046,-9.18
32.062,-8.45
32.078,-7.41
32.093,-6.17
32.109,-4.81
32.125,-3.37
32.140,-1.85
32.156,-0.23
32.171,1.42
32.187,3.01
32.203,4.46
32.218,5.71
32.234,6.76
32.250,7.65
32.265,8.36
32.281,8.88
32.296,9.18
32.312,9.28
32.328,9.2
32.343,9.01
32.359,8.77
32.375,8.51
32.390,8.3
32.406,8.18
32.421,8.21
32.437,8.37
32.453,8.57
32.468,8.6
32.484,8.3
32.500,7.54
32.515,6.36
32.531,4.88
32.546,3.24
32.562,1.57
32.578,-0.07
32.593,-1.65
32.609,-3.17
32.625,-4.63
32.640,-6.06
32.656,-7.5
32.671,-9.04
32.687,-10.67
32.703,-12.34
32.718,-13.84
32.734,-14.89
32.750,-15.25
32.765,-14.74
32.781,-13.38
32.796,-11.38
32.812,-9.0
32.828,-6.55
32.843,-4.26
32.859,-2.21
32.875,-0.34
32.890,1.45
32.906,3.28
32.921,5.17
32.937,7.05
32.953,8.82
32.968,10.36
32.984,11.59
33.000,12.51
33.015,13.14
33.031,13.51
33.046,13.69
33.062,13.71
33.078,13.61
33.093,13.5
33.109,13.42
33.125,13.42
33.140,13.51
33.156,13.61
33.171,13.63
33.187,13.49
33.203,13.14
33.218,12.55
33.234,11.73
33.250,10.7
33.265,9.57
33.281,8.42
33.296,7.35
33.312,6.39
33.328,5.56
33.343,4.79
33.359,3.97
33.375,3.01
33.390,1.81
33.406,0.27
33.421,-1.62
33.437,-3.8
33.453,-6.09
33.468,-8.16
33.484,-9.63
33.500,-10.19
33.515,-9.73
33.531,-8.39
33.546,-6.5
33.562,-4.47
33.578,-2.56
33.593,-0.86
33.609,0.72
33.625,2.37
33.640,4.17
33.656,6.11
33.671,8.03
33.687,9.74
33.703,11.09
33.718,11.97
33.734,12.3
33.750,12.08
33.765,11.25
33.781,9.85
33.796,7.99
33.812,5.89
33.828,3.87
33.843,2.21
33.859,1.11
33.875,0.54
33.890,0.38
33.906,0.36
33.921,0.27
33.937,-0.06
33.953,-0.71
33.968,-1.65
33.984,-2.85
34.000,-4.25
34.015,-5.76
34.031,-7.22
34.046,-8.48
34.062,-9.41
34.078,-10.02
34.093,-10.45
34.109,-10.94
34.125,-11.74
34.140,-13.0
34.156,-14.71
34.171,-16.66
34.187,-18.52
34.203,-19.88
34.218,-20.41
34.234,-19.88
34.250,-18.31
34.265,-15.94
34.281,-13.19
34.296,-10.48
34.312,-8.09
34.328,-6.02
34.343,-4.1
34.359,-2.09
34.375,0.13
34.390,2.46
34.406,4.7
34.421,6.63
34.437,8.19
34.453,9.46
34.468,10.62
34.484,11.8
34.500,12.97
34.515,14.0
34.531,14.76
34.546,15.19
34.562,15.38
34.578,15.49
34.593,15.67
34.609,16.02
34.625,16.55
34.640,17.19
34.656,17.89
34.671,18.56
34.687,19.16
34.703,19.63
34.718,19.92
34.734,19.96
34.750,19.73
34.765,19.2
34.781,18.39
34.796,17.34
34.812,16.07
34.828,14.6
34.843,12.94
34.859,11.06
34.875,8.94
34.890,6.54
34.906,3.87
34.921,0.98
34.937,-1.97
34.953,-4.69
34.968,-6.84
34.984,-8.09
35.000,-8.34
35.015,-7.61
35.031,-6.14
35.046,-4.28
35.062,-2.24
35.078,-0.23
35.093,1.69
35.109,3.45
35.125,4.98
35.140,6.17
35.156,7.0
35.171,7.5
35.187,7.79
35.203,8.02
35.218,8.31
35.234,8.68
35.250,9.06
35.265,9.36
35.281,9.45
35.296,9.35
35.312,9.1
35.328,8.82
35.343,8.59
35.359,8.45
35.375,8.33
35.390,8.12
35.406,7.67
35.421,6.92
35.437,5.89
35.453,4.7
35.468,3.51
35.484,2.45
35.500,1.56
35.515,0.83
35.531,0.22
35.546,-0.3
35.562,-0.74
35.578,-1.08
35.593,-1.31
35.609,-1.47
35.625,-1.64
35.640,-1.91
35.656,-2.37
35.671,-3.1
35.687,-4.14
35.703,-5.51
35.718,-7.21
35.734,-9.12
35.750,-11.05
35.765,-12.62
35.781,-13.5
35.796,-13.43
35.812,-12.37
35.828,-10.52
35.843,-8.2
35.859,-5.74
35.875,-3.33
35.890,-1.03
35.906,1.24
35.921,3.52
35.937,5.81
35.953,8.04
35.968,10.09
35.984,11.84
36.000,13.24
36.015,14.34
36.031,15.19
36.046,15.87
36.062,16.38
36.078,16.69
36.093,16.76
36.109,16.58
36.125,16.24
36.140,15.9
36.156,15.65
36.171,15.52
36.187,15.43
36.203,15.24
36.218,14.89
36.234,14.4
36.250,13.84
36.265,13.28
36.281,12.69
36.296,11.9
36.312,10.77
36.328,9.27
36.343,7.5
36.359,5.7
36.375,4.09
36.390,2.73
36.406,1.54
36.421,0.31
36.437,-1.09
36.453,-2.65
36.468,-4.17
36.484,-5.41
36.500,-6.18
36.515,-6.46
36.531,-6.48
36.546,-6.5
36.562,-6.8
36.578,-7.42
36.593,-8.23
36.609,-8.92
36.625,-9.16
36.640,-8.75
36.656,-7.68
36.671,-6.1
36.687,-4.25
36.703,-2.31
36.718,-0.36
36.734,1.62
36.750,3.68
36.765,5.82
36.781,7.96
36.796,9.97
36.812,11.71
36.828,13.15
36.843,14.37
36.859,15.54
36.875,16.82
36.890,18.28
36.906,19.81
36.921,21.18
36.937,22.11
36.953,22.41
36.968,22.05
36.984,21.14
37.000,19.95
37.015,18.71
37.031,17.59
37.046,16.66
37.062,15.9
37.078,15.28
37.093,14.79
37.109,14.46
37.125,14.26
37.140,14.14
37.156,14.0
37.171,13.76
37.187,13.37
37.203,12.86
37.218,12.29
37.234,11.71
37.250,11.08
37.265,10.27
37.281,9.17
37.296,7.67
37.312,5.75
37.328,3.52
37.343,1.08
37.359,-1.43
37.375,-3.91
37.390,-6.35
37.406,-8.74
37.421,-11.11
37.437,-13.52
37.453,-16.01
37.468,-18.62
37.484,-21.33
37.500,-24.06
37.515,-26.62
37.531,-28.83
37.546,-30.53
37.562,-31.65
37.578,-32.2
37.593,-32.22
37.609,-31.7
37.625,-30.62
37.640,-28.95
37.656,-26.68
37.671,-23.9
37.687,-20.79
37.703,-17.64
37.718,-14.87
37.734,-12.87
37.750,-11.98
37.765,-12.29
37.781,-13.52
37.796,-15.13
37.812,-16.44
37.828,-16.87
37.843,-16.19
37.859,-14.49
37.875,-12.06
37.890,-9.23
37.906,-6.18
37.921,-2.96
37.937,0.35
37.953,3.62
37.968,6.61
37.984,9.12
38.000,11.06
38.015,12.57
38.031,13.89
38.046,15.22
38.062,16.64
38.078,17.98
38.093,19.03
38.109,19.61
38.125,19.68
38.140,19.34
38.156,18.77
38.171,18.02
38.187,17.1
38.203,15.95
38.218,14.53
38.234,12.95
38.250,11.35
38.265,9.87
38.281,8.55
38.296,7.35
38.312,6.17
38.328,4.9
38.343,3.44
38.359,1.71
38.375,-0.43
38.390,-3.13
38.406,-6.45
38.421,-10.3
38.437,-14.39
38.453,-18.31
38.468,-21.6
38.484,-23.92
38.500,-25.16
38.515,-25.42
38.531,-25.02
38.546,-24.38
38.562,-23.86
38.578,-23.69
38.593,-23.9
38.609,-24.32
38.625,-24.64
38.640,-24.55
38.656,-23.83
38.671,-22.46
38.687,-20.56
38.703,-18.36
38.718,-16.07
38.734,-13.83
38.750,-11.68
38.765,-9.59
38.781,-7.56
38.796,-5.58
38.812,-3.83
38.828,-2.49
38.843,-1.71
38.859,-1.52
38.875,-1.71
38.890,-1.98
38.906,-2.03
38.921,-1.74
38.937,-1.2
38.953,-0.69
38.968,-0.44
38.984,-0.51
39.000,-0.73
39.015,-0.78
39.031,-0.41
39.046,0.45
39.062,1.54
39.078,2.42
39.093,2.58
39.109,1.65
39.125,-0.45
39.140,-3.55
39.156,-7.12
39.171,-10.54
39.187,-13.26
39.203,-14.97
39.218,-15.81
39.234,-16.28
39.250,-17.03
39.265,-18.58
39.281,-21.02
39.296,-23.97
39.312,-26.69
39.328,-28.41
39.343,-28.61
39.359,-27.2
39.375,-24.55
39.390,-21.26
39.406,-18.01
39.421,-15.27
39.437,-13.12
39.453,-11.06
39.468,-8.02
39.484,-2.6
39.500,6.48
39.515,19.71
39.531,36.31
39.546,54.14
39.562,70.19
39.578,81.56
39.593,86.41
39.609,84.62
39.625,77.71
39.640,68.08
39.656,58.07
39.671,49.18
39.687,41.84
39.703,35.62
39.718,29.85
39.734,24.0
39.750,17.99
39.765,12.02
39.781,6.32
39.796,1.04
39.812,-3.78
39.828,-8.24
39.843,-12.49
39.859,-16.83
39.875,-21.5
39.890,-26.51
39.906,-31.47
39.921,-35.57
39.937,-37.87
39.953,-37.72
39.968,-35.21
39.984,-31.12
40.000,-26.68
40.015,-22.91
40.031,-20.22
40.046,-18.33
40.062,-16.57
40.078,-14.36
40.093,-11.52
40.109,-8.31
40.125,-5.1
40.140,-2.14
40.156,0.54
40.171,3.0
40.187,5.23
40.203,7.01
40.218,8.08
40.234,8.23
40.250,7.53
40.265,6.43
40.281,5.54
40.296,5.46
40.312,6.57
40.328,8.85
40.343,11.99
40.359,15.5
40.375,18.82
40.390,21.58
40.406,23.59
40.421,24.93
40.437,25.9
40.453,26.89
40.468,28.21
40.484,29.9
40.500,31.75
40.515,33.32
40.531,34.22
40.546,34.24
40.562,33.45
40.578,32.18
40.593,30.72
40.609,29.29
40.625,27.93
40.640,26.49
40.656,24.8
40.671,22.71
40.687,20.16
40.703,17.19
40.718,13.89
40.734,10.45
40.750,7.1
40.765,4.08
40.781,1.55
40.796,-0.42
40.812,-1.92
40.828,-3.09
40.843,-4.11
40.859,-5.18
40.875,-6.48
40.890,-8.12
40.906,-10.17
40.921,-12.62
40.937,-15.34
40.953,-18.15
40.968,-20.82
40.984,-23.17
41.000,-25.09
41.015,-26.53
41.031,-27.53
41.046,-28.13
41.062,-28.41
41.078,-28.45
41.093,-28.4
41.109,-28.45
41.125,-28.76
41.140,-29.41
41.156,-30.27
41.171,-31.06
41.187,-31.35
41.203,-30.69
41.218,-28.78
41.234,-25.52
41.250,-21.06
41.265,-15.74
41.281,-10.02
41.296,-4.4
41.312,0.7
41.328,4.98
41.343,8.3
41.359,10.7
41.375,12.34
41.390,13.46
41.406,14.25
41.421,14.82
41.437,15.21
41.453,15.39
41.468,15.31
41.484,14.95
41.500,14.28
41.515,13.33
41.531,12.13
41.546,10.77
41.562,9.36
41.578,8.06
41.593,7.01
41.609,6.33
41.625,6.01
41.640,5.92
41.656,5.88
41.671,5.7
41.687,5.3
41.703,4.7
41.718,4.01
41.734,3.38
41.750,2.87
41.765,2.48
41.781,2.15
41.796,1.83
41.812,1.52
41.828,1.21
41.843,0.86
41.859,0.41
41.875,-0.22
41.890,-1.03
41.906,-1.96
41.921,-2.87
41.937,-3.68
41.953,-4.33
41.968,-4.9
41.984,-5.44
42.000,-5.97
42.015,-6.41
42.031,-6.71
42.046,-6.87
42.062,-6.99
42.078,-7.25
42.093,-7.75
42.109,-8.53
42.125,-9.44
42.140,-10.26
42.156,-10.74
42.171,-10.68
42.187,-9.95
42.203,-8.5
42.218,-6.4
42.234,-3.82
42.250,-1.05
42.265,1.56
42.281,3.69
42.296,5.13
42.312,5.9
42.328,6.18
42.343,6.28
42.359,6.4
42.375,6.69
42.390,7.07
42.406,7.45
42.421,7.69
42.437,7.75
42.453,7.63
42.468,7.36
42.484,6.95
42.500,6.36
42.515,5.6
42.531,4.72
42.546,3.87
42.562,3.24
42.578,2.98
42.593,3.12
42.609,3.53
42.625,3.99
42.640,4.33
42.656,4.44
42.671,4.35
42.687,4.16
42.703,3.96
42.718,3.74
42.734,3.46
42.750,3.04
42.765,2.5
42.781,1.91
42.796,1.39
42.812,1.0
42.828,0.7
42.843,0.36
42.859,-0.13
42.875,-0.83
42.890,-1.71
42.906,-2.65
42.921,-3.54
42.937,-4.31
42.953,-4.97
42.968,-5.57
42.984,-6.22
43.000,-7.02
43.015,-8.02
43.031,-9.24
43.046,-10.55
43.062,-11.74
43.078,-12.56
43.093,-12.76
43.109,-12.23
43.125,-11.0
43.140,-9.26
43.156,-7.32
43.171,-5.45
43.187,-3.83
43.203,-2.5
43.218,-1.4
43.234,-0.41
43.250,0.51
43.265,1.38
43.281,2.19
43.296,2.92
43.312,3.59
43.328,4.2
43.343,4.79
43.359,5.35
43.375,5.87
43.390,6.34
43.406,6.77
43.421,7.2
43.437,7.64
43.453,8.04
43.468,8.31
43.484,8.39
43.500,8.26
43.515,8.01
43.531,7.74
43.546,7.51
43.562,7.33
43.578,7.16
43.593,6.93
43.609,6.67
43.625,6.4
43.640,6.19
43.656,6.06
43.671,5.97
43.687,5.86
43.703,5.73
43.718,5.6
43.734,5.54
43.750,5.59
43.765,5.72
43.781,5.86
43.796,5.91
43.812,5.86
43.828,5.76
43.843,5.67
43.859,5.64
43.875,5.67
43.890,5.67
43.906,5.51
43.921,5.04
43.937,4.16
43.953,2.85
43.968,1.16
43.984,-0.83
44.000,-2.98
44.015,-5.18
44.031,-7.34
44.046,-9.43
44.062,-11.38
44.078,-13.08
44.093,-14.42
44.109,-15.27
44.125,-15.61
44.140,-15.47
44.156,-14.95
44.171,-14.17
44.187,-13.25
44.203,-12.21
44.218,-11.11
44.234,-9.94
44.250,-8.74
44.265,-7.55
44.281,-6.39
44.296,-5.26
44.312,-4.18
44.328,-3.16
44.343,-2.24
44.359,-1.48
44.375,-0.85
44.390,-0.32
44.406,0.16
44.421,0.65
44.437,1.2
44.453,1.77
44.468,2.33
44.484,2.8
44.500,3.11
44.515,3.22
44.531,3.14
44.546,2.96
44.562,2.81
44.578,2.79
44.593,2.96
44.609,3.27
44.625,3.62
44.640,3.87
44.656,4.01
44.671,4.14
44.687,4.41
44.703,4.95
44.718,5.8
44.734,6.84
44.750,7.86
44.765,8.74
44.781,9.42
44.796,10.07
44.812,10.99
44.828,12.54
44.843,15.07
44.859,18.83
44.875,23.98
44.890,30.45
44.906,38.03
44.921,46.19
44.937,54.3
44.953,61.64
44.968,67.63
44.984,71.93
45.000,74.43
45.015,75.23
45.031,74.44
45.046,72.19
45.062,68.55
45.078,63.61
45.093,57.5
45.109,50.41
45.125,42.58
45.140,34.23
45.156,25.63
45.171,17.04
45.187,8.78
45.203,1.17
45.218,-5.55
45.234,-11.29
45.250,-16.17
45.265,-20.43
45.281,-24.31
45.296,-27.94
45.312,-31.28
45.328,-34.13
45.343,-36.34
45.359,-37.89
45.375,-38.87
45.390,-39.49
45.406,-39.95
45.421,-40.29
45.437,-40.44
45.453,-40.28
45.468,-39.74
45.484,-38.89
45.500,-37.89
45.515,-36.89
45.531,-36.01
45.546,-35.39
45.562,-35.28
45.578,-36.08
45.593,-38.21
45.609,-41.87
45.625,-46.72
45.640,-51.94
45.656,-56.36
45.671,-58.9
45.687,-58.99
45.703,-56.66
45.718,-52.39
45.734,-46.81
45.750,-40.41
45.765,-33.56
45.781,-26.58
45.796,-19.97
45.812,-14.39
45.828,-10.52
45.843,-8.71
45.859,-8.93
45.875,-10.61
45.890,-13.0
45.906,-15.31
45.921,-17.03
45.937,-17.98
45.953,-18.25
45.968,-18.05
45.984,-17.59
46.000,-17.02
46.015,-16.38
46.031,-15.65
46.046,-14.8
46.062,-13.87
46.078,-12.93
46.093,-12.16
46.109,-11.71
46.125,-11.73
46.140,-12.24
46.156,-13.21
46.171,-14.56
46.187,-16.21
46.203,-18.15
46.218,-20.39
46.234,-22.93
46.250,-25.64
46.265,-28.31
46.281,-30.7
46.296,-32.67
46.312,-34.24
46.328,-35.61
46.343,-37.0
46.359,-38.56
46.375,-40.23
46.390,-41.71
46.406,-42.65
46.421,-42.69
46.437,-41.64
46.453,-39.53
46.468,-36.5
46.484,-32.76
46.500,-28.52
46.515,-23.87
46.531,-18.86
46.546,-13.56
46.562,-8.1
46.578,-2.66
46.593,2.55
46.609,7.41
46.625,11.92
46.640,16.19
46.656,20.34
46.671,24.4
46.687,28.29
46.703,31.83
46.718,34.84
46.734,37.28
46.750,39.16
46.765,40.64
46.781,41.82
46.796,42.74
46.812,43.37
46.828,43.67
46.843,43.64
46.859,43.39
46.875,43.01
46.890,42.53
46.906,41.86
46.921,40.8
46.937,39.1
46.953,36.62
46.968,33.39
46.984,29.63
47.000,25.6
47.015,21.52
47.031,17.49
47.046,13.52
47.062,9.58
47.078,5.71
47.093,2.0
47.109,-1.41
47.125,-4.25
47.140,-6.23
47.156,-7.01
47.171,-6.29
47.187,-3.93
47.203,-0.04
47.218,4.96
47.234,10.43
47.250,15.71
47.265,20.25
47.281,23.71
47.296,26.01
47.312,27.26
47.328,27.64
47.343,27.37
47.359,26.71
47.375,25.89
47.390,25.16
47.406,24.64
47.421,24.38
47.437,24.31
47.453,24.27
47.468,24.04
47.484,23.43
47.500,22.28
47.515,20.49
47.531,18.06
47.546,15.04
47.562,11.46
47.578,7.37
47.593,2.79
47.609,-2.24
47.625,-7.62
47.640,-13.16
47.656,-18.59
47.671,-23.57
47.687,-27.82
47.703,-31.19
47.718,-33.65
47.734,-35.26
47.750,-36.04
47.765,-35.87
47.781,-34.56
47.796,-31.93
47.812,-27.93
47.828,-22.76
47.843,-16.9
47.859,-10.91
47.875,-5.3
47.890,-0.42
47.906,3.5
47.921,6.31
47.937,7.96
47.953,8.51
47.968,8.21
47.984,7.58
48.000,7.26
48.015,7.87
48.031,9.69
48.046,12.64
48.062,16.21
48.078,19.67
48.093,22.31
48.109,23.63
48.125,23.43
48.140,21.81
48.156,19.12
48.171,15.82
48.187,12.45
48.203,9.56
48.218,7.6
48.234,6.91
48.250,7.63
48.265,9.7
48.281,12.83
48.296,16.5
48.312,19.98
48.328,22.42
48.343,23.08
48.359,21.49
48.375,17.61
48.390,12.0
48.406,5.66
48.421,-0.15
48.437,-4.3
48.453,-6.1
48.468,-5.46
48.484,-2.9
48.500,0.56
48.515,3.78
48.531,5.73
48.546,5.69
48.562,3.46
48.578,-0.61
48.593,-5.67
48.609,-10.57
48.625,-14.06
48.640,-15.2
48.656,-13.53
48.671,-9.25
48.687,-3.18
48.703,3.45
48.718,9.34
48.734,13.39
48.750,14.93
48.765,13.87
48.781,10.69
48.796,6.31
48.812,1.92
48.828,-1.37
48.843,-2.75
48.859,-2.0
48.875,0.45
48.890,3.68
48.906,6.52
48.921,7.89
48.937,7.08
48.953,3.95
48.968,-1.08
48.984,-7.07
49.000,-12.86
49.015,-17.33
49.031,-19.67
49.046,-19.57
49.062,-17.27
49.078,-13.41
49.093,-8.89
49.109,-4.61
49.125,-1.33
49.140,0.42
49.156,0.38
49.171,-1.48
49.187,-4.92
49.203,-9.52
49.218,-14.69
49.234,-19.85
49.250,-24.46
49.265,-28.04
49.281,-30.19
49.296,-30.6
49.312,-29.08
49.328,-25.68
49.343,-20.77
49.359,-15.0
49.375,-9.22
49.390,-4.24
49.406,-0.58
49.421,1.69
49.437,2.98
49.453,4.05
49.468,5.79
49.484,8.86
49.500,13.44
49.515,19.11
49.531,24.94
49.546,29.76
49.562,32.49
49.578,32.51
49.593,29.84
49.609,25.12
49.625,19.48
49.640,14.2
49.656,10.5
49.671,9.28
49.687,10.89
49.703,15.07
49.718,20.9
49.734,26.95
49.750,31.63
49.765,33.59
49.781,32.13
49.796,27.41
49.812,20.42
49.828,12.67
49.843,5.85
49.859,1.28
49.875,-0.31
49.890,1.03
49.906,4.58
49.921,9.14
49.937,13.38
49.953,16.13
49.968,16.65
49.984,14.78
50.000,10.85
50.015,5.53
50.031,-0.39
50.046,-6.27
50.062,-11.59
50.078,-16.02
50.093,-19.38
50.109,-21.56
50.125,-22.61
50.140,-22.76
50.156,-22.39
50.171,-21.94
50.187,-21.78
50.203,-22.01
50.218,-22.51
50.234,-22.99
50.250,-23.05
50.265,-22.37
50.281,-20.69
50.296,-17.96
50.312,-14.28
50.328,-9.98
50.343,-5.48
50.359,-1.29
50.375,2.18
50.390,4.66
50.406,6.09
50.421,6.51
50.437,5.98
50.453,4.55
50.468,2.31
50.484,-0.63
50.500,-4.08
50.515,-7.79
50.531,-11.57
50.546,-15.27
50.562,-18.74
50.578,-21.88
50.593,-24.52
50.609,-26.49
50.625,-27.7
50.640,-28.15
50.656,-28.01
50.671,-27.46
50.687,-26.69
50.703,-25.82
50.718,-24.88
50.734,-23.92
50.750,-23.01
50.765,-22.31
50.781,-21.93
50.796,-21.96
50.812,-22.29
50.828,-22.62
50.843,-22.45
50.859,-21.22
50.875,-18.47
50.890,-14.0
50.906,-8.02
50.921,-1.02
50.937,6.28
50.953,13.11
50.968,18.85
50.984,23.08
51.000,25.66
51.015,26.63
51.031,26.27
51.046,25.06
51.062,23.66
51.078,22.8
51.093,23.12
51.109,24.97
51.125,28.23
51.140,32.37
51.156,36.57
51.171,39.96
51.187,41.84
51.203,41.88
51.218,40.18
51.234,37.26
51.250,33.91
51.265,30.94
51.281,29.0
51.296,28.27
51.312,28.42
51.328,28.7
51.343,28.25
51.359,26.36
51.375,22.84
51.390,17.95
51.406,12.32
51.421,6.78
51.437,2.02
51.453,-1.41
51.468,-3.28
51.484,-3.6
51.500,-2.66
51.515,-0.94
51.531,0.99
51.546,2.59
51.562,3.55
51.578,3.71
51.593,3.14
51.609,1.91
51.625,0.07
51.640,-2.36
51.656,-5.3
51.671,-8.46
51.687,-11.28
51.703,-13.05
51.718,-13.1
51.734,-11.02
51.750,-6.85
51.765,-1.09
51.781,5.44
51.796,11.72
51.812,16.85
51.828,20.18
51.843,21.38
51.859,20.51
51.875,17.88
51.890,13.97
51.906,9.28
51.921,4.3
51.937,-0.53
51.953,-4.88
51.968,-8.54
51.984,-11.41
52.000,-13.6
52.015,-15.32
52.031,-16.85
52.046,-18.38
52.062,-19.92
52.078,-21.3
52.093,-22.28
52.109,-22.69
52.125,-22.59
52.140,-22.21
52.156,-21.94
52.171,-22.1
52.187,-22.85
52.203,-24.14
52.218,-25.79
52.234,-27.51
52.250,-29.08
52.265,-30.32
52.281,-31.09
52.296,-31.3
52.312,-30.89
52.328,-29.86
52.343,-28.34
52.359,-26.49
52.375,-24.56
52.390,-22.69
52.406,-20.94
52.421,-19.22
52.437,-17.42
52.453,-15.45
52.468,-13.35
52.484,-11.28
52.500,-9.44
52.515,-7.95
52.531,-6.82
52.546,-5.95
52.562,-5.17
52.578,-4.4
52.593,-3.57
52.609,-2.73
52.625,-1.9
52.640,-1.06
52.656,-0.14
52.671,0.95
52.687,2.28
52.703,3.81
52.718,5.36
52.734,6.72
52.750,7.67
52.765,8.07
52.781,7.92
52.796,7.37
52.812,6.65
52.828,6.03
52.843,5.66
52.859,5.57
52.875,5.66
52.890,5.76
52.906,5.7
52.921,5.39
52.937,4.74
52.953,3.75
52.968,2.48
52.984,1.01
53.000,-0.54
53.015,-2.08
53.031,-3.56
53.046,-5.01
53.062,-6.5
53.078,-7.99
53.093,-9.4
53.109,-10.48
53.125,-11.0
53.140,-10.81
53.156,-9.89
53.171,-8.43
53.187,-6.67
53.203,-4.8
53.218,-2.96
53.234,-1.18
53.250,0.52
53.265,2.13
53.281,3.57
53.296,4.77
53.312,5.65
53.328,6.2
53.343,6.55
53.359,6.87
53.375,7.38
53.390,8.2
53.406,9.3
53.421,10.45
53.437,11.35
53.453,11.73
53.468,11.49
53.484,10.78
53.500,9.87
53.515,9.02
53.531,8.38
53.546,7.92
53.562,7.5
53.578,7.02
53.593,6.43
53.609,5.79
53.625,5.14
53.640,4.46
53.656,3.69
53.671,2.7
53.687,1.47
53.703,0.08
53.718,-1.25
53.734,-2.31
53.750,-2.98
53.765,-3.34
53.781,-3.56
53.796,-3.89
53.812,-4.51
53.828,-5.49
53.843,-6.78
53.859,-8.27
53.875,-9.83
53.890,-11.37
53.906,-12.78
53.921,-13.96
53.937,-14.78
53.953,-15.08
53.968,-14.76
53.984,-13.77
54.000,-12.21
54.015,-10.26
54.031,-8.2
54.046,-6.25
54.062,-4.56
54.078,-3.18
54.093,-2.06
54.109,-1.12
54.125,-0.24
54.140,0.66
54.156,1.65
54.171,2.75
54.187,3.87
54.203,4.9
54.218,5.66
54.234,6.05
54.250,6.06
54.265,5.85
54.281,5.7
54.296,5.95
54.312,6.87
54.328,8.63
54.343,11.24
54.359,14.6
54.375,18.5
54.390,22.67
54.406,26.84
54.421,30.74
54.437,34.16
54.453,36.95
54.468,38.96
54.484,40.11
54.500,40.35
54.515,39.62
54.531,37.93
54.546,35.34
54.562,31.96
54.578,27.91
54.593,23.39
54.609,18.53
54.625,13.56
54.640,8.69
54.656,4.1
54.671,-0.06
54.687,-3.73
54.703,-6.93
54.718,-9.7
54.734,-12.09
54.750,-14.12
54.765,-15.86
54.781,-17.4
54.796,-18.87
54.812,-20.32
54.828,-21.71
54.843,-22.86
54.859,-23.53
54.875,-23.51
54.890,-22.76
54.906,-21.43
54.921,-19.76
54.937,-17.99
54.953,-16.28
54.968,-14.64
54.984,-13.0
55.000,-11.26
55.015,-9.34
55.031,-7.26
55.046,-5.13
55.062,-3.09
55.078,-1.32
55.093,0.1
55.109,1.18
55.125,2.0
55.140,2.68
55.156,3.28
55.171,3.84
55.187,4.31
55.203,4.67
55.218,4.95
55.234,5.22
55.250,5.58
55.265,6.03
55.281,6.45
55.296,6.7
55.312,6.62
55.328,6.22
55.343,5.64
55.359,5.06
55.375,4.66
55.390,4.48
55.406,4.45
55.421,4.45
55.437,4.39
55.453,4.25
55.468,4.05
55.484,3.82
55.500,3.53
55.515,3.12
55.531,2.52
55.546,1.68
55.562,0.66
55.578,-0.49
55.593,-1.67
55.609,-2.83
55.625,-3.95
55.640,-5.02
55.656,-6.05
55.671,-7.04
55.687,-8.02
55.703,-8.96
55.718,-9.86
55.734,-10.73
55.750,-11.54
55.765,-12.26
55.781,-12.78
55.796,-12.99
55.812,-12.72
55.828,-11.89
55.843,-10.49
55.859,-8.62
55.875,-6.46
55.890,-4.2
55.906,-2.0
55.921,0.05
55.937,1.94
55.953,3.71
55.968,5.37
55.984,6.9
56.000,8.25
56.015,9.38
56.031,10.23
56.046,10.78
56.062,10.98
56.078,10.84
56.093,10.33
56.109,9.53
56.125,8.59
56.140,7.72
56.156,7.17
56.171,7.09
56.187,7.48
56.203,8.15
56.218,8.85
56.234,9.33
56.250,9.5
56.265,9.41
56.281,9.21
56.296,9.02
56.312,8.94
56.328,9.0
56.343,9.18
56.359,9.55
56.375,10.1
56.390,10.85
56.406,11.69
56.421,12.43
56.437,12.86
56.453,12.76
56.468,12.08
56.484,10.87
56.500,9.26
56.515,7.42
56.531,5.46
56.546,3.4
56.562,1.24
56.578,-1.05
56.593,-3.45
56.609,-5.87
56.625,-8.3
56.640,-10.7
56.656,-13.08
56.671,-15.44
56.687,-17.68
56.703,-19.61
56.718,-20.98
56.734,-21.59
56.750,-21.35
56.765,-20.36
56.781,-18.82
56.796,-16.93
56.812,-14.86
56.828,-12.7
56.843,-10.47
56.859,-8.24
56.875,-6.17
56.890,-4.38
56.906,-3.05
56.921,-2.22
56.937,-1.84
56.953,-1.82
56.968,-1.99
56.984,-2.25
57.000,-2.53
57.015,-2.84
57.031,-3.17
57.046,-3.55
57.062,-3.98
57.078,-4.45
57.093,-4.97
57.109,-5.48
57.125,-5.95
57.140,-6.31
57.156,-6.54
57.171,-6.66
57.187,-6.75
57.203,-6.87
57.218,-7.05
57.234,-7.24
57.250,-7.36
57.265,-7.28
57.281,-6.92
57.296,-6.3
57.312,-5.55
57.328,-4.86
57.343,-4.4
57.359,-4.33
57.375,-4.73
57.390,-5.62
57.406,-6.89
57.421,-8.31
57.437,-9.47
57.453,-9.87
57.468,-9.03
57.484,-6.69
57.500,-2.98
57.515,1.54
57.531,6.09
57.546,9.9
57.562,12.51
57.578,13.95
57.593,14.56
57.609,14.85
57.625,15.2
57.640,15.73
57.656,16.3
57.671,16.73
57.687,16.81
57.703,16.5
57.718,15.87
57.734,15.0
57.750,13.96
57.765,12.8
57.781,11.5
57.796,10.06
57.812,8.55
57.828,7.09
57.843,5.83
57.859,4.94
57.875,4.51
57.890,4.49
57.906,4.68
57.921,4.83
57.937,4.73
57.953,4.34
57.968,3.83
57.984,3.45
58.000,3.43
58.015,3.79
58.031,4.38
58.046,4.9
58.062,5.03
58.078,4.58
58.093,3.54
58.109,2.05
58.125,0.33
58.140,-1.35
58.156,-2.77
58.171,-3.8
58.187,-4.39
58.203,-4.67
58.218,-4.81
58.234,-5.03
58.250,-5.56
58.265,-6.51
58.281,-7.9
58.296,-9.61
58.312,-11.52
58.328,-13.45
58.343,-15.29
58.359,-16.98
58.375,-18.55
58.390,-20.13
58.406,-21.88
58.421,-24.0
58.437,-26.51
58.453,-29.2
58.468,-31.62
58.484,-33.18
58.500,-33.37
58.515,-32.01
58.531,-29.28
58.546,-25.61
58.562,-21.55
58.578,-17.52
58.593,-13.76
58.609,-10.39
58.625,-7.39
58.640,-4.7
58.656,-2.13
58.671,0.63
58.687,3.94
58.703,8.05
58.718,12.96
58.734,18.37
58.750,23.74
58.765,28.52
58.781,32.32
58.796,35.0
58.812,36.66
58.828,37.54
58.843,37.88
58.859,37.87
58.875,37.54
58.890,36.8
58.906,35.52
58.921,33.59
58.937,31.03
58.953,28.01
58.968,24.82
58.984,21.75
59.000,18.98
59.015,16.52
59.031,14.29
59.046,12.13
59.062,9.91
59.078,7.62
59.093,5.3
59.109,3.07
59.125,1.01
59.140,-0.81
59.156,-2.41
59.171,-3.85
59.187,-5.32
59.203,-7.04
59.218,-9.29
59.234,-12.31
59.250,-16.2
59.265,-20.76
59.281,-25.47
59.296,-29.43
59.312,-31.65
59.328,-31.27
59.343,-27.96
59.359,-22.04
59.375,-14.37
59.390,-6.1
59.406,1.83
59.421,8.84
59.437,14.78
59.453,19.73
59.468,23.76
59.484,26.77
59.500,28.55
59.515,28.94
59.531,27.95
59.546,25.85
59.562,22.98
59.578,19.62
59.593,15.84
59.609,11.6
59.625,6.84
59.640,1.66
59.656,-3.65
59.671,-8.65
59.687,-12.91
59.703,-16.14
59.718,-18.29
59.734,-19.54
59.750,-20.25
59.765,-20.82
59.781,-21.55
59.796,-22.53
59.812,-23.51
59.828,-24.0
59.843,-23.4
59.859,-21.2
59.875,-17.27
59.890,-11.93
59.906,-5.89
59.921,-0.01
59.937,4.96
59.953,8.56
59.968,10.75
59.984,11.71
