timestamp,value
00.000,-51.89
00.015,-47.17
00.031,-41.11
00.046,-33.23
00.062,-24.76
00.078,-17.51
00.093,-15.47
00.109,-23.26
00.125,-44.3
00.140,-76.2
00.156,-109.62
00.171,-132.48
00.187,-135.01
00.203,-113.91
00.218,-73.35
00.234,-24.24
00.250,24.02
00.265,57.42
00.281,67.84
00.296,60.16
00.312,47.71
00.328,42.15
00.343,47.4
00.359,60.75
00.375,76.77
00.390,91.22
00.406,102.21
00.421,111.25
00.437,119.77
00.453,126.69
00.468,130.01
00.484,126.33
00.500,114.91
00.515,98.22
00.531,80.77
00.546,66.72
00.562,59.32
00.578,58.03
00.593,59.05
00.609,57.9
00.625,51.74
00.640,40.75
00.656,26.96
00.671,12.8
00.687,0.61
00.703,-8.39
00.718,-16.13
00.734,-26.26
00.750,-42.04
00.765,-65.18
00.781,-95.77
00.796,-132.79
00.812,-173.57
00.828,-213.22
00.843,-233.88
00.859,-220.86
00.875,-172.7
00.890,-103.25
00.906,-32.76
00.921,22.74
00.937,55.91
00.953,67.82
00.968,65.05
00.984,55.77
01.000,44.53
01.015,32.26
01.031,18.72
01.046,4.54
01.062,-8.54
01.078,-18.53
01.093,-24.01
01.109,-24.44
01.125,-21.32
01.140,-16.21
01.156,-10.9
01.171,-5.65
01.187,0.8
01.203,9.82
01.218,21.98
01.234,36.42
01.250,51.22
01.265,63.59
01.281,69.15
01.296,63.48
01.312,44.37
01.328,12.68
01.343,-28.08
01.359,-72.71
01.375,-116.14
01.390,-155.05
01.406,-185.25
01.421,-206.73
01.437,-222.44
01.453,-235.69
01.468,-247.46
01.484,-255.45
01.500,-254.63
01.515,-239.2
01.531,-205.06
01.546,-151.55
01.562,-82.26
01.578,-3.37
01.593,78.73
01.609,158.73
01.625,232.21
01.640,294.33
01.656,338.83
01.671,358.96
01.687,350.87
01.703,316.85
01.718,267.05
01.734,216.69
01.750,179.5
01.765,160.84
01.781,154.77
01.796,147.18
01.812,124.2
01.828,80.84
01.843,24.37
01.859,-28.96
01.875,-62.8
01.890,-69.62
01.906,-54.75
01.921,-33.02
01.937,-20.79
01.953,-27.73
01.968,-52.94
01.984,-86.87
02.000,-117.33
02.015,-135.52
02.031,-139.21
02.046,-132.0
02.062,-119.89
02.078,-107.75
02.093,-97.35
02.109,-88.07
02.125,-78.42
02.140,-67.51
02.156,-55.66
02.171,-43.85
02.187,-32.66
02.203,-21.22
02.218,-6.73
02.234,14.87
02.250,47.09
02.265,90.74
02.281,142.19
02.296,193.34
02.312,234.0
02.328,255.5
02.343,254.13
02.359,232.5
02.375,197.95
02.390,158.94
02.406,121.39
02.421,87.42
02.437,56.69
02.453,29.01
02.468,5.88
02.484,-10.17
02.500,-17.97
02.515,-19.75
02.531,-21.02
02.546,-28.4
02.562,-46.47
02.578,-75.8
02.593,-112.71
02.609,-151.06
02.625,-184.27
02.640,-207.02
02.656,-215.7
02.671,-208.45
02.687,-185.37
02.703,-149.15
02.718,-105.41
02.734,-62.15
02.750,-27.86
02.765,-8.77
02.781,-6.72
02.796,-18.51
02.812,-36.96
02.828,-53.26
02.843,-59.79
02.859,-52.46
02.875,-31.91
02.890,-3.29
02.906,25.62
02.921,46.94
02.937,55.5
02.953,50.38
02.968,34.72
02.984,14.03
03.000,-6.17
03.015,-22.05
03.031,-32.1
03.046,-36.5
03.062,-36.23
03.078,-32.48
03.093,-26.24
03.109,-18.35
03.125,-9.27
03.140,0.92
03.156,12.75
03.171,27.0
03.187,44.02
03.203,62.99
03.218,82.02
03.234,98.88
03.250,112.29
03.265,122.4
03.281,130.57
03.296,138.38
03.312,146.73
03.328,155.29
03.343,162.53
03.359,166.96
03.375,168.4
03.390,169.11
03.406,172.23
03.421,180.34
03.437,193.78
03.453,210.82
03.468,228.47
03.484,243.34
03.500,253.09
03.515,257.11
03.531,257.21
03.546,254.48
03.562,248.2
03.578,235.43
03.593,213.6
03.609,182.14
03.625,142.7
03.640,98.83
03.656,55.03
03.671,17.23
03.687,-10.73
03.703,-27.05
03.718,-32.21
03.734,-26.47
03.750,-9.99
03.765,15.54
03.781,46.37
03.796,76.82
03.812,103.02
03.828,120.29
03.843,124.66
03.859,112.88
03.875,85.13
03.890,50.45
03.906,21.69
03.921,9.18
03.937,-0.89
03.953,-18.88
03.968,-52.68
03.984,-97.53
04.000,-149.59
04.015,-202.95
04.031,-251.7
04.046,-292.65
04.062,-326.01
04.078,-354.54
04.093,-378.5
04.109,-397.85
04.125,-411.57
04.140,-419.45
04.156,-420.7
04.171,-415.38
04.187,-405.75
04.203,-395.6
04.218,-388.95
04.234,-386.77
04.250,-389.74
04.265,-398.36
04.281,-413.53
04.296,-434.27
04.312,-457.07
04.328,-476.57
04.343,-486.75
04.359,-483.03
04.375,-462.68
04.390,-427.59
04.406,-383.33
04.421,-337.1
04.437,-294.33
04.453,-257.33
04.468,-225.99
04.484,-199.01
04.500,-175.34
04.515,-153.68
04.531,-133.04
04.546,-112.19
04.562,-89.65
04.578,-63.78
04.593,-33.87
04.609,-0.79
04.625,33.23
04.640,65.22
04.656,93.09
04.671,116.22
04.687,135.63
04.703,153.26
04.718,170.96
04.734,189.24
04.750,207.01
04.765,221.82
04.781,231.12
04.796,233.1
04.812,227.22
04.828,214.26
04.843,196.32
04.859,176.9
04.875,160.39
04.890,151.17
04.906,151.72
04.921,161.04
04.937,174.25
04.953,183.88
04.968,182.64
04.984,166.35
05.000,135.35
05.015,93.72
05.031,47.33
05.046,1.53
05.062,-39.83
05.078,-73.85
05.093,-97.88
05.109,-109.37
05.125,-106.95
05.140,-91.8
05.156,-68.38
05.171,-43.32
05.187,-23.0
05.203,-11.0
05.218,-6.91
05.234,-7.42
05.250,-8.63
05.265,-8.85
05.281,-9.42
05.296,-13.44
05.312,-23.06
05.328,-37.25
05.343,-51.44
05.359,-59.5
05.375,-56.68
05.390,-41.99
05.406,-18.55
05.421,8.19
05.437,33.21
05.453,54.09
05.468,71.47
05.484,87.97
05.500,106.44
05.515,128.51
05.531,154.28
05.546,182.88
05.562,212.96
05.578,242.93
05.593,270.86
05.609,294.31
05.625,310.73
05.640,318.61
05.656,318.46
05.671,313.11
05.687,306.94
05.703,304.05
05.718,306.45
05.734,313.3
05.750,321.59
05.765,328.03
05.781,331.21
05.796,332.63
05.812,336.09
05.828,345.6
05.843,363.06
05.859,386.76
05.875,411.55
05.890,430.46
05.906,437.08
05.921,427.63
05.937,401.88
05.953,362.87
05.968,315.67
05.984,265.72
06.000,217.45
06.015,173.78
06.031,135.76
06.046,103.19
06.062,75.15
06.078,50.54
06.093,28.28
06.109,7.38
06.125,-13.17
06.140,-34.49
06.156,-57.17
06.171,-80.85
06.187,-103.87
06.203,-123.71
06.218,-138.34
06.234,-147.55
06.250,-153.59
06.265,-160.62
06.281,-173.3
06.296,-194.96
06.312,-226.54
06.328,-266.17
06.343,-309.82
06.359,-352.26
06.375,-388.26
06.390,-413.62
06.406,-425.9
06.421,-424.98
06.437,-412.81
06.453,-392.99
06.468,-369.77
06.484,-347.2
06.500,-328.5
06.515,-315.66
06.531,-309.13
06.546,-307.59
06.562,-308.19
06.578,-306.95
06.593,-300.02
06.609,-284.74
06.625,-260.31
06.640,-227.94
06.656,-190.1
06.671,-149.88
06.687,-110.3
06.703,-73.86
06.718,-42.34
06.734,-16.6
06.750,3.32
06.765,18.26
06.781,29.59
06.796,38.91
06.812,47.46
06.828,56.05
06.843,65.08
06.859,75.02
06.875,86.68
06.890,101.23
06.906,119.6
06.921,141.4
06.937,164.36
06.953,184.63
06.968,198.42
06.984,203.66
07.000,200.9
07.015,192.36
07.031,180.34
07.046,166.1
07.062,149.87
07.078,132.1
07.093,114.4
07.109,98.81
07.125,85.97
07.140,73.46
07.156,56.35
07.171,30.27
07.187,-4.81
07.203,-43.12
07.218,-75.54
07.234,-94.03
07.250,-95.77
07.265,-83.59
07.281,-62.68
07.296,-36.41
07.312,-4.71
07.328,33.99
07.343,78.72
07.359,123.36
07.375,157.61
07.390,171.48
07.406,160.57
07.421,128.98
07.437,87.67
07.453,49.51
07.468,23.4
07.484,11.1
07.500,8.06
07.515,7.02
07.531,2.21
07.546,-8.17
07.562,-22.2
07.578,-36.54
07.593,-48.59
07.609,-57.64
07.625,-64.23
07.640,-68.88
07.656,-70.99
07.671,-69.18
07.687,-62.22
07.703,-50.34
07.718,-36.05
07.734,-23.28
07.750,-15.92
07.765,-16.35
07.781,-24.51
07.796,-38.05
07.812,-53.28
07.828,-66.49
07.843,-75.0
07.859,-77.87
07.875,-75.84
07.890,-70.87
07.906,-65.5
07.921,-62.1
07.937,-62.49
07.953,-67.75
07.968,-77.97
07.984,-92.17
08.000,-108.48
08.015,-124.45
08.031,-137.76
08.046,-146.73
08.062,-150.37
08.078,-148.42
08.093,-140.96
08.109,-128.37
08.125,-111.41
08.140,-91.63
08.156,-71.21
08.171,-52.77
08.187,-38.56
08.203,-29.7
08.218,-25.9
08.234,-25.59
08.250,-26.59
08.265,-26.86
08.281,-25.11
08.296,-20.9
08.312,-14.38
08.328,-5.88
08.343,4.65
08.359,17.55
08.375,33.49
08.390,53.05
08.406,76.51
08.421,103.92
08.437,134.92
08.453,168.65
08.468,203.97
08.484,240.02
08.500,276.4
08.515,313.63
08.531,352.81
08.546,394.78
08.562,439.16
08.578,483.26
08.593,521.66
08.609,547.5
08.625,554.83
08.640,540.38
08.656,504.79
08.671,452.33
08.687,389.57
08.703,324.48
08.718,264.23
08.734,213.82
08.750,175.44
08.765,149.46
08.781,134.21
08.796,126.32
08.812,121.31
08.828,114.25
08.843,102.73
08.859,85.98
08.875,64.4
08.890,39.56
08.906,15.46
08.921,-3.75
08.937,-16.07
08.953,-23.51
08.968,-32.91
08.984,-49.88
09.000,-78.64
09.015,-120.91
09.031,-174.94
09.046,-233.43
09.062,-287.87
09.078,-332.24
09.093,-365.16
09.109,-390.7
09.125,-409.81
09.140,-422.38
09.156,-428.27
09.171,-426.68
09.187,-412.53
09.203,-379.23
09.218,-321.85
09.234,-240.19
09.250,-142.07
09.265,-34.35
09.281,74.06
09.296,172.59
09.312,229.64
09.328,221.02
09.343,145.81
09.359,29.63
09.375,-74.77
09.390,-157.63
09.406,-221.32
09.421,-270.07
09.437,-310.55
09.453,-343.24
09.468,-363.73
09.484,-367.8
09.500,-355.14
09.515,-330.6
09.531,-304.65
09.546,-281.72
09.562,-262.88
09.578,-247.51
09.593,-233.6
09.609,-216.63
09.625,-192.53
09.640,-160.06
09.656,-121.85
09.671,-84.84
09.687,-51.65
09.703,-22.82
09.718,1.97
09.734,23.86
09.750,45.65
09.765,70.07
09.781,98.38
09.796,129.67
09.812,160.6
09.828,190.77
09.843,220.88
09.859,251.35
09.875,281.43
09.890,309.19
09.906,331.35
09.921,344.09
09.937,344.4
09.953,331.06
09.968,307.07
09.984,277.5
10.000,247.22
10.015,219.4
10.031,195.21
10.046,174.23
10.062,155.33
10.078,137.39
10.093,119.49
10.109,101.71
10.125,84.35
10.140,67.73
10.156,52.1
10.171,37.54
10.187,24.14
10.203,11.99
10.218,1.25
10.234,-7.95
10.250,-15.48
10.265,-21.49
10.281,-26.4
10.296,-30.85
10.312,-35.43
10.328,-40.32
10.343,-45.16
10.359,-49.13
10.375,-51.4
10.390,-51.51
10.406,-49.71
10.421,-46.77
10.437,-43.66
10.453,-41.17
10.468,-39.73
10.484,-39.4
10.500,-39.92
10.515,-40.96
10.531,-42.04
10.546,-42.73
10.562,-42.72
10.578,-41.86
10.593,-40.27
10.609,-38.22
10.625,-36.02
10.640,-33.84
10.656,-31.65
10.671,-29.29
10.687,-26.7
10.703,-24.09
10.718,-21.8
10.734,-20.21
10.750,-19.34
10.765,-18.84
10.781,-18.11
10.796,-16.46
10.812,-13.41
10.828,-8.87
10.843,-3.08
10.859,3.53
10.875,10.46
10.890,17.3
10.906,23.86
10.921,30.07
10.937,36.04
10.953,41.92
10.968,47.85
10.984,53.78
11.000,59.49
11.015,64.45
11.031,67.69
11.046,68.02
11.062,64.25
11.078,55.85
11.093,43.21
11.109,27.73
11.125,11.16
11.140,-4.91
11.156,-19.39
11.171,-31.71
11.187,-41.38
11.203,-47.84
11.218,-50.3
11.234,-48.28
11.250,-41.95
11.265,-32.45
11.281,-21.69
11.296,-12.02
11.312,-5.62
11.328,-4.06
11.343,-7.84
11.359,-16.2
11.375,-27.35
11.390,-38.91
11.406,-48.92
11.421,-56.56
11.437,-62.46
11.453,-68.07
11.468,-74.6
11.484,-82.02
11.500,-89.06
11.515,-93.82
11.531,-94.42
11.546,-89.98
11.562,-80.61
11.578,-67.46
11.593,-52.37
11.609,-37.61
11.625,-25.39
11.640,-17.37
11.656,-13.96
11.671,-13.84
11.687,-14.42
11.703,-12.79
11.718,-6.81
11.734,4.05
11.750,18.52
11.765,34.38
11.781,49.87
11.796,64.45
11.812,79.2
11.828,96.04
11.843,116.86
11.859,142.93
11.875,174.75
11.890,212.26
11.906,254.72
11.921,300.35
11.937,345.56
11.953,384.83
11.968,411.23
11.984,418.19
12.000,401.84
12.015,362.56
12.031,305.28
12.046,237.98
12.062,169.07
12.078,104.98
12.093,49.24
12.109,2.39
12.125,-37.15
12.140,-71.8
12.156,-104.09
12.171,-136.19
12.187,-169.55
12.203,-204.69
12.218,-241.02
12.234,-276.7
12.250,-309.17
12.265,-335.91
12.281,-355.21
12.296,-366.76
12.312,-371.63
12.328,-371.89
12.343,-369.81
12.359,-366.8
12.375,-362.56
12.390,-354.64
12.406,-339.51
12.421,-314.47
12.437,-279.69
12.453,-239.03
12.468,-198.56
12.484,-163.78
12.500,-136.66
12.515,-114.36
12.531,-91.09
12.546,-61.57
12.562,-24.37
12.578,17.07
12.593,56.46
12.609,88.44
12.625,111.19
12.640,126.77
12.656,139.11
12.671,150.86
12.687,162.02
12.703,170.16
12.718,172.32
12.734,166.81
12.750,154.13
12.765,136.63
12.781,117.34
12.796,98.6
12.812,81.43
12.828,65.65
12.843,50.7
12.859,36.6
12.875,24.15
12.890,14.42
12.906,7.76
12.921,2.97
12.937,-2.83
12.953,-12.85
12.968,-28.75
12.984,-49.4
13.000,-70.99
13.015,-88.78
13.031,-99.51
13.046,-103.07
13.062,-102.32
13.078,-101.08
13.093,-101.97
13.109,-105.09
13.125,-108.62
13.140,-110.39
13.156,-109.26
13.171,-105.53
13.187,-99.94
13.203,-92.69
13.218,-82.94
13.234,-69.28
13.250,-51.11
13.265,-29.86
13.281,-9.32
13.296,5.43
13.312,9.72
13.328,1.28
13.343,-18.9
13.359,-46.78
13.375,-76.96
13.390,-104.75
13.406,-127.75
13.421,-146.03
13.437,-161.23
13.453,-175.0
13.468,-187.82
13.484,-198.87
13.500,-206.51
13.515,-209.13
13.531,-205.49
13.546,-194.59
13.562,-175.78
13.578,-148.87
13.593,-114.71
13.609,-75.67
13.625,-35.37
13.640,2.37
13.656,34.88
13.671,61.61
13.687,84.47
13.703,106.65
13.718,131.26
13.734,159.97
13.750,192.37
13.765,225.97
13.781,256.59
13.796,279.13
13.812,288.28
13.828,279.5
13.843,249.85
13.859,199.41
13.875,132.38
13.890,56.93
13.906,-16.13
13.921,-76.38
13.937,-116.89
13.953,-135.74
13.968,-135.37
13.984,-119.92
14.000,-92.67
14.015,-54.82
14.031,-6.6
14.046,50.92
14.062,114.63
14.078,180.27
14.093,244.86
14.109,308.07
14.125,371.73
14.140,436.92
14.156,500.91
14.171,556.23
14.187,593.19
14.203,604.23
14.218,587.62
14.234,548.0
14.250,493.92
14.265,434.0
14.281,373.62
14.296,314.28
14.312,255.1
14.328,195.09
14.343,134.57
14.359,75.31
14.375,19.42
14.390,-31.66
14.406,-77.54
14.421,-118.55
14.437,-155.19
14.453,-188.03
14.468,-217.9
14.484,-246.1
14.500,-274.34
14.515,-304.23
14.531,-336.32
14.546,-369.3
14.562,-400.0
14.578,-424.21
14.593,-438.18
14.609,-440.28
14.625,-431.88
14.640,-417.08
14.656,-401.48
14.671,-390.35
14.687,-387.25
14.703,-393.17
14.718,-406.2
14.734,-421.76
14.750,-433.36
14.765,-434.06
14.781,-418.5
14.796,-384.88
14.812,-335.9
14.828,-277.79
14.843,-218.05
14.859,-162.37
14.875,-112.87
14.890,-68.08
14.906,-24.76
14.921,19.72
14.937,65.57
14.953,110.03
14.968,148.65
14.984,177.14
15.000,193.49
15.015,198.57
15.031,195.66
15.046,188.75
15.062,180.77
15.078,172.49
15.093,162.9
15.109,151.46
15.125,139.75
15.140,131.23
15.156,128.84
15.171,131.74
15.187,134.63
15.203,130.68
15.218,116.56
15.234,95.72
15.250,77.4
15.265,71.52
15.281,82.45
15.296,106.81
15.312,135.85
15.328,161.44
15.343,181.08
15.359,198.24
15.375,217.72
15.390,240.66
15.406,262.88
15.421,277.59
15.437,280.78
15.453,273.76
15.468,262.44
15.484,253.56
15.500,250.64
15.515,251.66
15.531,250.29
15.546,239.81
15.562,215.85
15.578,177.99
15.593,127.69
15.609,67.22
15.625,-0.58
15.640,-71.63
15.656,-141.15
15.671,-204.45
15.687,-257.45
15.703,-298.43
15.718,-322.23
15.734,-324.29
15.750,-305.07
15.765,-270.3
15.781,-226.57
15.796,-178.71
15.812,-132.05
15.828,-87.93
15.843,-49.3
15.859,-19.25
15.875,0.09
15.890,9.15
15.906,9.02
15.921,4.46
15.937,1.32
15.953,4.4
15.968,15.96
15.984,34.13
16.000,54.33
16.015,71.14
16.031,80.55
16.046,82.6
16.062,82.07
16.078,85.8
16.093,99.46
16.109,125.71
16.125,163.0
16.140,207.04
16.156,252.98
16.171,296.44
16.187,334.7
16.203,366.89
16.218,392.51
16.234,410.88
16.250,421.24
16.265,422.34
16.281,412.58
16.296,391.21
16.312,357.19
16.328,310.57
16.343,253.45
16.359,189.88
16.375,125.17
16.390,64.78
16.406,12.83
16.421,-29.5
16.437,-60.65
16.453,-81.46
16.468,-92.87
16.484,-95.66
16.500,-90.91
16.515,-80.8
16.531,-69.06
16.546,-60.56
16.562,-61.79
16.578,-72.52
16.593,-92.44
16.609,-118.76
16.625,-147.82
16.640,-176.79
16.656,-204.95
16.671,-233.75
16.687,-266.03
16.703,-307.62
16.718,-355.58
16.734,-409.39
16.750,-466.62
16.765,-523.2
16.781,-573.57
16.796,-611.1
16.812,-629.09
16.828,-622.96
16.843,-595.81
16.859,-545.8
16.875,-480.17
16.890,-407.29
16.906,-333.77
16.921,-262.65
16.937,-193.93
16.953,-127.18
16.968,-36.71
16.984,33.42
17.000,80.31
17.015,96.3
17.031,79.16
17.046,34.24
17.062,-27.06
17.078,-91.15
17.093,-146.91
17.109,-189.22
17.125,-221.26
17.140,-240.78
17.156,-251.61
17.171,-256.61
17.187,-257.18
17.203,-253.48
17.218,-244.59
17.234,-228.46
17.250,-203.22
17.265,-168.66
17.281,-120.66
17.296,-62.65
17.312,-1.08
17.328,56.29
17.343,103.02
17.359,135.7
17.375,160.22
17.390,169.25
17.406,164.9
17.421,151.59
17.437,130.79
17.453,104.55
17.468,76.25
17.484,50.12
17.500,30.3
17.515,19.54
17.531,17.75
17.546,24.13
17.562,37.42
17.578,55.08
17.593,75.06
17.609,96.39
17.625,118.95
17.640,143.11
17.656,169.27
17.671,197.05
17.687,227.53
17.703,261.64
17.718,299.47
17.734,339.41
17.750,377.17
17.765,405.87
17.781,418.08
17.796,408.96
17.812,378.55
17.828,333.9
17.843,285.43
17.859,244.06
17.875,217.56
17.890,208.64
17.906,215.12
17.921,231.18
17.937,249.56
17.953,262.83
17.968,265.64
17.984,254.82
18.000,230.53
18.015,196.13
18.031,157.14
18.046,119.43
18.062,87.06
18.078,61.81
18.093,43.19
18.109,29.94
18.125,20.58
18.140,13.88
18.156,8.59
18.171,3.37
18.187,-2.88
18.203,-10.45
18.218,-18.56
18.234,-25.94
18.250,-31.75
18.265,-36.66
18.281,-42.9
18.296,-53.38
18.312,-70.28
18.328,-93.62
18.343,-120.92
18.359,-147.92
18.375,-170.16
18.390,-184.53
18.406,-190.08
18.421,-188.14
18.437,-181.4
18.453,-172.86
18.468,-164.92
18.484,-159.13
18.500,-156.23
18.515,-156.66
18.531,-160.69
18.546,-168.13
18.562,-178.05
18.578,-188.51
18.593,-196.67
18.609,-199.39
18.625,-194.09
18.640,-179.49
18.656,-155.98
18.671,-125.5
18.687,-90.96
18.703,-55.34
18.718,-20.97
18.734,11.06
18.750,40.78
18.765,68.84
18.781,95.79
18.796,121.5
18.812,145.09
18.828,165.13
18.843,180.44
18.859,190.39
18.875,195.03
18.890,194.56
18.906,188.86
18.921,177.39
18.937,159.63
18.953,135.8
18.968,107.34
18.984,76.92
19.000,47.57
19.015,21.56
19.031,-0.42
19.046,-19.4
19.062,-37.36
19.078,-56.15
19.093,-76.59
19.109,-98.45
19.125,-120.89
19.140,-143.59
19.156,-167.23
19.171,-193.01
19.187,-221.46
19.203,-251.03
19.218,-277.84
19.234,-296.62
19.250,-303.02
19.265,-295.41
19.281,-275.69
19.296,-248.36
19.312,-218.14
19.328,-188.08
19.343,-158.56
19.359,-128.18
19.375,-95.38
19.390,-60.2
19.406,-24.54
19.421,8.54
19.437,36.23
19.453,57.33
19.468,72.39
19.484,82.75
19.500,89.23
19.515,91.36
19.531,87.66
19.546,77.01
19.562,59.92
19.578,39.17
19.593,19.11
19.609,3.89
19.625,-4.15
19.640,-5.13
19.656,-1.14
19.671,4.99
19.687,10.71
19.703,14.18
19.718,13.89
19.734,8.72
19.750,-1.89
19.765,-17.37
19.781,-35.47
19.796,-52.76
19.812,-65.7
19.828,-71.85
19.843,-70.44
19.859,-62.11
19.875,-48.0
19.890,-29.17
19.906,-6.41
19.921,19.53
19.937,47.28
19.953,74.73
19.968,99.66
19.984,120.33
20.000,135.88
20.015,146.39
20.031,152.57
20.046,155.15
20.062,154.69
20.078,151.38
20.093,145.21
20.109,136.36
20.125,125.29
20.140,112.79
20.156,99.91
20.171,87.68
20.187,76.94
20.203,68.3
20.218,61.86
20.234,57.06
20.250,52.92
20.265,48.25
20.281,42.14
20.296,34.4
20.312,25.62
20.328,16.88
20.343,9.3
20.359,3.63
20.375,-0.05
20.390,-2.19
20.406,-3.44
20.421,-4.38
20.437,-5.26
20.453,-6.15
20.468,-6.94
20.484,-7.52
20.500,-7.77
20.515,-7.51
20.531,-6.45
20.546,-4.27
20.562,-0.77
20.578,4.08
20.593,10.0
20.609,16.44
20.625,22.78
20.640,28.36
20.656,32.77
20.671,35.89
20.687,37.84
20.703,38.81
20.718,39.08
20.734,38.77
20.750,37.88
20.765,36.44
20.781,34.4
20.796,31.88
20.812,29.09
20.828,26.25
20.843,23.51
20.859,21.0
20.875,18.75
20.890,16.69
20.906,14.87
20.921,13.22
20.937,11.67
20.953,10.09
20.968,8.29
20.984,6.12
21.000,3.5
21.015,0.45
21.031,-3.01
21.046,-6.84
21.062,-11.03
21.078,-15.58
21.093,-20.32
21.109,-24.91
21.125,-28.76
21.140,-31.1
21.156,-31.25
21.171,-28.85
21.187,-24.0
21.203,-17.3
21.218,-9.76
21.234,-2.42
21.250,3.85
21.265,8.69
21.281,12.13
21.296,14.49
21.312,16.02
21.328,16.88
21.343,17.0
21.359,16.24
21.375,14.58
21.390,12.08
21.406,9.14
21.421,6.05
21.437,3.07
21.453,0.22
21.468,-2.6
21.484,-5.57
21.500,-8.76
21.515,-12.02
21.531,-15.11
21.546,-17.64
21.562,-19.37
21.578,-20.21
21.593,-20.3
21.609,-19.88
21.625,-19.16
21.640,-18.28
21.656,-17.23
21.671,-16.08
21.687,-14.85
21.703,-13.66
21.718,-12.56
21.734,-11.45
21.750,-10.12
21.765,-8.19
21.781,-5.41
21.796,-1.62
21.812,2.9
21.828,7.72
21.843,12.28
21.859,16.17
21.875,19.11
21.890,21.01
21.906,21.96
21.921,22.05
21.937,21.44
21.953,20.17
21.968,18.32
21.984,16.0
22.000,13.44
22.015,10.92
22.031,8.72
22.046,7.04
22.062,5.99
22.078,5.49
22.093,5.4
22.109,5.45
22.125,5.45
22.140,5.14
22.156,4.37
22.171,3.03
22.187,1.13
22.203,-1.18
22.218,-3.66
22.234,-6.09
22.250,-8.35
22.265,-10.47
22.281,-12.69
22.296,-15.1
22.312,-17.68
22.328,-20.18
22.343,-22.26
22.359,-23.5
22.375,-23.64
22.390,-22.53
22.406,-20.08
22.421,-16.36
22.437,-11.54
22.453,-5.97
22.468,-0.15
22.484,5.3
22.500,9.89
22.515,13.27
22.531,15.37
22.546,16.31
22.562,16.37
22.578,15.79
22.593,14.8
22.609,13.49
22.625,11.96
22.640,10.38
22.656,8.87
22.671,7.57
22.687,6.54
22.703,5.8
22.718,5.31
22.734,5.01
22.750,4.86
22.765,4.88
22.781,5.04
22.796,5.31
22.812,5.59
22.828,5.72
22.843,5.56
22.859,5.04
22.875,4.13
22.890,2.84
22.906,1.22
22.921,-0.71
22.937,-2.9
22.953,-5.25
22.968,-7.61
22.984,-9.67
23.000,-10.99
23.015,-11.05
23.031,-9.5
23.046,-6.28
23.062,-1.72
23.078,3.58
23.093,8.86
23.109,13.56
23.125,17.3
23.140,20.05
23.156,21.9
23.171,23.04
23.187,23.6
23.203,23.69
23.218,23.48
23.234,23.07
23.250,22.61
23.265,22.19
23.281,21.9
23.296,21.73
23.312,21.76
23.328,22.0
23.343,22.38
23.359,22.79
23.375,22.95
23.390,22.55
23.406,21.33
23.421,19.23
23.437,16.29
23.453,12.78
23.468,8.97
23.484,5.11
23.500,1.32
23.515,-2.35
23.531,-5.93
23.546,-9.45
23.562,-12.95
23.578,-16.52
23.593,-20.21
23.609,-24.02
23.625,-27.81
23.640,-31.2
23.656,-33.65
23.671,-34.64
23.687,-33.83
23.703,-31.29
23.718,-27.39
23.734,-22.76
23.750,-18.04
23.765,-13.79
23.781,-10.3
23.796,-7.67
23.812,-5.9
23.828,-4.86
23.843,-4.45
23.859,-4.43
23.875,-4.63
23.890,-4.76
23.906,-4.66
23.921,-4.21
23.937,-3.44
23.953,-2.48
23.968,-1.49
23.984,-0.65
24.000,-0.12
24.015,0.03
24.031,-0.14
24.046,-0.49
24.062,-0.78
24.078,-0.79
24.093,-0.38
24.109,0.53
24.125,1.82
24.140,3.24
24.156,4.52
24.171,5.44
24.187,5.8
24.203,5.64
24.218,5.11
24.234,4.46
24.250,4.03
24.265,4.19
24.281,5.19
24.296,7.14
24.312,9.96
24.328,13.35
24.343,16.83
24.359,19.93
24.375,22.18
24.390,23.22
24.406,22.89
24.421,21.19
24.437,18.28
24.453,14.47
24.468,10.26
24.484,6.23
24.500,2.95
24.515,0.76
24.531,-0.31
24.546,-0.53
24.562,-0.38
24.578,-0.43
24.593,-1.12
24.609,-2.74
24.625,-5.41
24.640,-9.0
24.656,-13.28
24.671,-17.77
24.687,-21.95
24.703,-25.38
24.718,-27.84
24.734,-29.42
24.750,-30.62
24.765,-32.09
24.781,-34.36
24.796,-37.72
24.812,-42.02
24.828,-46.74
24.843,-51.23
24.859,-54.76
24.875,-56.64
24.890,-56.38
24.906,-53.81
24.921,-49.09
24.937,-42.75
24.953,-35.68
24.968,-28.77
24.984,-22.81
25.000,-18.22
25.015,-14.98
25.031,-12.89
25.046,-11.63
25.062,-11.07
25.078,-11.19
25.093,-12.0
25.109,-13.42
25.125,-15.19
25.140,-16.83
25.156,-17.93
25.171,-18.31
25.187,-18.08
25.203,-17.61
25.218,-17.39
25.234,-17.81
25.250,-19.0
25.265,-20.9
25.281,-23.3
25.296,-25.94
25.312,-28.64
25.328,-31.35
25.343,-34.03
25.359,-36.72
25.375,-39.45
25.390,-42.19
25.406,-44.82
25.421,-47.12
25.437,-48.71
25.453,-49.12
25.468,-47.94
25.484,-44.92
25.500,-40.08
25.515,-33.75
25.531,-26.5
25.546,-18.96
25.562,-11.66
25.578,-5.02
25.593,0.83
25.609,5.84
25.625,10.0
25.640,13.21
25.656,15.39
25.671,16.53
25.687,16.74
25.703,16.31
25.718,15.56
25.734,14.88
25.750,14.45
25.765,14.37
25.781,14.53
25.796,14.78
25.812,15.0
25.828,15.14
25.843,15.23
25.859,15.4
25.875,15.73
25.890,16.18
25.906,16.52
25.921,16.42
25.937,15.55
25.953,13.78
25.968,11.19
25.984,8.06
26.000,4.76
26.015,1.71
26.031,-0.72
26.046,-2.18
26.062,-2.29
26.078,-0.81
26.093,2.39
26.109,7.19
26.125,13.23
26.140,19.9
26.156,26.52
26.171,32.54
26.187,37.55
26.203,41.41
26.218,44.03
26.234,45.37
26.250,45.32
26.265,43.85
26.281,41.05
26.296,37.26
26.312,33.09
26.328,29.26
26.343,26.35
26.359,24.57
26.375,23.8
26.390,23.63
26.406,23.62
26.421,23.47
26.437,23.08
26.453,22.5
26.468,21.82
26.484,21.02
26.500,19.93
26.515,18.38
26.531,16.2
26.546,13.48
26.562,10.44
26.578,7.46
26.593,4.89
26.609,3.05
26.625,2.3
26.640,3.0
26.656,5.49
26.671,9.99
26.687,16.39
26.703,24.2
26.718,32.55
26.734,40.43
26.750,46.84
26.765,51.06
26.781,52.57
26.796,51.03
26.812,46.2
26.828,38.08
26.843,27.0
26.859,13.78
26.875,-0.34
26.890,-13.91
26.906,-25.47
26.921,-34.02
26.937,-39.03
26.953,-40.56
26.968,-38.99
26.984,-34.88
27.000,-28.87
27.015,-21.5
27.031,-13.41
27.046,-5.16
27.062,2.55
27.078,8.99
27.093,13.48
27.109,15.42
27.125,14.5
27.140,10.48
27.156,3.41
27.171,-6.52
27.187,-18.83
27.203,-32.66
27.218,-46.75
27.234,-59.48
27.250,-69.26
27.265,-74.7
27.281,-75.03
27.296,-70.25
27.312,-61.02
27.328,-48.47
27.343,-33.94
27.359,-18.8
27.375,-4.31
27.390,8.37
27.406,18.41
27.421,25.29
27.437,28.92
27.453,29.55
27.468,27.71
27.484,23.94
27.500,18.78
27.515,12.7
27.531,6.14
27.546,-0.47
27.562,-6.58
27.578,-11.72
27.593,-15.48
27.609,-17.73
27.625,-18.43
27.640,-17.77
27.656,-16.03
27.671,-13.55
27.687,-10.83
27.703,-8.31
27.718,-6.39
27.734,-5.35
27.750,-5.34
27.765,-6.32
27.781,-8.08
27.796,-10.43
27.812,-13.09
27.828,-15.91
27.843,-18.66
27.859,-20.98
27.875,-22.42
27.890,-22.4
27.906,-20.42
27.921,-16.17
27.937,-9.71
27.953,-1.47
27.968,7.79
27.984,17.23
28.000,26.06
28.015,33.7
28.031,39.97
28.046,44.82
28.062,48.42
28.078,50.97
28.093,52.69
28.109,53.73
28.125,54.26
28.140,54.42
28.156,54.23
28.171,53.69
28.187,52.73
28.203,51.18
28.218,48.91
28.234,45.89
28.250,42.14
28.265,37.87
28.281,33.39
28.296,29.1
28.312,25.41
28.328,22.59
28.343,20.69
28.359,19.54
28.375,18.82
28.390,18.16
28.406,17.27
28.421,16.03
28.437,14.43
28.453,12.58
28.468,10.55
28.484,8.42
28.500,6.25
28.515,4.04
28.531,1.86
28.546,-0.11
28.562,-1.62
28.578,-2.41
28.593,-2.24
28.609,-1.08
28.625,0.94
28.640,3.58
28.656,6.47
28.671,9.26
28.687,11.69
28.703,13.54
28.718,14.59
28.734,14.73
28.750,13.95
28.765,12.48
28.781,10.62
28.796,8.84
28.812,7.52
28.828,6.85
28.843,6.82
28.859,7.26
28.875,7.9
28.890,8.51
28.906,8.87
28.921,8.74
28.937,7.95
28.953,6.41
28.968,4.21
28.984,1.62
29.000,-0.92
29.015,-2.93
29.031,-4.07
29.046,-4.23
29.062,-3.66
29.078,-2.67
29.093,-1.68
29.109,-1.05
29.125,-1.07
29.140,-1.98
29.156,-3.91
29.171,-7.05
29.187,-11.45
29.203,-17.13
29.218,-23.93
29.234,-31.59
29.250,-39.67
29.265,-47.58
29.281,-54.64
29.296,-60.07
29.312,-63.22
29.328,-63.63
29.343,-61.18
29.359,-56.18
29.375,-49.37
29.390,-41.68
29.406,-34.07
29.421,-27.28
29.437,-21.68
29.453,-17.36
29.468,-14.09
29.484,-11.59
29.500,-9.53
29.515,-7.69
29.531,-5.81
29.546,-3.64
29.562,-0.98
29.578,2.28
29.593,6.11
29.609,10.29
29.625,14.5
29.640,18.39
29.656,21.67
29.671,24.2
29.687,25.98
29.703,27.05
29.718,27.46
29.734,27.22
29.750,26.27
29.765,24.64
29.781,22.33
29.796,19.41
29.812,16.01
29.828,12.29
29.843,8.42
29.859,4.64
29.875,1.13
29.890,-2.02
29.906,-4.74
29.921,-7.13
29.937,-9.35
29.953,-11.54
29.968,-13.8
29.984,-16.09
30.000,-18.23
30.015,-19.93
30.031,-20.95
30.046,-21.03
30.062,-19.99
30.078,-17.8
30.093,-14.51
30.109,-10.29
30.125,-5.42
30.140,-0.28
30.156,4.86
30.171,9.73
30.187,14.21
30.203,18.21
30.218,21.62
30.234,24.21
30.250,25.64
30.265,25.61
30.281,24.02
30.296,21.14
30.312,17.51
30.328,13.86
30.343,10.74
30.359,8.49
30.375,7.2
30.390,6.81
30.406,7.27
30.421,8.6
30.437,10.84
30.453,13.84
30.468,17.24
30.484,20.42
30.500,22.7
30.515,23.61
30.531,22.98
30.546,20.95
30.562,17.9
30.578,14.15
30.593,9.9
30.609,5.13
30.625,-0.25
30.640,-6.34
30.656,-13.0
30.671,-19.87
30.687,-26.46
30.703,-32.32
30.718,-37.1
30.734,-40.63
30.750,-42.79
30.765,-43.4
30.781,-42.43
30.796,-39.94
30.812,-36.2
30.828,-31.73
30.843,-27.19
30.859,-23.18
30.875,-20.06
30.890,-17.87
30.906,-16.39
30.921,-15.45
30.937,-14.97
30.953,-15.01
30.968,-15.65
30.984,-16.94
31.000,-18.68
31.015,-20.58
31.031,-22.26
31.046,-23.37
31.062,-23.79
31.078,-23.55
31.093,-22.8
31.109,-21.69
31.125,-20.32
31.140,-18.79
31.156,-17.16
31.171,-15.62
31.187,-14.3
31.203,-13.28
31.218,-12.52
31.234,-11.87
31.250,-11.14
31.265,-10.12
31.281,-8.71
31.296,-6.89
31.312,-4.72
31.328,-2.21
31.343,0.43
31.359,2.98
31.375,5.13
31.390,6.52
31.406,6.92
31.421,6.35
31.437,4.96
31.453,3.07
31.468,1.16
31.484,-0.39
31.500,-1.2
31.515,-1.03
31.531,0.12
31.546,2.09
31.562,4.53
31.578,7.0
31.593,9.11
31.609,10.66
31.625,11.54
31.640,11.79
31.656,11.44
31.671,10.49
31.687,9.02
31.703,7.12
31.718,4.95
31.734,2.72
31.750,0.68
31.765,-0.98
31.781,-2.17
31.796,-2.86
31.812,-3.15
31.828,-3.14
31.843,-2.97
31.859,-2.8
31.875,-2.67
31.890,-2.58
31.906,-2.49
31.921,-2.34
31.937,-2.1
31.953,-1.82
31.968,-1.59
31.984,-1.57
32.000,-1.88
32.015,-2.61
32.031,-3.77
32.046,-5.36
32.062,-7.31
32.078,-9.51
32.093,-11.96
32.109,-14.57
32.125,-17.2
32.140,-19.58
32.156,-21.27
32.171,-21.81
32.187,-20.82
32.203,-18.08
32.218,-13.64
32.234,-7.93
32.250,-1.57
32.265,4.73
32.281,10.27
32.296,14.62
32.312,17.6
32.328,19.33
32.343,20.02
32.359,19.97
32.375,19.34
32.390,18.27
32.406,16.83
32.421,14.99
32.437,12.82
32.453,10.36
32.468,7.78
32.484,5.2
32.500,2.83
32.515,0.78
32.531,-0.73
32.546,-1.57
32.562,-1.66
32.578,-0.93
32.593,0.57
32.609,2.72
32.625,5.28
32.640,8.02
32.656,10.58
32.671,12.79
32.687,14.51
32.703,15.66
32.718,16.34
32.734,16.61
32.750,16.62
32.765,16.53
32.781,16.48
32.796,16.66
32.812,17.23
32.828,18.34
32.843,19.88
32.859,21.65
32.875,23.23
32.890,24.4
32.906,25.43
32.921,27.06
32.937,30.44
32.953,36.66
32.968,46.15
32.984,58.41
33.000,72.08
33.015,85.36
33.031,96.81
33.046,105.97
33.062,113.28
33.078,119.99
33.093,127.45
33.109,136.57
33.125,147.52
33.140,159.8
33.156,172.42
33.171,184.19
33.187,193.96
33.203,200.49
33.218,202.81
33.234,200.39
33.250,193.38
33.265,182.39
33.281,168.0
33.296,150.03
33.312,127.19
33.328,97.3
33.343,58.09
33.359,8.86
33.375,-48.32
33.390,-108.04
33.406,-162.4
33.421,-203.15
33.437,-224.45
33.453,-224.72
33.468,-207.29
33.484,-179.04
33.500,-148.05
33.515,-121.16
33.531,-102.47
33.546,-93.21
33.562,-92.72
33.578,-99.67
33.593,-112.68
33.609,-130.34
33.625,-150.88
33.640,-172.12
33.656,-191.72
33.671,-207.95
33.687,-219.85
33.703,-227.24
33.718,-230.39
33.734,-229.53
33.750,-224.65
33.765,-215.53
33.781,-201.97
33.796,-184.04
33.812,-162.16
33.828,-137.05
33.843,-109.73
33.859,-81.34
33.875,-53.18
33.890,-26.44
33.906,-2.02
33.921,19.59
33.937,38.31
33.953,54.26
33.968,67.47
33.984,77.76
34.000,84.76
34.015,88.09
34.031,87.62
34.046,83.6
34.062,76.7
34.078,67.87
34.093,58.21
34.109,48.67
34.125,39.99
34.140,32.65
34.156,26.87
34.171,22.71
34.187,20.12
34.203,18.94
34.218,18.86
34.234,19.6
34.250,20.76
34.265,22.07
34.281,23.34
34.296,24.5
34.312,25.46
34.328,26.13
34.343,26.35
34.359,25.89
34.375,24.63
34.390,22.53
34.406,19.79
34.421,16.77
34.437,13.95
34.453,11.69
34.468,10.15
34.484,9.36
34.500,9.15
34.515,9.45
34.531,10.18
34.546,11.44
34.562,13.31
34.578,15.77
34.593,18.65
34.609,21.52
34.625,23.99
34.640,25.63
34.656,26.23
34.671,25.57
34.687,23.56
34.703,20.11
34.718,15.2
34.734,8.99
34.750,1.77
34.765,-5.92
34.781,-13.59
34.796,-20.74
34.812,-27.21
34.828,-33.09
34.843,-38.7
34.859,-44.4
34.875,-50.19
34.890,-55.73
34.906,-60.22
34.921,-62.74
34.937,-62.4
34.953,-58.72
34.968,-51.76
34.984,-42.07
35.000,-30.6
35.015,-18.4
35.031,-6.49
35.046,4.28
35.062,13.24
35.078,20.06
35.093,24.68
35.109,27.31
35.125,28.37
35.140,28.37
35.156,27.9
35.171,27.38
35.187,27.14
35.203,27.2
35.218,27.36
35.234,27.27
35.250,26.52
35.265,24.8
35.281,21.94
35.296,18.1
35.312,13.57
35.328,8.71
35.343,3.94
35.359,-0.43
35.375,-4.21
35.390,-7.2
35.406,-9.25
35.421,-10.27
35.437,-10.18
35.453,-9.17
35.468,-7.61
35.484,-6.08
35.500,-5.2
35.515,-5.44
35.531,-6.89
35.546,-9.2
35.562,-11.67
35.578,-13.47
35.593,-13.87
35.609,-12.49
35.625,-9.29
35.640,-4.59
35.656,1.13
35.671,7.32
35.687,13.55
35.703,19.47
35.718,24.92
35.734,29.65
35.750,33.47
35.765,36.13
35.781,37.32
35.796,36.83
35.812,34.65
35.828,30.99
35.843,26.34
35.859,21.42
35.875,16.84
35.890,13.21
35.906,10.85
35.921,9.84
35.937,10.04
35.953,11.13
35.968,12.69
35.984,14.37
36.000,15.94
36.015,17.31
36.031,18.49
36.046,19.48
36.062,20.2
36.078,20.52
36.093,20.28
36.109,19.32
36.125,17.66
36.140,15.47
36.156,13.04
36.171,10.79
36.187,9.19
36.203,8.62
36.218,9.42
36.234,11.69
36.250,15.23
36.265,19.59
36.281,24.13
36.296,28.22
36.312,31.37
36.328,33.34
36.343,34.1
36.359,33.84
36.375,32.82
36.390,31.26
36.406,29.41
36.421,27.44
36.437,25.49
36.453,23.68
36.468,22.04
36.484,20.5
36.500,18.99
36.515,17.38
36.531,15.51
36.546,13.25
36.562,10.48
36.578,7.19
36.593,3.49
36.609,-0.39
36.625,-4.2
36.640,-7.65
36.656,-10.56
36.671,-12.78
36.687,-14.29
36.703,-15.12
36.718,-15.42
36.734,-15.36
36.750,-15.19
36.765,-15.08
36.781,-15.13
36.796,-15.32
36.812,-15.49
36.828,-15.35
36.843,-14.62
36.859,-13.13
36.875,-10.79
36.890,-7.74
36.906,-4.16
36.921,-0.32
36.937,3.57
36.953,7.33
36.968,10.87
36.984,14.12
37.000,16.92
37.015,19.12
37.031,20.39
37.046,20.45
37.062,19.05
37.078,16.15
37.093,11.89
37.109,6.58
37.125,0.61
37.140,-5.68
37.156,-11.96
37.171,-17.95
37.187,-23.43
37.203,-28.12
37.218,-31.82
37.234,-34.46
37.250,-36.13
37.265,-37.05
37.281,-37.61
37.296,-38.15
37.312,-38.75
37.328,-39.4
37.343,-39.89
37.359,-40.0
37.375,-39.57
37.390,-38.7
37.406,-37.54
37.421,-36.42
37.437,-35.57
37.453,-35.0
37.468,-34.55
37.484,-33.83
37.500,-32.47
37.515,-30.11
37.531,-26.69
37.546,-22.29
37.562,-17.24
37.578,-11.89
37.593,-6.53
37.609,-1.36
37.625,3.64
37.640,8.55
37.656,13.39
37.671,18.04
37.687,22.17
37.703,25.26
37.718,26.82
37.734,26.5
37.750,24.22
37.765,20.32
37.781,15.35
37.796,9.96
37.812,4.75
37.828,0.15
37.843,-3.58
37.859,-6.3
37.875,-7.96
37.890,-8.65
37.906,-8.46
37.921,-7.62
37.937,-6.45
37.953,-5.31
37.968,-4.48
37.984,-4.1
38.000,-4.13
38.015,-4.28
38.031,-4.24
38.046,-3.7
38.062,-2.62
38.078,-1.28
38.093,-0.15
38.109,0.26
38.125,-0.38
38.140,-2.0
38.156,-4.1
38.171,-5.9
38.187,-6.59
38.203,-5.59
38.218,-2.69
38.234,1.99
38.250,8.01
38.265,14.82
38.281,21.85
38.296,28.61
38.312,34.73
38.328,39.96
38.343,44.11
38.359,47.07
38.375,48.8
38.390,49.31
38.406,48.66
38.421,47.04
38.437,44.72
38.453,42.06
38.468,39.33
38.484,36.69
38.500,34.04
38.515,31.14
38.531,27.73
38.546,23.63
38.562,18.85
38.578,13.61
38.593,8.27
38.609,3.11
38.625,-1.78
38.640,-6.66
38.656,-11.92
38.671,-17.93
38.687,-24.77
38.703,-32.09
38.718,-38.98
38.734,-44.32
38.750,-47.21
38.765,-47.45
38.781,-45.82
38.796,-43.75
38.812,-42.71
38.828,-43.72
38.843,-46.85
38.859,-51.03
38.875,-54.54
38.890,-55.83
38.906,-54.25
38.921,-50.43
38.937,-45.79
38.953,-41.98
38.968,-40.76
38.984,-43.29
39.000,-49.66
39.015,-58.33
39.031,-66.0
39.046,-68.07
39.062,-59.66
39.078,-37.0
39.093,1.01
39.109,50.56
39.125,103.74
39.140,150.48
39.156,182.13
39.171,194.16
39.187,187.03
39.203,165.15
39.218,134.93
39.234,102.27
39.250,69.95
39.265,38.0
39.281,4.73
39.296,-30.87
39.312,-68.45
39.328,-107.06
39.343,-146.24
39.359,-186.3
39.375,-220.43
39.390,-240.04
39.406,-238.34
39.421,-214.74
39.437,-173.53
39.453,-120.68
39.468,-62.26
39.484,-4.11
39.500,48.71
39.515,93.03
39.531,127.68
39.546,154.44
39.562,174.69
39.578,189.05
39.593,197.35
39.609,198.6
39.625,191.2
39.640,173.57
39.656,144.68
39.671,101.07
39.687,45.19
39.703,-16.92
39.718,-75.87
39.734,-121.32
39.750,-145.47
39.765,-146.13
39.781,-127.56
39.796,-102.79
39.812,-79.21
39.828,-61.56
39.843,-51.8
39.859,-47.78
39.875,-44.78
39.890,-38.22
39.906,-25.4
39.921,-5.84
39.937,19.63
39.953,50.25
39.968,85.83
39.984,123.2
40.000,158.47
40.015,188.01
40.031,208.99
40.046,219.84
40.062,220.68
40.078,213.35
40.093,201.33
40.109,188.11
40.125,176.22
40.140,167.34
40.156,161.97
40.171,159.18
40.187,157.28
40.203,154.99
40.218,152.21
40.234,150.71
40.250,152.48
40.265,158.51
40.281,168.38
40.296,180.14
40.312,190.71
40.328,197.23
40.343,198.22
40.359,193.71
40.375,185.29
40.390,174.67
40.406,162.93
40.421,150.42
40.437,136.96
40.453,122.18
40.468,106.14
40.484,89.53
40.500,73.41
40.515,59.03
40.531,47.27
40.546,38.38
40.562,32.4
40.578,29.26
40.593,28.78
40.609,30.88
40.625,35.37
40.640,41.76
40.656,49.31
40.671,57.06
40.687,63.87
40.703,68.89
40.718,71.53
40.734,71.57
40.750,69.21
40.765,64.81
40.781,58.68
40.796,51.13
40.812,42.41
40.828,32.61
40.843,21.95
40.859,10.67
40.875,-0.92
40.890,-12.42
40.906,-23.51
40.921,-34.02
40.937,-43.91
40.953,-53.27
40.968,-62.27
40.984,-71.1
41.000,-79.91
41.015,-88.88
41.031,-98.06
41.046,-107.43
41.062,-116.89
41.078,-126.19
41.093,-135.01
41.109,-142.94
41.125,-149.55
41.140,-154.5
41.156,-157.7
41.171,-159.18
41.187,-159.17
41.203,-157.96
41.218,-155.8
41.234,-152.83
41.250,-149.05
41.265,-144.32
41.281,-138.59
41.296,-132.04
41.312,-125.05
41.328,-118.15
41.343,-111.9
41.359,-106.64
41.375,-102.46
41.390,-99.16
41.406,-96.48
41.421,-94.37
41.437,-93.19
41.453,-93.81
41.468,-97.27
41.484,-104.3
41.500,-115.01
41.515,-128.62
41.531,-143.62
41.546,-158.21
41.562,-170.88
41.578,-180.88
41.593,-188.62
41.609,-195.25
41.625,-202.04
41.640,-209.86
41.656,-218.85
41.671,-228.85
41.687,-239.6
41.703,-251.43
41.718,-265.47
41.734,-283.49
41.750,-307.42
41.765,-339.06
41.781,-379.89
41.796,-430.53
41.812,-490.19
41.828,-555.43
41.843,-619.58
41.859,-673.45
41.875,-707.64
41.890,-715.5
41.906,-695.82
41.921,-653.37
41.937,-596.94
41.953,-536.16
41.968,-478.35
41.984,-427.01
42.000,-382.31
42.015,-342.88
42.031,-307.43
42.046,-275.39
42.062,-246.42
42.078,-219.39
42.093,-192.27
42.109,-162.71
42.125,-129.05
42.140,-91.05
42.156,-49.89
42.171,-7.85
42.187,32.7
42.203,70.07
42.218,103.67
42.234,133.81
42.250,161.1
42.265,185.92
42.281,208.01
42.296,226.56
42.312,240.61
42.328,249.6
42.343,253.8
42.359,254.47
42.375,253.44
42.390,252.65
42.406,253.47
42.421,256.4
42.437,260.92
42.453,265.73
42.468,269.11
42.484,269.39
42.500,265.18
42.515,255.47
42.531,239.71
42.546,217.67
42.562,189.45
42.578,155.54
42.593,116.77
42.609,74.38
42.625,30.02
42.640,-14.49
42.656,-57.31
42.671,-96.74
42.687,-131.41
42.703,-160.38
42.718,-183.15
42.734,-199.54
42.750,-209.75
42.765,-214.22
42.781,-213.58
42.796,-208.62
42.812,-200.18
42.828,-189.09
42.843,-176.17
42.859,-162.16
42.875,-147.7
42.890,-133.31
42.906,-119.44
42.921,-106.46
42.937,-94.68
42.953,-84.36
42.968,-75.7
42.984,-68.89
43.000,-64.04
43.015,-61.16
43.031,-60.18
43.046,-60.89
43.062,-62.92
43.078,-65.85
43.093,-69.16
43.109,-72.29
43.125,-74.69
43.140,-75.91
43.156,-75.56
43.171,-73.43
43.187,-69.39
43.203,-63.44
43.218,-55.64
43.234,-46.1
43.250,-34.88
43.265,-22.05
43.281,-7.59
43.296,8.58
43.312,26.54
43.328,46.32
43.343,67.85
43.359,90.92
43.375,115.11
43.390,139.75
43.406,163.95
43.421,186.66
43.437,206.77
43.453,223.15
43.468,234.82
43.484,241.0
43.500,241.19
43.515,235.21
43.531,223.28
43.546,205.82
43.562,183.6
43.578,157.55
43.593,128.74
43.609,98.28
43.625,67.33
43.640,36.96
43.656,8.2
43.671,-18.05
43.687,-40.99
43.703,-60.0
43.718,-74.64
43.734,-84.7
43.750,-90.25
43.765,-91.62
43.781,-89.46
43.796,-84.62
43.812,-78.02
43.828,-70.55
43.843,-63.05
43.859,-56.19
43.875,-50.53
43.890,-46.49
43.906,-44.42
43.921,-44.58
43.937,-47.24
43.953,-52.52
43.968,-60.18
43.984,-69.66
44.000,-80.03
44.015,-90.01
44.031,-98.07
44.046,-102.46
44.062,-101.42
44.078,-93.45
44.093,-77.37
44.109,-52.5
44.125,-18.73
44.140,23.28
44.156,71.98
44.171,124.83
44.187,178.41
44.203,228.8
44.218,271.91
44.234,304.33
44.250,323.77
44.265,329.51
44.281,322.37
44.296,304.43
44.312,278.38
44.328,246.95
44.343,212.54
44.359,177.22
44.375,143.06
44.390,112.4
44.406,87.92
44.421,72.44
44.437,68.46
44.453,77.32
44.468,98.8
44.484,131.07
44.500,171.17
44.515,215.77
44.531,261.98
44.546,307.58
44.562,351.49
44.578,393.42
44.593,433.71
44.609,473.05
44.625,511.73
44.640,548.7
44.656,580.69
44.671,602.14
44.687,606.4
44.703,588.35
44.718,547.28
44.734,488.68
44.750,423.79
44.765,366.39
44.781,327.99
44.796,313.9
44.812,321.8
44.828,343.42
44.843,368.32
44.859,387.83
44.875,397.3
44.890,396.08
44.906,385.79
44.921,368.72
44.937,347.53
44.953,325.88
44.968,308.74
44.984,301.1
45.000,305.44
45.015,319.32
45.031,335.5
45.046,344.36
45.062,338.22
45.078,314.75
45.093,277.57
45.109,234.09
45.125,191.69
45.140,154.91
45.156,124.59
45.171,99.43
45.187,77.78
45.203,58.89
45.218,42.88
45.234,29.66
45.250,18.49
45.265,8.12
45.281,-2.65
45.296,-14.36
45.312,-26.68
45.328,-38.6
45.343,-48.91
45.359,-56.7
45.375,-61.61
45.390,-63.93
45.406,-64.11
45.421,-62.49
45.437,-58.96
45.453,-53.05
45.468,-44.11
45.484,-31.8
45.500,-16.36
45.515,1.3
45.531,19.76
45.546,37.54
45.562,53.49
45.578,67.09
45.593,78.49
45.609,88.32
45.625,97.28
45.640,105.91
45.656,114.2
45.671,121.72
45.687,127.78
45.703,131.69
45.718,133.04
45.734,131.81
45.750,128.3
45.765,122.92
45.781,116.11
45.796,108.11
45.812,98.97
45.828,88.54
45.843,76.64
45.859,63.04
45.875,47.72
45.890,30.76
45.906,12.38
45.921,-6.97
45.937,-26.8
45.953,-46.47
45.968,-65.25
45.984,-82.41
46.000,-97.13
46.015,-108.65
46.031,-116.4
46.046,-120.26
46.062,-120.6
46.078,-118.26
46.093,-114.58
46.109,-111.03
46.125,-109.11
46.140,-109.73
46.156,-113.03
46.171,-118.55
46.187,-125.46
46.203,-132.91
46.218,-140.23
46.234,-147.1
46.250,-153.37
46.265,-159.13
46.281,-164.05
46.296,-167.3
46.312,-167.84
46.328,-165.2
46.343,-159.81
46.359,-153.22
46.375,-148.0
46.390,-147.16
46.406,-153.55
46.421,-168.55
46.437,-191.7
46.453,-221.39
46.468,-255.81
46.484,-293.6
46.500,-333.84
46.515,-376.34
46.531,-421.43
46.546,-470.17
46.562,-523.35
46.578,-580.83
46.593,-641.16
46.609,-701.24
46.625,-755.23
46.640,-794.3
46.656,-809.4
46.671,-794.52
46.687,-750.06
46.703,-682.07
46.718,-600.15
46.734,-515.03
46.750,-436.72
46.765,-372.33
46.781,-324.95
46.796,-295.69
46.812,-284.7
46.828,-292.19
46.843,-315.8
46.859,-349.48
46.875,-385.11
46.890,-415.21
46.906,-433.76
46.921,-435.63
46.937,-418.04
46.953,-376.15
46.968,-313.76
46.984,-243.02
47.000,-173.93
47.015,-105.67
47.031,-33.4
47.046,39.5
47.062,109.43
47.078,172.06
47.093,223.46
47.109,259.76
47.125,279.52
47.140,284.39
47.156,277.49
47.171,261.06
47.187,236.66
47.203,206.83
47.218,173.74
47.234,139.33
47.250,104.56
47.265,70.91
47.281,40.61
47.296,15.34
47.312,-5.03
47.328,-21.93
47.343,-36.29
47.359,-49.03
47.375,-60.67
47.390,-71.64
47.406,-81.2
47.421,-87.55
47.437,-88.99
47.453,-84.68
47.468,-74.44
47.484,-58.22
47.500,-36.57
47.515,-10.4
47.531,18.91
47.546,49.87
47.562,81.27
47.578,111.63
47.593,139.39
47.609,163.25
47.625,182.51
47.640,196.8
47.656,206.24
47.671,211.42
47.687,213.0
47.703,211.83
47.718,208.46
47.734,203.57
47.750,197.73
47.765,191.68
47.781,186.43
47.796,183.17
47.812,183.25
47.828,187.71
47.843,197.41
47.859,212.32
47.875,231.97
47.890,255.09
47.906,280.03
47.921,305.48
47.937,330.86
47.953,356.77
47.968,384.84
47.984,416.97
48.000,453.56
48.015,492.54
48.031,529.37
48.046,557.85
48.062,572.28
48.078,568.8
48.093,546.54
48.109,507.28
48.125,455.24
48.140,396.06
48.156,336.26
48.171,282.71
48.187,241.13
48.203,214.95
48.218,204.04
48.234,204.92
48.250,211.62
48.265,217.98
48.281,219.53
48.296,214.76
48.312,205.13
48.328,193.5
48.343,182.85
48.359,174.73
48.375,169.26
48.390,165.77
48.406,163.15
48.421,160.31
48.437,155.83
48.453,147.55
48.468,132.32
48.484,106.88
48.500,69.18
48.515,19.52
48.531,-38.76
48.546,-100.49
48.562,-160.3
48.578,-214.93
48.593,-263.8
48.609,-308.69
48.625,-351.84
48.640,-393.85
48.656,-432.56
48.671,-462.91
48.687,-478.59
48.703,-474.33
48.718,-447.86
48.734,-400.85
48.750,-337.99
48.765,-265.72
48.781,-190.72
48.796,-119.66
48.812,-58.89
48.828,-14.22
48.843,10.19
48.859,13.49
48.875,-1.39
48.890,-28.19
48.906,-60.0
48.921,-91.4
48.937,-119.77
48.953,-144.55
48.968,-165.29
48.984,-180.7
49.000,-188.75
49.015,-188.3
49.031,-180.06
49.046,-166.87
49.062,-151.69
49.078,-136.11
49.093,-119.58
49.109,-99.83
49.125,-75.11
49.140,-45.06
49.156,-11.11
49.171,24.61
49.187,60.14
49.203,94.29
49.218,126.3
49.234,155.05
49.250,179.39
49.265,198.34
49.281,212.07
49.296,221.79
49.312,229.61
49.328,237.17
49.343,245.12
49.359,252.78
49.375,258.23
49.390,259.51
49.406,254.97
49.421,243.84
49.437,225.93
49.453,201.28
49.468,169.91
49.484,132.13
49.500,88.59
49.515,40.49
49.531,-10.48
49.546,-63.02
49.562,-116.35
49.578,-170.06
49.593,-222.97
49.609,-272.05
49.625,-312.06
49.640,-337.04
49.656,-342.17
49.671,-326.22
49.687,-292.56
49.703,-248.14
49.718,-200.83
49.734,-156.6
49.750,-117.98
49.765,-84.57
49.781,-55.14
49.796,-29.64
49.812,-10.09
49.828,0.35
49.843,-0.61
49.859,-12.37
49.875,-31.08
49.890,-50.86
49.906,-66.16
49.921,-73.68
49.937,-73.17
49.953,-66.26
49.968,-54.94
49.984,-40.15
50.000,-21.75
50.015,0.25
50.031,24.28
50.046,46.85
50.062,63.38
50.078,69.92
50.093,65.2
50.109,50.72
50.125,30.05
50.140,6.72
50.156,-17.03
50.171,-40.92
50.187,-65.65
50.203,-91.88
50.218,-119.56
50.234,-147.94
50.250,-176.63
50.265,-205.91
50.281,-236.96
50.296,-270.36
50.312,-305.01
50.328,-336.82
50.343,-359.53
50.359,-366.44
50.375,-353.19
50.390,-319.87
50.406,-271.2
50.421,-215.37
50.437,-161.13
50.453,-115.55
50.468,-82.25
50.484,-61.78
50.500,-52.57
50.515,-52.0
50.531,-57.32
50.546,-65.36
50.562,-72.77
50.578,-76.3
50.593,-73.55
50.609,-63.87
50.625,-48.68
50.640,-31.09
50.656,-14.66
50.671,-2.37
50.687,4.52
50.703,6.31
50.718,4.7
50.734,2.03
50.750,0.46
50.765,1.76
50.781,6.71
50.796,15.38
50.812,26.93
50.828,40.19
50.843,53.56
50.859,65.77
50.875,76.01
50.890,83.92
50.906,89.83
50.921,94.16
50.937,97.53
50.953,100.31
50.968,102.93
50.984,105.41
51.000,107.64
51.015,109.32
51.031,109.75
51.046,108.12
51.062,103.5
51.078,95.16
51.093,82.63
51.109,65.86
51.125,45.08
51.140,20.93
51.156,-5.72
51.171,-33.67
51.187,-61.23
51.203,-86.25
51.218,-106.55
51.234,-120.26
51.250,-126.63
51.265,-126.3
51.281,-121.31
51.296,-114.78
51.312,-109.98
51.328,-109.49
51.343,-114.32
51.359,-123.56
51.375,-134.27
51.390,-142.16
51.406,-142.82
51.421,-133.29
51.437,-113.33
51.453,-85.79
51.468,-55.84
51.484,-29.22
51.500,-10.79
51.515,-3.17
51.531,-6.52
51.546,-18.98
51.562,-37.32
51.578,-57.42
51.593,-74.58
51.609,-84.36
51.625,-83.5
51.640,-71.0
51.656,-48.47
51.671,-19.46
51.687,11.92
51.703,42.49
51.718,70.46
51.734,95.32
51.750,117.0
51.765,135.23
51.781,149.82
51.796,160.72
51.812,168.8
51.828,175.43
51.843,182.26
51.859,190.39
51.875,200.16
51.890,211.09
51.906,221.95
51.921,230.71
51.937,234.08
51.953,228.29
51.968,209.74
51.984,176.84
52.000,131.1
52.015,77.54
52.031,23.43
52.046,-23.68
52.062,-57.98
52.078,-77.17
52.093,-82.44
52.109,-77.98
52.125,-69.12
52.140,-60.83
52.156,-56.04
52.171,-55.12
52.187,-56.42
52.203,-57.53
52.218,-57.17
52.234,-56.35
52.250,-58.18
52.265,-66.17
52.281,-82.34
52.296,-105.51
52.312,-131.25
52.328,-153.73
52.343,-167.57
52.359,-169.88
52.375,-160.65
52.390,-142.1
52.406,-117.56
52.421,-90.46
52.437,-63.95
52.453,-40.86
52.468,-24.04
52.484,-15.73
52.500,-17.44
52.515,-29.06
52.531,-48.4
52.546,-71.54
52.562,-93.68
52.578,-110.62
52.593,-119.95
52.609,-121.79
52.625,-117.77
52.640,-109.91
52.656,-99.13
52.671,-84.28
52.687,-62.72
52.703,-31.9
52.718,9.11
52.734,58.46
52.750,111.8
52.765,164.04
52.781,210.73
52.796,249.32
52.812,279.58
52.828,302.6
52.843,320.16
52.859,333.84
52.875,344.82
52.890,354.17
52.906,363.08
52.921,372.21
52.937,380.86
52.953,386.45
52.968,384.35
52.984,369.28
53.000,337.4
53.015,287.71
53.031,222.83
53.046,148.01
53.062,69.39
53.078,-7.47
53.093,-78.52
53.109,-141.15
53.125,-193.84
53.140,-235.43
53.156,-265.15
53.171,-282.47
53.187,-287.07
53.203,-279.54
53.218,-261.31
53.234,-235.15
53.250,-204.92
53.265,-175.21
53.281,-150.2
53.296,-132.92
53.312,-124.52
53.328,-124.07
53.343,-129.22
53.359,-136.81
53.375,-143.54
53.390,-146.83
53.406,-145.04
53.421,-137.47
53.437,-124.77
53.453,-108.52
53.468,-91.06
53.484,-75.08
53.500,-62.79
53.515,-55.31
53.531,-52.01
53.546,-50.34
53.562,-46.48
53.578,-36.99
53.593,-20.48
53.609,1.31
53.625,23.84
53.640,41.69
53.656,50.79
53.671,50.27
53.687,42.98
53.703,34.27
53.718,29.82
53.734,33.65
53.750,47.05
53.765,68.84
53.781,96.56
53.796,127.62
53.812,159.76
53.828,191.06
53.843,219.82
53.859,244.07
53.875,262.54
53.890,275.15
53.906,283.21
53.921,289.23
53.937,295.55
53.953,303.04
53.968,310.39
53.984,314.4
54.000,310.87
54.015,296.63
54.031,270.42
54.046,233.41
54.062,188.84
54.078,140.53
54.093,91.87
54.109,45.18
54.125,1.36
54.140,-39.24
54.156,-76.14
54.171,-108.46
54.187,-134.9
54.203,-154.16
54.218,-165.65
54.234,-168.99
54.250,-163.84
54.265,-149.62
54.281,-126.06
54.296,-94.07
54.312,-56.85
54.328,-20.1
54.343,9.47
54.359,26.06
54.375,27.14
54.390,14.49
54.406,-6.33
54.421,-28.22
54.437,-44.7
54.453,-51.95
54.468,-49.57
54.484,-40.05
54.500,-28.07
54.515,-18.94
54.531,-17.65
54.546,-27.69
54.562,-49.35
54.578,-79.02
54.593,-109.6
54.609,-132.16
54.625,-139.07
54.640,-126.75
54.656,-96.99
54.671,-56.0
54.687,-12.19
54.703,27.34
54.718,58.51
54.734,80.73
54.750,95.58
54.765,105.25
54.781,110.79
54.796,111.89
54.812,107.7
54.828,97.9
54.843,83.76
54.859,68.18
54.875,54.86
54.890,46.72
54.906,44.86
54.921,48.02
54.937,53.46
54.953,58.77
54.968,63.31
54.984,68.61
55.000,77.37
55.015,91.5
55.031,110.58
55.046,131.18
55.062,148.23
55.078,156.72
55.093,153.7
55.109,139.26
55.125,115.88
55.140,87.41
55.156,57.11
55.171,26.82
55.187,-3.37
55.203,-34.19
55.218,-66.25
55.234,-99.42
55.250,-132.72
55.265,-165.04
55.281,-195.56
55.296,-224.14
55.312,-250.8
55.328,-275.0
55.343,-295.07
55.359,-308.24
55.375,-311.19
55.390,-301.19
55.406,-277.61
55.421,-242.46
55.437,-200.23
55.453,-156.75
55.468,-117.48
55.484,-86.12
55.500,-64.01
55.515,-50.26
55.531,-42.67
55.546,-38.79
55.562,-36.42
55.578,-34.03
55.593,-30.74
55.609,-26.56
55.625,-22.75
55.640,-21.95
55.656,-27.45
55.671,-42.51
55.687,-69.07
55.703,-107.22
55.718,-155.22
55.734,-210.78
55.750,-272.14
55.765,-338.36
55.781,-408.51
55.796,-479.74
55.812,-546.05
55.828,-598.71
55.843,-628.65
55.859,-629.77
55.875,-601.73
55.890,-550.04
55.906,-483.97
55.921,-413.24
55.937,-344.67
55.953,-281.38
55.968,-223.75
55.984,-171.59
56.000,-125.78
56.015,-88.21
56.031,-60.66
56.046,-43.48
56.062,-35.03
56.078,-32.3
56.093,-32.26
56.109,-32.78
56.125,-33.02
56.140,-33.34
56.156,-34.02
56.171,-34.72
56.187,-34.06
56.203,-30.02
56.218,-20.66
56.234,-4.99
56.250,16.66
56.265,42.83
56.281,71.56
56.296,101.41
56.312,131.81
56.328,163.31
56.343,196.74
56.359,232.69
56.375,270.61
56.390,308.97
56.406,345.32
56.421,376.97
56.437,401.79
56.453,418.68
56.468,428.02
56.484,431.86
56.500,433.51
56.515,436.88
56.531,445.3
56.546,459.85
56.562,478.34
56.578,495.59
56.593,504.78
56.609,500.06
56.625,478.99
56.640,443.48
56.656,398.91
56.671,352.0
56.687,308.08
56.703,269.12
56.718,233.86
56.734,198.85
56.750,160.3
56.765,115.64
56.781,64.06
56.796,6.36
56.812,-55.52
56.828,-118.77
56.843,-179.76
56.859,-234.12
56.875,-277.28
56.890,-305.43
56.906,-317.3
56.921,-315.11
56.937,-304.27
56.953,-291.66
56.968,-282.4
56.984,-277.41
57.000,-272.83
57.015,-261.89
57.031,-238.56
57.046,-201.0
57.062,-153.24
57.078,-103.5
57.093,-60.84
57.109,-31.34
57.125,-16.49
57.140,-13.7
57.156,-18.96
57.171,-28.39
57.187,-38.35
57.203,-44.49
57.218,-40.49
57.234,-18.79
57.250,27.12
57.265,98.44
57.281,189.42
57.296,286.87
57.312,375.47
57.328,443.19
57.343,484.71
57.359,501.2
57.375,497.33
57.390,478.67
57.406,448.19
57.421,407.06
57.437,353.85
57.453,288.91
57.468,215.97
57.484,141.66
57.500,73.44
57.515,16.86
57.531,-24.48
57.546,-51.73
57.562,-68.69
57.578,-84.15
57.593,-105.39
57.609,-135.41
57.625,-172.22
57.640,-209.96
57.656,-242.6
57.671,-264.05
57.687,-272.87
57.703,-269.4
57.718,-260.23
57.734,-250.75
57.750,-243.8
57.765,-240.09
57.781,-239.32
57.796,-243.2
57.812,-253.25
57.828,-274.04
57.843,-277.62
57.859,-247.57
57.875,-184.81
57.890,-108.3
57.906,-38.67
57.921,14.84
57.937,37.49
57.953,38.87
57.968,26.83
57.984,8.05
58.000,-19.42
58.015,-58.65
58.031,-100.7
58.046,-139.55
58.062,-169.76
58.078,-189.71
58.093,-199.8
58.109,-205.7
58.125,-212.59
58.140,-230.54
58.156,-245.83
58.171,-246.34
58.187,-223.96
58.203,-176.48
58.218,-109.56
58.234,-32.74
58.250,30.59
58.265,77.32
58.281,104.42
58.296,112.53
58.312,105.32
58.328,89.35
58.343,76.91
58.359,75.71
58.375,89.59
58.390,119.66
58.406,168.18
58.421,234.53
58.437,309.35
58.453,375.61
58.468,417.26
58.484,428.26
58.500,419.65
58.515,399.64
58.531,374.18
58.546,349.22
58.562,326.94
58.578,304.67
58.593,281.06
58.609,256.51
58.625,233.71
58.640,213.56
58.656,194.09
58.671,173.16
58.687,149.54
58.703,121.54
58.718,89.03
58.734,54.11
58.750,23.11
58.765,7.08
58.781,13.96
58.796,44.19
58.812,91.49
58.828,143.29
58.843,183.07
58.859,196.74
58.875,176.39
58.890,125.2
58.906,57.7
58.921,-12.04
58.937,-75.88
58.953,-130.26
58.968,-175.14
58.984,-211.83
59.000,-240.59
59.015,-262.87
59.031,-278.11
59.046,-281.3
59.062,-270.92
59.078,-248.55
59.093,-214.99
59.109,-171.64
59.125,-122.76
59.140,-59.02
59.156,11.57
59.171,50.95
59.187,47.65
59.203,10.04
59.218,-53.23
59.234,-131.65
59.250,-215.26
59.265,-295.9
59.281,-366.89
59.296,-424.9
59.312,-465.73
59.328,-482.44
59.343,-475.46
59.359,-453.37
59.375,-428.29
59.390,-412.07
59.406,-411.5
59.421,-425.07
59.437,-444.97
59.453,-457.09
59.468,-444.33
59.484,-397.98
59.500,-320.33
59.515,-221.5
59.531,-115.39
59.546,-15.12
59.562,70.39
59.578,136.0
59.593,181.14
59.609,209.17
59.625,221.86
59.640,219.13
59.656,201.32
59.671,170.51
59.687,130.93
59.703,88.81
59.718,50.25
59.734,20.85
59.750,5.46
59.765,6.13
59.781,22.75
59.796,53.97
59.812,96.94
59.828,146.48
59.843,194.83
59.859,232.43
59.875,250.95
59.890,246.98
59.906,223.69
59.921,190.32
59.937,159.02
59.953,140.06
59.968,137.89
59.984,150.33
