timestamp,value
00.000,11.55
00.015,26.12
00.031,38.44
00.046,48.36
00.062,56.2
00.078,62.32
00.093,66.91
00.109,69.94
00.125,71.24
00.140,70.71
00.156,68.45
00.171,64.78
00.187,60.14
00.203,55.05
00.218,50.01
00.234,45.52
00.250,42.0
00.265,39.81
00.281,39.15
00.296,39.99
00.312,42.08
00.328,44.96
00.343,48.01
00.359,50.6
00.375,52.16
00.390,52.34
00.406,51.07
00.421,48.6
00.437,45.48
00.453,42.37
00.468,39.85
00.484,38.18
00.500,37.23
00.515,36.51
00.531,35.38
00.546,33.36
00.562,30.23
00.578,26.14
00.593,21.47
00.609,16.62
00.625,11.8
00.640,7.01
00.656,1.97
00.671,-3.68
00.687,-10.27
00.703,-17.94
00.718,-26.44
00.734,-35.04
00.750,-42.6
00.765,-47.75
00.781,-49.25
00.796,-46.48
00.812,-39.71
00.828,-30.06
00.843,-19.26
00.859,-9.06
00.875,-0.64
00.890,5.57
00.906,9.96
00.921,13.34
00.937,16.56
00.953,20.13
00.968,23.98
00.984,27.45
01.000,29.48
01.015,28.92
01.031,24.98
01.046,17.61
01.062,7.64
01.078,-3.38
01.093,-13.66
01.109,-21.69
01.125,-26.69
01.140,-28.81
01.156,-28.79
01.171,-27.7
01.187,-26.43
01.203,-25.57
01.218,-25.41
01.234,-26.09
01.250,-27.79
01.265,-30.7
01.281,-35.01
01.296,-40.68
01.312,-47.39
01.328,-54.48
01.343,-61.11
01.359,-66.46
01.375,-70.0
01.390,-71.58
01.406,-71.45
01.421,-70.05
01.437,-67.82
01.453,-65.03
01.468,-61.78
01.484,-58.07
01.500,-54.06
01.515,-50.25
01.531,-47.44
01.546,-46.61
01.562,-48.58
01.578,-53.69
01.593,-61.53
01.609,-70.98
01.625,-80.42
01.640,-88.12
01.656,-92.74
01.671,-93.62
01.687,-90.89
01.703,-85.34
01.718,-78.11
01.734,-70.28
01.750,-62.63
01.765,-55.47
01.781,-48.76
01.796,-42.24
01.812,-35.69
01.828,-29.03
01.843,-22.32
01.859,-15.68
01.875,-9.22
01.890,-2.99
01.906,3.05
01.921,8.89
01.937,14.44
01.953,19.7
01.968,24.68
01.984,29.47
02.000,34.12
02.015,38.48
02.031,42.23
02.046,44.91
02.062,46.12
02.078,45.72
02.093,43.91
02.109,41.01
02.125,37.36
02.140,33.12
02.156,28.27
02.171,22.81
02.187,16.84
02.203,10.59
02.218,4.33
02.234,-1.84
02.250,-8.02
02.265,-14.43
02.281,-21.3
02.296,-28.61
02.312,-36.11
02.328,-43.39
02.343,-50.01
02.359,-55.67
02.375,-60.25
02.390,-63.9
02.406,-67.0
02.421,-70.01
02.437,-73.29
02.453,-76.9
02.468,-80.31
02.484,-82.5
02.500,-82.18
02.515,-78.2
02.531,-70.02
02.546,-57.94
02.562,-43.06
02.578,-26.9
02.593,-10.95
02.609,3.66
02.625,16.36
02.640,26.97
02.656,35.61
02.671,42.4
02.687,47.51
02.703,51.08
02.718,53.29
02.734,54.34
02.750,54.4
02.765,53.7
02.781,52.43
02.796,50.8
02.812,49.0
02.828,47.19
02.843,45.5
02.859,43.96
02.875,42.62
02.890,41.51
02.906,40.69
02.921,40.22
02.937,39.99
02.953,39.78
02.968,39.22
02.984,37.96
03.000,35.79
03.015,32.77
03.031,29.24
03.046,25.6
03.062,22.18
03.078,19.09
03.093,16.19
03.109,13.19
03.125,9.86
03.140,6.17
03.156,2.28
03.171,-1.51
03.187,-4.95
03.203,-7.96
03.218,-10.63
03.234,-13.26
03.250,-16.21
03.265,-19.83
03.281,-24.24
03.296,-29.33
03.312,-34.52
03.328,-38.79
03.343,-40.81
03.359,-39.36
03.375,-33.71
03.390,-23.97
03.406,-11.13
03.421,3.29
03.437,17.67
03.453,30.85
03.468,42.42
03.484,52.59
03.500,61.78
03.515,70.31
03.531,78.11
03.546,84.86
03.562,90.19
03.578,93.73
03.593,95.45
03.609,95.72
03.625,95.2
03.640,94.71
03.656,94.94
03.671,96.28
03.687,98.78
03.703,102.13
03.718,105.37
03.734,107.42
03.750,107.53
03.765,105.52
03.781,101.88
03.796,97.42
03.812,92.99
03.828,89.29
03.843,86.86
03.859,85.47
03.875,84.62
03.890,83.95
03.906,83.22
03.921,82.17
03.937,80.2
03.953,76.09
03.968,68.23
03.984,55.12
04.000,35.19
04.015,7.98
04.031,-25.15
04.046,-61.19
04.062,-96.57
04.078,-128.27
04.093,-154.89
04.109,-176.73
04.125,-190.21
04.140,-191.7
04.156,-179.26
04.171,-154.19
04.187,-120.42
04.203,-82.45
04.218,-43.7
04.234,-6.67
04.250,26.9
04.265,56.04
04.281,79.89
04.296,97.38
04.312,109.89
04.328,119.13
04.343,126.5
04.359,133.0
04.375,139.03
04.390,144.62
04.406,149.73
04.421,153.79
04.437,155.98
04.453,155.47
04.468,153.5
04.484,150.56
04.500,146.94
04.515,142.74
04.531,138.06
04.546,133.12
04.562,127.95
04.578,122.52
04.593,116.99
04.609,111.56
04.625,106.2
04.640,101.0
04.656,96.07
04.671,91.52
04.687,87.51
04.703,84.07
04.718,81.11
04.734,78.59
04.750,76.38
04.765,74.15
04.781,71.6
04.796,68.53
04.812,64.79
04.828,60.36
04.843,55.2
04.859,49.38
04.875,43.02
04.890,36.3
04.906,29.32
04.921,22.26
04.937,15.34
04.953,8.83
04.968,2.98
04.984,-2.02
05.000,-6.02
05.015,-8.93
05.031,-10.73
05.046,-11.55
05.062,-11.54
05.078,-10.91
05.093,-9.85
05.109,-8.62
05.125,-7.5
05.140,-6.78
05.156,-6.7
05.171,-7.41
05.187,-8.95
05.203,-11.23
05.218,-14.04
05.234,-17.15
05.250,-20.35
05.265,-23.6
05.281,-26.98
05.296,-30.69
05.312,-34.9
05.328,-39.69
05.343,-44.93
05.359,-50.38
05.375,-55.74
05.390,-60.84
05.406,-65.71
05.421,-70.68
05.437,-76.2
05.453,-82.64
05.468,-90.12
05.484,-98.41
05.500,-106.93
05.515,-115.08
05.531,-122.37
05.546,-128.76
05.562,-134.62
05.578,-140.54
05.593,-147.08
05.609,-154.41
05.625,-162.23
05.640,-169.96
05.656,-177.04
05.671,-183.32
05.687,-189.29
05.703,-196.03
05.718,-204.93
05.734,-217.42
05.750,-234.59
05.765,-256.83
05.781,-283.49
05.796,-312.61
05.812,-340.94
05.828,-364.52
05.843,-379.72
05.859,-384.34
05.875,-378.33
05.890,-363.64
05.906,-343.1
05.921,-319.09
05.937,-292.41
05.953,-261.98
05.968,-225.63
05.984,-181.33
06.000,-128.33
06.015,-67.81
06.031,-2.68
06.046,63.11
06.062,125.32
06.078,180.21
06.093,224.91
06.109,257.5
06.125,276.96
06.140,282.95
06.156,275.71
06.171,256.13
06.187,226.03
06.203,188.31
06.218,146.97
06.234,106.57
06.250,71.38
06.265,44.27
06.281,26.18
06.296,15.86
06.312,10.52
06.328,6.75
06.343,1.64
06.359,-6.47
06.375,-17.75
06.390,-31.25
06.406,-45.39
06.421,-58.44
06.437,-68.8
06.453,-74.92
06.468,-75.32
06.484,-68.74
06.500,-54.7
06.515,-34.02
06.531,-8.89
06.546,17.65
06.562,42.98
06.578,65.78
06.593,86.01
06.609,103.82
06.625,118.1
06.640,125.63
06.656,121.77
06.671,102.42
06.687,66.01
06.703,14.36
06.718,-48.03
06.734,-115.73
06.750,-183.99
06.765,-249.15
06.781,-308.05
06.796,-357.24
06.812,-392.98
06.828,-412.4
06.843,-414.87
06.859,-402.72
06.875,-380.35
06.890,-352.36
06.906,-321.7
06.921,-289.08
06.937,-253.69
06.953,-214.87
06.968,-173.5
06.984,-132.18
07.000,-94.18
07.015,-61.82
07.031,-35.38
07.046,-13.15
07.062,7.45
07.078,28.45
07.093,50.35
07.109,71.96
07.125,91.36
07.140,106.85
07.156,117.64
07.171,123.84
07.187,125.82
07.203,123.6
07.218,116.71
07.234,104.6
07.250,87.36
07.265,66.25
07.281,43.58
07.296,21.98
07.312,3.69
07.328,-9.99
07.343,-18.65
07.359,-22.54
07.375,-22.36
07.390,-19.39
07.406,-15.61
07.421,-13.74
07.437,-16.72
07.453,-27.07
07.468,-46.08
07.484,-73.53
07.500,-107.88
07.515,-146.71
07.531,-187.33
07.546,-227.02
07.562,-263.23
07.578,-293.54
07.593,-315.74
07.609,-327.93
07.625,-329.01
07.640,-318.92
07.656,-298.9
07.671,-271.33
07.687,-239.32
07.703,-206.02
07.718,-173.86
07.734,-144.19
07.750,-117.23
07.765,-92.54
07.781,-69.39
07.796,-47.14
07.812,-25.23
07.828,-3.2
07.843,19.43
07.859,42.86
07.875,66.86
07.890,90.56
07.906,112.51
07.921,131.2
07.937,145.46
07.953,154.88
07.968,159.79
07.984,161.09
08.000,159.8
08.015,156.79
08.031,152.69
08.046,147.88
08.062,142.92
08.078,138.8
08.093,137.04
08.109,139.86
08.125,150.08
08.140,170.84
08.156,204.66
08.171,252.26
08.187,311.12
08.203,375.11
08.218,435.35
08.234,482.37
08.250,509.0
08.265,512.32
08.281,494.14
08.296,459.66
08.312,415.3
08.328,366.59
08.343,317.24
08.359,269.32
08.375,223.77
08.390,181.03
08.406,141.04
08.421,103.14
08.437,66.21
08.453,29.27
08.468,-7.92
08.484,-44.51
08.500,-78.84
08.515,-109.19
08.531,-134.37
08.546,-154.17
08.562,-169.21
08.578,-180.45
08.593,-188.65
08.609,-194.28
08.625,-197.62
08.640,-199.02
08.656,-199.08
08.671,-198.43
08.687,-197.3
08.703,-195.23
08.718,-190.95
08.734,-182.93
08.750,-169.98
08.765,-152.03
08.781,-130.22
08.796,-106.53
08.812,-82.91
08.828,-60.5
08.843,-39.32
08.859,-18.43
08.875,3.36
08.890,26.78
08.906,51.6
08.921,76.8
08.937,100.89
08.953,122.48
08.968,140.82
08.984,155.93
09.000,168.68
09.015,180.85
09.031,195.0
09.046,213.88
09.062,239.18
09.078,270.07
09.093,302.23
09.109,328.45
09.125,340.68
09.140,333.18
09.156,304.91
09.171,260.04
09.187,206.12
09.203,150.83
09.218,99.17
09.234,52.55
09.250,9.92
09.265,-29.9
09.281,-66.47
09.296,-97.6
09.312,-120.75
09.328,-134.82
09.343,-141.32
09.359,-143.72
09.375,-146.0
09.390,-150.86
09.406,-158.94
09.421,-168.87
09.437,-178.44
09.453,-185.63
09.468,-189.18
09.484,-188.38
09.500,-182.65
09.515,-171.18
09.531,-153.14
09.546,-128.21
09.562,-97.13
09.578,-61.95
09.593,-25.57
09.609,9.06
09.625,39.7
09.640,65.39
09.656,86.38
09.671,103.79
09.687,119.02
09.703,133.2
09.718,146.75
09.734,159.36
09.750,170.1
09.765,177.93
09.781,182.19
09.796,182.96
09.812,180.94
09.828,177.13
09.843,172.29
09.859,166.67
09.875,160.06
09.890,152.17
09.906,143.02
09.921,133.14
09.937,123.42
09.953,114.66
09.968,107.31
09.984,101.39
10.000,96.57
10.015,92.52
10.031,89.01
10.046,85.9
10.062,83.03
10.078,80.06
10.093,76.47
10.109,71.65
10.125,65.1
10.140,56.53
10.156,45.95
10.171,33.63
10.187,19.95
10.203,5.37
10.218,-9.67
10.234,-24.76
10.250,-39.47
10.265,-53.3
10.281,-65.71
10.296,-76.25
10.312,-84.64
10.328,-90.84
10.343,-94.92
10.359,-96.73
10.375,-95.82
10.390,-91.31
10.406,-82.25
10.421,-68.04
10.437,-48.93
10.453,-26.14
10.468,-1.62
10.484,22.54
10.500,44.72
10.515,64.15
10.531,80.87
10.546,95.4
10.562,108.27
10.578,119.65
10.593,129.38
10.609,137.12
10.625,142.62
10.640,145.84
10.656,146.95
10.671,146.06
10.687,143.18
10.703,138.19
10.718,130.99
10.734,121.73
10.750,110.85
10.765,99.04
10.781,86.99
10.796,75.09
10.812,63.33
10.828,51.31
10.843,38.37
10.859,23.9
10.875,7.58
10.890,-10.53
10.906,-30.05
10.921,-50.26
10.937,-70.27
10.953,-89.0
10.968,-105.36
10.984,-118.37
11.000,-127.38
11.015,-132.21
11.031,-133.26
11.046,-131.35
11.062,-127.56
11.078,-122.97
11.093,-118.43
11.109,-114.55
11.125,-111.7
11.140,-110.21
11.156,-110.37
11.171,-112.55
11.187,-117.06
11.203,-123.89
11.218,-132.6
11.234,-142.16
11.250,-151.11
11.265,-157.74
11.281,-160.52
11.296,-158.5
11.312,-151.65
11.328,-140.94
11.343,-128.18
11.359,-115.67
11.375,-105.66
11.390,-99.81
11.406,-98.87
11.421,-102.56
11.437,-109.68
11.453,-118.49
11.468,-126.94
11.484,-132.97
11.500,-134.75
11.515,-130.86
11.531,-120.51
11.546,-103.61
11.562,-80.86
11.578,-53.5
11.593,-23.07
11.609,8.93
11.625,41.26
11.640,72.93
11.656,103.18
11.671,131.39
11.687,157.2
11.703,180.44
11.718,201.26
11.734,219.93
11.750,236.66
11.765,251.46
11.781,264.15
11.796,274.48
11.812,282.19
11.828,287.07
11.843,288.91
11.859,287.46
11.875,282.45
11.890,273.71
11.906,261.13
11.921,244.65
11.937,224.27
11.953,200.07
11.968,172.52
11.984,142.75
12.000,112.72
12.015,84.82
12.031,61.1
12.046,42.36
12.062,27.65
12.078,14.69
12.093,1.0
12.109,-14.82
12.125,-32.33
12.140,-49.44
12.156,-63.67
12.171,-73.36
12.187,-78.6
12.203,-81.01
12.218,-82.76
12.234,-85.36
12.250,-89.02
12.265,-92.76
12.281,-95.2
12.296,-95.24
12.312,-92.46
12.328,-87.0
12.343,-79.27
12.359,-69.9
12.375,-59.88
12.390,-50.74
12.406,-44.33
12.421,-42.33
12.437,-45.56
12.453,-53.53
12.468,-64.49
12.484,-76.05
12.500,-85.89
12.515,-92.44
12.531,-95.04
12.546,-93.69
12.562,-88.64
12.578,-80.09
12.593,-68.21
12.609,-53.39
12.625,-36.66
12.640,-19.66
12.656,-4.48
12.671,6.96
12.687,13.56
12.703,15.35
12.718,13.32
12.734,8.84
12.750,3.0
12.765,-3.82
12.781,-11.79
12.796,-21.14
12.812,-31.66
12.828,-42.45
12.843,-52.08
12.859,-59.15
12.875,-62.81
12.890,-63.1
12.906,-61.04
12.921,-58.18
12.937,-56.23
12.953,-56.75
12.968,-61.07
12.984,-70.44
13.000,-85.84
13.015,-107.78
13.031,-135.68
13.046,-167.52
13.062,-199.95
13.078,-229.22
13.093,-252.46
13.109,-268.52
13.125,-277.89
13.140,-281.76
13.156,-280.88
13.171,-275.07
13.187,-263.88
13.203,-247.54
13.218,-227.91
13.234,-208.04
13.250,-190.81
13.265,-177.29
13.281,-165.88
13.296,-153.02
13.312,-134.8
13.328,-108.88
13.343,-75.32
13.359,-36.23
13.375,5.71
13.390,48.54
13.406,91.49
13.421,134.5
13.437,177.17
13.453,218.12
13.468,254.92
13.484,285.05
13.500,307.01
13.515,321.06
13.531,329.06
13.546,333.34
13.562,335.51
13.578,335.71
13.593,332.8
13.609,325.38
13.625,312.95
13.640,296.56
13.656,278.57
13.671,261.76
13.687,248.11
13.703,238.1
13.718,230.66
13.734,223.76
13.750,215.28
13.765,203.78
13.781,188.9
13.796,171.1
13.812,151.16
13.828,129.7
13.843,107.03
13.859,83.35
13.875,59.22
13.890,35.95
13.906,15.48
13.921,-0.18
13.937,-9.71
13.953,-13.21
13.968,-12.2
13.984,-9.24
14.000,-7.09
14.015,-8.04
14.031,-13.46
14.046,-23.85
14.062,-39.0
14.078,-58.13
14.093,-79.85
14.109,-102.2
14.125,-122.88
14.140,-139.8
14.156,-151.61
14.171,-158.03
14.187,-159.68
14.203,-157.64
14.218,-152.79
14.234,-145.61
14.250,-136.21
14.265,-124.87
14.281,-112.32
14.296,-99.8
14.312,-88.68
14.328,-79.93
14.343,-73.77
14.359,-69.71
14.375,-66.94
14.390,-64.78
14.406,-62.95
14.421,-61.45
14.437,-60.15
14.453,-58.52
14.468,-55.46
14.484,-49.58
14.500,-39.86
14.515,-26.36
14.531,-10.6
14.546,4.64
14.562,16.2
14.578,21.58
14.593,19.8
14.609,11.63
14.625,-0.99
14.640,-15.72
14.656,-30.59
14.671,-44.24
14.687,-55.85
14.703,-64.85
14.718,-70.9
14.734,-73.97
14.750,-74.6
14.765,-73.91
14.781,-73.25
14.796,-73.73
14.812,-75.72
14.828,-78.86
14.843,-82.21
14.859,-84.74
14.875,-85.86
14.890,-85.72
14.906,-85.22
14.921,-85.74
14.937,-88.47
14.953,-93.95
14.968,-101.65
14.984,-110.08
15.000,-117.39
15.015,-122.03
15.031,-123.28
15.046,-121.34
15.062,-116.9
15.078,-110.61
15.093,-102.87
15.109,-93.97
15.125,-84.58
15.140,-76.12
15.156,-70.52
15.171,-69.35
15.187,-72.87
15.203,-79.59
15.218,-86.76
15.234,-91.39
15.250,-91.81
15.265,-88.17
15.281,-82.33
15.296,-76.64
15.312,-72.63
15.328,-70.33
15.343,-68.47
15.359,-65.37
15.375,-60.01
15.390,-52.56
15.406,-44.27
15.421,-36.84
15.437,-31.64
15.453,-29.33
15.468,-29.84
15.484,-32.68
15.500,-37.24
15.515,-42.93
15.531,-49.01
15.546,-54.44
15.562,-57.77
15.578,-57.35
15.593,-51.95
15.609,-41.24
15.625,-26.08
15.640,-8.38
15.656,9.61
15.671,26.03
15.687,40.01
15.703,51.64
15.718,61.52
15.734,70.13
15.750,77.39
15.765,82.63
15.781,84.96
15.796,83.76
15.812,78.98
15.828,71.17
15.843,61.2
15.859,50.01
15.875,38.35
15.890,26.79
15.906,15.72
15.921,5.44
15.937,-3.87
15.953,-12.19
15.968,-19.79
15.984,-27.17
16.000,-35.03
16.015,-44.1
16.031,-54.9
16.046,-67.62
16.062,-81.95
16.078,-97.13
16.093,-112.18
16.109,-126.1
16.125,-138.12
16.140,-147.9
16.156,-155.59
16.171,-161.59
16.187,-166.44
16.203,-170.49
16.218,-173.8
16.234,-176.16
16.250,-177.12
16.265,-176.28
16.281,-173.43
16.296,-168.79
16.312,-163.05
16.328,-157.32
16.343,-152.93
16.359,-151.08
16.375,-152.35
16.390,-156.18
16.406,-160.8
16.421,-163.42
16.437,-161.11
16.453,-151.82
16.468,-135.07
16.484,-112.11
16.500,-85.33
16.515,-57.33
16.531,-30.0
16.546,-4.14
16.562,20.47
16.578,44.57
16.593,68.87
16.609,93.74
16.625,118.88
16.640,143.42
16.656,165.93
16.671,184.73
16.687,198.34
16.703,205.89
16.718,207.42
16.734,203.98
16.750,197.23
16.765,189.06
16.781,181.03
16.796,174.17
16.812,168.84
16.828,164.88
16.843,161.75
16.859,158.75
16.875,155.13
16.890,150.27
16.906,143.74
16.921,135.5
16.937,125.83
16.953,115.29
16.968,104.64
16.984,94.63
17.000,85.79
17.015,78.27
17.031,71.77
17.046,65.66
17.062,59.32
17.078,52.37
17.093,44.81
17.109,36.96
17.125,29.17
17.140,21.51
17.156,13.62
17.171,4.65
17.187,-6.38
17.203,-20.19
17.218,-36.81
17.234,-55.15
17.250,-72.95
17.265,-86.97
17.281,-93.81
17.296,-90.76
17.312,-76.74
17.328,-52.78
17.343,-21.73
17.359,12.47
17.375,46.02
17.390,76.16
17.406,101.63
17.421,122.44
17.437,139.39
17.453,153.34
17.468,164.97
17.484,174.65
17.500,182.65
17.515,189.29
17.531,194.99
17.546,200.18
17.562,205.19
17.578,210.15
17.593,215.0
17.609,219.59
17.625,223.86
17.640,227.92
17.656,232.02
17.671,236.29
17.687,240.59
17.703,244.24
17.718,246.15
17.734,245.07
17.750,240.0
17.765,230.64
17.781,217.39
17.796,201.36
17.812,183.9
17.828,166.23
17.843,149.19
17.859,133.16
17.875,118.17
17.890,104.05
17.906,90.58
17.921,77.58
17.937,64.99
17.953,52.8
17.968,41.01
17.984,29.5
18.000,18.07
18.015,6.35
18.031,-6.05
18.046,-19.38
18.062,-33.57
18.078,-48.02
18.093,-61.5
18.109,-72.25
18.125,-78.31
18.140,-78.01
18.156,-70.44
18.171,-55.85
18.187,-35.58
18.203,-11.79
18.218,13.2
18.234,37.43
18.250,59.6
18.265,79.11
18.281,95.74
18.296,109.46
18.312,120.17
18.328,127.75
18.343,131.98
18.359,132.61
18.375,129.37
18.390,122.07
18.406,110.79
18.421,95.99
18.437,78.59
18.453,59.75
18.468,40.59
18.484,21.77
18.500,3.5
18.515,-14.28
18.531,-31.52
18.546,-47.75
18.562,-62.1
18.578,-73.67
18.593,-81.96
18.609,-87.11
18.625,-89.86
18.640,-91.27
18.656,-92.25
18.671,-93.45
18.687,-95.19
18.703,-97.55
18.718,-100.38
18.734,-103.29
18.750,-105.75
18.765,-107.28
18.781,-107.76
18.796,-107.56
18.812,-107.58
18.828,-108.76
18.843,-111.78
18.859,-116.67
18.875,-122.79
18.890,-128.72
18.906,-132.41
18.921,-131.41
18.937,-123.61
18.953,-108.29
18.968,-86.96
18.984,-63.5
19.000,-43.09
19.015,-30.42
19.031,-27.84
19.046,-34.62
19.062,-47.51
19.078,-62.37
19.093,-75.75
19.109,-85.6
19.125,-90.97
19.140,-90.97
19.156,-84.04
19.171,-67.89
19.187,-40.53
19.203,-1.7
19.218,46.17
19.234,97.99
19.250,147.08
19.265,187.05
19.281,213.64
19.296,225.79
19.312,225.67
19.328,217.44
19.343,205.75
19.359,194.21
19.375,184.67
19.390,177.22
19.406,170.94
19.421,164.69
19.437,157.8
19.453,150.39
19.468,143.11
19.484,136.82
19.500,131.97
19.515,128.18
19.531,124.25
19.546,118.66
19.562,110.32
19.578,99.0
19.593,85.34
19.609,70.32
19.625,54.53
19.640,37.79
19.656,19.26
19.671,-1.89
19.687,-25.72
19.703,-51.13
19.718,-76.07
19.734,-98.22
19.750,-115.88
19.765,-128.4
19.781,-136.17
19.796,-140.14
19.812,-141.16
19.828,-139.75
19.843,-136.12
19.859,-130.59
19.875,-123.99
19.890,-117.75
19.906,-113.44
19.921,-112.23
19.937,-114.2
19.953,-118.2
19.968,-122.25
19.984,-124.47
20.000,-123.88
20.015,-120.87
20.031,-117.03
20.046,-114.32
20.062,-114.15
20.078,-116.71
20.093,-121.01
20.109,-125.31
20.125,-128.04
20.140,-128.42
20.156,-126.84
20.171,-124.65
20.187,-123.67
20.203,-125.58
20.218,-131.4
20.234,-141.34
20.250,-154.86
20.265,-170.99
20.281,-188.7
20.296,-207.11
20.312,-225.43
20.328,-242.87
20.343,-258.46
20.359,-271.0
20.375,-279.32
20.390,-282.72
20.406,-281.18
20.421,-275.49
20.437,-266.79
20.453,-256.09
20.468,-243.92
20.484,-230.42
20.500,-215.75
20.515,-200.44
20.531,-185.4
20.546,-171.45
20.562,-158.71
20.578,-146.18
20.593,-131.99
20.609,-114.11
20.625,-91.18
20.640,-63.12
20.656,-30.95
20.671,3.83
20.687,40.08
20.703,77.5
20.718,116.64
20.734,158.14
20.750,202.0
20.765,246.93
20.781,290.3
20.796,328.57
20.812,358.08
20.828,375.89
20.843,380.26
20.859,370.84
20.875,348.57
20.890,315.44
20.906,274.37
20.921,228.97
20.937,183.34
20.953,141.44
20.968,106.41
20.984,79.78
21.000,61.08
21.015,48.11
21.031,37.82
21.046,27.51
21.062,15.75
21.078,2.66
21.093,-10.59
21.109,-22.8
21.125,-33.43
21.140,-42.77
21.156,-51.21
21.171,-58.22
21.187,-61.96
21.203,-59.64
21.218,-48.65
21.234,-27.79
21.250,2.07
21.265,38.49
21.281,78.31
21.296,118.57
21.312,156.81
21.328,190.84
21.343,218.35
21.359,236.84
21.375,244.2
21.390,239.4
21.406,223.19
21.421,197.99
21.437,167.27
21.453,134.61
21.468,102.93
21.484,74.08
21.500,48.9
21.515,27.41
21.531,9.05
21.546,-7.05
21.562,-21.81
21.578,-35.92
21.593,-49.44
21.609,-61.8
21.625,-71.95
21.640,-78.95
21.656,-82.6
21.671,-83.8
21.687,-84.46
21.703,-86.91
21.718,-93.09
21.734,-103.69
21.750,-117.93
21.765,-133.75
21.781,-148.59
21.796,-160.24
21.812,-167.48
21.828,-170.25
21.843,-169.37
21.859,-166.13
21.875,-161.75
21.890,-157.17
21.906,-153.04
21.921,-149.77
21.937,-147.74
21.953,-147.27
21.968,-148.59
21.984,-151.77
22.000,-156.64
22.015,-162.7
22.031,-169.14
22.046,-174.93
22.062,-178.99
22.078,-180.51
22.093,-179.2
22.109,-175.42
22.125,-170.14
22.140,-164.83
22.156,-160.81
22.171,-158.73
22.187,-157.96
22.203,-156.46
22.218,-151.4
22.234,-140.32
22.250,-122.66
22.265,-100.51
22.281,-78.24
22.296,-60.67
22.312,-50.81
22.328,-48.28
22.343,-49.35
22.359,-48.72
22.375,-41.81
22.390,-26.56
22.406,-3.7
22.421,24.24
22.437,54.19
22.453,83.35
22.468,109.25
22.484,129.38
22.500,141.15
22.515,142.37
22.531,131.95
22.546,110.17
22.562,78.63
22.578,39.75
22.593,-3.87
22.609,-49.91
22.625,-96.54
22.640,-142.46
22.656,-186.49
22.671,-227.05
22.687,-261.7
22.703,-287.14
22.718,-299.96
22.734,-297.91
22.750,-281.09
22.765,-252.34
22.781,-216.48
22.796,-178.69
22.812,-142.95
22.828,-111.23
22.843,-83.83
22.859,-60.39
22.875,-40.65
22.890,-24.58
22.906,-12.04
22.921,-2.29
22.937,6.15
22.953,14.93
22.968,25.28
22.984,37.22
23.000,49.25
23.015,58.62
23.031,62.3
23.046,58.2
23.062,46.26
23.078,28.81
23.093,9.99
23.109,-5.58
23.125,-14.43
23.140,-15.26
23.156,-9.04
23.171,1.89
23.187,15.05
23.203,28.89
23.218,42.99
23.234,57.69
23.250,73.32
23.265,89.6
23.281,105.62
23.296,120.21
23.312,132.61
23.328,142.99
23.343,152.5
23.359,162.79
23.375,175.34
23.390,190.83
23.406,208.86
23.421,228.21
23.437,247.45
23.453,265.56
23.468,282.42
23.484,298.74
23.500,315.85
23.515,335.35
23.531,358.91
23.546,387.9
23.562,422.83
23.578,462.59
23.593,503.82
23.609,541.06
23.625,567.76
23.640,578.23
23.656,569.39
23.671,541.9
23.687,499.66
23.703,448.35
23.718,393.56
23.734,339.47
23.750,288.59
23.765,242.2
23.781,201.1
23.796,165.98
23.812,137.16
23.828,114.18
23.843,95.53
23.859,78.87
23.875,61.63
23.890,41.88
23.906,18.79
23.921,-7.11
23.937,-34.41
23.953,-61.33
23.968,-86.48
23.984,-109.2
24.000,-129.62
24.015,-148.38
24.031,-166.43
24.046,-184.81
24.062,-204.52
24.078,-226.37
24.093,-250.51
24.109,-275.9
24.125,-300.01
24.140,-319.16
24.156,-329.47
24.171,-328.08
24.187,-314.09
24.203,-288.83
24.218,-255.31
24.234,-217.22
24.250,-178.05
24.265,-140.65
24.281,-107.39
24.296,-80.26
24.312,-60.69
24.328,-49.19
24.343,-44.76
24.359,-44.78
24.375,-45.52
24.390,-43.26
24.406,-35.35
24.421,-20.92
24.437,-0.94
24.453,22.41
24.468,46.34
24.484,67.98
24.500,84.62
24.515,93.94
24.531,94.32
24.546,85.46
24.562,68.66
24.578,46.59
24.593,22.55
24.609,-0.77
24.625,-21.94
24.640,-40.89
24.656,-58.2
24.671,-74.26
24.687,-88.82
24.703,-101.11
24.718,-110.22
24.734,-115.51
24.750,-116.48
24.765,-112.41
24.781,-102.1
24.796,-84.19
24.812,-57.79
24.828,-23.22
24.843,17.91
24.859,63.21
24.875,110.52
24.890,158.44
24.906,206.4
24.921,253.81
24.937,299.29
24.953,340.44
24.968,374.36
24.984,398.77
25.000,412.85
25.015,417.57
25.031,415.13
25.046,408.03
25.062,398.42
25.078,387.62
25.093,376.3
25.109,364.65
25.125,352.44
25.140,339.15
25.156,323.87
25.171,305.64
25.187,283.66
25.203,257.74
25.218,228.33
25.234,196.41
25.250,163.19
25.265,129.96
25.281,97.83
25.296,67.63
25.312,39.77
25.328,14.18
25.343,-9.78
25.359,-33.06
25.375,-56.67
25.390,-81.31
25.406,-107.23
25.421,-134.17
25.437,-161.39
25.453,-187.85
25.468,-212.33
25.484,-233.71
25.500,-251.19
25.515,-264.56
25.531,-274.2
25.546,-280.91
25.562,-285.48
25.578,-288.27
25.593,-289.07
25.609,-287.3
25.625,-282.59
25.640,-275.35
25.656,-266.92
25.671,-259.17
25.687,-253.68
25.703,-250.86
25.718,-249.66
25.734,-247.89
25.750,-243.22
25.765,-234.04
25.781,-220.09
25.796,-202.29
25.812,-182.06
25.828,-160.67
25.843,-138.9
25.859,-117.06
25.875,-95.5
25.890,-74.81
25.906,-55.94
25.921,-39.92
25.937,-27.52
25.953,-19.06
25.968,-14.33
25.984,-12.73
26.000,-13.54
26.015,-16.17
26.031,-20.39
26.046,-26.5
26.062,-35.26
26.078,-47.61
26.093,-64.12
26.109,-84.45
26.125,-107.19
26.140,-130.11
26.156,-151.03
26.171,-168.7
26.187,-183.29
26.203,-196.26
26.218,-209.6
26.234,-224.83
26.250,-242.32
26.265,-261.12
26.281,-279.17
26.296,-293.92
26.312,-302.84
26.328,-303.96
26.343,-296.31
26.359,-280.19
26.375,-257.3
26.390,-230.44
26.406,-203.05
26.421,-178.41
26.437,-158.96
26.453,-146.01
26.468,-139.73
26.484,-139.41
26.500,-143.73
26.515,-150.99
26.531,-159.33
26.546,-167.0
26.562,-172.55
26.578,-175.07
26.593,-174.25
26.609,-170.15
26.625,-162.9
26.640,-152.37
26.656,-138.17
26.671,-119.75
26.687,-96.79
26.703,-69.49
26.718,-38.62
26.734,-5.49
26.750,28.49
26.765,62.2
26.781,95.05
26.796,127.09
26.812,158.92
26.828,191.48
26.843,225.56
26.859,261.28
26.875,297.63
26.890,332.39
26.906,362.59
26.921,385.37
26.937,398.98
26.953,403.42
26.968,400.37
26.984,392.38
27.000,381.72
27.015,369.39
27.031,354.72
27.046,335.92
27.062,310.98
27.078,278.81
27.093,239.91
27.109,196.25
27.125,150.66
27.140,106.0
27.156,64.48
27.171,27.45
27.187,-4.46
27.203,-31.14
27.218,-52.68
27.234,-69.33
27.250,-81.46
27.265,-89.45
27.281,-93.57
27.296,-94.0
27.312,-90.96
27.328,-84.96
27.343,-76.96
27.359,-68.22
27.375,-59.85
27.390,-52.33
27.406,-45.34
27.421,-37.93
27.437,-29.06
27.453,-18.04
27.468,-4.97
27.484,9.38
27.500,23.75
27.515,36.65
27.531,46.64
27.546,52.62
27.562,54.01
27.578,50.83
27.593,43.8
27.609,34.02
27.625,22.94
27.640,12.09
27.656,2.94
27.671,-3.17
27.687,-5.2
27.703,-2.63
27.718,4.37
27.734,14.96
27.750,27.74
27.765,41.08
27.781,53.46
27.796,63.63
27.812,70.77
27.828,74.53
27.843,75.09
27.859,73.03
27.875,69.26
27.890,64.66
27.906,59.81
27.921,54.8
27.937,49.22
27.953,42.47
27.968,34.04
27.984,23.77
28.000,11.85
28.015,-1.33
28.031,-15.43
28.046,-30.14
28.062,-45.1
28.078,-59.54
28.093,-72.13
28.109,-81.16
28.125,-84.99
28.140,-82.65
28.156,-74.34
28.171,-61.49
28.187,-46.37
28.203,-31.43
28.218,-18.67
28.234,-9.09
28.250,-2.76
28.265,0.95
28.281,2.88
28.296,3.72
28.312,3.71
28.328,2.75
28.343,0.68
28.359,-2.55
28.375,-6.53
28.390,-10.52
28.406,-13.52
28.421,-14.69
28.437,-13.52
28.453,-9.92
28.468,-4.11
28.484,3.56
28.500,12.75
28.515,23.0
28.531,33.76
28.546,44.19
28.562,53.39
28.578,60.49
28.593,64.98
28.609,66.78
28.625,66.21
28.640,63.73
28.656,59.8
28.671,54.67
28.687,48.33
28.703,40.57
28.718,31.01
28.734,19.26
28.750,5.14
28.765,-11.06
28.781,-28.43
28.796,-45.46
28.812,-60.44
28.828,-72.04
28.843,-79.85
28.859,-84.55
28.875,-87.69
28.890,-90.98
28.906,-95.52
28.921,-101.28
28.937,-107.12
28.953,-111.2
28.968,-111.55
28.984,-106.62
29.000,-95.56
29.015,-78.29
29.031,-55.58
29.046,-28.95
29.062,-0.56
29.078,27.11
29.093,51.7
29.109,71.5
29.125,85.8
29.140,94.85
29.156,99.55
29.171,100.99
29.187,100.09
29.203,97.54
29.218,93.87
29.234,89.6
29.250,85.34
29.265,81.62
29.281,78.69
29.296,76.53
29.312,74.9
29.328,73.57
29.343,72.42
29.359,71.5
29.375,70.78
29.390,70.02
29.406,68.73
29.421,66.26
29.437,62.2
29.453,56.62
29.468,50.18
29.484,43.92
29.500,38.91
29.515,35.82
29.531,34.66
29.546,34.87
29.562,35.51
29.578,35.61
29.593,34.46
29.609,31.72
29.625,27.46
29.640,22.1
29.656,16.14
29.671,10.06
29.687,4.08
29.703,-1.91
29.718,-8.2
29.734,-15.14
29.750,-22.63
29.765,-29.9
29.781,-35.45
29.796,-37.5
29.812,-34.47
29.828,-25.68
29.843,-11.55
29.859,6.54
29.875,26.64
29.890,46.73
29.906,65.16
29.921,80.73
29.937,92.79
29.953,101.14
29.968,106.02
29.984,107.88
30.000,107.28
30.015,104.63
30.031,100.16
30.046,94.06
30.062,86.72
30.078,78.89
30.093,71.62
30.109,65.93
30.125,62.47
30.140,61.31
30.156,61.95
30.171,63.64
30.187,65.63
30.203,67.42
30.218,68.73
30.234,69.4
30.250,69.16
30.265,67.61
30.281,64.33
30.296,58.92
30.312,51.25
30.328,41.42
30.343,29.77
30.359,16.8
30.375,3.04
30.390,-10.87
30.406,-24.13
30.421,-35.69
30.437,-44.54
30.453,-49.93
30.468,-51.76
30.484,-50.64
30.500,-47.67
30.515,-43.99
30.531,-40.33
30.546,-36.96
30.562,-33.86
30.578,-31.16
30.593,-29.36
30.609,-29.15
30.625,-30.79
30.640,-33.54
30.656,-35.37
30.671,-33.47
30.687,-25.35
30.703,-9.94
30.718,11.63
30.734,36.05
30.750,58.58
30.765,74.45
30.781,79.87
30.796,72.75
30.812,53.0
30.828,22.82
30.843,-13.12
30.859,-48.05
30.875,-74.24
30.890,-85.06
30.906,-77.14
30.921,-51.88
30.937,-15.11
30.953,24.86
30.968,60.09
30.984,85.32
31.000,98.94
31.015,102.23
31.031,97.82
31.046,88.18
31.062,75.03
31.078,59.52
31.093,42.77
31.109,26.21
31.125,11.27
31.140,-1.06
31.156,-10.64
31.171,-18.21
31.187,-25.14
31.203,-32.73
31.218,-41.67
31.234,-51.63
31.250,-61.57
31.265,-70.2
31.281,-76.56
31.296,-80.45
31.312,-82.43
31.328,-83.51
31.343,-84.65
31.359,-86.44
31.375,-88.93
31.390,-91.84
31.406,-94.72
31.421,-97.13
31.437,-98.69
31.453,-99.01
31.468,-97.64
31.484,-94.09
31.500,-88.02
31.515,-79.39
31.531,-68.59
31.546,-56.39
31.562,-43.54
31.578,-30.78
31.593,-18.77
31.609,-8.0
31.625,1.22
31.640,8.76
31.656,14.62
31.671,18.83
31.687,21.45
31.703,22.86
31.718,23.54
31.734,23.99
31.750,24.63
31.765,25.67
31.781,27.22
31.796,29.2
31.812,31.39
31.828,33.5
31.843,35.78
31.859,38.47
31.875,41.6
31.890,44.92
31.906,47.98
31.921,50.41
31.937,51.98
31.953,52.64
31.968,52.39
31.984,52.63
32.000,54.44
32.015,57.93
32.031,62.14
32.046,65.49
32.062,66.78
32.078,65.68
32.093,62.66
32.109,58.68
32.125,57.57
32.140,62.35
32.156,73.81
32.171,90.12
32.187,107.91
32.203,124.14
32.218,137.18
32.234,146.83
32.250,153.99
32.265,164.52
32.281,183.59
32.296,213.15
32.312,250.88
32.328,291.72
32.343,330.53
32.359,363.8
32.375,389.91
32.390,408.63
32.406,426.22
32.421,448.62
32.437,478.04
32.453,511.7
32.468,543.77
32.484,568.74
32.500,583.42
32.515,587.19
32.531,544.24
32.546,435.95
32.562,267.91
32.578,70.47
32.593,-117.79
32.609,-269.45
32.625,-374.99
32.640,-438.4
32.656,-470.35
32.671,-482.15
32.687,-482.38
32.703,-475.15
32.718,-462.22
32.734,-444.74
32.750,-423.07
32.765,-396.54
32.781,-364.76
32.796,-329.76
32.812,-297.54
32.828,-273.96
32.843,-264.85
32.859,-273.99
32.875,-301.81
32.890,-344.72
32.906,-395.88
32.921,-447.29
32.937,-483.44
32.953,-491.18
32.968,-463.15
32.984,-402.06
33.000,-318.53
33.015,-225.83
33.031,-135.78
33.046,-57.02
33.062,5.34
33.078,48.38
33.093,73.78
33.109,85.14
33.125,87.54
33.140,86.09
33.156,84.18
33.171,82.42
33.187,78.82
33.203,69.64
33.218,52.47
33.234,24.59
33.250,-14.89
33.265,-62.95
33.281,-112.4
33.296,-153.7
33.312,-178.12
33.328,-180.82
33.343,-162.55
33.359,-129.07
33.375,-89.41
33.390,-52.43
33.406,-23.25
33.421,-2.48
33.437,12.07
33.453,22.9
33.468,30.97
33.484,35.66
33.500,35.91
33.515,31.1
33.531,21.74
33.546,9.51
33.562,-3.54
33.578,-16.06
33.593,-27.83
33.609,-39.69
33.625,-52.65
33.640,-67.11
33.656,-82.76
33.671,-98.59
33.687,-113.23
33.703,-125.39
33.718,-134.13
33.734,-138.79
33.750,-138.75
33.765,-133.3
33.781,-121.82
33.796,-104.59
33.812,-83.23
33.828,-60.66
33.843,-40.43
33.859,-25.38
33.875,-16.13
33.890,-10.34
33.906,-3.17
33.921,11.09
33.937,36.55
33.953,74.08
33.968,120.65
33.984,170.14
34.000,215.12
34.015,249.06
34.031,267.9
34.046,270.73
34.062,259.52
34.078,237.79
34.093,210.01
34.109,180.6
34.125,153.18
34.140,130.0
34.156,111.92
34.171,98.84
34.187,90.14
34.203,85.1
34.218,81.86
34.234,79.0
34.250,75.69
34.265,71.57
34.281,66.43
34.296,60.27
34.312,53.61
34.328,47.5
34.343,43.15
34.359,39.15
34.375,33.97
34.390,26.44
34.406,15.51
34.421,-0.15
34.437,-21.76
34.453,-49.57
34.468,-82.2
34.484,-117.09
34.500,-154.72
34.515,-194.65
34.531,-235.19
34.546,-274.19
34.562,-310.6
34.578,-345.23
34.593,-380.26
34.609,-418.16
34.625,-460.4
34.640,-510.37
34.656,-565.94
34.671,-618.54
34.687,-656.28
34.703,-669.48
34.718,-654.95
34.734,-616.63
34.750,-563.37
34.765,-476.79
34.781,-356.66
34.796,-218.85
34.812,-87.15
34.828,20.63
34.843,98.46
34.859,148.68
34.875,177.04
34.890,190.02
34.906,192.89
34.921,187.33
34.937,175.37
34.953,160.74
34.968,148.17
34.984,141.34
35.000,142.0
35.015,150.63
35.031,167.35
35.046,190.55
35.062,214.3
35.078,233.06
35.093,243.17
35.109,243.11
35.125,232.72
35.140,212.95
35.156,186.0
35.171,155.25
35.187,124.37
35.203,94.52
35.218,66.66
35.234,42.3
35.250,23.43
35.265,11.78
35.281,8.28
35.296,13.01
35.312,25.0
35.328,42.09
35.343,60.2
35.359,75.31
35.375,84.8
35.390,88.2
35.406,86.8
35.421,82.86
35.437,78.59
35.453,75.31
35.468,73.07
35.484,70.73
35.500,67.11
35.515,61.89
35.531,55.8
35.546,50.26
35.562,46.6
35.578,45.59
35.593,47.18
35.609,50.61
35.625,54.83
35.640,58.98
35.656,62.86
35.671,66.92
35.687,72.0
35.703,78.64
35.718,86.6
35.734,94.63
35.750,100.81
35.765,103.35
35.781,101.3
35.796,94.96
35.812,85.76
35.828,75.63
35.843,66.33
35.859,58.82
35.875,53.19
35.890,48.91
35.906,45.2
35.921,41.51
35.937,37.64
35.953,33.75
35.968,30.15
35.984,27.06
36.000,24.48
36.015,22.25
36.031,20.05
36.046,17.57
36.062,14.55
36.078,10.76
36.093,6.02
36.109,0.19
36.125,-6.8
36.140,-14.92
36.156,-23.98
36.171,-33.78
36.187,-44.08
36.203,-54.81
36.218,-66.1
36.234,-78.14
36.250,-91.06
36.265,-104.69
36.281,-118.42
36.296,-131.09
36.312,-141.18
36.328,-147.11
36.343,-147.71
36.359,-142.54
36.375,-132.19
36.390,-118.06
36.406,-102.03
36.421,-85.86
36.437,-70.79
36.453,-57.35
36.468,-45.5
36.484,-34.93
36.500,-25.42
36.515,-17.01
36.531,-9.94
36.546,-4.5
36.562,-0.77
36.578,1.45
36.593,2.64
36.609,3.34
36.625,4.02
36.640,4.87
36.656,5.8
36.671,6.5
36.687,6.58
36.703,5.76
36.718,3.92
36.734,1.14
36.750,-2.4
36.765,-6.54
36.781,-11.25
36.796,-16.64
36.812,-22.86
36.828,-29.98
36.843,-37.94
36.859,-46.32
36.875,-54.62
36.890,-62.18
36.906,-68.56
36.921,-73.64
36.937,-77.7
36.953,-81.32
36.968,-85.19
36.984,-89.97
37.000,-95.96
37.015,-103.13
37.031,-110.99
37.046,-118.63
37.062,-124.76
37.078,-127.85
37.093,-126.41
37.109,-119.43
37.125,-106.69
37.140,-88.93
37.156,-67.75
37.171,-45.14
37.187,-22.86
37.203,-2.07
37.218,16.87
37.234,34.19
37.250,50.34
37.265,65.65
37.281,80.2
37.296,93.88
37.312,106.65
37.328,118.63
37.343,130.09
37.359,141.31
37.375,152.38
37.390,163.25
37.406,173.81
37.421,184.11
37.437,194.48
37.453,205.31
37.468,216.78
37.484,228.42
37.500,239.01
37.515,246.82
37.531,250.09
37.546,247.54
37.562,238.88
37.578,224.76
37.593,206.5
37.609,185.63
37.625,163.32
37.640,140.18
37.656,116.26
37.671,91.21
37.687,64.77
37.703,36.99
37.718,8.38
37.734,-20.21
37.750,-47.88
37.765,-73.99
37.781,-98.22
37.796,-120.46
37.812,-140.43
37.828,-157.41
37.843,-170.1
37.859,-177.06
37.875,-177.18
37.890,-170.23
37.906,-157.16
37.921,-139.86
37.937,-120.66
37.953,-101.68
37.968,-84.42
37.984,-69.52
38.000,-56.9
38.015,-45.9
38.031,-35.5
38.046,-24.78
38.062,-13.11
38.078,-0.63
38.093,11.77
38.109,22.63
38.125,30.54
38.140,34.77
38.156,35.81
38.171,35.17
38.187,34.85
38.203,36.45
38.218,40.57
38.234,46.64
38.250,53.25
38.265,58.78
38.281,61.98
38.296,62.25
38.312,59.59
38.328,54.35
38.343,47.04
38.359,38.22
38.375,28.48
38.390,18.5
38.406,9.01
38.421,0.69
38.437,-6.05
38.453,-11.18
38.468,-14.99
38.484,-18.06
38.500,-20.97
38.515,-24.2
38.531,-28.02
38.546,-32.45
38.562,-37.4
38.578,-42.62
38.593,-47.85
38.609,-52.69
38.625,-56.63
38.640,-58.98
38.656,-58.96
38.671,-55.86
38.687,-49.22
38.703,-39.12
38.718,-26.21
38.734,-11.69
38.750,3.04
38.765,16.66
38.781,28.23
38.796,37.41
38.812,44.29
38.828,49.22
38.843,52.6
38.859,54.69
38.875,55.68
38.890,55.81
38.906,55.39
38.921,54.88
38.937,54.79
38.953,55.49
38.968,57.16
38.984,59.77
39.000,63.06
39.015,66.71
39.031,70.47
39.046,74.23
39.062,78.02
39.078,82.1
39.093,86.82
39.109,92.55
39.125,99.58
39.140,107.91
39.156,117.2
39.171,126.84
39.187,136.01
39.203,143.9
39.218,149.89
39.234,153.65
39.250,155.14
39.265,154.62
39.281,152.48
39.296,149.1
39.312,144.61
39.328,138.6
39.343,130.13
39.359,117.81
39.375,100.2
39.390,76.5
39.406,47.07
39.421,13.73
39.437,-20.36
39.453,-51.37
39.468,-75.73
39.484,-91.03
39.500,-96.68
39.515,-93.94
39.531,-85.46
39.546,-74.29
39.562,-63.09
39.578,-53.42
39.593,-45.62
39.609,-39.15
39.625,-33.11
39.640,-26.69
39.656,-19.4
39.671,-11.02
39.687,-1.56
39.703,8.83
39.718,19.74
39.734,30.49
39.750,40.09
39.765,47.48
39.781,51.7
39.796,52.17
39.812,48.82
39.828,42.16
39.843,33.12
39.859,22.95
39.875,12.86
39.890,3.67
39.906,-4.44
39.921,-12.05
39.937,-20.24
39.953,-29.98
39.968,-41.65
39.984,-54.6
40.000,-67.33
40.015,-77.97
40.031,-85.05
40.046,-88.09
40.062,-87.79
40.078,-85.66
40.093,-83.22
40.109,-81.38
40.125,-80.11
40.140,-78.64
40.156,-75.96
40.171,-71.31
40.187,-64.36
40.203,-55.12
40.218,-43.99
40.234,-31.75
40.250,-19.81
40.265,-10.06
40.281,-4.46
40.296,-4.24
40.312,-9.36
40.328,-18.38
40.343,-29.3
40.359,-40.57
40.375,-51.77
40.390,-63.48
40.406,-76.43
40.421,-90.47
40.437,-104.24
40.453,-115.61
40.468,-122.84
40.484,-125.49
40.500,-124.66
40.515,-122.39
40.531,-120.55
40.546,-120.0
40.562,-120.33
40.578,-120.41
40.593,-119.04
40.609,-115.68
40.625,-110.59
40.640,-104.55
40.656,-98.36
40.671,-92.36
40.687,-86.37
40.703,-79.92
40.718,-72.72
40.734,-65.1
40.750,-58.05
40.765,-53.06
40.781,-51.49
40.796,-54.04
40.812,-60.44
40.828,-69.31
40.843,-78.54
40.859,-85.72
40.875,-88.71
40.890,-86.0
40.906,-76.99
40.921,-61.97
40.937,-42.0
40.953,-18.67
40.968,6.22
40.984,30.87
41.000,53.7
41.015,73.51
41.031,89.57
41.046,101.78
41.062,110.56
41.078,116.77
41.093,121.4
41.109,125.32
41.125,129.04
41.140,132.75
41.156,136.39
41.171,139.74
41.187,142.57
41.203,144.63
41.218,145.65
41.234,145.44
41.250,144.07
41.265,141.85
41.281,139.38
41.296,137.33
41.312,136.29
41.328,136.6
41.343,138.38
41.359,141.57
41.375,146.05
41.390,151.69
41.406,158.29
41.421,165.61
41.437,173.44
41.453,181.62
41.468,190.19
41.484,199.32
41.500,209.27
41.515,220.13
41.531,231.63
41.546,242.93
41.562,252.63
41.578,258.91
41.593,259.92
41.609,254.19
41.625,241.12
41.640,221.19
41.656,195.9
41.671,167.41
41.687,137.94
41.703,109.35
41.718,82.75
41.734,58.52
41.750,36.43
41.765,16.01
41.781,-3.15
41.796,-21.23
41.812,-38.03
41.828,-53.17
41.843,-66.25
41.859,-77.14
41.875,-86.05
41.890,-93.56
41.906,-100.29
41.921,-106.78
41.937,-113.36
41.953,-120.15
41.968,-127.27
41.984,-134.96
42.000,-143.54
42.015,-153.23
42.031,-163.89
42.046,-174.89
42.062,-185.23
42.078,-193.86
42.093,-200.11
42.109,-203.91
42.125,-205.77
42.140,-206.54
42.156,-207.07
42.171,-207.95
42.187,-209.36
42.203,-211.18
42.218,-213.14
42.234,-214.96
42.250,-216.49
42.265,-217.72
42.281,-218.76
42.296,-219.78
42.312,-220.95
42.328,-222.38
42.343,-224.04
42.359,-225.78
42.375,-227.36
42.390,-228.56
42.406,-229.19
42.421,-229.14
42.437,-228.37
42.453,-226.86
42.468,-224.59
42.484,-221.45
42.500,-217.09
42.515,-210.86
42.531,-201.82
42.546,-189.0
42.562,-171.81
42.578,-150.37
42.593,-125.63
42.609,-99.2
42.625,-72.84
42.640,-48.08
42.656,-25.84
42.671,-6.47
42.687,10.05
42.703,23.91
42.718,35.25
42.734,44.19
42.750,50.83
42.765,55.36
42.781,58.11
42.796,59.51
42.812,59.96
42.828,59.84
42.843,59.3
42.859,58.46
42.875,57.44
42.890,56.55
42.906,56.3
42.921,57.31
42.937,60.02
42.953,64.52
42.968,70.49
42.984,77.33
43.000,84.4
43.015,91.21
43.031,97.57
43.046,103.65
43.062,109.81
43.078,116.41
43.093,123.48
43.109,130.45
43.125,136.22
43.140,139.48
43.156,139.24
43.171,135.31
43.187,128.3
43.203,119.16
43.218,108.53
43.234,96.3
43.250,81.79
43.265,64.24
43.281,43.39
43.296,19.67
43.312,-5.98
43.328,-32.58
43.343,-59.15
43.359,-84.65
43.375,-107.56
43.390,-125.82
43.406,-137.28
43.421,-140.43
43.437,-135.24
43.453,-123.27
43.468,-107.22
43.484,-89.99
43.500,-73.65
43.515,-58.99
43.531,-45.54
43.546,-32.21
43.562,-18.02
43.578,-2.69
43.593,13.27
43.609,28.82
43.625,42.9
43.640,54.83
43.656,64.47
43.671,72.02
43.687,77.77
43.703,81.84
43.718,84.27
43.734,85.11
43.750,84.57
43.765,83.18
43.781,81.61
43.796,80.38
43.812,79.67
43.828,79.18
43.843,78.34
43.859,76.59
43.875,73.73
43.890,70.0
43.906,65.98
43.921,62.27
43.937,59.13
43.953,56.3
43.968,53.02
43.984,48.26
44.000,41.15
44.015,31.18
44.031,18.33
44.046,3.06
44.062,-13.82
44.078,-31.26
44.093,-48.17
44.109,-63.58
44.125,-76.85
44.140,-87.75
44.156,-96.51
44.171,-103.53
44.187,-109.16
44.203,-113.4
44.218,-115.92
44.234,-116.09
44.250,-113.26
44.265,-106.99
44.281,-97.14
44.296,-83.93
44.312,-67.89
44.328,-49.87
44.343,-30.94
44.359,-12.31
44.375,5.03
44.390,20.4
44.406,33.66
44.421,45.12
44.437,55.28
44.453,64.59
44.468,73.18
44.484,80.85
44.500,87.21
44.515,91.92
44.531,94.8
44.546,95.87
44.562,95.33
44.578,93.41
44.593,90.51
44.609,87.0
44.625,83.26
44.640,79.49
44.656,75.57
44.671,70.96
44.687,64.93
44.703,56.87
44.718,46.64
44.734,34.81
44.750,22.48
44.765,10.91
44.781,1.09
44.796,-6.57
44.812,-12.22
44.828,-16.4
44.843,-19.64
44.859,-22.34
44.875,-24.66
44.890,-26.69
44.906,-28.51
44.921,-30.15
44.937,-31.61
44.953,-32.82
44.968,-33.65
44.984,-34.02
45.000,-34.03
45.015,-34.02
45.031,-34.48
45.046,-35.9
45.062,-38.44
45.078,-41.81
45.093,-45.2
45.109,-47.49
45.125,-47.53
45.140,-44.57
45.156,-38.46
45.171,-29.77
45.187,-19.53
45.203,-8.95
45.218,0.9
45.234,9.24
45.250,15.68
45.265,20.01
45.281,22.3
45.296,22.86
45.312,22.28
45.328,21.4
45.343,21.04
45.359,21.8
45.375,23.86
45.390,26.98
45.406,30.62
45.421,34.21
45.437,37.33
45.453,39.68
45.468,41.11
45.484,41.6
45.500,41.31
45.515,40.61
45.531,40.07
45.546,40.19
45.562,41.23
45.578,43.08
45.593,45.28
45.609,47.34
45.625,48.95
45.640,50.07
45.656,50.95
45.671,51.8
45.687,52.66
45.703,53.25
45.718,53.11
45.734,51.76
45.750,48.98
45.765,44.83
45.781,39.64
45.796,33.82
45.812,27.75
45.828,21.64
45.843,15.5
45.859,9.17
45.875,2.47
45.890,-4.69
45.906,-12.14
45.921,-19.39
45.937,-25.65
45.953,-30.04
45.968,-31.77
45.984,-30.35
46.000,-25.78
46.015,-18.53
46.031,-9.45
46.046,0.35
46.062,9.73
46.078,17.74
46.093,23.75
46.109,27.59
46.125,29.56
46.140,30.23
46.156,30.27
46.171,30.18
46.187,30.13
46.203,30.01
46.218,29.56
46.234,28.58
46.250,27.1
46.265,25.3
46.281,23.39
46.296,21.45
46.312,19.31
46.328,16.65
46.343,13.27
46.359,9.25
46.375,5.0
46.390,1.25
46.406,-1.37
46.421,-2.46
46.437,-2.1
46.453,-0.75
46.468,0.89
46.484,2.23
46.500,2.91
46.515,2.81
46.531,2.02
46.546,0.62
46.562,-1.33
46.578,-3.87
46.593,-7.0
46.609,-10.66
46.625,-14.57
46.640,-18.3
46.656,-21.32
46.671,-23.24
46.687,-23.93
46.703,-23.61
46.718,-22.83
46.734,-22.26
46.750,-22.46
46.765,-23.71
46.781,-25.87
46.796,-28.47
46.812,-30.81
46.828,-32.13
46.843,-31.77
46.859,-29.27
46.875,-24.46
46.890,-17.56
46.906,-9.13
46.921,-0.01
46.937,8.87
46.953,16.72
46.968,23.04
46.984,27.75
47.000,31.1
47.015,33.52
47.031,35.45
47.046,37.18
47.062,38.77
47.078,40.07
47.093,40.85
47.109,40.89
47.125,40.11
47.140,38.69
47.156,36.94
47.171,35.24
47.187,33.94
47.203,33.28
47.218,33.31
47.234,34.04
47.250,35.34
47.265,37.03
47.281,38.87
47.296,40.62
47.312,41.99
47.328,42.82
47.343,43.11
47.359,43.05
47.375,42.95
47.390,43.06
47.406,43.5
47.421,44.22
47.437,45.04
47.453,45.83
47.468,46.61
47.484,47.52
47.500,48.78
47.515,50.51
47.531,52.56
47.546,54.56
47.562,55.86
47.578,55.89
47.593,54.31
47.609,51.23
47.625,47.19
47.640,43.03
47.656,39.53
47.671,37.12
47.687,35.58
47.703,34.1
47.718,31.52
47.734,26.57
47.750,18.31
47.765,6.36
47.781,-9.02
47.796,-26.85
47.812,-45.48
47.828,-62.78
47.843,-76.53
47.859,-84.86
47.875,-86.75
47.890,-82.2
47.906,-72.19
47.921,-58.31
47.937,-42.33
47.953,-25.75
47.968,-9.48
47.984,6.13
48.000,21.2
48.015,35.89
48.031,50.17
48.046,63.52
48.062,74.83
48.078,82.75
48.093,86.01
48.109,83.9
48.125,76.65
48.140,65.43
48.156,52.11
48.171,38.77
48.187,27.13
48.203,18.14
48.218,11.95
48.234,7.92
48.250,4.92
48.265,1.58
48.281,-3.65
48.296,-12.46
48.312,-26.51
48.328,-46.96
48.343,-73.8
48.359,-105.14
48.375,-137.19
48.390,-165.15
48.406,-184.64
48.421,-193.3
48.437,-191.37
48.453,-181.27
48.468,-166.13
48.484,-148.37
48.500,-129.03
48.515,-108.15
48.531,-85.77
48.546,-62.85
48.562,-41.47
48.578,-24.06
48.593,-12.38
48.609,-6.6
48.625,-5.4
48.640,-6.65
48.656,-8.66
48.671,-10.88
48.687,-14.11
48.703,-19.92
48.718,-29.47
48.734,-42.54
48.750,-57.14
48.765,-70.09
48.781,-78.24
48.796,-79.89
48.812,-75.57
48.828,-67.77
48.843,-59.84
48.859,-54.56
48.875,-53.15
48.890,-55.08
48.906,-58.73
48.921,-62.41
48.937,-65.16
48.953,-66.98
48.968,-68.53
48.984,-70.48
49.000,-73.06
49.015,-75.96
49.031,-78.5
49.046,-80.05
49.062,-80.22
49.078,-78.81
49.093,-75.62
49.109,-70.26
49.125,-62.33
49.140,-51.77
49.156,-39.34
49.171,-26.65
49.187,-15.81
49.203,-8.66
49.218,-5.97
49.234,-7.25
49.250,-11.03
49.265,-15.65
49.281,-19.88
49.296,-23.21
49.312,-25.61
49.328,-27.09
49.343,-27.36
49.359,-25.89
49.375,-22.26
49.390,-16.54
49.406,-9.46
49.421,-2.31
49.437,3.43
49.453,6.66
49.468,7.03
49.484,5.04
49.500,1.89
49.515,-1.01
49.531,-2.46
49.546,-1.81
49.562,0.93
49.578,5.24
49.593,10.36
49.609,15.58
49.625,20.4
49.640,24.58
49.656,28.06
49.671,30.87
49.687,33.05
49.703,34.64
49.718,35.7
49.734,36.35
49.750,36.74
49.765,37.06
49.781,37.41
49.796,37.8
49.812,38.15
49.828,38.34
49.843,38.25
49.859,37.85
49.875,37.22
49.890,36.51
49.906,35.92
49.921,35.54
49.937,35.27
49.953,34.82
49.968,33.82
49.984,31.94
50.000,29.14
50.015,25.65
50.031,21.94
50.046,18.55
50.062,15.86
50.078,13.98
50.093,12.71
50.109,11.67
50.125,10.44
50.140,8.7
50.156,6.32
50.171,3.38
50.187,0.12
50.203,-3.14
50.218,-6.11
50.234,-8.7
50.250,-11.02
50.265,-13.43
50.281,-16.37
50.296,-20.12
50.312,-24.63
50.328,-29.32
50.343,-33.27
50.359,-35.37
50.375,-34.71
50.390,-30.86
50.406,-24.1
50.421,-15.28
50.437,-5.56
50.453,3.88
50.468,12.23
50.484,19.09
50.500,24.5
50.515,28.77
50.531,32.21
50.546,35.01
50.562,37.27
50.578,38.94
50.593,40.03
50.609,40.63
50.625,40.91
50.640,41.1
50.656,41.38
50.671,41.81
50.687,42.31
50.703,42.71
50.718,42.81
50.734,42.53
50.750,41.88
50.765,40.95
50.781,39.87
50.796,38.63
50.812,37.19
50.828,35.42
50.843,33.2
50.859,30.47
50.875,27.17
50.890,23.3
50.906,18.87
50.921,13.98
50.937,8.82
50.953,3.6
50.968,-1.45
50.984,-6.24
51.000,-10.76
51.015,-15.02
51.031,-18.96
51.046,-22.35
51.062,-24.85
51.078,-26.19
51.093,-26.4
51.109,-25.88
51.125,-25.32
51.140,-25.42
51.156,-26.7
51.171,-29.23
51.187,-32.68
51.203,-36.32
51.218,-39.19
51.234,-40.27
51.250,-38.65
51.265,-33.83
51.281,-25.87
51.296,-15.52
51.312,-3.95
51.328,7.47
51.343,17.64
51.359,25.96
51.375,32.4
51.390,37.27
51.406,41.01
51.421,43.94
51.437,46.26
51.453,48.06
51.468,49.43
51.484,50.45
51.500,51.2
51.515,51.67
51.531,51.83
51.546,51.69
51.562,51.34
51.578,50.96
51.593,50.79
51.609,50.96
51.625,51.45
51.640,52.16
51.656,52.93
51.671,53.53
51.687,53.71
51.703,53.11
51.718,51.27
51.734,47.82
51.750,42.57
51.765,35.62
51.781,27.4
51.796,18.46
51.812,9.28
51.828,0.14
51.843,-9.01
51.859,-18.37
51.875,-28.11
51.890,-38.26
51.906,-48.59
51.921,-58.72
51.937,-68.19
51.953,-76.61
51.968,-83.7
51.984,-89.32
52.000,-93.5
52.015,-96.32
52.031,-97.94
52.046,-98.56
52.062,-98.44
52.078,-97.84
52.093,-96.86
52.109,-95.3
52.125,-92.61
52.140,-87.97
52.156,-80.54
52.171,-69.87
52.187,-56.12
52.203,-40.17
52.218,-23.39
52.234,-7.28
52.250,6.97
52.265,18.67
52.281,27.69
52.296,34.3
52.312,38.88
52.328,41.83
52.343,43.43
52.359,43.91
52.375,43.51
52.390,42.57
52.406,41.37
52.421,40.16
52.437,39.06
52.453,38.09
52.468,37.19
52.484,36.34
52.500,35.56
52.515,34.88
52.531,34.3
52.546,33.79
52.562,33.26
52.578,32.65
52.593,31.91
52.609,31.06
52.625,30.07
52.640,28.87
52.656,27.31
52.671,25.23
52.687,22.54
52.703,19.32
52.718,15.79
52.734,12.24
52.750,8.96
52.765,6.09
52.781,3.65
52.796,1.45
52.812,-0.75
52.828,-3.18
52.843,-5.97
52.859,-9.11
52.875,-12.49
52.890,-15.9
52.906,-19.1
52.921,-21.91
52.937,-24.21
52.953,-26.01
52.968,-27.44
52.984,-28.75
53.000,-30.21
53.015,-31.98
53.031,-33.95
53.046,-35.68
53.062,-36.39
53.078,-35.16
53.093,-31.25
53.109,-24.35
53.125,-14.79
53.140,-3.5
53.156,8.29
53.171,19.33
53.187,28.68
53.203,35.91
53.218,41.02
53.234,44.35
53.250,46.3
53.265,47.17
53.281,47.1
53.296,46.08
53.312,44.06
53.328,41.11
53.343,37.4
53.359,33.23
53.375,28.98
53.390,25.0
53.406,21.53
53.421,18.81
53.437,16.96
53.453,16.02
53.468,15.93
53.484,16.48
53.500,17.35
53.515,18.19
53.531,18.7
53.546,18.74
53.562,18.32
53.578,17.66
53.593,17.07
53.609,16.95
53.625,17.62
53.640,19.21
53.656,21.57
53.671,24.3
53.687,26.92
53.703,29.04
53.718,30.59
53.734,31.85
53.750,33.31
53.765,35.43
53.781,38.36
53.796,41.83
53.812,45.24
53.828,47.9
53.843,49.42
53.859,49.84
53.875,49.76
53.890,50.16
53.906,51.98
53.921,55.8
53.937,61.49
53.953,68.23
53.968,74.77
53.984,80.01
54.000,83.55
54.015,85.98
54.031,88.91
54.046,94.5
54.062,104.78
54.078,120.8
54.093,141.95
54.109,165.63
54.125,187.7
54.140,203.27
54.156,208.09
54.171,199.86
54.187,179.17
54.203,149.7
54.218,117.08
54.234,87.13
54.250,63.82
54.265,47.98
54.281,37.45
54.296,28.45
54.312,17.35
54.328,2.06
54.343,-17.6
54.359,-40.29
54.375,-63.85
54.390,-85.8
54.406,-103.64
54.421,-115.07
54.437,-118.58
54.453,-114.03
54.468,-103.11
54.484,-88.99
54.500,-75.32
54.515,-65.15
54.531,-60.24
54.546,-61.21
54.562,-68.02
54.578,-80.29
54.593,-97.26
54.609,-117.52
54.625,-138.96
54.640,-159.28
54.656,-176.91
54.671,-191.53
54.687,-203.95
54.703,-215.4
54.718,-226.4
54.734,-236.2
54.750,-242.75
54.765,-243.42
54.781,-235.94
54.796,-219.22
54.812,-193.81
54.828,-162.34
54.843,-129.27
54.859,-100.06
54.875,-79.63
54.890,-70.62
54.906,-72.07
54.921,-79.53
54.937,-86.33
54.953,-85.97
54.968,-74.26
54.984,-50.54
55.000,-17.34
55.015,21.02
55.031,60.08
55.046,96.46
55.062,128.11
55.078,154.06
55.093,173.75
55.109,186.57
55.125,191.63
55.140,187.84
55.156,174.19
55.171,150.32
55.187,117.32
55.203,78.14
55.218,37.82
55.234,2.71
55.250,-20.87
55.265,-28.26
55.281,-17.87
55.296,8.33
55.312,45.58
55.328,87.79
55.343,129.34
55.359,166.06
55.375,195.45
55.390,215.87
55.406,225.84
55.421,224.08
55.437,210.14
55.453,185.5
55.468,153.88
55.484,120.33
55.500,89.59
55.515,64.41
55.531,44.86
55.546,28.97
55.562,13.98
55.578,-2.28
55.593,-20.94
55.609,-42.38
55.625,-66.79
55.640,-94.33
55.656,-124.42
55.671,-154.86
55.687,-181.33
55.703,-198.22
55.718,-200.38
55.734,-185.32
55.750,-154.51
55.765,-113.19
55.781,-68.74
55.796,-28.23
55.812,3.61
55.828,25.21
55.843,37.51
55.859,42.39
55.875,41.19
55.890,34.11
55.906,20.6
55.921,0.5
55.937,-25.04
55.953,-53.19
55.968,-80.26
55.984,-102.85
56.000,-119.03
56.015,-128.61
56.031,-132.73
56.046,-132.8
56.062,-129.71
56.078,-123.68
56.093,-114.81
56.109,-103.97
56.125,-93.16
56.140,-85.31
56.156,-83.02
56.171,-87.27
56.187,-96.55
56.203,-107.0
56.218,-113.61
56.234,-112.04
56.250,-100.21
56.265,-78.84
56.281,-51.01
56.296,-20.68
56.312,8.77
56.328,35.51
56.343,59.23
56.359,80.21
56.375,98.37
56.390,112.6
56.406,121.06
56.421,122.1
56.437,115.32
56.453,101.94
56.468,84.41
56.484,65.51
56.500,47.21
56.515,30.01
56.531,12.87
56.546,-6.04
56.562,-28.24
56.578,-53.87
56.593,-81.27
56.609,-107.37
56.625,-128.86
56.640,-143.49
56.656,-150.92
56.671,-152.72
56.687,-151.45
56.703,-149.51
56.718,-148.5
56.734,-149.12
56.750,-151.74
56.765,-156.76
56.781,-164.48
56.796,-174.44
56.812,-184.68
56.828,-191.55
56.843,-190.67
56.859,-178.51
56.875,-153.74
56.890,-117.69
56.906,-73.85
56.921,-26.7
56.937,19.46
56.953,61.35
56.968,96.79
56.984,124.5
57.000,143.81
57.015,154.7
57.031,157.87
57.046,154.75
57.062,147.3
57.078,137.45
57.093,126.95
57.109,117.01
57.125,108.02
57.140,99.54
57.156,90.83
57.171,81.6
57.187,72.41
57.203,64.88
57.218,60.03
57.234,57.97
57.250,57.19
57.265,54.87
57.281,47.84
57.296,33.74
57.312,12.12
57.328,-16.51
57.343,-50.86
57.359,-90.87
57.375,-135.69
57.390,-182.23
57.406,-224.42
57.421,-254.3
57.437,-265.06
57.453,-253.22
57.468,-221.3
57.484,-175.66
57.500,-126.28
57.515,-81.61
57.531,-46.42
57.546,-21.9
57.562,-7.26
57.578,-1.75
57.593,-4.19
57.609,-14.28
57.625,-30.07
57.640,-51.09
57.656,-76.1
57.671,-103.48
57.687,-131.69
57.703,-159.59
57.718,-187.32
57.734,-214.61
57.750,-242.75
57.765,-252.44
57.781,-229.74
57.796,-171.18
57.812,-87.21
57.828,4.06
57.843,87.5
57.859,146.68
57.875,185.26
57.890,208.08
57.906,219.1
57.921,218.18
57.937,204.59
57.953,180.96
57.968,151.37
57.984,121.91
58.000,97.81
58.015,82.85
58.031,76.74
58.046,78.5
58.062,85.59
58.078,96.61
58.093,111.9
58.109,132.23
58.125,158.26
58.140,188.51
58.156,216.91
58.171,234.87
58.187,238.23
58.203,228.09
58.218,209.03
58.234,188.64
58.250,169.47
58.265,153.49
58.281,142.96
58.296,140.3
58.312,146.72
58.328,161.32
58.343,180.91
58.359,199.95
58.375,212.46
58.390,213.87
58.406,203.19
58.421,182.53
58.437,155.35
58.453,125.21
58.468,94.67
58.484,68.18
58.500,49.87
58.515,42.04
58.531,43.8
58.546,50.28
58.562,58.43
58.578,66.0
58.593,71.06
58.609,71.94
58.625,68.74
58.640,60.72
58.656,47.51
58.671,29.34
58.687,7.67
58.703,-15.26
58.718,-38.03
58.734,-60.13
58.750,-81.94
58.765,-104.23
58.781,-128.48
58.796,-155.92
58.812,-186.95
58.828,-220.49
58.843,-253.78
58.859,-283.5
58.875,-306.48
58.890,-320.57
58.906,-325.65
58.921,-324.48
58.937,-321.71
58.953,-322.1
58.968,-328.11
58.984,-338.33
59.000,-347.98
59.015,-350.67
59.031,-341.01
59.046,-316.84
59.062,-280.31
59.078,-236.54
59.093,-191.52
59.109,-149.79
59.125,-113.29
59.140,-81.68
59.156,-53.31
59.171,-26.09
59.187,2.07
59.203,33.04
59.218,68.11
59.234,107.04
59.250,147.23
59.265,183.58
59.281,209.74
59.296,220.23
59.312,212.65
59.328,188.61
59.343,153.35
59.359,114.03
59.375,77.63
59.390,49.3
59.406,31.48
59.421,23.82
59.437,23.61
59.453,26.52
59.468,27.43
59.484,21.47
59.500,5.29
59.515,-22.09
59.531,-58.5
59.546,-98.8
59.562,-135.68
59.578,-161.24
59.593,-169.04
59.609,-155.96
59.625,-123.48
59.640,-77.24
59.656,-25.48
59.671,23.59
59.687,64.08
59.703,93.47
59.718,112.43
59.734,123.78
59.750,131.41
59.765,139.12
59.781,149.79
59.796,164.41
59.812,181.48
59.828,196.97
59.843,205.11
59.859,200.24
59.875,178.9
59.890,141.76
59.906,93.75
59.921,43.01
59.937,-1.34
59.953,-31.6
59.968,-43.41
59.984,-36.69
