timestamp,value
00.000,-16.9
00.015,-20.61
00.031,-24.29
00.046,-27.89
00.062,-31.42
00.078,-35.0
00.093,-38.88
00.109,-43.29
00.125,-48.45
00.140,-54.34
00.156,-60.69
00.171,-67.02
00.187,-72.81
00.203,-77.68
00.218,-81.59
00.234,-84.78
00.250,-87.59
00.265,-90.18
00.281,-92.28
00.296,-93.16
00.312,-91.8
00.328,-87.23
00.343,-78.88
00.359,-66.88
00.375,-52.05
00.390,-35.64
00.406,-19.01
00.421,-3.29
00.437,10.81
00.453,23.0
00.468,33.25
00.484,41.57
00.500,47.84
00.515,51.89
00.531,53.57
00.546,52.95
00.562,50.44
00.578,46.73
00.593,42.65
00.609,38.95
00.625,36.1
00.640,34.2
00.656,33.13
00.671,32.67
00.687,32.68
00.703,33.06
00.718,33.75
00.734,34.5
00.750,34.86
00.765,34.33
00.781,32.47
00.796,29.14
00.812,24.49
00.828,18.91
00.843,12.82
00.859,6.47
00.875,-0.03
00.890,-6.62
00.906,-13.15
00.921,-19.22
00.937,-24.29
00.953,-27.82
00.968,-29.39
00.984,-28.64
01.000,-25.43
01.015,-19.7
01.031,-11.62
01.046,-1.65
01.062,9.44
01.078,20.69
01.093,31.16
01.109,40.13
01.125,47.22
01.140,52.37
01.156,55.76
01.171,57.6
01.187,58.13
01.203,57.61
01.218,56.4
01.234,54.98
01.250,53.83
01.265,53.39
01.281,53.96
01.296,55.57
01.312,57.86
01.328,60.13
01.343,61.47
01.359,60.95
01.375,57.99
01.390,52.44
01.406,44.66
01.421,35.27
01.437,24.95
01.453,14.17
01.468,3.21
01.484,-7.71
01.500,-18.25
01.515,-27.86
01.531,-35.85
01.546,-41.6
01.562,-44.8
01.578,-45.5
01.593,-44.1
01.609,-41.16
01.625,-37.29
01.640,-33.14
01.656,-29.33
01.671,-26.45
01.687,-24.88
01.703,-24.57
01.718,-24.88
01.734,-24.67
01.750,-22.71
01.765,-18.18
01.781,-11.07
01.796,-2.25
01.812,6.88
01.828,14.91
01.843,20.96
01.859,24.75
01.875,26.56
01.890,26.87
01.906,26.13
01.921,24.77
01.937,23.23
01.953,22.17
01.968,22.3
01.984,24.26
02.000,28.19
02.015,33.64
02.031,39.63
02.046,44.93
02.062,48.46
02.078,49.6
02.093,48.22
02.109,44.52
02.125,38.81
02.140,31.32
02.156,22.16
02.171,11.51
02.187,-0.25
02.203,-12.43
02.218,-24.09
02.234,-34.28
02.250,-42.28
02.265,-47.83
02.281,-51.1
02.296,-52.6
02.312,-53.02
02.328,-52.91
02.343,-52.65
02.359,-52.47
02.375,-52.39
02.390,-52.32
02.406,-51.97
02.421,-50.94
02.437,-48.76
02.453,-45.14
02.468,-40.09
02.484,-33.96
02.500,-27.34
02.515,-20.82
02.531,-14.81
02.546,-9.41
02.562,-4.52
02.578,0.05
02.593,4.3
02.609,8.09
02.625,11.09
02.640,13.06
02.656,13.97
02.671,14.01
02.687,13.56
02.703,12.94
02.718,12.35
02.734,11.7
02.750,10.81
02.765,9.56
02.781,8.18
02.796,7.18
02.812,7.11
02.828,8.35
02.843,10.83
02.859,14.3
02.875,18.16
02.890,21.82
02.906,24.92
02.921,27.46
02.937,29.7
02.953,31.88
02.968,34.15
02.984,36.31
03.000,38.25
03.015,39.56
03.031,39.87
03.046,39.27
03.062,38.51
03.078,38.81
03.093,41.18
03.109,46.12
03.125,53.11
03.140,61.44
03.156,69.92
03.171,77.48
03.187,83.72
03.203,89.08
03.218,94.37
03.234,100.0
03.250,105.83
03.265,110.76
03.281,113.64
03.296,112.64
03.312,105.63
03.328,90.96
03.343,68.08
03.359,37.82
03.375,2.03
03.390,-36.59
03.406,-78.08
03.421,-118.0
03.437,-149.78
03.453,-168.11
03.468,-171.76
03.484,-162.99
03.500,-145.49
03.515,-124.38
03.531,-102.0
03.546,-80.58
03.562,-62.39
03.578,-50.6
03.593,-48.52
03.609,-58.21
03.625,-78.84
03.640,-106.07
03.656,-132.93
03.671,-151.63
03.687,-156.73
03.703,-146.42
03.718,-123.54
03.734,-93.96
03.750,-63.85
03.765,-37.19
03.781,-15.13
03.796,3.09
03.812,18.66
03.828,31.88
03.843,42.58
03.859,50.31
03.875,55.0
03.890,57.07
03.906,57.07
03.921,55.11
03.937,50.68
03.953,43.24
03.968,32.57
03.984,19.55
04.000,5.84
04.015,-6.56
04.031,-15.96
04.046,-21.31
04.062,-22.4
04.078,-19.76
04.093,-14.49
04.109,-7.98
04.125,-1.57
04.140,3.61
04.156,6.8
04.171,7.62
04.187,6.16
04.203,2.79
04.218,-1.88
04.234,-7.23
04.250,-12.76
04.265,-18.16
04.281,-23.32
04.296,-28.16
04.312,-32.57
04.328,-36.16
04.343,-38.29
04.359,-38.18
04.375,-35.11
04.390,-28.77
04.406,-19.38
04.421,-7.69
04.437,5.3
04.453,18.33
04.468,30.04
04.484,38.91
04.500,43.33
04.515,41.97
04.531,34.35
04.546,21.28
04.562,4.9
04.578,-11.8
04.593,-26.02
04.609,-36.14
04.625,-42.02
04.640,-44.85
04.656,-46.22
04.671,-47.26
04.687,-48.03
04.703,-47.58
04.718,-44.45
04.734,-37.35
04.750,-25.81
04.765,-10.47
04.781,7.01
04.796,24.35
04.812,39.28
04.828,50.18
04.843,56.45
04.859,58.56
04.875,57.63
04.890,55.01
04.906,51.81
04.921,48.84
04.937,46.61
04.953,45.42
04.968,45.43
04.984,46.68
05.000,49.14
05.015,52.72
05.031,57.36
05.046,62.95
05.062,69.29
05.078,75.88
05.093,81.9
05.109,86.19
05.125,87.61
05.140,85.24
05.156,78.64
05.171,67.97
05.187,53.9
05.203,37.41
05.218,19.6
05.234,1.52
05.250,-16.11
05.265,-33.17
05.281,-50.3
05.296,-68.91
05.312,-90.84
05.328,-117.74
05.343,-150.33
05.359,-187.9
05.375,-228.06
05.390,-267.0
05.406,-300.26
05.421,-323.61
05.437,-333.72
05.453,-328.64
05.468,-307.85
05.484,-272.17
05.500,-223.82
05.515,-166.44
05.531,-105.05
05.546,-45.69
05.562,5.59
05.578,44.04
05.593,67.35
05.609,76.05
05.625,72.86
05.640,61.3
05.656,44.22
05.671,23.2
05.687,-1.14
05.703,-28.04
05.718,-55.74
05.734,-81.38
05.750,-101.93
05.765,-115.28
05.781,-121.16
05.796,-121.12
05.812,-117.7
05.828,-113.49
05.843,-110.36
05.859,-109.18
05.875,-109.96
05.890,-112.08
05.906,-114.54
05.921,-116.36
05.937,-117.03
05.953,-116.98
05.968,-117.75
05.984,-121.53
06.000,-130.2
06.015,-144.17
06.031,-161.5
06.046,-178.0
06.062,-188.34
06.078,-187.55
06.093,-172.63
06.109,-143.35
06.125,-102.15
06.140,-53.14
06.156,-0.96
06.171,50.25
06.187,97.38
06.203,138.4
06.218,172.25
06.234,198.67
06.250,218.28
06.265,232.35
06.281,242.44
06.296,249.78
06.312,254.62
06.328,256.12
06.343,252.61
06.359,242.68
06.375,225.91
06.390,203.45
06.406,177.61
06.421,151.05
06.437,125.99
06.453,103.76
06.468,85.13
06.484,70.72
06.500,61.42
06.515,58.21
06.531,61.61
06.546,71.18
06.562,85.33
06.578,101.79
06.593,118.3
06.609,133.28
06.625,145.92
06.640,156.02
06.656,163.34
06.671,167.36
06.687,167.26
06.703,162.25
06.718,152.07
06.734,137.1
06.750,118.39
06.765,97.22
06.781,74.83
06.796,52.14
06.812,29.71
06.828,7.89
06.843,-13.08
06.859,-33.06
06.875,-51.98
06.890,-69.85
06.906,-86.74
06.921,-102.62
06.937,-117.27
06.953,-130.25
06.968,-140.93
06.984,-148.58
07.000,-152.52
07.015,-152.18
07.031,-147.25
07.046,-137.66
07.062,-123.76
07.078,-106.27
07.093,-86.26
07.109,-64.96
07.125,-43.49
07.140,-22.72
07.156,-3.21
07.171,14.61
07.187,30.33
07.203,43.58
07.218,54.23
07.234,62.64
07.250,69.68
07.265,76.49
07.281,83.98
07.296,92.36
07.312,100.92
07.328,108.28
07.343,112.9
07.359,113.56
07.375,109.71
07.390,101.54
07.406,89.65
07.421,74.87
07.437,58.02
07.453,39.99
07.468,21.7
07.484,3.98
07.500,-12.66
07.515,-28.19
07.531,-43.01
07.546,-57.65
07.562,-72.17
07.578,-85.89
07.593,-97.35
07.609,-104.86
07.625,-107.32
07.640,-104.7
07.656,-98.17
07.671,-89.64
07.687,-81.01
07.703,-73.59
07.718,-67.76
07.734,-63.06
07.750,-58.38
07.765,-52.48
07.781,-44.29
07.796,-33.37
07.812,-20.02
07.828,-5.27
07.843,9.41
07.859,22.53
07.875,32.81
07.890,39.33
07.906,41.58
07.921,39.48
07.937,33.56
07.953,25.14
07.968,16.38
07.984,9.87
08.000,7.95
08.015,11.84
08.031,21.33
08.046,34.81
08.062,50.01
08.078,64.76
08.093,77.6
08.109,87.93
08.125,95.8
08.140,101.57
08.156,105.6
08.171,108.12
08.187,109.28
08.203,109.22
08.218,108.11
08.234,106.13
08.250,103.33
08.265,99.56
08.281,94.59
08.296,88.42
08.312,81.53
08.328,74.97
08.343,70.18
08.359,68.4
08.375,70.16
08.390,74.88
08.406,80.97
08.421,86.3
08.437,88.84
08.453,87.33
08.468,81.5
08.484,72.13
08.500,60.51
08.515,47.99
08.531,35.34
08.546,22.53
08.562,8.8
08.578,-6.89
08.593,-25.27
08.609,-46.25
08.625,-68.85
08.640,-91.64
08.656,-113.15
08.671,-132.19
08.687,-147.89
08.703,-159.54
08.718,-166.66
08.734,-169.13
08.750,-167.37
08.765,-162.08
08.781,-153.65
08.796,-141.44
08.812,-123.72
08.828,-98.53
08.843,-65.07
08.859,-24.95
08.875,17.72
08.890,57.51
08.906,89.51
08.921,110.82
08.937,121.11
08.953,121.86
08.968,115.12
08.984,102.58
09.000,85.27
09.015,64.04
09.031,40.09
09.046,15.14
09.062,-8.86
09.078,-30.13
09.093,-47.62
09.109,-61.03
09.125,-70.69
09.140,-77.22
09.156,-81.1
09.171,-82.48
09.187,-81.09
09.203,-76.53
09.218,-68.53
09.234,-57.34
09.250,-43.84
09.265,-29.31
09.281,-15.13
09.296,-2.23
09.312,9.1
09.328,19.15
09.343,28.34
09.359,36.71
09.375,43.63
09.390,47.95
09.406,48.62
09.421,45.2
09.437,38.31
09.453,29.5
09.468,20.77
09.484,13.88
09.500,9.8
09.515,8.54
09.531,9.29
09.546,10.86
09.562,11.97
09.578,11.52
09.593,8.73
09.609,3.18
09.625,-5.14
09.640,-15.69
09.656,-27.38
09.671,-38.72
09.687,-48.09
09.703,-54.45
09.718,-57.68
09.734,-58.71
09.750,-59.04
09.765,-59.94
09.781,-61.75
09.796,-63.66
09.812,-64.26
09.828,-62.46
09.843,-58.28
09.859,-52.97
09.875,-48.45
09.890,-46.23
09.906,-46.57
09.921,-48.32
09.937,-49.41
09.953,-47.87
09.968,-42.71
09.984,-34.16
10.000,-23.4
10.015,-11.95
10.031,-1.13
10.046,8.21
10.062,15.75
10.078,21.47
10.093,25.42
10.109,27.67
10.125,28.27
10.140,27.41
10.156,25.51
10.171,23.16
10.187,21.03
10.203,19.67
10.218,19.39
10.234,20.17
10.250,21.78
10.265,23.81
10.281,25.93
10.296,27.9
10.312,29.47
10.328,30.36
10.343,30.2
10.359,28.69
10.375,25.88
10.390,22.33
10.406,19.04
10.421,17.05
10.437,17.03
10.453,18.87
10.468,21.75
10.484,24.51
10.500,26.11
10.515,25.99
10.531,24.14
10.546,20.89
10.562,16.68
10.578,12.07
10.593,7.78
10.609,4.82
10.625,4.31
10.640,7.07
10.656,13.09
10.671,21.41
10.687,30.26
10.703,37.73
10.718,42.49
10.734,44.2
10.750,43.46
10.765,41.34
10.781,38.66
10.796,35.69
10.812,32.21
10.828,27.88
10.843,22.71
10.859,17.22
10.875,12.22
10.890,8.34
10.906,5.69
10.921,3.67
10.937,1.36
10.953,-2.19
10.968,-7.58
10.984,-14.99
11.000,-24.2
11.015,-34.69
11.031,-45.67
11.046,-56.08
11.062,-64.72
11.078,-70.51
11.093,-72.85
11.109,-72.09
11.125,-69.44
11.140,-66.78
11.156,-65.86
11.171,-67.62
11.187,-71.69
11.203,-76.53
11.218,-79.92
11.234,-79.86
11.250,-75.31
11.265,-66.46
11.281,-54.56
11.296,-41.43
11.312,-28.72
11.328,-17.52
11.343,-8.19
11.359,-0.47
11.375,6.19
11.390,12.36
11.406,18.5
11.421,24.9
11.437,31.72
11.453,39.04
11.468,46.94
11.484,55.35
11.500,64.14
11.515,72.88
11.531,80.99
11.546,87.84
11.562,93.01
11.578,96.41
11.593,98.3
11.609,99.04
11.625,98.89
11.640,97.85
11.656,95.6
11.671,91.77
11.687,86.31
11.703,79.64
11.718,72.51
11.734,65.66
11.750,59.54
11.765,54.05
11.781,48.9
11.796,43.72
11.812,38.48
11.828,33.76
11.843,30.62
11.859,30.04
11.875,32.6
11.890,38.3
11.906,46.53
11.921,56.44
11.937,66.56
11.953,75.18
11.968,80.77
11.984,82.21
12.000,78.84
12.015,70.8
12.031,59.2
12.046,45.99
12.062,33.93
12.078,24.9
12.093,19.64
12.109,17.91
12.125,18.41
12.140,18.91
12.156,16.92
12.171,10.6
12.187,-0.54
12.203,-14.86
12.218,-30.74
12.234,-46.69
12.250,-61.56
12.265,-75.02
12.281,-88.06
12.296,-102.41
12.312,-119.77
12.328,-140.9
12.343,-164.35
12.359,-188.95
12.375,-213.55
12.390,-236.85
12.406,-253.3
12.421,-256.94
12.437,-244.44
12.453,-217.55
12.468,-187.86
12.484,-159.45
12.500,-133.3
12.515,-109.08
12.531,-84.16
12.546,-57.23
12.562,-27.9
12.578,3.59
12.593,36.55
12.609,70.29
12.625,104.94
12.640,139.15
12.656,170.77
12.671,197.49
12.687,216.9
12.703,226.82
12.718,225.82
12.734,213.64
12.750,191.55
12.765,162.62
12.781,129.32
12.796,93.6
12.812,57.32
12.828,22.35
12.843,-9.36
12.859,-36.05
12.875,-56.59
12.890,-70.84
12.906,-79.42
12.921,-84.49
12.937,-88.8
12.953,-94.56
12.968,-102.99
12.984,-114.17
13.000,-127.37
13.015,-141.32
13.031,-154.28
13.046,-163.95
13.062,-168.26
13.078,-165.67
13.093,-155.56
13.109,-138.56
13.125,-116.39
13.140,-91.56
13.156,-66.77
13.171,-44.36
13.187,-25.69
13.203,-11.2
13.218,-0.38
13.234,7.85
13.250,14.55
13.265,20.39
13.281,25.47
13.296,29.66
13.312,32.87
13.328,35.53
13.343,38.56
13.359,42.89
13.375,48.93
13.390,56.28
13.406,63.95
13.421,71.04
13.437,77.25
13.453,82.94
13.468,88.72
13.484,94.89
13.500,101.02
13.515,106.1
13.531,109.12
13.546,109.65
13.562,108.04
13.578,105.18
13.593,101.95
13.609,98.85
13.625,95.96
13.640,93.23
13.656,90.89
13.671,89.55
13.687,89.91
13.703,92.32
13.718,96.46
13.734,101.28
13.750,105.54
13.765,108.42
13.781,109.93
13.796,110.67
13.812,111.37
13.828,112.11
13.843,111.99
13.859,109.39
13.875,102.74
13.890,91.21
13.906,75.17
13.921,55.95
13.937,35.05
13.953,13.31
13.968,-9.46
13.984,-34.2
14.000,-61.96
14.015,-93.08
14.031,-126.94
14.046,-161.73
14.062,-194.87
14.078,-223.4
14.093,-244.49
14.109,-256.11
14.125,-257.58
14.140,-249.74
14.156,-234.76
14.171,-215.38
14.187,-194.15
14.203,-172.84
14.218,-152.44
14.234,-133.65
14.250,-117.33
14.265,-104.62
14.281,-96.39
14.296,-92.59
14.312,-91.97
14.328,-92.33
14.343,-91.45
14.359,-87.92
14.375,-81.62
14.390,-73.48
14.406,-64.94
14.421,-57.19
14.437,-50.71
14.453,-45.36
14.468,-40.58
14.484,-35.85
14.500,-30.91
14.515,-25.87
14.531,-20.98
14.546,-16.51
14.562,-12.51
14.578,-8.84
14.593,-5.35
14.609,-1.92
14.625,1.36
14.640,4.32
14.656,6.71
14.671,8.37
14.687,9.27
14.703,9.46
14.718,9.06
14.734,8.16
14.750,6.86
14.765,5.23
14.781,3.38
14.796,1.53
14.828,-0.69
14.843,-0.08
14.859,2.27
14.875,6.48
14.890,12.32
14.906,19.22
14.921,26.37
14.937,32.97
14.953,38.44
14.968,42.45
14.984,44.9
15.000,45.87
15.015,45.53
15.031,44.15
15.046,42.09
15.062,39.75
15.078,37.51
15.093,35.59
15.109,34.11
15.125,33.01
15.140,32.29
15.156,31.89
15.171,31.79
15.187,31.89
15.203,32.07
15.218,32.14
15.234,31.97
15.250,31.48
15.265,30.63
15.281,29.38
15.296,27.59
15.312,25.08
15.328,21.74
15.343,17.67
15.359,13.29
15.375,9.33
15.390,6.72
15.406,6.34
15.421,8.81
15.437,14.31
15.453,22.51
15.468,32.72
15.484,43.98
15.500,55.38
15.515,66.2
15.531,76.02
15.546,84.55
15.562,91.62
15.578,97.06
15.593,100.76
15.609,102.72
15.625,103.15
15.640,102.5
15.656,101.35
15.671,100.23
15.687,99.39
15.703,98.79
15.718,98.05
15.734,96.68
15.750,94.21
15.765,90.37
15.781,85.12
15.796,78.54
15.812,70.72
15.828,61.52
15.843,50.59
15.859,37.51
15.875,22.05
15.890,4.48
15.906,-14.25
15.921,-32.79
15.937,-49.61
15.953,-63.44
15.968,-73.56
15.984,-79.89
16.000,-82.92
16.015,-83.56
16.031,-82.86
16.046,-81.64
16.062,-80.26
16.078,-78.4
16.093,-75.16
16.109,-69.48
16.125,-60.81
16.140,-49.69
16.156,-37.92
16.171,-27.99
16.187,-22.12
16.203,-21.25
16.218,-24.6
16.234,-30.04
16.250,-35.05
16.265,-37.76
16.281,-37.56
16.296,-34.97
16.312,-30.94
16.328,-26.05
16.343,-20.12
16.359,-12.26
16.375,-1.32
16.390,13.62
16.406,32.84
16.421,55.77
16.437,80.78
16.453,105.18
16.468,125.45
16.484,137.89
16.500,139.6
16.515,129.65
16.531,109.81
16.546,84.3
16.562,58.64
16.578,37.92
16.593,25.46
16.609,22.31
16.625,27.72
16.640,40.03
16.656,57.37
16.671,77.78
16.687,98.87
16.703,117.55
16.718,130.27
16.734,133.88
16.750,126.52
16.765,108.26
16.781,81.02
16.796,47.91
16.812,12.36
16.828,-22.63
16.843,-54.84
16.859,-82.97
16.875,-106.52
16.890,-125.56
16.906,-140.34
16.921,-151.05
16.937,-157.78
16.953,-160.6
16.968,-159.94
16.984,-156.76
17.000,-152.39
17.015,-148.02
17.031,-144.05
17.046,-139.86
17.062,-134.12
17.078,-125.57
17.093,-113.76
17.109,-99.25
17.125,-83.17
17.140,-66.29
17.156,-48.47
17.171,-28.63
17.187,-5.55
17.203,21.21
17.218,50.62
17.234,80.47
17.250,108.19
17.265,131.87
17.281,150.89
17.296,165.76
17.312,177.53
17.328,187.04
17.343,194.82
17.359,201.38
17.375,207.82
17.390,215.94
17.406,227.72
17.421,244.2
17.437,264.2
17.453,284.29
17.468,299.66
17.484,305.75
17.500,299.81
17.515,281.69
17.531,253.62
17.546,219.17
17.562,182.07
17.578,145.25
17.593,110.93
17.609,81.0
17.625,57.09
17.640,40.37
17.656,31.12
17.671,28.49
17.687,30.66
17.703,35.37
17.718,39.85
17.734,41.96
17.750,40.53
17.765,35.2
17.781,26.0
17.796,13.17
17.812,-2.97
17.828,-22.15
17.843,-44.06
17.859,-70.13
17.875,-100.99
17.890,-135.81
17.906,-172.16
17.921,-206.85
17.937,-236.94
17.953,-260.48
17.968,-276.89
17.984,-286.87
18.000,-295.52
18.015,-306.86
18.031,-322.42
18.046,-341.27
18.062,-361.66
18.078,-382.59
18.093,-404.25
18.109,-427.32
18.125,-451.7
18.140,-481.78
18.156,-518.57
18.171,-559.26
18.187,-598.88
18.203,-633.77
18.218,-663.73
18.234,-691.17
18.250,-718.17
18.265,-743.35
18.281,-768.77
18.296,-791.03
18.312,-802.62
18.328,-795.75
18.343,-767.31
18.359,-721.07
18.375,-665.65
18.390,-610.25
18.406,-519.1
18.421,-378.71
18.437,-198.36
18.453,-6.88
18.468,165.24
18.484,300.08
18.500,393.6
18.515,450.26
18.531,474.69
18.546,479.38
18.562,467.26
18.578,441.67
18.593,408.46
18.609,375.92
18.625,351.86
18.640,340.89
18.656,343.25
18.671,354.39
18.687,366.69
18.703,364.92
18.718,338.22
18.734,285.05
18.750,214.51
18.765,142.46
18.781,85.01
18.796,52.8
18.812,48.02
18.828,65.76
18.843,93.07
18.859,118.87
18.875,137.95
18.890,150.9
18.906,160.9
18.921,170.1
18.937,178.37
18.953,184.21
18.968,186.98
18.984,185.75
19.000,182.1
19.015,179.33
19.031,180.78
19.046,188.25
19.062,201.36
19.078,218.04
19.093,235.5
19.109,251.3
19.125,262.67
19.140,267.71
19.156,265.64
19.171,256.61
19.187,241.4
19.203,221.0
19.218,196.39
19.234,168.55
19.250,138.73
19.265,108.36
19.281,79.19
19.296,52.97
19.312,30.87
19.328,13.06
19.343,-1.45
19.359,-14.4
19.375,-27.58
19.390,-42.0
19.406,-57.47
19.421,-72.6
19.437,-85.22
19.453,-93.17
19.468,-95.0
19.484,-90.47
19.500,-80.61
19.515,-67.31
19.531,-52.73
19.546,-38.61
19.562,-25.97
19.578,-15.07
19.593,-5.79
19.609,2.05
19.625,8.35
19.640,12.73
19.656,14.78
19.671,14.36
19.687,11.98
19.703,8.73
19.718,6.07
19.734,5.14
19.750,6.39
19.765,9.28
19.781,12.56
19.796,14.82
19.812,15.05
19.828,13.04
19.843,9.34
19.859,4.86
19.875,0.48
19.890,-3.3
19.906,-6.39
19.921,-8.95
19.937,-11.13
19.953,-13.07
19.968,-14.87
19.984,-16.68
20.000,-18.7
20.015,-20.96
20.031,-23.16
20.046,-24.56
20.062,-24.09
20.078,-20.73
20.093,-13.92
20.109,-3.83
20.125,8.67
20.140,22.26
20.156,35.67
20.171,47.99
20.187,58.85
20.203,68.3
20.218,76.61
20.234,84.04
20.250,90.66
20.265,96.38
20.281,100.96
20.296,104.13
20.312,105.65
20.328,105.37
20.343,103.19
20.359,99.11
20.375,93.2
20.390,85.68
20.406,76.99
20.421,67.82
20.437,59.07
20.453,51.74
20.468,46.76
20.484,44.71
20.500,45.68
20.515,49.13
20.531,53.83
20.546,58.09
20.562,59.93
20.578,57.52
20.593,49.55
20.609,35.65
20.625,16.75
20.640,-4.99
20.656,-26.4
20.671,-43.9
20.687,-54.23
20.703,-55.12
20.718,-45.76
20.734,-26.99
20.750,-1.26
20.765,27.57
20.781,54.79
20.796,75.71
20.812,86.7
20.828,86.08
20.843,74.64
20.859,55.18
20.875,31.58
20.890,7.5
20.906,-14.48
20.921,-33.1
20.937,-48.13
20.953,-59.7
20.968,-68.03
20.984,-73.39
21.000,-76.43
21.015,-78.11
21.031,-79.48
21.046,-81.07
21.062,-82.45
21.078,-82.39
21.093,-79.27
21.109,-71.92
21.125,-60.19
21.140,-45.09
21.156,-28.4
21.171,-12.12
21.187,2.16
21.203,13.61
21.218,22.11
21.234,28.03
21.250,31.76
21.265,33.52
21.281,33.21
21.296,30.61
21.312,25.78
21.328,19.4
21.343,12.9
21.359,8.21
21.375,7.31
21.390,11.45
21.406,20.77
21.421,34.06
21.437,49.03
21.453,62.74
21.468,72.35
21.484,75.69
21.500,71.67
21.515,60.47
21.531,43.41
21.546,22.64
21.562,0.78
21.578,-19.62
21.593,-36.35
21.609,-47.91
21.625,-53.64
21.640,-53.8
21.656,-49.52
21.671,-42.42
21.687,-34.36
21.703,-26.91
21.718,-21.2
21.734,-17.72
21.750,-16.48
21.765,-17.17
21.781,-19.27
21.796,-22.21
21.812,-25.44
21.828,-28.46
21.843,-30.85
21.859,-32.34
21.875,-32.69
21.890,-31.64
21.906,-28.89
21.921,-24.13
21.937,-17.29
21.953,-8.75
21.968,0.47
21.984,8.92
22.000,15.06
22.015,17.96
22.031,17.76
22.046,15.71
22.062,13.76
22.078,13.74
22.093,16.66
22.109,22.36
22.125,29.75
22.140,37.33
22.156,43.65
22.171,47.61
22.187,48.5
22.203,46.05
22.218,40.46
22.234,32.63
22.250,24.15
22.265,16.82
22.281,11.82
22.296,8.97
22.312,6.39
22.328,0.95
22.343,-10.72
22.359,-30.97
22.375,-59.96
22.390,-95.14
22.406,-131.5
22.421,-162.58
22.437,-182.07
22.453,-185.54
22.468,-171.7
22.484,-142.8
22.500,-103.9
22.515,-61.34
22.531,-20.93
22.546,13.27
22.562,39.46
22.578,57.7
22.593,69.11
22.609,75.15
22.625,77.16
22.640,76.26
22.656,73.39
22.671,69.41
22.687,65.11
22.703,61.34
22.718,58.81
22.734,57.88
22.750,58.5
22.765,60.24
22.781,62.53
22.796,64.97
22.812,67.45
22.828,70.03
22.843,72.65
22.859,74.76
22.875,75.35
22.890,73.34
22.906,68.14
22.921,60.1
22.937,50.47
22.953,40.95
22.968,32.89
22.984,26.75
23.000,21.61
23.015,15.74
23.031,7.37
23.046,-4.54
23.062,-19.98
23.078,-37.78
23.093,-56.0
23.109,-72.27
23.125,-84.34
23.140,-91.24
23.156,-93.22
23.171,-91.72
23.187,-88.86
23.203,-86.64
23.218,-86.22
23.234,-87.49
23.250,-89.11
23.265,-89.05
23.281,-86.32
23.296,-80.8
23.312,-73.06
23.328,-63.97
23.343,-54.34
23.359,-45.13
23.375,-37.61
23.390,-33.06
23.406,-32.31
23.421,-36.28
23.437,-44.77
23.453,-56.48
23.468,-69.7
23.484,-83.17
23.500,-97.03
23.515,-112.88
23.531,-132.57
23.546,-149.29
23.562,-155.43
23.578,-144.44
23.593,-114.67
23.609,-70.41
23.625,-18.93
23.640,32.92
23.656,80.54
23.671,122.15
23.687,158.27
23.703,189.37
23.718,215.75
23.734,237.16
23.750,252.82
23.765,262.4
23.781,266.8
23.796,267.23
23.812,265.55
23.828,263.85
23.843,263.07
23.859,263.25
23.875,263.69
23.890,263.07
23.906,260.71
23.921,256.69
23.937,251.84
23.953,247.65
23.968,245.71
23.984,246.22
24.000,247.65
24.015,250.12
24.031,251.67
24.046,250.06
24.062,243.46
24.078,230.46
24.093,210.19
24.109,182.4
24.125,147.48
24.140,107.26
24.156,65.23
24.171,25.35
24.187,-9.03
24.203,-36.97
24.218,-60.76
24.234,-84.76
24.250,-112.89
24.265,-146.54
24.281,-183.44
24.296,-218.66
24.312,-247.29
24.328,-266.24
24.343,-275.14
24.359,-275.74
24.375,-270.31
24.390,-260.33
24.406,-246.24
24.421,-228.1
24.437,-206.54
24.453,-183.5
24.468,-161.53
24.484,-143.18
24.500,-130.16
24.515,-122.96
24.531,-120.83
24.546,-122.4
24.562,-126.26
24.578,-131.45
24.593,-137.79
24.609,-145.5
24.625,-154.8
24.640,-165.55
24.656,-177.28
24.671,-189.24
24.687,-200.61
24.703,-210.49
24.718,-217.62
24.734,-220.33
24.750,-216.52
24.765,-204.19
24.781,-182.24
24.796,-151.09
24.812,-112.85
24.828,-70.92
24.843,-29.2
24.859,8.69
24.875,39.85
24.890,62.33
24.906,75.2
24.921,78.51
24.937,73.32
24.953,61.65
24.968,46.16
24.984,29.66
25.000,14.57
25.015,2.44
25.031,-6.02
25.046,-10.76
25.062,-12.17
25.078,-10.77
25.093,-7.13
25.109,-1.96
25.125,3.87
25.140,9.44
25.156,13.91
25.171,16.87
25.187,18.33
25.203,18.7
25.218,18.33
25.234,17.33
25.250,15.45
25.265,12.35
25.281,8.13
25.296,3.41
25.312,-0.73
25.328,-3.54
25.343,-4.73
25.359,-4.62
25.375,-3.86
25.390,-2.93
25.406,-1.79
25.421,0.24
25.437,3.99
25.453,9.75
25.468,16.74
25.484,23.44
25.500,28.17
25.515,29.68
25.531,27.57
25.546,22.28
25.562,14.83
25.578,6.45
25.593,-1.9
25.609,-10.3
25.625,-19.11
25.640,-28.68
25.656,-39.05
25.671,-49.98
25.687,-60.98
25.703,-71.28
25.718,-79.93
25.734,-86.36
25.750,-91.91
25.765,-97.89
25.781,-104.87
25.796,-112.61
25.812,-120.62
25.828,-128.55
25.843,-136.21
25.859,-143.24
25.875,-149.74
25.890,-158.87
25.906,-172.37
25.921,-189.52
25.937,-207.62
25.953,-223.99
25.968,-237.29
25.984,-247.36
26.000,-254.17
26.015,-258.33
26.031,-264.73
26.046,-275.52
26.062,-289.04
26.078,-301.14
26.093,-308.47
26.109,-310.48
26.125,-308.7
26.140,-304.66
26.156,-300.45
26.171,-302.98
26.187,-314.69
26.203,-332.13
26.218,-347.98
26.234,-356.14
26.250,-355.27
26.265,-348.42
26.281,-340.15
26.296,-296.15
26.312,-203.67
26.328,-74.17
26.343,64.32
26.359,187.6
26.375,284.74
26.390,353.68
26.406,390.96
26.421,405.59
26.437,405.02
26.453,390.37
26.468,365.42
26.484,337.21
26.500,313.88
26.515,302.06
26.531,303.07
26.546,314.76
26.562,333.96
26.578,355.15
26.593,368.15
26.609,366.13
26.625,348.39
26.640,320.43
26.656,290.81
26.671,267.33
26.687,254.86
26.703,254.51
26.718,261.7
26.734,266.03
26.750,258.44
26.765,234.99
26.781,197.87
26.796,153.21
26.812,107.83
26.828,66.97
26.843,33.41
26.859,6.13
26.875,-19.03
26.890,-45.47
26.906,-74.01
26.921,-102.97
26.937,-129.95
26.953,-153.83
26.968,-175.08
26.984,-194.94
27.000,-214.55
27.015,-233.89
27.031,-250.65
27.046,-261.07
27.062,-261.62
27.078,-250.72
27.093,-229.61
27.109,-201.74
27.125,-171.35
27.140,-142.2
27.156,-116.26
27.171,-93.49
27.187,-72.35
27.203,-50.99
27.218,-28.52
27.234,-5.75
27.250,15.06
27.265,31.18
27.281,40.8
27.296,44.12
27.312,43.51
27.328,42.63
27.343,45.09
27.359,53.21
27.375,67.33
27.390,86.18
27.406,107.55
27.421,129.21
27.437,149.71
27.453,168.58
27.468,186.24
27.484,203.44
27.500,220.62
27.515,237.32
27.531,252.08
27.546,262.82
27.562,267.78
27.578,266.42
27.593,259.64
27.609,249.3
27.625,237.07
27.640,223.55
27.656,207.99
27.671,189.15
27.687,166.4
27.703,140.56
27.718,113.85
27.734,88.99
27.750,68.25
27.765,52.79
27.781,42.76
27.796,37.56
27.812,36.31
27.828,37.79
27.843,40.34
27.859,41.93
27.875,40.56
27.890,35.43
27.906,27.63
27.921,20.3
27.937,17.64
27.953,23.14
27.968,38.0
27.984,60.37
28.000,85.91
28.015,109.44
28.031,126.68
28.046,135.57
28.062,136.49
28.078,131.7
28.093,124.32
28.109,117.45
28.125,113.54
28.140,114.1
28.156,119.38
28.171,128.26
28.187,138.32
28.203,146.39
28.218,149.38
28.234,145.24
28.250,133.39
28.265,114.57
28.281,90.05
28.296,60.89
28.312,27.82
28.328,-7.99
28.343,-43.88
28.359,-75.16
28.375,-95.99
28.390,-101.44
28.406,-89.99
28.421,-64.77
28.437,-32.95
28.453,-3.28
28.468,17.18
28.484,25.36
28.500,22.64
28.515,13.49
28.531,3.18
28.546,-4.13
28.562,-6.27
28.578,-2.86
28.593,5.37
28.609,17.15
28.625,30.89
28.640,44.72
28.656,56.62
28.671,64.65
28.687,67.21
28.703,63.37
28.718,52.91
28.734,36.44
28.750,15.36
28.765,-8.39
28.781,-32.61
28.796,-55.34
28.812,-75.39
28.828,-92.78
28.843,-108.57
28.859,-124.38
28.875,-141.45
28.890,-159.94
28.906,-178.86
28.921,-196.53
28.937,-211.31
28.953,-222.54
28.968,-230.81
28.984,-237.9
29.000,-246.1
29.015,-257.76
29.031,-274.96
29.046,-299.19
29.062,-330.63
29.078,-367.27
29.093,-404.37
29.109,-435.1
29.125,-452.49
29.140,-451.99
29.156,-433.28
29.171,-400.64
29.187,-361.43
29.203,-323.2
29.218,-291.04
29.234,-266.32
29.250,-247.46
29.265,-231.67
29.281,-216.52
29.296,-200.01
29.312,-180.83
29.328,-158.24
29.343,-131.89
29.359,-101.69
29.375,-67.84
29.390,-31.12
29.406,6.95
29.421,44.48
29.437,80.86
29.453,115.79
29.468,148.55
29.484,177.7
29.500,201.83
29.515,220.35
29.531,233.69
29.546,242.65
29.562,248.41
29.578,253.81
29.593,260.99
29.609,270.01
29.625,278.66
29.640,284.18
29.656,285.07
29.671,281.5
29.687,274.41
29.703,265.52
29.718,259.3
29.734,260.41
29.750,272.16
29.765,295.24
29.781,328.11
29.796,367.53
29.812,408.33
29.828,443.54
29.843,450.78
29.859,415.47
29.875,340.8
29.890,248.6
29.906,164.33
29.921,102.57
29.937,64.65
29.953,46.55
29.968,38.41
29.984,34.01
30.000,32.74
30.015,34.9
30.031,38.67
30.046,39.3
30.062,31.55
30.078,14.34
30.093,-8.47
30.109,-29.91
30.125,-41.84
30.140,-37.2
30.156,-14.68
30.171,19.67
30.187,54.27
30.203,77.18
30.218,81.48
30.234,67.2
30.250,39.64
30.265,6.67
30.281,-24.15
30.296,-48.68
30.312,-66.88
30.328,-81.46
30.343,-95.07
30.359,-108.47
30.375,-120.94
30.390,-131.72
30.406,-141.04
30.421,-150.05
30.437,-160.84
30.453,-175.55
30.468,-195.65
30.484,-221.27
30.500,-250.8
30.515,-281.34
30.531,-309.18
30.546,-330.22
30.562,-340.55
30.578,-337.64
30.593,-321.26
30.609,-293.7
30.625,-259.0
30.640,-221.44
30.656,-184.27
30.671,-149.12
30.687,-116.17
30.703,-84.96
30.718,-55.18
30.734,-27.0
30.750,-0.91
30.765,22.63
30.781,43.53
30.796,61.9
30.812,77.9
30.828,91.36
30.843,101.7
30.859,108.02
30.875,109.5
30.890,105.91
30.906,98.07
30.921,88.03
30.937,78.49
30.953,72.05
30.968,70.22
30.984,72.81
31.000,77.86
31.015,82.45
31.031,83.61
31.046,79.34
31.062,69.5
31.078,56.07
31.093,42.62
31.109,33.13
31.125,30.18
31.140,33.56
31.156,40.1
31.171,44.95
31.187,43.82
31.203,35.14
31.218,20.49
31.234,3.47
31.250,-12.76
31.265,-27.14
31.281,-40.98
31.296,-56.4
31.312,-74.29
31.328,-93.21
31.343,-109.92
31.359,-121.41
31.375,-126.94
31.390,-129.08
31.406,-132.86
31.421,-143.84
31.437,-165.93
31.453,-200.22
31.468,-244.89
31.484,-296.0
31.500,-348.56
31.515,-397.08
31.531,-435.94
31.546,-459.95
31.562,-465.13
31.578,-449.83
31.593,-415.69
31.609,-367.64
31.625,-312.88
31.640,-259.08
31.656,-212.56
31.671,-177.04
31.687,-153.6
31.703,-141.22
31.718,-137.72
31.734,-140.4
31.750,-146.41
31.765,-152.9
31.781,-157.27
31.796,-157.56
31.812,-152.79
31.828,-143.14
31.843,-129.62
31.859,-113.64
31.875,-96.41
31.890,-78.6
31.906,-60.32
31.921,-41.39
31.937,-21.66
31.953,-1.34
31.968,18.93
31.984,38.37
32.000,56.28
32.015,72.38
32.031,86.89
32.046,100.33
32.062,113.24
32.078,125.78
32.093,137.64
32.109,148.13
32.125,156.5
32.140,162.31
32.156,165.67
32.171,167.3
32.187,168.38
32.203,170.4
32.218,174.9
32.234,183.19
32.250,195.85
32.265,212.32
32.281,230.64
32.296,247.73
32.312,260.3
32.328,265.97
32.343,264.09
32.359,255.86
32.375,243.75
32.390,230.41
32.406,217.75
32.421,206.49
32.437,196.51
32.453,187.31
32.468,178.47
32.484,169.7
32.500,160.71
32.515,150.91
32.531,139.53
32.546,125.98
32.562,110.17
32.578,92.8
32.593,75.07
32.609,58.26
32.625,43.01
32.640,29.09
32.656,15.47
32.671,0.9
32.687,-15.27
32.703,-32.66
32.718,-49.65
32.734,-63.84
32.750,-72.84
32.765,-74.86
32.781,-69.28
32.796,-56.8
32.812,-39.17
32.828,-18.73
32.843,2.14
32.859,21.53
32.875,38.26
32.890,51.87
32.906,62.28
32.921,69.5
32.937,73.38
32.953,73.73
32.968,70.59
32.984,64.64
33.000,57.14
33.015,49.71
33.031,43.76
33.046,39.98
33.062,38.28
33.078,37.91
33.093,37.88
33.109,37.28
33.125,35.47
33.140,32.0
33.156,26.5
33.171,18.69
33.187,8.5
33.203,-3.83
33.218,-17.75
33.234,-32.51
33.250,-47.41
33.265,-61.95
33.281,-75.82
33.296,-88.68
33.312,-99.9
33.328,-108.43
33.343,-112.85
33.359,-111.81
33.375,-104.5
33.390,-91.0
33.406,-72.39
33.421,-50.49
33.437,-27.23
33.453,-4.23
33.468,17.51
33.484,37.62
33.500,55.9
33.515,72.06
33.531,85.53
33.546,95.64
33.562,101.98
33.578,104.71
33.593,104.6
33.609,102.71
33.625,100.01
33.640,97.02
33.656,93.8
33.671,90.24
33.687,86.39
33.703,82.68
33.718,79.88
33.734,78.71
33.750,79.47
33.765,81.79
33.781,84.64
33.796,86.67
33.812,86.65
33.828,83.83
33.843,78.03
33.859,69.55
33.875,58.94
33.890,46.74
33.906,33.47
33.921,19.71
33.937,6.4
33.953,-5.16
33.968,-13.39
33.984,-16.79
34.000,-14.55
34.015,-6.75
34.031,5.44
34.046,20.26
34.062,35.77
34.078,50.48
34.093,63.48
34.109,74.37
34.125,83.03
34.140,89.29
34.156,92.99
34.171,94.05
34.187,92.83
34.203,90.02
34.218,86.59
34.234,83.31
34.250,80.48
34.265,77.83
34.281,74.81
34.296,71.01
34.312,66.49
34.328,61.8
34.343,57.67
34.359,54.66
34.375,52.73
34.390,51.31
34.406,49.44
34.421,46.25
34.437,41.29
34.453,34.44
34.468,25.78
34.484,15.38
34.500,3.34
34.515,-9.89
34.531,-23.07
34.546,-34.12
34.562,-40.63
34.578,-40.5
34.593,-32.74
34.609,-17.57
34.625,3.94
34.640,30.45
34.656,60.62
34.671,92.92
34.687,125.38
34.703,155.43
34.718,180.53
34.734,199.13
34.750,211.3
34.765,218.54
34.781,222.84
34.796,225.47
34.812,226.22
34.828,223.76
34.843,216.68
34.859,204.74
34.875,189.36
34.890,172.96
34.906,157.56
34.921,143.57
34.937,129.44
34.953,112.44
34.968,90.13
34.984,61.65
35.000,28.21
35.015,-7.58
35.031,-42.88
35.046,-75.84
35.062,-106.17
35.078,-134.8
35.093,-163.09
35.109,-192.15
35.125,-222.81
35.140,-255.58
35.156,-290.58
35.171,-327.05
35.187,-362.81
35.203,-394.2
35.218,-416.82
35.234,-426.82
35.250,-422.09
35.265,-402.8
35.281,-371.01
35.296,-329.81
35.312,-282.47
35.328,-232.13
35.343,-181.88
35.359,-134.79
35.375,-93.78
35.390,-61.1
35.406,-37.9
35.421,-24.21
35.437,-19.24
35.453,-21.63
35.468,-29.37
35.484,-39.51
35.500,-47.8
35.515,-49.3
35.531,-39.44
35.546,-15.21
35.562,23.7
35.578,74.66
35.593,132.48
35.609,190.44
35.625,241.21
35.640,278.11
35.656,296.12
35.671,292.79
35.687,268.64
35.703,227.04
35.718,173.55
35.734,114.71
35.750,56.83
35.765,4.79
35.781,-38.69
35.796,-73.49
35.812,-101.66
35.828,-126.44
35.843,-150.69
35.859,-175.31
35.875,-198.8
35.890,-217.83
35.906,-229.02
35.921,-230.77
35.937,-223.92
35.953,-210.98
35.968,-194.66
35.984,-176.61
36.000,-157.25
36.015,-136.76
36.031,-116.08
36.046,-97.28
36.062,-82.63
36.078,-73.14
36.093,-67.21
36.109,-60.47
36.125,-47.47
36.140,-24.15
36.156,9.8
36.171,50.08
36.187,89.04
36.203,118.43
36.218,132.68
36.234,130.97
36.250,117.14
36.265,97.7
36.281,79.01
36.296,64.91
36.312,56.1
36.328,51.04
36.343,47.68
36.359,44.93
36.375,42.94
36.390,42.58
36.406,44.59
36.421,48.98
36.437,55.07
36.453,61.88
36.468,68.48
36.484,74.25
36.500,78.97
36.515,82.57
36.531,84.98
36.546,85.98
36.562,85.07
36.578,81.71
36.593,75.5
36.609,66.52
36.625,55.53
36.640,43.91
36.656,33.21
36.671,24.69
36.687,18.86
36.703,15.33
36.718,13.07
36.734,10.88
36.750,7.82
36.765,3.55
36.781,-1.65
36.796,-7.14
36.812,-12.25
36.828,-16.57
36.843,-20.14
36.859,-23.36
36.875,-26.79
36.890,-30.98
36.906,-36.2
36.921,-42.36
36.937,-49.02
36.953,-55.44
36.968,-60.77
36.984,-64.21
37.000,-65.1
37.015,-63.05
37.031,-57.95
37.046,-50.02
37.062,-39.82
37.078,-28.14
37.093,-15.91
37.109,-4.05
37.125,6.63
37.140,15.54
37.156,22.37
37.171,27.06
37.187,29.81
37.203,30.99
37.218,31.12
37.234,30.68
37.250,30.06
37.265,29.48
37.281,28.96
37.296,28.47
37.312,27.95
37.328,27.43
37.343,26.98
37.359,26.61
37.375,26.21
37.390,25.59
37.406,24.55
37.421,23.01
37.437,21.06
37.453,18.89
37.468,16.65
37.484,14.27
37.500,11.4
37.515,7.57
37.531,2.37
37.546,-4.28
37.562,-11.96
37.578,-19.72
37.593,-26.23
37.609,-30.18
37.625,-30.66
37.640,-27.48
37.656,-21.26
37.671,-13.22
37.687,-4.76
37.703,2.92
37.718,9.1
37.734,13.49
37.750,16.01
37.765,16.57
37.781,14.99
37.796,11.13
37.812,5.07
37.828,-2.85
37.843,-12.21
37.859,-22.7
37.875,-34.34
37.890,-47.52
37.906,-62.53
37.921,-79.32
37.937,-97.32
37.953,-115.43
37.968,-132.55
37.984,-147.93
38.000,-161.41
38.015,-173.34
38.031,-184.25
38.046,-194.58
38.062,-204.46
38.078,-213.73
38.093,-222.02
38.109,-228.96
38.125,-234.22
38.140,-237.6
38.156,-238.88
38.171,-237.72
38.187,-233.55
38.203,-225.53
38.218,-212.77
38.234,-194.56
38.250,-170.84
38.265,-142.43
38.281,-110.96
38.296,-78.58
38.312,-47.31
38.328,-18.52
38.343,7.25
38.359,30.07
38.375,50.22
38.390,67.65
38.406,82.01
38.421,92.72
38.437,99.5
38.453,102.6
38.468,102.81
38.484,101.09
38.500,98.06
38.515,93.64
38.531,87.32
38.546,78.68
38.562,67.94
38.578,56.31
38.593,45.66
38.609,37.78
38.625,33.67
38.640,33.16
38.656,35.25
38.671,38.68
38.687,42.46
38.703,45.94
38.718,48.5
38.734,49.19
38.750,46.76
38.765,40.2
38.781,29.44
38.796,15.73
38.812,1.24
38.828,-11.71
38.843,-21.64
38.859,-28.24
38.875,-31.98
38.890,-33.37
38.906,-32.15
38.921,-27.27
38.937,-17.59
38.953,-2.85
38.968,15.67
38.984,35.22
39.000,52.58
39.015,65.39
39.031,73.11
39.046,77.32
39.062,80.98
39.078,87.08
39.093,97.4
39.109,111.89
39.125,128.77
39.140,145.44
39.156,159.42
39.171,168.95
39.187,173.27
39.203,172.38
39.218,166.82
39.234,157.48
39.250,145.45
39.265,131.98
39.281,118.16
39.296,104.71
39.312,91.69
39.328,78.69
39.343,65.21
39.359,51.26
39.375,37.74
39.390,26.49
39.406,19.83
39.421,19.83
39.437,27.6
39.453,42.87
39.468,64.18
39.484,89.19
39.500,115.38
39.515,140.38
39.531,162.4
39.546,180.15
39.562,193.08
39.578,201.34
39.593,205.74
39.609,207.39
39.625,207.21
39.640,205.61
39.656,202.22
39.671,196.3
39.687,187.15
39.703,174.61
39.718,159.14
39.734,141.5
39.750,122.44
39.765,102.51
39.781,82.14
39.796,61.57
39.812,40.97
39.828,20.38
39.843,-0.14
39.859,-20.26
39.875,-39.1
39.890,-54.9
39.906,-65.29
39.921,-67.98
39.937,-61.9
39.953,-48.14
39.968,-30.18
39.984,-13.15
40.000,-2.27
40.015,-1.27
40.031,-11.31
40.046,-31.35
40.062,-59.04
40.078,-91.89
40.093,-127.77
40.109,-164.96
40.125,-201.82
40.140,-236.42
40.156,-266.58
40.171,-289.99
40.187,-304.53
40.203,-308.55
40.218,-301.14
40.234,-282.55
40.250,-254.63
40.265,-221.0
40.281,-186.57
40.296,-156.49
40.312,-134.81
40.328,-123.27
40.343,-120.88
40.359,-124.45
40.375,-129.66
40.390,-132.2
40.406,-128.63
40.421,-116.77
40.437,-95.81
40.453,-66.38
40.468,-30.56
40.484,7.94
40.500,43.92
40.515,71.16
40.531,83.79
40.546,77.96
40.562,53.49
40.578,14.5
40.593,-31.57
40.609,-76.06
40.625,-111.73
40.640,-134.44
40.656,-143.77
40.671,-142.05
40.687,-132.85
40.703,-119.6
40.718,-104.64
40.734,-89.29
40.750,-74.14
40.765,-59.54
40.781,-45.79
40.796,-33.05
40.812,-21.19
40.828,-9.61
40.843,2.56
40.859,16.22
40.875,32.14
40.890,50.95
40.906,73.32
40.921,99.93
40.937,131.29
40.953,167.1
40.968,205.69
40.984,243.9
41.000,277.68
41.015,303.17
41.031,318.12
41.046,322.54
41.062,318.48
41.078,308.99
41.093,296.72
41.109,283.07
41.125,268.08
41.140,251.27
41.156,232.42
41.171,212.02
41.187,190.79
41.203,168.85
41.218,145.01
41.234,117.01
41.250,82.45
41.265,39.93
41.281,-10.21
41.296,-66.08
41.312,-124.87
41.328,-183.36
41.343,-237.92
41.359,-284.2
41.375,-317.27
41.390,-332.42
41.406,-326.98
41.421,-301.83
41.437,-261.97
41.453,-215.35
41.468,-170.39
41.484,-133.35
41.500,-106.46
41.515,-87.78
41.531,-72.53
41.546,-55.4
41.562,-32.52
41.578,-2.84
41.593,31.81
41.609,67.59
41.625,99.99
41.640,125.13
41.656,140.54
41.671,145.38
41.687,140.12
41.703,126.38
41.718,106.74
41.734,84.7
41.750,64.45
41.765,50.09
41.781,44.44
41.796,48.03
41.812,58.58
41.828,71.55
41.843,81.43
41.859,83.49
41.875,75.22
41.890,57.13
41.906,32.52
41.921,6.46
41.937,-15.61
41.953,-29.46
41.968,-33.28
41.984,-28.35
42.000,-18.69
42.015,-9.83
42.031,-6.63
42.046,-11.4
42.062,-22.72
42.078,-35.63
42.093,-43.26
42.109,-38.99
42.125,-18.67
42.140,18.11
42.156,67.66
42.171,122.74
42.187,173.76
42.203,210.53
42.218,224.44
42.234,210.67
42.250,169.93
42.265,108.72
42.281,37.64
42.296,-31.81
42.312,-90.95
42.328,-136.35
42.343,-170.15
42.359,-198.21
42.375,-227.32
42.390,-262.44
42.406,-305.17
42.421,-353.28
42.437,-401.49
42.453,-442.78
42.468,-470.07
42.484,-478.19
42.500,-465.33
42.515,-433.7
42.531,-389.11
42.546,-339.09
42.562,-290.75
42.578,-248.97
42.593,-215.56
42.609,-189.55
42.625,-168.41
42.640,-149.37
42.656,-130.43
42.671,-111.15
42.687,-92.51
42.703,-76.41
42.718,-64.78
42.734,-58.66
42.750,-57.67
42.765,-60.32
42.781,-64.55
42.796,-68.71
42.812,-71.98
42.828,-74.19
42.843,-75.0
42.859,-73.28
42.875,-67.1
42.890,-54.54
42.906,-34.91
42.921,-9.4
42.937,19.05
42.953,46.88
42.968,71.37
42.984,91.47
43.000,107.76
43.015,121.59
43.031,133.67
43.046,143.41
43.062,149.09
43.078,148.87
43.093,142.07
43.109,129.92
43.125,115.36
43.140,102.03
43.156,93.2
43.171,90.59
43.187,94.07
43.203,101.94
43.218,111.74
43.234,121.34
43.250,129.66
43.265,136.82
43.281,143.77
43.296,151.48
43.312,160.31
43.328,169.62
43.343,178.09
43.359,184.12
43.375,186.39
43.390,184.13
43.406,177.24
43.421,166.24
43.437,152.2
43.453,136.81
43.468,122.12
43.484,110.46
43.500,103.82
43.515,103.5
43.531,109.78
43.546,121.93
43.562,138.43
43.578,157.35
43.593,176.64
43.609,194.35
43.625,208.83
43.640,218.9
43.656,224.15
43.671,225.03
43.687,222.76
43.703,218.96
43.718,214.79
43.734,210.46
43.750,204.91
43.765,196.22
43.781,182.35
43.796,161.96
43.812,134.91
43.828,102.18
43.843,65.48
43.859,26.58
43.875,-13.14
43.890,-52.94
43.906,-92.66
43.921,-132.81
43.937,-174.4
43.953,-218.74
43.968,-266.77
43.984,-318.34
44.000,-371.37
44.015,-421.64
44.031,-463.43
44.046,-490.81
44.062,-499.36
44.078,-487.59
44.093,-457.29
44.109,-412.99
44.125,-360.5
44.140,-305.27
44.156,-251.33
44.171,-200.99
44.187,-155.27
44.203,-114.54
44.218,-79.06
44.234,-49.09
44.250,-24.65
44.265,-5.27
44.281,10.26
44.296,23.78
44.312,37.56
44.328,53.73
44.343,73.76
44.359,97.71
44.375,123.76
44.390,148.34
44.406,167.1
44.421,176.3
44.437,174.22
44.453,161.59
44.468,141.22
44.484,116.72
44.500,91.47
44.515,67.91
44.531,47.64
44.546,31.8
44.562,21.2
44.578,16.22
44.593,16.41
44.609,20.54
44.625,26.96
44.640,34.4
44.656,42.44
44.671,51.59
44.687,62.76
44.703,76.62
44.718,93.19
44.734,111.84
44.750,131.58
44.765,151.43
44.781,170.64
44.796,188.59
44.812,204.64
44.828,218.02
44.843,227.79
44.859,233.0
44.875,232.99
44.890,227.65
44.906,217.73
44.921,204.82
44.937,191.2
44.953,179.24
44.968,170.75
44.984,166.36
45.000,165.19
45.015,165.15
45.031,163.58
45.046,158.11
45.062,147.33
45.078,130.96
45.093,109.48
45.109,83.71
45.125,54.44
45.140,22.41
45.156,-11.51
45.171,-46.16
45.187,-80.23
45.203,-112.86
45.218,-144.14
45.234,-175.23
45.250,-207.53
45.265,-241.25
45.281,-274.21
45.296,-301.63
45.312,-317.57
45.328,-317.31
45.343,-299.7
45.359,-267.9
45.375,-228.45
45.390,-188.78
45.406,-154.69
45.421,-128.87
45.437,-111.02
45.453,-99.21
45.468,-91.33
45.484,-86.09
45.500,-82.97
45.515,-81.73
45.531,-81.86
45.546,-82.33
45.562,-81.83
45.578,-78.99
45.593,-72.78
45.609,-62.69
45.625,-48.83
45.640,-31.81
45.656,-12.57
45.671,7.89
45.687,28.63
45.703,48.78
45.718,67.28
45.734,82.61
45.750,92.69
45.765,95.21
45.781,88.47
45.796,72.36
45.812,49.1
45.828,23.21
45.843,0.26
45.859,-15.01
45.875,-20.84
45.890,-19.39
45.906,-15.98
45.921,-16.65
45.937,-25.1
45.953,-40.62
45.968,-57.99
45.984,-69.65
46.000,-69.23
46.015,-54.41
46.031,-27.92
46.046,3.84
46.062,33.78
46.078,57.07
46.093,72.36
46.109,81.19
46.125,85.9
46.140,87.75
46.156,86.22
46.171,79.94
46.187,68.28
46.203,52.53
46.218,35.89
46.234,22.1
46.250,13.68
46.265,10.82
46.281,11.63
46.296,13.35
46.312,13.87
46.328,12.72
46.343,10.85
46.359,9.76
46.375,10.36
46.390,12.41
46.406,14.68
46.421,15.75
46.437,14.94
46.453,12.82
46.468,10.97
46.484,11.37
46.500,15.38
46.515,23.24
46.531,34.13
46.546,46.53
46.562,58.79
46.578,69.54
46.593,77.74
46.609,82.5
46.625,83.13
46.640,79.31
46.656,71.42
46.671,60.83
46.687,49.69
46.703,40.39
46.718,34.77
46.734,33.46
46.750,35.71
46.765,39.7
46.781,43.47
46.796,45.71
46.812,46.38
46.828,46.56
46.843,47.78
46.859,51.14
46.875,56.68
46.890,63.34
46.906,69.45
46.921,73.41
46.937,74.28
46.953,72.0
46.968,67.32
46.984,61.45
47.000,55.64
47.015,50.81
47.031,47.31
47.046,44.76
47.062,42.07
47.078,37.6
47.093,29.65
47.109,17.0
47.125,-0.49
47.140,-21.4
47.156,-42.87
47.171,-61.16
47.187,-72.79
47.203,-75.71
47.218,-69.91
47.234,-57.52
47.250,-42.01
47.265,-27.0
47.281,-15.25
47.296,-8.11
47.312,-5.58
47.328,-6.86
47.343,-10.95
47.359,-17.09
47.375,-25.16
47.390,-35.54
47.406,-48.88
47.421,-65.54
47.437,-85.2
47.453,-106.73
47.468,-128.57
47.484,-149.34
47.500,-168.32
47.515,-185.32
47.531,-199.9
47.546,-210.68
47.562,-215.06
47.578,-210.07
47.593,-193.89
47.609,-167.17
47.625,-133.44
47.640,-97.94
47.656,-65.73
47.671,-39.75
47.687,-20.05
47.703,-4.53
47.718,9.36
47.734,22.85
47.750,35.0
47.765,43.37
47.781,45.49
47.796,40.48
47.812,29.69
47.828,16.14
47.843,3.0
47.859,-7.96
47.875,-17.11
47.890,-26.2
47.906,-37.03
47.921,-50.07
47.937,-64.09
47.953,-76.95
47.968,-87.01
47.984,-94.08
48.000,-99.4
48.015,-104.5
48.031,-109.75
48.046,-113.65
48.062,-113.27
48.078,-105.65
48.093,-89.24
48.109,-64.57
48.125,-33.83
48.140,0.31
48.156,35.8
48.171,71.63
48.187,107.37
48.203,142.15
48.218,174.08
48.234,200.2
48.250,217.4
48.265,223.49
48.281,217.91
48.296,201.76
48.312,177.37
48.328,147.6
48.343,115.36
48.359,83.57
48.375,54.97
48.390,32.0
48.406,16.31
48.421,8.21
48.437,6.58
48.453,9.13
48.468,13.16
48.484,16.33
48.500,17.18
48.515,15.24
48.531,10.79
48.546,4.74
48.562,-1.61
48.578,-6.84
48.593,-9.71
48.609,-9.59
48.625,-6.91
48.640,-3.06
48.656,-0.04
48.671,0.37
48.687,-2.52
48.703,-7.8
48.718,-13.0
48.734,-14.87
48.750,-10.52
48.765,1.41
48.781,20.11
48.796,42.55
48.812,64.25
48.828,80.55
48.843,87.83
48.859,84.62
48.875,71.88
48.890,52.94
48.906,32.68
48.921,16.45
48.937,8.86
48.953,12.67
48.968,28.09
48.984,52.76
49.000,82.34
49.015,111.66
49.031,136.07
49.046,152.49
49.062,159.85
49.078,158.83
49.093,151.26
49.109,139.24
49.125,124.58
49.140,108.46
49.156,91.45
49.171,73.65
49.187,54.81
49.203,34.58
49.218,12.62
49.234,-11.12
49.250,-36.29
49.265,-62.02
49.281,-86.96
49.296,-109.5
49.312,-128.02
49.328,-141.21
49.343,-148.43
49.359,-149.8
49.375,-146.34
49.390,-139.68
49.406,-131.56
49.421,-123.26
49.437,-115.23
49.453,-107.18
49.468,-98.52
49.484,-88.93
49.500,-78.72
49.515,-68.84
49.531,-60.35
49.546,-53.87
49.562,-49.26
49.578,-45.64
49.593,-41.92
49.609,-37.31
49.625,-31.69
49.640,-25.52
49.656,-19.5
49.671,-14.08
49.687,-9.26
49.703,-4.65
49.718,0.12
49.734,5.1
49.750,9.88
49.765,13.93
49.781,17.09
49.796,19.88
49.812,23.53
49.828,29.52
49.843,38.8
49.859,51.22
49.875,65.4
49.890,79.22
49.906,90.56
49.921,98.23
49.937,102.12
49.953,102.98
49.968,101.74
49.984,98.81
50.000,93.86
50.015,86.23
50.031,75.59
50.046,62.5
50.062,48.54
50.078,35.69
50.093,25.49
50.109,18.3
50.125,13.07
50.140,7.94
50.156,1.1
50.171,-8.33
50.187,-19.97
50.203,-32.52
50.218,-44.57
50.234,-55.4
50.250,-65.52
50.265,-76.34
50.281,-89.31
50.296,-104.98
50.312,-122.51
50.328,-139.81
50.343,-154.41
50.359,-164.59
50.375,-169.97
50.390,-171.4
50.406,-170.16
50.421,-167.15
50.437,-162.29
50.453,-154.96
50.468,-144.73
50.484,-132.06
50.500,-118.64
50.515,-106.6
50.531,-97.51
50.546,-91.46
50.562,-86.89
50.578,-81.32
50.593,-72.62
50.609,-60.07
50.625,-44.82
50.640,-29.18
50.656,-15.43
50.671,-4.68
50.687,3.53
50.703,10.65
50.718,18.03
50.734,25.98
50.750,33.4
50.765,38.48
50.781,39.68
50.796,36.71
50.812,30.67
50.828,23.54
50.843,17.18
50.859,12.63
50.875,9.73
50.890,7.67
50.906,5.6
50.921,3.26
50.937,1.15
50.953,0.07
50.968,0.49
50.984,2.08
51.000,3.56
51.015,3.37
51.031,0.45
51.046,-5.1
51.062,-11.79
51.078,-17.49
51.093,-20.3
51.109,-19.56
51.125,-16.14
51.140,-11.92
51.156,-8.69
51.171,-7.18
51.187,-6.51
51.203,-4.73
51.218,0.06
51.234,8.64
51.250,20.02
51.265,32.01
51.281,42.29
51.296,49.63
51.312,54.35
51.328,57.93
51.343,61.9
51.359,66.77
51.375,71.58
51.390,74.64
51.406,74.67
51.421,71.94
51.437,68.61
51.453,67.82
51.468,72.35
51.484,83.25
51.500,99.22
51.515,117.38
51.531,134.64
51.546,148.99
51.562,160.22
51.578,169.24
51.593,176.86
51.609,182.84
51.625,185.81
51.640,184.4
51.656,178.7
51.671,170.94
51.687,164.76
51.703,163.37
51.718,167.65
51.734,175.46
51.750,182.44
51.765,184.27
51.781,178.62
51.796,166.04
51.812,149.18
51.828,131.0
51.843,113.16
51.859,95.36
51.875,75.86
51.890,52.66
51.906,24.58
51.921,-8.24
51.937,-44.27
51.953,-80.94
51.968,-115.11
51.984,-143.68
52.000,-164.41
52.015,-176.66
52.031,-181.6
52.046,-181.79
52.062,-180.11
52.078,-178.53
52.093,-177.43
52.109,-175.81
52.125,-172.2
52.140,-165.54
52.156,-155.65
52.171,-142.87
52.187,-127.48
52.203,-109.45
52.218,-88.92
52.234,-66.74
52.250,-45.12
52.265,-27.06
52.281,-15.2
52.296,-10.69
52.312,-12.41
52.328,-17.67
52.343,-23.52
52.359,-28.16
52.375,-31.58
52.390,-35.12
52.406,-40.28
52.421,-47.63
52.437,-56.41
52.453,-65.03
52.468,-72.08
52.484,-77.17
52.500,-81.12
52.515,-85.16
52.531,-90.09
52.546,-95.46
52.562,-99.62
52.578,-100.54
52.593,-96.95
52.609,-89.02
52.625,-78.52
52.640,-67.94
52.656,-59.48
52.671,-54.11
52.687,-51.45
52.703,-50.34
52.718,-49.84
52.734,-49.82
52.750,-51.11
52.765,-54.77
52.781,-61.18
52.796,-69.51
52.812,-77.72
52.828,-83.36
52.843,-84.64
52.859,-81.15
52.875,-74.01
52.890,-65.1
52.906,-56.12
52.921,-47.77
52.937,-39.65
52.953,-30.89
52.968,-21.1
52.984,-11.07
53.000,-2.87
53.015,1.12
53.031,-0.41
53.046,-6.8
53.062,-15.32
53.078,-22.21
53.093,-24.44
53.109,-20.99
53.125,-13.35
53.140,-4.61
53.156,2.1
53.171,4.99
53.187,4.2
53.203,1.15
53.218,-2.61
53.234,-6.53
53.250,-11.4
53.265,-18.62
53.281,-29.11
53.296,-42.49
53.312,-56.97
53.328,-70.13
53.343,-80.09
53.359,-86.2
53.375,-89.2
53.390,-90.41
53.406,-90.64
53.421,-89.63
53.437,-86.1
53.453,-78.49
53.468,-66.04
53.484,-49.26
53.500,-29.92
53.515,-10.28
53.531,7.68
53.546,22.78
53.562,34.59
53.578,43.08
53.593,48.29
53.609,50.27
53.625,49.33
53.640,46.43
53.656,43.25
53.671,41.69
53.687,43.35
53.703,48.73
53.718,57.05
53.734,66.56
53.750,75.14
53.765,81.11
53.781,83.79
53.796,83.45
53.812,81.01
53.828,77.42
53.843,73.16
53.859,68.21
53.875,62.26
53.890,55.0
53.906,46.44
53.921,36.9
53.937,26.84
53.953,16.51
53.968,5.78
53.984,-5.85
54.000,-19.09
54.015,-34.47
54.031,-51.97
54.046,-70.86
54.062,-89.64
54.078,-106.44
54.093,-119.6
54.109,-128.25
54.125,-132.75
54.140,-134.48
54.156,-135.35
54.171,-136.86
54.187,-139.52
54.203,-142.43
54.218,-144.01
54.234,-142.64
54.250,-137.54
54.265,-128.69
54.281,-116.66
54.296,-102.25
54.312,-86.19
54.328,-68.97
54.343,-50.96
54.359,-32.69
54.375,-15.08
54.390,0.63
54.406,13.42
54.421,22.83
54.437,29.02
54.453,32.62
54.468,34.47
54.484,35.66
54.500,36.9
54.515,38.39
54.531,39.77
54.546,41.32
54.562,43.89
54.578,48.66
54.593,56.28
54.609,66.46
54.625,78.53
54.640,90.88
54.656,101.3
54.671,107.16
54.687,108.17
54.703,105.67
54.718,101.61
54.734,97.1
54.750,92.19
54.765,88.07
54.781,85.69
54.796,85.48
54.812,85.67
54.828,86.68
54.843,89.44
54.859,94.71
54.875,101.68
54.890,108.79
54.906,117.24
54.921,127.93
54.937,140.28
54.953,149.53
54.968,154.7
54.984,157.4
55.000,161.53
55.015,170.77
55.031,188.13
55.046,218.57
55.062,263.63
55.078,319.63
55.093,375.12
55.109,422.6
55.125,458.38
55.140,483.1
55.156,498.82
55.171,485.23
55.187,433.17
55.203,349.44
55.218,277.15
55.234,226.35
55.250,194.85
55.265,168.11
55.281,136.82
55.296,93.48
55.312,34.44
55.328,-34.89
55.343,-104.97
55.359,-165.98
55.375,-215.22
55.390,-249.85
55.406,-270.01
55.421,-278.14
55.437,-279.45
55.453,-279.08
55.468,-277.76
55.484,-275.37
55.500,-272.67
55.515,-274.66
55.531,-282.43
55.546,-294.28
55.562,-306.1
55.578,-314.36
55.593,-316.99
55.609,-312.45
55.625,-302.03
55.640,-289.22
55.656,-279.47
55.671,-273.57
55.687,-268.33
55.703,-258.44
55.718,-240.28
55.734,-213.51
55.750,-180.23
55.765,-144.47
55.781,-110.23
55.796,-80.81
55.812,-56.26
55.828,-35.12
55.843,-15.74
55.859,2.53
55.875,19.68
55.890,36.12
55.906,52.45
55.921,68.91
55.937,84.01
55.953,95.04
55.968,98.26
55.984,90.3
56.000,69.81
56.015,38.54
56.031,1.37
56.046,-35.19
56.062,-64.73
56.078,-82.56
56.093,-86.5
56.109,-76.54
56.125,-54.33
56.140,-22.48
56.156,15.66
56.171,56.05
56.187,94.16
56.203,125.63
56.218,147.13
56.234,157.28
56.250,156.94
56.265,148.76
56.281,136.11
56.296,122.05
56.312,108.77
56.328,97.63
56.343,89.41
56.359,84.53
56.375,82.94
56.390,84.04
56.406,86.61
56.421,89.11
56.437,89.97
56.453,88.09
56.468,82.96
56.484,74.55
56.500,63.1
56.515,49.02
56.531,33.05
56.546,16.52
56.562,1.4
56.578,-10.02
56.593,-15.85
56.609,-15.35
56.625,-9.22
56.640,0.61
56.656,11.82
56.671,22.65
56.687,32.36
56.703,41.16
56.718,49.7
56.734,58.26
56.750,66.37
56.765,72.88
56.781,76.53
56.796,76.67
56.812,73.66
56.828,68.74
56.843,63.44
56.859,58.83
56.875,55.05
56.890,51.38
56.906,46.79
56.921,40.68
56.937,33.24
56.953,25.34
56.968,18.06
56.984,12.04
57.000,7.2
57.015,2.87
57.031,-1.81
57.046,-7.38
57.062,-13.78
57.078,-20.37
57.093,-26.29
57.109,-30.78
57.125,-33.36
57.140,-34.0
57.156,-32.84
57.171,-30.12
57.187,-25.93
57.203,-20.28
57.218,-13.19
57.234,-4.85
57.250,4.24
57.265,13.29
57.281,21.43
57.296,28.0
57.312,32.65
57.328,35.36
57.343,36.26
57.359,35.48
57.375,33.07
57.390,28.99
57.406,23.21
57.421,15.81
57.437,7.25
57.453,-1.56
57.468,-9.28
57.484,-14.4
57.500,-15.86
57.515,-13.6
57.531,-8.78
57.546,-3.51
57.562,-0.05
57.578,0.15
57.593,-3.18
57.609,-9.21
57.625,-16.84
57.640,-25.47
57.656,-35.19
57.671,-46.47
57.687,-59.44
57.703,-73.39
57.718,-86.84
57.734,-98.17
57.750,-106.33
57.765,-111.26
57.781,-113.53
57.796,-113.71
57.812,-111.78
57.828,-106.93
57.843,-98.09
57.859,-84.67
57.875,-67.17
57.890,-47.37
57.906,-27.81
57.921,-11.07
57.937,0.97
57.953,7.52
57.968,8.88
57.984,6.17
58.000,0.92
58.015,-5.35
58.031,-11.36
58.046,-16.2
58.062,-19.48
58.078,-21.22
58.093,-21.77
58.109,-21.57
58.125,-21.11
58.140,-20.84
58.156,-21.03
58.171,-21.78
58.187,-22.87
58.203,-23.88
58.218,-24.44
58.234,-24.58
58.250,-25.03
58.265,-27.04
58.281,-31.85
58.296,-39.78
58.312,-49.66
58.328,-58.81
58.343,-63.9
58.359,-62.21
58.375,-52.73
58.390,-36.69
58.406,-16.96
58.421,3.14
58.437,21.11
58.453,35.84
58.468,47.41
58.484,56.25
58.500,62.28
58.515,64.67
58.531,62.32
58.546,54.66
58.562,42.32
58.578,27.04
58.593,10.92
58.609,-4.58
58.625,-19.23
58.640,-34.04
58.656,-50.39
58.671,-69.01
58.687,-89.35
58.703,-109.62
58.718,-127.44
58.734,-140.79
58.750,-148.65
58.765,-151.2
58.781,-149.46
58.796,-144.71
58.812,-138.1
58.828,-130.48
58.843,-122.55
58.859,-115.1
58.875,-109.05
58.890,-105.24
58.906,-103.88
58.921,-104.2
58.937,-104.4
58.953,-102.16
58.968,-95.47
58.984,-83.42
59.000,-66.63
59.015,-47.01
59.031,-26.88
59.046,-8.06
59.062,8.7
59.078,23.72
59.093,37.76
59.109,51.25
59.125,63.82
59.140,74.28
59.156,81.4
59.171,84.68
59.187,84.96
59.203,84.19
59.218,84.67
59.234,87.9
59.250,93.82
59.265,100.76
59.281,106.26
59.296,108.21
59.312,105.83
59.328,100.0
59.343,92.54
59.359,85.23
59.375,78.87
59.390,73.01
59.406,66.51
59.421,58.49
59.437,49.03
59.453,39.42
59.468,31.39
59.484,26.32
59.500,24.53
59.515,25.17
59.531,26.98
59.546,29.07
59.562,31.64
59.578,35.88
59.593,43.37
59.609,55.09
59.625,70.7
59.640,88.31
59.656,105.06
59.671,118.04
59.687,125.32
59.703,126.41
59.718,122.1
59.734,113.79
59.750,102.89
59.765,90.45
59.781,77.49
59.796,65.2
59.812,55.05
59.828,48.42
59.843,45.88
59.859,46.77
59.875,49.37
59.890,51.67
59.906,52.44
59.921,51.8
59.937,51.01
59.953,51.66
59.968,54.73
59.984,60.03
