timestamp,value
00.000,-71.43
00.015,-78.98
00.031,-85.33
00.046,-90.85
00.062,-96.08
00.078,-101.54
00.093,-107.38
00.109,-113.25
00.125,-118.3
00.140,-121.4
00.156,-121.49
00.171,-117.93
00.187,-110.65
00.203,-100.08
00.218,-87.01
00.234,-72.39
00.250,-57.17
00.265,-42.23
00.281,-28.26
00.296,-15.74
00.312,-4.86
00.328,4.42
00.343,12.28
00.359,18.88
00.375,24.32
00.390,28.54
00.406,31.5
00.421,33.25
00.437,33.98
00.453,34.0
00.468,33.59
00.484,32.97
00.500,32.15
00.515,31.09
00.531,29.78
00.546,28.26
00.562,26.62
00.578,24.95
00.593,23.22
00.609,21.32
00.625,19.03
00.640,16.19
00.656,12.67
00.671,8.46
00.687,3.62
00.703,-1.72
00.718,-7.39
00.734,-13.18
00.750,-18.87
00.765,-24.33
00.781,-29.56
00.796,-34.77
00.812,-40.32
00.828,-46.55
00.843,-53.63
00.859,-61.36
00.875,-69.14
00.890,-76.05
00.906,-81.05
00.921,-83.23
00.937,-82.03
00.953,-77.37
00.968,-69.66
00.984,-59.67
01.000,-48.37
01.015,-36.65
01.031,-25.2
01.046,-14.35
01.062,-4.22
01.078,5.21
01.093,13.9
01.109,21.69
01.125,28.34
01.140,33.62
01.156,37.46
01.171,39.95
01.187,41.35
01.203,41.95
01.218,42.06
01.234,41.86
01.250,41.5
01.265,41.04
01.281,40.47
01.296,39.72
01.312,38.67
01.328,37.18
01.343,35.17
01.359,32.62
01.375,29.62
01.390,26.26
01.406,22.57
01.421,18.51
01.437,14.04
01.453,9.13
01.468,3.9
01.484,-1.43
01.500,-6.58
01.515,-11.38
01.531,-15.87
01.546,-20.33
01.562,-25.24
01.578,-31.07
01.593,-38.16
01.609,-46.42
01.625,-55.33
01.640,-63.89
01.656,-70.9
01.671,-75.16
01.687,-75.88
01.703,-72.82
01.718,-66.37
01.734,-57.3
01.750,-46.48
01.765,-34.63
01.781,-22.1
01.796,-8.91
01.812,5.1
01.828,20.07
01.843,35.93
01.859,52.2
01.875,68.0
01.890,82.14
01.906,93.34
01.921,100.65
01.937,103.78
01.953,103.17
01.968,99.85
01.984,95.08
02.000,89.89
02.015,84.83
02.031,79.95
02.046,74.94
02.062,69.4
02.078,63.04
02.093,55.71
02.109,47.43
02.125,38.35
02.140,28.71
02.156,18.84
02.171,9.07
02.187,-0.29
02.203,-9.04
02.218,-17.13
02.234,-24.64
02.250,-31.71
02.265,-38.49
02.281,-45.04
02.296,-51.33
02.312,-57.23
02.328,-62.6
02.343,-67.3
02.359,-71.18
02.375,-74.08
02.390,-75.77
02.406,-75.96
02.421,-74.37
02.437,-70.73
02.453,-64.95
02.468,-57.11
02.484,-47.52
02.500,-36.69
02.515,-25.26
02.531,-13.87
02.546,-3.12
02.562,6.6
02.578,15.11
02.593,22.46
02.609,28.81
02.625,34.34
02.640,39.17
02.656,43.32
02.671,46.78
02.687,49.57
02.703,51.76
02.718,53.42
02.734,54.58
02.750,55.24
02.765,55.39
02.781,55.04
02.796,54.24
02.812,52.91
02.828,50.81
02.843,47.51
02.859,42.52
02.875,35.53
02.890,26.52
02.906,15.89
02.921,4.37
02.937,-7.16
02.953,-17.87
02.968,-27.12
02.984,-34.58
03.000,-40.25
03.015,-44.48
03.031,-47.85
03.046,-51.06
03.062,-54.7
03.078,-59.07
03.093,-64.06
03.109,-69.22
03.125,-73.86
03.140,-77.27
03.156,-78.9
03.171,-78.35
03.187,-75.5
03.203,-70.37
03.218,-63.14
03.234,-54.14
03.250,-43.84
03.265,-32.79
03.281,-21.57
03.296,-10.67
03.312,-0.37
03.328,9.21
03.343,18.08
03.359,26.3
03.375,33.83
03.390,40.6
03.406,46.46
03.421,51.27
03.437,54.97
03.453,57.58
03.468,59.13
03.484,59.63
03.500,59.13
03.515,57.73
03.531,55.62
03.546,53.05
03.562,50.32
03.578,47.64
03.593,45.11
03.609,42.69
03.625,40.24
03.640,37.58
03.656,34.51
03.671,30.89
03.687,26.61
03.703,21.68
03.718,16.19
03.734,10.35
03.750,4.39
03.765,-1.46
03.781,-7.08
03.796,-12.54
03.812,-17.98
03.828,-23.62
03.843,-29.56
03.859,-35.7
03.875,-41.71
03.890,-47.0
03.906,-50.91
03.921,-52.79
03.937,-52.22
03.953,-49.06
03.968,-43.51
03.984,-36.1
04.000,-27.58
04.015,-18.63
04.031,-9.81
04.046,-1.36
04.062,6.7
04.078,14.45
04.093,21.89
04.109,28.79
04.125,34.79
04.140,39.45
04.156,42.5
04.171,43.9
04.187,43.88
04.203,42.85
04.218,41.28
04.234,39.58
04.250,38.08
04.265,36.94
04.281,36.19
04.296,35.68
04.312,35.12
04.328,34.22
04.343,32.75
04.359,30.66
04.375,28.08
04.390,25.19
04.406,22.16
04.421,19.02
04.437,15.74
04.453,12.25
04.468,8.55
04.484,4.76
04.500,1.04
04.515,-2.51
04.531,-5.91
04.546,-9.27
04.562,-12.79
04.578,-16.56
04.593,-20.59
04.609,-24.84
04.625,-29.21
04.640,-33.59
04.656,-37.8
04.671,-41.56
04.687,-44.46
04.703,-46.06
04.718,-45.96
04.734,-43.97
04.750,-40.11
04.765,-34.68
04.781,-28.14
04.796,-21.01
04.812,-13.73
04.828,-6.54
04.843,0.42
04.859,7.13
04.875,13.42
04.890,19.05
04.906,23.66
04.921,27.0
04.937,29.02
04.953,29.95
04.968,30.2
04.984,30.16
05.000,30.05
05.015,29.9
05.031,29.68
05.046,29.36
05.062,29.02
05.078,28.76
05.093,28.58
05.109,28.34
05.125,27.76
05.140,26.59
05.156,24.7
05.171,22.16
05.187,19.11
05.203,15.77
05.218,12.28
05.234,8.71
05.250,5.05
05.265,1.35
05.281,-2.35
05.296,-5.96
05.312,-9.42
05.328,-12.74
05.343,-16.05
05.359,-19.59
05.375,-23.59
05.390,-28.25
05.406,-33.54
05.421,-39.13
05.437,-44.4
05.453,-48.56
05.468,-50.88
05.484,-50.88
05.500,-48.48
05.515,-44.0
05.531,-38.03
05.546,-31.2
05.562,-24.02
05.578,-16.81
05.593,-9.7
05.609,-2.76
05.625,3.83
05.640,9.79
05.656,14.79
05.671,18.54
05.687,20.94
05.703,22.11
05.718,22.34
05.734,21.97
05.750,21.28
05.765,20.47
05.781,19.61
05.796,18.74
05.812,17.88
05.828,17.07
05.843,16.3
05.859,15.61
05.875,14.94
05.890,14.25
05.906,13.44
05.921,12.4
05.937,10.99
05.953,9.11
05.968,6.74
05.984,4.01
06.000,1.09
06.015,-1.82
06.031,-4.59
06.046,-7.2
06.062,-9.75
06.078,-12.4
06.093,-15.33
06.109,-18.68
06.125,-22.51
06.140,-26.79
06.156,-31.36
06.171,-35.9
06.187,-39.93
06.203,-42.87
06.218,-44.11
06.234,-43.23
06.250,-40.14
06.265,-35.1
06.281,-28.71
06.296,-21.69
06.312,-14.73
06.328,-8.27
06.343,-2.51
06.359,2.56
06.375,7.0
06.390,10.84
06.406,14.03
06.421,16.47
06.437,18.19
06.453,19.3
06.468,20.05
06.484,20.67
06.500,21.29
06.515,21.92
06.531,22.45
06.546,22.75
06.562,22.69
06.578,22.23
06.593,21.41
06.609,20.3
06.625,18.99
06.640,17.57
06.656,16.05
06.671,14.43
06.687,12.63
06.703,10.56
06.718,8.16
06.734,5.41
06.750,2.4
06.765,-0.73
06.781,-3.83
06.796,-6.82
06.812,-9.68
06.828,-12.42
06.843,-15.1
06.859,-17.81
06.875,-20.75
06.890,-24.18
06.906,-28.4
06.921,-33.47
06.937,-39.16
06.953,-44.76
06.968,-49.38
06.984,-52.08
07.000,-52.27
07.015,-49.84
07.031,-45.12
07.046,-38.7
07.062,-31.2
07.078,-23.15
07.093,-14.96
07.109,-6.94
07.125,0.64
07.140,7.56
07.156,13.68
07.171,18.91
07.187,23.22
07.203,26.6
07.218,29.03
07.234,30.47
07.250,30.96
07.265,30.57
07.281,29.48
07.296,27.93
07.312,26.17
07.328,24.41
07.343,22.8
07.359,21.4
07.375,20.23
07.390,19.27
07.406,18.49
07.421,17.78
07.437,16.98
07.453,15.84
07.468,14.13
07.484,11.7
07.500,8.61
07.515,5.04
07.531,1.33
07.546,-2.23
07.562,-5.45
07.578,-8.33
07.593,-11.02
07.609,-13.78
07.625,-16.91
07.640,-20.65
07.656,-25.1
07.671,-30.22
07.687,-35.7
07.703,-41.02
07.718,-45.5
07.734,-48.43
07.750,-49.29
07.765,-47.88
07.781,-44.3
07.796,-38.97
07.812,-32.44
07.828,-25.27
07.843,-17.9
07.859,-10.68
07.875,-3.79
07.890,2.59
07.906,8.29
07.921,13.12
07.937,16.89
07.953,19.52
07.968,21.08
07.984,21.78
08.000,21.99
08.015,22.07
08.031,22.23
08.046,22.56
08.062,22.93
08.078,23.19
08.093,23.24
08.109,23.13
08.125,22.94
08.140,22.76
08.156,22.55
08.171,22.13
08.187,21.24
08.203,19.67
08.218,17.37
08.234,14.44
08.250,11.1
08.265,7.59
08.281,4.07
08.296,0.62
08.312,-2.75
08.328,-6.1
08.343,-9.49
08.359,-13.0
08.375,-16.75
08.390,-20.88
08.406,-25.47
08.421,-30.49
08.437,-35.66
08.453,-40.52
08.468,-44.43
08.484,-46.76
08.500,-47.02
08.515,-45.03
08.531,-40.91
08.546,-35.08
08.562,-28.09
08.578,-20.48
08.593,-12.72
08.609,-5.12
08.625,2.06
08.640,8.6
08.656,14.26
08.671,18.85
08.687,22.24
08.703,24.46
08.718,25.67
08.734,26.1
08.750,26.0
08.765,25.62
08.781,25.11
08.796,24.59
08.812,24.14
08.828,23.76
08.843,23.41
08.859,22.97
08.875,22.35
08.890,21.44
08.906,20.19
08.921,18.6
08.937,16.71
08.953,14.57
08.968,12.21
08.984,9.67
09.000,7.02
09.015,4.3
09.031,1.52
09.046,-1.35
09.062,-4.39
09.078,-7.62
09.093,-11.03
09.109,-14.51
09.125,-17.95
09.140,-21.34
09.156,-24.82
09.171,-28.66
09.187,-33.04
09.203,-37.96
09.218,-42.99
09.234,-47.35
09.250,-50.15
09.265,-50.62
09.281,-48.42
09.296,-43.69
09.312,-36.97
09.328,-28.98
09.343,-20.43
09.359,-11.88
09.375,-3.71
09.390,3.77
09.406,10.39
09.421,16.08
09.437,20.87
09.453,24.88
09.468,28.24
09.484,30.94
09.500,32.93
09.515,34.1
09.531,34.46
09.546,34.13
09.562,33.42
09.578,32.64
09.593,32.01
09.609,31.55
09.625,31.14
09.640,30.55
09.656,29.56
09.671,28.04
09.687,26.04
09.703,23.69
09.718,21.19
09.734,18.68
09.750,16.2
09.765,13.74
09.781,11.21
09.796,8.53
09.812,5.72
09.828,2.77
09.843,-0.27
09.859,-3.4
09.875,-6.61
09.890,-9.93
09.906,-13.39
09.921,-16.98
09.937,-20.77
09.953,-24.82
09.968,-29.25
09.984,-34.05
10.000,-39.07
10.015,-43.89
10.031,-47.94
10.046,-50.54
10.062,-51.13
10.078,-49.39
10.093,-45.34
10.109,-39.36
10.125,-32.06
10.140,-24.11
10.156,-16.07
10.171,-8.32
10.187,-1.05
10.203,5.62
10.218,11.58
10.234,16.66
10.250,20.67
10.265,23.49
10.281,25.18
10.296,25.95
10.312,26.16
10.328,26.15
10.343,26.16
10.359,26.29
10.375,26.54
10.390,26.82
10.406,27.06
10.421,27.17
10.437,27.07
10.453,26.66
10.468,25.83
10.484,24.51
10.500,22.71
10.515,20.53
10.531,18.11
10.546,15.6
10.562,13.09
10.578,10.61
10.593,8.12
10.609,5.56
10.625,2.87
10.640,0.04
10.656,-2.89
10.671,-5.87
10.687,-8.8
10.703,-11.66
10.718,-14.48
10.734,-17.39
10.750,-20.51
10.765,-24.03
10.781,-28.02
10.796,-32.41
10.812,-36.92
10.828,-41.04
10.843,-44.05
10.859,-45.23
10.875,-44.02
10.890,-40.27
10.906,-34.29
10.921,-26.8
10.937,-18.65
10.953,-10.64
10.968,-3.2
10.984,3.52
11.000,9.58
11.015,15.02
11.031,19.75
11.046,23.56
11.062,26.29
11.078,27.93
11.093,28.69
11.109,28.96
11.125,29.06
11.140,29.21
11.156,29.43
11.171,29.62
11.187,29.68
11.203,29.57
11.218,29.33
11.234,29.03
11.250,28.69
11.265,28.31
11.281,27.84
11.296,27.25
11.312,26.57
11.328,25.85
11.343,25.11
11.359,24.31
11.375,23.35
11.390,22.08
11.406,20.35
11.421,18.09
11.437,15.34
11.453,12.29
11.468,9.19
11.484,6.26
11.500,3.65
11.515,1.27
11.531,-1.11
11.546,-3.79
11.562,-7.11
11.578,-11.19
11.593,-15.99
11.609,-21.23
11.625,-26.38
11.640,-30.73
11.656,-33.47
11.671,-33.99
11.687,-32.0
11.703,-27.82
11.718,-22.2
11.734,-16.15
11.750,-10.48
11.765,-5.52
11.781,-1.14
11.796,3.09
11.812,7.44
11.828,11.82
11.843,15.81
11.859,18.79
11.875,20.31
11.890,20.21
11.906,18.72
11.921,16.34
11.937,13.64
11.953,11.16
11.968,9.29
11.984,8.24
12.000,8.05
12.015,8.54
12.031,9.34
12.046,10.03
12.062,10.15
12.078,9.36
12.093,7.49
12.109,4.57
12.125,0.77
12.140,-3.6
12.156,-8.3
12.171,-13.1
12.187,-17.9
12.203,-22.63
12.218,-27.19
12.234,-31.45
12.250,-35.31
12.265,-38.79
12.281,-42.01
12.296,-45.2
12.312,-48.49
12.328,-51.88
12.343,-55.2
12.359,-58.25
12.375,-60.95
12.390,-63.42
12.406,-65.8
12.421,-68.11
12.437,-69.96
12.453,-70.59
12.468,-69.17
12.484,-65.21
12.500,-58.82
12.515,-50.72
12.531,-41.95
12.546,-33.5
12.562,-25.91
12.578,-19.28
12.593,-13.38
12.609,-7.85
12.625,-2.38
12.640,3.28
12.656,9.3
12.671,15.76
12.687,22.55
12.703,29.36
12.718,35.73
12.734,41.27
12.750,45.97
12.765,50.24
12.781,54.74
12.796,60.0
12.812,66.08
12.828,72.42
12.843,78.1
12.859,82.24
12.875,84.5
12.890,85.14
12.906,84.9
12.921,84.53
12.937,84.45
12.953,84.64
12.968,84.75
12.984,84.45
13.000,83.61
13.015,82.28
13.031,80.51
13.046,78.2
13.062,75.1
13.078,71.11
13.093,66.46
13.109,61.76
13.125,57.71
13.140,54.72
13.156,52.56
13.171,50.46
13.187,47.52
13.203,43.28
13.218,38.09
13.234,33.01
13.250,29.4
13.265,28.3
13.281,30.04
13.296,34.19
13.312,39.9
13.328,46.27
13.343,52.76
13.359,59.23
13.375,65.82
13.390,72.67
13.406,79.68
13.421,86.4
13.437,92.18
13.453,96.28
13.468,98.21
13.484,97.78
13.500,95.17
13.515,90.73
13.531,84.88
13.546,77.98
13.562,70.34
13.578,62.32
13.593,54.33
13.609,46.8
13.625,40.06
13.640,34.05
13.656,28.2
13.671,21.49
13.687,12.62
13.703,0.43
13.718,-15.7
13.734,-35.67
13.750,-58.75
13.765,-83.83
13.781,-109.82
13.796,-135.73
13.812,-160.75
13.828,-184.04
13.843,-204.77
13.859,-222.25
13.875,-236.06
13.890,-246.11
13.906,-252.46
13.921,-255.05
13.937,-253.66
13.953,-247.93
13.968,-237.61
13.984,-222.78
14.000,-203.76
14.015,-180.92
14.031,-154.63
14.046,-125.37
14.062,-94.19
14.078,-62.98
14.093,-34.39
14.109,-11.2
14.125,4.68
14.140,12.89
14.156,14.74
14.171,12.64
14.187,9.18
14.203,6.26
14.218,4.77
14.234,4.8
14.250,6.01
14.265,8.05
14.281,10.72
14.296,13.91
14.312,17.39
14.328,20.77
14.343,23.59
14.359,25.47
14.375,26.4
14.390,26.67
14.406,26.88
14.421,27.61
14.437,29.24
14.453,31.9
14.468,35.42
14.484,39.56
14.500,44.11
14.515,48.85
14.531,53.42
14.546,57.14
14.562,58.94
14.578,57.58
14.593,52.03
14.609,41.94
14.625,27.92
14.640,11.47
14.656,-5.4
14.671,-20.91
14.687,-33.97
14.703,-44.53
14.718,-53.28
14.734,-61.08
14.750,-68.3
14.765,-74.37
14.781,-77.93
14.796,-77.29
14.812,-71.12
14.828,-59.04
14.843,-41.73
14.859,-20.76
14.875,1.77
14.890,23.67
14.906,42.98
14.921,58.2
14.937,68.59
14.953,74.23
14.968,75.94
14.984,74.89
15.000,72.1
15.015,67.98
15.031,62.38
15.046,54.94
15.062,45.73
15.078,35.55
15.093,25.75
15.109,17.74
15.125,12.4
15.140,9.83
15.156,9.51
15.171,10.69
15.187,12.65
15.203,14.76
15.218,16.27
15.234,16.33
15.250,14.19
15.265,9.68
15.281,3.56
15.296,-2.52
15.312,-6.61
15.328,-7.34
15.343,-4.58
15.359,0.32
15.375,5.07
15.390,7.34
15.406,5.59
15.421,-0.51
15.437,-10.13
15.453,-21.83
15.468,-34.15
15.484,-45.98
15.500,-56.65
15.515,-65.71
15.531,-72.72
15.546,-77.07
15.562,-78.16
15.578,-75.65
15.593,-69.71
15.609,-61.06
15.625,-50.77
15.640,-39.92
15.656,-29.27
15.671,-19.17
15.687,-9.71
15.703,-0.94
15.718,6.91
15.734,13.42
15.750,18.09
15.765,20.64
15.781,21.25
15.796,20.54
15.812,19.47
15.828,18.93
15.843,19.48
15.859,21.15
15.875,23.58
15.890,26.34
15.906,29.22
15.921,32.42
15.937,36.42
15.953,41.61
15.968,47.96
15.984,54.86
16.000,61.36
16.015,66.49
16.031,69.57
16.046,70.35
16.062,68.98
16.078,65.79
16.093,61.19
16.109,55.71
16.125,49.93
16.140,44.46
16.156,39.72
16.171,35.75
16.187,32.14
16.203,28.23
16.218,23.32
16.234,17.01
16.250,9.26
16.265,0.28
16.281,-9.56
16.296,-19.86
16.312,-30.14
16.328,-39.82
16.343,-48.18
16.359,-54.57
16.375,-58.62
16.390,-60.49
16.406,-60.82
16.421,-60.54
16.437,-60.46
16.453,-61.03
16.468,-62.2
16.484,-63.55
16.500,-64.6
16.515,-65.08
16.531,-65.06
16.546,-64.91
16.562,-65.09
16.578,-65.89
16.593,-67.33
16.609,-69.21
16.625,-71.22
16.640,-73.08
16.656,-74.56
16.671,-75.46
16.687,-75.53
16.703,-74.46
16.718,-71.98
16.734,-68.11
16.750,-63.31
16.765,-58.41
16.781,-54.42
16.796,-52.14
16.812,-51.85
16.828,-53.3
16.843,-55.85
16.859,-58.75
16.875,-61.38
16.890,-63.43
16.906,-64.85
16.921,-65.82
16.937,-66.5
16.953,-67.01
16.968,-67.34
16.984,-67.49
17.000,-67.51
17.015,-67.62
17.031,-68.22
17.046,-69.74
17.062,-72.49
17.078,-76.42
17.093,-81.11
17.109,-85.78
17.125,-89.48
17.140,-91.17
17.156,-89.87
17.171,-84.75
17.187,-75.29
17.203,-61.55
17.218,-44.34
17.234,-25.26
17.250,-6.36
17.265,10.42
17.281,23.82
17.296,33.62
17.312,40.57
17.328,45.95
17.343,50.97
17.359,56.3
17.375,61.87
17.390,67.15
17.406,71.43
17.421,74.26
17.437,75.55
17.453,75.67
17.468,75.27
17.484,75.16
17.500,76.03
17.515,78.3
17.531,81.95
17.546,86.47
17.562,90.96
17.578,94.41
17.593,95.98
17.609,95.24
17.625,92.26
17.640,87.5
17.656,81.68
17.671,75.63
17.687,70.09
17.703,65.68
17.718,62.73
17.734,61.23
17.750,60.68
17.765,60.33
17.781,59.29
17.796,56.9
17.812,52.93
17.828,47.56
17.843,41.34
17.859,34.87
17.875,28.66
17.890,22.97
17.906,17.84
17.921,13.16
17.937,8.73
17.953,4.48
17.968,0.45
17.984,-3.12
18.000,-5.84
18.015,-7.26
18.031,-7.03
18.046,-4.92
18.062,-0.97
18.078,4.53
18.093,11.06
18.109,17.96
18.125,24.56
18.140,30.34
18.156,35.0
18.171,38.56
18.187,41.26
18.203,43.45
18.218,45.41
18.234,47.28
18.250,48.99
18.265,50.33
18.281,51.09
18.296,51.1
18.312,50.38
18.328,49.06
18.343,47.41
18.359,45.71
18.375,44.17
18.390,42.88
18.406,41.84
18.421,41.04
18.437,40.51
18.453,40.37
18.468,40.72
18.484,41.48
18.500,42.27
18.515,42.43
18.531,41.25
18.546,38.21
18.562,33.33
18.578,27.12
18.593,20.42
18.609,14.09
18.625,8.66
18.640,4.27
18.656,0.67
18.671,-2.48
18.687,-5.49
18.703,-8.46
18.718,-11.34
18.734,-14.09
18.750,-16.78
18.765,-19.59
18.781,-22.79
18.796,-26.61
18.812,-31.03
18.828,-35.84
18.843,-40.59
18.859,-44.75
18.875,-47.87
18.890,-49.59
18.906,-49.78
18.921,-48.43
18.937,-45.63
18.953,-41.6
18.968,-36.57
18.984,-30.82
19.000,-24.66
19.015,-18.36
19.031,-12.16
19.046,-6.26
19.062,-0.84
19.078,3.93
19.093,7.89
19.109,10.95
19.125,13.12
19.140,14.56
19.156,15.55
19.171,16.39
19.187,17.31
19.203,18.41
19.218,19.66
19.234,20.95
19.250,22.13
19.265,23.06
19.281,23.66
19.296,23.87
19.312,23.67
19.328,23.09
19.343,22.18
19.359,21.04
19.375,19.76
19.390,18.45
19.406,17.16
19.421,15.92
19.437,14.7
19.453,13.49
19.468,12.22
19.484,10.81
19.500,9.14
19.515,7.1
19.531,4.58
19.546,1.63
19.562,-1.61
19.578,-4.88
19.593,-7.91
19.609,-10.5
19.625,-12.65
19.640,-14.49
19.656,-16.31
19.671,-18.38
19.687,-20.94
19.703,-24.06
19.718,-27.65
19.734,-31.39
19.750,-34.75
19.765,-37.09
19.781,-37.81
19.796,-36.62
19.812,-33.55
19.828,-29.01
19.843,-23.59
19.859,-17.79
19.875,-11.97
19.890,-6.28
19.906,-0.78
19.921,4.43
19.937,9.21
19.953,13.4
19.968,16.93
19.984,19.84
20.000,22.26
20.015,24.31
20.031,26.04
20.046,27.39
20.062,28.23
20.078,28.46
20.093,28.08
20.109,27.19
20.125,26.03
20.140,24.86
20.156,23.92
20.171,23.24
20.187,22.69
20.203,22.03
20.218,20.95
20.234,19.34
20.250,17.27
20.265,14.99
20.281,12.82
20.296,10.97
20.312,9.47
20.328,8.21
20.343,7.0
20.359,5.66
20.375,4.08
20.390,2.24
20.406,0.2
20.421,-1.95
20.437,-4.09
20.453,-6.15
20.468,-8.11
20.484,-10.09
20.500,-12.26
20.515,-14.78
20.531,-17.72
20.546,-21.02
20.562,-24.47
20.578,-27.72
20.593,-30.34
20.609,-31.87
20.625,-31.9
20.640,-30.2
20.656,-26.83
20.671,-22.15
20.687,-16.76
20.703,-11.29
20.718,-6.18
20.734,-1.62
20.750,2.43
20.765,6.04
20.781,9.2
20.796,11.77
20.812,13.59
20.828,14.65
20.843,15.11
20.859,15.28
20.875,15.46
20.890,15.83
20.906,16.35
20.921,16.86
20.937,17.19
20.953,17.25
20.968,17.02
20.984,16.54
21.000,15.84
21.015,14.93
21.031,13.77
21.046,12.37
21.062,10.79
21.078,9.16
21.093,7.61
21.109,6.28
21.125,5.19
21.140,4.29
21.156,3.39
21.171,2.31
21.187,0.91
21.203,-0.84
21.218,-2.86
21.234,-5.04
21.250,-7.3
21.265,-9.68
21.281,-12.24
21.296,-15.07
21.312,-18.18
21.328,-21.52
21.343,-25.04
21.359,-28.69
21.375,-32.4
21.390,-36.04
21.406,-39.3
21.421,-41.76
21.437,-42.94
21.453,-42.53
21.468,-40.46
21.484,-36.96
21.500,-32.42
21.515,-27.29
21.531,-21.95
21.546,-16.65
21.562,-11.54
21.578,-6.7
21.593,-2.23
21.609,1.82
21.625,5.34
21.640,8.27
21.656,10.53
21.671,12.13
21.687,13.12
21.703,13.59
21.718,13.71
21.734,13.6
21.750,13.38
21.765,13.12
21.781,12.9
21.796,12.79
21.812,12.85
21.828,13.04
21.843,13.24
21.859,13.22
21.875,12.74
21.890,11.69
21.906,10.13
21.921,8.29
21.937,6.44
21.953,4.71
21.968,3.11
21.984,1.45
22.000,-0.43
22.015,-2.6
22.031,-5.01
22.046,-7.46
22.062,-9.83
22.078,-12.12
22.093,-14.44
22.109,-16.94
22.125,-19.76
22.140,-22.97
22.156,-26.55
22.171,-30.43
22.187,-34.5
22.203,-38.46
22.218,-41.89
22.234,-44.23
22.250,-45.02
22.265,-43.98
22.281,-41.2
22.296,-37.01
22.312,-31.97
22.328,-26.55
22.343,-21.09
22.359,-15.78
22.375,-10.7
22.390,-5.9
22.406,-1.45
22.421,2.56
22.437,6.1
22.453,9.12
22.468,11.67
22.484,13.8
22.500,15.56
22.515,17.02
22.531,18.15
22.546,18.96
22.562,19.48
22.578,19.82
22.593,20.13
22.609,20.57
22.625,21.21
22.640,21.91
22.656,22.38
22.671,22.3
22.687,21.49
22.703,20.0
22.718,18.11
22.734,16.19
22.750,14.47
22.765,12.98
22.781,11.46
22.796,9.56
22.812,7.02
22.828,3.73
22.843,-0.17
22.859,-4.38
22.875,-8.59
22.890,-12.6
22.906,-16.36
22.921,-19.97
22.937,-23.58
22.953,-27.41
22.968,-31.58
22.984,-36.15
23.000,-41.03
23.015,-45.97
23.031,-50.56
23.046,-54.29
23.062,-56.63
23.078,-57.22
23.093,-55.94
23.109,-52.92
23.125,-48.51
23.140,-43.14
23.156,-37.21
23.171,-31.02
23.187,-24.76
23.203,-18.55
23.218,-12.46
23.234,-6.57
23.250,-0.98
23.265,4.18
23.281,8.74
23.296,12.57
23.312,15.6
23.328,17.89
23.343,19.59
23.359,20.9
23.375,22.01
23.390,22.97
23.406,23.82
23.421,24.52
23.437,25.08
23.453,25.47
23.468,25.69
23.484,25.68
23.500,25.37
23.515,24.69
23.531,23.61
23.546,22.17
23.562,20.43
23.578,18.52
23.593,16.53
23.609,14.47
23.625,12.33
23.640,9.98
23.656,7.28
23.671,4.16
23.687,0.7
23.703,-2.87
23.718,-6.26
23.734,-9.3
23.750,-12.03
23.765,-14.72
23.781,-17.75
23.796,-21.39
23.812,-25.68
23.828,-30.47
23.843,-35.44
23.859,-40.19
23.875,-44.33
23.890,-47.43
23.906,-49.03
23.921,-48.74
23.937,-46.39
23.953,-42.1
23.968,-36.3
23.984,-29.61
24.000,-22.55
24.015,-15.45
24.031,-8.4
24.046,-1.3
24.062,5.94
24.078,13.28
24.093,20.5
24.109,27.25
24.125,33.14
24.140,37.89
24.156,41.4
24.171,43.79
24.187,45.38
24.203,46.55
24.218,47.62
24.234,48.73
24.250,49.91
24.265,51.05
24.281,52.08
24.296,52.93
24.312,53.57
24.328,53.88
24.343,53.68
24.359,52.79
24.375,51.11
24.390,48.75
24.406,46.02
24.421,43.3
24.437,40.91
24.453,38.99
24.468,37.41
24.484,35.91
24.500,34.2
24.515,32.11
24.531,29.58
24.546,26.76
24.562,23.87
24.578,21.1
24.593,18.55
24.609,16.15
24.625,13.67
24.640,10.82
24.656,7.36
24.671,3.15
24.687,-1.83
24.703,-7.46
24.718,-13.55
24.734,-19.79
24.750,-25.77
24.765,-30.95
24.781,-34.74
24.796,-36.66
24.812,-36.48
24.828,-34.31
24.843,-30.55
24.859,-25.7
24.875,-20.27
24.890,-14.56
24.906,-8.73
24.921,-2.84
24.937,3.11
24.953,9.05
24.968,14.85
24.984,20.3
25.000,25.17
25.015,29.24
25.031,32.35
25.046,34.46
25.062,35.68
25.078,36.18
25.093,36.18
25.109,35.88
25.125,35.35
25.140,34.64
25.156,33.77
25.171,32.75
25.187,31.64
25.203,30.47
25.218,29.25
25.234,27.92
25.250,26.41
25.265,24.63
25.281,22.57
25.296,20.27
25.312,17.79
25.328,15.21
25.343,12.62
25.359,10.09
25.375,7.65
25.390,5.33
25.406,3.07
25.421,0.76
25.437,-1.7
25.453,-4.42
25.468,-7.38
25.484,-10.49
25.500,-13.59
25.515,-16.55
25.531,-19.36
25.546,-22.16
25.562,-25.2
25.578,-28.67
25.593,-32.62
25.609,-36.87
25.625,-41.04
25.640,-44.62
25.656,-47.09
25.671,-48.02
25.687,-47.17
25.703,-44.46
25.718,-40.12
25.734,-34.56
25.750,-28.38
25.765,-22.14
25.781,-16.25
25.796,-10.82
25.812,-5.67
25.828,-0.45
25.843,5.09
25.859,10.93
25.875,16.72
25.890,21.88
25.906,25.82
25.921,28.11
25.937,28.64
25.953,27.55
25.968,25.21
25.984,22.08
26.000,18.69
26.015,15.58
26.031,13.2
26.046,11.81
26.062,11.43
26.078,11.8
26.093,12.45
26.109,12.89
26.125,12.81
26.140,12.13
26.156,11.1
26.171,10.06
26.187,9.35
26.203,9.18
26.218,9.53
26.234,10.22
26.250,10.95
26.265,11.4
26.281,11.32
26.296,10.61
26.312,9.31
26.328,7.58
26.343,5.62
26.359,3.59
26.375,1.5
26.390,-0.78
26.406,-3.44
26.421,-6.68
26.437,-10.61
26.453,-15.17
26.468,-20.21
26.484,-25.41
26.500,-30.36
26.515,-34.56
26.531,-37.48
26.546,-38.71
26.562,-38.05
26.578,-35.57
26.593,-31.62
26.609,-26.7
26.625,-21.31
26.640,-15.83
26.656,-10.43
26.671,-5.13
26.687,0.15
26.703,5.42
26.718,10.54
26.734,15.23
26.750,19.15
26.765,22.07
26.781,23.91
26.796,24.85
26.812,25.19
26.828,25.27
26.843,25.29
26.859,25.34
26.875,25.44
26.890,25.55
26.906,25.66
26.921,25.7
26.937,25.58
26.953,25.14
26.968,24.25
26.984,22.88
27.000,21.09
27.015,19.08
27.031,17.08
27.046,15.2
27.062,13.47
27.078,11.79
27.093,10.09
27.109,8.33
27.125,6.5
27.140,4.61
27.156,2.61
27.171,0.36
27.187,-2.24
27.203,-5.18
27.218,-8.31
27.234,-11.4
27.250,-14.21
27.265,-16.72
27.281,-19.07
27.296,-21.59
27.312,-24.58
27.328,-28.24
27.343,-32.54
27.359,-37.29
27.375,-42.09
27.390,-46.53
27.406,-50.16
27.421,-52.56
27.437,-53.37
27.453,-52.39
27.468,-49.63
27.484,-45.28
27.500,-39.75
27.515,-33.55
27.531,-27.25
27.546,-21.27
27.562,-15.81
27.578,-10.87
27.593,-6.28
27.609,-1.87
27.625,2.42
27.640,6.46
27.656,10.03
27.671,12.91
27.687,15.04
27.703,16.49
27.718,17.43
27.734,18.01
27.750,18.3
27.765,18.36
27.781,18.2
27.796,17.94
27.812,17.67
27.828,17.48
27.843,17.33
27.859,17.1
27.875,16.6
27.890,15.66
27.906,14.21
27.921,12.26
27.937,10.0
27.953,7.61
27.968,5.3
27.984,3.16
28.000,1.16
28.015,-0.82
28.031,-2.92
28.046,-5.2
28.062,-7.63
28.078,-10.11
28.093,-12.55
28.109,-14.94
28.125,-17.37
28.140,-19.98
28.156,-22.88
28.171,-26.15
28.187,-29.78
28.203,-33.74
28.218,-37.87
28.234,-41.92
28.250,-45.47
28.265,-48.0
28.281,-49.02
28.296,-48.22
28.312,-45.63
28.328,-41.56
28.343,-36.53
28.359,-31.09
28.375,-25.64
28.390,-20.31
28.406,-15.04
28.421,-9.64
28.437,-3.94
28.453,2.05
28.468,8.1
28.484,13.83
28.500,18.81
28.515,22.72
28.531,25.4
28.546,26.9
28.562,27.46
28.578,27.43
28.593,27.13
28.609,26.86
28.625,26.81
28.640,26.99
28.656,27.32
28.671,27.62
28.687,27.73
28.703,27.5
28.718,26.87
28.734,25.84
28.750,24.43
28.765,22.7
28.781,20.74
28.796,18.67
28.812,16.58
28.828,14.5
28.843,12.4
28.859,10.19
28.875,7.79
28.890,5.19
28.906,2.42
28.921,-0.42
28.937,-3.26
28.953,-6.07
28.968,-8.9
28.984,-11.84
29.000,-15.04
29.015,-18.63
29.031,-22.73
29.046,-27.37
29.062,-32.39
29.078,-37.44
29.093,-41.99
29.109,-45.41
29.125,-47.13
29.140,-46.85
29.156,-44.58
29.171,-40.65
29.187,-35.55
29.203,-29.76
29.218,-23.65
29.234,-17.42
29.250,-11.17
29.265,-4.96
29.281,1.02
29.296,6.51
29.312,11.24
29.328,15.01
29.343,17.76
29.359,19.57
29.375,20.66
29.390,21.28
29.406,21.65
29.421,21.94
29.437,22.29
29.453,22.75
29.468,23.33
29.484,23.99
29.500,24.63
29.515,25.17
29.531,25.52
29.546,25.66
29.562,25.59
29.578,25.41
29.593,25.17
29.609,24.96
29.625,24.76
29.640,24.53
29.656,24.11
29.671,23.36
29.687,22.12
29.703,20.3
29.718,17.91
29.734,15.0
29.750,11.74
29.765,8.31
29.781,4.88
29.796,1.59
29.812,-1.49
29.828,-4.36
29.843,-7.08
29.859,-9.81
29.875,-12.75
29.890,-16.11
29.906,-20.08
29.921,-24.68
29.937,-29.73
29.953,-34.74
29.968,-39.07
29.984,-42.05
30.000,-43.17
30.015,-42.28
30.031,-39.56
30.046,-35.43
30.062,-30.38
30.078,-24.82
30.093,-18.97
30.109,-12.97
30.125,-6.89
30.140,-0.9
30.156,4.78
30.171,9.91
30.187,14.3
30.203,17.89
30.218,20.73
30.234,22.91
30.250,24.47
30.265,25.46
30.281,25.93
30.296,26.02
30.312,25.95
30.328,25.94
30.343,26.16
30.359,26.61
30.375,27.13
30.390,27.5
30.406,27.53
30.421,27.18
30.437,26.51
30.453,25.59
30.468,24.46
30.484,23.07
30.500,21.39
30.515,19.46
30.531,17.4
30.546,15.36
30.562,13.43
30.578,11.56
30.593,9.6
30.609,7.4
30.625,4.92
30.640,2.26
30.656,-0.36
30.671,-2.78
30.687,-4.96
30.703,-7.05
30.718,-9.27
30.734,-11.84
30.750,-14.81
30.765,-18.09
30.781,-21.53
30.796,-24.93
30.812,-28.19
30.828,-31.22
30.843,-33.92
30.859,-36.05
30.875,-37.23
30.890,-37.06
30.906,-35.23
30.921,-31.69
30.937,-26.68
30.953,-20.68
30.968,-14.27
30.984,-7.95
31.000,-2.06
31.015,3.23
31.031,7.87
31.046,11.84
31.062,15.12
31.078,17.69
31.093,19.58
31.109,20.94
31.125,21.96
31.140,22.81
31.156,23.6
31.171,24.27
31.187,24.67
31.203,24.65
31.218,24.21
31.234,23.49
31.250,22.75
31.265,22.22
31.281,21.97
31.296,21.84
31.312,21.56
31.328,20.83
31.343,19.59
31.359,17.99
31.375,16.34
31.390,14.95
31.406,13.97
31.421,13.3
31.437,12.63
31.453,11.67
31.468,10.25
31.484,8.44
31.500,6.48
31.515,4.63
31.531,3.06
31.546,1.76
31.562,0.55
31.578,-0.84
31.593,-2.67
31.609,-5.14
31.625,-8.33
31.640,-12.11
31.656,-16.18
31.671,-19.96
31.687,-22.82
31.703,-24.15
31.718,-23.6
31.734,-21.18
31.750,-17.25
31.765,-12.37
31.781,-7.1
31.796,-1.84
31.812,3.22
31.828,8.04
31.843,12.6
31.859,16.88
31.875,20.71
31.890,23.84
31.906,25.93
31.921,26.66
31.937,25.84
31.953,23.46
31.968,19.78
31.984,15.28
32.000,10.56
32.015,6.21
32.031,2.65
32.046,0.08
32.062,-1.5
32.078,-2.21
32.093,-2.28
32.109,-1.95
32.125,-1.47
32.140,-1.11
32.156,-1.1
32.171,-1.57
32.187,-2.52
32.203,-3.79
32.218,-5.22
32.234,-6.65
32.250,-8.11
32.265,-9.72
32.281,-11.7
32.296,-14.16
32.312,-17.05
32.328,-20.13
32.343,-23.11
32.359,-25.73
32.375,-27.87
32.390,-29.58
32.406,-30.98
32.421,-32.26
32.437,-33.62
32.453,-35.29
32.468,-37.39
32.484,-39.94
32.500,-42.68
32.515,-45.12
32.531,-46.61
32.546,-46.65
32.562,-44.94
32.578,-41.65
32.593,-37.16
32.609,-31.98
32.625,-26.49
32.640,-20.94
32.656,-15.44
32.671,-10.09
32.687,-5.01
32.703,-0.36
32.718,3.73
32.734,7.22
32.750,10.15
32.765,12.59
32.781,14.64
32.796,16.33
32.812,17.69
32.828,18.68
32.843,19.33
32.859,19.66
32.875,19.78
32.890,19.86
32.906,20.08
32.921,20.61
32.937,21.43
32.953,22.39
32.968,23.17
32.984,23.47
33.000,23.11
33.015,22.13
33.031,20.7
33.046,19.12
33.062,17.61
33.078,16.27
33.093,15.05
33.109,13.77
33.125,12.19
33.140,10.16
33.156,7.62
33.171,4.62
33.187,1.39
33.203,-1.87
33.218,-5.0
33.234,-7.97
33.250,-10.9
33.265,-13.99
33.281,-17.37
33.296,-21.11
33.312,-25.11
33.328,-29.15
33.343,-32.98
33.359,-36.23
33.375,-38.51
33.390,-39.38
33.406,-38.54
33.421,-35.9
33.437,-31.68
33.453,-26.37
33.468,-20.55
33.484,-14.72
33.500,-9.1
33.515,-3.75
33.531,1.36
33.546,6.17
33.562,10.44
33.578,13.89
33.593,16.33
33.609,17.79
33.625,18.54
33.640,18.96
33.656,19.37
33.671,19.85
33.687,20.25
33.703,20.35
33.718,20.0
33.734,19.24
33.750,18.29
33.765,17.45
33.781,16.89
33.796,16.6
33.812,16.4
33.828,16.05
33.843,15.34
33.859,14.28
33.875,12.95
33.890,11.55
33.906,10.19
33.921,8.94
33.937,7.76
33.953,6.57
33.968,5.32
33.984,3.92
34.000,2.27
34.015,0.27
34.031,-2.14
34.046,-4.91
34.062,-7.85
34.078,-10.7
34.093,-13.2
34.109,-15.28
34.125,-17.09
34.140,-18.91
34.156,-21.05
34.171,-23.65
34.187,-26.59
34.203,-29.52
34.218,-31.92
34.234,-33.34
34.250,-33.46
34.265,-32.23
34.281,-29.75
34.296,-26.27
34.312,-22.08
34.328,-17.39
34.343,-12.41
34.359,-7.28
34.375,-2.21
34.390,2.56
34.406,6.8
34.421,10.32
34.437,13.07
34.453,15.13
34.468,16.69
34.484,17.96
34.500,19.05
34.515,19.99
34.531,20.72
34.546,21.18
34.562,21.36
34.578,21.34
34.593,21.22
34.609,21.06
34.625,20.85
34.640,20.47
34.656,19.8
34.671,18.77
34.687,17.43
34.703,15.9
34.718,14.31
34.734,12.76
34.750,11.25
34.765,9.68
34.781,7.98
34.796,6.1
34.812,4.0
34.828,1.7
34.843,-0.81
34.859,-3.47
34.875,-6.22
34.890,-8.97
34.906,-11.64
34.921,-14.22
34.937,-16.79
34.953,-19.48
34.968,-22.39
34.984,-25.55
35.000,-28.93
35.015,-32.46
35.031,-35.97
35.046,-39.3
35.062,-42.18
35.078,-44.25
35.093,-45.13
35.109,-44.48
35.125,-42.2
35.140,-38.43
35.156,-33.53
35.171,-27.97
35.187,-22.16
35.203,-16.37
35.218,-10.7
35.234,-5.22
35.250,0.02
35.265,4.87
35.281,9.26
35.296,13.13
35.312,16.65
35.328,20.06
35.343,23.62
35.359,27.52
35.375,31.69
35.390,35.91
35.406,39.82
35.421,43.08
35.437,45.44
35.453,46.75
35.468,46.94
35.484,46.01
35.500,44.07
35.515,41.31
35.531,38.08
35.546,34.76
35.562,31.62
35.578,28.79
35.593,26.16
35.609,23.56
35.625,20.83
35.640,17.99
35.656,15.11
35.671,12.34
35.687,9.69
35.703,7.04
35.718,4.19
35.734,0.99
35.750,-2.58
35.765,-6.38
35.781,-10.21
35.796,-13.88
35.812,-17.3
35.828,-20.41
35.843,-23.2
35.859,-25.64
35.875,-27.67
35.890,-29.21
35.906,-30.16
35.921,-30.39
35.937,-29.77
35.953,-28.2
35.968,-25.56
35.984,-21.77
36.000,-16.78
36.015,-10.61
36.031,-3.46
36.046,4.18
36.062,11.6
36.078,17.97
36.093,22.54
36.109,24.89
36.125,25.08
36.140,23.62
36.156,21.32
36.171,19.07
36.187,17.56
36.203,17.09
36.218,17.59
36.234,18.7
36.250,20.0
36.265,21.22
36.281,22.32
36.296,23.47
36.312,24.86
36.328,26.56
36.343,28.46
36.359,30.33
36.375,31.92
36.390,33.09
36.406,33.66
36.421,33.48
36.437,32.34
36.453,30.06
36.468,26.65
36.484,22.29
36.500,17.38
36.515,12.38
36.531,7.74
36.546,3.88
36.562,1.07
36.578,-0.44
36.593,-0.56
36.609,0.68
36.625,3.13
36.640,6.47
36.656,10.35
36.671,14.42
36.687,18.44
36.703,22.29
36.718,26.08
36.734,30.06
36.750,34.54
36.765,39.69
36.781,45.38
36.796,51.13
36.812,56.17
36.828,59.72
36.843,61.23
36.859,60.51
36.875,57.8
36.890,53.54
36.906,48.23
36.921,42.29
36.937,36.04
36.953,29.66
36.968,23.28
36.984,16.86
37.000,10.32
37.015,3.57
37.031,-3.27
37.046,-9.77
37.062,-15.23
37.078,-18.88
37.093,-20.36
37.109,-19.91
37.125,-18.41
37.140,-17.06
37.156,-16.88
37.171,-18.24
37.187,-20.79
37.203,-23.7
37.218,-26.2
37.234,-27.92
37.250,-29.11
37.265,-30.41
37.281,-32.45
37.296,-35.51
37.312,-39.36
37.328,-43.41
37.343,-46.99
37.359,-49.75
37.375,-51.78
37.390,-53.61
37.406,-55.89
37.421,-59.06
37.437,-63.03
37.453,-67.27
37.468,-70.92
37.484,-73.19
37.500,-73.56
37.515,-71.91
37.531,-68.42
37.546,-63.49
37.562,-57.59
37.578,-51.16
37.593,-44.62
37.609,-38.31
37.625,-32.53
37.640,-27.49
37.656,-23.28
37.671,-19.83
37.687,-16.97
37.703,-14.49
37.718,-12.15
37.734,-9.81
37.750,-7.46
37.765,-5.14
37.781,-2.92
37.796,-0.86
37.812,1.0
37.828,2.64
37.843,4.03
37.859,5.2
37.875,6.21
37.890,7.22
37.906,8.43
37.921,9.91
37.937,11.66
37.953,13.51
37.968,15.28
37.984,16.82
38.000,18.15
38.015,19.34
38.031,20.45
38.046,21.45
38.062,22.15
38.078,22.23
38.093,21.35
38.109,19.13
38.125,15.26
38.140,9.53
38.156,1.81
38.171,-7.78
38.187,-18.89
38.203,-30.9
38.218,-42.9
38.234,-53.93
38.250,-63.04
38.265,-69.62
38.281,-73.47
38.296,-74.83
38.312,-74.25
38.328,-72.4
38.343,-69.85
38.359,-66.96
38.375,-63.89
38.390,-60.67
38.406,-57.35
38.421,-54.07
38.437,-51.13
38.453,-48.88
38.468,-47.6
38.484,-47.38
38.500,-47.97
38.515,-48.87
38.531,-49.47
38.546,-49.23
38.562,-47.91
38.578,-45.48
38.593,-42.12
38.609,-38.01
38.625,-33.33
38.640,-28.25
38.656,-23.04
38.671,-18.1
38.687,-13.9
38.703,-10.85
38.718,-9.14
38.734,-8.67
38.750,-9.09
38.765,-9.95
38.781,-10.85
38.796,-11.54
38.812,-11.94
38.828,-12.14
38.843,-12.28
38.859,-12.53
38.875,-13.1
38.890,-14.13
38.906,-15.78
38.921,-18.09
38.937,-20.88
38.953,-23.7
38.968,-25.91
38.984,-26.79
39.000,-25.84
39.015,-22.98
39.031,-18.55
39.046,-13.17
39.062,-7.45
39.078,-1.76
39.093,3.86
39.109,9.53
39.125,15.39
39.140,21.34
39.156,27.08
39.171,32.19
39.187,36.34
39.203,39.35
39.218,41.3
39.234,42.4
39.250,42.93
39.265,43.1
39.281,43.04
39.296,42.76
39.312,42.23
39.328,41.4
39.343,40.26
39.359,38.86
39.375,37.33
39.390,35.82
39.406,34.43
39.421,33.09
39.437,31.58
39.453,29.55
39.468,26.72
39.484,22.95
39.500,18.35
39.515,13.21
39.531,7.85
39.546,2.49
39.562,-2.78
39.578,-8.0
39.593,-13.28
39.609,-18.73
39.625,-24.41
39.640,-30.39
39.656,-36.64
39.671,-42.97
39.687,-48.96
39.703,-53.9
39.718,-56.96
39.734,-57.44
39.750,-54.99
39.765,-49.8
39.781,-42.49
39.796,-33.89
39.812,-24.77
39.828,-15.68
39.843,-6.82
39.859,1.77
39.875,10.13
39.890,18.22
39.906,25.91
39.921,32.95
39.937,39.11
39.953,44.2
39.968,48.13
39.984,50.96
40.000,52.77
40.015,53.74
40.031,54.13
40.046,54.23
40.062,54.35
40.078,54.73
40.093,55.51
40.109,56.58
40.125,57.69
40.140,58.51
40.156,58.73
40.171,58.24
40.187,57.08
40.203,55.38
40.218,53.31
40.234,50.94
40.250,48.23
40.265,45.12
40.281,41.53
40.296,37.44
40.312,32.89
40.328,27.98
40.343,22.86
40.359,17.63
40.375,12.35
40.390,6.9
40.406,1.08
40.421,-5.27
40.437,-12.08
40.453,-18.83
40.468,-24.6
40.484,-28.24
40.500,-28.76
40.515,-25.65
40.531,-19.19
40.546,-10.41
40.562,-0.98
40.578,7.12
40.593,12.05
40.609,12.55
40.625,8.35
40.640,0.36
40.656,-9.46
40.671,-18.74
40.687,-25.4
40.703,-28.42
40.718,-28.1
40.734,-25.8
40.750,-23.36
40.765,-22.16
40.781,-22.59
40.796,-23.97
40.812,-24.85
40.828,-23.78
40.843,-19.97
40.859,-13.66
40.875,-6.06
40.890,1.11
40.906,6.37
40.921,9.04
40.937,9.56
40.953,9.24
40.968,9.56
40.984,11.35
41.000,14.17
41.015,16.27
41.031,15.13
41.046,8.38
41.062,-5.11
41.078,-24.75
41.093,-48.21
41.109,-71.99
41.125,-92.3
41.140,-105.96
41.156,-111.22
41.171,-108.28
41.187,-99.37
41.203,-88.01
41.218,-77.74
41.234,-70.46
41.250,-65.29
41.265,-58.7
41.281,-45.98
41.296,-23.73
41.312,8.07
41.328,45.45
41.343,81.74
41.359,110.38
41.375,127.62
41.390,134.01
41.406,133.95
41.421,133.47
41.437,137.62
41.453,148.43
41.468,164.4
41.484,181.31
41.500,194.05
41.515,198.6
41.531,193.42
41.546,179.82
41.562,161.39
41.578,142.69
41.593,127.69
41.609,118.64
41.625,115.55
41.640,116.39
41.656,117.98
41.671,116.86
41.687,110.22
41.703,96.65
41.718,76.46
41.734,51.71
41.750,25.81
41.765,2.79
41.781,-13.82
41.796,-21.97
41.812,-21.96
41.828,-16.54
41.843,-10.29
41.859,-8.32
41.875,-14.63
41.890,-30.77
41.906,-55.04
41.921,-82.86
41.937,-108.1
41.953,-125.02
41.968,-130.26
41.984,-123.88
42.000,-109.38
42.015,-92.31
42.031,-78.31
42.046,-71.16
42.062,-71.79
42.078,-78.26
42.093,-86.81
42.109,-93.39
42.125,-94.88
42.140,-89.92
42.156,-78.9
42.171,-63.53
42.187,-46.13
42.203,-29.01
42.218,-14.1
42.234,-2.65
42.250,4.79
42.265,8.5
42.281,9.48
42.296,9.22
42.312,9.28
42.328,10.87
42.343,14.44
42.359,19.65
42.375,25.62
42.390,31.3
42.406,35.88
42.421,39.02
42.437,40.79
42.453,41.58
42.468,41.88
42.484,42.13
42.500,42.65
42.515,43.6
42.531,44.89
42.546,46.29
42.562,47.45
42.578,47.98
42.593,47.62
42.609,46.22
42.625,43.74
42.640,40.16
42.656,35.5
42.671,29.8
42.687,23.19
42.703,15.95
42.718,8.44
42.734,0.93
42.750,-6.5
42.765,-14.02
42.781,-21.91
42.796,-30.43
42.812,-39.59
42.828,-49.08
42.843,-58.25
42.859,-66.24
42.875,-72.23
42.890,-75.56
42.906,-75.91
42.921,-73.37
42.937,-68.39
42.953,-61.67
42.968,-54.0
42.984,-46.08
43.000,-38.34
43.015,-30.99
43.031,-24.06
43.046,-17.45
43.062,-11.07
43.078,-4.82
43.093,1.35
43.109,7.45
43.125,13.32
43.140,18.65
43.156,22.93
43.171,25.7
43.187,26.72
43.203,26.26
43.218,25.02
43.234,24.06
43.250,24.34
43.265,26.39
43.281,30.1
43.296,34.7
43.312,39.13
43.328,42.41
43.343,44.01
43.359,43.94
43.375,42.69
43.390,40.88
43.406,39.06
43.421,37.57
43.437,36.51
43.453,35.92
43.468,35.77
43.484,36.0
43.500,36.42
43.515,36.59
43.531,35.91
43.546,33.77
43.562,29.84
43.578,24.26
43.593,17.68
43.609,11.07
43.625,5.47
43.640,1.73
43.656,0.3
43.671,1.14
43.687,3.82
43.703,7.56
43.718,11.5
43.734,14.85
43.750,17.06
43.765,18.09
43.781,18.38
43.796,18.9
43.812,20.83
43.828,25.17
43.843,32.27
43.859,41.48
43.875,51.1
43.890,58.81
43.906,62.46
43.921,60.84
43.937,54.3
43.953,44.66
43.968,34.55
43.984,26.48
44.000,21.89
44.015,20.73
44.031,21.66
44.046,22.71
44.062,22.16
44.078,19.22
44.093,14.24
44.109,8.51
44.125,3.56
44.140,0.56
44.156,-0.06
44.171,1.23
44.187,3.55
44.203,5.98
44.218,8.14
44.234,10.32
44.250,13.25
44.265,17.72
44.281,24.02
44.296,31.72
44.312,39.68
44.328,46.32
44.343,50.06
44.359,49.67
44.375,44.48
44.390,34.56
44.406,20.76
44.421,4.7
44.437,-11.52
44.453,-25.71
44.468,-36.15
44.484,-42.04
44.500,-43.64
44.515,-42.08
44.531,-38.91
44.546,-35.59
44.562,-33.18
44.578,-32.23
44.593,-32.91
44.609,-35.03
44.625,-38.17
44.640,-41.82
44.656,-45.46
44.671,-48.82
44.687,-52.02
44.703,-55.57
44.718,-60.08
44.734,-65.92
44.750,-72.84
44.765,-79.93
44.781,-85.9
44.796,-89.58
44.812,-90.36
44.828,-88.48
44.843,-84.81
44.859,-80.52
44.875,-76.65
44.890,-73.75
44.906,-71.91
44.921,-70.89
44.937,-70.26
44.953,-69.64
44.968,-68.82
44.984,-67.68
45.000,-66.33
45.015,-65.02
45.031,-64.04
45.046,-63.73
45.062,-64.26
45.078,-65.64
45.093,-67.79
45.109,-70.62
45.125,-74.06
45.140,-78.05
45.156,-82.41
45.171,-86.7
45.187,-90.15
45.203,-91.73
45.218,-90.38
45.234,-85.36
45.250,-76.48
45.265,-64.28
45.281,-50.0
45.296,-35.25
45.312,-21.65
45.328,-10.46
45.343,-2.31
45.359,2.82
45.375,5.41
45.390,6.2
45.406,5.96
45.421,5.33
45.437,4.8
45.453,4.65
45.468,4.99
45.484,5.64
45.500,6.18
45.515,6.04
45.531,4.75
45.546,2.29
45.562,-0.71
45.578,-3.1
45.593,-3.66
45.609,-1.63
45.625,2.86
45.640,8.85
45.656,15.01
45.671,20.3
45.687,24.4
45.703,27.66
45.718,30.76
45.734,33.99
45.750,37.09
45.765,39.33
45.781,40.08
45.796,39.24
45.812,37.39
45.828,35.48
45.843,34.2
45.859,33.64
45.875,33.21
45.890,32.01
45.906,29.33
45.921,24.85
45.937,18.71
45.953,11.13
45.968,2.33
45.984,-7.58
46.000,-18.35
46.015,-29.42
46.031,-39.83
46.046,-48.48
46.062,-54.46
46.078,-57.3
46.093,-57.13
46.109,-54.61
46.125,-50.58
46.140,-45.87
46.156,-41.09
46.171,-36.59
46.187,-32.49
46.203,-28.77
46.218,-25.35
46.234,-22.17
46.250,-19.2
46.265,-16.47
46.281,-13.98
46.296,-11.74
46.312,-9.75
46.328,-8.01
46.343,-6.52
46.359,-5.23
46.375,-4.05
46.390,-2.83
46.406,-1.46
46.421,0.15
46.437,1.94
46.453,3.82
46.468,5.66
46.484,7.38
46.500,9.04
46.515,10.7
46.531,12.47
46.546,14.3
46.562,16.03
46.578,17.39
46.593,18.16
46.609,18.23
46.625,17.62
46.640,16.4
46.656,14.67
46.671,12.41
46.687,9.59
46.703,6.16
46.718,2.12
46.734,-2.54
46.750,-7.8
46.765,-13.68
46.781,-20.16
46.796,-27.13
46.812,-34.36
46.828,-41.52
46.843,-48.3
46.859,-54.46
46.875,-59.88
46.890,-64.43
46.906,-67.96
46.921,-70.21
46.937,-70.87
46.953,-69.76
46.968,-66.9
46.984,-62.55
47.000,-57.28
47.015,-51.77
47.031,-46.71
47.046,-42.62
47.062,-39.72
47.078,-37.75
47.093,-35.88
47.109,-32.88
47.125,-27.28
47.140,-17.88
47.156,-4.16
47.171,13.44
47.187,33.53
47.203,54.19
47.218,73.64
47.234,90.77
47.250,105.35
47.265,117.78
47.281,128.49
47.296,137.46
47.312,144.02
47.328,147.17
47.343,146.17
47.359,141.04
47.375,132.59
47.390,122.2
47.406,111.3
47.421,100.94
47.437,91.73
47.453,83.88
47.468,77.44
47.484,72.38
47.500,68.48
47.515,65.32
47.531,62.14
47.546,58.14
47.562,52.65
47.578,45.48
47.593,36.88
47.609,27.44
47.625,17.79
47.640,8.45
47.656,-0.25
47.671,-8.0
47.687,-14.49
47.703,-19.33
47.718,-22.16
47.734,-22.82
47.750,-21.43
47.765,-18.28
47.781,-13.72
47.796,-8.0
47.812,-1.34
47.828,6.11
47.843,14.14
47.859,22.53
47.875,31.11
47.890,39.86
47.906,48.76
47.921,57.75
47.937,66.59
47.953,74.69
47.968,81.26
47.984,85.33
48.000,86.09
48.015,83.04
48.031,76.28
48.046,66.49
48.062,54.79
48.078,42.49
48.093,30.67
48.109,19.95
48.125,10.42
48.140,1.72
48.156,-6.69
48.171,-15.18
48.187,-23.97
48.203,-33.16
48.218,-42.79
48.234,-52.97
48.250,-63.79
48.265,-75.11
48.281,-86.48
48.296,-97.12
48.312,-106.07
48.328,-112.47
48.343,-115.84
48.359,-116.25
48.375,-114.29
48.390,-110.83
48.406,-106.8
48.421,-102.98
48.437,-99.91
48.453,-97.8
48.468,-96.56
48.484,-95.73
48.500,-94.6
48.515,-92.35
48.531,-88.36
48.546,-82.43
48.562,-74.9
48.578,-66.51
48.593,-58.08
48.609,-50.16
48.625,-42.83
48.640,-35.79
48.656,-28.56
48.671,-20.78
48.687,-12.33
48.703,-3.32
48.718,6.12
48.734,15.82
48.750,25.43
48.765,34.34
48.781,41.49
48.796,45.62
48.812,45.53
48.828,40.52
48.843,30.48
48.859,15.79
48.875,-2.92
48.890,-24.71
48.906,-48.05
48.921,-70.57
48.937,-89.17
48.953,-100.77
48.968,-103.43
48.984,-97.25
49.000,-84.45
49.015,-68.57
49.031,-53.11
49.046,-40.37
49.062,-31.02
49.078,-24.48
49.093,-19.7
49.109,-15.79
49.125,-12.21
49.140,-8.62
49.156,-4.78
49.171,-0.51
49.187,4.07
49.203,8.48
49.218,12.05
49.234,14.32
49.250,15.26
49.265,15.37
49.281,15.48
49.296,16.38
49.312,18.56
49.328,22.13
49.343,26.92
49.359,32.69
49.375,39.23
49.390,46.37
49.406,53.91
49.421,61.55
49.437,68.86
49.453,75.38
49.468,80.71
49.484,84.59
49.500,86.94
49.515,87.86
49.531,87.44
49.546,85.79
49.562,82.92
49.578,78.8
49.593,73.49
49.609,67.21
49.625,60.4
49.640,53.58
49.656,47.22
49.671,41.44
49.687,36.02
49.703,30.45
49.718,24.2
49.734,16.94
49.750,8.72
49.765,-0.06
49.781,-8.96
49.796,-17.62
49.812,-25.97
49.828,-34.19
49.843,-42.52
49.859,-51.05
49.875,-59.65
49.890,-67.99
49.906,-75.71
49.921,-82.62
49.937,-88.76
49.953,-94.39
49.968,-99.79
49.984,-105.15
50.000,-110.35
50.015,-115.08
50.031,-118.82
50.046,-120.97
50.062,-120.95
50.078,-118.29
50.093,-112.71
50.109,-104.16
50.125,-92.86
50.140,-79.21
50.156,-63.72
50.171,-46.96
50.187,-29.5
50.203,-11.91
50.218,5.25
50.234,21.49
50.250,36.46
50.265,50.01
50.281,62.15
50.296,72.94
50.312,82.37
50.328,90.2
50.343,96.1
50.359,99.72
50.375,100.95
50.390,100.03
50.406,97.56
50.421,94.37
50.437,91.26
50.453,88.79
50.468,87.13
50.484,86.02
50.500,84.94
50.515,83.38
50.531,81.0
50.546,77.76
50.562,73.91
50.578,69.77
50.593,65.58
50.609,61.44
50.625,57.24
50.640,52.85
50.656,48.15
50.671,43.15
50.687,37.94
50.703,32.67
50.718,27.47
50.734,22.44
50.750,17.62
50.765,13.04
50.781,8.71
50.796,4.58
50.812,0.57
50.828,-3.51
50.843,-7.83
50.859,-12.48
50.875,-17.32
50.890,-21.95
50.906,-25.73
50.921,-27.9
50.937,-27.88
50.953,-25.41
50.968,-20.66
50.984,-14.14
51.000,-6.54
51.015,1.54
51.031,9.66
51.046,17.57
51.062,25.08
51.078,31.95
51.093,37.82
51.109,42.27
51.125,44.95
51.140,45.7
51.156,44.65
51.171,42.15
51.187,38.68
51.203,34.74
51.218,30.79
51.234,27.15
51.250,24.01
51.265,21.4
51.281,19.19
51.296,17.18
51.312,15.16
51.328,13.03
51.343,10.83
51.359,8.65
51.375,6.62
51.390,4.76
51.406,3.01
51.421,1.25
51.437,-0.62
51.453,-2.6
51.468,-4.59
51.484,-6.49
51.500,-8.21
51.515,-9.77
51.531,-11.24
51.546,-12.71
51.562,-14.23
51.578,-15.84
51.593,-17.59
51.609,-19.6
51.625,-22.07
51.640,-25.15
51.656,-28.79
51.671,-32.61
51.687,-35.86
51.703,-37.59
51.718,-36.92
51.734,-33.45
51.750,-27.41
51.765,-19.61
51.781,-11.13
51.796,-2.92
51.812,4.44
51.828,10.86
51.843,16.56
51.859,21.78
51.875,26.63
51.890,31.04
51.906,34.92
51.921,38.35
51.937,41.53
51.953,44.72
51.968,48.04
51.984,51.34
52.000,54.31
52.015,56.63
52.031,58.18
52.046,59.1
52.062,59.56
52.078,59.6
52.093,58.96
52.109,57.26
52.125,54.22
52.140,49.95
52.156,44.96
52.171,40.04
52.187,35.85
52.203,32.63
52.218,30.11
52.234,27.63
52.250,24.5
52.265,20.23
52.281,14.71
52.296,8.17
52.312,1.04
52.328,-6.29
52.343,-13.48
52.359,-20.3
52.375,-26.68
52.390,-32.68
52.406,-38.51
52.421,-44.48
52.437,-50.82
52.453,-57.5
52.468,-64.08
52.484,-69.72
52.500,-73.48
52.515,-74.62
52.531,-72.8
52.546,-68.26
52.562,-61.59
52.578,-53.52
52.593,-44.68
52.609,-35.55
52.625,-26.39
52.640,-17.39
52.656,-8.67
52.671,-0.33
52.687,7.51
52.703,14.7
52.718,21.06
52.734,26.35
52.750,30.38
52.765,33.03
52.781,34.28
52.796,34.24
52.812,33.07
52.828,31.03
52.843,28.44
52.859,25.76
52.875,23.51
52.890,22.15
52.906,21.92
52.921,22.7
52.937,23.98
52.953,25.06
52.968,25.32
52.984,24.45
53.000,22.59
53.015,20.17
53.031,17.66
53.046,15.38
53.062,13.34
53.078,11.38
53.093,9.34
53.109,7.19
53.125,5.03
53.140,3.01
53.156,1.16
53.171,-0.7
53.187,-2.82
53.203,-5.42
53.218,-8.56
53.234,-12.14
53.250,-15.97
53.265,-19.91
53.281,-23.81
53.296,-27.5
53.312,-30.58
53.328,-32.45
53.343,-32.42
53.359,-29.97
53.375,-25.0
53.390,-18.02
53.406,-9.95
53.421,-1.82
53.437,5.59
53.453,11.97
53.468,17.46
53.484,22.42
53.500,27.06
53.515,31.34
53.531,34.97
53.546,37.6
53.562,39.14
53.578,39.75
53.593,39.79
53.609,39.54
53.625,39.03
53.640,38.02
53.656,36.25
53.671,33.64
53.687,30.44
53.703,27.18
53.718,24.43
53.734,22.56
53.750,21.55
53.765,21.05
53.781,20.57
53.796,19.76
53.812,18.49
53.828,16.91
53.843,15.26
53.859,13.78
53.875,12.54
53.890,11.46
53.906,10.37
53.921,9.11
53.937,7.62
53.953,5.91
53.968,3.96
53.984,1.7
54.000,-1.01
54.015,-4.3
54.031,-8.14
54.046,-12.32
54.062,-16.5
54.078,-20.42
54.093,-24.01
54.109,-27.41
54.125,-30.81
54.140,-34.19
54.156,-37.2
54.171,-39.15
54.187,-39.35
54.203,-37.42
54.218,-33.45
54.234,-27.97
54.250,-21.75
54.265,-15.5
54.281,-9.63
54.296,-4.36
54.312,0.34
54.328,4.56
54.343,8.42
54.359,11.98
54.375,15.26
54.390,18.19
54.406,20.62
54.421,22.39
54.437,23.4
54.453,23.71
54.468,23.5
54.484,22.95
54.500,22.18
54.515,21.13
54.531,19.73
54.546,18.0
54.562,16.16
54.578,14.56
54.593,13.53
54.609,13.16
54.625,13.23
54.640,13.32
54.656,12.96
54.671,11.93
54.687,10.26
54.703,8.22
54.718,6.15
54.734,4.34
54.750,2.89
54.765,1.76
54.781,0.82
54.796,-0.07
54.812,-1.03
54.828,-2.11
54.843,-3.31
54.859,-4.62
54.875,-6.08
54.890,-7.74
54.906,-9.69
54.921,-12.04
54.937,-14.86
54.953,-18.24
54.968,-22.21
54.984,-26.7
55.000,-31.52
55.015,-36.27
55.031,-40.4
55.046,-43.27
55.062,-44.34
55.078,-43.36
55.093,-40.42
55.109,-35.94
55.125,-30.48
55.140,-24.61
55.156,-18.71
55.171,-13.02
55.187,-7.63
55.203,-2.65
55.218,1.73
55.234,5.25
55.250,7.76
55.265,9.31
55.281,10.25
55.296,11.16
55.312,12.69
55.328,15.34
55.343,19.31
55.359,24.47
55.375,30.46
55.390,36.85
55.406,43.29
55.421,49.65
55.437,55.96
55.453,62.31
55.468,68.63
55.484,74.55
55.500,79.36
55.515,82.13
55.531,81.99
55.546,78.52
55.562,71.83
55.578,62.58
55.593,51.64
55.609,39.87
55.625,27.8
55.640,15.71
55.656,3.71
55.671,-8.12
55.687,-19.58
55.703,-30.37
55.718,-40.21
55.734,-48.87
55.750,-56.26
55.765,-62.46
55.781,-67.7
55.796,-72.45
55.812,-77.39
55.828,-83.29
55.843,-90.8
55.859,-100.15
55.875,-110.83
55.890,-121.58
55.906,-130.47
55.921,-135.39
55.937,-134.55
55.953,-127.04
55.968,-113.1
55.984,-94.17
56.000,-72.57
56.015,-51.02
56.031,-31.96
56.046,-17.09
56.062,-7.01
56.078,-1.25
56.093,1.39
56.109,2.38
56.125,2.97
56.140,3.91
56.156,5.38
56.171,7.2
56.187,9.04
56.203,10.6
56.218,11.7
56.234,12.2
56.250,12.07
56.265,11.31
56.281,10.02
56.296,8.36
56.312,6.48
56.328,4.48
56.343,2.35
56.359,0.04
56.375,-2.51
56.390,-5.19
56.406,-7.81
56.421,-10.19
56.437,-12.22
56.453,-13.98
56.468,-15.63
56.484,-17.37
56.500,-19.25
56.515,-21.21
56.531,-23.13
56.546,-25.04
56.562,-27.14
56.578,-29.8
56.593,-33.36
56.609,-37.99
56.625,-43.53
56.640,-49.53
56.656,-55.37
56.671,-60.37
56.687,-63.93
56.703,-65.62
56.718,-65.17
56.734,-62.56
56.750,-58.01
56.765,-51.99
56.781,-45.09
56.796,-37.87
56.812,-30.76
56.828,-23.95
56.843,-17.48
56.859,-11.39
56.875,-5.78
56.890,-0.85
56.906,3.21
56.921,6.39
56.937,8.96
56.953,11.34
56.968,13.91
56.984,16.76
57.000,19.62
57.015,22.02
57.031,23.53
57.046,24.07
57.062,23.89
57.078,23.46
57.093,23.08
57.109,22.75
57.125,22.12
57.140,20.77
57.156,18.46
57.171,15.27
57.187,11.59
57.203,7.81
57.218,4.13
57.234,0.5
57.250,-3.27
57.265,-7.28
57.281,-11.48
57.296,-15.55
57.312,-19.18
57.328,-22.14
57.343,-24.51
57.359,-26.57
57.375,-28.78
57.390,-31.59
57.406,-35.3
57.421,-40.04
57.437,-45.7
57.453,-51.86
57.468,-57.9
57.484,-62.99
57.500,-66.29
57.515,-67.11
57.531,-65.12
57.546,-60.44
57.562,-53.61
57.578,-45.4
57.593,-36.6
57.609,-27.81
57.625,-19.35
57.640,-11.28
57.656,-3.57
57.671,3.74
57.687,10.53
57.703,16.55
57.718,21.57
57.734,25.46
57.750,28.26
57.765,30.15
57.781,31.32
57.796,31.96
57.812,32.2
57.828,32.18
57.843,32.08
57.859,32.04
57.875,32.16
57.890,32.3
57.906,32.23
57.921,31.65
57.937,30.36
57.953,28.37
57.968,25.89
57.984,23.19
58.000,20.48
58.015,17.81
58.031,15.08
58.046,12.14
58.062,8.85
58.078,5.16
58.093,1.1
58.109,-3.31
58.125,-7.98
58.140,-12.87
58.156,-18.0
58.171,-23.44
58.187,-29.34
58.203,-35.86
58.218,-43.0
58.234,-50.51
58.250,-57.81
58.265,-64.1
58.281,-68.57
58.296,-70.73
58.312,-70.49
58.328,-68.21
58.343,-64.47
58.359,-59.87
58.375,-54.78
58.390,-49.31
58.406,-43.4
58.421,-36.87
58.437,-29.62
58.453,-21.67
58.468,-13.32
58.484,-5.15
58.500,1.97
58.515,7.17
58.531,9.83
58.546,9.93
58.562,8.15
58.578,5.64
58.593,3.68
58.609,3.21
58.625,4.52
58.640,7.28
58.656,10.8
58.671,14.42
58.687,17.89
58.703,21.43
58.718,25.57
58.734,30.85
58.750,37.45
58.765,45.07
58.781,52.98
58.796,60.3
58.812,66.33
58.828,70.73
58.843,73.58
58.859,75.2
58.875,76.01
58.890,76.43
58.906,76.77
58.921,77.23
58.937,77.81
58.953,78.17
58.968,77.62
58.984,75.29
59.000,70.61
59.015,63.68
59.031,55.54
59.046,47.92
59.062,42.6
59.078,40.76
59.093,42.62
59.109,47.52
59.125,54.45
59.140,62.5
59.156,71.1
59.171,79.83
59.187,88.2
59.203,95.47
59.218,100.91
59.234,104.18
59.250,105.52
59.265,105.64
59.281,105.24
59.296,104.57
59.312,103.16
59.328,100.11
59.343,94.6
59.359,86.26
59.375,75.34
59.390,62.55
59.406,48.82
59.421,35.27
59.437,23.31
59.453,14.58
59.468,10.72
59.484,12.7
59.500,20.13
59.515,31.02
59.531,42.21
59.546,50.45
59.562,53.49
59.578,50.71
59.593,43.02
59.609,32.12
59.625,19.58
59.640,6.14
59.656,-8.25
59.671,-24.14
59.687,-41.94
59.703,-61.48
59.718,-81.79
59.734,-101.2
59.750,-117.64
59.765,-129.21
59.781,-134.78
59.796,-134.24
59.812,-128.5
59.828,-119.07
59.843,-107.5
59.859,-95.1
59.875,-82.92
59.890,-72.03
59.906,-63.65
59.921,-58.91
59.937,-58.3
59.953,-61.09
59.968,-65.26
59.984,-68.06
