timestamp,value
00.000,13.2
00.015,11.3
00.031,9.12
00.046,6.77
00.062,4.4
00.078,2.09
00.093,-0.18
00.109,-2.51
00.125,-5.03
00.140,-7.73
00.156,-10.47
00.171,-13.03
00.187,-15.15
00.203,-16.8
00.218,-18.13
00.234,-19.54
00.250,-21.44
00.265,-24.09
00.281,-27.38
00.296,-30.77
00.312,-33.52
00.328,-34.87
00.343,-34.36
00.359,-31.99
00.375,-28.08
00.390,-23.15
00.406,-17.64
00.421,-11.85
00.437,-5.97
00.453,-0.23
00.468,5.11
00.484,9.7
00.500,13.31
00.515,15.97
00.531,17.86
00.546,19.3
00.562,20.55
00.578,21.69
00.593,22.67
00.609,23.38
00.625,23.76
00.640,23.78
00.656,23.51
00.671,23.03
00.687,22.47
00.703,22.01
00.718,21.84
00.734,22.05
00.750,22.57
00.765,23.17
00.781,23.54
00.796,23.44
00.812,22.79
00.828,21.65
00.843,20.18
00.859,18.51
00.875,16.65
00.890,14.64
00.906,12.54
00.921,10.44
00.937,8.45
00.953,6.53
00.968,4.51
00.984,2.11
01.000,-0.87
01.015,-4.41
01.031,-8.23
01.046,-11.89
01.062,-15.01
01.078,-17.45
01.093,-19.4
01.109,-21.34
01.125,-23.8
01.140,-27.11
01.156,-31.23
01.171,-35.67
01.187,-39.64
01.203,-42.35
01.218,-43.18
01.234,-41.87
01.250,-38.59
01.265,-33.72
01.281,-27.77
01.296,-21.18
01.312,-14.39
01.328,-7.77
01.343,-1.74
01.359,3.35
01.375,7.26
01.390,9.97
01.406,11.77
01.421,13.12
01.437,14.53
01.453,16.24
01.468,18.2
01.484,20.02
01.500,21.27
01.515,21.64
01.531,21.15
01.546,20.13
01.562,19.06
01.578,18.28
01.593,17.89
01.609,17.7
01.625,17.42
01.640,16.92
01.656,16.25
01.671,15.63
01.687,15.31
01.703,15.34
01.718,15.53
01.734,15.49
01.750,14.83
01.765,13.3
01.781,11.01
01.796,8.35
01.812,5.78
01.828,3.66
01.843,2.05
01.859,0.73
01.875,-0.65
01.890,-2.4
01.906,-4.64
01.921,-7.29
01.937,-10.13
01.953,-12.95
01.968,-15.67
01.984,-18.36
02.000,-21.08
02.015,-23.91
02.031,-26.82
02.046,-29.78
02.062,-32.71
02.078,-35.64
02.093,-38.6
02.109,-41.54
02.125,-44.22
02.140,-46.12
02.156,-46.58
02.171,-45.07
02.187,-41.35
02.203,-35.71
02.218,-28.91
02.234,-21.96
02.250,-15.68
02.265,-10.56
02.281,-6.49
02.296,-3.01
02.312,0.39
02.328,4.06
02.343,7.95
02.359,11.7
02.375,14.9
02.390,17.34
02.406,19.07
02.421,20.4
02.437,21.68
02.453,23.1
02.468,24.57
02.484,25.87
02.500,26.77
02.515,27.25
02.531,27.57
02.546,28.02
02.562,28.86
02.578,30.07
02.593,31.32
02.609,32.21
02.625,32.35
02.640,31.59
02.656,30.03
02.671,27.93
02.687,25.55
02.703,23.04
02.718,20.3
02.734,17.18
02.750,13.53
02.765,9.31
02.781,4.69
02.796,0.01
02.812,-4.31
02.828,-7.98
02.843,-10.93
02.859,-13.42
02.875,-15.92
02.890,-18.87
02.906,-22.52
02.921,-26.77
02.937,-31.19
02.953,-35.24
02.968,-38.53
02.984,-40.94
03.000,-42.58
03.015,-43.56
03.031,-43.78
03.046,-42.95
03.062,-40.66
03.078,-36.66
03.093,-31.01
03.109,-24.07
03.125,-16.4
03.140,-8.46
03.156,-0.51
03.171,7.45
03.187,15.52
03.203,23.79
03.218,32.13
03.234,40.2
03.250,47.51
03.265,53.5
03.281,57.73
03.296,59.92
03.312,60.08
03.328,58.43
03.343,55.39
03.359,51.38
03.375,46.77
03.390,41.89
03.406,36.94
03.421,32.18
03.437,27.81
03.453,23.99
03.468,20.72
03.484,17.86
03.500,15.16
03.515,12.41
03.531,9.62
03.546,7.0
03.562,4.83
03.578,3.28
03.593,2.3
03.609,1.64
03.625,0.98
03.640,0.1
03.656,-1.02
03.671,-2.2
03.687,-3.26
03.703,-4.1
03.718,-4.85
03.734,-5.8
03.750,-7.23
03.765,-9.31
03.781,-11.94
03.796,-14.78
03.812,-17.4
03.828,-19.49
03.843,-21.01
03.859,-22.29
03.875,-23.84
03.890,-26.14
03.906,-29.49
03.921,-33.75
03.937,-38.49
03.953,-43.15
03.968,-47.21
03.984,-50.22
04.000,-51.84
04.015,-51.78
04.031,-49.82
04.046,-45.94
04.062,-40.35
04.078,-33.61
04.093,-26.53
04.109,-19.94
04.125,-14.43
04.140,-10.22
04.156,-7.11
04.171,-4.62
04.187,-2.28
04.203,0.22
04.218,2.96
04.234,5.84
04.250,8.78
04.265,11.89
04.281,15.42
04.296,19.65
04.312,24.67
04.328,30.19
04.343,35.6
04.359,40.16
04.375,43.39
04.390,45.25
04.406,46.16
04.421,46.76
04.437,47.58
04.453,48.77
04.468,49.99
04.484,50.62
04.500,50.03
04.515,47.89
04.531,44.29
04.546,39.63
04.562,34.51
04.578,29.43
04.593,24.67
04.609,20.3
04.625,16.3
04.640,12.68
04.656,9.44
04.671,6.64
04.687,4.29
04.703,2.29
04.718,0.56
04.734,-0.94
04.750,-2.23
04.765,-3.38
04.781,-4.62
04.796,-6.39
04.812,-9.22
04.828,-13.52
04.843,-19.26
04.859,-25.84
04.875,-32.17
04.890,-36.97
04.906,-39.18
04.921,-38.24
04.937,-34.22
04.953,-27.79
04.968,-19.96
04.984,-11.84
05.000,-4.36
05.015,1.92
05.031,6.78
05.046,10.29
05.062,12.65
05.078,14.07
05.093,14.65
05.109,14.48
05.125,13.61
05.140,12.18
05.156,10.34
05.171,8.36
05.187,6.44
05.203,4.69
05.218,3.2
05.234,1.99
05.250,1.19
05.265,0.89
05.281,1.19
05.296,2.03
05.312,3.22
05.328,4.42
05.343,5.28
05.359,5.56
05.375,5.18
05.390,4.34
05.406,3.41
05.421,2.88
05.437,3.14
05.453,4.35
05.468,6.36
05.484,8.72
05.500,10.83
05.515,12.07
05.531,12.11
05.546,10.84
05.562,8.48
05.578,5.38
05.593,1.88
05.609,-1.77
05.625,-5.43
05.640,-8.99
05.656,-12.38
05.671,-15.5
05.687,-18.36
05.703,-21.15
05.718,-24.14
05.734,-27.69
05.750,-31.93
05.765,-36.64
05.781,-41.16
05.796,-44.55
05.812,-45.89
05.828,-44.65
05.843,-40.93
05.859,-35.31
05.875,-28.72
05.890,-22.03
05.906,-15.82
05.921,-10.28
05.937,-5.35
05.953,-0.78
05.968,3.52
05.984,7.55
06.000,11.18
06.015,14.26
06.031,16.69
06.046,18.55
06.062,20.01
06.078,21.16
06.093,22.06
06.109,22.61
06.125,22.73
06.140,22.44
06.156,21.97
06.171,21.62
06.187,21.67
06.203,22.19
06.218,22.89
06.234,23.34
06.250,23.17
06.265,22.23
06.281,20.71
06.296,18.97
06.312,17.34
06.328,15.85
06.343,14.29
06.359,12.25
06.375,9.5
06.390,6.08
06.406,2.33
06.421,-1.27
06.437,-4.33
06.453,-6.67
06.468,-8.43
06.484,-9.9
06.500,-11.33
06.515,-12.87
06.531,-14.49
06.546,-16.06
06.562,-17.46
06.578,-18.68
06.593,-19.81
06.609,-21.01
06.625,-22.41
06.640,-24.06
06.656,-25.97
06.671,-28.18
06.687,-30.68
06.703,-33.48
06.718,-36.47
06.734,-39.24
06.750,-41.16
06.765,-41.46
06.781,-39.59
06.796,-35.41
06.812,-29.39
06.828,-22.38
06.843,-15.38
06.859,-9.15
06.875,-4.05
06.890,0.08
06.906,3.65
06.921,7.02
06.937,10.35
06.953,13.46
06.968,16.01
06.984,17.73
07.000,18.63
07.015,18.95
07.031,19.01
07.046,19.04
07.062,19.05
07.078,18.85
07.093,18.26
07.109,17.31
07.125,16.27
07.140,15.5
07.156,15.26
07.171,15.59
07.187,16.27
07.203,16.93
07.218,17.24
07.234,16.97
07.250,16.11
07.265,14.71
07.281,12.91
07.296,10.92
07.312,8.93
07.328,7.11
07.343,5.52
07.359,4.13
07.375,2.78
07.390,1.35
07.406,-0.23
07.421,-1.97
07.437,-3.81
07.453,-5.73
07.468,-7.71
07.484,-9.84
07.500,-12.16
07.515,-14.62
07.531,-17.19
07.546,-19.78
07.562,-22.45
07.578,-25.26
07.593,-28.31
07.609,-31.48
07.625,-34.44
07.640,-36.53
07.656,-37.08
07.671,-35.55
07.687,-31.8
07.703,-26.15
07.718,-19.33
07.734,-12.25
07.750,-5.69
07.765,-0.12
07.781,4.48
07.796,8.35
07.812,11.75
07.828,14.83
07.843,17.47
07.859,19.42
07.875,20.5
07.890,20.7
07.906,20.26
07.921,19.54
07.937,18.84
07.953,18.22
07.968,17.63
07.984,16.9
08.000,15.99
08.015,15.03
08.031,14.33
08.046,14.17
08.062,14.68
08.078,15.67
08.093,16.7
08.109,17.3
08.125,17.17
08.140,16.26
08.156,14.79
08.171,12.98
08.187,10.92
08.203,8.6
08.218,5.93
08.234,2.97
08.250,0.02
08.265,-2.57
08.281,-4.52
08.296,-5.78
08.312,-6.58
08.328,-7.34
08.343,-8.39
08.359,-9.93
08.375,-11.96
08.390,-14.3
08.406,-16.76
08.421,-19.17
08.437,-21.48
08.453,-23.82
08.468,-26.43
08.484,-29.54
08.500,-33.18
08.515,-37.09
08.531,-40.57
08.546,-42.79
08.562,-43.02
08.578,-40.93
08.593,-36.72
08.609,-30.97
08.625,-24.4
08.640,-17.6
08.656,-11.04
08.671,-4.95
08.687,0.52
08.703,5.21
08.718,9.06
08.734,12.05
08.750,14.36
08.765,16.3
08.781,18.23
08.796,20.33
08.812,22.6
08.828,24.76
08.843,26.39
08.859,27.13
08.875,26.8
08.890,25.54
08.906,23.76
08.921,21.98
08.937,20.64
08.953,19.95
08.968,19.77
08.984,19.83
09.000,19.88
09.015,19.78
09.031,19.55
09.046,19.24
09.062,18.82
09.078,18.13
09.093,16.94
09.109,15.1
09.125,12.61
09.140,9.7
09.156,6.69
09.171,3.82
09.187,1.24
09.203,-1.12
09.218,-3.33
09.234,-5.48
09.250,-7.51
09.265,-9.36
09.281,-10.91
09.296,-12.21
09.312,-13.37
09.328,-14.6
09.343,-16.07
09.359,-17.86
09.375,-19.93
09.390,-22.12
09.406,-24.34
09.421,-26.64
09.437,-29.23
09.453,-32.34
09.468,-36.09
09.484,-40.17
09.500,-43.86
09.515,-46.2
09.531,-46.33
09.546,-43.84
09.562,-38.94
09.578,-32.38
09.593,-25.11
09.609,-18.02
09.625,-11.6
09.640,-5.99
09.656,-1.13
09.671,3.1
09.687,6.77
09.703,9.85
09.718,12.41
09.734,14.58
09.750,16.56
09.765,18.53
09.781,20.54
09.796,22.48
09.812,24.01
09.828,24.8
09.843,24.68
09.859,23.69
09.875,22.26
09.890,20.93
09.906,20.22
09.921,20.34
09.937,21.19
09.953,22.39
09.968,23.45
09.984,23.98
10.000,23.8
10.015,22.97
10.031,21.64
10.046,20.04
10.062,18.29
10.078,16.38
10.093,14.25
10.109,11.89
10.125,9.38
10.140,6.9
10.156,4.66
10.171,2.78
10.187,1.22
10.203,-0.21
10.218,-1.75
10.234,-3.56
10.250,-5.68
10.265,-7.94
10.281,-10.15
10.296,-12.11
10.312,-13.76
10.328,-15.28
10.343,-16.97
10.359,-19.17
10.375,-22.13
10.390,-25.86
10.406,-30.05
10.421,-34.16
10.437,-37.58
10.453,-39.77
10.468,-40.42
10.484,-39.4
10.500,-36.73
10.515,-32.49
10.531,-26.92
10.546,-20.39
10.562,-13.5
10.578,-6.95
10.593,-1.33
10.609,3.12
10.625,6.46
10.640,9.02
10.656,11.11
10.671,12.95
10.687,14.56
10.703,15.79
10.718,16.55
10.734,16.82
10.750,16.7
10.765,16.39
10.781,16.12
10.796,16.07
10.812,16.31
10.828,16.77
10.843,17.22
10.859,17.42
10.875,17.23
10.890,16.67
10.906,16.0
10.921,15.52
10.937,15.37
10.953,15.37
10.968,15.12
10.984,14.21
11.000,12.42
11.015,9.94
11.031,7.19
11.046,4.68
11.062,2.69
11.078,1.12
11.093,-0.35
11.109,-2.09
11.125,-4.21
11.140,-6.55
11.156,-8.79
11.171,-10.73
11.187,-12.39
11.203,-14.12
11.218,-16.32
11.234,-19.26
11.250,-22.94
11.265,-27.01
11.281,-31.11
11.296,-34.95
11.312,-38.42
11.328,-41.54
11.343,-44.24
11.359,-46.17
11.375,-46.68
11.390,-45.11
11.406,-41.0
11.421,-34.43
11.437,-26.06
11.453,-16.97
11.468,-8.31
11.484,-0.93
11.500,4.83
11.515,9.17
11.531,12.53
11.546,15.46
11.562,18.21
11.578,20.79
11.593,22.94
11.609,24.37
11.625,24.92
11.640,24.72
11.656,24.09
11.671,23.44
11.687,23.07
11.703,23.01
11.718,23.12
11.734,23.16
11.750,22.98
11.765,22.62
11.781,22.26
11.796,22.07
11.812,22.09
11.828,22.14
11.843,21.91
11.859,21.14
11.875,19.8
11.890,18.07
11.906,16.3
11.921,14.78
11.937,13.58
11.953,12.53
11.968,11.29
11.984,9.5
12.000,7.02
12.015,3.91
12.031,0.41
12.046,-3.19
12.062,-6.72
12.078,-10.15
12.093,-13.51
12.109,-16.81
12.125,-20.01
12.140,-22.98
12.156,-25.64
12.171,-28.06
12.187,-30.52
12.203,-33.44
12.218,-37.14
12.234,-41.62
12.250,-46.4
12.265,-50.62
12.281,-53.25
12.296,-53.43
12.312,-50.73
12.328,-45.32
12.343,-37.88
12.359,-29.34
12.375,-20.71
12.390,-12.7
12.406,-5.73
12.421,0.19
12.437,5.22
12.453,9.63
12.468,13.56
12.484,17.06
12.500,20.1
12.515,22.64
12.531,24.8
12.546,26.71
12.562,28.49
12.578,30.1
12.593,31.38
12.609,32.14
12.625,32.35
12.640,32.17
12.656,31.9
12.671,31.9
12.687,32.25
12.703,32.75
12.718,33.07
12.734,32.84
12.750,31.93
12.765,30.5
12.781,28.91
12.796,27.5
12.812,26.43
12.828,25.55
12.843,24.49
12.859,22.89
12.875,20.53
12.890,17.53
12.906,14.27
12.921,11.2
12.937,8.52
12.953,6.23
12.968,4.03
12.984,1.57
13.000,-1.33
13.015,-4.64
13.031,-8.1
13.046,-11.39
13.062,-14.34
13.078,-17.06
13.093,-19.78
13.109,-22.78
13.125,-26.2
13.140,-30.0
13.156,-34.05
13.171,-38.19
13.187,-42.25
13.203,-45.98
13.218,-48.99
13.234,-50.64
13.250,-50.26
13.265,-47.39
13.281,-41.97
13.296,-34.5
13.312,-25.87
13.328,-17.08
13.343,-8.95
13.359,-1.96
13.375,3.89
13.390,8.82
13.406,13.14
13.421,17.1
13.437,20.73
13.453,23.91
13.468,26.44
13.484,28.14
13.500,28.99
13.515,29.18
13.531,29.01
13.546,28.8
13.562,28.76
13.578,28.84
13.593,28.88
13.609,28.7
13.625,28.2
13.640,27.43
13.656,26.61
13.671,25.88
13.687,25.33
13.703,24.88
13.718,24.37
13.734,23.62
13.750,22.54
13.765,21.14
13.781,19.48
13.796,17.62
13.812,15.54
13.828,13.22
13.843,10.66
13.859,7.87
13.875,5.01
13.890,2.22
13.906,-0.32
13.921,-2.56
13.937,-4.61
13.953,-6.68
13.968,-8.93
13.984,-11.38
14.000,-13.91
14.015,-16.3
14.031,-18.5
14.046,-20.65
14.062,-23.18
14.078,-26.51
14.093,-30.83
14.109,-35.75
14.125,-40.36
14.140,-43.53
14.156,-44.28
14.171,-42.2
14.187,-37.54
14.203,-31.08
14.218,-23.73
14.234,-16.29
14.250,-9.22
14.265,-2.7
14.281,3.24
14.296,8.49
14.312,12.92
14.328,16.38
14.343,18.82
14.359,20.4
14.375,21.41
14.390,22.15
14.406,22.86
14.421,23.59
14.437,24.27
14.453,24.74
14.468,24.93
14.484,24.88
14.500,24.76
14.515,24.77
14.531,25.01
14.546,25.44
14.562,25.84
14.578,25.91
14.593,25.4
14.609,24.24
14.625,22.58
14.640,20.72
14.656,18.94
14.671,17.39
14.687,16.02
14.703,14.58
14.718,12.83
14.734,10.64
14.750,8.0
14.765,5.05
14.781,1.92
14.796,-1.3
14.812,-4.57
14.828,-7.88
14.843,-11.22
14.859,-14.52
14.875,-17.66
14.890,-20.54
14.906,-23.12
14.921,-25.49
14.937,-27.84
14.953,-30.45
14.968,-33.59
14.984,-37.4
15.000,-41.69
15.015,-45.96
15.031,-49.48
15.046,-51.38
15.062,-51.07
15.078,-48.24
15.093,-43.12
15.109,-36.26
15.125,-28.46
15.140,-20.45
15.156,-12.81
15.171,-5.93
15.187,0.08
15.203,5.22
15.218,9.57
15.234,13.29
15.250,16.52
15.265,19.39
15.281,22.08
15.296,24.68
15.312,27.16
15.328,29.37
15.343,31.1
15.359,32.14
15.375,32.51
15.390,32.39
15.406,32.11
15.421,31.94
15.437,31.98
15.453,32.06
15.468,31.9
15.484,31.17
15.500,29.88
15.515,28.24
15.531,26.56
15.546,25.13
15.562,23.96
15.578,22.83
15.593,21.47
15.609,19.77
15.625,17.77
15.640,15.69
15.656,13.74
15.671,11.96
15.687,10.2
15.703,8.23
15.718,5.87
15.734,3.13
15.750,0.2
15.765,-2.76
15.781,-5.66
15.796,-8.51
15.812,-11.41
15.828,-14.45
15.843,-17.66
15.859,-21.04
15.875,-24.57
15.890,-28.2
15.906,-31.91
15.921,-35.73
15.937,-39.7
15.953,-43.84
15.968,-48.02
15.984,-51.85
16.000,-54.68
16.015,-55.77
16.031,-54.5
16.046,-50.68
16.062,-44.69
16.078,-37.32
16.093,-29.54
16.109,-22.15
16.125,-15.59
16.140,-9.95
16.156,-5.14
16.171,-0.94
16.187,2.74
16.203,5.97
16.218,8.81
16.234,11.28
16.250,13.43
16.265,15.32
16.281,16.92
16.296,18.11
16.312,18.75
16.328,18.75
16.343,18.11
16.359,17.03
16.375,15.85
16.390,14.96
16.406,14.64
16.421,15.03
16.437,15.94
16.453,17.01
16.468,17.81
16.484,18.04
16.500,17.66
16.515,16.76
16.531,15.55
16.546,14.19
16.562,12.76
16.578,11.24
16.593,9.59
16.609,7.79
16.625,5.9
16.640,4.01
16.656,2.25
16.671,0.67
16.687,-0.72
16.703,-1.99
16.718,-3.19
16.734,-4.37
16.750,-5.56
16.765,-6.75
16.781,-7.89
16.796,-8.95
16.812,-9.88
16.828,-10.5
16.843,-10.62
16.859,-9.96
16.875,-8.34
16.890,-5.77
16.906,-2.58
16.921,0.59
16.937,3.01
16.953,4.11
16.968,3.71
16.984,2.1
17.000,-0.1
17.015,-2.2
17.031,-3.7
17.046,-4.53
17.062,-4.89
17.078,-5.09
17.093,-5.3
17.109,-5.42
17.125,-5.17
17.140,-4.31
17.156,-2.73
17.171,-0.65
17.187,1.6
17.203,3.68
17.218,5.49
17.234,7.11
17.250,8.75
17.265,10.51
17.281,12.33
17.296,14.01
17.312,15.35
17.328,16.3
17.343,17.01
17.359,17.72
17.375,18.61
17.390,19.69
17.406,20.77
17.421,21.56
17.437,21.78
17.453,21.27
17.468,20.06
17.484,18.27
17.500,16.11
17.515,13.82
17.531,11.62
17.546,9.69
17.562,8.14
17.578,6.98
17.593,6.15
17.609,5.46
17.625,4.69
17.640,3.62
17.656,2.08
17.671,-0.03
17.687,-2.66
17.703,-5.69
17.718,-8.85
17.734,-11.87
17.750,-14.59
17.765,-17.04
17.781,-19.49
17.796,-22.36
17.812,-25.94
17.828,-30.18
17.843,-34.61
17.859,-38.35
17.875,-40.41
17.890,-40.07
17.906,-37.11
17.921,-31.88
17.937,-25.17
17.953,-17.91
17.968,-10.84
17.984,-4.36
18.000,1.46
18.015,6.79
18.031,11.73
18.046,16.23
18.062,20.09
18.078,23.08
18.093,25.03
18.109,26.06
18.125,26.45
18.140,26.53
18.156,26.51
18.171,26.38
18.187,26.01
18.203,25.27
18.218,24.2
18.234,23.02
18.250,22.07
18.265,21.53
18.281,21.36
18.296,21.31
18.312,21.0
18.328,20.15
18.343,18.73
18.359,16.95
18.375,15.16
18.390,13.61
18.406,12.32
18.421,11.02
18.437,9.33
18.453,7.0
18.468,4.07
18.484,0.93
18.500,-1.89
18.515,-4.02
18.531,-5.47
18.546,-6.63
18.562,-8.05
18.578,-10.16
18.593,-13.0
18.609,-16.28
18.625,-19.48
18.640,-22.19
18.656,-24.27
18.671,-25.93
18.687,-27.54
18.703,-29.57
18.718,-32.28
18.734,-35.7
18.750,-39.6
18.765,-43.48
18.781,-46.73
18.796,-48.74
18.812,-49.0
18.828,-47.2
18.843,-43.33
18.859,-37.64
18.875,-30.66
18.890,-23.05
18.906,-15.5
18.921,-8.62
18.937,-2.71
18.953,2.17
18.968,6.19
18.984,9.64
19.000,12.77
19.015,15.71
19.031,18.4
19.046,20.69
19.062,22.44
19.078,23.6
19.093,24.25
19.109,24.58
19.125,24.73
19.140,24.79
19.156,24.74
19.171,24.48
19.187,23.96
19.203,23.24
19.218,22.48
19.234,21.92
19.250,21.71
19.265,21.87
19.281,22.17
19.296,22.2
19.312,21.54
19.328,19.89
19.343,17.26
19.359,14.0
19.375,10.65
19.390,7.73
19.406,5.51
19.421,3.87
19.437,2.46
19.453,0.9
19.468,-0.97
19.484,-3.1
19.500,-5.26
19.515,-7.23
19.531,-8.99
19.546,-10.7
19.562,-12.61
19.578,-14.93
19.593,-17.69
19.609,-20.78
19.625,-23.99
19.640,-27.19
19.656,-30.4
19.671,-33.75
19.687,-37.26
19.703,-40.72
19.718,-43.54
19.734,-44.85
19.750,-43.88
19.765,-40.21
19.781,-34.13
19.796,-26.54
19.812,-18.63
19.828,-11.43
19.843,-5.47
19.859,-0.75
19.875,3.13
19.890,6.63
19.906,10.07
19.921,13.48
19.937,16.66
19.953,19.35
19.968,21.38
19.984,22.77
20.000,23.65
20.015,24.22
20.031,24.55
20.046,24.64
20.062,24.39
20.078,23.79
20.093,23.02
20.109,22.41
20.125,22.25
20.140,22.67
20.156,23.44
20.171,24.05
20.187,23.97
20.203,22.93
20.218,21.07
20.234,18.85
20.250,16.76
20.265,15.08
20.281,13.77
20.296,12.52
20.312,10.97
20.328,9.03
20.343,6.83
20.359,4.71
20.375,2.88
20.390,1.35
20.406,-0.13
20.421,-1.86
20.437,-4.04
20.453,-6.64
20.468,-9.41
20.484,-12.06
20.500,-14.44
20.515,-16.64
20.531,-18.91
20.546,-21.6
20.562,-24.85
20.578,-28.56
20.593,-32.36
20.609,-35.67
20.625,-37.92
20.640,-38.56
20.656,-37.3
20.671,-34.08
20.687,-29.18
20.703,-23.05
20.718,-16.32
20.734,-9.61
20.750,-3.42
20.765,1.88
20.781,6.14
20.796,9.34
20.812,11.62
20.828,13.14
20.843,14.17
20.859,14.95
20.875,15.62
20.890,16.26
20.906,16.79
20.921,17.09
20.937,17.07
20.953,16.76
20.968,16.26
20.984,15.76
21.000,15.42
21.015,15.24
21.031,15.17
21.046,15.06
21.062,14.79
21.078,14.29
21.093,13.52
21.109,12.49
21.125,11.23
21.140,9.77
21.156,8.18
21.171,6.61
21.187,5.14
21.203,3.87
21.218,2.83
21.234,1.98
21.250,1.2
21.265,0.31
21.281,-0.85
21.296,-2.44
21.312,-4.42
21.328,-6.76
21.343,-9.3
21.359,-11.87
21.375,-14.39
21.390,-16.92
21.406,-19.61
21.421,-22.64
21.437,-26.04
21.453,-29.59
21.468,-32.87
21.484,-35.25
21.500,-36.13
21.515,-35.1
21.531,-32.12
21.546,-27.51
21.562,-21.87
21.578,-15.85
21.593,-10.0
21.609,-4.65
21.625,0.05
21.640,4.04
21.656,7.25
21.671,9.69
21.687,11.48
21.703,12.91
21.718,14.39
21.734,16.28
21.750,18.72
21.765,21.46
21.781,23.91
21.796,25.35
21.812,25.26
21.828,23.54
21.843,20.62
21.859,17.32
21.875,14.55
21.890,12.92
21.906,12.56
21.921,13.07
21.937,13.79
21.953,14.11
21.968,13.73
21.984,12.74
22.000,11.48
22.015,10.28
22.031,9.26
22.046,8.33
22.062,7.3
22.078,6.04
22.093,4.55
22.109,2.88
22.125,1.04
22.140,-1.14
22.156,-3.88
22.171,-7.35
22.187,-11.42
22.203,-15.76
22.218,-19.87
22.234,-23.39
22.250,-26.21
22.265,-28.52
22.281,-30.66
22.296,-32.9
22.312,-35.25
22.328,-37.42
22.343,-38.84
22.359,-38.89
22.375,-37.05
22.390,-33.15
22.406,-27.48
22.421,-20.74
22.437,-13.87
22.453,-7.68
22.468,-2.68
22.484,1.1
22.500,3.97
22.515,6.34
22.531,8.48
22.546,10.42
22.562,11.98
22.578,13.07
22.593,13.78
22.609,14.44
22.625,15.39
22.640,16.78
22.656,18.34
22.671,19.52
22.687,19.78
22.703,18.82
22.718,16.93
22.734,14.81
22.750,13.29
22.765,12.86
22.781,13.52
22.796,14.71
22.812,15.65
22.828,15.76
22.843,14.86
22.859,13.27
22.875,11.47
22.890,9.94
22.906,8.8
22.921,7.91
22.937,6.97
22.953,5.77
22.968,4.27
22.984,2.63
23.000,1.02
23.015,-0.55
23.031,-2.32
23.046,-4.58
23.062,-7.58
23.078,-11.3
23.093,-15.35
23.109,-19.21
23.125,-22.44
23.140,-24.92
23.156,-26.95
23.171,-29.11
23.187,-31.79
23.203,-34.96
23.218,-37.99
23.234,-39.92
23.250,-39.88
23.265,-37.54
23.281,-33.19
23.296,-27.6
23.312,-21.58
23.328,-15.65
23.343,-9.92
23.359,-4.33
23.375,1.17
23.390,6.37
23.406,10.91
23.421,14.48
23.437,17.01
23.453,18.69
23.468,19.86
23.484,20.76
23.500,21.44
23.515,21.87
23.531,21.92
23.546,21.6
23.562,21.07
23.578,20.49
23.593,20.11
23.609,20.07
23.625,20.37
23.640,20.89
23.656,21.42
23.671,21.72
23.687,21.58
23.703,20.87
23.718,19.61
23.734,17.87
23.750,15.74
23.765,13.27
23.781,10.5
23.796,7.53
23.812,4.5
23.828,1.64
23.843,-0.81
23.859,-2.77
23.875,-4.27
23.890,-5.47
23.906,-6.62
23.921,-7.93
23.937,-9.51
23.953,-11.4
23.968,-13.61
23.984,-16.12
24.000,-18.95
24.015,-22.12
24.031,-25.53
24.046,-28.9
24.062,-31.72
24.078,-33.31
24.093,-33.08
24.109,-30.72
24.125,-26.33
24.140,-20.44
24.156,-13.88
24.171,-7.42
24.187,-1.59
24.203,3.44
24.218,7.76
24.234,11.49
24.250,14.57
24.265,16.78
24.281,17.87
24.296,17.71
24.312,16.49
24.328,14.72
24.343,13.01
24.359,11.87
24.375,11.51
24.390,11.79
24.406,12.38
24.421,12.93
24.437,13.25
24.453,13.36
24.468,13.38
24.484,13.44
24.500,13.57
24.515,13.67
24.531,13.55
24.546,13.06
24.562,12.14
24.578,10.89
24.593,9.55
24.609,8.34
24.625,7.38
24.640,6.64
24.656,5.86
24.671,4.77
24.687,3.2
24.703,1.13
24.718,-1.25
24.734,-3.7
24.750,-6.06
24.765,-8.39
24.781,-10.85
24.796,-13.62
24.812,-16.76
24.828,-20.05
24.843,-23.17
24.859,-25.67
24.875,-27.16
24.890,-27.42
24.906,-26.39
24.921,-24.16
24.937,-20.91
24.953,-16.87
24.968,-12.23
24.984,-7.23
25.000,-2.13
25.015,2.78
25.031,7.15
25.046,10.68
25.062,13.23
25.078,14.79
25.093,15.63
25.109,16.06
25.125,16.4
25.140,16.74
25.156,17.03
25.171,17.1
25.187,16.84
25.203,16.31
25.218,15.7
25.234,15.25
25.250,15.1
25.265,15.23
25.281,15.5
25.296,15.74
25.312,15.85
25.328,15.89
25.343,15.97
25.359,16.07
25.375,16.1
25.390,15.84
25.406,15.07
25.421,13.72
25.437,11.98
25.453,10.18
25.468,8.65
25.484,7.56
25.500,6.72
25.515,5.77
25.531,4.37
25.546,2.4
25.562,0.13
25.578,-1.95
25.593,-3.36
25.609,-3.94
25.625,-3.9
25.640,-3.77
25.656,-4.07
25.671,-5.12
25.687,-6.94
25.703,-9.3
25.718,-11.81
25.734,-14.1
25.750,-15.78
25.765,-16.45
25.781,-15.78
25.796,-13.59
25.812,-9.99
25.828,-5.38
25.843,-0.42
25.859,4.27
25.875,8.2
25.890,11.23
25.906,13.43
25.921,14.99
25.937,16.08
25.953,16.78
25.968,17.1
25.984,17.04
26.000,16.63
26.015,15.97
26.031,15.24
26.046,14.66
26.062,14.34
26.078,14.31
26.093,14.47
26.109,14.62
26.125,14.54
26.140,14.06
26.156,13.17
26.171,11.97
26.187,10.63
26.203,9.33
26.218,8.1
26.234,6.85
26.250,5.37
26.265,3.46
26.281,0.98
26.296,-1.96
26.312,-5.22
26.328,-8.52
26.343,-11.68
26.359,-14.66
26.375,-17.5
26.390,-20.28
26.406,-23.01
26.421,-25.62
26.437,-27.98
26.453,-29.99
26.468,-31.71
26.484,-33.26
26.500,-34.9
26.515,-36.81
26.531,-39.03
26.546,-41.29
26.562,-43.13
26.578,-43.92
26.593,-43.12
26.609,-40.45
26.625,-35.98
26.640,-30.22
26.656,-23.85
26.671,-17.59
26.687,-11.9
26.703,-6.98
26.718,-2.79
26.734,0.86
26.750,4.05
26.765,6.83
26.781,9.12
26.796,10.88
26.812,12.05
26.828,12.66
26.843,12.79
26.859,12.6
26.875,12.25
26.890,11.93
26.906,11.8
26.921,11.92
26.937,12.25
26.953,12.72
26.968,13.21
26.984,13.61
27.000,13.79
27.015,13.59
27.031,12.87
27.046,11.63
27.062,10.01
27.078,8.32
27.093,6.89
27.109,5.83
27.125,5.01
27.140,4.05
27.156,2.59
27.171,0.48
27.187,-2.12
27.203,-4.86
27.218,-7.38
27.234,-9.52
27.250,-11.32
27.265,-13.0
27.281,-14.78
27.296,-16.74
27.312,-18.82
27.328,-20.9
27.343,-22.98
27.359,-25.2
27.375,-27.85
27.390,-31.09
27.406,-34.77
27.421,-38.33
27.437,-40.83
27.453,-41.33
27.468,-39.26
27.484,-34.63
27.500,-28.14
27.515,-20.85
27.531,-13.78
27.546,-7.66
27.562,-2.69
27.578,1.27
27.593,4.5
27.609,7.23
27.625,9.52
27.640,11.33
27.656,12.64
27.671,13.57
27.687,14.36
27.703,15.18
27.718,16.07
27.734,16.89
27.750,17.41
27.765,17.48
27.781,17.09
27.796,16.49
27.812,16.0
27.828,15.91
27.843,16.29
27.859,17.04
27.875,17.8
27.890,18.25
27.906,18.15
27.921,17.4
27.937,16.07
27.953,14.3
27.968,12.26
27.984,10.09
28.000,7.98
28.015,6.02
28.031,4.3
28.046,2.8
28.062,1.36
28.078,-0.19
28.093,-2.01
28.109,-4.15
28.125,-6.53
28.140,-8.93
28.156,-11.16
28.171,-13.13
28.187,-14.89
28.203,-16.65
28.218,-18.64
28.234,-21.09
28.250,-24.1
28.265,-27.66
28.281,-31.5
28.296,-35.12
28.312,-37.82
28.328,-38.83
28.343,-37.59
28.359,-33.91
28.375,-28.12
28.390,-20.97
28.406,-13.43
28.421,-6.34
28.437,-0.24
28.453,4.71
28.468,8.65
28.484,11.84
28.500,14.53
28.515,16.87
28.531,18.92
28.546,20.64
28.562,22.02
28.578,22.99
28.593,23.55
28.609,23.69
28.625,23.43
28.640,22.87
28.656,22.22
28.671,21.71
28.687,21.64
28.703,22.17
28.718,23.24
28.734,24.55
28.750,25.61
28.765,25.88
28.781,25.05
28.796,23.17
28.812,20.63
28.828,18.11
28.843,16.21
28.859,15.28
28.875,15.23
28.890,15.6
28.906,15.76
28.921,15.2
28.937,13.68
28.953,11.27
28.968,8.28
28.984,5.0
29.000,1.63
29.015,-1.71
29.031,-4.99
29.046,-8.24
29.062,-11.48
29.078,-14.82
29.093,-18.44
29.109,-22.5
29.125,-27.12
29.140,-32.13
29.156,-37.02
29.171,-41.0
29.187,-43.2
29.203,-42.94
29.218,-39.99
29.234,-34.7
29.250,-27.81
29.265,-20.31
29.281,-13.08
29.296,-6.68
29.312,-1.35
29.328,2.88
29.343,6.07
29.359,8.24
29.375,9.36
29.390,9.56
29.406,9.11
29.421,8.49
29.437,8.18
29.453,8.47
29.468,9.37
29.484,10.62
29.500,11.85
29.515,12.82
29.531,13.54
29.546,14.2
29.562,15.03
29.578,16.11
29.593,17.25
29.609,18.11
29.625,18.3
29.640,17.65
29.656,16.26
29.671,14.46
29.687,12.62
29.703,10.95
29.718,9.45
29.734,7.96
29.750,6.26
29.765,4.22
29.781,1.86
29.796,-0.68
29.812,-3.22
29.828,-5.7
29.843,-8.17
29.859,-10.76
29.875,-13.59
29.890,-16.62
29.906,-19.64
29.921,-22.39
29.937,-24.72
29.953,-26.75
29.968,-28.89
29.984,-31.66
30.000,-35.32
30.015,-39.64
30.031,-43.82
30.046,-46.71
30.062,-47.31
30.078,-45.11
30.093,-40.31
30.109,-33.66
30.125,-26.14
30.140,-18.6
30.156,-11.54
30.171,-5.14
30.187,0.58
30.203,5.64
30.218,9.99
30.234,13.56
30.250,16.38
30.265,18.51
30.281,20.13
30.296,21.39
30.312,22.41
30.328,23.18
30.343,23.69
30.359,23.89
30.375,23.79
30.390,23.49
30.406,23.15
30.421,22.97
30.437,23.07
30.453,23.47
30.468,24.06
30.484,24.62
30.500,24.95
30.515,24.86
30.531,24.28
30.546,23.28
30.562,21.96
30.578,20.49
30.593,18.99
30.609,17.5
30.625,16.01
30.640,14.47
30.656,12.8
30.671,10.97
30.687,8.94
30.703,6.68
30.718,4.16
30.734,1.35
30.750,-1.77
30.765,-5.17
30.781,-8.82
30.796,-12.64
30.812,-16.55
30.828,-20.47
30.843,-24.37
30.859,-28.34
30.875,-32.51
30.890,-36.95
30.906,-41.54
30.921,-45.85
30.937,-49.12
30.953,-50.48
30.968,-49.28
30.984,-45.3
31.000,-38.91
31.015,-30.94
31.031,-22.32
31.046,-13.83
31.062,-5.91
31.078,1.26
31.093,7.64
31.109,13.17
31.125,17.77
31.140,21.37
31.156,24.04
31.171,26.03
31.187,27.65
31.203,29.16
31.218,30.63
31.234,31.9
31.250,32.75
31.265,33.16
31.281,33.25
31.296,33.33
31.312,33.62
31.328,34.15
31.343,34.68
31.359,34.87
31.375,34.43
31.390,33.28
31.406,31.65
31.421,29.82
31.437,27.99
31.453,26.15
31.468,24.11
31.484,21.67
31.500,18.8
31.515,15.75
31.531,12.85
31.546,10.49
31.562,8.77
31.578,7.55
31.593,6.46
31.609,5.04
31.625,3.04
31.640,0.43
31.656,-2.59
31.671,-5.73
31.687,-8.77
31.703,-11.69
31.718,-14.58
31.734,-17.57
31.750,-20.76
31.765,-24.17
31.781,-27.72
31.796,-31.39
31.812,-35.23
31.828,-39.16
31.843,-43.0
31.859,-46.25
31.875,-48.16
31.890,-47.99
31.906,-45.19
31.921,-39.73
31.937,-32.12
31.953,-23.4
31.968,-14.71
31.984,-7.03
32.000,-0.91
32.015,3.67
32.031,7.06
32.046,9.76
32.062,12.15
32.078,14.4
32.093,16.41
32.109,18.08
32.125,19.33
32.140,20.23
32.156,20.98
32.171,21.73
32.187,22.54
32.203,23.35
32.218,23.97
32.234,24.24
32.250,24.16
32.265,23.88
32.281,23.66
32.296,23.79
32.312,24.33
32.328,25.08
32.343,25.67
32.359,25.63
32.375,24.72
32.390,23.01
32.406,20.88
32.421,18.81
32.437,17.15
32.453,15.91
32.468,14.84
32.484,13.57
32.500,11.84
32.515,9.68
32.531,7.35
32.546,5.19
32.562,3.45
32.578,2.16
32.593,1.2
32.609,0.37
32.625,-0.45
32.640,-1.35
32.656,-2.41
32.671,-3.8
32.687,-5.78
32.703,-8.65
32.718,-12.47
32.734,-16.93
32.750,-21.34
32.765,-24.73
32.781,-26.23
32.796,-25.38
32.812,-22.28
32.828,-17.6
32.843,-12.21
32.859,-6.91
32.875,-2.17
32.890,1.86
32.906,5.26
32.921,8.11
32.937,10.41
32.953,12.12
32.968,13.16
32.984,13.61
33.000,13.64
33.015,13.45
33.031,13.21
33.046,12.96
33.062,12.67
33.078,12.29
33.093,11.84
33.109,11.42
33.125,11.2
33.140,11.29
33.156,11.75
33.171,12.51
33.187,13.42
33.203,14.26
33.218,14.8
33.234,14.88
33.250,14.43
33.265,13.46
33.281,12.06
33.296,10.29
33.312,8.21
33.328,5.88
33.343,3.28
33.359,0.48
33.375,-2.35
33.390,-5.02
33.406,-7.32
33.421,-9.18
33.437,-10.73
33.453,-12.28
33.468,-14.1
33.484,-16.38
33.500,-19.08
33.515,-21.93
33.531,-24.64
33.546,-26.98
33.562,-28.94
33.578,-30.8
33.593,-32.99
33.609,-35.85
33.625,-39.48
33.640,-43.58
33.656,-47.47
33.671,-50.31
33.687,-51.36
33.703,-50.24
33.718,-46.99
33.734,-41.99
33.750,-35.75
33.765,-28.77
33.781,-21.42
33.796,-14.04
33.812,-6.99
33.828,-0.62
33.843,4.8
33.859,9.2
33.875,12.74
33.890,15.7
33.906,18.39
33.921,20.97
33.937,23.4
33.953,25.45
33.968,26.89
33.984,27.58
34.000,27.57
34.015,27.04
34.031,26.31
34.046,25.68
34.062,25.34
34.078,25.34
34.093,25.52
34.109,25.64
34.125,25.48
34.140,24.93
34.156,23.94
34.171,22.66
34.187,21.22
34.203,19.72
34.218,18.22
34.234,16.7
34.250,15.12
34.265,13.47
34.281,11.74
34.296,9.88
34.312,7.85
34.328,5.58
34.343,3.01
34.359,0.19
34.375,-2.72
34.390,-5.51
34.406,-8.01
34.421,-10.18
34.437,-12.16
34.453,-14.19
34.468,-16.51
34.484,-19.2
34.500,-22.11
34.515,-25.02
34.531,-27.74
34.546,-30.37
34.562,-33.17
34.578,-36.4
34.593,-40.03
34.609,-43.59
34.625,-46.27
34.640,-47.17
34.656,-45.77
34.671,-42.13
34.687,-36.81
34.703,-30.58
34.718,-24.15
34.734,-17.86
34.750,-11.84
34.765,-6.07
34.781,-0.58
34.796,4.43
34.812,8.74
34.828,12.2
34.843,14.91
34.859,17.08
34.875,18.95
34.890,20.68
34.906,22.17
34.921,23.24
34.937,23.66
34.953,23.44
34.968,22.77
34.984,22.03
35.000,21.58
35.015,21.64
35.031,22.2
35.046,22.96
35.062,23.57
35.078,23.69
35.093,23.22
35.109,22.25
35.125,21.07
35.140,19.93
35.156,18.94
35.171,18.06
35.187,17.06
35.203,15.79
35.218,14.19
35.234,12.41
35.250,10.62
35.265,8.95
35.281,7.38
35.296,5.73
35.312,3.83
35.328,1.62
35.343,-0.75
35.359,-3.08
35.375,-5.17
35.390,-6.98
35.406,-8.65
35.421,-10.43
35.437,-12.47
35.453,-14.77
35.468,-17.14
35.484,-19.28
35.500,-20.96
35.515,-22.27
35.531,-23.49
35.546,-25.15
35.562,-27.72
35.578,-31.28
35.593,-35.43
35.609,-39.31
35.625,-41.84
35.640,-42.13
35.656,-39.84
35.671,-35.24
35.687,-29.1
35.703,-22.39
35.718,-15.86
35.734,-9.95
35.750,-4.73
35.765,-0.01
35.781,4.34
35.796,8.31
35.812,11.74
35.828,14.44
35.843,16.33
35.859,17.58
35.875,18.51
35.890,19.42
35.906,20.41
35.921,21.31
35.937,21.84
35.953,21.75
35.968,21.08
35.984,20.11
36.000,19.31
36.015,19.04
36.031,19.38
36.046,20.09
36.062,20.72
36.078,20.89
36.093,20.42
36.109,19.4
36.125,18.02
36.140,16.53
36.156,15.03
36.171,13.45
36.187,11.72
36.203,9.74
36.218,7.56
36.234,5.27
36.250,3.0
36.265,0.78
36.281,-1.48
36.296,-3.89
36.312,-6.5
36.328,-9.13
36.343,-11.48
36.359,-13.15
36.375,-13.95
36.390,-13.98
36.406,-13.7
36.421,-13.77
36.437,-14.76
36.453,-16.96
36.468,-20.21
36.484,-24.07
36.500,-27.91
36.515,-31.26
36.531,-33.77
36.546,-35.26
36.562,-35.59
36.578,-34.56
36.593,-31.94
36.609,-27.58
36.625,-21.63
36.640,-14.64
36.656,-7.4
36.671,-0.84
36.687,4.46
36.703,8.37
36.718,11.2
36.734,13.5
36.750,15.77
36.765,18.14
36.781,20.45
36.796,22.36
36.812,23.61
36.828,24.13
36.843,24.01
36.859,23.49
36.875,22.73
36.890,21.87
36.906,21.0
36.921,20.26
36.937,19.76
36.953,19.6
36.968,19.84
36.984,20.41
37.000,21.12
37.015,21.73
37.031,21.98
37.046,21.65
37.062,20.64
37.078,18.98
37.093,16.81
37.109,14.37
37.125,11.91
37.140,9.55
37.156,7.3
37.171,5.04
37.187,2.68
37.203,0.17
37.218,-2.43
37.234,-5.0
37.250,-7.47
37.265,-9.81
37.281,-12.13
37.296,-14.56
37.312,-17.21
37.328,-20.04
37.343,-22.88
37.359,-25.49
37.375,-27.74
37.390,-29.65
37.406,-31.51
37.421,-33.68
37.437,-36.35
37.453,-39.4
37.468,-42.37
37.484,-44.49
37.500,-45.03
37.515,-43.49
37.531,-39.73
37.546,-34.09
37.562,-27.11
37.578,-19.51
37.593,-11.9
37.609,-4.8
37.625,1.53
37.640,7.02
37.656,11.71
37.671,15.73
37.687,19.17
37.703,22.11
37.718,24.57
37.734,26.56
37.750,28.1
37.765,29.25
37.781,30.04
37.796,30.48
37.812,30.56
37.828,30.3
37.843,29.81
37.859,29.22
37.875,28.68
37.890,28.29
37.906,28.06
37.921,27.9
37.937,27.7
37.953,27.39
37.968,26.9
37.984,26.23
38.000,25.33
38.015,24.15
38.031,22.66
38.046,20.87
38.062,18.94
38.078,17.01
38.093,15.22
38.109,13.61
38.125,12.13
38.140,10.66
38.156,9.02
38.171,7.13
38.187,4.92
38.203,2.48
38.218,-0.04
38.234,-2.5
38.250,-4.78
38.265,-6.95
38.281,-9.16
38.296,-11.57
38.312,-14.23
38.328,-17.03
38.343,-19.74
38.359,-22.12
38.375,-24.08
38.390,-25.75
38.406,-27.44
38.421,-29.47
38.437,-31.95
38.453,-34.66
38.468,-37.07
38.484,-38.46
38.500,-38.15
38.515,-35.76
38.531,-31.36
38.546,-25.43
38.562,-18.71
38.578,-11.97
38.593,-5.82
38.609,-0.58
38.625,3.71
38.640,7.16
38.656,9.93
38.671,12.21
38.687,14.19
38.703,16.02
38.718,17.85
38.734,19.75
38.750,21.64
38.765,23.35
38.781,24.64
38.796,25.33
38.812,25.38
38.828,24.98
38.843,24.47
38.859,24.2
38.875,24.39
38.890,24.95
38.906,25.54
38.921,25.75
38.937,25.3
38.953,24.21
38.968,22.79
38.984,21.52
39.000,20.82
39.015,20.86
39.031,21.52
39.046,22.39
39.062,23.03
39.078,23.09
39.093,22.46
39.109,21.29
39.125,19.84
39.140,18.32
39.156,16.76
39.171,14.93
39.187,12.51
39.203,9.3
39.218,5.41
39.234,1.29
39.250,-2.5
39.265,-5.58
39.281,-7.94
39.296,-9.97
39.312,-12.25
39.328,-15.19
39.343,-18.92
39.359,-23.19
39.375,-27.65
39.390,-32.07
39.406,-36.33
39.421,-40.36
39.437,-43.89
39.453,-46.38
39.468,-47.08
39.484,-45.44
39.500,-41.29
39.515,-35.15
39.531,-27.93
39.546,-20.71
39.562,-14.25
39.578,-8.9
39.593,-4.56
39.609,-0.91
39.625,2.28
39.640,5.03
39.656,7.17
39.671,8.54
39.687,9.13
39.703,9.16
39.718,8.96
39.734,8.8
39.750,8.82
39.765,8.9
39.781,8.88
39.796,8.65
39.812,8.32
39.828,8.1
39.843,8.16
39.859,8.52
39.875,8.96
39.890,9.2
39.906,9.05
39.921,8.62
39.937,8.09
39.953,7.71
39.968,7.52
39.984,7.3
40.000,6.74
40.015,5.61
40.031,3.95
40.046,1.97
40.062,0.09
40.078,-1.42
40.093,-2.47
40.109,-3.25
40.125,-4.13
40.140,-5.44
40.156,-7.33
40.171,-9.72
40.187,-12.32
40.203,-14.76
40.218,-16.86
40.234,-18.64
40.250,-20.3
40.265,-22.14
40.281,-24.43
40.296,-27.25
40.312,-30.48
40.328,-33.8
40.343,-36.72
40.359,-38.65
40.375,-39.02
40.390,-37.44
40.406,-33.85
40.421,-28.53
40.437,-22.12
40.453,-15.4
40.468,-9.07
40.484,-3.58
40.500,0.91
40.515,4.43
40.531,7.21
40.546,9.5
40.562,11.56
40.578,13.63
40.593,15.77
40.609,17.88
40.625,19.75
40.640,21.18
40.656,22.06
40.671,22.44
40.687,22.44
40.703,22.25
40.718,21.97
40.734,21.63
40.750,21.16
40.765,20.53
40.781,19.73
40.796,18.8
40.812,17.81
40.828,16.8
40.843,15.75
40.859,14.66
40.875,13.46
40.890,12.14
40.906,10.7
40.921,9.16
40.937,7.6
40.953,6.11
40.968,4.73
40.984,3.45
41.000,2.23
41.015,0.96
41.031,-0.42
41.046,-1.95
41.062,-3.66
41.078,-5.61
41.093,-7.82
41.109,-10.4
41.125,-13.38
41.140,-16.67
41.156,-20.1
41.171,-23.33
41.187,-26.1
41.203,-28.28
41.218,-30.04
41.234,-31.77
41.250,-33.96
41.265,-36.83
41.281,-40.2
41.296,-43.45
41.312,-45.74
41.328,-46.34
41.343,-44.86
41.359,-41.38
41.375,-36.33
41.390,-30.35
41.406,-24.07
41.421,-17.89
41.437,-12.06
41.453,-6.7
41.468,-1.89
41.484,2.27
41.500,5.74
41.515,8.59
41.531,11.0
41.546,13.25
41.562,15.63
41.578,18.19
41.593,20.81
41.609,23.14
41.625,24.7
41.640,25.21
41.656,24.68
41.671,23.4
41.687,21.95
41.703,20.9
41.718,20.58
41.734,21.04
41.750,21.94
41.765,22.82
41.781,23.29
41.796,23.16
41.812,22.56
41.828,21.79
41.843,21.09
41.859,20.48
41.875,19.8
41.890,18.72
41.906,17.02
41.921,14.73
41.937,12.11
41.953,9.55
41.968,7.3
41.984,5.38
42.000,3.55
42.015,1.53
42.031,-0.92
42.046,-3.76
42.062,-6.68
42.078,-9.36
42.093,-11.49
42.109,-13.03
42.125,-14.18
42.140,-15.25
42.156,-16.42
42.171,-17.76
42.187,-19.22
42.203,-20.77
42.218,-22.6
42.234,-24.96
42.250,-28.03
42.265,-31.63
42.281,-35.17
42.296,-37.73
42.312,-38.5
42.328,-37.09
42.343,-33.69
42.359,-29.0
42.375,-23.76
42.390,-18.55
42.406,-13.52
42.421,-8.59
42.437,-3.61
42.453,1.35
42.468,6.02
42.484,10.05
42.500,13.1
42.515,15.16
42.531,16.36
42.546,17.0
42.562,17.33
42.578,17.48
42.593,17.49
42.609,17.32
42.625,17.03
42.640,16.64
42.656,16.36
42.671,16.35
42.687,16.74
42.703,17.51
42.718,18.49
42.734,19.4
42.750,19.96
42.765,19.99
42.781,19.48
42.796,18.6
42.812,17.6
42.828,16.66
42.843,15.87
42.859,15.12
42.875,14.25
42.890,13.09
42.906,11.63
42.921,9.91
42.937,8.12
42.953,6.42
42.968,4.86
42.984,3.33
43.000,1.58
43.015,-0.62
43.031,-3.4
43.046,-6.54
43.062,-9.65
43.078,-12.23
43.093,-14.0
43.109,-15.03
43.125,-15.66
43.140,-16.43
43.156,-17.74
43.171,-19.76
43.187,-22.36
43.203,-25.35
43.218,-28.41
43.234,-31.21
43.250,-33.37
43.265,-34.34
43.281,-33.67
43.296,-30.98
43.312,-26.32
43.328,-20.11
43.343,-13.13
43.359,-6.2
43.375,-0.05
43.390,4.91
43.406,8.62
43.421,11.27
43.437,13.18
43.453,14.66
43.468,15.97
43.484,17.23
43.500,18.41
43.515,19.43
43.531,20.18
43.546,20.64
43.562,20.87
43.578,20.94
43.593,20.9
43.609,20.78
43.625,20.56
43.640,20.25
43.656,19.89
43.671,19.54
43.687,19.23
43.703,18.85
43.718,18.3
43.734,17.47
43.750,16.34
43.765,15.03
43.781,13.65
43.796,12.31
43.812,10.97
43.828,9.59
43.843,8.08
43.859,6.39
43.875,4.53
43.890,2.56
43.906,0.53
43.921,-1.5
43.937,-3.53
43.953,-5.64
43.968,-7.88
43.984,-10.36
44.000,-13.09
44.015,-16.01
44.031,-18.89
44.046,-21.51
44.062,-23.74
44.078,-25.7
44.093,-27.77
44.109,-30.34
44.125,-33.64
44.140,-37.43
44.156,-41.08
44.171,-43.7
44.187,-44.51
44.203,-43.11
44.218,-39.64
44.234,-34.63
44.250,-28.68
44.265,-22.32
44.281,-15.81
44.296,-9.22
44.312,-2.64
44.328,3.77
44.343,9.7
44.359,14.84
44.375,18.97
44.390,22.16
44.406,24.67
44.421,26.83
44.437,28.94
44.453,31.06
44.468,33.09
44.484,34.73
44.500,35.78
44.515,36.06
44.531,35.65
44.546,34.79
44.562,33.79
44.578,32.88
44.593,32.09
44.609,31.3
44.625,30.28
44.640,28.9
44.656,27.18
44.671,25.35
44.687,23.6
44.703,21.95
44.718,20.23
44.734,18.07
44.750,15.2
44.765,11.64
44.781,7.73
44.796,3.99
44.812,0.83
44.828,-1.67
44.843,-3.78
44.859,-5.86
44.875,-8.18
44.890,-10.75
44.906,-13.33
44.921,-15.71
44.937,-17.86
44.953,-19.92
44.968,-22.11
44.984,-24.63
45.000,-27.43
45.015,-30.37
45.031,-33.32
45.046,-36.26
45.062,-39.26
45.078,-42.34
45.093,-45.25
45.109,-47.44
45.125,-48.26
45.140,-47.16
45.156,-44.0
45.171,-39.08
45.187,-33.02
45.203,-26.51
45.218,-20.1
45.234,-14.05
45.250,-8.35
45.265,-3.0
45.281,1.99
45.296,6.48
45.312,10.28
45.328,13.28
45.343,15.52
45.359,17.17
45.375,18.48
45.390,19.68
45.406,20.87
45.421,22.11
45.437,23.35
45.453,24.53
45.468,25.58
45.484,26.42
45.500,26.97
45.515,27.18
45.531,27.09
45.546,26.8
45.562,26.5
45.578,26.31
45.593,26.23
45.609,26.18
45.625,25.97
45.640,25.39
45.656,24.37
45.671,22.9
45.687,21.06
45.703,18.92
45.718,16.5
45.734,13.78
45.750,10.84
45.765,7.81
45.781,4.94
45.796,2.55
45.812,0.79
45.828,-0.44
45.843,-1.57
45.859,-3.14
45.875,-5.55
45.890,-8.85
45.906,-12.65
45.921,-16.37
45.937,-19.45
45.953,-21.7
45.968,-23.3
45.984,-24.74
46.000,-26.56
46.015,-29.12
46.031,-32.45
46.046,-36.25
46.062,-39.98
46.078,-42.98
46.093,-44.58
46.109,-44.21
46.125,-41.58
46.140,-36.74
46.156,-30.18
46.171,-22.69
46.187,-15.09
46.203,-8.12
46.218,-2.2
46.234,2.66
46.250,6.67
46.265,10.18
46.281,13.42
46.296,16.48
46.312,19.23
46.328,21.44
46.343,22.88
46.359,23.42
46.375,23.11
46.390,22.18
46.406,20.96
46.421,19.81
46.437,18.94
46.453,18.38
46.468,17.98
46.484,17.55
46.500,16.98
46.515,16.34
46.531,15.84
46.546,15.62
46.562,15.69
46.578,15.81
46.593,15.65
46.609,14.98
46.625,13.84
46.640,12.46
46.656,11.16
46.671,10.04
46.687,8.99
46.703,7.71
46.718,5.98
46.734,3.73
46.750,1.15
46.765,-1.5
46.781,-4.01
46.796,-6.34
46.812,-8.62
46.828,-10.99
46.843,-13.46
46.859,-15.89
46.875,-18.1
46.890,-19.97
46.906,-21.62
46.921,-23.28
46.937,-25.31
46.953,-27.93
46.968,-31.09
46.984,-34.38
47.000,-37.06
47.015,-38.36
47.031,-37.63
47.046,-34.69
47.062,-29.85
47.078,-23.8
47.093,-17.36
47.109,-11.17
47.125,-5.57
47.140,-0.58
47.156,3.94
47.171,8.04
47.187,11.61
47.203,14.46
47.218,16.43
47.234,17.6
47.250,18.3
47.265,18.92
47.281,19.75
47.296,20.81
47.312,21.76
47.328,22.2
47.343,21.87
47.359,20.89
47.375,19.76
47.390,19.15
47.406,19.53
47.421,20.95
47.437,23.05
47.453,25.24
47.468,26.96
47.484,27.95
47.500,28.19
47.515,27.81
47.531,26.97
47.546,25.78
47.562,24.35
47.578,22.97
47.593,21.99
47.609,21.69
47.625,22.11
47.640,22.98
47.656,23.76
47.671,23.93
47.687,23.18
47.703,21.51
47.718,19.13
47.734,16.25
47.750,12.92
47.765,8.97
47.781,4.15
47.796,-1.67
47.812,-8.41
47.828,-15.78
47.843,-23.46
47.859,-31.15
47.875,-38.69
47.890,-45.81
47.906,-52.12
47.921,-56.93
47.937,-59.5
47.953,-59.19
47.968,-55.88
47.984,-49.95
48.000,-42.32
48.015,-34.09
48.031,-26.14
48.046,-19.0
48.062,-12.87
48.078,-7.7
48.093,-3.34
48.109,0.34
48.125,3.42
48.140,6.0
48.156,8.09
48.171,9.72
48.187,10.89
48.203,11.6
48.218,11.85
48.234,11.79
48.250,11.68
48.265,11.84
48.281,12.55
48.296,13.83
48.312,15.51
48.328,17.22
48.343,18.57
48.359,19.34
48.375,19.5
48.390,19.21
48.406,18.65
48.421,18.02
48.437,17.35
48.453,16.62
48.468,15.76
48.484,14.81
48.500,13.87
48.515,13.07
48.531,12.48
48.546,12.05
48.562,11.62
48.578,10.94
48.593,9.85
48.609,8.31
48.625,6.41
48.640,4.33
48.656,2.16
48.671,-0.11
48.687,-2.6
48.703,-5.38
48.718,-8.41
48.734,-11.44
48.750,-14.12
48.765,-16.25
48.781,-17.91
48.796,-19.46
48.812,-21.44
48.828,-24.23
48.843,-27.86
48.859,-31.95
48.875,-35.85
48.890,-38.89
48.906,-40.66
48.921,-41.26
48.937,-41.03
48.953,-40.39
48.968,-39.45
48.984,-37.93
49.000,-35.3
49.015,-31.11
49.031,-25.24
49.046,-18.1
49.062,-10.42
49.078,-2.99
49.093,3.59
49.109,9.05
49.125,13.41
49.140,16.81
49.156,19.35
49.171,21.05
49.187,21.88
49.203,21.89
49.218,21.27
49.234,20.39
49.250,19.74
49.265,19.74
49.281,20.59
49.296,22.11
49.312,23.81
49.328,25.08
49.343,25.45
49.359,24.88
49.375,23.67
49.390,22.31
49.406,21.26
49.421,20.66
49.437,20.3
49.453,19.82
49.468,18.89
49.484,17.37
49.500,15.37
49.515,13.14
49.531,10.89
49.546,8.66
49.562,6.38
49.578,3.88
49.593,1.05
49.609,-2.0
49.625,-5.04
49.640,-7.73
49.656,-9.87
49.671,-11.46
49.687,-12.76
49.703,-14.14
49.718,-15.88
49.734,-18.08
49.750,-20.63
49.765,-23.39
49.781,-26.28
49.796,-29.32
49.812,-32.56
49.828,-35.78
49.843,-38.5
49.859,-39.93
49.875,-39.34
49.890,-36.38
49.906,-31.31
49.921,-24.91
49.937,-18.17
49.953,-11.94
49.968,-6.58
49.984,-1.98
50.000,2.25
50.015,6.36
50.031,10.37
50.046,13.87
50.062,16.4
50.078,17.7
50.093,17.89
50.109,17.49
50.125,17.17
50.140,17.39
50.156,18.21
50.171,19.28
50.187,20.13
50.203,20.4
50.218,20.08
50.234,19.49
50.250,19.01
50.265,18.88
50.281,19.09
50.296,19.41
50.312,19.64
50.328,19.84
50.343,20.29
50.359,21.28
50.375,22.93
50.390,25.03
50.406,27.03
50.421,28.4
50.437,28.79
50.453,28.26
50.468,27.03
50.484,25.28
50.500,22.88
50.515,19.5
50.531,14.8
50.546,8.7
50.562,1.65
50.578,-5.53
50.593,-11.94
50.609,-17.02
50.625,-20.67
50.640,-23.31
50.656,-25.62
50.671,-28.29
50.687,-31.67
50.703,-35.75
50.718,-40.08
50.734,-43.88
50.750,-46.32
50.765,-46.72
50.781,-44.77
50.796,-40.66
50.812,-34.96
50.828,-28.47
50.843,-21.93
50.859,-15.87
50.875,-10.52
50.890,-5.88
50.906,-1.88
50.921,1.59
50.937,4.6
50.953,7.17
50.968,9.35
50.984,11.25
51.000,12.93
51.015,14.47
51.031,15.85
51.046,17.01
51.062,17.79
51.078,18.12
51.093,18.07
51.109,17.84
51.125,17.74
51.140,17.97
51.156,18.55
51.171,19.24
51.187,19.71
51.203,19.71
51.218,19.2
51.234,18.39
51.250,17.58
51.265,16.95
51.281,16.45
51.296,15.84
51.312,14.81
51.328,13.19
51.343,11.03
51.359,8.56
51.375,6.13
51.390,4.02
51.406,2.35
51.421,0.98
51.437,-0.33
51.453,-1.85
51.468,-3.76
51.484,-5.99
51.500,-8.37
51.515,-10.66
51.531,-12.79
51.546,-14.87
51.562,-17.2
51.578,-20.09
51.593,-23.67
51.609,-27.85
51.625,-32.29
51.640,-36.55
51.656,-40.22
51.671,-42.97
51.687,-44.51
51.703,-44.61
51.718,-43.06
51.734,-39.79
51.750,-34.98
51.765,-29.04
51.781,-22.6
51.796,-16.27
51.812,-10.48
51.828,-5.45
51.843,-1.13
51.859,2.58
51.875,5.81
51.890,8.68
51.906,11.27
51.921,13.62
51.937,15.8
51.953,17.85
51.968,19.7
51.984,21.3
52.000,22.61
52.015,23.66
52.031,24.57
52.046,25.53
52.062,26.61
52.078,27.86
52.093,29.2
52.109,30.48
52.125,31.51
52.140,32.08
52.156,31.99
52.171,31.13
52.187,29.56
52.203,27.5
52.218,25.28
52.234,23.21
52.250,21.41
52.265,19.79
52.281,18.09
52.296,16.04
52.312,13.52
52.328,10.67
52.343,7.77
52.359,5.07
52.375,2.62
52.390,0.23
52.406,-2.49
52.421,-5.85
52.437,-9.98
52.453,-14.61
52.468,-19.26
52.484,-23.42
52.500,-26.71
52.515,-29.13
52.531,-30.99
52.546,-32.82
52.562,-35.09
52.578,-38.05
52.593,-41.56
52.609,-45.09
52.625,-47.85
52.640,-49.09
52.656,-48.28
52.671,-45.27
52.687,-40.32
52.703,-33.95
52.718,-26.81
52.734,-19.52
52.750,-12.61
52.765,-6.45
52.781,-1.32
52.796,2.7
52.812,5.7
52.828,7.98
52.843,9.91
52.859,11.76
52.875,13.68
52.890,15.54
52.906,17.16
52.921,18.37
52.937,19.13
52.953,19.54
52.968,19.8
52.984,20.14
53.000,20.7
53.015,21.54
53.031,22.6
53.046,23.65
53.062,24.42
53.078,24.68
53.093,24.31
53.109,23.43
53.125,22.26
53.140,21.04
53.156,19.85
53.171,18.63
53.187,17.23
53.203,15.52
53.218,13.59
53.234,11.68
53.250,10.09
53.265,8.95
53.281,8.15
53.296,7.28
53.312,5.96
53.328,4.0
53.343,1.52
53.359,-1.12
53.375,-3.47
53.390,-5.36
53.406,-6.88
53.421,-8.28
53.437,-9.87
53.453,-11.73
53.468,-13.74
53.484,-15.75
53.500,-17.68
53.515,-19.66
53.531,-21.88
53.546,-24.39
53.562,-26.87
53.578,-28.71
53.593,-29.15
53.609,-27.61
53.625,-23.95
53.640,-18.6
53.656,-12.38
53.671,-6.22
53.687,-0.8
53.703,3.56
53.718,6.91
53.734,9.53
53.750,11.69
53.765,13.54
53.781,15.1
53.796,16.36
53.812,17.31
53.828,18.07
53.843,18.77
53.859,19.52
53.875,20.39
53.890,21.39
53.906,22.44
53.921,23.46
53.937,24.3
53.953,24.75
53.968,24.73
53.984,24.23
54.000,23.38
54.015,22.45
54.031,21.77
54.046,21.55
54.062,21.94
54.078,22.94
54.093,24.41
54.109,26.15
54.125,27.84
54.140,29.12
54.156,29.71
54.171,29.54
54.187,28.7
54.203,27.43
54.218,25.89
54.234,23.9
54.250,21.07
54.265,16.9
54.281,11.11
54.296,3.96
54.312,-3.94
54.328,-11.78
54.343,-18.95
54.359,-25.28
54.375,-30.97
54.390,-36.38
54.406,-41.72
54.421,-46.88
54.437,-51.32
54.453,-54.32
54.468,-55.17
54.484,-53.46
54.500,-49.27
54.515,-43.22
54.531,-36.22
54.546,-29.29
54.562,-23.14
54.578,-18.04
54.593,-13.83
54.609,-10.17
54.625,-6.76
54.640,-3.59
54.656,-0.82
54.671,1.36
54.687,2.9
54.703,3.93
54.718,4.71
54.734,5.39
54.750,5.95
54.765,6.27
54.781,6.12
54.796,5.49
54.812,4.58
54.828,3.75
54.843,3.32
54.859,3.44
54.875,4.0
54.890,4.61
54.906,4.83
54.921,4.33
54.937,3.07
54.953,1.3
54.968,-0.52
54.984,-1.87
55.000,-2.44
55.015,-2.23
55.031,-1.55
55.046,-0.86
55.062,-0.57
55.078,-0.82
55.093,-1.47
55.109,-2.28
55.125,-3.09
55.140,-4.0
55.156,-5.3
55.171,-7.29
55.187,-9.94
55.203,-12.86
55.218,-15.44
55.234,-17.19
55.250,-18.11
55.265,-18.62
55.281,-19.47
55.296,-21.22
55.312,-23.95
55.328,-27.23
55.343,-30.33
55.359,-32.54
55.375,-33.4
55.390,-32.77
55.406,-30.76
55.421,-27.52
55.437,-23.26
55.453,-18.29
55.468,-12.98
55.484,-7.8
55.500,-3.16
55.515,0.73
55.531,3.87
55.546,6.48
55.562,8.85
55.578,11.19
55.593,13.59
55.609,16.0
55.625,18.32
55.640,20.43
55.656,22.28
55.671,23.85
55.687,25.13
55.703,26.05
55.718,26.58
55.734,26.72
55.750,26.53
55.765,26.14
55.781,25.65
55.796,25.07
55.812,24.36
55.828,23.51
55.843,22.56
55.859,21.64
55.875,20.87
55.890,20.26
55.906,19.69
55.921,18.96
55.937,17.89
55.953,16.49
55.968,14.89
55.984,13.26
56.000,11.72
56.015,10.26
56.031,8.77
56.046,7.23
56.062,5.72
56.078,4.43
56.093,3.53
56.109,3.04
56.125,2.75
56.140,2.32
56.156,1.38
56.171,-0.29
56.187,-2.62
56.203,-5.39
56.218,-8.23
56.234,-10.92
56.250,-13.43
56.265,-15.94
56.281,-18.62
56.296,-21.55
56.312,-24.49
56.328,-27.01
56.343,-28.56
56.359,-28.75
56.375,-27.41
56.390,-24.65
56.406,-20.73
56.421,-15.85
56.437,-10.21
56.453,-3.86
56.468,2.93
56.484,9.69
56.500,15.68
56.515,20.11
56.531,22.43
56.546,22.54
56.562,20.85
56.578,18.07
56.593,14.92
56.609,11.85
56.625,9.03
56.640,6.49
56.656,4.24
56.671,2.52
56.687,1.67
56.703,1.96
56.718,3.45
56.734,5.85
56.750,8.61
56.765,11.18
56.781,13.18
56.796,14.47
56.812,15.14
56.828,15.39
56.843,15.33
56.859,15.03
56.875,14.5
56.890,13.72
56.906,12.73
56.921,11.58
56.937,10.23
56.953,8.72
56.968,7.05
56.984,5.38
57.000,4.04
57.015,3.44
57.031,3.86
57.046,5.4
57.062,7.87
57.078,10.83
57.093,13.89
57.109,16.61
57.125,18.66
57.140,19.63
57.156,19.07
57.171,16.63
57.187,12.23
57.203,6.17
57.218,-0.96
57.234,-8.5
57.250,-16.11
57.265,-23.67
57.281,-31.21
57.296,-38.47
57.312,-44.77
57.328,-49.12
57.343,-50.61
57.359,-48.92
57.375,-44.46
57.390,-38.28
57.406,-31.56
57.421,-25.2
57.437,-19.6
57.453,-14.71
57.468,-10.35
57.484,-6.46
57.500,-3.2
57.515,-0.77
57.531,0.73
57.546,1.47
57.562,1.88
57.578,2.43
57.593,3.45
57.609,4.96
57.625,6.78
57.640,8.63
57.656,10.44
57.671,12.38
57.687,14.86
57.703,18.2
57.718,22.53
57.734,27.58
57.750,32.79
57.765,37.57
57.781,41.47
57.796,44.3
57.812,45.97
57.828,46.35
57.843,45.06
57.859,41.72
57.875,36.15
57.890,28.66
57.906,20.1
57.921,11.62
57.937,4.26
57.953,-1.43
57.968,-5.49
57.984,-8.52
58.000,-11.2
58.015,-13.99
58.031,-16.99
58.046,-19.95
58.062,-22.55
58.078,-24.66
58.093,-26.34
58.109,-27.8
58.125,-29.3
58.140,-30.99
58.156,-32.9
58.171,-34.95
58.187,-37.03
58.203,-38.91
58.218,-40.36
58.234,-41.0
58.250,-40.46
58.265,-38.46
58.281,-34.96
58.296,-30.19
58.312,-24.65
58.328,-18.88
58.343,-13.42
58.359,-8.69
58.375,-4.9
58.390,-2.08
58.406,-0.14
58.421,1.17
58.437,2.17
58.453,3.16
58.468,4.35
58.484,5.76
58.500,7.16
58.515,8.28
58.531,8.92
58.546,9.02
58.562,8.77
58.578,8.45
58.593,8.22
58.609,8.09
58.625,7.98
58.640,7.74
58.656,7.37
58.671,7.07
58.687,6.99
58.703,7.27
58.718,7.81
58.734,8.26
58.750,8.2
58.765,7.35
58.781,5.61
58.796,3.26
58.812,0.7
58.828,-1.6
58.843,-3.23
58.859,-3.93
58.875,-3.66
58.890,-2.53
58.906,-0.74
58.921,1.42
58.937,3.7
58.953,5.91
58.968,7.85
58.984,9.32
59.000,9.95
59.015,9.25
59.031,6.65
59.046,1.82
59.062,-5.2
59.078,-13.73
59.093,-22.6
59.109,-30.47
59.125,-36.15
59.140,-39.07
59.156,-39.29
59.171,-37.32
59.187,-33.86
59.203,-29.55
59.218,-24.81
59.234,-19.88
59.250,-15.03
59.265,-10.5
59.281,-6.48
59.296,-3.05
59.312,-0.05
59.328,2.79
59.343,5.68
59.359,8.65
59.375,11.47
59.390,13.74
59.406,15.12
59.421,15.5
59.437,15.06
59.453,14.14
59.468,13.1
59.484,12.18
59.500,11.44
59.515,10.89
59.531,10.43
59.546,10.07
59.562,9.79
59.578,9.58
59.593,9.3
59.609,8.82
59.625,8.0
59.640,6.84
59.656,5.45
59.671,4.07
59.687,3.02
59.703,2.59
59.718,2.92
59.734,3.97
59.750,5.54
59.765,7.29
59.781,8.89
59.796,10.06
59.812,10.74
59.828,11.04
59.843,11.09
59.859,10.86
59.875,10.07
59.890,8.26
59.906,4.99
59.921,0.09
59.937,-6.17
59.953,-13.23
59.968,-20.52
59.984,-27.68
