timestamp,value
00.000,-79.01
00.015,-73.18
00.031,-63.68
00.046,-55.71
00.062,-54.3
00.078,-62.19
00.093,-78.79
00.109,-100.43
00.125,-122.01
00.140,-139.05
00.156,-149.06
00.171,-151.93
00.187,-149.15
00.203,-142.6
00.218,-133.53
00.234,-122.27
00.250,-108.55
00.265,-92.06
00.281,-72.88
00.296,-51.36
00.312,-27.73
00.328,-1.77
00.343,27.21
00.359,59.85
00.375,95.89
00.390,133.63
00.406,169.9
00.421,200.74
00.437,222.4
00.453,232.15
00.468,228.57
00.484,211.42
00.500,181.26
00.515,139.15
00.531,86.94
00.546,27.56
00.562,-34.82
00.578,-95.23
00.593,-148.58
00.609,-191.03
00.625,-220.83
00.640,-238.75
00.656,-247.62
00.671,-250.86
00.687,-250.85
00.703,-247.83
00.718,-239.81
00.734,-223.42
00.750,-195.69
00.765,-155.4
00.781,-104.09
00.796,-45.92
00.812,13.23
00.828,67.05
00.843,110.11
00.859,138.86
00.875,152.32
00.890,151.91
00.906,141.03
00.921,123.97
00.937,104.84
00.953,86.79
00.968,71.86
00.984,61.11
01.000,54.89
01.015,52.88
01.031,53.83
01.046,55.76
01.062,56.7
01.078,55.36
01.093,51.88
01.109,47.61
01.125,44.21
01.140,42.69
01.156,42.78
01.171,43.0
01.187,41.64
01.203,37.82
01.218,31.95
01.234,25.59
01.250,20.62
01.265,18.53
01.281,19.94
01.296,24.82
01.312,32.68
01.328,42.93
01.343,54.89
01.359,67.59
01.375,79.81
01.390,90.17
01.406,97.36
01.421,100.57
01.437,99.74
01.453,95.47
01.468,88.77
01.484,80.59
01.500,71.32
01.515,60.7
01.531,47.87
01.546,31.8
01.562,11.78
01.578,-12.27
01.593,-39.6
01.609,-68.88
01.625,-98.48
01.640,-127.06
01.656,-153.7
01.671,-178.04
01.687,-200.05
01.703,-219.81
01.718,-237.34
01.734,-252.6
01.750,-265.53
01.765,-275.98
01.781,-283.97
01.796,-289.42
01.812,-292.34
01.828,-292.78
01.843,-290.81
01.859,-286.48
01.875,-279.91
01.890,-271.48
01.906,-261.91
01.921,-252.42
01.937,-244.35
01.953,-238.66
01.968,-235.39
01.984,-233.23
02.000,-229.73
02.015,-221.89
02.031,-207.18
02.046,-184.29
02.062,-153.54
02.078,-116.65
02.093,-76.06
02.109,-34.25
02.125,6.87
02.140,46.1
02.156,82.74
02.171,116.2
02.187,145.78
02.203,170.56
02.218,189.76
02.234,203.15
02.250,211.22
02.265,215.34
02.281,217.44
02.296,219.56
02.312,223.34
02.328,229.68
02.343,238.55
02.359,249.21
02.375,260.75
02.390,272.46
02.406,284.13
02.421,295.84
02.437,307.47
02.453,318.1
02.468,325.52
02.484,326.41
02.500,317.06
02.515,294.68
02.531,258.27
02.546,209.27
02.562,151.71
02.578,92.09
02.593,38.72
02.609,0.22
02.625,-16.75
02.640,-9.93
02.656,17.07
02.671,55.13
02.687,92.28
02.703,117.36
02.718,123.59
02.734,110.49
02.750,83.25
02.765,50.13
02.781,19.35
02.796,-3.43
02.812,-15.82
02.828,-18.1
02.843,-11.92
02.859,0.49
02.875,16.67
02.890,33.78
02.906,48.6
02.921,58.22
02.937,61.23
02.953,58.58
02.968,53.3
02.984,48.93
03.000,47.07
03.015,45.88
03.031,40.32
03.046,24.67
03.062,-4.44
03.078,-45.86
03.093,-94.06
03.109,-141.69
03.125,-182.92
03.140,-216.08
03.156,-243.61
03.171,-269.57
03.187,-296.28
03.203,-321.89
03.218,-340.64
03.234,-345.4
03.250,-331.3
03.265,-298.11
03.281,-250.34
03.296,-195.48
03.312,-141.18
03.328,-93.65
03.343,-57.22
03.359,-34.71
03.375,-27.51
03.390,-35.14
03.406,-54.27
03.421,-78.6
03.437,-100.08
03.453,-111.23
03.468,-107.7
03.484,-89.79
03.500,-61.9
03.515,-30.8
03.531,-3.56
03.546,14.48
03.562,20.74
03.578,15.4
03.593,1.08
03.609,-18.2
03.625,-38.31
03.640,-56.01
03.656,-69.82
03.671,-79.7
03.687,-86.63
03.703,-91.79
03.718,-96.05
03.734,-99.63
03.750,-102.24
03.765,-103.3
03.781,-102.13
03.796,-98.38
03.812,-92.01
03.828,-83.44
03.843,-73.35
03.859,-62.58
03.875,-51.74
03.890,-41.04
03.906,-30.13
03.921,-18.22
03.937,-4.37
03.953,11.94
03.968,30.64
03.984,50.87
04.000,71.23
04.015,90.21
04.031,106.41
04.046,118.77
04.062,126.74
04.078,130.25
04.093,129.73
04.109,126.16
04.125,120.81
04.140,114.94
04.156,109.51
04.171,104.93
04.187,101.11
04.203,97.62
04.218,93.74
04.234,88.63
04.250,81.45
04.265,71.46
04.281,58.36
04.296,42.46
04.312,24.82
04.328,6.96
04.343,-9.5
04.359,-23.29
04.375,-33.65
04.390,-40.41
04.406,-43.82
04.421,-44.29
04.437,-42.24
04.453,-37.94
04.468,-31.53
04.484,-23.08
04.500,-12.77
04.515,-0.99
04.531,11.55
04.546,23.91
04.562,35.19
04.578,44.75
04.593,52.3
04.609,57.91
04.625,61.76
04.640,63.99
04.656,64.67
04.671,63.85
04.687,61.7
04.703,58.67
04.718,55.4
04.734,52.53
04.750,50.5
04.765,49.26
04.781,48.22
04.796,46.49
04.812,43.24
04.828,38.2
04.843,31.83
04.859,25.21
04.875,19.5
04.890,15.39
04.906,12.77
04.921,10.88
04.937,8.61
04.953,5.15
04.968,0.28
04.984,-5.56
05.000,-11.4
05.015,-16.07
05.031,-18.47
05.046,-17.78
05.062,-13.64
05.078,-6.3
05.093,3.32
05.109,13.88
05.125,23.86
05.140,31.96
05.156,37.38
05.171,39.93
05.187,39.88
05.203,37.82
05.218,34.51
05.234,30.73
05.250,27.23
05.265,24.57
05.281,23.07
05.296,22.63
05.312,22.79
05.328,22.9
05.343,22.37
05.359,20.95
05.375,18.81
05.390,16.42
05.406,14.32
05.421,12.85
05.437,12.05
05.453,11.64
05.468,11.26
05.484,10.56
05.500,9.38
05.515,7.65
05.531,5.45
05.546,2.96
05.562,0.62
05.578,-0.9
05.593,-0.83
05.609,1.54
05.625,6.52
05.640,13.84
05.656,22.67
05.671,31.85
05.687,40.21
05.703,46.89
05.718,51.45
05.734,53.87
05.750,54.38
05.765,53.34
05.781,51.07
05.796,47.94
05.812,44.27
05.828,40.43
05.843,36.74
05.859,33.41
05.875,30.55
05.890,28.05
05.906,25.71
05.921,23.31
05.937,20.75
05.953,18.0
05.968,15.16
05.984,12.32
06.000,9.46
06.015,6.5
06.031,3.34
06.046,-0.14
06.062,-3.87
06.078,-7.65
06.093,-11.03
06.109,-13.39
06.125,-14.03
06.140,-12.44
06.156,-8.47
06.171,-2.54
06.187,4.41
06.203,11.25
06.218,16.87
06.234,20.52
06.250,21.93
06.265,21.1
06.281,18.22
06.296,13.42
06.312,6.78
06.328,-1.56
06.343,-11.23
06.359,-21.56
06.375,-31.66
06.390,-40.53
06.406,-47.37
06.421,-51.68
06.437,-53.41
06.453,-52.94
06.468,-50.96
06.484,-48.04
06.500,-44.41
06.515,-39.78
06.531,-33.5
06.546,-24.94
06.562,-14.03
06.578,-1.51
06.593,11.11
06.609,22.14
06.625,30.45
06.640,36.01
06.656,39.9
06.671,43.95
06.687,49.92
06.703,58.85
06.718,70.66
06.734,84.23
06.750,97.89
06.765,109.99
06.781,119.52
06.796,126.38
06.812,131.43
06.828,136.05
06.843,141.71
06.859,149.42
06.875,159.49
06.890,171.65
06.906,185.16
06.921,199.08
06.937,212.25
06.953,223.62
06.968,232.35
06.984,238.15
07.000,241.52
07.015,243.65
07.031,245.7
07.046,247.91
07.062,248.92
07.078,245.89
07.093,235.72
07.109,216.35
07.125,187.8
07.140,152.25
07.156,113.16
07.171,74.04
07.187,37.52
07.203,5.18
07.218,-22.25
07.234,-44.07
07.250,-59.55
07.265,-68.18
07.281,-70.16
07.296,-66.62
07.312,-59.64
07.328,-51.67
07.343,-45.07
07.359,-42.36
07.375,-45.24
07.390,-54.62
07.406,-70.71
07.421,-93.08
07.437,-120.59
07.453,-151.24
07.468,-182.06
07.484,-210.04
07.500,-234.05
07.515,-253.9
07.531,-270.34
07.546,-284.72
07.562,-298.39
07.578,-312.21
07.593,-326.28
07.609,-339.81
07.625,-352.2
07.640,-365.16
07.656,-379.77
07.671,-396.07
07.687,-412.98
07.703,-429.01
07.718,-443.05
07.734,-454.58
07.750,-463.22
07.765,-468.66
07.781,-472.11
07.796,-472.22
07.812,-465.32
07.828,-446.8
07.843,-413.48
07.859,-365.29
07.875,-305.42
07.890,-239.12
07.906,-157.35
07.921,-61.66
07.937,38.66
07.953,130.02
07.968,201.61
07.984,249.83
08.000,277.78
08.015,290.52
08.031,296.3
08.046,300.52
08.062,303.11
08.078,302.82
08.093,298.41
08.109,289.55
08.125,276.39
08.140,259.34
08.156,239.35
08.171,218.19
08.187,197.25
08.203,175.64
08.218,152.6
08.234,127.75
08.250,101.41
08.265,74.4
08.281,48.19
08.296,24.89
08.312,7.45
08.328,-1.66
08.343,-2.05
08.359,5.67
08.375,19.75
08.390,37.5
08.406,55.59
08.421,70.7
08.437,80.31
08.453,83.38
08.468,80.05
08.484,70.93
08.500,57.41
08.515,41.19
08.531,23.97
08.546,7.18
08.562,-7.97
08.578,-20.54
08.593,-29.79
08.609,-35.42
08.625,-37.86
08.640,-37.82
08.656,-35.99
08.671,-32.62
08.687,-27.43
08.703,-19.76
08.718,-9.2
08.734,3.95
08.750,18.37
08.765,32.05
08.781,42.99
08.796,49.96
08.812,53.12
08.828,53.99
08.843,54.88
08.859,58.14
08.875,65.2
08.890,76.12
08.906,89.68
08.921,103.95
08.937,116.83
08.953,126.69
08.968,132.45
08.984,133.63
09.000,130.1
09.015,121.79
09.031,108.46
09.046,89.73
09.062,65.32
09.078,35.31
09.093,0.41
09.109,-38.05
09.125,-78.19
09.140,-117.83
09.156,-154.91
09.171,-187.58
09.187,-214.45
09.203,-234.81
09.218,-248.86
09.234,-258.11
09.250,-265.39
09.265,-274.04
09.281,-286.39
09.296,-302.11
09.312,-317.57
09.328,-326.73
09.343,-323.47
09.359,-304.24
09.375,-269.43
09.390,-223.15
09.406,-171.31
09.421,-119.75
09.437,-73.31
09.453,-36.09
09.468,-11.86
09.484,-3.34
09.500,-10.61
09.515,-29.49
09.531,-51.8
09.546,-67.55
09.562,-68.78
09.578,-52.7
09.593,-22.33
09.609,15.28
09.625,52.52
09.640,83.94
09.656,107.17
09.671,122.05
09.687,129.46
09.703,130.46
09.718,126.67
09.734,120.8
09.750,116.51
09.765,117.23
09.781,124.58
09.796,137.47
09.812,152.29
09.828,164.21
09.843,169.16
09.859,165.34
09.875,153.83
09.890,138.06
09.906,122.33
09.921,110.27
09.937,103.84
09.953,103.08
09.968,106.51
09.984,112.08
10.000,117.93
10.015,123.03
10.031,127.07
10.046,130.05
10.062,131.8
10.078,131.88
10.093,129.73
10.109,125.35
10.125,119.88
10.140,115.53
10.156,115.05
10.171,120.54
10.187,132.64
10.203,150.16
10.218,170.68
10.234,191.32
10.250,209.63
10.265,223.92
10.281,233.06
10.296,236.15
10.312,232.34
10.328,220.9
10.343,201.83
10.359,176.42
10.375,146.83
10.390,115.46
10.406,83.99
10.421,52.87
10.437,21.37
10.453,-11.58
10.468,-46.79
10.484,-84.07
10.500,-121.37
10.515,-155.5
10.531,-182.98
10.546,-201.34
10.562,-210.15
10.578,-211.22
10.593,-207.88
10.609,-203.88
10.625,-202.14
10.640,-202.68
10.656,-204.38
10.671,-205.33
10.687,-203.77
10.703,-198.32
10.718,-188.21
10.734,-173.3
10.750,-154.36
10.765,-133.32
10.781,-111.73
10.796,-90.64
10.812,-68.29
10.828,-41.62
10.843,-7.41
10.859,36.06
10.875,87.63
10.890,142.87
10.906,189.82
10.921,218.47
10.937,223.62
10.953,207.27
10.968,176.56
10.984,140.06
11.000,103.96
11.015,70.55
11.031,38.82
11.046,6.7
11.062,-25.54
11.078,-55.54
11.093,-80.05
11.109,-97.22
11.125,-106.81
11.140,-110.26
11.156,-109.79
11.171,-107.06
11.187,-102.28
11.203,-93.05
11.218,-76.18
11.234,-49.24
11.250,-12.66
11.265,30.36
11.281,74.71
11.296,115.15
11.312,147.75
11.328,169.05
11.343,177.55
11.359,173.3
11.375,157.77
11.390,132.79
11.406,100.28
11.421,61.61
11.437,17.26
11.453,-33.15
11.468,-90.24
11.484,-153.16
11.500,-219.1
11.515,-277.73
11.531,-316.58
11.546,-325.58
11.562,-302.34
11.578,-253.35
11.593,-190.21
11.609,-124.12
11.625,-61.8
11.640,-5.51
11.656,44.87
11.671,89.31
11.687,126.56
11.703,154.38
11.718,171.3
11.734,177.45
11.750,174.3
11.765,164.57
11.781,151.26
11.796,136.3
11.812,119.85
11.828,100.73
11.843,77.29
11.859,48.79
11.875,16.02
11.890,-19.01
11.906,-54.22
11.921,-84.79
11.937,-108.38
11.953,-124.96
11.968,-136.05
11.984,-143.67
12.000,-149.37
12.015,-154.12
12.031,-158.26
12.046,-161.43
12.062,-162.29
12.078,-158.59
12.093,-146.78
12.109,-123.1
12.125,-85.07
12.140,-33.0
12.156,29.27
12.171,95.09
12.187,156.58
12.203,206.64
12.218,240.22
12.234,255.63
12.250,254.51
12.265,241.08
12.281,221.02
12.296,199.95
12.312,182.16
12.328,169.68
12.343,162.01
12.359,156.52
12.375,149.84
12.390,139.09
12.406,122.56
12.421,99.95
12.437,71.98
12.453,39.89
12.468,5.17
12.484,-30.48
12.500,-65.06
12.515,-96.27
12.531,-121.88
12.546,-140.33
12.562,-151.17
12.578,-155.34
12.593,-154.75
12.609,-151.56
12.625,-147.72
12.640,-144.51
12.656,-142.73
12.671,-142.99
12.687,-146.03
12.703,-153.04
12.718,-165.51
12.734,-184.73
12.750,-210.94
12.765,-242.66
12.781,-276.37
12.796,-306.9
12.812,-328.62
12.828,-336.8
12.843,-328.78
12.859,-304.45
12.875,-265.9
12.890,-216.66
12.906,-161.08
12.921,-103.56
12.937,-48.25
12.953,1.37
12.968,42.9
12.984,75.27
13.000,98.71
13.015,114.45
13.031,124.12
13.046,129.19
13.062,130.83
13.078,129.68
13.093,126.05
13.109,120.13
13.125,112.27
13.140,103.16
13.156,93.88
13.171,85.81
13.187,80.16
13.203,77.56
13.218,77.78
13.234,79.8
13.250,82.26
13.265,83.97
13.281,84.3
13.296,83.09
13.312,80.62
13.328,77.17
13.343,72.96
13.359,68.12
13.375,62.88
13.390,57.67
13.406,53.03
13.421,49.37
13.437,46.74
13.453,44.79
13.468,42.75
13.484,39.85
13.500,35.72
13.515,30.57
13.531,25.21
13.546,20.56
13.562,17.19
13.578,15.02
13.593,13.25
13.609,10.8
13.625,6.83
13.640,1.26
13.656,-5.21
13.671,-11.41
13.687,-16.2
13.703,-18.87
13.718,-19.24
13.734,-17.61
13.750,-14.37
13.765,-9.83
13.781,-4.16
13.796,2.45
13.812,9.58
13.828,16.53
13.843,22.33
13.859,26.12
13.875,27.49
13.890,26.7
13.906,24.68
13.921,22.61
13.937,21.42
13.953,21.44
13.968,22.22
13.984,22.93
14.000,22.8
14.015,21.59
14.031,19.62
14.046,17.56
14.062,15.94
14.078,14.84
14.093,13.83
14.109,12.25
14.125,9.63
14.140,5.97
14.156,1.78
14.171,-2.31
14.187,-5.84
14.203,-8.86
14.218,-11.74
14.234,-14.84
14.250,-18.06
14.265,-20.65
14.281,-21.47
14.296,-19.53
14.312,-14.49
14.328,-6.91
14.343,1.84
14.359,10.19
14.375,16.87
14.390,21.34
14.406,23.78
14.421,24.75
14.437,24.81
14.453,24.26
14.468,23.08
14.484,21.13
14.500,18.44
14.515,15.33
14.531,12.43
14.546,10.33
14.562,9.37
14.578,9.36
14.593,9.66
14.609,9.43
14.625,8.05
14.640,5.43
14.656,2.07
14.671,-1.28
14.687,-3.98
14.703,-5.89
14.718,-7.49
14.734,-9.63
14.750,-13.06
14.765,-17.95
14.781,-23.65
14.796,-28.92
14.812,-32.42
14.828,-33.14
14.843,-30.9
14.859,-26.21
14.875,-19.99
14.890,-13.09
14.906,-6.03
14.921,1.05
14.937,8.09
14.953,14.84
14.968,20.68
14.984,24.77
15.000,26.5
15.015,25.84
15.031,23.52
15.046,20.7
15.062,18.5
15.078,17.52
15.093,17.57
15.109,17.86
15.125,17.46
15.140,15.83
15.156,13.06
15.171,9.77
15.187,6.73
15.203,4.42
15.218,2.83
15.234,1.48
15.250,-0.23
15.265,-2.73
15.281,-5.97
15.296,-9.6
15.312,-13.16
15.328,-16.3
15.343,-19.04
15.359,-21.48
15.375,-23.63
15.390,-25.08
15.406,-25.02
15.421,-22.53
15.437,-17.12
15.453,-8.98
15.468,0.83
15.484,10.74
15.500,19.3
15.515,25.56
15.531,29.47
15.546,31.55
15.562,32.49
15.578,32.8
15.593,32.59
15.609,31.65
15.625,29.79
15.640,27.11
15.656,24.1
15.671,21.41
15.687,19.53
15.703,18.55
15.718,18.0
15.734,17.23
15.750,15.66
15.765,13.12
15.781,9.99
15.796,6.95
15.812,4.54
15.828,2.99
15.843,1.99
15.859,0.9
15.875,-0.86
15.890,-3.51
15.906,-6.71
15.921,-9.58
15.937,-11.06
15.953,-10.24
15.968,-6.68
15.984,-0.63
16.000,7.15
16.015,15.77
16.031,24.51
16.046,32.96
16.062,41.04
16.078,48.65
16.093,55.48
16.109,60.89
16.125,64.2
16.140,64.99
16.156,63.54
16.171,60.78
16.187,58.01
16.203,56.46
16.218,56.63
16.234,58.16
16.250,59.96
16.265,60.63
16.281,59.07
16.296,54.81
16.312,48.08
16.328,39.49
16.343,29.65
16.359,18.78
16.375,6.67
16.390,-6.97
16.406,-22.24
16.421,-38.74
16.437,-55.7
16.453,-72.24
16.468,-87.71
16.484,-101.73
16.500,-113.98
16.515,-123.83
16.531,-130.1
16.546,-131.43
16.562,-126.85
16.578,-116.5
16.593,-101.96
16.609,-85.88
16.625,-71.09
16.640,-59.55
16.656,-51.78
16.671,-46.94
16.687,-43.68
16.703,-40.94
16.718,-38.53
16.734,-37.07
16.750,-37.36
16.765,-39.75
16.781,-43.67
16.796,-47.91
16.812,-51.13
16.828,-52.6
16.843,-52.48
16.859,-51.58
16.875,-50.88
16.890,-50.77
16.906,-50.89
16.921,-50.3
16.937,-48.02
16.953,-43.6
16.968,-37.51
16.984,-30.96
17.000,-25.35
17.015,-21.69
17.031,-20.15
17.046,-20.01
17.062,-20.02
17.078,-18.93
17.093,-15.92
17.109,-10.85
17.125,-4.13
17.140,3.5
17.156,11.37
17.171,19.05
17.187,26.29
17.203,32.87
17.218,38.35
17.234,42.02
17.250,43.17
17.265,41.49
17.281,37.38
17.296,31.89
17.312,26.56
17.328,22.7
17.343,21.05
17.359,21.48
17.375,23.2
17.390,25.14
17.406,26.51
17.421,27.0
17.437,26.71
17.453,25.98
17.468,25.0
17.484,23.67
17.500,21.57
17.515,18.32
17.531,13.8
17.546,8.35
17.562,2.6
17.578,-2.84
17.593,-7.72
17.609,-12.3
17.625,-16.94
17.640,-21.71
17.656,-25.99
17.671,-28.55
17.687,-28.0
17.703,-23.54
17.718,-15.5
17.734,-5.38
17.750,4.72
17.765,12.89
17.781,18.08
17.796,20.26
17.812,20.1
17.828,18.48
17.843,15.96
17.859,12.74
17.875,8.92
17.890,4.82
17.906,1.11
17.921,-1.3
17.937,-1.73
17.953,-0.08
17.968,2.96
17.984,6.18
18.000,8.26
18.015,8.41
18.031,6.59
18.046,3.52
18.062,0.25
18.078,-2.38
18.093,-4.12
18.109,-5.41
18.125,-7.07
18.140,-9.84
18.156,-13.98
18.171,-19.14
18.187,-24.41
18.203,-28.64
18.218,-30.83
18.234,-30.36
18.250,-27.17
18.265,-21.61
18.281,-14.35
18.296,-6.12
18.312,2.35
18.328,10.4
18.343,17.39
18.359,22.66
18.375,25.68
18.390,26.09
18.406,24.08
18.421,20.38
18.437,16.14
18.453,12.54
18.468,10.36
18.484,9.69
18.500,10.01
18.515,10.55
18.531,10.66
18.546,10.11
18.562,9.09
18.578,7.91
18.593,6.76
18.609,5.49
18.625,3.75
18.640,1.23
18.656,-2.07
18.671,-5.71
18.687,-9.12
18.703,-11.91
18.718,-14.21
18.734,-16.6
18.750,-19.81
18.765,-24.02
18.781,-28.64
18.796,-32.21
18.812,-33.0
18.828,-29.84
18.843,-22.68
18.859,-12.85
18.875,-2.41
18.890,6.56
18.906,12.89
18.921,16.4
18.937,17.75
18.953,17.83
18.968,17.15
18.984,15.73
19.000,13.34
19.015,9.87
19.031,5.7
19.046,1.72
19.062,-1.15
19.078,-2.4
19.093,-2.19
19.109,-1.47
19.125,-1.38
19.140,-2.77
19.156,-5.74
19.171,-9.64
19.187,-13.37
19.203,-16.03
19.218,-17.33
19.234,-17.74
19.250,-18.29
19.265,-19.89
19.281,-22.98
19.296,-27.19
19.312,-31.46
19.328,-34.49
19.343,-35.26
19.359,-33.31
19.375,-28.83
19.390,-22.48
19.406,-14.96
19.421,-6.9
19.437,1.27
19.453,9.17
19.468,16.25
19.484,21.78
19.500,25.0
19.515,25.52
19.531,23.55
19.546,20.02
19.562,16.28
19.578,13.52
19.593,12.36
19.609,12.59
19.625,13.47
19.640,13.98
19.656,13.51
19.671,12.02
19.687,10.0
19.703,8.19
19.718,7.03
19.734,6.41
19.750,5.77
19.765,4.49
19.781,2.12
19.796,-1.19
19.812,-4.98
19.828,-8.74
19.843,-12.22
19.859,-15.45
19.875,-18.52
19.890,-21.16
19.906,-22.54
19.921,-21.53
19.937,-17.11
19.953,-9.02
19.968,1.82
19.984,13.63
20.000,24.3
20.015,32.17
20.031,36.52
20.046,37.64
20.062,36.51
20.078,34.27
20.093,31.81
20.109,29.45
20.125,27.24
20.140,25.09
20.156,23.07
20.171,21.42
20.187,20.37
20.203,19.97
20.218,19.94
20.234,19.68
20.250,18.58
20.265,16.44
20.281,13.49
20.296,10.4
20.312,7.83
20.328,5.95
20.343,4.31
20.359,1.9
20.375,-2.28
20.390,-8.73
20.406,-16.86
20.421,-25.18
20.437,-31.75
20.453,-34.77
20.468,-33.36
20.484,-27.75
20.500,-19.16
20.515,-9.25
20.531,0.41
20.546,8.77
20.562,15.43
20.578,20.28
20.593,23.4
20.609,24.68
20.625,24.01
20.640,21.48
20.656,17.68
20.671,13.68
20.687,10.65
20.703,9.43
20.718,10.01
20.734,11.57
20.750,12.73
20.765,12.28
20.781,9.7
20.796,5.35
20.812,0.27
20.828,-4.42
20.843,-8.06
20.859,-10.79
20.875,-13.3
20.890,-16.47
20.906,-20.78
20.921,-26.03
20.937,-31.45
20.953,-35.97
20.968,-38.65
20.984,-39.02
21.000,-37.01
21.015,-32.9
21.031,-26.99
21.046,-19.61
21.062,-11.08
21.078,-1.97
21.093,6.85
21.109,14.24
21.125,19.08
21.140,20.69
21.156,19.14
21.171,15.34
21.187,10.71
21.203,6.7
21.218,4.2
21.234,3.31
21.250,3.42
21.265,3.64
21.281,3.32
21.296,2.32
21.312,0.95
21.328,-0.29
21.343,-1.14
21.359,-1.84
21.375,-2.88
21.390,-4.82
21.406,-7.92
21.421,-11.86
21.437,-16.03
21.453,-19.89
21.468,-23.13
21.484,-25.89
21.500,-28.43
21.515,-30.75
21.531,-32.33
21.546,-32.2
21.562,-29.34
21.578,-23.28
21.593,-14.51
21.609,-4.42
21.625,5.15
21.640,12.53
21.656,16.84
21.671,18.12
21.687,17.08
21.703,14.55
21.718,11.2
21.734,7.25
21.750,2.79
21.765,-2.12
21.781,-7.13
21.796,-11.7
21.812,-15.35
21.828,-18.0
21.843,-20.06
21.859,-22.4
21.875,-25.89
21.890,-30.93
21.906,-37.33
21.921,-44.26
21.937,-50.74
21.953,-56.13
21.968,-60.55
21.984,-64.86
22.000,-70.28
22.015,-77.57
22.031,-86.42
22.046,-95.29
22.062,-101.89
22.078,-104.15
22.093,-101.0
22.109,-92.92
22.125,-81.54
22.140,-68.9
22.156,-56.66
22.171,-45.49
22.187,-35.13
22.203,-24.86
22.218,-14.12
22.234,-2.86
22.250,8.3
22.265,18.52
22.281,27.09
22.296,33.8
22.312,39.03
22.328,43.61
22.343,48.57
22.359,54.71
22.375,62.48
22.390,71.93
22.406,82.81
22.421,94.42
22.437,105.61
22.453,114.8
22.468,120.35
22.484,121.28
22.500,117.63
22.515,110.4
22.531,100.89
22.546,89.94
22.562,77.34
22.578,62.03
22.593,42.81
22.609,19.3
22.625,-7.47
22.640,-35.18
22.656,-61.14
22.671,-83.29
22.687,-100.75
22.703,-113.87
22.718,-123.57
22.734,-130.69
22.750,-135.69
22.765,-138.73
22.781,-140.09
22.796,-140.6
22.812,-141.73
22.828,-145.33
22.843,-152.95
22.859,-165.03
22.875,-180.35
22.890,-196.2
22.906,-208.98
22.921,-215.24
22.937,-212.74
22.953,-201.15
22.968,-182.25
22.984,-159.36
23.000,-136.44
23.015,-116.57
23.031,-101.1
23.046,-89.01
23.062,-77.55
23.078,-63.43
23.093,-44.22
23.109,-19.41
23.125,9.59
23.140,40.14
23.156,69.16
23.171,93.74
23.187,111.44
23.203,120.21
23.218,118.47
23.234,105.69
23.250,83.14
23.265,54.23
23.281,23.9
23.296,-3.19
23.312,-24.3
23.328,-39.16
23.343,-49.05
23.359,-55.04
23.375,-56.56
23.390,-51.5
23.406,-37.68
23.421,-14.76
23.437,14.79
23.453,46.38
23.468,75.17
23.484,98.08
23.500,114.6
23.515,126.31
23.531,135.13
23.546,141.94
23.562,146.02
23.578,145.62
23.593,139.16
23.609,126.28
23.625,108.09
23.640,86.97
23.656,65.79
23.671,46.98
23.687,32.02
23.703,21.52
23.718,15.5
23.734,13.84
23.750,16.64
23.765,23.99
23.781,35.74
23.796,51.12
23.812,68.52
23.828,85.65
23.843,100.0
23.859,109.54
23.875,113.19
23.890,111.03
23.906,104.13
23.921,94.01
23.937,82.12
23.953,69.44
23.968,56.53
23.984,43.74
24.000,31.62
24.015,20.97
24.031,12.67
24.046,7.34
24.062,5.01
24.078,4.95
24.093,5.83
24.109,5.97
24.125,3.85
24.140,-1.41
24.156,-9.67
24.171,-19.62
24.187,-29.05
24.203,-35.39
24.218,-36.41
24.234,-30.97
24.250,-19.3
24.265,-2.85
24.281,16.16
24.296,35.33
24.312,52.65
24.328,66.64
24.343,76.44
24.359,81.74
24.375,82.66
24.390,79.83
24.406,74.23
24.421,67.21
24.437,60.12
24.453,54.07
24.468,49.59
24.484,46.56
24.500,44.36
24.515,42.09
24.531,38.97
24.546,34.57
24.562,28.99
24.578,22.73
24.593,16.46
24.609,10.75
24.625,5.71
24.640,1.03
24.656,-3.95
24.671,-9.85
24.687,-16.9
24.703,-24.68
24.718,-32.09
24.734,-37.7
24.750,-40.15
24.765,-38.69
24.781,-33.43
24.796,-25.3
24.812,-15.77
24.828,-6.43
24.843,1.33
24.859,6.61
24.875,9.03
24.890,8.72
24.906,6.22
24.921,2.42
24.937,-1.6
24.953,-4.8
24.968,-6.44
24.984,-6.29
25.000,-4.67
25.015,-2.23
25.031,0.26
25.046,2.19
25.062,3.24
25.078,3.36
25.093,2.58
25.109,0.88
25.125,-1.98
25.140,-6.39
25.156,-12.79
25.171,-21.48
25.187,-32.34
25.203,-44.61
25.218,-56.8
25.234,-66.88
25.250,-72.58
25.265,-71.97
25.281,-64.04
25.296,-48.96
25.312,-28.15
25.328,-3.93
25.343,21.04
25.359,44.48
25.375,65.04
25.390,82.4
25.406,97.17
25.421,110.23
25.437,122.16
25.453,132.96
25.468,142.1
25.484,148.9
25.500,153.02
25.515,154.65
25.531,154.4
25.546,153.17
25.562,151.7
25.578,150.56
25.593,149.97
25.609,149.54
25.625,148.0
25.640,143.18
25.656,132.71
25.671,115.06
25.687,90.7
25.703,62.35
25.718,34.2
25.734,10.3
25.750,-7.0
25.765,-17.62
25.781,-23.17
25.796,-25.54
25.812,-25.73
25.828,-23.48
25.843,-18.05
25.859,-9.11
25.875,2.67
25.890,15.67
25.906,27.98
25.921,37.84
25.937,43.85
25.953,44.78
25.968,39.75
25.984,28.58
26.000,12.56
26.015,-5.24
26.031,-20.53
26.046,-29.19
26.062,-28.92
26.078,-20.19
26.093,-6.2
26.109,8.54
26.125,19.9
26.140,25.6
26.156,25.51
26.171,21.2
26.187,14.62
26.203,7.11
26.218,-1.12
26.234,-11.0
26.250,-24.02
26.265,-41.59
26.281,-64.47
26.296,-92.55
26.312,-124.67
26.328,-158.83
26.343,-192.35
26.359,-222.05
26.375,-244.51
26.390,-256.35
26.406,-254.81
26.421,-238.51
26.437,-208.13
26.453,-166.57
26.468,-118.33
26.484,-68.41
26.500,-20.94
26.515,21.5
26.531,57.97
26.546,88.49
26.562,113.24
26.578,132.22
26.593,145.46
26.609,153.4
26.625,157.15
26.640,158.37
26.656,158.52
26.671,158.53
26.687,158.48
26.703,157.79
26.718,155.9
26.734,152.55
26.750,147.92
26.765,142.39
26.781,136.21
26.796,129.17
26.812,120.61
26.828,109.64
26.843,95.43
26.859,77.8
26.875,57.23
26.890,34.61
26.906,10.74
26.921,-14.14
26.937,-40.51
26.953,-69.06
26.968,-99.92
26.984,-132.11
27.000,-163.35
27.015,-190.75
27.031,-211.77
27.046,-225.0
27.062,-230.46
27.078,-229.18
27.093,-222.49
27.109,-211.49
27.125,-196.93
27.140,-179.37
27.156,-159.62
27.171,-138.66
27.187,-117.52
27.203,-97.15
27.218,-78.17
27.234,-60.95
27.250,-45.61
27.265,-32.13
27.281,-20.17
27.296,-8.95
27.312,2.75
27.328,16.43
27.343,33.33
27.359,53.83
27.375,77.05
27.390,101.04
27.406,123.17
27.421,141.01
27.437,153.02
27.453,158.77
27.468,158.93
27.484,154.63
27.500,147.11
27.515,137.45
27.531,126.69
27.546,115.93
27.562,106.32
27.578,98.87
27.593,94.07
27.609,91.64
27.625,90.35
27.640,88.36
27.656,83.7
27.671,74.99
27.687,61.91
27.703,45.34
27.718,26.98
27.734,8.77
27.750,-7.47
27.765,-20.67
27.781,-30.66
27.796,-37.95
27.812,-43.54
27.828,-48.73
27.843,-54.75
27.859,-62.47
27.875,-72.0
27.890,-81.78
27.906,-89.48
27.921,-92.72
27.937,-89.89
27.953,-80.58
27.968,-65.75
27.984,-47.29
28.000,-27.3
28.015,-7.55
28.031,11.95
28.046,31.47
28.062,50.98
28.078,69.83
28.093,86.95
28.109,101.17
28.125,111.72
28.140,118.61
28.156,122.69
28.171,127.18
28.187,134.77
28.203,146.73
28.218,162.49
28.234,179.96
28.250,196.44
28.265,209.47
28.281,217.79
28.296,221.35
28.312,223.27
28.328,225.8
28.343,229.12
28.359,231.31
28.375,228.64
28.390,217.26
28.406,194.07
28.421,158.58
28.437,99.32
28.453,14.88
28.468,-86.67
28.484,-188.7
28.500,-271.92
28.515,-322.72
28.531,-336.92
28.546,-320.13
28.562,-283.33
28.578,-238.62
28.593,-194.04
28.609,-155.07
28.625,-124.19
28.640,-100.58
28.656,-81.7
28.671,-64.43
28.687,-47.0
28.703,-27.2
28.718,-5.96
28.734,18.06
28.750,44.03
28.765,64.02
28.781,70.18
28.796,57.4
28.812,32.51
28.828,-0.87
28.843,-39.39
28.859,-81.29
28.875,-121.83
28.890,-156.95
28.906,-183.59
28.921,-198.9
28.937,-201.37
28.953,-191.07
28.968,-171.42
28.984,-146.83
29.000,-122.11
29.015,-99.97
29.031,-81.63
29.046,-66.99
29.062,-55.12
29.078,-46.15
29.093,-40.65
29.109,-40.15
29.125,-44.7
29.140,-53.06
29.156,-62.69
29.171,-71.6
29.187,-79.39
29.203,-87.02
29.218,-96.79
29.234,-109.62
29.250,-124.85
29.265,-139.41
29.281,-148.94
29.296,-148.66
29.312,-134.23
29.328,-102.91
29.343,-54.29
29.359,8.48
29.375,80.71
29.390,156.6
29.406,230.08
29.421,293.27
29.437,335.67
29.453,348.74
29.468,330.23
29.484,290.64
29.500,238.71
29.515,182.37
29.531,128.45
29.546,82.46
29.562,48.55
29.578,27.98
29.593,19.62
29.609,20.71
29.625,27.63
29.640,35.59
29.656,40.72
29.671,40.01
29.687,31.04
29.703,12.44
29.718,-15.59
29.734,-50.46
29.750,-88.11
29.765,-124.59
29.781,-158.18
29.796,-188.57
29.812,-216.61
29.828,-243.79
29.843,-271.37
29.859,-299.94
29.875,-328.88
29.890,-356.56
29.906,-380.6
29.921,-398.31
29.937,-405.86
29.953,-398.98
29.968,-374.61
29.984,-332.21
30.000,-274.48
30.015,-206.46
30.031,-133.91
30.046,-61.53
30.062,7.55
30.078,71.86
30.093,130.27
30.109,180.5
30.125,218.87
30.140,241.22
30.156,244.51
30.171,228.36
30.187,195.48
30.203,151.02
30.218,101.25
30.234,52.05
30.250,7.51
30.265,-30.39
30.281,-61.45
30.296,-86.34
30.312,-105.69
30.328,-119.72
30.343,-128.35
30.359,-131.63
30.375,-130.03
30.390,-124.53
30.406,-116.22
30.421,-106.03
30.437,-94.66
30.453,-82.72
30.468,-71.11
30.484,-61.07
30.500,-53.93
30.515,-50.61
30.531,-51.09
30.546,-54.12
30.562,-57.4
30.578,-58.22
30.593,-54.06
30.609,-43.46
30.625,-26.38
30.640,-4.2
30.656,20.66
30.671,45.42
30.687,67.79
30.703,86.33
30.718,100.52
30.734,110.54
30.750,116.77
30.765,119.58
30.781,119.22
30.796,115.89
30.812,109.86
30.828,101.42
30.843,90.84
30.859,78.39
30.875,64.48
30.890,49.84
30.906,35.83
30.921,24.38
30.937,17.78
30.953,18.19
30.968,27.17
30.984,45.34
31.000,72.23
31.015,106.32
31.031,145.03
31.046,184.98
31.062,222.04
31.078,251.87
31.093,270.42
31.109,274.79
31.125,263.82
31.140,238.52
31.156,202.01
31.171,159.02
31.187,115.07
31.203,75.34
31.218,43.72
31.234,22.3
31.250,11.18
31.265,8.77
31.281,12.44
31.296,19.13
31.312,25.94
31.328,30.48
31.343,31.01
31.359,26.5
31.375,16.65
31.390,1.74
31.406,-17.65
31.421,-40.94
31.437,-67.71
31.453,-97.66
31.468,-130.19
31.484,-163.87
31.500,-196.08
31.515,-223.14
31.531,-241.03
31.546,-246.47
31.562,-238.05
31.578,-216.82
31.593,-186.03
31.609,-149.97
31.625,-112.55
31.640,-76.41
31.656,-42.61
31.671,-11.38
31.687,17.09
31.703,42.02
31.718,62.11
31.734,76.1
31.750,83.52
31.765,84.84
31.781,81.15
31.796,73.67
31.812,63.32
31.828,50.73
31.843,36.68
31.859,22.37
31.875,9.4
31.890,-0.77
31.906,-7.24
31.921,-9.9
31.937,-9.03
31.953,-4.75
31.968,3.47
31.984,16.61
32.000,35.33
32.015,58.99
32.031,85.02
32.046,109.22
32.062,126.91
32.078,134.52
32.093,130.8
32.109,117.21
32.125,97.1
32.140,74.31
32.156,51.83
32.171,31.24
32.187,12.97
32.203,-2.92
32.218,-16.1
32.234,-25.85
32.250,-31.46
32.265,-32.79
32.281,-30.79
32.296,-27.2
32.312,-24.05
32.328,-23.04
32.343,-25.06
32.359,-30.0
32.375,-36.75
32.390,-43.17
32.406,-46.34
32.421,-43.03
32.437,-30.44
32.453,-7.25
32.468,25.47
32.484,63.83
32.500,101.5
32.515,130.9
32.531,145.16
32.546,140.08
32.562,115.36
32.578,74.62
32.593,24.2
32.609,-28.76
32.625,-78.28
32.640,-120.66
32.656,-154.76
32.671,-181.4
32.687,-202.55
32.703,-220.4
32.718,-236.62
32.734,-251.92
32.750,-265.8
32.765,-276.36
32.781,-280.68
32.796,-275.56
32.812,-258.4
32.828,-228.11
32.843,-185.63
32.859,-133.68
32.875,-76.38
32.890,-18.4
32.906,36.16
32.921,84.55
32.937,125.72
32.953,159.99
32.968,187.92
32.984,209.18
33.000,222.03
33.015,223.59
33.031,211.22
33.046,183.98
33.062,143.57
33.078,94.24
33.093,41.97
33.109,-6.62
33.125,-45.38
33.140,-69.39
33.156,-75.59
33.171,-63.28
33.187,-34.31
33.203,7.01
33.218,54.73
33.234,102.39
33.250,144.16
33.265,175.76
33.281,194.75
33.296,200.52
33.312,194.1
33.328,177.76
33.343,154.48
33.359,127.46
33.375,99.56
33.390,72.92
33.406,49.03
33.421,28.84
33.437,12.81
33.453,0.93
33.468,-7.12
33.484,-11.82
33.500,-13.31
33.515,-11.21
33.531,-4.76
33.546,6.71
33.562,23.17
33.578,43.51
33.593,65.5
33.609,86.16
33.625,101.99
33.640,109.33
33.656,104.77
33.671,85.85
33.687,52.07
33.703,5.69
33.718,-48.07
33.734,-101.94
33.750,-148.47
33.765,-182.05
33.781,-200.18
33.796,-203.31
33.812,-193.42
33.828,-172.22
33.843,-140.2
33.859,-96.99
33.875,-42.72
33.890,20.45
33.906,87.92
33.921,153.48
33.937,210.82
33.953,255.03
33.968,283.3
33.984,294.73
34.000,289.92
34.015,270.66
34.031,239.8
34.046,201.15
34.062,158.85
34.078,116.45
34.093,76.06
34.109,38.22
34.125,2.35
34.140,-32.14
34.156,-65.14
34.171,-95.75
34.187,-122.73
34.203,-145.19
34.218,-163.06
34.234,-177.06
34.250,-188.46
34.265,-198.71
34.281,-208.94
34.296,-219.48
34.312,-229.44
34.328,-236.81
34.343,-238.99
34.359,-234.05
34.375,-221.63
34.390,-203.25
34.406,-181.77
34.421,-160.0
34.437,-139.42
34.453,-119.65
34.468,-99.09
34.484,-76.41
34.500,-51.86
34.515,-27.61
34.531,-6.72
34.546,8.54
34.562,18.12
34.578,24.24
34.593,30.27
34.609,39.07
34.625,51.87
34.640,68.12
34.656,86.46
34.671,105.69
34.687,125.21
34.703,144.7
34.718,163.33
34.734,179.43
34.750,190.92
34.765,196.24
34.781,195.07
34.796,188.46
34.812,178.28
34.828,166.35
34.843,153.94
34.859,141.65
34.875,129.52
34.890,117.37
34.906,104.89
34.921,91.64
34.937,77.12
34.953,61.01
34.968,43.4
34.984,24.93
35.000,6.73
35.015,-10.0
35.031,-24.32
35.046,-35.73
35.062,-44.1
35.078,-49.51
35.093,-52.03
35.109,-51.71
35.125,-48.58
35.140,-42.8
35.156,-34.76
35.171,-25.17
35.187,-14.86
35.203,-4.73
35.218,4.43
35.234,12.05
35.250,17.59
35.265,20.65
35.281,21.02
35.296,18.78
35.312,14.5
35.328,9.17
35.343,3.97
35.359,-0.14
35.375,-2.8
35.390,-4.48
35.406,-6.22
35.421,-9.24
35.437,-14.4
35.453,-21.82
35.468,-30.83
35.484,-40.18
35.500,-48.36
35.515,-53.9
35.531,-55.63
35.546,-52.79
35.562,-45.33
35.578,-33.96
35.593,-20.23
35.609,-6.21
35.625,5.88
35.640,14.29
35.656,18.14
35.671,17.51
35.687,13.32
35.703,6.9
35.718,-0.42
35.734,-7.52
35.750,-13.66
35.765,-18.44
35.781,-21.79
35.796,-23.88
35.812,-25.09
35.828,-25.97
35.843,-27.08
35.859,-28.94
35.875,-31.92
35.890,-36.26
35.906,-41.95
35.921,-48.81
35.937,-56.57
35.953,-64.99
35.968,-73.83
35.984,-82.72
36.000,-90.94
36.015,-97.26
36.031,-100.2
36.046,-98.33
36.062,-90.97
36.078,-78.45
36.093,-62.26
36.109,-44.53
36.125,-27.51
36.140,-13.08
36.156,-2.49
36.171,3.56
36.187,4.75
36.203,0.86
36.218,-8.24
36.234,-22.6
36.250,-41.97
36.265,-65.52
36.281,-91.71
36.296,-118.11
36.312,-141.85
36.328,-160.13
36.343,-171.07
36.359,-174.14
36.375,-170.31
36.390,-161.6
36.406,-150.42
36.421,-139.05
36.437,-129.36
36.453,-122.82
36.468,-120.39
36.484,-122.25
36.500,-127.28
36.515,-132.95
36.531,-135.79
36.546,-132.49
36.562,-121.25
36.578,-102.39
36.593,-78.21
36.609,-51.88
36.625,-25.94
36.640,-1.3
36.656,22.92
36.671,48.82
36.687,78.82
36.703,114.57
36.718,156.3
36.734,202.58
36.750,250.25
36.765,294.85
36.781,331.38
36.796,355.2
36.812,363.06
36.828,353.82
36.843,328.59
36.859,290.23
36.875,242.51
36.890,188.97
36.906,132.28
36.921,74.0
36.937,14.9
36.953,-44.52
36.968,-103.55
36.984,-160.9
37.000,-214.29
37.015,-260.12
37.031,-293.54
37.046,-309.1
37.062,-302.11
37.078,-270.49
37.093,-216.18
37.109,-145.28
37.125,-66.64
37.140,10.6
37.156,79.71
37.171,137.63
37.187,184.63
37.203,222.3
37.218,251.18
37.234,269.43
37.250,273.09
37.265,258.07
37.281,222.6
37.296,169.02
37.312,103.75
37.328,35.7
37.343,-26.61
37.359,-77.91
37.375,-117.38
37.390,-147.53
37.406,-171.33
37.421,-189.2
37.437,-197.74
37.453,-191.1
37.468,-164.4
37.484,-117.12
37.500,-54.6
37.515,13.56
37.531,77.1
37.546,128.49
37.562,164.62
37.578,185.72
37.593,192.97
37.609,186.49
37.625,165.2
37.640,128.29
37.656,77.32
37.671,17.08
37.687,-45.44
37.703,-103.57
37.718,-153.11
37.734,-192.81
37.750,-223.21
37.765,-244.29
37.781,-253.99
37.796,-248.49
37.812,-224.44
37.828,-181.6
37.843,-124.26
37.859,-60.51
37.875,0.49
37.890,51.75
37.906,90.6
37.921,118.19
37.937,137.11
37.953,148.64
37.968,151.44
37.984,142.39
38.000,118.93
38.015,81.01
38.031,31.5
38.046,-25.04
38.062,-84.01
38.078,-141.77
38.093,-195.41
38.109,-241.65
38.125,-276.07
38.140,-293.5
38.156,-289.64
38.171,-262.89
38.187,-215.39
38.203,-152.73
38.218,-82.55
38.234,-12.69
38.250,50.18
38.265,101.12
38.281,137.34
38.296,158.13
38.312,164.73
38.328,159.96
38.343,147.49
38.359,130.99
38.375,113.37
38.390,96.59
38.406,81.65
38.421,69.05
38.437,58.93
38.453,51.22
38.468,45.6
38.484,41.45
38.500,37.89
38.515,34.15
38.531,29.75
38.546,24.64
38.562,19.15
38.578,13.9
38.593,9.55
38.609,6.78
38.625,6.1
38.640,7.8
38.656,11.79
38.671,17.55
38.687,24.17
38.703,30.59
38.718,35.8
38.734,39.08
38.750,40.2
38.765,39.24
38.781,36.64
38.796,33.02
38.812,29.06
38.828,25.35
38.843,22.32
38.859,20.08
38.875,18.37
38.890,16.77
38.906,14.79
38.921,12.19
38.937,9.0
38.953,5.47
38.968,1.94
38.984,-1.39
39.000,-4.52
39.015,-7.68
39.031,-11.11
39.046,-14.97
39.062,-19.16
39.078,-23.32
39.093,-26.88
39.109,-29.13
39.125,-29.34
39.140,-27.02
39.156,-22.04
39.171,-14.69
39.187,-5.76
39.203,3.68
39.218,12.49
39.234,19.66
39.250,24.58
39.265,27.04
39.281,27.18
39.296,25.47
39.312,22.53
39.328,19.01
39.343,15.5
39.359,12.45
39.375,10.01
39.390,8.05
39.406,6.24
39.421,4.12
39.437,1.43
39.453,-1.81
39.468,-5.31
39.484,-8.6
39.500,-11.23
39.515,-13.01
39.531,-14.04
39.546,-14.71
39.562,-15.5
39.578,-16.8
39.593,-18.67
39.609,-20.79
39.625,-22.42
39.640,-22.53
39.656,-20.16
39.671,-14.68
39.687,-6.11
39.703,4.84
39.718,16.95
39.734,28.9
39.750,39.63
39.765,48.58
39.781,55.64
39.796,60.94
39.812,64.67
39.828,66.86
39.843,67.49
39.859,66.61
39.875,64.5
39.890,61.62
39.906,58.48
39.921,55.44
39.937,52.52
39.953,49.45
39.968,45.77
39.984,41.07
40.000,35.14
40.015,28.1
40.031,20.35
40.046,12.45
40.062,4.93
40.078,-1.86
40.093,-7.81
40.109,-13.07
40.125,-17.91
40.140,-22.63
40.156,-27.32
40.171,-31.78
40.187,-35.46
40.203,-37.6
40.218,-37.44
40.234,-34.58
40.250,-29.07
40.265,-21.6
40.281,-13.21
40.296,-5.02
40.312,2.1
40.328,7.68
40.343,11.66
40.359,14.19
40.375,15.36
40.390,15.24
40.406,13.83
40.421,11.32
40.437,8.18
40.453,5.07
40.468,2.69
40.484,1.43
40.500,1.27
40.515,1.75
40.531,2.3
40.546,2.46
40.562,2.12
40.578,1.45
40.593,0.79
40.609,0.37
40.625,0.23
40.640,0.16
40.656,-0.15
40.671,-0.89
40.687,-2.11
40.703,-3.69
40.718,-5.51
40.734,-7.46
40.750,-9.49
40.765,-11.46
40.781,-13.03
40.796,-13.62
40.812,-12.56
40.828,-9.35
40.843,-3.97
40.859,2.98
40.875,10.43
40.890,17.19
40.906,22.26
40.921,25.23
40.937,26.21
40.953,25.61
40.968,23.91
40.984,21.47
41.000,18.44
41.015,14.95
41.031,11.2
41.046,7.59
41.062,4.58
41.078,2.55
41.093,1.57
41.109,1.38
41.125,1.45
41.140,1.19
41.156,0.18
41.171,-1.69
41.187,-4.22
41.203,-7.04
41.218,-9.77
41.234,-12.14
41.250,-14.05
41.265,-15.55
41.281,-16.77
41.296,-17.92
41.312,-19.16
41.328,-20.64
41.343,-22.34
41.359,-24.14
41.375,-25.62
41.390,-26.23
41.406,-25.37
41.421,-22.68
41.437,-18.12
41.453,-12.06
41.468,-5.18
41.484,1.76
41.500,8.09
41.515,13.33
41.531,17.19
41.546,19.52
41.562,20.3
41.578,19.7
41.593,18.07
41.609,15.95
41.625,13.85
41.640,12.12
41.656,10.78
41.671,9.62
41.687,8.3
41.703,6.62
41.718,4.59
41.734,2.42
41.750,0.41
41.765,-1.23
41.781,-2.42
41.796,-3.21
41.812,-3.68
41.828,-3.96
41.843,-4.14
41.859,-4.37
41.875,-4.8
41.890,-5.54
41.906,-6.64
41.921,-8.02
41.937,-9.36
41.953,-10.21
41.968,-10.08
41.984,-8.59
42.000,-5.57
42.015,-1.2
42.031,4.09
42.046,9.62
42.062,14.76
42.078,19.0
42.093,22.08
42.109,23.95
42.125,24.65
42.140,24.29
42.156,23.01
42.171,20.95
42.187,18.31
42.203,15.39
42.218,12.53
42.234,10.05
42.250,8.11
42.265,6.76
42.281,5.89
42.296,5.34
42.312,4.97
42.328,4.68
42.343,4.42
42.359,4.16
42.375,3.8
42.390,3.22
42.406,2.37
42.421,1.24
42.437,-0.07
42.453,-1.39
42.468,-2.62
42.484,-3.79
42.500,-5.03
42.515,-6.51
42.531,-8.24
42.546,-9.98
42.562,-11.23
42.578,-11.36
42.593,-9.83
42.609,-6.38
42.625,-1.19
42.640,5.21
42.656,12.01
42.671,18.41
42.687,23.73
42.703,27.56
42.718,29.7
42.734,30.21
42.750,29.21
42.765,26.92
42.781,23.64
42.796,19.75
42.812,15.77
42.828,12.21
42.843,9.5
42.859,7.79
42.875,6.99
42.890,6.73
42.906,6.6
42.921,6.25
42.937,5.44
42.953,4.17
42.968,2.53
42.984,0.64
43.000,-1.45
43.015,-3.65
43.031,-5.87
43.046,-7.91
43.062,-9.5
43.078,-10.44
43.093,-10.67
43.109,-10.4
43.125,-10.02
43.140,-9.97
43.156,-10.48
43.171,-11.49
43.187,-12.55
43.203,-13.01
43.218,-12.21
43.234,-9.7
43.250,-5.4
43.265,0.35
43.281,6.92
43.296,13.45
43.312,19.09
43.328,23.16
43.343,25.3
43.359,25.53
43.375,24.13
43.390,21.62
43.406,18.58
43.421,15.59
43.437,13.14
43.453,11.58
43.468,11.02
43.484,11.32
43.500,12.14
43.515,13.1
43.531,13.89
43.546,14.44
43.562,14.85
43.578,15.3
43.593,15.94
43.609,16.71
43.625,17.41
43.640,17.82
43.656,17.86
43.671,17.63
43.687,17.45
43.703,17.61
43.718,18.31
43.734,19.58
43.750,21.22
43.765,22.88
43.781,24.2
43.796,24.9
43.812,24.98
43.828,24.78
43.843,24.95
43.859,26.31
43.875,29.68
43.890,35.53
43.906,43.89
43.921,54.29
43.937,65.95
43.953,78.05
43.968,89.94
43.984,101.2
44.000,111.51
44.015,120.48
44.031,127.47
44.046,131.63
44.062,132.13
44.078,128.54
44.093,121.08
44.109,110.57
44.125,98.11
44.140,84.65
44.156,70.64
44.171,56.13
44.187,41.07
44.203,25.38
44.218,9.03
44.234,-8.23
44.250,-27.09
44.265,-48.46
44.281,-73.02
44.296,-100.62
44.312,-129.97
44.328,-158.88
44.343,-185.12
44.359,-207.18
44.375,-224.58
44.390,-237.62
44.406,-246.66
44.421,-251.37
44.437,-250.77
44.453,-243.71
44.468,-229.58
44.484,-209.15
44.500,-184.67
44.515,-159.27
44.531,-136.12
44.546,-117.26
44.562,-103.15
44.578,-92.72
44.593,-84.17
44.609,-75.94
44.625,-67.55
44.640,-59.8
44.656,-54.48
44.671,-53.42
44.687,-57.4
44.703,-65.78
44.718,-76.54
44.734,-86.89
44.750,-93.84
44.765,-94.87
44.781,-88.1
44.796,-72.62
44.812,-49.0
44.828,-19.53
44.843,11.58
44.859,39.01
44.875,58.3
44.890,68.09
44.906,71.14
44.921,73.4
44.937,81.18
44.953,97.74
44.968,122.11
44.984,149.5
45.000,173.64
45.015,190.0
45.031,197.44
45.046,197.81
45.062,193.92
45.078,187.62
45.093,178.9
45.109,167.55
45.125,154.37
45.140,141.45
45.156,131.73
45.171,127.42
45.187,128.39
45.203,131.62
45.218,131.85
45.234,123.24
45.250,102.22
45.265,68.5
45.281,24.2
45.296,-26.44
45.312,-78.39
45.328,-127.02
45.343,-167.71
45.359,-194.83
45.375,-208.79
45.390,-213.47
45.406,-211.11
45.421,-204.71
45.437,-196.09
45.453,-184.6
45.468,-167.44
45.484,-140.52
45.500,-100.54
45.515,-47.09
45.531,17.4
45.546,87.85
45.562,156.32
45.578,214.59
45.593,256.13
45.609,276.54
45.625,274.44
45.640,251.4
45.656,211.28
45.671,160.0
45.687,104.46
45.703,49.64
45.718,-0.96
45.734,-45.13
45.750,-82.49
45.765,-113.74
45.781,-140.42
45.796,-164.46
45.812,-187.15
45.828,-208.09
45.843,-226.6
45.859,-240.91
45.875,-243.55
45.890,-228.96
45.906,-196.13
45.921,-150.08
45.937,-99.71
45.953,-56.86
45.968,-22.24
45.984,8.21
46.000,40.22
46.015,78.51
46.031,124.36
46.046,174.25
46.062,221.37
46.078,258.12
46.093,278.71
46.109,281.67
46.125,268.08
46.140,240.94
46.156,203.51
46.171,157.11
46.187,101.66
46.203,37.63
46.218,-31.93
46.234,-101.19
46.250,-162.41
46.265,-209.82
46.281,-240.61
46.296,-254.2
46.312,-251.03
46.328,-230.65
46.343,-191.81
46.359,-134.05
46.375,-60.89
46.390,19.09
46.406,91.94
46.421,142.19
46.437,157.82
46.453,133.61
46.468,72.5
46.484,-15.58
46.500,-115.73
46.515,-211.32
46.531,-285.8
46.546,-326.62
46.562,-327.67
46.578,-291.03
46.593,-227.32
46.609,-153.03
46.625,-85.78
46.640,-38.36
46.656,-15.49
46.671,-11.63
46.687,-15.35
46.703,-13.48
46.718,4.53
46.734,43.22
46.750,100.95
46.765,171.35
46.781,245.59
46.796,309.82
46.812,351.2
46.828,361.56
46.843,341.27
46.859,297.08
46.875,236.33
46.890,166.67
46.906,88.16
46.921,1.41
46.937,-90.2
46.953,-178.89
46.968,-258.16
46.984,-324.94
47.000,-375.27
47.015,-402.74
47.031,-404.25
47.046,-380.89
47.062,-337.48
47.078,-291.18
47.093,-245.78
47.109,-199.63
47.125,-149.26
47.140,-89.13
47.156,-19.38
47.171,55.19
47.187,126.67
47.203,187.27
47.218,231.43
47.234,259.18
47.250,272.72
47.265,275.64
47.281,271.63
47.296,262.36
47.312,247.95
47.328,228.11
47.343,203.94
47.359,177.78
47.375,153.86
47.390,134.34
47.406,119.23
47.421,107.19
47.437,95.56
47.453,81.75
47.468,64.35
47.484,44.16
47.500,23.89
47.515,7.96
47.531,-1.02
47.546,-3.53
47.562,-3.03
47.578,-5.32
47.593,-16.52
47.609,-40.81
47.625,-78.21
47.640,-123.06
47.656,-164.38
47.671,-191.28
47.687,-197.88
47.703,-184.61
47.718,-156.19
47.734,-118.77
47.750,-77.92
47.765,-37.83
47.781,-1.92
47.796,27.74
47.812,50.13
47.828,63.72
47.843,67.76
47.859,63.8
47.875,56.13
47.890,51.07
47.906,55.04
47.921,71.71
47.937,99.73
47.953,132.59
47.968,159.46
47.984,170.25
48.000,160.73
48.015,134.08
48.031,98.28
48.046,62.9
48.062,29.57
48.078,-3.83
48.093,-41.48
48.109,-86.94
48.125,-140.12
48.140,-196.45
48.156,-249.05
48.171,-292.41
48.187,-320.0
48.203,-329.41
48.218,-319.55
48.234,-289.43
48.250,-237.86
48.265,-163.94
48.281,-69.02
48.296,41.27
48.312,156.51
48.328,261.23
48.343,336.81
48.359,371.36
48.375,365.01
48.390,328.09
48.406,274.29
48.421,214.23
48.437,153.67
48.453,97.12
48.468,43.72
48.484,-5.7
48.500,-47.31
48.515,-76.9
48.531,-92.63
48.546,-96.19
48.562,-92.27
48.578,-84.8
48.593,-78.33
48.609,-76.1
48.625,-78.22
48.640,-81.48
48.656,-81.22
48.671,-73.76
48.687,-58.17
48.703,-36.34
48.718,-11.86
48.734,11.1
48.750,29.41
48.765,42.3
48.781,50.85
48.796,56.67
48.812,60.36
48.828,61.09
48.843,57.34
48.859,48.22
48.875,33.65
48.890,14.92
48.906,-5.52
48.921,-25.54
48.937,-44.21
48.953,-62.8
48.968,-84.33
48.984,-111.93
49.000,-143.74
49.015,-174.56
49.031,-196.42
49.046,-201.77
49.062,-187.3
49.078,-154.59
49.093,-109.66
49.109,-60.32
49.125,-13.75
49.140,25.33
49.156,54.75
49.171,75.24
49.187,90.5
49.203,104.67
49.218,122.41
49.234,147.11
49.250,179.81
49.265,218.63
49.281,259.35
49.296,296.31
49.312,324.51
49.328,340.91
49.343,340.67
49.359,323.48
49.375,291.98
49.390,250.63
49.406,204.72
49.421,159.4
49.437,118.66
49.453,84.74
49.468,57.74
49.484,35.86
49.500,17.24
49.515,0.25
49.531,-15.59
49.546,-29.4
49.562,-39.51
49.578,-44.64
49.593,-44.74
49.609,-41.18
49.625,-36.28
49.640,-31.67
49.656,-28.25
49.671,-26.12
49.687,-24.89
49.703,-24.16
49.718,-23.87
49.734,-24.24
49.750,-25.56
49.765,-28.02
49.781,-31.2
49.796,-34.68
49.812,-38.22
49.828,-41.88
49.843,-45.98
49.859,-50.83
49.875,-56.59
49.890,-63.16
49.906,-70.22
49.921,-77.28
49.937,-83.96
49.953,-90.01
49.968,-95.2
49.984,-99.23
50.000,-101.66
50.015,-102.11
50.031,-100.5
50.046,-97.37
50.062,-93.8
50.078,-91.25
50.093,-91.15
50.109,-94.23
50.125,-100.16
50.140,-107.52
50.156,-114.13
50.171,-117.74
50.187,-116.72
50.203,-110.51
50.218,-99.71
50.234,-85.87
50.250,-70.81
50.265,-56.31
50.281,-43.54
50.296,-33.02
50.312,-24.66
50.328,-17.87
50.343,-11.95
50.359,-6.33
50.375,-0.74
50.390,4.72
50.406,9.57
50.421,13.17
50.437,15.0
50.453,14.75
50.468,12.47
50.484,8.46
50.500,3.22
50.515,-2.69
50.531,-8.68
50.546,-14.17
50.562,-18.71
50.578,-21.94
50.593,-23.85
50.609,-24.65
50.625,-24.9
50.640,-25.18
50.656,-26.05
50.671,-27.8
50.687,-30.55
50.703,-34.33
50.718,-39.17
50.734,-45.12
50.750,-52.05
50.765,-59.52
50.781,-66.61
50.796,-72.13
50.812,-74.98
50.828,-74.5
50.843,-70.85
50.859,-64.82
50.875,-57.49
50.890,-49.78
50.906,-42.06
50.921,-34.31
50.937,-26.28
50.953,-17.98
50.968,-9.87
50.984,-2.89
51.000,1.99
51.015,4.2
51.031,3.94
51.046,2.29
51.062,0.79
51.078,0.95
51.093,3.47
51.109,8.02
51.125,13.27
51.140,17.77
51.156,20.73
51.171,22.45
51.187,24.23
51.203,27.57
51.218,33.43
51.234,41.61
51.250,50.85
51.265,59.06
51.281,64.29
51.296,65.09
51.312,60.76
51.328,51.27
51.343,37.23
51.359,19.8
51.375,0.71
51.390,-17.94
51.406,-34.44
51.421,-47.17
51.437,-55.05
51.453,-57.76
51.468,-55.9
51.484,-50.63
51.500,-43.24
51.515,-34.72
51.531,-25.58
51.546,-16.75
51.562,-8.49
51.578,-0.55
51.593,7.39
51.609,15.27
51.625,22.59
51.640,28.62
51.656,32.55
51.671,33.69
51.687,30.24
51.703,21.41
51.718,7.36
51.734,-11.55
51.750,-35.48
51.765,-65.22
51.781,-101.3
51.796,-142.93
51.812,-187.46
51.828,-232.11
51.843,-271.79
51.859,-300.04
51.875,-310.84
51.890,-300.43
51.906,-268.27
51.921,-217.05
51.937,-151.99
51.953,-70.81
51.968,18.39
51.984,101.23
52.000,163.65
52.015,198.89
52.031,208.79
52.046,200.31
52.062,180.91
52.078,156.38
52.093,130.5
52.109,103.81
52.125,77.54
52.140,54.03
52.156,35.63
52.171,23.76
52.187,18.89
52.203,19.94
52.218,25.3
52.234,33.21
52.250,40.62
52.265,46.18
52.281,50.06
52.296,53.25
52.312,56.07
52.328,58.61
52.343,60.67
52.359,62.77
52.375,67.32
52.390,75.81
52.406,89.32
52.421,106.3
52.437,122.03
52.453,126.06
52.468,110.16
52.484,72.18
52.500,20.23
52.515,-31.82
52.531,-72.08
52.546,-92.09
52.562,-90.23
52.578,-67.06
52.593,-24.16
52.609,36.55
52.625,110.89
52.640,191.57
52.656,269.18
52.671,325.86
52.687,346.88
52.703,326.47
52.718,270.47
52.734,192.32
52.750,115.61
52.765,47.6
52.781,-9.95
52.796,-57.37
52.812,-96.18
52.828,-128.25
52.843,-153.62
52.859,-172.3
52.875,-185.93
52.890,-197.8
52.906,-213.31
52.921,-234.63
52.937,-259.57
52.953,-281.3
52.968,-288.64
52.984,-270.43
53.000,-220.83
53.015,-142.73
53.031,-47.06
53.046,50.28
53.062,136.39
53.078,204.05
53.093,251.61
53.109,281.1
53.125,294.25
53.140,289.78
53.156,263.6
53.171,211.58
53.187,132.34
53.203,31.08
53.218,-80.98
53.234,-189.25
53.250,-278.8
53.265,-338.08
53.281,-361.62
53.296,-350.55
53.312,-311.12
53.328,-252.5
53.343,-183.3
53.359,-110.29
53.375,-38.4
53.390,28.56
53.406,86.92
53.421,133.13
53.437,164.83
53.453,182.12
53.468,187.89
53.484,187.48
53.500,186.69
53.515,190.03
53.531,199.52
53.546,214.47
53.562,232.47
53.578,250.34
53.593,264.88
53.609,273.45
53.625,274.58
53.640,268.5
53.656,257.38
53.671,244.46
53.687,232.39
53.703,222.13
53.718,212.58
53.734,201.26
53.750,185.16
53.765,161.99
53.781,130.91
53.796,93.18
53.812,51.27
53.828,8.24
53.843,-32.33
53.859,-66.62
53.875,-91.12
53.890,-105.12
53.906,-111.81
53.921,-117.89
53.937,-130.41
53.953,-154.69
53.968,-192.45
53.984,-240.62
54.000,-290.1
54.015,-327.82
54.031,-343.49
54.046,-334.49
54.062,-306.53
54.078,-267.92
54.093,-226.2
54.109,-186.04
54.125,-148.51
54.140,-111.04
54.156,-68.73
54.171,-17.01
54.187,44.41
54.203,110.36
54.218,174.67
54.234,231.09
54.250,274.89
54.265,304.01
54.281,310.28
54.296,292.82
54.312,254.21
54.328,203.98
54.343,141.42
54.359,66.77
54.375,-16.39
54.390,-101.49
54.406,-181.72
54.421,-249.87
54.437,-300.65
54.453,-329.17
54.468,-334.68
54.484,-321.69
54.500,-294.08
54.515,-255.6
54.531,-209.8
54.546,-164.98
54.562,-121.04
54.578,-74.97
54.593,-24.14
54.609,32.47
54.625,92.76
54.640,154.87
54.656,215.28
54.671,268.43
54.687,307.14
54.703,320.15
54.718,300.75
54.734,250.48
54.750,186.74
54.765,118.62
54.781,51.5
54.796,-12.0
54.812,-67.19
54.828,-109.12
54.843,-132.83
54.859,-134.74
54.875,-114.62
54.890,-76.31
54.906,-28.97
54.921,18.5
54.937,58.71
54.953,86.58
54.968,99.29
54.984,97.4
55.000,84.55
55.015,65.9
55.031,46.27
55.046,27.04
55.062,8.46
55.078,-10.08
55.093,-29.33
55.109,-49.71
55.125,-70.34
55.140,-89.26
55.156,-104.25
55.171,-113.68
55.187,-118.32
55.203,-119.42
55.218,-118.49
55.234,-117.71
55.250,-120.2
55.265,-129.55
55.281,-149.08
55.296,-180.67
55.312,-219.22
55.328,-256.04
55.343,-278.69
55.359,-274.84
55.375,-238.5
55.390,-173.09
55.406,-90.19
55.421,-5.61
55.437,65.35
55.453,112.92
55.468,134.43
55.484,130.89
55.500,107.14
55.515,70.79
55.531,31.14
55.546,-2.2
55.562,-21.24
55.578,-21.13
55.593,-0.95
55.609,34.48
55.625,75.82
55.640,113.0
55.656,138.07
55.671,147.08
55.687,140.67
55.703,123.03
55.718,100.26
55.734,78.64
55.750,62.93
55.765,55.8
55.781,58.85
55.796,72.14
55.812,93.9
55.828,121.1
55.843,150.81
55.859,181.54
55.875,213.67
55.890,248.27
55.906,279.4
55.921,299.51
55.937,300.76
55.953,277.88
55.968,231.02
55.984,166.34
56.000,94.09
56.015,25.48
56.031,-30.64
56.046,-70.51
56.062,-96.02
56.078,-110.42
56.093,-117.14
56.109,-118.89
56.125,-117.47
56.140,-114.16
56.156,-110.53
56.171,-109.1
56.187,-111.31
56.203,-118.38
56.218,-129.79
56.234,-143.0
56.250,-153.79
56.265,-157.96
56.281,-153.28
56.296,-140.51
56.312,-122.9
56.328,-104.37
56.343,-87.13
56.359,-70.49
56.375,-52.21
56.390,-30.46
56.406,-5.57
56.421,19.56
56.437,40.69
56.453,54.23
56.468,58.57
56.484,54.63
56.500,45.28
56.515,33.83
56.531,23.05
56.546,14.77
56.562,9.78
56.578,8.07
56.593,8.93
56.609,11.17
56.625,13.39
56.640,14.61
56.656,14.32
56.671,12.63
56.687,10.18
56.703,8.01
56.718,7.29
56.734,8.92
56.750,13.08
56.765,18.73
56.781,23.57
56.796,24.66
56.812,19.5
56.828,7.43
56.843,-9.75
56.859,-28.1
56.875,-42.97
56.890,-50.94
56.906,-51.14
56.921,-45.67
56.937,-38.72
56.953,-34.97
56.968,-37.85
56.984,-48.43
57.000,-64.97
57.015,-83.48
57.031,-98.9
57.046,-106.47
57.062,-103.15
57.078,-88.56
57.093,-64.9
57.109,-35.93
57.125,-5.72
57.140,22.86
57.156,48.57
57.171,71.3
57.187,91.11
57.203,107.25
57.218,118.15
57.234,122.03
57.250,117.79
57.265,105.47
57.281,86.05
57.296,60.82
57.312,30.98
57.328,-2.23
57.343,-37.1
57.359,-70.89
57.375,-100.03
57.390,-121.04
57.406,-131.75
57.421,-132.18
57.437,-124.59
57.453,-112.48
57.468,-99.27
57.484,-87.08
57.500,-76.34
57.515,-66.09
57.531,-54.74
57.546,-40.88
57.562,-23.86
57.578,-4.03
57.593,17.46
57.609,39.07
57.625,59.25
57.640,76.8
57.656,90.86
57.671,100.96
57.687,106.99
57.703,109.18
57.718,108.04
57.734,104.34
57.750,98.98
57.765,92.85
57.781,86.64
57.796,80.72
57.812,75.14
57.828,69.77
57.843,64.52
57.859,59.44
57.875,54.82
57.890,51.02
57.906,48.2
57.921,46.12
57.937,44.14
57.953,41.39
57.968,37.16
57.984,31.09
58.000,23.41
58.015,14.79
58.031,6.12
58.046,-1.73
58.062,-8.22
58.078,-13.21
58.093,-16.94
58.109,-19.93
58.125,-22.71
58.140,-25.59
58.156,-28.52
58.171,-31.13
58.187,-32.78
58.203,-32.87
58.218,-30.99
58.234,-27.05
58.250,-21.22
58.265,-13.8
58.281,-5.12
58.296,4.53
58.312,14.76
58.328,25.13
58.343,35.05
58.359,43.92
58.375,51.19
58.390,56.56
58.406,60.03
58.421,61.86
58.437,62.48
58.453,62.3
58.468,61.58
58.484,60.39
58.500,58.62
58.515,56.06
58.531,52.3
58.546,46.68
58.562,38.22
58.578,25.84
58.593,8.68
58.609,-13.49
58.625,-39.93
58.640,-68.93
58.656,-98.1
58.671,-124.87
58.687,-147.04
58.703,-163.16
58.718,-172.75
58.734,-176.09
58.750,-173.9
58.765,-166.92
58.781,-155.81
58.796,-141.34
58.812,-124.88
58.828,-108.73
58.843,-96.06
58.859,-90.07
58.875,-92.85
58.890,-104.46
58.906,-122.71
58.921,-143.93
58.937,-164.2
58.953,-180.44
58.968,-190.7
58.984,-194.04
59.000,-190.12
59.015,-179.08
59.031,-161.84
59.046,-140.27
59.062,-116.92
59.078,-94.21
59.093,-73.4
59.109,-53.97
59.125,-33.77
59.140,-9.9
59.156,19.96
59.171,56.55
59.187,98.53
59.203,142.7
59.218,184.59
59.234,219.48
59.250,243.3
59.265,253.42
59.281,249.11
59.296,231.41
59.312,202.68
59.328,165.93
59.343,124.29
59.359,80.83
59.375,38.56
59.390,0.47
59.406,-30.68
59.421,-52.98
59.437,-65.93
59.453,-70.71
59.468,-69.97
59.484,-66.96
59.500,-64.49
59.515,-64.06
59.531,-65.45
59.546,-66.92
59.562,-65.89
59.578,-59.68
59.593,-46.26
59.609,-24.95
59.625,3.05
59.640,34.58
59.656,64.82
59.671,88.53
59.687,101.44
59.703,101.56
59.718,89.83
59.734,69.76
59.750,46.1
59.765,23.53
59.781,5.7
59.796,-4.98
59.812,-7.0
59.828,0.41
59.843,16.82
59.859,39.88
59.875,64.83
59.890,85.17
59.906,94.49
59.921,88.89
59.937,68.57
59.953,37.93
59.968,4.06
59.984,-25.7
