timestamp,value
00.000,-17.0
00.015,-19.41
00.031,-21.4
00.046,-22.68
00.062,-23.24
00.078,-23.21
00.093,-22.65
00.109,-21.55
00.125,-19.78
00.140,-17.27
00.156,-14.17
00.171,-10.78
00.187,-7.53
00.203,-4.81
00.218,-2.81
00.234,-1.37
00.250,-0.08
00.265,1.49
00.281,3.61
00.296,6.14
00.312,8.62
00.328,10.47
00.343,11.34
00.359,11.25
00.375,10.69
00.390,10.31
00.406,10.58
00.421,11.63
00.437,13.09
00.453,14.44
00.468,15.25
00.484,15.44
00.500,15.22
00.515,14.94
00.531,14.85
00.546,14.92
00.562,14.96
00.578,14.64
00.593,13.78
00.609,12.43
00.625,10.79
00.640,9.17
00.656,7.85
00.671,6.93
00.687,6.28
00.703,5.64
00.718,4.72
00.734,3.34
00.750,1.61
00.765,-0.11
00.781,-1.48
00.796,-2.33
00.812,-2.87
00.828,-3.57
00.843,-4.83
00.859,-6.71
00.875,-8.88
00.890,-10.73
00.906,-11.78
00.921,-12.0
00.937,-11.86
00.953,-12.06
00.968,-13.11
00.984,-14.96
01.000,-17.14
01.015,-18.89
01.031,-19.63
01.046,-19.18
01.062,-17.75
01.078,-15.72
01.093,-13.42
01.109,-10.98
01.125,-8.35
01.140,-5.51
01.156,-2.57
01.171,0.25
01.187,2.68
01.203,4.6
01.218,6.03
01.234,7.14
01.250,8.1
01.265,9.01
01.281,9.82
01.296,10.39
01.312,10.6
01.328,10.4
01.343,9.9
01.359,9.32
01.375,8.92
01.390,8.85
01.406,9.18
01.421,9.77
01.437,10.41
01.453,10.87
01.468,11.05
01.484,10.97
01.500,10.77
01.515,10.57
01.531,10.4
01.546,10.16
01.562,9.72
01.578,8.95
01.593,7.86
01.609,6.53
01.625,5.16
01.640,3.94
01.656,3.04
01.671,2.47
01.687,2.13
01.703,1.77
01.718,1.14
01.734,0.13
01.750,-1.25
01.765,-2.78
01.781,-4.23
01.796,-5.48
01.812,-6.64
01.828,-7.99
01.843,-9.81
01.859,-12.14
01.875,-14.72
01.890,-17.15
01.906,-19.1
01.921,-20.46
01.937,-21.39
01.953,-22.09
01.968,-22.62
01.984,-22.72
02.000,-21.99
02.015,-20.08
02.031,-17.06
02.046,-13.39
02.062,-9.77
02.078,-6.75
02.093,-4.51
02.109,-2.83
02.125,-1.26
02.140,0.54
02.156,2.68
02.171,4.96
02.187,7.07
02.203,8.8
02.218,10.07
02.234,11.01
02.250,11.77
02.265,12.51
02.281,13.24
02.296,13.91
02.312,14.44
02.328,14.81
02.343,15.02
02.359,15.12
02.375,15.17
02.390,15.16
02.406,15.07
02.421,14.78
02.437,14.18
02.453,13.26
02.468,12.1
02.484,10.87
02.500,9.77
02.515,8.89
02.531,8.17
02.546,7.43
02.562,6.43
02.578,5.01
02.593,3.19
02.609,1.1
02.625,-1.0
02.640,-2.94
02.656,-4.61
02.671,-6.1
02.687,-7.56
02.703,-9.09
02.718,-10.74
02.734,-12.33
02.750,-13.75
02.765,-14.87
02.781,-15.81
02.796,-16.8
02.812,-18.18
02.828,-20.17
02.843,-22.73
02.859,-25.52
02.875,-28.05
02.890,-29.78
02.906,-30.4
02.921,-29.84
02.937,-28.28
02.953,-26.0
02.968,-23.24
02.984,-20.18
03.000,-16.91
03.015,-13.52
03.031,-10.17
03.046,-7.05
03.062,-4.35
03.078,-2.12
03.093,-0.24
03.109,1.53
03.125,3.49
03.140,5.82
03.156,8.47
03.171,11.16
03.187,13.53
03.203,15.3
03.218,16.48
03.234,17.3
03.250,18.06
03.265,18.97
03.281,19.98
03.296,20.81
03.312,21.22
03.328,21.08
03.343,20.53
03.359,19.86
03.375,19.28
03.390,18.79
03.406,18.18
03.421,17.19
03.437,15.75
03.453,14.08
03.468,12.58
03.484,11.57
03.500,11.06
03.515,10.69
03.531,9.97
03.546,8.51
03.562,6.32
03.578,3.84
03.593,1.72
03.609,0.48
03.625,0.23
03.640,0.69
03.656,1.25
03.671,1.36
03.687,0.63
03.703,-0.99
03.718,-3.32
03.734,-6.07
03.750,-8.95
03.765,-11.76
03.781,-14.4
03.796,-16.93
03.812,-19.39
03.828,-21.82
03.843,-24.14
03.859,-26.1
03.875,-27.41
03.890,-27.78
03.906,-27.09
03.921,-25.38
03.937,-22.87
03.953,-19.83
03.968,-16.49
03.984,-13.02
04.000,-9.54
04.015,-6.18
04.031,-3.06
04.046,-0.27
04.062,2.24
04.078,4.56
04.093,6.9
04.109,9.34
04.125,11.84
04.140,14.22
04.156,16.19
04.171,17.64
04.187,18.5
04.203,18.9
04.218,19.03
04.234,19.1
04.250,19.26
04.265,19.56
04.281,19.97
04.296,20.35
04.312,20.56
04.328,20.51
04.343,20.19
04.359,19.7
04.375,19.17
04.390,18.69
04.406,18.27
04.421,17.86
04.437,17.4
04.453,16.91
04.468,16.51
04.484,16.32
04.500,16.42
04.515,16.68
04.531,16.86
04.546,16.69
04.562,16.06
04.578,15.05
04.593,13.86
04.609,12.73
04.625,11.72
04.640,10.72
04.656,9.48
04.671,7.8
04.687,5.61
04.703,3.02
04.718,0.27
04.734,-2.38
04.750,-4.81
04.765,-7.05
04.781,-9.23
04.796,-11.52
04.812,-13.91
04.828,-16.25
04.843,-18.2
04.859,-19.39
04.875,-19.5
04.890,-18.48
04.906,-16.48
04.921,-13.82
04.937,-10.92
04.953,-8.1
04.968,-5.55
04.984,-3.29
05.000,-1.29
05.015,0.54
05.031,2.17
05.046,3.61
05.062,4.87
05.078,6.0
05.093,7.11
05.109,8.29
05.125,9.56
05.140,10.68
05.156,11.37
05.171,11.28
05.187,10.37
05.203,8.86
05.218,7.25
05.234,6.02
05.250,5.41
05.265,5.33
05.281,5.43
05.296,5.39
05.312,5.03
05.328,4.46
05.343,3.84
05.359,3.27
05.375,2.63
05.390,1.67
05.406,0.12
05.421,-2.08
05.437,-4.7
05.453,-7.31
05.468,-9.44
05.484,-10.8
05.500,-11.38
05.515,-11.46
05.531,-11.48
05.546,-11.86
05.562,-12.75
05.578,-14.06
05.593,-15.49
05.609,-16.76
05.625,-17.68
05.640,-18.33
05.656,-18.94
05.671,-19.81
05.687,-21.13
05.703,-22.87
05.718,-24.75
05.734,-26.37
05.750,-27.33
05.765,-27.28
05.781,-26.15
05.796,-24.0
05.812,-21.1
05.828,-17.71
05.843,-14.11
05.859,-10.48
05.875,-6.99
05.890,-3.82
05.906,-1.08
05.921,1.21
05.937,3.2
05.953,5.19
05.968,7.47
05.984,10.15
06.000,13.04
06.015,15.75
06.031,17.82
06.046,19.03
06.062,19.42
06.078,19.27
06.093,18.95
06.109,18.69
06.125,18.57
06.140,18.47
06.156,18.31
06.171,18.01
06.187,17.66
06.203,17.28
06.218,16.85
06.234,16.24
06.250,15.26
06.265,13.84
06.281,12.0
06.296,10.01
06.312,8.13
06.328,6.64
06.343,5.65
06.359,5.03
06.375,4.55
06.390,3.94
06.406,3.07
06.421,1.91
06.437,0.64
06.453,-0.6
06.468,-1.72
06.484,-2.83
06.500,-4.1
06.515,-5.66
06.531,-7.56
06.546,-9.61
06.562,-11.57
06.578,-13.22
06.593,-14.46
06.609,-15.38
06.625,-16.21
06.640,-17.19
06.656,-18.51
06.671,-20.17
06.687,-21.99
06.703,-23.63
06.718,-24.68
06.734,-24.81
06.750,-23.86
06.765,-21.88
06.781,-19.12
06.796,-15.93
06.812,-12.71
06.828,-9.7
06.843,-7.01
06.859,-4.64
06.875,-2.53
06.890,-0.65
06.906,0.97
06.921,2.34
06.937,3.55
06.953,4.76
06.968,6.14
06.984,7.74
07.000,9.39
07.015,10.75
07.031,11.5
07.046,11.57
07.062,11.2
07.078,10.91
07.093,11.11
07.109,11.97
07.125,13.25
07.140,14.49
07.156,15.22
07.171,15.24
07.187,14.67
07.203,13.85
07.218,13.15
07.234,12.72
07.250,12.49
07.265,12.23
07.281,11.76
07.296,11.05
07.312,10.23
07.328,9.46
07.343,8.87
07.359,8.36
07.375,7.65
07.390,6.52
07.406,4.88
07.421,2.89
07.437,0.96
07.453,-0.57
07.468,-1.58
07.484,-2.23
07.500,-2.93
07.515,-4.04
07.531,-5.7
07.546,-7.7
07.562,-9.69
07.578,-11.28
07.593,-12.24
07.609,-12.64
07.625,-12.73
07.640,-12.89
07.656,-13.43
07.671,-14.56
07.687,-16.27
07.703,-18.34
07.718,-20.38
07.734,-21.95
07.750,-22.65
07.765,-22.32
07.781,-21.0
07.796,-18.9
07.812,-16.32
07.828,-13.55
07.843,-10.79
07.859,-8.16
07.875,-5.75
07.890,-3.62
07.906,-1.78
07.921,-0.21
07.937,1.17
07.953,2.52
07.968,3.94
07.984,5.47
08.000,7.04
08.015,8.43
08.031,9.42
08.046,9.89
08.062,9.82
08.078,9.42
08.093,8.99
08.109,8.8
08.125,8.96
08.140,9.39
08.156,9.86
08.171,10.16
08.187,10.22
08.203,10.11
08.218,9.95
08.234,9.82
08.250,9.68
08.265,9.41
08.281,8.93
08.296,8.27
08.312,7.55
08.328,6.92
08.343,6.43
08.359,5.97
08.375,5.35
08.390,4.38
08.406,3.09
08.421,1.69
08.437,0.47
08.453,-0.32
08.468,-0.67
08.484,-0.79
08.500,-1.01
08.515,-1.63
08.531,-2.78
08.546,-4.34
08.562,-6.04
08.578,-7.64
08.593,-9.0
08.609,-10.11
08.625,-11.13
08.640,-12.23
08.656,-13.51
08.671,-14.93
08.687,-16.28
08.703,-17.2
08.718,-17.37
08.734,-16.64
08.750,-15.11
08.765,-13.1
08.781,-10.92
08.796,-8.8
08.812,-6.71
08.828,-4.53
08.843,-2.14
08.859,0.35
08.875,2.64
08.890,4.36
08.906,5.3
08.921,5.56
08.937,5.48
08.953,5.45
08.968,5.68
08.984,6.1
09.000,6.47
09.015,6.58
09.031,6.39
09.046,6.06
09.062,5.89
09.078,6.04
09.093,6.53
09.109,7.08
09.125,7.39
09.140,7.29
09.156,6.79
09.171,6.12
09.187,5.46
09.203,4.94
09.218,4.48
09.234,3.95
09.250,3.32
09.265,2.68
09.281,2.28
09.296,2.3
09.312,2.8
09.328,3.55
09.343,4.21
09.359,4.42
09.375,3.98
09.390,2.96
09.406,1.57
09.421,0.15
09.437,-1.13
09.453,-2.24
09.468,-3.31
09.484,-4.52
09.500,-5.94
09.515,-7.47
09.531,-8.89
09.546,-9.99
09.562,-10.73
09.578,-11.27
09.593,-11.87
09.609,-12.72
09.625,-13.75
09.640,-14.63
09.656,-14.94
09.671,-14.36
09.687,-12.84
09.703,-10.57
09.718,-7.93
09.734,-5.27
09.750,-2.82
09.765,-0.68
09.781,1.15
09.796,2.77
09.812,4.3
09.828,5.82
09.843,7.43
09.859,9.06
09.875,10.63
09.890,11.98
09.906,12.98
09.921,13.6
09.937,13.87
09.953,13.85
09.968,13.6
09.984,13.18
10.000,12.7
10.015,12.33
10.031,12.18
10.046,12.3
10.062,12.54
10.078,12.67
10.093,12.44
10.109,11.8
10.125,10.87
10.140,9.9
10.156,9.12
10.171,8.61
10.187,8.24
10.203,7.77
10.218,6.98
10.234,5.79
10.250,4.32
10.265,2.85
10.281,1.63
10.296,0.82
10.312,0.41
10.328,0.15
10.343,-0.26
10.359,-1.09
10.375,-2.46
10.390,-4.3
10.406,-6.35
10.421,-8.29
10.437,-9.84
10.453,-10.87
10.468,-11.48
10.484,-11.91
10.500,-12.53
10.515,-13.61
10.531,-15.2
10.546,-17.08
10.562,-18.92
10.578,-20.36
10.593,-21.23
10.609,-21.58
10.625,-21.55
10.640,-21.24
10.656,-20.61
10.671,-19.49
10.687,-17.72
10.703,-15.31
10.718,-12.41
10.734,-9.3
10.750,-6.25
10.765,-3.41
10.781,-0.9
10.796,1.13
10.812,2.53
10.828,3.14
10.843,2.96
10.859,2.23
10.875,1.37
10.890,0.84
10.906,0.94
10.921,1.73
10.937,3.02
10.953,4.52
10.968,5.96
10.984,7.17
11.000,8.1
11.015,8.74
11.031,9.12
11.046,9.28
11.062,9.25
11.078,9.09
11.093,8.85
11.109,8.6
11.125,8.38
11.140,8.33
11.156,8.5
11.171,8.95
11.187,9.6
11.203,10.24
11.218,10.64
11.234,10.61
11.250,10.1
11.265,9.24
11.281,8.31
11.296,7.45
11.312,6.76
11.328,6.13
11.343,5.27
11.359,3.97
11.375,2.11
11.390,-0.21
11.406,-2.68
11.421,-4.96
11.437,-6.73
11.453,-7.94
11.468,-8.7
11.484,-9.27
11.500,-9.87
11.515,-10.6
11.531,-11.5
11.546,-12.51
11.562,-13.55
11.578,-14.54
11.593,-15.41
11.609,-15.99
11.625,-16.09
11.640,-15.45
11.656,-13.89
11.671,-11.38
11.687,-8.09
11.703,-4.39
11.718,-0.73
11.734,2.46
11.750,4.92
11.765,6.57
11.781,7.6
11.796,8.31
11.812,9.01
11.828,9.87
11.843,10.84
11.859,11.71
11.875,12.26
11.890,12.36
11.906,12.03
11.921,11.42
11.937,10.75
11.953,10.14
11.968,9.63
11.984,9.12
12.000,8.57
12.015,7.98
12.031,7.46
12.046,7.14
12.062,7.04
12.078,7.06
12.093,6.96
12.109,6.54
12.125,5.76
12.140,4.79
12.156,3.92
12.171,3.46
12.187,3.55
12.203,4.04
12.218,4.57
12.234,4.76
12.250,4.35
12.265,3.26
12.281,1.69
12.296,-0.11
12.312,-1.83
12.328,-3.3
12.343,-4.5
12.359,-5.54
12.375,-6.58
12.390,-7.74
12.406,-9.07
12.421,-10.53
12.437,-12.07
12.453,-13.66
12.468,-15.27
12.484,-16.91
12.500,-18.51
12.515,-19.93
12.531,-20.96
12.546,-21.34
12.562,-20.86
12.578,-19.49
12.593,-17.37
12.609,-14.8
12.625,-12.15
12.640,-9.65
12.656,-7.43
12.671,-5.39
12.687,-3.39
12.703,-1.31
12.718,0.75
12.734,2.56
12.750,3.88
12.765,4.64
12.781,5.03
12.796,5.43
12.812,6.21
12.828,7.45
12.843,8.98
12.859,10.45
12.875,11.54
12.890,12.14
12.906,12.37
12.921,12.44
12.937,12.45
12.953,12.37
12.968,12.06
12.984,11.49
13.000,10.78
13.015,10.18
13.031,9.91
13.046,10.0
13.062,10.31
13.078,10.54
13.093,10.44
13.109,9.9
13.125,9.02
13.140,8.04
13.156,7.2
13.171,6.65
13.187,6.35
13.203,6.13
13.218,5.66
13.234,4.69
13.250,3.09
13.265,0.99
13.281,-1.31
13.296,-3.41
13.312,-5.09
13.328,-6.39
13.343,-7.56
13.359,-8.9
13.375,-10.62
13.390,-12.71
13.406,-15.05
13.421,-17.46
13.437,-19.82
13.453,-22.07
13.468,-24.11
13.484,-25.69
13.500,-26.45
13.515,-26.03
13.531,-24.28
13.546,-21.42
13.562,-17.92
13.578,-14.4
13.593,-11.37
13.609,-9.02
13.625,-7.29
13.640,-5.82
13.656,-4.22
13.671,-2.19
13.687,0.29
13.703,3.01
13.718,5.64
13.734,7.85
13.750,9.53
13.765,10.7
13.781,11.52
13.796,12.1
13.812,12.49
13.828,12.63
13.843,12.51
13.859,12.24
13.875,12.03
13.890,12.16
13.906,12.78
13.921,13.75
13.937,14.76
13.953,15.36
13.968,15.29
13.984,14.59
14.000,13.54
14.015,12.54
14.031,11.85
14.046,11.49
14.062,11.21
14.078,10.8
14.093,10.11
14.109,9.19
14.125,8.22
14.140,7.37
14.156,6.6
14.171,5.79
14.187,4.71
14.203,3.22
14.218,1.44
14.234,-0.4
14.250,-2.01
14.265,-3.21
14.281,-4.11
14.296,-4.96
14.312,-6.06
14.328,-7.58
14.343,-9.54
14.359,-11.76
14.375,-14.02
14.390,-16.23
14.406,-18.37
14.421,-20.54
14.437,-22.79
14.453,-24.97
14.468,-26.8
14.484,-27.92
14.500,-28.04
14.515,-27.08
14.531,-25.18
14.546,-22.6
14.562,-19.7
14.578,-16.71
14.593,-13.71
14.609,-10.65
14.625,-7.43
14.640,-4.01
14.656,-0.48
14.671,2.98
14.687,6.18
14.703,8.94
14.718,11.22
14.734,13.09
14.750,14.66
14.765,16.07
14.781,17.38
14.796,18.6
14.812,19.7
14.828,20.65
14.843,21.43
14.859,22.06
14.875,22.63
14.890,23.21
14.906,23.86
14.921,24.58
14.937,25.24
14.953,25.6
14.968,25.43
14.984,24.59
15.000,23.11
15.015,21.23
15.031,19.27
15.046,17.52
15.062,16.11
15.078,14.98
15.093,13.93
15.109,12.75
15.125,11.32
15.140,9.63
15.156,7.75
15.171,5.74
15.187,3.6
15.203,1.3
15.218,-1.17
15.234,-3.77
15.250,-6.35
15.265,-8.72
15.281,-10.76
15.296,-12.49
15.312,-14.06
15.328,-15.68
15.343,-17.45
15.359,-19.32
15.375,-21.1
15.390,-22.6
15.406,-23.76
15.421,-24.73
15.437,-25.78
15.453,-27.22
15.468,-29.09
15.484,-31.15
15.500,-32.86
15.515,-33.62
15.531,-33.0
15.546,-30.91
15.562,-27.63
15.578,-23.63
15.593,-19.44
15.609,-15.44
15.625,-11.78
15.640,-8.46
15.656,-5.41
15.671,-2.61
15.687,-0.14
15.703,1.92
15.718,3.56
15.734,4.91
15.750,6.23
15.765,7.78
15.781,9.62
15.796,11.58
15.812,13.35
15.828,14.65
15.843,15.37
15.859,15.72
15.875,16.01
15.890,16.55
15.906,17.41
15.921,18.44
15.937,19.35
15.953,19.9
15.968,20.02
15.984,19.82
16.000,19.48
16.015,19.13
16.031,18.74
16.046,18.15
16.062,17.22
16.078,15.9
16.093,14.32
16.109,12.71
16.125,11.27
16.140,10.06
16.156,8.84
16.171,7.25
16.187,4.99
16.203,1.99
16.218,-1.52
16.234,-5.08
16.250,-8.22
16.265,-10.64
16.281,-12.33
16.296,-13.53
16.312,-14.57
16.328,-15.76
16.343,-17.28
16.359,-19.17
16.375,-21.33
16.390,-23.53
16.406,-25.47
16.421,-26.75
16.437,-27.06
16.453,-26.17
16.468,-24.06
16.484,-20.86
16.500,-16.86
16.515,-12.4
16.531,-7.85
16.546,-3.53
16.562,0.3
16.578,3.48
16.593,6.06
16.609,8.21
16.625,10.21
16.640,12.33
16.656,14.62
16.671,16.9
16.687,18.78
16.703,19.93
16.718,20.16
16.734,19.67
16.750,18.88
16.765,18.28
16.781,18.19
16.796,18.63
16.812,19.35
16.828,20.0
16.843,20.35
16.859,20.4
16.875,20.32
16.890,20.32
16.906,20.43
16.921,20.56
16.937,20.43
16.953,19.8
16.968,18.58
16.984,16.87
17.000,14.86
17.015,12.78
17.031,10.77
17.046,8.82
17.062,6.86
17.078,4.79
17.093,2.56
17.109,0.26
17.125,-1.89
17.140,-3.68
17.156,-4.98
17.171,-5.88
17.187,-6.74
17.203,-7.97
17.218,-9.93
17.234,-12.71
17.250,-16.1
17.265,-19.76
17.281,-23.38
17.296,-26.86
17.312,-30.23
17.328,-33.59
17.343,-36.81
17.359,-39.46
17.375,-40.93
17.390,-40.74
17.406,-38.82
17.421,-35.5
17.437,-31.42
17.453,-27.17
17.468,-23.14
17.484,-19.42
17.500,-15.89
17.515,-12.46
17.531,-9.07
17.546,-5.87
17.562,-3.01
17.578,-0.58
17.593,1.46
17.609,3.29
17.625,5.11
17.640,7.06
17.656,9.11
17.671,11.02
17.687,12.42
17.703,12.96
17.718,12.56
17.734,11.53
17.750,10.49
17.765,10.1
17.781,10.7
17.796,12.15
17.812,13.85
17.828,15.09
17.843,15.42
17.859,14.85
17.875,13.82
17.890,12.88
17.906,12.34
17.921,12.11
17.937,11.81
17.953,11.07
17.968,9.79
17.984,8.16
18.000,6.57
18.015,5.3
18.031,4.38
18.046,3.59
18.062,2.65
18.078,1.43
18.093,-0.02
18.109,-1.47
18.125,-2.77
18.140,-3.89
18.156,-5.05
18.171,-6.47
18.187,-8.3
18.203,-10.48
18.218,-12.81
18.234,-15.01
18.250,-16.96
18.265,-18.68
18.281,-20.3
18.296,-22.01
18.312,-23.79
18.328,-25.51
18.343,-26.88
18.359,-27.53
18.375,-27.21
18.390,-25.81
18.406,-23.42
18.421,-20.32
18.437,-16.88
18.453,-13.45
18.468,-10.21
18.484,-7.18
18.500,-4.18
18.515,-1.1
18.531,2.11
18.546,5.34
18.562,8.35
18.578,10.99
18.593,13.21
18.609,15.14
18.625,16.9
18.640,18.52
18.656,19.83
18.671,20.54
18.687,20.47
18.703,19.67
18.718,18.5
18.734,17.42
18.750,16.88
18.765,16.98
18.781,17.53
18.796,18.09
18.812,18.21
18.828,17.67
18.843,16.55
18.859,15.18
18.875,13.94
18.890,13.09
18.906,12.64
18.921,12.4
18.937,12.08
18.953,11.45
18.968,10.44
18.984,9.15
19.000,7.8
19.015,6.56
19.031,5.52
19.046,4.59
19.062,3.64
19.078,2.55
19.093,1.28
19.109,-0.07
19.125,-1.38
19.140,-2.59
19.156,-3.78
19.171,-5.14
19.187,-6.88
19.203,-9.04
19.218,-11.43
19.234,-13.84
19.250,-16.08
19.265,-18.13
19.281,-20.09
19.296,-22.01
19.312,-23.77
19.328,-25.01
19.343,-25.29
19.359,-24.24
19.375,-21.77
19.390,-18.17
19.406,-13.94
19.421,-9.71
19.437,-5.89
19.453,-2.66
19.468,0.06
19.484,2.5
19.500,4.91
19.515,7.4
19.531,9.91
19.546,12.22
19.562,14.08
19.578,15.38
19.593,16.12
19.609,16.49
19.625,16.68
19.640,16.79
19.656,16.83
19.671,16.67
19.687,16.24
19.703,15.55
19.718,14.79
19.734,14.21
19.750,14.0
19.765,14.18
19.781,14.57
19.796,14.89
19.812,14.86
19.828,14.41
19.843,13.61
19.859,12.66
19.875,11.72
19.890,10.82
19.906,9.78
19.921,8.35
19.937,6.4
19.953,4.0
19.968,1.44
19.984,-0.9
20.000,-2.76
20.015,-4.14
20.031,-5.23
20.046,-6.36
20.062,-7.78
20.078,-9.5
20.093,-11.41
20.109,-13.34
20.125,-15.21
20.140,-17.09
20.156,-19.1
20.171,-21.33
20.187,-23.65
20.203,-25.76
20.218,-27.18
20.234,-27.55
20.250,-26.68
20.265,-24.69
20.281,-21.94
20.296,-18.81
20.312,-15.63
20.328,-12.48
20.343,-9.3
20.359,-5.96
20.375,-2.44
20.390,1.16
20.406,4.62
20.421,7.73
20.437,10.43
20.453,12.75
20.468,14.85
20.484,16.87
20.500,18.87
20.515,20.74
20.531,22.29
20.546,23.29
20.562,23.61
20.578,23.32
20.593,22.65
20.609,21.95
20.625,21.52
20.640,21.5
20.656,21.8
20.671,22.2
20.687,22.39
20.703,22.13
20.718,21.37
20.734,20.17
20.750,18.72
20.765,17.22
20.781,15.82
20.796,14.6
20.812,13.57
20.828,12.67
20.843,11.79
20.859,10.83
20.875,9.77
20.890,8.59
20.906,7.34
20.921,6.04
20.937,4.67
20.953,3.2
20.968,1.56
20.984,-0.26
21.000,-2.23
21.015,-4.36
21.031,-6.66
21.046,-9.19
21.062,-12.08
21.078,-15.4
21.093,-19.18
21.109,-23.3
21.125,-27.55
21.140,-31.7
21.156,-35.52
21.171,-38.83
21.187,-41.38
21.203,-42.92
21.218,-43.17
21.234,-41.96
21.250,-39.36
21.265,-35.63
21.281,-31.17
21.296,-26.36
21.312,-21.41
21.328,-16.3
21.343,-10.97
21.359,-5.39
21.375,0.33
21.390,5.84
21.406,10.82
21.421,14.99
21.437,18.24
21.453,20.68
21.468,22.48
21.484,23.8
21.500,24.73
21.515,25.33
21.531,25.59
21.546,25.61
21.562,25.48
21.578,25.35
21.593,25.36
21.609,25.59
21.625,25.93
21.640,26.19
21.656,26.09
21.671,25.37
21.687,24.01
21.703,22.13
21.718,20.05
21.734,18.05
21.750,16.28
21.765,14.67
21.781,12.98
21.796,11.01
21.812,8.66
21.828,6.01
21.843,3.27
21.859,0.59
21.875,-1.99
21.890,-4.58
21.906,-7.3
21.921,-10.22
21.937,-13.27
21.953,-16.3
21.968,-19.15
21.984,-21.69
22.000,-23.92
22.015,-25.92
22.031,-27.79
22.046,-29.63
22.062,-31.56
22.078,-33.6
22.093,-35.77
22.109,-38.05
22.125,-40.29
22.140,-42.38
22.156,-44.11
22.171,-45.25
22.187,-45.56
22.203,-44.79
22.218,-42.77
22.234,-39.47
22.250,-35.09
22.265,-30.01
22.281,-24.73
22.296,-19.77
22.312,-15.45
22.328,-11.91
22.343,-9.02
22.359,-6.49
22.375,-4.05
22.390,-1.58
22.406,0.84
22.421,2.99
22.437,4.64
22.453,5.71
22.468,6.34
22.484,6.84
22.500,7.56
22.515,8.6
22.531,9.86
22.546,11.07
22.562,11.97
22.578,12.44
22.593,12.61
22.609,12.69
22.625,12.86
22.640,13.13
22.656,13.37
22.671,13.39
22.687,13.06
22.703,12.4
22.718,11.52
22.734,10.57
22.750,9.65
22.765,8.76
22.781,7.87
22.796,6.99
22.812,6.19
22.828,5.55
22.843,5.12
22.859,4.89
22.875,4.74
22.890,4.49
22.906,3.96
22.921,3.06
22.937,1.84
22.953,0.49
22.968,-0.8
22.984,-1.93
23.000,-3.04
23.015,-4.41
23.031,-6.35
23.046,-8.98
23.062,-12.07
23.078,-15.13
23.093,-17.55
23.109,-18.84
23.125,-18.83
23.140,-17.63
23.156,-15.55
23.171,-12.91
23.187,-9.94
23.203,-6.8
23.218,-3.6
23.234,-0.48
23.250,2.4
23.265,4.86
23.281,6.81
23.296,8.23
23.312,9.26
23.328,10.13
23.343,11.09
23.359,12.31
23.375,13.78
23.390,15.29
23.406,16.51
23.421,17.16
23.437,17.14
23.453,16.56
23.468,15.74
23.484,14.99
23.500,14.52
23.515,14.31
23.531,14.19
23.546,13.95
23.562,13.5
23.578,12.89
23.593,12.22
23.609,11.64
23.625,11.19
23.640,10.88
23.656,10.64
23.671,10.45
23.687,10.31
23.703,10.2
23.718,10.04
23.734,9.67
23.750,8.91
23.765,7.73
23.781,6.28
23.796,4.89
23.812,3.93
23.828,3.63
23.843,3.97
23.859,4.71
23.875,5.42
23.890,5.72
23.906,5.34
23.921,4.16
23.937,2.26
23.953,-0.2
23.968,-2.95
23.984,-5.68
24.000,-8.09
24.015,-9.9
24.031,-10.87
24.046,-10.88
24.062,-9.89
24.078,-7.98
24.093,-5.33
24.109,-2.27
24.125,0.81
24.140,3.57
24.156,5.8
24.171,7.54
24.187,9.04
24.203,10.59
24.218,12.39
24.234,14.45
24.250,16.53
24.265,18.34
24.281,19.61
24.296,20.38
24.312,20.87
24.328,21.38
24.343,22.14
24.359,23.1
24.375,24.03
24.390,24.6
24.406,24.6
24.421,24.04
24.437,23.07
24.453,22.0
24.468,21.05
24.484,20.41
24.500,20.09
24.515,20.02
24.531,20.13
24.546,20.3
24.562,20.43
24.578,20.39
24.593,20.16
24.609,19.67
24.625,18.93
24.640,17.97
24.656,16.87
24.671,15.77
24.687,14.8
24.703,13.98
24.718,13.14
24.734,11.95
24.750,10.02
24.765,7.05
24.781,3.02
24.796,-1.81
24.812,-7.0
24.828,-12.1
24.843,-16.8
24.859,-20.97
24.875,-24.54
24.890,-27.48
24.906,-29.69
24.921,-31.02
24.937,-31.4
24.953,-30.79
24.968,-29.3
24.984,-27.09
25.000,-24.38
25.015,-21.32
25.031,-18.05
25.046,-14.63
25.062,-11.1
25.078,-7.59
25.093,-4.22
25.109,-1.22
25.125,1.19
25.140,2.88
25.156,3.88
25.171,4.46
25.187,4.95
25.203,5.66
25.218,6.67
25.234,7.77
25.250,8.6
25.265,8.87
25.281,8.51
25.296,7.79
25.312,7.15
25.328,6.99
25.343,7.44
25.359,8.26
25.375,8.96
25.390,9.09
25.406,8.44
25.421,7.14
25.437,5.52
25.453,3.94
25.468,2.53
25.484,1.15
25.500,-0.45
25.515,-2.48
25.531,-4.85
25.546,-7.21
25.562,-9.05
25.578,-10.02
25.593,-10.13
25.609,-9.84
25.625,-9.76
25.640,-10.45
25.656,-12.07
25.671,-14.35
25.687,-16.69
25.703,-18.54
25.718,-19.65
25.734,-20.21
25.750,-20.63
25.765,-21.3
25.781,-22.26
25.796,-23.19
25.812,-23.57
25.828,-22.92
25.843,-21.11
25.859,-18.35
25.875,-15.04
25.890,-11.56
25.906,-8.16
25.921,-4.9
25.937,-1.85
25.953,0.86
25.968,3.1
25.984,4.73
26.000,5.82
26.015,6.58
26.031,7.27
26.046,8.06
26.062,9.0
26.078,9.95
26.093,10.74
26.109,11.21
26.125,11.31
26.140,10.98
26.156,10.29
26.171,9.32
26.187,8.21
26.203,7.16
26.218,6.27
26.234,5.54
26.250,4.93
26.265,4.32
26.281,3.64
26.296,2.96
26.312,2.36
26.328,1.88
26.343,1.44
26.359,0.8
26.375,-0.26
26.390,-1.77
26.406,-3.57
26.421,-5.26
26.437,-6.51
26.453,-7.16
26.468,-7.4
26.484,-7.6
26.500,-8.11
26.515,-9.08
26.531,-10.36
26.546,-11.63
26.562,-12.62
26.578,-13.27
26.593,-13.79
26.609,-14.54
26.625,-15.78
26.640,-17.51
26.656,-19.38
26.671,-20.87
26.687,-21.47
26.703,-20.87
26.718,-19.11
26.734,-16.52
26.750,-13.59
26.765,-10.72
26.781,-8.18
26.796,-5.96
26.812,-3.95
26.828,-1.99
26.859,1.99
26.875,3.88
26.890,5.57
26.906,7.04
26.921,8.34
26.937,9.56
26.953,10.76
26.968,11.88
26.984,12.8
27.000,13.41
27.015,13.73
27.031,14.02
27.046,14.59
27.062,15.67
27.078,17.19
27.093,18.81
27.109,20.02
27.125,20.39
27.140,19.77
27.156,18.4
27.171,16.69
27.187,15.06
27.203,13.71
27.218,12.59
27.234,11.47
27.250,10.12
27.265,8.52
27.281,6.82
27.296,5.29
27.312,4.17
27.328,3.49
27.343,3.05
27.359,2.44
27.375,1.32
27.390,-0.5
27.406,-2.93
27.421,-5.65
27.437,-8.35
27.453,-10.8
27.468,-13.04
27.484,-15.21
27.500,-17.45
27.515,-19.73
27.531,-21.76
27.546,-23.13
27.562,-23.45
27.578,-22.62
27.593,-20.8
27.609,-18.41
27.625,-15.91
27.640,-13.61
27.656,-11.63
27.671,-9.83
27.687,-8.06
27.703,-6.26
27.718,-4.53
27.734,-3.02
27.750,-1.96
27.765,-1.4
27.781,-1.2
27.796,-1.18
27.812,-1.11
27.828,-0.88
27.843,-0.5
27.859,-0.1
27.875,0.21
27.890,0.36
27.906,0.41
27.921,0.46
27.937,0.54
27.953,0.58
27.968,0.47
27.984,0.1
28.000,-0.55
28.015,-1.3
28.031,-1.95
28.046,-2.27
28.062,-2.13
28.078,-1.62
28.093,-1.01
28.109,-0.61
28.125,-0.65
28.140,-1.19
28.156,-2.04
28.171,-2.95
28.187,-3.66
28.203,-4.14
28.218,-4.52
28.234,-5.01
28.250,-5.79
28.265,-6.84
28.281,-8.02
28.296,-9.13
28.312,-10.06
28.328,-10.82
28.343,-11.63
28.359,-12.62
28.375,-13.74
28.390,-14.72
28.406,-15.12
28.421,-14.58
28.437,-12.96
28.453,-10.48
28.468,-7.63
28.484,-4.93
28.500,-2.79
28.515,-1.29
28.531,-0.22
28.546,0.71
28.562,1.7
28.578,2.79
28.593,3.8
28.609,4.54
28.625,4.94
28.640,5.13
28.656,5.32
28.671,5.7
28.687,6.28
28.703,6.89
28.718,7.3
28.734,7.39
28.750,7.22
28.765,7.02
28.781,7.06
28.796,7.44
28.812,8.06
28.828,8.65
28.843,8.96
28.859,8.87
28.875,8.47
28.890,7.96
28.906,7.51
28.921,7.14
28.937,6.78
28.953,6.25
28.968,5.46
28.984,4.42
29.000,3.29
29.015,2.21
29.031,1.24
29.046,0.37
29.062,-0.52
29.078,-1.52
29.093,-2.7
29.109,-4.04
29.125,-5.49
29.140,-6.93
29.156,-8.28
29.171,-9.55
29.187,-10.82
29.203,-12.27
29.218,-13.99
29.234,-15.9
29.250,-17.72
29.265,-18.99
29.281,-19.3
29.296,-18.49
29.312,-16.69
29.328,-14.33
29.343,-11.92
29.359,-9.77
29.375,-7.92
29.390,-6.15
29.406,-4.24
29.421,-2.07
29.437,0.27
29.453,2.53
29.468,4.53
29.484,6.2
29.500,7.66
29.515,9.07
29.531,10.53
29.546,12.0
29.562,13.27
29.578,14.12
29.593,14.42
29.609,14.17
29.625,13.55
29.640,12.8
29.656,12.11
29.671,11.62
29.687,11.34
29.703,11.2
29.718,11.04
29.734,10.78
29.750,10.35
29.765,9.83
29.781,9.31
29.796,8.93
29.812,8.71
29.828,8.55
29.843,8.31
29.859,7.78
29.875,6.81
29.890,5.41
29.906,3.67
29.921,1.79
29.937,-0.06
29.953,-1.77
29.968,-3.31
29.984,-4.69
30.000,-5.97
30.015,-7.18
30.031,-8.29
30.046,-9.23
30.062,-10.0
30.078,-10.69
30.093,-11.44
30.109,-12.49
30.125,-13.9
30.140,-15.58
30.156,-17.25
30.171,-18.61
30.187,-19.41
30.203,-19.7
30.218,-19.58
30.234,-19.21
30.250,-18.56
30.265,-17.45
30.281,-15.66
30.296,-13.09
30.312,-9.89
30.328,-6.47
30.343,-3.34
30.359,-0.84
30.375,0.92
30.390,2.14
30.406,3.14
30.421,4.22
30.437,5.53
30.453,7.01
30.468,8.5
30.484,9.75
30.500,10.64
30.515,11.2
30.531,11.53
30.546,11.8
30.562,12.09
30.578,12.36
30.593,12.5
30.609,12.42
30.625,12.11
30.640,11.69
30.656,11.35
30.671,11.2
30.687,11.26
30.703,11.38
30.718,11.34
30.734,10.97
30.750,10.24
30.765,9.31
30.781,8.39
30.796,7.69
30.812,7.19
30.828,6.76
30.843,6.18
30.859,5.31
30.875,4.15
30.890,2.87
30.906,1.68
30.921,0.69
30.937,-0.12
30.953,-0.94
30.968,-1.9
30.984,-3.06
31.000,-4.43
31.015,-5.9
31.031,-7.37
31.046,-8.84
31.062,-10.35
31.078,-11.92
31.093,-13.57
31.109,-15.15
31.125,-16.49
31.140,-17.37
31.156,-17.62
31.171,-17.2
31.187,-16.19
31.203,-14.79
31.218,-13.19
31.234,-11.47
31.250,-9.64
31.265,-7.65
31.281,-5.51
31.296,-3.33
31.312,-1.31
31.328,0.36
31.343,1.59
31.359,2.5
31.375,3.29
31.390,4.2
31.406,5.29
31.421,6.48
31.437,7.56
31.453,8.24
31.468,8.37
31.484,7.94
31.500,7.07
31.515,6.05
31.531,5.14
31.546,4.6
31.562,4.51
31.578,4.82
31.593,5.37
31.609,5.94
31.625,6.41
31.640,6.68
31.656,6.76
31.671,6.63
31.687,6.21
31.703,5.41
31.718,4.16
31.734,2.54
31.750,0.83
31.765,-0.63
31.781,-1.61
31.796,-2.06
31.812,-2.19
31.828,-2.28
31.843,-2.55
31.859,-3.09
31.875,-3.76
31.890,-4.37
31.906,-4.72
31.921,-4.82
31.937,-4.81
31.953,-5.02
31.968,-5.68
31.984,-6.85
32.000,-8.37
32.015,-9.95
32.031,-11.35
32.046,-12.53
32.062,-13.67
32.078,-15.0
32.093,-16.6
32.109,-18.27
32.125,-19.51
32.140,-19.81
32.156,-18.83
32.171,-16.63
32.187,-13.61
32.203,-10.34
32.218,-7.29
32.234,-4.73
32.250,-2.64
32.265,-0.85
32.281,0.82
32.296,2.49
32.312,4.08
32.328,5.47
32.343,6.48
32.359,7.07
32.375,7.33
32.390,7.47
32.406,7.7
32.421,8.13
32.437,8.7
32.453,9.22
32.468,9.59
32.484,9.78
32.500,9.93
32.515,10.19
32.531,10.64
32.546,11.17
32.562,11.56
32.578,11.61
32.593,11.26
32.609,10.62
32.625,9.88
32.640,9.21
32.656,8.69
32.671,8.25
32.687,7.81
32.703,7.24
32.718,6.52
32.734,5.6
32.750,4.47
32.765,3.12
32.781,1.61
32.796,0.04
32.812,-1.47
32.828,-2.83
32.843,-4.03
32.859,-5.15
32.875,-6.31
32.890,-7.59
32.906,-9.04
32.921,-10.63
32.937,-12.33
32.953,-14.15
32.968,-16.04
32.984,-17.83
33.000,-19.25
33.015,-19.95
33.031,-19.66
33.046,-18.34
33.062,-16.22
33.078,-13.64
33.093,-10.96
33.109,-8.39
33.125,-5.93
33.140,-3.44
33.156,-0.83
33.171,1.86
33.187,4.42
33.203,6.55
33.218,8.05
33.234,8.86
33.250,9.08
33.265,8.94
33.281,8.66
33.296,8.4
33.312,8.15
33.328,7.88
33.343,7.53
33.359,7.17
33.375,6.94
33.390,7.02
33.406,7.49
33.421,8.25
33.437,9.05
33.453,9.53
33.468,9.46
33.484,8.83
33.500,7.84
33.515,6.81
33.531,5.99
33.546,5.42
33.562,4.87
33.578,4.13
33.593,2.99
33.609,1.53
33.625,-0.05
33.640,-1.5
33.656,-2.63
33.671,-3.45
33.687,-4.08
33.703,-4.66
33.718,-5.29
33.734,-5.97
33.750,-6.7
33.765,-7.51
33.781,-8.53
33.796,-9.87
33.812,-11.61
33.828,-13.69
33.843,-15.83
33.859,-17.62
33.875,-18.61
33.890,-18.43
33.906,-16.94
33.921,-14.39
33.937,-11.16
33.953,-7.78
33.968,-4.6
33.984,-1.69
34.000,0.99
34.015,3.57
34.031,6.02
34.046,8.2
34.062,9.78
34.078,10.67
34.093,10.95
34.109,10.92
34.125,10.95
34.140,11.26
34.156,11.85
34.171,12.53
34.187,13.1
34.203,13.38
34.218,13.41
34.234,13.32
34.250,13.22
34.265,13.19
34.281,13.16
34.296,13.07
34.312,12.83
34.328,12.46
34.343,11.99
34.359,11.54
34.375,11.12
34.390,10.72
34.406,10.26
34.421,9.63
34.437,8.78
34.453,7.7
34.468,6.5
34.484,5.32
34.500,4.31
34.515,3.48
34.531,2.77
34.546,2.03
34.562,1.1
34.578,-0.12
34.593,-1.59
34.609,-3.21
34.625,-4.82
34.640,-6.27
34.656,-7.55
34.671,-8.79
34.687,-10.15
34.703,-11.74
34.718,-13.55
34.734,-15.47
34.750,-17.33
34.765,-18.98
34.781,-20.35
34.796,-21.36
34.812,-21.91
34.828,-21.84
34.843,-20.91
34.859,-18.94
34.875,-15.87
34.890,-11.89
34.906,-7.41
34.921,-2.98
34.937,0.88
34.953,3.88
34.968,6.03
34.984,7.64
35.000,9.09
35.015,10.71
35.031,12.58
35.046,14.55
35.062,16.34
35.078,17.73
35.093,18.69
35.109,19.36
35.125,19.92
35.140,20.48
35.156,20.98
35.171,21.24
35.187,21.15
35.203,20.73
35.218,20.17
35.234,19.74
35.250,19.63
35.265,19.85
35.281,20.23
35.296,20.5
35.312,20.41
35.328,19.89
35.343,18.99
35.359,17.84
35.375,16.57
35.390,15.21
35.406,13.74
35.421,12.14
35.437,10.44
35.453,8.74
35.468,7.22
35.484,6.06
35.500,5.32
35.515,4.97
35.531,4.81
35.546,4.62
35.562,4.18
35.578,3.44
35.593,2.43
35.609,1.32
35.625,0.24
35.640,-0.7
35.656,-1.5
35.671,-2.28
35.687,-3.18
35.703,-4.26
35.718,-5.5
35.734,-6.73
35.750,-7.82
35.765,-8.74
35.781,-9.61
35.796,-10.68
35.812,-12.2
35.828,-14.24
35.843,-16.6
35.859,-18.88
35.875,-20.62
35.890,-21.51
35.906,-21.45
35.921,-20.55
35.937,-18.92
35.953,-16.58
35.968,-13.47
35.984,-9.6
36.000,-5.16
36.015,-0.58
36.031,3.6
36.046,6.97
36.062,9.43
36.078,11.21
36.093,12.75
36.109,14.48
36.125,16.58
36.140,18.91
36.156,21.12
36.171,22.81
36.187,23.81
36.203,24.22
36.218,24.36
36.234,24.57
36.250,25.03
36.265,25.62
36.281,26.0
36.296,25.86
36.312,25.05
36.328,23.76
36.343,22.36
36.359,21.22
36.375,20.5
36.390,20.08
36.406,19.67
36.421,18.95
36.437,17.83
36.453,16.39
36.468,14.88
36.484,13.58
36.500,12.6
36.515,11.87
36.531,11.12
36.546,10.06
36.562,8.49
36.578,6.45
36.593,4.15
36.609,1.88
36.625,-0.12
36.640,-1.87
36.656,-3.52
36.671,-5.36
36.687,-7.5
36.703,-9.89
36.718,-12.26
36.734,-14.32
36.750,-15.88
36.765,-16.96
36.781,-17.75
36.796,-18.49
36.812,-19.41
36.828,-20.52
36.843,-21.74
36.859,-22.88
36.875,-23.86
36.890,-24.73
36.906,-25.63
36.921,-26.72
36.937,-27.96
36.953,-29.09
36.968,-29.62
36.984,-29.08
37.000,-27.15
37.015,-23.89
37.031,-19.74
37.046,-15.36
37.062,-11.41
37.078,-8.29
37.093,-6.13
37.109,-4.7
37.125,-3.66
37.140,-2.7
37.156,-1.67
37.171,-0.66
37.187,0.18
37.203,0.71
37.218,0.99
37.234,1.2
37.250,1.59
37.265,2.34
37.281,3.39
37.296,4.54
37.312,5.52
37.328,6.18
37.343,6.49
37.359,6.62
37.375,6.76
37.390,6.99
37.406,7.28
37.421,7.51
37.437,7.58
37.453,7.52
37.468,7.45
37.484,7.53
37.500,7.8
37.515,8.14
37.531,8.27
37.546,7.95
37.562,7.1
37.578,5.92
37.593,4.7
37.609,3.73
37.625,3.14
37.640,2.79
37.656,2.47
37.671,1.94
37.687,1.15
37.703,0.15
37.718,-0.89
37.734,-1.89
37.750,-2.86
37.765,-3.85
37.781,-4.92
37.796,-5.99
37.812,-6.92
37.828,-7.56
37.843,-7.87
37.859,-7.89
37.875,-7.78
37.890,-7.79
37.906,-8.15
37.921,-9.05
37.937,-10.5
37.953,-12.27
37.968,-13.96
37.984,-15.06
38.000,-15.13
38.015,-14.04
38.031,-11.97
38.046,-9.39
38.062,-6.83
38.078,-4.64
38.093,-2.93
38.109,-1.6
38.125,-0.46
38.140,0.59
38.156,1.54
38.171,2.31
38.187,2.88
38.203,3.35
38.218,3.9
38.234,4.72
38.250,5.79
38.265,6.92
38.281,7.76
38.296,8.02
38.312,7.66
38.328,6.91
38.343,6.2
38.359,5.91
38.375,6.15
38.390,6.73
38.406,7.31
38.421,7.56
38.437,7.35
38.453,6.86
38.468,6.4
38.484,6.19
38.500,6.3
38.515,6.55
38.531,6.61
38.546,6.3
38.562,5.57
38.578,4.54
38.593,3.43
38.609,2.44
38.625,1.66
38.640,1.03
38.656,0.43
38.671,-0.24
38.687,-0.97
38.703,-1.62
38.718,-2.03
38.734,-2.12
38.750,-1.97
38.765,-1.81
38.781,-1.96
38.796,-2.62
38.812,-3.74
38.828,-5.07
38.843,-6.23
38.859,-6.91
38.875,-7.02
38.890,-6.74
38.906,-6.43
38.921,-6.43
38.937,-6.96
38.953,-8.0
38.968,-9.26
38.984,-10.41
39.000,-11.13
39.015,-11.3
39.031,-10.95
39.046,-10.18
39.062,-9.1
39.078,-7.74
39.093,-6.13
39.109,-4.32
39.125,-2.51
39.140,-0.94
39.156,0.17
39.171,0.79
39.187,1.08
39.203,1.33
39.218,1.76
39.234,2.41
39.250,3.09
39.265,3.56
39.281,3.62
39.296,3.25
39.312,2.64
39.328,2.02
39.343,1.6
39.359,1.47
39.375,1.6
39.390,1.84
39.406,2.02
39.421,2.09
39.437,2.02
39.453,1.91
39.468,1.87
39.484,1.93
39.500,2.07
39.515,2.15
39.531,2.01
39.546,1.64
39.562,1.17
39.578,0.84
39.593,0.83
39.609,1.11
39.625,1.4
39.640,1.32
39.656,0.59
39.671,-0.79
39.687,-2.48
39.703,-3.98
39.718,-4.94
39.734,-5.24
39.750,-5.11
39.765,-4.88
39.781,-4.8
39.796,-4.9
39.812,-5.05
39.828,-5.09
39.843,-4.95
39.859,-4.71
39.875,-4.53
39.890,-4.55
39.906,-4.83
39.921,-5.32
39.937,-5.94
39.953,-6.58
39.968,-7.17
39.984,-7.65
40.000,-8.02
40.015,-8.27
40.031,-8.43
40.046,-8.48
40.062,-8.31
40.078,-7.78
40.093,-6.78
40.109,-5.34
40.125,-3.65
40.140,-2.01
40.156,-0.7
40.171,0.14
40.187,0.56
40.203,0.79
40.218,1.06
40.234,1.52
40.250,2.13
40.265,2.72
40.281,3.06
40.296,3.07
40.312,2.79
40.328,2.4
40.343,2.09
40.359,1.94
40.375,1.9
40.390,1.85
40.406,1.69
40.421,1.46
40.437,1.33
40.453,1.51
40.468,2.11
40.484,3.03
40.500,4.0
40.515,4.67
40.531,4.86
40.546,4.53
40.562,3.85
40.578,3.05
40.593,2.36
40.609,1.84
40.625,1.5
40.640,1.25
40.656,1.0
40.671,0.74
40.687,0.51
40.703,0.36
40.718,0.33
40.734,0.39
40.750,0.44
40.765,0.37
40.781,0.13
40.796,-0.34
40.812,-0.95
40.828,-1.61
40.843,-2.22
40.859,-2.75
40.875,-3.21
40.890,-3.67
40.906,-4.21
40.921,-4.75
40.937,-5.18
40.953,-5.36
40.968,-5.28
40.984,-5.07
41.000,-5.01
41.015,-5.39
41.031,-6.33
41.046,-7.65
41.062,-8.97
41.078,-9.82
41.093,-9.82
41.109,-8.93
41.125,-7.37
41.140,-5.56
41.156,-3.94
41.171,-2.77
41.187,-2.0
41.203,-1.43
41.218,-0.87
41.234,-0.23
41.250,0.34
41.265,0.6
41.281,0.39
41.296,-0.24
41.312,-1.0
41.328,-1.56
41.343,-1.66
41.359,-1.31
41.375,-0.72
41.390,-0.19
41.406,0.03
41.421,-0.1
41.437,-0.46
41.453,-0.85
41.468,-1.1
41.484,-1.13
41.500,-1.06
41.515,-1.08
41.531,-1.37
41.546,-1.95
41.562,-2.72
41.578,-3.46
41.593,-3.91
41.609,-4.07
41.625,-3.99
41.640,-3.94
41.656,-4.04
41.671,-4.28
41.687,-4.45
41.703,-4.32
41.718,-3.83
41.734,-3.09
41.750,-2.43
41.765,-2.1
41.781,-2.22
41.796,-2.63
41.812,-3.04
41.828,-3.22
41.843,-3.13
41.859,-3.01
41.875,-3.18
41.890,-3.85
41.906,-4.9
41.921,-6.0
41.937,-6.72
41.953,-6.84
41.968,-6.47
41.984,-6.03
42.000,-5.99
42.015,-6.66
42.031,-8.0
42.046,-9.58
42.062,-10.91
42.078,-11.54
42.093,-11.29
42.109,-10.29
42.125,-8.85
42.140,-7.29
42.156,-5.8
42.171,-4.39
42.187,-2.94
42.203,-1.39
42.218,0.21
42.234,1.69
42.250,2.83
42.265,3.47
42.281,3.64
42.296,3.55
42.312,3.49
42.328,3.67
42.343,4.07
42.359,4.57
42.375,4.94
42.390,5.08
42.406,5.01
42.421,4.95
42.437,5.06
42.453,5.43
42.468,5.94
42.484,6.32
42.500,6.36
42.515,5.98
42.531,5.27
42.546,4.46
42.562,3.74
42.578,3.16
42.593,2.65
42.609,2.04
42.625,1.21
42.640,0.21
42.656,-0.82
42.671,-1.71
42.687,-2.3
42.703,-2.58
42.718,-2.7
42.734,-2.86
42.750,-3.27
42.765,-4.03
42.781,-5.02
42.796,-6.04
42.812,-6.8
42.828,-7.11
42.843,-7.0
42.859,-6.69
42.875,-6.5
42.890,-6.71
42.906,-7.42
42.921,-8.53
42.937,-9.83
42.953,-11.13
42.968,-12.26
42.984,-13.16
43.000,-13.74
43.015,-13.9
43.031,-13.49
43.046,-12.45
43.062,-10.85
43.078,-8.83
43.093,-6.67
43.109,-4.6
43.125,-2.82
43.140,-1.4
43.156,-0.3
43.171,0.58
43.187,1.34
43.203,2.04
43.218,2.7
43.234,3.24
43.250,3.63
43.265,3.82
43.281,3.85
43.296,3.86
43.312,3.99
43.328,4.34
43.343,4.9
43.359,5.59
43.375,6.24
43.390,6.72
43.406,6.95
43.421,6.98
43.437,6.93
43.453,6.94
43.468,7.04
43.484,7.2
43.500,7.27
43.515,7.09
43.531,6.65
43.546,6.04
43.562,5.38
43.578,4.85
43.593,4.44
43.609,4.03
43.625,3.48
43.640,2.68
43.656,1.62
43.671,0.45
43.687,-0.71
43.703,-1.75
43.718,-2.61
43.734,-3.36
43.750,-4.05
43.765,-4.75
43.781,-5.53
43.796,-6.42
43.812,-7.36
43.828,-8.33
43.843,-9.3
43.859,-10.23
43.875,-11.13
43.890,-11.91
43.906,-12.43
43.921,-12.44
43.937,-11.68
43.953,-9.99
43.968,-7.47
43.984,-4.42
44.000,-1.25
44.015,1.64
44.031,4.12
44.046,6.23
44.062,8.11
44.078,9.93
44.093,11.62
44.109,12.99
44.125,13.8
44.140,13.96
44.156,13.59
44.171,13.02
44.187,12.66
44.203,12.73
44.218,13.26
44.234,14.04
44.250,14.8
44.265,15.34
44.281,15.65
44.296,15.88
44.312,16.21
44.328,16.7
44.343,17.26
44.359,17.67
44.375,17.71
44.390,17.39
44.406,16.89
44.421,16.51
44.437,16.5
44.453,16.89
44.468,17.46
44.484,17.88
44.500,17.87
44.515,17.38
44.531,16.54
44.546,15.58
44.562,14.6
44.578,13.58
44.593,12.38
44.609,10.9
44.625,9.18
44.640,7.4
44.656,5.88
44.671,4.83
44.687,4.36
44.703,4.38
44.718,4.64
44.734,4.81
44.750,4.65
44.765,3.97
44.781,2.78
44.796,1.22
44.812,-0.56
44.828,-2.44
44.843,-4.4
44.859,-6.49
44.875,-8.71
44.890,-10.95
44.906,-13.02
44.921,-14.74
44.937,-16.1
44.953,-17.3
44.968,-18.58
44.984,-20.03
45.000,-21.45
45.015,-22.38
45.031,-22.35
45.046,-21.07
45.062,-18.65
45.078,-15.5
45.093,-12.2
45.109,-9.19
45.125,-6.66
45.140,-4.51
45.156,-2.51
45.171,-0.5
45.187,1.6
45.203,3.66
45.218,5.55
45.234,7.15
45.250,8.45
45.265,9.54
45.281,10.54
45.296,11.54
45.312,12.56
45.328,13.54
45.343,14.39
45.359,15.08
45.375,15.65
45.390,16.13
45.406,16.52
45.421,16.79
45.437,16.82
45.453,16.54
45.468,15.9
45.484,14.91
45.500,13.66
45.515,12.33
45.531,11.12
45.546,10.24
45.562,9.79
45.578,9.72
45.593,9.88
45.609,10.03
45.625,10.0
45.640,9.7
45.656,9.17
45.671,8.44
45.687,7.59
45.703,6.58
45.718,5.32
45.734,3.82
45.750,2.12
45.765,0.35
45.781,-1.3
45.796,-2.75
45.812,-4.04
45.828,-5.35
45.843,-6.86
45.859,-8.72
45.875,-10.84
45.890,-13.07
45.906,-15.19
45.921,-17.04
45.937,-18.66
45.953,-20.22
45.968,-21.88
45.984,-23.65
46.000,-25.27
46.015,-26.31
46.031,-26.27
46.046,-24.89
46.062,-22.19
46.078,-18.53
46.093,-14.49
46.109,-10.57
46.125,-7.14
46.140,-4.31
46.156,-1.98
46.171,-0.01
46.187,1.74
46.203,3.33
46.218,4.81
46.234,6.24
46.250,7.76
46.265,9.48
46.281,11.45
46.296,13.58
46.312,15.6
46.328,17.18
46.343,18.13
46.359,18.38
46.375,18.14
46.390,17.72
46.406,17.45
46.421,17.47
46.437,17.67
46.453,17.82
46.468,17.65
46.484,17.03
46.500,16.05
46.515,15.02
46.531,14.24
46.546,13.89
46.562,13.9
46.578,14.0
46.593,13.81
46.609,13.1
46.625,11.92
46.640,10.51
46.656,9.23
46.671,8.3
46.687,7.74
46.703,7.38
46.718,6.92
46.734,6.16
46.750,5.09
46.765,3.9
46.781,2.83
46.796,2.08
46.812,1.68
46.828,1.51
46.843,1.36
46.859,1.03
46.875,0.42
46.890,-0.51
46.906,-1.7
46.921,-3.16
46.937,-4.94
46.953,-7.14
46.968,-9.81
46.984,-12.82
47.000,-15.8
47.015,-18.2
47.031,-19.5
47.046,-19.39
47.062,-17.97
47.078,-15.64
47.093,-13.01
47.109,-10.62
47.125,-8.7
47.140,-7.16
47.156,-5.74
47.171,-4.2
47.187,-2.49
47.203,-0.77
47.218,0.74
47.234,1.93
47.250,2.92
47.265,3.96
47.281,5.27
47.296,6.93
47.312,8.65
47.328,10.04
47.343,10.7
47.359,10.52
47.375,9.72
47.390,8.68
47.406,7.84
47.421,7.44
47.437,7.45
47.453,7.67
47.468,7.89
47.484,7.89
47.500,7.68
47.515,7.35
47.531,7.01
47.546,6.72
47.562,6.45
47.578,6.09
47.593,5.54
47.609,4.81
47.625,4.0
47.640,3.3
47.656,2.86
47.671,2.63
47.687,2.44
47.703,1.99
47.718,1.13
47.734,-0.09
47.750,-1.4
47.765,-2.53
47.781,-3.36
47.796,-3.97
47.812,-4.63
47.828,-5.49
47.843,-6.53
47.859,-7.47
47.875,-8.01
47.890,-8.0
47.906,-7.6
47.921,-7.17
47.937,-7.17
47.953,-7.82
47.968,-9.07
47.984,-10.6
48.000,-11.93
48.015,-12.63
48.031,-12.44
48.046,-11.36
48.062,-9.61
48.078,-7.54
48.093,-5.48
48.109,-3.66
48.125,-2.1
48.140,-0.74
48.156,0.52
48.171,1.63
48.187,2.5
48.203,2.99
48.218,3.07
48.234,2.88
48.250,2.68
48.265,2.73
48.281,3.16
48.296,3.88
48.312,4.63
48.328,5.17
48.343,5.35
48.359,5.2
48.375,4.96
48.390,4.88
48.406,5.2
48.421,5.95
48.437,6.92
48.453,7.82
48.468,8.34
48.484,8.36
48.500,7.95
48.515,7.35
48.531,6.76
48.546,6.23
48.562,5.67
48.578,4.93
48.593,3.98
48.609,3.0
48.625,2.31
48.640,2.15
48.656,2.51
48.671,3.1
48.687,3.43
48.703,3.14
48.718,2.13
48.734,0.64
48.750,-0.91
48.765,-2.16
48.781,-3.04
48.796,-3.76
48.812,-4.66
48.828,-6.02
48.843,-7.83
48.859,-9.89
48.875,-11.91
48.890,-13.69
48.906,-15.21
48.921,-16.52
48.937,-17.65
48.953,-18.47
48.968,-18.77
48.984,-18.36
49.000,-17.23
49.015,-15.56
49.031,-13.68
49.046,-11.89
49.062,-10.39
49.078,-9.27
49.093,-8.47
49.109,-7.9
49.125,-7.43
49.140,-6.91
49.156,-6.18
49.171,-5.14
49.187,-3.81
49.203,-2.32
49.218,-0.91
49.234,0.18
49.250,0.87
49.265,1.24
49.281,1.47
49.296,1.71
49.312,2.04
49.328,2.38
49.343,2.63
49.359,2.73
49.375,2.71
49.390,2.63
49.406,2.52
49.421,2.34
49.437,1.97
49.453,1.32
49.468,0.42
49.484,-0.51
49.500,-1.22
49.515,-1.5
49.531,-1.36
49.546,-1.05
49.562,-0.9
49.578,-1.2
49.593,-1.97
49.609,-3.02
49.625,-3.96
49.640,-4.54
49.656,-4.72
49.671,-4.74
49.687,-4.97
49.703,-5.63
49.718,-6.75
49.734,-8.03
49.750,-9.07
49.765,-9.53
49.781,-9.36
49.796,-8.86
49.812,-8.5
49.828,-8.75
49.843,-9.76
49.859,-11.36
49.875,-13.05
49.890,-14.3
49.906,-14.75
49.921,-14.32
49.937,-13.24
49.953,-11.8
49.968,-10.25
49.984,-8.66
50.000,-7.02
50.015,-5.32
50.031,-3.68
50.046,-2.27
50.062,-1.22
50.078,-0.47
50.093,0.19
50.109,1.02
50.125,2.14
50.140,3.48
50.156,4.75
50.171,5.67
50.187,6.09
50.203,6.07
50.218,5.81
50.234,5.57
50.250,5.53
50.265,5.75
50.281,6.15
50.296,6.59
50.312,6.93
50.328,7.09
50.343,7.07
50.359,6.91
50.375,6.72
50.390,6.56
50.406,6.46
50.421,6.35
50.437,6.16
50.453,5.83
50.468,5.42
50.484,5.05
50.500,4.79
50.515,4.61
50.531,4.37
50.546,3.88
50.562,3.09
50.578,2.1
50.593,1.13
50.609,0.37
50.625,-0.13
50.640,-0.56
50.656,-1.17
50.671,-2.12
50.687,-3.31
50.703,-4.48
50.718,-5.32
50.734,-5.71
50.750,-5.77
50.765,-5.86
50.781,-6.35
50.796,-7.42
50.812,-8.97
50.828,-10.71
50.843,-12.2
50.859,-13.09
50.875,-13.22
50.890,-12.62
50.906,-11.42
50.921,-9.84
50.937,-8.08
50.953,-6.32
50.968,-4.66
50.984,-3.17
51.000,-1.82
51.015,-0.59
51.031,0.57
51.046,1.65
51.062,2.63
51.078,3.51
51.093,4.32
51.109,5.18
51.125,6.09
51.140,7.04
51.156,7.82
51.171,8.22
51.187,8.09
51.203,7.45
51.218,6.58
51.234,5.81
51.250,5.49
51.265,5.74
51.281,6.53
51.296,7.65
51.312,8.9
51.328,10.03
51.343,10.9
51.359,11.4
51.375,11.44
51.390,10.97
51.406,10.03
51.421,8.74
51.437,7.34
51.453,6.12
51.468,5.33
51.484,5.12
51.500,5.42
51.515,5.92
51.531,6.26
51.546,6.12
51.562,5.37
51.578,4.15
51.593,2.78
51.609,1.58
51.625,0.67
51.640,0.01
51.656,-0.67
51.671,-1.62
51.687,-2.95
51.703,-4.6
51.718,-6.32
51.734,-7.86
51.750,-9.09
51.765,-10.05
51.781,-10.9
51.796,-11.88
51.812,-13.11
51.828,-14.52
51.843,-15.88
51.859,-16.84
51.875,-17.13
51.890,-16.66
51.906,-15.59
51.921,-14.2
51.937,-12.73
51.953,-11.32
51.968,-9.92
51.984,-8.39
52.000,-6.7
52.015,-4.96
52.031,-3.39
52.046,-2.2
52.062,-1.49
52.078,-1.19
52.093,-1.1
52.109,-0.97
52.125,-0.7
52.140,-0.23
52.156,0.39
52.171,1.05
52.187,1.64
52.203,2.02
52.218,2.15
52.234,2.03
52.250,1.78
52.265,1.51
52.281,1.36
52.296,1.42
52.312,1.67
52.328,2.07
52.343,2.53
52.359,3.07
52.375,3.67
52.390,4.36
52.406,5.02
52.421,5.48
52.437,5.59
52.453,5.3
52.468,4.74
52.484,4.16
52.500,3.81
52.515,3.68
52.531,3.61
52.546,3.26
52.562,2.36
52.578,0.94
52.593,-0.75
52.609,-2.3
52.625,-3.42
52.640,-4.07
52.656,-4.48
52.671,-4.96
52.687,-5.69
52.703,-6.72
52.718,-7.85
52.734,-8.91
52.750,-9.82
52.765,-10.68
52.781,-11.57
52.796,-12.51
52.812,-13.29
52.828,-13.54
52.843,-12.93
52.859,-11.29
52.875,-8.82
52.890,-5.99
52.906,-3.34
52.921,-1.31
52.937,-0.02
52.953,0.69
52.968,1.2
52.984,1.83
53.000,2.71
53.015,3.74
53.031,4.7
53.046,5.38
53.062,5.73
53.078,5.91
53.093,6.16
53.109,6.64
53.125,7.31
53.140,7.96
53.156,8.32
53.171,8.28
53.187,7.96
53.203,7.65
53.218,7.65
53.234,8.01
53.250,8.55
53.265,8.9
53.281,8.73
53.296,7.91
53.312,6.65
53.328,5.28
53.343,4.18
53.359,3.55
53.375,3.31
53.390,3.21
53.406,2.96
53.421,2.41
53.437,1.6
53.453,0.7
53.468,-0.1
53.484,-0.69
53.500,-1.12
53.515,-1.53
53.531,-2.08
53.546,-2.89
53.562,-3.94
53.578,-5.13
53.593,-6.34
53.609,-7.56
53.625,-8.79
53.640,-10.16
53.656,-11.75
53.671,-13.5
53.687,-15.28
53.703,-16.85
53.718,-18.06
53.734,-18.9
53.750,-19.56
53.765,-20.21
53.781,-20.99
53.796,-21.75
53.812,-22.09
53.828,-21.65
53.843,-20.16
53.859,-17.72
53.875,-14.68
53.890,-11.54
53.906,-8.7
53.921,-6.39
53.937,-4.6
53.953,-3.15
53.968,-1.93
53.984,-0.8
54.000,0.28
54.015,1.39
54.031,2.58
54.046,3.92
54.062,5.38
54.078,6.87
54.093,8.27
54.109,9.41
54.125,10.24
54.140,10.75
54.156,10.98
54.171,11.0
54.187,10.98
54.203,11.05
54.218,11.33
54.234,11.9
54.250,12.64
54.265,13.34
54.281,13.75
54.296,13.74
54.312,13.36
54.328,12.81
54.343,12.32
54.359,11.97
54.375,11.76
54.390,11.52
54.406,11.14
54.421,10.58
54.437,9.89
54.453,9.17
54.468,8.5
54.484,7.83
54.500,7.06
54.515,6.08
54.531,4.8
54.546,3.3
54.562,1.74
54.578,0.33
54.593,-0.75
54.609,-1.47
54.625,-1.95
54.640,-2.44
54.656,-3.15
54.671,-4.17
54.687,-5.49
54.703,-6.96
54.718,-8.48
54.734,-9.97
54.750,-11.49
54.765,-13.05
54.781,-14.6
54.796,-15.91
54.812,-16.69
54.828,-16.68
54.843,-15.78
54.859,-14.14
54.875,-12.04
54.890,-9.8
54.906,-7.6
54.921,-5.47
54.937,-3.35
54.953,-1.2
54.968,0.93
54.984,2.89
55.000,4.53
55.015,5.81
55.031,6.8
55.046,7.66
55.062,8.51
55.078,9.43
55.093,10.4
55.109,11.34
55.125,12.19
55.140,12.92
55.156,13.53
55.171,14.05
55.187,14.53
55.203,14.98
55.218,15.35
55.234,15.58
55.250,15.56
55.265,15.2
55.281,14.51
55.296,13.6
55.312,12.7
55.328,11.97
55.343,11.46
55.359,10.99
55.375,10.29
55.390,9.12
55.406,7.45
55.421,5.51
55.437,3.68
55.453,2.32
55.468,1.57
55.484,1.36
55.500,1.45
55.515,1.56
55.531,1.55
55.546,1.41
55.562,1.19
55.578,0.87
55.593,0.38
55.609,-0.44
55.625,-1.72
55.640,-3.44
55.656,-5.42
55.671,-7.44
55.687,-9.27
55.703,-10.87
55.718,-12.33
55.734,-13.85
55.750,-15.61
55.765,-17.64
55.781,-19.79
55.796,-21.7
55.812,-23.01
55.828,-23.38
55.843,-22.69
55.859,-21.03
55.875,-18.7
55.890,-16.04
55.906,-13.32
55.921,-10.67
55.937,-8.09
55.953,-5.51
55.968,-2.94
55.984,-0.51
56.000,1.62
56.015,3.32
56.031,4.59
56.046,5.55
56.062,6.4
56.078,7.27
56.093,8.19
56.109,9.13
56.125,10.01
56.140,10.78
56.156,11.45
56.171,12.02
56.187,12.54
56.203,13.01
56.218,13.37
56.234,13.51
56.250,13.31
56.265,12.75
56.281,11.95
56.296,11.19
56.312,10.71
56.328,10.64
56.343,10.88
56.359,11.15
56.375,11.07
56.390,10.42
56.406,9.2
56.421,7.63
56.437,6.05
56.453,4.78
56.468,3.9
56.484,3.31
56.500,2.72
56.515,1.87
56.531,0.57
56.546,-1.16
56.562,-3.14
56.578,-5.12
56.593,-6.88
56.609,-8.4
56.625,-9.78
56.640,-11.21
56.656,-12.79
56.671,-14.54
56.687,-16.37
56.703,-18.19
56.718,-19.87
56.734,-21.35
56.750,-22.53
56.765,-23.31
56.781,-23.53
56.796,-23.02
56.812,-21.65
56.828,-19.4
56.843,-16.38
56.859,-12.84
56.875,-9.15
56.890,-5.61
56.906,-2.42
56.921,0.36
56.937,2.82
56.953,5.07
56.968,7.15
56.984,9.01
57.000,10.56
57.015,11.75
57.031,12.61
57.046,13.25
57.062,13.81
57.078,14.38
57.093,15.01
57.109,15.63
57.125,16.2
57.140,16.66
57.156,16.96
57.171,17.12
57.187,17.13
57.203,17.01
57.218,16.71
57.234,16.18
57.250,15.39
57.265,14.39
57.281,13.31
57.296,12.32
57.312,11.45
57.328,10.69
57.343,9.88
57.359,8.92
57.375,7.75
57.390,6.41
57.406,5.04
57.421,3.73
57.437,2.57
57.453,1.52
57.468,0.52
57.484,-0.5
57.500,-1.56
57.515,-2.67
57.531,-3.84
57.546,-5.04
57.562,-6.28
57.578,-7.55
57.593,-8.84
57.609,-10.25
57.625,-11.86
57.640,-13.68
57.656,-15.63
57.671,-17.56
57.687,-19.33
57.703,-20.93
57.718,-22.46
57.734,-24.02
57.750,-25.6
57.765,-26.95
57.781,-27.6
57.796,-27.04
57.812,-24.99
57.828,-21.55
57.843,-17.21
57.859,-12.63
57.875,-8.34
57.890,-4.62
57.906,-1.48
57.921,1.21
57.937,3.58
57.953,5.63
57.968,7.36
57.984,8.74
58.000,9.86
58.015,10.92
58.031,12.13
58.046,13.56
58.062,15.13
58.078,16.55
58.093,17.47
58.109,17.68
58.125,17.17
58.140,16.21
58.156,15.23
58.171,14.65
58.187,14.67
58.203,15.19
58.218,15.81
58.234,16.07
58.250,15.69
58.265,14.66
58.281,13.26
58.296,11.91
58.312,10.93
58.328,10.48
58.343,10.48
58.359,10.69
58.375,10.84
58.390,10.74
58.406,10.27
58.421,9.42
58.437,8.21
58.453,6.67
58.468,4.89
58.484,2.99
58.500,1.1
58.515,-0.68
58.531,-2.2
58.546,-3.49
58.562,-4.67
58.578,-5.95
58.593,-7.59
58.609,-9.75
58.625,-12.4
58.640,-15.34
58.656,-18.28
58.671,-20.95
58.687,-23.19
58.703,-25.0
58.718,-26.45
58.734,-27.59
58.750,-28.39
58.765,-28.72
58.781,-28.38
58.796,-27.18
58.812,-25.06
58.828,-22.14
58.843,-18.71
58.859,-15.11
58.875,-11.64
58.890,-8.43
58.906,-5.46
58.921,-2.56
58.937,0.37
58.953,3.28
58.968,5.97
58.984,8.22
59.000,9.88
59.015,11.03
59.031,11.89
59.046,12.66
59.062,13.42
59.078,14.07
59.093,14.42
59.109,14.32
59.125,13.71
59.140,12.75
59.156,11.62
59.171,10.53
59.187,9.58
59.203,8.73
59.218,7.84
59.234,6.75
59.250,5.38
59.265,3.83
59.281,2.28
59.296,0.96
59.328,-0.64
59.343,-1.16
59.359,-1.79
59.375,-2.65
59.390,-3.67
59.406,-4.66
59.421,-5.36
59.437,-5.62
59.453,-5.47
59.468,-5.02
59.484,-4.46
59.500,-3.86
59.515,-3.25
59.531,-2.57
59.546,-1.85
59.562,-1.21
59.578,-0.95
59.593,-1.38
59.609,-2.68
59.625,-4.84
59.640,-7.55
59.656,-10.42
59.671,-13.11
59.687,-15.43
59.703,-17.41
59.718,-19.09
59.734,-20.42
59.750,-21.13
59.765,-20.84
59.781,-19.25
59.796,-16.33
59.812,-12.42
59.828,-8.07
59.843,-3.86
59.859,-0.16
59.875,2.97
59.890,5.76
59.906,8.44
59.921,11.19
59.937,13.97
59.953,16.5
59.968,18.46
59.984,19.68
