timestamp,value
00.000,1.22
00.015,0.32
00.031,-1.69
00.046,-4.93
00.062,-9.07
00.078,-13.5
00.093,-17.52
00.109,-20.67
00.125,-22.87
00.140,-24.45
00.156,-25.89
00.171,-27.73
00.187,-30.31
00.203,-33.85
00.218,-38.32
00.234,-43.43
00.250,-48.49
00.265,-52.33
00.281,-53.49
00.296,-50.66
00.312,-43.16
00.328,-31.31
00.343,-16.47
00.359,-0.64
00.375,14.18
00.390,26.51
00.406,35.67
00.421,41.78
00.437,45.35
00.453,47.05
00.468,47.42
00.484,46.86
00.500,45.59
00.515,43.7
00.531,41.2
00.546,38.1
00.562,34.41
00.578,30.23
00.593,25.75
00.609,21.2
00.625,16.86
00.640,13.0
00.656,9.83
00.671,7.5
00.687,6.04
00.703,5.34
00.718,5.23
00.734,5.43
00.750,5.64
00.765,5.52
00.781,4.79
00.796,3.24
00.812,0.8
00.828,-2.42
00.843,-6.1
00.859,-9.82
00.875,-13.23
00.890,-16.16
00.906,-18.65
00.921,-20.97
00.937,-23.47
00.953,-26.52
00.968,-30.35
00.984,-35.0
01.000,-40.16
01.015,-45.07
01.031,-48.64
01.046,-49.51
01.062,-46.59
01.078,-39.38
01.093,-28.33
01.109,-14.7
01.125,-0.24
01.140,13.32
01.156,24.73
01.171,33.41
01.187,39.41
01.203,43.16
01.218,45.19
01.234,45.93
01.250,45.7
01.265,44.65
01.281,42.84
01.296,40.3
01.312,37.04
01.328,33.13
01.343,28.71
01.359,24.1
01.375,19.65
01.390,15.69
01.406,12.43
01.421,9.91
01.437,8.02
01.453,6.59
01.468,5.47
01.484,4.57
01.500,3.84
01.515,3.18
01.531,2.4
01.546,1.28
01.562,-0.44
01.578,-2.82
01.593,-5.8
01.609,-9.12
01.625,-12.41
01.640,-15.37
01.656,-17.81
01.671,-19.8
01.687,-21.58
01.703,-23.51
01.718,-25.91
01.734,-29.05
01.750,-33.05
01.765,-37.77
01.781,-42.71
01.796,-46.98
01.812,-49.34
01.828,-48.51
01.843,-43.63
01.859,-34.59
01.875,-22.24
01.890,-8.15
01.906,5.85
01.921,18.23
01.937,28.11
01.953,35.26
01.968,39.95
01.984,42.59
02.000,43.62
02.015,43.36
02.031,42.1
02.046,40.14
02.062,37.7
02.078,34.93
02.093,31.9
02.109,28.56
02.125,24.88
02.140,20.92
02.156,16.83
02.171,12.82
02.187,9.15
02.203,6.03
02.218,3.58
02.234,1.83
02.250,0.66
02.265,-0.09
02.281,-0.67
02.296,-1.35
02.312,-2.4
02.328,-3.95
02.343,-6.07
02.359,-8.62
02.375,-11.42
02.390,-14.26
02.406,-16.98
02.421,-19.55
02.437,-21.98
02.453,-24.36
02.468,-26.81
02.484,-29.47
02.500,-32.49
02.515,-35.99
02.531,-39.85
02.546,-43.52
02.562,-45.98
02.578,-45.93
02.593,-42.26
02.609,-34.55
02.625,-23.37
02.640,-10.14
02.656,3.29
02.671,15.21
02.687,24.64
02.703,31.36
02.718,35.71
02.734,38.24
02.750,39.36
02.765,39.3
02.781,38.22
02.796,36.28
02.812,33.72
02.828,30.87
02.843,27.97
02.859,25.11
02.875,22.26
02.890,19.27
02.906,16.03
02.921,12.62
02.937,9.21
02.953,6.1
02.968,3.57
02.984,1.81
03.000,0.79
03.015,0.3
03.031,-0.03
03.046,-0.65
03.062,-1.97
03.078,-4.17
03.093,-7.2
03.109,-10.79
03.125,-14.57
03.140,-18.21
03.156,-21.43
03.171,-24.14
03.187,-26.37
03.203,-28.3
03.218,-30.19
03.234,-32.41
03.250,-35.38
03.265,-39.33
03.281,-44.07
03.296,-48.82
03.312,-52.31
03.328,-53.06
03.343,-49.92
03.359,-42.47
03.375,-31.3
03.390,-17.77
03.406,-3.62
03.421,9.51
03.437,20.53
03.453,28.93
03.468,34.79
03.484,38.47
03.500,40.5
03.515,41.36
03.531,41.4
03.546,40.83
03.562,39.74
03.578,38.08
03.593,35.79
03.609,32.85
03.625,29.34
03.640,25.37
03.656,21.12
03.671,16.74
03.687,12.42
03.703,8.31
03.718,4.64
03.734,1.67
03.750,-0.48
03.765,-1.81
03.781,-2.59
03.796,-3.24
03.812,-4.2
03.828,-5.76
03.843,-7.95
03.859,-10.54
03.875,-13.19
03.890,-15.65
03.906,-17.8
03.921,-19.75
03.937,-21.66
03.953,-23.69
03.968,-25.95
03.984,-28.53
04.000,-31.55
04.015,-35.13
04.031,-39.23
04.046,-43.39
04.062,-46.73
04.078,-47.98
04.093,-46.0
04.109,-40.19
04.125,-30.74
04.140,-18.73
04.156,-5.64
04.171,7.02
04.187,18.13
04.203,27.11
04.218,33.77
04.234,38.23
04.250,40.67
04.265,41.41
04.281,40.83
04.296,39.4
04.312,37.53
04.328,35.49
04.343,33.35
04.359,30.98
04.375,28.2
04.390,24.86
04.406,21.0
04.421,16.8
04.437,12.62
04.453,8.8
04.468,5.65
04.484,3.31
04.500,1.75
04.515,0.84
04.531,0.35
04.562,-0.55
04.578,-1.55
04.593,-3.23
04.609,-5.67
04.625,-8.77
04.640,-12.25
04.656,-15.72
04.671,-18.86
04.687,-21.51
04.703,-23.74
04.718,-25.77
04.734,-27.89
04.750,-30.39
04.765,-33.49
04.781,-37.23
04.796,-41.4
04.812,-45.36
04.828,-48.09
04.843,-48.33
04.859,-45.01
04.875,-37.63
04.890,-26.63
04.906,-13.29
04.921,0.62
04.937,13.44
04.953,24.08
04.968,32.19
04.984,38.04
05.000,42.12
05.015,44.87
05.031,46.47
05.046,47.0
05.062,46.41
05.078,44.77
05.093,42.19
05.109,38.88
05.125,35.09
05.140,30.99
05.156,26.78
05.171,22.56
05.187,18.45
05.203,14.5
05.218,10.78
05.234,7.39
05.250,4.4
05.265,1.88
05.281,-0.19
05.296,-1.98
05.312,-3.75
05.328,-5.79
05.343,-8.34
05.359,-11.46
05.375,-15.0
05.390,-18.65
05.406,-22.02
05.421,-24.81
05.437,-26.85
05.453,-28.25
05.468,-29.27
05.484,-30.34
05.500,-31.83
05.515,-34.09
05.531,-37.31
05.546,-41.34
05.562,-45.66
05.578,-49.24
05.593,-50.74
05.609,-48.9
05.625,-42.95
05.640,-33.03
05.656,-20.19
05.671,-6.11
05.687,7.46
05.703,19.17
05.718,28.33
05.734,34.87
05.750,39.08
05.765,41.36
05.781,42.09
05.796,41.55
05.812,39.99
05.828,37.61
05.843,34.56
05.859,31.0
05.875,27.06
05.890,22.89
05.906,18.67
05.921,14.54
05.937,10.63
05.953,7.06
05.968,3.95
05.984,1.45
06.000,-0.31
06.015,-1.23
06.031,-1.39
06.046,-1.13
06.062,-0.91
06.078,-1.19
06.093,-2.3
06.109,-4.28
06.125,-6.96
06.140,-10.06
06.156,-13.27
06.171,-16.37
06.187,-19.23
06.203,-21.85
06.218,-24.3
06.234,-26.75
06.250,-29.49
06.265,-32.83
06.281,-36.96
06.296,-41.67
06.312,-46.2
06.328,-49.28
06.343,-49.43
06.359,-45.47
06.375,-37.02
06.390,-24.76
06.406,-10.21
06.421,4.65
06.437,18.06
06.453,28.89
06.468,36.79
06.484,41.99
06.500,45.0
06.515,46.33
06.531,46.34
06.546,45.29
06.562,43.35
06.578,40.71
06.593,37.55
06.609,33.98
06.625,30.07
06.640,25.88
06.656,21.45
06.671,16.9
06.687,12.45
06.703,8.39
06.718,5.0
06.734,2.45
06.750,0.75
06.765,-0.26
06.781,-0.86
06.796,-1.37
06.812,-2.1
06.828,-3.3
06.843,-5.11
06.859,-7.5
06.875,-10.31
06.890,-13.25
06.906,-16.02
06.921,-18.38
06.937,-20.26
06.953,-21.76
06.968,-23.14
06.984,-24.75
07.000,-26.95
07.015,-30.06
07.031,-34.18
07.046,-39.08
07.062,-44.05
07.078,-47.91
07.093,-49.22
07.109,-46.8
07.125,-40.1
07.140,-29.57
07.156,-16.52
07.171,-2.65
07.187,10.44
07.203,21.69
07.218,30.74
07.234,37.67
07.250,42.77
07.265,46.2
07.281,48.01
07.296,48.21
07.312,46.94
07.328,44.55
07.343,41.43
07.359,37.94
07.375,34.25
07.390,30.37
07.406,26.24
07.421,21.85
07.437,17.36
07.453,13.02
07.468,9.15
07.484,5.99
07.500,3.7
07.515,2.21
07.531,1.37
07.546,0.89
07.562,0.43
07.578,-0.36
07.593,-1.79
07.609,-3.96
07.625,-6.83
07.640,-10.16
07.656,-13.63
07.671,-16.91
07.687,-19.77
07.703,-22.1
07.718,-23.97
07.734,-25.63
07.750,-27.39
07.765,-29.68
07.781,-32.82
07.796,-36.92
07.812,-41.66
07.828,-46.21
07.843,-49.31
07.859,-49.53
07.875,-45.81
07.890,-37.78
07.906,-26.06
07.921,-12.04
07.937,2.48
07.953,15.85
07.968,26.95
07.984,35.3
08.000,41.03
08.015,44.55
08.031,46.33
08.046,46.79
08.062,46.23
08.078,44.91
08.093,42.97
08.109,40.5
08.125,37.51
08.140,33.99
08.156,29.99
08.171,25.63
08.187,21.17
08.203,16.9
08.218,13.09
08.234,9.86
08.250,7.24
08.265,5.16
08.281,3.5
08.296,2.1
08.312,0.84
08.328,-0.43
08.343,-1.81
08.359,-3.44
08.375,-5.41
08.390,-7.74
08.406,-10.41
08.421,-13.25
08.437,-16.03
08.453,-18.52
08.468,-20.5
08.484,-21.99
08.500,-23.21
08.515,-24.61
08.531,-26.69
08.546,-29.87
08.562,-34.22
08.578,-39.3
08.593,-44.16
08.609,-47.47
08.625,-47.87
08.640,-44.38
08.656,-36.73
08.671,-25.57
08.687,-12.27
08.703,1.41
08.718,13.9
08.734,24.08
08.750,31.62
08.765,36.67
08.781,39.72
08.796,41.22
08.812,41.5
08.828,40.75
08.843,39.1
08.859,36.74
08.875,33.77
08.890,30.34
08.906,26.49
08.921,22.24
08.937,17.71
08.953,13.06
08.968,8.61
08.984,4.72
09.000,1.72
09.015,-0.24
09.031,-1.17
09.046,-1.25
09.062,-0.87
09.078,-0.48
09.093,-0.52
09.109,-1.28
09.125,-2.86
09.140,-5.09
09.156,-7.65
09.171,-10.18
09.187,-12.44
09.203,-14.31
09.218,-15.87
09.234,-17.31
09.250,-18.84
09.265,-20.75
09.281,-23.3
09.296,-26.72
09.312,-31.07
09.328,-36.04
09.343,-40.79
09.359,-44.05
09.375,-44.46
09.390,-41.03
09.406,-33.59
09.421,-22.92
09.437,-10.45
09.453,2.11
09.468,13.38
09.484,22.52
09.500,29.32
09.515,33.95
09.531,36.76
09.546,38.07
09.562,38.24
09.578,37.55
09.593,36.23
09.609,34.45
09.625,32.23
09.640,29.52
09.656,26.29
09.671,22.58
09.687,18.53
09.703,14.38
09.718,10.41
09.734,6.89
09.750,4.06
09.765,2.07
09.781,0.96
09.796,0.63
09.812,0.85
09.828,1.23
09.843,1.31
09.859,0.71
09.875,-0.83
09.890,-3.27
09.906,-6.36
09.921,-9.67
09.937,-12.78
09.953,-15.34
09.968,-17.24
09.984,-18.6
10.000,-19.73
10.015,-21.09
10.031,-23.17
10.046,-26.33
10.062,-30.69
10.078,-35.9
10.093,-41.04
10.109,-44.78
10.125,-45.66
10.140,-42.63
10.156,-35.44
10.171,-24.74
10.187,-11.95
10.203,1.24
10.218,13.32
10.234,23.32
10.250,30.85
10.265,36.01
10.281,39.17
10.296,40.75
10.312,41.16
10.328,40.69
10.343,39.53
10.359,37.75
10.375,35.31
10.390,32.15
10.406,28.3
10.421,23.91
10.437,19.27
10.453,14.73
10.468,10.59
10.484,7.04
10.500,4.2
10.515,2.03
10.531,0.43
10.546,-0.73
10.562,-1.57
10.578,-2.24
10.593,-2.87
10.609,-3.63
10.625,-4.66
10.640,-6.05
10.656,-7.79
10.671,-9.83
10.687,-12.08
10.703,-14.47
10.718,-16.95
10.734,-19.55
10.750,-22.25
10.765,-25.04
10.781,-27.96
10.796,-31.16
10.812,-34.87
10.828,-39.33
10.843,-44.4
10.859,-49.41
10.875,-53.08
10.890,-53.85
10.906,-50.49
10.921,-42.58
10.937,-30.79
10.953,-16.63
10.968,-2.0
10.984,11.44
11.000,22.62
11.015,31.15
11.031,37.16
11.046,41.0
11.062,43.08
11.078,43.77
11.093,43.36
11.109,42.11
11.125,40.16
11.140,37.62
11.156,34.49
11.171,30.81
11.187,26.64
11.203,22.21
11.218,17.81
11.234,13.76
11.250,10.32
11.265,7.62
11.281,5.66
11.296,4.3
11.312,3.35
11.328,2.58
11.343,1.8
11.359,0.81
11.375,-0.55
11.390,-2.38
11.406,-4.71
11.421,-7.46
11.437,-10.48
11.453,-13.54
11.468,-16.43
11.484,-18.97
11.500,-21.11
11.515,-22.88
11.531,-24.45
11.546,-26.14
11.562,-28.35
11.578,-31.4
11.593,-35.41
11.609,-40.12
11.625,-44.72
11.640,-48.01
11.656,-48.6
11.671,-45.4
11.687,-37.97
11.703,-26.77
11.718,-13.05
11.734,1.45
11.750,15.01
11.765,26.4
11.781,34.99
11.796,40.8
11.812,44.29
11.828,46.03
11.843,46.49
11.859,45.99
11.875,44.7
11.890,42.69
11.906,40.03
11.921,36.83
11.937,33.14
11.953,29.04
11.968,24.59
11.984,19.92
12.000,15.2
12.015,10.7
12.031,6.74
12.046,3.61
12.062,1.44
12.078,0.2
12.093,-0.33
12.109,-0.5
12.125,-0.67
12.140,-1.16
12.156,-2.17
12.171,-3.74
12.187,-5.8
12.203,-8.14
12.218,-10.55
12.234,-12.85
12.250,-14.99
12.265,-16.98
12.281,-18.98
12.296,-21.18
12.312,-23.82
12.328,-27.17
12.343,-31.35
12.359,-36.31
12.375,-41.54
12.390,-46.13
12.406,-48.81
12.421,-48.3
12.437,-43.84
12.453,-35.48
12.468,-24.13
12.484,-11.33
12.500,1.31
12.515,12.47
12.531,21.47
12.546,28.15
12.562,32.71
12.578,35.48
12.593,36.78
12.609,36.91
12.625,36.19
12.640,34.84
12.656,33.02
12.671,30.76
12.687,27.98
12.703,24.59
12.718,20.68
12.734,16.49
12.750,12.36
12.765,8.67
12.781,5.69
12.796,3.57
12.812,2.34
12.828,1.89
12.843,2.02
12.859,2.36
12.875,2.49
12.890,1.97
12.906,0.5
12.921,-1.94
12.937,-5.08
12.953,-8.5
12.968,-11.78
12.984,-14.66
13.000,-17.12
13.015,-19.28
13.031,-21.35
13.046,-23.6
13.062,-26.31
13.078,-29.73
13.093,-33.98
13.109,-38.88
13.125,-43.71
13.140,-47.35
13.156,-48.44
13.171,-45.9
13.187,-39.32
13.203,-29.17
13.218,-16.69
13.234,-3.47
13.250,9.02
13.265,19.76
13.281,28.24
13.296,34.41
13.312,38.46
13.328,40.71
13.343,41.5
13.359,41.2
13.375,40.14
13.390,38.54
13.406,36.46
13.421,33.87
13.437,30.68
13.453,26.9
13.468,22.63
13.484,18.13
13.500,13.71
13.515,9.67
13.531,6.23
13.546,3.57
13.562,1.75
13.578,0.74
13.593,0.42
13.609,0.45
13.625,0.44
13.640,-0.05
13.656,-1.35
13.671,-3.59
13.687,-6.61
13.703,-10.06
13.718,-13.45
13.734,-16.4
13.750,-18.71
13.765,-20.51
13.781,-22.14
13.796,-24.12
13.812,-26.93
13.828,-30.87
13.843,-35.84
13.859,-41.32
13.875,-46.37
13.890,-49.75
13.906,-50.28
13.921,-47.09
13.937,-39.95
13.953,-29.35
13.968,-16.49
13.984,-2.91
14.000,9.89
14.015,20.78
14.031,29.23
14.046,35.21
14.062,39.08
14.078,41.3
14.093,42.33
14.109,42.48
14.125,41.94
14.140,40.82
14.156,39.16
14.171,36.96
14.187,34.25
14.203,31.04
14.218,27.45
14.234,23.69
14.250,20.04
14.265,16.81
14.281,14.31
14.296,12.75
14.312,12.21
14.328,12.56
14.343,13.52
14.359,14.67
14.375,15.6
14.390,16.01
14.406,15.75
14.421,14.87
14.437,13.58
14.453,12.15
14.468,10.76
14.484,9.41
14.500,7.73
14.515,5.21
14.531,1.29
14.546,-4.27
14.562,-11.29
14.578,-19.14
14.593,-27.02
14.609,-34.21
14.625,-40.15
14.640,-44.46
14.656,-46.66
14.671,-46.18
14.687,-42.48
14.703,-35.39
14.718,-25.38
14.734,-13.59
14.750,-1.51
14.765,9.48
14.781,18.52
14.796,25.4
14.812,30.32
14.828,33.64
14.843,35.68
14.859,36.53
14.875,36.21
14.890,34.7
14.906,32.03
14.921,28.28
14.937,23.61
14.953,18.22
14.968,12.37
14.984,6.35
15.000,0.48
15.015,-4.92
15.031,-9.62
15.046,-13.52
15.062,-16.58
15.078,-18.91
15.093,-20.65
15.109,-21.98
15.125,-23.08
15.140,-24.14
15.156,-25.37
15.171,-26.95
15.187,-29.0
15.203,-31.44
15.218,-34.06
15.234,-36.49
15.250,-38.41
15.265,-39.62
15.281,-40.17
15.296,-40.21
15.312,-39.97
15.328,-39.75
15.343,-39.91
15.359,-40.87
15.375,-42.95
15.390,-46.09
15.406,-49.62
15.421,-52.16
15.437,-51.98
15.453,-47.63
15.468,-38.55
15.484,-25.35
15.500,-9.58
15.515,6.81
15.531,22.12
15.546,35.21
15.562,45.47
15.578,52.6
15.593,56.42
15.609,56.79
15.625,53.83
15.640,48.03
15.656,40.32
15.671,31.87
15.687,23.84
15.703,17.09
15.718,11.98
15.734,8.49
15.750,6.28
15.765,4.99
15.781,4.34
15.796,4.26
15.812,4.85
15.828,6.28
15.843,8.58
15.859,11.59
15.875,14.85
15.890,17.72
15.906,19.55
15.921,19.75
15.937,18.12
15.953,14.83
15.968,10.37
15.984,5.45
16.000,0.76
16.015,-3.22
16.031,-6.38
16.046,-8.93
16.062,-11.34
16.078,-14.14
16.093,-17.76
16.109,-22.39
16.125,-27.83
16.140,-33.5
16.156,-38.41
16.171,-41.43
16.187,-41.56
16.203,-38.28
16.218,-31.85
16.234,-23.21
16.250,-13.73
16.265,-4.71
16.281,2.9
16.296,8.72
16.312,12.77
16.328,15.29
16.343,16.5
16.359,16.5
16.375,15.36
16.390,13.19
16.406,10.24
16.421,6.81
16.437,3.32
16.453,0.14
16.468,-2.4
16.484,-4.04
16.500,-4.57
16.515,-3.83
16.531,-1.73
16.546,1.72
16.562,6.31
16.578,11.66
16.593,17.18
16.609,22.14
16.625,25.86
16.640,27.81
16.656,27.78
16.671,25.84
16.687,22.35
16.703,17.78
16.718,12.66
16.734,7.46
16.750,2.52
16.765,-1.98
16.781,-5.98
16.796,-9.64
16.812,-13.26
16.828,-17.33
16.843,-22.29
16.859,-28.4
16.875,-35.47
16.890,-42.7
16.906,-48.78
16.921,-52.06
16.937,-51.15
16.953,-45.36
16.968,-35.1
16.984,-21.71
17.000,-7.19
17.015,6.55
17.031,18.18
17.046,27.16
17.062,33.64
17.078,38.13
17.093,41.13
17.109,42.95
17.125,43.76
17.140,43.62
17.156,42.66
17.171,40.98
17.187,38.72
17.203,35.93
17.218,32.64
17.234,28.99
17.250,25.17
17.265,21.45
17.281,18.05
17.296,15.14
17.312,12.77
17.328,10.91
17.343,9.48
17.359,8.34
17.375,7.31
17.390,6.13
17.406,4.53
17.421,2.26
17.437,-0.74
17.453,-4.32
17.468,-8.2
17.484,-11.98
17.500,-15.36
17.515,-18.21
17.531,-20.59
17.546,-22.71
17.562,-24.82
17.578,-27.23
17.593,-30.25
17.609,-34.17
17.625,-39.12
17.640,-44.81
17.656,-50.44
17.671,-54.68
17.687,-56.02
17.703,-53.21
17.718,-45.83
17.734,-34.44
17.750,-20.47
17.765,-5.73
17.781,8.11
17.796,19.93
17.812,29.26
17.828,36.12
17.843,40.8
17.859,43.64
17.875,44.96
17.890,45.03
17.906,44.09
17.921,42.4
17.937,40.13
17.953,37.41
17.968,34.29
17.984,30.8
18.000,26.98
18.015,22.99
18.031,19.07
18.046,15.53
18.062,12.67
18.078,10.65
18.093,9.46
18.109,8.93
18.125,8.67
18.140,8.26
18.156,7.37
18.171,5.79
18.187,3.48
18.203,0.51
18.218,-2.95
18.234,-6.69
18.250,-10.49
18.265,-14.2
18.281,-17.68
18.296,-20.87
18.312,-23.8
18.328,-26.61
18.343,-29.5
18.359,-32.8
18.375,-36.81
18.390,-41.67
18.406,-47.22
18.421,-52.76
18.437,-57.15
18.453,-58.94
18.468,-56.87
18.484,-50.32
18.500,-39.61
18.515,-25.98
18.531,-11.15
18.546,3.08
18.562,15.46
18.578,25.39
18.593,32.82
18.609,38.06
18.625,41.51
18.640,43.52
18.656,44.36
18.671,44.26
18.687,43.36
18.703,41.74
18.718,39.45
18.734,36.44
18.750,32.76
18.765,28.45
18.781,23.73
18.796,18.89
18.812,14.36
18.828,10.56
18.843,7.83
18.859,6.26
18.875,5.71
18.890,5.79
18.906,6.0
18.921,5.9
18.937,5.18
18.953,3.66
18.968,1.35
18.984,-1.67
19.000,-5.28
19.015,-9.23
19.031,-13.23
19.046,-16.97
19.062,-20.28
19.078,-23.16
19.093,-25.88
19.109,-28.85
19.125,-32.59
19.140,-37.44
19.156,-43.43
19.171,-50.07
19.187,-56.31
19.203,-60.68
19.218,-61.63
19.234,-58.08
19.250,-49.79
19.265,-37.56
19.281,-22.94
19.296,-7.82
19.312,6.19
19.328,18.11
19.343,27.67
19.359,34.99
19.375,40.37
19.390,44.03
19.406,46.07
19.421,46.62
19.437,45.89
19.453,44.14
19.468,41.66
19.484,38.64
19.500,35.17
19.515,31.24
19.531,26.93
19.546,22.36
19.562,17.84
19.578,13.72
19.593,10.35
19.609,7.9
19.625,6.39
19.640,5.62
19.656,5.25
19.671,4.85
19.687,3.99
19.703,2.3
19.718,-0.39
19.734,-4.04
19.750,-8.37
19.765,-12.94
19.781,-17.28
19.796,-21.1
19.812,-24.33
19.828,-27.21
19.843,-30.08
19.859,-33.33
19.875,-37.25
19.890,-41.95
19.906,-47.31
19.921,-52.86
19.937,-57.73
19.953,-60.71
19.968,-60.47
19.984,-56.0
20.000,-47.07
20.015,-34.42
20.031,-19.58
20.046,-4.45
20.062,9.35
20.078,20.77
20.093,29.58
20.109,36.05
20.125,40.65
20.140,43.83
20.156,45.79
20.171,46.67
20.187,46.49
20.203,45.37
20.218,43.42
20.234,40.83
20.250,37.72
20.265,34.17
20.281,30.28
20.296,26.18
20.312,22.1
20.328,18.3
20.343,15.05
20.359,12.52
20.375,10.75
20.390,9.59
20.406,8.76
20.421,7.97
20.437,6.88
20.453,5.23
20.468,2.78
20.484,-0.52
20.500,-4.59
20.515,-9.13
20.531,-13.77
20.546,-18.14
20.562,-21.99
20.578,-25.29
20.593,-28.18
20.609,-30.95
20.625,-33.95
20.640,-37.57
20.656,-42.09
20.671,-47.5
20.687,-53.41
20.703,-58.8
20.718,-62.22
20.734,-62.08
20.750,-57.27
20.765,-47.53
20.781,-33.74
20.796,-17.63
20.812,-1.23
20.828,13.7
20.843,26.12
20.859,35.69
20.875,42.67
20.890,47.52
20.906,50.69
20.921,52.48
20.937,53.11
20.953,52.73
20.968,51.48
20.984,49.47
21.000,46.77
21.015,43.48
21.031,39.64
21.046,35.37
21.062,30.85
21.078,26.3
21.093,22.04
21.109,18.39
21.125,15.64
21.140,13.86
21.156,12.95
21.171,12.49
21.187,12.0
21.203,10.97
21.218,9.1
21.234,6.33
21.250,2.81
21.265,-1.2
21.281,-5.46
21.296,-9.75
21.312,-13.9
21.328,-17.76
21.343,-21.27
21.359,-24.52
21.375,-27.68
21.390,-31.0
21.406,-34.71
21.421,-39.01
21.437,-43.93
21.453,-49.27
21.468,-54.47
21.484,-58.5
21.500,-60.11
21.515,-58.07
21.531,-51.66
21.546,-40.97
21.562,-27.04
21.578,-11.56
21.593,3.6
21.609,16.96
21.625,27.68
21.640,35.61
21.656,41.05
21.671,44.49
21.687,46.44
21.703,47.3
21.718,47.37
21.734,46.86
21.750,45.83
21.765,44.26
21.781,42.06
21.796,39.21
21.812,35.73
21.828,31.81
21.843,27.72
21.859,23.72
21.875,20.07
21.890,16.9
21.906,14.31
21.921,12.24
21.937,10.65
21.953,9.4
21.968,8.31
21.984,7.13
22.000,5.61
22.015,3.48
22.031,0.58
22.046,-3.12
22.062,-7.42
22.078,-11.93
22.093,-16.21
22.109,-19.95
22.125,-23.02
22.140,-25.6
22.156,-28.04
22.171,-30.83
22.187,-34.34
22.203,-38.79
22.218,-44.09
22.234,-49.74
22.250,-54.85
22.265,-58.14
22.281,-58.23
22.296,-54.1
22.312,-45.46
22.328,-32.97
22.343,-18.17
22.359,-2.96
22.375,10.95
22.390,22.49
22.406,31.37
22.421,37.86
22.437,42.42
22.453,45.42
22.468,47.04
22.484,47.29
22.500,46.23
22.515,44.07
22.531,41.12
22.546,37.72
22.562,34.08
22.578,30.27
22.593,26.23
22.609,21.93
22.625,17.47
22.640,13.15
22.656,9.37
22.671,6.47
22.687,4.66
22.703,3.84
22.718,3.67
22.734,3.66
22.750,3.28
22.765,2.13
22.796,-3.05
22.812,-6.75
22.828,-10.68
22.843,-14.4
22.859,-17.6
22.875,-20.18
22.890,-22.29
22.906,-24.24
22.921,-26.36
22.937,-29.01
22.953,-32.53
22.968,-37.05
22.984,-42.46
23.000,-48.16
23.015,-52.99
23.031,-55.45
23.046,-54.14
23.062,-48.26
23.078,-38.06
23.093,-24.81
23.109,-10.39
23.125,3.33
23.140,15.0
23.156,24.06
23.171,30.62
23.187,35.16
23.203,38.16
23.218,39.99
23.234,40.76
23.250,40.53
23.265,39.36
23.281,37.31
23.296,34.51
23.312,31.09
23.328,27.2
23.343,22.97
23.359,18.58
23.375,14.26
23.390,10.28
23.406,6.91
23.421,4.4
23.437,2.86
23.453,2.22
23.468,2.2
23.484,2.33
23.500,2.1
23.515,1.07
23.531,-0.95
23.546,-3.85
23.562,-7.27
23.578,-10.75
23.593,-13.93
23.609,-16.6
23.625,-18.85
23.640,-20.91
23.656,-23.09
23.671,-25.71
23.687,-29.07
23.703,-33.38
23.718,-38.7
23.734,-44.8
23.750,-50.91
23.765,-55.76
23.781,-57.83
23.796,-55.78
23.812,-49.0
23.828,-37.93
23.843,-23.95
23.859,-8.95
23.875,5.26
23.890,17.39
23.906,26.99
23.921,34.16
23.937,39.3
23.953,42.8
23.968,44.88
23.984,45.63
24.000,45.05
24.015,43.3
24.031,40.54
24.046,37.04
24.062,33.04
24.078,28.77
24.093,24.36
24.109,19.97
24.125,15.78
24.140,12.0
24.156,8.89
24.171,6.62
24.187,5.22
24.203,4.49
24.218,4.08
24.234,3.51
24.250,2.36
24.265,0.37
24.281,-2.45
24.296,-5.87
24.312,-9.52
24.328,-13.03
24.343,-16.14
24.359,-18.78
24.375,-21.02
24.390,-23.06
24.406,-25.13
24.421,-27.48
24.437,-30.4
24.453,-34.16
24.468,-38.95
24.484,-44.63
24.500,-50.56
24.515,-55.5
24.531,-57.88
24.546,-56.33
24.562,-50.2
24.578,-39.92
24.593,-26.88
24.609,-12.91
24.625,0.34
24.640,11.82
24.656,21.25
24.671,28.78
24.687,34.7
24.703,39.12
24.718,42.01
24.734,43.35
24.750,43.26
24.765,42.04
24.781,40.06
24.796,37.62
24.812,34.8
24.828,31.57
24.843,27.83
24.859,23.62
24.875,19.18
24.890,14.9
24.906,11.24
24.921,8.59
24.937,7.05
24.953,6.42
24.968,6.29
24.984,6.09
25.000,5.31
25.015,3.61
25.031,0.87
25.046,-2.77
25.062,-6.95
25.078,-11.25
25.093,-15.28
25.109,-18.81
25.125,-21.83
25.140,-24.62
25.156,-27.61
25.171,-31.29
25.187,-35.98
25.203,-41.66
25.218,-47.77
25.234,-53.3
25.250,-56.83
25.265,-56.95
25.281,-52.76
25.296,-44.15
25.312,-32.02
25.328,-17.95
25.343,-3.79
25.359,8.94
25.375,19.4
25.390,27.49
25.406,33.54
25.421,38.02
25.437,41.29
25.453,43.48
25.468,44.64
25.484,44.77
25.500,43.96
25.515,42.3
25.531,39.92
25.546,36.87
25.562,33.21
25.578,29.0
25.593,24.38
25.609,19.61
25.625,15.11
25.640,11.36
25.656,8.74
25.671,7.34
25.687,6.89
25.703,6.76
25.718,6.2
25.734,4.61
25.750,1.78
25.765,-2.04
25.781,-6.26
25.796,-10.31
25.812,-13.76
25.828,-16.6
25.843,-19.15
25.859,-21.96
25.875,-25.6
25.890,-30.59
25.906,-37.14
25.921,-45.02
25.937,-53.41
25.953,-60.93
25.968,-65.85
25.984,-66.65
26.000,-62.43
26.015,-53.39
26.031,-40.81
26.046,-26.63
26.062,-12.83
26.078,-0.91
26.093,8.48
26.109,15.37
26.125,20.14
26.140,23.24
26.156,24.89
26.171,25.2
26.187,24.34
26.203,22.6
26.218,20.34
26.234,17.98
26.250,15.8
26.265,13.93
26.281,12.48
26.296,11.52
26.312,11.28
26.328,12.06
26.343,14.12
26.359,17.47
26.375,21.86
26.390,26.67
26.406,31.15
26.421,34.56
26.437,36.39
26.453,36.49
26.468,35.05
26.484,32.53
26.500,29.49
26.515,26.47
26.531,23.83
26.546,21.65
26.562,19.77
26.578,17.82
26.593,15.28
26.609,11.56
26.625,6.18
26.640,-1.0
26.656,-9.59
26.671,-18.6
26.687,-26.53
26.703,-31.72
26.718,-32.87
26.734,-29.52
26.750,-22.22
26.765,-12.43
26.781,-1.94
26.796,7.66
26.812,15.42
26.828,21.14
26.843,25.14
26.859,27.85
26.875,29.54
26.890,30.21
26.906,29.71
26.921,27.98
26.937,25.18
26.953,21.65
26.968,17.84
26.984,14.08
27.000,10.47
27.015,6.97
27.031,3.44
27.046,-0.17
27.062,-3.77
27.078,-7.14
27.093,-9.96
27.109,-12.08
27.125,-13.58
27.140,-14.7
27.156,-15.89
27.171,-17.49
27.187,-19.74
27.203,-22.63
27.218,-25.99
27.234,-29.56
27.250,-33.1
27.265,-36.45
27.281,-39.45
27.296,-41.98
27.312,-43.95
27.328,-45.41
27.343,-46.52
27.359,-47.65
27.375,-49.14
27.390,-51.11
27.406,-53.2
27.421,-54.55
27.437,-54.0
27.453,-50.47
27.468,-43.34
27.484,-32.64
27.500,-19.12
27.515,-3.92
27.531,11.66
27.546,26.52
27.562,39.87
27.578,51.19
27.593,60.3
27.609,67.13
27.625,71.75
27.640,74.29
27.656,74.97
27.671,74.03
27.687,71.67
27.703,68.09
27.718,63.44
27.734,57.94
27.750,51.86
27.765,45.46
27.781,39.11
27.796,33.08
27.812,27.65
27.828,22.93
27.843,18.92
27.859,15.53
27.875,12.64
27.890,10.11
27.906,7.79
27.921,5.48
27.937,2.92
27.953,-0.21
27.968,-4.12
27.984,-8.84
28.000,-14.19
28.015,-19.76
28.031,-25.1
28.046,-29.94
28.062,-34.24
28.078,-38.32
28.093,-42.6
28.109,-47.53
28.125,-53.34
28.140,-59.85
28.156,-66.36
28.171,-71.64
28.187,-74.2
28.203,-72.65
28.218,-66.25
28.234,-55.18
28.250,-40.61
28.265,-24.44
28.281,-8.63
28.296,5.3
28.312,16.61
28.328,25.26
28.343,31.6
28.359,36.05
28.375,38.88
28.390,40.21
28.406,40.19
28.421,39.07
28.437,37.18
28.453,34.87
28.468,32.37
28.484,29.78
28.500,27.05
28.515,24.08
28.531,20.86
28.546,17.43
28.562,13.97
28.578,10.71
28.593,7.85
28.609,5.55
28.625,3.87
28.640,2.66
28.656,1.62
28.671,0.34
28.687,-1.54
28.703,-4.29
28.718,-7.92
28.734,-12.18
28.750,-16.68
28.765,-20.93
28.781,-24.59
28.796,-27.5
28.812,-29.72
28.828,-31.54
28.843,-33.39
28.859,-35.71
28.875,-38.82
28.890,-42.74
28.906,-47.0
28.921,-50.63
28.937,-52.25
28.953,-50.41
28.968,-44.17
28.984,-33.46
29.000,-19.22
29.015,-3.27
29.031,12.36
29.046,25.89
29.062,36.33
29.078,43.56
29.093,48.05
29.109,50.51
29.125,51.58
29.140,51.64
29.156,50.88
29.171,49.46
29.187,47.53
29.203,45.22
29.218,42.58
29.234,39.54
29.250,35.96
29.265,31.76
29.281,27.04
29.296,22.03
29.312,17.17
29.328,12.84
29.343,9.25
29.359,6.42
29.375,4.19
29.390,2.3
29.406,0.51
29.421,-1.33
29.437,-3.38
29.453,-5.71
29.468,-8.35
29.484,-11.22
29.500,-14.15
29.515,-16.93
29.531,-19.47
29.546,-21.83
29.562,-24.16
29.578,-26.66
29.593,-29.43
29.609,-32.52
29.625,-35.91
29.640,-39.67
29.656,-43.9
29.671,-48.52
29.687,-53.01
29.703,-56.28
29.718,-56.84
29.734,-53.31
29.750,-45.1
29.765,-32.68
29.781,-17.58
29.796,-1.94
29.812,12.22
29.828,23.54
29.843,31.54
29.859,36.45
29.875,38.98
29.890,39.85
29.906,39.66
29.921,38.77
29.937,37.36
29.953,35.47
29.968,33.12
29.984,30.32
30.000,27.12
30.015,23.63
30.031,19.99
30.046,16.41
30.062,13.16
30.078,10.54
30.093,8.83
30.109,8.13
30.125,8.3
30.140,8.92
30.156,9.44
30.171,9.41
30.187,8.69
30.203,7.49
30.218,6.21
30.234,5.24
30.250,4.68
30.265,4.3
30.281,3.73
30.296,2.63
30.312,0.92
30.328,-1.21
30.343,-3.44
30.359,-5.48
30.375,-7.26
30.390,-8.98
30.406,-11.01
30.421,-13.62
30.437,-16.79
30.453,-19.91
30.468,-21.8
30.484,-20.97
30.500,-16.0
30.515,-6.12
30.531,8.38
30.546,26.15
30.562,45.17
30.578,63.26
30.593,78.72
30.609,90.67
30.625,99.0
30.640,104.06
30.656,106.34
30.671,106.22
30.687,103.89
30.703,99.44
30.718,92.91
30.734,84.39
30.750,73.95
30.765,61.61
30.781,47.42
30.796,31.55
30.812,14.43
30.828,-3.2
30.843,-20.38
30.859,-36.16
30.875,-49.78
30.890,-60.83
30.906,-69.31
30.921,-75.49
30.937,-79.76
30.953,-82.48
30.968,-83.94
30.984,-84.25
31.000,-83.49
31.015,-81.64
31.031,-78.71
31.046,-74.89
31.062,-70.5
31.078,-66.03
31.093,-61.92
31.109,-58.49
31.125,-55.78
31.140,-53.73
31.156,-52.21
31.171,-51.22
31.187,-50.73
31.203,-50.54
31.218,-50.09
31.234,-48.39
31.250,-44.39
31.265,-37.34
31.281,-27.26
31.296,-14.99
31.312,-1.97
31.328,10.34
31.343,20.95
31.359,29.54
31.375,36.32
31.390,41.62
31.406,45.66
31.421,48.32
31.437,49.36
31.453,48.62
31.468,46.19
31.484,42.45
31.500,37.85
31.515,32.79
31.531,27.47
31.546,21.97
31.562,16.38
31.578,10.84
31.593,5.61
31.609,1.01
31.625,-2.71
31.640,-5.44
31.656,-7.26
31.671,-8.45
31.687,-9.46
31.703,-10.73
31.718,-12.64
31.734,-15.31
31.750,-18.54
31.765,-21.85
31.781,-24.72
31.796,-26.79
31.812,-28.07
31.828,-29.02
31.843,-30.32
31.859,-32.73
31.875,-36.73
31.890,-42.43
31.906,-49.42
31.921,-56.71
31.937,-62.8
31.953,-65.95
31.968,-64.63
31.984,-57.94
32.000,-46.09
32.015,-30.35
32.031,-12.76
32.046,4.48
32.062,19.61
32.078,31.68
32.093,40.5
32.109,46.42
32.125,49.98
32.140,51.65
32.156,51.81
32.171,50.77
32.187,48.81
32.203,46.2
32.218,43.18
32.234,39.81
32.250,36.07
32.265,31.83
32.281,27.03
32.296,21.71
32.312,16.19
32.328,10.92
32.343,6.38
32.359,2.87
32.375,0.34
32.390,-1.59
32.406,-3.51
32.421,-6.05
32.437,-9.58
32.453,-14.03
32.468,-18.98
32.484,-23.84
32.500,-28.03
32.515,-31.32
32.531,-33.73
32.546,-35.59
32.562,-37.33
32.578,-39.4
32.593,-42.22
32.609,-46.05
32.625,-50.9
32.640,-56.33
32.656,-61.37
32.671,-64.56
32.687,-64.3
32.703,-59.41
32.718,-49.61
32.734,-35.74
32.750,-19.45
32.765,-2.76
32.781,12.7
32.796,25.87
32.812,36.38
32.828,44.29
32.843,49.79
32.859,53.07
32.875,54.29
32.890,53.77
32.906,51.91
32.921,49.26
32.937,46.25
32.953,43.1
32.968,39.78
32.984,36.03
33.000,31.61
33.015,26.42
33.031,20.66
33.046,14.75
33.062,9.29
33.078,4.84
33.093,1.69
33.109,-0.21
33.125,-1.31
33.140,-2.29
33.156,-3.85
33.171,-6.46
33.187,-10.31
33.203,-15.2
33.218,-20.62
33.234,-26.02
33.250,-30.87
33.265,-34.9
33.281,-38.14
33.296,-40.87
33.312,-43.56
33.328,-46.72
33.343,-50.65
33.359,-55.25
33.375,-59.82
33.390,-63.05
33.406,-63.34
33.421,-59.25
33.437,-50.09
33.453,-36.23
33.468,-19.14
33.484,-0.95
33.500,16.16
33.515,30.57
33.531,41.49
33.546,48.92
33.562,53.32
33.578,55.28
33.593,55.34
33.609,53.94
33.625,51.53
33.640,48.59
33.656,45.52
33.671,42.55
33.687,39.61
33.703,36.44
33.718,32.7
33.734,28.26
33.750,23.2
33.765,17.94
33.781,12.97
33.796,8.72
33.812,5.45
33.828,3.17
33.843,1.68
33.859,0.63
33.875,-0.37
33.890,-1.68
33.906,-3.51
33.921,-5.96
33.937,-8.92
33.953,-12.16
33.968,-15.38
33.984,-18.29
34.000,-20.8
34.015,-23.02
34.031,-25.28
34.046,-27.99
34.062,-31.54
34.078,-35.95
34.093,-40.74
34.109,-44.91
34.125,-47.05
34.140,-45.81
34.156,-40.28
34.171,-30.39
34.187,-16.89
34.203,-1.28
34.218,14.66
34.234,29.33
34.250,41.55
34.265,50.72
34.281,56.77
34.296,59.94
34.312,60.69
34.328,59.58
34.343,57.16
34.359,53.96
34.375,50.41
34.390,46.71
34.406,42.85
34.421,38.66
34.437,33.82
34.453,28.11
34.468,21.46
34.484,14.2
34.500,6.85
34.515,0.11
34.531,-5.45
34.546,-9.59
34.562,-12.56
34.578,-14.94
34.593,-17.47
34.609,-20.72
34.625,-24.84
34.640,-29.61
34.656,-34.53
34.671,-39.04
34.687,-42.77
34.703,-45.57
34.718,-47.62
34.734,-49.31
34.750,-51.22
34.765,-53.99
34.781,-58.11
34.796,-63.63
34.812,-69.86
34.828,-75.38
34.843,-78.3
34.859,-76.85
34.875,-70.02
34.890,-57.97
34.906,-42.03
34.921,-24.23
34.937,-6.71
34.953,8.88
34.968,21.61
34.984,31.24
35.000,37.94
35.015,42.06
35.031,44.02
35.046,44.26
35.062,43.3
35.078,41.71
35.093,40.01
35.109,38.55
35.125,37.42
35.140,36.49
35.156,35.35
35.171,33.67
35.187,31.22
35.203,28.09
35.218,24.61
35.234,21.26
35.250,18.41
35.265,16.17
35.281,14.35
35.296,12.51
35.312,10.15
35.328,6.92
35.343,2.73
35.359,-2.25
35.375,-7.71
35.390,-13.23
35.406,-18.49
35.421,-23.25
35.437,-27.37
35.453,-30.93
35.468,-34.19
35.484,-37.66
35.500,-41.87
35.515,-47.18
35.531,-53.36
35.546,-59.45
35.562,-63.81
35.578,-64.55
35.593,-60.24
35.609,-50.35
35.625,-35.62
35.640,-17.82
35.656,0.84
35.671,18.37
35.687,33.44
35.703,45.54
35.718,54.68
35.734,61.1
35.750,65.04
35.765,66.63
35.781,66.09
35.796,63.79
35.812,60.32
35.828,56.27
35.843,52.1
35.859,47.9
35.875,43.46
35.890,38.47
35.906,32.7
35.921,26.26
35.937,19.61
35.953,13.41
35.968,8.3
35.984,4.69
36.000,2.55
36.015,1.43
36.031,0.63
36.046,-0.57
36.062,-2.64
36.078,-5.72
36.093,-9.6
36.109,-13.88
36.125,-18.15
36.140,-22.12
36.156,-25.71
36.171,-29.03
36.187,-32.35
36.203,-36.04
36.218,-40.5
36.234,-46.07
36.250,-52.79
36.265,-60.04
36.281,-66.54
36.296,-70.39
36.312,-69.63
36.328,-62.97
36.343,-50.28
36.359,-32.81
36.375,-12.78
36.390,7.31
36.406,25.45
36.421,40.47
36.437,52.05
36.453,60.43
36.468,65.94
36.484,68.9
36.500,69.55
36.515,68.17
36.531,65.2
36.546,61.18
36.562,56.57
36.578,51.66
36.593,46.58
36.609,41.2
36.625,35.41
36.640,29.17
36.656,22.65
36.671,16.22
36.687,10.32
36.703,5.38
36.718,1.56
36.734,-1.15
36.750,-3.16
36.765,-4.99
36.781,-7.2
36.796,-10.17
36.812,-13.95
36.828,-18.28
36.843,-22.71
36.859,-26.76
36.875,-30.1
36.890,-32.7
36.906,-34.77
36.921,-36.77
36.937,-39.24
36.953,-42.66
36.968,-47.36
36.984,-53.22
37.000,-59.57
37.015,-65.07
37.031,-68.02
37.046,-66.71
37.062,-60.0
37.078,-47.89
37.093,-31.49
37.109,-12.76
37.125,6.06
37.140,23.16
37.156,37.38
37.171,48.33
37.187,56.09
37.203,60.98
37.218,63.33
37.234,63.51
37.250,61.9
37.265,58.94
37.281,55.11
37.296,50.76
37.312,46.06
37.328,41.03
37.343,35.59
37.359,29.7
37.375,23.45
37.390,17.1
37.406,11.09
37.421,5.89
37.437,1.98
37.453,-0.47
37.468,-1.61
37.484,-1.92
37.500,-2.18
37.515,-3.16
37.531,-5.4
37.546,-9.08
37.562,-13.89
37.578,-19.19
37.593,-24.26
37.609,-28.48
37.625,-31.64
37.640,-33.92
37.656,-35.86
37.671,-38.17
37.687,-41.54
37.703,-46.32
37.718,-52.31
37.734,-58.58
37.750,-63.62
37.765,-65.61
37.781,-63.0
37.796,-54.96
37.812,-41.78
37.828,-24.83
37.843,-6.17
37.859,12.0
37.875,27.98
37.890,40.75
37.906,50.02
37.921,55.97
37.937,59.03
37.953,59.69
37.968,58.49
37.984,55.96
38.000,52.62
38.015,48.82
38.031,44.67
38.046,40.09
38.062,34.88
38.078,28.94
38.093,22.41
38.109,15.72
38.125,9.51
38.140,4.37
38.156,0.65
38.171,-1.64
38.187,-2.88
38.203,-3.67
38.218,-4.7
38.234,-6.58
38.250,-9.54
38.265,-13.5
38.281,-18.02
38.296,-22.48
38.312,-26.33
38.328,-29.25
38.343,-31.3
38.359,-32.94
38.375,-34.86
38.390,-37.76
38.406,-42.07
38.421,-47.69
38.437,-53.87
38.453,-59.21
38.468,-61.93
38.484,-60.36
38.500,-53.47
38.515,-41.25
38.531,-24.86
38.546,-6.28
38.562,12.24
38.578,28.77
38.593,42.09
38.609,51.78
38.625,58.01
38.640,61.3
38.656,62.25
38.671,61.36
38.687,59.11
38.703,55.88
38.718,51.99
38.734,47.65
38.750,42.96
38.765,37.86
38.781,32.28
38.796,26.19
38.812,19.71
38.828,13.23
38.843,7.29
38.859,2.5
38.875,-0.74
38.890,-2.41
38.906,-2.91
38.921,-3.0
38.937,-3.47
38.953,-5.02
38.968,-7.89
38.984,-11.94
39.000,-16.61
39.015,-21.26
39.031,-25.35
39.046,-28.63
39.062,-31.27
39.078,-33.77
39.093,-36.86
39.109,-41.16
39.125,-46.98
39.140,-54.03
39.156,-61.35
39.171,-67.35
39.187,-70.24
39.203,-68.43
39.218,-61.05
39.234,-48.32
39.250,-31.44
39.265,-12.38
39.281,6.65
39.296,23.79
39.312,37.82
39.328,48.3
39.343,55.38
39.359,59.63
39.375,61.61
39.390,61.81
39.406,60.6
39.421,58.28
39.437,55.18
39.453,51.6
39.468,47.76
39.484,43.65
39.500,39.07
39.515,33.73
39.531,27.53
39.546,20.74
39.562,13.99
39.578,8.16
39.593,3.88
39.609,1.33
39.625,0.07
39.640,-0.72
39.656,-1.97
39.671,-4.32
39.687,-7.96
39.703,-12.59
39.718,-17.64
39.734,-22.54
39.750,-26.84
39.765,-30.36
39.781,-33.16
39.796,-35.51
39.812,-37.85
39.828,-40.75
39.843,-44.74
39.859,-50.05
39.875,-56.33
39.890,-62.42
39.906,-66.52
39.921,-66.68
39.937,-61.48
39.953,-50.61
39.968,-35.1
39.984,-16.91
40.000,1.68
40.015,18.75
40.031,33.19
40.046,44.6
40.062,53.1
40.078,58.91
40.093,62.25
40.109,63.35
40.125,62.54
40.140,60.32
40.156,57.23
40.171,53.65
40.187,49.77
40.203,45.53
40.218,40.78
40.234,35.42
40.250,29.61
40.265,23.67
40.281,18.1
40.296,13.37
40.312,9.84
40.328,7.58
40.343,6.39
40.359,5.78
40.375,5.09
40.390,3.69
40.406,1.15
40.421,-2.57
40.437,-7.14
40.453,-11.96
40.468,-16.43
40.484,-20.13
40.500,-23.01
40.515,-25.41
40.531,-27.91
40.546,-31.19
40.562,-35.79
40.578,-41.93
40.593,-49.32
40.609,-57.08
40.625,-63.74
40.640,-67.51
40.656,-66.76
40.671,-60.54
40.687,-48.99
40.703,-33.34
40.718,-15.63
40.734,1.94
40.750,17.6
40.765,30.34
40.781,39.93
40.796,46.65
40.812,50.95
40.828,53.23
40.843,53.76
40.859,52.82
40.875,50.61
40.890,47.43
40.906,43.52
40.921,39.05
40.937,34.07
40.953,28.62
40.968,22.83
40.984,16.94
41.000,11.35
41.015,6.45
41.031,2.54
41.046,-0.34
41.062,-2.32
41.078,-3.77
41.093,-5.08
41.109,-6.62
41.125,-8.58
41.140,-11.0
41.156,-13.75
41.171,-16.58
41.187,-19.25
41.203,-21.62
41.218,-23.66
41.234,-25.56
41.250,-27.69
41.265,-30.47
41.281,-34.34
41.296,-39.62
41.312,-46.33
41.328,-54.02
41.343,-61.69
41.359,-67.78
41.375,-70.66
41.390,-69.02
41.406,-62.42
41.421,-51.52
41.437,-37.86
41.453,-23.45
41.468,-10.02
41.484,1.25
41.500,9.97
41.515,16.31
41.531,20.7
41.546,23.6
41.562,25.38
41.578,26.31
41.593,26.62
41.609,26.49
41.625,26.03
41.640,25.33
41.656,24.42
41.671,23.31
41.687,22.11
41.703,21.0
41.718,20.22
41.734,19.99
41.750,20.46
41.765,21.56
41.781,23.12
41.796,24.78
41.812,26.13
41.828,26.76
41.843,26.33
41.859,24.63
41.875,21.61
41.890,17.38
41.906,12.19
41.921,6.43
41.937,0.54
41.953,-5.1
41.968,-10.2
41.984,-14.66
42.000,-18.51
42.015,-21.92
42.031,-25.12
42.046,-28.39
42.062,-31.89
42.078,-35.5
42.093,-38.64
42.109,-40.24
42.125,-39.0
42.140,-33.84
42.156,-24.34
42.171,-11.08
42.187,4.42
42.203,20.16
42.218,34.3
42.234,45.65
42.250,53.89
42.265,59.36
42.281,62.62
42.296,64.22
42.312,64.44
42.328,63.41
42.343,61.21
42.359,58.06
42.375,54.22
42.390,49.98
42.406,45.54
42.421,40.97
42.437,36.29
42.453,31.49
42.468,26.61
42.484,21.72
42.500,16.98
42.515,12.59
42.531,8.82
42.546,5.92
42.562,4.07
42.578,3.19
42.593,2.81
42.609,2.17
42.625,0.41
42.640,-3.02
42.656,-8.14
42.671,-14.29
42.687,-20.38
42.703,-25.37
42.718,-28.66
42.734,-30.42
42.750,-31.59
42.765,-33.44
42.781,-37.14
42.796,-43.24
42.812,-51.36
42.828,-60.31
42.843,-68.36
42.859,-73.69
42.875,-74.83
42.890,-71.11
42.906,-62.77
42.921,-50.91
42.937,-37.22
42.953,-23.23
42.968,-9.71
42.984,4.07
43.000,20.44
43.015,42.65
43.031,73.3
43.046,112.83
43.062,158.49
43.078,204.8
43.093,245.13
43.109,274.07
43.125,289.07
43.140,290.89
43.156,282.54
43.171,267.49
43.187,248.2
43.203,225.51
43.218,199.01
43.234,167.76
43.250,131.05
43.265,88.79
43.281,41.67
43.296,-8.77
43.312,-60.15
43.328,-109.44
43.343,-153.73
43.359,-191.01
43.375,-220.71
43.390,-243.51
43.406,-260.49
43.421,-272.19
43.437,-278.06
43.453,-276.74
43.468,-266.79
43.484,-247.64
43.500,-219.97
43.515,-185.59
43.531,-147.08
43.546,-107.26
43.562,-68.86
43.578,-33.82
43.593,-3.25
43.609,23.25
43.625,47.04
43.640,69.79
43.656,92.48
43.671,114.73
43.687,135.23
43.703,152.74
43.718,167.07
43.734,178.82
43.750,188.72
43.765,197.29
43.781,204.98
43.796,213.16
43.812,224.26
43.828,240.68
43.843,262.63
43.859,286.17
43.875,303.47
43.890,305.77
43.906,287.98
43.921,252.06
43.937,206.94
43.953,164.49
43.968,133.66
43.984,116.4
44.000,107.33
44.015,97.42
44.031,79.03
44.046,49.23
44.062,9.41
44.078,-37.06
44.093,-88.09
44.109,-143.4
44.125,-203.18
44.140,-265.17
44.156,-323.27
44.171,-368.75
44.187,-393.87
44.203,-395.7
44.218,-377.39
44.234,-346.56
44.250,-311.61
44.265,-278.16
44.281,-247.68
44.296,-218.51
44.312,-188.32
44.328,-156.19
44.343,-123.09
44.359,-90.85
44.375,-60.67
44.390,-32.29
44.406,-4.18
44.421,25.28
44.437,56.64
44.453,88.83
44.468,119.19
44.484,144.33
44.500,161.14
44.515,167.64
44.531,163.52
44.546,150.22
44.562,130.64
44.578,108.43
44.593,87.22
44.609,69.83
44.625,57.79
44.640,51.19
44.656,48.9
44.671,49.05
44.687,49.79
44.703,49.8
44.718,48.42
44.734,45.64
44.750,41.62
44.765,36.33
44.781,29.25
44.796,19.66
44.812,7.05
44.828,-8.25
44.843,-24.84
44.859,-40.5
44.875,-52.86
44.890,-60.16
44.906,-61.71
44.921,-58.18
44.937,-51.39
44.953,-44.13
44.968,-39.67
44.984,-41.0
45.000,-50.01
45.015,-66.77
45.031,-89.4
45.046,-114.56
45.062,-138.47
45.078,-157.94
45.093,-170.87
45.109,-176.29
45.125,-173.9
45.140,-163.89
45.156,-146.98
45.171,-124.69
45.187,-99.46
45.203,-74.2
45.218,-51.48
45.234,-32.66
45.250,-17.61
45.265,-5.14
45.281,6.15
45.296,17.14
45.312,27.77
45.328,37.17
45.343,44.21
45.359,48.05
45.375,48.55
45.390,46.3
45.406,42.34
45.421,37.72
45.437,33.09
45.453,28.6
45.468,24.03
45.484,19.02
45.500,13.5
45.515,7.74
45.531,2.25
45.546,-2.5
45.562,-6.3
45.578,-9.36
45.593,-12.24
45.609,-15.52
45.625,-19.58
45.640,-24.33
45.656,-29.37
45.671,-34.14
45.687,-38.21
45.703,-41.56
45.718,-44.56
45.734,-47.87
45.750,-52.22
45.765,-58.12
45.781,-65.71
45.796,-74.51
45.812,-83.37
45.828,-90.48
45.843,-93.78
45.859,-91.62
45.875,-83.34
45.890,-69.64
45.906,-52.47
45.921,-34.29
45.937,-17.26
45.953,-2.56
45.968,9.67
45.984,19.91
46.000,28.58
46.015,35.61
46.031,40.44
46.046,42.43
46.062,41.39
46.078,37.84
46.093,32.88
46.109,27.64
46.125,22.82
46.140,18.26
46.156,13.07
46.171,6.11
46.187,-3.37
46.203,-15.18
46.218,-28.15
46.234,-40.43
46.250,-50.37
46.265,-57.34
46.281,-62.16
46.296,-66.69
46.312,-72.84
46.328,-81.56
46.343,-92.36
46.359,-103.85
46.375,-114.65
46.390,-124.07
46.406,-132.05
46.421,-138.56
46.437,-143.23
46.453,-145.63
46.468,-146.14
46.484,-146.39
46.500,-148.62
46.515,-154.01
46.531,-161.09
46.546,-165.6
46.562,-162.07
46.578,-146.62
46.593,-119.2
46.609,-83.95
46.625,-47.35
46.640,-15.46
46.656,8.4
46.671,24.25
46.687,34.62
46.703,42.89
46.718,51.65
46.734,61.78
46.750,72.37
46.765,81.22
46.781,85.97
46.796,85.38
46.812,80.02
46.828,72.23
46.843,65.06
46.859,60.82
46.875,60.07
46.890,61.69
46.906,63.7
46.921,64.54
46.937,63.67
46.953,61.41
46.968,58.36
46.984,54.72
47.000,50.19
47.015,44.45
47.031,37.58
47.046,30.23
47.062,23.34
47.078,17.7
47.093,13.48
47.109,10.34
47.125,7.65
47.140,4.8
47.156,1.46
47.171,-2.62
47.187,-7.69
47.203,-14.22
47.218,-22.62
47.234,-33.05
47.250,-44.91
47.265,-56.72
47.281,-66.39
47.296,-71.66
47.312,-70.89
47.328,-63.52
47.343,-50.23
47.359,-32.54
47.375,-12.32
47.390,8.73
47.406,29.34
47.421,48.57
47.437,65.81
47.453,80.62
47.468,92.8
47.484,102.43
47.500,109.73
47.515,114.92
47.531,118.04
47.546,119.02
47.562,117.68
47.578,114.13
47.593,108.74
47.609,102.16
47.625,95.12
47.640,88.1
47.656,81.42
47.671,75.22
47.687,69.67
47.703,64.87
47.718,60.89
47.734,57.48
47.750,54.15
47.765,50.37
47.781,45.84
47.796,40.62
47.812,35.05
47.828,29.4
47.843,23.5
47.859,16.77
47.875,8.57
47.890,-1.37
47.906,-12.57
47.921,-24.04
47.937,-34.84
47.953,-44.54
47.968,-53.39
47.984,-61.88
48.000,-69.98
48.015,-76.71
48.031,-80.24
48.046,-78.61
48.062,-70.67
48.078,-56.62
48.093,-38.02
48.109,-17.12
48.125,3.89
48.140,23.55
48.156,41.06
48.171,56.15
48.187,68.63
48.203,78.25
48.218,84.81
48.234,88.43
48.250,89.69
48.265,89.56
48.281,89.08
48.296,88.86
48.312,88.87
48.328,88.51
48.343,87.03
48.359,84.02
48.375,79.74
48.390,75.05
48.406,71.04
48.421,68.48
48.437,67.34
48.453,66.83
48.468,65.63
48.484,62.57
48.500,57.13
48.515,49.81
48.531,42.0
48.546,35.38
48.562,31.24
48.578,29.95
48.593,30.98
48.609,33.07
48.625,34.8
48.640,35.0
48.656,32.84
48.671,27.8
48.687,19.72
48.703,9.32
48.718,-1.55
48.734,-10.24
48.750,-14.52
48.765,-14.16
48.781,-11.65
48.796,-11.47
48.812,-17.77
48.828,-31.9
48.843,-51.21
48.859,-70.08
48.875,-82.62
48.890,-85.58
48.906,-79.5
48.921,-67.92
48.937,-54.84
48.953,-42.45
48.968,-30.43
48.984,-16.97
49.000,-0.77
49.015,17.53
49.031,35.32
49.046,49.09
49.062,55.85
49.078,54.07
49.093,43.9
49.109,26.53
49.125,3.63
49.140,-22.83
49.156,-50.24
49.171,-75.16
49.187,-93.72
49.203,-102.74
49.218,-100.98
49.234,-89.78
49.250,-72.64
49.265,-53.82
49.281,-36.7
49.296,-22.92
49.312,-12.3
49.328,-3.97
49.343,2.8
49.359,7.88
49.375,10.57
49.390,10.09
49.406,6.16
49.421,-0.94
49.437,-10.73
49.453,-22.77
49.468,-36.75
49.484,-52.12
49.500,-67.68
49.515,-81.48
49.531,-91.11
49.546,-94.38
49.562,-90.13
49.578,-78.77
49.593,-62.12
49.609,-42.77
49.625,-23.17
49.640,-4.83
49.656,11.82
49.671,27.2
49.687,41.84
49.703,55.73
49.718,68.03
49.734,77.33
49.750,82.22
49.765,82.02
49.781,77.37
49.796,69.91
49.812,61.86
49.828,55.16
49.843,50.78
49.859,48.55
49.875,47.58
49.890,46.86
49.906,45.7
49.921,43.74
49.937,40.73
49.953,36.33
49.968,30.19
49.984,22.16
50.000,12.53
50.015,1.86
50.031,-9.31
50.046,-20.62
50.062,-32.0
50.078,-43.49
50.093,-54.84
50.109,-65.48
50.125,-74.68
50.140,-81.87
50.156,-87.0
50.171,-90.41
50.187,-92.46
50.203,-93.06
50.218,-91.58
50.234,-86.97
50.250,-78.34
50.265,-65.61
50.281,-49.34
50.296,-30.88
50.312,-11.79
50.328,6.7
50.343,23.84
50.359,39.35
50.375,53.25
50.390,65.47
50.406,75.75
50.421,83.72
50.437,89.07
50.453,91.72
50.468,91.9
50.484,89.95
50.500,86.2
50.515,80.98
50.531,74.44
50.546,66.77
50.562,58.22
50.578,49.21
50.593,40.24
50.609,31.87
50.625,24.5
50.640,18.24
50.656,12.86
50.671,7.83
50.687,2.51
50.703,-3.55
50.718,-10.48
50.734,-18.03
50.750,-25.76
50.765,-33.21
50.781,-40.12
50.796,-46.57
50.812,-53.05
50.828,-60.27
50.843,-68.85
50.859,-79.04
50.875,-90.26
50.890,-101.07
50.906,-109.37
50.921,-112.93
50.937,-110.06
50.953,-100.21
50.968,-84.13
50.984,-63.71
51.000,-41.51
51.015,-20.07
51.031,-1.39
51.046,13.45
51.062,24.33
51.078,32.0
51.093,37.63
51.109,42.37
51.125,46.92
51.140,51.27
51.156,54.81
51.171,56.63
51.187,55.91
51.203,52.24
51.218,45.67
51.234,36.72
51.250,26.22
51.265,15.14
51.281,4.41
51.296,-5.2
51.312,-13.16
51.328,-19.23
51.343,-23.46
51.359,-26.14
51.375,-27.76
51.390,-28.88
51.406,-30.05
51.421,-31.72
51.437,-34.02
51.453,-36.87
51.468,-39.97
51.484,-43.0
51.500,-45.83
51.515,-48.71
51.531,-52.2
51.546,-56.83
51.562,-62.74
51.578,-69.28
51.593,-74.98
51.609,-77.85
51.625,-75.99
51.640,-68.23
51.656,-54.59
51.671,-36.41
51.687,-15.82
51.703,4.83
51.718,23.73
51.734,39.91
51.750,53.23
51.765,64.06
51.781,72.84
51.796,79.82
51.812,84.98
51.828,88.19
51.843,89.4
51.859,88.77
51.875,86.52
51.890,82.86
51.906,77.88
51.921,71.56
51.937,64.05
51.953,55.73
51.968,47.34
51.984,39.76
52.000,33.65
52.015,29.23
52.031,26.09
52.046,23.44
52.062,20.43
52.078,16.46
52.093,11.38
52.109,5.4
52.125,-1.07
52.140,-7.61
52.156,-13.9
52.171,-19.72
52.187,-25.01
52.203,-29.92
52.218,-34.86
52.234,-40.48
52.250,-47.47
52.265,-56.2
52.281,-66.34
52.296,-76.64
52.312,-85.17
52.328,-89.73
52.343,-88.51
52.359,-80.71
52.375,-66.77
52.390,-48.25
52.406,-27.35
52.421,-6.26
52.437,13.32
52.453,30.34
52.468,44.38
52.484,55.4
52.500,63.49
52.515,68.86
52.531,71.73
52.546,72.51
52.562,71.64
52.578,69.51
52.593,66.26
52.609,61.75
52.625,55.66
52.640,47.78
52.656,38.32
52.671,27.94
52.687,17.71
52.703,8.69
52.718,1.61
52.734,-3.41
52.750,-6.85
52.765,-9.62
52.781,-12.63
52.796,-16.46
52.812,-21.16
52.828,-26.27
52.843,-31.04
52.859,-34.83
52.875,-37.27
52.890,-38.47
52.906,-38.89
52.921,-39.17
52.937,-39.89
52.953,-41.53
52.968,-44.42
52.984,-48.67
53.000,-54.05
53.015,-59.79
53.031,-64.57
53.046,-66.64
53.062,-64.41
53.078,-56.91
53.093,-44.29
53.109,-27.74
53.125,-9.12
53.140,9.64
53.156,27.12
53.171,42.52
53.187,55.63
53.203,66.53
53.218,75.34
53.234,82.11
53.250,86.88
53.265,89.75
53.281,90.87
53.296,90.41
53.312,88.47
53.328,85.07
53.343,80.22
53.359,74.02
53.375,66.73
53.390,58.84
53.406,50.99
53.421,43.77
53.437,37.64
53.453,32.75
53.468,28.92
53.484,25.71
53.500,22.56
53.515,18.97
53.531,14.57
53.546,9.22
53.562,3.04
53.578,-3.7
53.593,-10.56
53.609,-17.15
53.625,-23.21
53.640,-28.73
53.656,-33.96
53.671,-39.43
53.687,-45.72
53.703,-53.25
53.718,-61.96
53.734,-71.09
53.750,-79.15
53.765,-84.24
53.781,-84.53
53.796,-78.92
53.812,-67.4
53.828,-51.05
53.843,-31.76
53.859,-11.6
53.875,7.71
53.890,25.04
53.906,39.81
53.921,51.86
53.937,61.18
53.953,67.87
53.968,72.07
53.984,74.01
54.000,73.98
54.015,72.27
54.031,69.14
54.046,64.8
54.062,59.45
54.078,53.29
54.093,46.58
54.109,39.69
54.125,33.04
54.140,27.08
54.156,22.18
54.171,18.48
54.187,15.85
54.203,13.87
54.218,11.87
54.234,9.23
54.250,5.5
54.265,0.56
54.281,-5.36
54.296,-11.77
54.312,-18.16
54.328,-24.11
54.343,-29.43
54.359,-34.22
54.375,-38.85
54.390,-43.83
54.406,-49.74
54.421,-56.97
54.437,-65.5
54.453,-74.7
54.468,-83.24
54.484,-89.29
54.500,-90.99
54.515,-87.05
54.531,-77.23
54.546,-62.45
54.562,-44.44
54.578,-25.2
54.593,-6.44
54.609,10.8
54.625,26.0
54.640,38.96
54.656,49.49
54.671,57.34
54.687,62.24
54.703,64.11
54.718,63.24
54.734,60.31
54.750,56.23
54.765,51.82
54.781,47.51
54.796,43.14
54.812,38.15
54.828,31.97
54.843,24.6
54.859,16.91
54.875,10.53
54.890,7.22
54.906,7.94
54.921,12.25
54.937,18.58
54.953,24.83
54.968,29.31
54.984,31.19
55.000,30.13
55.015,25.94
55.031,18.52
55.046,8.45
55.062,-2.46
55.078,-11.31
55.093,-15.31
55.109,-13.4
55.125,-7.23
55.140,-0.5
55.156,3.01
55.171,1.65
55.187,-3.09
55.203,-7.4
55.218,-7.28
55.234,-0.51
55.250,12.7
55.265,30.42
55.281,50.37
55.296,70.81
55.312,90.45
55.328,107.82
55.343,120.89
55.359,127.32
55.375,125.46
55.390,115.33
55.406,99.03
55.421,80.21
55.437,62.88
55.453,50.0
55.468,42.4
55.484,38.75
55.500,36.19
55.515,31.81
55.531,23.82
55.546,12.25
55.562,-1.23
55.578,-14.17
55.593,-24.27
55.609,-30.11
55.625,-31.29
55.640,-28.34
55.656,-22.22
55.671,-14.24
55.687,-5.96
55.703,1.04
55.718,5.25
55.734,5.69
55.750,2.15
55.765,-4.78
55.781,-13.97
55.796,-24.25
55.812,-34.82
55.828,-45.52
55.843,-56.51
55.859,-67.94
55.875,-79.66
55.890,-91.17
55.906,-101.73
55.921,-110.68
55.937,-117.41
55.953,-121.16
55.968,-121.01
55.984,-115.81
56.000,-104.78
56.015,-87.89
56.031,-66.26
56.046,-41.92
56.062,-17.27
56.078,5.64
56.093,25.57
56.109,42.09
56.125,55.31
56.140,65.4
56.156,72.51
56.171,76.66
56.187,77.91
56.203,76.41
56.218,72.33
56.234,65.9
56.250,57.36
56.265,47.09
56.281,35.53
56.296,23.2
56.312,10.64
56.328,-1.73
56.343,-13.49
56.359,-24.21
56.375,-33.34
56.390,-40.38
56.406,-45.0
56.421,-47.33
56.437,-47.95
56.453,-47.71
56.468,-47.44
56.484,-47.58
56.500,-48.2
56.515,-49.03
56.531,-49.81
56.546,-50.44
56.562,-51.08
56.578,-52.02
56.593,-53.66
56.609,-56.39
56.625,-60.53
56.640,-66.31
56.656,-73.63
56.671,-81.89
56.687,-89.84
56.703,-95.68
56.718,-97.41
56.734,-93.49
56.750,-83.35
56.765,-67.61
56.781,-47.92
56.796,-26.45
56.812,-5.24
56.828,14.18
56.843,31.06
56.859,45.13
56.875,56.48
56.890,65.21
56.906,71.41
56.921,75.05
56.937,76.24
56.953,75.17
56.968,72.14
56.984,67.59
57.000,61.94
57.015,55.53
57.031,48.62
57.046,41.42
57.062,34.02
57.078,26.67
57.093,19.67
57.109,13.37
57.125,8.05
57.140,3.83
57.156,0.45
57.171,-2.56
57.187,-5.88
57.203,-10.12
57.218,-15.61
57.234,-22.27
57.250,-29.72
57.265,-37.43
57.281,-44.98
57.296,-52.23
57.312,-59.28
57.328,-66.39
57.343,-73.8
57.359,-81.66
57.375,-90.03
57.390,-98.92
57.406,-108.07
57.421,-116.77
57.437,-123.68
57.453,-126.84
57.468,-124.29
57.484,-114.63
57.500,-97.7
57.515,-74.75
57.531,-48.13
57.546,-20.58
57.562,5.56
57.578,28.76
57.593,48.43
57.609,64.53
57.625,77.25
57.640,86.75
57.656,93.11
57.671,96.37
57.687,96.67
57.703,94.28
57.718,89.61
57.734,83.18
57.750,75.49
57.765,67.04
57.781,58.36
57.796,50.0
57.812,42.54
57.828,36.52
57.843,32.31
57.859,29.94
57.875,29.04
57.890,28.88
57.906,28.47
57.921,26.92
57.937,23.59
57.953,18.29
57.968,11.19
57.984,2.78
58.000,-6.42
58.015,-15.93
58.031,-25.46
58.046,-34.9
58.062,-44.31
58.078,-53.82
58.093,-63.61
58.109,-73.87
58.125,-84.74
58.140,-96.32
58.156,-108.41
58.171,-120.31
58.187,-130.74
58.203,-137.87
58.218,-139.85
58.234,-135.3
58.250,-123.92
58.265,-106.64
58.281,-85.34
58.296,-62.31
58.312,-39.56
58.328,-18.48
58.343,0.34
58.359,16.74
58.375,30.78
58.390,42.49
58.406,51.9
58.421,59.12
58.437,64.33
58.453,67.81
58.468,69.75
58.484,70.22
58.500,69.15
58.515,66.54
58.531,62.51
58.546,57.46
58.562,51.98
58.578,46.64
58.593,41.85
58.609,37.7
58.625,34.03
58.640,30.54
58.656,27.03
58.671,23.51
58.687,20.12
58.703,17.09
58.718,14.56
58.734,12.49
58.750,10.68
58.765,8.91
58.781,7.05
58.796,5.09
58.812,3.11
58.828,1.06
58.843,-1.29
58.859,-4.3
58.875,-8.41
58.890,-13.94
58.906,-21.02
58.921,-29.56
58.937,-39.25
58.953,-49.6
58.968,-59.75
58.984,-68.49
59.000,-74.33
59.015,-75.8
59.031,-71.96
59.046,-62.71
59.062,-48.95
59.078,-32.28
59.093,-14.55
59.109,2.7
59.125,18.5
59.140,32.54
59.156,44.9
59.171,55.85
59.187,65.52
59.203,73.89
59.218,80.79
59.234,86.08
59.250,89.73
59.265,91.85
59.281,92.7
59.296,92.59
59.312,91.81
59.328,90.57
59.343,89.0
59.359,87.19
59.375,85.18
59.390,82.96
59.406,80.46
59.421,77.57
59.437,74.17
59.453,70.18
59.468,65.61
59.484,60.43
59.500,54.55
59.515,47.64
59.531,39.24
59.546,28.93
59.562,16.62
59.578,2.75
59.593,-11.67
59.609,-25.36
59.625,-37.24
59.640,-46.84
59.656,-54.43
59.671,-60.87
59.687,-67.18
59.703,-74.11
59.718,-81.79
59.734,-89.73
59.750,-96.95
59.765,-102.37
59.781,-105.12
59.796,-104.78
59.812,-101.38
59.828,-95.36
59.843,-87.32
59.859,-77.87
59.875,-67.51
59.890,-56.58
59.906,-45.39
59.921,-34.34
59.937,-24.17
59.953,-15.92
59.968,-10.89
59.984,-10.32
