timestamp,value
00.000,-0.21
00.015,1.91
00.031,3.98
00.046,5.88
00.062,7.43
00.078,8.56
00.093,9.26
00.109,9.72
00.125,10.17
00.140,10.79
00.156,11.63
00.171,12.5
00.187,13.18
00.203,13.52
00.218,13.57
00.234,13.51
00.250,13.56
00.265,13.8
00.281,14.13
00.296,14.29
00.312,14.05
00.328,13.29
00.343,12.07
00.359,10.56
00.375,8.92
00.390,7.3
00.406,5.74
00.421,4.22
00.437,2.72
00.453,1.16
00.468,-0.51
00.484,-2.32
00.500,-4.23
00.515,-6.19
00.531,-8.13
00.546,-10.05
00.562,-12.02
00.578,-14.08
00.593,-16.18
00.609,-18.12
00.625,-19.6
00.640,-20.35
00.656,-20.27
00.671,-19.45
00.687,-18.16
00.703,-16.65
00.718,-15.1
00.734,-13.48
00.750,-11.73
00.765,-9.8
00.781,-7.72
00.796,-5.64
00.812,-3.69
00.828,-1.96
00.843,-0.42
00.859,1.01
00.875,2.44
00.890,3.94
00.906,5.46
00.921,6.86
00.937,8.01
00.953,8.81
00.968,9.26
00.984,9.51
01.000,9.74
01.015,10.09
01.031,10.6
01.046,11.19
01.062,11.71
01.078,12.01
01.093,12.02
01.109,11.81
01.125,11.48
01.140,11.14
01.156,10.77
01.171,10.36
01.187,9.8
01.203,9.02
01.218,8.01
01.234,6.8
01.250,5.44
01.265,3.94
01.281,2.22
01.296,0.22
01.312,-2.05
01.328,-4.52
01.343,-7.08
01.359,-9.59
01.375,-11.95
01.390,-14.14
01.406,-16.16
01.421,-17.95
01.437,-19.42
01.453,-20.47
01.468,-21.07
01.484,-21.31
01.500,-21.3
01.515,-21.17
01.531,-20.87
01.546,-20.23
01.562,-19.02
01.578,-17.07
01.593,-14.37
01.609,-11.13
01.625,-7.67
01.640,-4.24
01.656,-1.02
01.671,1.99
01.687,4.8
01.703,7.41
01.718,9.71
01.734,11.57
01.750,12.86
01.765,13.59
01.781,13.85
01.796,13.86
01.812,13.82
01.828,13.84
01.843,13.96
01.859,14.17
01.875,14.45
01.890,14.79
01.906,15.18
01.921,15.56
01.937,15.84
01.953,15.89
01.968,15.62
01.984,14.98
02.000,14.07
02.015,12.99
02.031,11.87
02.046,10.74
02.062,9.58
02.078,8.29
02.093,6.76
02.109,4.97
02.125,2.98
02.140,0.97
02.156,-0.9
02.171,-2.54
02.187,-4.0
02.203,-5.4
02.218,-6.94
02.234,-8.74
02.250,-10.84
02.265,-13.11
02.281,-15.36
02.296,-17.35
02.312,-18.89
02.328,-19.82
02.343,-20.1
02.359,-19.78
02.375,-18.94
02.390,-17.75
02.406,-16.32
02.421,-14.75
02.437,-13.09
02.453,-11.3
02.468,-9.3
02.484,-7.06
02.500,-4.57
02.515,-1.86
02.531,0.95
02.546,3.69
02.562,6.19
02.578,8.27
02.593,9.76
02.609,10.62
02.625,10.9
02.640,10.8
02.656,10.63
02.671,10.64
02.687,10.97
02.703,11.59
02.718,12.34
02.734,12.95
02.750,13.26
02.765,13.19
02.781,12.79
02.796,12.21
02.812,11.59
02.828,11.0
02.843,10.44
02.859,9.87
02.875,9.26
02.890,8.58
02.906,7.82
02.921,6.92
02.937,5.8
02.953,4.45
02.968,2.86
02.984,1.12
03.000,-0.62
03.015,-2.29
03.031,-3.86
03.046,-5.43
03.062,-7.14
03.078,-9.12
03.093,-11.32
03.109,-13.62
03.125,-15.83
03.140,-17.74
03.156,-19.26
03.171,-20.35
03.187,-21.01
03.203,-21.27
03.218,-21.06
03.234,-20.32
03.250,-19.0
03.265,-17.11
03.281,-14.74
03.296,-12.04
03.312,-9.18
03.328,-6.31
03.343,-3.6
03.359,-1.15
03.375,0.96
03.390,2.67
03.406,4.03
03.421,5.14
03.437,6.1
03.453,6.93
03.468,7.65
03.484,8.17
03.500,8.47
03.515,8.61
03.531,8.68
03.546,8.79
03.562,9.02
03.578,9.31
03.593,9.57
03.609,9.69
03.625,9.56
03.640,9.16
03.656,8.58
03.671,7.89
03.687,7.22
03.703,6.62
03.718,6.0
03.734,5.31
03.750,4.49
03.765,3.53
03.781,2.48
03.796,1.38
03.812,0.17
03.828,-1.27
03.843,-3.09
03.859,-5.37
03.875,-8.03
03.890,-10.88
03.906,-13.67
03.921,-16.21
03.937,-18.32
03.953,-19.97
03.968,-21.05
03.984,-21.53
04.000,-21.45
04.015,-20.9
04.031,-20.02
04.046,-18.92
04.062,-17.59
04.078,-15.89
04.093,-13.71
04.109,-11.0
04.125,-7.93
04.140,-4.82
04.156,-2.02
04.171,0.28
04.187,2.04
04.203,3.43
04.218,4.68
04.234,5.85
04.250,6.98
04.265,8.06
04.281,8.99
04.296,9.75
04.312,10.34
04.328,10.81
04.343,11.23
04.359,11.74
04.375,12.39
04.390,13.22
04.406,14.17
04.421,15.08
04.437,15.82
04.453,16.24
04.468,16.33
04.484,16.13
04.500,15.7
04.515,14.99
04.531,13.97
04.546,12.6
04.562,10.89
04.578,8.95
04.593,6.96
04.609,5.01
04.625,3.12
04.640,1.25
04.656,-0.67
04.671,-2.62
04.687,-4.53
04.703,-6.34
04.718,-8.04
04.734,-9.75
04.750,-11.64
04.765,-13.85
04.781,-16.29
04.796,-18.74
04.812,-20.81
04.828,-22.15
04.843,-22.7
04.859,-22.49
04.875,-21.72
04.890,-20.65
04.906,-19.38
04.921,-17.9
04.937,-16.18
04.953,-14.19
04.968,-11.97
04.984,-9.58
05.000,-7.06
05.015,-4.44
05.031,-1.78
05.046,0.87
05.062,3.44
05.078,5.77
05.093,7.76
05.109,9.3
05.125,10.38
05.140,11.06
05.156,11.44
05.171,11.66
05.187,11.94
05.203,12.48
05.218,13.32
05.234,14.4
05.250,15.49
05.265,16.3
05.281,16.61
05.296,16.28
05.312,15.4
05.328,14.21
05.343,12.98
05.359,11.98
05.375,11.35
05.390,11.13
05.406,11.21
05.421,11.43
05.437,11.52
05.453,11.2
05.468,10.23
05.484,8.51
05.500,6.09
05.515,3.23
05.531,0.21
05.546,-2.74
05.562,-5.44
05.578,-7.84
05.593,-10.02
05.609,-11.99
05.625,-13.75
05.640,-15.17
05.656,-16.12
05.671,-16.46
05.687,-16.23
05.703,-15.51
05.718,-14.51
05.734,-13.43
05.750,-12.36
05.765,-11.3
05.781,-10.15
05.796,-8.76
05.812,-7.09
05.828,-5.2
05.843,-3.27
05.859,-1.47
05.875,0.11
05.890,1.49
05.906,2.83
05.921,4.23
05.937,5.74
05.953,7.28
05.968,8.72
05.984,9.96
06.000,10.91
06.015,11.58
06.031,12.03
06.046,12.29
06.062,12.43
06.078,12.49
06.093,12.55
06.109,12.62
06.125,12.74
06.140,12.82
06.156,12.74
06.171,12.4
06.187,11.72
06.203,10.76
06.218,9.6
06.234,8.38
06.250,7.22
06.265,6.19
06.281,5.33
06.296,4.59
06.312,3.89
06.328,3.1
06.343,2.17
06.359,1.03
06.375,-0.34
06.390,-1.96
06.406,-3.85
06.421,-6.02
06.437,-8.41
06.453,-10.98
06.468,-13.6
06.484,-16.06
06.500,-18.1
06.515,-19.5
06.531,-20.1
06.546,-19.91
06.562,-19.08
06.578,-17.81
06.593,-16.26
06.609,-14.51
06.625,-12.52
06.640,-10.23
06.656,-7.66
06.671,-4.95
06.687,-2.34
06.703,-0.02
06.718,1.91
06.734,3.49
06.750,4.74
06.765,5.73
06.781,6.43
06.796,6.73
06.812,6.64
06.828,6.19
06.843,5.59
06.859,5.06
06.875,4.84
06.890,5.0
06.906,5.59
06.921,6.48
06.937,7.56
06.953,8.69
06.968,9.75
06.984,10.63
07.000,11.26
07.015,11.56
07.031,11.46
07.046,10.99
07.062,10.19
07.078,9.12
07.093,7.85
07.109,6.37
07.125,4.68
07.140,2.76
07.156,0.64
07.171,-1.63
07.187,-3.94
07.203,-6.21
07.218,-8.4
07.234,-10.49
07.250,-12.54
07.265,-14.59
07.281,-16.57
07.296,-18.4
07.312,-19.89
07.328,-20.79
07.343,-20.95
07.359,-20.29
07.375,-18.88
07.390,-16.94
07.406,-14.75
07.421,-12.55
07.437,-10.46
07.453,-8.49
07.468,-6.53
07.484,-4.53
07.500,-2.47
07.515,-0.45
07.531,1.36
07.546,2.82
07.562,3.84
07.578,4.47
07.593,4.86
07.609,5.17
07.625,5.57
07.640,6.13
07.656,6.87
07.671,7.71
07.687,8.62
07.703,9.59
07.718,10.63
07.734,11.75
07.750,12.85
07.765,13.81
07.781,14.47
07.796,14.74
07.812,14.61
07.828,14.19
07.843,13.6
07.859,12.97
07.875,12.36
07.890,11.77
07.906,11.06
07.921,10.13
07.937,8.89
07.953,7.34
07.968,5.57
07.984,3.64
08.000,1.65
08.015,-0.42
08.031,-2.66
08.046,-5.24
08.062,-8.21
08.078,-11.46
08.093,-14.72
08.109,-17.58
08.125,-19.76
08.140,-21.07
08.156,-21.56
08.171,-21.39
08.187,-20.82
08.203,-20.01
08.218,-19.08
08.234,-18.0
08.250,-16.73
08.265,-15.24
08.281,-13.45
08.296,-11.39
08.312,-9.07
08.328,-6.54
08.343,-3.92
08.359,-1.28
08.375,1.24
08.390,3.52
08.406,5.46
08.421,7.05
08.437,8.33
08.453,9.38
08.468,10.33
08.484,11.25
08.500,12.2
08.515,13.16
08.531,14.08
08.546,14.9
08.562,15.58
08.578,16.12
08.593,16.46
08.609,16.64
08.625,16.59
08.640,16.31
08.656,15.8
08.671,15.08
08.687,14.18
08.703,13.11
08.718,11.88
08.734,10.52
08.750,9.1
08.765,7.72
08.781,6.49
08.796,5.48
08.812,4.67
08.828,3.97
08.843,3.14
08.859,2.04
08.875,0.51
08.890,-1.45
08.906,-3.83
08.921,-6.54
08.937,-9.45
08.953,-12.43
08.968,-15.28
08.984,-17.8
09.000,-19.72
09.015,-20.9
09.031,-21.32
09.046,-21.15
09.062,-20.66
09.078,-20.03
09.093,-19.36
09.109,-18.51
09.125,-17.25
09.140,-15.42
09.156,-13.01
09.171,-10.18
09.187,-7.21
09.203,-4.35
09.218,-1.73
09.234,0.65
09.250,2.83
09.265,4.85
09.281,6.67
09.296,8.19
09.312,9.29
09.328,9.98
09.343,10.37
09.359,10.64
09.375,11.0
09.390,11.58
09.406,12.33
09.421,13.09
09.437,13.64
09.453,13.8
09.468,13.49
09.484,12.77
09.500,11.79
09.515,10.65
09.531,9.46
09.546,8.23
09.562,6.91
09.578,5.46
09.593,3.9
09.609,2.27
09.625,0.64
09.640,-0.92
09.656,-2.42
09.671,-3.88
09.687,-5.31
09.703,-6.79
09.718,-8.3
09.734,-9.89
09.750,-11.6
09.765,-13.46
09.781,-15.41
09.796,-17.32
09.812,-18.94
09.828,-20.02
09.843,-20.41
09.859,-20.05
09.875,-19.08
09.890,-17.68
09.906,-16.02
09.921,-14.23
09.937,-12.38
09.953,-10.49
09.968,-8.57
09.984,-6.59
10.000,-4.47
10.015,-2.15
10.031,0.35
10.046,2.9
10.062,5.32
10.078,7.38
10.093,8.97
10.109,10.06
10.125,10.76
10.140,11.25
10.156,11.66
10.171,12.08
10.187,12.52
10.203,13.01
10.218,13.53
10.234,14.11
10.250,14.69
10.265,15.19
10.281,15.52
10.296,15.59
10.312,15.33
10.328,14.75
10.343,13.91
10.359,12.88
10.375,11.76
10.390,10.6
10.406,9.44
10.421,8.26
10.437,7.05
10.453,5.77
10.468,4.32
10.484,2.66
10.500,0.74
10.515,-1.4
10.531,-3.67
10.546,-5.94
10.562,-8.19
10.578,-10.39
10.593,-12.59
10.609,-14.83
10.625,-17.04
10.640,-19.07
10.656,-20.7
10.671,-21.79
10.687,-22.3
10.703,-22.31
10.718,-21.9
10.734,-21.12
10.750,-19.95
10.765,-18.34
10.781,-16.26
10.796,-13.71
10.812,-10.81
10.828,-7.71
10.843,-4.61
10.859,-1.64
10.875,1.08
10.890,3.46
10.906,5.45
10.921,7.02
10.937,8.24
10.953,9.26
10.968,10.22
10.984,11.26
11.000,12.42
11.015,13.67
11.031,14.9
11.046,15.97
11.062,16.84
11.078,17.46
11.093,17.92
11.109,18.24
11.125,18.38
11.140,18.31
11.156,17.95
11.171,17.3
11.187,16.44
11.203,15.46
11.218,14.49
11.234,13.57
11.250,12.64
11.265,11.57
11.281,10.25
11.296,8.6
11.312,6.66
11.328,4.58
11.343,2.47
11.359,0.5
11.375,-1.28
11.390,-2.92
11.406,-4.52
11.421,-6.24
11.437,-8.22
11.453,-10.52
11.468,-13.08
11.484,-15.81
11.500,-18.42
11.515,-20.7
11.531,-22.41
11.546,-23.48
11.562,-23.89
11.578,-23.74
11.593,-23.11
11.609,-22.01
11.625,-20.48
11.640,-18.48
11.656,-16.05
11.671,-13.29
11.687,-10.33
11.703,-7.29
11.718,-4.29
11.734,-1.37
11.750,1.46
11.765,4.13
11.781,6.58
11.796,8.67
11.812,10.28
11.828,11.42
11.843,12.12
11.859,12.53
11.875,12.85
11.890,13.26
11.906,13.85
11.921,14.66
11.937,15.63
11.953,16.7
11.968,17.8
11.984,18.83
12.000,19.68
12.015,20.21
12.031,20.28
12.046,19.8
12.062,18.79
12.078,17.34
12.093,15.63
12.109,13.85
12.125,12.11
12.140,10.45
12.156,8.83
12.171,7.17
12.187,5.43
12.203,3.67
12.218,1.88
12.234,0.09
12.250,-1.7
12.265,-3.55
12.281,-5.54
12.296,-7.67
12.312,-9.92
12.328,-12.2
12.343,-14.38
12.359,-16.35
12.375,-18.06
12.390,-19.45
12.406,-20.48
12.421,-21.1
12.437,-21.27
12.453,-21.01
12.468,-20.4
12.484,-19.53
12.500,-18.51
12.515,-17.39
12.531,-16.17
12.546,-14.76
12.562,-13.07
12.578,-11.05
12.593,-8.73
12.609,-6.26
12.625,-3.79
12.640,-1.48
12.656,0.58
12.671,2.39
12.687,4.04
12.703,5.6
12.718,7.13
12.734,8.57
12.750,9.84
12.765,10.91
12.781,11.79
12.796,12.54
12.812,13.26
12.828,13.96
12.843,14.54
12.859,14.83
12.875,14.72
12.890,14.21
12.906,13.43
12.921,12.56
12.937,11.79
12.953,11.21
12.968,10.78
12.984,10.38
13.000,9.87
13.015,9.13
13.031,8.13
13.046,6.87
13.062,5.42
13.078,3.84
13.093,2.17
13.109,0.39
13.125,-1.54
13.140,-3.62
13.156,-5.86
13.171,-8.14
13.187,-10.37
13.203,-12.45
13.218,-14.34
13.234,-16.05
13.250,-17.58
13.265,-18.91
13.281,-19.91
13.296,-20.47
13.312,-20.51
13.328,-20.1
13.343,-19.36
13.359,-18.42
13.375,-17.35
13.390,-16.09
13.406,-14.54
13.421,-12.55
13.437,-10.15
13.453,-7.45
13.468,-4.66
13.484,-2.03
13.500,0.33
13.515,2.33
13.531,4.02
13.546,5.46
13.562,6.68
13.578,7.7
13.593,8.53
13.609,9.26
13.625,10.01
13.640,10.97
13.656,12.17
13.671,13.6
13.687,15.06
13.703,16.29
13.718,17.08
13.734,17.37
13.750,17.23
13.765,16.75
13.781,16.1
13.796,15.33
13.812,14.5
13.828,13.66
13.843,12.89
13.859,12.22
13.875,11.66
13.890,11.09
13.906,10.29
13.921,9.09
13.937,7.38
13.953,5.22
13.968,2.78
13.984,0.27
14.000,-2.14
14.015,-4.36
14.031,-6.4
14.046,-8.39
14.062,-10.39
14.078,-12.53
14.093,-14.84
14.109,-17.26
14.125,-19.65
14.140,-21.81
14.156,-23.48
14.171,-24.44
14.187,-24.62
14.203,-24.05
14.218,-22.87
14.234,-21.31
14.250,-19.56
14.265,-17.69
14.281,-15.76
14.296,-13.73
14.312,-11.6
14.328,-9.38
14.343,-7.12
14.359,-4.84
14.375,-2.6
14.390,-0.43
14.406,1.64
14.421,3.54
14.437,5.24
14.453,6.73
14.468,8.04
14.484,9.23
14.500,10.34
14.515,11.37
14.531,12.26
14.546,12.96
14.562,13.45
14.578,13.7
14.593,13.76
14.609,13.69
14.625,13.55
14.640,13.36
14.656,13.07
14.671,12.64
14.687,11.92
14.703,10.83
14.718,9.38
14.734,7.65
14.750,5.83
14.765,4.18
14.781,2.88
14.796,1.97
14.812,1.32
14.828,0.73
14.843,-0.04
14.859,-1.11
14.875,-2.48
14.890,-4.04
14.906,-5.65
14.921,-7.14
14.937,-8.46
14.953,-9.57
14.968,-10.49
14.984,-11.25
15.000,-11.93
15.015,-12.65
15.031,-13.57
15.046,-14.81
15.062,-16.45
15.078,-18.37
15.093,-20.26
15.109,-21.68
15.125,-22.15
15.140,-21.3
15.156,-19.03
15.171,-15.51
15.187,-11.13
15.203,-6.41
15.218,-1.78
15.234,2.42
15.250,6.01
15.265,8.92
15.281,11.24
15.296,13.05
15.312,14.53
15.328,15.85
15.343,17.18
15.359,18.61
15.375,20.16
15.390,21.73
15.406,23.16
15.421,24.24
15.437,24.86
15.453,24.94
15.468,24.55
15.484,23.78
15.500,22.81
15.515,21.78
15.531,20.79
15.546,19.9
15.562,19.12
15.578,18.4
15.593,17.65
15.609,16.77
15.625,15.63
15.640,14.12
15.656,12.16
15.671,9.79
15.687,7.13
15.703,4.44
15.718,1.96
15.734,-0.07
15.750,-1.52
15.765,-2.44
15.781,-2.99
15.796,-3.41
15.812,-3.95
15.828,-4.84
15.843,-6.26
15.859,-8.3
15.875,-10.92
15.890,-13.9
15.906,-16.92
15.921,-19.62
15.937,-21.72
15.953,-23.05
15.968,-23.62
15.984,-23.48
16.000,-22.74
16.015,-21.47
16.031,-19.77
16.046,-17.75
16.062,-15.52
16.078,-13.18
16.093,-10.78
16.109,-8.35
16.125,-5.92
16.140,-3.57
16.156,-1.46
16.171,0.31
16.187,1.67
16.203,2.67
16.218,3.38
16.234,3.93
16.250,4.39
16.265,4.85
16.281,5.35
16.296,5.95
16.312,6.71
16.328,7.64
16.343,8.68
16.359,9.71
16.375,10.59
16.390,11.22
16.406,11.57
16.421,11.62
16.437,11.41
16.453,11.0
16.468,10.46
16.484,9.85
16.500,9.15
16.515,8.35
16.531,7.39
16.546,6.27
16.562,4.99
16.578,3.64
16.593,2.32
16.609,1.03
16.625,-0.24
16.640,-1.68
16.656,-3.4
16.671,-5.47
16.687,-7.81
16.703,-10.26
16.718,-12.62
16.734,-14.77
16.750,-16.65
16.765,-18.2
16.781,-19.39
16.796,-20.18
16.812,-20.55
16.828,-20.45
16.843,-19.82
16.859,-18.62
16.875,-16.84
16.890,-14.52
16.906,-11.76
16.921,-8.69
16.937,-5.5
16.953,-2.35
16.968,0.67
16.984,3.5
17.000,6.18
17.015,8.77
17.031,11.33
17.046,13.92
17.062,16.55
17.078,19.17
17.093,21.7
17.109,24.06
17.125,26.19
17.140,28.09
17.156,29.8
17.171,31.33
17.187,32.64
17.203,33.75
17.218,34.7
17.234,35.56
17.250,36.4
17.265,37.24
17.281,38.08
17.296,39.0
17.312,40.18
17.328,41.86
17.343,44.21
17.359,47.11
17.375,50.09
17.390,52.31
17.406,52.84
17.421,50.95
17.437,46.35
17.453,39.23
17.468,30.26
17.484,20.27
17.500,10.12
17.515,0.57
17.531,-7.91
17.546,-15.14
17.562,-21.28
17.578,-26.82
17.593,-32.41
17.609,-38.55
17.625,-45.43
17.640,-52.79
17.656,-59.97
17.671,-66.11
17.687,-70.41
17.703,-72.45
17.718,-72.16
17.734,-69.92
17.750,-66.24
17.765,-61.69
17.781,-56.79
17.796,-51.97
17.812,-47.56
17.828,-43.73
17.843,-40.46
17.859,-37.61
17.875,-34.91
17.890,-32.12
17.906,-29.12
17.921,-25.96
17.937,-22.84
17.953,-20.02
17.968,-17.7
17.984,-15.91
18.000,-14.65
18.015,-13.79
18.031,-13.18
18.046,-12.66
18.062,-12.0
18.078,-11.04
18.093,-9.73
18.109,-8.25
18.125,-6.8
18.140,-5.67
18.156,-4.87
18.171,-4.2
18.187,-3.29
18.203,-1.84
18.218,0.16
18.234,2.32
18.250,3.99
18.265,4.53
18.281,3.57
18.296,1.21
18.312,-2.06
18.328,-5.61
18.343,-8.88
18.359,-11.52
18.375,-13.49
18.390,-14.95
18.406,-16.21
18.421,-17.58
18.437,-19.34
18.453,-21.67
18.468,-24.55
18.484,-27.8
18.500,-31.07
18.515,-34.06
18.531,-36.57
18.546,-38.61
18.562,-40.24
18.578,-41.49
18.593,-42.18
18.609,-42.02
18.625,-40.7
18.640,-38.03
18.656,-34.11
18.671,-29.27
18.687,-23.93
18.703,-18.5
18.718,-13.37
18.734,-8.83
18.750,-5.15
18.765,-2.52
18.781,-0.94
18.796,-0.2
18.812,0.13
18.828,0.61
18.843,1.76
18.859,3.94
18.875,7.25
18.890,11.68
18.906,17.0
18.921,22.97
18.937,29.29
18.953,35.57
18.968,41.48
18.984,46.76
19.000,51.3
19.015,55.18
19.031,58.62
19.046,61.8
19.062,64.84
19.078,67.74
19.093,70.34
19.109,72.48
19.125,73.92
19.140,74.53
19.156,74.14
19.171,72.64
19.187,69.96
19.203,66.09
19.218,61.18
19.234,55.47
19.250,49.22
19.265,42.7
19.281,36.12
19.296,29.68
19.312,23.52
19.328,17.83
19.343,12.79
19.359,8.56
19.375,5.16
19.390,2.56
19.406,0.57
19.421,-0.99
19.437,-2.25
19.453,-3.3
19.468,-4.13
19.484,-4.72
19.500,-5.05
19.515,-5.13
19.531,-4.95
19.546,-4.52
19.562,-3.84
19.578,-2.89
19.593,-1.66
19.609,-0.27
19.625,1.14
19.640,2.33
19.656,3.12
19.671,3.45
19.687,3.38
19.703,3.12
19.718,2.87
19.734,2.77
19.750,2.85
19.765,3.06
19.781,3.3
19.796,3.47
19.812,3.5
19.828,3.35
19.843,3.0
19.859,2.44
19.875,1.69
19.890,0.8
19.906,-0.12
19.921,-1.01
19.937,-1.8
19.953,-2.52
19.968,-3.18
19.984,-3.85
20.000,-4.57
20.015,-5.39
20.031,-6.32
20.046,-7.33
20.062,-8.39
20.078,-9.45
20.093,-10.43
20.109,-11.28
20.125,-11.93
20.140,-12.35
20.156,-12.52
20.171,-12.46
20.187,-12.27
20.203,-12.02
20.218,-11.83
20.234,-11.7
20.250,-11.63
20.265,-11.47
20.281,-11.05
20.296,-10.23
20.312,-8.98
20.328,-7.35
20.343,-5.42
20.359,-3.3
20.375,-1.0
20.390,1.49
20.406,4.15
20.421,6.89
20.437,9.5
20.453,11.75
20.468,13.48
20.484,14.67
20.500,15.38
20.515,15.72
20.531,15.78
20.546,15.59
20.562,15.23
20.578,14.74
20.593,14.29
20.609,13.95
20.625,13.84
20.640,13.88
20.656,13.94
20.671,13.85
20.687,13.47
20.703,12.79
20.718,11.85
20.734,10.77
20.750,9.56
20.765,8.29
20.781,6.87
20.796,5.26
20.812,3.43
20.828,1.41
20.843,-0.66
20.859,-2.75
20.875,-4.81
20.890,-7.05
20.906,-9.6
20.921,-12.55
20.937,-15.76
20.953,-18.85
20.968,-21.41
20.984,-23.09
21.000,-23.84
21.015,-23.82
21.031,-23.4
21.046,-22.86
21.062,-22.33
21.078,-21.77
21.093,-21.0
21.109,-19.93
21.125,-18.49
21.140,-16.68
21.156,-14.51
21.171,-12.01
21.187,-9.18
21.203,-6.15
21.218,-3.11
21.234,-0.3
21.250,2.04
21.265,3.77
21.281,4.91
21.296,5.54
21.312,5.8
21.328,5.84
21.343,5.77
21.359,5.66
21.375,5.61
21.390,5.61
21.406,5.63
21.421,5.59
21.437,5.44
21.453,5.15
21.468,4.82
21.484,4.56
21.500,4.51
21.515,4.76
21.531,5.2
21.546,5.63
21.562,5.82
21.578,5.55
21.593,4.73
21.609,3.42
21.625,1.8
21.640,0.04
21.656,-1.69
21.671,-3.34
21.687,-4.94
21.703,-6.53
21.718,-8.13
21.734,-9.78
21.750,-11.47
21.765,-13.27
21.781,-15.21
21.796,-17.24
21.812,-19.24
21.828,-20.97
21.843,-22.17
21.859,-22.66
21.875,-22.38
21.890,-21.44
21.906,-20.03
21.921,-18.34
21.937,-16.43
21.953,-14.24
21.968,-11.71
21.984,-8.77
22.000,-5.53
22.015,-2.18
22.031,1.01
22.046,3.81
22.062,6.04
22.078,7.65
22.093,8.63
22.109,9.12
22.125,9.3
22.140,9.35
22.156,9.5
22.171,9.88
22.187,10.53
22.203,11.36
22.218,12.2
22.234,12.8
22.250,13.02
22.265,12.85
22.281,12.39
22.296,11.89
22.312,11.55
22.328,11.49
22.343,11.7
22.359,11.97
22.375,12.07
22.390,11.73
22.406,10.85
22.421,9.45
22.437,7.67
22.453,5.71
22.468,3.73
22.484,1.82
22.515,-1.74
22.531,-3.46
22.546,-5.19
22.562,-6.98
22.578,-8.91
22.593,-11.04
22.609,-13.28
22.625,-15.4
22.640,-17.08
22.656,-18.03
22.671,-18.16
22.687,-17.6
22.703,-16.64
22.718,-15.55
22.734,-14.49
22.750,-13.41
22.765,-12.16
22.781,-10.61
22.796,-8.73
22.812,-6.59
22.828,-4.33
22.843,-2.05
22.859,0.15
22.875,2.27
22.890,4.23
22.906,5.92
22.921,7.22
22.937,8.07
22.953,8.53
22.968,8.77
22.984,9.03
23.000,9.55
23.015,10.47
23.031,11.7
23.046,12.96
23.062,13.92
23.078,14.34
23.093,14.18
23.109,13.68
23.125,13.24
23.140,13.17
23.156,13.63
23.171,14.42
23.187,15.21
23.203,15.62
23.218,15.52
23.234,15.05
23.250,14.59
23.265,14.56
23.281,15.21
23.296,16.6
23.312,18.46
23.328,20.5
23.343,22.43
23.359,24.1
23.375,25.38
23.390,26.18
23.406,26.4
23.421,26.03
23.437,25.3
23.453,24.6
23.468,24.3
23.484,24.32
23.500,23.96
23.515,21.9
23.531,16.78
23.546,7.78
23.562,-4.76
23.578,-19.28
23.593,-33.4
23.609,-44.72
23.625,-51.56
23.640,-53.37
23.656,-50.66
23.671,-44.68
23.687,-36.91
23.703,-28.82
23.718,-21.58
23.734,-16.13
23.750,-13.08
23.765,-12.71
23.781,-14.88
23.796,-19.03
23.812,-24.27
23.828,-29.52
23.843,-33.84
23.859,-36.62
23.875,-37.89
23.890,-38.19
23.906,-38.4
23.921,-39.3
23.937,-41.24
23.953,-43.97
23.968,-46.64
23.984,-48.18
24.000,-47.68
24.015,-44.71
24.031,-39.36
24.046,-32.18
24.062,-23.91
24.078,-15.25
24.093,-6.84
24.109,0.79
24.125,7.21
24.140,12.09
24.156,15.22
24.171,16.63
24.187,16.45
24.203,14.92
24.218,12.32
24.234,8.89
24.250,4.91
24.265,0.65
24.281,-3.55
24.296,-7.47
24.312,-10.86
24.328,-13.63
24.343,-15.73
24.359,-17.11
24.375,-17.69
24.390,-17.27
24.406,-15.71
24.421,-12.98
24.437,-9.24
24.453,-4.82
24.468,-0.19
24.484,4.22
24.500,8.07
24.515,11.21
24.531,13.74
24.546,15.85
24.562,17.8
24.578,19.77
24.593,21.85
24.609,24.01
24.625,26.17
24.640,28.23
24.656,30.06
24.671,31.45
24.687,32.17
24.703,31.97
24.718,30.68
24.734,28.29
24.750,24.95
24.765,21.0
24.781,16.82
24.796,12.74
24.812,8.92
24.828,5.39
24.843,2.1
24.859,-1.06
24.875,-4.13
24.890,-7.12
24.906,-9.92
24.921,-12.35
24.937,-14.25
24.953,-15.44
24.968,-15.94
24.984,-15.83
25.000,-15.39
25.015,-14.91
25.031,-14.59
25.046,-14.47
25.062,-14.44
25.078,-14.28
25.093,-13.75
25.109,-12.7
25.125,-11.07
25.140,-8.93
25.156,-6.42
25.171,-3.67
25.187,-0.81
25.203,2.11
25.218,5.1
25.234,8.2
25.250,11.41
25.265,14.68
25.281,17.85
25.296,20.75
25.312,23.16
25.328,24.9
25.343,25.84
25.359,26.01
25.375,25.51
25.390,24.55
25.406,23.38
25.421,22.15
25.437,20.89
25.453,19.48
25.468,17.79
25.484,15.76
25.500,13.48
25.515,11.18
25.531,9.14
25.546,7.58
25.562,6.54
25.578,5.96
25.593,5.63
25.609,5.39
25.625,5.08
25.640,4.63
25.656,4.03
25.671,3.35
25.687,2.59
25.703,1.77
25.718,0.89
25.734,-0.11
25.750,-1.3
25.765,-2.71
25.781,-4.38
25.796,-6.34
25.812,-8.54
25.828,-10.94
25.843,-13.41
25.859,-15.75
25.875,-17.64
25.890,-18.86
25.906,-19.26
25.921,-18.96
25.937,-18.17
25.953,-17.2
25.968,-16.18
25.984,-15.07
26.000,-13.71
26.015,-11.87
26.031,-9.49
26.046,-6.64
26.062,-3.61
26.078,-0.61
26.093,2.19
26.109,4.77
26.125,7.19
26.140,9.44
26.156,11.41
26.171,12.9
26.187,13.78
26.203,13.97
26.218,13.62
26.234,12.97
26.250,12.29
26.265,11.85
26.281,11.78
26.296,12.05
26.312,12.54
26.328,13.1
26.343,13.55
26.359,13.76
26.375,13.7
26.390,13.31
26.406,12.63
26.421,11.73
26.437,10.63
26.453,9.33
26.468,7.86
26.484,6.22
26.500,4.46
26.515,2.64
26.531,0.83
26.546,-0.92
26.562,-2.65
26.578,-4.31
26.593,-5.93
26.609,-7.54
26.625,-9.13
26.640,-10.72
26.656,-12.32
26.671,-13.9
26.687,-15.4
26.703,-16.71
26.718,-17.68
26.734,-18.16
26.750,-18.08
26.765,-17.49
26.781,-16.52
26.796,-15.35
26.812,-14.13
26.828,-12.84
26.843,-11.37
26.859,-9.56
26.875,-7.24
26.890,-4.41
26.906,-1.25
26.921,1.93
26.937,4.78
26.953,7.06
26.968,8.72
26.984,9.9
27.000,10.78
27.015,11.57
27.031,12.34
27.046,13.06
27.062,13.61
27.078,13.91
27.093,13.97
27.109,13.89
27.125,13.8
27.140,13.72
27.156,13.64
27.171,13.43
27.187,13.08
27.203,12.54
27.218,11.91
27.234,11.22
27.250,10.53
27.265,9.75
27.281,8.74
27.296,7.42
27.312,5.73
27.328,3.78
27.343,1.7
27.359,-0.42
27.375,-2.53
27.390,-4.72
27.406,-7.12
27.421,-9.82
27.437,-12.74
27.453,-15.71
27.468,-18.44
27.484,-20.7
27.500,-22.37
27.515,-23.48
27.531,-24.14
27.546,-24.41
27.562,-24.3
27.578,-23.73
27.593,-22.72
27.609,-21.31
27.625,-19.68
27.640,-18.07
27.656,-16.58
27.671,-15.12
27.687,-13.44
27.703,-11.28
27.718,-8.51
27.734,-5.25
27.750,-1.77
27.765,1.58
27.781,4.58
27.796,7.13
27.812,9.22
27.828,10.88
27.843,12.04
27.859,12.58
27.875,12.46
27.890,11.72
27.906,10.56
27.921,9.3
27.937,8.31
27.953,7.89
27.968,8.14
27.984,8.97
28.000,10.15
28.015,11.39
28.031,12.43
28.046,13.16
28.062,13.54
28.078,13.66
28.093,13.6
28.109,13.43
28.125,13.18
28.140,12.86
28.156,12.44
28.171,11.85
28.187,10.95
28.203,9.62
28.218,7.81
28.234,5.58
28.250,3.14
28.265,0.74
28.281,-1.48
28.296,-3.48
28.312,-5.38
28.328,-7.33
28.343,-9.46
28.359,-11.78
28.375,-14.15
28.390,-16.31
28.406,-17.96
28.421,-18.85
28.437,-18.85
28.453,-18.02
28.468,-16.54
28.484,-14.67
28.500,-12.59
28.515,-10.44
28.531,-8.26
28.546,-6.05
28.562,-3.79
28.578,-1.5
28.593,0.81
28.609,3.17
28.625,5.58
28.640,8.02
28.656,10.4
28.671,12.56
28.687,14.33
28.703,15.59
28.718,16.32
28.734,16.51
28.750,16.3
28.765,15.79
28.781,15.16
28.796,14.54
28.812,14.05
28.828,13.73
28.843,13.55
28.859,13.43
28.875,13.23
28.890,12.91
28.906,12.5
28.921,12.09
28.937,11.77
28.953,11.57
28.968,11.4
28.984,11.09
29.000,10.5
29.015,9.55
29.031,8.26
29.046,6.76
29.062,5.24
29.078,3.8
29.093,2.49
29.109,1.26
29.125,0.02
29.140,-1.31
29.156,-2.79
29.171,-4.45
29.187,-6.34
29.203,-8.47
29.218,-10.81
29.234,-13.2
29.250,-15.4
29.265,-17.09
29.281,-18.03
29.296,-18.12
29.312,-17.43
29.328,-16.23
29.343,-14.78
29.359,-13.29
29.375,-11.79
29.390,-10.2
29.406,-8.37
29.421,-6.2
29.437,-3.71
29.453,-1.04
29.468,1.62
29.484,4.02
29.500,5.98
29.515,7.38
29.531,8.13
29.546,8.29
29.562,7.95
29.578,7.31
29.593,6.59
29.609,5.96
29.625,5.52
29.640,5.32
29.656,5.36
29.671,5.63
29.687,6.08
29.703,6.6
29.718,7.02
29.734,7.12
29.750,6.78
29.765,6.0
29.781,4.92
29.796,3.81
29.812,2.83
29.828,2.01
29.843,1.25
29.859,0.37
29.875,-0.73
29.890,-2.0
29.906,-3.31
29.921,-4.52
29.937,-5.58
29.953,-6.58
29.968,-7.66
29.984,-9.0
30.000,-10.69
30.015,-12.71
30.031,-14.92
30.046,-17.07
30.062,-18.87
30.078,-20.09
30.093,-20.63
30.109,-20.48
30.125,-19.83
30.140,-18.9
30.156,-17.89
30.171,-16.94
30.187,-16.01
30.203,-14.98
30.218,-13.67
30.234,-11.92
30.250,-9.67
30.265,-6.99
30.281,-4.12
30.296,-1.35
30.312,0.97
30.328,2.61
30.343,3.44
30.359,3.6
30.375,3.33
30.390,2.99
30.406,2.83
30.421,2.95
30.437,3.26
30.453,3.57
30.468,3.64
30.484,3.37
30.500,2.83
30.515,2.22
30.531,1.78
30.546,1.7
30.562,1.97
30.578,2.41
30.593,2.73
30.609,2.65
30.625,2.05
30.640,1.04
30.656,-0.09
30.671,-1.04
30.687,-1.62
30.703,-1.9
30.718,-2.11
30.734,-2.62
30.750,-3.67
30.765,-5.27
30.781,-7.22
30.796,-9.15
30.812,-10.68
30.828,-11.59
30.843,-11.82
30.859,-11.53
30.875,-11.0
30.890,-10.48
30.906,-10.05
30.921,-9.67
30.937,-9.17
30.953,-8.33
30.968,-7.12
30.984,-5.55
31.000,-3.7
31.015,-1.66
31.031,0.61
31.046,3.23
31.062,6.17
31.078,9.28
31.093,12.25
31.109,14.71
31.125,16.35
31.140,17.1
31.156,17.12
31.171,16.72
31.187,16.29
31.203,16.04
31.218,16.12
31.234,16.5
31.250,16.95
31.265,17.2
31.281,17.01
31.296,16.24
31.312,14.94
31.328,13.34
31.343,11.64
31.359,10.03
31.375,8.56
31.390,7.14
31.406,5.73
31.421,4.36
31.437,3.09
31.453,2.05
31.468,1.31
31.484,0.73
31.500,0.19
31.515,-0.5
31.531,-1.43
31.546,-2.53
31.562,-3.71
31.578,-4.93
31.593,-6.29
31.609,-7.96
31.625,-10.1
31.640,-12.65
31.656,-15.26
31.671,-17.43
31.687,-18.62
31.703,-18.65
31.718,-17.74
31.734,-16.44
31.750,-15.32
31.765,-14.69
31.781,-14.45
31.796,-14.19
31.812,-13.4
31.828,-11.74
31.843,-9.21
31.859,-6.2
31.875,-3.19
31.890,-0.71
31.906,0.92
31.921,1.6
31.937,1.5
31.953,0.88
31.968,0.16
31.984,-0.26
32.000,-0.07
32.015,0.92
32.031,2.67
32.046,4.96
32.062,7.34
32.078,9.42
32.093,10.85
32.109,11.49
32.125,11.49
32.140,11.09
32.156,10.62
32.171,10.34
32.187,10.41
32.203,10.8
32.218,11.33
32.234,11.75
32.250,11.77
32.265,11.19
32.281,9.96
32.296,8.24
32.312,6.2
32.328,4.1
32.343,2.07
32.359,0.19
32.375,-1.54
32.390,-3.18
32.406,-4.71
32.421,-6.19
32.437,-7.64
32.453,-9.09
32.468,-10.49
32.484,-11.68
32.500,-12.36
32.515,-12.25
32.531,-11.24
32.546,-9.45
32.562,-7.32
32.578,-5.36
32.593,-4.0
32.609,-3.32
32.625,-3.12
32.640,-2.96
32.656,-2.46
32.671,-1.46
32.687,-0.04
32.703,1.52
32.718,2.94
32.734,4.09
32.750,4.97
32.765,5.73
32.781,6.45
32.796,7.1
32.812,7.51
32.828,7.56
32.843,7.19
32.859,6.54
32.875,5.89
32.890,5.47
32.906,5.41
32.921,5.61
32.937,5.87
32.953,5.9
32.968,5.56
32.984,4.92
33.000,4.15
33.015,3.5
33.031,3.03
33.046,2.71
33.062,2.3
33.078,1.62
33.093,0.57
33.109,-0.8
33.125,-2.31
33.140,-3.7
33.156,-4.74
33.171,-5.3
33.187,-5.43
33.203,-5.33
33.218,-5.29
33.234,-5.63
33.250,-6.52
33.265,-7.98
33.281,-9.78
33.296,-11.57
33.312,-12.97
33.328,-13.74
33.343,-13.84
33.359,-13.45
33.375,-12.81
33.390,-12.06
33.406,-11.26
33.421,-10.32
33.437,-9.11
33.453,-7.52
33.468,-5.54
33.484,-3.27
33.500,-0.88
33.515,1.47
33.531,3.7
33.546,5.75
33.562,7.58
33.578,9.14
33.593,10.38
33.609,11.21
33.625,11.55
33.640,11.4
33.656,10.82
33.671,10.0
33.687,9.22
33.703,8.7
33.718,8.61
33.734,8.86
33.750,9.28
33.765,9.5
33.781,9.26
33.796,8.48
33.812,7.22
33.828,5.73
33.843,4.24
33.859,2.89
33.875,1.68
33.890,0.55
33.906,-0.57
33.921,-1.66
33.937,-2.63
33.953,-3.36
33.968,-3.85
33.984,-4.2
34.000,-4.59
34.015,-5.15
34.031,-5.96
34.046,-7.0
34.062,-8.2
34.078,-9.5
34.093,-10.82
34.109,-12.03
34.125,-12.97
34.140,-13.43
34.156,-13.34
34.171,-12.79
34.187,-12.03
34.203,-11.38
34.218,-10.98
34.234,-10.76
34.250,-10.36
34.265,-9.41
34.281,-7.65
34.296,-5.11
34.312,-2.1
34.328,0.94
34.343,3.62
34.359,5.72
34.375,7.2
34.390,8.17
34.406,8.78
34.421,9.14
34.437,9.33
34.453,9.42
34.468,9.48
34.484,9.61
34.500,9.82
34.515,10.12
34.531,10.42
34.546,10.55
34.562,10.38
34.578,9.84
34.593,8.9
34.609,7.62
34.625,6.12
34.640,4.55
34.656,3.09
34.671,1.91
34.687,1.04
34.703,0.43
34.718,-0.06
34.734,-0.6
34.750,-1.32
34.765,-2.21
34.781,-3.2
34.796,-4.18
34.812,-5.16
34.828,-6.21
34.843,-7.5
34.859,-9.1
34.875,-10.9
34.890,-12.61
34.906,-13.83
34.921,-14.3
34.937,-13.93
34.953,-12.97
34.968,-11.81
34.984,-10.8
35.000,-10.1
35.015,-9.54
35.031,-8.78
35.046,-7.44
35.062,-5.42
35.078,-2.83
35.093,0.01
35.109,2.68
35.125,4.95
35.140,6.69
35.156,7.9
35.171,8.65
35.187,8.97
35.203,8.88
35.218,8.49
35.234,7.93
35.250,7.43
35.265,7.21
35.281,7.39
35.296,7.89
35.312,8.48
35.328,8.88
35.343,8.82
35.359,8.29
35.375,7.38
35.390,6.37
35.406,5.51
35.421,4.92
35.437,4.61
35.453,4.42
35.468,4.18
35.484,3.7
35.500,2.95
35.515,1.95
35.531,0.77
35.546,-0.49
35.562,-1.79
35.578,-3.05
35.593,-4.22
35.609,-5.23
35.625,-6.1
35.640,-6.93
35.656,-7.93
35.671,-9.28
35.687,-10.96
35.703,-12.84
35.718,-14.56
35.734,-15.77
35.750,-16.22
35.765,-15.96
35.781,-15.2
35.796,-14.2
35.812,-13.11
35.828,-11.84
35.843,-10.27
35.859,-8.27
35.875,-5.85
35.890,-3.1
35.906,-0.22
35.921,2.64
35.937,5.38
35.953,7.99
35.968,10.42
35.984,12.6
36.000,14.42
36.015,15.76
36.031,16.53
36.046,16.71
36.062,16.39
36.078,15.69
36.093,14.76
36.109,13.71
36.125,12.62
36.140,11.45
36.156,10.21
36.171,8.9
36.187,7.63
36.203,6.55
36.218,5.79
36.234,5.35
36.250,5.09
36.265,4.84
36.281,4.38
36.296,3.62
36.312,2.59
36.328,1.44
36.343,0.36
36.359,-0.51
36.375,-1.15
36.390,-1.59
36.406,-1.96
36.421,-2.42
36.437,-3.11
36.453,-4.12
36.468,-5.48
36.484,-7.16
36.500,-9.1
36.515,-11.16
36.531,-13.18
36.546,-14.95
36.562,-16.29
36.578,-17.09
36.593,-17.33
36.609,-17.12
36.625,-16.61
36.640,-15.94
36.656,-15.17
36.671,-14.25
36.687,-13.04
36.703,-11.39
36.718,-9.22
36.734,-6.6
36.750,-3.7
36.765,-0.72
36.781,2.17
36.796,4.88
36.812,7.35
36.828,9.53
36.843,11.34
36.859,12.6
36.875,13.19
36.890,13.11
36.906,12.54
36.921,11.78
36.937,11.12
36.953,10.74
36.968,10.65
36.984,10.73
37.000,10.8
37.015,10.74
37.031,10.52
37.046,10.21
37.062,9.89
37.078,9.55
37.093,9.13
37.109,8.55
37.125,7.78
37.140,6.79
37.156,5.68
37.171,4.51
37.187,3.36
37.203,2.24
37.218,1.16
37.234,0.08
37.250,-1.02
37.265,-2.17
37.281,-3.45
37.296,-4.92
37.312,-6.66
37.328,-8.7
37.343,-10.96
37.359,-13.17
37.375,-14.99
37.390,-16.13
37.406,-16.41
37.421,-15.94
37.437,-15.05
37.453,-14.11
37.468,-13.4
37.484,-12.9
37.500,-12.34
37.515,-11.35
37.531,-9.68
37.546,-7.31
37.562,-4.46
37.578,-1.5
37.593,1.2
37.609,3.45
37.625,5.29
37.640,6.8
37.656,8.05
37.671,9.02
37.687,9.63
37.703,9.83
37.718,9.72
37.734,9.48
37.750,9.31
37.765,9.31
37.781,9.39
37.796,9.34
37.812,8.93
37.828,8.08
37.843,6.9
37.859,5.67
37.875,4.66
37.890,4.05
37.906,3.84
37.921,3.88
37.937,3.98
37.953,4.04
37.968,4.0
37.984,3.83
38.000,3.55
38.015,3.06
38.031,2.3
38.046,1.2
38.062,-0.19
38.078,-1.78
38.093,-3.44
38.109,-5.11
38.125,-6.78
38.140,-8.5
38.156,-10.28
38.171,-12.07
38.187,-13.71
38.203,-15.02
38.218,-15.77
38.234,-15.86
38.250,-15.27
38.265,-14.11
38.281,-12.55
38.296,-10.8
38.312,-9.04
38.328,-7.39
38.343,-5.91
38.359,-4.51
38.375,-3.07
38.390,-1.43
38.406,0.52
38.421,2.74
38.437,5.1
38.453,7.37
38.468,9.33
38.484,10.8
38.500,11.74
38.515,12.23
38.531,12.4
38.546,12.42
38.562,12.38
38.578,12.33
38.593,12.22
38.609,12.05
38.625,11.8
38.640,11.45
38.656,11.03
38.671,10.52
38.687,9.92
38.703,9.22
38.718,8.49
38.734,7.8
38.750,7.21
38.765,6.71
38.781,6.2
38.796,5.52
38.812,4.48
38.828,3.04
38.843,1.3
38.859,-0.52
38.875,-2.17
38.890,-3.56
38.906,-4.68
38.921,-5.7
38.937,-6.82
38.953,-8.24
38.968,-10.01
38.984,-12.08
39.000,-14.25
39.015,-16.22
39.031,-17.67
39.046,-18.32
39.062,-18.13
39.078,-17.19
39.093,-15.76
39.109,-14.11
39.125,-12.38
39.140,-10.58
39.156,-8.62
39.171,-6.38
39.187,-3.8
39.203,-0.99
39.218,1.93
39.234,4.82
39.250,7.59
39.265,10.14
39.281,12.3
39.296,13.87
39.312,14.67
39.328,14.68
39.343,14.01
39.359,13.0
39.375,11.94
39.390,11.09
39.406,10.59
39.421,10.41
39.437,10.42
39.453,10.51
39.468,10.57
39.484,10.51
39.500,10.29
39.515,9.9
39.531,9.34
39.546,8.65
39.562,7.91
39.578,7.13
39.593,6.34
39.609,5.5
39.625,4.61
39.640,3.66
39.656,2.62
39.671,1.49
39.687,0.21
39.703,-1.21
39.718,-2.79
39.734,-4.48
39.750,-6.25
39.765,-8.04
39.781,-9.78
39.796,-11.46
39.812,-13.07
39.828,-14.59
39.843,-15.94
39.859,-16.99
39.875,-17.59
39.890,-17.64
39.906,-17.15
39.921,-16.25
39.937,-15.1
39.953,-13.8
39.968,-12.38
39.984,-10.74
40.000,-8.73
40.015,-6.29
40.031,-3.52
40.046,-0.62
40.062,2.12
40.078,4.52
40.093,6.55
40.109,8.25
40.125,9.72
40.140,11.03
40.156,12.12
40.171,12.9
40.187,13.3
40.203,13.32
40.218,13.06
40.234,12.67
40.250,12.29
40.265,11.92
40.281,11.53
40.296,10.99
40.312,10.23
40.328,9.24
40.343,8.18
40.359,7.19
40.375,6.38
40.390,5.74
40.406,5.15
40.421,4.42
40.437,3.39
40.453,2.07
40.468,0.61
40.484,-0.73
40.500,-1.79
40.515,-2.47
40.531,-2.88
40.546,-3.24
40.562,-3.74
40.578,-4.53
40.593,-5.67
40.609,-7.21
40.625,-9.15
40.640,-11.41
40.656,-13.81
40.671,-15.99
40.687,-17.54
40.703,-18.17
40.718,-17.84
40.734,-16.8
40.750,-15.45
40.765,-14.17
40.781,-13.09
40.796,-12.13
40.812,-11.02
40.828,-9.56
40.843,-7.62
40.859,-5.29
40.875,-2.7
40.890,-0.04
40.906,2.59
40.921,5.09
40.937,7.35
40.953,9.21
40.968,10.47
40.984,11.0
41.000,10.84
41.015,10.19
41.031,9.41
41.046,8.83
41.062,8.68
41.078,8.99
41.093,9.61
41.109,10.33
41.125,10.98
41.140,11.46
41.156,11.78
41.171,11.98
41.187,12.12
41.203,12.22
41.218,12.25
41.234,12.11
41.250,11.73
41.265,11.05
41.281,10.02
41.296,8.65
41.312,6.98
41.328,5.05
41.343,2.92
41.359,0.67
41.375,-1.64
41.390,-3.9
41.406,-6.03
41.421,-7.96
41.437,-9.72
41.453,-11.37
41.468,-13.04
41.484,-14.71
41.500,-16.29
41.515,-17.53
41.531,-18.13
41.546,-17.99
41.562,-17.18
41.578,-15.96
41.593,-14.63
41.609,-13.43
41.625,-12.36
41.640,-11.26
41.656,-9.91
41.671,-8.08
41.687,-5.76
41.703,-3.09
41.718,-0.27
41.734,2.45
41.750,4.86
41.765,6.8
41.781,8.21
41.796,9.02
41.812,9.35
41.828,9.33
41.843,9.14
41.859,8.97
41.875,8.92
41.890,9.01
41.906,9.15
41.921,9.25
41.937,9.19
41.953,8.94
41.968,8.52
41.984,7.99
42.000,7.48
42.015,7.03
42.031,6.68
42.046,6.38
42.062,6.02
42.078,5.41
42.093,4.45
42.109,3.14
42.125,1.57
42.140,-0.01
42.156,-1.41
42.171,-2.55
42.187,-3.42
42.203,-4.2
42.218,-5.11
42.234,-6.27
42.250,-7.77
42.265,-9.59
42.281,-11.55
42.296,-13.5
42.312,-15.28
42.328,-16.72
42.343,-17.73
42.359,-18.24
42.375,-18.21
42.390,-17.65
42.406,-16.59
42.421,-15.07
42.437,-13.17
42.453,-10.98
42.468,-8.55
42.484,-5.93
42.500,-3.13
42.515,-0.13
42.531,3.0
42.546,6.12
42.562,9.01
42.578,11.36
42.593,12.97
42.609,13.81
42.625,14.03
42.640,13.91
42.656,13.73
42.671,13.59
42.687,13.47
42.703,13.25
42.718,12.85
42.734,12.28
42.750,11.69
42.765,11.19
42.781,10.83
42.796,10.56
42.812,10.22
42.828,9.66
42.843,8.81
42.859,7.71
42.875,6.48
42.890,5.32
42.906,4.26
42.921,3.3
42.937,2.33
42.953,1.26
42.968,0.06
42.984,-1.17
43.000,-2.34
43.015,-3.36
43.031,-4.25
43.046,-5.17
43.062,-6.31
43.078,-7.81
43.093,-9.67
43.109,-11.68
43.125,-13.56
43.140,-15.03
43.156,-15.89
43.171,-16.12
43.187,-15.85
43.203,-15.23
43.218,-14.4
43.234,-13.42
43.250,-12.25
43.265,-10.75
43.281,-8.83
43.296,-6.42
43.312,-3.63
43.328,-0.6
43.343,2.47
43.359,5.4
43.375,8.06
43.390,10.41
43.406,12.48
43.421,14.22
43.437,15.63
43.453,16.66
43.468,17.31
43.484,17.65
43.500,17.77
43.515,17.88
43.531,18.11
43.546,18.57
43.562,19.26
43.578,20.14
43.593,21.1
43.609,22.11
43.625,23.19
43.640,24.4
43.656,25.79
43.671,27.41
43.687,29.16
43.703,30.89
43.718,32.36
43.734,33.33
43.750,33.59
43.765,33.08
43.781,31.83
43.796,29.96
43.812,27.62
43.828,24.96
43.843,22.1
43.859,19.16
43.875,16.32
43.890,13.76
43.906,11.71
43.921,10.31
43.937,9.56
43.953,9.34
43.968,9.4
43.984,9.46
44.000,9.19
44.015,8.39
44.031,6.9
44.046,4.73
44.062,1.93
44.078,-1.35
44.093,-4.88
44.109,-8.51
44.125,-12.05
44.140,-15.47
44.156,-18.78
44.171,-21.99
44.187,-25.08
44.203,-28.02
44.218,-30.72
44.234,-33.1
44.250,-35.08
44.265,-36.55
44.281,-37.39
44.296,-37.53
44.312,-37.04
44.328,-36.06
44.343,-34.87
44.359,-33.78
44.375,-33.02
44.390,-32.67
44.406,-32.7
44.421,-33.0
44.437,-33.45
44.453,-33.97
44.468,-34.41
44.484,-34.65
44.500,-34.53
44.515,-34.03
44.531,-33.23
44.546,-32.36
44.562,-31.71
44.578,-31.56
44.593,-32.07
44.609,-33.21
44.625,-34.84
44.640,-36.68
44.656,-38.51
44.671,-40.13
44.687,-41.44
44.703,-42.38
44.718,-42.96
44.734,-43.15
44.750,-43.0
44.765,-42.61
44.781,-42.12
44.796,-41.67
44.812,-41.37
44.828,-41.17
44.843,-40.92
44.859,-40.32
44.875,-39.05
44.890,-36.9
44.906,-33.78
44.921,-29.76
44.937,-25.07
44.953,-19.99
44.968,-14.72
44.984,-9.36
45.000,-3.91
45.015,1.73
45.031,7.62
45.046,13.71
45.062,19.81
45.078,25.61
45.093,30.8
45.109,35.21
45.125,38.8
45.140,41.68
45.156,43.97
45.171,45.85
45.187,47.45
45.203,48.89
45.218,50.21
45.234,51.43
45.250,52.45
45.265,53.12
45.281,53.2
45.296,52.46
45.312,50.78
45.328,48.24
45.343,45.07
45.359,41.6
45.375,38.21
45.390,35.18
45.406,32.69
45.421,30.75
45.437,29.23
45.453,27.92
45.468,26.57
45.484,24.97
45.500,22.97
45.515,20.52
45.531,17.65
45.546,14.53
45.562,11.36
45.578,8.36
45.593,5.68
45.609,3.36
45.625,1.35
45.640,-0.44
45.656,-2.13
45.671,-3.79
45.687,-5.34
45.703,-6.72
45.718,-7.79
45.734,-8.48
45.750,-8.7
45.765,-8.38
45.781,-7.47
45.796,-5.93
45.812,-3.88
45.828,-1.55
45.843,0.74
45.859,2.71
45.875,4.3
45.890,5.59
45.906,6.8
45.921,8.15
45.937,9.73
45.953,11.46
45.968,13.16
45.984,14.62
46.000,15.69
46.015,16.32
46.031,16.54
46.046,16.39
46.062,15.96
46.078,15.31
46.093,14.54
46.109,13.75
46.125,13.02
46.140,12.35
46.156,11.67
46.171,10.76
46.187,9.45
46.203,7.68
46.218,5.52
46.234,3.25
46.250,1.19
46.265,-0.41
46.281,-1.49
46.296,-2.13
46.312,-2.61
46.328,-3.18
46.343,-4.02
46.359,-5.22
46.375,-6.74
46.390,-8.52
46.406,-10.48
46.421,-12.53
46.437,-14.54
46.453,-16.46
46.468,-18.15
46.484,-19.52
46.500,-20.49
46.515,-20.92
46.531,-20.77
46.546,-20.01
46.562,-18.63
46.578,-16.63
46.593,-14.05
46.609,-10.92
46.625,-7.35
46.640,-3.53
46.656,0.32
46.671,3.92
46.687,7.0
46.703,9.45
46.718,11.15
46.734,12.18
46.750,12.62
46.765,12.63
46.781,12.3
46.796,11.86
46.812,11.46
46.828,11.23
46.843,11.29
46.859,11.59
46.875,12.06
46.890,12.51
46.906,12.74
46.921,12.58
46.937,11.97
46.953,10.94
46.968,9.58
46.984,8.1
47.000,6.61
47.015,5.25
47.031,4.04
47.046,3.01
47.062,2.13
47.078,1.33
47.093,0.56
47.109,-0.27
47.125,-1.24
47.140,-2.41
47.156,-3.77
47.171,-5.33
47.187,-7.04
47.203,-8.92
47.218,-11.0
47.234,-13.31
47.250,-15.8
47.265,-18.3
47.281,-20.56
47.296,-22.29
47.312,-23.28
47.328,-23.51
47.343,-23.07
47.359,-22.13
47.375,-20.81
47.390,-19.18
47.406,-17.24
47.421,-15.0
47.437,-12.5
47.453,-9.8
47.468,-6.95
47.484,-3.97
47.500,-0.9
47.515,2.17
47.531,5.07
47.546,7.56
47.562,9.43
47.578,10.6
47.593,11.11
47.609,11.08
47.625,10.7
47.640,10.12
47.656,9.44
47.671,8.72
47.687,8.01
47.703,7.29
47.718,6.55
47.734,5.75
47.750,4.83
47.765,3.82
47.781,2.72
47.796,1.53
47.812,0.25
47.828,-1.17
47.843,-2.77
47.859,-4.5
47.875,-6.24
47.890,-7.79
47.906,-8.96
47.921,-9.68
47.937,-9.97
47.953,-9.9
47.968,-9.5
47.984,-8.81
48.000,-7.79
48.015,-6.55
48.031,-5.27
48.046,-4.24
48.062,-3.71
48.078,-3.75
48.093,-4.21
48.109,-4.81
48.125,-5.27
48.140,-5.42
48.156,-5.31
48.171,-5.04
48.187,-4.68
48.203,-4.2
48.218,-3.44
48.234,-2.25
48.250,-0.56
48.265,1.6
48.281,4.09
48.296,6.7
48.312,9.27
48.328,11.7
48.343,13.96
48.359,16.09
48.375,18.11
48.390,20.01
48.406,21.73
48.421,23.16
48.437,24.11
48.453,24.41
48.468,23.99
48.484,22.84
48.500,21.07
48.515,18.86
48.531,16.35
48.546,13.71
48.562,11.02
48.578,8.35
48.593,5.76
48.609,3.31
48.625,1.06
48.640,-0.92
48.656,-2.64
48.671,-4.15
48.687,-5.49
48.703,-6.74
48.718,-7.93
48.734,-9.1
48.750,-10.26
48.765,-11.43
48.781,-12.63
48.796,-13.8
48.812,-14.94
48.828,-15.98
48.843,-16.88
48.859,-17.57
48.875,-18.05
48.890,-18.3
48.906,-18.39
48.921,-18.41
48.937,-18.4
48.953,-18.41
48.968,-18.37
48.984,-18.14
49.000,-17.52
49.015,-16.39
49.031,-14.64
49.046,-12.3
49.062,-9.46
49.078,-6.21
49.093,-2.66
49.109,1.06
49.125,4.72
49.140,8.12
49.156,10.97
49.171,13.11
49.187,14.47
49.203,15.11
49.218,15.21
49.234,14.95
49.250,14.51
49.265,14.01
49.281,13.53
49.296,13.07
49.312,12.56
49.328,11.99
49.343,11.32
49.359,10.63
49.375,10.02
49.390,9.55
49.406,9.25
49.421,9.03
49.437,8.76
49.453,8.28
49.468,7.52
49.484,6.48
49.500,5.22
49.515,3.8
49.531,2.23
49.546,0.53
49.562,-1.3
49.578,-3.16
49.593,-4.92
49.609,-6.43
49.625,-7.63
49.640,-8.53
49.656,-9.24
49.671,-9.89
49.687,-10.55
49.703,-11.22
49.718,-11.83
49.734,-12.29
49.750,-12.51
49.765,-12.43
49.781,-12.07
49.796,-11.43
49.812,-10.55
49.828,-9.45
49.843,-8.18
49.859,-6.75
49.875,-5.16
49.890,-3.36
49.906,-1.33
49.921,0.9
49.937,3.24
49.953,5.61
49.968,7.91
49.984,9.99
50.000,11.72
50.015,12.98
50.031,13.7
50.046,13.88
50.062,13.62
50.078,13.08
50.093,12.48
50.109,11.97
50.125,11.56
50.140,11.18
50.156,10.69
50.171,10.01
50.187,9.17
50.203,8.28
50.218,7.48
50.234,6.85
50.250,6.42
50.265,6.12
50.281,5.87
50.296,5.58
50.312,5.19
50.328,4.74
50.343,4.25
50.359,3.75
50.375,3.26
50.390,2.69
50.406,1.93
50.421,0.93
50.437,-0.38
50.453,-1.97
50.468,-3.77
50.484,-5.71
50.500,-7.7
50.515,-9.69
50.531,-11.56
50.546,-13.19
50.562,-14.4
50.578,-15.13
50.593,-15.36
50.609,-15.16
50.625,-14.55
50.640,-13.53
50.656,-12.07
50.671,-10.14
50.687,-7.83
50.703,-5.29
50.718,-2.75
50.734,-0.39
50.750,1.71
50.765,3.53
50.781,5.1
50.796,6.36
50.812,7.31
50.828,7.9
50.843,8.23
50.859,8.41
50.875,8.61
50.890,8.9
50.906,9.31
50.921,9.72
50.937,9.97
50.953,9.98
50.968,9.67
50.984,9.07
51.000,8.27
51.015,7.34
51.031,6.35
51.046,5.39
51.062,4.51
51.078,3.72
51.093,3.05
51.109,2.45
51.125,1.9
51.140,1.35
51.156,0.75
51.171,0.05
51.187,-0.8
51.203,-1.84
51.218,-3.07
51.234,-4.48
51.250,-6.03
51.265,-7.75
51.281,-9.63
51.296,-11.63
51.312,-13.64
51.328,-15.43
51.343,-16.74
51.359,-17.34
51.375,-17.15
51.390,-16.32
51.406,-15.07
51.421,-13.65
51.437,-12.18
51.453,-10.61
51.468,-8.79
51.484,-6.58
51.500,-3.94
51.515,-0.99
51.531,2.02
51.546,4.85
51.562,7.32
51.578,9.37
51.593,10.97
51.609,12.12
51.625,12.79
51.640,12.97
51.656,12.64
51.671,11.87
51.687,10.84
51.703,9.78
51.718,8.93
51.734,8.39
51.750,8.13
51.765,7.98
51.781,7.75
51.796,7.32
51.812,6.69
51.828,6.03
51.843,5.48
51.859,5.13
51.875,4.84
51.890,4.37
51.906,3.5
51.921,2.12
51.937,0.38
51.953,-1.45
51.968,-3.11
51.984,-4.51
52.000,-5.68
52.015,-6.83
52.031,-8.13
52.046,-9.7
52.062,-11.53
52.078,-13.52
52.093,-15.46
52.109,-17.12
52.125,-18.31
52.140,-18.88
52.156,-18.81
52.171,-18.21
52.187,-17.25
52.203,-16.12
52.218,-14.9
52.234,-13.5
52.250,-11.72
52.265,-9.45
52.281,-6.64
52.296,-3.42
52.312,-0.05
52.328,3.22
52.343,6.18
52.359,8.73
52.375,10.81
52.390,12.45
52.406,13.66
52.421,14.44
52.437,14.84
52.453,14.97
52.468,14.92
52.484,14.77
52.500,14.59
52.515,14.3
52.531,13.79
52.546,12.99
52.562,11.92
52.578,10.69
52.593,9.52
52.609,8.54
52.625,7.8
52.640,7.19
52.656,6.54
52.671,5.69
52.687,4.56
52.703,3.2
52.718,1.72
52.734,0.22
52.750,-1.24
52.765,-2.67
52.781,-4.1
52.796,-5.58
52.812,-7.1
52.828,-8.67
52.843,-10.3
52.859,-11.97
52.875,-13.67
52.890,-15.33
52.906,-16.84
52.921,-18.12
52.937,-19.05
52.953,-19.54
52.968,-19.51
52.984,-18.99
53.000,-17.98
53.015,-16.55
53.031,-14.77
53.046,-12.68
53.062,-10.31
53.078,-7.68
53.093,-4.78
53.109,-1.68
53.125,1.45
53.140,4.41
53.156,6.98
53.171,8.99
53.187,10.41
53.203,11.37
53.218,12.07
53.234,12.68
53.250,13.3
53.265,13.98
53.281,14.66
53.296,15.24
53.312,15.62
53.328,15.69
53.343,15.37
53.359,14.61
53.375,13.44
53.390,12.01
53.406,10.52
53.421,9.18
53.437,8.12
53.453,7.34
53.468,6.71
53.484,6.09
53.500,5.34
53.515,4.37
53.531,3.23
53.546,1.98
53.562,0.74
53.578,-0.42
53.593,-1.53
53.609,-2.64
53.625,-3.84
53.640,-5.27
53.656,-7.0
53.671,-9.05
53.687,-11.37
53.703,-13.78
53.718,-16.06
53.734,-17.95
53.750,-19.31
53.765,-20.03
53.781,-20.18
53.796,-19.83
53.812,-18.98
53.828,-17.65
53.843,-15.74
53.859,-13.18
53.875,-10.06
53.890,-6.53
53.906,-2.81
53.921,0.83
53.937,4.15
53.953,7.01
53.968,9.27
53.984,10.91
54.000,11.95
54.015,12.48
54.031,12.65
54.046,12.59
54.062,12.39
54.078,12.1
54.093,11.77
54.109,11.41
54.125,11.07
54.140,10.75
54.156,10.41
54.171,9.95
54.187,9.33
54.203,8.52
54.218,7.62
54.234,6.79
54.250,6.17
54.265,5.79
54.281,5.52
54.296,5.2
54.312,4.7
54.328,3.95
54.343,2.96
54.359,1.79
54.375,0.49
54.390,-0.99
54.406,-2.67
54.421,-4.62
54.437,-6.84
54.453,-9.23
54.468,-11.66
54.484,-13.93
54.500,-15.83
54.515,-17.23
54.531,-18.1
54.546,-18.45
54.562,-18.37
54.578,-17.92
54.593,-17.14
54.609,-16.06
54.625,-14.64
54.640,-12.84
54.656,-10.67
54.671,-8.11
54.687,-5.18
54.703,-1.95
54.718,1.44
54.734,4.77
54.750,7.79
54.765,10.22
54.781,11.92
54.796,12.85
54.812,13.16
54.828,13.09
54.843,12.89
54.859,12.72
54.875,12.62
54.890,12.55
54.906,12.39
54.921,12.09
54.937,11.63
54.953,11.08
54.968,10.51
54.984,9.93
55.000,9.42
55.015,8.99
55.031,8.62
55.046,8.28
55.062,7.88
55.078,7.33
55.093,6.52
55.109,5.42
55.125,4.06
55.140,2.51
55.156,0.89
55.171,-0.7
55.187,-2.25
55.203,-3.75
55.218,-5.23
55.234,-6.78
55.250,-8.49
55.265,-10.43
55.281,-12.61
55.296,-14.92
55.312,-17.12
55.328,-18.91
55.343,-20.07
55.359,-20.52
55.375,-20.4
55.390,-19.93
55.406,-19.34
55.421,-18.69
55.437,-17.86
55.453,-16.62
55.468,-14.72
55.484,-12.03
55.500,-8.58
55.515,-4.54
55.531,-0.2
55.546,4.14
55.562,8.21
55.578,11.83
55.593,14.81
55.609,17.03
55.625,18.44
55.640,19.08
55.656,19.03
55.671,18.51
55.687,17.72
55.703,16.8
55.718,15.84
55.734,14.81
55.750,13.62
55.765,12.23
55.781,10.69
55.796,9.11
55.812,7.63
55.828,6.43
55.843,5.57
55.859,5.07
55.875,4.88
55.890,4.87
55.906,4.91
55.921,4.86
55.937,4.61
55.953,4.07
55.968,3.2
55.984,2.0
56.000,0.5
56.015,-1.19
56.031,-2.9
56.046,-4.52
56.062,-6.03
56.078,-7.47
56.093,-8.95
56.109,-10.57
56.125,-12.39
56.140,-14.32
56.156,-16.26
56.171,-18.0
56.187,-19.36
56.203,-20.21
56.218,-20.49
56.234,-20.15
56.250,-19.19
56.265,-17.66
56.281,-15.59
56.296,-13.05
56.312,-10.14
56.328,-6.93
56.343,-3.54
56.359,-0.12
56.375,3.17
56.390,6.14
56.406,8.6
56.421,10.5
56.437,11.84
56.453,12.71
56.468,13.3
56.484,13.71
56.500,14.03
56.515,14.22
56.531,14.27
56.546,14.18
56.562,13.99
56.578,13.77
56.593,13.51
56.609,13.18
56.625,12.68
56.640,11.99
56.656,11.13
56.671,10.19
56.687,9.29
56.703,8.52
56.718,7.89
56.734,7.29
56.750,6.6
56.765,5.7
56.781,4.56
56.796,3.17
56.812,1.6
56.828,-0.08
56.843,-1.82
56.859,-3.57
56.875,-5.3
56.890,-7.04
56.906,-8.8
56.921,-10.61
56.937,-12.47
56.953,-14.31
56.968,-15.98
56.984,-17.37
57.000,-18.34
57.015,-18.86
57.031,-18.93
57.046,-18.55
57.062,-17.69
57.078,-16.35
57.093,-14.49
57.109,-12.14
57.125,-9.39
57.140,-6.34
57.156,-3.18
57.171,-0.04
57.187,2.93
57.203,5.64
57.218,8.0
57.234,9.95
57.250,11.39
57.265,12.3
57.281,12.69
57.296,12.6
57.312,12.21
57.328,11.71
57.343,11.3
57.359,11.12
57.375,11.14
57.390,11.24
57.406,11.24
57.421,10.97
57.437,10.37
57.453,9.44
57.468,8.29
57.484,7.07
57.500,5.98
57.515,5.1
57.531,4.47
57.546,4.02
57.562,3.56
57.578,2.9
57.593,1.86
57.609,0.4
57.625,-1.42
57.640,-3.34
57.656,-5.17
57.671,-6.75
57.687,-8.06
57.703,-9.23
57.718,-10.41
57.734,-11.73
57.750,-13.27
57.765,-14.97
57.781,-16.69
57.796,-18.27
57.812,-19.53
57.828,-20.33
57.843,-20.61
57.859,-20.3
57.875,-19.36
57.890,-17.83
57.906,-15.75
57.921,-13.21
57.937,-10.33
57.953,-7.23
57.968,-3.99
57.984,-0.66
58.000,2.8
58.015,6.36
58.031,9.89
58.046,13.19
58.062,15.94
58.078,17.84
58.093,18.72
58.109,18.64
58.125,17.83
58.140,16.66
58.156,15.46
58.171,14.43
58.187,13.65
58.203,13.0
58.218,12.37
58.234,11.7
58.250,10.97
58.265,10.25
58.281,9.61
58.296,9.08
58.312,8.63
58.328,8.18
58.343,7.63
58.359,6.94
58.375,6.13
58.390,5.2
58.406,4.12
58.421,2.84
58.437,1.31
58.453,-0.47
58.468,-2.41
58.484,-4.43
58.500,-6.42
58.515,-8.32
58.531,-10.22
58.546,-12.19
58.562,-14.27
58.578,-16.39
58.593,-18.38
58.609,-19.97
58.625,-21.0
58.640,-21.4
58.656,-21.21
58.671,-20.56
58.687,-19.5
58.703,-18.0
58.718,-15.92
58.734,-13.15
58.750,-9.68
58.765,-5.73
58.781,-1.68
58.796,2.1
58.812,5.33
58.828,7.94
58.843,9.98
58.859,11.62
58.875,12.95
58.890,14.02
58.906,14.77
58.921,15.16
58.937,15.15
58.953,14.8
58.968,14.18
58.984,13.43
59.000,12.66
59.015,11.99
59.031,11.48
59.046,11.13
59.062,10.87
59.078,10.63
59.093,10.38
59.109,10.14
59.125,9.95
59.140,9.77
59.156,9.5
59.171,9.01
59.187,8.12
59.203,6.8
59.218,5.08
59.234,3.13
59.250,1.11
59.265,-0.81
59.281,-2.61
59.296,-4.26
59.312,-5.79
59.328,-7.22
59.343,-8.57
59.359,-9.92
59.375,-11.37
59.390,-13.01
59.406,-14.8
59.421,-16.58
59.437,-18.14
59.453,-19.17
59.468,-19.5
59.484,-19.14
59.500,-18.26
59.515,-17.13
59.531,-15.97
59.546,-14.79
59.562,-13.43
59.578,-11.67
59.593,-9.34
59.609,-6.42
59.625,-3.07
59.640,0.4
59.656,3.65
59.671,6.46
59.687,8.74
59.703,10.48
59.718,11.77
59.734,12.65
59.750,13.15
59.765,13.28
59.781,13.09
59.796,12.66
59.812,12.15
59.828,11.68
59.843,11.29
59.859,10.97
59.875,10.66
59.890,10.25
59.906,9.72
59.921,9.07
59.937,8.32
59.953,7.5
59.968,6.65
59.984,5.79
