timestamp,value
00.000,65.94
00.015,74.02
00.031,80.22
00.046,84.62
00.062,87.3
00.078,88.31
00.093,87.63
00.109,85.32
00.125,81.56
00.140,76.59
00.156,70.79
00.171,64.6
00.187,58.39
00.203,52.5
00.218,47.0
00.234,41.88
00.250,36.99
00.265,32.19
00.281,27.33
00.296,22.34
00.312,17.13
00.328,11.6
00.343,5.63
00.359,-0.87
00.375,-7.89
00.390,-15.31
00.406,-22.88
00.421,-30.34
00.437,-37.39
00.453,-43.87
00.468,-49.78
00.484,-55.28
00.500,-60.72
00.515,-66.59
00.531,-73.42
00.546,-81.52
00.562,-90.72
00.578,-100.14
00.593,-108.25
00.609,-113.2
00.625,-113.32
00.640,-107.68
00.656,-96.37
00.671,-80.43
00.687,-61.57
00.703,-41.56
00.718,-21.92
00.734,-3.66
00.750,12.69
00.765,26.95
00.781,39.1
00.796,49.21
00.812,57.36
00.828,63.65
00.843,68.2
00.859,71.07
00.875,72.39
00.890,72.24
00.906,70.84
00.921,68.43
00.937,65.3
00.953,61.81
00.968,58.26
00.984,54.88
01.000,51.83
01.015,49.19
01.031,46.97
01.046,45.07
01.062,43.28
01.078,41.33
01.093,38.92
01.109,35.78
01.125,31.7
01.140,26.63
01.156,20.69
01.171,14.14
01.187,7.33
01.203,0.62
01.218,-5.8
01.234,-11.96
01.250,-18.1
01.265,-24.61
01.281,-31.97
01.296,-40.53
01.312,-50.44
01.328,-61.33
01.343,-72.33
01.359,-82.04
01.375,-88.76
01.390,-90.94
01.406,-87.62
01.421,-78.77
01.437,-65.33
01.453,-48.92
01.468,-31.41
01.484,-14.38
01.500,1.05
01.515,14.41
01.531,25.6
01.546,34.79
01.562,42.2
01.578,48.03
01.593,52.4
01.609,55.4
01.625,57.13
01.640,57.62
01.656,56.91
01.671,55.05
01.687,52.14
01.703,48.48
01.718,44.47
01.734,40.52
01.750,36.97
01.765,34.02
01.781,31.68
01.796,29.84
01.812,28.3
01.828,26.89
01.843,25.45
01.859,23.8
01.875,21.71
01.890,19.01
01.906,15.6
01.921,11.51
01.937,6.85
01.953,1.79
01.968,-3.52
01.984,-8.95
02.000,-14.4
02.015,-19.86
02.031,-25.42
02.046,-31.36
02.062,-38.07
02.078,-45.84
02.093,-54.65
02.109,-63.9
02.125,-72.34
02.140,-78.31
02.156,-80.18
02.171,-76.86
02.187,-68.2
02.203,-54.98
02.218,-38.71
02.234,-21.17
02.250,-4.01
02.265,11.56
02.281,24.93
02.296,35.89
02.312,44.61
02.328,51.35
02.343,56.37
02.359,59.92
02.375,62.13
02.390,63.04
02.406,62.58
02.421,60.68
02.437,57.28
02.453,52.5
02.468,46.65
02.484,40.21
02.500,33.65
02.515,27.34
02.531,21.5
02.546,16.14
02.562,11.22
02.578,6.73
02.593,2.69
02.609,-0.81
02.625,-3.82
02.640,-6.54
02.656,-9.35
02.671,-12.63
02.687,-16.56
02.703,-21.05
02.718,-25.73
02.734,-30.15
02.750,-33.96
02.765,-37.07
02.781,-39.62
02.796,-41.98
02.812,-44.54
02.828,-47.71
02.843,-51.79
02.859,-56.9
02.875,-62.79
02.890,-68.7
02.906,-73.35
02.921,-75.11
02.937,-72.58
02.953,-64.97
02.968,-52.51
02.984,-36.4
03.000,-18.43
03.015,-0.49
03.031,15.97
03.046,30.05
03.062,41.46
03.078,50.34
03.093,56.99
03.109,61.82
03.125,65.11
03.140,67.11
03.156,67.89
03.171,67.42
03.187,65.67
03.203,62.63
03.218,58.44
03.234,53.29
03.250,47.46
03.265,41.22
03.281,34.9
03.296,28.8
03.312,23.18
03.328,18.21
03.343,13.85
03.359,9.89
03.375,5.99
03.390,1.88
03.406,-2.64
03.421,-7.61
03.437,-12.97
03.453,-18.7
03.468,-24.73
03.484,-31.03
03.500,-37.49
03.515,-43.94
03.531,-50.18
03.546,-56.08
03.562,-61.63
03.578,-67.03
03.593,-72.65
03.609,-78.89
03.625,-85.97
03.640,-93.67
03.656,-101.23
03.671,-107.32
03.687,-110.31
03.703,-108.67
03.718,-101.49
03.734,-88.77
03.750,-71.46
03.765,-51.19
03.781,-29.84
03.796,-9.07
03.812,9.98
03.828,26.7
03.843,40.9
03.859,52.61
03.875,61.93
03.890,68.95
03.906,73.71
03.921,76.28
03.937,76.79
03.953,75.53
03.968,72.88
03.984,69.29
04.000,65.2
04.015,60.91
04.031,56.6
04.046,52.35
04.062,48.23
04.078,44.41
04.093,41.09
04.109,38.36
04.125,36.14
04.140,34.08
04.156,31.68
04.171,28.42
04.187,23.93
04.203,18.15
04.218,11.25
04.234,3.57
04.250,-4.45
04.265,-12.43
04.281,-20.11
04.296,-27.44
04.312,-34.58
04.328,-41.87
04.343,-49.72
04.359,-58.47
04.375,-68.15
04.390,-78.33
04.406,-88.0
04.421,-95.61
04.437,-99.43
04.453,-97.9
04.468,-90.19
04.484,-76.44
04.500,-57.97
04.515,-36.78
04.531,-15.15
04.546,5.07
04.562,22.72
04.578,37.43
04.593,49.36
04.609,58.84
04.625,66.18
04.640,71.53
04.656,75.01
04.671,76.78
04.687,77.05
04.703,76.11
04.718,74.23
04.734,71.54
04.750,68.16
04.765,64.17
04.781,59.74
04.796,55.23
04.812,51.07
04.828,47.64
04.843,45.12
04.859,43.41
04.875,42.14
04.890,40.74
04.906,38.66
04.921,35.51
04.937,31.12
04.953,25.59
04.968,19.15
04.984,12.15
05.000,4.85
05.015,-2.57
05.031,-10.01
05.046,-17.54
05.062,-25.29
05.078,-33.5
05.093,-42.45
05.109,-52.31
05.125,-62.98
05.140,-73.9
05.156,-83.97
05.171,-91.65
05.187,-95.32
05.203,-93.8
05.218,-86.7
05.234,-74.66
05.250,-59.06
05.265,-41.68
05.281,-24.19
05.296,-7.82
05.312,6.7
05.328,19.13
05.343,29.45
05.359,37.78
05.375,44.25
05.390,48.98
05.406,52.07
05.421,53.66
05.437,53.87
05.453,52.82
05.468,50.63
05.484,47.42
05.500,43.29
05.515,38.4
05.531,33.0
05.546,27.42
05.562,22.15
05.578,17.62
05.593,14.18
05.609,11.91
05.625,10.63
05.640,9.87
05.656,9.08
05.671,7.75
05.687,5.64
05.703,2.7
05.718,-0.84
05.734,-4.65
05.750,-8.46
05.765,-12.17
05.781,-15.86
05.796,-19.75
05.812,-24.11
05.828,-29.12
05.843,-34.92
05.859,-41.51
05.875,-48.68
05.890,-55.95
05.906,-62.48
05.921,-67.06
05.937,-68.37
05.953,-65.36
05.968,-57.53
05.984,-45.28
06.000,-29.77
06.015,-12.62
06.031,4.49
06.046,20.27
06.062,33.93
06.078,45.23
06.093,54.24
06.109,61.19
06.125,66.34
06.140,69.84
06.156,71.83
06.171,72.36
06.187,71.56
06.203,69.56
06.218,66.61
06.234,62.9
06.250,58.59
06.265,53.81
06.281,48.65
06.296,43.27
06.312,37.89
06.328,32.76
06.343,28.1
06.359,24.0
06.375,20.39
06.390,17.06
06.406,13.68
06.421,9.88
06.437,5.35
06.453,-0.11
06.468,-6.56
06.484,-13.88
06.500,-21.83
06.515,-30.05
06.531,-38.21
06.546,-46.04
06.562,-53.4
06.578,-60.34
06.593,-67.1
06.609,-74.07
06.625,-81.64
06.640,-90.08
06.656,-99.21
06.671,-108.3
06.687,-115.97
06.703,-120.54
06.718,-120.45
06.734,-114.78
06.750,-103.61
06.765,-87.95
06.781,-69.53
06.796,-50.26
06.812,-31.76
06.828,-15.01
06.843,-0.39
06.859,12.14
06.875,22.87
06.890,32.01
06.906,39.64
06.921,45.72
06.937,50.19
06.953,53.04
06.968,54.39
06.984,54.41
07.000,53.34
07.015,51.37
07.031,48.74
07.046,45.65
07.062,42.38
07.078,39.19
07.093,36.32
07.109,33.93
07.125,32.09
07.140,30.75
07.156,29.74
07.171,28.72
07.187,27.28
07.203,25.05
07.218,21.77
07.234,17.38
07.250,12.03
07.265,6.03
07.281,-0.25
07.296,-6.46
07.312,-12.4
07.328,-17.96
07.343,-23.25
07.359,-28.57
07.375,-34.35
07.390,-41.07
07.406,-48.97
07.421,-57.79
07.437,-66.62
07.453,-74.01
07.468,-78.28
07.484,-78.04
07.500,-72.61
07.515,-62.27
07.531,-48.18
07.546,-32.06
07.562,-15.67
07.578,-0.4
07.593,12.95
07.609,24.17
07.625,33.41
07.640,40.92
07.656,46.9
07.671,51.42
07.687,54.48
07.703,56.14
07.718,56.57
07.734,55.99
07.750,54.62
07.765,52.64
07.781,50.13
07.796,47.1
07.812,43.63
07.828,39.93
07.843,36.34
07.859,33.25
07.875,30.94
07.890,29.52
07.906,28.76
07.921,28.19
07.937,27.15
07.953,25.05
07.968,21.52
07.984,16.54
08.000,10.45
08.015,3.77
08.031,-2.91
08.046,-9.17
08.062,-14.76
08.078,-19.72
08.093,-24.28
08.109,-28.83
08.125,-33.8
08.140,-39.52
08.156,-46.05
08.171,-52.94
08.187,-59.23
08.203,-63.5
08.218,-64.24
08.234,-60.34
08.250,-51.54
08.265,-38.59
08.281,-22.94
08.296,-6.36
08.312,9.64
08.328,24.1
08.343,36.57
08.359,46.97
08.375,55.37
08.390,61.81
08.406,66.37
08.421,69.18
08.437,70.43
08.453,70.4
08.468,69.23
08.484,67.01
08.500,63.8
08.515,59.67
08.531,54.8
08.546,49.42
08.562,43.84
08.578,38.32
08.593,33.08
08.609,28.31
08.625,24.07
08.640,20.35
08.656,16.95
08.671,13.52
08.687,9.65
08.703,5.02
08.718,-0.5
08.734,-6.74
08.750,-13.4
08.765,-20.13
08.781,-26.74
08.796,-33.16
08.812,-39.46
08.828,-45.66
08.843,-51.82
08.859,-57.95
08.875,-64.16
08.890,-70.67
08.906,-77.69
08.921,-85.18
08.937,-92.65
08.953,-99.02
08.968,-102.81
08.984,-102.6
09.000,-97.42
09.015,-87.15
09.031,-72.55
09.046,-55.0
09.062,-36.12
09.078,-17.37
09.093,0.19
09.109,15.96
09.125,29.66
09.140,41.2
09.156,50.6
09.171,57.94
09.187,63.41
09.203,67.23
09.218,69.6
09.234,70.65
09.250,70.38
09.265,68.8
09.281,65.96
09.296,62.03
09.312,57.33
09.328,52.27
09.343,47.22
09.359,42.39
09.375,37.89
09.390,33.71
09.406,29.8
09.421,26.04
09.437,22.3
09.453,18.44
09.468,14.22
09.484,9.45
09.500,4.02
09.515,-2.07
09.531,-8.69
09.546,-15.63
09.562,-22.67
09.578,-29.66
09.593,-36.47
09.609,-43.09
09.625,-49.59
09.640,-56.2
09.656,-63.31
09.671,-71.35
09.687,-80.57
09.703,-90.71
09.718,-100.79
09.734,-109.23
09.750,-114.18
09.765,-114.05
09.781,-108.08
09.796,-96.62
09.812,-80.94
09.828,-62.9
09.843,-44.41
09.859,-26.95
09.875,-11.42
09.890,1.83
09.906,12.85
09.921,21.82
09.937,28.94
09.953,34.34
09.968,38.11
09.984,40.35
10.000,41.31
10.015,41.2
10.031,40.31
10.046,38.87
10.062,37.1
10.078,35.18
10.093,33.3
10.109,31.65
10.125,30.39
10.140,29.58
10.156,29.11
10.171,28.77
10.187,28.29
10.203,27.4
10.218,25.97
10.234,23.9
10.250,21.16
10.265,17.75
10.281,13.74
10.296,9.14
10.312,4.0
10.328,-1.58
10.343,-7.5
10.359,-13.64
10.375,-19.81
10.390,-25.82
10.406,-31.56
10.421,-37.14
10.437,-42.88
10.453,-49.27
10.468,-56.69
10.484,-65.09
10.500,-73.77
10.515,-81.39
10.531,-86.22
10.546,-86.72
10.562,-82.07
10.578,-72.33
10.593,-58.47
10.609,-42.05
10.625,-24.72
10.640,-7.91
10.656,7.46
10.671,20.9
10.687,32.21
10.703,41.39
10.718,48.58
10.734,53.98
10.750,57.81
10.765,60.29
10.781,61.55
10.796,61.64
10.812,60.61
10.828,58.51
10.843,55.57
10.859,52.14
10.875,48.59
10.890,45.24
10.906,42.22
10.921,39.55
10.937,37.14
10.953,34.96
10.968,33.0
10.984,31.29
11.000,29.81
11.015,28.35
11.031,26.59
11.046,24.14
11.062,20.7
11.078,16.18
11.093,10.84
11.109,5.1
11.125,-0.61
11.140,-5.97
11.156,-10.95
11.171,-15.65
11.187,-20.31
11.203,-25.19
11.218,-30.62
11.234,-36.86
11.250,-44.04
11.265,-51.83
11.281,-59.24
11.296,-64.7
11.312,-66.37
11.328,-62.81
11.343,-53.6
11.359,-39.57
11.375,-22.48
11.390,-4.44
11.406,12.8
11.421,28.24
11.437,41.59
11.453,52.92
11.468,62.28
11.484,69.62
11.500,74.76
11.515,77.61
11.531,78.27
11.546,77.01
11.562,74.2
11.578,70.18
11.593,65.24
11.609,59.63
11.625,53.57
11.640,47.29
11.656,41.03
11.671,35.06
11.687,29.65
11.703,25.08
11.718,21.48
11.734,18.76
11.750,16.6
11.765,14.42
11.781,11.62
11.796,7.76
11.812,2.75
11.828,-3.23
11.843,-9.74
11.859,-16.4
11.875,-22.92
11.890,-29.22
11.906,-35.37
11.921,-41.46
11.937,-47.55
11.953,-53.78
11.968,-60.34
11.984,-67.39
12.000,-74.9
12.015,-82.31
12.031,-88.48
12.046,-91.81
12.062,-90.73
12.078,-84.18
12.093,-72.11
12.109,-55.49
12.125,-36.06
12.140,-15.8
12.156,3.62
12.171,21.11
12.187,36.13
12.203,48.59
12.218,58.56
12.234,66.13
12.250,71.4
12.265,74.53
12.281,75.73
12.296,75.29
12.312,73.51
12.328,70.63
12.343,66.88
12.359,62.36
12.375,57.17
12.390,51.43
12.406,45.33
12.421,39.15
12.437,33.15
12.453,27.58
12.468,22.55
12.484,18.09
12.500,14.08
12.515,10.33
12.531,6.62
12.546,2.69
12.562,-1.75
12.578,-6.95
12.593,-13.02
12.609,-19.89
12.625,-27.32
12.640,-34.99
12.656,-42.55
12.671,-49.89
12.687,-57.03
12.703,-64.15
12.718,-71.53
12.734,-79.35
12.750,-87.67
12.765,-96.11
12.781,-103.87
12.796,-109.67
12.812,-112.07
12.828,-109.87
12.843,-102.49
12.859,-90.33
12.875,-74.59
12.890,-57.01
12.906,-39.35
12.921,-22.97
12.937,-8.62
12.953,3.51
12.968,13.58
12.984,21.91
13.000,28.76
13.015,34.34
13.031,38.75
13.046,42.02
13.062,44.17
13.078,45.21
13.093,45.22
13.109,44.26
13.125,42.44
13.140,39.92
13.156,36.87
13.171,33.51
13.187,30.09
13.203,26.88
13.218,24.1
13.234,21.84
13.250,20.02
13.265,18.44
13.281,16.85
13.296,15.02
13.312,12.77
13.328,10.03
13.343,6.83
13.359,3.2
13.375,-0.78
13.390,-5.04
13.406,-9.47
13.421,-13.99
13.437,-18.52
13.453,-23.11
13.468,-27.94
13.484,-33.38
13.500,-39.91
13.515,-47.81
13.531,-56.98
13.546,-66.72
13.562,-75.73
13.578,-82.38
13.593,-85.12
13.609,-82.95
13.625,-75.79
13.640,-64.37
13.656,-49.98
13.671,-34.14
13.687,-18.26
13.703,-3.4
13.718,9.77
13.734,20.93
13.750,30.04
13.765,37.21
13.781,42.64
13.796,46.52
13.812,49.01
13.828,50.19
13.843,50.18
13.859,49.08
13.875,47.07
13.890,44.39
13.906,41.28
13.921,38.01
13.937,34.79
13.953,31.78
13.968,29.12
13.984,26.92
14.000,25.22
14.015,24.01
14.031,23.18
14.046,22.48
14.062,21.57
14.078,19.96
14.093,17.27
14.109,13.32
14.125,8.23
14.140,2.41
14.156,-3.6
14.171,-9.28
14.187,-14.34
14.203,-18.84
14.218,-23.07
14.234,-27.47
14.250,-32.52
14.265,-38.54
14.281,-45.62
14.296,-53.39
14.312,-60.93
14.328,-66.85
14.343,-69.54
14.359,-67.64
14.375,-60.55
14.390,-48.59
14.406,-33.11
14.421,-15.88
14.437,1.34
14.453,17.26
14.468,31.23
14.484,43.12
14.500,52.96
14.515,60.84
14.531,66.75
14.546,70.69
14.562,72.85
14.578,73.43
14.593,72.8
14.609,71.23
14.625,68.83
14.640,65.57
14.656,61.41
14.671,56.38
14.687,50.68
14.703,44.71
14.718,38.93
14.734,33.73
14.750,29.38
14.765,25.9
14.781,23.07
14.796,20.47
14.812,17.59
14.828,13.97
14.843,9.37
14.859,3.83
14.875,-2.37
14.890,-8.82
14.906,-15.12
14.921,-21.02
14.937,-26.44
14.953,-31.55
14.968,-36.64
14.984,-42.1
15.000,-48.28
15.015,-55.31
15.031,-62.92
15.046,-70.34
15.062,-76.3
15.078,-79.32
15.093,-78.09
15.109,-71.91
15.125,-60.95
15.140,-46.27
15.156,-29.44
15.171,-12.12
15.187,4.29
15.203,19.0
15.218,31.66
15.234,42.26
15.250,50.87
15.265,57.53
15.281,62.24
15.296,65.02
15.312,66.04
15.328,65.57
15.343,63.93
15.359,61.4
15.375,58.12
15.390,54.15
15.406,49.51
15.421,44.33
15.437,38.89
15.453,33.61
15.468,28.84
15.484,24.81
15.500,21.44
15.515,18.42
15.531,15.3
15.546,11.66
15.562,7.19
15.578,1.78
15.593,-4.52
15.609,-11.52
15.625,-18.96
15.640,-26.58
15.656,-34.13
15.671,-41.42
15.687,-48.43
15.703,-55.3
15.718,-62.35
15.734,-70.01
15.750,-78.59
15.765,-88.03
15.781,-97.67
15.796,-106.22
15.812,-111.95
15.828,-113.2
15.843,-108.79
15.859,-98.52
15.875,-83.22
15.890,-64.55
15.906,-44.38
15.921,-24.47
15.937,-6.08
15.953,10.12
15.968,23.86
15.984,35.19
16.000,44.26
16.015,51.26
16.031,56.33
16.046,59.67
16.062,61.44
16.078,61.77
16.093,60.85
16.109,58.89
16.125,56.05
16.140,52.54
16.156,48.55
16.171,44.28
16.187,40.07
16.203,36.3
16.218,33.35
16.234,31.48
16.250,30.71
16.265,30.73
16.281,31.01
16.296,30.92
16.312,29.89
16.328,27.54
16.343,23.77
16.359,18.67
16.375,12.52
16.390,5.69
16.406,-1.48
16.421,-8.7
16.437,-15.83
16.453,-22.91
16.468,-30.18
16.484,-37.94
16.500,-46.55
16.515,-56.16
16.531,-66.56
16.546,-77.03
16.562,-86.27
16.578,-92.65
16.593,-94.63
16.609,-91.2
16.625,-82.25
16.640,-68.66
16.656,-52.01
16.671,-34.18
16.687,-16.83
16.703,-1.03
16.718,12.65
16.734,24.08
16.750,33.36
16.765,40.63
16.781,46.07
16.796,49.85
16.812,52.23
16.828,53.4
16.843,53.52
16.859,52.61
16.875,50.58
16.890,47.35
16.906,42.97
16.921,37.73
16.937,32.12
16.953,26.76
16.968,22.15
16.984,18.62
17.000,16.17
17.015,14.57
17.031,13.5
17.046,12.65
17.062,11.72
17.078,10.48
17.093,8.68
17.109,6.11
17.125,2.67
17.140,-1.61
17.156,-6.51
17.171,-11.72
17.187,-16.94
17.203,-21.99
17.218,-26.93
17.234,-31.96
17.250,-37.48
17.265,-43.89
17.281,-51.43
17.296,-60.02
17.312,-68.92
17.328,-76.83
17.343,-82.0
17.359,-82.71
17.375,-77.84
17.390,-67.23
17.406,-51.79
17.421,-33.18
17.437,-13.36
17.453,5.95
17.468,23.59
17.484,38.99
17.500,51.99
17.515,62.64
17.531,71.02
17.546,77.26
17.562,81.45
17.578,83.81
17.593,84.56
17.609,83.97
17.625,82.24
17.640,79.45
17.656,75.63
17.671,70.74
17.687,64.84
17.703,58.15
17.718,51.05
17.734,44.07
17.750,37.71
17.765,32.29
17.781,27.89
17.796,24.3
17.812,21.13
17.828,17.86
17.843,14.1
17.859,9.58
17.875,4.19
17.890,-1.95
17.906,-8.63
17.921,-15.5
17.937,-22.22
17.953,-28.47
17.968,-34.09
17.984,-39.11
18.000,-43.81
18.015,-48.73
18.031,-54.47
18.046,-61.42
18.062,-69.47
18.078,-77.78
18.093,-84.88
18.109,-88.97
18.125,-88.52
18.140,-82.74
18.156,-71.83
18.171,-56.9
18.187,-39.53
18.203,-21.36
18.218,-3.73
18.234,12.53
18.250,26.93
18.265,39.23
18.281,49.36
18.296,57.33
18.312,63.26
18.328,67.31
18.343,69.73
18.359,70.72
18.375,70.46
18.390,69.08
18.406,66.72
18.421,63.49
18.437,59.64
18.453,55.45
18.468,51.25
18.484,47.32
18.500,43.89
18.515,41.0
18.531,38.54
18.546,36.29
18.562,33.99
18.578,31.34
18.593,28.04
18.609,23.88
18.625,18.67
18.640,12.48
18.656,5.47
18.671,-2.03
18.687,-9.63
18.703,-17.0
18.718,-24.02
18.734,-30.81
18.750,-37.67
18.765,-45.04
18.781,-53.11
18.796,-61.77
18.812,-70.37
18.828,-77.71
18.843,-82.33
18.859,-82.85
18.875,-78.43
18.890,-69.06
18.906,-55.65
18.921,-39.74
18.937,-23.02
18.953,-7.01
18.968,7.28
18.984,19.34
19.000,29.09
19.015,36.71
19.031,42.48
19.046,46.7
19.062,49.55
19.078,51.2
19.093,51.68
19.109,51.06
19.125,49.38
19.140,46.72
19.156,43.14
19.171,38.8
19.187,33.81
19.203,28.44
19.218,23.07
19.234,18.12
19.250,13.97
19.265,10.73
19.281,8.24
19.296,6.03
19.312,3.59
19.328,0.43
19.343,-3.66
19.359,-8.62
19.375,-14.16
19.390,-19.87
19.406,-25.37
19.421,-30.4
19.437,-34.9
19.453,-39.0
19.468,-43.1
19.484,-47.67
19.500,-53.16
19.515,-59.86
19.531,-67.66
19.546,-75.98
19.562,-83.72
19.578,-89.42
19.593,-91.54
19.609,-88.96
19.625,-81.31
19.640,-69.06
19.656,-53.47
19.671,-36.14
19.687,-18.6
19.703,-2.03
19.718,12.85
19.734,25.68
19.750,36.31
19.765,44.67
19.781,50.82
19.796,54.87
19.812,57.07
19.828,57.67
19.843,56.99
19.859,55.22
19.875,52.48
19.890,48.88
19.906,44.46
19.921,39.39
19.937,33.83
19.953,28.04
19.968,22.28
19.984,16.79
20.000,11.83
20.015,7.6
20.031,4.23
20.046,1.73
20.062,-0.08
20.078,-1.56
20.093,-3.19
20.109,-5.42
20.125,-8.53
20.140,-12.55
20.156,-17.24
20.171,-22.23
20.187,-27.13
20.203,-31.64
20.218,-35.71
20.234,-39.46
20.250,-43.26
20.265,-47.51
20.281,-52.58
20.296,-58.57
20.312,-65.08
20.328,-71.16
20.343,-75.41
20.359,-76.3
20.375,-72.66
20.390,-64.06
20.406,-50.96
20.421,-34.63
20.437,-16.74
20.453,1.1
20.468,17.69
20.484,32.32
20.500,44.75
20.515,54.98
20.531,63.16
20.546,69.53
20.562,74.33
20.578,77.85
20.593,80.27
20.609,81.62
20.625,81.83
20.640,80.72
20.656,78.24
20.671,74.49
20.687,69.79
20.703,64.58
20.718,59.24
20.734,54.05
20.750,49.13
20.765,44.54
20.781,40.25
20.796,36.26
20.812,32.47
20.828,28.69
20.843,24.62
20.859,19.97
20.875,14.48
20.890,8.16
20.906,1.2
20.921,-6.0
20.937,-13.07
20.953,-19.73
20.968,-25.92
20.984,-31.8
21.000,-37.59
21.015,-43.66
21.031,-50.34
21.046,-57.9
21.062,-66.43
21.078,-75.57
21.093,-84.41
21.109,-91.54
21.125,-95.35
21.140,-94.5
21.156,-88.41
21.171,-77.46
21.187,-62.87
21.203,-46.33
21.218,-29.45
21.234,-13.54
21.250,0.6
21.265,12.62
21.281,22.42
21.296,30.13
21.312,35.93
21.328,40.12
21.343,42.93
21.359,44.65
21.375,45.46
21.390,45.53
21.406,44.95
21.421,43.82
21.437,42.17
21.453,40.06
21.468,37.62
21.484,34.91
21.500,32.11
21.515,29.41
21.531,26.97
21.546,24.86
21.562,23.03
21.578,21.31
21.593,19.41
21.609,17.08
21.625,14.13
21.640,10.51
21.656,6.36
21.671,1.97
21.687,-2.33
21.703,-6.33
21.718,-9.99
21.734,-13.54
21.750,-17.33
21.765,-21.81
21.781,-27.31
21.796,-34.02
21.812,-41.76
21.828,-49.82
21.843,-57.05
21.859,-61.94
21.875,-63.03
21.890,-59.33
21.906,-50.7
21.921,-37.9
21.937,-22.46
21.953,-6.14
21.968,9.47
21.984,23.22
22.000,34.54
22.015,43.33
22.031,49.74
22.046,54.05
22.062,56.55
22.078,57.55
22.093,57.27
22.109,55.89
22.125,53.55
22.140,50.42
22.156,46.68
22.171,42.51
22.187,38.07
22.203,33.46
22.218,28.72
22.234,23.98
22.250,19.38
22.265,15.18
22.281,11.62
22.296,8.74
22.312,6.4
22.328,4.21
22.343,1.61
22.359,-1.83
22.375,-6.35
22.390,-11.89
22.406,-18.14
22.421,-24.62
22.437,-30.91
22.453,-36.7
22.468,-41.91
22.484,-46.68
22.500,-51.35
22.515,-56.36
22.531,-62.16
22.546,-69.02
22.562,-76.78
22.578,-84.75
22.593,-91.65
22.609,-95.9
22.625,-96.05
22.640,-91.23
22.656,-81.46
22.671,-67.67
22.687,-51.37
22.703,-34.19
22.718,-17.55
22.734,-2.36
22.750,10.91
22.765,22.09
22.781,31.21
22.796,38.4
22.812,43.87
22.828,47.85
22.843,50.63
22.859,52.3
22.875,52.87
22.890,52.2
22.906,50.17
22.921,46.84
22.937,42.44
22.953,37.38
22.968,32.06
22.984,26.77
23.000,21.67
23.015,16.86
23.031,12.42
23.046,8.36
23.062,4.69
23.078,1.25
23.093,-2.24
23.109,-6.01
23.125,-10.22
23.140,-14.79
23.156,-19.45
23.171,-23.9
23.187,-27.91
23.203,-31.43
23.218,-34.64
23.234,-37.83
23.250,-41.3
23.265,-45.33
23.281,-50.18
23.296,-55.91
23.312,-62.38
23.328,-69.07
23.343,-75.01
23.359,-78.88
23.375,-79.34
23.390,-75.35
23.406,-66.53
23.421,-53.26
23.437,-36.67
23.453,-18.29
23.468,0.28
23.484,17.76
23.500,33.3
23.515,46.47
23.531,57.24
23.546,65.64
23.562,71.82
23.578,75.91
23.593,78.04
23.609,78.42
23.625,77.29
23.640,74.91
23.656,71.54
23.671,67.37
23.687,62.53
23.703,57.18
23.718,51.51
23.734,45.72
23.750,40.01
23.765,34.55
23.781,29.47
23.796,24.77
23.812,20.43
23.828,16.2
23.843,11.82
23.859,7.05
23.875,1.72
23.890,-4.16
23.906,-10.45
23.921,-16.97
23.937,-23.57
23.953,-30.13
23.968,-36.63
23.984,-42.99
24.000,-49.11
24.015,-54.98
24.031,-60.73
24.046,-66.68
24.062,-73.2
24.078,-80.46
24.093,-88.12
24.109,-95.27
24.125,-100.5
24.140,-102.25
24.156,-99.34
24.171,-91.24
24.187,-78.34
24.203,-61.74
24.218,-42.95
24.234,-23.51
24.250,-4.73
24.265,12.48
24.281,27.58
24.296,40.31
24.312,50.67
24.328,58.78
24.343,64.84
24.359,69.02
24.375,71.51
24.390,72.46
24.406,72.07
24.421,70.6
24.437,68.29
24.453,65.37
24.468,62.01
24.484,58.31
24.500,54.37
24.515,50.34
24.531,46.36
24.546,42.57
24.562,38.98
24.578,35.55
24.593,32.13
24.609,28.6
24.625,24.83
24.640,20.74
24.656,16.2
24.671,11.09
24.687,5.35
24.703,-0.94
24.718,-7.58
24.734,-14.25
24.750,-20.66
24.765,-26.7
24.781,-32.47
24.796,-38.33
24.812,-44.74
24.828,-52.05
24.843,-60.24
24.859,-68.8
24.875,-76.6
24.890,-82.15
24.906,-83.94
24.921,-80.91
24.937,-72.77
24.953,-60.19
24.968,-44.53
24.984,-27.43
25.000,-10.44
25.015,5.32
25.031,19.2
25.046,30.97
25.062,40.62
25.078,48.28
25.093,54.07
25.109,58.16
25.125,60.72
25.140,61.91
25.156,61.96
25.171,61.04
25.187,59.34
25.203,57.0
25.218,54.09
25.234,50.64
25.250,46.78
25.265,42.68
25.281,38.63
25.296,34.98
25.312,31.93
25.328,29.45
25.343,27.26
25.359,24.89
25.375,21.88
25.390,17.97
25.406,13.11
25.421,7.51
25.437,1.47
25.453,-4.69
25.468,-10.75
25.484,-16.58
25.500,-22.23
25.515,-27.83
25.531,-33.68
25.546,-40.13
25.562,-47.49
25.578,-55.72
25.593,-64.36
25.609,-72.36
25.625,-78.26
25.640,-80.57
25.656,-78.17
25.671,-70.77
25.687,-58.92
25.703,-43.94
25.718,-27.48
25.734,-11.12
25.750,3.98
25.765,17.16
25.781,28.22
25.796,37.14
25.812,43.97
25.828,48.8
25.843,51.73
25.859,52.99
25.875,52.92
25.890,51.86
25.906,50.11
25.921,47.8
25.937,44.97
25.953,41.6
25.968,37.71
25.984,33.53
26.000,29.33
26.015,25.39
26.031,21.91
26.046,18.94
26.062,16.3
26.078,13.76
26.093,10.95
26.109,7.47
26.125,3.1
26.140,-2.2
26.156,-8.27
26.171,-14.73
26.187,-21.18
26.203,-27.32
26.218,-33.03
26.234,-38.42
26.250,-43.77
26.265,-49.41
26.281,-55.69
26.296,-62.83
26.312,-70.87
26.328,-79.44
26.343,-87.68
26.359,-94.33
26.375,-97.91
26.390,-97.1
26.406,-91.24
26.421,-80.55
26.437,-66.12
26.453,-49.54
26.468,-32.5
26.484,-16.32
26.500,-1.8
26.515,10.76
26.531,21.37
26.546,30.16
26.562,37.3
26.578,43.02
26.593,47.55
26.609,51.06
26.625,53.66
26.640,55.3
26.656,55.86
26.671,55.23
26.687,53.42
26.703,50.64
26.718,47.34
26.734,43.95
26.750,40.83
26.765,38.2
26.781,36.08
26.796,34.43
26.812,33.08
26.828,31.8
26.843,30.3
26.859,28.2
26.875,25.14
26.890,20.82
26.906,15.14
26.921,8.2
26.937,0.33
26.953,-8.08
26.968,-16.62
26.984,-25.0
27.000,-33.1
27.015,-41.01
27.031,-49.02
27.046,-57.49
27.062,-66.67
27.078,-76.44
27.093,-86.1
27.109,-94.43
27.125,-99.85
27.140,-100.96
27.156,-96.94
27.171,-87.92
27.187,-74.88
27.203,-59.42
27.218,-43.2
27.234,-27.58
27.250,-13.41
27.265,-0.98
27.281,9.72
27.296,18.86
27.312,26.58
27.328,32.94
27.343,37.92
27.359,41.54
27.375,43.85
27.390,44.97
27.406,45.08
27.421,44.31
27.437,42.8
27.453,40.62
27.468,37.92
27.484,34.87
27.500,31.81
27.515,29.12
27.531,27.12
27.546,25.99
27.562,25.6
27.578,25.59
27.593,25.49
27.609,24.8
27.625,23.13
27.640,20.29
27.656,16.27
27.671,11.27
27.687,5.54
27.703,-0.52
27.718,-6.5
27.734,-12.14
27.750,-17.35
27.765,-22.36
27.781,-27.62
27.796,-33.71
27.812,-41.0
27.828,-49.41
27.843,-58.24
27.859,-66.21
27.875,-71.75
27.890,-73.45
27.906,-70.44
27.921,-62.63
27.937,-50.71
27.953,-35.92
27.968,-19.69
27.984,-3.36
28.000,11.99
28.015,25.66
28.031,37.23
28.046,46.57
28.062,53.78
28.078,59.07
28.093,62.66
28.109,64.77
28.125,65.5
28.140,64.95
28.156,63.15
28.171,60.26
28.187,56.49
28.203,52.13
28.218,47.54
28.234,43.0
28.250,38.83
28.265,35.22
28.281,32.33
28.296,30.19
28.312,28.69
28.328,27.6
28.343,26.62
28.359,25.42
28.375,23.7
28.390,21.26
28.406,18.02
28.421,13.99
28.437,9.31
28.453,4.2
28.468,-1.06
28.484,-6.31
28.500,-11.51
28.515,-16.82
28.531,-22.58
28.546,-29.26
28.562,-37.05
28.578,-45.72
28.593,-54.42
28.609,-61.77
28.625,-66.15
28.640,-66.19
28.656,-61.26
28.671,-51.61
28.687,-38.4
28.703,-23.18
28.718,-7.52
28.734,7.38
28.750,20.77
28.765,32.31
28.781,41.92
28.796,49.57
28.812,55.39
28.828,59.5
28.843,62.12
28.859,63.39
28.875,63.41
28.890,62.16
28.906,59.66
28.921,56.04
28.937,51.53
28.953,46.54
28.968,41.44
28.984,36.52
29.000,31.97
29.015,27.87
29.031,24.28
29.046,21.29
29.062,18.91
29.078,17.05
29.093,15.38
29.109,13.43
29.125,10.68
29.140,6.82
29.156,1.78
29.171,-4.07
29.187,-10.21
29.203,-16.07
29.218,-21.34
29.234,-26.04
29.250,-30.53
29.265,-35.34
29.281,-40.98
29.296,-47.8
29.312,-55.76
29.328,-64.41
29.343,-72.84
29.359,-79.79
29.375,-83.87
29.390,-83.92
29.406,-79.36
29.421,-70.29
29.437,-57.51
29.453,-42.34
29.468,-26.21
29.484,-10.4
29.500,4.14
29.515,16.87
29.531,27.55
29.546,36.15
29.562,42.79
29.578,47.75
29.593,51.28
29.609,53.6
29.625,54.78
29.640,54.8
29.656,53.61
29.671,51.18
29.687,47.62
29.703,43.28
29.718,38.6
29.734,34.03
29.750,29.89
29.765,26.34
29.781,23.44
29.796,21.18
29.812,19.56
29.828,18.51
29.843,17.95
29.859,17.65
29.875,17.2
29.890,16.2
29.906,14.22
29.921,11.07
29.937,6.8
29.953,1.72
29.968,-3.78
29.984,-9.33
30.000,-14.73
30.015,-20.01
30.031,-25.42
30.046,-31.34
30.062,-38.17
30.078,-46.18
30.093,-55.32
30.109,-65.05
30.125,-74.36
30.140,-81.83
30.156,-85.96
30.171,-85.55
30.187,-80.09
30.203,-69.93
30.218,-56.1
30.234,-40.14
30.250,-23.59
30.265,-7.84
30.281,6.21
30.296,18.07
30.312,27.65
30.328,35.13
30.343,40.79
30.359,44.94
30.375,47.81
30.390,49.5
30.406,50.0
30.421,49.29
30.437,47.3
30.453,44.12
30.468,39.99
30.484,35.21
30.500,30.21
30.515,25.42
30.531,21.17
30.546,17.65
30.562,14.87
30.578,12.63
30.593,10.62
30.609,8.48
30.625,5.87
30.640,2.64
30.656,-1.23
30.671,-5.63
30.687,-10.45
30.703,-15.67
30.718,-21.29
30.734,-27.31
30.750,-33.62
30.765,-39.93
30.781,-45.88
30.796,-51.17
30.812,-55.73
30.828,-59.8
30.843,-63.86
30.859,-68.56
30.875,-74.25
30.890,-80.9
30.906,-87.82
30.921,-93.71
30.937,-97.02
30.953,-96.35
30.968,-90.83
30.984,-80.52
31.000,-66.28
31.015,-49.55
31.031,-31.93
31.046,-14.84
31.062,0.78
31.078,14.4
31.093,25.88
31.109,35.31
31.125,42.86
31.140,48.74
31.156,53.08
31.171,55.96
31.187,57.43
31.203,57.53
31.218,56.39
31.234,54.23
31.250,51.35
31.265,48.07
31.281,44.72
31.296,41.52
31.312,38.58
31.328,36.0
31.343,33.72
31.359,31.67
31.375,29.7
31.390,27.73
31.406,25.66
31.421,23.46
31.437,21.08
31.453,18.44
31.468,15.45
31.484,12.0
31.500,8.01
31.515,3.45
31.531,-1.59
31.546,-6.93
31.562,-12.38
31.578,-17.74
31.593,-22.97
31.609,-28.16
31.625,-33.57
31.640,-39.6
31.656,-46.58
31.671,-54.56
31.687,-63.05
31.703,-70.97
31.718,-76.84
31.734,-79.16
31.750,-76.82
31.765,-69.47
31.781,-57.6
31.796,-42.4
31.812,-25.48
31.828,-8.43
31.843,7.49
31.859,21.46
31.875,33.1
31.890,42.39
31.906,49.47
31.921,54.56
31.937,57.88
31.953,59.62
31.968,60.04
31.984,59.4
32.000,58.0
32.015,56.06
32.031,53.71
32.046,51.01
32.062,47.89
32.078,44.39
32.093,40.66
32.109,37.03
32.125,33.88
32.140,31.53
32.156,30.0
32.171,28.99
32.187,27.98
32.203,26.36
32.218,23.74
32.234,20.04
32.250,15.47
32.265,10.43
32.281,5.27
32.296,0.15
32.312,-4.89
32.328,-9.89
32.343,-14.94
32.359,-20.13
32.375,-25.72
32.390,-32.05
32.406,-39.36
32.421,-47.52
32.437,-55.78
32.453,-62.72
32.468,-66.59
32.484,-65.97
32.500,-60.18
32.515,-49.64
32.531,-35.68
32.546,-20.05
32.562,-4.36
32.578,10.22
32.593,23.12
32.609,34.15
32.625,43.26
32.640,50.47
32.656,55.85
32.671,59.45
32.687,61.47
32.703,62.08
32.718,61.47
32.734,59.81
32.750,57.17
32.765,53.68
32.781,49.49
32.796,44.83
32.812,39.88
32.828,34.93
32.843,30.24
32.859,26.1
32.875,22.69
32.890,19.98
32.906,17.68
32.921,15.33
32.937,12.34
32.953,8.28
32.968,3.01
32.984,-3.3
33.000,-10.21
33.015,-17.24
33.031,-23.97
33.046,-30.21
33.062,-35.97
33.078,-41.49
33.093,-47.18
33.109,-53.46
33.125,-60.73
33.140,-69.09
33.156,-78.23
33.171,-87.3
33.187,-94.93
33.203,-99.56
33.218,-99.76
33.234,-94.73
33.250,-84.49
33.265,-70.01
33.281,-52.8
33.296,-34.56
33.312,-16.83
33.328,-0.63
33.343,13.48
33.359,25.37
33.375,35.13
33.390,42.97
33.406,49.06
33.421,53.59
33.437,56.7
33.453,58.39
33.468,58.71
33.484,57.65
33.500,55.27
33.515,51.72
33.531,47.21
33.546,42.0
33.562,36.43
33.578,30.85
33.593,25.62
33.609,21.1
33.625,17.49
33.640,14.86
33.656,12.98
33.671,11.33
33.687,9.29
33.703,6.29
33.718,2.09
33.734,-3.22
33.750,-9.2
33.765,-15.37
33.781,-21.32
33.796,-26.88
33.812,-32.11
33.828,-37.17
33.843,-42.36
33.859,-47.91
33.875,-54.14
33.890,-61.18
33.906,-68.89
33.921,-76.6
33.937,-83.09
33.953,-86.79
33.968,-86.19
33.984,-80.4
34.000,-69.45
34.015,-54.36
34.031,-36.78
34.046,-18.49
34.062,-1.02
34.078,14.64
34.093,28.01
34.109,39.05
34.125,47.86
34.140,54.67
34.156,59.71
34.171,63.18
34.187,65.29
34.203,66.16
34.218,65.9
34.234,64.53
34.250,62.1
34.265,58.55
34.281,54.0
34.296,48.58
34.312,42.62
34.328,36.54
34.343,30.78
34.359,25.71
34.375,21.56
34.390,18.28
34.406,15.59
34.421,13.13
34.437,10.42
34.453,7.06
34.468,2.76
34.484,-2.53
34.500,-8.7
34.515,-15.39
34.531,-22.25
34.546,-28.96
34.562,-35.36
34.578,-41.54
34.593,-47.69
34.609,-54.15
34.625,-61.23
34.640,-69.18
34.656,-77.94
34.671,-87.06
34.687,-95.49
34.703,-101.73
34.718,-104.14
34.734,-101.39
34.750,-92.96
34.765,-79.35
34.781,-61.99
34.796,-42.78
34.812,-23.59
34.828,-5.82
34.843,9.77
34.859,22.93
34.875,33.83
34.890,42.78
34.906,50.08
34.921,55.96
34.937,60.53
34.953,63.81
34.968,65.76
34.984,66.36
35.000,65.54
35.015,63.4
35.031,60.14
35.046,56.01
35.062,51.37
35.078,46.53
35.093,41.87
35.109,37.65
35.125,34.12
35.140,31.37
35.156,29.29
35.171,27.57
35.187,25.72
35.203,23.23
35.218,19.76
35.234,15.25
35.250,9.91
35.265,4.16
35.281,-1.54
35.296,-6.86
35.312,-11.65
35.328,-16.01
35.343,-20.19
35.359,-24.58
35.375,-29.57
35.390,-35.55
35.406,-42.71
35.421,-50.83
35.437,-59.12
35.453,-66.31
35.468,-70.83
35.484,-71.32
35.500,-67.02
35.515,-58.07
35.531,-45.41
35.546,-30.5
35.562,-14.94
35.578,0.04
35.593,13.63
35.609,25.45
35.625,35.41
35.640,43.55
35.656,49.92
35.671,54.56
35.687,57.58
35.703,59.09
35.718,59.27
35.734,58.29
35.750,56.3
35.765,53.42
35.781,49.75
35.796,45.44
35.812,40.73
35.828,35.94
35.843,31.45
35.859,27.56
35.875,24.46
35.890,22.16
35.906,20.4
35.921,18.72
35.937,16.63
35.953,13.7
35.968,9.73
35.984,4.83
36.000,-0.66
36.015,-6.33
36.031,-11.88
36.046,-17.16
36.062,-22.26
36.078,-27.39
36.093,-32.83
36.109,-38.87
36.125,-45.72
36.140,-53.43
36.156,-61.69
36.171,-69.65
36.187,-75.95
36.203,-78.99
36.218,-77.35
36.234,-70.41
36.250,-58.53
36.265,-43.01
36.281,-25.75
36.296,-8.53
36.312,7.35
36.328,21.25
36.343,33.05
36.359,42.96
36.375,51.2
36.390,57.97
36.406,63.37
36.421,67.43
36.437,70.16
36.453,71.57
36.468,71.63
36.484,70.4
36.500,68.02
36.515,64.7
36.531,60.7
36.546,56.31
36.562,51.77
36.578,47.36
36.593,43.29
36.609,39.7
36.625,36.68
36.640,34.12
36.656,31.74
36.671,29.11
36.687,25.79
36.703,21.42
36.718,15.89
36.734,9.33
36.750,2.15
36.765,-5.13
36.781,-12.06
36.796,-18.5
36.812,-24.52
36.828,-30.53
36.843,-36.99
36.859,-44.32
36.875,-52.72
36.890,-62.02
36.906,-71.57
36.921,-80.36
36.937,-87.06
36.953,-90.3
36.968,-88.99
36.984,-82.7
37.000,-71.72
37.015,-57.13
37.031,-40.47
37.046,-23.38
37.062,-7.29
37.078,6.86
37.093,18.66
37.109,28.14
37.125,35.57
37.140,41.3
37.156,45.56
37.171,48.42
37.187,49.85
37.203,49.83
37.218,48.43
37.234,45.88
37.250,42.42
37.265,38.29
37.281,33.72
37.296,28.91
37.312,24.11
37.328,19.6
37.343,15.66
37.359,12.52
37.375,10.27
37.390,8.85
37.406,8.12
37.421,7.87
37.437,7.83
37.453,7.75
37.468,7.36
37.484,6.46
37.500,4.92
37.515,2.75
37.531,0.02
37.546,-3.19
37.562,-6.81
37.578,-10.86
37.593,-15.32
37.609,-20.32
37.625,-26.02
37.640,-32.71
37.656,-40.56
37.671,-49.49
37.687,-58.92
37.703,-67.63
37.718,-74.01
37.734,-76.45
37.750,-73.87
37.765,-66.06
37.781,-53.78
37.796,-38.43
37.812,-21.72
37.828,-5.19
37.843,10.05
37.859,23.28
37.875,34.14
37.890,42.57
37.906,48.71
37.921,52.82
37.937,55.2
37.953,56.05
37.968,55.49
37.984,53.58
38.000,50.36
38.015,46.01
38.031,40.79
38.046,35.06
38.062,29.09
38.078,23.14
38.093,17.37
38.109,11.97
38.125,7.1
38.140,2.88
38.156,-0.69
38.171,-3.78
38.187,-6.64
38.203,-9.54
38.218,-12.72
38.234,-16.29
38.250,-20.29
38.265,-24.75
38.281,-29.65
38.296,-34.89
38.312,-40.3
38.328,-45.63
38.343,-50.64
38.359,-55.19
38.375,-59.31
38.390,-63.29
38.406,-67.65
38.421,-72.89
38.437,-79.25
38.453,-86.47
38.468,-93.59
38.484,-99.12
38.500,-101.36
38.515,-98.86
38.531,-90.9
38.546,-77.77
38.562,-60.59
38.578,-41.05
38.593,-20.94
38.609,-1.75
38.625,15.56
38.640,30.57
38.656,43.25
38.671,53.75
38.687,62.22
38.703,68.75
38.718,73.32
38.734,75.92
38.750,76.61
38.765,75.52
38.781,72.92
38.796,69.09
38.812,64.31
38.828,58.9
38.843,53.17
38.859,47.47
38.875,42.12
38.890,37.42
38.906,33.59
38.921,30.61
38.937,28.23
38.953,26.02
38.968,23.45
38.984,20.06
39.000,15.64
39.015,10.17
39.031,3.97
39.046,-2.62
39.062,-9.26
39.078,-15.71
39.093,-21.85
39.109,-27.7
39.125,-33.34
39.140,-39.05
39.156,-45.21
39.171,-52.26
39.187,-60.41
39.203,-69.33
39.218,-78.04
39.234,-84.97
39.250,-88.32
39.265,-86.67
39.281,-79.4
39.296,-66.95
39.312,-50.57
39.328,-32.04
39.343,-13.1
39.359,4.89
39.375,21.09
39.390,35.06
39.406,46.67
39.421,55.88
39.437,62.73
39.453,67.38
39.468,70.05
39.484,71.1
39.500,70.89
39.515,69.7
39.531,67.66
39.546,64.78
39.562,61.03
39.578,56.52
39.593,51.59
39.609,46.64
39.625,42.18
39.640,38.51
39.656,35.78
39.671,33.85
39.687,32.35
39.703,30.81
39.718,28.74
39.734,25.75
39.750,21.61
39.765,16.44
39.781,10.57
39.796,4.51
39.812,-1.25
39.828,-6.45
39.843,-11.15
39.859,-15.76
39.875,-20.84
39.890,-26.96
39.906,-34.4
39.921,-42.99
39.937,-52.03
39.953,-60.28
39.968,-66.2
39.984,-68.23
40.000,-65.32
40.015,-57.19
40.031,-44.56
40.046,-28.86
40.062,-11.92
40.078,4.55
40.093,19.36
40.109,31.93
40.125,42.15
40.140,50.19
40.156,56.3
40.171,60.6
40.187,63.16
40.203,63.99
40.218,63.16
40.234,60.88
40.250,57.37
40.265,52.91
40.281,47.73
40.296,41.96
40.312,35.7
40.328,29.14
40.343,22.62
40.359,16.61
40.375,11.53
40.390,7.62
40.406,4.77
40.421,2.61
40.437,0.62
40.453,-1.71
40.468,-4.69
40.484,-8.46
40.500,-12.92
40.515,-17.86
40.531,-22.94
40.546,-27.83
40.562,-32.34
40.578,-36.42
40.593,-40.33
40.609,-44.53
40.625,-49.55
40.640,-55.74
40.656,-63.02
40.671,-70.73
40.687,-77.73
40.703,-82.53
40.718,-83.65
40.734,-80.01
40.750,-71.24
40.765,-57.87
40.781,-41.16
40.796,-22.78
40.812,-4.37
40.828,12.78
40.843,27.88
40.859,40.65
40.875,51.03
40.890,59.15
40.906,65.12
40.921,69.1
40.937,71.26
40.953,71.92
40.968,71.37
40.984,69.84
41.000,67.46
41.015,64.2
41.031,59.99
41.046,54.87
41.062,49.01
41.078,42.74
41.093,36.53
41.109,30.78
41.125,25.78
41.140,21.6
41.156,18.11
41.171,14.99
41.187,11.8
41.203,8.11
41.218,3.49
41.234,-2.28
41.250,-9.14
41.265,-16.79
41.281,-24.74
41.296,-32.56
41.312,-39.97
41.328,-46.99
41.343,-53.83
41.359,-60.84
41.375,-68.36
41.390,-76.61
41.406,-85.58
41.421,-94.91
41.437,-103.84
41.453,-111.09
41.468,-115.15
41.484,-114.64
41.500,-108.77
41.515,-97.71
41.531,-82.56
41.546,-65.06
41.562,-46.98
41.578,-29.73
41.593,-14.06
41.609,-0.15
41.625,12.05
41.640,22.64
41.656,31.62
41.671,38.93
41.687,44.61
41.703,48.8
41.718,51.65
41.734,53.29
41.750,53.72
41.765,52.89
41.781,50.78
41.796,47.55
41.812,43.56
41.828,39.29
41.843,35.26
41.859,31.81
41.875,29.15
41.890,27.2
41.906,25.69
41.921,24.21
41.937,22.28
41.953,19.48
41.968,15.63
41.984,10.76
42.000,5.2
42.015,-0.57
42.031,-6.09
42.046,-11.11
42.062,-15.6
42.078,-19.8
42.093,-24.1
42.109,-28.92
42.125,-34.66
42.140,-41.57
42.156,-49.61
42.171,-58.39
42.187,-67.0
42.203,-74.09
42.218,-78.07
42.234,-77.56
42.250,-71.83
42.265,-61.09
42.281,-46.51
42.296,-29.82
42.312,-12.88
42.328,2.87
42.343,16.57
42.359,27.98
42.375,37.25
42.390,44.65
42.406,50.4
42.421,54.63
42.437,57.48
42.453,59.06
42.468,59.56
42.484,59.14
42.500,57.86
42.515,55.66
42.531,52.45
42.546,48.27
42.562,43.38
42.578,38.25
42.593,33.45
42.609,29.46
42.625,26.47
42.640,24.32
42.656,22.56
42.671,20.67
42.687,18.18
42.703,14.87
42.718,10.73
42.734,5.94
42.750,0.75
42.765,-4.57
42.781,-9.81
42.796,-14.84
42.812,-19.59
42.828,-24.19
42.843,-28.89
42.859,-34.06
42.875,-40.09
42.890,-47.1
42.906,-54.78
42.921,-62.21
42.937,-68.0
42.953,-70.67
42.968,-69.11
42.984,-62.9
43.000,-52.55
43.015,-39.22
43.031,-24.4
43.046,-9.51
43.062,4.39
43.078,16.69
43.093,27.14
43.109,35.74
43.125,42.61
43.140,47.79
43.156,51.31
43.171,53.17
43.187,53.41
43.203,52.22
43.218,49.81
43.234,46.53
43.250,42.62
43.265,38.27
43.281,33.59
43.296,28.65
43.312,23.57
43.328,18.56
43.343,13.88
43.359,9.77
43.375,6.39
43.390,3.76
43.406,1.74
43.421,0.01
43.437,-1.81
43.453,-4.09
43.468,-7.1
43.484,-10.88
43.500,-15.26
43.515,-19.96
43.531,-24.67
43.546,-29.17
43.562,-33.52
43.578,-37.87
43.593,-42.56
43.609,-47.94
43.625,-54.28
43.640,-61.6
43.656,-69.54
43.671,-77.21
43.687,-83.28
43.703,-86.24
43.718,-84.8
43.734,-78.27
43.750,-66.85
43.765,-51.57
43.781,-33.97
43.796,-15.76
43.812,1.63
43.828,17.21
43.843,30.49
43.859,41.44
43.875,50.22
43.890,57.14
43.906,62.52
43.921,66.53
43.937,69.18
43.953,70.39
43.968,70.04
43.984,68.14
44.000,64.93
44.015,60.78
44.031,56.15
44.046,51.45
44.062,46.95
44.078,42.85
44.093,39.25
44.109,36.27
44.125,33.9
44.140,32.01
44.156,30.3
44.171,28.41
44.187,25.99
44.203,22.8
44.218,18.82
44.234,14.1
44.250,8.86
44.265,3.27
44.281,-2.44
44.296,-8.08
44.312,-13.49
44.328,-18.63
44.343,-23.63
44.359,-28.73
44.375,-34.34
44.390,-40.86
44.406,-48.59
44.421,-57.44
44.437,-66.83
44.453,-75.57
44.468,-82.02
44.484,-84.55
44.500,-81.97
44.515,-74.03
44.531,-61.43
44.546,-45.7
44.562,-28.59
44.578,-11.65
44.593,4.11
44.609,18.23
44.625,30.56
44.640,41.07
44.656,49.72
44.671,56.51
44.687,61.5
44.703,64.88
44.718,66.9
44.734,67.71
44.750,67.37
44.765,65.82
44.781,62.99
44.796,58.81
44.812,53.48
44.828,47.35
44.843,40.9
44.859,34.67
44.875,29.07
44.890,24.37
44.906,20.57
44.921,17.49
44.937,14.78
44.953,12.0
44.968,8.77
44.984,4.78
45.000,-0.18
45.015,-6.17
45.031,-13.08
45.046,-20.69
45.062,-28.64
45.078,-36.51
45.093,-43.94
45.109,-50.76
45.125,-57.01
45.140,-62.99
45.156,-69.22
45.171,-76.17
45.187,-84.06
45.203,-92.5
45.218,-100.44
45.234,-106.21
45.250,-108.06
45.265,-104.62
45.281,-95.48
45.296,-81.34
45.312,-63.79
45.328,-44.77
45.343,-26.02
45.359,-8.72
45.375,6.6
45.390,19.83
45.406,31.07
45.421,40.38
45.437,47.77
45.453,53.17
45.468,56.66
45.484,58.41
45.500,58.67
45.515,57.71
45.531,55.73
45.546,52.88
45.562,49.27
45.578,45.04
45.593,40.47
45.609,35.96
45.625,31.94
45.640,28.81
45.656,26.72
45.671,25.53
45.687,24.88
45.703,24.23
45.718,23.03
45.734,20.87
45.750,17.48
45.765,12.85
45.781,7.21
45.796,0.93
45.812,-5.52
45.828,-11.73
45.843,-17.54
45.859,-22.93
45.875,-28.21
45.890,-33.81
45.906,-40.21
45.921,-47.71
45.937,-56.14
45.953,-64.74
45.968,-72.21
45.984,-76.85
46.000,-77.1
46.015,-72.03
46.031,-61.66
46.046,-46.98
46.062,-29.66
46.078,-11.57
46.093,5.77
46.109,21.32
46.125,34.66
46.140,45.77
46.156,54.8
46.171,61.91
46.187,67.22
46.203,70.83
46.218,72.84
46.234,73.41
46.250,72.69
46.265,70.93
46.281,68.39
46.296,65.27
46.312,61.8
46.328,58.15
46.343,54.48
46.359,50.92
46.375,47.58
46.390,44.56
46.406,41.9
46.421,39.57
46.437,37.31
46.453,34.8
46.468,31.61
46.484,27.33
46.500,21.71
46.515,14.76
46.531,6.75
46.546,-1.87
46.562,-10.56
46.578,-19.0
46.593,-27.0
46.609,-34.64
46.625,-42.22
46.640,-50.12
46.656,-58.66
46.671,-68.02
46.687,-77.92
46.703,-87.48
46.718,-95.32
46.734,-99.67
46.750,-98.96
46.765,-92.36
46.781,-80.02
46.796,-63.2
46.812,-43.87
46.828,-24.14
46.843,-5.68
46.859,10.48
46.875,24.05
46.890,35.12
46.906,43.96
46.921,50.81
46.937,55.79
46.953,58.98
46.968,60.49
46.984,60.51
47.000,59.29
47.015,57.06
47.031,54.03
47.046,50.31
47.062,46.06
47.078,41.39
47.093,36.6
47.109,31.98
47.125,27.9
47.140,24.58
47.156,22.06
47.171,20.19
47.187,18.67
47.203,17.2
47.218,15.5
47.234,13.39
47.250,10.73
47.265,7.49
47.281,3.61
47.296,-0.85
47.312,-5.77
47.328,-10.99
47.343,-16.36
47.359,-21.81
47.375,-27.45
47.390,-33.52
47.406,-40.36
47.421,-48.34
47.437,-57.64
47.453,-68.06
47.468,-78.77
47.484,-88.33
47.500,-94.88
47.515,-96.63
47.531,-92.45
47.546,-82.28
47.562,-67.14
47.578,-48.86
47.593,-29.49
47.609,-10.82
47.625,5.99
47.640,20.46
47.656,32.56
47.671,42.51
47.687,50.51
47.703,56.71
47.718,61.2
47.734,63.98
47.750,65.07
47.765,64.56
47.781,62.56
47.796,59.19
47.812,54.62
47.828,49.04
47.843,42.74
47.859,36.05
47.875,29.38
47.890,23.13
47.906,17.65
47.921,13.03
47.937,9.25
47.953,6.06
47.968,3.11
47.984,0.03
48.000,-3.58
48.015,-8.02
48.031,-13.45
48.046,-19.84
48.062,-26.97
48.078,-34.4
48.093,-41.68
48.109,-48.42
48.125,-54.47
48.140,-59.94
48.156,-65.17
48.171,-70.59
48.187,-76.62
48.203,-83.46
48.218,-90.96
48.234,-98.48
48.250,-104.9
48.265,-108.74
48.281,-108.51
48.296,-103.09
48.312,-92.19
48.328,-76.46
48.343,-57.35
48.359,-36.69
48.375,-16.24
48.390,2.71
48.406,19.44
48.421,33.68
48.437,45.46
48.453,54.89
48.468,62.11
48.484,67.3
48.500,70.64
48.515,72.31
48.531,72.5
48.546,71.4
48.562,69.18
48.578,66.1
48.593,62.42
48.609,58.47
48.625,54.54
48.640,50.85
48.656,47.6
48.671,44.94
48.687,42.89
48.703,41.34
48.718,39.95
48.734,38.21
48.750,35.57
48.765,31.64
48.781,26.3
48.796,19.77
48.812,12.6
48.828,5.39
48.843,-1.39
48.859,-7.47
48.875,-13.0
48.890,-18.29
48.906,-23.79
48.921,-29.98
48.937,-37.24
48.953,-45.71
48.968,-55.23
48.984,-65.17
49.000,-74.37
49.015,-81.32
49.031,-84.44
49.046,-82.49
49.062,-74.99
49.078,-62.4
49.093,-46.01
49.109,-27.62
49.125,-9.03
49.140,8.28
49.156,23.38
49.171,35.81
49.187,45.54
49.203,52.71
49.218,57.57
49.234,60.42
49.250,61.51
49.265,61.09
49.281,59.42
49.296,56.67
49.312,52.98
49.328,48.48
49.343,43.29
49.359,37.74
49.375,32.21
49.390,27.23
49.406,23.24
49.421,20.51
49.437,18.94
49.453,18.18
49.468,17.64
49.484,16.63
49.500,14.6
49.515,11.18
49.531,6.34
49.546,0.35
49.562,-6.26
49.578,-12.91
49.593,-19.07
49.609,-24.51
49.625,-29.31
49.640,-33.85
49.656,-38.71
49.671,-44.36
49.687,-51.07
49.703,-58.64
49.718,-66.27
49.734,-72.6
49.750,-76.0
49.765,-74.93
49.781,-68.45
49.796,-56.57
49.812,-40.3
49.828,-21.36
49.843,-1.68
49.859,17.05
49.875,33.67
49.890,47.65
49.906,58.92
49.921,67.62
49.937,73.99
49.953,78.23
49.968,80.51
49.984,81.01
50.000,79.86
50.015,77.25
50.031,73.37
50.046,68.41
50.062,62.6
50.078,56.27
50.093,49.78
50.109,43.54
50.125,37.89
50.140,33.05
50.156,29.03
50.171,25.62
50.187,22.5
50.203,19.31
50.218,15.75
50.234,11.6
50.250,6.7
50.265,0.96
50.281,-5.59
50.296,-12.76
50.312,-20.2
50.328,-27.46
50.343,-34.21
50.359,-40.35
50.375,-46.09
50.390,-51.92
50.406,-58.47
50.421,-66.28
50.437,-75.54
50.453,-85.94
50.468,-96.46
50.484,-105.49
50.500,-111.16
50.515,-111.79
50.531,-106.45
50.546,-95.25
50.562,-79.37
50.578,-60.62
50.593,-40.95
50.609,-21.96
50.625,-4.72
50.640,10.24
50.656,22.74
50.671,32.77
50.687,40.47
50.703,46.1
50.718,50.02
50.734,52.6
50.750,54.14
50.765,54.82
50.781,54.7
50.796,53.82
50.812,52.23
50.828,50.05
50.843,47.49
50.859,44.75
50.875,42.04
50.890,39.56
50.906,37.46
50.921,35.84
50.937,34.58
50.953,33.4
50.968,31.86
50.984,29.51
51.000,26.0
51.015,21.25
51.031,15.47
51.046,9.01
51.062,2.36
51.078,-4.16
51.093,-10.41
51.109,-16.4
51.125,-22.31
51.140,-28.44
51.156,-35.07
51.171,-42.6
51.187,-51.21
51.203,-60.82
51.218,-70.78
51.234,-79.88
51.250,-86.48
51.265,-88.95
51.281,-86.15
51.296,-77.85
51.312,-64.84
51.328,-48.71
51.343,-31.28
51.359,-14.19
51.375,1.49
51.390,15.25
51.406,26.98
51.421,36.73
51.437,44.56
51.453,50.5
51.468,54.6
51.484,56.96
51.500,57.76
51.515,57.11
51.531,55.14
51.546,51.87
51.562,47.32
51.578,41.65
51.593,35.15
51.609,28.29
51.625,21.57
51.640,15.49
51.656,10.34
51.671,6.21
51.687,2.99
51.703,0.35
51.718,-2.07
51.734,-4.66
51.750,-7.69
51.765,-11.29
51.781,-15.47
51.796,-20.12
51.812,-25.06
51.828,-30.04
51.843,-34.82
51.859,-39.17
51.875,-43.06
51.890,-46.63
51.906,-50.31
51.921,-54.65
51.937,-60.04
51.953,-66.44
51.968,-73.14
51.984,-78.78
52.000,-81.63
52.015,-80.17
52.031,-73.52
52.046,-61.83
52.062,-46.17
52.078,-28.18
52.093,-9.65
52.109,7.89
52.125,23.46
52.140,36.6
52.156,47.24
52.171,55.57
52.187,61.82
52.203,66.28
52.218,69.18
52.234,70.73
52.250,71.06
52.265,70.21
52.281,68.15
52.296,64.85
52.312,60.32
52.328,54.67
52.343,48.14
52.359,41.13
52.375,34.1
52.390,27.54
52.406,21.84
52.421,17.24
52.437,13.72
52.453,11.07
52.468,8.87
52.484,6.67
52.500,4.1
52.515,0.9
52.531,-2.95
52.546,-7.35
52.562,-12.12
52.578,-17.08
52.593,-22.0
52.609,-26.78
52.625,-31.51
52.640,-36.5
52.656,-42.25
52.671,-49.15
52.687,-57.24
52.703,-65.85
52.718,-73.66
52.734,-78.98
52.750,-80.23
52.765,-76.49
52.781,-67.7
52.796,-54.67
52.812,-38.72
52.828,-21.3
52.843,-3.72
52.859,13.02
52.875,28.16
52.890,41.17
52.906,51.73
52.921,59.8
52.937,65.51
52.953,69.2
52.968,71.24
52.984,71.94
53.000,71.49
53.015,69.99
53.031,67.48
53.046,64.01
53.062,59.72
53.078,54.79
53.093,49.56
53.109,44.43
53.125,39.81
53.140,36.04
53.156,33.31
53.171,31.58
53.187,30.56
53.203,29.78
53.218,28.68
53.234,26.68
53.250,23.4
53.265,18.71
53.281,12.78
53.296,6.04
53.312,-0.99
53.328,-7.93
53.343,-14.62
53.359,-21.19
53.375,-27.99
53.390,-35.41
53.406,-43.69
53.421,-52.76
53.437,-62.09
53.453,-70.68
53.468,-77.17
53.484,-80.1
53.500,-78.41
53.515,-71.69
53.531,-60.43
53.546,-45.89
53.562,-29.74
53.578,-13.64
53.593,1.15
53.609,14.0
53.625,24.79
53.640,33.63
53.656,40.74
53.671,46.18
53.687,49.93
53.703,52.0
53.718,52.41
53.734,51.27
53.750,48.77
53.765,45.07
53.781,40.34
53.796,34.75
53.812,28.58
53.828,22.2
53.843,16.09
53.859,10.7
53.875,6.38
53.890,3.26
53.906,1.27
53.921,0.12
53.937,-0.59
53.953,-1.28
53.968,-2.4
53.984,-4.27
54.000,-7.06
54.015,-10.69
54.031,-14.93
54.046,-19.45
54.062,-23.97
54.078,-28.38
54.093,-32.76
54.109,-37.37
54.125,-42.56
54.140,-48.64
54.156,-55.73
54.171,-63.6
54.187,-71.56
54.203,-78.38
54.218,-82.57
54.234,-82.69
54.250,-77.82
54.265,-67.9
54.281,-53.75
54.296,-36.82
54.312,-18.84
54.328,-1.32
54.343,14.69
54.359,28.66
54.375,40.4
54.390,49.95
54.406,57.39
54.421,62.9
54.437,66.6
54.453,68.64
54.468,69.17
54.484,68.31
54.500,66.17
54.515,62.87
54.531,58.56
54.546,53.39
54.562,47.68
54.578,41.75
54.593,36.0
54.609,30.74
54.625,26.17
54.640,22.29
54.656,18.98
54.671,15.92
54.687,12.78
54.703,9.28
54.718,5.16
54.734,0.3
54.750,-5.34
54.765,-11.71
54.781,-18.64
54.796,-25.86
54.812,-33.1
54.828,-40.18
54.843,-47.03
54.859,-53.81
54.875,-60.82
54.890,-68.33
54.906,-76.55
54.921,-85.48
54.937,-94.78
54.953,-103.74
54.968,-111.25
54.984,-115.92
55.000,-116.47
55.015,-111.96
55.031,-102.2
55.046,-87.91
55.062,-70.47
55.078,-51.62
55.093,-32.93
55.109,-15.56
55.125,-0.05
55.140,13.42
55.156,24.96
55.171,34.69
55.187,42.65
55.203,48.9
55.218,53.47
55.234,56.44
55.250,57.92
55.265,58.09
55.281,57.12
55.296,55.28
55.312,52.83
55.328,50.06
55.343,47.23
55.359,44.54
55.375,42.1
55.390,39.98
55.406,38.16
55.421,36.58
55.437,35.11
55.453,33.56
55.468,31.7
55.484,29.32
55.500,26.27
55.515,22.44
55.531,17.91
55.546,12.78
55.562,7.21
55.578,1.43
55.593,-4.36
55.609,-10.05
55.625,-15.58
55.640,-21.01
55.656,-26.63
55.671,-32.81
55.687,-39.94
55.703,-48.22
55.718,-57.4
55.734,-66.67
55.750,-74.65
55.765,-79.73
55.781,-80.42
55.796,-75.91
55.812,-66.29
55.828,-52.53
55.843,-36.23
55.859,-19.09
55.875,-2.56
55.890,12.37
55.906,25.19
55.921,35.71
55.937,43.98
55.953,50.1
55.968,54.27
55.984,56.66
56.000,57.53
56.015,57.1
56.031,55.58
56.046,53.21
56.062,50.16
56.078,46.62
56.093,42.73
56.109,38.66
56.125,34.57
56.140,30.67
56.156,27.19
56.171,24.32
56.187,22.17
56.203,20.64
56.218,19.47
56.234,18.26
56.250,16.56
56.265,14.02
56.281,10.48
56.296,6.03
56.312,0.95
56.328,-4.35
56.343,-9.55
56.359,-14.44
56.375,-19.06
56.390,-23.67
56.406,-28.66
56.421,-34.49
56.437,-41.43
56.453,-49.4
56.468,-57.75
56.484,-65.26
56.500,-70.33
56.515,-71.35
56.531,-67.25
56.546,-57.82
56.562,-43.87
56.578,-26.96
56.593,-8.9
56.609,8.66
56.625,24.57
56.640,38.3
56.656,49.73
56.671,59.04
56.687,66.38
56.703,71.9
56.718,75.59
56.734,77.51
56.750,77.7
56.765,76.43
56.781,74.09
56.796,71.06
56.812,67.67
56.828,64.04
56.843,60.11
56.859,55.82
56.875,51.24
56.890,46.58
56.906,42.24
56.921,38.52
56.937,35.45
56.953,32.73
56.968,29.79
56.984,26.03
57.000,21.09
57.015,14.9
57.031,7.74
57.046,0.07
57.062,-7.64
57.078,-15.1
57.093,-22.23
57.109,-29.22
57.125,-36.36
57.140,-43.93
57.156,-52.21
57.171,-61.27
57.187,-70.92
57.203,-80.61
57.218,-89.37
57.234,-95.88
57.250,-98.69
57.265,-96.7
57.281,-89.44
57.296,-77.33
57.312,-61.61
57.328,-43.95
57.343,-26.06
57.359,-9.26
57.375,5.66
57.390,18.41
57.406,28.96
57.421,37.46
57.437,44.04
57.453,48.92
57.468,52.35
57.484,54.51
57.500,55.58
57.515,55.61
57.531,54.54
57.546,52.26
57.562,48.76
57.578,44.14
57.593,38.71
57.609,32.98
57.625,27.4
57.640,22.39
57.656,18.13
57.671,14.61
57.687,11.65
57.703,8.98
57.718,6.33
57.734,3.46
57.750,0.23
57.765,-3.55
57.781,-7.95
57.796,-13.02
57.812,-18.7
57.828,-24.77
57.843,-30.96
57.859,-37.0
57.875,-42.73
57.890,-48.19
57.906,-53.67
57.921,-59.61
57.937,-66.34
57.953,-74.01
57.968,-82.19
57.984,-89.99
58.000,-96.0
58.015,-98.73
58.031,-96.89
58.046,-89.86
58.062,-77.89
58.078,-61.98
58.093,-43.72
58.109,-24.8
58.125,-6.72
58.140,9.49
58.156,23.23
58.171,34.4
58.187,43.2
58.203,49.97
58.218,55.11
58.234,58.88
58.250,61.44
58.265,62.79
58.281,62.83
58.296,61.45
58.312,58.59
58.328,54.39
58.343,49.12
58.359,43.25
58.375,37.27
58.390,31.67
58.406,26.79
58.421,22.72
58.437,19.36
58.453,16.39
58.468,13.5
58.484,10.4
58.500,6.95
58.515,3.09
58.531,-1.14
58.546,-5.74
58.562,-10.77
58.578,-16.25
58.593,-22.16
58.609,-28.42
58.625,-34.78
58.640,-40.97
58.656,-46.82
58.671,-52.31
58.687,-57.6
58.703,-63.11
58.718,-69.26
58.734,-76.37
58.750,-84.4
58.765,-92.79
58.781,-100.35
58.796,-105.57
58.812,-106.83
58.828,-102.98
58.843,-93.63
58.859,-79.32
58.875,-61.32
58.890,-41.33
58.906,-21.02
58.921,-1.75
58.937,15.54
58.953,30.38
58.968,42.63
58.984,52.38
59.000,59.88
59.015,65.41
59.031,69.18
59.046,71.4
59.062,72.15
59.078,71.49
59.093,69.57
59.109,66.55
59.125,62.74
59.140,58.45
59.156,53.97
59.171,49.51
59.187,45.24
59.203,41.25
59.218,37.53
59.234,34.14
59.250,31.08
59.265,28.29
59.281,25.6
59.296,22.7
59.312,19.25
59.328,14.98
59.343,9.86
59.359,4.06
59.375,-2.04
59.390,-8.05
59.406,-13.72
59.421,-19.02
59.437,-24.13
59.453,-29.32
59.468,-34.86
59.484,-41.07
59.500,-48.12
59.515,-55.99
59.531,-64.22
59.546,-71.75
59.562,-77.07
59.578,-78.52
59.593,-74.83
59.609,-65.6
59.625,-51.45
59.640,-33.85
59.656,-14.63
59.671,4.44
59.687,22.09
59.703,37.6
59.718,50.63
59.734,61.11
59.750,69.04
59.765,74.47
59.781,77.55
59.796,78.56
59.812,77.82
59.828,75.72
59.843,72.61
59.859,68.76
59.875,64.35
59.890,59.52
59.906,54.39
59.921,49.08
59.937,43.78
59.953,38.72
59.968,34.1
59.984,30.07
