timestamp,value
00.000,-61.66
00.015,-43.28
00.031,-21.53
00.046,1.41
00.062,23.51
00.078,43.16
00.093,59.37
00.109,71.73
00.125,80.21
00.140,85.14
00.156,86.9
00.171,86.02
00.187,82.97
00.203,78.19
00.218,72.03
00.234,64.77
00.250,56.72
00.265,48.15
00.281,39.47
00.296,31.07
00.312,23.39
00.328,16.86
00.343,11.84
00.359,8.44
00.375,6.53
00.390,5.69
00.406,5.35
00.421,4.92
00.437,3.93
00.453,2.13
00.468,-0.51
00.484,-3.87
00.500,-7.84
00.515,-12.31
00.531,-17.21
00.546,-22.42
00.562,-27.7
00.578,-32.83
00.593,-37.44
00.609,-41.2
00.625,-43.88
00.640,-45.39
00.656,-45.84
00.671,-45.55
00.687,-45.05
00.703,-44.84
00.718,-45.34
00.734,-46.46
00.750,-47.48
00.765,-47.19
00.781,-44.17
00.796,-37.23
00.812,-25.92
00.828,-10.66
00.843,7.29
00.859,26.14
00.875,43.93
00.890,59.02
00.906,70.28
00.921,77.19
00.937,79.79
00.953,78.6
00.968,74.36
00.984,67.95
01.000,60.15
01.015,51.54
01.031,42.49
01.046,33.15
01.062,23.68
01.078,14.23
01.093,5.17
01.109,-3.07
01.125,-10.04
01.140,-15.43
01.156,-19.28
01.171,-21.86
01.187,-23.67
01.203,-25.23
01.218,-26.94
01.234,-29.08
01.250,-31.69
01.265,-34.73
01.281,-38.14
01.296,-41.88
01.312,-45.94
01.328,-50.24
01.343,-54.61
01.359,-58.77
01.375,-62.45
01.390,-65.4
01.406,-67.5
01.421,-68.71
01.437,-69.14
01.453,-68.93
01.468,-68.41
01.484,-67.95
01.500,-68.0
01.515,-68.84
01.531,-70.27
01.546,-71.6
01.562,-71.48
01.578,-68.46
01.593,-61.28
01.609,-49.45
01.625,-33.31
01.640,-14.01
01.656,6.85
01.671,27.6
01.687,46.68
01.703,62.97
01.718,75.68
01.734,84.42
01.750,89.21
01.765,90.36
01.781,88.45
01.796,84.2
01.812,78.18
01.828,70.86
01.843,62.54
01.859,53.4
01.875,43.69
01.890,33.74
01.906,24.05
01.921,15.17
01.937,7.68
01.953,1.89
01.968,-2.15
01.984,-4.76
02.000,-6.54
02.015,-8.16
02.031,-10.13
02.046,-12.77
02.062,-16.15
02.078,-20.11
02.093,-24.38
02.109,-28.7
02.125,-32.88
02.140,-36.87
02.156,-40.77
02.171,-44.7
02.187,-48.79
02.203,-53.0
02.218,-57.15
02.234,-60.99
02.250,-64.33
02.265,-67.13
02.281,-69.64
02.296,-72.25
02.312,-75.33
02.328,-78.91
02.343,-82.59
02.359,-85.36
02.375,-85.89
02.390,-82.74
02.406,-74.75
02.421,-61.59
02.437,-43.7
02.453,-22.43
02.468,0.4
02.484,22.8
02.500,43.01
02.515,59.75
02.531,72.33
02.546,80.71
02.562,85.31
02.578,86.88
02.593,86.23
02.609,84.15
02.625,81.16
02.640,77.48
02.656,73.11
02.671,67.88
02.687,61.76
02.703,54.87
02.718,47.67
02.734,40.77
02.750,34.89
02.765,30.57
02.781,27.98
02.796,26.96
02.812,26.96
02.828,27.33
02.843,27.44
02.859,26.85
02.875,25.38
02.890,22.99
02.906,19.78
02.921,15.84
02.937,11.35
02.953,6.38
02.968,0.99
02.984,-4.82
03.000,-11.02
03.015,-17.55
03.031,-24.21
03.046,-30.8
03.062,-37.06
03.078,-42.77
03.093,-47.93
03.109,-52.81
03.125,-57.8
03.140,-63.31
03.156,-69.45
03.171,-75.83
03.187,-81.5
03.203,-85.01
03.218,-84.73
03.234,-79.34
03.250,-68.22
03.265,-51.6
03.281,-30.68
03.296,-7.39
03.312,16.12
03.328,37.81
03.343,56.24
03.359,70.63
03.375,80.83
03.390,87.19
03.406,90.36
03.421,91.03
03.437,89.86
03.453,87.37
03.468,83.93
03.484,79.73
03.500,74.82
03.515,69.17
03.531,62.77
03.546,55.83
03.562,48.77
03.578,42.18
03.593,36.73
03.609,32.86
03.625,30.56
03.640,29.41
03.656,28.72
03.671,27.75
03.687,25.98
03.703,23.23
03.718,19.64
03.734,15.58
03.750,11.34
03.765,7.06
03.781,2.64
03.796,-2.12
03.812,-7.45
03.828,-13.39
03.843,-19.78
03.859,-26.33
03.875,-32.63
03.890,-38.33
03.906,-43.23
03.921,-47.34
03.937,-50.76
03.953,-53.8
03.968,-56.79
03.984,-59.99
04.000,-63.43
04.015,-66.62
04.031,-68.54
04.046,-67.83
04.062,-63.06
04.078,-53.33
04.093,-38.6
04.109,-19.8
04.125,1.32
04.140,22.6
04.156,42.14
04.171,58.47
04.187,70.83
04.203,78.97
04.218,83.06
04.234,83.46
04.250,80.64
04.265,75.17
04.281,67.69
04.296,58.9
04.312,49.44
04.328,39.77
04.343,30.23
04.359,21.09
04.375,12.6
04.390,5.07
04.406,-1.2
04.421,-6.05
04.437,-9.51
04.453,-11.89
04.468,-13.69
04.484,-15.4
04.500,-17.44
04.515,-20.04
04.531,-23.22
04.546,-26.93
04.562,-30.97
04.578,-35.16
04.593,-39.34
04.609,-43.36
04.625,-47.07
04.640,-50.34
04.656,-53.05
04.671,-55.0
04.687,-56.08
04.703,-56.17
04.718,-55.35
04.734,-53.91
04.750,-52.3
04.765,-50.99
04.781,-50.45
04.796,-50.85
04.812,-51.82
04.828,-52.49
04.843,-51.54
04.859,-47.52
04.875,-39.29
04.890,-26.33
04.906,-9.02
04.921,11.33
04.937,32.79
04.953,53.24
04.968,70.81
04.984,84.28
05.000,93.2
05.015,97.83
05.031,98.87
05.046,97.16
05.062,93.45
05.078,88.35
05.093,82.2
05.109,75.21
05.125,67.61
05.140,59.73
05.156,51.94
05.171,44.69
05.187,38.34
05.203,33.18
05.218,29.36
05.234,26.7
05.250,24.84
05.265,23.27
05.281,21.55
05.296,19.41
05.312,16.79
05.328,13.84
05.343,10.71
05.359,7.51
05.375,4.12
05.390,0.41
05.406,-3.72
05.421,-8.16
05.437,-12.62
05.453,-16.7
05.468,-20.03
05.484,-22.27
05.500,-23.34
05.515,-23.4
05.531,-22.96
05.546,-22.95
05.562,-24.75
05.578,-29.77
05.593,-39.18
05.609,-53.11
05.625,-70.26
05.640,-87.98
05.656,-102.93
05.671,-112.08
05.687,-113.87
05.703,-108.54
05.718,-97.79
05.734,-83.97
05.750,-68.79
05.765,-52.79
05.781,-35.35
05.796,-15.3
05.812,8.2
05.828,35.0
05.843,64.0
05.859,93.32
05.875,120.71
05.890,144.16
05.906,162.11
05.921,173.35
05.937,177.37
05.953,174.31
05.968,165.17
05.984,151.88
06.000,137.0
06.015,123.18
06.031,112.31
06.046,104.68
06.062,98.43
06.078,90.03
06.093,75.46
06.109,51.86
06.125,18.9
06.140,-20.68
06.156,-61.94
06.171,-99.31
06.187,-128.51
06.203,-147.56
06.218,-156.88
06.234,-158.5
06.250,-154.86
06.265,-148.14
06.281,-139.84
06.296,-131.18
06.312,-123.41
06.328,-118.09
06.343,-116.78
06.359,-120.55
06.375,-129.44
06.390,-142.04
06.406,-155.66
06.421,-166.8
06.437,-172.16
06.453,-169.54
06.468,-158.36
06.484,-139.61
06.500,-115.29
06.515,-87.78
06.531,-59.2
06.546,-31.22
06.562,-5.07
06.578,18.26
06.593,37.97
06.609,53.51
06.625,64.81
06.640,72.24
06.656,76.42
06.671,78.13
06.687,77.91
06.703,76.11
06.718,72.86
06.734,68.14
06.750,62.11
06.765,55.03
06.781,47.34
06.796,39.59
06.812,32.37
06.828,26.19
06.843,21.37
06.859,17.97
06.875,15.71
06.890,14.19
06.906,12.89
06.921,11.34
06.937,9.35
06.953,6.77
06.968,3.56
06.984,-0.31
07.000,-4.91
07.015,-10.33
07.031,-16.51
07.046,-23.34
07.062,-30.54
07.078,-37.8
07.093,-44.83
07.109,-51.59
07.125,-58.22
07.140,-64.96
07.156,-72.1
07.171,-79.54
07.187,-86.62
07.203,-92.01
07.218,-93.85
07.234,-90.25
07.250,-79.96
07.265,-62.8
07.281,-39.81
07.296,-13.1
07.312,14.73
07.328,41.12
07.343,63.97
07.359,82.01
07.375,94.72
07.390,102.33
07.406,105.56
07.421,105.43
07.437,102.98
07.453,99.1
07.468,94.34
07.484,88.92
07.500,82.89
07.515,76.14
07.531,68.65
07.546,60.55
07.562,52.17
07.578,43.97
07.593,36.48
07.609,30.18
07.625,25.33
07.640,22.02
07.656,19.93
07.671,18.58
07.687,17.37
07.703,15.79
07.718,13.45
07.734,10.19
07.750,5.98
07.765,0.89
07.781,-4.92
07.796,-11.34
07.812,-18.17
07.828,-25.18
07.843,-32.08
07.859,-38.56
07.875,-44.48
07.890,-49.88
07.906,-55.01
07.921,-60.22
07.937,-65.74
07.953,-71.48
07.968,-76.64
07.984,-79.98
08.000,-79.79
08.015,-74.52
08.031,-63.21
08.046,-45.93
08.062,-23.75
08.078,1.41
08.093,27.28
08.109,51.7
08.125,72.92
08.140,89.83
08.156,101.92
08.171,109.27
08.187,112.27
08.203,111.67
08.218,108.34
08.234,103.07
08.250,96.52
08.265,89.13
08.281,81.1
08.296,72.55
08.312,63.57
08.328,54.36
08.343,45.17
08.359,36.39
08.375,28.41
08.390,21.64
08.406,16.36
08.421,12.63
08.437,10.28
08.453,8.89
08.468,7.93
08.484,6.85
08.500,5.17
08.515,2.7
08.531,-0.6
08.546,-4.64
08.562,-9.21
08.578,-14.14
08.593,-19.2
08.609,-24.17
08.625,-28.86
08.640,-33.21
08.656,-37.39
08.671,-41.71
08.687,-46.59
08.703,-52.24
08.718,-58.49
08.734,-64.57
08.750,-69.14
08.765,-70.61
08.781,-67.39
08.796,-58.52
08.812,-43.87
08.828,-24.35
08.843,-1.6
08.859,22.18
08.875,44.79
08.890,64.42
08.906,79.84
08.921,90.54
08.937,96.58
08.953,98.51
08.968,96.97
08.984,92.74
09.000,86.48
09.015,78.76
09.031,70.0
09.046,60.47
09.062,50.45
09.078,40.15
09.093,29.86
09.109,19.83
09.125,10.36
09.140,1.78
09.156,-5.72
09.171,-11.94
09.187,-16.93
09.203,-20.89
09.218,-24.24
09.234,-27.45
09.250,-31.04
09.265,-35.33
09.281,-40.42
09.296,-46.19
09.312,-52.25
09.328,-58.2
09.343,-63.63
09.359,-68.21
09.375,-71.7
09.390,-74.13
09.406,-75.65
09.421,-76.7
09.437,-77.81
09.453,-79.37
09.468,-81.33
09.484,-83.07
09.500,-83.28
09.515,-80.35
09.531,-72.79
09.546,-59.74
09.562,-41.41
09.578,-19.02
09.593,5.43
09.609,29.66
09.625,51.52
09.640,69.56
09.656,82.91
09.671,91.41
09.687,95.41
09.703,95.5
09.718,92.43
09.734,86.9
09.750,79.58
09.765,71.04
09.781,61.74
09.796,52.06
09.812,42.16
09.828,32.21
09.843,22.26
09.859,12.43
09.875,2.88
09.890,-6.04
09.906,-13.95
09.921,-20.55
09.937,-25.66
09.953,-29.43
09.968,-32.23
09.984,-34.56
10.000,-36.92
10.015,-39.66
10.031,-42.92
10.046,-46.6
10.062,-50.5
10.078,-54.36
10.093,-57.92
10.109,-60.99
10.125,-63.56
10.140,-65.72
10.156,-67.67
10.171,-69.71
10.187,-72.17
10.203,-75.25
10.218,-78.84
10.234,-82.44
10.250,-84.91
10.265,-84.81
10.281,-80.58
10.296,-71.12
10.312,-56.23
10.328,-36.83
10.343,-14.79
10.359,7.64
10.375,28.28
10.390,45.6
10.406,58.84
10.421,67.99
10.437,73.47
10.453,75.85
10.468,75.73
10.484,73.61
10.500,69.96
10.515,65.11
10.531,59.42
10.546,53.09
10.562,46.26
10.578,39.03
10.593,31.42
10.609,23.59
10.625,15.76
10.640,8.38
10.656,1.87
10.671,-3.4
10.687,-7.3
10.703,-10.0
10.718,-11.85
10.734,-13.39
10.750,-15.12
10.765,-17.52
10.781,-20.79
10.796,-24.93
10.812,-29.73
10.828,-34.83
10.843,-39.78
10.859,-44.18
10.875,-47.83
10.890,-50.64
10.906,-52.81
10.921,-54.71
10.937,-56.82
10.953,-59.6
10.968,-63.28
10.984,-67.62
11.000,-71.69
11.015,-74.02
11.031,-72.88
11.046,-66.84
11.062,-55.45
11.078,-39.31
11.093,-20.07
11.109,0.11
11.125,19.09
11.140,35.25
11.156,47.71
11.171,56.3
11.187,61.37
11.203,63.47
11.218,63.27
11.234,61.39
11.250,58.45
11.265,54.87
11.281,50.99
11.296,46.94
11.312,42.76
11.328,38.33
11.343,33.53
11.359,28.33
11.375,22.83
11.390,17.35
11.406,12.38
11.421,8.4
11.437,5.7
11.453,4.29
11.468,3.83
11.484,3.67
11.500,3.09
11.515,1.51
11.531,-1.39
11.546,-5.52
11.562,-10.57
11.578,-16.13
11.593,-21.8
11.609,-27.24
11.625,-32.18
11.640,-36.45
11.656,-40.03
11.671,-43.03
11.687,-45.78
11.703,-48.65
11.718,-51.89
11.734,-55.3
11.750,-58.14
11.765,-59.15
11.781,-56.92
11.796,-50.37
11.812,-39.13
11.828,-23.75
11.843,-5.64
11.859,13.3
11.875,31.16
11.890,46.43
11.906,58.2
11.921,66.22
11.937,70.78
11.953,72.44
11.968,71.93
11.984,69.95
12.000,67.05
12.015,63.71
12.031,60.18
12.046,56.52
12.062,52.67
12.078,48.45
12.093,43.64
12.109,38.23
12.125,32.36
12.140,26.34
12.156,20.69
12.171,15.88
12.187,12.26
12.203,9.94
12.218,8.75
12.234,8.24
12.250,7.86
12.265,7.05
12.281,5.36
12.296,2.64
12.312,-1.03
12.328,-5.33
12.343,-9.84
12.359,-14.18
12.375,-18.1
12.390,-21.59
12.406,-24.85
12.421,-28.24
12.437,-32.15
12.453,-36.9
12.468,-42.45
12.484,-48.26
12.500,-53.33
12.515,-56.18
12.531,-55.39
12.546,-49.85
12.562,-39.21
12.578,-23.92
12.593,-5.25
12.609,15.12
12.625,35.47
12.640,54.17
12.656,70.05
12.671,82.36
12.687,90.73
12.703,95.22
12.718,96.16
12.734,94.1
12.750,89.64
12.765,83.41
12.781,75.86
12.796,67.3
12.812,57.96
12.828,48.04
12.843,37.78
12.859,27.48
12.875,17.52
12.890,8.24
12.906,-0.07
12.921,-7.26
12.937,-13.27
12.953,-18.24
12.968,-22.41
12.984,-26.16
13.000,-29.99
13.015,-34.27
13.031,-39.3
13.046,-45.16
13.062,-51.6
13.078,-58.13
13.093,-64.23
13.109,-69.51
13.125,-73.83
13.140,-77.34
13.156,-80.33
13.171,-83.22
13.187,-86.3
13.203,-89.6
13.218,-92.82
13.234,-95.12
13.250,-95.33
13.265,-92.03
13.281,-83.96
13.296,-70.54
13.312,-52.12
13.328,-30.06
13.343,-6.41
13.359,16.54
13.375,36.88
13.390,53.36
13.406,65.52
13.421,73.48
13.437,77.67
13.453,78.66
13.468,76.97
13.484,73.04
13.500,67.2
13.515,59.88
13.531,51.5
13.546,42.5
13.562,33.29
13.578,24.18
13.593,15.41
13.609,7.15
13.625,-0.43
13.640,-7.18
13.656,-12.89
13.671,-17.5
13.687,-21.12
13.703,-24.11
13.718,-26.91
13.734,-30.0
13.750,-33.73
13.765,-38.28
13.781,-43.56
13.796,-49.31
13.812,-55.16
13.828,-60.71
13.843,-65.65
13.859,-69.82
13.875,-73.33
13.890,-76.46
13.906,-79.69
13.921,-83.45
13.937,-87.99
13.953,-93.04
13.968,-97.73
13.984,-100.54
14.000,-99.69
14.015,-93.66
14.031,-81.63
14.046,-63.92
14.062,-41.93
14.078,-17.9
14.093,5.79
14.109,27.1
14.125,44.76
14.140,58.32
14.156,67.92
14.171,74.07
14.187,77.27
14.203,78.01
14.218,76.6
14.234,73.44
14.250,68.97
14.265,63.54
14.281,57.49
14.296,50.99
14.312,44.06
14.328,36.71
14.343,29.05
14.359,21.41
14.375,14.31
14.390,8.3
14.406,3.73
14.421,0.72
14.437,-0.97
14.453,-1.84
14.468,-2.53
14.484,-3.69
14.500,-5.77
14.515,-8.98
14.531,-13.2
14.546,-18.2
14.562,-23.62
14.578,-29.1
14.593,-34.41
14.609,-39.51
14.625,-44.45
14.640,-49.45
14.656,-54.8
14.671,-60.73
14.687,-67.33
14.703,-74.26
14.718,-80.61
14.734,-84.86
14.750,-85.21
14.765,-80.04
14.781,-68.45
14.796,-50.73
14.812,-28.36
14.828,-3.64
14.843,20.91
14.859,43.06
14.875,61.35
14.890,75.1
14.906,84.34
14.921,89.54
14.937,91.4
14.953,90.69
14.968,88.25
14.984,84.78
15.000,80.83
15.015,76.71
15.031,72.38
15.046,67.72
15.062,62.56
15.078,56.85
15.093,50.85
15.109,44.99
15.125,39.74
15.140,35.51
15.156,32.4
15.171,30.28
15.187,28.86
15.203,27.74
15.218,26.48
15.234,24.68
15.250,21.96
15.265,17.99
15.281,12.63
15.296,5.94
15.312,-1.75
15.328,-9.9
15.343,-17.92
15.359,-25.29
15.375,-31.83
15.390,-37.65
15.406,-43.15
15.421,-48.84
15.437,-55.02
15.453,-61.64
15.468,-67.98
15.484,-72.73
15.500,-74.08
15.515,-70.28
15.531,-60.16
15.546,-43.57
15.562,-21.5
15.578,4.07
15.593,30.62
15.609,55.69
15.625,77.33
15.640,94.4
15.656,106.54
15.671,113.95
15.687,117.29
15.703,117.32
15.718,114.77
15.734,110.24
15.750,104.12
15.765,96.73
15.781,88.27
15.796,78.87
15.812,68.61
15.828,57.71
15.843,46.48
15.859,35.43
15.875,25.18
15.890,16.36
15.906,9.36
15.921,4.29
15.937,0.81
15.953,-1.68
15.968,-3.93
15.984,-6.62
16.000,-10.23
16.015,-14.95
16.031,-20.65
16.046,-26.99
16.062,-33.43
16.078,-39.53
16.093,-44.92
16.109,-49.48
16.125,-53.37
16.140,-57.0
16.156,-60.84
16.171,-65.28
16.187,-70.36
16.203,-75.56
16.218,-79.75
16.234,-81.32
16.250,-78.51
16.265,-69.98
16.281,-55.22
16.296,-34.88
16.312,-10.61
16.328,15.19
16.343,40.04
16.359,61.76
16.375,78.86
16.390,90.75
16.406,97.47
16.421,99.55
16.437,97.75
16.453,92.86
16.468,85.59
16.484,76.62
16.500,66.54
16.515,55.85
16.531,45.05
16.546,34.44
16.562,24.26
16.578,14.63
16.593,5.74
16.609,-2.22
16.625,-8.87
16.640,-13.97
16.656,-17.43
16.671,-19.5
16.687,-20.81
16.703,-22.27
16.718,-24.7
16.734,-28.68
16.750,-34.34
16.765,-41.3
16.781,-48.88
16.796,-56.39
16.812,-63.26
16.828,-69.2
16.843,-74.15
16.859,-78.28
16.875,-81.97
16.890,-85.68
16.906,-89.83
16.921,-94.51
16.937,-99.25
16.953,-102.94
16.968,-103.81
16.984,-99.99
17.000,-90.06
17.015,-73.65
17.031,-51.7
17.046,-26.18
17.062,0.36
17.078,25.42
17.093,47.11
17.109,64.36
17.125,76.82
17.140,84.76
17.156,88.73
17.171,89.3
17.187,87.11
17.203,82.67
17.218,76.45
17.234,68.92
17.250,60.51
17.265,51.61
17.281,42.63
17.296,33.88
17.312,25.6
17.328,17.97
17.343,11.17
17.359,5.34
17.375,0.59
17.390,-3.1
17.406,-5.98
17.421,-8.4
17.437,-10.76
17.453,-13.54
17.468,-16.98
17.484,-21.24
17.500,-26.28
17.515,-31.9
17.531,-37.82
17.546,-43.72
17.562,-49.33
17.578,-54.49
17.593,-59.25
17.609,-63.72
17.625,-68.13
17.640,-72.75
17.656,-77.74
17.671,-83.08
17.687,-88.41
17.703,-92.85
17.718,-95.07
17.734,-93.46
17.750,-86.56
17.765,-73.63
17.781,-55.01
17.796,-32.15
17.812,-7.39
17.828,16.76
17.843,38.12
17.859,55.26
17.875,67.66
17.890,75.5
17.906,79.36
17.921,80.03
17.937,78.36
17.953,75.06
17.968,70.81
17.984,66.07
18.000,61.07
18.015,55.85
18.031,50.35
18.046,44.5
18.062,38.39
18.078,32.44
18.093,27.13
18.109,23.03
18.125,20.43
18.140,19.23
18.156,19.01
18.171,19.09
18.187,18.81
18.203,17.7
18.218,15.6
18.234,12.5
18.250,8.55
18.265,3.83
18.281,-1.68
18.296,-7.94
18.312,-14.87
18.328,-22.18
18.343,-29.49
18.359,-36.37
18.375,-42.59
18.390,-48.08
18.406,-53.03
18.421,-57.86
18.437,-62.89
18.453,-68.24
18.468,-73.52
18.484,-77.74
18.500,-79.36
18.515,-76.81
18.531,-68.81
18.546,-54.99
18.562,-36.15
18.578,-13.97
18.593,9.27
18.609,31.33
18.625,50.52
18.640,65.86
18.656,77.04
18.671,84.32
18.687,88.2
18.703,89.26
18.718,88.15
18.734,85.44
18.750,81.61
18.765,77.03
18.781,71.93
18.796,66.38
18.812,60.43
18.828,54.13
18.843,47.68
18.859,41.47
18.875,36.04
18.890,31.88
18.906,29.3
18.921,28.21
18.937,28.19
18.953,28.57
18.968,28.64
18.984,27.84
19.000,25.92
19.015,22.81
19.031,18.65
19.046,13.63
19.062,7.92
19.078,1.67
19.093,-4.94
19.109,-11.67
19.125,-18.2
19.140,-24.22
19.156,-29.57
19.171,-34.36
19.187,-38.87
19.203,-43.6
19.218,-48.94
19.234,-54.89
19.250,-60.88
19.265,-65.69
19.281,-67.6
19.296,-64.97
19.312,-56.65
19.328,-42.35
19.343,-22.91
19.359,-0.05
19.375,23.97
19.390,46.91
19.406,66.96
19.421,83.06
19.437,94.7
19.453,101.99
19.468,105.34
19.484,105.2
19.500,102.15
19.515,96.75
19.531,89.53
19.546,81.05
19.562,71.8
19.578,62.11
19.593,52.25
19.609,42.51
19.625,33.11
19.640,24.35
19.656,16.57
19.671,9.93
19.687,4.52
19.703,0.22
19.718,-3.28
19.734,-6.36
19.750,-9.4
19.765,-12.77
19.781,-16.69
19.796,-21.26
19.812,-26.5
19.828,-32.23
19.843,-38.24
19.859,-44.24
19.875,-49.98
19.890,-55.23
19.906,-59.94
19.921,-64.09
19.937,-67.79
19.953,-71.31
19.968,-74.88
19.984,-78.62
20.000,-82.25
20.015,-85.01
20.031,-85.78
20.046,-83.26
20.062,-76.3
20.078,-64.32
20.093,-47.69
20.109,-27.5
20.125,-5.52
20.140,16.33
20.156,36.32
20.171,53.11
20.187,65.97
20.203,74.71
20.218,79.58
20.234,81.06
20.250,79.78
20.265,76.27
20.281,70.99
20.296,64.3
20.312,56.44
20.328,47.76
20.343,38.65
20.359,29.49
20.375,20.73
20.390,12.73
20.406,5.68
20.421,-0.27
20.437,-5.1
20.453,-8.95
20.468,-11.98
20.484,-14.49
20.500,-16.89
20.515,-19.56
20.531,-22.82
20.546,-26.88
20.562,-31.83
20.578,-37.55
20.593,-43.83
20.609,-50.35
20.625,-56.7
20.640,-62.52
20.656,-67.47
20.671,-71.41
20.687,-74.35
20.703,-76.58
20.718,-78.5
20.734,-80.51
20.750,-82.96
20.765,-85.79
20.781,-88.5
20.796,-90.06
20.812,-89.19
20.828,-84.5
20.843,-75.04
20.859,-60.65
20.875,-42.07
20.890,-20.93
20.906,0.75
20.921,20.98
20.937,38.31
20.953,51.83
20.968,61.34
20.984,67.13
21.000,69.69
21.015,69.76
21.031,68.03
21.046,65.1
21.062,61.39
21.078,57.15
21.093,52.39
21.109,46.97
21.125,40.81
21.140,33.99
21.156,26.93
21.171,20.2
21.187,14.41
21.203,10.02
21.218,7.16
21.234,5.64
21.250,4.96
21.265,4.55
21.281,3.88
21.296,2.71
21.312,1.01
21.328,-1.08
21.343,-3.33
21.359,-5.64
21.375,-8.11
21.390,-11.03
21.406,-14.71
21.421,-19.42
21.437,-25.11
21.453,-31.52
21.468,-38.27
21.484,-44.85
21.500,-50.95
21.515,-56.47
21.531,-61.49
21.546,-66.26
21.562,-71.13
21.578,-76.24
21.593,-81.35
21.609,-85.7
21.625,-87.99
21.640,-86.75
21.656,-80.81
21.671,-69.6
21.687,-53.58
21.703,-34.07
21.718,-12.89
21.734,8.09
21.750,27.3
21.765,43.73
21.781,56.8
21.796,66.38
21.812,72.59
21.828,75.8
21.843,76.49
21.859,75.3
21.875,72.79
21.890,69.37
21.906,65.22
21.921,60.41
21.937,54.9
21.953,48.81
21.968,42.45
21.984,36.28
22.000,30.93
22.015,26.89
22.031,24.48
22.046,23.71
22.062,24.31
22.078,25.7
22.093,27.22
22.109,28.26
22.125,28.38
22.140,27.4
22.156,25.29
22.171,22.22
22.187,18.31
22.203,13.61
22.218,8.1
22.234,1.71
22.250,-5.51
22.265,-13.35
22.281,-21.44
22.296,-29.25
22.312,-36.33
22.328,-42.34
22.343,-47.29
22.359,-51.46
22.375,-55.31
22.390,-59.29
22.406,-63.6
22.421,-67.92
22.437,-71.38
22.453,-72.79
22.468,-70.76
22.484,-64.3
22.500,-53.06
22.515,-37.47
22.531,-18.69
22.546,1.63
22.562,21.74
22.578,40.06
22.593,55.42
22.609,67.15
22.625,75.07
22.640,79.45
22.656,80.87
22.671,80.1
22.687,77.91
22.703,74.88
22.718,71.38
22.734,67.48
22.750,63.05
22.765,57.9
22.781,52.02
22.796,45.67
22.812,39.3
22.828,33.55
22.843,28.94
22.859,25.7
22.875,23.68
22.890,22.48
22.906,21.52
22.921,20.3
22.937,18.59
22.953,16.37
22.968,13.86
22.984,11.3
23.000,8.83
23.015,6.47
23.031,4.08
23.046,1.37
23.062,-1.95
23.078,-6.15
23.093,-11.27
23.109,-17.06
23.125,-23.09
23.140,-28.89
23.156,-34.09
23.171,-38.68
23.187,-42.92
23.203,-47.3
23.218,-52.2
23.234,-57.66
23.250,-63.07
23.265,-67.32
23.281,-68.94
23.296,-66.51
23.312,-59.12
23.328,-46.61
23.343,-29.69
23.359,-9.79
23.375,11.2
23.390,31.37
23.406,49.14
23.421,63.38
23.437,73.61
23.453,79.81
23.468,82.4
23.484,81.98
23.500,79.23
23.515,74.68
23.531,68.71
23.546,61.57
23.562,53.38
23.578,44.31
23.593,34.61
23.609,24.71
23.625,15.14
23.640,6.39
23.656,-1.13
23.671,-7.22
23.687,-11.92
23.703,-15.47
23.718,-18.27
23.734,-20.79
23.750,-23.45
23.765,-26.57
23.781,-30.3
23.796,-34.61
23.812,-39.35
23.828,-44.36
23.843,-49.54
23.859,-54.89
23.875,-60.45
23.890,-66.2
23.906,-72.02
23.921,-77.6
23.937,-82.59
23.953,-86.63
23.968,-89.55
23.984,-91.44
24.000,-92.62
24.015,-93.58
24.031,-94.74
24.046,-96.25
24.062,-97.71
24.078,-98.14
24.093,-96.12
24.109,-90.17
24.125,-79.27
24.140,-63.24
24.156,-42.86
24.171,-19.74
24.187,4.15
24.203,26.93
24.218,47.06
24.234,63.53
24.250,75.88
24.265,84.07
24.281,88.39
24.296,89.36
24.312,87.62
24.328,83.8
24.343,78.42
24.359,71.79
24.375,64.13
24.390,55.6
24.406,46.4
24.421,36.87
24.437,27.46
24.453,18.75
24.468,11.29
24.484,5.52
24.500,1.59
24.515,-0.64
24.531,-1.65
24.546,-2.04
24.562,-2.43
24.578,-3.27
24.593,-4.74
24.609,-6.79
24.625,-9.29
24.640,-12.14
24.656,-15.35
24.671,-19.03
24.687,-23.36
24.703,-28.42
24.718,-34.19
24.734,-40.51
24.750,-47.02
24.765,-53.38
24.781,-59.29
24.796,-64.59
24.812,-69.29
24.828,-73.6
24.843,-77.84
24.859,-82.29
24.875,-86.89
24.890,-91.1
24.906,-93.79
24.921,-93.45
24.937,-88.52
24.953,-77.9
24.968,-61.38
24.984,-39.9
25.000,-15.32
25.015,10.0
25.031,33.72
25.046,54.04
25.062,69.9
25.078,81.05
25.093,87.84
25.109,91.06
25.125,91.52
25.140,90.03
25.156,87.11
25.171,83.05
25.187,78.01
25.203,71.99
25.218,65.07
25.234,57.36
25.250,49.2
25.265,41.07
25.281,33.69
25.296,27.76
25.312,23.83
25.328,22.09
25.343,22.27
25.359,23.68
25.375,25.32
25.390,26.3
25.406,25.98
25.421,24.22
25.437,21.26
25.453,17.47
25.468,13.24
25.484,8.74
25.500,3.86
25.515,-1.59
25.531,-7.78
25.546,-14.64
25.562,-21.87
25.578,-29.08
25.593,-35.92
25.609,-42.14
25.625,-47.7
25.640,-52.77
25.656,-57.64
25.671,-62.6
25.687,-67.85
25.703,-73.22
25.718,-78.06
25.734,-81.14
25.750,-80.87
25.765,-75.7
25.781,-64.64
25.796,-47.67
25.812,-25.85
25.828,-1.22
25.843,23.81
25.859,46.95
25.875,66.59
25.890,81.84
25.906,92.54
25.921,98.96
25.937,101.64
25.953,101.23
25.968,98.41
25.984,93.84
26.000,88.09
26.015,81.57
26.031,74.44
26.046,66.76
26.062,58.59
26.078,50.21
26.093,42.15
26.109,35.12
26.125,29.72
26.140,26.35
26.156,24.93
26.171,25.0
26.187,25.84
26.203,26.76
26.218,27.14
26.234,26.64
26.250,25.12
26.265,22.58
26.281,19.17
26.296,14.98
26.312,10.13
26.328,4.7
26.343,-1.26
26.359,-7.74
26.375,-14.64
26.390,-21.75
26.406,-28.85
26.421,-35.62
26.437,-41.89
26.453,-47.64
26.468,-53.08
26.484,-58.49
26.500,-63.99
26.515,-69.36
26.531,-73.74
26.546,-75.75
26.562,-73.75
26.578,-66.36
26.593,-52.93
26.609,-33.88
26.625,-10.75
26.640,14.17
26.656,38.32
26.671,59.51
26.687,76.2
26.703,87.73
26.718,94.15
26.734,96.06
26.750,94.38
26.765,90.02
26.781,83.78
26.796,76.25
26.812,67.83
26.828,58.73
26.843,49.14
26.859,39.3
26.875,29.5
26.890,20.18
26.906,11.77
26.921,4.59
26.937,-1.16
26.953,-5.56
26.968,-8.78
26.984,-11.28
27.000,-13.47
27.015,-15.85
27.031,-18.84
27.046,-22.74
27.062,-27.75
27.078,-33.82
27.093,-40.74
27.109,-48.1
27.125,-55.48
27.140,-62.48
27.156,-68.86
27.171,-74.44
27.187,-79.09
27.203,-82.77
27.218,-85.48
27.234,-87.45
27.250,-89.06
27.265,-90.81
27.281,-93.02
27.296,-95.58
27.312,-97.62
27.328,-97.65
27.343,-93.93
27.359,-85.01
27.375,-70.25
27.390,-50.12
27.406,-26.11
27.421,-0.28
27.437,25.1
27.453,48.0
27.468,66.94
27.484,81.04
27.500,90.09
27.515,94.41
27.531,94.71
27.546,91.96
27.562,86.99
27.578,80.44
27.593,72.67
27.609,63.85
27.625,54.11
27.640,43.72
27.656,33.12
27.671,22.9
27.687,13.67
27.703,5.9
27.718,-0.14
27.734,-4.54
27.750,-7.57
27.765,-9.77
27.781,-11.64
27.796,-13.66
27.812,-16.12
27.828,-19.13
27.843,-22.65
27.859,-26.64
27.875,-31.1
27.890,-36.06
27.906,-41.55
27.921,-47.51
27.937,-53.78
27.953,-60.11
27.968,-66.21
27.984,-71.8
28.000,-76.88
28.015,-81.5
28.031,-86.0
28.046,-90.74
28.062,-95.98
28.078,-101.6
28.093,-106.94
28.109,-110.63
28.125,-110.92
28.140,-106.14
28.156,-95.08
28.171,-77.59
28.187,-54.59
28.203,-28.01
28.218,-0.17
28.234,26.47
28.250,49.94
28.265,68.89
28.281,82.6
28.296,91.1
28.312,94.97
28.328,95.21
28.343,92.93
28.359,89.13
28.375,84.46
28.390,79.13
28.406,73.13
28.421,66.25
28.437,58.54
28.453,50.32
28.468,42.25
28.484,35.13
28.500,29.6
28.515,26.03
28.531,24.24
28.546,23.82
28.562,24.03
28.578,24.26
28.593,23.95
28.609,22.77
28.625,20.61
28.640,17.37
28.656,13.11
28.671,7.84
28.687,1.68
28.703,-5.32
28.718,-12.96
28.734,-21.11
28.750,-29.56
28.765,-38.07
28.781,-46.32
28.796,-54.06
28.812,-61.16
28.828,-67.63
28.843,-73.74
28.859,-79.78
28.875,-85.84
28.890,-91.62
28.906,-96.15
28.921,-97.81
28.937,-94.72
28.953,-85.34
28.968,-69.01
28.984,-46.38
29.000,-19.3
29.015,9.6
29.031,37.51
29.046,62.06
29.062,81.76
29.078,96.0
29.093,104.92
29.109,109.27
29.125,109.99
29.140,108.16
29.156,104.77
29.171,100.53
29.187,95.89
29.203,90.93
29.218,85.48
29.234,79.41
29.250,72.73
29.265,65.71
29.281,58.91
29.296,53.0
29.312,48.54
29.328,45.71
29.343,44.26
29.359,43.5
29.375,42.7
29.390,41.29
29.406,38.94
29.421,35.75
29.437,31.97
29.453,27.94
29.468,23.76
29.484,19.37
29.500,14.48
29.515,8.8
29.531,2.2
29.546,-5.3
29.562,-13.42
29.578,-21.79
29.593,-30.0
29.609,-37.81
29.625,-45.06
29.640,-51.87
29.656,-58.48
29.671,-65.19
29.687,-72.15
29.703,-79.09
29.718,-85.23
29.734,-89.09
29.750,-88.9
29.765,-82.9
29.781,-70.15
29.796,-50.75
29.812,-25.98
29.828,1.83
29.843,30.02
29.859,55.99
29.875,77.81
29.890,94.41
29.906,105.58
29.921,111.7
29.937,113.57
29.953,112.11
29.968,108.11
29.984,102.14
30.000,94.53
30.015,85.51
30.031,75.28
30.046,64.13
30.062,52.5
30.078,40.94
30.093,30.13
30.109,20.67
30.125,13.01
30.140,7.31
30.156,3.39
30.171,0.78
30.187,-1.19
30.203,-3.14
30.218,-5.6
30.234,-8.79
30.250,-12.78
30.265,-17.47
30.281,-22.78
30.296,-28.62
30.312,-34.89
30.328,-41.52
30.343,-48.32
30.359,-55.05
30.375,-61.4
30.390,-67.11
30.406,-71.99
30.421,-75.98
30.437,-79.27
30.453,-82.23
30.468,-85.31
30.484,-88.82
30.500,-92.6
30.515,-95.87
30.531,-97.15
30.546,-94.61
30.562,-86.53
30.578,-72.07
30.593,-51.56
30.609,-26.54
30.625,0.52
30.640,26.99
30.656,50.5
30.671,69.46
30.687,83.15
30.703,91.51
30.718,95.02
30.734,94.51
30.750,90.84
30.765,84.9
30.781,77.45
30.796,68.94
30.812,59.66
30.828,49.78
30.843,39.39
30.859,28.77
30.875,18.38
30.890,8.77
30.906,0.51
30.921,-6.02
30.937,-10.86
30.953,-14.34
30.968,-16.97
30.984,-19.38
31.000,-21.9
31.015,-24.67
31.031,-27.62
31.046,-30.72
31.062,-33.97
31.078,-37.52
31.093,-41.48
31.109,-45.9
31.125,-50.78
31.140,-56.01
31.156,-61.45
31.171,-67.01
31.187,-72.57
31.203,-78.01
31.218,-83.32
31.234,-88.53
31.250,-93.82
31.265,-99.38
31.281,-105.07
31.296,-110.24
31.312,-113.68
31.328,-113.68
31.343,-108.6
31.359,-97.36
31.375,-79.84
31.390,-57.08
31.406,-31.03
31.421,-4.04
31.437,21.55
31.453,43.81
31.468,61.6
31.484,74.47
31.500,82.6
31.515,86.69
31.531,87.65
31.546,86.39
31.562,83.67
31.578,80.0
31.593,75.49
31.609,70.17
31.625,63.96
31.640,56.85
31.656,49.1
31.671,41.16
31.687,33.64
31.703,27.32
31.718,22.74
31.734,20.15
31.750,19.45
31.765,20.1
31.781,21.3
31.796,22.28
31.812,22.37
31.828,21.18
31.843,18.68
31.859,14.92
31.875,10.04
31.890,4.12
31.906,-2.76
31.921,-10.44
31.937,-18.63
31.953,-26.9
31.968,-34.86
31.984,-42.2
32.000,-48.83
32.015,-54.9
32.031,-60.69
32.046,-66.56
32.062,-72.74
32.078,-79.26
32.093,-85.76
32.109,-91.41
32.125,-94.82
32.140,-94.36
32.156,-88.53
32.171,-76.39
32.187,-58.08
32.203,-34.82
32.218,-8.69
32.234,17.81
32.250,42.35
32.265,63.23
32.281,79.54
32.296,91.06
32.312,98.23
32.328,101.76
32.343,102.48
32.359,101.22
32.375,98.56
32.390,94.85
32.406,90.16
32.421,84.49
32.437,77.78
32.453,70.28
32.468,62.41
32.484,54.8
32.500,48.26
32.515,43.43
32.531,40.66
32.546,39.84
32.562,40.47
32.578,41.66
32.593,42.49
32.609,42.15
32.625,40.2
32.640,36.64
32.656,31.72
32.671,25.88
32.687,19.44
32.703,12.59
32.718,5.33
32.734,-2.39
32.750,-10.57
32.765,-19.03
32.781,-27.43
32.796,-35.38
32.812,-42.56
32.828,-48.86
32.843,-54.4
32.859,-59.58
32.875,-64.88
32.890,-70.56
32.906,-76.51
32.921,-81.97
32.937,-85.54
32.953,-85.47
32.968,-80.1
32.984,-68.44
33.000,-50.56
33.015,-27.66
33.031,-1.82
33.046,24.42
33.062,48.65
33.078,69.08
33.093,84.64
33.109,95.09
33.125,100.84
33.140,102.65
33.156,101.45
33.171,98.07
33.187,93.05
33.203,86.72
33.218,79.18
33.234,70.48
33.250,60.8
33.265,50.48
33.281,40.08
33.296,30.25
33.312,21.73
33.328,15.01
33.343,10.3
33.359,7.43
33.375,5.82
33.390,4.71
33.406,3.38
33.421,1.26
33.437,-1.79
33.453,-5.67
33.468,-10.15
33.484,-14.99
33.500,-20.08
33.515,-25.42
33.531,-30.97
33.546,-36.6
33.562,-42.19
33.578,-47.47
33.593,-52.33
33.609,-56.78
33.625,-60.92
33.640,-64.99
33.656,-69.22
33.671,-73.76
33.687,-78.53
33.703,-83.13
33.718,-86.7
33.734,-87.99
33.750,-85.57
33.765,-78.24
33.781,-65.39
33.796,-47.32
33.812,-25.3
33.828,-1.31
33.843,22.34
33.859,43.54
33.875,60.77
33.890,73.24
33.906,80.87
33.921,84.09
33.937,83.61
33.953,80.25
33.968,74.75
33.984,67.72
34.000,59.65
34.015,50.87
34.031,41.53
34.046,31.84
34.062,21.95
34.078,12.21
34.093,3.16
34.109,-4.69
34.125,-10.96
34.140,-15.59
34.156,-18.86
34.171,-21.28
34.187,-23.43
34.203,-25.73
34.218,-28.47
34.234,-31.75
34.250,-35.63
34.265,-40.19
34.281,-45.52
34.296,-51.62
34.312,-58.34
34.328,-65.42
34.343,-72.53
34.359,-79.34
34.375,-85.54
34.390,-90.84
34.406,-95.15
34.421,-98.46
34.437,-101.02
34.453,-103.13
34.468,-105.17
34.484,-107.31
34.500,-109.25
34.515,-110.17
34.531,-108.8
34.546,-103.74
34.562,-93.86
34.578,-78.66
34.593,-58.48
34.609,-34.56
34.625,-8.75
34.640,16.83
34.656,40.19
34.671,59.9
34.687,75.11
34.703,85.66
34.718,91.86
34.734,94.41
34.750,94.07
34.765,91.55
34.781,87.34
34.796,81.67
34.812,74.64
34.828,66.34
34.843,56.92
34.859,46.74
34.875,36.38
34.890,26.6
34.906,18.19
34.921,11.71
34.937,7.43
34.953,5.13
34.968,4.31
34.984,4.19
35.000,4.03
35.015,3.26
35.031,1.61
35.046,-0.92
35.062,-4.19
35.078,-8.01
35.093,-12.3
35.109,-17.11
35.125,-22.52
35.140,-28.59
35.156,-35.31
35.171,-42.43
35.187,-49.55
35.203,-56.2
35.218,-62.04
35.234,-66.95
35.250,-71.24
35.265,-75.41
35.281,-80.07
35.296,-85.56
35.312,-91.57
35.328,-97.02
35.343,-100.25
35.359,-99.36
35.375,-92.72
35.390,-79.6
35.406,-60.28
35.421,-36.18
35.437,-9.44
35.453,17.48
35.468,42.31
35.484,63.36
35.500,79.64
35.515,91.0
35.531,97.85
35.546,100.98
35.562,101.31
35.578,99.68
35.593,96.72
35.609,92.84
35.625,88.17
35.640,82.68
35.656,76.31
35.671,68.99
35.687,60.96
35.703,52.75
35.718,45.09
35.734,38.87
35.750,34.73
35.765,32.8
35.781,32.74
35.796,33.73
35.812,34.69
35.828,34.77
35.843,33.44
35.859,30.59
35.875,26.51
35.890,21.64
35.906,16.28
35.921,10.66
35.937,4.72
35.953,-1.79
35.968,-9.01
35.984,-16.9
36.000,-25.31
36.015,-33.89
36.031,-42.23
36.046,-50.11
36.062,-57.36
36.078,-64.04
36.093,-70.38
36.109,-76.69
36.125,-83.13
36.140,-89.65
36.156,-95.65
36.171,-99.86
36.187,-100.61
36.203,-96.13
36.218,-85.15
36.234,-67.4
36.250,-43.79
36.265,-16.31
36.281,12.38
36.296,39.61
36.312,63.22
36.328,81.81
36.343,94.92
36.359,102.78
36.375,106.09
36.390,105.77
36.406,102.74
36.421,97.87
36.437,91.91
36.453,85.42
36.468,78.76
36.484,72.04
36.500,65.31
36.515,58.56
36.531,51.99
36.546,46.0
36.562,41.09
36.578,37.74
36.593,36.12
36.609,35.99
36.625,36.73
36.640,37.58
36.656,37.75
36.671,36.78
36.687,34.54
36.703,31.2
36.718,27.07
36.734,22.51
36.750,17.71
36.765,12.63
36.781,7.01
36.796,0.61
36.812,-6.69
36.828,-14.74
36.843,-23.1
36.859,-31.21
36.875,-38.54
36.890,-44.81
36.906,-50.11
36.921,-54.85
36.937,-59.55
36.953,-64.74
36.968,-70.61
36.984,-76.75
37.000,-82.09
37.015,-84.92
37.031,-83.35
37.046,-75.74
37.062,-61.35
37.078,-40.63
37.093,-15.26
37.109,12.22
37.125,39.08
37.140,62.85
37.156,81.91
37.171,95.47
37.187,103.58
37.203,106.89
37.218,106.33
37.234,102.88
37.250,97.32
37.265,90.23
37.281,81.92
37.296,72.51
37.312,62.13
37.328,51.01
37.343,39.56
37.359,28.39
37.375,18.2
37.390,9.62
37.406,3.06
37.421,-1.39
37.437,-3.97
37.453,-5.24
37.468,-5.94
37.484,-6.88
37.500,-8.74
37.515,-11.8
37.531,-16.09
37.546,-21.3
37.562,-27.14
37.578,-33.32
37.593,-39.7
37.609,-46.21
37.625,-52.75
37.640,-59.24
37.656,-65.47
37.671,-71.2
37.687,-76.16
37.703,-80.12
37.718,-83.03
37.734,-85.05
37.750,-86.59
37.765,-88.13
37.781,-89.9
37.796,-91.54
37.812,-91.96
37.828,-89.49
37.843,-82.37
37.859,-69.49
37.875,-50.79
37.890,-27.42
37.906,-1.45
37.921,24.54
37.937,48.21
37.953,67.72
37.968,82.02
37.984,90.87
38.000,94.65
38.015,94.24
38.031,90.72
38.046,85.07
38.062,78.02
38.078,69.99
38.093,61.11
38.109,51.5
38.125,41.37
38.140,31.08
38.156,21.12
38.171,12.0
38.187,4.11
38.203,-2.38
38.218,-7.46
38.234,-11.26
38.250,-14.11
38.265,-16.48
38.281,-18.86
38.296,-21.76
38.312,-25.47
38.328,-30.02
38.343,-35.23
38.359,-40.79
38.375,-46.41
38.390,-52.0
38.406,-57.54
38.421,-63.12
38.437,-68.64
38.453,-73.93
38.468,-78.68
38.484,-82.65
38.500,-85.82
38.515,-88.52
38.531,-91.26
38.546,-94.57
38.562,-98.75
38.578,-103.45
38.593,-107.63
38.609,-109.56
38.625,-107.23
38.640,-98.98
38.656,-84.06
38.671,-62.87
38.687,-36.96
38.703,-8.72
38.718,19.3
38.734,44.79
38.750,66.14
38.765,82.4
38.781,93.36
38.796,99.3
38.812,100.92
38.828,99.18
38.843,95.06
38.859,89.43
38.875,82.83
38.890,75.56
38.906,67.65
38.921,59.17
38.937,50.32
38.953,41.5
38.968,33.29
38.984,26.28
39.000,20.88
39.015,17.23
39.031,15.17
39.046,14.24
39.062,13.8
39.078,13.21
39.093,11.9
39.109,9.47
39.125,5.81
39.140,1.07
39.156,-4.53
39.171,-10.72
39.187,-17.25
39.203,-23.98
39.218,-30.81
39.234,-37.65
39.250,-44.36
39.265,-50.77
39.281,-56.66
39.296,-61.96
39.312,-66.78
39.328,-71.45
39.343,-76.44
39.359,-82.14
39.375,-88.6
39.390,-95.2
39.406,-100.57
39.421,-102.8
39.437,-99.88
39.453,-90.31
39.468,-73.64
39.484,-50.72
39.500,-23.5
39.515,5.35
39.531,33.16
39.546,57.7
39.562,77.51
39.578,91.97
39.593,101.21
39.609,105.9
39.625,106.95
39.640,105.42
39.656,102.16
39.671,97.83
39.687,92.72
39.703,86.88
39.718,80.28
39.734,72.97
39.750,65.26
39.765,57.69
39.781,50.98
39.796,45.75
39.812,42.46
39.828,41.11
39.843,41.39
39.859,42.62
39.875,44.01
39.890,44.79
39.906,44.38
39.921,42.5
39.937,39.15
39.953,34.61
39.968,29.27
39.984,23.43
40.000,17.22
40.015,10.61
40.031,3.47
40.046,-4.29
40.062,-12.53
40.078,-20.95
40.093,-29.18
40.109,-36.92
40.125,-44.03
40.140,-50.67
40.156,-57.16
40.171,-63.8
40.187,-70.75
40.203,-77.78
40.218,-84.01
40.234,-88.05
40.250,-88.14
40.265,-82.6
40.281,-70.37
40.296,-51.47
40.312,-27.07
40.328,0.61
40.343,28.82
40.359,54.94
40.375,76.97
40.390,93.78
40.406,105.16
40.421,111.56
40.437,113.91
40.453,113.19
40.468,110.28
40.484,105.78
40.500,100.03
40.515,93.15
40.531,85.13
40.546,76.01
40.562,65.86
40.578,55.06
40.593,44.11
40.609,33.69
40.625,24.51
40.640,17.12
40.656,11.68
40.671,7.95
40.687,5.37
40.703,3.15
40.718,0.73
40.734,-2.24
40.750,-5.75
40.765,-9.63
40.781,-13.74
40.796,-18.08
40.812,-22.82
40.828,-28.1
40.843,-33.99
40.859,-40.35
40.875,-46.83
40.890,-53.08
40.906,-58.77
40.921,-63.82
40.937,-68.31
40.953,-72.5
40.968,-76.66
40.984,-80.87
41.000,-84.98
41.015,-88.31
41.031,-89.78
41.046,-87.96
41.062,-81.55
41.078,-69.59
41.093,-52.01
41.109,-29.77
41.125,-4.67
41.140,20.89
41.156,44.5
41.171,64.21
41.187,78.81
41.203,87.96
41.218,92.04
41.234,91.91
41.250,88.58
41.265,82.96
41.281,75.67
41.296,67.07
41.312,57.35
41.328,46.75
41.343,35.58
41.359,24.33
41.375,13.62
41.390,4.03
41.406,-3.99
41.421,-10.31
41.437,-15.08
41.453,-18.63
41.468,-21.33
41.484,-23.6
41.500,-25.79
41.515,-28.21
41.531,-31.13
41.546,-34.74
41.562,-39.14
41.578,-44.31
41.593,-50.07
41.609,-56.18
41.625,-62.36
41.640,-68.37
41.656,-73.98
41.671,-79.04
41.687,-83.43
41.703,-87.11
41.718,-90.18
41.734,-92.86
41.750,-95.48
41.765,-98.26
41.781,-101.13
41.796,-103.41
41.812,-103.91
41.828,-101.02
41.843,-93.22
41.859,-79.64
41.875,-60.44
41.890,-36.81
41.906,-10.79
41.921,15.26
41.937,39.25
41.953,59.6
41.968,75.48
41.984,86.7
42.000,93.53
42.015,96.55
42.031,96.47
42.046,94.07
42.062,89.95
42.078,84.53
42.093,77.94
42.109,70.22
42.125,61.33
42.140,51.48
42.156,41.12
42.171,30.96
42.187,21.78
42.203,14.24
42.218,8.69
42.234,5.04
42.250,2.91
42.265,1.73
42.281,0.93
42.296,-0.01
42.312,-1.34
42.328,-3.21
42.343,-5.59
42.359,-8.45
42.375,-11.83
42.390,-15.87
42.406,-20.71
42.421,-26.44
42.437,-33.12
42.453,-40.47
42.468,-48.16
42.484,-55.65
42.500,-62.51
42.515,-68.45
42.531,-73.47
42.546,-77.85
42.562,-82.05
42.578,-86.54
42.593,-91.39
42.609,-96.04
42.625,-99.19
42.640,-99.06
42.656,-93.88
42.671,-82.55
42.687,-65.06
42.703,-42.6
42.718,-17.3
42.734,8.48
42.750,32.49
42.765,53.13
42.781,69.45
42.796,81.13
42.812,88.33
42.828,91.61
42.843,91.75
42.859,89.64
42.875,86.16
42.890,81.93
42.906,77.27
42.921,72.26
42.937,66.75
42.953,60.67
42.968,54.12
42.984,47.5
43.000,41.38
43.015,36.5
43.031,33.33
43.046,32.04
43.062,32.44
43.078,33.92
43.093,35.75
43.109,37.12
43.125,37.48
43.140,36.48
43.156,34.19
43.171,30.77
43.187,26.49
43.203,21.54
43.218,15.96
43.234,9.77
43.250,2.9
43.265,-4.55
43.281,-12.38
43.296,-20.24
43.312,-27.82
43.328,-34.9
43.343,-41.39
43.359,-47.45
43.375,-53.34
43.390,-59.41
43.406,-65.79
43.421,-72.3
43.437,-78.24
43.453,-82.36
43.468,-83.13
43.484,-79.02
43.500,-69.09
43.515,-53.28
43.531,-32.52
43.546,-8.6
43.562,16.21
43.578,39.68
43.593,60.04
43.609,76.16
43.625,87.73
43.640,95.01
43.656,98.66
43.671,99.46
43.687,98.16
43.703,95.3
43.718,91.25
43.734,86.14
43.750,80.07
43.765,73.06
43.781,65.19
43.796,56.61
43.812,47.65
43.828,38.86
43.843,30.9
43.859,24.45
43.875,19.87
43.890,17.22
43.906,16.16
43.921,16.07
43.937,16.26
43.953,16.2
43.968,15.65
43.984,14.51
44.000,12.82
44.015,10.44
44.031,7.27
44.046,3.19
44.062,-1.85
44.078,-7.61
44.093,-13.78
44.109,-19.96
44.125,-25.78
44.140,-31.04
44.156,-35.72
44.171,-39.98
44.187,-44.07
44.203,-48.36
44.218,-52.97
44.234,-57.81
44.250,-62.25
44.265,-65.24
44.281,-65.4
44.296,-61.4
44.312,-52.34
44.328,-38.12
44.343,-19.58
44.359,1.58
44.375,23.21
44.390,43.15
44.406,59.68
44.421,71.79
44.437,79.32
44.453,82.76
44.468,82.91
44.484,80.6
44.500,76.47
44.515,70.9
44.531,64.08
44.546,56.2
44.562,47.37
44.578,37.93
44.593,28.23
44.609,18.72
44.625,9.83
44.640,1.99
44.656,-4.48
44.671,-9.47
44.687,-13.08
44.703,-15.72
44.718,-17.92
44.734,-20.29
44.750,-23.23
44.765,-26.88
44.781,-31.17
44.796,-35.9
44.812,-40.89
44.828,-46.03
44.843,-51.3
44.859,-56.69
44.875,-62.15
44.890,-67.43
44.906,-72.2
44.921,-76.17
44.937,-79.14
44.953,-81.12
44.968,-82.25
44.984,-82.77
45.000,-83.08
45.015,-83.55
45.031,-84.37
45.046,-85.29
45.062,-85.6
45.078,-84.02
45.093,-79.15
45.109,-69.82
45.125,-55.52
45.140,-36.75
45.156,-14.85
45.171,8.24
45.187,30.48
45.203,50.09
45.218,65.9
45.234,77.29
45.250,84.18
45.265,86.96
45.281,86.22
45.296,82.65
45.312,76.97
45.328,69.75
45.343,61.51
45.359,52.64
45.375,43.36
45.390,33.87
45.406,24.39
45.421,15.24
45.437,6.79
45.453,-0.41
45.468,-6.02
45.484,-9.94
45.500,-12.38
45.515,-13.98
45.531,-15.41
45.546,-17.27
45.562,-19.88
45.578,-23.24
45.593,-27.08
45.609,-31.23
45.625,-35.63
45.640,-40.36
45.656,-45.59
45.671,-51.3
45.687,-57.31
45.703,-63.25
45.718,-68.7
45.734,-73.33
45.750,-77.05
45.765,-80.01
45.781,-82.48
45.796,-84.85
45.812,-87.43
45.828,-90.4
45.843,-93.64
45.859,-96.55
45.875,-98.01
45.890,-96.6
45.906,-90.84
45.921,-79.77
45.937,-63.39
45.953,-42.77
45.968,-19.83
45.984,3.16
46.000,24.24
46.015,42.05
46.031,56.01
46.046,66.17
46.062,72.93
46.078,76.72
46.093,77.96
46.109,77.13
46.125,74.62
46.140,70.89
46.156,66.26
46.171,60.91
46.187,54.84
46.203,48.06
46.218,40.73
46.234,33.21
46.250,26.1
46.265,20.02
46.281,15.45
46.296,12.47
46.312,10.82
46.328,9.99
46.343,9.36
46.359,8.46
46.375,7.04
46.390,5.04
46.406,2.64
46.421,0.04
46.437,-2.63
46.453,-5.45
46.468,-8.64
46.484,-12.57
46.500,-17.51
46.515,-23.49
46.531,-30.39
46.546,-37.82
46.562,-45.36
46.578,-52.57
46.593,-59.22
46.609,-65.2
46.625,-70.66
46.640,-75.86
46.656,-81.12
46.671,-86.72
46.687,-92.42
46.703,-97.46
46.718,-100.34
46.734,-99.31
46.750,-92.76
46.765,-80.0
46.781,-61.37
46.796,-38.42
46.812,-13.41
46.828,11.27
46.843,33.57
46.859,52.23
46.875,66.64
46.890,76.88
46.906,83.23
46.921,86.35
46.937,86.91
46.953,85.67
46.968,83.33
46.984,80.36
47.000,76.98
47.015,73.14
47.031,68.75
47.046,63.7
47.062,58.17
47.078,52.53
47.093,47.39
47.109,43.41
47.125,41.0
47.140,40.28
47.156,40.92
47.171,42.27
47.187,43.52
47.203,43.85
47.218,42.81
47.234,40.3
47.250,36.63
47.265,32.24
47.281,27.58
47.296,22.81
47.312,17.78
47.328,12.24
47.343,5.81
47.359,-1.62
47.375,-9.99
47.390,-18.88
47.406,-27.82
47.421,-36.31
47.437,-44.05
47.453,-50.96
47.468,-57.13
47.484,-62.88
47.500,-68.52
47.515,-74.36
47.531,-80.39
47.546,-86.09
47.562,-90.3
47.578,-91.32
47.593,-87.39
47.609,-77.21
47.625,-60.44
47.640,-38.03
47.656,-12.1
47.671,14.7
47.687,39.85
47.703,61.45
47.718,78.45
47.734,90.57
47.750,98.13
47.765,101.7
47.781,102.03
47.796,99.89
47.812,96.06
47.828,91.29
47.843,86.08
47.859,80.64
47.875,74.89
47.890,68.66
47.906,61.87
47.921,54.79
47.937,47.88
47.953,41.91
47.968,37.48
47.984,34.8
48.000,33.61
48.015,33.21
48.031,32.72
48.046,31.43
48.062,29.05
48.078,25.69
48.093,21.89
48.109,18.13
48.125,14.71
48.140,11.63
48.156,8.56
48.171,5.0
48.187,0.59
48.203,-4.81
48.218,-11.14
48.234,-18.05
48.250,-25.22
48.265,-32.3
48.281,-38.97
48.296,-45.06
48.312,-50.67
48.328,-56.03
48.343,-61.43
48.359,-67.07
48.375,-72.55
48.390,-76.93
48.406,-78.55
48.421,-75.52
48.437,-66.36
48.453,-50.59
48.468,-29.01
48.484,-3.68
48.500,22.65
48.515,47.22
48.531,67.73
48.546,82.87
48.562,92.29
48.578,96.41
48.593,96.12
48.609,92.5
48.625,86.51
48.640,78.92
48.656,70.2
48.671,60.57
48.687,50.21
48.703,39.34
48.718,28.29
48.734,17.58
48.750,7.89
48.765,-0.24
48.781,-6.46
48.796,-10.71
48.812,-13.36
48.828,-14.92
48.843,-16.12
48.859,-17.57
48.875,-19.67
48.890,-22.58
48.906,-26.28
48.921,-30.65
48.937,-35.6
48.953,-41.07
48.968,-46.91
48.984,-52.94
49.000,-58.93
49.015,-64.52
49.031,-69.47
49.046,-73.64
49.062,-77.06
49.078,-79.8
49.093,-82.03
49.109,-83.87
49.125,-85.6
49.140,-87.35
49.156,-88.98
49.171,-89.89
49.187,-88.85
49.203,-84.27
49.218,-74.71
49.234,-59.49
49.250,-39.07
49.265,-15.17
49.281,9.79
49.296,33.27
49.312,53.15
49.328,68.24
49.343,78.25
49.359,83.46
49.375,84.56
49.390,82.36
49.406,77.52
49.421,70.73
49.437,62.49
49.453,53.14
49.468,42.96
49.484,32.02
49.500,20.4
49.515,8.31
49.531,-3.82
49.546,-15.4
49.562,-25.77
49.578,-34.53
49.593,-41.68
49.609,-47.59
49.625,-52.95
49.640,-58.42
49.656,-64.39
49.671,-70.95
49.687,-77.96
49.703,-85.16
49.718,-92.51
49.734,-100.08
49.750,-107.94
49.765,-116.03
49.781,-124.04
49.796,-131.4
49.812,-137.4
49.828,-141.51
49.843,-143.39
49.859,-143.12
49.875,-141.22
49.890,-138.47
49.906,-135.82
49.921,-133.88
49.937,-132.83
49.953,-132.03
49.968,-130.12
49.984,-125.15
50.000,-115.19
50.015,-99.03
50.031,-76.65
50.046,-49.31
50.062,-19.08
50.078,11.8
50.093,41.65
50.109,69.76
50.125,96.17
50.140,121.04
50.156,144.07
50.171,164.25
50.187,180.15
50.203,190.58
50.218,195.32
50.234,195.55
50.250,193.68
50.265,192.53
50.281,194.18
50.296,198.82
50.312,204.36
50.328,206.89
50.343,202.35
50.359,188.17
50.375,164.72
50.390,135.32
50.406,105.27
50.421,80.32
50.437,64.97
50.453,61.79
50.468,70.35
50.484,87.28
50.500,106.48
50.515,120.04
50.531,119.98
50.546,100.58
50.562,60.13
50.578,1.67
50.593,-68.24
50.609,-142.08
50.625,-213.73
50.640,-279.49
50.656,-337.54
50.671,-386.2
50.687,-422.44
50.703,-441.76
50.718,-439.52
50.734,-412.97
50.750,-362.94
50.765,-293.73
50.781,-211.57
50.796,-122.59
50.812,-31.43
50.828,59.25
50.843,148.43
50.859,235.74
50.875,320.61
50.890,401.78
50.906,477.43
50.921,545.8
50.937,604.94
50.953,651.88
50.968,682.74
50.984,693.27
51.000,680.2
51.015,642.81
51.031,583.14
51.046,506.37
51.062,419.89
51.078,331.78
51.093,247.75
51.109,170.34
51.125,99.2
51.140,33.06
51.156,-28.43
51.171,-84.89
51.187,-134.81
51.203,-176.05
51.218,-206.6
51.234,-226.82
51.250,-239.69
51.265,-250.37
51.281,-264.43
51.296,-285.91
51.312,-318.26
51.328,-362.92
51.343,-418.6
51.359,-473.62
51.375,-511.5
51.390,-517.73
51.406,-488.76
51.421,-432.74
51.437,-361.26
51.453,-284.77
51.468,-208.94
51.484,-135.3
51.500,-64.27
51.515,2.79
51.531,63.25
51.546,114.19
51.562,154.11
51.578,187.61
51.593,216.68
51.609,242.23
51.625,264.06
51.640,280.37
51.656,287.8
51.671,282.66
51.687,262.41
51.703,221.02
51.718,164.31
51.734,99.32
51.750,32.26
51.765,-31.36
51.781,-86.5
51.796,-128.05
51.812,-151.58
51.828,-155.48
51.843,-141.8
51.859,-115.79
51.875,-86.31
51.890,-63.98
51.906,-51.31
51.921,-48.03
51.937,-52.58
51.953,-63.32
51.968,-79.09
51.984,-97.82
52.000,-115.12
52.015,-126.64
52.031,-128.87
52.046,-120.65
52.062,-104.48
52.078,-85.38
52.093,-68.25
52.109,-56.08
52.125,-49.02
52.140,-45.42
52.156,-44.64
52.171,-44.48
52.187,-45.32
52.203,-48.77
52.218,-56.31
52.234,-67.41
52.250,-79.11
52.265,-86.46
52.281,-84.64
52.296,-71.82
52.312,-50.04
52.328,-25.74
52.343,-7.74
52.359,-3.85
52.375,-16.61
52.390,-42.18
52.406,-72.11
52.421,-97.77
52.437,-114.18
52.453,-120.42
52.468,-118.59
52.484,-111.58
52.500,-101.43
52.515,-87.61
52.531,-68.06
52.546,-40.4
52.562,-3.37
52.578,43.28
52.593,100.49
52.609,169.06
52.625,248.07
52.640,325.5
52.656,381.54
52.671,397.68
52.687,368.36
52.703,303.15
52.718,218.27
52.734,128.91
52.750,44.82
52.765,-29.9
52.781,-94.69
52.796,-149.13
52.812,-194.17
52.828,-229.04
52.843,-252.59
52.859,-265.2
52.875,-267.93
52.890,-262.43
52.906,-250.78
52.921,-235.23
52.937,-217.02
52.953,-196.38
52.968,-172.05
52.984,-140.44
53.000,-100.7
53.015,-53.53
53.031,-1.87
53.046,49.23
53.062,93.83
53.078,128.0
53.093,150.31
53.109,163.16
53.125,171.59
53.140,180.42
53.156,192.74
53.171,207.8
53.187,220.68
53.203,224.44
53.218,213.23
53.234,183.46
53.250,137.71
53.265,85.55
53.281,41.45
53.296,21.62
53.312,38.6
53.328,97.27
53.343,193.65
53.359,316.45
53.375,448.51
53.390,557.81
53.406,611.98
53.421,593.11
53.437,509.26
53.453,387.06
53.468,254.83
53.484,131.37
53.500,30.37
53.515,-53.14
53.531,-121.7
53.546,-171.9
53.562,-198.21
53.578,-196.97
53.593,-169.88
53.609,-121.34
53.625,-60.38
53.640,2.37
53.656,55.27
53.671,89.57
53.687,101.02
53.703,90.04
53.718,61.22
53.734,21.12
53.750,-23.12
53.765,-65.37
53.781,-100.71
53.796,-126.59
53.812,-141.0
53.828,-142.82
53.843,-132.75
53.859,-114.25
53.875,-94.29
53.890,-81.57
53.906,-83.8
53.921,-104.37
53.937,-141.49
53.953,-188.09
53.968,-234.55
53.984,-271.93
54.000,-294.33
54.015,-299.9
54.031,-289.99
54.046,-267.88
54.062,-237.28
54.078,-201.87
54.093,-164.99
54.109,-129.58
54.125,-98.02
54.140,-71.56
54.156,-49.95
54.171,-31.59
54.187,-14.47
54.203,2.8
54.218,20.22
54.234,36.31
54.250,48.9
54.265,56.1
54.281,57.11
54.296,52.47
54.312,43.59
54.328,32.06
54.343,19.38
54.359,6.98
54.375,-3.67
54.390,-10.81
54.406,-12.59
54.421,-7.55
54.437,5.16
54.453,25.32
54.468,51.85
54.484,83.01
54.500,117.01
54.515,152.21
54.531,187.31
54.546,221.0
54.562,251.69
54.578,277.4
54.593,295.86
54.609,305.17
54.625,304.31
54.640,293.61
54.656,274.53
54.671,249.14
54.687,219.32
54.703,186.35
54.718,150.96
54.734,113.63
54.750,75.18
54.765,36.94
54.781,0.49
54.796,-32.79
54.812,-62.08
54.828,-87.26
54.843,-108.62
54.859,-126.26
54.875,-140.16
54.890,-150.17
54.906,-156.42
54.921,-159.52
54.937,-160.6
54.953,-160.86
54.968,-161.36
54.984,-163.01
55.000,-166.64
55.015,-173.23
55.031,-183.42
55.046,-196.99
55.062,-212.4
55.078,-227.02
55.093,-237.93
55.109,-243.3
55.125,-243.01
55.140,-238.37
55.156,-231.23
55.171,-222.45
55.187,-211.56
55.203,-197.06
55.218,-177.55
55.234,-152.87
55.250,-124.68
55.265,-96.17
55.281,-70.61
55.296,-50.25
55.312,-35.27
55.328,-24.01
55.343,-14.19
55.359,-4.25
55.375,5.48
55.390,13.24
55.406,17.1
55.421,16.74
55.437,14.21
55.453,13.29
55.468,17.83
55.484,30.01
55.500,49.95
55.515,76.23
55.531,107.39
55.546,142.73
55.562,182.0
55.578,224.1
55.593,266.04
55.609,302.84
55.625,328.83
55.640,340.09
55.656,335.76
55.671,318.31
55.687,291.96
55.703,260.72
55.718,226.78
55.734,190.4
55.750,151.0
55.765,108.99
55.781,67.53
55.796,32.13
55.812,8.81
55.828,0.95
55.843,6.98
55.859,19.92
55.875,29.78
55.890,27.43
55.906,8.18
55.921,-26.46
55.937,-70.07
55.953,-114.41
55.968,-152.87
55.984,-182.42
56.000,-203.25
56.015,-216.9
56.031,-224.31
56.046,-225.03
56.062,-217.92
56.078,-202.47
56.093,-179.38
56.109,-150.36
56.125,-117.45
56.140,-82.08
56.156,-45.17
56.171,-7.59
56.187,28.92
56.203,61.54
56.218,86.8
56.234,101.95
56.250,105.82
56.265,99.07
56.281,83.54
56.296,61.32
56.312,34.34
56.328,4.44
56.343,-25.6
56.359,-52.02
56.375,-70.35
56.390,-76.95
56.406,-70.62
56.421,-53.5
56.437,-30.55
56.453,-7.62
56.468,10.52
56.484,21.76
56.500,26.31
56.515,25.33
56.531,19.19
56.546,7.1
56.562,-11.78
56.578,-36.58
56.593,-63.53
56.609,-86.39
56.625,-98.49
56.640,-95.39
56.656,-76.78
56.671,-46.57
56.687,-10.98
56.703,24.04
56.718,54.77
56.734,80.27
56.750,101.46
56.765,119.36
56.781,133.88
56.796,143.7
56.812,147.0
56.828,142.45
56.843,130.02
56.859,110.78
56.875,86.57
56.890,59.35
56.906,30.7
56.921,1.73
56.937,-26.64
56.953,-53.33
56.968,-77.04
56.984,-96.26
57.000,-109.86
57.015,-117.35
57.031,-119.4
57.046,-117.93
57.062,-115.71
57.078,-115.21
57.093,-117.28
57.109,-121.12
57.125,-124.63
57.140,-125.33
57.156,-121.56
57.171,-113.27
57.187,-102.06
57.203,-90.37
57.218,-80.06
57.234,-71.5
57.250,-64.19
57.265,-57.59
57.281,-51.44
57.296,-45.97
57.312,-41.52
57.328,-38.02
57.343,-35.16
57.359,-32.08
57.375,-27.12
57.390,-19.65
57.406,-10.52
57.421,-1.14
57.437,7.14
57.453,13.45
57.468,17.54
57.484,18.12
57.500,14.16
57.515,7.56
57.531,0.08
57.546,-7.43
57.562,-13.51
57.578,-16.7
57.593,-16.18
57.609,-12.32
57.625,-9.37
57.640,-11.84
57.656,-18.16
57.671,-26.34
57.687,-35.56
57.703,-42.76
57.718,-43.77
57.734,-34.73
57.750,-14.0
57.765,12.48
57.781,36.4
57.796,56.79
57.812,71.35
57.828,74.93
57.843,66.27
57.859,47.47
57.875,22.62
57.890,-4.42
57.906,-37.23
57.921,-80.9
57.937,-129.84
57.953,-180.64
57.968,-234.58
57.984,-290.14
58.000,-343.4
58.015,-389.03
58.031,-387.02
58.046,-310.89
58.062,-212.92
58.078,-121.14
58.093,-28.14
58.109,64.63
58.125,154.71
58.140,238.87
58.156,313.24
58.171,373.88
58.187,411.85
58.203,420.68
58.218,408.29
58.234,382.8
58.250,347.45
58.265,305.75
58.281,260.51
58.296,213.12
58.312,164.2
58.328,109.74
58.343,47.0
58.359,-16.51
58.375,-74.28
58.390,-124.69
58.406,-166.57
58.421,-199.38
58.437,-222.9
58.453,-236.88
58.468,-243.95
58.484,-246.54
58.500,-241.97
58.515,-229.22
58.531,-210.83
58.546,-189.13
58.562,-165.67
58.578,-140.93
58.593,-114.43
58.609,-86.81
58.625,-58.73
58.640,-28.69
58.656,3.75
58.671,37.29
58.687,70.87
58.703,103.96
58.718,136.26
58.734,167.3
58.750,194.77
58.765,214.45
58.781,221.61
58.796,211.63
58.812,182.16
58.828,134.83
58.843,74.53
58.859,7.52
58.875,-60.4
58.890,-124.95
58.906,-183.33
58.921,-233.1
58.937,-271.19
58.953,-293.77
58.968,-298.44
58.984,-286.9
59.000,-264.63
59.015,-237.9
59.031,-209.92
59.046,-178.8
59.062,-138.65
59.078,-83.45
59.093,-10.18
59.109,77.7
59.125,169.51
59.140,251.59
59.156,312.84
59.171,348.85
59.187,362.18
59.203,359.39
59.218,346.36
59.234,327.46
59.250,303.04
59.265,268.39
59.281,216.81
59.296,143.25
59.312,47.23
59.328,-66.3
59.343,-189.12
59.359,-313.24
59.375,-429.35
59.390,-514.4
59.406,-545.57
59.421,-512.14
59.437,-423.87
59.453,-304.02
59.468,-175.19
59.484,-53.39
59.500,46.8
59.515,126.62
59.531,188.58
59.546,233.84
59.562,265.25
59.578,288.9
59.593,313.75
59.609,342.95
59.625,376.07
59.640,405.02
59.656,421.27
59.671,417.76
59.687,390.8
59.703,342.37
59.718,279.53
59.734,202.64
59.750,119.19
59.765,44.94
59.781,-23.07
59.796,-93.65
59.812,-171.46
59.828,-256.08
59.843,-340.77
59.859,-413.71
59.875,-460.69
59.890,-467.78
59.906,-426.76
59.921,-339.41
59.937,-213.82
59.953,-64.91
59.968,86.9
59.984,220.04
