timestamp,value
00.000,18.54
00.015,17.85
00.031,16.46
00.046,14.33
00.062,11.66
00.078,8.58
00.093,5.15
00.109,1.1
00.125,-3.87
00.140,-10.12
00.156,-17.71
00.171,-26.4
00.187,-35.65
00.203,-44.73
00.218,-53.04
00.234,-60.15
00.250,-65.96
00.265,-70.71
00.281,-74.88
00.296,-79.07
00.312,-83.72
00.328,-88.92
00.343,-94.13
00.359,-98.23
00.375,-99.55
00.390,-96.41
00.406,-87.55
00.421,-72.54
00.437,-52.05
00.453,-27.62
00.468,-1.52
00.484,24.0
00.500,46.9
00.515,65.75
00.531,79.87
00.546,89.14
00.562,94.01
00.578,95.19
00.593,93.57
00.609,89.96
00.625,85.12
00.640,79.55
00.656,73.56
00.671,67.23
00.687,60.58
00.703,53.59
00.718,46.36
00.734,39.17
00.750,32.42
00.765,26.52
00.781,21.81
00.796,18.38
00.812,16.05
00.828,14.43
00.843,12.99
00.859,11.2
00.875,8.66
00.890,5.17
00.906,0.78
00.921,-4.28
00.937,-9.63
00.953,-14.97
00.968,-20.12
00.984,-25.07
01.000,-29.97
01.015,-35.04
01.031,-40.39
01.046,-45.91
01.062,-51.31
01.078,-56.23
01.093,-60.41
01.109,-63.8
01.125,-66.58
01.140,-69.17
01.156,-72.04
01.171,-75.6
01.187,-80.01
01.203,-84.93
01.218,-89.42
01.234,-92.0
01.250,-90.86
01.265,-84.36
01.281,-71.61
01.296,-52.76
01.312,-29.11
01.328,-2.82
01.343,23.64
01.359,48.05
01.375,68.79
01.390,85.01
01.406,96.49
01.421,103.46
01.437,106.49
01.453,106.22
01.468,103.4
01.484,98.72
01.500,92.85
01.515,86.31
01.531,79.4
01.546,72.29
01.562,65.07
01.578,57.82
01.593,50.76
01.609,44.23
01.625,38.63
01.640,34.25
01.656,31.16
01.671,29.16
01.687,27.77
01.703,26.4
01.718,24.51
01.734,21.7
01.750,17.83
01.765,12.92
01.781,7.22
01.796,0.98
01.812,-5.46
01.828,-11.92
01.843,-18.32
01.859,-24.75
01.875,-31.39
01.890,-38.35
01.906,-45.59
01.921,-52.86
01.937,-59.75
01.953,-65.81
01.968,-70.7
01.984,-74.29
02.000,-76.79
02.015,-78.66
02.031,-80.54
02.046,-83.04
02.062,-86.47
02.078,-90.48
02.093,-94.01
02.109,-95.24
02.125,-92.21
02.140,-83.36
02.156,-68.09
02.171,-47.09
02.187,-22.11
02.203,4.46
02.218,30.24
02.234,53.33
02.250,72.53
02.265,87.25
02.281,97.38
02.296,103.13
02.312,104.97
02.328,103.58
02.343,99.77
02.359,94.38
02.375,88.13
02.390,81.49
02.406,74.72
02.421,67.84
02.437,60.91
02.453,54.02
02.468,47.34
02.484,41.19
02.500,35.81
02.515,31.41
02.531,27.98
02.546,25.26
02.562,22.76
02.578,19.9
02.593,16.17
02.609,11.32
02.625,5.45
02.640,-1.08
02.656,-7.72
02.671,-14.05
02.687,-19.83
02.703,-25.05
02.718,-29.98
02.734,-34.97
02.750,-40.37
02.765,-46.34
02.781,-52.85
02.796,-59.58
02.812,-66.19
02.828,-72.35
02.843,-77.88
02.859,-82.89
02.875,-87.68
02.890,-92.65
02.906,-98.08
02.921,-103.85
02.937,-109.22
02.953,-112.81
02.968,-112.83
02.984,-107.56
03.000,-95.96
03.015,-78.06
03.031,-55.08
03.046,-29.02
03.062,-2.23
03.078,23.11
03.093,45.37
03.109,63.56
03.125,77.24
03.140,86.4
03.156,91.38
03.171,92.85
03.187,91.67
03.203,88.71
03.218,84.69
03.234,80.0
03.250,74.78
03.265,69.03
03.281,62.63
03.296,55.71
03.312,48.47
03.328,41.37
03.343,34.91
03.359,29.58
03.375,25.66
03.390,23.23
03.406,22.08
03.421,21.71
03.437,21.51
03.453,20.86
03.468,19.33
03.484,16.73
03.500,13.13
03.515,8.83
03.531,4.13
03.546,-0.68
03.562,-5.59
03.578,-10.66
03.593,-16.17
03.609,-22.33
03.625,-29.24
03.640,-36.71
03.656,-44.35
03.671,-51.61
03.687,-57.97
03.703,-63.2
03.718,-67.29
03.734,-70.64
03.750,-73.87
03.765,-77.67
03.781,-82.62
03.796,-88.81
03.812,-95.69
03.828,-101.9
03.843,-105.52
03.859,-104.38
03.875,-96.91
03.890,-82.45
03.906,-61.61
03.921,-36.21
03.937,-8.73
03.953,18.24
03.968,42.56
03.984,62.75
04.000,78.16
04.015,88.68
04.031,94.77
04.046,97.16
04.062,96.64
04.078,93.99
04.093,89.8
04.109,84.55
04.125,78.48
04.140,71.74
04.156,64.42
04.171,56.64
04.187,48.69
04.203,40.9
04.218,33.77
04.234,27.76
04.250,23.31
04.265,20.63
04.281,19.64
04.296,19.95
04.312,20.9
04.328,21.7
04.343,21.64
04.359,20.32
04.375,17.66
04.390,13.9
04.406,9.39
04.421,4.48
04.437,-0.68
04.453,-6.12
04.468,-11.96
04.484,-18.32
04.500,-25.14
04.515,-32.32
04.531,-39.59
04.546,-46.7
04.562,-53.37
04.578,-59.39
04.593,-64.64
04.609,-69.19
04.625,-73.34
04.640,-77.46
04.656,-82.06
04.671,-87.43
04.687,-93.42
04.703,-99.28
04.718,-103.58
04.734,-104.47
04.750,-100.17
04.765,-89.53
04.781,-72.42
04.796,-49.94
04.812,-24.06
04.828,2.75
04.843,28.1
04.859,50.12
04.875,67.69
04.890,80.39
04.906,88.41
04.921,92.36
04.937,93.03
04.953,91.31
04.968,88.02
04.984,83.71
05.000,78.69
05.015,73.07
05.031,66.89
05.046,60.21
05.062,53.21
05.078,46.22
05.093,39.61
05.109,33.9
05.125,29.45
05.140,26.5
05.156,25.11
05.171,25.11
05.187,26.07
05.203,27.41
05.218,28.47
05.234,28.73
05.250,27.83
05.265,25.67
05.281,22.3
05.296,17.94
05.312,12.86
05.328,7.28
05.343,1.37
05.359,-4.84
05.375,-11.37
05.390,-18.24
05.406,-25.42
05.421,-32.79
05.437,-40.1
05.453,-47.09
05.468,-53.47
05.484,-59.07
05.500,-63.87
05.515,-68.0
05.531,-71.75
05.546,-75.47
05.562,-79.56
05.578,-84.12
05.593,-88.83
05.609,-92.72
05.625,-94.21
05.640,-91.48
05.656,-82.99
05.671,-68.07
05.687,-47.13
05.703,-21.81
05.718,5.54
05.734,32.42
05.750,56.6
05.765,76.61
05.781,91.73
05.796,101.87
05.812,107.38
05.828,108.88
05.843,107.14
05.859,102.95
05.875,97.12
05.890,90.28
05.906,82.89
05.921,75.2
05.937,67.28
05.953,59.1
05.968,50.79
05.984,42.56
06.000,34.87
06.015,28.29
06.031,23.25
06.046,19.95
06.062,18.23
06.078,17.57
06.093,17.24
06.109,16.49
06.125,14.72
06.140,11.64
06.156,7.35
06.171,2.15
06.187,-3.5
06.203,-9.26
06.218,-14.96
06.234,-20.64
06.250,-26.49
06.265,-32.72
06.281,-39.46
06.296,-46.57
06.312,-53.81
06.328,-60.8
06.343,-67.2
06.359,-72.74
06.375,-77.29
06.390,-80.88
06.406,-83.78
06.421,-86.44
06.437,-89.29
06.453,-92.52
06.468,-95.75
06.484,-97.92
06.500,-97.44
06.515,-92.65
06.531,-82.31
06.546,-66.12
06.562,-44.94
06.578,-20.53
06.593,4.96
06.609,29.42
06.625,51.18
06.640,69.19
06.656,82.89
06.671,92.21
06.687,97.33
06.703,98.7
06.718,96.96
06.734,92.91
06.750,87.36
06.765,81.01
06.781,74.34
06.796,67.64
06.812,60.99
06.828,54.39
06.843,47.92
06.859,41.82
06.875,36.49
06.890,32.32
06.906,29.53
06.921,28.05
06.937,27.51
06.953,27.27
06.968,26.76
06.984,25.43
07.000,23.09
07.015,19.72
07.031,15.45
07.046,10.52
07.062,5.21
07.078,-0.32
07.093,-6.08
07.109,-12.15
07.125,-18.8
07.140,-26.21
07.156,-34.4
07.171,-43.21
07.187,-52.13
07.203,-60.6
07.218,-68.13
07.234,-74.49
07.250,-79.72
07.265,-84.18
07.281,-88.3
07.296,-92.5
07.312,-97.1
07.328,-102.05
07.343,-106.86
07.359,-110.53
07.375,-111.52
07.390,-108.15
07.406,-99.05
07.421,-83.66
07.437,-62.58
07.453,-37.5
07.468,-10.74
07.484,15.28
07.500,38.55
07.515,57.86
07.531,72.63
07.546,82.85
07.562,88.8
07.578,91.03
07.593,90.21
07.609,87.19
07.625,82.8
07.640,77.76
07.656,72.58
07.671,67.34
07.687,61.9
07.703,55.99
07.718,49.52
07.734,42.69
07.750,36.01
07.765,30.09
07.781,25.41
07.796,22.23
07.812,20.33
07.828,19.29
07.843,18.56
07.859,17.67
07.875,16.35
07.890,14.56
07.906,12.35
07.921,9.79
07.937,6.9
07.953,3.59
07.968,-0.3
07.984,-4.92
08.000,-10.37
08.015,-16.57
08.031,-23.34
08.046,-30.42
08.062,-37.58
08.078,-44.52
08.093,-51.14
08.109,-57.31
08.125,-63.06
08.140,-68.52
08.156,-73.91
08.171,-79.53
08.187,-85.52
08.203,-91.72
08.218,-97.34
08.234,-101.21
08.250,-101.71
08.265,-97.37
08.281,-87.27
08.296,-71.37
08.312,-50.68
08.328,-26.88
08.343,-2.1
08.359,21.74
08.375,43.05
08.390,60.9
08.406,74.91
08.421,85.08
08.437,91.69
08.453,95.16
08.468,95.94
08.484,94.49
08.500,91.31
08.515,86.82
08.531,81.47
08.546,75.58
08.562,69.38
08.578,63.09
08.593,56.81
08.609,50.71
08.625,44.99
08.640,39.91
08.656,35.68
08.671,32.4
08.687,29.99
08.703,28.08
08.718,26.3
08.734,24.19
08.750,21.46
08.765,17.96
08.781,13.79
08.796,9.12
08.812,4.18
08.828,-0.82
08.843,-5.82
08.859,-10.74
08.875,-15.68
08.890,-20.73
08.906,-26.01
08.921,-31.56
08.937,-37.28
08.953,-42.99
08.968,-48.41
08.984,-53.32
09.000,-57.56
09.015,-61.24
09.031,-64.59
09.046,-68.05
09.062,-72.03
09.078,-76.74
09.093,-81.88
09.109,-86.5
09.125,-89.1
09.140,-87.9
09.156,-81.46
09.171,-69.07
09.187,-51.06
09.203,-28.83
09.218,-4.46
09.234,19.78
09.250,41.93
09.265,60.57
09.281,74.96
09.296,84.87
09.312,90.49
09.328,92.27
09.343,90.86
09.359,87.03
09.375,81.49
09.390,74.93
09.406,67.78
09.421,60.32
09.437,52.68
09.453,44.93
09.468,37.25
09.484,29.99
09.500,23.65
09.515,18.75
09.531,15.67
09.546,14.41
09.562,14.59
09.578,15.43
09.593,15.94
09.609,15.25
09.625,12.89
09.640,8.98
09.656,3.97
09.671,-1.53
09.687,-7.14
09.703,-12.82
09.718,-18.78
09.734,-25.26
09.750,-32.27
09.765,-39.6
09.781,-46.84
09.796,-53.73
09.812,-60.13
09.828,-66.13
09.843,-71.81
09.859,-77.27
09.875,-82.56
09.890,-87.74
09.906,-92.93
09.921,-98.03
09.937,-102.65
09.953,-105.81
09.968,-106.08
09.984,-101.96
10.000,-92.35
10.015,-77.08
10.031,-56.99
10.046,-33.84
10.062,-9.68
10.078,13.47
10.093,34.05
10.109,51.14
10.125,64.37
10.140,73.84
10.156,79.92
10.171,83.06
10.187,83.68
10.203,82.2
10.218,79.0
10.234,74.45
10.250,68.96
10.265,62.88
10.281,56.52
10.296,50.01
10.312,43.4
10.328,36.75
10.343,30.27
10.359,24.32
10.375,19.23
10.390,15.19
10.406,11.99
10.421,9.25
10.437,6.54
10.453,3.53
10.468,0.21
10.484,-3.22
10.500,-6.54
10.515,-9.68
10.531,-12.82
10.546,-16.41
10.562,-20.86
10.578,-26.36
10.593,-32.8
10.609,-39.82
10.625,-46.88
10.640,-53.63
10.656,-59.73
10.671,-65.06
10.687,-69.68
10.703,-73.68
10.718,-77.2
10.734,-80.47
10.750,-83.82
10.765,-87.6
10.781,-92.07
10.796,-96.98
10.812,-101.56
10.828,-104.48
10.843,-104.04
10.859,-98.7
10.875,-87.47
10.890,-70.36
10.906,-48.45
10.921,-23.7
10.937,1.65
10.953,25.45
10.968,46.19
10.984,63.14
11.000,76.25
11.015,85.85
11.031,92.44
11.046,96.54
11.062,98.58
11.078,98.98
11.093,98.15
11.109,96.3
11.125,93.63
11.140,90.11
11.156,85.63
11.171,80.17
11.187,73.8
11.203,66.89
11.218,59.96
11.234,53.66
11.250,48.51
11.265,44.84
11.281,42.6
11.296,41.33
11.312,40.39
11.328,39.0
11.343,36.63
11.359,32.96
11.375,28.05
11.390,22.18
11.406,15.69
11.421,8.91
11.437,1.93
11.453,-5.29
11.468,-12.84
11.484,-20.77
11.500,-29.0
11.515,-37.26
11.531,-45.2
11.546,-52.47
11.562,-58.79
11.578,-64.11
11.593,-68.55
11.609,-72.32
11.625,-75.72
11.640,-79.12
11.656,-82.96
11.671,-87.67
11.687,-93.46
11.703,-99.95
11.718,-106.08
11.734,-110.09
11.750,-109.86
11.765,-103.63
11.781,-90.43
11.796,-70.63
11.812,-45.81
11.828,-18.36
11.843,9.24
11.859,34.78
11.875,56.71
11.890,74.25
11.906,87.09
11.921,95.44
11.937,99.76
11.953,100.71
11.968,98.99
11.984,95.35
12.000,90.4
12.015,84.54
12.031,78.06
12.046,71.01
12.062,63.57
12.078,55.95
12.093,48.52
12.109,41.66
12.125,35.84
12.140,31.36
12.156,28.41
12.171,26.99
12.187,26.82
12.203,27.46
12.218,28.36
12.234,28.88
12.250,28.46
12.265,26.68
12.281,23.35
12.296,18.57
12.312,12.72
12.328,6.22
12.343,-0.41
12.359,-6.85
12.375,-13.01
12.390,-18.94
12.406,-24.86
12.421,-30.94
12.437,-37.25
12.453,-43.63
12.468,-49.85
12.484,-55.63
12.500,-60.78
12.515,-65.27
12.531,-69.26
12.546,-73.06
12.562,-76.97
12.578,-81.11
12.593,-85.23
12.609,-88.57
12.625,-89.82
12.640,-87.42
12.656,-79.9
12.671,-66.44
12.687,-47.18
12.703,-23.38
12.718,2.94
12.734,29.39
12.750,53.7
12.765,74.2
12.781,89.84
12.796,100.33
12.812,105.94
12.828,107.42
12.843,105.64
12.859,101.58
12.875,96.02
12.890,89.55
12.906,82.54
12.921,75.17
12.937,67.47
12.953,59.46
12.968,51.32
12.984,43.28
13.000,35.72
13.015,29.09
13.031,23.75
13.046,19.93
13.062,17.56
13.078,16.23
13.093,15.27
13.109,13.96
13.125,11.72
13.140,8.21
13.156,3.49
13.171,-2.06
13.187,-7.93
13.203,-13.64
13.218,-18.99
13.234,-24.03
13.250,-29.06
13.265,-34.45
13.281,-40.4
13.296,-46.89
13.312,-53.65
13.328,-60.16
13.343,-65.99
13.359,-70.94
13.375,-74.96
13.390,-78.42
13.406,-81.89
13.421,-85.87
13.437,-90.68
13.453,-96.18
13.468,-101.44
13.484,-104.93
13.500,-104.76
13.515,-99.14
13.531,-87.09
13.546,-68.7
13.562,-45.27
13.578,-18.95
13.593,7.78
13.609,32.73
13.625,54.27
13.640,71.42
13.656,83.85
13.671,91.65
13.687,95.27
13.703,95.45
13.718,93.01
13.734,88.74
13.750,83.36
13.765,77.28
13.781,70.72
13.796,63.77
13.812,56.5
13.828,49.07
13.843,41.83
13.859,35.09
13.875,29.22
13.890,24.6
13.906,21.35
13.921,19.5
13.937,18.88
13.953,19.05
13.968,19.51
13.984,19.79
14.000,19.45
14.015,18.24
14.031,16.03
14.046,12.77
14.062,8.57
14.078,3.54
14.093,-2.1
14.109,-8.1
14.125,-14.2
14.140,-20.19
14.156,-26.0
14.171,-31.66
14.187,-37.29
14.203,-42.93
14.218,-48.54
14.234,-53.98
14.250,-59.06
14.265,-63.64
14.281,-67.75
14.296,-71.61
14.312,-75.61
14.328,-80.16
14.343,-85.39
14.359,-90.89
14.375,-95.63
14.390,-97.94
14.406,-95.98
14.421,-88.24
14.437,-74.1
14.453,-54.04
14.468,-29.67
14.484,-3.2
14.500,23.01
14.515,46.91
14.531,67.03
14.546,82.53
14.562,93.13
14.578,98.99
14.593,100.7
14.609,99.03
14.625,94.96
14.640,89.33
14.656,82.85
14.671,75.97
14.687,68.96
14.703,61.96
14.718,54.98
14.734,48.08
14.750,41.32
14.765,34.87
14.781,29.02
14.796,24.14
14.812,20.61
14.828,18.61
14.843,18.05
14.859,18.52
14.875,19.49
14.890,20.31
14.906,20.52
14.921,19.82
14.937,18.04
14.953,15.16
14.968,11.21
14.984,6.37
15.000,0.86
15.015,-4.96
15.031,-10.8
15.046,-16.39
15.062,-21.63
15.078,-26.6
15.093,-31.44
15.109,-36.32
15.125,-41.3
15.140,-46.3
15.156,-51.14
15.171,-55.64
15.187,-59.7
15.203,-63.32
15.218,-66.72
15.234,-70.15
15.250,-73.96
15.265,-78.26
15.281,-82.82
15.296,-86.85
15.312,-89.1
15.328,-87.96
15.343,-81.89
15.359,-70.02
15.375,-52.4
15.390,-30.18
15.406,-5.32
15.421,19.93
15.437,43.54
15.453,64.0
15.468,80.41
15.484,92.53
15.500,100.38
15.515,104.24
15.531,104.58
15.546,101.92
15.562,96.89
15.578,90.11
15.593,82.17
15.609,73.56
15.625,64.64
15.640,55.7
15.656,46.98
15.671,38.74
15.687,31.26
15.703,24.87
15.718,19.88
15.734,16.52
15.750,14.74
15.765,14.28
15.781,14.59
15.796,15.05
15.812,15.06
15.828,14.11
15.843,11.96
15.859,8.56
15.875,4.03
15.890,-1.39
15.906,-7.43
15.921,-13.83
15.937,-20.34
15.953,-26.78
15.968,-33.14
15.984,-39.34
16.000,-45.35
16.015,-51.09
16.031,-56.45
16.046,-61.3
16.062,-65.52
16.078,-69.09
16.093,-72.06
16.109,-74.72
16.125,-77.51
16.140,-80.91
16.156,-85.19
16.171,-90.12
16.187,-94.78
16.203,-97.66
16.218,-96.94
16.234,-91.05
16.250,-79.19
16.265,-61.63
16.281,-39.67
16.296,-15.28
16.312,9.37
16.328,32.35
16.343,52.2
16.359,67.98
16.375,79.38
16.390,86.51
16.406,89.86
16.421,90.13
16.437,88.13
16.453,84.63
16.468,80.21
16.484,75.16
16.500,69.51
16.515,63.2
16.531,56.18
16.546,48.54
16.562,40.61
16.578,32.8
16.593,25.65
16.609,19.59
16.625,14.9
16.640,11.64
16.656,9.6
16.671,8.3
16.687,7.17
16.703,5.63
16.718,3.24
16.734,-0.15
16.750,-4.38
16.765,-9.08
16.781,-13.84
16.796,-18.41
16.812,-22.85
16.828,-27.35
16.843,-32.19
16.859,-37.62
16.875,-43.63
16.890,-50.01
16.906,-56.45
16.921,-62.56
16.937,-68.0
16.953,-72.66
16.968,-76.56
16.984,-80.0
17.000,-83.41
17.015,-87.29
17.031,-91.86
17.046,-96.96
17.062,-101.68
17.078,-104.55
17.093,-103.77
17.109,-97.7
17.125,-85.45
17.140,-67.14
17.156,-43.96
17.171,-17.92
17.187,8.64
17.203,33.58
17.218,55.26
17.234,72.71
17.250,85.47
17.265,93.69
17.281,97.76
17.296,98.39
17.312,96.39
17.328,92.53
17.343,87.51
17.359,81.75
17.375,75.51
17.390,68.82
17.406,61.66
17.421,54.05
17.437,46.17
17.453,38.35
17.468,31.03
17.484,24.64
17.500,19.55
17.515,15.99
17.531,13.9
17.546,12.99
17.562,12.77
17.578,12.65
17.593,12.16
17.609,10.9
17.625,8.72
17.640,5.61
17.656,1.72
17.671,-2.83
17.687,-7.93
17.703,-13.54
17.718,-19.65
17.734,-26.15
17.750,-32.92
17.765,-39.75
17.781,-46.42
17.796,-52.73
17.812,-58.58
17.828,-64.0
17.843,-69.04
17.859,-73.85
17.875,-78.48
17.890,-83.04
17.906,-87.68
17.921,-92.58
17.937,-97.65
17.953,-102.33
17.968,-105.42
17.984,-105.21
18.000,-99.98
18.015,-88.48
18.031,-70.55
18.046,-47.26
18.062,-20.69
18.078,6.64
18.093,32.37
18.109,54.77
18.125,72.92
18.140,86.55
18.156,95.89
18.171,101.41
18.187,103.68
18.203,103.29
18.218,100.88
18.234,97.0
18.250,92.14
18.265,86.65
18.281,80.67
18.296,74.25
18.312,67.46
18.328,60.43
18.343,53.5
18.359,47.16
18.375,41.84
18.390,37.91
18.406,35.41
18.421,34.08
18.437,33.45
18.453,32.93
18.468,32.03
18.484,30.37
18.500,27.82
18.515,24.33
18.531,20.08
18.546,15.26
18.562,10.03
18.578,4.51
18.593,-1.19
18.609,-7.08
18.625,-13.14
18.640,-19.33
18.656,-25.65
18.671,-31.99
18.687,-38.25
18.703,-44.41
18.718,-50.37
18.734,-56.02
18.750,-61.28
18.765,-66.06
18.781,-70.42
18.796,-74.54
18.812,-78.74
18.828,-83.35
18.843,-88.52
18.859,-93.82
18.875,-98.15
18.890,-99.76
18.906,-96.73
18.921,-87.51
18.937,-71.63
18.953,-49.81
18.968,-23.87
18.984,3.76
19.000,30.68
19.015,54.91
19.031,75.14
19.046,90.7
19.062,101.42
19.078,107.49
19.093,109.43
19.109,108.05
19.125,104.23
19.140,98.84
19.156,92.54
19.171,85.71
19.187,78.54
19.203,71.02
19.218,63.12
19.234,54.87
19.250,46.51
19.265,38.46
19.281,31.33
19.296,25.74
19.312,22.11
19.328,20.46
19.343,20.28
19.359,20.72
19.375,20.78
19.390,19.66
19.406,17.0
19.421,12.9
19.437,7.7
19.453,1.82
19.468,-4.41
19.484,-10.85
19.500,-17.49
19.515,-24.35
19.531,-31.48
19.546,-38.88
19.562,-46.44
19.578,-54.0
19.593,-61.32
19.609,-68.05
19.625,-73.93
19.640,-78.74
19.656,-82.52
19.671,-85.47
19.687,-88.05
19.703,-90.87
19.718,-94.42
19.734,-98.84
19.750,-103.54
19.765,-107.15
19.781,-107.65
19.796,-102.97
19.812,-91.62
19.828,-73.25
19.843,-48.9
19.859,-20.75
19.875,8.46
19.890,36.13
19.906,60.22
19.921,79.53
19.937,93.57
19.953,102.44
19.968,106.71
19.984,107.16
20.000,104.76
20.015,100.36
20.031,94.72
20.046,88.27
20.062,81.29
20.078,73.9
20.093,66.08
20.109,57.89
20.125,49.43
20.140,41.1
20.156,33.38
20.171,26.92
20.187,22.24
20.203,19.63
20.218,18.98
20.234,19.61
20.250,20.68
20.265,21.29
20.281,20.88
20.296,19.26
20.312,16.63
20.328,13.27
20.343,9.53
20.359,5.45
20.375,0.89
20.390,-4.34
20.406,-10.18
20.421,-16.12
20.437,-21.63
20.453,-26.28
20.468,-29.99
20.484,-33.12
20.500,-36.33
20.515,-40.26
20.531,-45.08
20.546,-50.21
20.562,-54.51
20.578,-57.19
20.593,-58.17
20.609,-58.01
20.625,-57.63
20.640,-57.36
20.656,-56.55
20.671,-53.6
20.687,-46.29
20.703,-32.64
20.718,-12.3
20.734,14.17
20.750,46.3
20.765,84.42
20.781,129.2
20.796,179.93
20.812,232.49
20.828,278.88
20.843,308.51
20.859,310.14
20.875,276.54
20.890,207.31
20.906,109.49
20.921,-5.06
20.937,-123.55
20.953,-235.74
20.968,-334.88
20.984,-412.46
21.000,-459.85
21.015,-469.34
21.031,-437.95
21.046,-369.83
21.062,-275.48
21.078,-168.13
21.093,-60.39
21.109,37.39
21.125,122.53
21.140,192.44
21.156,243.66
21.171,272.44
21.187,276.41
21.203,256.38
21.218,217.4
21.234,165.52
21.250,111.75
21.265,67.91
21.281,41.63
21.296,34.91
21.312,44.25
21.328,62.78
21.343,83.02
21.359,98.98
21.375,107.11
21.390,106.28
21.406,96.53
21.421,77.78
21.437,50.6
21.453,16.66
21.468,-21.16
21.484,-59.25
21.500,-94.12
21.515,-122.85
21.531,-143.24
21.546,-154.37
21.562,-156.85
21.578,-151.96
21.593,-141.2
21.609,-125.9
21.625,-107.17
21.640,-85.91
21.656,-63.19
21.671,-40.1
21.687,-17.93
21.703,1.85
21.718,18.27
21.734,31.05
21.750,40.56
21.765,47.48
21.781,52.53
21.796,56.17
21.812,58.59
21.828,59.82
21.843,59.77
21.859,58.51
21.875,56.17
21.890,52.92
21.906,48.74
21.921,43.43
21.937,36.8
21.953,28.91
21.968,20.4
21.984,12.44
22.000,6.46
22.015,3.47
22.031,3.82
22.046,6.94
22.062,11.55
22.078,16.09
22.093,19.0
22.109,19.2
22.125,16.11
22.140,9.69
22.156,0.46
22.171,-10.68
22.187,-22.5
22.203,-33.9
22.218,-44.05
22.234,-52.68
22.250,-59.88
22.265,-66.02
22.281,-71.48
22.296,-76.48
22.312,-81.23
22.328,-85.88
22.343,-90.67
22.359,-95.84
22.375,-101.59
22.390,-107.92
22.406,-114.57
22.421,-120.89
22.437,-125.81
22.453,-127.99
22.468,-125.94
22.484,-118.55
22.500,-105.25
22.515,-86.39
22.531,-63.29
22.546,-37.85
22.562,-12.25
22.578,11.54
22.593,32.06
22.609,48.52
22.625,60.75
22.640,69.04
22.656,74.14
22.671,76.81
22.687,77.74
22.703,77.36
22.718,75.77
22.734,72.88
22.750,68.55
22.765,62.85
22.781,56.01
22.796,48.56
22.812,41.08
22.828,34.21
22.843,28.46
22.859,24.25
22.875,21.81
22.890,21.14
22.906,22.02
22.921,23.88
22.937,26.07
22.953,27.81
22.968,28.4
22.984,27.47
23.000,24.89
23.015,21.01
23.031,16.37
23.046,11.55
23.062,6.83
23.078,2.04
23.093,-3.35
23.109,-9.97
23.125,-18.03
23.140,-27.27
23.156,-36.62
23.171,-44.88
23.187,-51.08
23.203,-54.98
23.218,-57.21
23.234,-58.99
23.250,-61.61
23.265,-65.87
23.281,-71.73
23.296,-78.2
23.312,-83.71
23.328,-86.49
23.343,-85.12
23.359,-78.76
23.375,-67.28
23.390,-51.18
23.406,-31.45
23.421,-9.48
23.437,13.2
23.453,34.98
23.468,54.36
23.484,70.2
23.500,81.87
23.515,89.33
23.531,93.01
23.546,93.71
23.562,92.19
23.578,89.1
23.593,84.95
23.609,80.06
23.625,74.78
23.640,69.29
23.656,63.67
23.671,57.85
23.687,51.74
23.703,45.31
23.718,38.71
23.734,32.34
23.750,26.78
23.765,22.56
23.781,19.99
23.796,19.01
23.812,19.23
23.828,20.12
23.843,21.01
23.859,21.29
23.875,20.46
23.890,18.18
23.906,14.45
23.921,9.48
23.937,3.75
23.953,-2.17
23.968,-7.79
23.984,-12.95
24.000,-17.84
24.015,-22.87
24.031,-28.41
24.046,-34.48
24.062,-40.69
24.078,-46.42
24.093,-51.31
24.109,-55.47
24.125,-59.53
24.140,-64.11
24.156,-69.46
24.171,-75.13
24.187,-80.26
24.203,-84.12
24.218,-86.55
24.234,-88.06
24.250,-89.11
24.265,-89.61
24.281,-88.4
24.296,-83.57
24.312,-73.33
24.328,-56.85
24.343,-34.94
24.359,-9.77
24.375,15.87
24.390,39.48
24.406,59.42
24.421,75.13
24.437,86.78
24.453,94.83
24.468,99.68
24.484,101.6
24.500,100.89
24.515,97.99
24.531,93.64
24.546,88.54
24.562,83.25
24.578,78.07
24.593,72.94
24.609,67.54
24.625,61.48
24.640,54.52
24.656,46.84
24.671,39.18
24.687,32.71
24.703,28.57
24.718,27.41
24.734,28.83
24.750,31.56
24.765,33.69
24.781,33.48
24.796,30.0
24.812,23.44
24.828,14.81
24.843,5.42
24.859,-3.75
24.875,-12.31
24.890,-20.23
24.906,-27.58
24.921,-34.15
24.937,-39.57
24.953,-43.41
24.968,-45.55
24.984,-46.37
25.000,-46.66
25.015,-47.49
25.031,-49.69
25.046,-53.79
25.062,-59.64
25.078,-66.58
25.093,-73.54
25.109,-79.42
25.125,-83.48
25.140,-85.74
25.156,-87.12
25.171,-89.01
25.187,-92.63
25.203,-98.08
25.218,-104.0
25.234,-107.81
25.250,-106.7
25.265,-98.69
25.281,-83.53
25.296,-62.53
25.312,-37.98
25.328,-12.23
25.343,12.99
25.359,36.5
25.375,57.47
25.390,74.96
25.406,88.03
25.421,96.13
25.437,99.45
25.453,99.05
25.468,96.51
25.484,93.24
25.500,89.87
25.515,86.2
25.531,81.38
25.546,74.52
25.562,65.29
25.578,54.17
25.593,42.55
25.609,32.31
25.625,25.1
25.640,21.71
25.656,21.72
25.671,23.65
25.687,25.63
25.703,26.12
25.718,24.51
25.734,21.33
25.750,17.6
25.765,14.28
25.781,11.73
25.796,9.95
25.812,8.69
25.828,7.82
25.843,7.05
25.859,5.61
25.875,2.31
25.890,-4.21
25.906,-14.65
25.921,-28.44
25.937,-43.57
25.953,-57.4
25.968,-67.66
25.984,-73.44
26.000,-75.44
26.015,-75.27
26.031,-74.67
26.046,-74.85
26.062,-76.28
26.078,-79.0
26.093,-82.96
26.109,-87.9
26.125,-93.05
26.140,-96.95
26.156,-97.44
26.171,-92.44
26.187,-80.54
26.203,-61.71
26.218,-37.5
26.234,-10.6
26.250,16.02
26.265,39.89
26.281,59.62
26.296,74.9
26.312,86.07
26.328,93.8
26.343,98.58
26.359,100.57
26.375,99.7
26.390,95.9
26.406,89.45
26.421,81.07
26.437,71.82
26.453,62.79
26.468,54.86
26.484,48.43
26.500,43.36
26.515,39.11
26.531,35.06
26.546,30.79
26.562,26.3
26.578,22.01
26.593,18.46
26.609,16.13
26.625,15.06
26.640,14.8
26.656,14.62
26.671,13.71
26.687,11.55
26.703,8.02
26.718,3.44
26.734,-1.77
26.750,-7.23
26.765,-12.79
26.781,-18.47
26.796,-24.24
26.812,-30.05
26.828,-35.75
26.843,-41.17
26.859,-46.23
26.875,-51.01
26.890,-55.71
26.906,-60.69
26.921,-66.2
26.937,-72.37
26.953,-79.06
26.968,-86.09
26.984,-93.07
27.000,-99.6
27.015,-105.13
27.031,-108.78
27.046,-109.48
27.062,-105.9
27.078,-96.93
27.093,-81.99
27.109,-61.47
27.125,-36.67
27.140,-9.68
27.156,17.27
27.171,42.26
27.187,63.88
27.203,81.4
27.218,94.51
27.234,103.2
27.250,107.77
27.265,108.66
27.281,106.45
27.296,101.89
27.312,95.73
27.328,88.55
27.343,80.77
27.359,72.66
27.375,64.35
27.390,56.02
27.406,47.98
27.421,40.61
27.437,34.33
27.453,29.59
27.468,26.63
27.484,25.5
27.500,25.93
27.515,27.36
27.531,28.96
27.546,29.91
27.562,29.48
27.578,27.24
27.593,23.21
27.609,17.61
27.625,10.94
27.640,3.63
27.656,-3.99
27.671,-11.75
27.687,-19.53
27.703,-27.27
27.718,-34.8
27.734,-41.95
27.750,-48.6
27.765,-54.68
27.781,-60.24
27.796,-65.36
27.812,-69.97
27.828,-73.98
27.843,-77.36
27.859,-80.3
27.875,-83.33
27.890,-87.15
27.906,-92.09
27.921,-97.68
27.937,-102.44
27.953,-104.01
27.968,-99.93
27.984,-88.59
28.000,-69.8
28.015,-44.96
28.031,-16.66
28.046,12.23
28.062,39.17
28.078,62.44
28.093,81.28
28.109,95.46
28.125,105.15
28.140,110.6
28.156,112.21
28.171,110.46
28.187,106.05
28.203,99.77
28.218,92.41
28.234,84.66
28.250,76.86
28.265,69.11
28.281,61.25
28.296,53.23
28.312,45.16
28.328,37.56
28.343,31.2
28.359,26.77
28.375,24.57
28.390,24.28
28.406,25.01
28.421,25.71
28.437,25.53
28.453,24.1
28.468,21.52
28.484,18.18
28.500,14.35
28.515,10.07
28.531,5.19
28.546,-0.51
28.562,-7.0
28.578,-13.99
28.593,-20.99
28.609,-27.47
28.625,-33.17
28.640,-38.16
28.656,-42.76
28.671,-47.38
28.687,-52.26
28.703,-57.37
28.718,-62.37
28.734,-66.84
28.750,-70.46
28.765,-73.3
28.781,-75.78
28.796,-78.55
28.812,-82.16
28.828,-86.62
28.843,-91.15
28.859,-94.09
28.875,-93.34
28.890,-86.88
28.906,-73.56
28.921,-53.5
28.937,-28.13
28.953,0.11
28.968,28.47
28.984,54.49
29.000,76.45
29.015,93.3
29.031,104.77
29.046,111.01
29.062,112.58
29.078,110.33
29.093,105.27
29.109,98.4
29.125,90.58
29.140,82.38
29.156,73.98
29.171,65.45
29.187,56.78
29.203,48.08
29.218,39.64
29.234,31.85
29.250,25.22
29.265,20.14
29.281,16.84
29.296,15.28
29.312,15.07
29.328,15.62
29.343,16.13
29.359,15.94
29.375,14.62
29.390,12.13
29.406,8.71
29.421,4.71
29.437,0.47
29.453,-3.9
29.468,-8.45
29.484,-13.4
29.500,-18.83
29.515,-24.77
29.531,-31.03
29.546,-37.35
29.562,-43.38
29.578,-48.74
29.593,-53.08
29.609,-56.28
29.625,-58.4
29.640,-59.84
29.656,-61.25
29.671,-63.31
29.687,-66.59
29.703,-71.2
29.718,-76.55
29.734,-81.33
29.750,-83.78
29.765,-81.97
29.781,-74.36
29.796,-60.27
29.812,-40.13
29.828,-15.49
29.843,11.32
29.859,37.79
29.875,61.58
29.890,80.93
29.906,94.76
29.921,102.61
29.937,104.51
29.953,101.03
29.968,93.14
29.984,82.19
30.000,69.71
30.015,57.15
30.031,45.56
30.046,35.51
30.062,27.01
30.078,19.83
30.093,13.67
30.109,8.46
30.125,4.38
30.140,1.72
30.156,0.71
30.171,1.44
30.187,3.8
30.203,7.35
30.218,11.45
30.234,15.34
30.250,18.26
30.265,19.64
30.281,19.22
30.296,16.98
30.312,13.2
30.328,8.22
30.343,2.46
30.359,-3.74
30.375,-10.09
30.390,-16.37
30.406,-22.52
30.421,-28.48
30.437,-34.33
30.453,-40.12
30.468,-45.87
30.484,-51.56
30.500,-57.1
30.515,-62.34
30.531,-67.16
30.546,-71.49
30.562,-75.45
30.578,-79.29
30.593,-83.35
30.609,-87.76
30.625,-92.15
30.640,-95.46
30.656,-95.99
30.671,-91.95
30.687,-82.0
30.703,-65.73
30.718,-43.95
30.734,-18.5
30.750,8.21
30.765,33.8
30.781,56.26
30.796,74.4
30.812,87.66
30.828,96.11
30.843,100.18
30.859,100.57
30.875,98.11
30.890,93.57
30.906,87.66
30.921,80.88
30.937,73.61
30.953,66.06
30.968,58.29
30.984,50.34
31.000,42.31
31.015,34.54
31.031,27.53
31.046,21.92
31.062,18.22
31.078,16.64
31.093,16.91
31.109,18.38
31.125,20.14
31.140,21.36
31.156,21.52
31.171,20.54
31.187,18.59
31.203,15.91
31.218,12.68
31.234,8.87
31.250,4.38
31.265,-0.78
31.281,-6.46
31.296,-12.36
31.312,-18.09
31.328,-23.42
31.343,-28.33
31.359,-32.96
31.375,-37.56
31.390,-42.32
31.406,-47.27
31.421,-52.34
31.437,-57.37
31.453,-62.1
31.468,-66.31
31.484,-69.9
31.500,-72.94
31.515,-75.73
31.531,-78.66
31.546,-82.05
31.562,-85.98
31.578,-89.98
31.593,-93.05
31.609,-93.68
31.625,-90.29
31.640,-81.59
31.656,-67.03
31.671,-47.06
31.687,-23.08
31.703,2.82
31.718,28.36
31.734,51.48
31.750,70.68
31.765,85.09
31.781,94.48
31.796,99.13
31.812,99.73
31.828,97.17
31.843,92.44
31.859,86.49
31.875,80.0
31.890,73.34
31.906,66.6
31.921,59.75
31.937,52.69
31.953,45.55
31.968,38.61
31.984,32.28
32.000,27.03
32.015,23.25
32.031,21.08
32.046,20.37
32.062,20.73
32.078,21.62
32.093,22.47
32.109,22.82
32.125,22.37
32.140,20.92
32.156,18.45
32.171,14.98
32.187,10.67
32.203,5.71
32.218,0.38
32.234,-4.97
32.250,-10.15
32.265,-14.97
32.281,-19.51
32.296,-23.83
32.312,-28.02
32.328,-32.11
32.343,-36.16
32.359,-40.24
32.375,-44.37
32.390,-48.69
32.406,-53.15
32.421,-57.7
32.437,-62.13
32.453,-66.31
32.468,-70.23
32.484,-74.21
32.500,-78.69
32.515,-83.91
32.531,-89.67
32.546,-95.01
32.562,-98.4
32.578,-97.93
32.593,-92.02
32.609,-79.81
32.625,-61.49
32.640,-38.33
32.656,-12.24
32.671,14.4
32.687,39.46
32.703,61.11
32.718,78.16
32.734,90.07
32.750,96.85
32.765,99.01
32.781,97.36
32.796,92.84
32.812,86.35
32.828,78.73
32.843,70.53
32.859,62.19
32.875,53.94
32.890,45.96
32.906,38.38
32.921,31.37
32.937,25.18
32.953,20.07
32.968,16.34
32.984,14.04
33.000,13.06
33.015,13.01
33.031,13.38
33.046,13.57
33.062,13.07
33.078,11.62
33.093,9.12
33.109,5.65
33.125,1.37
33.140,-3.6
33.156,-9.06
33.171,-14.76
33.187,-20.48
33.203,-26.08
33.218,-31.54
33.234,-37.02
33.250,-42.69
33.265,-48.66
33.281,-54.85
33.296,-60.97
33.312,-66.62
33.328,-71.42
33.343,-75.24
33.359,-78.21
33.375,-80.77
33.390,-83.46
33.406,-86.8
33.421,-91.02
33.437,-95.85
33.453,-100.37
33.468,-102.95
33.484,-101.7
33.500,-94.87
33.515,-81.53
33.531,-61.88
33.546,-37.27
33.562,-9.91
33.578,17.69
33.593,43.31
33.609,65.25
33.625,82.56
33.640,94.84
33.656,102.16
33.671,104.91
33.687,103.85
33.703,99.97
33.718,94.27
33.734,87.61
33.750,80.5
33.765,73.13
33.781,65.52
33.796,57.63
33.812,49.57
33.828,41.67
33.843,34.39
33.859,28.22
33.875,23.46
33.890,20.16
33.906,18.23
33.921,17.37
33.937,17.26
33.953,17.53
33.968,17.76
33.984,17.49
34.000,16.35
34.015,14.1
34.031,10.6
34.046,6.01
34.062,0.61
34.078,-5.17
34.093,-10.95
34.109,-16.49
34.125,-21.81
34.140,-27.08
34.156,-32.45
34.171,-38.1
34.187,-44.0
34.203,-50.01
34.218,-55.93
34.234,-61.6
34.250,-66.91
34.265,-71.85
34.281,-76.47
34.296,-80.85
34.312,-85.2
34.328,-89.8
34.343,-94.75
34.359,-99.79
34.375,-104.03
34.390,-105.93
34.406,-103.59
34.421,-95.31
34.437,-80.26
34.453,-58.77
34.468,-32.39
34.484,-3.53
34.500,25.2
34.515,51.51
34.531,73.76
34.546,91.03
34.562,103.01
34.578,109.88
34.593,112.16
34.609,110.66
34.625,106.35
34.640,100.21
34.656,93.05
34.671,85.44
34.687,77.64
34.703,69.72
34.718,61.68
34.734,53.57
34.750,45.55
34.765,37.97
34.781,31.26
34.796,25.77
34.812,21.8
34.828,19.37
34.843,18.3
34.859,18.2
34.875,18.56
34.890,18.79
34.906,18.38
34.921,16.97
34.937,14.3
34.953,10.34
34.968,5.27
34.984,-0.54
35.000,-6.59
35.015,-12.44
35.031,-17.84
35.046,-22.8
35.062,-27.48
35.078,-32.15
35.093,-37.04
35.109,-42.23
35.125,-47.72
35.140,-53.44
35.156,-59.3
35.171,-65.16
35.187,-70.85
35.203,-76.22
35.218,-81.22
35.234,-86.0
35.250,-90.83
35.265,-95.94
35.281,-101.1
35.296,-105.39
35.312,-107.22
35.328,-104.68
35.343,-96.11
35.359,-80.72
35.375,-58.89
35.390,-32.2
35.406,-3.05
35.421,25.99
35.437,52.59
35.453,75.06
35.468,92.45
35.484,104.44
35.500,111.26
35.515,113.52
35.531,112.1
35.546,107.94
35.562,101.97
35.578,94.97
35.593,87.39
35.609,79.39
35.625,71.01
35.640,62.19
35.656,53.16
35.671,44.43
35.687,36.66
35.703,30.56
35.718,26.53
35.734,24.63
35.750,24.44
35.765,25.39
35.781,26.74
35.796,27.95
35.812,28.61
35.828,28.44
35.843,27.29
35.859,25.03
35.875,21.59
35.890,16.99
35.906,11.43
35.921,5.18
35.937,-1.3
35.953,-7.66
35.968,-13.53
35.984,-18.82
36.000,-23.62
36.015,-28.22
36.031,-32.99
36.046,-38.16
36.062,-43.84
36.078,-49.84
36.093,-55.91
36.109,-61.75
36.125,-67.17
36.140,-72.14
36.156,-76.77
36.171,-81.31
36.187,-86.03
36.203,-91.14
36.218,-96.55
36.234,-101.76
36.250,-105.66
36.265,-106.7
36.281,-103.14
36.296,-93.54
36.312,-77.17
36.328,-54.45
36.343,-26.89
36.359,3.16
36.375,33.04
36.390,60.22
36.406,82.7
36.421,99.32
36.437,109.88
36.453,114.8
36.468,115.07
36.484,111.8
36.500,106.1
36.515,98.88
36.531,90.79
36.546,82.22
36.562,73.35
36.578,64.36
36.593,55.33
36.609,46.54
36.625,38.28
36.640,30.97
36.656,24.96
36.671,20.54
36.687,17.8
36.703,16.64
36.718,16.72
36.734,17.44
36.750,18.27
36.765,18.56
36.781,17.89
36.796,15.98
36.812,12.84
36.828,8.66
36.843,3.74
36.859,-1.67
36.875,-7.37
36.890,-13.16
36.906,-18.92
36.921,-24.64
36.937,-30.34
36.953,-36.11
36.968,-41.99
36.984,-47.9
37.000,-53.66
37.015,-58.96
37.031,-63.55
37.046,-67.34
37.062,-70.55
37.078,-73.56
37.093,-76.95
37.109,-81.17
37.125,-86.37
37.140,-92.17
37.156,-97.59
37.171,-101.07
37.187,-100.77
37.203,-94.92
37.218,-82.36
37.234,-63.04
37.250,-38.06
37.265,-9.58
37.281,19.76
37.296,47.31
37.312,70.98
37.328,89.46
37.343,102.28
37.359,109.66
37.375,112.22
37.390,110.82
37.406,106.36
37.421,99.74
37.437,91.72
37.453,82.9
37.468,73.74
37.484,64.49
37.500,55.38
37.515,46.58
37.531,38.37
37.546,30.99
37.562,24.75
37.578,19.89
37.593,16.56
37.609,14.76
37.625,14.27
37.640,14.65
37.656,15.28
37.671,15.53
37.687,14.84
37.703,12.88
37.718,9.63
37.734,5.28
37.750,0.18
37.765,-5.36
37.781,-11.07
37.796,-16.78
37.812,-22.41
37.828,-27.98
37.843,-33.6
37.859,-39.36
37.875,-45.35
37.890,-51.52
37.906,-57.72
37.921,-63.65
37.937,-69.06
37.953,-73.81
37.968,-77.95
37.984,-81.8
38.000,-85.72
38.015,-90.07
38.031,-94.98
38.046,-100.19
38.062,-104.87
38.078,-107.66
38.093,-106.74
38.109,-100.34
38.125,-87.28
38.140,-67.33
38.156,-41.57
38.171,-12.11
38.187,18.31
38.203,47.0
38.218,71.76
38.234,91.23
38.250,104.93
38.265,113.0
38.281,116.09
38.296,115.11
38.312,111.02
38.328,104.83
38.343,97.36
38.359,89.24
38.375,80.89
38.390,72.51
38.406,64.11
38.421,55.73
38.437,47.44
38.453,39.43
38.468,32.15
38.484,26.06
38.500,21.56
38.515,18.87
38.531,17.88
38.546,18.11
38.562,18.98
38.578,19.82
38.593,20.07
38.609,19.44
38.625,17.84
38.640,15.24
38.656,11.7
38.671,7.25
38.687,1.99
38.703,-3.9
38.718,-10.11
38.734,-16.31
38.750,-22.17
38.765,-27.49
38.781,-32.38
38.796,-37.08
38.812,-41.94
38.828,-47.12
38.843,-52.6
38.859,-58.03
38.875,-63.01
38.890,-67.2
38.906,-70.46
38.921,-73.14
38.937,-75.73
38.953,-78.83
38.968,-82.91
38.984,-87.82
39.000,-92.74
39.015,-96.09
39.031,-95.81
39.046,-89.93
39.062,-77.24
39.078,-57.74
39.093,-32.77
39.109,-4.86
39.125,23.2
39.140,48.83
39.156,70.28
39.171,86.72
39.187,98.0
39.203,104.45
39.218,106.63
39.234,105.22
39.250,100.98
39.265,94.88
39.281,87.82
39.296,80.5
39.312,73.23
39.328,65.93
39.343,58.27
39.359,50.07
39.375,41.51
39.390,33.12
39.406,25.84
39.421,20.51
39.437,17.57
39.453,16.92
39.468,17.91
39.484,19.63
39.500,21.15
39.515,21.92
39.531,21.65
39.546,20.39
39.562,18.23
39.578,15.24
39.593,11.33
39.609,6.37
39.625,0.35
39.640,-6.59
39.656,-14.02
39.671,-21.48
39.687,-28.53
39.703,-34.97
39.718,-40.77
39.734,-46.07
39.750,-51.04
39.765,-55.77
39.781,-60.23
39.796,-64.33
39.812,-68.05
39.828,-71.35
39.843,-74.26
39.859,-76.86
39.875,-79.2
39.890,-81.5
39.906,-84.09
39.921,-87.35
39.937,-91.37
39.953,-95.74
39.968,-99.24
39.984,-100.0
40.000,-95.95
40.015,-85.41
40.031,-67.8
40.046,-43.91
40.062,-15.76
40.078,13.99
40.093,42.61
40.109,67.92
40.125,88.49
40.140,103.6
40.156,113.15
40.171,117.43
40.187,117.02
40.203,112.75
40.218,105.69
40.234,96.95
40.250,87.51
40.265,78.02
40.281,68.77
40.296,59.86
40.312,51.26
40.328,43.02
40.343,35.39
40.359,28.72
40.375,23.35
40.390,19.54
40.406,17.38
40.421,16.74
40.437,17.33
40.453,18.7
40.468,20.34
40.484,21.68
40.500,22.23
40.515,21.59
40.531,19.55
40.546,16.11
40.562,11.42
40.578,5.74
40.593,-0.66
40.609,-7.47
40.625,-14.45
40.640,-21.38
40.656,-28.21
40.671,-34.94
40.687,-41.57
40.703,-48.13
40.718,-54.51
40.734,-60.5
40.750,-65.83
40.765,-70.28
40.781,-73.76
40.796,-76.49
40.812,-78.91
40.828,-81.56
40.843,-85.03
40.859,-89.57
40.875,-94.78
40.890,-99.62
40.906,-102.35
40.921,-100.89
40.937,-93.47
40.953,-79.07
40.968,-57.91
40.984,-31.47
41.000,-2.12
41.015,27.39
41.031,54.48
41.046,77.18
41.062,94.33
41.078,105.55
41.093,111.16
41.109,111.94
41.125,108.95
41.140,103.28
41.156,95.92
41.171,87.59
41.187,78.79
41.203,69.74
41.218,60.53
41.234,51.3
41.250,42.18
41.265,33.48
41.281,25.61
41.296,19.08
41.312,14.31
41.328,11.59
41.343,10.92
41.359,11.85
41.375,13.82
41.390,16.0
41.406,17.53
41.421,17.71
41.437,16.08
41.453,12.48
41.468,7.19
41.484,0.75
41.500,-6.19
41.515,-13.02
41.531,-19.41
41.546,-25.35
41.562,-31.04
41.578,-36.76
41.593,-42.66
41.609,-48.74
41.625,-54.81
41.640,-60.67
41.656,-66.13
41.671,-71.16
41.687,-75.74
41.703,-79.98
41.718,-84.08
41.734,-88.26
41.750,-92.88
41.765,-98.12
41.781,-103.8
41.796,-109.07
41.812,-112.41
41.828,-111.76
41.843,-105.14
41.859,-91.28
41.875,-70.12
41.890,-43.04
41.906,-12.46
41.921,18.66
41.937,47.58
41.953,72.26
41.968,91.49
41.984,104.86
42.000,112.6
42.015,115.35
42.031,114.07
42.046,109.91
42.062,104.03
42.078,97.34
42.093,90.41
42.109,83.39
42.125,76.1
42.140,68.37
42.156,60.19
42.171,51.82
42.187,43.79
42.203,36.76
42.218,31.25
42.234,27.49
42.250,25.39
42.265,24.55
42.281,24.43
42.296,24.51
42.312,24.24
42.328,23.23
42.343,21.19
42.359,17.95
42.375,13.5
42.390,8.05
42.406,2.02
42.421,-4.15
42.437,-10.11
42.453,-15.69
42.468,-20.97
42.484,-26.15
42.500,-31.47
42.515,-37.12
42.531,-43.13
42.546,-49.48
42.562,-56.02
42.578,-62.6
42.593,-69.0
42.609,-75.07
42.625,-80.7
42.640,-85.96
42.656,-91.05
42.671,-96.23
42.687,-101.69
42.703,-107.24
42.718,-112.03
42.734,-114.62
42.750,-113.11
42.765,-105.72
42.781,-91.28
42.796,-69.8
42.812,-42.49
42.828,-11.68
42.843,19.88
42.859,49.53
42.875,75.16
42.890,95.47
42.906,109.86
42.921,118.44
42.937,121.77
42.953,120.84
42.968,116.83
42.984,110.94
43.000,104.04
43.015,96.58
43.031,88.69
43.046,80.25
43.062,71.19
43.078,61.63
43.093,52.01
43.109,42.88
43.125,34.9
43.140,28.6
43.156,24.21
43.171,21.78
43.187,21.1
43.203,21.76
43.218,23.16
43.234,24.7
43.250,25.74
43.265,25.81
43.281,24.65
43.296,22.14
43.312,18.38
43.328,13.49
43.343,7.67
43.359,1.11
43.375,-5.99
43.390,-13.39
43.406,-20.84
43.421,-28.02
43.437,-34.73
43.453,-40.91
43.468,-46.75
43.484,-52.47
43.500,-58.23
43.515,-64.07
43.531,-69.79
43.546,-75.1
43.562,-79.62
43.578,-83.21
43.593,-85.97
43.609,-88.34
43.625,-90.89
43.640,-94.13
43.656,-98.22
43.671,-102.66
43.687,-106.13
43.703,-106.7
43.718,-102.33
43.734,-91.37
43.750,-73.24
43.765,-48.59
43.781,-19.28
43.796,12.06
43.812,42.6
43.828,69.87
43.843,92.12
43.859,108.4
43.875,118.58
43.890,123.05
43.906,122.65
43.921,118.48
43.937,111.69
43.953,103.37
43.968,94.3
43.984,84.96
44.000,75.56
44.015,66.15
44.031,56.76
44.046,47.6
44.062,39.11
44.078,31.88
44.093,26.5
44.109,23.34
44.125,22.41
44.140,23.32
44.156,25.35
44.171,27.57
44.187,29.19
44.203,29.64
44.218,28.73
44.234,26.53
44.250,23.27
44.265,19.18
44.281,14.4
44.296,8.98
44.312,2.94
44.328,-3.59
44.343,-10.4
44.359,-17.22
44.375,-23.74
44.390,-29.8
44.406,-35.37
44.421,-40.67
44.437,-46.02
44.453,-51.65
44.468,-57.59
44.484,-63.63
44.500,-69.36
44.515,-74.27
44.531,-78.05
44.546,-80.75
44.562,-82.84
44.578,-85.1
44.593,-88.25
44.609,-92.59
44.625,-97.65
44.640,-102.15
44.656,-104.03
44.671,-101.08
44.687,-91.5
44.703,-74.47
44.718,-50.5
44.734,-21.32
44.750,10.47
44.765,41.94
44.781,70.34
44.796,93.63
44.812,110.6
44.828,120.91
44.843,124.98
44.859,123.75
44.875,118.43
44.890,110.22
44.906,100.21
44.921,89.25
44.937,77.92
44.953,66.58
44.968,55.49
44.984,44.86
45.000,35.01
45.015,26.29
45.031,19.17
45.046,13.99
45.062,10.96
45.078,9.88
45.093,10.31
45.109,11.63
45.125,13.15
45.140,14.31
45.156,14.67
45.171,13.93
45.187,11.9
45.203,8.5
45.218,3.79
45.234,-2.01
45.250,-8.51
45.265,-15.29
45.281,-22.03
45.296,-28.6
45.312,-35.02
45.328,-41.43
45.343,-47.97
45.359,-54.58
45.375,-61.14
45.390,-67.27
45.406,-72.69
45.421,-77.22
45.437,-80.86
45.453,-83.91
45.468,-86.81
45.484,-90.11
45.500,-94.27
45.515,-99.49
45.531,-105.36
45.546,-110.8
45.562,-114.08
45.578,-113.13
45.593,-106.01
45.609,-91.51
45.625,-69.6
45.640,-41.57
45.656,-9.95
45.671,22.3
45.687,52.21
45.703,77.55
45.718,97.02
45.734,110.2
45.750,117.42
45.765,119.47
45.781,117.38
45.796,112.24
45.812,105.18
45.828,97.15
45.843,88.83
45.859,80.62
45.875,72.45
45.890,64.21
45.906,55.82
45.921,47.45
45.937,39.52
45.953,32.58
45.968,27.14
45.984,23.38
46.000,21.26
46.015,20.36
46.031,20.19
46.046,20.24
46.062,20.06
46.078,19.33
46.093,17.82
46.109,15.4
46.125,11.97
46.140,7.59
46.156,2.29
46.171,-3.69
46.187,-10.08
46.203,-16.52
46.218,-22.67
46.234,-28.35
46.250,-33.63
46.265,-38.82
46.281,-44.31
46.296,-50.41
46.312,-57.02
46.328,-63.85
46.343,-70.42
46.359,-76.3
46.375,-81.3
46.390,-85.53
46.406,-89.26
46.421,-92.95
46.437,-97.01
46.453,-101.69
46.468,-106.85
46.484,-111.71
46.500,-114.7
46.515,-113.76
46.531,-106.87
46.546,-92.62
46.562,-70.89
46.578,-42.98
46.593,-11.32
46.609,21.09
46.625,51.36
46.640,77.33
46.656,97.67
46.671,111.9
46.687,120.22
46.703,123.31
46.718,122.15
46.734,117.9
46.750,111.63
46.765,104.23
46.781,96.29
46.796,88.02
46.812,79.42
46.828,70.41
46.843,61.04
46.859,51.65
46.875,42.85
46.890,35.34
46.906,29.79
46.921,26.53
46.937,25.43
46.953,25.99
46.968,27.45
46.984,28.98
47.000,29.91
47.015,29.81
47.031,28.49
47.046,25.9
47.062,22.08
47.078,17.12
47.093,11.17
47.109,4.48
47.125,-2.57
47.140,-9.59
47.156,-16.13
47.171,-21.93
47.187,-26.91
47.203,-31.31
47.218,-35.61
47.234,-40.33
47.250,-45.81
47.265,-52.16
47.281,-59.02
47.296,-65.87
47.312,-72.19
47.328,-77.63
47.343,-82.19
47.359,-86.18
47.375,-90.05
47.390,-94.28
47.406,-98.99
47.421,-103.79
47.437,-107.56
47.453,-108.66
47.468,-105.11
47.484,-95.22
47.500,-78.13
47.515,-54.13
47.531,-24.81
47.546,7.36
47.562,39.53
47.578,69.07
47.593,93.96
47.609,112.99
47.625,125.81
47.640,132.71
47.656,134.5
47.671,132.32
47.687,127.41
47.703,120.85
47.718,113.42
47.734,105.51
47.750,97.25
47.765,88.54
47.781,79.29
47.796,69.57
47.812,59.71
47.828,50.19
47.843,41.63
47.859,34.6
47.875,29.55
47.890,26.61
47.906,25.56
47.921,25.78
47.937,26.38
47.953,26.45
47.968,25.2
47.984,22.26
48.000,17.65
48.015,11.78
48.031,5.18
48.046,-1.64
48.062,-8.37
48.078,-14.88
48.093,-21.08
48.109,-27.06
48.125,-32.89
48.140,-38.68
48.156,-44.58
48.171,-50.73
48.187,-57.16
48.203,-63.77
48.218,-70.36
48.234,-76.56
48.250,-82.08
48.265,-86.72
48.281,-90.42
48.296,-93.4
48.312,-96.08
48.328,-98.97
48.343,-102.63
48.359,-107.32
48.375,-112.71
48.390,-117.69
48.406,-120.43
48.421,-118.74
48.437,-110.7
48.453,-95.24
48.468,-72.6
48.484,-44.39
48.500,-13.21
48.515,18.09
48.531,46.94
48.546,71.47
48.562,90.66
48.578,104.14
48.593,112.12
48.609,115.09
48.625,113.77
48.640,109.06
48.656,101.91
48.671,93.28
48.687,83.97
48.703,74.49
48.718,65.04
48.734,55.69
48.750,46.43
48.765,37.34
48.781,28.75
48.796,21.15
48.812,15.04
48.828,10.75
48.843,8.32
48.859,7.5
48.875,7.76
48.890,8.46
48.906,8.95
48.921,8.72
48.937,7.4
48.953,4.89
48.968,1.27
48.984,-3.22
49.000,-8.26
49.015,-13.58
49.031,-18.99
49.046,-24.51
49.062,-30.27
49.078,-36.4
49.093,-42.92
49.109,-49.75
49.125,-56.61
49.140,-63.16
49.156,-69.12
49.171,-74.32
49.187,-78.67
49.203,-82.34
49.218,-85.67
49.234,-89.1
49.250,-93.13
49.265,-97.96
49.281,-103.27
49.296,-107.94
49.312,-110.15
49.328,-107.64
49.343,-98.54
49.359,-81.9
49.375,-58.14
49.390,-29.03
49.406,2.78
49.421,34.37
49.437,63.22
49.453,87.49
49.468,106.21
49.484,119.05
49.500,126.27
49.515,128.5
49.531,126.66
49.546,121.83
49.562,114.98
49.578,106.96
49.593,98.3
49.609,89.28
49.625,79.96
49.640,70.48
49.656,60.98
49.671,51.72
49.687,43.06
49.703,35.38
49.718,29.01
49.734,24.23
49.750,21.17
49.765,19.72
49.781,19.52
49.796,19.92
49.812,20.05
49.828,19.14
49.843,16.61
49.859,12.22
49.875,6.23
49.890,-0.87
49.906,-8.44
49.921,-15.88
49.937,-22.87
49.953,-29.29
49.968,-35.2
49.984,-40.83
50.000,-46.35
50.015,-51.89
50.031,-57.57
50.046,-63.36
50.062,-69.17
50.078,-74.82
50.093,-80.09
50.109,-84.88
50.125,-89.32
50.140,-93.77
50.156,-98.69
50.171,-104.36
50.187,-110.46
50.203,-115.81
50.218,-118.4
50.234,-115.88
50.250,-106.32
50.265,-88.89
50.281,-64.17
50.296,-34.07
50.312,-1.35
50.328,31.09
50.343,60.71
50.359,85.6
50.375,104.66
50.390,117.45
50.406,124.17
50.421,125.62
50.437,122.99
50.453,117.65
50.468,110.79
50.484,103.23
50.500,95.29
50.515,86.96
50.531,78.11
50.546,68.63
50.562,58.7
50.578,48.68
50.593,39.24
50.609,31.06
50.625,24.8
50.640,20.82
50.656,19.07
50.671,19.11
50.687,20.19
50.703,21.53
50.718,22.36
50.734,22.2
50.750,20.79
50.765,18.06
50.781,13.94
50.796,8.56
50.812,2.06
50.828,-5.28
50.843,-13.02
50.859,-20.72
50.875,-28.03
50.890,-34.76
50.906,-40.93
50.921,-46.78
50.937,-52.52
50.953,-58.27
50.968,-64.06
50.984,-69.76
51.000,-75.17
51.015,-80.11
51.031,-84.58
51.046,-88.72
51.062,-92.85
51.078,-97.42
51.093,-102.75
51.109,-108.81
51.125,-114.92
51.140,-119.58
51.156,-120.69
51.171,-116.04
51.187,-103.99
51.203,-84.02
51.218,-57.11
51.234,-25.49
51.250,7.91
51.265,40.09
51.281,68.56
51.296,91.67
51.312,108.61
51.328,119.36
51.343,124.56
51.359,125.19
51.375,122.47
51.390,117.51
51.406,111.24
51.421,104.19
51.437,96.6
51.453,88.5
51.468,79.82
51.484,70.6
51.500,61.1
51.515,51.77
51.531,43.28
51.546,36.24
51.562,31.08
51.578,27.88
51.593,26.27
51.609,25.65
51.625,25.37
51.640,24.91
51.656,23.94
51.671,22.3
51.687,19.92
51.703,16.72
51.718,12.62
51.734,7.6
51.750,1.88
51.765,-4.29
51.781,-10.54
51.796,-16.66
51.812,-22.59
51.828,-28.41
51.843,-34.25
51.859,-40.28
51.875,-46.54
51.890,-52.95
51.906,-59.39
51.921,-65.62
51.937,-71.43
51.953,-76.6
51.968,-81.04
51.984,-84.83
52.000,-88.34
52.015,-92.01
52.031,-96.29
52.046,-101.19
52.062,-106.12
52.078,-109.67
52.093,-109.83
52.109,-104.49
52.125,-92.01
52.140,-71.94
52.156,-45.2
52.171,-13.98
52.187,18.72
52.203,49.86
52.218,76.99
52.234,98.54
52.250,113.87
52.265,123.05
52.281,126.71
52.296,125.75
52.312,121.21
52.328,114.21
52.343,105.74
52.359,96.53
52.375,86.99
52.390,77.27
52.406,67.37
52.421,57.42
52.437,47.68
52.453,38.65
52.468,30.92
52.484,24.99
52.500,21.08
52.515,19.0
52.531,18.28
52.546,18.3
52.562,18.39
52.578,18.01
52.593,16.83
52.609,14.63
52.625,11.4
52.640,7.22
52.656,2.26
52.671,-3.3
52.687,-9.27
52.703,-15.59
52.718,-22.35
52.734,-29.59
52.750,-37.35
52.765,-45.6
52.781,-54.12
52.796,-62.5
52.812,-70.38
52.828,-77.37
52.843,-83.22
52.859,-87.84
52.875,-91.4
52.890,-94.33
52.906,-97.34
52.921,-101.06
52.937,-105.81
52.953,-111.26
52.968,-116.12
52.984,-118.36
53.000,-115.63
53.015,-105.98
53.031,-88.6
53.046,-64.04
53.062,-34.25
53.078,-2.07
53.093,29.46
53.109,57.75
53.125,81.05
53.140,98.46
53.156,109.97
53.171,116.02
53.187,117.51
53.203,115.45
53.218,110.78
53.234,104.3
53.250,96.68
53.265,88.4
53.281,79.68
53.296,70.74
53.312,61.69
53.328,52.74
53.343,44.18
53.359,36.38
53.375,29.77
53.390,24.71
53.406,21.43
53.421,19.81
53.437,19.53
53.453,19.93
53.468,20.2
53.484,19.65
53.500,17.77
53.515,14.45
53.531,9.85
53.546,4.35
53.562,-1.61
53.578,-7.65
53.593,-13.56
53.609,-19.36
53.625,-25.12
53.640,-30.98
53.656,-37.12
53.671,-43.67
53.687,-50.6
53.703,-57.67
53.718,-64.57
53.734,-70.93
53.750,-76.58
53.765,-81.43
53.781,-85.72
53.796,-89.89
53.812,-94.53
53.828,-100.07
53.843,-106.46
53.859,-112.93
53.875,-117.86
53.890,-119.09
53.906,-114.41
53.921,-102.28
53.937,-82.37
53.953,-55.76
53.968,-24.67
53.984,8.01
54.000,39.36
54.015,67.05
54.031,89.51
54.046,106.0
54.062,116.56
54.078,121.67
54.093,122.26
54.109,119.37
54.125,113.99
54.140,106.99
54.156,99.01
54.171,90.42
54.187,81.45
54.203,72.26
54.218,62.97
54.234,53.91
54.250,45.44
54.265,38.0
54.281,31.99
54.296,27.73
54.312,25.19
54.328,24.22
54.343,24.36
54.359,25.01
54.375,25.57
54.390,25.48
54.406,24.24
54.421,21.59
54.437,17.49
54.453,12.01
54.468,5.52
54.484,-1.54
54.500,-8.75
54.515,-15.73
54.531,-22.26
54.546,-28.33
54.562,-34.06
54.578,-39.69
54.593,-45.48
54.609,-51.59
54.625,-58.03
54.640,-64.62
54.656,-71.1
54.671,-77.14
54.687,-82.5
54.703,-87.08
54.718,-91.15
54.734,-95.15
54.750,-99.56
54.765,-104.61
54.781,-109.81
54.796,-113.95
54.812,-115.1
54.828,-111.06
54.843,-100.1
54.859,-81.55
54.875,-56.18
54.890,-26.06
54.906,5.93
54.921,36.9
54.937,64.43
54.953,86.97
54.968,103.84
54.984,114.96
55.000,120.72
55.015,121.8
55.031,119.04
55.046,113.43
55.062,105.95
55.078,97.45
55.093,88.51
55.109,79.48
55.125,70.47
55.140,61.55
55.156,52.83
55.171,44.53
55.187,36.98
55.203,30.61
55.218,25.78
55.234,22.71
55.250,21.34
55.265,21.22
55.281,21.74
55.296,22.12
55.312,21.61
55.328,19.75
55.343,16.37
55.359,11.55
55.375,5.62
55.390,-0.98
55.406,-7.83
55.421,-14.52
55.437,-20.81
55.453,-26.66
55.468,-32.17
55.484,-37.55
55.500,-43.06
55.515,-48.81
55.531,-54.74
55.546,-60.66
55.562,-66.25
55.578,-71.23
55.593,-75.44
55.609,-79.0
55.625,-82.24
55.640,-85.72
55.656,-89.98
55.671,-95.26
55.687,-101.26
55.703,-106.85
55.718,-110.23
55.734,-109.19
55.750,-101.72
55.765,-86.7
55.781,-64.31
55.796,-36.04
55.812,-4.43
55.828,27.54
55.843,57.13
55.859,82.2
55.875,101.39
55.890,114.24
55.906,121.07
55.921,122.7
55.937,120.33
55.953,115.18
55.968,108.32
55.984,100.53
56.000,92.21
56.015,83.49
56.031,74.38
56.046,64.93
56.062,55.35
56.078,46.03
56.093,37.38
56.109,29.86
56.125,23.86
56.140,19.51
56.156,16.72
56.171,15.17
56.187,14.32
56.203,13.65
56.218,12.61
56.234,10.82
56.250,7.99
56.265,4.04
56.281,-0.98
56.296,-6.77
56.312,-12.98
56.328,-19.22
56.343,-25.31
56.359,-31.28
56.375,-37.39
56.390,-43.96
56.406,-51.16
56.421,-58.76
56.437,-66.21
56.453,-72.9
56.468,-78.33
56.484,-82.41
56.500,-85.48
56.515,-88.18
56.531,-91.3
56.546,-95.52
56.562,-101.09
56.578,-107.58
56.593,-113.84
56.609,-118.03
56.625,-117.91
56.640,-111.47
56.656,-97.51
56.671,-76.06
56.687,-48.53
56.703,-17.31
56.718,14.7
56.734,44.81
56.750,70.87
56.765,91.58
56.781,106.33
56.796,115.27
56.812,118.95
56.828,118.28
56.843,114.32
56.859,108.07
56.875,100.38
56.890,91.89
56.906,82.97
56.921,73.8
56.937,64.6
56.953,55.49
56.968,46.72
56.984,38.67
57.000,31.76
57.015,26.39
57.031,22.91
57.046,21.33
57.062,21.32
57.078,22.32
57.093,23.45
57.109,23.82
57.125,22.73
57.140,19.76
57.156,14.84
57.171,8.33
57.187,0.77
57.203,-7.18
57.218,-14.91
57.234,-22.13
57.250,-28.8
57.265,-35.14
57.281,-41.47
57.296,-47.97
57.312,-54.63
57.328,-61.17
57.343,-67.28
57.359,-72.61
57.375,-77.09
57.390,-80.85
57.406,-84.28
57.421,-87.89
57.437,-92.2
57.453,-97.55
57.468,-103.88
57.484,-110.56
57.500,-116.22
57.515,-118.94
57.531,-116.58
57.546,-107.31
57.562,-90.21
57.578,-65.62
57.593,-35.18
57.609,-1.69
57.625,31.73
57.640,62.06
57.656,87.11
57.671,105.73
57.687,117.84
57.703,124.11
57.718,125.61
57.734,123.53
57.750,118.85
57.765,112.39
57.781,104.71
57.796,96.23
57.812,87.22
57.828,77.87
57.843,68.33
57.859,58.69
57.875,49.2
57.890,40.3
57.906,32.56
57.921,26.57
57.937,22.71
57.953,21.03
57.968,21.17
57.984,22.51
58.000,24.24
58.015,25.63
58.031,26.07
58.046,25.16
58.062,22.74
58.078,18.77
58.093,13.46
58.109,7.07
58.125,0.01
58.140,-7.36
58.156,-14.78
58.171,-22.17
58.187,-29.56
58.203,-37.0
58.218,-44.53
58.234,-52.05
58.250,-59.5
58.265,-66.67
58.281,-73.41
58.296,-79.52
58.312,-84.79
58.328,-89.16
58.343,-92.75
58.359,-96.01
58.375,-99.57
58.390,-104.02
58.406,-109.38
58.421,-114.8
58.437,-118.44
58.453,-117.81
58.468,-110.51
58.484,-95.03
58.500,-71.41
58.515,-41.24
58.531,-7.42
58.546,26.73
58.562,58.17
58.578,84.78
58.593,105.44
58.609,119.87
58.625,128.32
58.640,131.31
58.656,129.66
58.671,124.37
58.687,116.63
58.703,107.64
58.718,98.32
58.734,89.13
58.750,80.03
58.765,70.71
58.781,60.89
58.796,50.78
58.812,40.99
58.828,32.49
58.843,26.22
58.859,22.63
58.875,21.61
58.890,22.45
58.906,24.18
58.921,25.8
58.937,26.65
58.953,26.4
58.968,24.99
58.984,22.48
59.000,18.84
59.015,14.03
59.031,7.99
59.046,0.87
59.062,-6.95
59.078,-14.85
59.093,-22.1
59.109,-28.06
59.125,-32.53
59.140,-35.74
59.156,-38.36
59.171,-41.18
59.187,-44.9
59.203,-49.87
59.218,-56.04
59.234,-63.04
59.250,-70.27
59.265,-77.19
59.281,-83.41
59.296,-88.83
59.312,-93.61
59.328,-98.17
59.343,-102.92
59.359,-108.05
59.375,-113.18
59.390,-117.17
59.406,-118.22
59.421,-114.37
59.437,-103.98
59.453,-86.35
59.468,-61.96
59.484,-32.45
59.500,-0.32
59.515,31.69
59.531,61.02
59.546,85.7
59.562,104.54
59.578,117.24
59.593,124.21
59.609,126.45
59.625,125.2
59.640,121.59
59.656,116.55
59.671,110.61
59.687,103.97
59.703,96.68
59.718,88.69
59.734,80.04
59.750,70.88
59.765,61.55
59.781,52.57
59.796,44.56
59.812,38.09
59.828,33.46
59.843,30.67
59.859,29.31
59.875,28.76
59.890,28.37
59.906,27.6
59.921,26.07
59.937,23.6
59.953,20.01
59.968,15.22
59.984,9.33
