timestamp,value
00.000,-174.36
00.015,-186.71
00.031,-192.48
00.046,-190.68
00.062,-181.98
00.078,-168.96
00.093,-154.9
00.109,-142.99
00.125,-134.97
00.140,-130.4
00.156,-127.98
00.171,-126.1
00.187,-123.72
00.203,-120.45
00.218,-116.51
00.234,-112.21
00.250,-107.04
00.265,-102.03
00.281,-96.32
00.296,-88.58
00.312,-77.65
00.328,-63.12
00.343,-45.36
00.359,-25.29
00.375,-4.03
00.390,17.55
00.406,39.13
00.421,61.24
00.437,84.42
00.453,109.01
00.468,134.93
00.484,161.79
00.500,188.97
00.515,215.81
00.531,241.72
00.546,266.23
00.562,289.43
00.578,311.4
00.593,332.14
00.609,351.23
00.625,367.63
00.640,379.52
00.656,384.66
00.671,381.03
00.687,367.54
00.703,344.63
00.718,313.89
00.734,277.61
00.750,238.06
00.765,197.1
00.781,156.04
00.796,115.87
00.812,77.4
00.828,41.43
00.843,8.56
00.859,-21.01
00.875,-47.44
00.890,-71.02
00.906,-91.86
00.921,-109.76
00.937,-124.15
00.953,-134.44
00.968,-140.15
00.984,-141.1
01.000,-137.52
01.015,-129.94
01.031,-119.19
01.046,-106.35
01.062,-92.58
01.078,-78.94
01.093,-66.23
01.109,-54.83
01.125,-44.67
01.140,-35.55
01.156,-27.24
01.171,-19.81
01.187,-13.57
01.203,-8.81
01.218,-5.79
01.234,-4.35
01.250,-4.1
01.265,-4.43
01.281,-4.86
01.296,-5.13
01.312,-5.25
01.328,-5.46
01.343,-6.02
01.359,-7.06
01.375,-8.5
01.390,-10.07
01.406,-11.34
01.421,-12.06
01.437,-12.23
01.453,-12.22
01.468,-12.54
01.484,-13.55
01.500,-15.21
01.515,-17.13
01.531,-18.7
01.546,-19.55
01.562,-19.7
01.578,-19.67
01.593,-20.12
01.609,-21.71
01.625,-24.45
01.640,-27.93
01.656,-31.46
01.671,-34.25
01.687,-35.8
01.703,-35.85
01.718,-34.46
01.734,-31.71
01.750,-27.92
01.765,-23.31
01.781,-18.24
01.796,-13.08
01.812,-8.21
01.828,-4.0
01.843,-0.78
01.859,1.24
01.875,2.19
01.890,2.36
01.906,2.33
01.921,2.56
01.937,3.45
01.953,5.02
01.968,6.96
01.984,8.76
02.000,10.08
02.015,10.83
02.031,11.27
02.046,11.82
02.062,12.75
02.078,14.0
02.093,15.3
02.109,16.25
02.125,16.42
02.140,15.73
02.156,14.3
02.171,12.34
02.187,10.1
02.203,7.7
02.218,5.09
02.234,2.25
02.250,-0.84
02.265,-4.07
02.281,-7.33
02.296,-10.55
02.312,-13.72
02.328,-16.91
02.343,-20.18
02.359,-23.47
02.375,-26.45
02.390,-28.57
02.406,-29.13
02.421,-27.51
02.437,-23.57
02.453,-17.67
02.468,-10.6
02.484,-3.4
02.500,3.1
02.515,8.53
02.531,12.99
02.546,16.89
02.562,20.64
02.578,24.21
02.593,27.26
02.609,29.29
02.625,29.95
02.640,29.33
02.656,27.94
02.671,26.4
02.687,25.16
02.703,24.25
02.718,23.3
02.734,21.82
02.750,19.51
02.765,16.58
02.781,13.58
02.796,11.16
02.812,9.73
02.828,9.23
02.843,9.19
02.859,8.9
02.875,7.81
02.890,5.84
02.906,3.32
02.921,0.85
02.937,-1.02
02.953,-2.11
02.968,-2.55
02.984,-2.83
03.000,-3.34
03.015,-4.33
03.031,-5.76
03.046,-7.55
03.062,-9.52
03.078,-11.68
03.093,-14.01
03.109,-16.36
03.125,-18.28
03.140,-19.13
03.156,-18.26
03.171,-15.37
03.187,-10.63
03.203,-4.74
03.218,1.23
03.234,6.43
03.250,10.26
03.265,12.74
03.281,14.24
03.296,15.26
03.312,16.15
03.328,16.97
03.343,17.53
03.359,17.54
03.375,16.97
03.390,15.99
03.406,14.95
03.421,14.16
03.437,13.66
03.453,13.2
03.468,12.39
03.484,10.98
03.500,8.96
03.515,6.73
03.531,4.84
03.546,3.71
03.562,3.43
03.578,3.65
03.593,3.82
03.609,3.47
03.625,2.39
03.640,0.81
03.656,-0.87
03.671,-2.26
03.687,-3.23
03.703,-3.91
03.718,-4.81
03.734,-6.34
03.750,-8.68
03.765,-11.73
03.781,-15.06
03.796,-18.19
03.812,-20.75
03.828,-22.5
03.843,-23.28
03.859,-23.04
03.875,-21.63
03.890,-18.85
03.906,-14.63
03.921,-9.13
03.937,-2.76
03.953,3.77
03.968,9.69
03.984,14.39
04.000,17.58
04.015,19.4
04.031,20.29
04.046,20.65
04.062,20.79
04.078,20.71
04.093,20.19
04.109,19.07
04.125,17.39
04.140,15.46
04.156,13.76
04.171,12.72
04.187,12.38
04.203,12.52
04.218,12.62
04.234,12.17
04.250,11.01
04.265,9.39
04.281,7.75
04.296,6.62
04.312,6.24
04.328,6.41
04.343,6.64
04.359,6.31
04.375,5.01
04.390,2.69
04.406,-0.29
04.421,-3.5
04.437,-6.52
04.453,-9.27
04.468,-11.88
04.484,-14.5
04.500,-17.19
04.515,-19.77
04.531,-21.84
04.546,-23.09
04.562,-23.51
04.578,-23.34
04.593,-23.1
04.609,-23.04
04.625,-22.99
04.640,-22.46
04.656,-20.8
04.671,-17.61
04.687,-12.92
04.703,-7.34
04.718,-1.65
04.734,3.35
04.750,7.27
04.765,10.2
04.781,12.47
04.796,14.52
04.812,16.61
04.828,18.7
04.843,20.53
04.859,21.77
04.875,22.25
04.890,22.04
04.906,21.4
04.921,20.58
04.937,19.75
04.953,18.94
04.968,18.02
04.984,16.93
05.000,15.72
05.015,14.56
05.031,13.64
05.046,13.06
05.062,12.68
05.078,12.34
05.093,11.72
05.109,10.68
05.125,9.26
05.140,7.65
05.156,6.17
05.171,4.88
05.187,3.75
05.203,2.39
05.218,0.43
05.234,-2.33
05.250,-5.75
05.265,-9.25
05.281,-12.17
05.296,-13.95
05.312,-14.49
05.328,-14.18
05.343,-13.76
05.359,-13.91
05.375,-15.06
05.390,-17.12
05.406,-19.61
05.421,-21.85
05.437,-23.21
05.453,-23.32
05.468,-22.14
05.484,-19.86
05.500,-16.67
05.515,-12.77
05.531,-8.23
05.546,-3.16
05.562,2.17
05.578,7.42
05.593,12.12
05.609,15.85
05.625,18.44
05.640,20.02
05.656,20.92
05.671,21.55
05.687,22.17
05.703,22.74
05.718,23.0
05.734,22.71
05.750,21.78
05.765,20.44
05.781,19.05
05.796,18.02
05.812,17.59
05.828,17.74
05.843,18.14
05.859,18.45
05.875,18.39
05.890,17.98
05.906,17.41
05.921,16.87
05.937,16.39
05.953,15.81
05.968,14.76
05.984,12.85
06.000,9.97
06.015,6.36
06.031,2.56
06.046,-0.81
06.062,-3.38
06.078,-5.33
06.093,-7.1
06.109,-9.2
06.125,-11.87
06.140,-14.91
06.156,-17.78
06.171,-19.95
06.187,-21.13
06.203,-21.43
06.218,-21.35
06.234,-21.42
06.250,-21.95
06.265,-22.88
06.281,-23.8
06.296,-24.1
06.312,-23.22
06.328,-20.92
06.343,-17.33
06.359,-12.97
06.375,-8.38
06.390,-3.98
06.406,0.06
06.421,3.83
06.437,7.48
06.453,10.97
06.468,14.05
06.484,16.24
06.500,17.2
06.515,16.95
06.531,15.87
06.546,14.54
06.562,13.46
06.578,12.84
06.593,12.49
06.609,12.06
06.625,11.3
06.640,10.19
06.656,9.05
06.671,8.3
06.687,8.18
06.703,8.64
06.718,9.38
06.734,9.85
06.750,9.79
06.765,9.23
06.781,8.58
06.796,8.36
06.812,8.92
06.828,10.04
06.843,11.12
06.859,11.35
06.875,10.11
06.890,7.43
06.906,3.91
06.921,0.31
06.937,-2.76
06.953,-5.2
06.968,-7.34
06.984,-9.56
07.000,-12.06
07.015,-14.66
07.031,-16.9
07.046,-18.38
07.062,-19.01
07.078,-18.99
07.093,-18.63
07.109,-18.17
07.125,-17.44
07.140,-16.09
07.156,-13.68
07.171,-9.95
07.187,-5.15
07.203,-0.02
07.218,4.6
07.234,7.97
07.250,9.82
07.265,10.47
07.281,10.52
07.296,10.66
07.312,11.32
07.328,12.46
07.343,13.63
07.359,14.39
07.375,14.46
07.390,13.95
07.406,13.18
07.421,12.52
07.437,12.19
07.453,12.2
07.468,12.33
07.484,12.38
07.500,12.31
07.515,12.16
07.531,12.12
07.546,12.22
07.562,12.33
07.578,12.2
07.593,11.52
07.609,10.06
07.625,7.85
07.640,5.19
07.656,2.47
07.671,0.15
07.687,-1.52
07.703,-2.62
07.718,-3.48
07.734,-4.47
07.750,-5.77
07.765,-7.3
07.781,-8.67
07.796,-9.63
07.812,-10.01
07.828,-10.02
07.843,-10.12
07.859,-10.65
07.875,-11.72
07.890,-13.09
07.906,-14.29
07.921,-14.88
07.937,-14.66
07.953,-13.67
07.968,-12.11
07.984,-10.24
08.000,-8.11
08.015,-5.52
08.031,-2.27
08.046,1.74
08.062,6.27
08.078,10.61
08.093,14.02
08.109,15.92
08.125,16.28
08.140,15.64
08.156,14.88
08.171,14.77
08.187,15.73
08.203,17.62
08.218,19.85
08.234,21.82
08.250,23.23
08.265,24.2
08.281,25.24
08.296,26.85
08.312,29.21
08.328,32.22
08.343,35.44
08.359,38.18
08.375,40.08
08.390,41.23
08.406,42.13
08.421,43.45
08.437,45.7
08.453,49.0
08.468,53.4
08.484,58.48
08.500,63.62
08.515,68.34
08.531,72.67
08.546,77.09
08.562,82.31
08.578,88.77
08.593,96.57
08.609,105.98
08.625,116.5
08.640,126.97
08.656,136.21
08.671,143.69
08.687,149.91
08.703,156.08
08.718,163.59
08.734,173.42
08.750,186.79
08.765,203.37
08.781,221.37
08.796,238.4
08.812,252.67
08.828,263.4
08.843,270.45
08.859,273.77
08.875,272.85
08.890,268.17
08.906,258.84
08.921,242.34
08.937,214.99
08.953,173.11
08.968,114.04
08.984,37.09
09.000,-55.9
09.015,-167.05
09.031,-286.29
09.046,-395.1
09.062,-474.34
09.078,-513.87
09.093,-515.97
09.109,-490.96
09.125,-450.61
09.140,-404.05
09.156,-356.74
09.171,-310.29
09.187,-266.27
09.203,-227.38
09.218,-196.33
09.234,-174.56
09.250,-161.02
09.265,-152.82
09.281,-146.44
09.296,-139.02
09.312,-128.05
09.328,-113.11
09.343,-95.92
09.359,-78.72
09.375,-63.13
09.390,-49.0
09.406,-34.84
09.421,-18.94
09.437,-0.18
09.453,22.16
09.468,47.06
09.484,72.1
09.500,94.85
09.515,112.36
09.531,122.91
09.546,126.14
09.562,122.73
09.578,113.86
09.593,101.51
09.609,87.27
09.625,72.3
09.640,57.36
09.656,43.0
09.671,30.14
09.687,19.92
09.703,13.37
09.718,10.9
09.734,12.66
09.750,17.95
09.765,25.67
09.781,34.46
09.796,43.04
09.812,50.69
09.828,57.11
09.843,62.35
09.859,66.33
09.875,69.46
09.890,72.33
09.906,75.77
09.921,80.25
09.937,85.6
09.953,90.76
09.968,93.67
09.984,94.66
10.000,92.95
10.015,88.39
10.031,81.58
10.046,73.78
10.062,66.19
10.078,59.42
10.093,53.52
10.109,48.05
10.125,42.57
10.140,36.74
10.156,30.75
10.171,24.89
10.187,19.45
10.203,14.4
10.218,9.38
10.234,4.22
10.250,-1.2
10.265,-6.52
10.281,-11.43
10.296,-15.51
10.312,-18.52
10.328,-20.54
10.343,-21.89
10.359,-23.09
10.375,-24.46
10.390,-26.21
10.406,-28.16
10.421,-30.16
10.437,-32.13
10.453,-34.04
10.468,-35.96
10.484,-37.97
10.500,-39.92
10.515,-41.35
10.531,-41.64
10.546,-40.2
10.562,-36.78
10.578,-31.64
10.593,-25.36
10.609,-18.72
10.625,-12.42
10.640,-7.01
10.656,-2.61
10.671,0.74
10.687,3.18
10.703,4.87
10.718,5.87
10.734,6.4
10.750,6.55
10.765,6.41
10.781,5.95
10.796,5.09
10.812,3.81
10.828,2.16
10.843,0.35
10.859,-1.26
10.875,-2.23
10.890,-2.41
10.906,-1.88
10.921,-1.24
10.937,-1.2
10.953,-2.4
10.968,-4.94
10.984,-8.42
11.000,-11.97
11.015,-14.85
11.031,-16.61
11.046,-17.41
11.062,-17.99
11.078,-19.16
11.093,-21.69
11.109,-25.88
11.125,-31.8
11.140,-38.97
11.156,-46.24
11.171,-51.7
11.187,-53.07
11.203,-48.99
11.218,-40.17
11.234,-29.88
11.250,-23.11
11.265,-24.93
11.281,-38.47
11.296,-63.94
11.312,-98.57
11.328,-137.89
11.343,-177.17
11.359,-212.46
11.375,-240.51
11.390,-258.67
11.406,-264.37
11.421,-255.73
11.437,-232.33
11.453,-195.83
11.468,-150.0
11.484,-99.91
11.500,-50.53
11.515,-5.84
11.531,31.83
11.546,61.69
11.562,83.92
11.578,99.12
11.593,107.8
11.609,110.48
11.625,107.77
11.640,100.69
11.656,90.52
11.671,78.62
11.687,66.16
11.703,53.95
11.718,42.44
11.734,31.67
11.750,21.59
11.765,12.04
11.781,3.0
11.796,-5.63
11.812,-13.96
11.828,-22.21
11.843,-30.55
11.859,-39.14
11.875,-47.93
11.890,-56.81
11.906,-65.6
11.921,-74.06
11.937,-82.07
11.953,-89.44
11.968,-96.01
11.984,-101.51
12.000,-105.67
12.015,-108.24
12.031,-109.19
12.046,-108.55
12.062,-106.65
12.078,-103.87
12.093,-100.67
12.109,-97.38
12.125,-94.12
12.140,-90.79
12.156,-87.27
12.171,-83.47
12.187,-79.48
12.203,-75.47
12.218,-71.58
12.234,-67.67
12.250,-63.24
12.265,-57.58
12.281,-49.95
12.296,-39.96
12.312,-27.77
12.328,-14.1
12.343,0.04
12.359,13.68
12.375,26.25
12.390,37.6
12.406,47.89
12.421,57.36
12.437,66.08
12.453,73.92
12.468,80.59
12.484,85.92
12.500,89.96
12.515,93.13
12.531,95.8
12.546,98.26
12.562,100.47
12.578,102.09
12.593,102.73
12.609,102.16
12.625,100.39
12.640,97.57
12.656,93.84
12.671,89.03
12.687,82.58
12.703,73.69
12.718,61.71
12.734,46.54
12.750,28.9
12.765,10.02
12.781,-8.71
12.796,-26.31
12.812,-42.39
12.828,-57.04
12.843,-70.6
12.859,-83.2
12.875,-94.72
12.890,-104.81
12.906,-113.31
12.921,-120.36
12.937,-126.22
12.953,-131.19
12.968,-135.05
12.984,-137.21
13.000,-136.96
13.015,-133.94
13.031,-128.6
13.046,-122.18
13.062,-116.24
13.078,-111.8
13.093,-108.93
13.109,-106.41
13.125,-102.21
13.140,-94.46
13.156,-82.29
13.171,-66.18
13.187,-47.88
13.203,-29.66
13.218,-13.48
13.234,-0.5
13.250,9.15
13.265,16.03
13.281,20.94
13.296,24.46
13.312,26.81
13.328,28.0
13.343,27.94
13.359,26.81
13.375,25.1
13.390,23.47
13.406,22.48
13.421,22.25
13.437,22.56
13.453,22.8
13.468,22.55
13.484,21.72
13.500,20.68
13.515,20.06
13.531,20.31
13.546,21.57
13.562,23.34
13.578,24.94
13.593,25.66
13.609,25.19
13.625,23.8
13.640,22.18
13.656,21.02
13.671,20.79
13.687,21.54
13.703,22.84
13.718,24.22
13.734,25.3
13.750,25.97
13.765,26.4
13.781,26.81
13.796,27.23
13.812,27.38
13.828,26.77
13.843,24.79
13.859,20.97
13.875,15.18
13.890,7.75
13.906,-0.61
13.921,-8.96
13.937,-16.35
13.953,-22.12
13.968,-25.8
13.984,-27.32
14.000,-26.79
14.015,-24.61
14.031,-21.35
14.046,-17.7
14.062,-14.27
14.078,-11.55
14.093,-9.66
14.109,-8.4
14.125,-7.32
14.140,-5.84
14.156,-3.49
14.171,-0.13
14.187,4.13
14.203,8.89
14.218,13.62
14.234,17.94
14.250,21.64
14.265,24.69
14.281,27.27
14.296,29.6
14.312,31.77
14.328,33.71
14.343,35.3
14.359,36.38
14.375,36.93
14.390,36.97
14.406,36.5
14.421,35.47
14.437,33.83
14.453,31.51
14.468,28.55
14.484,25.13
14.500,21.61
14.515,18.33
14.531,15.43
14.546,12.81
14.562,10.22
14.578,7.34
14.593,4.1
14.609,0.67
14.625,-2.66
14.640,-5.62
14.656,-8.21
14.671,-10.7
14.687,-13.45
14.703,-16.77
14.718,-20.82
14.734,-25.39
14.750,-30.12
14.765,-34.48
14.781,-37.96
14.796,-39.91
14.812,-39.74
14.828,-37.03
14.843,-31.73
14.859,-24.25
14.875,-15.36
14.890,-5.89
14.906,3.51
14.921,12.41
14.937,20.52
14.953,27.67
14.968,33.63
14.984,38.19
15.000,41.26
15.015,43.0
15.031,43.82
15.046,44.23
15.062,44.66
15.078,45.23
15.093,45.87
15.109,46.43
15.125,46.67
15.140,46.45
15.156,45.72
15.171,44.42
15.187,42.6
15.203,40.36
15.218,37.77
15.234,35.06
15.250,32.45
15.265,30.1
15.281,28.04
15.296,26.17
15.312,24.25
15.328,21.99
15.343,19.22
15.359,15.93
15.375,12.39
15.390,8.96
15.406,6.08
15.421,3.95
15.437,2.47
15.453,1.26
15.468,-0.09
15.484,-1.9
15.500,-4.13
15.515,-6.55
15.531,-8.82
15.546,-10.76
15.562,-12.35
15.578,-13.71
15.593,-15.05
15.609,-16.35
15.625,-17.52
15.640,-18.4
15.656,-18.95
15.671,-19.25
15.687,-19.41
15.703,-19.32
15.718,-18.66
15.734,-16.93
15.750,-13.61
15.765,-8.51
15.781,-1.85
15.796,5.68
15.812,13.19
15.828,19.76
15.843,24.79
15.859,28.14
15.875,30.04
15.890,31.09
15.906,31.8
15.921,32.52
15.937,33.07
15.953,33.09
15.968,32.03
15.984,29.24
16.000,24.11
16.015,15.9
16.031,4.01
16.046,-12.25
16.062,-33.35
16.078,-59.27
16.093,-89.21
16.109,-121.2
16.125,-152.5
16.140,-179.87
16.156,-200.3
16.171,-211.35
16.187,-211.66
16.203,-200.77
16.218,-179.2
16.234,-148.34
16.250,-110.27
16.265,-67.83
16.281,-24.34
16.296,16.73
16.312,52.36
16.328,80.37
16.343,99.85
16.359,111.2
16.375,115.61
16.390,114.91
16.406,110.93
16.421,105.23
16.437,98.78
16.453,92.11
16.468,85.43
16.484,78.69
16.500,72.1
16.515,65.61
16.531,59.34
16.546,53.41
16.562,48.16
16.578,43.94
16.593,41.16
16.609,40.14
16.625,40.87
16.640,43.12
16.656,46.33
16.671,49.63
16.687,52.26
16.703,53.59
16.718,53.41
16.734,51.85
16.750,49.36
16.765,46.4
16.781,43.41
16.796,40.54
16.812,37.73
16.828,34.88
16.843,31.86
16.859,28.71
16.875,25.62
16.890,22.83
16.906,20.54
16.921,18.84
16.937,17.64
16.953,16.75
16.968,16.07
16.984,15.49
17.000,14.99
17.015,14.46
17.031,13.84
17.046,12.88
17.062,11.43
17.078,9.41
17.093,6.91
17.109,4.29
17.125,1.91
17.140,0.04
17.156,-1.31
17.171,-2.34
17.187,-3.5
17.203,-5.07
17.218,-7.17
17.234,-9.61
17.250,-11.99
17.265,-14.06
17.281,-15.72
17.296,-17.1
17.312,-18.44
17.328,-19.94
17.343,-21.64
17.359,-23.44
17.375,-25.08
17.390,-26.25
17.406,-26.71
17.421,-26.27
17.437,-24.73
17.453,-21.98
17.468,-18.07
17.484,-13.17
17.500,-7.68
17.515,-2.08
17.531,3.17
17.546,7.67
17.562,11.22
17.578,13.72
17.593,15.35
17.609,16.35
17.625,17.04
17.640,17.67
17.656,18.35
17.671,19.06
17.687,19.55
17.703,19.69
17.718,19.29
17.734,18.46
17.750,17.44
17.765,16.46
17.781,15.57
17.796,14.7
17.812,13.75
17.828,12.55
17.843,11.29
17.859,10.1
17.875,9.26
17.890,8.82
17.906,8.69
17.921,8.52
17.937,8.03
17.953,7.01
17.968,5.48
17.984,3.78
18.000,2.18
18.015,0.92
18.031,0.02
18.046,-0.73
18.062,-1.67
18.078,-3.06
18.093,-4.98
18.109,-7.28
18.125,-9.63
18.140,-11.76
18.156,-13.5
18.171,-14.9
18.187,-16.13
18.203,-17.35
18.218,-18.68
18.234,-20.16
18.250,-21.72
18.265,-23.24
18.281,-24.53
18.296,-25.4
18.312,-25.5
18.328,-24.52
18.343,-22.12
18.359,-18.25
18.375,-13.05
18.390,-7.01
18.406,-0.76
18.421,4.96
18.437,9.59
18.453,12.9
18.468,15.01
18.484,16.33
18.500,17.25
18.515,17.96
18.531,18.44
18.546,18.49
18.562,17.93
18.578,16.75
18.593,15.26
18.609,13.91
18.625,13.13
18.640,13.11
18.656,13.69
18.671,14.58
18.687,15.39
18.703,16.01
18.718,16.44
18.734,16.79
18.750,17.11
18.765,17.31
18.781,17.06
18.796,16.05
18.812,14.19
18.828,11.55
18.843,8.58
18.859,5.77
18.875,3.53
18.890,1.98
18.906,1.02
18.921,0.19
18.937,-0.85
18.953,-2.31
18.968,-4.18
18.984,-6.15
19.000,-7.92
19.015,-9.25
19.031,-10.12
19.046,-10.76
19.062,-11.42
19.078,-12.24
19.093,-13.16
19.109,-14.03
19.125,-14.64
19.140,-14.99
19.156,-15.23
19.171,-15.55
19.187,-16.12
19.203,-16.87
19.218,-17.4
19.234,-17.19
19.250,-15.88
19.265,-13.35
19.281,-10.0
19.296,-6.48
19.312,-3.44
19.328,-1.37
19.343,-0.39
19.359,-0.34
19.375,-0.81
19.390,-1.39
19.406,-1.63
19.421,-1.41
19.437,-0.67
19.453,0.49
19.468,2.01
19.484,3.86
19.500,5.94
19.515,8.16
19.531,10.31
19.546,12.15
19.562,13.33
19.578,13.72
19.593,13.42
19.609,12.7
19.625,12.05
19.640,11.74
19.656,11.89
19.671,12.29
19.687,12.63
19.703,12.6
19.718,12.01
19.734,10.93
19.750,9.55
19.765,8.1
19.781,6.7
19.796,5.27
19.812,3.57
19.828,1.43
19.843,-1.23
19.859,-4.25
19.875,-7.3
19.890,-10.06
19.906,-12.29
19.921,-14.0
19.937,-15.36
19.953,-16.63
19.968,-17.95
19.984,-19.3
20.000,-20.48
20.015,-21.24
20.031,-21.32
20.046,-20.58
20.062,-19.07
20.078,-16.76
20.093,-13.58
20.109,-9.55
20.125,-4.77
20.140,0.44
20.156,5.57
20.171,10.09
20.187,13.63
20.203,16.1
20.218,17.73
20.234,18.89
20.250,19.85
20.265,20.68
20.281,21.27
20.296,21.38
20.312,20.92
20.328,19.9
20.343,18.52
20.359,17.0
20.375,15.6
20.390,14.44
20.406,13.58
20.421,13.03
20.437,12.71
20.453,12.65
20.468,12.77
20.484,13.04
20.500,13.45
20.515,13.87
20.531,14.07
20.546,13.87
20.562,13.1
20.578,11.75
20.593,9.95
20.609,7.92
20.625,5.84
20.640,3.81
20.656,1.68
20.671,-0.81
20.687,-3.82
20.703,-7.37
20.718,-11.22
20.734,-15.0
20.750,-18.39
20.765,-21.21
20.781,-23.47
20.796,-25.42
20.812,-27.32
20.828,-29.35
20.843,-31.49
20.859,-33.62
20.875,-35.53
20.890,-36.97
20.906,-37.82
20.921,-37.84
20.937,-36.87
20.953,-34.55
20.968,-30.63
20.984,-25.01
21.000,-17.98
21.015,-10.14
21.031,-2.34
21.046,4.51
21.062,9.78
21.078,13.22
21.093,15.06
21.109,15.75
21.125,15.83
21.140,15.68
21.156,15.45
21.171,15.11
21.187,14.56
21.203,13.82
21.218,13.12
21.234,12.88
21.250,13.39
21.265,14.68
21.281,16.4
21.296,18.03
21.312,19.05
21.328,19.15
21.343,18.51
21.359,17.48
21.375,16.49
21.390,15.73
21.406,15.07
21.421,14.14
21.437,12.68
21.453,10.67
21.468,8.33
21.484,6.17
21.500,4.56
21.515,3.69
21.531,3.48
21.546,3.64
21.562,3.78
21.578,3.69
21.593,3.33
21.609,2.71
21.625,2.01
21.640,1.27
21.656,0.58
21.687,-0.42
21.703,-0.65
21.718,-0.66
21.734,-0.48
21.750,-0.29
21.765,-0.28
21.781,-0.78
21.796,-1.96
21.812,-3.72
21.828,-5.74
21.843,-7.42
21.859,-8.15
21.875,-7.55
21.890,-5.76
21.906,-3.37
21.921,-1.32
21.937,-0.5
21.953,-1.33
21.968,-3.82
21.984,-7.5
22.000,-11.84
22.015,-16.41
22.031,-20.99
22.046,-25.51
22.062,-29.85
22.078,-33.57
22.093,-35.96
22.109,-36.24
22.125,-33.87
22.140,-28.83
22.156,-21.62
22.171,-13.15
22.187,-4.33
22.203,4.1
22.218,11.7
22.234,18.25
22.250,23.54
22.265,27.26
22.281,28.93
22.296,28.24
22.312,25.07
22.328,19.85
22.343,13.32
22.359,6.33
22.375,-0.3
22.390,-6.25
22.406,-11.34
22.421,-15.73
22.437,-19.55
22.453,-22.75
22.468,-25.06
22.484,-26.23
22.500,-26.24
22.515,-25.4
22.531,-24.26
22.546,-23.2
22.562,-22.23
22.578,-20.92
22.593,-18.72
22.609,-15.39
22.625,-11.19
22.640,-6.93
22.656,-3.5
22.671,-1.45
22.687,-0.6
22.703,-0.31
22.718,0.31
22.734,1.81
22.750,4.27
22.765,7.38
22.781,10.64
22.796,13.78
22.812,16.66
22.828,19.41
22.843,22.0
22.859,24.3
22.875,26.0
22.890,26.66
22.906,25.95
22.921,23.74
22.937,20.22
22.953,15.8
22.968,11.1
22.984,6.69
23.000,2.95
23.015,-0.04
23.031,-2.49
23.046,-4.66
23.062,-6.67
23.078,-8.46
23.093,-9.68
23.109,-10.03
23.125,-9.43
23.140,-8.1
23.156,-6.53
23.171,-5.29
23.187,-4.66
23.203,-4.62
23.218,-4.86
23.234,-4.99
23.250,-4.72
23.265,-4.11
23.281,-3.47
23.296,-3.16
23.312,-3.49
23.328,-4.42
23.343,-5.76
23.359,-7.18
23.375,-8.34
23.390,-9.18
23.406,-9.84
23.421,-10.44
23.437,-11.01
23.453,-11.42
23.468,-11.55
23.484,-11.42
23.500,-11.3
23.515,-11.49
23.531,-12.25
23.546,-13.54
23.562,-14.76
23.578,-15.13
23.593,-13.88
23.609,-10.75
23.625,-6.12
23.640,-0.88
23.656,4.01
23.671,7.81
23.687,10.31
23.703,11.79
23.718,12.8
23.734,13.82
23.750,15.14
23.765,16.56
23.781,17.72
23.796,18.26
23.812,17.96
23.828,16.97
23.843,15.66
23.859,14.41
23.875,13.66
23.890,13.68
23.906,14.47
23.921,15.86
23.937,17.66
23.953,19.67
23.968,21.83
23.984,24.13
24.000,26.43
24.015,28.66
24.031,30.61
24.046,32.03
24.062,32.81
24.078,32.92
24.093,32.47
24.109,31.65
24.125,30.52
24.140,29.01
24.156,27.0
24.171,24.29
24.187,20.83
24.203,16.78
24.218,12.3
24.234,7.54
24.250,2.47
24.265,-3.09
24.281,-9.35
24.296,-16.31
24.312,-23.73
24.328,-31.18
24.343,-38.12
24.359,-44.33
24.375,-49.77
24.390,-54.63
24.406,-59.05
24.421,-62.89
24.437,-65.65
24.453,-66.58
24.468,-65.07
24.484,-60.85
24.500,-54.28
24.515,-46.14
24.531,-37.43
24.546,-29.03
24.562,-21.37
24.578,-14.48
24.593,-8.04
24.609,-1.8
24.625,4.26
24.640,9.81
24.656,14.41
24.671,17.77
24.687,19.84
24.703,21.0
24.718,21.78
24.734,22.69
24.750,23.86
24.765,24.99
24.781,25.66
24.796,25.5
24.812,24.52
24.828,23.11
24.843,21.88
24.859,21.25
24.875,21.37
24.890,21.9
24.906,22.27
24.921,21.94
24.937,20.69
24.953,18.66
24.968,16.31
24.984,14.07
25.000,12.15
25.015,10.49
25.031,8.84
25.046,6.98
25.062,4.86
25.078,2.65
25.093,0.6
25.109,-1.03
25.125,-2.22
25.140,-3.13
25.156,-4.07
25.171,-5.24
25.187,-6.67
25.203,-8.15
25.218,-9.4
25.234,-10.16
25.250,-10.37
25.265,-10.23
25.281,-10.05
25.296,-10.18
25.312,-10.79
25.328,-11.84
25.343,-13.15
25.359,-14.44
25.375,-15.44
25.390,-15.94
25.406,-15.7
25.421,-14.59
25.437,-12.43
25.453,-9.21
25.468,-5.05
25.484,-0.27
25.500,4.7
25.515,9.38
25.531,13.33
25.546,16.34
25.562,18.39
25.578,19.63
25.593,20.34
25.609,20.76
25.625,21.02
25.640,21.18
25.656,21.2
25.671,21.07
25.687,20.88
25.703,20.83
25.718,21.1
25.734,21.86
25.750,23.07
25.765,24.39
25.781,25.51
25.796,26.11
25.812,26.09
25.828,25.57
25.843,24.69
25.859,23.6
25.875,22.3
25.890,20.66
25.906,18.52
25.921,15.76
25.937,12.46
25.953,8.78
25.968,4.95
25.984,1.1
26.000,-2.74
26.015,-6.69
26.031,-10.93
26.046,-15.53
26.062,-20.38
26.078,-25.09
26.093,-29.21
26.109,-32.31
26.125,-34.21
26.140,-35.05
26.156,-35.23
26.171,-35.15
26.187,-35.03
26.203,-34.73
26.218,-33.96
26.234,-32.43
26.250,-30.05
26.265,-27.0
26.281,-23.61
26.296,-20.2
26.312,-16.93
26.328,-13.68
26.343,-10.37
26.359,-6.83
26.375,-3.14
26.390,0.38
26.406,3.39
26.421,5.58
26.437,6.88
26.453,7.47
26.468,7.7
26.484,7.79
26.500,7.92
26.515,7.95
26.531,7.7
26.546,6.95
26.562,5.71
26.578,4.18
26.593,2.78
26.609,1.86
26.625,1.57
26.640,1.81
26.656,2.28
26.671,2.7
26.687,2.88
26.703,2.87
26.718,2.77
26.734,2.75
26.750,2.79
26.765,2.76
26.781,2.42
26.796,1.6
26.812,0.25
26.828,-1.48
26.843,-3.32
26.859,-5.06
26.875,-6.49
26.890,-7.66
26.906,-8.73
26.921,-9.94
26.937,-11.42
26.953,-13.09
26.968,-14.68
26.984,-15.97
27.000,-16.9
27.015,-17.68
27.031,-18.74
27.046,-20.46
27.062,-22.95
27.078,-25.97
27.093,-28.88
27.109,-31.03
27.125,-31.86
27.140,-31.12
27.156,-28.93
27.171,-25.55
27.187,-21.27
27.203,-16.28
27.218,-10.86
27.234,-5.27
27.250,0.01
27.265,4.62
27.281,8.18
27.296,10.56
27.312,11.91
27.328,12.66
27.343,13.33
27.359,14.22
27.375,15.43
27.390,16.68
27.406,17.67
27.421,18.03
27.437,17.65
27.453,16.71
27.468,15.57
27.484,14.59
27.500,14.01
27.515,13.91
27.531,14.11
27.546,14.46
27.562,14.73
27.578,14.79
27.593,14.61
27.609,14.18
27.625,13.51
27.640,12.61
27.656,11.55
27.671,10.34
27.687,9.09
27.703,7.9
27.718,6.82
27.734,5.93
27.750,5.07
27.765,4.03
27.781,2.53
27.796,0.32
27.812,-2.7
27.828,-6.32
27.843,-10.17
27.859,-13.85
27.875,-16.92
27.890,-19.3
27.906,-21.01
27.921,-22.28
27.937,-23.33
27.953,-24.29
27.968,-25.19
27.984,-25.91
28.000,-26.3
28.015,-26.12
28.031,-25.29
28.046,-23.55
28.062,-20.77
28.078,-16.75
28.093,-11.51
28.109,-5.38
28.125,1.05
28.140,7.0
28.156,11.85
28.171,15.3
28.187,17.52
28.203,19.02
28.218,20.32
28.234,21.85
28.250,23.54
28.265,25.15
28.281,26.32
28.296,26.9
28.312,26.92
28.328,26.68
28.343,26.46
28.359,26.41
28.375,26.62
28.390,26.89
28.406,27.03
28.421,26.77
28.437,26.06
28.453,24.98
28.468,23.77
28.484,22.63
28.500,21.59
28.515,20.58
28.531,19.36
28.546,17.7
28.562,15.53
28.578,12.97
28.593,10.41
28.609,8.23
28.625,6.58
28.640,5.36
28.656,4.27
28.671,2.98
28.687,1.39
28.703,-0.41
28.718,-2.22
28.734,-3.82
28.750,-5.21
28.765,-6.54
28.781,-8.05
28.796,-9.8
28.812,-11.79
28.828,-13.67
28.843,-15.13
28.859,-16.05
28.875,-16.56
28.890,-17.03
28.906,-17.86
28.921,-19.38
28.937,-21.41
28.953,-23.45
28.968,-24.74
28.984,-24.45
29.000,-22.22
29.015,-18.24
29.031,-13.12
29.046,-7.73
29.062,-2.77
29.078,1.44
29.093,4.9
29.109,7.79
29.125,10.33
29.140,12.46
29.156,14.07
29.171,15.08
29.187,15.63
29.203,16.03
29.218,16.62
29.234,17.52
29.250,18.57
29.265,19.45
29.281,19.72
29.296,19.14
29.312,17.79
29.328,16.06
29.343,14.41
29.359,13.26
29.375,12.7
29.390,12.58
29.406,12.56
29.421,12.24
29.437,11.41
29.453,10.12
29.468,8.57
29.484,7.02
29.500,5.66
29.515,4.5
29.531,3.51
29.546,2.58
29.562,1.64
29.578,0.8
29.593,0.13
29.609,-0.31
29.625,-0.69
29.640,-1.31
29.656,-2.47
29.671,-4.34
29.687,-6.78
29.703,-9.44
29.718,-11.82
29.734,-13.59
29.750,-14.77
29.765,-15.74
29.781,-16.94
29.796,-18.71
29.812,-20.97
29.828,-23.14
29.843,-24.45
29.859,-24.21
29.875,-22.09
29.890,-18.39
29.906,-13.7
29.921,-8.77
29.937,-4.1
29.953,0.04
29.968,3.66
29.984,6.81
30.000,9.46
30.015,11.4
30.031,12.47
30.046,12.63
30.062,12.07
30.078,11.27
30.093,10.65
30.109,10.59
30.125,11.12
30.140,11.99
30.156,12.8
30.171,13.17
30.187,12.97
30.203,12.35
30.218,11.62
30.234,11.08
30.250,10.89
30.265,10.91
30.281,10.87
30.296,10.45
30.312,9.47
30.328,8.0
30.343,6.25
30.359,4.46
30.375,2.78
30.390,1.2
30.406,-0.41
30.421,-2.13
30.437,-3.94
30.453,-5.71
30.468,-7.25
30.484,-8.43
30.500,-9.22
30.515,-9.76
30.531,-10.23
30.546,-10.81
30.562,-11.56
30.578,-12.43
30.593,-13.34
30.609,-14.2
30.625,-15.07
30.640,-16.12
30.656,-17.57
30.671,-19.51
30.687,-21.74
30.703,-23.75
30.718,-24.88
30.734,-24.56
30.750,-22.49
30.765,-18.84
30.781,-14.09
30.796,-8.88
30.812,-3.71
30.828,1.14
30.843,5.54
30.859,9.37
30.875,12.54
30.890,14.9
30.906,16.29
30.921,16.73
30.937,16.49
30.953,15.98
30.968,15.64
30.984,15.7
31.000,16.14
31.015,16.71
31.031,17.04
31.046,16.86
31.062,16.06
31.078,14.88
31.093,13.65
31.109,12.9
31.125,12.82
31.140,13.19
31.156,13.51
31.171,13.16
31.187,11.61
31.203,8.44
31.218,3.3
31.234,-4.47
31.250,-15.51
31.265,-30.69
31.281,-50.76
31.296,-75.95
31.312,-105.47
31.328,-137.33
31.343,-168.55
31.359,-195.77
31.375,-215.9
31.390,-226.55
31.406,-226.37
31.421,-215.1
31.437,-193.36
31.453,-162.58
31.468,-124.98
31.484,-83.42
31.500,-41.17
31.515,-1.55
31.531,32.74
31.546,59.91
31.562,79.33
31.578,91.44
31.593,97.23
31.609,98.06
31.625,95.33
31.640,90.37
31.656,84.22
31.671,77.85
31.687,72.04
31.703,67.5
31.718,64.76
31.734,63.81
31.750,64.3
31.765,65.52
31.781,66.8
31.796,67.47
31.812,67.16
31.828,65.78
31.843,63.54
31.859,60.78
31.875,57.75
31.890,54.64
31.906,51.51
31.921,48.3
31.937,44.99
31.953,41.63
31.968,38.42
31.984,35.56
32.000,33.21
32.015,31.34
32.031,29.77
32.046,28.26
32.062,26.57
32.078,24.69
32.093,22.8
32.109,21.05
32.125,19.59
32.140,18.29
32.156,16.85
32.171,14.99
32.187,12.53
32.203,9.61
32.218,6.56
32.234,3.78
32.250,1.49
32.265,-0.31
32.281,-1.78
32.296,-3.16
32.312,-4.52
32.328,-5.84
32.343,-6.94
32.359,-7.73
32.375,-8.23
32.390,-8.64
32.406,-9.19
32.421,-10.06
32.437,-11.29
32.453,-12.73
32.468,-14.07
32.484,-15.07
32.500,-15.58
32.515,-15.73
32.531,-15.83
32.546,-16.21
32.562,-17.1
32.578,-18.48
32.593,-19.97
32.609,-21.05
32.625,-21.21
32.640,-20.2
32.656,-18.09
32.671,-15.21
32.687,-11.94
32.703,-8.5
32.718,-4.99
32.734,-1.4
32.750,2.25
32.765,5.72
32.781,8.74
32.796,11.04
32.812,12.56
32.828,13.41
32.843,13.89
32.859,14.26
32.875,14.58
32.890,14.77
32.906,14.6
32.921,13.93
32.937,12.76
32.953,11.25
32.968,9.73
32.984,8.52
33.000,7.86
33.015,7.8
33.031,8.28
33.046,9.07
33.062,9.89
33.078,10.6
33.093,11.03
33.109,11.15
33.125,10.97
33.140,10.45
33.156,9.49
33.171,8.03
33.187,6.07
33.203,3.73
33.218,1.3
33.234,-1.02
33.250,-3.14
33.265,-5.15
33.281,-7.38
33.296,-10.08
33.312,-13.38
33.328,-16.99
33.343,-20.45
33.359,-23.17
33.375,-24.89
33.390,-25.62
33.406,-25.67
33.421,-25.48
33.437,-25.33
33.453,-25.29
33.468,-25.19
33.484,-24.81
33.500,-23.92
33.515,-22.46
33.531,-20.51
33.546,-18.07
33.562,-15.26
33.578,-12.06
33.593,-8.46
33.609,-4.53
33.625,-0.45
33.640,3.57
33.656,7.22
33.671,10.18
33.687,12.35
33.703,13.7
33.718,14.46
33.734,14.89
33.750,15.23
33.765,15.54
33.781,15.7
33.796,15.52
33.812,14.82
33.828,13.7
33.843,12.43
33.859,11.38
33.875,10.81
33.890,10.74
33.906,10.84
33.921,10.7
33.937,10.08
33.953,8.92
33.968,7.55
33.984,6.35
34.000,5.56
34.015,5.23
34.031,5.03
34.046,4.62
34.062,3.71
34.078,2.28
34.093,0.49
34.109,-1.34
34.125,-2.99
34.140,-4.4
34.156,-5.65
34.171,-6.97
34.187,-8.46
34.203,-10.2
34.218,-12.06
34.234,-13.87
34.250,-15.48
34.265,-16.81
34.281,-17.95
34.296,-19.0
34.312,-20.11
34.328,-21.39
34.343,-22.85
34.359,-24.44
34.375,-26.12
34.390,-27.78
34.406,-29.29
34.421,-30.53
34.437,-31.25
34.453,-31.11
34.468,-29.73
34.484,-26.82
34.500,-22.33
34.515,-16.56
34.531,-10.19
34.546,-3.98
34.562,1.34
34.578,5.4
34.593,8.23
34.609,10.19
34.625,11.72
34.640,13.12
34.656,14.51
34.671,15.7
34.687,16.52
34.703,16.92
34.718,17.02
34.734,17.13
34.750,17.55
34.765,18.43
34.781,19.55
34.796,20.54
34.812,21.05
34.828,20.91
34.843,20.31
34.859,19.54
34.875,18.98
34.890,18.65
34.906,18.49
34.921,18.15
34.937,17.34
34.953,15.93
34.968,14.05
34.984,11.94
35.000,9.84
35.015,7.9
35.031,6.08
35.046,4.33
35.062,2.46
35.078,0.42
35.093,-1.78
35.109,-3.97
35.125,-5.96
35.140,-7.66
35.156,-9.05
35.171,-10.36
35.187,-11.71
35.203,-13.24
35.218,-14.9
35.234,-16.48
35.250,-17.76
35.265,-18.6
35.281,-19.07
35.296,-19.41
35.312,-19.93
35.328,-20.86
35.343,-22.16
35.359,-23.62
35.375,-24.76
35.390,-25.21
35.406,-24.57
35.421,-22.63
35.437,-19.42
35.453,-15.17
35.468,-10.19
35.484,-4.86
35.500,0.43
35.515,5.46
35.531,9.89
35.546,13.54
35.562,16.25
35.578,18.05
35.593,19.07
35.609,19.6
35.625,19.96
35.640,20.34
35.656,20.79
35.671,21.07
35.687,20.96
35.703,20.28
35.718,19.17
35.734,17.97
35.750,17.04
35.765,16.59
35.781,16.48
35.796,16.42
35.812,16.07
35.828,15.27
35.843,14.13
35.859,12.9
35.875,11.77
35.890,10.66
35.906,9.36
35.921,7.57
35.937,5.27
35.953,2.64
35.968,0.08
35.984,-1.99
36.000,-3.36
36.015,-4.1
36.031,-4.54
36.046,-5.12
36.062,-6.18
36.078,-7.82
36.093,-9.89
36.109,-12.13
36.125,-14.24
36.140,-16.02
36.156,-17.41
36.171,-18.47
36.187,-19.35
36.203,-20.11
36.218,-20.78
36.234,-21.28
36.250,-21.53
36.265,-21.41
36.281,-20.88
36.296,-19.87
36.312,-18.34
36.328,-16.15
36.343,-13.12
36.359,-9.09
36.375,-4.09
36.390,1.66
36.406,7.58
36.421,13.02
36.437,17.37
36.453,20.3
36.468,21.96
36.484,22.7
36.500,22.98
36.515,23.16
36.531,23.28
36.546,23.12
36.562,22.49
36.578,21.3
36.593,19.71
36.609,18.15
36.625,16.96
36.640,16.37
36.656,16.35
36.671,16.72
36.687,17.08
36.703,17.22
36.718,17.03
36.734,16.66
36.750,16.29
36.765,16.09
36.781,15.99
36.796,15.81
36.812,15.31
36.828,14.29
36.843,12.9
36.859,11.42
36.875,10.19
36.890,9.41
36.906,9.05
36.921,8.77
36.937,8.21
36.953,7.16
36.968,5.58
36.984,3.81
37.000,2.16
37.015,0.96
37.031,0.34
37.046,0.2
37.062,0.35
37.078,0.61
37.093,0.92
37.109,1.31
37.125,1.96
37.140,2.97
37.156,4.48
37.171,6.72
37.187,9.83
37.203,14.01
37.218,19.3
37.234,25.67
37.250,32.86
37.265,40.5
37.281,48.09
37.296,55.09
37.312,61.11
37.328,65.86
37.343,69.31
37.359,71.71
37.375,73.4
37.390,74.72
37.406,75.89
37.421,76.76
37.437,77.0
37.453,76.22
37.468,74.2
37.484,71.16
37.500,67.6
37.515,64.21
37.531,61.48
37.546,59.55
37.562,58.09
37.578,56.51
37.593,54.24
37.609,51.03
37.625,47.07
37.640,42.84
37.656,38.88
37.671,35.52
37.687,32.73
37.703,30.24
37.718,27.72
37.734,25.02
37.750,22.29
37.765,19.9
37.781,18.36
37.796,18.24
37.812,20.09
37.828,24.38
37.843,31.5
37.859,41.57
37.875,54.27
37.890,68.96
37.906,84.64
37.921,100.09
37.937,114.11
37.953,125.74
37.968,134.28
37.984,139.32
38.000,140.59
38.015,137.92
38.031,131.24
38.046,120.72
38.062,106.94
38.078,90.83
38.093,73.67
38.109,56.65
38.125,40.55
38.140,25.23
38.156,9.78
38.171,-7.3
38.187,-27.43
38.203,-51.46
38.218,-79.39
38.234,-110.33
38.250,-142.82
38.265,-175.29
38.281,-206.36
38.296,-235.2
38.312,-261.84
38.328,-287.02
38.343,-311.93
38.359,-337.3
38.375,-362.64
38.390,-385.69
38.406,-402.84
38.421,-410.21
38.437,-405.19
38.453,-387.47
38.468,-358.9
38.484,-322.62
38.500,-281.68
38.515,-238.19
38.531,-193.23
38.546,-147.43
38.562,-101.48
38.578,-56.34
38.593,-12.9
38.609,28.82
38.625,69.93
38.640,112.15
38.656,156.74
38.671,203.36
38.687,249.74
38.703,292.17
38.718,326.66
38.734,350.35
38.750,362.09
38.765,362.49
38.781,352.94
38.796,334.63
38.812,307.9
38.828,272.4
38.843,227.8
38.859,174.72
38.875,115.23
38.890,52.54
38.906,-9.63
38.921,-68.0
38.937,-120.29
38.953,-165.41
38.968,-203.06
38.984,-233.5
39.000,-257.0
39.015,-273.81
39.031,-284.15
39.046,-288.34
39.062,-286.87
39.078,-280.3
39.093,-269.45
39.109,-255.21
39.125,-238.55
39.140,-220.18
39.156,-200.37
39.171,-178.82
39.187,-154.63
39.203,-126.69
39.218,-94.04
39.234,-56.44
39.250,-14.55
39.265,30.49
39.281,77.49
39.296,125.57
39.312,174.49
39.328,224.73
39.343,277.19
39.359,332.78
39.375,391.56
39.390,451.98
39.406,510.54
39.421,561.9
39.437,599.26
39.453,615.7
39.468,606.04
39.484,568.5
39.500,505.75
39.515,424.46
39.531,333.67
39.546,242.23
39.562,156.52
39.578,79.2
39.593,9.51
39.609,-55.15
39.625,-117.39
39.640,-178.24
39.656,-236.86
39.671,-290.68
39.687,-336.14
39.703,-369.35
39.718,-387.09
39.734,-387.37
39.750,-369.5
39.765,-334.18
39.781,-283.02
39.796,-218.44
39.812,-143.59
39.828,-62.97
39.843,17.43
39.859,89.8
39.875,145.51
39.890,177.27
39.906,181.24
39.921,158.54
39.937,114.73
39.953,58.16
39.968,-2.59
39.984,-60.53
40.000,-111.0
40.015,-151.72
40.031,-181.95
40.046,-202.1
40.062,-213.19
40.078,-217.03
40.093,-215.67
40.109,-211.05
40.125,-204.39
40.140,-195.73
40.156,-184.51
40.171,-170.17
40.187,-152.88
40.203,-133.07
40.218,-111.15
40.234,-87.37
40.250,-61.98
40.265,-35.57
40.281,-9.33
40.296,14.9
40.312,35.18
40.328,49.47
40.343,56.87
40.359,57.91
40.375,54.3
40.390,48.06
40.406,40.8
40.421,33.25
40.437,24.84
40.453,14.33
40.468,0.3
40.484,-18.05
40.500,-40.47
40.515,-65.7
40.531,-92.01
40.546,-117.11
40.562,-138.08
40.578,-151.55
40.593,-153.81
40.609,-141.88
40.625,-114.4
40.640,-72.35
40.656,-18.91
40.671,41.0
40.687,102.12
40.703,160.35
40.718,213.15
40.734,259.75
40.750,300.1
40.765,334.16
40.781,360.97
40.796,378.91
40.812,385.98
40.828,380.47
40.843,362.0
40.859,331.33
40.875,290.21
40.890,240.05
40.906,181.8
40.921,116.64
40.937,47.19
40.953,-21.36
40.968,-81.37
40.984,-124.52
41.000,-144.88
41.015,-141.08
41.031,-117.56
41.046,-82.93
41.062,-46.9
41.078,-16.98
41.093,3.56
41.109,15.69
41.125,22.93
41.140,28.83
41.156,35.61
41.171,43.38
41.187,50.8
41.203,56.2
41.218,58.3
41.234,56.49
41.250,50.59
41.265,40.9
41.281,28.45
41.296,15.88
41.312,7.7
41.328,9.18
41.343,24.7
41.359,55.67
41.375,99.72
41.390,150.82
41.406,200.81
41.421,241.93
41.437,268.57
41.453,278.14
41.468,271.15
41.484,250.55
41.500,220.77
41.515,187.2
41.531,155.03
41.546,128.47
41.562,110.61
41.578,103.08
41.593,106.12
41.609,118.88
41.625,139.52
41.640,165.49
41.656,193.86
41.671,220.95
41.687,242.49
41.703,253.59
41.718,248.99
41.734,223.84
41.750,174.65
41.765,100.2
41.781,2.25
41.796,-114.3
41.812,-242.41
41.828,-374.02
41.843,-501.59
41.859,-619.15
41.875,-723.01
41.890,-811.81
41.906,-886.45
41.921,-949.34
41.937,-1003.07
41.953,-1048.89
41.968,-1085.44
41.984,-1108.62
42.000,-1112.85
42.015,-1093.49
42.031,-1048.98
42.046,-982.39
42.062,-900.72
42.078,-812.71
42.093,-726.06
42.109,-645.73
42.125,-573.48
42.140,-509.18
42.156,-452.22
42.171,-402.2
42.187,-358.98
42.203,-322.04
42.218,-290.13
42.234,-261.46
42.250,-234.46
42.265,-208.44
42.281,-183.89
42.296,-161.89
42.312,-143.45
42.328,-128.56
42.343,-116.03
42.359,-103.73
42.375,-89.26
42.390,-70.99
42.406,-48.46
42.421,-22.39
42.437,5.78
42.453,34.69
42.468,63.64
42.484,92.64
42.500,122.03
42.515,151.76
42.531,180.9
42.546,207.56
42.562,229.56
42.578,245.06
42.593,253.57
42.609,256.4
42.625,256.76
42.640,259.33
42.656,269.25
42.671,291.27
42.687,328.16
42.703,379.77
42.718,442.17
42.734,508.41
42.750,570.19
42.765,620.16
42.781,653.98
42.796,671.14
42.812,674.24
42.828,667.0
42.843,652.45
42.859,631.81
42.875,604.87
42.890,570.99
42.906,530.11
42.921,483.18
42.937,432.17
42.953,379.38
42.968,327.17
42.984,277.91
43.000,233.59
43.015,195.75
43.031,165.0
43.046,141.03
43.062,122.82
43.078,109.19
43.093,99.0
43.109,91.02
43.125,83.77
43.140,75.25
43.156,63.07
43.171,44.93
43.187,19.4
43.203,-13.49
43.218,-52.04
43.234,-93.35
43.250,-133.99
43.265,-170.97
43.281,-202.27
43.296,-226.94
43.312,-244.69
43.328,-255.42
43.343,-259.35
43.359,-257.1
43.375,-250.28
43.390,-241.08
43.406,-231.65
43.421,-223.2
43.437,-215.25
43.453,-205.71
43.468,-191.76
43.484,-171.04
43.500,-142.63
43.515,-107.22
43.531,-66.61
43.546,-22.91
43.562,21.97
43.578,66.42
43.593,109.2
43.609,149.11
43.625,185.19
43.640,216.66
43.656,243.06
43.671,264.47
43.687,281.68
43.703,296.29
43.718,310.28
43.734,325.49
43.750,342.51
43.765,360.48
43.781,377.16
43.796,389.72
43.812,395.69
43.828,393.69
43.843,383.62
43.859,366.86
43.875,346.25
43.890,325.67
43.906,309.68
43.921,302.67
43.937,307.65
43.953,325.31
43.968,353.3
43.984,386.31
44.000,417.17
44.015,438.45
44.031,444.13
44.046,431.0
44.062,399.23
44.078,351.88
44.093,294.01
44.109,231.12
44.125,168.0
44.140,108.15
44.156,53.61
44.171,5.41
44.187,-36.01
44.203,-70.61
44.218,-98.9
44.234,-121.69
44.250,-140.14
44.265,-155.56
44.281,-168.88
44.296,-180.29
44.312,-188.76
44.328,-192.26
44.343,-188.7
44.359,-177.37
44.375,-159.89
44.390,-140.39
44.406,-124.26
44.421,-116.11
44.437,-118.23
44.453,-129.73
44.468,-147.47
44.484,-167.79
44.500,-188.19
44.515,-208.14
44.531,-228.86
44.546,-252.28
44.562,-279.79
44.578,-311.72
44.593,-347.2
44.609,-384.82
44.625,-423.2
44.640,-461.42
44.656,-499.19
44.671,-536.78
44.687,-574.54
44.703,-612.98
44.718,-652.73
44.734,-694.74
44.750,-739.72
44.765,-787.11
44.781,-833.71
44.796,-873.29
44.812,-897.66
44.828,-899.21
44.843,-874.02
44.859,-823.65
44.875,-754.83
44.890,-677.06
44.906,-599.16
44.921,-526.85
44.937,-462.21
44.953,-404.84
44.968,-353.6
44.984,-308.12
45.000,-268.74
45.015,-235.69
45.031,-208.35
45.046,-184.95
45.062,-163.0
45.078,-140.33
45.093,-115.62
45.109,-88.73
45.125,-60.51
45.140,-32.2
45.156,-4.67
45.171,21.75
45.187,47.42
45.203,73.21
45.218,99.92
45.234,128.0
45.250,157.25
45.265,186.8
45.281,215.57
45.296,242.84
45.312,268.59
45.328,293.67
45.343,319.46
45.359,347.08
45.375,377.12
45.390,409.38
45.406,443.34
45.421,478.65
45.437,514.98
45.453,551.09
45.468,584.09
45.484,609.09
45.500,620.2
45.515,613.07
45.531,587.03
45.546,545.92
45.562,497.2
45.578,449.06
45.593,407.51
45.609,374.96
45.625,350.6
45.640,331.95
45.656,316.76
45.671,303.53
45.687,291.17
45.703,278.17
45.718,262.39
45.734,241.56
45.750,214.66
45.765,182.95
45.781,149.82
45.796,120.33
45.812,99.61
45.828,91.55
45.843,97.93
45.859,117.96
45.875,148.52
45.890,185.05
45.906,222.49
45.921,255.96
45.937,281.73
45.953,297.09
45.968,300.48
45.984,291.02
46.000,268.07
46.015,231.83
46.031,184.08
46.046,128.85
46.062,71.8
46.078,18.74
46.093,-26.98
46.109,-65.86
46.125,-101.64
46.140,-138.77
46.156,-179.38
46.171,-221.58
46.187,-259.97
46.203,-288.86
46.218,-304.63
46.234,-307.04
46.250,-298.22
46.265,-280.04
46.281,-252.17
46.296,-212.1
46.312,-157.27
46.328,-87.47
46.343,-7.14
46.359,75.48
46.375,150.96
46.390,212.23
46.406,257.37
46.421,290.04
46.437,317.43
46.453,346.41
46.468,380.11
46.484,416.02
46.500,447.23
46.515,465.48
46.531,464.57
46.546,442.61
46.562,401.57
46.578,345.68
46.593,279.17
46.609,204.92
46.625,124.47
46.640,39.18
46.656,-49.17
46.671,-138.23
46.687,-225.13
46.703,-306.59
46.718,-378.37
46.734,-434.65
46.750,-468.4
46.765,-473.8
46.781,-448.87
46.796,-398.14
46.812,-332.71
46.828,-267.11
46.843,-214.81
46.859,-184.08
46.875,-176.47
46.890,-188.18
46.906,-213.6
46.921,-248.42
46.937,-291.07
46.953,-341.88
46.968,-400.98
46.984,-466.6
47.000,-534.5
47.015,-598.33
47.031,-650.98
47.046,-686.07
47.062,-699.65
47.078,-691.25
47.093,-663.87
47.109,-622.71
47.125,-573.23
47.140,-519.6
47.156,-463.92
47.171,-406.76
47.187,-348.62
47.203,-291.17
47.218,-237.28
47.234,-189.75
47.250,-149.58
47.265,-115.39
47.281,-83.9
47.296,-51.4
47.312,-14.81
47.328,27.69
47.343,76.75
47.359,132.13
47.375,192.62
47.390,256.04
47.406,318.36
47.421,373.75
47.437,416.21
47.453,441.95
47.468,450.68
47.484,445.41
47.500,430.42
47.515,409.34
47.531,385.19
47.546,359.33
47.562,332.02
47.578,303.62
47.593,275.62
47.609,249.99
47.625,227.86
47.640,207.79
47.656,186.32
47.671,161.24
47.687,131.31
47.703,96.72
47.718,59.81
47.734,25.45
47.750,-0.08
47.765,-11.38
47.781,-6.93
47.796,11.56
47.812,42.61
47.828,84.12
47.843,133.16
47.859,186.57
47.875,241.79
47.890,297.06
47.906,350.72
47.921,399.82
47.937,427.99
47.953,423.17
47.968,384.45
47.984,320.94
48.000,241.87
48.015,151.77
48.031,54.03
48.046,-44.79
48.062,-136.95
48.078,-217.1
48.093,-277.65
48.109,-315.03
48.125,-332.13
48.140,-337.2
48.156,-339.69
48.171,-346.29
48.187,-351.53
48.203,-351.71
48.218,-342.41
48.234,-319.03
48.250,-281.48
48.265,-235.33
48.281,-189.74
48.296,-152.76
48.312,-127.47
48.328,-111.5
48.343,-100.63
48.359,-90.02
48.375,-75.63
48.390,-56.71
48.406,-35.26
48.421,-14.08
48.437,5.44
48.453,24.03
48.468,43.12
48.484,62.14
48.500,79.4
48.515,92.96
48.531,100.84
48.546,102.06
48.562,97.19
48.578,88.53
48.593,79.6
48.609,73.48
48.625,70.91
48.640,71.26
48.656,72.83
48.671,73.64
48.687,72.29
48.703,68.7
48.718,64.07
48.734,60.45
48.750,59.53
48.765,61.59
48.781,66.05
48.796,71.68
48.812,77.31
48.828,82.26
48.843,86.39
48.859,89.55
48.875,91.5
48.890,91.46
48.906,88.55
48.921,82.59
48.937,74.18
48.953,64.66
48.968,55.55
48.984,47.87
49.000,41.78
49.015,36.91
49.031,32.51
49.046,28.14
49.062,23.76
49.078,19.56
49.093,15.57
49.109,11.74
49.125,7.76
49.140,3.55
49.156,-0.62
49.171,-4.22
49.187,-6.81
49.203,-8.14
49.218,-8.6
49.234,-8.91
49.250,-9.86
49.265,-11.91
49.281,-14.99
49.296,-18.6
49.312,-22.24
49.328,-25.78
49.343,-29.47
49.359,-33.9
49.375,-39.46
49.390,-45.94
49.406,-52.44
49.421,-57.54
49.437,-59.87
49.453,-58.43
49.468,-52.79
49.484,-43.15
49.500,-30.34
49.515,-15.65
49.531,-0.72
49.546,12.68
49.562,23.14
49.578,29.96
49.593,33.36
49.609,34.39
49.625,34.33
49.640,34.21
49.656,34.56
49.671,35.38
49.687,36.36
49.703,37.27
49.718,38.05
49.734,38.69
49.750,39.24
49.765,39.53
49.781,39.33
49.796,38.61
49.812,37.41
49.828,35.89
49.843,34.18
49.859,32.38
49.875,30.41
49.890,28.22
49.906,25.74
49.921,22.93
49.937,19.85
49.953,16.5
49.968,12.93
49.984,9.24
50.000,5.64
50.015,2.35
50.031,-0.38
50.046,-2.5
50.062,-4.13
50.078,-5.62
50.093,-7.36
50.109,-9.6
50.125,-12.39
50.140,-15.59
50.156,-18.95
50.171,-22.13
50.187,-24.82
50.203,-26.78
50.218,-27.89
50.234,-28.4
50.250,-28.67
50.265,-29.18
50.281,-30.18
50.296,-31.39
50.312,-32.01
50.328,-31.03
50.343,-27.78
50.359,-22.26
50.375,-15.26
50.390,-7.84
50.406,-0.96
50.421,4.99
50.437,10.2
50.453,15.07
50.468,19.81
50.484,24.22
50.500,27.84
50.515,30.17
50.531,31.25
50.546,31.42
50.562,31.27
50.578,31.31
50.593,31.74
50.609,32.44
50.625,33.1
50.640,33.46
50.656,33.43
50.671,33.17
50.687,32.86
50.703,32.63
50.718,32.38
50.734,31.91
50.750,31.01
50.765,29.64
50.781,28.0
50.796,26.36
50.812,24.96
50.828,23.79
50.843,22.65
50.859,21.19
50.875,19.18
50.890,16.66
50.906,13.92
50.921,11.4
50.937,9.45
50.953,8.35
50.968,8.07
50.984,8.2
51.000,7.98
51.015,6.38
51.031,2.47
51.046,-4.14
51.062,-13.0
51.078,-23.07
51.093,-32.83
51.109,-40.98
51.125,-46.73
51.140,-49.87
51.156,-50.42
51.171,-48.4
51.187,-43.72
51.203,-36.28
51.218,-26.45
51.234,-15.04
51.250,-3.24
51.265,7.81
51.281,17.46
51.296,25.62
51.312,32.73
51.328,39.26
51.343,45.52
51.359,51.37
51.375,56.32
51.390,59.72
51.406,61.01
51.421,59.94
51.437,56.51
51.453,51.04
51.468,43.84
51.484,35.39
51.500,26.22
51.515,17.17
51.531,9.23
51.546,3.46
51.562,0.67
51.578,1.13
51.593,4.56
51.609,10.0
51.625,16.17
51.640,21.71
51.656,25.46
51.671,26.52
51.687,24.34
51.703,18.7
51.718,9.55
51.734,-2.73
51.750,-17.48
51.765,-33.79
51.781,-50.53
51.796,-66.43
51.812,-80.15
51.828,-90.41
51.843,-96.11
51.859,-96.6
51.875,-91.7
51.890,-81.91
51.906,-68.2
51.921,-51.97
51.937,-34.67
51.953,-17.42
51.968,-1.04
51.984,14.12
52.000,27.94
52.015,40.6
52.031,52.24
52.046,62.99
52.062,72.57
52.078,80.18
52.093,84.53
52.109,84.24
52.125,78.36
52.140,66.84
52.156,50.99
52.171,33.16
52.187,16.09
52.203,2.27
52.218,-6.78
52.234,-10.67
52.250,-9.91
52.265,-5.29
52.281,2.17
52.296,11.66
52.312,22.4
52.328,33.42
52.343,43.51
52.359,51.34
52.375,55.57
52.390,55.16
52.406,49.76
52.421,39.63
52.437,25.76
52.453,9.73
52.468,-6.48
52.484,-20.92
52.500,-31.83
52.515,-38.1
52.531,-39.46
52.546,-36.41
52.562,-30.21
52.578,-22.28
52.593,-14.04
52.609,-6.52
52.625,-0.25
52.640,4.59
52.656,8.15
52.671,10.61
52.687,12.19
52.703,12.95
52.718,12.87
52.734,11.91
52.750,9.92
52.765,6.81
52.781,2.51
52.796,-2.92
52.812,-9.28
52.828,-16.07
52.843,-22.86
52.859,-29.1
52.875,-34.17
52.890,-37.5
52.906,-38.42
52.921,-36.28
52.937,-30.49
52.953,-20.86
52.968,-7.62
52.984,8.16
53.000,24.9
53.015,40.75
53.031,53.88
53.046,62.89
53.062,66.85
53.078,65.48
53.093,58.9
53.109,47.76
53.125,33.14
53.140,16.59
53.156,0.21
53.171,-13.84
53.187,-23.6
53.203,-27.96
53.218,-26.86
53.234,-21.42
53.250,-13.45
53.265,-4.84
53.281,2.96
53.296,9.3
53.312,14.19
53.328,18.05
53.343,21.2
53.359,23.69
53.375,25.14
53.390,24.99
53.406,22.83
53.421,18.52
53.437,12.33
53.453,4.84
53.468,-3.29
53.484,-11.59
53.500,-19.85
53.515,-28.03
53.531,-36.0
53.546,-43.17
53.562,-48.71
53.578,-51.68
53.593,-51.46
53.609,-48.01
53.625,-41.88
53.640,-33.96
53.656,-25.04
53.671,-15.46
53.687,-5.3
53.703,5.32
53.718,15.9
53.734,25.51
53.750,32.93
53.765,37.27
53.781,38.22
53.796,36.16
53.812,31.91
53.828,26.51
53.843,20.66
53.859,14.91
53.875,9.66
53.890,5.31
53.906,2.38
53.921,1.29
53.937,2.17
53.953,4.75
53.968,8.4
53.984,12.22
54.000,15.55
54.015,18.07
54.031,19.89
54.046,21.44
54.062,23.01
54.078,24.54
54.093,25.42
54.109,24.81
54.125,21.95
54.140,16.71
54.156,9.71
54.171,2.03
54.187,-5.01
54.203,-10.45
54.218,-13.98
54.234,-15.83
54.250,-16.54
54.265,-16.59
54.281,-16.15
54.296,-15.21
54.312,-13.77
54.328,-12.0
54.343,-10.27
54.359,-9.06
54.375,-8.74
54.390,-9.35
54.406,-10.62
54.421,-12.1
54.437,-13.47
54.453,-14.73
54.468,-16.06
54.484,-17.63
54.500,-19.31
54.515,-20.61
54.531,-20.87
54.546,-19.43
54.562,-16.18
54.578,-11.44
54.593,-5.95
54.609,-0.58
54.625,4.01
54.640,7.53
54.656,10.04
54.671,11.78
54.687,13.0
54.703,13.87
54.718,14.37
54.734,14.51
54.750,14.27
54.765,13.77
54.781,13.21
54.796,12.85
54.812,12.88
54.828,13.25
54.843,13.71
54.859,13.88
54.875,13.44
54.890,12.37
54.906,10.88
54.921,9.43
54.937,8.42
54.953,8.06
54.968,8.13
54.984,8.11
55.000,7.53
55.015,6.16
55.031,4.14
55.046,1.97
55.062,0.13
55.078,-1.09
55.093,-1.69
55.109,-1.95
55.125,-2.24
55.140,-2.73
55.156,-3.42
55.171,-4.11
55.187,-4.56
55.203,-4.67
55.218,-4.6
55.234,-4.55
55.250,-4.79
55.265,-5.42
55.281,-6.36
55.296,-7.46
55.312,-8.64
55.328,-9.83
55.343,-11.04
55.359,-12.23
55.375,-13.13
55.390,-13.4
55.406,-12.6
55.421,-10.51
55.437,-7.26
55.453,-3.39
55.468,0.3
55.484,3.07
55.500,4.49
55.515,4.61
55.531,3.86
55.546,2.84
55.562,2.07
55.578,1.79
55.593,2.04
55.609,2.69
55.625,3.62
55.640,4.78
55.656,6.18
55.671,7.78
55.687,9.42
55.703,10.81
55.718,11.62
55.734,11.64
55.750,10.85
55.765,9.47
55.781,7.89
55.796,6.54
55.812,5.63
55.828,5.17
55.843,4.88
55.859,4.4
55.875,3.52
55.890,2.31
55.906,1.09
55.921,0.22
55.937,-0.05
55.953,0.25
55.968,0.82
55.984,1.24
56.000,1.28
56.015,0.92
56.031,0.53
56.046,0.48
56.062,1.12
56.078,2.42
56.093,4.07
56.109,5.54
56.125,6.29
56.140,6.02
56.156,4.55
56.171,1.9
56.187,-1.83
56.203,-6.37
56.218,-11.41
56.234,-16.54
56.250,-21.22
56.265,-24.92
56.281,-27.19
56.296,-27.88
56.312,-27.06
56.328,-25.03
56.343,-22.22
56.359,-19.07
56.375,-16.07
56.390,-13.52
56.406,-11.62
56.421,-10.37
56.437,-9.59
56.453,-9.08
56.468,-8.58
56.484,-7.97
56.500,-7.14
56.515,-6.07
56.531,-4.7
56.546,-3.02
56.562,-1.09
56.578,0.92
56.593,2.7
56.609,4.05
56.625,4.72
56.640,4.79
56.656,4.43
56.671,4.02
56.687,3.79
56.703,3.78
56.718,3.95
56.734,4.02
56.750,3.9
56.765,3.45
56.781,2.72
56.796,1.77
56.812,0.67
56.828,-0.62
56.843,-2.19
56.859,-3.97
56.875,-5.9
56.890,-7.68
56.906,-9.07
56.921,-9.94
56.937,-10.31
56.953,-10.5
56.968,-10.83
56.984,-11.56
57.000,-12.64
57.015,-13.77
57.031,-14.39
57.046,-13.98
57.062,-12.22
57.078,-9.11
57.093,-5.14
57.109,-0.83
57.125,3.27
57.140,6.9
57.156,9.99
57.171,12.67
57.187,15.04
57.203,17.09
57.218,18.69
57.234,19.57
57.250,19.62
57.265,18.94
57.281,17.84
57.296,16.66
57.312,15.75
57.328,15.14
57.343,14.73
57.359,14.32
57.375,13.68
57.390,12.81
57.406,11.88
57.421,11.15
57.437,10.79
57.453,10.78
57.468,10.88
57.484,10.75
57.500,10.24
57.515,9.33
57.531,8.2
57.546,7.12
57.562,6.16
57.578,5.24
57.593,4.15
57.609,2.68
57.625,0.76
57.640,-1.44
57.656,-3.66
57.671,-5.65
57.687,-7.34
57.703,-8.86
57.718,-10.39
57.734,-12.08
57.750,-13.93
57.765,-15.81
57.781,-17.48
57.796,-18.75
57.812,-19.63
57.828,-20.34
57.843,-21.04
57.859,-21.76
57.875,-22.17
57.890,-21.7
57.906,-19.84
57.921,-16.3
57.937,-11.27
57.953,-5.43
57.968,0.38
57.984,5.49
58.000,9.54
58.015,12.6
58.031,14.89
58.046,16.67
58.062,18.01
58.078,18.86
58.093,19.14
58.109,18.89
58.125,18.32
58.140,17.69
58.156,17.26
58.171,17.12
58.187,17.19
58.203,17.38
58.218,17.56
58.234,17.85
58.250,18.47
58.265,19.68
58.281,21.62
58.296,24.18
58.312,26.97
58.328,29.42
58.343,31.14
58.359,31.95
58.375,32.04
58.390,31.98
58.406,32.32
58.421,33.36
58.437,35.16
58.453,37.34
58.468,39.44
58.484,41.25
58.500,42.89
58.515,44.83
58.531,47.77
58.546,52.16
58.562,57.99
58.578,64.85
58.593,72.04
58.609,78.91
58.625,85.37
58.640,91.72
58.656,98.67
58.671,106.89
58.687,116.66
58.703,127.65
58.718,139.18
58.734,150.49
58.750,161.14
58.765,171.14
58.781,180.81
58.796,190.51
58.812,200.35
58.828,209.98
58.843,218.59
58.859,224.98
58.875,227.56
58.890,224.3
58.906,212.96
58.921,191.51
58.937,159.26
58.953,117.68
58.968,70.59
58.984,23.66
59.000,-16.96
59.015,-46.21
59.031,-61.35
59.046,-62.04
59.062,-49.97
59.078,-27.97
59.093,0.72
59.109,32.44
59.125,63.27
59.140,89.0
59.156,105.66
59.171,110.09
59.187,100.75
59.203,77.73
59.218,42.81
59.234,-1.06
59.250,-50.17
59.265,-100.48
59.281,-148.26
59.296,-190.66
59.312,-226.31
59.328,-255.35
59.343,-279.03
59.359,-298.59
59.375,-314.2
59.390,-324.48
59.406,-327.06
59.421,-319.55
59.437,-300.94
59.453,-272.2
59.468,-236.04
59.484,-195.98
59.500,-155.1
59.515,-115.31
59.531,-77.39
59.546,-41.52
59.562,-7.93
59.578,22.65
59.593,48.82
59.609,69.01
59.625,82.04
59.640,87.54
59.656,86.01
59.671,78.49
59.687,66.17
59.703,49.9
59.718,30.28
59.734,7.93
59.750,-16.15
59.765,-40.38
59.781,-62.7
59.796,-81.31
59.812,-95.5
59.828,-106.08
59.843,-115.36
59.859,-126.11
59.875,-140.31
59.890,-157.95
59.906,-177.11
59.921,-194.43
59.937,-206.53
59.953,-211.04
59.968,-207.23
59.984,-195.97
