timestamp,value
00.000,2.71
00.015,1.29
00.031,-0.31
00.046,-1.92
00.062,-3.56
00.078,-5.36
00.093,-7.3
00.109,-9.19
00.125,-10.72
00.140,-11.59
00.156,-11.66
00.171,-11.04
00.187,-9.91
00.203,-8.5
00.218,-6.97
00.234,-5.41
00.250,-3.82
00.265,-2.26
00.281,-0.85
00.296,0.36
00.312,1.26
00.328,1.93
00.343,2.46
00.359,3.02
00.375,3.7
00.390,4.54
00.406,5.4
00.421,6.08
00.437,6.45
00.453,6.44
00.468,6.18
00.484,5.82
00.500,5.56
00.515,5.48
00.531,5.54
00.546,5.57
00.562,5.41
00.578,4.95
00.593,4.15
00.609,3.06
00.625,1.69
00.640,0.09
00.656,-1.68
00.671,-3.58
00.687,-5.49
00.703,-7.24
00.718,-8.65
00.734,-9.59
00.750,-9.96
00.765,-9.78
00.781,-9.22
00.796,-8.52
00.812,-8.06
00.828,-8.09
00.843,-8.72
00.859,-9.78
00.875,-10.99
00.890,-11.92
00.906,-12.28
00.921,-11.97
00.937,-11.12
00.953,-9.97
00.968,-8.68
00.984,-7.32
01.000,-5.72
01.015,-3.68
01.031,-1.09
01.046,1.94
01.062,5.09
01.078,7.92
01.093,10.08
01.109,11.45
01.125,12.17
01.140,12.52
01.156,12.86
01.171,13.38
01.187,14.11
01.203,14.96
01.218,15.81
01.234,16.49
01.250,16.91
01.265,17.0
01.281,16.69
01.296,16.02
01.312,15.1
01.328,14.14
01.343,13.34
01.359,12.79
01.375,12.47
01.390,12.25
01.406,12.02
01.421,11.72
01.437,11.44
01.453,11.3
01.468,11.39
01.484,11.62
01.500,11.81
01.515,11.71
01.531,11.18
01.546,10.18
01.562,8.78
01.578,7.14
01.593,5.38
01.609,3.53
01.625,1.6
01.640,-0.38
01.656,-2.27
01.671,-3.88
01.687,-4.99
01.703,-5.5
01.718,-5.37
01.734,-4.64
01.750,-3.4
01.765,-1.56
01.781,0.9
01.796,3.92
01.812,7.24
01.828,10.46
01.843,13.18
01.859,15.41
01.875,17.58
01.890,20.45
01.906,24.76
01.921,30.8
01.937,38.25
01.953,46.17
01.968,53.37
01.984,58.93
02.000,62.6
02.015,64.96
02.031,67.12
02.046,70.26
02.062,75.08
02.078,81.55
02.093,88.8
02.109,95.39
02.125,99.96
02.140,101.91
02.156,101.74
02.171,100.79
02.187,100.84
02.203,103.17
02.218,108.31
02.234,115.56
02.250,123.37
02.265,129.91
02.281,133.89
02.296,134.92
02.312,133.3
02.328,129.62
02.343,124.23
02.359,117.2
02.375,107.9
02.390,94.9
02.406,75.87
02.421,47.93
02.437,8.32
02.453,-44.61
02.468,-110.37
02.484,-185.76
02.500,-262.19
02.515,-327.55
02.531,-370.22
02.546,-383.82
02.562,-369.51
02.578,-334.43
02.593,-287.72
02.609,-237.13
02.625,-187.66
02.640,-141.95
02.656,-101.75
02.671,-68.75
02.687,-44.24
02.703,-28.44
02.718,-20.04
02.734,-16.53
02.750,-14.91
02.765,-12.78
02.781,-8.76
02.796,-2.98
02.812,3.18
02.828,8.05
02.843,10.49
02.859,10.39
02.875,8.71
02.890,6.83
02.906,5.99
02.921,6.82
02.937,9.06
02.953,11.8
02.968,13.94
02.984,14.7
03.000,13.95
03.015,12.21
03.031,10.28
03.046,8.89
03.062,8.45
03.078,8.83
03.093,9.61
03.109,10.27
03.125,10.38
03.140,9.86
03.156,8.9
03.171,7.86
03.187,7.07
03.203,6.71
03.218,6.71
03.234,6.86
03.250,7.01
03.265,7.01
03.281,6.88
03.296,6.71
03.312,6.79
03.328,7.48
03.343,9.16
03.359,12.14
03.375,16.65
03.390,22.8
03.406,30.5
03.421,39.42
03.437,48.86
03.453,58.0
03.468,65.86
03.484,71.76
03.500,74.72
03.515,74.2
03.531,69.98
03.546,62.24
03.562,51.55
03.578,38.69
03.593,24.64
03.609,10.47
03.625,-2.77
03.640,-14.32
03.656,-23.6
03.671,-30.31
03.687,-34.54
03.703,-36.58
03.718,-36.91
03.734,-36.17
03.750,-34.91
03.765,-33.49
03.781,-32.08
03.796,-30.73
03.812,-29.27
03.828,-27.64
03.843,-25.83
03.859,-23.87
03.875,-21.89
03.890,-20.04
03.906,-18.37
03.921,-16.76
03.937,-15.07
03.953,-13.21
03.968,-11.06
03.984,-8.72
04.000,-6.39
04.015,-4.22
04.031,-2.35
04.046,-0.85
04.062,0.24
04.078,0.87
04.093,1.12
04.109,1.37
04.125,2.37
04.140,4.88
04.156,9.5
04.171,16.24
04.187,24.46
04.203,33.06
04.218,40.75
04.234,46.75
04.250,50.91
04.265,53.6
04.281,55.23
04.296,56.11
04.312,56.54
04.328,56.98
04.343,58.18
04.359,60.98
04.375,66.17
04.390,74.08
04.406,84.13
04.421,94.84
04.437,104.44
04.453,111.34
04.468,114.54
04.484,115.76
04.500,116.1
04.515,116.42
04.531,117.02
04.546,117.38
04.562,116.37
04.578,112.86
04.593,106.31
04.609,97.07
04.625,86.27
04.640,75.13
04.656,64.46
04.671,54.61
04.687,45.23
04.703,35.58
04.718,25.14
04.734,13.69
04.750,1.26
04.765,-11.99
04.781,-25.93
04.796,-39.6
04.812,-50.91
04.828,-56.94
04.843,-55.2
04.859,-45.03
04.875,-28.67
04.890,-10.81
04.906,3.27
04.921,9.62
04.937,7.39
04.953,-1.45
04.968,-13.63
04.984,-26.41
05.000,-38.6
05.015,-50.3
05.031,-61.74
05.046,-72.13
05.062,-79.67
05.078,-82.23
05.093,-78.51
05.109,-68.81
05.125,-54.94
05.140,-39.41
05.156,-24.74
05.171,-12.48
05.187,-3.01
05.203,4.0
05.218,9.2
05.234,12.93
05.250,15.02
05.265,14.78
05.281,11.46
05.296,4.52
05.312,-5.93
05.328,-19.13
05.343,-33.98
05.359,-49.46
05.375,-64.78
05.390,-79.7
05.406,-94.23
05.421,-108.54
05.437,-122.72
05.453,-136.76
05.468,-150.56
05.484,-164.08
05.500,-177.18
05.515,-189.51
05.531,-200.31
05.546,-208.38
05.562,-212.36
05.578,-211.35
05.593,-205.32
05.609,-195.21
05.625,-182.76
05.640,-169.78
05.656,-157.73
05.671,-147.52
05.687,-139.39
05.703,-133.18
05.718,-128.36
05.734,-124.06
05.750,-118.97
05.765,-111.51
05.781,-100.31
05.796,-84.52
05.812,-64.36
05.828,-41.04
05.843,-16.45
05.859,7.38
05.875,28.82
05.890,46.97
05.906,61.54
05.921,72.7
05.937,80.83
05.953,86.31
05.968,89.42
05.984,90.35
06.000,89.29
06.015,86.45
06.031,82.15
06.046,76.64
06.062,70.23
06.078,63.18
06.093,55.72
06.109,48.17
06.125,40.87
06.140,34.18
06.156,28.42
06.171,23.7
06.187,19.88
06.203,16.57
06.218,13.24
06.234,9.41
06.250,4.8
06.265,-0.58
06.281,-6.51
06.296,-12.62
06.312,-18.62
06.328,-24.37
06.343,-29.93
06.359,-35.47
06.375,-41.18
06.390,-47.13
06.406,-53.28
06.421,-59.26
06.437,-64.4
06.453,-67.64
06.468,-67.71
06.484,-63.41
06.500,-54.07
06.515,-39.86
06.531,-21.82
06.546,-1.67
06.562,18.68
06.578,37.6
06.593,53.99
06.609,67.34
06.625,77.56
06.640,84.75
06.656,89.1
06.671,90.87
06.687,90.37
06.703,88.04
06.718,84.27
06.734,79.42
06.750,73.77
06.765,67.39
06.781,60.31
06.796,52.55
06.812,44.32
06.828,35.95
06.843,27.95
06.859,20.81
06.875,14.77
06.890,9.94
06.906,5.93
06.921,2.22
06.937,-1.76
06.953,-6.31
06.968,-11.47
06.984,-17.0
07.000,-22.51
07.015,-27.68
07.031,-32.38
07.046,-36.73
07.062,-41.03
07.078,-45.62
07.093,-50.74
07.109,-56.46
07.125,-62.58
07.140,-68.5
07.156,-73.18
07.171,-75.28
07.187,-73.4
07.203,-66.57
07.218,-54.57
07.234,-38.09
07.250,-18.54
07.265,2.2
07.281,22.28
07.296,40.27
07.312,55.25
07.328,66.85
07.343,75.03
07.359,79.99
07.375,82.04
07.390,81.68
07.406,79.42
07.421,75.8
07.437,71.22
07.453,65.99
07.468,60.27
07.484,54.14
07.500,47.74
07.515,41.24
07.531,34.95
07.546,29.21
07.562,24.28
07.578,20.22
07.593,16.82
07.609,13.71
07.625,10.34
07.640,6.24
07.656,1.05
07.671,-5.25
07.687,-12.41
07.703,-19.92
07.718,-27.19
07.734,-33.77
07.750,-39.48
07.765,-44.53
07.781,-49.35
07.796,-54.48
07.812,-60.27
07.828,-66.51
07.843,-72.32
07.859,-76.27
07.875,-76.77
07.890,-72.51
07.906,-62.96
07.921,-48.54
07.937,-30.52
07.953,-10.62
07.968,9.35
07.984,27.93
08.000,44.14
08.015,57.44
08.031,67.62
08.046,74.71
08.062,78.81
08.078,80.2
08.093,79.31
08.109,76.65
08.125,72.72
08.140,67.93
08.156,62.48
08.171,56.44
08.187,49.87
08.203,42.88
08.218,35.74
08.234,28.8
08.250,22.42
08.265,16.85
08.281,12.1
08.296,8.05
08.312,4.36
08.328,0.72
08.343,-3.26
08.359,-7.79
08.375,-12.94
08.390,-18.59
08.406,-24.49
08.421,-30.29
08.437,-35.74
08.453,-40.78
08.468,-45.54
08.484,-50.49
08.500,-56.01
08.515,-62.34
08.531,-69.37
08.546,-76.42
08.562,-82.34
08.578,-85.68
08.593,-84.94
08.609,-79.1
08.625,-68.0
08.640,-52.24
08.656,-33.2
08.671,-12.65
08.687,7.68
08.703,26.36
08.718,42.42
08.734,55.43
08.750,65.24
08.765,71.96
08.781,75.94
08.796,77.61
08.812,77.48
08.828,75.99
08.843,73.47
08.859,70.05
08.875,65.88
08.890,61.0
08.906,55.48
08.921,49.41
08.937,42.94
08.953,36.29
08.968,29.9
08.984,24.16
09.000,19.43
09.015,15.86
09.031,13.29
09.046,11.2
09.062,8.85
09.078,5.53
09.093,0.79
09.109,-5.4
09.125,-12.68
09.140,-20.56
09.156,-28.49
09.171,-36.09
09.187,-43.19
09.203,-49.78
09.218,-56.09
09.234,-62.4
09.250,-69.0
09.265,-75.88
09.281,-82.62
09.296,-88.12
09.312,-90.88
09.328,-89.33
09.343,-82.31
09.359,-69.67
09.375,-52.28
09.390,-31.87
09.406,-10.37
09.421,10.45
09.437,29.31
09.453,45.48
09.468,58.6
09.484,68.63
09.500,75.64
09.515,79.92
09.531,81.84
09.546,81.93
09.562,80.58
09.578,78.08
09.593,74.56
09.609,69.99
09.625,64.52
09.640,58.25
09.656,51.52
09.671,44.65
09.687,38.0
09.703,31.79
09.718,26.14
09.734,21.09
09.750,16.51
09.765,12.28
09.781,8.11
09.796,3.78
09.812,-1.0
09.828,-6.38
09.843,-12.33
09.859,-18.67
09.875,-24.99
09.890,-30.94
09.906,-36.21
09.921,-40.79
09.937,-44.88
09.953,-48.93
09.968,-53.4
09.984,-58.6
10.000,-64.55
10.015,-70.93
10.031,-77.02
10.046,-81.71
10.062,-83.7
10.078,-81.7
10.093,-74.87
10.109,-63.11
10.125,-46.99
10.140,-27.91
10.156,-7.59
10.171,12.21
10.187,30.05
10.203,45.12
10.218,57.08
10.234,66.09
10.250,72.36
10.265,76.3
10.281,78.18
10.296,78.28
10.312,76.83
10.328,74.04
10.343,70.21
10.359,65.62
10.375,60.57
10.390,55.29
10.406,50.0
10.421,44.83
10.437,39.86
10.453,35.19
10.468,30.84
10.484,26.8
10.500,23.04
10.515,19.42
10.531,15.72
10.546,11.68
10.562,7.07
10.578,1.8
10.593,-4.02
10.609,-10.23
10.625,-16.54
10.640,-22.74
10.656,-28.66
10.671,-34.25
10.687,-39.52
10.703,-44.53
10.718,-49.37
10.734,-54.16
10.750,-59.23
10.765,-64.77
10.781,-70.92
10.796,-77.38
10.812,-83.4
10.828,-87.66
10.843,-88.63
10.859,-85.0
10.875,-76.1
10.890,-62.27
10.906,-44.67
10.921,-25.09
10.937,-5.37
10.953,12.97
10.968,28.95
10.984,42.2
11.000,52.69
11.015,60.64
11.031,66.35
11.046,70.12
11.062,72.21
11.078,72.89
11.093,72.4
11.109,70.84
11.125,68.33
11.140,64.88
11.156,60.59
11.171,55.65
11.187,50.32
11.203,44.9
11.218,39.68
11.234,34.84
11.250,30.3
11.265,25.93
11.281,21.48
11.296,16.78
11.312,11.81
11.328,6.7
11.343,1.66
11.359,-3.1
11.375,-7.44
11.390,-11.46
11.406,-15.31
11.421,-19.21
11.437,-23.32
11.453,-27.63
11.468,-32.06
11.484,-36.48
11.500,-40.85
11.515,-45.22
11.531,-49.84
11.546,-54.98
11.562,-60.92
11.578,-67.66
11.593,-74.83
11.609,-81.49
11.625,-86.27
11.640,-87.6
11.656,-84.19
11.671,-75.43
11.687,-61.59
11.703,-43.82
11.718,-23.8
11.734,-3.44
11.750,15.62
11.765,32.21
11.781,45.66
11.796,55.82
11.812,62.85
11.828,67.19
11.843,69.41
11.859,70.06
11.875,69.57
11.890,68.19
11.906,65.93
11.921,62.77
11.937,58.69
11.953,53.8
11.968,48.34
11.984,42.72
12.000,37.33
12.015,32.47
12.031,28.34
12.046,24.81
12.062,21.58
12.078,18.36
12.093,14.83
12.109,10.88
12.125,6.52
12.140,1.94
12.156,-2.64
12.171,-7.03
12.187,-11.22
12.203,-15.27
12.218,-19.34
12.234,-23.51
12.250,-27.88
12.265,-32.43
12.281,-37.1
12.296,-41.82
12.312,-46.57
12.328,-51.44
12.343,-56.61
12.359,-62.22
12.375,-68.36
12.390,-74.83
12.406,-81.05
12.421,-85.98
12.437,-88.32
12.453,-86.72
12.468,-80.31
12.484,-68.91
12.500,-53.18
12.515,-34.52
12.531,-14.72
12.546,4.51
12.562,21.81
12.578,36.32
12.593,47.82
12.609,56.49
12.625,62.69
12.640,66.81
12.656,69.14
12.671,69.87
12.687,69.23
12.703,67.41
12.718,64.61
12.734,61.05
12.750,56.91
12.765,52.47
12.781,47.96
12.796,43.72
12.812,40.02
12.828,37.11
12.843,34.9
12.859,33.17
12.875,31.55
12.890,29.64
12.906,27.21
12.921,24.08
12.937,20.27
12.953,15.87
12.968,11.01
12.984,5.8
13.000,0.37
13.015,-5.24
13.031,-11.09
13.046,-17.31
13.062,-23.96
13.078,-31.0
13.093,-38.21
13.109,-45.24
13.125,-51.86
13.140,-58.01
13.156,-63.85
13.171,-69.8
13.187,-76.07
13.203,-82.65
13.218,-88.99
13.234,-94.05
13.250,-96.51
13.265,-94.98
13.281,-88.47
13.296,-76.75
13.312,-60.51
13.328,-41.08
13.343,-20.31
13.359,-0.03
13.375,18.38
13.390,34.05
13.406,46.76
13.421,56.69
13.437,64.15
13.453,69.54
13.468,73.31
13.484,75.72
13.500,76.98
13.515,77.1
13.531,76.05
13.546,73.75
13.562,70.22
13.578,65.5
13.593,59.86
13.609,53.73
13.625,47.61
13.640,42.06
13.656,37.51
13.671,34.11
13.687,31.75
13.703,30.06
13.718,28.56
13.734,26.87
13.750,24.78
13.765,22.24
13.781,19.31
13.796,16.03
13.812,12.21
13.828,7.65
13.843,2.12
13.859,-4.5
13.875,-12.04
13.890,-20.21
13.906,-28.58
13.921,-36.66
13.937,-44.1
13.953,-50.68
13.968,-56.36
13.984,-61.24
14.000,-65.66
14.015,-70.02
14.031,-74.7
14.046,-79.87
14.062,-85.12
14.078,-89.55
14.093,-91.83
14.109,-90.59
14.125,-84.81
14.140,-74.27
14.156,-59.58
14.171,-42.04
14.187,-23.26
14.203,-4.81
14.218,12.2
14.234,27.12
14.250,39.7
14.265,49.94
14.281,57.95
14.296,63.88
14.312,67.92
14.328,70.33
14.343,71.37
14.359,71.26
14.375,70.18
14.390,68.13
14.406,65.19
14.421,61.4
14.437,56.94
14.453,52.19
14.468,47.62
14.484,43.59
14.500,40.32
14.515,37.73
14.531,35.48
14.546,33.13
14.562,30.27
14.578,26.64
14.593,22.22
14.609,17.22
14.625,11.94
14.640,6.74
14.656,1.87
14.671,-2.63
14.687,-6.87
14.703,-11.15
14.718,-15.78
14.734,-20.98
14.750,-26.79
14.765,-33.05
14.781,-39.49
14.796,-45.82
14.812,-51.91
14.828,-57.67
14.843,-63.18
14.859,-68.74
14.875,-74.59
14.890,-80.89
14.906,-87.43
14.921,-93.46
14.937,-97.68
14.953,-98.57
14.968,-94.64
14.984,-85.1
15.000,-70.17
15.015,-51.03
15.031,-29.62
15.046,-8.06
15.062,11.92
15.078,29.16
15.093,43.09
15.109,53.74
15.125,61.42
15.140,66.54
15.156,69.55
15.171,70.82
15.187,70.66
15.203,69.34
15.218,66.98
15.234,63.61
15.250,59.28
15.265,54.12
15.281,48.32
15.296,42.31
15.312,36.55
15.328,31.45
15.343,27.38
15.359,24.37
15.375,22.18
15.390,20.38
15.406,18.48
15.421,16.05
15.437,13.02
15.453,9.56
15.468,5.97
15.484,2.62
15.500,-0.31
15.515,-2.99
15.531,-5.75
15.546,-9.04
15.562,-13.21
15.578,-18.24
15.593,-23.95
15.609,-30.1
15.625,-36.41
15.640,-42.75
15.656,-49.23
15.671,-55.94
15.687,-63.1
15.703,-70.71
15.718,-78.52
15.734,-85.85
15.750,-91.61
15.765,-94.32
15.781,-92.56
15.796,-85.41
15.812,-72.75
15.828,-55.51
15.843,-35.38
15.859,-14.45
15.875,5.37
15.890,22.69
15.906,36.82
15.921,47.59
15.937,55.25
15.953,60.25
15.968,63.15
15.984,64.46
16.000,64.74
16.015,64.33
16.031,63.45
16.046,62.18
16.062,60.4
16.078,58.05
16.093,55.16
16.109,51.84
16.125,48.28
16.140,44.85
16.156,41.82
16.171,39.4
16.187,37.62
16.203,36.25
16.218,34.96
16.234,33.38
16.250,31.16
16.265,28.09
16.281,24.2
16.296,19.49
16.312,13.98
16.328,7.58
16.343,0.17
16.359,-8.15
16.375,-17.23
16.390,-26.71
16.406,-36.17
16.421,-45.15
16.437,-53.36
16.453,-60.69
16.468,-67.35
16.484,-73.74
16.500,-80.25
16.515,-87.25
16.531,-94.67
16.546,-101.87
16.562,-107.65
16.578,-110.4
16.593,-108.53
16.609,-101.06
16.625,-87.91
16.640,-69.98
16.656,-48.97
16.671,-26.73
16.687,-5.04
16.703,14.77
16.718,31.92
16.734,46.06
16.750,57.1
16.765,65.16
16.781,70.53
16.796,73.54
16.812,74.72
16.828,74.5
16.843,73.12
16.859,70.73
16.875,67.43
16.890,63.38
16.906,58.85
16.921,54.28
16.937,50.02
16.953,46.47
16.968,43.71
16.984,41.59
17.000,39.83
17.015,38.01
17.031,35.7
17.046,32.63
17.062,28.64
17.078,23.72
17.093,18.08
17.109,11.88
17.125,5.33
17.140,-1.49
17.156,-8.64
17.171,-16.12
17.187,-23.84
17.203,-31.51
17.218,-38.7
17.234,-45.04
17.250,-50.46
17.265,-55.25
17.281,-59.91
17.296,-65.14
17.312,-71.45
17.328,-78.86
17.343,-86.9
17.359,-94.58
17.375,-100.44
17.390,-102.96
17.406,-100.83
17.421,-93.19
17.437,-80.05
17.453,-62.26
17.468,-41.35
17.484,-19.18
17.500,2.42
17.515,22.02
17.531,38.75
17.546,52.2
17.562,62.46
17.578,69.81
17.593,74.7
17.609,77.56
17.625,78.83
17.640,78.82
17.656,77.76
17.671,75.73
17.687,72.77
17.703,68.94
17.718,64.4
17.734,59.41
17.750,54.4
17.765,49.8
17.781,45.95
17.796,43.04
17.812,40.95
17.828,39.26
17.843,37.54
17.859,35.31
17.875,32.28
17.890,28.35
17.906,23.55
17.921,18.03
17.937,11.92
17.953,5.28
17.968,-1.91
17.984,-9.62
18.000,-17.8
18.015,-26.28
18.031,-34.82
18.046,-43.14
18.062,-51.01
18.078,-58.23
18.093,-64.75
18.109,-70.74
18.125,-76.5
18.140,-82.42
18.156,-88.62
18.171,-94.7
18.187,-99.67
18.203,-101.99
18.218,-99.99
18.234,-92.49
18.250,-79.26
18.265,-61.14
18.281,-39.92
18.296,-17.64
18.312,3.85
18.328,23.28
18.343,39.95
18.359,53.61
18.375,64.19
18.390,71.72
18.406,76.25
18.421,77.98
18.437,77.32
18.453,74.76
18.468,70.82
18.484,66.0
18.500,60.6
18.515,54.86
18.531,49.03
18.546,43.48
18.562,38.56
18.578,34.61
18.593,31.78
18.609,30.0
18.625,28.93
18.640,28.05
18.656,26.84
18.671,24.93
18.687,22.15
18.703,18.54
18.718,14.25
18.734,9.39
18.750,4.12
18.765,-1.59
18.781,-7.81
18.796,-14.64
18.812,-22.1
18.828,-30.17
18.843,-38.65
18.859,-47.29
18.875,-55.85
18.890,-64.13
18.906,-72.14
18.921,-80.08
18.937,-88.04
18.953,-95.93
18.968,-103.16
18.984,-108.61
19.000,-110.82
19.015,-108.43
19.031,-100.56
19.046,-87.17
19.062,-69.15
19.078,-48.02
19.093,-25.69
19.109,-4.01
19.125,15.56
19.140,32.08
19.156,45.17
19.171,54.93
19.187,61.79
19.203,66.35
19.218,69.21
19.234,70.79
19.250,71.3
19.265,70.75
19.281,69.1
19.296,66.33
19.312,62.65
19.328,58.4
19.343,54.04
19.359,50.1
19.375,46.94
19.390,44.76
19.406,43.42
19.421,42.54
19.437,41.68
19.453,40.36
19.468,38.27
19.484,35.25
19.500,31.28
19.515,26.44
19.531,20.78
19.546,14.39
19.562,7.3
19.578,-0.35
19.593,-8.43
19.609,-16.78
19.625,-25.3
19.640,-33.9
19.656,-42.48
19.671,-50.93
19.687,-59.17
19.703,-67.19
19.718,-75.1
19.734,-83.05
19.750,-91.0
19.765,-98.65
19.781,-105.2
19.796,-109.38
19.812,-109.73
19.828,-105.03
19.843,-94.64
19.859,-78.87
19.875,-58.84
19.890,-36.28
19.906,-13.1
19.921,8.98
19.937,28.66
19.953,45.17
19.968,58.31
19.984,68.25
20.000,75.34
20.015,80.09
20.031,82.94
20.046,84.29
20.062,84.47
20.078,83.62
20.093,81.75
20.109,78.84
20.125,74.93
20.140,70.01
20.156,64.43
20.171,58.56
20.187,52.94
20.203,48.12
20.218,44.34
20.234,41.53
20.250,39.23
20.265,36.89
20.281,33.9
20.296,29.96
20.312,25.08
20.328,19.44
20.343,13.42
20.359,7.15
20.375,0.6
20.390,-6.43
20.406,-14.19
20.421,-22.71
20.437,-31.77
20.453,-40.96
20.468,-49.87
20.484,-58.09
20.500,-65.57
20.515,-72.46
20.531,-79.0
20.546,-85.54
20.562,-92.27
20.578,-99.07
20.593,-105.55
20.609,-110.83
20.625,-113.42
20.640,-111.83
20.656,-104.72
20.671,-91.54
20.687,-72.77
20.703,-49.89
20.718,-24.98
20.734,-0.27
20.750,22.4
20.765,41.93
20.781,57.77
20.796,69.98
20.812,78.81
20.828,84.67
20.843,88.09
20.859,89.58
20.875,89.61
20.890,88.61
20.906,86.89
20.921,84.51
20.937,81.4
20.953,77.42
20.968,72.4
20.984,66.48
21.000,60.02
21.015,53.5
21.031,47.44
21.046,42.12
21.062,37.49
21.078,33.2
21.093,28.8
21.109,23.85
21.125,18.35
21.140,12.51
21.156,6.76
21.171,1.39
21.187,-3.54
21.203,-8.21
21.218,-13.02
21.234,-18.33
21.250,-24.35
21.265,-30.93
21.281,-37.8
21.296,-44.53
21.312,-50.81
21.328,-56.56
21.343,-61.9
21.359,-67.04
21.375,-72.36
21.390,-78.03
21.406,-84.13
21.421,-90.35
21.437,-95.89
21.453,-99.48
21.468,-99.58
21.484,-94.81
21.500,-84.37
21.515,-68.56
21.531,-48.66
21.546,-26.63
21.562,-4.53
21.578,15.99
21.593,33.97
21.609,48.92
21.625,60.72
21.640,69.48
21.656,75.35
21.671,78.64
21.687,79.75
21.703,79.19
21.718,77.43
21.734,74.74
21.750,71.18
21.765,66.72
21.781,61.41
21.796,55.49
21.812,49.35
21.828,43.44
21.843,38.18
21.859,33.85
21.875,30.38
21.890,27.51
21.906,24.78
21.921,21.78
21.937,18.29
21.953,14.31
21.968,10.07
21.984,5.83
22.000,1.76
22.015,-2.22
22.031,-6.28
22.046,-10.67
22.062,-15.57
22.078,-20.99
22.093,-26.88
22.109,-33.16
22.125,-39.73
22.140,-46.5
22.156,-53.41
22.171,-60.39
22.187,-67.49
22.203,-74.81
22.218,-82.4
22.234,-90.05
22.250,-97.02
22.265,-102.0
22.281,-103.43
22.296,-99.88
22.312,-90.57
22.328,-75.72
22.343,-56.5
22.359,-34.82
22.375,-12.74
22.390,7.91
22.406,25.92
22.421,40.67
22.437,52.06
22.453,60.35
22.468,65.94
22.484,69.37
22.500,71.1
22.515,71.51
22.531,70.84
22.546,69.21
22.562,66.59
22.578,62.97
22.593,58.48
22.609,53.41
22.625,48.24
22.640,43.62
22.656,40.06
22.671,37.81
22.687,36.73
22.703,36.25
22.718,35.51
22.734,33.76
22.750,30.51
22.765,25.82
22.781,20.25
22.796,14.49
22.812,9.05
22.828,4.02
22.843,-0.92
22.859,-6.3
22.875,-12.52
22.890,-19.75
22.906,-27.82
22.921,-36.36
22.937,-45.02
22.953,-53.52
22.968,-61.72
22.984,-69.59
23.000,-77.17
23.015,-84.57
23.031,-92.05
23.046,-99.91
23.062,-108.27
23.078,-116.86
23.093,-124.71
23.109,-130.31
23.125,-131.87
23.140,-127.81
23.156,-117.38
23.171,-100.62
23.187,-78.61
23.203,-52.73
23.218,-24.65
23.234,4.12
23.250,32.04
23.265,57.62
23.281,79.39
23.296,96.09
23.312,107.13
23.328,112.7
23.343,113.85
23.359,112.08
23.375,108.92
23.390,105.37
23.406,101.79
23.421,97.98
23.437,93.52
23.453,88.22
23.468,82.25
23.484,76.05
23.500,70.2
23.515,65.06
23.531,60.79
23.546,57.17
23.562,53.9
23.578,50.61
23.593,47.09
23.609,43.26
23.625,39.15
23.640,34.86
23.656,30.38
23.671,25.79
23.687,20.96
23.703,15.88
23.718,10.55
23.734,5.04
23.750,-0.54
23.765,-6.12
23.781,-11.67
23.796,-17.23
23.812,-22.83
23.828,-28.55
23.843,-34.55
23.859,-41.03
23.875,-48.33
23.890,-56.68
23.906,-66.02
23.921,-75.63
23.937,-84.08
23.953,-89.49
23.968,-90.01
23.984,-84.47
24.000,-72.72
24.015,-55.88
24.031,-35.72
24.046,-14.41
24.062,6.26
24.078,24.91
24.093,40.76
24.109,53.45
24.125,62.91
24.140,69.27
24.156,72.82
24.171,74.11
24.187,73.77
24.203,72.4
24.218,70.37
24.234,67.83
24.250,64.64
24.265,60.65
24.281,55.84
24.296,50.44
24.312,44.82
24.328,39.45
24.343,34.72
24.359,30.8
24.375,27.63
24.390,25.03
24.406,22.8
24.421,20.7
24.437,18.58
24.453,16.36
24.468,14.04
24.484,11.67
24.500,9.38
24.515,7.17
24.531,5.02
24.546,2.78
24.562,0.2
24.578,-3.03
24.593,-7.16
24.609,-12.34
24.625,-18.61
24.640,-25.95
24.656,-34.37
24.671,-43.96
24.687,-54.66
24.703,-66.13
24.718,-77.53
24.734,-87.56
24.750,-94.69
24.765,-97.68
24.781,-95.97
24.796,-89.95
24.812,-80.66
24.828,-69.41
24.843,-57.4
24.859,-45.4
24.875,-33.84
24.890,-23.0
24.906,-13.14
24.921,-4.58
24.937,2.51
24.953,8.06
24.968,12.24
24.984,15.25
25.000,17.2
25.015,18.08
25.031,17.76
25.046,16.17
25.062,13.49
25.078,10.27
25.093,7.19
25.109,4.97
25.125,4.11
25.140,4.78
25.156,6.79
25.171,9.68
25.187,12.84
25.203,15.69
25.218,17.82
25.234,18.9
25.250,18.74
25.265,17.22
25.281,14.38
25.296,10.41
25.312,5.6
25.328,0.42
25.343,-4.8
25.359,-9.77
25.375,-14.5
25.390,-19.27
25.406,-24.47
25.421,-30.55
25.437,-37.77
25.453,-46.24
25.468,-55.6
25.484,-65.14
25.500,-73.69
25.515,-79.79
25.531,-81.94
25.546,-78.94
25.562,-70.27
25.578,-56.22
25.593,-37.96
25.609,-17.24
25.625,3.99
25.640,24.04
25.656,41.65
25.671,56.22
25.687,67.6
25.703,75.92
25.718,81.4
25.734,84.35
25.750,84.94
25.765,83.48
25.781,80.26
25.796,75.58
25.812,69.72
25.828,62.99
25.843,55.72
25.859,48.26
25.875,41.05
25.890,34.53
25.906,29.02
25.921,24.66
25.937,21.37
25.953,18.82
25.968,16.69
25.984,14.56
26.000,12.05
26.015,8.96
26.031,5.18
26.046,0.67
26.062,-4.46
26.078,-10.1
26.093,-16.01
26.109,-21.92
26.125,-27.64
26.140,-33.03
26.156,-37.93
26.171,-42.38
26.187,-46.54
26.203,-50.7
26.218,-55.24
26.234,-60.49
26.250,-66.52
26.265,-73.09
26.281,-79.36
26.296,-84.02
26.312,-85.61
26.328,-82.87
26.343,-75.12
26.359,-62.51
26.375,-46.01
26.390,-27.13
26.406,-7.58
26.421,11.1
26.437,27.79
26.453,41.76
26.468,52.72
26.484,60.73
26.500,66.03
26.515,69.0
26.531,70.07
26.546,69.6
26.562,67.96
26.578,65.34
26.593,61.9
26.609,57.76
26.625,53.09
26.640,47.99
26.656,42.59
26.671,37.04
26.687,31.53
26.703,26.29
26.718,21.48
26.734,17.14
26.750,13.24
26.765,9.53
26.781,5.69
26.796,1.43
26.812,-3.4
26.828,-8.78
26.843,-14.52
26.859,-20.35
26.875,-26.09
26.890,-31.51
26.906,-36.57
26.921,-41.25
26.937,-45.63
26.953,-49.84
26.968,-54.15
26.984,-58.8
27.000,-63.9
27.015,-69.3
27.031,-74.47
27.046,-78.46
27.062,-80.11
27.078,-78.33
27.093,-72.46
27.109,-62.56
27.125,-49.36
27.140,-34.14
27.156,-18.41
27.171,-3.44
27.187,9.89
27.203,21.19
27.218,30.49
27.234,37.87
27.250,43.48
27.265,47.45
27.281,49.88
27.296,50.94
27.312,50.95
27.328,50.19
27.343,48.84
27.359,46.95
27.375,44.38
27.390,40.95
27.406,36.61
27.421,31.56
27.437,26.25
27.453,21.29
27.468,17.15
27.484,13.99
27.500,11.59
27.515,9.45
27.531,7.01
27.546,3.9
27.562,0.06
27.578,-4.29
27.593,-8.74
27.609,-12.95
27.625,-16.79
27.640,-20.16
27.656,-23.16
27.671,-25.9
27.687,-28.57
27.703,-31.48
27.718,-35.01
27.734,-39.41
27.750,-44.67
27.765,-50.29
27.781,-55.24
27.796,-58.29
27.812,-58.32
27.828,-54.66
27.843,-47.4
27.859,-37.23
27.875,-25.24
27.890,-12.58
27.906,-0.24
27.921,11.1
27.937,21.04
27.953,29.32
27.968,35.88
27.984,40.73
28.000,44.07
28.015,46.08
28.031,46.97
28.046,46.83
28.062,45.72
28.078,43.63
28.093,40.58
28.109,36.72
28.125,32.27
28.140,27.58
28.156,22.87
28.171,18.41
28.187,14.41
28.203,11.04
28.218,8.31
28.234,6.14
28.250,4.18
28.265,1.9
28.281,-1.11
28.296,-5.21
28.312,-10.42
28.328,-16.4
28.343,-22.57
28.359,-28.38
28.375,-33.49
28.390,-37.88
28.406,-41.83
28.421,-45.72
28.437,-49.94
28.453,-54.72
28.468,-60.05
28.484,-65.65
28.500,-70.81
28.515,-74.64
28.531,-76.06
28.546,-74.21
28.562,-68.66
28.578,-59.64
28.593,-47.86
28.609,-34.41
28.625,-20.46
28.640,-6.91
28.656,5.58
28.671,16.58
28.687,25.81
28.703,33.16
28.718,38.59
28.734,42.24
28.750,44.42
28.765,45.31
28.781,45.2
28.796,44.24
28.812,42.51
28.828,39.98
28.843,36.76
28.859,32.97
28.875,28.87
28.890,24.7
28.906,20.59
28.921,16.63
28.937,12.8
28.953,9.07
28.968,5.42
28.984,1.88
29.000,-1.49
29.015,-4.75
29.031,-7.95
29.046,-11.15
29.062,-14.29
29.078,-17.29
29.093,-20.12
29.109,-22.78
29.125,-25.5
29.140,-28.62
29.156,-32.56
29.171,-37.63
29.187,-44.0
29.203,-51.45
29.218,-59.51
29.234,-67.33
29.250,-73.75
29.265,-77.58
29.281,-77.81
29.296,-73.81
29.312,-65.64
29.328,-53.99
29.343,-39.98
29.359,-24.93
29.375,-9.96
29.390,4.1
29.406,16.58
29.421,27.07
29.437,35.33
29.453,41.34
29.468,45.18
29.484,47.15
29.500,47.51
29.515,46.53
29.531,44.43
29.546,41.33
29.562,37.36
29.578,32.74
29.593,27.76
29.609,22.69
29.625,17.83
29.640,13.33
29.656,9.32
29.671,5.95
29.687,3.21
29.703,0.93
29.718,-1.25
29.734,-3.78
29.750,-7.09
29.765,-11.4
29.781,-16.78
29.796,-23.01
29.812,-29.73
29.828,-36.6
29.843,-43.23
29.859,-49.37
29.875,-54.79
29.890,-59.36
29.906,-63.08
29.921,-66.23
29.937,-69.24
29.953,-72.4
29.968,-75.78
29.984,-78.88
30.000,-80.69
30.015,-80.04
30.031,-75.9
30.046,-67.75
30.062,-55.76
30.078,-40.77
30.093,-23.82
30.109,-6.14
30.125,11.23
30.140,27.38
30.156,41.57
30.171,53.27
30.187,62.3
30.203,68.69
30.218,72.6
30.234,74.28
30.250,73.93
30.265,71.72
30.281,67.8
30.296,62.42
30.312,56.02
30.328,49.16
30.343,42.58
30.359,36.83
30.375,32.37
30.390,29.34
30.406,27.6
30.421,26.62
30.437,25.68
30.453,24.13
30.468,21.54
30.484,17.85
30.500,13.31
30.515,8.37
30.531,3.36
30.546,-1.47
30.562,-6.18
30.578,-10.91
30.593,-15.89
30.609,-21.26
30.625,-27.15
30.640,-33.63
30.656,-40.72
30.671,-48.46
30.687,-56.69
30.703,-64.98
30.718,-72.44
30.734,-77.8
30.750,-79.57
30.765,-76.45
30.781,-67.96
30.796,-54.64
30.812,-38.04
30.828,-20.13
30.843,-2.68
30.859,13.25
30.875,27.3
30.890,39.71
30.906,50.76
30.921,60.5
30.937,68.64
30.953,74.73
30.968,78.55
30.984,80.18
31.000,80.02
31.015,78.56
31.031,76.25
31.046,73.41
31.062,70.22
31.078,66.86
31.093,63.41
31.109,59.96
31.125,56.52
31.140,52.9
31.156,48.84
31.171,44.1
31.187,38.56
31.203,32.3
31.218,25.68
31.234,19.05
31.250,12.72
31.265,6.82
31.281,1.29
31.296,-4.02
31.312,-9.25
31.328,-14.47
31.343,-19.65
31.359,-24.64
31.375,-29.51
31.390,-34.43
31.406,-39.72
31.421,-45.76
31.437,-52.77
31.453,-60.58
31.468,-68.55
31.484,-75.55
31.500,-80.1
31.515,-80.87
31.531,-76.98
31.546,-68.35
31.562,-55.8
31.578,-40.67
31.593,-24.48
31.609,-8.37
31.625,7.04
31.640,21.59
31.656,35.29
31.671,48.07
31.687,59.69
31.703,69.58
31.718,77.19
31.734,82.09
31.750,84.07
31.765,83.27
31.781,80.04
31.796,74.81
31.812,68.16
31.828,60.53
31.843,52.29
31.859,43.85
31.875,35.61
31.890,28.02
31.906,21.39
31.921,15.98
31.937,11.66
31.953,8.18
31.968,5.2
31.984,2.39
32.000,-0.42
32.015,-3.33
32.031,-6.48
32.046,-10.03
32.062,-14.19
32.078,-19.15
32.093,-24.93
32.109,-31.36
32.125,-38.09
32.140,-44.72
32.156,-50.97
32.171,-56.81
32.187,-62.42
32.203,-68.1
32.218,-74.01
32.234,-79.96
32.250,-85.24
32.265,-88.67
32.281,-88.81
32.296,-84.43
32.312,-74.66
32.328,-59.27
32.343,-38.75
32.359,-14.51
32.375,11.31
32.390,36.23
32.406,57.65
32.421,73.79
32.437,83.89
32.453,88.51
32.468,89.02
32.484,87.01
32.500,83.58
32.515,79.12
32.531,73.56
32.546,66.76
32.562,59.05
32.578,51.07
32.593,43.7
32.609,37.58
32.625,32.89
32.640,29.39
32.656,26.7
32.671,24.47
32.687,22.56
32.703,20.96
32.718,19.6
32.734,18.29
32.750,16.63
32.765,14.11
32.781,10.36
32.796,5.22
32.812,-1.12
32.828,-8.3
32.843,-15.8
32.859,-23.22
32.875,-30.36
32.890,-37.14
32.906,-43.67
32.921,-50.13
32.937,-56.82
32.953,-64.02
32.968,-71.82
32.984,-79.87
33.000,-87.27
33.015,-92.64
33.031,-94.38
33.046,-91.18
33.062,-82.33
33.078,-67.97
33.093,-49.15
33.109,-27.44
33.125,-4.7
33.140,17.27
33.156,37.12
33.171,53.9
33.187,67.15
33.203,76.9
33.218,83.47
33.234,87.29
33.250,88.86
33.265,88.53
33.281,86.54
33.296,83.08
33.312,78.34
33.328,72.52
33.343,65.89
33.359,58.77
33.375,51.52
33.390,44.57
33.406,38.32
33.421,33.05
33.437,28.87
33.453,25.62
33.468,22.97
33.484,20.46
33.500,17.69
33.515,14.35
33.531,10.37
33.546,5.76
33.562,0.58
33.578,-5.06
33.593,-11.13
33.609,-17.61
33.625,-24.38
33.640,-31.32
33.656,-38.2
33.671,-44.75
33.687,-50.75
33.703,-56.07
33.718,-60.74
33.734,-65.06
33.750,-69.48
33.765,-74.4
33.781,-79.87
33.796,-85.36
33.812,-89.67
33.828,-91.16
33.843,-88.24
33.859,-79.95
33.875,-66.3
33.890,-48.34
33.906,-27.76
33.921,-6.44
33.937,13.93
33.953,32.11
33.968,47.37
33.984,59.35
34.000,67.98
34.015,73.51
34.031,76.32
34.046,76.97
34.062,76.03
34.078,73.89
34.093,70.76
34.109,66.69
34.125,61.64
34.140,55.74
34.156,49.37
34.171,43.12
34.187,37.61
34.203,33.37
34.218,30.57
34.234,29.04
34.250,28.29
34.265,27.68
34.281,26.63
34.296,24.77
34.312,21.95
34.328,18.31
34.343,14.17
34.359,9.82
34.375,5.49
34.390,1.19
34.406,-3.22
34.421,-7.92
34.437,-13.03
34.453,-18.57
34.468,-24.37
34.484,-30.22
34.500,-35.96
34.515,-41.44
34.531,-46.76
34.546,-52.12
34.562,-57.87
34.578,-64.3
34.593,-71.36
34.609,-78.56
34.625,-84.82
34.640,-88.76
34.656,-88.89
34.671,-84.16
34.687,-74.27
34.703,-59.77
34.718,-41.91
34.734,-22.31
34.750,-2.62
34.765,15.78
34.781,31.89
34.796,45.2
34.812,55.58
34.828,63.2
34.843,68.37
34.859,71.52
34.875,72.98
34.890,73.03
34.906,71.8
34.921,69.35
34.937,65.76
34.953,61.15
34.968,55.73
34.984,49.85
35.000,43.96
35.015,38.47
35.031,33.75
35.046,29.94
35.062,26.94
35.078,24.46
35.093,22.13
35.109,19.57
35.125,16.62
35.140,13.25
35.156,9.55
35.171,5.67
35.187,1.68
35.203,-2.44
35.218,-6.76
35.234,-11.35
35.250,-16.35
35.265,-21.8
35.281,-27.64
35.296,-33.73
35.312,-39.76
35.328,-45.47
35.343,-50.69
35.359,-55.52
35.375,-60.24
35.390,-65.31
35.406,-71.03
35.421,-77.36
35.437,-83.67
35.453,-88.74
35.468,-90.99
35.484,-89.08
35.500,-82.17
35.515,-70.35
35.531,-54.47
35.546,-35.93
35.562,-16.41
35.578,2.62
35.593,20.04
35.609,35.17
35.625,47.57
35.640,57.19
35.656,64.05
35.671,68.39
35.687,70.57
35.703,70.96
35.718,69.87
35.734,67.55
35.750,64.11
35.765,59.68
35.781,54.46
35.796,48.73
35.812,42.94
35.828,37.58
35.843,33.11
35.859,29.72
35.875,27.37
35.890,25.74
35.906,24.28
35.921,22.46
35.937,19.81
35.953,16.15
35.968,11.59
35.984,6.46
36.000,1.16
36.015,-4.07
36.031,-9.16
36.046,-14.22
36.062,-19.44
36.078,-24.89
36.093,-30.56
36.109,-36.26
36.125,-41.8
36.140,-47.01
36.156,-51.88
36.171,-56.49
36.187,-61.09
36.203,-65.96
36.218,-71.33
36.234,-77.04
36.250,-82.62
36.265,-87.1
36.281,-89.15
36.296,-87.49
36.312,-81.16
36.328,-69.92
36.343,-54.35
36.359,-35.76
36.375,-15.83
36.390,3.77
36.406,21.64
36.421,36.87
36.437,48.99
36.453,58.03
36.468,64.24
36.484,67.96
36.500,69.7
36.515,69.94
36.531,69.1
36.546,67.55
36.562,65.42
36.578,62.62
36.593,59.09
36.609,54.76
36.625,49.74
36.640,44.41
36.656,39.31
36.671,34.92
36.687,31.58
36.703,29.31
36.718,27.75
36.734,26.41
36.750,24.73
36.765,22.29
36.781,18.87
36.796,14.54
36.812,9.52
36.828,4.17
36.843,-1.2
36.859,-6.46
36.875,-11.66
36.890,-16.92
36.906,-22.37
36.921,-27.94
36.937,-33.5
36.953,-38.79
36.968,-43.63
36.984,-48.08
37.000,-52.4
37.015,-57.01
37.031,-62.36
37.046,-68.69
37.062,-75.86
37.078,-83.38
37.093,-90.3
37.109,-95.2
37.125,-96.61
37.140,-93.27
37.156,-84.56
37.171,-70.75
37.187,-52.97
37.203,-32.91
37.218,-12.56
37.234,6.34
37.250,22.59
37.265,35.61
37.281,45.44
37.296,52.48
37.312,57.3
37.328,60.34
37.343,61.86
37.359,61.9
37.375,60.41
37.390,57.48
37.406,53.42
37.421,48.68
37.437,43.8
37.453,39.3
37.468,35.57
37.484,32.88
37.500,31.36
37.515,30.97
37.531,31.42
37.546,32.19
37.562,32.63
37.578,32.14
37.593,30.37
37.609,27.37
37.625,23.54
37.640,19.5
37.656,15.74
37.671,12.34
37.687,9.05
37.703,5.44
37.718,1.08
37.734,-4.2
37.750,-10.27
37.765,-16.8
37.781,-23.29
37.796,-29.36
37.812,-34.89
37.828,-39.99
37.843,-44.96
37.859,-50.18
37.875,-56.02
37.890,-62.63
37.906,-69.74
37.921,-76.59
37.937,-81.95
37.953,-84.37
37.968,-82.47
37.984,-75.38
38.000,-63.15
38.015,-46.74
38.031,-27.87
38.046,-8.44
38.062,9.9
38.078,26.09
38.093,39.65
38.109,50.53
38.125,58.81
38.140,64.53
38.156,67.81
38.171,68.92
38.187,68.4
38.203,67.06
38.218,65.75
38.234,64.93
38.250,64.64
38.265,64.44
38.281,63.68
38.296,61.85
38.312,58.78
38.328,54.72
38.343,50.19
38.359,45.76
38.375,41.7
38.390,38.02
38.406,34.43
38.421,30.6
38.437,26.35
38.453,21.72
38.468,16.95
38.484,12.3
38.500,7.93
38.515,3.73
38.531,-0.54
38.546,-5.24
38.562,-10.67
38.578,-16.88
38.593,-23.7
38.609,-30.79
38.625,-37.69
38.640,-44.08
38.656,-49.88
38.671,-55.23
38.687,-60.52
38.703,-66.25
38.718,-72.76
38.734,-80.1
38.750,-87.89
38.765,-95.24
38.781,-100.81
38.796,-103.13
38.812,-100.87
38.828,-93.29
38.843,-80.45
38.859,-63.22
38.875,-43.19
38.890,-22.11
38.906,-1.62
38.921,17.1
38.937,33.3
38.953,46.59
38.968,56.79
38.984,63.88
39.000,68.03
39.015,69.57
39.031,69.0
39.046,66.91
39.062,63.85
39.078,60.21
39.093,56.28
39.109,52.21
39.125,48.14
39.140,44.23
39.156,40.7
39.171,37.75
39.187,35.48
39.203,33.77
39.218,32.29
39.234,30.56
39.250,28.2
39.265,24.92
39.281,20.71
39.296,15.83
39.312,10.61
39.328,5.4
39.343,0.36
39.359,-4.48
39.375,-9.3
39.390,-14.3
39.406,-19.62
39.421,-25.34
39.437,-31.37
39.453,-37.59
39.468,-43.86
39.484,-50.16
39.500,-56.54
39.515,-63.23
39.531,-70.47
39.546,-78.27
39.562,-86.31
39.578,-93.81
39.593,-99.64
39.609,-102.41
39.625,-100.91
39.640,-94.35
39.656,-82.68
39.671,-66.59
39.687,-47.42
39.703,-26.78
39.718,-6.27
39.734,12.76
39.750,29.43
39.765,43.26
39.781,54.18
39.796,62.36
39.812,68.1
39.828,71.86
39.843,74.04
39.859,74.96
39.875,74.8
39.890,73.56
39.906,71.15
39.921,67.52
39.937,62.83
39.953,57.39
39.968,51.79
39.984,46.52
40.000,42.02
40.015,38.48
40.031,35.8
40.046,33.67
40.062,31.64
40.078,29.33
40.093,26.47
40.109,23.06
40.125,19.21
40.140,15.12
40.156,10.91
40.171,6.55
40.187,1.98
40.203,-2.95
40.218,-8.35
40.234,-14.26
40.250,-20.57
40.265,-27.2
40.281,-33.97
40.296,-40.73
40.312,-47.44
40.328,-54.05
40.343,-60.72
40.359,-67.74
40.375,-75.3
40.390,-83.31
40.406,-91.23
40.421,-97.9
40.437,-101.68
40.453,-101.0
40.468,-94.75
40.484,-82.76
40.500,-65.9
40.515,-45.76
40.531,-24.29
40.546,-3.19
40.562,16.2
40.578,33.17
40.593,47.33
40.609,58.58
40.625,66.9
40.640,72.46
40.656,75.62
40.671,76.88
40.687,76.72
40.703,75.6
40.718,73.69
40.734,70.94
40.750,67.34
40.765,62.84
40.781,57.68
40.796,52.35
40.812,47.43
40.828,43.42
40.843,40.64
40.859,39.07
40.875,38.22
40.890,37.52
40.906,36.26
40.921,33.99
40.937,30.56
40.953,26.21
40.968,21.33
40.984,16.34
41.000,11.43
41.015,6.47
41.031,1.17
41.046,-4.8
41.062,-11.62
41.078,-19.21
41.093,-27.22
41.109,-35.2
41.125,-42.76
41.140,-49.65
41.156,-55.98
41.171,-61.93
41.187,-67.91
41.203,-74.28
41.218,-81.13
41.234,-88.28
41.250,-94.96
41.265,-99.94
41.281,-101.71
41.296,-98.9
41.312,-90.62
41.328,-76.9
41.343,-58.69
41.359,-37.59
41.375,-15.53
41.390,5.77
41.406,24.97
41.421,41.2
41.437,54.06
41.453,63.48
41.468,69.68
41.484,73.02
41.500,74.07
41.515,73.33
41.531,71.33
41.546,68.37
41.562,64.63
41.578,60.27
41.593,55.48
41.609,50.58
41.625,45.95
41.640,42.09
41.656,39.28
41.671,37.63
41.687,36.87
41.703,36.47
41.718,35.82
41.734,34.36
41.750,31.76
41.765,27.99
41.781,23.29
41.796,18.04
41.812,12.64
41.828,7.42
41.843,2.41
41.859,-2.49
41.875,-7.6
41.890,-13.19
41.906,-19.45
41.921,-26.32
41.937,-33.48
41.953,-40.41
41.968,-46.65
41.984,-51.96
42.000,-56.43
42.015,-60.51
42.031,-64.81
42.046,-69.87
42.062,-75.94
42.078,-82.75
42.093,-89.3
42.109,-94.14
42.125,-95.59
42.140,-92.18
42.156,-83.12
42.171,-68.6
42.187,-49.78
42.203,-28.45
42.218,-6.65
42.234,13.89
42.250,31.93
42.265,46.81
42.281,58.32
42.296,66.54
42.312,71.73
42.328,74.28
42.343,74.64
42.359,73.29
42.375,70.64
42.390,67.0
42.406,62.57
42.421,57.53
42.437,52.07
42.453,46.55
42.468,41.34
42.484,36.86
42.500,33.41
42.515,31.14
42.531,29.89
42.546,29.22
42.562,28.55
42.578,27.12
42.593,24.47
42.609,20.4
42.625,15.0
42.640,8.74
42.656,2.24
42.671,-4.02
42.687,-9.77
42.703,-14.93
42.718,-19.77
42.734,-24.56
42.750,-29.57
42.765,-34.92
42.781,-40.52
42.796,-46.15
42.812,-51.54
42.828,-56.64
42.843,-61.57
42.859,-66.76
42.875,-72.67
42.890,-79.53
42.906,-87.02
42.921,-94.11
42.937,-99.24
42.953,-100.63
42.968,-96.85
42.984,-87.25
43.000,-72.23
43.015,-53.11
43.031,-31.68
43.046,-9.92
43.062,10.58
43.078,28.67
43.093,43.73
43.109,55.57
43.125,64.25
43.140,69.97
43.156,73.09
43.171,73.99
43.187,73.05
43.203,70.75
43.218,67.54
43.234,63.8
43.250,59.91
43.265,56.07
43.281,52.45
43.296,49.11
43.312,46.13
43.328,43.55
43.343,41.42
43.359,39.79
43.375,38.56
43.390,37.47
43.406,36.12
43.421,34.11
43.437,31.2
43.453,27.45
43.468,23.12
43.484,18.65
43.500,14.39
43.515,10.45
43.531,6.58
43.546,2.29
43.562,-2.93
43.578,-9.34
43.593,-16.81
43.609,-24.94
43.625,-33.1
43.640,-40.69
43.656,-47.35
43.671,-52.94
43.687,-57.72
43.703,-62.16
43.718,-66.85
43.734,-72.31
43.750,-78.73
43.765,-85.78
43.781,-92.51
43.796,-97.47
43.812,-98.93
43.828,-95.48
43.843,-86.39
43.859,-71.9
43.875,-53.12
43.890,-31.75
43.906,-9.73
43.921,11.2
43.937,29.59
43.953,44.56
43.968,55.73
43.984,63.16
44.000,67.27
44.015,68.75
44.031,68.3
44.046,66.57
44.062,64.08
44.078,61.14
44.093,57.9
44.109,54.47
44.125,50.92
44.140,47.34
44.156,43.89
44.171,40.74
44.187,38.15
44.203,36.4
44.218,35.6
44.234,35.59
44.250,35.99
44.265,36.29
44.281,36.0
44.296,34.78
44.312,32.57
44.328,29.47
44.343,25.72
44.359,21.58
44.375,17.19
44.390,12.58
44.406,7.69
44.421,2.46
44.437,-3.17
44.453,-9.22
44.468,-15.69
44.484,-22.42
44.500,-29.27
44.515,-35.88
44.531,-42.0
44.546,-47.43
44.562,-52.11
44.578,-56.23
44.593,-60.28
44.609,-64.86
44.625,-70.53
44.640,-77.47
44.656,-85.09
44.671,-92.16
44.687,-96.92
44.703,-97.58
44.718,-92.77
44.734,-82.17
44.750,-66.37
44.765,-46.93
44.781,-25.8
44.796,-4.82
44.812,14.57
44.828,31.36
44.843,45.08
44.859,55.54
44.875,62.85
44.890,67.29
44.906,69.27
44.921,69.2
44.937,67.56
44.953,64.74
44.968,60.97
44.984,56.59
45.000,51.84
45.015,47.1
45.031,42.75
45.046,39.13
45.062,36.43
45.078,34.73
45.093,33.88
45.109,33.58
45.125,33.51
45.140,33.27
45.156,32.5
45.171,30.97
45.187,28.51
45.203,25.1
45.218,20.94
45.234,16.28
45.250,11.42
45.265,6.58
45.281,1.85
45.296,-2.81
45.312,-7.47
45.328,-12.26
45.343,-17.27
45.359,-22.47
45.375,-27.76
45.390,-33.0
45.406,-37.96
45.421,-42.54
45.437,-46.75
45.453,-50.84
45.468,-55.26
45.484,-60.54
45.500,-67.0
45.515,-74.62
45.531,-82.82
45.546,-90.41
45.562,-95.8
45.578,-97.33
45.593,-93.63
45.609,-84.22
45.625,-69.56
45.640,-51.02
45.656,-30.53
45.671,-10.06
45.687,8.78
45.703,25.0
45.718,38.14
45.734,48.28
45.750,55.66
45.765,60.63
45.781,63.5
45.796,64.57
45.812,64.1
45.828,62.36
45.843,59.62
45.859,56.19
45.875,52.37
45.890,48.44
45.906,44.6
45.921,41.07
45.937,38.03
45.953,35.65
45.968,34.13
45.984,33.47
46.000,33.43
46.015,33.54
46.031,33.16
46.046,31.68
46.062,28.79
46.078,24.5
46.093,19.24
46.109,13.64
46.125,8.31
46.140,3.53
46.156,-0.71
46.171,-4.76
46.187,-9.11
46.203,-14.03
46.218,-19.68
46.234,-25.85
46.250,-32.25
46.265,-38.55
46.281,-44.57
46.296,-50.24
46.312,-55.69
46.328,-61.17
46.343,-66.96
46.359,-73.37
46.375,-80.48
46.390,-88.05
46.406,-95.28
46.421,-100.85
46.437,-103.08
46.453,-100.56
46.468,-92.52
46.484,-79.06
46.500,-61.26
46.515,-40.74
46.531,-19.32
46.546,1.37
46.562,20.11
46.578,36.13
46.593,49.09
46.609,58.94
46.625,65.9
46.640,70.36
46.656,72.81
46.671,73.69
46.687,73.23
46.703,71.57
46.718,68.77
46.734,64.93
46.750,60.39
46.765,55.54
46.781,50.82
46.796,46.79
46.812,43.81
46.828,42.07
46.843,41.55
46.859,41.96
46.875,42.83
46.890,43.62
46.906,43.77
46.921,42.77
46.937,40.36
46.953,36.5
46.968,31.4
46.984,25.38
47.000,18.87
47.015,12.15
47.031,5.46
47.046,-1.13
47.062,-7.71
47.078,-14.33
47.093,-20.98
47.109,-27.57
47.125,-33.93
47.140,-39.91
47.156,-45.42
47.171,-50.45
47.187,-55.05
47.203,-59.37
47.218,-63.67
47.234,-68.39
47.250,-73.93
47.265,-80.61
47.281,-88.37
47.296,-96.53
47.312,-103.81
47.328,-108.55
47.343,-109.13
47.359,-104.39
47.375,-94.08
47.390,-78.78
47.406,-59.8
47.421,-38.86
47.437,-17.62
47.453,2.56
47.468,20.64
47.484,36.05
47.500,48.52
47.515,58.04
47.531,64.79
47.546,69.1
47.562,71.32
47.578,71.86
47.593,71.13
47.609,69.39
47.625,66.88
47.640,63.85
47.656,60.53
47.671,57.21
47.687,54.25
47.703,51.93
47.718,50.56
47.734,50.24
47.750,50.77
47.765,51.65
47.781,52.15
47.796,51.39
47.812,48.75
47.828,44.06
47.843,37.58
47.859,30.06
47.875,22.44
47.890,15.48
47.906,9.68
47.921,5.08
47.937,1.41
47.953,-1.68
47.968,-4.54
47.984,-7.47
48.000,-10.72
48.015,-14.47
48.031,-18.96
48.046,-24.36
48.062,-30.71
48.078,-37.95
48.093,-45.77
48.109,-53.78
48.125,-61.62
48.140,-69.03
48.156,-76.03
48.171,-82.98
48.187,-90.19
48.203,-97.81
48.218,-105.35
48.234,-111.55
48.250,-114.65
48.265,-112.89
48.281,-105.16
48.296,-91.42
48.312,-72.79
48.328,-51.11
48.343,-28.47
48.359,-6.7
48.375,13.03
48.390,30.01
48.406,43.92
48.421,54.67
48.437,62.34
48.453,67.18
48.468,69.7
48.484,70.5
48.500,70.13
48.515,69.02
48.531,67.3
48.546,65.03
48.562,62.18
48.578,58.9
48.593,55.45
48.609,52.21
48.625,49.46
48.640,47.41
48.656,46.04
48.671,45.13
48.687,44.45
48.703,43.71
48.718,42.65
48.734,40.98
48.750,38.52
48.765,35.05
48.781,30.56
48.796,25.24
48.812,19.34
48.828,13.35
48.843,7.59
48.859,2.24
48.875,-2.74
48.890,-7.58
48.906,-12.56
48.921,-17.93
48.937,-23.76
48.953,-30.03
48.968,-36.48
48.984,-42.83
49.000,-48.83
49.015,-54.34
49.031,-59.56
49.046,-64.85
49.062,-70.71
49.078,-77.53
49.093,-85.44
49.109,-93.87
49.125,-101.8
49.140,-107.53
49.156,-109.29
49.171,-105.59
49.187,-95.75
49.203,-80.07
49.218,-59.86
49.234,-37.15
49.250,-14.08
49.265,7.43
49.281,26.08
49.296,41.26
49.312,52.91
49.328,61.27
49.343,66.81
49.359,69.99
49.375,71.28
49.390,71.16
49.406,69.9
49.421,67.7
49.437,64.62
49.453,60.71
49.468,56.1
49.484,51.18
49.500,46.47
49.515,42.55
49.531,39.88
49.546,38.52
49.562,38.24
49.578,38.5
49.593,38.68
49.609,38.21
49.625,36.7
49.640,33.92
49.656,29.83
49.671,24.61
49.687,18.59
49.703,12.23
49.718,6.01
49.734,0.28
49.750,-4.84
49.765,-9.47
49.781,-13.98
49.796,-18.82
49.812,-24.21
49.828,-30.19
49.843,-36.55
49.859,-42.94
49.875,-49.11
49.890,-54.93
49.906,-60.52
49.921,-66.13
49.937,-72.22
49.953,-79.12
49.968,-87.02
49.984,-95.6
50.000,-103.91
50.015,-110.43
50.031,-113.33
50.046,-111.0
50.062,-102.52
50.078,-88.03
50.093,-68.67
50.109,-46.37
50.125,-23.18
50.140,-0.93
50.156,19.15
50.171,36.36
50.187,50.51
50.203,61.7
50.218,70.25
50.234,76.6
50.250,81.19
50.265,84.35
50.281,86.2
50.296,86.68
50.312,85.57
50.328,82.76
50.343,78.41
50.359,72.95
50.375,67.11
50.390,61.65
50.406,57.13
50.421,53.82
50.437,51.62
50.453,50.18
50.468,49.08
50.484,47.84
50.500,45.96
50.515,43.09
50.531,39.05
50.546,33.83
50.562,27.65
50.578,20.89
50.593,13.91
50.609,6.97
50.625,0.2
50.640,-6.45
50.656,-13.02
50.671,-19.59
50.687,-26.19
50.703,-32.86
50.718,-39.65
50.734,-46.51
50.750,-53.35
50.765,-60.03
50.781,-66.44
50.796,-72.64
50.812,-78.82
50.828,-85.34
50.843,-92.49
50.859,-100.32
50.875,-108.35
50.890,-115.43
50.906,-119.93
50.921,-120.02
50.937,-114.32
50.953,-102.25
50.968,-84.22
50.984,-61.51
51.000,-35.75
51.015,-8.8
51.031,17.61
51.046,41.77
51.062,62.11
51.078,77.45
51.093,87.3
51.109,92.11
51.125,93.2
51.140,92.34
51.156,91.0
51.171,89.89
51.187,88.91
51.203,87.37
51.218,84.6
51.234,80.4
51.250,75.06
51.265,69.31
51.281,63.88
51.296,59.26
51.312,55.53
51.328,52.55
51.343,49.97
51.359,47.41
51.375,44.55
51.390,41.13
51.406,36.98
51.421,32.1
51.437,26.59
51.453,20.63
51.468,14.56
51.484,8.61
51.500,2.81
51.515,-2.94
51.531,-8.87
51.546,-15.22
51.562,-22.1
51.578,-29.4
51.593,-36.93
51.609,-44.36
51.625,-51.56
51.640,-58.46
51.656,-65.13
51.671,-71.78
51.687,-78.7
51.703,-86.24
51.718,-94.57
51.734,-103.47
51.750,-112.06
51.765,-118.74
51.781,-121.51
51.796,-118.49
51.812,-108.59
51.828,-91.93
51.843,-69.84
51.859,-44.49
51.875,-18.31
51.890,6.63
51.906,28.84
51.921,47.49
51.937,62.28
51.953,73.27
51.968,80.78
51.984,85.41
52.000,87.89
52.015,88.88
52.031,88.84
52.046,87.93
52.062,86.03
52.078,82.92
52.093,78.49
52.109,72.95
52.125,66.78
52.140,60.72
52.156,55.43
52.171,51.44
52.187,49.0
52.203,47.87
52.218,47.45
52.234,46.95
52.250,45.53
52.265,42.6
52.281,37.92
52.296,31.67
52.312,24.41
52.328,16.79
52.343,9.33
52.359,2.29
52.375,-4.41
52.390,-11.08
52.406,-18.05
52.421,-25.49
52.437,-33.3
52.453,-41.05
52.468,-48.3
52.484,-54.77
52.500,-60.53
52.515,-65.94
52.531,-71.57
52.546,-78.03
52.562,-85.66
52.578,-94.45
52.593,-103.78
52.609,-112.42
52.625,-118.68
52.640,-120.6
52.656,-116.5
52.671,-105.47
52.687,-87.76
52.703,-64.77
52.718,-38.71
52.734,-12.09
52.750,12.88
52.765,34.71
52.781,52.71
52.796,66.83
52.812,77.39
52.828,84.79
52.843,89.41
52.859,91.57
52.875,91.6
52.890,89.86
52.906,86.68
52.921,82.35
52.937,77.06
52.953,70.97
52.968,64.22
52.984,57.17
53.000,50.34
53.015,44.38
53.031,39.79
53.046,36.69
53.062,34.71
53.078,33.15
53.093,31.25
53.109,28.41
53.125,24.5
53.140,19.74
53.156,14.57
53.171,9.42
53.187,4.52
53.203,-0.23
53.218,-5.13
53.234,-10.58
53.250,-16.91
53.265,-24.2
53.281,-32.27
53.296,-40.63
53.312,-48.78
53.328,-56.29
53.343,-63.0
53.359,-69.18
53.375,-75.23
53.390,-81.75
53.406,-89.21
53.421,-97.83
53.437,-107.29
53.453,-116.47
53.468,-123.55
53.484,-126.23
53.500,-122.43
53.515,-110.91
53.531,-91.86
53.546,-66.87
53.562,-38.56
53.578,-9.82
53.593,16.96
53.609,40.3
53.625,59.63
53.640,74.94
53.656,86.53
53.671,94.7
53.687,99.73
53.703,101.98
53.718,101.87
53.734,99.88
53.750,96.45
53.765,91.9
53.781,86.4
53.796,80.08
53.812,73.13
53.828,65.92
53.843,59.06
53.859,53.03
53.875,48.37
53.890,45.2
53.906,43.32
53.921,42.11
53.937,40.79
53.953,38.61
53.968,35.11
53.984,30.27
54.000,24.42
54.015,18.22
54.031,12.23
54.046,6.81
54.062,1.83
54.078,-3.08
54.093,-8.45
54.109,-14.66
54.125,-21.83
54.140,-29.82
54.156,-38.26
54.171,-46.8
54.187,-55.14
54.203,-63.14
54.218,-70.78
54.234,-78.29
54.250,-85.99
54.265,-94.3
54.281,-103.58
54.296,-113.77
54.312,-124.16
54.328,-133.16
54.343,-138.43
54.359,-137.59
54.375,-128.91
54.390,-111.97
54.406,-87.95
54.421,-59.28
54.437,-28.96
54.453,0.34
54.468,26.77
54.484,49.47
54.500,68.21
54.515,83.04
54.531,94.15
54.546,101.85
54.562,106.55
54.578,108.72
54.593,108.89
54.609,107.39
54.625,104.39
54.640,99.89
54.656,93.91
54.671,86.68
54.687,78.57
54.703,70.21
54.718,62.18
54.734,54.98
54.750,49.04
54.765,44.56
54.781,41.54
54.796,39.7
54.812,38.55
54.828,37.36
54.843,35.48
54.859,32.52
54.875,28.43
54.890,23.52
54.906,18.15
54.921,12.63
54.937,7.03
54.953,1.19
54.968,-5.19
54.984,-12.38
55.000,-20.42
55.015,-29.28
55.031,-38.69
55.046,-48.36
55.062,-57.85
55.078,-66.73
55.093,-74.71
55.109,-81.69
55.125,-87.87
55.140,-93.69
55.156,-99.87
55.171,-107.0
55.187,-115.35
55.203,-124.38
55.218,-132.63
55.234,-137.94
55.250,-137.89
55.265,-130.57
55.281,-115.22
55.296,-92.68
55.312,-65.07
55.328,-35.24
55.343,-5.83
55.359,21.14
55.375,44.51
55.390,63.84
55.406,79.07
55.421,90.4
55.437,98.1
55.453,102.69
55.468,104.73
55.484,104.81
55.500,103.31
55.515,100.34
55.531,95.87
55.546,89.86
55.562,82.53
55.578,74.39
55.593,66.21
55.609,58.81
55.625,52.78
55.640,48.48
55.656,45.87
55.671,44.57
55.687,44.01
55.703,43.52
55.718,42.53
55.734,40.6
55.750,37.58
55.765,33.43
55.781,28.34
55.796,22.57
55.812,16.39
55.828,10.01
55.843,3.44
55.859,-3.43
55.875,-10.78
55.890,-18.74
55.906,-27.39
55.921,-36.55
55.937,-45.89
55.953,-54.96
55.968,-63.4
55.984,-71.0
56.000,-77.79
56.015,-84.09
56.031,-90.41
56.046,-97.34
56.062,-105.25
56.078,-114.04
56.093,-122.73
56.109,-129.63
56.125,-132.52
56.140,-129.28
56.156,-118.63
56.171,-100.6
56.187,-76.56
56.203,-48.77
56.218,-19.83
56.234,7.95
56.250,32.97
56.265,54.27
56.281,71.51
56.296,84.63
56.312,93.87
56.328,99.61
56.343,102.45
56.359,102.99
56.375,101.71
56.390,98.97
56.406,94.91
56.421,89.6
56.437,83.07
56.453,75.51
56.468,67.32
56.484,59.12
56.500,51.66
56.515,45.51
56.531,41.06
56.546,38.22
56.562,36.56
56.578,35.3
56.593,33.65
56.609,31.04
56.625,27.25
56.640,22.47
56.656,17.06
56.671,11.4
56.687,5.69
56.703,-0.12
56.718,-6.27
56.734,-13.02
56.750,-20.6
56.765,-28.97
56.781,-37.88
56.796,-46.98
56.812,-55.91
56.828,-64.51
56.843,-72.69
56.859,-80.69
56.875,-88.84
56.890,-97.68
56.906,-107.58
56.921,-118.47
56.937,-129.57
56.953,-139.13
56.968,-144.75
56.984,-143.98
57.000,-135.13
57.015,-117.99
57.031,-93.93
57.046,-65.53
57.062,-35.68
57.078,-6.93
57.093,19.0
57.109,41.28
57.125,59.6
57.140,73.94
57.156,84.43
57.171,91.25
57.187,94.95
57.203,96.27
57.218,95.99
57.234,94.68
57.250,92.37
57.265,88.69
57.281,83.13
57.296,75.48
57.312,66.11
57.328,56.09
57.343,46.88
57.359,39.77
57.375,35.38
57.390,33.45
57.406,32.98
57.421,32.77
57.437,31.82
57.453,29.67
57.468,26.49
57.484,22.84
57.500,19.32
57.515,16.33
57.531,13.91
57.546,11.64
57.562,8.8
57.578,4.53
57.593,-1.83
57.609,-10.53
57.625,-21.23
57.640,-32.99
57.656,-44.53
57.671,-54.69
57.687,-62.86
57.703,-69.34
57.718,-75.19
57.734,-81.97
57.750,-90.94
57.765,-102.31
57.781,-114.8
57.796,-125.62
57.812,-131.35
57.828,-128.98
57.843,-117.12
57.859,-96.44
57.875,-69.51
57.890,-39.8
57.906,-10.53
57.921,16.22
57.937,39.69
57.953,59.89
57.968,77.09
57.984,91.24
58.000,102.05
58.015,109.25
58.031,113.0
58.046,113.89
58.062,112.75
58.078,110.3
58.093,106.6
58.109,101.42
58.125,94.28
58.140,85.09
58.156,74.41
58.171,63.33
58.187,53.25
58.203,45.18
58.218,39.52
58.234,35.82
58.250,33.1
58.265,30.19
58.281,26.32
58.296,21.32
58.312,15.62
58.328,9.88
58.343,4.64
58.359,-0.05
58.375,-4.68
58.390,-9.91
58.406,-16.37
58.421,-24.22
58.437,-33.11
58.453,-42.33
58.468,-51.11
58.484,-58.98
58.500,-65.82
58.515,-72.02
58.531,-78.08
58.546,-84.64
58.562,-92.22
58.578,-100.92
58.593,-110.27
58.609,-118.92
58.625,-124.88
58.640,-125.81
58.656,-119.8
58.671,-106.02
58.687,-85.09
58.703,-58.92
58.718,-30.14
58.734,-1.47
58.750,25.08
58.765,48.16
58.781,67.22
58.796,82.14
58.812,93.11
58.828,100.46
58.843,104.73
58.859,106.54
58.875,106.53
58.890,105.16
58.906,102.57
58.921,98.69
58.937,93.31
58.953,86.38
58.968,78.14
58.984,69.24
59.000,60.54
59.015,52.84
59.031,46.6
59.046,41.78
59.062,38.02
59.078,34.73
59.093,31.31
59.109,27.43
59.125,22.95
59.140,17.87
59.156,12.28
59.171,6.31
59.187,-0.1
59.203,-6.9
59.218,-14.07
59.234,-21.64
59.250,-29.52
59.265,-37.68
59.281,-45.98
59.296,-54.24
59.312,-62.25
59.328,-69.93
59.343,-77.33
59.359,-84.89
59.375,-93.15
59.390,-102.61
59.406,-113.25
59.421,-124.19
59.437,-133.63
59.453,-139.16
59.468,-138.47
59.484,-129.97
59.500,-113.41
59.515,-89.96
59.531,-61.82
59.546,-31.75
59.562,-2.26
59.578,24.71
59.593,48.0
59.609,67.0
59.625,81.6
59.640,91.91
59.656,98.24
59.671,101.2
59.687,101.44
59.703,99.71
59.718,96.59
59.734,92.46
59.750,87.38
59.765,81.39
59.781,74.53
59.796,66.95
59.812,59.17
59.828,51.69
59.843,45.09
59.859,39.69
59.875,35.57
59.890,32.43
59.906,29.74
59.921,26.83
59.937,23.2
59.953,18.61
59.968,13.13
59.984,7.09
