timestamp,value
00.000,21.94
00.015,21.71
00.031,21.51
00.046,21.46
00.062,21.57
00.078,21.86
00.093,22.28
00.109,22.66
00.125,22.89
00.140,22.9
00.156,22.69
00.171,22.29
00.187,21.74
00.203,21.01
00.218,20.09
00.234,18.97
00.250,17.65
00.265,16.2
00.281,14.68
00.296,13.24
00.312,11.93
00.328,10.76
00.343,9.65
00.359,8.47
00.375,7.09
00.390,5.43
00.406,3.52
00.421,1.49
00.437,-0.52
00.453,-2.44
00.468,-4.26
00.484,-6.07
00.500,-7.91
00.515,-9.76
00.531,-11.55
00.546,-13.17
00.562,-14.6
00.578,-15.91
00.593,-17.27
00.609,-18.85
00.625,-20.73
00.640,-22.91
00.656,-25.3
00.671,-27.81
00.687,-30.34
00.703,-32.82
00.718,-35.0
00.734,-36.61
00.750,-37.25
00.765,-36.59
00.781,-34.58
00.796,-31.29
00.812,-27.09
00.828,-22.39
00.843,-17.57
00.859,-12.89
00.875,-8.48
00.890,-4.36
00.906,-0.5
00.921,3.07
00.937,6.39
00.953,9.47
00.968,12.34
00.984,14.99
01.000,17.43
01.015,19.53
01.031,21.16
01.046,22.17
01.062,22.51
01.078,22.24
01.093,21.55
01.109,20.68
01.125,19.85
01.140,19.23
01.156,18.89
01.171,18.85
01.187,19.09
01.203,19.6
01.218,20.33
01.234,21.15
01.250,21.9
01.265,22.45
01.281,22.68
01.296,22.57
01.312,22.16
01.328,21.5
01.343,20.64
01.359,19.67
01.375,18.64
01.390,17.63
01.406,16.67
01.421,15.75
01.437,14.83
01.453,13.85
01.468,12.73
01.484,11.42
01.500,9.91
01.515,8.18
01.531,6.25
01.546,4.16
01.562,1.98
01.578,-0.26
01.593,-2.49
01.609,-4.73
01.625,-7.05
01.640,-9.45
01.656,-11.91
01.671,-14.35
01.687,-16.64
01.703,-18.74
01.718,-20.68
01.734,-22.56
01.750,-24.59
01.765,-26.92
01.781,-29.63
01.796,-32.73
01.812,-36.07
01.828,-39.34
01.843,-42.09
01.859,-43.77
01.875,-43.89
01.890,-42.2
01.906,-38.75
01.921,-33.95
01.937,-28.47
01.953,-22.92
01.968,-17.73
01.984,-13.04
02.000,-8.75
02.015,-4.69
02.031,-0.73
02.046,3.1
02.062,6.75
02.078,10.11
02.093,13.08
02.109,15.57
02.125,17.53
02.140,18.91
02.156,19.64
02.171,19.73
02.187,19.27
02.203,18.46
02.218,17.62
02.234,17.04
02.250,16.91
02.265,17.28
02.281,18.07
02.296,19.06
02.312,20.04
02.328,20.88
02.343,21.51
02.359,21.93
02.375,22.13
02.390,22.06
02.406,21.64
02.421,20.84
02.437,19.71
02.453,18.4
02.468,17.14
02.484,16.04
02.500,15.13
02.515,14.24
02.531,13.25
02.546,11.99
02.562,10.5
02.578,8.89
02.593,7.3
02.609,5.78
02.625,4.25
02.640,2.56
02.656,0.48
02.671,-2.07
02.687,-5.07
02.703,-8.35
02.718,-11.66
02.734,-14.77
02.750,-17.55
02.765,-19.96
02.781,-22.05
02.796,-23.96
02.812,-25.87
02.828,-27.89
02.843,-30.13
02.859,-32.53
02.875,-34.95
02.890,-37.12
02.906,-38.68
02.921,-39.28
02.937,-38.69
02.953,-36.84
02.968,-33.86
02.984,-30.0
03.000,-25.58
03.015,-20.9
03.031,-16.25
03.046,-11.86
03.062,-7.84
03.078,-4.18
03.093,-0.79
03.109,2.49
03.125,5.67
03.140,8.7
03.156,11.36
03.171,13.41
03.187,14.68
03.203,15.16
03.218,15.06
03.234,14.65
03.250,14.24
03.265,14.0
03.281,14.0
03.296,14.27
03.312,14.78
03.328,15.48
03.343,16.31
03.359,17.22
03.375,18.13
03.390,18.98
03.406,19.7
03.421,20.28
03.437,20.67
03.453,20.79
03.468,20.56
03.484,19.94
03.500,18.97
03.515,17.73
03.531,16.26
03.546,14.61
03.562,12.76
03.578,10.73
03.593,8.58
03.609,6.43
03.625,4.38
03.640,2.54
03.656,0.9
03.671,-0.66
03.687,-2.22
03.703,-3.87
03.718,-5.63
03.734,-7.53
03.750,-9.6
03.765,-11.89
03.781,-14.44
03.796,-17.17
03.812,-19.97
03.828,-22.66
03.843,-25.11
03.859,-27.3
03.875,-29.36
03.890,-31.49
03.906,-33.85
03.921,-36.44
03.937,-39.0
03.953,-41.08
03.968,-42.22
03.984,-42.09
04.000,-40.61
04.015,-37.92
04.031,-34.32
04.046,-30.17
04.062,-25.78
04.078,-21.38
04.093,-17.13
04.109,-13.1
04.125,-9.29
04.140,-5.65
04.156,-2.06
04.171,1.56
04.187,5.21
04.203,8.84
04.218,12.28
04.234,15.34
04.250,17.84
04.265,19.68
04.281,20.81
04.296,21.35
04.312,21.47
04.328,21.41
04.343,21.38
04.359,21.44
04.375,21.59
04.390,21.75
04.406,21.82
04.421,21.73
04.437,21.46
04.453,21.07
04.468,20.6
04.484,20.09
04.500,19.5
04.515,18.77
04.531,17.89
04.546,16.9
04.562,15.93
04.578,15.06
04.593,14.38
04.609,13.84
04.625,13.3
04.640,12.57
04.656,11.49
04.671,10.04
04.687,8.24
04.703,6.26
04.718,4.17
04.734,2.01
04.750,-0.25
04.765,-2.68
04.781,-5.28
04.796,-8.04
04.812,-10.86
04.828,-13.67
04.843,-16.39
04.859,-18.99
04.875,-21.49
04.890,-23.85
04.906,-26.12
04.921,-28.34
04.937,-30.6
04.953,-33.04
04.968,-35.78
04.984,-38.82
05.000,-41.95
05.015,-44.81
05.031,-46.83
05.046,-47.54
05.062,-46.62
05.078,-44.07
05.093,-40.17
05.109,-35.47
05.125,-30.52
05.140,-25.72
05.156,-21.28
05.171,-17.1
05.187,-12.96
05.203,-8.6
05.218,-3.89
05.234,1.1
05.250,6.13
05.265,10.85
05.281,14.92
05.296,18.15
05.312,20.52
05.328,22.11
05.343,23.17
05.359,23.92
05.375,24.54
05.390,25.18
05.406,25.95
05.421,26.87
05.437,27.93
05.453,29.05
05.468,30.05
05.484,30.82
05.500,31.28
05.515,31.4
05.531,31.26
05.546,30.89
05.562,30.32
05.578,29.53
05.593,28.47
05.609,27.1
05.625,25.43
05.640,23.5
05.656,21.43
05.671,19.41
05.687,17.51
05.703,15.8
05.718,14.22
05.734,12.67
05.750,11.0
05.765,9.16
05.781,7.05
05.796,4.67
05.812,2.1
05.828,-0.67
05.843,-3.6
05.859,-6.62
05.875,-9.63
05.890,-12.55
05.906,-15.27
05.921,-17.73
05.937,-19.94
05.953,-21.9
05.968,-23.71
05.984,-25.45
06.000,-27.2
06.015,-29.07
06.031,-31.14
06.046,-33.46
06.062,-35.97
06.078,-38.45
06.093,-40.5
06.109,-41.71
06.125,-41.69
06.140,-40.27
06.156,-37.54
06.171,-33.79
06.187,-29.41
06.203,-24.77
06.218,-20.14
06.234,-15.62
06.250,-11.25
06.265,-6.92
06.281,-2.56
06.296,1.83
06.312,6.14
06.328,10.24
06.343,13.93
06.359,17.05
06.375,19.56
06.390,21.47
06.406,22.79
06.421,23.62
06.437,24.0
06.453,24.09
06.468,24.01
06.484,23.91
06.500,23.89
06.515,24.01
06.531,24.3
06.546,24.71
06.562,25.18
06.578,25.59
06.593,25.87
06.609,25.94
06.625,25.74
06.640,25.24
06.656,24.48
06.671,23.5
06.687,22.36
06.703,21.08
06.718,19.64
06.734,18.03
06.750,16.23
06.765,14.24
06.781,12.1
06.796,9.87
06.812,7.62
06.828,5.35
06.843,3.08
06.859,0.7
06.875,-1.86
06.890,-4.63
06.906,-7.59
06.921,-10.62
06.937,-13.6
06.953,-16.37
06.968,-18.92
06.984,-21.26
07.000,-23.64
07.015,-26.26
07.031,-29.33
07.046,-32.94
07.062,-36.94
07.078,-41.01
07.093,-44.58
07.109,-47.11
07.125,-48.06
07.140,-47.2
07.156,-44.55
07.171,-40.45
07.187,-35.37
07.203,-29.76
07.218,-24.07
07.234,-18.51
07.250,-13.17
07.265,-8.01
07.281,-2.97
07.296,1.96
07.312,6.72
07.328,11.19
07.343,15.26
07.359,18.78
07.375,21.64
07.390,23.82
07.406,25.34
07.421,26.26
07.437,26.72
07.453,26.88
07.468,26.91
07.484,26.88
07.500,26.81
07.515,26.65
07.531,26.34
07.546,25.86
07.562,25.19
07.578,24.37
07.593,23.44
07.609,22.4
07.625,21.3
07.640,20.22
07.656,19.26
07.671,18.44
07.687,17.71
07.703,16.92
07.718,15.86
07.734,14.47
07.750,12.72
07.765,10.79
07.781,8.85
07.796,7.05
07.812,5.37
07.828,3.73
07.843,1.94
07.859,-0.08
07.875,-2.31
07.890,-4.73
07.906,-7.18
07.921,-9.55
07.937,-11.76
07.953,-13.78
07.968,-15.64
07.984,-17.45
08.000,-19.4
08.015,-21.7
08.031,-24.51
08.046,-27.77
08.062,-31.26
08.078,-34.51
08.093,-37.0
08.109,-38.22
08.125,-37.87
08.140,-35.86
08.156,-32.36
08.171,-27.75
08.187,-22.4
08.203,-16.76
08.218,-11.11
08.234,-5.63
08.250,-0.38
08.265,4.62
08.281,9.36
08.296,13.75
08.312,17.68
08.328,21.08
08.343,23.92
08.359,26.23
08.375,28.09
08.390,29.5
08.406,30.42
08.421,30.86
08.437,30.89
08.453,30.7
08.468,30.55
08.484,30.67
08.500,31.14
08.515,31.87
08.531,32.63
08.546,33.2
08.562,33.39
08.578,33.14
08.593,32.49
08.609,31.51
08.625,30.2
08.640,28.59
08.656,26.73
08.671,24.62
08.687,22.43
08.703,20.33
08.718,18.48
08.734,16.92
08.750,15.62
08.765,14.37
08.781,12.94
08.796,11.22
08.812,9.11
08.828,6.73
08.843,4.23
08.859,1.72
08.875,-0.77
08.890,-3.28
08.906,-5.97
08.921,-8.93
08.937,-12.12
08.953,-15.45
08.968,-18.74
08.984,-21.86
09.000,-24.77
09.015,-27.52
09.031,-30.24
09.046,-33.04
09.062,-35.9
09.078,-38.67
09.093,-41.13
09.109,-42.92
09.125,-43.69
09.140,-43.21
09.156,-41.33
09.171,-38.11
09.187,-33.79
09.203,-28.7
09.218,-23.24
09.234,-17.79
09.250,-12.6
09.265,-7.82
09.281,-3.56
09.296,0.24
09.312,3.71
09.328,6.96
09.343,10.11
09.359,13.18
09.375,16.03
09.390,18.5
09.406,20.44
09.421,21.7
09.437,22.37
09.453,22.64
09.468,22.78
09.484,22.98
09.500,23.32
09.515,23.67
09.531,23.86
09.546,23.82
09.562,23.51
09.578,23.12
09.593,22.8
09.609,22.65
09.625,22.6
09.640,22.46
09.656,22.01
09.671,21.12
09.687,19.81
09.703,18.18
09.718,16.41
09.734,14.6
09.750,12.79
09.765,11.0
09.781,9.19
09.796,7.39
09.812,5.71
09.828,4.27
09.843,3.16
09.859,2.45
09.875,2.04
09.890,1.76
09.906,1.43
09.921,0.9
09.937,0.05
09.953,-1.14
09.968,-2.68
09.984,-4.58
10.000,-6.82
10.015,-9.42
10.031,-12.35
10.046,-15.58
10.062,-19.07
10.078,-22.75
10.093,-26.51
10.109,-30.23
10.125,-33.7
10.140,-36.68
10.156,-38.94
10.171,-40.27
10.187,-40.45
10.203,-39.33
10.218,-36.92
10.234,-33.35
10.250,-28.89
10.265,-23.91
10.281,-18.73
10.296,-13.61
10.312,-8.67
10.328,-3.93
10.343,0.61
10.359,4.91
10.375,8.87
10.390,12.39
10.406,15.34
10.421,17.7
10.437,19.47
10.453,20.68
10.468,21.4
10.484,21.71
10.500,21.77
10.515,21.71
10.531,21.7
10.546,21.8
10.562,22.04
10.578,22.36
10.593,22.67
10.609,22.89
10.625,22.95
10.640,22.75
10.656,22.28
10.671,21.49
10.687,20.33
10.703,18.9
10.718,17.27
10.734,15.53
10.750,13.7
10.765,11.69
10.781,9.34
10.796,6.51
10.812,3.09
10.828,-0.96
10.843,-5.55
10.859,-10.51
10.875,-15.64
10.890,-20.71
10.906,-25.61
10.921,-30.25
10.937,-34.6
10.953,-38.61
10.968,-42.26
10.984,-45.52
11.000,-48.37
11.015,-50.89
11.031,-53.21
11.046,-55.48
11.062,-57.84
11.078,-60.35
11.093,-63.01
11.109,-65.76
11.125,-68.44
11.140,-70.74
11.156,-72.24
11.171,-72.41
11.187,-70.77
11.203,-67.03
11.218,-61.17
11.234,-53.5
11.250,-44.57
11.265,-35.07
11.281,-25.64
11.296,-16.87
11.312,-9.08
11.328,-2.38
11.343,3.27
11.359,8.1
11.375,12.32
11.390,16.11
11.406,19.5
11.421,22.43
11.437,24.72
11.453,26.33
11.468,27.27
11.484,27.61
11.500,27.54
11.515,27.22
11.531,26.76
11.546,26.28
11.562,25.86
11.578,25.58
11.593,25.54
11.609,25.8
11.625,26.27
11.640,26.79
11.656,27.11
11.671,27.04
11.687,26.53
11.703,25.68
11.718,24.66
11.734,23.72
11.750,23.01
11.765,22.49
11.781,22.04
11.796,21.37
11.812,20.25
11.828,18.58
11.843,16.39
11.859,13.88
11.875,11.34
11.890,8.99
11.906,6.92
11.921,5.14
11.937,3.53
11.953,1.93
11.968,0.28
11.984,-1.52
12.000,-3.41
12.015,-5.39
12.031,-7.37
12.046,-9.3
12.062,-11.05
12.078,-12.6
12.093,-13.95
12.109,-15.22
12.125,-16.6
12.140,-18.26
12.156,-20.36
12.171,-22.9
12.187,-25.75
12.203,-28.58
12.218,-31.0
12.234,-32.51
12.250,-32.75
12.265,-31.51
12.281,-28.85
12.296,-25.14
12.312,-20.86
12.328,-16.57
12.343,-12.59
12.359,-9.12
12.375,-6.08
12.390,-3.35
12.406,-0.81
12.421,1.62
12.437,3.96
12.453,6.29
12.468,8.75
12.484,11.49
12.500,14.58
12.515,17.94
12.531,21.32
12.546,24.39
12.562,26.89
12.578,28.68
12.593,29.87
12.609,30.63
12.625,31.17
12.640,31.68
12.656,32.23
12.671,32.79
12.687,33.33
12.703,33.79
12.718,34.13
12.734,34.39
12.750,34.59
12.765,34.75
12.781,34.89
12.796,35.07
12.812,35.3
12.828,35.66
12.843,36.25
12.859,37.14
12.875,38.32
12.890,39.65
12.906,40.89
12.921,41.81
12.937,42.16
12.953,41.86
12.968,40.83
12.984,39.09
13.000,36.7
13.015,33.76
13.031,30.44
13.046,26.93
13.062,23.48
13.078,20.22
13.093,17.16
13.109,14.16
13.125,10.97
13.140,7.3
13.156,2.99
13.171,-1.98
13.187,-7.46
13.203,-13.15
13.218,-18.84
13.234,-24.23
13.250,-29.11
13.265,-33.24
13.281,-36.34
13.296,-38.13
13.312,-38.38
13.328,-37.06
13.343,-34.33
13.359,-30.58
13.375,-26.23
13.390,-21.74
13.406,-17.45
13.421,-13.48
13.437,-9.89
13.453,-6.66
13.468,-3.77
13.484,-1.23
13.500,0.94
13.515,2.74
13.531,4.14
13.546,5.13
13.562,5.75
13.578,6.02
13.593,6.0
13.609,5.8
13.625,5.53
13.640,5.35
13.656,5.36
13.671,5.63
13.687,6.1
13.703,6.76
13.718,7.52
13.734,8.34
13.750,9.19
13.765,10.03
13.781,10.92
13.796,11.88
13.812,12.98
13.828,14.14
13.843,15.28
13.859,16.15
13.875,16.63
13.890,16.65
13.906,16.17
13.921,15.22
13.937,13.82
13.953,12.0
13.968,9.77
13.984,7.17
14.000,4.33
14.015,1.39
14.031,-1.42
14.046,-4.07
14.062,-6.55
14.078,-8.9
14.093,-11.21
14.109,-13.46
14.125,-15.65
14.140,-17.73
14.156,-19.74
14.171,-21.7
14.187,-23.74
14.203,-25.97
14.218,-28.41
14.234,-31.06
14.250,-33.74
14.265,-36.21
14.281,-38.14
14.296,-39.23
14.312,-39.16
14.328,-37.82
14.343,-35.22
14.359,-31.57
14.375,-27.27
14.390,-22.66
14.406,-18.05
14.421,-13.67
14.437,-9.66
14.453,-6.04
14.468,-2.84
14.484,-0.04
14.500,2.49
14.515,4.77
14.531,6.87
14.546,8.74
14.562,10.27
14.578,11.35
14.593,11.96
14.609,12.17
14.625,12.06
14.640,11.84
14.656,11.62
14.671,11.44
14.687,11.22
14.703,10.87
14.718,10.38
14.734,9.86
14.750,9.46
14.765,9.34
14.781,9.64
14.796,10.35
14.812,11.36
14.828,12.45
14.843,13.42
14.859,14.1
14.875,14.4
14.890,14.33
14.906,13.89
14.921,13.17
14.937,12.24
14.953,11.17
14.968,10.04
14.984,8.88
15.000,7.69
15.015,6.38
15.031,4.92
15.046,3.2
15.062,1.17
15.078,-1.18
15.093,-3.83
15.109,-6.7
15.125,-9.67
15.140,-12.64
15.156,-15.49
15.171,-18.2
15.187,-20.85
15.203,-23.64
15.218,-26.75
15.234,-30.25
15.250,-33.97
15.265,-37.47
15.281,-40.18
15.296,-41.53
15.312,-41.24
15.328,-39.33
15.343,-36.13
15.359,-32.1
15.375,-27.69
15.390,-23.19
15.406,-18.8
15.421,-14.63
15.437,-10.74
15.453,-7.1
15.468,-3.62
15.484,-0.23
15.500,3.12
15.515,6.35
15.531,9.29
15.546,11.67
15.562,13.26
15.578,13.91
15.593,13.62
15.609,12.55
15.625,11.0
15.640,9.32
15.656,7.89
15.671,7.04
15.687,6.97
15.703,7.69
15.718,9.07
15.734,10.82
15.750,12.65
15.765,14.34
15.781,15.72
15.796,16.72
15.812,17.35
15.828,17.62
15.843,17.55
15.859,17.09
15.875,16.19
15.890,14.82
15.906,13.03
15.921,10.92
15.937,8.63
15.953,6.25
15.968,3.85
15.984,1.51
16.000,-0.67
16.015,-2.56
16.031,-4.02
16.046,-5.03
16.062,-5.63
16.078,-5.97
16.093,-6.37
16.109,-7.05
16.125,-8.18
16.140,-9.84
16.156,-11.99
16.171,-14.51
16.187,-17.24
16.203,-20.03
16.218,-22.67
16.234,-25.1
16.250,-27.26
16.265,-29.2
16.281,-31.07
16.296,-32.98
16.312,-35.0
16.328,-37.11
16.343,-39.06
16.359,-40.5
16.375,-41.0
16.390,-40.15
16.406,-37.73
16.421,-33.72
16.437,-28.37
16.453,-22.14
16.468,-15.61
16.484,-9.32
16.500,-3.69
16.515,1.07
16.531,4.9
16.546,7.9
16.562,10.28
16.578,12.34
16.593,14.28
16.609,16.2
16.625,18.05
16.640,19.59
16.656,20.6
16.671,20.85
16.687,20.34
16.703,19.19
16.718,17.74
16.734,16.35
16.750,15.31
16.765,14.82
16.781,14.9
16.796,15.51
16.812,16.58
16.828,17.98
16.843,19.55
16.859,21.12
16.875,22.54
16.890,23.67
16.906,24.44
16.921,24.85
16.937,24.85
16.953,24.45
16.968,23.65
16.984,22.46
17.000,20.95
17.015,19.16
17.031,17.19
17.046,15.08
17.062,12.89
17.078,10.7
17.093,8.63
17.109,6.73
17.125,5.08
17.140,3.62
17.156,2.29
17.171,0.97
17.187,-0.5
17.203,-2.24
17.218,-4.38
17.234,-6.95
17.250,-9.89
17.265,-13.02
17.281,-16.12
17.296,-18.93
17.312,-21.31
17.328,-23.25
17.343,-24.89
17.359,-26.47
17.375,-28.27
17.390,-30.55
17.406,-33.41
17.421,-36.74
17.437,-40.17
17.453,-43.19
17.468,-45.24
17.484,-45.82
17.500,-44.72
17.515,-42.04
17.531,-38.12
17.546,-33.46
17.562,-28.51
17.578,-23.57
17.593,-18.74
17.609,-14.09
17.625,-9.59
17.640,-5.25
17.656,-1.09
17.671,2.85
17.687,6.53
17.703,9.89
17.718,12.81
17.734,15.15
17.750,16.8
17.765,17.7
17.781,17.86
17.796,17.46
17.812,16.72
17.828,15.9
17.843,15.27
17.859,15.0
17.875,15.21
17.890,15.87
17.906,16.87
17.921,18.01
17.937,19.08
17.953,19.9
17.968,20.3
17.984,20.26
18.000,19.81
18.015,19.06
18.031,18.19
18.046,17.34
18.062,16.57
18.078,15.89
18.093,15.23
18.109,14.52
18.125,13.75
18.140,12.91
18.156,12.08
18.171,11.25
18.187,10.44
18.203,9.57
18.218,8.56
18.234,7.3
18.250,5.71
18.265,3.72
18.281,1.28
18.296,-1.59
18.312,-4.75
18.328,-8.0
18.343,-11.1
18.359,-13.92
18.375,-16.46
18.390,-18.9
18.406,-21.46
18.421,-24.33
18.437,-27.53
18.453,-30.85
18.468,-33.97
18.484,-36.45
18.500,-37.89
18.515,-37.98
18.531,-36.55
18.546,-33.58
18.562,-29.28
18.578,-23.98
18.593,-18.12
18.609,-12.21
18.625,-6.64
18.640,-1.7
18.656,2.55
18.671,6.18
18.687,9.36
18.703,12.29
18.718,15.11
18.734,17.85
18.750,20.43
18.765,22.59
18.781,24.15
18.796,24.92
18.812,24.95
18.828,24.47
18.843,23.77
18.859,23.17
18.875,22.82
18.890,22.72
18.906,22.76
18.921,22.82
18.937,22.88
18.953,22.95
18.968,23.02
18.984,23.01
19.000,22.75
19.015,22.12
19.031,21.1
19.046,19.78
19.062,18.34
19.078,16.95
19.093,15.71
19.109,14.66
19.125,13.77
19.140,12.94
19.156,12.09
19.171,11.16
19.187,10.15
19.203,9.12
19.218,8.11
19.234,7.17
19.250,6.28
19.265,5.35
19.281,4.22
19.296,2.75
19.312,0.9
19.328,-1.33
19.343,-3.92
19.359,-6.83
19.375,-10.13
19.390,-13.72
19.406,-17.48
19.421,-21.24
19.437,-24.8
19.453,-28.05
19.468,-31.03
19.484,-33.88
19.500,-36.76
19.515,-39.83
19.531,-43.05
19.546,-46.22
19.562,-48.92
19.578,-50.66
19.593,-50.98
19.609,-49.6
19.625,-46.48
19.640,-41.91
19.656,-36.39
19.671,-30.46
19.687,-24.53
19.703,-18.82
19.718,-13.39
19.734,-8.27
19.750,-3.53
19.765,0.85
19.781,4.82
19.796,8.45
19.812,11.83
19.828,14.97
19.843,17.86
19.859,20.36
19.875,22.27
19.890,23.5
19.906,24.19
19.921,24.64
19.937,25.2
19.953,26.19
19.968,27.66
19.984,29.51
20.000,31.48
20.015,33.25
20.031,34.53
20.046,35.16
20.062,35.08
20.078,34.35
20.093,33.13
20.109,31.58
20.125,29.85
20.140,28.05
20.156,26.26
20.171,24.52
20.187,22.85
20.203,21.2
20.218,19.58
20.234,17.96
20.250,16.32
20.265,14.66
20.281,13.05
20.296,11.58
20.312,10.3
20.328,9.16
20.343,8.07
20.359,6.95
20.375,5.75
20.390,4.45
20.406,3.07
20.421,1.56
20.437,-0.15
20.453,-2.14
20.468,-4.49
20.484,-7.14
20.500,-10.02
20.515,-12.95
20.531,-15.85
20.546,-18.62
20.562,-21.32
20.578,-23.96
20.593,-26.66
20.609,-29.49
20.625,-32.56
20.640,-35.97
20.656,-39.6
20.671,-43.22
20.687,-46.34
20.703,-48.47
20.718,-49.13
20.734,-48.05
20.750,-45.26
20.765,-41.05
20.781,-35.9
20.796,-30.29
20.812,-24.65
20.828,-19.19
20.843,-14.01
20.859,-9.06
20.875,-4.26
20.890,0.46
20.906,5.08
20.921,9.47
20.937,13.47
20.953,16.91
20.968,19.71
20.984,21.86
21.000,23.4
21.015,24.4
21.031,24.94
21.046,25.14
21.062,25.15
21.078,25.18
21.093,25.43
21.109,26.09
21.125,27.17
21.140,28.51
21.156,29.77
21.171,30.57
21.187,30.63
21.203,29.87
21.218,28.53
21.234,26.99
21.250,25.61
21.265,24.56
21.281,23.76
21.296,22.91
21.312,21.74
21.328,20.14
21.343,18.23
21.359,16.24
21.375,14.37
21.390,12.7
21.406,11.16
21.421,9.64
21.437,8.02
21.453,6.29
21.468,4.47
21.484,2.61
21.500,0.76
21.515,-1.04
21.531,-2.85
21.546,-4.68
21.562,-6.61
21.578,-8.76
21.593,-11.19
21.609,-13.94
21.625,-16.87
21.640,-19.75
21.656,-22.38
21.671,-24.67
21.687,-26.64
21.703,-28.51
21.718,-30.54
21.734,-32.85
21.750,-35.45
21.765,-38.06
21.781,-40.21
21.796,-41.37
21.812,-41.16
21.828,-39.33
21.843,-35.97
21.859,-31.43
21.875,-26.11
21.890,-20.49
21.906,-14.93
21.921,-9.72
21.937,-5.02
21.953,-0.88
21.968,2.72
21.984,5.88
22.000,8.67
22.015,11.22
22.031,13.6
22.046,15.78
22.062,17.71
22.078,19.3
22.093,20.55
22.109,21.42
22.125,21.99
22.140,22.29
22.156,22.41
22.171,22.4
22.187,22.33
22.203,22.33
22.218,22.47
22.234,22.91
22.250,23.63
22.265,24.58
22.281,25.52
22.296,26.23
22.312,26.51
22.328,26.25
22.343,25.48
22.359,24.24
22.375,22.65
22.390,20.78
22.406,18.73
22.421,16.56
22.437,14.37
22.453,12.25
22.468,10.22
22.484,8.25
22.500,6.3
22.515,4.31
22.531,2.25
22.546,0.16
22.562,-1.91
22.578,-3.94
22.593,-5.9
22.609,-7.87
22.625,-9.91
22.640,-12.1
22.656,-14.5
22.671,-17.08
22.687,-19.71
22.703,-22.26
22.718,-24.67
22.734,-26.99
22.750,-29.42
22.765,-32.16
22.781,-35.35
22.796,-38.93
22.812,-42.63
22.828,-45.99
22.843,-48.48
22.859,-49.59
22.875,-49.01
22.890,-46.64
22.906,-42.64
22.921,-37.4
22.937,-31.4
22.953,-25.09
22.968,-18.82
22.984,-12.84
23.000,-7.24
23.015,-1.99
23.031,2.94
23.046,7.63
23.062,12.11
23.078,16.34
23.093,20.22
23.109,23.62
23.125,26.29
23.140,28.1
23.156,28.93
23.171,28.88
23.187,28.23
23.203,27.39
23.218,26.79
23.234,26.69
23.250,27.13
23.265,27.87
23.281,28.57
23.296,28.81
23.312,28.32
23.328,27.04
23.343,25.02
23.359,22.47
23.375,19.7
23.390,17.03
23.406,14.72
23.421,12.98
23.437,11.79
23.453,10.98
23.468,10.34
23.484,9.65
23.500,8.75
23.515,7.63
23.531,6.28
23.546,4.71
23.562,2.92
23.578,0.89
23.593,-1.35
23.609,-3.73
23.625,-6.19
23.640,-8.61
23.656,-10.89
23.671,-13.03
23.687,-15.1
23.703,-17.16
23.718,-19.3
23.734,-21.5
23.750,-23.66
23.765,-25.66
23.781,-27.31
23.796,-28.55
23.812,-29.5
23.828,-30.47
23.843,-31.78
23.859,-33.77
23.875,-36.54
23.890,-39.82
23.906,-43.12
23.921,-45.7
23.937,-46.88
23.953,-46.3
23.968,-43.92
23.984,-40.02
24.000,-35.0
24.015,-29.24
24.031,-22.95
24.046,-16.36
24.062,-9.68
24.078,-3.2
24.093,2.72
24.109,7.85
24.125,12.13
24.140,15.76
24.156,19.02
24.171,22.14
24.187,25.14
24.203,27.82
24.218,29.99
24.234,31.47
24.250,32.32
24.265,32.72
24.281,32.89
24.296,33.02
24.312,33.22
24.328,33.45
24.343,33.69
24.359,33.92
24.375,34.1
24.390,34.19
24.406,34.11
24.421,33.78
24.437,33.17
24.453,32.3
24.468,31.18
24.484,29.85
24.500,28.32
24.515,26.65
24.531,24.99
24.546,23.43
24.562,22.09
24.578,21.02
24.593,20.13
24.609,19.24
24.625,18.13
24.640,16.73
24.656,15.03
24.671,13.26
24.687,11.58
24.703,10.1
24.718,8.85
24.734,7.66
24.750,6.33
24.765,4.6
24.781,2.4
24.796,-0.23
24.812,-3.03
24.828,-5.68
24.843,-7.92
24.859,-9.59
24.875,-10.78
24.890,-11.74
24.906,-12.82
24.921,-14.26
24.937,-16.03
24.953,-17.88
24.968,-19.38
24.984,-20.07
25.000,-19.49
25.015,-17.38
25.031,-13.67
25.046,-8.55
25.062,-2.43
25.078,4.28
25.093,11.18
25.109,17.93
25.125,24.42
25.140,30.84
25.156,37.45
25.171,44.36
25.187,51.13
25.203,56.71
25.218,59.77
25.234,59.0
25.250,53.53
25.265,43.42
25.281,29.8
25.296,14.57
25.312,-0.27
25.328,-13.3
25.343,-24.05
25.359,-32.75
25.375,-40.41
25.390,-48.53
25.406,-58.48
25.421,-71.0
25.437,-85.81
25.453,-101.67
25.468,-116.81
25.484,-129.33
25.500,-137.33
25.515,-137.73
25.531,-128.55
25.546,-110.13
25.562,-85.38
25.578,-58.57
25.593,-33.42
25.609,-12.21
25.625,4.15
25.640,17.18
25.656,28.16
25.671,37.76
25.687,46.3
25.703,54.19
25.718,61.84
25.734,69.69
25.750,78.14
25.765,85.35
25.781,90.48
25.796,92.97
25.812,92.63
25.828,89.55
25.843,84.08
25.859,76.49
25.875,66.85
25.890,55.05
25.906,41.15
25.921,25.95
25.937,10.53
25.953,-3.84
25.968,-16.12
25.984,-25.52
26.000,-31.68
26.015,-34.61
26.031,-34.49
26.046,-31.63
26.062,-26.24
26.078,-18.8
26.093,-9.95
26.109,-0.42
26.125,9.38
26.140,19.43
26.156,30.0
26.171,41.39
26.187,53.5
26.203,65.96
26.218,77.96
26.234,88.65
26.250,97.34
26.265,103.66
26.281,107.46
26.296,108.67
26.312,107.32
26.328,103.56
26.343,97.86
26.359,90.85
26.375,83.32
26.390,75.8
26.406,68.43
26.421,60.94
26.437,52.79
26.453,43.57
26.468,33.14
26.484,21.81
26.500,10.25
26.515,-0.81
26.531,-10.92
26.546,-20.08
26.562,-28.84
26.578,-38.02
26.593,-48.49
26.609,-60.87
26.625,-75.28
26.640,-91.22
26.656,-107.76
26.671,-123.69
26.687,-137.6
26.703,-148.0
26.718,-153.53
26.734,-153.33
26.750,-147.48
26.765,-137.19
26.781,-124.41
26.796,-111.2
26.812,-99.04
26.828,-88.26
26.843,-78.24
26.859,-67.95
26.875,-56.73
26.890,-44.62
26.906,-32.32
26.921,-20.73
26.937,-10.5
26.953,-2.01
26.968,4.52
26.984,8.97
27.000,11.4
27.015,12.13
27.031,11.63
27.046,10.19
27.062,7.64
27.078,3.37
27.093,-3.1
27.109,-11.57
27.125,-20.47
27.140,-27.05
27.156,-28.61
27.171,-23.89
27.187,-13.85
27.203,-1.09
27.218,11.48
27.234,22.05
27.250,30.03
27.265,36.15
27.281,41.33
27.296,45.58
27.312,47.68
27.328,45.95
27.343,39.33
27.359,28.09
27.375,13.78
27.390,-2.15
27.406,-18.08
27.421,-32.82
27.437,-45.93
27.453,-57.74
27.468,-68.88
27.484,-79.71
27.500,-90.14
27.515,-99.04
27.531,-105.61
27.546,-108.11
27.562,-104.77
27.578,-94.74
27.593,-78.41
27.609,-56.82
27.625,-30.94
27.640,-1.62
27.656,35.33
27.671,78.84
27.687,123.66
27.703,162.06
27.718,187.72
27.734,197.84
27.750,192.9
27.765,175.29
27.781,147.78
27.796,114.11
27.812,76.39
27.828,38.39
27.843,4.57
27.859,-21.99
27.875,-40.8
27.890,-53.75
27.906,-64.2
27.921,-76.62
27.937,-90.8
27.953,-107.42
27.968,-125.81
27.984,-144.26
28.000,-160.81
28.015,-173.23
28.031,-179.11
28.046,-170.32
28.062,-143.46
28.078,-101.38
28.093,-53.57
28.109,-10.16
28.125,22.74
28.140,43.98
28.156,54.65
28.171,58.05
28.187,56.04
28.203,48.66
28.218,36.61
28.234,21.28
28.250,5.12
28.265,-9.29
28.281,-21.65
28.296,-33.71
28.312,-48.31
28.328,-68.46
28.343,-96.53
28.359,-132.33
28.375,-172.54
28.390,-210.08
28.406,-235.17
28.421,-238.24
28.437,-213.08
28.453,-159.53
28.468,-84.76
28.484,-1.6
28.500,76.29
28.515,138.75
28.531,182.13
28.546,208.65
28.562,223.1
28.578,229.3
28.593,228.29
28.609,218.8
28.625,199.77
28.640,172.91
28.656,143.28
28.671,117.7
28.687,101.7
28.703,96.92
28.718,100.31
28.734,105.5
28.750,105.46
28.765,95.38
28.781,74.38
28.796,45.44
28.812,13.83
28.828,-15.19
28.843,-38.19
28.859,-54.21
28.875,-64.38
28.890,-70.65
28.906,-74.5
28.921,-76.27
28.937,-75.4
28.953,-71.19
28.968,-63.71
28.984,-54.09
29.000,-44.16
29.015,-35.75
29.031,-29.7
29.046,-25.59
29.062,-22.09
29.078,-17.74
29.093,-11.59
29.109,-3.82
29.125,4.56
29.140,12.17
29.156,17.79
29.171,20.98
29.187,22.09
29.203,22.08
29.218,21.96
29.234,22.52
29.250,23.98
29.265,26.0
29.281,27.97
29.296,29.28
29.312,29.63
29.328,29.15
29.343,28.27
29.359,27.45
29.375,27.01
29.390,26.86
29.406,26.69
29.421,26.13
29.437,25.02
29.453,23.42
29.468,21.63
29.484,19.93
29.500,18.5
29.515,17.33
29.531,16.19
29.546,14.86
29.562,13.14
29.578,10.89
29.593,8.16
29.609,5.04
29.625,1.67
29.640,-1.85
29.656,-5.39
29.671,-8.89
29.687,-12.33
29.703,-15.68
29.718,-19.02
29.734,-22.45
29.750,-26.11
29.765,-30.11
29.781,-34.55
29.796,-39.36
29.812,-44.35
29.828,-49.14
29.843,-53.21
29.859,-55.95
29.875,-56.8
29.890,-55.37
29.906,-51.62
29.921,-45.9
29.937,-38.88
29.953,-31.37
29.968,-24.01
29.984,-17.21
30.000,-11.05
30.015,-5.35
30.031,0.04
30.046,5.23
30.062,10.29
30.078,15.16
30.093,19.83
30.109,24.29
30.125,28.41
30.140,32.03
30.156,34.95
30.171,36.97
30.187,38.01
30.203,38.2
30.218,37.81
30.234,37.19
30.250,36.64
30.265,36.3
30.281,36.13
30.296,36.02
30.312,35.77
30.328,35.3
30.343,34.52
30.359,33.45
30.375,32.14
30.390,30.71
30.406,29.24
30.421,27.86
30.437,26.64
30.453,25.56
30.468,24.55
30.484,23.44
30.500,22.02
30.515,20.24
30.531,18.16
30.546,15.92
30.562,13.69
30.578,11.48
30.593,9.13
30.609,6.43
30.625,3.2
30.640,-0.62
30.656,-4.85
30.671,-9.2
30.687,-13.41
30.703,-17.32
30.718,-20.97
30.734,-24.53
30.750,-28.16
30.765,-32.03
30.781,-36.27
30.796,-40.82
30.812,-45.46
30.828,-49.82
30.843,-53.41
30.859,-55.69
30.875,-56.22
30.890,-54.85
30.906,-51.73
30.921,-47.28
30.937,-42.04
30.953,-36.47
30.968,-30.75
30.984,-24.93
31.000,-18.96
31.015,-12.81
31.031,-6.58
31.046,-0.44
31.062,5.47
31.078,11.03
31.093,16.15
31.109,20.76
31.125,24.78
31.140,28.05
31.156,30.55
31.171,32.34
31.187,33.56
31.203,34.52
31.218,35.45
31.234,36.44
31.250,37.51
31.265,38.57
31.281,39.47
31.296,40.11
31.312,40.37
31.328,40.21
31.343,39.6
31.359,38.52
31.375,36.97
31.390,35.05
31.406,32.9
31.421,30.66
31.437,28.48
31.453,26.36
31.468,24.24
31.484,22.09
31.500,19.86
31.515,17.62
31.531,15.54
31.546,13.7
31.562,12.1
31.578,10.62
31.593,9.02
31.609,7.01
31.625,4.47
31.640,1.35
31.656,-2.18
31.671,-5.85
31.687,-9.5
31.703,-13.1
31.718,-16.75
31.734,-20.69
31.750,-25.09
31.765,-29.95
31.781,-35.13
31.796,-40.24
31.812,-44.77
31.828,-48.19
31.843,-50.0
31.859,-49.82
31.875,-47.49
31.890,-43.08
31.906,-36.94
31.921,-29.65
31.937,-21.86
31.953,-14.08
31.968,-6.71
31.984,0.14
32.000,6.48
32.015,12.31
32.031,17.59
32.046,22.18
32.062,25.96
32.078,28.88
32.093,31.05
32.109,32.57
32.125,33.63
32.140,34.22
32.156,34.38
32.171,34.16
32.187,33.76
32.203,33.47
32.218,33.6
32.234,34.29
32.250,35.39
32.265,36.62
32.281,37.55
32.296,37.87
32.312,37.43
32.328,36.26
32.343,34.51
32.359,32.4
32.375,30.12
32.390,27.79
32.406,25.47
32.421,23.18
32.437,20.85
32.453,18.47
32.468,15.99
32.484,13.44
32.500,10.95
32.515,8.59
32.531,6.38
32.546,4.24
32.562,2.02
32.578,-0.43
32.593,-3.17
32.609,-6.2
32.625,-9.44
32.640,-12.79
32.656,-16.17
32.671,-19.52
32.687,-22.82
32.703,-26.06
32.718,-29.24
32.734,-32.4
32.750,-35.6
32.765,-38.93
32.781,-42.43
32.796,-45.99
32.812,-49.26
32.828,-51.7
32.843,-52.66
32.859,-51.58
32.875,-48.21
32.890,-42.7
32.906,-35.64
32.921,-27.85
32.937,-20.07
32.953,-12.81
32.968,-6.26
32.984,-0.46
33.000,4.68
33.015,9.24
33.031,13.24
33.046,16.76
33.062,19.92
33.078,22.84
33.093,25.58
33.109,28.14
33.125,30.27
33.140,31.75
33.156,32.45
33.171,32.46
33.187,32.1
33.203,31.79
33.218,31.85
33.234,32.38
33.250,33.24
33.265,34.08
33.281,34.56
33.296,34.44
33.312,33.69
33.328,32.47
33.343,30.98
33.359,29.41
33.375,27.76
33.390,26.08
33.406,24.34
33.421,22.61
33.437,20.84
33.453,18.98
33.468,16.91
33.484,14.51
33.500,11.69
33.515,8.46
33.531,5.0
33.546,1.54
33.562,-1.68
33.578,-4.6
33.593,-7.32
33.609,-10.04
33.625,-12.9
33.640,-15.97
33.656,-19.12
33.671,-22.15
33.687,-24.89
33.703,-27.31
33.718,-29.5
33.734,-31.71
33.750,-34.18
33.765,-37.09
33.781,-40.48
33.796,-44.23
33.812,-48.08
33.828,-51.71
33.843,-54.71
33.859,-56.6
33.875,-56.94
33.890,-55.35
33.906,-51.78
33.921,-46.4
33.937,-39.73
33.953,-32.37
33.968,-24.89
33.984,-17.73
34.000,-11.0
34.015,-4.77
34.031,1.0
34.046,6.29
34.062,11.02
34.078,15.06
34.093,18.42
34.109,21.12
34.125,23.24
34.140,24.86
34.156,25.93
34.171,26.44
34.187,26.4
34.203,25.98
34.218,25.4
34.234,25.01
34.250,24.98
34.265,25.34
34.281,25.98
34.296,26.6
34.312,27.09
34.328,27.32
34.343,27.28
34.359,26.96
34.375,26.3
34.390,25.2
34.406,23.65
34.421,21.76
34.437,19.63
34.453,17.47
34.468,15.38
34.484,13.37
34.500,11.4
34.515,9.32
34.531,7.06
34.546,4.61
34.562,2.09
34.578,-0.44
34.593,-2.9
34.609,-5.27
34.625,-7.66
34.640,-10.15
34.656,-12.81
34.671,-15.57
34.687,-18.34
34.703,-20.99
34.718,-23.5
34.734,-25.92
34.750,-28.39
34.765,-31.06
34.781,-34.02
34.796,-37.32
34.812,-40.89
34.828,-44.64
34.843,-48.35
34.859,-51.54
34.875,-53.61
34.890,-54.01
34.906,-52.38
34.921,-48.74
34.937,-43.6
34.953,-37.61
34.968,-31.44
34.984,-25.49
35.000,-19.84
35.015,-14.45
35.031,-9.19
35.046,-4.07
35.062,0.83
35.078,5.38
35.093,9.45
35.109,12.96
35.125,15.87
35.140,18.17
35.156,19.87
35.171,20.99
35.187,21.66
35.203,22.07
35.218,22.43
35.234,22.88
35.250,23.43
35.265,23.94
35.281,24.29
35.296,24.34
35.312,24.09
35.328,23.65
35.343,23.08
35.359,22.44
35.375,21.69
35.390,20.78
35.406,19.68
35.421,18.51
35.437,17.39
35.453,16.37
35.468,15.38
35.484,14.13
35.500,12.39
35.515,10.06
35.531,7.31
35.546,4.38
35.562,1.55
35.578,-1.11
35.593,-3.71
35.609,-6.5
35.625,-9.67
35.640,-13.24
35.656,-16.97
35.671,-20.56
35.687,-23.84
35.703,-26.8
35.718,-29.61
35.734,-32.52
35.750,-35.67
35.765,-39.15
35.781,-42.93
35.796,-46.94
35.812,-51.05
35.828,-55.07
35.843,-58.7
35.859,-61.4
35.875,-62.49
35.890,-61.3
35.906,-57.48
35.921,-51.2
35.937,-43.18
35.953,-34.44
35.968,-26.0
35.984,-18.49
36.000,-12.02
36.015,-6.25
36.031,-0.74
36.046,4.8
36.062,10.33
36.078,15.55
36.093,20.13
36.109,23.85
36.125,26.73
36.140,28.89
36.156,30.49
36.171,31.59
36.187,32.18
36.203,32.29
36.218,32.04
36.234,31.64
36.250,31.36
36.265,31.39
36.281,31.73
36.296,32.3
36.312,32.9
36.328,33.3
36.343,33.33
36.359,33.0
36.375,32.44
36.390,31.76
36.406,31.13
36.421,30.49
36.437,29.77
36.453,28.85
36.468,27.64
36.484,26.14
36.500,24.37
36.515,22.41
36.531,20.17
36.546,17.63
36.562,14.68
36.578,11.31
36.593,7.61
36.609,3.7
36.625,-0.31
36.640,-4.4
36.656,-8.51
36.671,-12.74
36.687,-17.04
36.703,-21.36
36.718,-25.55
36.734,-29.48
36.750,-33.04
36.765,-36.27
36.781,-39.35
36.796,-42.49
36.812,-45.88
36.828,-49.51
36.843,-53.24
36.859,-56.76
36.875,-59.61
36.890,-61.3
36.906,-61.38
36.921,-59.58
36.937,-55.82
36.953,-50.34
36.968,-43.57
36.984,-36.15
37.000,-28.65
37.015,-21.43
37.031,-14.57
37.046,-7.89
37.062,-1.2
37.078,5.58
37.093,12.29
37.109,18.62
37.125,24.22
37.140,28.81
37.156,32.36
37.171,34.92
37.187,36.68
37.203,37.85
37.218,38.6
37.234,39.12
37.250,39.52
37.265,39.97
37.281,40.44
37.296,40.86
37.312,41.08
37.328,40.97
37.343,40.42
37.359,39.49
37.375,38.22
37.390,36.71
37.406,35.09
37.421,33.45
37.437,31.85
37.453,30.32
37.468,28.85
37.484,27.38
37.500,25.85
37.515,24.22
37.531,22.5
37.546,20.69
37.562,18.76
37.578,16.7
37.593,14.44
37.609,12.0
37.625,9.35
37.640,6.54
37.656,3.63
37.671,0.6
37.687,-2.53
37.703,-5.78
37.718,-9.15
37.734,-12.59
37.750,-16.01
37.765,-19.36
37.781,-22.57
37.796,-25.63
37.812,-28.57
37.828,-31.45
37.843,-34.39
37.859,-37.56
37.875,-41.12
37.890,-45.13
37.906,-49.43
37.921,-53.6
37.937,-57.02
37.953,-58.95
37.968,-58.79
37.984,-56.26
38.000,-51.51
38.015,-45.12
38.031,-37.82
38.046,-30.27
38.062,-22.91
38.078,-15.9
38.093,-9.17
38.109,-2.62
38.125,3.72
38.140,9.76
38.156,15.32
38.171,20.26
38.187,24.5
38.203,28.04
38.218,30.84
38.234,32.89
38.250,34.18
38.265,34.79
38.281,34.91
38.296,34.86
38.312,34.98
38.328,35.47
38.343,36.38
38.359,37.52
38.375,38.56
38.390,39.14
38.406,38.98
38.421,38.06
38.437,36.51
38.453,34.61
38.468,32.64
38.484,30.76
38.500,29.01
38.515,27.36
38.531,25.77
38.546,24.19
38.562,22.63
38.578,20.98
38.593,19.08
38.609,16.78
38.625,13.96
38.640,10.71
38.656,7.28
38.671,3.99
38.687,1.01
38.703,-1.65
38.718,-4.15
38.734,-6.74
38.750,-9.55
38.765,-12.58
38.781,-15.64
38.796,-18.57
38.812,-21.24
38.828,-23.69
38.843,-26.1
38.859,-28.68
38.875,-31.65
38.890,-35.09
38.906,-38.98
38.921,-43.06
38.937,-46.86
38.953,-49.75
38.968,-51.02
38.984,-50.16
39.000,-47.01
39.015,-41.85
39.031,-35.25
39.046,-27.96
39.062,-20.65
39.078,-13.72
39.093,-7.38
39.109,-1.62
39.125,3.58
39.140,8.27
39.156,12.42
39.171,16.02
39.187,19.09
39.203,21.66
39.218,23.76
39.234,25.4
39.250,26.56
39.265,27.18
39.281,27.36
39.296,27.23
39.312,27.04
39.328,27.05
39.343,27.38
39.359,27.97
39.375,28.57
39.390,28.85
39.406,28.58
39.421,27.76
39.437,26.54
39.453,25.19
39.468,23.95
39.484,22.85
39.500,21.89
39.515,20.92
39.531,19.78
39.546,18.39
39.562,16.69
39.578,14.69
39.593,12.44
39.609,10.01
39.625,7.51
39.640,5.06
39.656,2.78
39.671,0.56
39.687,-1.76
39.703,-4.38
39.718,-7.42
39.734,-10.84
39.750,-14.48
39.765,-18.12
39.781,-21.59
39.796,-24.83
39.812,-27.86
39.828,-30.77
39.843,-33.69
39.859,-36.74
39.875,-39.98
39.890,-43.4
39.906,-46.73
39.921,-49.5
39.937,-51.1
39.953,-50.97
39.968,-48.81
39.984,-44.75
40.000,-39.27
40.015,-32.98
40.031,-26.49
40.046,-20.2
40.062,-14.29
40.078,-8.73
40.093,-3.45
40.109,1.65
40.125,6.64
40.140,11.49
40.156,16.15
40.171,20.42
40.187,24.03
40.203,26.79
40.218,28.56
40.234,29.45
40.250,29.68
40.265,29.59
40.281,29.47
40.296,29.48
40.312,29.68
40.328,30.02
40.343,30.41
40.359,30.78
40.375,31.08
40.390,31.22
40.406,31.2
40.421,30.93
40.437,30.38
40.453,29.57
40.468,28.5
40.484,27.23
40.500,25.8
40.515,24.24
40.531,22.48
40.546,20.44
40.562,17.98
40.578,15.04
40.593,11.67
40.609,8.04
40.625,4.4
40.640,1.0
40.656,-2.01
40.671,-4.62
40.687,-7.02
40.703,-9.39
40.718,-11.93
40.734,-14.71
40.750,-17.69
40.765,-20.78
40.781,-23.82
40.796,-26.8
40.812,-29.75
40.828,-32.82
40.843,-36.18
40.859,-39.9
40.875,-43.97
40.890,-48.25
40.906,-52.37
40.921,-55.89
40.937,-58.33
40.953,-59.22
40.968,-58.25
40.984,-55.38
41.000,-50.78
41.015,-44.87
41.031,-38.15
41.046,-31.08
41.062,-23.95
41.078,-16.92
41.093,-9.98
41.109,-3.1
41.125,3.67
41.140,10.15
41.156,16.11
41.171,21.33
41.187,25.65
41.203,28.98
41.218,31.27
41.234,32.53
41.250,32.78
41.265,32.07
41.281,30.6
41.296,28.66
41.312,26.64
41.328,24.93
41.343,23.72
41.359,22.96
41.375,22.39
41.390,21.6
41.406,20.26
41.421,18.33
41.437,16.03
41.453,13.75
41.468,11.81
41.484,10.24
41.500,8.82
41.515,7.05
41.531,4.57
41.546,1.18
41.562,-2.89
41.578,-7.12
41.593,-10.91
41.609,-13.87
41.625,-16.01
41.640,-17.7
41.656,-19.59
41.671,-22.22
41.687,-25.76
41.703,-29.93
41.718,-34.1
41.734,-37.49
41.750,-39.49
41.765,-39.91
41.781,-38.91
41.796,-37.04
41.812,-35.09
41.828,-33.97
41.843,-34.37
41.859,-36.39
41.875,-39.15
41.890,-40.8
41.906,-39.04
41.921,-31.86
41.937,-18.38
41.953,0.58
41.968,22.35
41.984,42.96
42.000,58.28
42.015,65.15
42.031,62.55
42.046,51.74
42.062,35.79
42.078,18.25
42.093,1.92
42.109,-12.12
42.125,-24.33
42.140,-35.91
42.156,-47.79
42.171,-59.85
42.187,-71.01
42.203,-79.65
42.218,-84.35
42.234,-84.05
42.250,-78.05
42.265,-65.89
42.281,-47.62
42.296,-24.32
42.312,1.6
42.328,26.53
42.343,46.71
42.359,59.5
42.375,64.36
42.390,62.96
42.406,58.34
42.421,53.37
42.437,49.87
42.453,48.29
42.468,47.92
42.484,47.5
42.500,45.77
42.515,42.03
42.531,36.69
42.546,31.49
42.562,29.02
42.578,31.63
42.593,39.86
42.609,51.25
42.625,60.53
42.640,61.46
42.656,49.67
42.671,24.97
42.687,-8.16
42.703,-42.11
42.718,-68.76
42.734,-81.96
42.750,-79.01
42.765,-60.6
42.781,-30.03
42.796,7.76
42.812,47.1
42.828,82.61
42.843,109.93
42.859,126.61
42.875,132.33
42.890,128.55
42.906,117.92
42.921,103.58
42.937,88.53
42.953,75.22
42.968,65.36
42.984,59.6
43.000,57.6
43.015,58.2
43.031,59.83
43.046,61.19
43.062,61.48
43.078,60.47
43.093,58.15
43.109,54.54
43.125,49.46
43.140,42.52
43.156,33.39
43.171,21.98
43.187,8.82
43.203,-5.07
43.218,-18.25
43.234,-29.39
43.250,-37.69
43.265,-43.38
43.281,-47.63
43.296,-51.99
43.312,-57.69
43.328,-64.74
43.343,-71.93
43.359,-77.18
43.375,-78.66
43.390,-75.6
43.406,-68.76
43.421,-60.23
43.437,-52.32
43.453,-46.76
43.468,-43.97
43.484,-43.32
43.500,-43.79
43.515,-44.83
43.531,-46.61
43.546,-49.8
43.562,-55.01
43.578,-62.12
43.593,-70.22
43.609,-77.75
43.625,-83.06
43.640,-84.9
43.656,-82.62
43.671,-76.18
43.687,-65.89
43.703,-52.32
43.718,-36.1
43.734,-18.06
43.750,0.8
43.765,19.26
43.781,35.9
43.796,49.28
43.812,58.05
43.828,61.37
43.843,58.87
43.859,50.91
43.875,38.38
43.890,22.6
43.906,5.19
43.921,-12.13
43.937,-27.55
43.953,-39.61
43.968,-47.33
43.984,-50.56
44.000,-49.82
44.015,-46.24
44.031,-41.06
44.046,-35.38
44.062,-29.94
44.078,-25.08
44.093,-20.96
44.109,-17.55
44.125,-14.73
44.140,-12.24
44.156,-9.71
44.171,-6.84
44.187,-3.41
44.203,0.53
44.218,4.75
44.234,8.9
44.250,12.61
44.265,15.68
44.281,18.07
44.296,19.96
44.312,21.59
44.328,23.15
44.343,24.67
44.359,25.97
44.375,26.79
44.390,26.83
44.406,26.08
44.421,24.64
44.437,22.83
44.453,20.92
44.468,19.1
44.484,17.34
44.500,15.54
44.515,13.57
44.531,11.33
44.546,8.88
44.562,6.24
44.578,3.44
44.593,0.54
44.609,-2.51
44.625,-5.68
44.640,-8.91
44.656,-12.15
44.671,-15.28
44.687,-18.18
44.703,-20.74
44.718,-22.79
44.734,-24.19
44.750,-24.81
44.765,-24.58
44.781,-23.42
44.796,-21.37
44.812,-18.46
44.828,-14.8
44.843,-10.56
44.859,-5.85
44.875,-0.71
44.890,5.02
44.906,11.61
44.921,19.48
44.937,28.78
44.953,39.38
44.968,50.72
44.984,61.91
45.000,72.04
45.015,80.45
45.031,86.99
45.046,91.94
45.062,95.87
45.078,99.16
45.093,101.88
45.109,103.7
45.125,104.14
45.140,102.87
45.156,99.77
45.171,95.01
45.187,88.77
45.203,81.18
45.218,72.24
45.234,62.08
45.250,51.1
45.265,40.0
45.281,29.64
45.296,20.49
45.312,12.42
45.328,4.73
45.343,-3.49
45.359,-12.7
45.375,-22.76
45.390,-32.77
45.406,-41.49
45.421,-47.59
45.437,-50.03
45.453,-48.08
45.468,-41.4
45.484,-30.22
45.500,-15.3
45.515,1.75
45.531,18.81
45.546,33.45
45.562,43.61
45.578,47.95
45.593,46.06
45.609,38.47
45.625,26.35
45.640,11.38
45.656,-4.7
45.671,-20.22
45.687,-33.98
45.703,-45.31
45.718,-54.0
45.734,-60.24
45.750,-64.27
45.765,-66.42
45.781,-67.2
45.796,-67.47
45.812,-68.49
45.828,-71.64
45.843,-77.94
45.859,-87.38
45.875,-98.83
45.890,-110.14
45.906,-118.91
45.921,-123.36
45.937,-122.86
45.953,-117.92
45.968,-109.82
45.984,-99.97
46.000,-89.35
46.015,-78.5
46.031,-67.57
46.046,-56.73
46.062,-46.33
46.078,-36.87
46.093,-28.77
46.109,-22.18
46.125,-16.92
46.140,-12.35
46.156,-7.9
46.171,-3.12
46.187,2.02
46.203,7.25
46.218,12.1
46.234,16.16
46.250,19.25
46.265,21.41
46.281,22.95
46.296,24.16
46.312,25.23
46.328,26.25
46.343,27.16
46.359,27.89
46.375,28.5
46.390,29.1
46.406,29.87
46.421,30.95
46.437,32.31
46.453,33.73
46.468,34.83
46.484,35.25
46.500,34.73
46.515,33.19
46.531,30.77
46.546,27.79
46.562,24.61
46.578,21.55
46.593,18.84
46.609,16.54
46.625,14.58
46.640,12.84
46.656,11.17
46.671,9.43
46.687,7.49
46.703,5.27
46.718,2.73
46.734,-0.13
46.750,-3.14
46.765,-6.15
46.781,-8.99
46.796,-11.52
46.812,-13.67
46.828,-15.49
46.843,-17.03
46.859,-18.37
46.875,-19.59
46.890,-20.75
46.906,-21.91
46.921,-23.1
46.937,-24.24
46.953,-25.06
46.968,-25.31
46.984,-24.67
47.000,-22.92
47.015,-20.05
47.031,-16.31
47.046,-11.95
47.062,-7.31
47.078,-2.6
47.093,2.1
47.109,6.86
47.125,11.75
47.140,16.75
47.156,21.76
47.171,26.55
47.187,31.05
47.203,35.31
47.218,39.61
47.234,44.25
47.250,49.45
47.265,55.23
47.281,61.31
47.296,67.23
47.312,72.44
47.328,76.49
47.343,78.97
47.359,79.6
47.375,78.12
47.390,74.29
47.406,68.0
47.421,59.35
47.437,48.66
47.453,36.6
47.468,24.18
47.484,12.42
47.500,2.35
47.515,-5.49
47.531,-11.07
47.546,-14.81
47.562,-17.21
47.578,-18.67
47.593,-19.36
47.609,-19.29
47.625,-18.79
47.640,-18.47
47.656,-19.17
47.671,-21.6
47.687,-25.79
47.703,-31.06
47.718,-36.22
47.734,-40.26
47.750,-42.86
47.765,-44.6
47.781,-46.56
47.796,-49.72
47.812,-54.42
47.828,-60.13
47.843,-65.88
47.859,-70.72
47.875,-74.27
47.890,-76.77
47.906,-78.91
47.921,-81.19
47.937,-83.64
47.953,-85.63
47.968,-86.16
47.984,-84.4
48.000,-80.02
48.015,-73.59
48.031,-66.17
48.046,-59.16
48.062,-53.6
48.078,-49.92
48.093,-47.84
48.109,-46.52
48.125,-45.07
48.140,-42.93
48.156,-40.14
48.171,-37.21
48.187,-34.86
48.203,-33.62
48.218,-33.54
48.234,-34.24
48.250,-35.11
48.265,-35.56
48.281,-35.14
48.296,-33.62
48.312,-30.83
48.328,-26.63
48.343,-20.95
48.359,-13.82
48.375,-5.45
48.390,3.83
48.406,13.65
48.421,23.81
48.437,34.18
48.453,44.68
48.468,55.15
48.484,65.19
48.500,74.31
48.515,81.97
48.531,87.84
48.546,91.9
48.562,94.48
48.578,96.01
48.593,96.91
48.609,97.39
48.625,97.37
48.640,96.64
48.656,94.98
48.671,92.36
48.687,89.05
48.703,85.55
48.718,82.29
48.734,79.61
48.750,77.44
48.765,75.24
48.781,71.92
48.796,66.04
48.812,56.1
48.828,41.17
48.843,21.4
48.859,-1.8
48.875,-26.06
48.890,-48.72
48.906,-67.85
48.921,-82.8
48.937,-94.05
48.953,-102.81
48.968,-110.05
48.984,-116.1
49.000,-120.56
49.015,-122.89
49.031,-122.87
49.046,-121.11
49.062,-118.7
49.078,-116.81
49.093,-116.25
49.109,-117.16
49.125,-119.12
49.140,-121.44
49.156,-123.5
49.171,-124.85
49.187,-125.4
49.203,-125.13
49.218,-124.2
49.234,-122.87
49.250,-121.5
49.265,-120.36
49.281,-119.48
49.296,-118.44
49.312,-116.19
49.328,-111.17
49.343,-101.51
49.359,-85.55
49.375,-62.23
49.390,-31.3
49.406,6.49
49.421,49.54
49.437,95.51
49.453,141.72
49.468,185.31
49.484,223.95
49.500,256.19
49.515,281.62
49.531,300.61
49.546,313.39
49.562,319.35
49.578,316.82
49.593,303.86
49.609,279.49
49.625,244.97
49.640,203.93
49.656,161.49
49.671,122.62
49.687,90.55
49.703,66.28
49.718,48.97
49.734,37.09
49.750,29.31
49.765,24.76
49.781,22.67
49.796,21.77
49.812,20.26
49.828,16.19
49.843,8.42
49.859,-3.08
49.875,-16.98
49.890,-31.3
49.906,-44.36
49.921,-55.44
49.937,-65.07
49.953,-74.44
49.968,-84.45
49.984,-94.89
50.000,-104.43
50.015,-111.23
50.031,-113.93
50.046,-112.51
50.062,-108.09
50.078,-102.36
50.093,-96.56
50.109,-91.1
50.125,-85.53
50.140,-79.3
50.156,-72.44
50.171,-65.68
50.187,-60.21
50.203,-56.86
50.218,-55.7
50.234,-56.05
50.250,-56.89
50.265,-57.41
50.281,-57.21
50.296,-56.28
50.312,-54.76
50.328,-52.82
50.343,-50.39
50.359,-47.4
50.375,-43.77
50.390,-39.49
50.406,-34.7
50.421,-29.51
50.437,-23.94
50.453,-17.89
50.468,-11.31
50.484,-3.99
50.500,4.14
50.515,13.05
50.531,22.6
50.546,32.41
50.562,41.87
50.578,50.28
50.593,57.02
50.609,61.68
50.625,64.27
50.640,65.24
50.656,65.35
50.671,65.64
50.687,66.99
50.703,69.82
50.718,73.81
50.734,77.93
50.750,80.68
50.765,80.68
50.781,77.16
50.796,70.31
50.812,61.13
50.828,51.02
50.843,41.26
50.859,32.6
50.875,25.29
50.890,19.18
50.906,13.99
50.921,9.4
50.937,4.95
50.953,0.1
50.968,-5.7
50.984,-12.74
51.000,-20.82
51.015,-29.23
51.031,-36.95
51.046,-43.11
51.062,-47.2
51.078,-49.28
51.093,-49.8
51.109,-49.29
51.125,-48.1
51.140,-46.36
51.156,-44.09
51.171,-41.44
51.187,-38.73
51.203,-36.38
51.218,-34.74
51.234,-33.77
51.250,-33.06
51.265,-31.87
51.281,-29.4
51.296,-25.04
51.312,-18.7
51.328,-10.67
51.343,-1.61
51.359,7.6
51.375,16.06
51.390,23.1
51.406,28.39
51.421,32.22
51.437,35.33
51.453,38.67
51.468,43.0
51.484,48.37
51.500,54.11
51.515,58.95
51.531,61.68
51.546,61.6
51.562,58.84
51.578,54.15
51.593,48.49
51.609,42.64
51.625,36.92
51.640,31.44
51.656,26.22
51.671,21.41
51.687,17.21
51.703,13.78
51.718,10.98
51.734,8.37
51.750,5.44
51.765,1.74
51.781,-2.82
51.796,-8.09
51.812,-13.7
51.828,-19.34
51.843,-24.84
51.859,-30.18
51.875,-35.48
51.890,-40.85
51.906,-46.35
51.921,-51.94
51.937,-57.59
51.953,-63.28
51.968,-69.12
51.984,-75.35
52.000,-82.27
52.015,-90.11
52.031,-98.76
52.046,-107.85
52.062,-116.51
52.078,-123.65
52.093,-128.19
52.109,-129.42
52.125,-127.31
52.140,-122.48
52.156,-116.03
52.171,-109.0
52.187,-102.14
52.203,-95.56
52.218,-88.9
52.234,-81.59
52.250,-73.21
52.265,-63.76
52.281,-53.59
52.296,-43.21
52.312,-32.82
52.328,-22.2
52.343,-10.58
52.359,3.13
52.375,19.91
52.390,40.27
52.406,63.95
52.421,90.0
52.437,116.91
52.453,143.11
52.468,167.28
52.484,188.57
52.500,206.78
52.515,222.28
52.531,236.24
52.546,250.2
52.562,265.78
52.578,283.9
52.593,303.92
52.609,323.42
52.625,338.48
52.640,344.76
52.656,338.82
52.671,319.41
52.687,287.62
52.703,246.59
52.718,200.37
52.734,152.81
52.750,106.93
52.765,64.64
52.781,26.97
52.796,-5.75
52.812,-33.72
52.828,-57.63
52.843,-78.54
52.859,-97.64
52.875,-116.03
52.890,-134.13
52.906,-151.67
52.921,-167.64
52.937,-180.62
52.953,-189.44
52.968,-193.73
52.984,-194.21
53.000,-192.58
53.015,-191.18
53.031,-191.9
53.046,-195.64
53.062,-201.78
53.078,-208.37
53.093,-212.95
53.109,-213.45
53.125,-208.91
53.140,-199.8
53.156,-187.75
53.171,-174.71
53.187,-162.18
53.203,-150.8
53.218,-140.3
53.234,-129.99
53.250,-119.18
53.265,-107.54
53.281,-95.05
53.296,-81.88
53.312,-68.07
53.328,-53.56
53.343,-38.4
53.359,-22.84
53.375,-7.61
53.390,6.45
53.406,18.73
53.421,29.14
53.437,38.21
53.453,46.81
53.468,55.79
53.484,65.71
53.500,76.88
53.515,89.34
53.531,103.04
53.546,117.7
53.562,132.62
53.578,146.63
53.593,158.22
53.609,165.94
53.625,168.91
53.640,167.18
53.656,161.53
53.671,153.01
53.687,142.49
53.703,130.25
53.718,116.12
53.734,99.7
53.750,80.84
53.765,59.91
53.781,37.89
53.796,16.14
53.812,-3.85
53.828,-20.63
53.843,-33.02
53.859,-40.27
53.875,-42.33
53.890,-39.9
53.906,-34.51
53.921,-28.13
53.937,-22.69
53.953,-19.63
53.968,-19.48
53.984,-21.81
54.000,-25.74
54.015,-30.24
54.031,-34.63
54.046,-38.62
54.062,-42.23
54.078,-45.42
54.093,-47.93
54.109,-49.21
54.125,-48.56
54.140,-45.41
54.156,-39.5
54.171,-31.03
54.187,-20.71
54.203,-9.45
54.218,1.85
54.234,12.47
54.250,21.97
54.265,30.14
54.281,36.89
54.296,42.35
54.312,46.72
54.328,50.35
54.343,53.66
54.359,57.0
54.375,60.56
54.390,64.34
54.406,68.11
54.421,71.49
54.437,74.22
54.453,75.97
54.468,76.43
54.484,75.41
54.500,72.82
54.515,68.78
54.531,63.59
54.546,57.62
54.562,51.13
54.578,44.23
54.593,36.82
54.609,28.74
54.625,20.0
54.640,10.99
54.656,2.44
54.671,-4.75
54.687,-9.85
54.703,-12.48
54.718,-12.74
54.734,-11.16
54.750,-8.6
54.765,-6.06
54.781,-4.42
54.796,-4.35
54.812,-6.08
54.828,-9.56
54.843,-14.37
54.859,-20.01
54.875,-26.05
54.890,-32.21
54.906,-38.29
54.921,-44.26
54.937,-50.04
54.953,-55.55
54.968,-60.72
54.984,-65.48
55.000,-69.75
55.015,-73.32
55.031,-75.76
55.046,-76.34
55.062,-74.32
55.078,-69.06
55.093,-60.35
55.109,-48.63
55.125,-35.11
55.140,-21.5
55.156,-9.61
55.171,-0.83
55.187,4.29
55.203,6.11
55.218,5.69
55.234,4.34
55.250,3.16
55.265,2.79
55.281,3.44
55.296,5.12
55.312,7.73
55.328,11.19
55.343,15.13
55.359,18.92
55.375,21.57
55.390,22.16
55.406,20.35
55.421,16.72
55.437,12.6
55.453,9.62
55.468,8.88
55.484,10.51
55.500,13.7
55.515,17.04
55.531,19.29
55.546,19.93
55.562,19.32
55.578,18.37
55.593,18.16
55.609,19.44
55.625,22.46
55.640,26.98
55.656,32.38
55.671,37.78
55.687,42.29
55.703,45.08
55.718,45.55
55.734,43.49
55.750,38.97
55.765,32.42
55.781,24.41
55.796,15.56
55.812,6.4
55.828,-2.61
55.843,-11.25
55.859,-19.4
55.875,-27.09
55.890,-34.49
55.906,-41.75
55.921,-48.84
55.937,-55.47
55.953,-60.89
55.968,-64.23
55.984,-64.87
56.000,-62.66
56.015,-58.11
56.031,-52.18
56.046,-45.86
56.062,-39.83
56.078,-34.21
56.093,-28.71
56.109,-22.98
56.125,-16.81
56.140,-10.27
56.156,-3.53
56.171,3.2
56.187,9.82
56.203,16.3
56.218,22.52
56.234,28.25
56.250,33.07
56.265,36.59
56.281,38.57
56.296,39.09
56.312,38.43
56.328,37.14
56.343,35.82
56.359,35.05
56.375,35.19
56.390,36.37
56.406,38.38
56.421,40.71
56.437,42.65
56.453,43.45
56.468,42.51
56.484,39.62
56.500,34.96
56.515,28.99
56.531,22.31
56.546,15.48
56.562,8.99
56.578,3.21
56.593,-1.52
56.609,-4.97
56.625,-7.08
56.640,-8.03
56.656,-8.2
56.671,-8.1
56.687,-8.18
56.703,-8.62
56.718,-9.45
56.734,-10.4
56.750,-11.24
56.765,-11.76
56.781,-11.92
56.796,-11.84
56.812,-11.85
56.828,-12.41
56.843,-13.92
56.859,-16.64
56.875,-20.47
56.890,-24.95
56.906,-29.26
56.921,-32.52
56.937,-33.93
56.953,-33.04
56.968,-29.85
56.984,-24.82
57.000,-18.56
57.015,-11.75
57.031,-4.87
57.046,1.8
57.062,8.17
57.078,14.09
57.093,19.33
57.109,23.56
57.125,26.59
57.140,28.48
57.156,29.51
57.171,30.11
57.187,30.59
57.203,31.08
57.218,31.43
57.234,31.48
57.250,31.1
57.265,30.36
57.281,29.49
57.296,28.71
57.312,28.21
57.328,27.99
57.343,27.95
57.359,27.91
57.375,27.72
57.390,27.24
57.406,26.35
57.421,25.01
57.437,23.2
57.453,20.98
57.468,18.48
57.484,15.82
57.500,13.15
57.515,10.51
57.531,7.92
57.546,5.3
57.562,2.64
57.578,-0.01
57.593,-2.51
57.609,-4.76
57.625,-6.71
57.640,-8.45
57.656,-10.16
57.671,-12.02
57.687,-14.16
57.703,-16.6
57.718,-19.19
57.734,-21.73
57.750,-24.07
57.765,-26.12
57.781,-27.92
57.796,-29.59
57.812,-31.31
57.828,-33.26
57.843,-35.61
57.859,-38.48
57.875,-41.74
57.890,-45.04
57.906,-47.74
57.921,-49.14
57.937,-48.72
57.953,-46.35
57.968,-42.31
57.984,-37.23
58.000,-31.75
58.015,-26.28
58.031,-20.94
58.046,-15.66
58.062,-10.44
58.078,-5.37
58.093,-0.66
58.109,3.47
58.125,6.9
58.140,9.71
58.156,12.0
58.171,13.81
58.187,15.11
58.203,15.72
58.218,15.57
58.234,14.7
58.250,13.27
58.265,11.56
58.281,9.89
58.296,8.44
58.312,7.24
58.328,6.2
58.343,5.21
58.359,4.13
58.375,2.94
58.390,1.71
58.406,0.58
58.421,-0.31
58.437,-0.8
58.453,-0.89
58.468,-0.62
58.484,-0.14
58.500,0.34
58.515,0.64
58.531,0.64
58.546,0.34
58.562,-0.17
58.578,-0.71
58.593,-1.15
58.609,-1.43
58.625,-1.67
58.640,-2.0
58.656,-2.58
58.671,-3.47
58.687,-4.62
58.703,-6.0
58.718,-7.62
58.734,-9.59
58.750,-12.03
58.765,-15.03
58.781,-18.56
58.796,-22.47
58.812,-26.47
58.828,-30.21
58.843,-33.29
58.859,-35.31
58.875,-35.9
58.890,-34.8
58.906,-32.06
58.921,-27.97
58.937,-23.05
58.953,-17.78
58.968,-12.48
58.984,-7.27
59.000,-2.19
59.015,2.67
59.031,7.17
59.046,11.11
59.062,14.32
59.078,16.8
59.093,18.68
59.109,20.19
59.125,21.49
59.140,22.71
59.156,23.83
59.171,24.69
59.187,25.16
59.203,25.1
59.218,24.45
59.234,23.38
59.250,22.18
59.265,21.26
59.281,20.92
59.296,21.16
59.312,21.63
59.328,21.88
59.343,21.47
59.359,20.26
59.375,18.39
59.390,16.19
59.406,13.97
59.421,11.9
59.437,9.88
59.453,7.75
59.468,5.52
59.484,3.35
59.500,1.5
59.515,0.19
59.531,-0.6
59.546,-1.09
59.562,-1.64
59.578,-2.6
59.593,-4.05
59.609,-5.79
59.625,-7.49
59.640,-8.78
59.656,-9.42
59.671,-9.4
59.687,-8.88
59.703,-8.14
59.718,-7.54
59.734,-7.39
59.750,-7.91
59.765,-9.16
59.781,-10.98
59.796,-12.98
59.812,-14.63
59.828,-15.41
59.843,-14.93
59.859,-13.12
59.875,-10.23
59.890,-6.69
59.906,-2.96
59.921,0.61
59.937,3.83
59.953,6.57
59.968,8.75
59.984,10.28
