timestamp,value
00.000,-12.56
00.015,-14.12
00.031,-15.69
00.046,-17.13
00.062,-18.25
00.078,-18.81
00.093,-18.63
00.109,-17.64
00.125,-15.83
00.140,-13.28
00.156,-10.07
00.171,-6.4
00.187,-2.4
00.203,1.7
00.218,5.67
00.234,9.35
00.250,12.6
00.265,15.39
00.281,17.71
00.296,19.56
00.312,20.87
00.328,21.53
00.343,21.51
00.359,20.83
00.375,19.64
00.390,18.13
00.406,16.5
00.421,14.93
00.437,13.56
00.453,12.48
00.468,11.67
00.484,11.08
00.500,10.58
00.515,10.02
00.531,9.29
00.546,8.32
00.562,7.11
00.578,5.78
00.593,4.46
00.609,3.24
00.625,2.15
00.640,1.13
00.656,0.12
00.671,-1.02
00.687,-2.33
00.703,-3.87
00.718,-5.6
00.734,-7.36
00.750,-9.06
00.765,-10.58
00.781,-11.86
00.796,-12.91
00.812,-13.8
00.828,-14.65
00.843,-15.57
00.859,-16.61
00.875,-17.75
00.890,-18.86
00.906,-19.73
00.921,-20.17
00.937,-19.98
00.953,-19.06
00.968,-17.4
00.984,-15.06
01.000,-12.18
01.015,-8.95
01.031,-5.6
01.046,-2.37
01.062,0.56
01.078,3.06
01.093,5.15
01.109,6.87
01.125,8.29
01.140,9.42
01.156,10.26
01.171,10.79
01.187,11.03
01.203,11.06
01.218,10.94
01.234,10.72
01.250,10.45
01.265,10.13
01.281,9.77
01.296,9.43
01.312,9.14
01.328,8.92
01.343,8.72
01.359,8.45
01.375,8.04
01.390,7.51
01.406,6.92
01.421,6.29
01.437,5.62
01.453,4.91
01.468,4.09
01.484,3.13
01.500,2.02
01.515,0.77
01.531,-0.58
01.546,-2.06
01.562,-3.63
01.578,-5.23
01.593,-6.77
01.609,-8.16
01.625,-9.31
01.640,-10.24
01.656,-11.05
01.671,-11.85
01.687,-12.78
01.703,-13.89
01.718,-15.12
01.734,-16.4
01.750,-17.56
01.765,-18.44
01.781,-18.85
01.796,-18.66
01.812,-17.76
01.828,-16.19
01.843,-14.03
01.859,-11.44
01.875,-8.61
01.890,-5.65
01.906,-2.65
01.921,0.33
01.937,3.24
01.953,6.02
01.968,8.57
01.984,10.81
02.000,12.68
02.015,14.12
02.031,15.07
02.046,15.53
02.062,15.53
02.078,15.15
02.093,14.57
02.109,13.94
02.125,13.38
02.140,12.91
02.156,12.5
02.171,12.09
02.187,11.61
02.203,11.1
02.218,10.58
02.234,10.07
02.250,9.57
02.265,9.04
02.281,8.48
02.296,7.9
02.312,7.38
02.328,6.92
02.343,6.5
02.359,6.02
02.375,5.36
02.390,4.44
02.406,3.28
02.421,1.97
02.437,0.62
02.453,-0.72
02.468,-2.0
02.484,-3.22
02.500,-4.33
02.515,-5.23
02.531,-5.9
02.546,-6.33
02.562,-6.62
02.578,-7.01
02.593,-7.69
02.609,-8.81
02.625,-10.34
02.640,-12.11
02.656,-13.88
02.671,-15.43
02.687,-16.6
02.703,-17.29
02.718,-17.44
02.734,-16.98
02.750,-15.89
02.765,-14.22
02.781,-12.06
02.796,-9.56
02.812,-6.92
02.828,-4.24
02.843,-1.59
02.859,1.02
02.875,3.55
02.890,5.9
02.906,7.91
02.921,9.42
02.937,10.32
02.953,10.64
02.968,10.57
02.984,10.34
03.000,10.13
03.015,10.02
03.031,9.95
03.046,9.79
03.062,9.45
03.078,8.95
03.093,8.39
03.109,7.91
03.125,7.59
03.140,7.38
03.156,7.2
03.171,6.98
03.187,6.71
03.203,6.48
03.218,6.32
03.234,6.21
03.250,6.11
03.265,5.9
03.281,5.54
03.296,5.03
03.312,4.38
03.328,3.6
03.343,2.75
03.359,1.8
03.375,0.75
03.390,-0.34
03.406,-1.38
03.421,-2.27
03.437,-2.97
03.453,-3.54
03.468,-4.08
03.484,-4.72
03.500,-5.6
03.515,-6.8
03.531,-8.3
03.546,-10.09
03.562,-12.0
03.578,-13.86
03.593,-15.46
03.609,-16.57
03.625,-16.97
03.640,-16.51
03.656,-15.16
03.671,-13.02
03.687,-10.37
03.703,-7.47
03.718,-4.51
03.734,-1.66
03.750,1.1
03.765,3.76
03.781,6.3
03.796,8.64
03.812,10.69
03.828,12.29
03.843,13.38
03.859,13.98
03.875,14.13
03.890,13.96
03.906,13.59
03.921,13.15
03.937,12.74
03.953,12.43
03.968,12.2
03.984,12.04
04.000,11.87
04.015,11.61
04.031,11.23
04.046,10.71
04.062,10.13
04.078,9.59
04.093,9.18
04.109,8.99
04.125,9.0
04.140,9.12
04.156,9.2
04.171,9.03
04.187,8.49
04.203,7.54
04.218,6.27
04.234,4.84
04.250,3.47
04.265,2.32
04.281,1.38
04.296,0.55
04.312,-0.43
04.328,-1.68
04.343,-3.25
04.359,-4.99
04.375,-6.69
04.390,-8.13
04.406,-9.24
04.421,-10.13
04.437,-10.97
04.453,-11.93
04.468,-13.02
04.484,-14.16
04.500,-15.16
04.515,-15.91
04.531,-16.34
04.546,-16.5
04.562,-16.43
04.578,-16.13
04.593,-15.52
04.609,-14.48
04.625,-12.91
04.640,-10.77
04.656,-8.15
04.671,-5.16
04.687,-2.1
04.703,0.79
04.718,3.28
04.734,5.21
04.750,6.54
04.765,7.36
04.781,7.8
04.796,7.99
04.812,8.03
04.828,7.96
04.843,7.9
04.859,7.96
04.875,8.23
04.890,8.73
04.906,9.38
04.921,10.01
04.937,10.4
04.953,10.43
04.968,10.14
04.984,9.71
05.000,9.32
05.015,9.08
05.031,8.95
05.046,8.81
05.062,8.54
05.078,8.11
05.093,7.55
05.109,6.95
05.125,6.35
05.140,5.72
05.156,4.96
05.171,4.03
05.187,2.99
05.203,1.97
05.218,1.1
05.234,0.4
05.250,-0.22
05.265,-0.89
05.281,-1.67
05.296,-2.55
05.312,-3.46
05.328,-4.32
05.343,-5.07
05.359,-5.77
05.375,-6.46
05.390,-7.19
05.406,-7.94
05.421,-8.66
05.437,-9.3
05.453,-9.91
05.468,-10.6
05.484,-11.48
05.500,-12.62
05.515,-13.95
05.531,-15.28
05.546,-16.36
05.562,-16.92
05.578,-16.78
05.593,-15.94
05.609,-14.52
05.625,-12.71
05.640,-10.7
05.656,-8.58
05.671,-6.35
05.687,-4.04
05.703,-1.66
05.718,0.74
05.734,3.04
05.750,5.11
05.765,6.86
05.781,8.17
05.796,9.08
05.812,9.64
05.828,9.87
05.843,9.89
05.859,9.81
05.875,9.7
05.890,9.66
05.906,9.74
05.921,9.86
05.937,9.96
05.953,9.92
05.968,9.64
05.984,9.1
06.000,8.36
06.015,7.48
06.031,6.58
06.046,5.7
06.062,4.81
06.078,3.88
06.093,2.88
06.109,1.83
06.125,0.84
06.156,-0.65
06.171,-1.1
06.187,-1.38
06.203,-1.6
06.218,-1.84
06.234,-2.21
06.250,-2.8
06.265,-3.65
06.281,-4.74
06.296,-6.03
06.312,-7.38
06.328,-8.65
06.343,-9.75
06.359,-10.66
06.375,-11.43
06.390,-12.13
06.406,-12.8
06.421,-13.46
06.437,-14.19
06.453,-15.02
06.468,-15.99
06.484,-17.09
06.500,-18.2
06.515,-19.14
06.531,-19.66
06.546,-19.54
06.562,-18.66
06.578,-17.06
06.593,-14.93
06.609,-12.48
06.625,-9.96
06.640,-7.45
06.656,-4.98
06.671,-2.5
06.703,2.52
06.718,4.95
06.734,7.17
06.750,9.01
06.765,10.35
06.781,11.17
06.796,11.48
06.812,11.37
06.828,10.94
06.843,10.33
06.859,9.69
06.875,9.15
06.890,8.75
06.906,8.54
06.921,8.51
06.937,8.63
06.953,8.8
06.968,8.9
06.984,8.8
07.000,8.43
07.015,7.8
07.031,6.97
07.046,6.05
07.062,5.15
07.078,4.36
07.093,3.75
07.109,3.26
07.125,2.87
07.140,2.56
07.156,2.28
07.171,2.06
07.187,1.89
07.203,1.76
07.218,1.62
07.234,1.47
07.250,1.26
07.265,0.92
07.281,0.45
07.296,-0.17
07.312,-0.92
07.328,-1.77
07.343,-2.67
07.359,-3.59
07.375,-4.42
07.390,-5.09
07.406,-5.58
07.421,-5.92
07.437,-6.3
07.453,-6.85
07.468,-7.68
07.484,-8.76
07.500,-9.95
07.515,-11.02
07.531,-11.79
07.546,-12.13
07.562,-11.96
07.578,-11.29
07.593,-10.14
07.609,-8.54
07.625,-6.59
07.640,-4.38
07.656,-2.06
07.671,0.23
07.687,2.43
07.703,4.55
07.718,6.6
07.734,8.57
07.750,10.42
07.765,12.01
07.781,13.24
07.796,14.04
07.812,14.35
07.828,14.15
07.843,13.55
07.859,12.65
07.875,11.57
07.890,10.47
07.906,9.41
07.921,8.49
07.937,7.75
07.953,7.22
07.968,6.91
07.984,6.76
08.000,6.64
08.015,6.44
08.031,6.09
08.046,5.56
08.062,4.93
08.078,4.31
08.093,3.79
08.109,3.42
08.125,3.16
08.140,2.96
08.156,2.73
08.171,2.45
08.187,2.05
08.203,1.43
08.218,0.55
08.234,-0.66
08.250,-2.15
08.265,-3.83
08.281,-5.54
08.296,-7.12
08.312,-8.46
08.328,-9.54
08.343,-10.41
08.359,-11.16
08.375,-11.89
08.390,-12.65
08.406,-13.49
08.421,-14.41
08.437,-15.34
08.453,-16.16
08.468,-16.73
08.484,-16.9
08.500,-16.55
08.515,-15.69
08.531,-14.38
08.546,-12.78
08.562,-11.06
08.578,-9.31
08.593,-7.57
08.609,-5.8
08.625,-3.99
08.640,-2.06
08.656,-0.03
08.671,2.05
08.687,4.03
08.703,5.75
08.718,7.04
08.734,7.85
08.750,8.23
08.765,8.29
08.781,8.26
08.796,8.25
08.812,8.29
08.828,8.35
08.843,8.38
08.859,8.3
08.875,8.09
08.890,7.82
08.906,7.47
08.921,6.99
08.937,6.31
08.953,5.38
08.968,4.25
08.984,3.02
09.000,1.84
09.015,0.81
09.031,-0.03
09.046,-0.71
09.062,-1.3
09.078,-1.88
09.093,-2.46
09.109,-3.01
09.125,-3.49
09.140,-3.89
09.156,-4.23
09.171,-4.6
09.187,-5.09
09.203,-5.75
09.218,-6.62
09.234,-7.69
09.250,-8.86
09.265,-10.06
09.281,-11.19
09.296,-12.18
09.312,-13.01
09.328,-13.71
09.343,-14.34
09.359,-15.01
09.375,-15.84
09.390,-16.87
09.406,-18.04
09.421,-19.18
09.437,-20.07
09.453,-20.48
09.468,-20.27
09.484,-19.39
09.500,-17.87
09.515,-15.8
09.531,-13.33
09.546,-10.57
09.562,-7.72
09.578,-4.95
09.593,-2.44
09.609,-0.24
09.625,1.64
09.640,3.26
09.656,4.69
09.671,5.92
09.687,6.89
09.703,7.58
09.718,7.97
09.734,8.19
09.750,8.4
09.765,8.7
09.781,9.11
09.796,9.53
09.812,9.86
09.828,10.0
09.843,9.95
09.859,9.75
09.875,9.5
09.890,9.22
09.906,8.85
09.921,8.31
09.937,7.54
09.953,6.56
09.968,5.5
09.984,4.48
10.000,3.58
10.015,2.8
10.031,2.02
10.046,1.15
10.062,0.15
10.078,-0.95
10.093,-2.06
10.109,-3.09
10.125,-4.01
10.140,-4.91
10.156,-5.85
10.171,-6.86
10.187,-7.94
10.203,-8.96
10.218,-9.85
10.234,-10.55
10.250,-11.1
10.265,-11.58
10.281,-12.16
10.296,-12.94
10.312,-13.95
10.328,-15.16
10.343,-16.42
10.359,-17.6
10.375,-18.6
10.390,-19.33
10.406,-19.75
10.421,-19.75
10.437,-19.25
10.453,-18.18
10.468,-16.5
10.484,-14.28
10.500,-11.63
10.515,-8.73
10.531,-5.73
10.546,-2.82
10.562,-0.08
10.578,2.43
10.593,4.65
10.609,6.6
10.625,8.29
10.640,9.77
10.656,11.04
10.671,12.12
10.687,12.96
10.703,13.47
10.718,13.63
10.734,13.43
10.750,12.92
10.765,12.27
10.781,11.64
10.796,11.21
10.812,11.02
10.828,11.02
10.843,11.04
10.859,10.94
10.875,10.58
10.890,9.92
10.906,8.98
10.921,7.87
10.937,6.69
10.953,5.49
10.968,4.34
10.984,3.28
11.000,2.34
11.015,1.51
11.031,0.8
11.046,0.19
11.062,-0.36
11.078,-0.84
11.093,-1.27
11.109,-1.65
11.125,-1.98
11.140,-2.31
11.156,-2.73
11.171,-3.29
11.187,-3.99
11.203,-4.82
11.218,-5.66
11.234,-6.45
11.250,-7.16
11.265,-7.85
11.281,-8.63
11.296,-9.59
11.312,-10.75
11.328,-12.04
11.343,-13.41
11.359,-14.7
11.375,-15.8
11.390,-16.55
11.406,-16.76
11.421,-16.29
11.437,-15.03
11.453,-13.01
11.468,-10.37
11.484,-7.34
11.500,-4.13
11.515,-0.89
11.531,2.27
11.546,5.3
11.562,8.16
11.578,10.76
11.593,12.97
11.609,14.71
11.625,15.95
11.640,16.81
11.656,17.45
11.671,17.99
11.687,18.51
11.703,18.98
11.718,19.36
11.734,19.56
11.750,19.54
11.765,19.29
11.781,18.88
11.796,18.32
11.812,17.64
11.828,16.83
11.843,15.83
11.859,14.64
11.875,13.3
11.890,11.91
11.906,10.62
11.921,9.58
11.937,8.84
11.953,8.34
11.968,7.93
11.984,7.45
12.000,6.78
12.015,5.95
12.031,5.05
12.046,4.18
12.062,3.4
12.078,2.69
12.093,1.98
12.109,1.18
12.125,0.22
12.140,-0.91
12.156,-2.17
12.171,-3.51
12.187,-4.88
12.203,-6.2
12.218,-7.39
12.234,-8.35
12.250,-9.05
12.265,-9.55
12.281,-9.97
12.296,-10.49
12.312,-11.22
12.328,-12.17
12.343,-13.21
12.359,-14.09
12.375,-14.51
12.390,-14.25
12.406,-13.19
12.421,-11.38
12.437,-9.04
12.453,-6.4
12.468,-3.7
12.484,-1.11
12.500,1.28
12.515,3.49
12.531,5.55
12.546,7.47
12.562,9.2
12.578,10.65
12.593,11.72
12.609,12.42
12.625,12.76
12.640,12.81
12.656,12.69
12.671,12.45
12.687,12.13
12.703,11.74
12.718,11.29
12.734,10.79
12.750,10.22
12.765,9.57
12.781,8.84
12.796,8.01
12.812,7.12
12.828,6.23
12.843,5.43
12.859,4.77
12.875,4.28
12.890,3.95
12.906,3.68
12.921,3.41
12.937,3.07
12.953,2.61
12.968,2.03
12.984,1.29
13.000,0.35
13.015,-0.81
13.031,-2.2
13.046,-3.76
13.062,-5.39
13.078,-6.98
13.093,-8.45
13.109,-9.75
13.125,-10.9
13.140,-11.97
13.156,-13.04
13.171,-14.17
13.187,-15.35
13.203,-16.54
13.218,-17.63
13.234,-18.61
13.250,-19.5
13.265,-20.34
13.281,-21.19
13.296,-21.99
13.312,-22.62
13.328,-22.85
13.343,-22.43
13.359,-21.23
13.375,-19.26
13.390,-16.69
13.406,-13.77
13.421,-10.77
13.437,-7.92
13.453,-5.36
13.468,-3.15
13.484,-1.24
13.500,0.47
13.515,2.12
13.531,3.82
13.546,5.56
13.562,7.21
13.578,8.6
13.593,9.59
13.609,10.09
13.625,10.18
13.640,9.99
13.656,9.7
13.671,9.41
13.687,9.17
13.703,8.97
13.718,8.8
13.734,8.62
13.750,8.35
13.765,7.93
13.781,7.3
13.796,6.44
13.812,5.45
13.828,4.49
13.843,3.69
13.859,3.16
13.875,2.84
13.890,2.57
13.906,2.14
13.921,1.42
13.937,0.37
13.953,-0.9
13.968,-2.24
13.984,-3.49
14.000,-4.6
14.015,-5.59
14.031,-6.5
14.046,-7.37
14.062,-8.19
14.078,-8.98
14.093,-9.73
14.109,-10.47
14.125,-11.26
14.140,-12.14
14.156,-13.1
14.171,-14.09
14.187,-15.03
14.203,-15.86
14.218,-16.6
14.234,-17.26
14.250,-17.88
14.265,-18.5
14.281,-19.02
14.296,-19.28
14.312,-19.14
14.328,-18.47
14.343,-17.26
14.359,-15.59
14.375,-13.64
14.390,-11.53
14.406,-9.4
14.421,-7.25
14.437,-5.08
14.453,-2.87
14.468,-0.65
14.484,1.48
14.500,3.47
14.515,5.27
14.531,6.85
14.546,8.23
14.562,9.37
14.578,10.26
14.593,10.82
14.609,11.04
14.625,10.95
14.640,10.67
14.656,10.36
14.671,10.17
14.687,10.21
14.703,10.47
14.718,10.86
14.734,11.26
14.750,11.52
14.765,11.53
14.781,11.21
14.796,10.57
14.812,9.66
14.828,8.55
14.843,7.35
14.859,6.14
14.875,4.96
14.890,3.79
14.906,2.56
14.921,1.18
14.937,-0.39
14.953,-2.08
14.968,-3.7
14.984,-5.09
15.000,-6.15
15.015,-6.93
15.031,-7.53
15.046,-8.07
15.062,-8.63
15.078,-9.26
15.093,-10.02
15.109,-10.86
15.125,-11.81
15.140,-12.8
15.156,-13.8
15.171,-14.8
15.187,-15.79
15.203,-16.83
15.218,-17.95
15.234,-19.12
15.250,-20.21
15.265,-21.08
15.281,-21.55
15.296,-21.57
15.312,-21.15
15.328,-20.28
15.343,-18.95
15.359,-17.09
15.375,-14.64
15.390,-11.65
15.406,-8.26
15.421,-4.67
15.437,-1.11
15.453,2.2
15.468,5.13
15.484,7.62
15.500,9.61
15.515,11.13
15.531,12.21
15.546,12.9
15.562,13.31
15.578,13.55
15.593,13.64
15.609,13.55
15.625,13.28
15.640,12.86
15.656,12.46
15.671,12.27
15.687,12.49
15.703,13.16
15.718,14.15
15.734,15.15
15.750,15.83
15.765,15.9
15.781,15.27
15.796,14.07
15.812,12.5
15.828,10.83
15.843,9.23
15.859,7.8
15.875,6.5
15.890,5.28
15.906,4.08
15.921,2.97
15.937,2.07
15.953,1.51
15.968,1.37
15.984,1.58
16.000,1.94
16.015,2.2
16.031,2.21
16.046,1.9
16.062,1.35
16.078,0.63
16.093,-0.23
16.109,-1.27
16.125,-2.52
16.140,-3.96
16.156,-5.54
16.171,-7.16
16.187,-8.76
16.203,-10.33
16.218,-11.86
16.234,-13.31
16.250,-14.53
16.265,-15.31
16.281,-15.45
16.296,-14.81
16.312,-13.44
16.328,-11.46
16.343,-9.07
16.359,-6.4
16.375,-3.57
16.390,-0.61
16.406,2.37
16.421,5.22
16.437,7.79
16.453,9.96
16.468,11.73
16.484,13.21
16.500,14.54
16.515,15.72
16.531,16.69
16.546,17.28
16.562,17.4
16.578,17.1
16.593,16.52
16.609,15.87
16.625,15.31
16.640,14.92
16.656,14.63
16.671,14.37
16.687,14.05
16.703,13.7
16.718,13.3
16.734,12.86
16.750,12.29
16.765,11.54
16.781,10.57
16.796,9.41
16.812,8.15
16.828,6.85
16.843,5.64
16.859,4.53
16.875,3.56
16.890,2.7
16.906,1.91
16.921,1.12
16.937,0.26
16.953,-0.68
16.968,-1.7
16.984,-2.68
17.000,-3.51
17.015,-4.1
17.031,-4.48
17.046,-4.81
17.062,-5.33
17.078,-6.19
17.093,-7.41
17.109,-8.87
17.125,-10.39
17.140,-11.84
17.156,-13.22
17.171,-14.57
17.187,-15.96
17.203,-17.34
17.218,-18.5
17.234,-19.12
17.250,-18.98
17.265,-18.02
17.281,-16.38
17.296,-14.29
17.312,-11.93
17.328,-9.4
17.343,-6.69
17.359,-3.82
17.375,-0.83
17.390,2.06
17.406,4.65
17.421,6.81
17.437,8.52
17.453,9.91
17.468,11.06
17.484,12.0
17.500,12.68
17.515,13.0
17.531,12.92
17.546,12.47
17.562,11.8
17.578,11.04
17.593,10.32
17.609,9.65
17.625,9.01
17.640,8.4
17.656,7.79
17.671,7.2
17.687,6.65
17.703,6.09
17.718,5.47
17.734,4.74
17.750,3.87
17.765,2.89
17.781,1.86
17.796,0.82
17.812,-0.18
17.828,-1.17
17.843,-2.18
17.859,-3.29
17.875,-4.45
17.890,-5.65
17.906,-6.85
17.921,-8.05
17.937,-9.3
17.953,-10.58
17.968,-11.9
17.984,-13.18
18.000,-14.37
18.015,-15.43
18.031,-16.35
18.046,-17.19
18.062,-18.01
18.078,-18.87
18.093,-19.73
18.109,-20.6
18.125,-21.49
18.140,-22.42
18.156,-23.3
18.171,-23.99
18.187,-24.23
18.203,-23.81
18.218,-22.65
18.234,-20.83
18.250,-18.6
18.265,-16.15
18.281,-13.6
18.296,-10.96
18.312,-8.16
18.328,-5.18
18.343,-2.09
18.359,0.93
18.375,3.69
18.390,6.01
18.406,7.88
18.421,9.35
18.437,10.48
18.453,11.33
18.468,11.87
18.484,12.06
18.500,11.91
18.515,11.5
18.531,10.92
18.546,10.33
18.562,9.9
18.578,9.67
18.593,9.68
18.609,9.85
18.625,10.13
18.640,10.37
18.656,10.48
18.671,10.34
18.687,9.88
18.703,9.11
18.718,8.08
18.734,6.9
18.750,5.66
18.765,4.42
18.781,3.14
18.796,1.86
18.812,0.54
18.828,-0.75
18.843,-2.0
18.859,-3.19
18.875,-4.29
18.890,-5.36
18.906,-6.45
18.921,-7.59
18.937,-8.73
18.953,-9.83
18.968,-10.8
18.984,-11.67
19.000,-12.51
19.015,-13.42
19.031,-14.47
19.046,-15.7
19.062,-17.04
19.078,-18.38
19.093,-19.64
19.109,-20.76
19.125,-21.7
19.140,-22.39
19.156,-22.69
19.171,-22.39
19.187,-21.34
19.203,-19.48
19.218,-16.89
19.234,-13.72
19.250,-10.26
19.265,-6.74
19.281,-3.4
19.296,-0.35
19.312,2.45
19.328,5.05
19.343,7.52
19.359,9.86
19.375,11.99
19.390,13.77
19.406,15.14
19.421,16.01
19.437,16.43
19.453,16.5
19.468,16.36
19.484,16.17
19.500,16.03
19.515,16.06
19.531,16.26
19.546,16.55
19.562,16.78
19.578,16.82
19.593,16.6
19.609,16.13
19.625,15.52
19.640,14.78
19.656,13.97
19.671,13.05
19.687,11.99
19.703,10.82
19.718,9.63
19.734,8.56
19.750,7.7
19.765,7.04
19.781,6.46
19.796,5.82
19.812,5.0
19.828,3.94
19.843,2.69
19.859,1.29
19.875,-0.17
19.890,-1.64
19.906,-3.05
19.921,-4.35
19.937,-5.5
19.953,-6.49
19.968,-7.36
19.984,-8.13
20.000,-8.89
20.015,-9.67
20.031,-10.48
20.046,-11.33
20.062,-12.2
20.078,-13.07
20.093,-13.91
20.109,-14.63
20.125,-14.97
20.140,-14.77
20.156,-13.82
20.171,-12.05
20.187,-9.56
20.203,-6.56
20.218,-3.34
20.234,-0.13
20.250,2.92
20.265,5.78
20.281,8.45
20.296,10.97
20.312,13.33
20.328,15.43
20.343,17.13
20.359,18.29
20.375,18.84
20.390,18.79
20.406,18.29
20.421,17.55
20.437,16.79
20.453,16.15
20.468,15.66
20.484,15.29
20.500,14.98
20.515,14.64
20.531,14.28
20.546,13.89
20.562,13.47
20.578,13.01
20.593,12.47
20.609,11.8
20.625,11.01
20.640,10.15
20.656,9.28
20.671,8.51
20.687,7.83
20.703,7.19
20.718,6.5
20.734,5.65
20.750,4.59
20.765,3.36
20.781,2.02
20.796,0.64
20.812,-0.72
20.828,-2.06
20.843,-3.42
20.859,-4.84
20.875,-6.31
20.890,-7.79
20.906,-9.15
20.921,-10.34
20.937,-11.35
20.953,-12.25
20.968,-13.18
20.984,-14.21
21.000,-15.35
21.015,-16.51
21.031,-17.5
21.046,-18.17
21.062,-18.48
21.078,-18.4
21.093,-17.92
21.109,-16.98
21.125,-15.46
21.140,-13.29
21.156,-10.58
21.171,-7.51
21.187,-4.4
21.203,-1.51
21.218,1.08
21.234,3.42
21.250,5.64
21.265,7.78
21.281,9.78
21.296,11.39
21.312,12.41
21.328,12.74
21.343,12.46
21.359,11.84
21.375,11.12
21.390,10.47
21.406,9.96
21.421,9.58
21.437,9.23
21.453,8.88
21.468,8.49
21.484,8.06
21.500,7.63
21.515,7.18
21.531,6.7
21.546,6.17
21.562,5.54
21.578,4.77
21.593,3.86
21.609,2.89
21.625,1.94
21.640,1.15
21.656,0.59
21.671,0.25
21.703,-0.31
21.718,-0.78
21.734,-1.46
21.750,-2.34
21.765,-3.41
21.781,-4.7
21.796,-6.19
21.812,-7.85
21.828,-9.57
21.843,-11.26
21.859,-12.75
21.875,-14.06
21.890,-15.28
21.906,-16.59
21.921,-18.13
21.937,-19.86
21.953,-21.7
21.968,-23.42
21.984,-24.9
22.000,-25.96
22.015,-26.53
22.031,-26.51
22.046,-25.84
22.062,-24.42
22.078,-22.21
22.093,-19.34
22.109,-16.0
22.125,-12.46
22.140,-8.94
22.156,-5.54
22.171,-2.33
22.187,0.7
22.203,3.53
22.218,6.15
22.234,8.45
22.250,10.38
22.265,11.93
22.281,13.08
22.296,13.9
22.312,14.44
22.328,14.75
22.343,14.81
22.359,14.66
22.375,14.25
22.390,13.61
22.406,12.86
22.421,12.04
22.437,11.3
22.453,10.66
22.468,10.13
22.484,9.6
22.500,8.96
22.515,8.16
22.531,7.24
22.546,6.31
22.562,5.47
22.578,4.83
22.593,4.38
22.609,4.0
22.625,3.55
22.640,2.86
22.656,1.85
22.671,0.56
22.687,-0.91
22.703,-2.48
22.718,-4.02
22.734,-5.51
22.750,-6.94
22.765,-8.29
22.781,-9.51
22.796,-10.58
22.812,-11.48
22.828,-12.21
22.843,-12.86
22.859,-13.45
22.875,-14.02
22.890,-14.61
22.906,-15.23
22.921,-15.94
22.937,-16.78
22.953,-17.79
22.968,-18.92
22.984,-19.98
23.000,-20.69
23.015,-20.79
23.031,-20.05
23.046,-18.37
23.062,-15.83
23.078,-12.63
23.093,-9.07
23.109,-5.38
23.125,-1.76
23.140,1.68
23.156,4.86
23.171,7.75
23.187,10.31
23.203,12.46
23.218,14.18
23.234,15.46
23.250,16.34
23.265,16.9
23.281,17.23
23.296,17.37
23.312,17.33
23.328,17.15
23.343,16.8
23.359,16.39
23.375,16.02
23.390,15.75
23.406,15.63
23.421,15.64
23.437,15.63
23.453,15.5
23.468,15.11
23.484,14.36
23.500,13.33
23.515,12.1
23.531,10.78
23.546,9.5
23.562,8.32
23.578,7.27
23.593,6.33
23.609,5.46
23.625,4.6
23.640,3.72
23.656,2.78
23.671,1.75
23.687,0.65
23.703,-0.45
23.718,-1.41
23.734,-2.13
23.750,-2.56
23.765,-2.81
23.781,-3.07
23.796,-3.59
23.812,-4.49
23.828,-5.72
23.843,-7.12
23.859,-8.5
23.875,-9.73
23.890,-10.83
23.906,-11.97
23.921,-13.21
23.937,-14.56
23.953,-15.81
23.968,-16.66
23.984,-16.87
24.000,-16.28
24.015,-14.93
24.031,-12.91
24.046,-10.37
24.062,-7.35
24.078,-3.96
24.093,-0.41
24.109,3.02
24.125,6.01
24.140,8.3
24.156,9.84
24.171,10.75
24.187,11.33
24.203,11.83
24.218,12.37
24.234,12.92
24.250,13.38
24.265,13.64
24.281,13.67
24.296,13.52
24.312,13.25
24.328,12.97
24.343,12.78
24.359,12.74
24.375,12.91
24.390,13.28
24.406,13.67
24.421,13.9
24.437,13.74
24.453,13.07
24.468,11.91
24.484,10.44
24.500,8.9
24.515,7.51
24.531,6.39
24.546,5.56
24.562,4.91
24.578,4.38
24.593,3.89
24.609,3.39
24.625,2.85
24.640,2.25
24.656,1.55
24.671,0.68
24.687,-0.4
24.703,-1.74
24.718,-3.33
24.734,-5.14
24.750,-7.04
24.765,-8.93
24.781,-10.71
24.796,-12.34
24.812,-13.87
24.828,-15.38
24.843,-16.93
24.859,-18.49
24.875,-20.05
24.890,-21.44
24.906,-22.54
24.921,-23.22
24.937,-23.31
24.953,-22.71
24.968,-21.36
24.984,-19.35
25.000,-16.79
25.015,-13.97
25.031,-11.06
25.046,-8.18
25.062,-5.3
25.078,-2.39
25.093,0.59
25.109,3.49
25.125,6.11
25.140,8.28
25.156,9.88
25.171,11.02
25.187,11.86
25.203,12.55
25.218,13.16
25.234,13.63
25.250,13.86
25.265,13.75
25.281,13.31
25.296,12.64
25.312,11.89
25.328,11.17
25.343,10.49
25.359,9.82
25.375,9.11
25.390,8.35
25.406,7.55
25.421,6.78
25.437,6.02
25.453,5.25
25.468,4.4
25.484,3.46
25.500,2.48
25.515,1.57
25.531,0.84
25.546,0.31
25.562,-0.08
25.578,-0.49
25.593,-1.07
25.609,-1.87
25.625,-2.89
25.640,-4.07
25.656,-5.29
25.671,-6.54
25.687,-7.83
25.703,-9.19
25.718,-10.68
25.734,-12.26
25.750,-13.89
25.765,-15.51
25.781,-17.11
25.796,-18.74
25.812,-20.49
25.828,-22.39
25.843,-24.39
25.859,-26.34
25.875,-27.96
25.890,-28.98
25.906,-29.21
25.921,-28.53
25.937,-26.94
25.953,-24.6
25.968,-21.74
25.984,-18.55
26.000,-15.23
26.015,-11.9
26.031,-8.62
26.046,-5.43
26.062,-2.33
26.078,0.63
26.093,3.41
26.109,5.94
26.125,8.17
26.140,10.06
26.156,11.61
26.171,12.77
26.187,13.57
26.203,14.01
26.218,14.15
26.234,14.07
26.250,13.87
26.265,13.66
26.281,13.54
26.296,13.54
26.312,13.62
26.328,13.68
26.343,13.63
26.359,13.34
26.375,12.84
26.390,12.17
26.406,11.41
26.421,10.65
26.437,9.87
26.453,9.05
26.468,8.12
26.484,7.03
26.500,5.8
26.515,4.5
26.531,3.16
26.546,1.78
26.562,0.31
26.578,-1.32
26.593,-3.15
26.609,-5.05
26.625,-6.9
26.640,-8.53
26.656,-9.82
26.671,-10.76
26.687,-11.43
26.703,-11.95
26.718,-12.43
26.734,-12.91
26.750,-13.42
26.765,-13.99
26.781,-14.63
26.796,-15.39
26.812,-16.25
26.828,-17.18
26.843,-18.05
26.859,-18.79
26.875,-19.27
26.890,-19.37
26.906,-18.99
26.921,-17.95
26.937,-16.13
26.953,-13.49
26.968,-10.19
26.984,-6.44
27.000,-2.61
27.015,1.04
27.031,4.37
27.046,7.39
27.062,10.15
27.078,12.7
27.093,14.94
27.109,16.74
27.125,18.02
27.140,18.78
27.156,19.15
27.171,19.3
27.187,19.33
27.203,19.25
27.218,19.02
27.234,18.55
27.250,17.86
27.265,17.06
27.281,16.28
27.296,15.65
27.312,15.19
27.328,14.85
27.343,14.57
27.359,14.27
27.375,13.93
27.390,13.52
27.406,13.02
27.421,12.37
27.437,11.48
27.453,10.35
27.468,9.0
27.484,7.52
27.500,6.02
27.515,4.56
27.531,3.24
27.546,2.04
27.562,0.99
27.578,0.04
27.593,-0.79
27.609,-1.52
27.625,-2.16
27.640,-2.73
27.656,-3.26
27.671,-3.8
27.687,-4.41
27.703,-5.13
27.718,-5.98
27.734,-6.96
27.750,-8.13
27.765,-9.53
27.781,-11.16
27.796,-12.97
27.812,-14.8
27.828,-16.44
27.843,-17.62
27.859,-18.11
27.875,-17.78
27.890,-16.6
27.906,-14.65
27.921,-12.07
27.937,-9.05
27.953,-5.79
27.968,-2.44
27.984,0.81
28.000,3.87
28.015,6.62
28.031,9.01
28.046,11.01
28.062,12.63
28.078,13.9
28.093,14.86
28.109,15.55
28.125,16.01
28.140,16.29
28.156,16.39
28.171,16.34
28.187,16.17
28.203,15.95
28.218,15.73
28.234,15.54
28.250,15.38
28.265,15.18
28.281,14.87
28.296,14.38
28.312,13.73
28.328,12.95
28.343,12.1
28.359,11.26
28.375,10.42
28.390,9.59
28.406,8.73
28.421,7.78
28.437,6.67
28.453,5.33
28.468,3.79
28.484,2.11
28.500,0.41
28.515,-1.19
28.531,-2.63
28.546,-3.88
28.562,-5.0
28.578,-6.06
28.593,-7.11
28.609,-8.23
28.625,-9.39
28.640,-10.57
28.656,-11.74
28.671,-12.91
28.687,-14.04
28.703,-15.17
28.718,-16.37
28.734,-17.72
28.750,-19.28
28.765,-20.99
28.781,-22.64
28.796,-23.93
28.812,-24.49
28.828,-23.99
28.843,-22.32
28.859,-19.58
28.875,-16.07
28.890,-12.2
28.906,-8.38
28.921,-4.84
28.937,-1.7
28.953,1.08
28.968,3.57
28.984,5.79
29.000,7.72
29.015,9.3
29.031,10.46
29.046,11.13
29.062,11.32
29.078,11.08
29.093,10.56
29.109,9.94
29.125,9.39
29.140,9.05
29.156,8.91
29.171,8.95
29.187,9.09
29.203,9.32
29.218,9.63
29.234,10.07
29.250,10.58
29.265,11.02
29.281,11.25
29.296,11.13
29.312,10.65
29.328,9.83
29.343,8.81
29.359,7.64
29.375,6.4
29.390,5.12
29.406,3.82
29.421,2.54
29.437,1.26
29.453,0.01
29.468,-1.27
29.484,-2.56
29.500,-3.89
29.515,-5.21
29.531,-6.49
29.546,-7.71
29.562,-8.9
29.578,-10.12
29.593,-11.39
29.609,-12.72
29.625,-14.06
29.640,-15.33
29.656,-16.51
29.671,-17.62
29.687,-18.74
29.703,-19.91
29.718,-21.16
29.734,-22.41
29.750,-23.5
29.765,-24.25
29.781,-24.41
29.796,-23.82
29.812,-22.39
29.828,-20.17
29.843,-17.3
29.859,-14.06
29.875,-10.71
29.890,-7.43
29.906,-4.33
29.921,-1.41
29.937,1.37
29.953,4.09
29.968,6.75
29.984,9.31
30.000,11.63
30.015,13.55
30.031,14.92
30.046,15.7
30.062,15.93
30.078,15.74
30.093,15.33
30.109,14.86
30.125,14.4
30.140,13.96
30.156,13.51
30.171,13.04
30.187,12.57
30.203,12.18
30.218,11.9
30.234,11.72
30.250,11.62
30.265,11.54
30.281,11.37
30.296,11.07
30.312,10.63
30.328,10.02
30.343,9.3
30.359,8.51
30.375,7.67
30.390,6.76
30.406,5.71
30.421,4.41
30.437,2.86
30.453,1.08
30.468,-0.79
30.484,-2.57
30.500,-4.11
30.515,-5.39
30.531,-6.47
30.546,-7.46
30.562,-8.47
30.578,-9.55
30.593,-10.7
30.609,-11.86
30.625,-12.99
30.640,-14.06
30.656,-15.13
30.671,-16.22
30.687,-17.43
30.703,-18.78
30.718,-20.25
30.734,-21.7
30.750,-22.9
30.765,-23.57
30.781,-23.55
30.796,-22.8
30.812,-21.39
30.828,-19.5
30.843,-17.25
30.859,-14.66
30.875,-11.71
30.890,-8.37
30.906,-4.67
30.921,-0.79
30.937,3.02
30.953,6.51
30.968,9.5
30.984,11.94
31.000,13.88
31.015,15.37
31.031,16.44
31.046,17.1
31.062,17.34
31.078,17.24
31.093,16.86
31.109,16.36
31.125,15.79
31.140,15.24
31.156,14.7
31.171,14.2
31.187,13.74
31.203,13.35
31.218,13.03
31.234,12.74
31.250,12.39
31.265,11.88
31.281,11.16
31.296,10.19
31.312,9.11
31.328,8.04
31.343,7.09
31.359,6.29
31.375,5.63
31.390,5.03
31.406,4.45
31.421,3.87
31.437,3.26
31.453,2.61
31.468,1.84
31.484,0.93
31.500,-0.15
31.515,-1.34
31.531,-2.6
31.546,-3.85
31.562,-5.03
31.578,-6.14
31.593,-7.15
31.609,-8.04
31.625,-8.81
31.640,-9.51
31.656,-10.21
31.671,-11.07
31.687,-12.21
31.703,-13.63
31.718,-15.23
31.734,-16.72
31.750,-17.77
31.765,-18.1
31.781,-17.62
31.796,-16.34
31.812,-14.42
31.828,-12.07
31.843,-9.38
31.859,-6.45
31.875,-3.34
31.890,-0.12
31.906,3.08
31.921,6.17
31.937,9.08
31.953,11.78
31.968,14.26
31.984,16.48
32.000,18.33
32.015,19.73
32.031,20.63
32.046,21.03
32.062,21.06
32.078,20.81
32.093,20.32
32.109,19.64
32.125,18.83
32.140,17.91
32.156,17.01
32.171,16.26
32.187,15.72
32.203,15.35
32.218,15.08
32.234,14.73
32.250,14.17
32.265,13.4
32.281,12.44
32.296,11.33
32.312,10.11
32.328,8.75
32.343,7.21
32.359,5.5
32.375,3.7
32.390,2.0
32.406,0.59
32.421,-0.43
32.437,-1.07
32.453,-1.49
32.468,-1.91
32.484,-2.52
32.500,-3.33
32.515,-4.26
32.531,-5.09
32.546,-5.72
32.562,-6.18
32.578,-6.59
32.593,-7.18
32.609,-8.09
32.625,-9.37
32.640,-10.93
32.656,-12.67
32.671,-14.48
32.687,-16.24
32.703,-17.82
32.718,-18.96
32.734,-19.38
32.750,-18.88
32.765,-17.35
32.781,-14.92
32.796,-11.83
32.812,-8.44
32.828,-5.04
32.843,-1.85
32.859,1.05
32.875,3.67
32.890,6.08
32.906,8.36
32.921,10.57
32.937,12.64
32.953,14.47
32.968,15.84
32.984,16.53
33.000,16.46
33.015,15.66
33.031,14.35
33.046,12.85
33.062,11.49
33.078,10.47
33.093,9.85
33.109,9.55
33.125,9.45
33.140,9.41
33.156,9.34
33.171,9.14
33.187,8.75
33.203,8.11
33.218,7.18
33.234,6.01
33.250,4.72
33.265,3.44
33.281,2.26
33.296,1.22
33.312,0.21
33.328,-0.84
33.343,-1.99
33.359,-3.22
33.375,-4.4
33.390,-5.47
33.406,-6.38
33.421,-7.2
33.437,-8.07
33.453,-9.12
33.468,-10.41
33.484,-11.9
33.500,-13.45
33.515,-14.87
33.531,-16.05
33.546,-16.98
33.562,-17.75
33.578,-18.51
33.593,-19.41
33.609,-20.5
33.625,-21.69
33.640,-22.77
33.656,-23.5
33.671,-23.65
33.687,-23.14
33.703,-21.92
33.718,-20.1
33.734,-17.82
33.750,-15.28
33.765,-12.64
33.781,-10.07
33.796,-7.6
33.812,-5.29
33.828,-3.06
33.843,-0.84
33.859,1.43
33.875,3.81
33.890,6.21
33.906,8.51
33.921,10.53
33.937,12.11
33.953,13.07
33.968,13.4
33.984,13.11
34.000,12.35
34.015,11.35
34.031,10.35
34.046,9.6
34.062,9.25
34.078,9.34
34.093,9.74
34.109,10.25
34.125,10.62
34.140,10.66
34.156,10.26
34.171,9.44
34.187,8.28
34.203,6.98
34.218,5.69
34.234,4.55
34.250,3.63
34.265,2.9
34.281,2.25
34.296,1.61
34.312,0.86
34.328,-0.01
34.343,-0.99
34.359,-2.07
34.375,-3.21
34.390,-4.36
34.406,-5.47
34.421,-6.6
34.437,-7.76
34.453,-9.01
34.468,-10.35
34.484,-11.74
34.500,-13.09
34.515,-14.31
34.531,-15.33
34.546,-16.2
34.562,-17.02
34.578,-17.88
34.593,-18.9
34.609,-20.12
34.625,-21.45
34.640,-22.69
34.656,-23.55
34.671,-23.76
34.687,-23.2
34.703,-21.77
34.718,-19.55
34.734,-16.71
34.750,-13.47
34.765,-10.04
34.781,-6.63
34.796,-3.43
34.812,-0.54
34.828,1.96
34.843,4.1
34.859,5.91
34.875,7.49
34.890,8.93
34.906,10.29
34.921,11.59
34.937,12.76
34.953,13.68
34.968,14.26
34.984,14.48
35.000,14.38
35.015,14.11
35.031,13.84
35.046,13.66
35.062,13.6
35.078,13.56
35.093,13.49
35.109,13.28
35.125,12.94
35.140,12.42
35.156,11.72
35.171,10.9
35.187,9.95
35.203,8.91
35.218,7.83
35.234,6.73
35.250,5.57
35.265,4.37
35.281,3.08
35.296,1.72
35.312,0.39
35.328,-0.8
35.343,-1.75
35.359,-2.46
35.375,-3.07
35.390,-3.76
35.406,-4.65
35.421,-5.82
35.437,-7.18
35.453,-8.63
35.468,-10.0
35.484,-11.2
35.500,-12.26
35.515,-13.24
35.531,-14.22
35.546,-15.27
35.562,-16.42
35.578,-17.62
35.593,-18.78
35.609,-19.75
35.625,-20.38
35.640,-20.51
35.656,-20.07
35.671,-19.02
35.687,-17.37
35.703,-15.17
35.718,-12.45
35.734,-9.23
35.750,-5.61
35.765,-1.72
35.781,2.24
35.796,6.09
35.812,9.62
35.828,12.72
35.843,15.32
35.859,17.44
35.875,19.11
35.890,20.3
35.906,21.01
35.921,21.18
35.937,20.86
35.953,20.11
35.968,19.13
35.984,18.11
36.000,17.22
36.015,16.53
36.031,16.1
36.046,15.87
36.062,15.82
36.078,15.9
36.093,16.04
36.109,16.15
36.125,16.11
36.140,15.8
36.156,15.12
36.171,14.11
36.187,12.92
36.203,11.75
36.218,10.75
36.234,9.95
36.250,9.21
36.265,8.35
36.281,7.19
36.296,5.72
36.312,4.06
36.328,2.41
36.343,0.94
36.359,-0.32
36.375,-1.51
36.390,-2.81
36.406,-4.34
36.421,-6.09
36.437,-7.91
36.453,-9.59
36.468,-11.0
36.484,-12.12
36.500,-12.99
36.515,-13.77
36.531,-14.54
36.546,-15.36
36.562,-16.21
36.578,-17.01
36.593,-17.57
36.609,-17.69
36.625,-17.19
36.640,-15.96
36.656,-14.05
36.671,-11.62
36.687,-8.89
36.703,-6.04
36.718,-3.15
36.734,-0.24
36.750,2.65
36.765,5.45
36.781,8.01
36.796,10.15
36.812,11.79
36.828,12.94
36.843,13.68
36.859,14.14
36.875,14.39
36.890,14.41
36.906,14.2
36.921,13.75
36.937,13.13
36.953,12.52
36.968,12.04
36.984,11.82
37.000,11.89
37.015,12.19
37.031,12.59
37.046,12.94
37.062,13.06
37.078,12.81
37.093,12.08
37.109,10.81
37.125,9.08
37.140,7.07
37.156,5.01
37.171,3.1
37.187,1.45
37.203,0.08
37.218,-1.12
37.234,-2.25
37.250,-3.38
37.265,-4.52
37.281,-5.61
37.296,-6.62
37.312,-7.55
37.328,-8.41
37.343,-9.26
37.359,-10.11
37.375,-10.95
37.390,-11.78
37.406,-12.62
37.421,-13.53
37.437,-14.63
37.453,-16.0
37.468,-17.61
37.484,-19.36
37.500,-21.01
37.515,-22.25
37.531,-22.86
37.546,-22.71
37.562,-21.8
37.578,-20.26
37.593,-18.2
37.609,-15.75
37.625,-13.04
37.640,-10.15
37.656,-7.2
37.671,-4.32
37.687,-1.61
37.703,0.87
37.718,3.11
37.734,5.1
37.750,6.8
37.765,8.13
37.781,9.05
37.796,9.57
37.812,9.77
37.828,9.84
37.843,9.95
37.859,10.25
37.875,10.8
37.890,11.56
37.906,12.41
37.921,13.21
37.937,13.84
37.953,14.2
37.968,14.31
37.984,14.2
38.000,13.9
38.015,13.41
38.031,12.7
38.046,11.69
38.062,10.41
38.078,8.95
38.093,7.48
38.109,6.12
38.125,4.85
38.140,3.58
38.156,2.13
38.171,0.45
38.187,-1.44
38.203,-3.41
38.218,-5.33
38.234,-7.12
38.250,-8.77
38.265,-10.35
38.281,-11.88
38.296,-13.39
38.312,-14.82
38.328,-16.2
38.343,-17.56
38.359,-18.93
38.375,-20.39
38.390,-21.92
38.406,-23.46
38.421,-24.87
38.437,-25.9
38.453,-26.31
38.468,-25.87
38.484,-24.45
38.500,-22.01
38.515,-18.72
38.531,-14.87
38.546,-10.81
38.562,-6.88
38.578,-3.35
38.593,-0.34
38.609,2.19
38.625,4.35
38.640,6.3
38.656,8.16
38.671,9.97
38.687,11.69
38.703,13.24
38.718,14.47
38.734,15.31
38.750,15.75
38.765,15.84
38.781,15.66
38.796,15.28
38.812,14.84
38.828,14.4
38.843,14.02
38.859,13.71
38.875,13.44
38.890,13.14
38.906,12.69
38.921,12.05
38.937,11.22
38.953,10.27
38.968,9.26
38.984,8.24
39.000,7.21
39.015,6.14
39.031,4.97
39.046,3.64
39.062,2.19
39.078,0.7
39.093,-0.72
39.109,-2.02
39.125,-3.16
39.140,-4.21
39.156,-5.27
39.171,-6.39
39.187,-7.59
39.203,-8.79
39.218,-9.92
39.234,-10.95
39.250,-11.93
39.265,-12.91
39.281,-13.94
39.296,-15.03
39.312,-16.1
39.328,-17.04
39.343,-17.74
39.359,-18.12
39.375,-18.14
39.390,-17.78
39.406,-17.05
39.421,-15.94
39.437,-14.45
39.453,-12.54
39.468,-10.2
39.484,-7.42
39.500,-4.27
39.515,-0.9
39.531,2.45
39.546,5.48
39.562,8.04
39.578,10.1
39.593,11.82
39.609,13.32
39.625,14.67
39.640,15.78
39.656,16.42
39.671,16.46
39.687,15.88
39.703,14.91
39.718,13.86
39.734,13.05
39.750,12.65
39.765,12.6
39.781,12.78
39.796,12.97
39.812,13.06
39.828,12.93
39.843,12.53
39.859,11.85
39.875,10.92
39.890,9.8
39.906,8.6
39.921,7.46
39.937,6.47
39.953,5.71
39.968,5.13
39.984,4.62
40.000,4.05
40.015,3.34
40.031,2.46
40.046,1.42
40.062,0.26
40.078,-1.0
40.093,-2.35
40.109,-3.75
40.125,-5.12
40.140,-6.34
40.156,-7.29
40.171,-7.92
40.187,-8.32
40.203,-8.68
40.218,-9.24
40.234,-10.13
40.250,-11.31
40.265,-12.61
40.281,-13.78
40.296,-14.58
40.312,-14.85
40.328,-14.51
40.343,-13.55
40.359,-11.96
40.375,-9.78
40.390,-7.05
40.406,-3.95
40.421,-0.64
40.437,2.68
40.453,5.84
40.468,8.78
40.484,11.47
40.500,13.88
40.515,15.96
40.531,17.65
40.546,18.88
40.562,19.65
40.578,20.04
40.593,20.15
40.609,20.03
40.625,19.74
40.640,19.29
40.656,18.66
40.671,17.91
40.687,17.08
40.703,16.26
40.718,15.47
40.734,14.69
40.750,13.9
40.765,13.03
40.781,12.08
40.796,11.02
40.812,9.83
40.828,8.49
40.843,7.01
40.859,5.42
40.875,3.73
40.890,2.05
40.906,0.45
40.921,-0.95
40.937,-2.11
40.953,-3.07
40.968,-3.96
40.984,-4.89
41.000,-5.94
41.015,-7.11
41.031,-8.27
41.046,-9.29
41.062,-10.04
41.078,-10.52
41.093,-10.78
41.109,-10.96
41.125,-11.14
41.140,-11.36
41.156,-11.66
41.171,-12.08
41.187,-12.62
41.203,-13.19
41.218,-13.65
41.234,-13.72
41.250,-13.16
41.265,-11.88
41.281,-9.95
41.296,-7.61
41.312,-5.16
41.328,-2.78
41.343,-0.53
41.359,1.71
41.375,4.05
41.390,6.49
41.406,8.83
41.421,10.82
41.437,12.22
41.453,12.88
41.468,12.8
41.484,12.09
41.500,11.0
41.515,9.75
41.531,8.55
41.546,7.5
41.562,6.66
41.578,6.01
41.593,5.52
41.609,5.14
41.625,4.88
41.640,4.72
41.656,4.6
41.671,4.41
41.687,4.02
41.703,3.36
41.718,2.4
41.734,1.26
41.750,0.09
41.765,-0.98
41.781,-1.93
41.796,-2.78
41.812,-3.57
41.828,-4.32
41.843,-5.05
41.859,-5.79
41.875,-6.59
41.890,-7.47
41.906,-8.44
41.921,-9.52
41.937,-10.62
41.953,-11.7
41.968,-12.72
41.984,-13.7
42.000,-14.69
42.015,-15.74
42.031,-16.83
42.046,-17.95
42.062,-19.05
42.078,-20.07
42.093,-20.94
42.109,-21.58
42.125,-21.89
42.140,-21.74
42.156,-21.06
42.171,-19.81
42.187,-18.02
42.203,-15.74
42.218,-13.09
42.234,-10.17
42.250,-7.11
42.265,-4.03
42.281,-1.04
42.296,1.72
42.312,4.15
42.328,6.2
42.343,7.83
42.359,9.08
42.375,9.97
42.390,10.55
42.406,10.88
42.421,11.01
42.437,10.99
42.453,10.94
42.468,10.94
42.484,11.03
42.500,11.26
42.515,11.58
42.531,11.88
42.546,12.02
42.562,11.93
42.578,11.52
42.593,10.8
42.609,9.86
42.625,8.75
42.640,7.58
42.656,6.41
42.671,5.26
42.687,4.09
42.703,2.9
42.718,1.71
42.734,0.56
42.750,-0.47
42.765,-1.39
42.781,-2.21
42.796,-3.03
42.812,-3.99
42.828,-5.1
42.843,-6.36
42.859,-7.69
42.875,-9.03
42.890,-10.37
42.906,-11.76
42.921,-13.25
42.937,-14.86
42.953,-16.55
42.968,-18.2
42.984,-19.7
43.000,-20.97
43.015,-21.99
43.031,-22.71
43.046,-23.05
43.062,-22.86
43.078,-22.01
43.093,-20.44
43.109,-18.23
43.125,-15.63
43.140,-12.88
43.156,-10.16
43.171,-7.54
43.187,-4.96
43.203,-2.31
43.218,0.41
43.234,3.13
43.250,5.72
43.265,7.95
43.281,9.8
43.296,11.31
43.312,12.5
43.328,13.43
43.343,14.11
43.359,14.49
43.375,14.57
43.390,14.44
43.406,14.16
43.421,13.79
43.437,13.42
43.453,13.03
43.468,12.65
43.484,12.26
43.500,11.83
43.515,11.36
43.531,10.81
43.546,10.08
43.562,9.14
43.578,8.01
43.593,6.77
43.609,5.55
43.625,4.45
43.640,3.5
43.656,2.67
43.671,1.91
43.687,1.1
43.703,0.22
43.718,-0.75
43.734,-1.79
43.750,-2.85
43.765,-3.9
43.781,-4.99
43.796,-6.09
43.812,-7.25
43.828,-8.46
43.843,-9.69
43.859,-10.88
43.875,-11.98
43.890,-12.96
43.906,-13.88
43.921,-14.84
43.937,-15.87
43.953,-16.97
43.968,-18.03
43.984,-18.9
44.000,-19.42
44.015,-19.53
44.031,-19.16
44.046,-18.33
44.062,-17.05
44.078,-15.24
44.093,-12.86
44.109,-9.92
44.125,-6.46
44.140,-2.68
44.156,1.17
44.171,4.88
44.187,8.27
44.203,11.23
44.218,13.71
44.234,15.66
44.250,17.09
44.265,18.0
44.281,18.42
44.296,18.5
44.312,18.38
44.328,18.23
44.343,18.12
44.359,18.05
44.375,17.95
44.390,17.74
44.406,17.35
44.421,16.77
44.437,16.09
44.453,15.38
44.468,14.74
44.484,14.19
44.500,13.68
44.515,13.11
44.531,12.44
44.546,11.67
44.562,10.89
44.578,10.2
44.593,9.61
44.609,9.04
44.625,8.36
44.640,7.41
44.656,6.15
44.671,4.63
44.687,2.95
44.703,1.21
44.718,-0.56
44.734,-2.35
44.750,-4.11
44.765,-5.78
44.781,-7.25
44.796,-8.45
44.812,-9.36
44.828,-10.04
44.843,-10.61
44.859,-11.22
44.875,-11.97
44.890,-12.86
44.906,-13.87
44.921,-14.89
44.937,-15.72
44.953,-16.15
44.968,-16.03
44.984,-15.23
45.000,-13.76
45.015,-11.63
45.031,-8.88
45.046,-5.63
45.062,-2.05
45.078,1.69
45.093,5.38
45.109,8.82
45.125,11.89
45.140,14.51
45.156,16.66
45.171,18.36
45.187,19.6
45.203,20.43
45.218,20.89
45.234,21.03
45.250,20.91
45.265,20.57
45.281,20.02
45.296,19.3
45.312,18.46
45.328,17.58
45.343,16.72
45.359,15.9
45.375,15.02
45.390,14.04
45.406,12.89
45.421,11.6
45.437,10.25
45.453,8.97
45.468,7.86
45.484,6.99
45.500,6.3
45.515,5.73
45.531,5.23
45.546,4.78
45.562,4.35
45.578,3.88
45.593,3.3
45.609,2.47
45.625,1.3
45.640,-0.29
45.656,-2.28
45.671,-4.56
45.687,-7.0
45.703,-9.43
45.718,-11.69
45.734,-13.66
45.750,-15.25
45.765,-16.43
45.781,-17.29
45.796,-17.91
45.812,-18.39
45.828,-18.79
45.843,-19.1
45.859,-19.25
45.875,-19.17
45.890,-18.73
45.906,-17.84
45.921,-16.46
45.937,-14.6
45.953,-12.38
45.968,-9.95
45.984,-7.52
46.000,-5.24
46.015,-3.16
46.031,-1.21
46.046,0.77
46.062,2.89
46.078,5.13
46.093,7.34
46.109,9.3
46.125,10.81
46.140,11.77
46.156,12.24
46.171,12.32
46.187,12.12
46.203,11.69
46.218,11.1
46.234,10.4
46.250,9.65
46.265,8.97
46.281,8.42
46.296,8.0
46.312,7.66
46.328,7.35
46.343,7.01
46.359,6.66
46.375,6.28
46.390,5.79
46.406,5.13
46.421,4.24
46.437,3.12
46.453,1.86
46.468,0.58
46.484,-0.67
46.500,-1.91
46.515,-3.26
46.531,-4.86
46.546,-6.75
46.562,-8.87
46.578,-11.04
46.593,-13.1
46.609,-14.91
46.625,-16.42
46.640,-17.66
46.656,-18.65
46.671,-19.49
46.687,-20.24
46.703,-20.99
46.718,-21.87
46.734,-22.95
46.750,-24.19
46.765,-25.31
46.781,-25.98
46.796,-25.83
46.812,-24.73
46.828,-22.74
46.843,-20.1
46.859,-17.14
46.875,-14.08
46.890,-10.99
46.906,-7.85
46.921,-4.68
46.937,-1.53
46.953,1.5
46.968,4.28
46.984,6.75
47.000,8.86
47.015,10.63
47.031,12.04
47.046,13.04
47.062,13.59
47.078,13.71
47.093,13.49
47.109,13.05
47.125,12.57
47.140,12.17
47.156,11.98
47.171,12.03
47.187,12.26
47.203,12.56
47.218,12.77
47.234,12.69
47.250,12.2
47.265,11.25
47.281,9.96
47.296,8.48
47.312,6.98
47.328,5.55
47.343,4.16
47.359,2.78
47.375,1.38
47.390,0.03
47.406,-1.14
47.421,-2.03
47.437,-2.64
47.453,-3.09
47.468,-3.58
47.484,-4.24
47.500,-5.16
47.515,-6.34
47.531,-7.73
47.546,-9.26
47.562,-10.92
47.578,-12.68
47.593,-14.48
47.609,-16.21
47.625,-17.72
47.640,-18.88
47.656,-19.6
47.671,-19.89
47.687,-19.81
47.703,-19.43
47.718,-18.82
47.734,-17.93
47.750,-16.68
47.765,-14.99
47.781,-12.83
47.796,-10.26
47.812,-7.4
47.828,-4.35
47.843,-1.25
47.859,1.87
47.875,4.95
47.890,7.96
47.906,10.78
47.921,13.26
47.937,15.33
47.953,16.92
47.968,18.08
47.984,18.85
48.000,19.27
48.015,19.3
48.031,18.93
48.046,18.16
48.062,17.04
48.078,15.77
48.093,14.53
48.109,13.5
48.125,12.78
48.140,12.38
48.156,12.19
48.171,12.05
48.187,11.79
48.203,11.28
48.218,10.43
48.234,9.24
48.250,7.87
48.265,6.46
48.281,5.17
48.296,4.13
48.312,3.34
48.328,2.75
48.343,2.26
48.359,1.77
48.375,1.13
48.390,0.29
48.406,-0.75
48.421,-1.98
48.437,-3.28
48.453,-4.49
48.468,-5.5
48.484,-6.22
48.500,-6.66
48.515,-7.0
48.531,-7.45
48.546,-8.2
48.562,-9.36
48.578,-10.89
48.593,-12.58
48.609,-14.17
48.625,-15.37
48.640,-15.92
48.656,-15.65
48.671,-14.54
48.687,-12.63
48.703,-10.11
48.718,-7.18
48.734,-4.05
48.750,-0.9
48.765,2.14
48.781,5.03
48.796,7.76
48.812,10.34
48.828,12.81
48.843,15.1
48.859,17.15
48.875,18.82
48.890,19.96
48.906,20.47
48.921,20.35
48.937,19.71
48.953,18.75
48.968,17.74
48.984,16.84
49.000,16.2
49.015,15.86
49.031,15.75
49.046,15.73
49.062,15.61
49.078,15.24
49.093,14.5
49.109,13.39
49.125,11.95
49.140,10.29
49.156,8.59
49.171,6.97
49.187,5.52
49.203,4.26
49.218,3.14
49.234,2.11
49.250,1.09
49.265,0.03
49.281,-1.1
49.296,-2.3
49.312,-3.59
49.328,-4.94
49.343,-6.35
49.359,-7.8
49.375,-9.3
49.390,-10.89
49.406,-12.59
49.421,-14.47
49.437,-16.5
49.453,-18.63
49.468,-20.74
49.484,-22.66
49.500,-24.16
49.515,-24.96
49.531,-24.87
49.546,-23.7
49.562,-21.52
49.578,-18.55
49.593,-15.1
49.609,-11.58
49.625,-8.24
49.640,-5.21
49.656,-2.49
49.671,0.01
49.687,2.38
49.703,4.62
49.718,6.66
49.734,8.44
49.750,9.86
49.765,10.91
49.781,11.56
49.796,11.79
49.812,11.61
49.828,11.14
49.843,10.47
49.859,9.8
49.875,9.3
49.890,9.05
49.906,9.04
49.921,9.13
49.937,9.18
49.953,9.07
49.968,8.8
49.984,8.37
50.000,7.81
50.015,7.09
50.031,6.11
50.046,4.82
50.062,3.17
50.078,1.27
50.093,-0.7
50.109,-2.54
50.125,-4.09
50.140,-5.29
50.156,-6.19
50.171,-6.92
50.187,-7.56
50.203,-8.15
50.218,-8.72
50.234,-9.3
50.250,-9.94
50.265,-10.73
50.281,-11.69
50.296,-12.79
50.312,-13.97
50.328,-15.1
50.343,-16.17
50.359,-17.23
50.375,-18.44
50.390,-19.89
50.406,-21.55
50.421,-23.16
50.437,-24.34
50.453,-24.79
50.468,-24.26
50.484,-22.77
50.500,-20.51
50.515,-17.72
50.531,-14.62
50.546,-11.34
50.562,-7.94
50.578,-4.48
50.593,-1.03
50.609,2.31
50.625,5.41
50.640,8.15
50.656,10.42
50.671,12.19
50.687,13.43
50.703,14.17
50.718,14.52
50.734,14.6
50.750,14.58
50.765,14.53
50.781,14.5
50.796,14.43
50.812,14.22
50.828,13.79
50.843,13.11
50.859,12.25
50.875,11.28
50.890,10.36
50.906,9.51
50.921,8.77
50.937,8.08
50.953,7.34
50.968,6.5
50.984,5.55
51.000,4.52
51.015,3.38
51.031,2.12
51.046,0.68
51.062,-0.95
51.078,-2.78
51.093,-4.82
51.109,-6.98
51.125,-9.17
51.140,-11.27
51.156,-13.23
51.171,-15.01
51.187,-16.64
51.203,-18.16
51.218,-19.56
51.234,-20.89
51.250,-22.12
51.265,-23.26
51.281,-24.31
51.296,-25.26
51.312,-26.03
51.328,-26.55
51.343,-26.63
51.359,-26.11
51.375,-24.84
51.390,-22.72
51.406,-19.82
51.421,-16.26
51.437,-12.24
51.453,-7.99
51.468,-3.73
51.484,0.34
51.500,4.06
51.515,7.4
51.531,10.41
51.546,13.16
51.562,15.82
51.578,18.46
51.593,21.09
51.609,23.6
51.625,25.84
51.640,27.58
51.656,28.7
51.671,29.15
51.687,28.92
51.703,28.05
51.718,26.6
51.734,24.67
51.750,22.36
51.765,19.94
51.781,17.62
51.796,15.6
51.812,13.96
51.828,12.56
51.843,11.23
51.859,9.77
51.875,8.14
51.890,6.43
51.906,4.82
51.921,3.42
51.937,2.18
51.953,0.98
51.968,-0.38
51.984,-1.93
52.000,-3.59
52.015,-5.19
52.031,-6.53
52.046,-7.57
52.062,-8.28
52.078,-8.79
52.093,-9.23
52.109,-9.71
52.125,-10.29
52.140,-11.02
52.156,-11.92
52.171,-12.97
52.187,-14.18
52.203,-15.46
52.218,-16.77
52.234,-18.0
52.250,-19.06
52.265,-19.88
52.281,-20.3
52.296,-20.16
52.312,-19.28
52.328,-17.51
52.343,-14.82
52.359,-11.32
52.375,-7.2
52.390,-2.72
52.406,1.93
52.421,6.67
52.437,11.52
52.453,16.48
52.468,21.53
52.484,26.48
52.500,31.05
52.515,34.97
52.531,37.99
52.546,39.91
52.562,40.65
52.578,40.15
52.593,38.42
52.609,35.59
52.625,31.9
52.640,27.76
52.656,23.62
52.671,19.89
52.687,16.81
52.703,14.46
52.718,12.71
52.734,11.4
52.750,10.3
52.765,9.23
52.781,8.09
52.796,6.83
52.812,5.45
52.828,4.01
52.843,2.58
52.859,1.17
52.875,-0.15
52.890,-1.34
52.906,-2.4
52.921,-3.33
52.937,-4.18
52.953,-4.98
52.968,-5.84
52.984,-6.73
53.000,-7.64
53.015,-8.5
53.031,-9.24
53.046,-9.87
53.062,-10.48
53.078,-11.18
53.093,-12.04
53.109,-13.11
53.125,-14.36
53.140,-15.76
53.156,-17.24
53.171,-18.67
53.187,-19.89
53.203,-20.68
53.218,-20.87
53.234,-20.33
53.250,-19.07
53.265,-17.19
53.281,-14.86
53.296,-12.24
53.312,-9.44
53.328,-6.55
53.343,-3.62
53.359,-0.71
53.375,2.12
53.390,4.84
53.406,7.39
53.421,9.79
53.437,11.96
53.453,13.86
53.468,15.34
53.484,16.3
53.500,16.68
53.515,16.53
53.531,15.98
53.546,15.24
53.562,14.54
53.578,13.99
53.593,13.64
53.609,13.39
53.625,13.13
53.640,12.67
53.656,11.9
53.671,10.83
53.687,9.54
53.703,8.18
53.718,6.88
53.734,5.67
53.750,4.55
53.765,3.45
53.781,2.26
53.796,0.96
53.812,-0.47
53.828,-1.96
53.843,-3.5
53.859,-5.04
53.875,-6.56
53.890,-8.03
53.906,-9.4
53.921,-10.63
53.937,-11.69
53.953,-12.55
53.968,-13.24
53.984,-13.83
54.000,-14.43
54.015,-15.16
54.031,-16.07
54.046,-17.17
54.062,-18.42
54.078,-19.76
54.093,-21.11
54.109,-22.42
54.125,-23.59
54.140,-24.48
54.156,-24.94
54.171,-24.83
54.187,-23.99
54.203,-22.39
54.218,-20.08
54.234,-17.25
54.250,-14.15
54.265,-10.99
54.281,-7.95
54.296,-5.04
54.312,-2.23
54.328,0.63
54.343,3.6
54.359,6.65
54.375,9.61
54.390,12.21
54.406,14.27
54.421,15.64
54.437,16.35
54.453,16.54
54.468,16.43
54.484,16.24
54.500,16.13
54.515,16.19
54.531,16.36
54.546,16.59
54.562,16.75
54.578,16.79
54.593,16.7
54.609,16.5
54.625,16.24
54.640,15.92
54.656,15.54
54.671,15.07
54.687,14.46
54.703,13.69
54.718,12.78
54.734,11.83
54.750,10.95
54.765,10.3
54.781,10.02
54.796,10.2
54.812,10.74
54.828,11.47
54.843,12.17
54.859,12.74
54.875,13.27
54.890,14.03
54.906,15.34
54.921,17.42
54.937,20.36
54.953,23.99
54.968,27.96
54.984,31.8
55.000,34.87
55.015,36.46
55.031,35.95
55.046,33.02
55.062,27.94
55.078,21.66
55.093,15.55
55.109,11.0
55.125,8.92
55.140,9.44
55.156,11.97
55.171,15.61
55.187,19.51
55.203,23.17
55.218,26.43
55.234,29.39
55.250,32.15
55.265,34.79
55.281,37.29
55.296,39.67
55.312,42.05
55.328,44.58
55.343,47.38
55.359,50.4
55.375,53.36
55.390,55.82
55.406,57.18
55.421,56.82
55.437,54.36
55.453,49.77
55.468,43.53
55.484,36.52
55.500,29.83
55.515,24.5
55.531,21.18
55.546,20.06
55.562,20.73
55.578,22.53
55.593,24.81
55.609,27.22
55.625,29.91
55.640,33.42
55.656,38.37
55.671,45.1
55.687,53.57
55.703,63.3
55.718,73.63
55.734,84.04
55.750,94.08
55.765,103.4
55.781,111.45
55.796,117.35
55.812,119.96
55.828,118.15
55.843,111.06
55.859,98.34
55.875,80.17
55.890,57.11
55.906,30.11
55.921,0.31
55.937,-30.81
55.953,-61.58
55.968,-90.3
55.984,-115.5
56.000,-136.19
56.015,-152.18
56.031,-164.05
56.046,-172.83
56.062,-179.86
56.078,-186.15
56.093,-192.11
56.109,-197.52
56.125,-201.64
56.140,-203.61
56.156,-202.88
56.171,-199.4
56.187,-193.48
56.203,-185.65
56.218,-176.32
56.234,-165.64
56.250,-153.66
56.265,-140.5
56.281,-126.47
56.296,-112.18
56.312,-98.28
56.328,-85.24
56.343,-73.31
56.359,-62.52
56.375,-52.77
56.390,-44.05
56.406,-36.4
56.421,-29.92
56.437,-24.66
56.453,-20.5
56.468,-17.17
56.484,-14.36
56.500,-11.78
56.515,-9.24
56.531,-6.7
56.546,-4.2
56.562,-1.84
56.578,0.23
56.593,1.9
56.609,3.13
56.625,3.97
56.640,4.59
56.656,5.2
56.671,6.01
56.687,7.09
56.703,8.48
56.718,10.09
56.734,11.82
56.750,13.57
56.765,15.22
56.781,16.7
56.796,17.92
56.812,18.76
56.828,19.06
56.843,18.76
56.859,17.82
56.875,16.27
56.890,14.26
56.906,11.95
56.921,9.48
56.937,6.99
56.953,4.53
56.968,2.16
56.984,0.04
57.000,-1.61
57.015,-2.56
57.031,-2.57
57.046,-1.62
57.062,0.13
57.078,2.35
57.093,4.7
57.109,6.88
57.125,8.77
57.140,10.29
57.156,11.39
57.171,12.05
57.187,12.21
57.203,11.85
57.218,11.07
57.234,10.01
57.250,8.8
57.265,7.52
57.281,6.12
57.296,4.56
57.312,2.86
57.328,1.13
57.343,-0.44
57.359,-1.68
57.375,-2.55
57.390,-3.09
57.406,-3.38
57.421,-3.6
57.437,-3.83
57.453,-4.17
57.468,-4.72
57.484,-5.56
57.500,-6.76
57.515,-8.32
57.531,-10.12
57.546,-11.88
57.562,-13.27
57.578,-14.0
57.593,-13.95
57.609,-13.2
57.625,-11.97
57.640,-10.65
57.656,-9.62
57.671,-9.16
57.687,-9.37
57.703,-10.18
57.718,-11.34
57.734,-12.55
57.750,-13.61
57.765,-14.44
57.781,-15.23
57.796,-16.24
57.812,-17.71
57.828,-19.74
57.843,-22.2
57.859,-24.78
57.875,-27.13
57.890,-28.97
57.906,-30.11
57.921,-30.49
57.937,-30.12
57.953,-29.01
57.968,-27.23
57.984,-24.93
58.000,-22.25
58.015,-19.33
58.031,-16.27
58.046,-13.03
58.062,-9.56
58.078,-5.79
58.093,-1.73
58.109,2.48
58.125,6.57
58.140,10.29
58.156,13.47
58.171,15.98
58.187,17.87
58.203,19.24
58.218,20.24
58.234,20.98
58.250,21.51
58.265,21.84
58.281,22.05
58.296,22.28
58.312,22.68
58.328,23.39
58.343,24.43
58.359,25.71
58.375,26.96
58.390,27.93
58.406,28.41
58.421,28.28
58.437,27.54
58.453,26.28
58.468,24.65
58.484,22.72
58.500,20.56
58.515,18.2
58.531,15.64
58.546,12.99
58.562,10.36
58.578,7.81
58.593,5.39
58.609,3.14
58.625,1.02
58.640,-1.02
58.656,-3.0
58.671,-4.97
58.687,-6.97
58.703,-9.03
58.718,-11.2
58.734,-13.52
58.750,-15.95
58.765,-18.34
58.781,-20.49
58.796,-22.21
58.812,-23.25
58.828,-23.5
58.843,-22.86
58.859,-21.34
58.875,-19.02
58.890,-16.03
58.906,-12.54
58.921,-8.68
58.937,-4.63
58.953,-0.51
58.968,3.53
58.984,7.41
59.000,11.04
59.015,14.32
59.031,17.11
59.046,19.31
59.062,20.91
59.078,21.96
59.093,22.64
59.109,23.09
59.125,23.45
59.140,23.74
59.156,23.99
59.171,24.17
59.187,24.27
59.203,24.34
59.218,24.39
59.234,24.43
59.250,24.36
59.265,24.11
59.281,23.65
59.296,22.97
59.312,22.16
59.328,21.24
59.343,20.26
59.359,19.15
59.375,17.97
59.390,16.63
59.406,15.13
59.421,13.47
59.437,11.66
59.453,9.79
59.468,7.96
59.484,6.26
59.500,4.73
59.515,3.39
59.531,2.12
59.546,0.77
59.562,-0.77
59.578,-2.6
59.593,-4.7
59.609,-6.98
59.625,-9.35
59.640,-11.68
59.656,-13.91
59.671,-16.02
59.687,-18.04
59.703,-19.93
59.718,-21.66
59.734,-23.02
59.750,-23.76
59.765,-23.61
59.781,-22.38
59.796,-20.03
59.812,-16.73
59.828,-12.75
59.843,-8.36
59.859,-3.89
59.875,0.48
59.890,4.62
59.906,8.5
59.921,12.14
59.937,15.61
59.953,18.88
59.968,21.92
59.984,24.6
