timestamp,value
00.000,23.54
00.015,19.82
00.031,16.33
00.046,12.84
00.062,9.08
00.078,4.79
00.093,-0.11
00.109,-5.43
00.125,-10.93
00.140,-16.33
00.156,-21.41
00.171,-26.06
00.187,-30.31
00.203,-34.32
00.218,-38.33
00.234,-42.64
00.250,-47.37
00.265,-52.44
00.281,-57.43
00.296,-61.45
00.312,-63.48
00.328,-62.64
00.343,-58.45
00.359,-51.03
00.375,-41.08
00.390,-29.65
00.406,-17.81
00.421,-6.49
00.437,3.81
00.453,12.87
00.468,20.71
00.484,27.45
00.500,33.2
00.515,38.01
00.531,41.8
00.546,44.44
00.562,45.71
00.578,45.53
00.593,43.96
00.609,41.28
00.625,37.93
00.640,34.4
00.656,31.17
00.671,28.67
00.687,27.19
00.703,26.91
00.718,27.77
00.734,29.45
00.750,31.3
00.765,32.53
00.781,32.37
00.796,30.36
00.812,26.49
00.828,21.15
00.843,14.95
00.859,8.45
00.875,2.06
00.890,-4.1
00.906,-9.92
00.921,-15.36
00.937,-20.44
00.953,-25.33
00.968,-30.41
00.984,-36.11
01.000,-42.69
01.015,-49.97
01.031,-57.41
01.046,-64.22
01.062,-69.7
01.078,-73.5
01.093,-75.62
01.109,-76.26
01.125,-75.58
01.140,-73.53
01.156,-69.79
01.171,-64.05
01.187,-56.09
01.203,-46.0
01.218,-34.17
01.234,-21.23
01.250,-7.97
01.265,4.73
01.281,16.04
01.296,25.43
01.312,32.64
01.328,37.87
01.343,41.66
01.359,44.71
01.375,47.66
01.390,50.93
01.406,54.52
01.421,58.08
01.437,61.08
01.453,62.97
01.468,63.49
01.484,62.68
01.500,60.9
01.515,58.52
01.531,55.87
01.546,53.02
01.562,49.81
01.578,46.09
01.593,41.76
01.609,37.03
01.625,32.21
01.640,27.69
01.656,23.68
01.671,20.06
01.687,16.47
01.703,12.38
01.718,7.5
01.734,1.71
01.750,-4.71
01.765,-11.39
01.781,-17.9
01.796,-23.99
01.812,-29.64
01.828,-34.99
01.843,-40.35
01.859,-45.89
01.875,-51.84
01.890,-58.24
01.906,-64.89
01.921,-71.24
01.937,-76.34
01.953,-79.09
01.968,-78.49
01.984,-74.18
02.000,-66.42
02.015,-56.26
02.031,-45.09
02.046,-34.23
02.062,-24.56
02.078,-16.48
02.093,-10.0
02.109,-4.77
02.125,-0.48
02.140,3.32
02.156,7.06
02.171,11.06
02.187,15.37
02.203,19.65
02.218,23.29
02.234,25.5
02.250,25.81
02.265,24.06
02.281,20.57
02.296,15.85
02.312,10.5
02.328,4.92
02.343,-0.74
02.359,-6.47
02.375,-12.3
02.390,-18.18
02.406,-24.11
02.421,-30.01
02.437,-35.98
02.453,-42.21
02.468,-48.83
02.484,-55.98
02.500,-63.49
02.515,-71.01
02.531,-78.0
02.546,-84.01
02.562,-88.58
02.578,-91.5
02.593,-92.7
02.609,-92.14
02.625,-89.88
02.640,-86.03
02.656,-80.94
02.671,-75.14
02.687,-69.49
02.703,-64.87
02.718,-61.81
02.734,-60.35
02.750,-59.77
02.765,-58.83
02.781,-56.11
02.796,-50.53
02.812,-41.57
02.828,-29.53
02.843,-15.22
02.859,0.33
02.875,16.08
02.890,31.35
02.906,45.63
02.921,58.63
02.937,70.11
02.953,79.95
02.968,88.07
02.984,94.47
03.000,99.25
03.015,102.43
03.031,103.97
03.046,103.75
03.062,101.66
03.078,97.86
03.093,92.79
03.109,87.27
03.125,82.04
03.140,77.57
03.156,73.84
03.171,70.42
03.187,66.67
03.203,62.24
03.218,57.26
03.234,52.19
03.250,47.58
03.265,43.68
03.281,40.32
03.296,36.91
03.312,32.97
03.328,28.2
03.343,22.8
03.359,17.36
03.375,12.62
03.390,9.17
03.406,7.3
03.421,6.9
03.437,7.43
03.453,8.1
03.468,7.87
03.484,5.71
03.500,0.88
03.515,-6.71
03.531,-16.22
03.546,-25.61
03.562,-32.05
03.578,-32.65
03.593,-25.55
03.609,-10.78
03.625,9.47
03.640,31.44
03.656,51.19
03.671,65.94
03.687,74.9
03.703,79.08
03.718,80.36
03.734,80.31
03.750,79.66
03.765,78.23
03.781,75.45
03.796,71.0
03.812,65.07
03.828,58.18
03.843,50.69
03.859,42.52
03.875,33.22
03.890,22.3
03.906,9.72
03.921,-3.94
03.937,-17.52
03.953,-29.55
03.968,-38.88
03.984,-45.03
04.000,-48.27
04.015,-49.37
04.031,-49.25
04.046,-48.56
04.062,-47.52
04.078,-45.95
04.093,-43.59
04.109,-40.31
04.125,-36.26
04.140,-31.68
04.156,-26.61
04.171,-20.89
04.187,-14.03
04.203,-5.43
04.218,5.47
04.234,18.9
04.250,34.8
04.265,52.73
04.281,72.17
04.296,92.63
04.312,113.58
04.328,134.57
04.343,155.07
04.359,174.42
04.375,191.78
04.390,206.22
04.406,216.74
04.421,222.44
04.437,222.64
04.453,217.04
04.468,206.08
04.484,191.05
04.500,173.89
04.515,156.63
04.531,140.56
04.546,125.44
04.562,109.32
04.578,89.4
04.593,63.18
04.609,29.92
04.625,-8.7
04.640,-49.21
04.656,-87.36
04.671,-119.67
04.687,-144.53
04.703,-162.4
04.718,-175.24
04.734,-185.57
04.750,-195.41
04.765,-205.89
04.781,-217.03
04.796,-227.73
04.812,-236.19
04.828,-240.56
04.843,-239.79
04.859,-234.38
04.875,-226.95
04.890,-221.69
04.906,-223.02
04.921,-233.53
04.937,-252.08
04.953,-273.45
04.968,-289.66
04.984,-292.84
05.000,-278.08
05.015,-245.5
05.031,-199.92
05.046,-148.65
05.062,-98.54
05.078,-53.64
05.093,-14.53
05.109,20.66
05.125,54.39
05.140,88.21
05.156,121.93
05.171,153.72
05.187,180.65
05.203,199.6
05.218,208.1
05.234,205.3
05.250,192.9
05.265,175.43
05.281,159.39
05.296,151.39
05.312,155.75
05.328,172.41
05.343,196.72
05.359,221.29
05.375,238.54
05.390,243.69
05.406,235.89
05.421,217.6
05.437,192.77
05.453,164.89
05.468,135.86
05.484,105.9
05.500,74.87
05.515,43.12
05.531,12.21
05.546,-15.64
05.562,-38.61
05.578,-56.58
05.593,-71.35
05.609,-85.61
05.625,-101.01
05.640,-116.07
05.656,-125.97
05.671,-124.32
05.687,-106.65
05.703,-73.55
05.718,-31.54
05.734,9.25
05.750,39.7
05.765,55.96
05.781,61.25
05.796,63.84
05.812,72.63
05.828,92.11
05.843,119.8
05.859,147.29
05.875,164.14
05.890,163.28
05.906,144.48
05.921,115.03
05.937,86.28
05.953,68.57
05.968,66.46
05.984,77.26
06.000,93.48
06.015,107.41
06.031,115.59
06.046,119.65
06.062,124.35
06.078,133.17
06.093,145.19
06.109,155.03
06.125,155.79
06.140,143.37
06.156,118.89
06.171,88.13
06.187,57.98
06.203,32.54
06.218,10.93
06.234,-12.09
06.250,-43.04
06.265,-86.05
06.281,-140.72
06.296,-202.19
06.312,-263.15
06.328,-317.23
06.343,-361.11
06.359,-395.34
06.375,-423.36
06.390,-449.76
06.406,-478.6
06.421,-512.19
06.437,-550.15
06.453,-588.86
06.468,-621.85
06.484,-641.01
06.500,-639.23
06.515,-613.05
06.531,-564.28
06.546,-499.74
06.562,-428.63
06.578,-359.07
06.593,-295.69
06.609,-239.25
06.625,-188.16
06.640,-140.96
06.656,-97.89
06.671,-60.5
06.687,-30.03
06.703,-6.01
06.718,14.54
06.734,35.71
06.750,61.05
06.765,91.97
06.781,127.7
06.796,166.17
06.812,205.5
06.828,244.03
06.843,279.51
06.859,308.61
06.875,327.12
06.890,331.57
06.906,321.43
06.921,300.07
06.937,273.59
06.953,247.96
06.968,226.14
06.984,207.58
07.000,190.29
07.015,173.76
07.031,160.74
07.046,156.38
07.062,165.04
07.078,187.09
07.093,217.63
07.109,247.98
07.125,269.4
07.140,276.51
07.156,268.33
07.171,247.3
07.187,217.51
07.203,183.07
07.218,147.45
07.234,113.26
07.250,82.34
07.265,55.34
07.281,31.84
07.296,10.64
07.312,-8.89
07.328,-25.89
07.343,-38.09
07.359,-42.98
07.375,-39.61
07.390,-29.5
07.406,-16.44
07.421,-4.71
07.437,2.71
07.453,5.45
07.468,5.15
07.484,3.94
07.500,2.93
07.515,1.97
07.531,0.51
07.546,-1.28
07.562,-1.86
07.578,1.22
07.593,10.17
07.609,25.2
07.625,44.02
07.640,62.46
07.656,76.59
07.671,84.61
07.687,87.48
07.703,88.07
07.718,89.31
07.734,92.6
07.750,97.48
07.765,102.72
07.781,107.61
07.796,112.6
07.812,118.55
07.828,125.47
07.843,132.11
07.859,136.86
07.875,139.14
07.890,140.87
07.906,145.92
07.921,158.04
07.937,178.16
07.953,202.92
07.968,225.41
07.984,237.98
08.000,235.45
08.015,216.94
08.031,186.23
08.046,149.96
08.062,115.17
08.078,87.35
08.093,69.4
08.109,61.77
08.125,63.5
08.140,73.16
08.156,89.31
08.171,110.51
08.187,134.86
08.203,159.73
08.218,182.24
08.234,199.84
08.250,211.12
08.265,216.07
08.281,215.83
08.296,212.07
08.312,206.26
08.328,199.15
08.343,190.57
08.359,179.96
08.375,166.65
08.390,150.43
08.406,131.65
08.421,111.1
08.437,89.74
08.453,68.28
08.468,47.01
08.484,25.8
08.500,4.41
08.515,-17.37
08.531,-39.4
08.546,-61.23
08.562,-82.03
08.578,-100.89
08.593,-116.89
08.609,-129.33
08.625,-137.76
08.640,-142.08
08.656,-142.64
08.671,-140.27
08.687,-136.35
08.703,-132.53
08.718,-130.53
08.734,-131.88
08.750,-137.6
08.765,-148.06
08.781,-163.17
08.796,-182.58
08.812,-206.02
08.828,-233.34
08.843,-264.45
08.859,-299.03
08.875,-336.36
08.890,-375.19
08.906,-413.78
08.921,-450.55
08.937,-484.41
08.953,-515.15
08.968,-543.42
08.984,-570.79
09.000,-599.19
09.015,-630.52
09.031,-665.79
09.046,-704.5
09.062,-744.11
09.078,-780.03
09.093,-806.32
09.109,-817.04
09.125,-808.09
09.140,-778.48
09.156,-730.72
09.171,-670.0
09.187,-602.72
09.203,-534.68
09.218,-470.09
09.234,-411.33
09.250,-359.46
09.265,-314.77
09.281,-277.11
09.296,-245.65
09.312,-218.66
09.328,-193.63
09.343,-167.89
09.359,-139.61
09.375,-108.63
09.390,-76.73
09.406,-46.71
09.421,-21.2
09.437,-1.39
09.453,13.72
09.468,26.89
09.484,41.42
09.500,59.66
09.515,81.84
09.531,106.1
09.546,129.36
09.562,148.86
09.578,163.32
09.593,173.51
09.609,181.73
09.625,190.91
09.640,203.77
09.656,222.12
09.671,246.4
09.687,274.77
09.703,302.23
09.718,320.73
09.734,321.05
09.750,296.57
09.765,246.97
09.781,180.15
09.796,110.38
09.812,53.31
09.828,20.36
09.843,14.97
09.859,32.96
09.875,65.69
09.890,104.35
09.906,142.5
09.921,176.47
09.937,203.95
09.953,222.89
09.968,231.37
09.984,228.41
10.000,215.16
10.015,194.71
10.031,171.31
10.046,148.72
10.062,128.98
10.078,111.58
10.093,93.77
10.109,71.63
10.125,41.88
10.140,3.53
10.156,-41.31
10.171,-87.75
10.187,-130.01
10.203,-163.35
10.218,-185.5
10.234,-196.66
10.250,-198.33
10.265,-192.0
10.281,-178.33
10.296,-157.29
10.312,-128.94
10.328,-94.41
10.343,-56.34
10.359,-18.69
10.375,13.79
10.390,36.4
10.406,45.59
10.421,39.88
10.437,20.73
10.453,-7.35
10.468,-37.61
10.484,-62.82
10.500,-77.03
10.515,-77.09
10.531,-63.1
10.546,-37.95
10.562,-6.35
10.578,26.5
10.593,56.05
10.609,79.31
10.625,95.31
10.640,105.3
10.656,111.98
10.671,118.54
10.687,127.2
10.703,138.2
10.718,149.35
10.734,156.83
10.750,156.46
10.765,145.02
10.781,121.35
10.796,86.39
10.812,42.82
10.828,-5.84
10.843,-55.88
10.859,-103.62
10.875,-145.33
10.890,-177.26
10.906,-196.02
10.921,-199.79
10.937,-189.54
10.953,-169.28
10.968,-145.13
10.984,-122.97
11.000,-105.95
11.015,-93.39
11.031,-81.61
11.046,-66.26
11.062,-45.05
11.078,-19.1
11.093,7.8
11.109,31.36
11.125,48.91
11.140,60.5
11.156,68.14
11.171,74.12
11.187,79.61
11.203,84.35
11.218,87.07
11.234,86.8
11.250,83.69
11.265,79.2
11.281,75.52
11.296,74.78
11.312,78.11
11.328,85.25
11.343,94.85
11.359,105.21
11.375,115.1
11.390,124.25
11.406,133.47
11.421,144.18
11.437,157.76
11.453,175.32
11.468,197.34
11.484,223.64
11.500,253.15
11.515,283.53
11.531,311.13
11.546,331.59
11.562,341.11
11.578,337.85
11.593,322.88
11.609,299.9
11.625,273.83
11.640,249.07
11.656,228.04
11.671,210.98
11.687,196.62
11.703,183.46
11.718,170.61
11.734,158.1
11.750,146.35
11.765,135.67
11.781,125.95
11.796,116.77
11.812,107.82
11.828,99.14
11.843,91.08
11.859,84.3
11.875,79.39
11.890,76.66
11.906,76.08
11.921,77.28
11.937,79.57
11.953,82.23
11.968,84.5
11.984,85.81
12.000,85.84
12.015,84.49
12.031,81.86
12.046,78.04
12.062,73.12
12.078,67.18
12.093,60.34
12.109,52.83
12.125,44.6
12.140,35.2
12.156,23.53
12.171,8.1
12.187,-12.25
12.203,-37.44
12.218,-65.65
12.234,-93.44
12.250,-116.71
12.265,-132.11
12.281,-138.17
12.296,-135.86
12.312,-128.27
12.328,-119.46
12.343,-113.26
12.359,-112.16
12.375,-116.89
12.390,-126.45
12.406,-138.72
12.421,-151.16
12.437,-161.44
12.453,-167.74
12.468,-168.95
12.484,-164.51
12.500,-154.32
12.515,-138.79
12.531,-118.79
12.546,-95.64
12.562,-70.67
12.578,-44.64
12.593,-17.55
12.609,11.26
12.625,42.36
12.640,75.43
12.656,108.83
12.671,139.79
12.687,165.31
12.703,183.21
12.718,193.11
12.734,196.57
12.750,196.64
12.765,196.74
12.781,199.52
12.796,206.1
12.812,215.78
12.828,226.66
12.843,236.47
12.859,243.52
12.875,247.17
12.890,247.93
12.906,247.1
12.921,246.22
12.937,246.77
12.953,250.0
12.968,256.79
12.984,267.53
13.000,281.92
13.015,298.66
13.031,315.67
13.046,330.63
13.062,341.58
13.078,347.42
13.093,347.87
13.109,342.85
13.125,331.94
13.140,314.06
13.156,287.94
13.171,252.85
13.187,209.62
13.203,160.77
13.218,110.23
13.234,62.12
13.250,19.78
13.265,-14.94
13.281,-41.61
13.296,-60.53
13.312,-72.09
13.328,-76.28
13.343,-72.93
13.359,-62.17
13.375,-45.05
13.390,-23.87
13.406,-1.85
13.421,17.46
13.437,31.06
13.453,37.33
13.468,36.27
13.484,29.28
13.500,18.46
13.515,5.82
13.531,-7.36
13.546,-20.75
13.562,-34.95
13.578,-51.2
13.593,-71.09
13.609,-95.95
13.625,-125.88
13.640,-158.55
13.656,-188.51
13.671,-208.05
13.687,-209.7
13.703,-189.58
13.718,-149.96
13.734,-99.55
13.750,-50.72
13.765,-15.22
13.781,-0.13
13.796,-5.95
13.812,-28.01
13.828,-59.56
13.843,-94.95
13.859,-131.19
13.875,-167.63
13.890,-204.54
13.906,-241.8
13.921,-279.01
13.937,-315.95
13.953,-352.73
13.968,-388.92
13.984,-422.24
14.000,-448.13
14.015,-461.03
14.031,-457.11
14.046,-436.88
14.062,-405.84
14.078,-372.32
14.093,-343.76
14.109,-323.6
14.125,-310.5
14.140,-300.5
14.156,-290.31
14.171,-279.58
14.187,-270.81
14.203,-267.3
14.218,-270.71
14.234,-280.07
14.250,-292.46
14.265,-304.47
14.281,-313.24
14.296,-316.59
14.312,-312.81
14.328,-300.55
14.343,-279.14
14.359,-249.01
14.375,-211.65
14.390,-169.28
14.406,-123.95
14.421,-77.2
14.437,-30.06
14.453,16.52
14.468,61.68
14.484,105.03
14.500,147.01
14.515,188.57
14.531,229.66
14.546,268.04
14.562,299.11
14.578,317.68
14.593,320.64
14.609,309.09
14.625,287.98
14.640,263.66
14.656,240.71
14.671,219.76
14.687,198.08
14.703,172.3
14.718,141.64
14.734,109.33
14.750,81.39
14.765,63.03
14.781,55.24
14.796,53.43
14.812,48.92
14.828,32.56
14.843,-1.69
14.859,-54.97
14.875,-124.18
14.890,-204.24
14.906,-290.09
14.921,-377.2
14.937,-460.54
14.953,-533.28
14.968,-586.87
14.984,-613.32
15.000,-608.55
15.015,-574.61
15.031,-519.74
15.046,-455.45
15.062,-392.46
15.078,-337.53
15.093,-292.58
15.109,-255.96
15.125,-224.82
15.140,-197.02
15.156,-171.77
15.171,-149.21
15.187,-129.59
15.203,-112.73
15.218,-97.85
15.234,-83.87
15.250,-69.7
15.265,-54.63
15.281,-38.35
15.296,-20.99
15.312,-2.93
15.328,15.44
15.343,33.87
15.359,52.47
15.375,71.74
15.390,92.17
15.406,114.2
15.421,137.9
15.437,162.84
15.453,188.2
15.468,212.97
15.484,236.28
15.500,257.78
15.515,277.67
15.531,296.7
15.546,316.06
15.562,337.02
15.578,360.82
15.593,387.97
15.609,417.61
15.625,447.01
15.640,471.95
15.656,487.68
15.671,490.63
15.687,479.84
15.703,457.44
15.718,427.77
15.734,395.48
15.750,363.74
15.765,332.86
15.781,300.46
15.796,262.73
15.812,216.4
15.828,160.72
15.843,98.73
15.859,37.23
15.875,-14.66
15.890,-48.02
15.906,-56.74
15.921,-39.36
15.937,0.68
15.953,55.79
15.968,116.04
15.984,170.99
16.000,211.54
16.015,231.41
16.031,228.04
16.046,202.81
16.062,160.29
16.078,107.0
16.093,49.71
16.109,-5.84
16.125,-55.57
16.140,-96.68
16.156,-127.05
16.171,-144.9
16.187,-148.98
16.203,-138.85
16.218,-115.19
16.234,-79.49
16.250,-33.48
16.265,20.91
16.281,80.96
16.296,142.52
16.312,199.77
16.328,245.8
16.343,274.39
16.359,281.95
16.375,268.79
16.390,239.07
16.406,199.17
16.421,155.15
16.437,110.91
16.453,67.42
16.468,23.39
16.484,-23.03
16.500,-73.0
16.515,-126.65
16.531,-183.66
16.546,-243.71
16.562,-306.13
16.578,-368.55
16.593,-425.73
16.609,-469.77
16.625,-492.12
16.640,-486.75
16.656,-452.9
16.671,-395.71
16.687,-324.44
16.703,-248.7
16.718,-175.34
16.734,-107.12
16.750,-43.87
16.765,15.04
16.781,68.7
16.796,114.39
16.812,148.97
16.828,170.81
16.843,180.88
16.859,182.35
16.875,179.06
16.890,173.94
16.906,168.35
16.921,161.98
16.937,153.88
16.953,143.43
16.968,130.68
16.984,116.22
17.000,100.62
17.015,83.87
17.031,65.18
17.046,43.57
17.062,18.48
17.078,-9.19
17.093,-36.63
17.109,-59.25
17.125,-71.92
17.140,-70.79
17.156,-55.02
17.171,-27.65
17.187,5.16
17.203,36.05
17.218,58.93
17.234,70.78
17.250,71.96
17.265,65.19
17.281,53.95
17.296,41.03
17.312,28.03
17.328,15.86
17.343,5.27
17.359,-2.69
17.375,-6.96
17.390,-7.02
17.406,-3.3
17.421,2.84
17.437,9.57
17.453,15.35
17.468,19.35
17.484,21.63
17.500,22.8
17.515,23.59
17.531,24.37
17.546,25.03
17.562,25.01
17.578,23.65
17.593,20.59
17.609,16.02
17.625,10.6
17.640,5.21
17.656,0.66
17.671,-2.66
17.687,-4.82
17.703,-6.17
17.718,-7.16
17.734,-8.17
17.750,-9.44
17.765,-11.35
17.781,-14.36
17.796,-18.58
17.812,-23.9
17.828,-29.77
17.843,-35.53
17.859,-40.89
17.875,-46.14
17.890,-52.1
17.906,-59.61
17.921,-68.81
17.937,-78.54
17.953,-86.34
17.968,-89.07
17.984,-83.91
18.000,-69.41
18.015,-46.25
18.031,-17.28
18.046,13.09
18.062,39.96
18.078,59.17
18.093,68.29
18.109,67.15
18.125,57.51
18.140,42.41
18.156,25.33
18.171,9.78
18.187,-1.07
18.203,-4.49
18.218,1.42
18.234,16.92
18.250,40.25
18.265,67.48
18.281,93.22
18.296,112.01
18.312,119.86
18.328,115.1
18.343,98.74
18.359,73.84
18.375,44.69
18.390,15.79
18.406,-8.95
18.421,-27.15
18.437,-38.54
18.453,-45.15
18.468,-50.94
18.484,-60.54
18.500,-77.63
18.515,-103.29
18.531,-134.99
18.546,-166.84
18.562,-191.07
18.578,-200.14
18.593,-188.88
18.609,-155.99
18.625,-104.74
18.640,-42.32
18.656,21.6
18.671,77.07
18.687,116.28
18.703,135.23
18.718,134.55
18.734,118.71
18.750,94.53
18.765,68.9
18.781,46.98
18.796,31.19
18.812,21.25
18.828,15.05
18.843,9.89
18.859,3.62
18.875,-4.79
18.890,-15.18
18.906,-26.66
18.921,-38.05
18.937,-48.13
18.953,-55.61
18.968,-58.8
18.984,-55.52
19.000,-43.78
19.015,-23.05
19.031,4.61
19.046,34.11
19.062,58.46
19.078,71.18
19.093,68.68
19.109,51.82
19.125,25.37
19.140,-3.71
19.156,-28.72
19.171,-44.81
19.187,-49.76
19.203,-43.62
19.218,-28.21
19.234,-6.62
19.250,17.23
19.265,38.97
19.281,54.64
19.296,61.58
19.312,59.24
19.328,49.31
19.343,35.03
19.359,19.85
19.375,6.16
19.390,-5.45
19.406,-16.36
19.421,-29.02
19.437,-45.96
19.453,-68.45
19.468,-95.31
19.484,-122.62
19.500,-144.22
19.515,-153.45
19.531,-145.47
19.546,-119.42
19.562,-79.22
19.578,-32.74
19.593,10.81
19.609,43.89
19.625,62.66
19.640,67.61
19.656,62.3
19.671,51.43
19.687,38.98
19.703,27.67
19.718,18.76
19.734,12.77
19.750,9.76
19.765,9.28
19.781,10.42
19.796,11.83
19.812,12.05
19.828,10.01
19.843,5.74
19.859,0.29
19.875,-4.58
19.890,-7.01
19.906,-5.88
19.921,-1.24
19.937,5.77
19.953,13.19
19.968,19.2
19.984,22.75
20.000,23.77
20.015,23.01
20.031,21.56
20.046,20.26
20.062,19.37
20.078,18.76
20.093,17.96
20.109,16.74
20.125,15.23
20.140,13.74
20.156,12.62
20.171,12.07
20.187,11.86
20.203,11.57
20.218,10.75
20.234,9.05
20.250,6.47
20.265,3.21
20.281,-0.46
20.296,-4.3
20.312,-8.09
20.328,-11.72
20.343,-15.07
20.359,-17.96
20.375,-20.31
20.390,-22.0
20.406,-22.96
20.421,-23.16
20.437,-22.3
20.453,-19.97
20.468,-15.73
20.484,-9.41
20.500,-1.22
20.515,7.97
20.531,16.87
20.546,24.17
20.562,28.75
20.578,30.32
20.593,29.4
20.609,27.19
20.625,25.11
20.640,24.42
20.656,25.61
20.671,28.31
20.687,31.3
20.703,33.17
20.718,32.96
20.734,30.59
20.750,27.03
20.765,23.7
20.781,21.65
20.796,20.78
20.812,19.63
20.828,15.74
20.843,6.67
20.859,-8.86
20.875,-30.43
20.890,-55.76
20.906,-81.1
20.921,-102.01
20.937,-114.3
20.953,-114.81
20.968,-102.3
20.984,-78.28
21.000,-46.91
21.015,-14.5
21.031,12.11
21.046,27.47
21.062,29.28
21.078,18.91
21.093,0.9
21.109,-18.53
21.125,-33.58
21.140,-40.39
21.156,-37.73
21.171,-26.81
21.187,-10.62
21.203,7.26
21.218,23.44
21.234,35.41
21.250,41.85
21.265,42.63
21.281,38.56
21.296,31.12
21.312,22.27
21.328,14.01
21.343,8.19
21.359,6.12
21.375,8.22
21.390,13.83
21.406,21.29
21.421,28.61
21.437,34.0
21.453,36.57
21.468,36.4
21.484,34.24
21.500,31.05
21.515,27.65
21.531,24.56
21.546,21.86
21.562,19.41
21.578,16.89
21.593,13.78
21.609,9.71
21.625,4.58
21.640,-1.51
21.656,-7.98
21.671,-14.12
21.687,-19.32
21.703,-23.18
21.718,-25.37
21.734,-25.61
21.750,-23.35
21.765,-18.05
21.781,-9.68
21.796,0.83
21.812,11.62
21.828,20.43
21.843,25.35
21.859,25.77
21.875,22.57
21.890,17.75
21.906,13.32
21.921,10.37
21.937,8.43
21.953,5.8
21.968,0.6
21.984,-8.12
22.000,-19.51
22.015,-31.09
22.031,-39.54
22.046,-42.07
22.062,-37.42
22.078,-26.33
22.093,-11.19
22.109,4.85
22.125,18.95
22.140,29.23
22.156,35.03
22.171,36.7
22.187,35.18
22.203,31.75
22.218,27.7
22.234,24.01
22.250,21.32
22.265,19.67
22.281,18.63
22.296,17.56
22.312,15.9
22.328,13.41
22.343,10.23
22.359,6.77
22.375,3.32
22.390,-0.11
22.406,-3.87
22.421,-8.6
22.437,-14.9
22.453,-23.01
22.468,-32.66
22.484,-43.03
22.500,-52.84
22.515,-60.61
22.531,-64.82
22.546,-64.21
22.562,-58.11
22.578,-46.81
22.593,-31.51
22.609,-14.37
22.625,2.04
22.640,15.32
22.656,23.99
22.671,27.7
22.687,27.2
22.703,23.83
22.718,18.99
22.734,13.66
22.750,8.27
22.765,3.03
22.781,-1.75
22.796,-5.51
22.812,-7.5
22.828,-7.14
22.843,-4.34
22.859,0.51
22.875,6.7
22.890,13.42
22.906,20.19
22.921,26.81
22.937,32.97
22.953,38.14
22.968,41.41
22.984,41.87
23.000,39.1
23.015,33.49
23.031,26.19
23.046,18.58
23.062,11.69
23.078,5.65
23.093,-0.14
23.109,-6.64
23.125,-14.65
23.140,-24.22
23.156,-34.79
23.171,-45.26
23.187,-54.35
23.203,-60.79
23.218,-63.34
23.234,-60.77
23.250,-52.14
23.265,-37.46
23.281,-18.12
23.296,2.7
23.312,20.8
23.328,32.19
23.343,34.54
23.359,28.33
23.375,16.6
23.390,3.99
23.406,-5.19
23.421,-8.3
23.437,-5.15
23.453,2.55
23.468,12.11
23.484,21.04
23.500,27.74
23.515,31.53
23.531,32.5
23.546,31.11
23.562,28.05
23.578,24.08
23.593,19.91
23.609,16.01
23.625,12.4
23.640,8.79
23.656,4.71
23.671,-0.18
23.687,-5.96
23.703,-12.5
23.718,-19.43
23.734,-26.21
23.750,-32.05
23.765,-35.79
23.781,-36.13
23.796,-32.27
23.812,-24.5
23.828,-14.53
23.843,-5.26
23.859,0.57
23.875,1.36
23.890,-2.55
23.906,-9.18
23.921,-15.87
23.937,-20.62
23.953,-22.63
23.968,-22.24
23.984,-20.26
24.000,-17.14
24.015,-12.78
24.031,-6.87
24.046,0.58
24.062,8.95
24.078,17.1
24.093,23.86
24.109,28.62
24.125,31.59
24.140,33.67
24.156,35.96
24.171,39.25
24.187,43.56
24.203,48.13
24.218,51.59
24.234,52.52
24.250,49.85
24.265,43.34
24.281,33.85
24.296,23.22
24.312,13.9
24.328,8.37
24.343,8.29
24.359,13.99
24.375,24.15
24.390,35.91
24.406,45.63
24.421,49.89
24.437,46.48
24.453,35.21
24.468,18.08
24.484,-1.23
24.500,-18.32
24.515,-29.38
24.531,-32.48
24.546,-28.21
24.562,-19.43
24.578,-10.34
24.593,-4.88
24.609,-5.18
24.625,-11.05
24.640,-20.19
24.656,-29.45
24.671,-36.22
24.687,-39.56
24.703,-40.23
24.718,-40.09
24.734,-40.97
24.750,-43.56
24.765,-47.3
24.781,-50.65
24.796,-51.97
24.812,-50.35
24.828,-46.03
24.843,-40.21
24.859,-34.39
24.875,-29.62
24.890,-25.91
24.906,-22.46
24.921,-18.13
24.937,-12.24
24.953,-4.92
24.968,3.05
24.984,10.72
25.000,17.53
25.015,23.33
25.031,28.01
25.046,30.93
25.062,30.95
25.078,26.9
25.093,18.37
25.109,6.48
25.125,-6.38
25.140,-17.24
25.156,-23.79
25.171,-25.15
25.187,-22.09
25.203,-16.32
25.218,-9.68
25.234,-3.58
25.250,1.32
25.265,4.77
25.281,6.77
25.296,7.32
25.312,6.41
25.328,4.1
25.343,0.64
25.359,-3.53
25.375,-7.98
25.390,-12.32
25.406,-16.4
25.421,-20.28
25.437,-24.23
25.453,-28.5
25.468,-33.16
25.484,-37.79
25.500,-41.53
25.515,-43.34
25.531,-42.4
25.546,-38.52
25.562,-32.38
25.578,-25.27
25.593,-18.62
25.609,-13.26
25.625,-9.27
25.640,-6.0
25.656,-2.52
25.671,1.7
25.687,6.58
25.703,11.44
25.718,15.5
25.734,18.19
25.750,19.55
25.765,19.99
25.781,20.02
25.796,20.05
25.812,20.1
25.828,19.98
25.843,19.53
25.859,18.88
25.875,18.35
25.890,18.47
25.906,19.63
25.921,21.95
25.937,25.18
25.953,28.89
25.968,32.49
25.984,35.58
26.000,38.08
26.015,40.12
26.031,41.97
26.046,43.89
26.062,46.05
26.078,48.55
26.093,51.46
26.109,54.86
26.125,58.89
26.140,63.59
26.156,68.96
26.171,74.77
26.187,80.64
26.203,86.2
26.218,91.3
26.234,96.12
26.250,101.05
26.265,106.39
26.281,112.17
26.296,118.09
26.312,123.59
26.328,128.16
26.343,131.74
26.359,134.98
26.375,139.0
26.390,144.71
26.406,152.28
26.421,160.86
26.437,168.93
26.453,174.89
26.468,177.39
26.484,175.61
26.500,169.44
26.515,159.15
26.531,145.17
26.546,128.27
26.562,109.93
26.578,92.51
26.593,78.67
26.609,70.0
26.625,65.78
26.640,62.77
26.656,55.88
26.671,39.62
26.687,10.01
26.703,-34.09
26.718,-91.0
26.734,-157.36
26.750,-229.5
26.765,-304.43
26.781,-377.82
26.796,-441.6
26.812,-485.96
26.828,-502.73
26.843,-489.16
26.859,-449.05
26.875,-390.7
26.890,-323.39
26.906,-254.68
26.921,-189.33
26.937,-129.62
26.953,-76.38
26.968,-29.83
26.984,10.19
27.000,44.23
27.015,72.93
27.031,97.14
27.046,117.9
27.062,136.22
27.078,153.75
27.093,169.9
27.109,182.81
27.125,190.32
27.140,191.0
27.156,184.46
27.171,171.6
27.187,154.35
27.203,135.26
27.218,116.91
27.234,100.74
27.250,86.79
27.265,74.11
27.281,61.54
27.296,48.31
27.312,34.28
27.328,19.98
27.343,6.02
27.359,-7.52
27.375,-18.1
27.390,-25.52
27.406,-30.6
27.421,-34.04
27.437,-35.6
27.453,-33.67
27.468,-25.28
27.484,-7.38
27.500,22.14
27.515,63.2
27.531,112.72
27.546,165.53
27.562,215.48
27.578,256.31
27.593,282.27
27.609,288.55
27.625,271.16
27.640,228.57
27.656,162.77
27.671,79.56
27.687,-12.05
27.703,-102.52
27.718,-185.01
27.734,-257.51
27.750,-321.76
27.765,-380.12
27.781,-431.51
27.796,-469.98
27.812,-486.99
27.828,-475.45
27.843,-434.08
27.859,-368.52
27.875,-289.16
27.890,-206.13
27.906,-125.62
27.921,-49.43
27.937,22.33
27.953,87.45
27.968,140.36
27.984,173.71
28.000,182.15
28.015,165.54
28.031,129.53
28.046,82.95
28.062,33.78
28.078,-13.86
28.093,-59.88
28.109,-105.55
28.125,-151.23
28.140,-194.53
28.156,-231.15
28.171,-257.3
28.187,-272.22
28.203,-279.43
28.218,-285.7
28.234,-298.5
28.250,-322.66
28.265,-358.35
28.281,-400.44
28.296,-440.04
28.312,-467.67
28.328,-476.38
28.343,-464.12
28.359,-433.63
28.375,-391.13
28.390,-343.92
28.406,-298.21
28.421,-257.89
28.437,-224.56
28.453,-198.11
28.468,-177.13
28.484,-159.3
28.500,-141.05
28.515,-118.25
28.531,-87.37
28.546,-46.82
28.562,2.06
28.578,54.98
28.593,105.88
28.609,149.13
28.625,181.21
28.640,201.86
28.656,213.53
28.671,219.99
28.687,224.63
28.703,229.55
28.718,235.25
28.734,241.23
28.750,246.89
28.765,251.85
28.781,256.19
28.796,260.12
28.812,263.74
28.828,266.83
28.843,268.96
28.859,269.53
28.875,267.82
28.890,263.44
28.906,256.03
28.921,245.55
28.937,232.24
28.953,216.52
28.968,199.06
28.984,180.64
29.000,162.16
29.015,144.56
29.031,128.83
29.046,115.67
29.062,105.54
29.078,98.46
29.093,93.89
29.109,91.12
29.125,89.1
29.140,86.78
29.156,83.05
29.171,76.89
29.187,67.3
29.203,53.68
29.218,35.98
29.234,14.81
29.250,-8.42
29.265,-31.84
29.281,-53.31
29.296,-70.88
29.312,-82.94
29.328,-88.59
29.343,-87.65
29.359,-80.59
29.375,-68.59
29.390,-53.2
29.406,-36.06
29.421,-18.82
29.437,-3.03
29.453,9.97
29.468,18.96
29.484,23.13
29.500,22.26
29.515,16.68
29.531,7.38
29.546,-4.33
29.562,-17.06
29.578,-29.61
29.593,-41.15
29.609,-51.08
29.625,-59.02
29.640,-64.71
29.656,-68.12
29.671,-69.51
29.687,-69.5
29.703,-68.87
29.718,-68.39
29.734,-68.67
29.750,-69.93
29.765,-72.11
29.781,-74.92
29.796,-77.96
29.812,-80.83
29.828,-83.08
29.843,-84.35
29.859,-84.24
29.875,-82.41
29.890,-78.62
29.906,-72.73
29.921,-64.72
29.937,-54.83
29.953,-43.59
29.968,-31.76
29.984,-20.28
30.000,-9.89
30.015,-1.16
30.031,5.66
30.046,10.39
30.062,12.97
30.078,13.44
30.093,12.08
30.109,9.45
30.125,6.28
30.140,3.48
30.156,1.84
30.171,1.94
30.187,4.05
30.203,8.19
30.218,14.15
30.234,21.42
30.250,29.29
30.265,36.89
30.281,43.43
30.296,48.48
30.312,51.98
30.328,54.06
30.343,54.97
30.359,55.03
30.375,54.49
30.390,53.69
30.406,53.02
30.421,52.77
30.437,53.0
30.453,53.46
30.468,53.68
30.484,53.11
30.500,51.6
30.515,49.13
30.531,45.99
30.546,42.56
30.562,39.12
30.578,35.81
30.593,32.77
30.609,30.09
30.625,27.77
30.640,25.79
30.656,23.95
30.671,22.01
30.687,19.78
30.703,17.11
30.718,14.08
30.734,10.76
30.750,7.32
30.765,3.8
30.781,0.18
30.796,-3.68
30.812,-7.85
30.828,-12.33
30.843,-17.04
30.859,-21.56
30.875,-25.44
30.890,-28.02
30.906,-28.65
30.921,-26.84
30.937,-22.62
30.953,-16.34
30.968,-8.84
30.984,-1.19
31.000,5.7
31.015,11.21
31.031,15.13
31.046,17.58
31.062,18.95
31.078,19.6
31.093,19.91
31.109,20.17
31.125,20.51
31.140,21.2
31.156,22.45
31.171,24.52
31.187,27.37
31.203,30.73
31.218,33.97
31.234,36.34
31.250,37.31
31.265,36.65
31.281,34.7
31.296,32.06
31.312,29.3
31.328,26.77
31.343,24.58
31.359,22.77
31.375,21.45
31.390,20.92
31.406,21.32
31.421,22.64
31.437,24.45
31.453,26.09
31.468,26.9
31.484,26.42
31.500,24.51
31.515,21.12
31.531,16.35
31.546,10.18
31.562,2.74
31.578,-5.65
31.593,-14.44
31.609,-22.78
31.625,-29.78
31.640,-34.57
31.656,-36.61
31.671,-35.6
31.687,-31.79
31.703,-25.77
31.718,-18.33
31.734,-10.46
31.750,-2.99
31.765,3.46
31.781,8.54
31.796,12.21
31.812,14.65
31.828,16.11
31.843,16.84
31.859,17.2
31.875,17.4
31.890,17.61
31.906,17.9
31.921,18.21
31.937,18.41
31.953,18.38
31.968,18.0
31.984,17.12
32.000,15.81
32.015,14.04
32.031,11.9
32.046,9.52
32.062,6.97
32.078,4.47
32.093,2.25
32.109,0.61
32.125,-0.32
32.140,-0.38
32.156,0.34
32.171,1.63
32.187,3.15
32.203,4.45
32.218,5.08
32.234,4.62
32.250,2.95
32.265,0.06
32.281,-3.82
32.296,-8.44
32.312,-13.49
32.328,-18.64
32.343,-23.51
32.359,-27.47
32.375,-29.86
32.390,-29.97
32.406,-27.45
32.421,-22.38
32.437,-15.49
32.453,-7.74
32.468,-0.11
32.484,6.72
32.500,12.56
32.515,17.45
32.531,21.48
32.546,24.56
32.562,26.39
32.578,26.72
32.593,25.62
32.609,23.64
32.625,21.65
32.640,20.56
32.656,20.9
32.671,22.67
32.687,25.22
32.703,27.73
32.718,29.57
32.734,30.44
32.750,30.6
32.765,30.32
32.781,29.78
32.796,28.88
32.812,27.37
32.828,24.92
32.843,21.43
32.859,17.16
32.875,12.52
32.890,8.07
32.906,4.03
32.921,0.33
32.937,-3.42
32.953,-7.56
32.968,-12.3
32.984,-17.53
33.000,-22.83
33.015,-27.64
33.031,-31.37
33.046,-33.71
33.062,-34.46
33.078,-33.51
33.093,-30.73
33.109,-25.96
33.125,-19.21
33.140,-10.62
33.156,-0.26
33.171,11.61
33.187,24.4
33.203,37.28
33.218,49.43
33.234,60.07
33.250,68.9
33.265,75.97
33.281,81.57
33.296,86.95
33.312,93.09
33.328,100.33
33.343,108.24
33.359,116.08
33.375,123.07
33.390,129.04
33.406,134.29
33.421,139.15
33.437,145.13
33.453,153.01
33.468,162.44
33.484,172.32
33.500,181.95
33.515,191.79
33.531,203.59
33.546,218.93
33.562,237.18
33.578,256.62
33.593,272.91
33.609,280.85
33.625,276.24
33.640,257.72
33.656,227.01
33.671,187.63
33.687,143.34
33.703,87.37
33.718,19.96
33.734,-50.88
33.750,-110.47
33.765,-144.61
33.781,-147.38
33.796,-123.97
33.812,-87.2
33.828,-48.81
33.843,-17.84
33.859,3.77
33.875,17.71
33.890,26.79
33.906,32.68
33.921,35.28
33.937,33.48
33.953,25.38
33.968,11.3
33.984,-7.48
34.000,-27.38
34.015,-45.24
34.031,-59.07
34.046,-68.42
34.062,-74.11
34.078,-77.28
34.093,-78.6
34.109,-77.61
34.125,-73.72
34.140,-65.32
34.156,-51.71
34.171,-33.9
34.187,-14.79
34.203,1.45
34.218,10.72
34.234,10.07
34.250,-1.29
34.265,-22.81
34.281,-52.07
34.296,-86.02
34.312,-121.89
34.328,-157.59
34.343,-191.81
34.359,-223.71
34.375,-252.77
34.390,-278.54
34.406,-301.27
34.421,-321.67
34.437,-340.98
34.453,-360.36
34.468,-379.81
34.484,-397.69
34.500,-410.6
34.515,-414.61
34.531,-407.05
34.546,-387.94
34.562,-360.05
34.578,-327.91
34.593,-296.0
34.609,-267.17
34.625,-242.52
34.640,-221.85
34.656,-204.49
34.671,-189.88
34.687,-177.5
34.703,-166.36
34.718,-154.98
34.734,-141.49
34.750,-124.21
34.765,-102.75
34.781,-78.41
34.796,-54.06
34.812,-33.44
34.828,-19.83
34.843,-14.83
34.859,-17.83
34.875,-26.02
34.890,-35.52
34.906,-43.06
34.921,-47.06
34.937,-47.92
34.953,-47.12
34.968,-45.65
34.984,-42.94
35.000,-36.88
35.015,-24.68
35.031,-4.49
35.046,23.67
35.062,57.97
35.078,95.45
35.093,132.82
35.109,166.91
35.125,194.56
35.140,212.59
35.156,218.39
35.171,210.85
35.187,191.39
35.203,164.4
35.218,136.03
35.234,112.27
35.250,97.47
35.265,93.43
35.281,99.86
35.296,115.41
35.312,138.48
35.328,167.9
35.343,202.88
35.359,242.55
35.375,285.39
35.390,328.93
35.406,369.41
35.421,401.89
35.437,420.44
35.453,419.26
35.468,394.78
35.484,347.32
35.500,281.44
35.515,204.59
35.531,124.53
35.546,47.09
35.562,-24.56
35.578,-89.18
35.593,-145.99
35.609,-193.16
35.625,-227.97
35.640,-247.96
35.656,-252.45
35.671,-243.48
35.687,-225.14
35.703,-201.39
35.718,-175.03
35.734,-147.44
35.750,-118.37
35.765,-86.88
35.781,-51.91
35.796,-12.76
35.812,30.12
35.828,75.43
35.843,122.21
35.859,168.58
35.875,211.07
35.890,245.75
35.906,269.04
35.921,278.36
35.937,272.58
35.953,250.96
35.968,214.28
35.984,167.65
36.000,117.31
36.015,68.37
36.031,25.75
36.046,-6.61
36.062,-26.4
36.078,-33.64
36.093,-32.86
36.109,-31.0
36.125,-31.28
36.140,-35.38
36.156,-44.02
36.171,-54.06
36.187,-60.88
36.203,-61.63
36.218,-58.45
36.234,-61.88
36.250,-85.72
36.265,-136.02
36.281,-212.54
36.296,-309.74
36.312,-415.63
36.328,-516.3
36.343,-599.57
36.359,-641.78
36.375,-625.2
36.390,-572.91
36.406,-501.85
36.421,-411.34
36.437,-306.05
36.453,-193.5
36.468,-83.07
36.484,16.66
36.500,100.6
36.515,165.74
36.531,211.46
36.546,241.29
36.562,256.86
36.578,255.19
36.593,233.48
36.609,191.59
36.625,133.52
36.640,66.84
36.656,-1.92
36.671,-67.87
36.687,-124.8
36.703,-170.89
36.718,-207.23
36.734,-234.35
36.750,-252.5
36.765,-261.99
36.781,-263.69
36.796,-260.61
36.812,-255.81
36.828,-249.56
36.843,-241.17
36.859,-229.63
36.875,-212.79
36.890,-189.56
36.906,-159.52
36.921,-123.2
36.937,-82.82
36.953,-41.52
36.968,-2.0
36.984,32.86
37.000,59.98
37.015,77.2
37.031,83.61
37.046,80.05
37.062,69.03
37.078,54.37
37.093,40.39
37.109,31.56
37.125,31.17
37.140,40.85
37.156,60.54
37.171,88.79
37.187,123.29
37.203,161.07
37.218,199.16
37.234,235.04
37.250,267.0
37.265,294.31
37.281,317.05
37.296,334.75
37.312,345.79
37.328,347.38
37.343,336.32
37.359,311.23
37.375,274.69
37.390,233.17
37.406,195.27
37.421,168.6
37.437,156.46
37.453,157.25
37.468,166.0
37.484,176.73
37.500,184.96
37.515,188.87
37.531,188.66
37.546,185.22
37.562,178.62
37.578,168.19
37.593,153.19
37.609,134.25
37.625,112.45
37.640,89.48
37.656,67.73
37.671,51.06
37.687,44.5
37.703,52.97
37.718,79.93
37.734,125.84
37.750,188.47
37.765,261.61
37.781,337.33
37.796,408.65
37.812,471.58
37.828,524.86
37.843,567.9
37.859,599.29
37.875,616.08
37.890,615.11
37.906,591.39
37.921,539.76
37.937,456.84
37.953,343.15
37.968,203.98
37.984,48.76
38.000,-110.18
38.015,-267.27
38.031,-408.41
38.046,-518.07
38.062,-585.44
38.078,-609.15
38.093,-596.51
38.109,-558.93
38.125,-507.85
38.140,-452.3
38.156,-399.12
38.171,-352.18
38.187,-314.62
38.203,-287.78
38.218,-270.59
38.234,-259.41
38.250,-249.15
38.265,-235.42
38.281,-215.68
38.296,-189.89
38.312,-159.11
38.328,-126.46
38.343,-94.84
38.359,-65.98
38.375,-40.33
38.390,-16.66
38.406,4.13
38.421,19.28
38.437,24.64
38.453,16.85
38.468,-7.25
38.484,-48.01
38.500,-102.75
38.515,-166.08
38.531,-230.54
38.546,-287.65
38.562,-328.36
38.578,-344.61
38.593,-325.65
38.609,-271.91
38.625,-192.01
38.640,-99.87
38.656,-10.06
38.671,66.07
38.687,122.67
38.703,159.67
38.718,180.53
38.734,189.59
38.750,189.56
38.765,182.81
38.781,171.78
38.796,159.81
38.812,150.58
38.828,147.13
38.843,150.71
38.859,159.4
38.875,168.34
38.890,170.48
38.906,160.65
38.921,137.92
38.937,106.45
38.953,74.0
38.968,48.64
38.984,35.88
39.000,34.59
39.015,40.0
39.031,45.54
39.046,46.39
39.062,41.21
39.078,31.8
39.093,21.2
39.109,11.84
39.125,4.55
39.140,-1.55
39.156,-7.39
39.171,-13.5
39.187,-19.44
39.203,-24.18
39.218,-26.69
39.234,-26.87
39.250,-25.43
39.265,-23.47
39.281,-22.43
39.296,-22.79
39.312,-24.16
39.328,-25.52
39.343,-25.53
39.359,-22.87
39.375,-16.92
39.390,-7.69
39.406,4.28
39.421,17.59
39.437,31.15
39.453,44.12
39.468,55.82
39.484,65.72
39.500,73.5
39.515,78.91
39.531,81.2
39.546,82.64
39.562,83.16
39.578,82.0
39.593,78.31
39.609,71.48
39.625,61.68
39.640,50.19
39.656,38.98
39.671,29.74
39.687,22.93
39.703,17.03
39.718,10.0
39.734,0.82
39.750,-9.75
39.765,-19.47
39.781,-26.04
39.796,-28.79
39.812,-28.91
39.828,-28.14
39.843,-27.42
39.859,-24.92
39.875,-16.96
39.890,-0.52
39.906,24.59
39.921,55.58
39.937,88.91
39.953,123.89
39.968,164.69
39.984,217.9
40.000,287.74
40.015,371.23
40.031,456.13
40.046,523.93
40.062,556.53
40.078,542.51
40.093,480.74
40.109,380.1
40.125,255.22
40.140,121.48
40.156,-7.26
40.171,-119.52
40.187,-206.28
40.203,-261.08
40.218,-281.08
40.234,-267.84
40.250,-227.91
40.265,-172.56
40.281,-116.01
40.296,-71.22
40.312,-46.17
40.328,-41.66
40.343,-52.68
40.359,-71.76
40.375,-92.91
40.390,-114.32
40.406,-137.76
40.421,-166.87
40.437,-202.04
40.453,-238.65
40.468,-268.09
40.484,-282.53
40.500,-279.0
40.515,-260.77
40.531,-236.24
40.546,-214.36
40.562,-204.5
40.578,-209.68
40.593,-226.11
40.609,-245.13
40.625,-258.5
40.640,-261.59
40.656,-253.13
40.671,-235.25
40.687,-209.77
40.703,-185.51
40.718,-169.29
40.734,-163.46
40.750,-164.95
40.765,-169.05
40.781,-171.52
40.796,-166.85
40.812,-152.41
40.828,-125.77
40.843,-99.48
40.859,-87.65
40.875,-99.21
40.890,-134.23
40.906,-188.65
40.921,-258.29
40.937,-336.8
40.953,-422.47
40.968,-512.25
40.984,-618.87
41.000,-752.25
41.015,-911.32
41.031,-1081.72
41.046,-1245.48
41.062,-1389.54
41.078,-1503.91
41.093,-1589.51
41.109,-1548.72
41.125,-1328.29
41.140,-950.98
41.156,-508.54
41.171,-94.38
41.187,242.87
41.203,475.82
41.218,643.9
41.234,774.25
41.250,882.83
41.265,962.83
41.281,1008.95
41.296,1021.62
41.312,1012.93
41.328,996.64
41.343,979.56
41.359,964.5
41.375,944.37
41.390,914.52
41.406,862.33
41.421,782.12
41.437,679.92
41.453,572.92
41.468,479.23
41.484,409.86
41.500,370.0
41.515,353.86
41.531,353.77
41.546,354.5
41.562,343.49
41.578,315.56
41.593,274.51
41.609,228.08
41.625,182.99
41.640,144.99
41.656,114.35
41.671,90.46
41.687,68.32
41.703,43.23
41.718,12.97
41.734,-21.28
41.750,-56.95
41.765,-92.32
41.781,-126.11
41.796,-159.23
41.812,-192.02
41.828,-225.07
41.843,-257.38
41.859,-285.93
41.875,-306.25
41.890,-314.15
41.906,-307.49
41.921,-286.41
41.937,-253.57
41.953,-212.39
41.968,-166.22
41.984,-117.85
42.000,-69.34
42.015,-21.97
42.031,23.77
42.046,67.99
42.062,110.91
42.078,152.26
42.093,190.47
42.109,222.47
42.125,244.28
42.140,252.61
42.156,246.39
42.171,227.57
42.187,200.51
42.203,170.3
42.218,141.03
42.234,114.39
42.250,89.72
42.265,65.01
42.281,38.71
42.296,10.95
42.312,-16.01
42.328,-38.74
42.343,-54.27
42.359,-61.22
42.375,-61.06
42.390,-57.93
42.406,-58.05
42.421,-67.59
42.437,-90.45
42.453,-126.3
42.468,-170.08
42.484,-213.16
42.500,-245.11
42.515,-257.17
42.531,-244.3
42.546,-207.31
42.562,-151.8
42.578,-85.96
42.593,-18.65
42.609,41.47
42.625,86.36
42.640,110.26
42.656,110.28
42.671,88.31
42.687,49.32
42.703,1.5
42.718,-45.05
42.734,-80.28
42.750,-97.21
42.765,-93.79
42.781,-72.36
42.796,-40.17
42.812,-6.56
42.828,17.06
42.843,21.66
42.859,4.19
42.875,-30.97
42.890,-75.13
42.906,-119.36
42.921,-157.12
42.937,-186.87
42.953,-196.98
42.968,-179.87
42.984,-136.97
43.000,-78.25
43.015,-14.26
43.031,48.34
43.046,103.34
43.062,153.24
43.078,199.26
43.093,242.89
43.109,284.44
43.125,324.35
43.140,357.93
43.156,380.27
43.171,385.74
43.187,369.46
43.203,330.65
43.218,272.45
43.234,202.24
43.250,127.67
43.265,55.66
43.281,-7.35
43.296,-54.16
43.312,-78.17
43.328,-75.66
43.343,-47.86
43.359,-3.76
43.375,42.15
43.390,73.04
43.406,76.03
43.421,47.4
43.437,-6.02
43.453,-70.91
43.468,-133.45
43.484,-184.06
43.500,-219.96
43.515,-242.77
43.531,-255.54
43.546,-260.3
43.562,-256.8
43.578,-243.27
43.593,-219.05
43.609,-186.59
43.625,-151.84
43.640,-123.02
43.656,-106.66
43.671,-104.53
43.687,-113.33
43.703,-125.89
43.718,-134.36
43.734,-133.71
43.750,-123.33
43.765,-106.07
43.781,-85.12
43.796,-60.56
43.812,-29.02
43.828,12.87
43.843,65.2
43.859,123.78
43.875,181.48
43.890,231.82
43.906,271.76
43.921,297.28
43.937,305.88
43.953,298.53
43.968,278.45
43.984,248.58
44.000,211.4
44.015,169.5
44.031,126.13
44.046,83.97
44.062,43.27
44.078,3.11
44.093,-34.47
44.109,-65.18
44.125,-84.12
44.140,-87.09
44.156,-73.29
44.171,-46.72
44.187,-15.71
44.203,13.98
44.218,34.86
44.234,42.71
44.250,37.06
44.265,19.87
44.281,-5.34
44.296,-35.52
44.312,-68.89
44.328,-104.45
44.343,-140.83
44.359,-175.55
44.375,-204.35
44.390,-222.97
44.406,-228.76
44.421,-220.65
44.437,-199.34
44.453,-167.5
44.468,-129.46
44.484,-90.79
44.500,-58.05
44.515,-36.95
44.531,-27.14
44.546,-28.25
44.562,-35.8
44.578,-41.65
44.593,-38.44
44.609,-23.7
44.625,0.13
44.640,27.85
44.656,55.04
44.671,79.49
44.687,101.14
44.703,120.83
44.718,138.84
44.734,154.34
44.750,165.98
44.765,173.6
44.781,178.41
44.796,184.34
44.812,192.89
44.828,203.92
44.843,215.12
44.859,222.81
44.875,222.99
44.890,212.76
44.906,191.36
44.921,159.99
44.937,121.11
44.953,75.44
44.968,27.87
44.984,-18.12
45.000,-60.7
45.015,-99.16
45.031,-132.94
45.046,-161.17
45.062,-182.99
45.078,-198.11
45.093,-206.75
45.109,-210.55
45.125,-212.44
45.140,-215.21
45.156,-221.04
45.171,-231.15
45.187,-245.26
45.203,-260.97
45.218,-277.07
45.234,-285.46
45.250,-279.35
45.265,-255.61
45.281,-215.83
45.296,-166.27
45.312,-115.99
45.328,-73.63
45.343,-44.58
45.359,-29.96
45.375,-27.08
45.390,-32.42
45.406,-43.41
45.421,-58.62
45.437,-77.24
45.453,-98.24
45.468,-119.54
45.484,-138.59
45.500,-153.33
45.515,-162.55
45.531,-166.64
45.546,-166.61
45.562,-163.01
45.578,-154.93
45.593,-141.84
45.609,-122.87
45.625,-97.91
45.640,-67.99
45.656,-34.98
45.671,-1.46
45.687,30.12
45.703,58.35
45.718,82.97
45.734,104.63
45.750,124.56
45.765,143.73
45.781,162.48
45.796,180.6
45.812,197.13
45.828,210.91
45.843,221.02
45.859,227.45
45.875,231.37
45.890,235.17
45.906,241.67
45.921,253.0
45.937,269.69
45.953,289.83
45.968,309.4
45.984,323.47
46.000,328.13
46.015,321.72
46.031,305.39
46.046,282.33
46.062,256.21
46.078,230.5
46.093,207.3
46.109,187.27
46.125,169.99
46.140,154.71
46.156,140.52
46.171,126.45
46.187,111.34
46.203,94.03
46.218,75.29
46.234,56.7
46.250,39.93
46.265,25.79
46.281,14.12
46.296,3.71
46.312,-7.45
46.328,-21.51
46.343,-40.03
46.359,-60.71
46.375,-80.03
46.390,-95.51
46.406,-106.98
46.421,-116.19
46.437,-125.79
46.453,-138.33
46.468,-155.6
46.484,-178.09
46.500,-200.68
46.515,-217.06
46.531,-222.68
46.546,-215.63
46.562,-194.95
46.578,-158.9
46.593,-105.56
46.609,-35.41
46.625,46.44
46.640,135.42
46.656,225.03
46.671,308.07
46.687,379.36
46.703,438.69
46.718,490.57
46.734,540.33
46.750,589.7
46.765,602.18
46.781,551.12
46.796,434.13
46.812,276.46
46.828,113.17
46.843,-30.98
46.859,-147.56
46.875,-239.88
46.890,-315.71
46.906,-381.18
46.921,-437.24
46.937,-479.24
46.953,-503.1
46.968,-508.85
46.984,-500.23
47.000,-481.96
47.015,-458.17
47.031,-432.03
47.046,-402.27
47.062,-365.47
47.078,-318.46
47.093,-260.9
47.109,-195.31
47.125,-125.12
47.140,-52.64
47.156,20.85
47.171,94.09
47.187,164.94
47.203,232.52
47.218,296.48
47.234,355.62
47.250,407.78
47.265,450.34
47.281,480.74
47.296,496.54
47.312,495.36
47.328,475.4
47.343,437.11
47.359,383.7
47.375,319.73
47.390,250.56
47.406,181.19
47.421,115.55
47.437,55.91
47.453,2.78
47.468,-44.32
47.484,-85.81
47.500,-120.92
47.515,-148.48
47.531,-167.31
47.546,-176.95
47.562,-178.16
47.578,-172.83
47.593,-163.52
47.609,-152.73
47.625,-142.48
47.640,-133.61
47.656,-126.28
47.671,-120.53
47.687,-116.84
47.703,-116.61
47.718,-121.8
47.734,-134.22
47.750,-154.8
47.765,-183.22
47.781,-218.03
47.796,-256.73
47.812,-296.07
47.828,-331.54
47.843,-357.49
47.859,-367.04
47.875,-353.41
47.890,-311.45
47.906,-239.65
47.921,-141.25
47.937,-24.06
47.953,100.94
47.968,222.23
47.984,329.65
48.000,416.13
48.015,477.55
48.031,512.12
48.046,519.31
48.062,499.59
48.078,454.56
48.093,387.54
48.109,304.08
48.125,211.3
48.140,116.73
48.156,26.53
48.171,-55.77
48.187,-129.51
48.203,-195.94
48.218,-256.8
48.234,-313.06
48.250,-364.16
48.265,-408.41
48.281,-443.51
48.296,-467.49
48.312,-479.05
48.328,-477.62
48.343,-463.22
48.359,-436.2
48.375,-397.43
48.390,-348.27
48.406,-291.02
48.421,-228.76
48.437,-165.12
48.453,-103.68
48.468,-47.01
48.484,3.77
48.500,49.21
48.515,90.75
48.531,130.03
48.546,167.87
48.562,204.19
48.578,238.32
48.593,269.61
48.609,298.24
48.625,325.06
48.640,351.29
48.656,377.4
48.671,402.54
48.687,424.09
48.703,438.41
48.718,441.89
48.734,432.14
48.750,408.84
48.765,373.43
48.781,328.74
48.796,277.77
48.812,223.19
48.828,167.01
48.843,110.92
48.859,56.81
48.875,6.94
48.890,-35.89
48.906,-69.19
48.921,-91.4
48.937,-102.67
48.953,-105.06
48.968,-102.18
48.984,-98.37
49.000,-97.56
49.015,-102.82
49.031,-115.77
49.046,-136.87
49.062,-165.4
49.078,-199.49
49.093,-236.15
49.109,-272.03
49.125,-304.62
49.140,-333.32
49.156,-359.68
49.171,-385.7
49.187,-411.69
49.203,-434.39
49.218,-447.18
49.234,-442.28
49.250,-413.87
49.265,-360.82
49.281,-287.06
49.296,-200.37
49.312,-110.53
49.328,-27.6
49.343,39.61
49.359,85.53
49.375,109.63
49.390,117.44
49.406,118.87
49.421,124.23
49.437,139.33
49.453,162.57
49.468,185.97
49.484,199.66
49.500,197.35
49.515,179.09
49.531,150.3
49.546,117.81
49.562,85.96
49.578,55.15
49.593,23.51
49.609,-10.51
49.625,-46.7
49.640,-83.43
49.656,-119.06
49.671,-152.9
49.687,-184.79
49.703,-213.92
49.718,-238.3
49.734,-255.06
49.750,-261.75
49.765,-257.93
49.781,-245.44
49.796,-227.86
49.812,-209.17
49.828,-192.52
49.843,-179.66
49.859,-170.72
49.875,-164.5
49.890,-158.57
49.906,-149.64
49.921,-134.2
49.937,-109.65
49.953,-74.81
49.968,-30.22
49.984,22.17
50.000,79.67
50.015,139.0
50.031,196.49
50.046,248.11
50.062,289.97
50.078,319.03
50.093,333.98
50.109,335.55
50.125,325.94
50.140,307.84
50.156,283.4
50.171,254.02
50.187,220.71
50.203,184.75
50.218,148.08
50.234,113.12
50.250,82.13
50.265,56.47
50.281,36.2
50.296,20.25
50.312,6.95
50.328,-5.24
50.343,-17.13
50.359,-28.6
50.375,-38.76
50.390,-46.51
50.406,-51.07
50.421,-52.33
50.437,-51.01
50.453,-48.18
50.468,-44.77
50.484,-41.3
50.500,-37.78
50.515,-34.1
50.531,-30.26
50.546,-26.65
50.562,-23.98
50.578,-22.95
50.593,-24.0
50.609,-26.96
50.625,-31.33
50.640,-36.29
50.656,-41.1
50.671,-45.12
50.687,-47.89
50.703,-48.95
50.718,-47.85
50.734,-44.3
50.750,-38.17
50.765,-29.71
50.781,-19.55
50.796,-8.52
50.812,2.54
50.828,12.99
50.843,22.62
50.859,31.62
50.875,40.22
50.890,48.49
50.906,56.23
50.921,62.98
50.937,68.18
50.953,71.29
50.968,71.99
50.984,70.2
51.000,66.23
51.015,60.66
51.031,54.28
51.046,47.87
51.062,41.99
51.078,36.94
51.093,32.46
51.109,28.05
51.125,23.01
51.140,16.82
51.156,9.21
51.171,0.33
51.187,-9.42
51.203,-19.51
51.218,-29.28
51.234,-38.32
51.250,-46.54
51.265,-54.19
51.281,-61.55
51.296,-68.71
51.312,-75.16
51.328,-79.92
51.343,-81.95
51.359,-80.37
51.375,-74.92
51.390,-65.9
51.406,-54.04
51.421,-40.09
51.437,-24.97
51.453,-9.72
51.468,4.4
51.484,16.09
51.500,24.52
51.515,29.5
51.531,31.64
51.546,31.87
51.562,31.03
51.578,29.48
51.593,27.23
51.609,24.32
51.625,20.91
51.640,17.48
51.656,14.27
51.671,11.1
51.687,7.23
51.703,1.54
51.718,-6.75
51.734,-17.81
51.750,-31.09
51.765,-45.68
51.781,-60.69
51.796,-75.39
51.812,-89.19
51.828,-101.35
51.843,-111.04
51.859,-117.25
51.875,-119.2
51.890,-116.44
51.906,-109.04
51.921,-97.38
51.937,-81.99
51.953,-63.3
51.968,-41.64
51.984,-17.43
52.000,8.76
52.015,35.96
52.031,63.12
52.046,89.23
52.062,113.59
52.078,135.81
52.093,155.82
52.109,173.62
52.125,189.05
52.140,201.84
52.156,211.65
52.171,218.27
52.187,221.93
52.203,223.07
52.218,222.27
52.234,219.99
52.250,216.66
52.265,212.58
52.281,208.11
52.296,203.7
52.312,199.72
52.328,196.4
52.343,193.62
52.359,190.98
52.375,187.89
52.390,183.7
52.406,177.94
52.421,170.46
52.437,161.35
52.453,150.86
52.468,139.33
52.484,127.0
52.500,114.12
52.515,100.87
52.531,87.32
52.546,73.44
52.562,59.19
52.578,44.59
52.593,29.87
52.609,15.69
52.625,2.94
52.640,-7.41
52.656,-14.54
52.671,-18.22
52.687,-18.79
52.703,-17.12
52.718,-14.23
52.734,-11.01
52.750,-7.87
52.765,-5.01
52.781,-2.43
52.796,-0.16
52.812,1.56
52.828,2.52
52.843,2.59
52.859,1.9
52.875,0.86
52.890,-0.07
52.906,-0.52
52.921,-0.44
52.937,-0.15
52.953,-0.17
52.968,-1.0
52.984,-2.91
53.000,-5.83
53.015,-9.52
53.031,-13.7
53.046,-18.25
53.062,-23.23
53.078,-28.79
53.093,-34.91
53.109,-41.4
53.125,-47.71
53.140,-53.22
53.156,-57.49
53.171,-60.39
53.187,-62.3
53.203,-63.93
53.218,-65.94
53.234,-68.78
53.250,-72.49
53.265,-76.66
53.281,-80.79
53.296,-84.24
53.312,-86.59
53.328,-87.46
53.343,-86.62
53.359,-83.68
53.375,-78.26
53.390,-70.09
53.406,-59.09
53.421,-45.55
53.437,-29.95
53.453,-12.84
53.468,5.33
53.484,24.28
53.500,43.98
53.515,64.29
53.531,84.89
53.546,105.18
53.562,124.21
53.578,141.02
53.593,154.83
53.609,165.05
53.625,171.07
53.640,172.22
53.656,167.58
53.671,156.36
53.687,138.15
53.703,113.36
53.718,83.38
53.734,50.49
53.750,17.5
53.765,-12.75
53.781,-37.83
53.796,-56.11
53.812,-67.03
53.828,-71.04
53.843,-69.57
53.859,-64.43
53.875,-57.5
53.890,-50.14
53.906,-42.9
53.921,-35.44
53.937,-26.96
53.953,-16.56
53.968,-3.64
53.984,11.56
54.000,27.98
54.015,43.54
54.031,55.44
54.046,60.61
54.062,56.76
54.078,43.08
54.093,20.77
54.109,-6.95
54.125,-36.01
54.140,-62.58
54.156,-84.28
54.171,-100.49
54.187,-112.19
54.203,-120.91
54.218,-127.86
54.234,-133.52
54.250,-137.71
54.265,-140.19
54.281,-140.95
54.296,-140.35
54.312,-138.79
54.328,-136.47
54.343,-133.21
54.359,-128.54
54.375,-122.26
54.390,-114.54
54.406,-106.17
54.421,-98.13
54.437,-91.16
54.453,-85.3
54.468,-79.79
54.484,-73.46
54.500,-65.03
54.515,-53.84
54.531,-39.92
54.546,-24.19
54.562,-8.04
54.578,6.95
54.593,19.57
54.609,29.25
54.625,36.11
54.640,40.85
54.656,44.54
54.671,48.33
54.687,53.06
54.703,59.08
54.718,65.98
54.734,72.7
54.750,77.98
54.765,80.57
54.781,79.86
54.796,75.88
54.812,69.25
54.828,60.89
54.843,51.71
54.859,42.55
54.875,33.85
54.890,25.91
54.906,18.72
54.921,12.05
54.937,5.42
54.953,-1.59
54.968,-9.07
54.984,-16.67
55.000,-23.5
55.015,-28.64
55.031,-31.45
55.046,-32.05
55.062,-31.29
55.078,-30.5
55.093,-30.95
55.109,-33.34
55.125,-37.73
55.140,-43.62
55.156,-50.1
55.171,-56.13
55.187,-60.72
55.203,-62.91
55.218,-61.98
55.234,-57.69
55.250,-50.43
55.265,-41.46
55.281,-32.46
55.296,-25.22
55.312,-20.92
55.328,-19.73
55.343,-20.81
55.359,-22.61
55.375,-23.6
55.390,-22.7
55.406,-19.61
55.421,-14.56
55.437,-8.27
55.453,-1.65
55.468,4.62
55.484,10.01
55.500,14.41
55.515,17.91
55.531,20.86
55.546,23.57
55.562,26.36
55.578,29.36
55.593,32.47
55.609,35.76
55.625,39.3
55.640,43.44
55.656,48.48
55.671,54.49
55.687,60.91
55.703,66.54
55.718,69.73
55.734,68.8
55.750,62.73
55.765,51.13
55.781,34.48
55.796,13.74
55.812,-10.0
55.828,-35.53
55.843,-61.43
55.859,-85.84
55.875,-106.38
55.890,-120.36
55.906,-125.29
55.921,-119.33
55.937,-101.67
55.953,-72.7
55.968,-33.86
55.984,12.54
56.000,63.53
56.015,115.45
56.031,163.9
56.046,203.89
56.062,230.56
56.078,240.33
56.093,231.96
56.109,207.12
56.125,169.72
56.140,124.57
56.156,76.03
56.171,27.06
56.187,-20.51
56.203,-65.04
56.218,-104.37
56.234,-135.93
56.250,-157.17
56.265,-166.86
56.281,-165.53
56.296,-155.2
56.312,-138.55
56.328,-118.12
56.343,-95.74
56.359,-72.6
56.375,-49.65
56.390,-27.62
56.406,-6.94
56.421,12.35
56.437,30.58
56.453,47.99
56.468,64.27
56.484,78.31
56.500,88.45
56.515,92.99
56.531,91.07
56.546,82.81
56.562,69.18
56.578,51.39
56.593,30.33
56.609,6.6
56.625,-19.14
56.640,-45.59
56.656,-70.56
56.671,-91.31
56.687,-105.28
56.703,-110.92
56.718,-108.24
56.734,-99.05
56.750,-86.35
56.765,-73.38
56.781,-62.43
56.796,-54.07
56.812,-47.24
56.828,-40.14
56.843,-31.52
56.859,-21.52
56.875,-11.77
56.890,-4.44
56.906,-0.99
56.921,-1.52
56.937,-4.9
56.953,-9.67
56.968,-14.92
56.984,-20.64
57.000,-27.04
57.015,-34.01
57.031,-40.56
57.046,-45.22
57.062,-46.53
57.078,-43.62
57.093,-36.3
57.109,-24.68
57.125,-9.12
57.140,9.9
57.156,31.49
57.171,54.02
57.187,75.2
57.203,92.53
57.218,104.05
57.234,108.65
57.250,106.42
57.265,98.13
57.281,84.89
57.296,67.88
57.312,48.19
57.328,27.01
57.343,5.77
57.359,-13.89
57.375,-30.38
57.390,-42.31
57.406,-48.83
57.421,-49.81
57.437,-45.92
57.453,-38.45
57.468,-29.31
57.484,-20.5
57.500,-13.77
57.515,-10.4
57.531,-11.06
57.546,-16.04
57.562,-25.52
57.578,-39.47
57.593,-57.4
57.609,-77.97
57.625,-98.86
57.640,-117.04
57.656,-129.49
57.671,-134.14
57.687,-130.46
57.703,-119.7
57.718,-104.28
57.734,-87.1
57.750,-70.66
57.765,-56.56
57.781,-45.4
57.796,-36.93
57.812,-30.44
57.828,-25.0
57.843,-19.88
57.859,-14.48
57.875,-8.54
57.890,-1.95
57.906,5.36
57.921,13.55
57.937,22.62
57.953,32.37
57.968,42.2
57.984,51.14
58.000,58.34
58.015,63.25
58.031,65.87
58.046,66.56
58.062,65.86
58.078,64.07
58.093,61.31
58.109,57.62
58.125,53.0
58.140,47.6
58.156,41.71
58.171,35.65
58.187,29.63
58.203,23.78
58.218,18.08
58.234,12.36
58.250,6.56
58.265,0.49
58.281,-6.04
58.296,-13.1
58.312,-20.66
58.328,-28.37
58.343,-35.65
58.359,-41.69
58.375,-45.71
58.390,-47.14
58.406,-45.84
58.421,-42.18
58.437,-36.92
58.453,-30.95
58.468,-25.13
58.484,-20.06
58.500,-16.04
58.515,-13.23
58.531,-11.54
58.546,-10.85
58.562,-10.96
58.578,-11.56
58.593,-12.31
58.609,-12.77
58.625,-12.57
58.640,-11.33
58.656,-8.83
58.671,-4.91
58.687,0.26
58.703,6.24
58.718,12.41
58.734,18.19
58.750,23.33
58.765,28.02
58.781,32.63
58.796,37.25
58.812,41.52
58.828,44.37
58.843,44.5
58.859,40.95
58.875,33.48
58.890,22.76
58.906,10.17
58.921,-2.74
58.937,-14.72
58.953,-24.86
58.968,-32.78
58.984,-38.46
59.000,-41.99
59.015,-43.77
59.031,-44.36
59.046,-44.43
59.062,-44.51
59.078,-44.88
59.093,-45.38
59.109,-45.49
59.125,-44.66
59.140,-42.34
59.156,-38.41
59.171,-33.1
59.187,-27.02
59.203,-20.89
59.218,-15.36
59.234,-10.85
59.250,-7.33
59.265,-4.48
59.281,-1.64
59.296,1.83
59.312,6.44
59.328,12.4
59.343,19.53
59.359,27.4
59.375,35.3
59.390,42.52
59.406,48.41
59.421,52.62
59.437,54.93
59.453,55.38
59.468,54.24
59.484,51.82
59.500,48.63
59.515,45.05
59.531,41.44
59.546,37.91
59.562,34.42
59.578,30.81
59.593,26.86
59.609,22.55
59.625,17.98
59.640,13.46
59.656,9.25
59.671,5.61
59.687,2.46
59.703,-0.43
59.718,-3.37
59.734,-6.7
59.750,-10.49
59.765,-14.58
59.781,-18.73
59.796,-22.56
59.812,-25.78
59.828,-28.11
59.843,-29.38
59.859,-29.41
59.875,-28.21
59.890,-25.88
59.906,-22.67
59.921,-18.95
59.937,-15.11
59.953,-11.58
59.968,-8.7
59.984,-6.84
