timestamp,value
00.000,1.73
00.015,2.16
00.031,2.71
00.046,3.24
00.062,3.59
00.078,3.7
00.093,3.58
00.109,3.34
00.125,3.04
00.140,2.78
00.156,2.54
00.171,2.32
00.187,2.07
00.203,1.82
00.218,1.56
00.234,1.26
00.250,0.83
00.265,0.15
00.281,-0.84
00.296,-2.09
00.312,-3.41
00.328,-4.56
00.343,-5.35
00.359,-5.68
00.375,-5.61
00.390,-5.24
00.406,-4.65
00.421,-3.87
00.437,-2.92
00.453,-1.78
00.468,-0.56
00.484,0.55
00.500,1.41
00.515,1.92
00.531,2.12
00.546,2.11
00.562,2.07
00.578,2.11
00.593,2.26
00.609,2.5
00.625,2.73
00.640,2.95
00.656,3.11
00.671,3.24
00.687,3.28
00.703,3.21
00.718,3.02
00.734,2.65
00.750,2.16
00.765,1.53
00.781,0.86
00.796,0.2
00.812,-0.35
00.828,-0.75
00.843,-1.02
00.859,-1.17
00.875,-1.29
00.890,-1.41
00.906,-1.61
00.921,-1.89
00.937,-2.23
00.953,-2.57
00.968,-2.81
00.984,-2.93
01.000,-2.89
01.015,-2.7
01.031,-2.38
01.046,-1.98
01.062,-1.59
01.078,-1.28
01.093,-1.07
01.109,-0.93
01.125,-0.85
01.140,-0.77
01.156,-0.76
01.171,-0.82
01.187,-0.93
01.203,-1.01
01.218,-0.88
01.234,-0.41
01.250,0.46
01.265,1.55
01.281,2.69
01.296,3.58
01.312,4.12
01.328,4.34
01.343,4.33
01.359,4.16
01.375,3.84
01.390,3.38
01.406,2.75
01.421,1.95
01.437,1.07
01.453,0.18
01.468,-0.58
01.484,-1.15
01.500,-1.61
01.515,-2.0
01.531,-2.42
01.546,-2.92
01.562,-3.48
01.578,-3.99
01.593,-4.31
01.609,-4.31
01.625,-3.96
01.640,-3.35
01.656,-2.63
01.671,-2.0
01.687,-1.54
01.703,-1.31
01.718,-1.25
01.734,-1.3
01.750,-1.37
01.765,-1.48
01.781,-1.56
01.796,-1.59
01.812,-1.53
01.828,-1.34
01.843,-1.0
01.859,-0.54
01.875,-0.08
01.890,0.29
01.906,0.48
01.921,0.5
01.937,0.47
01.953,0.47
01.968,0.61
01.984,0.91
02.000,1.29
02.015,1.69
02.031,2.0
02.046,2.17
02.062,2.2
02.078,2.15
02.093,2.07
02.109,2.06
02.125,2.19
02.140,2.44
02.156,2.76
02.171,2.99
02.187,3.0
02.203,2.75
02.218,2.24
02.234,1.51
02.250,0.66
02.265,-0.21
02.281,-1.05
02.296,-1.78
02.312,-2.37
02.328,-2.76
02.343,-2.94
02.359,-2.9
02.375,-2.71
02.390,-2.41
02.406,-2.09
02.421,-1.82
02.437,-1.64
02.453,-1.57
02.468,-1.51
02.484,-1.38
02.500,-1.08
02.515,-0.66
02.531,-0.17
02.546,0.26
02.562,0.57
02.578,0.76
02.593,0.83
02.609,0.82
02.625,0.73
02.640,0.51
02.656,0.11
02.671,-0.41
02.687,-0.92
02.703,-1.21
02.718,-1.11
02.734,-0.65
02.750,0.04
02.765,0.75
02.781,1.3
02.796,1.63
02.812,1.83
02.828,2.04
02.843,2.34
02.859,2.75
02.875,3.15
02.890,3.35
02.906,3.19
02.921,2.59
02.937,1.62
02.953,0.44
02.968,-0.7
02.984,-1.63
03.000,-2.22
03.015,-2.52
03.031,-2.61
03.046,-2.58
03.062,-2.5
03.078,-2.36
03.093,-2.15
03.109,-1.88
03.125,-1.6
03.140,-1.36
03.156,-1.24
03.171,-1.24
03.187,-1.38
03.203,-1.57
03.218,-1.72
03.234,-1.78
03.250,-1.71
03.265,-1.54
03.281,-1.31
03.296,-1.04
03.312,-0.72
03.328,-0.34
03.343,0.08
03.359,0.52
03.375,0.92
03.390,1.23
03.406,1.49
03.421,1.73
03.437,2.03
03.453,2.43
03.468,2.88
03.484,3.26
03.500,3.46
03.515,3.4
03.531,3.04
03.546,2.51
03.562,1.89
03.578,1.35
03.593,1.01
03.609,0.89
03.625,0.93
03.640,1.03
03.656,1.05
03.671,0.92
03.687,0.68
03.703,0.44
03.718,0.36
03.734,0.5
03.750,0.81
03.765,1.19
03.781,1.45
03.796,1.45
03.812,1.2
03.828,0.86
03.843,0.59
03.859,0.61
03.875,0.92
03.890,1.42
03.906,1.89
03.921,2.12
03.937,1.93
03.953,1.37
03.968,0.57
03.984,-0.29
04.000,-0.98
04.015,-1.37
04.031,-1.43
04.046,-1.24
04.062,-0.9
04.078,-0.54
04.093,-0.17
04.109,0.27
04.125,0.84
04.140,1.53
04.156,2.3
04.171,2.96
04.187,3.4
04.203,3.56
04.218,3.47
04.234,3.17
04.250,2.71
04.265,2.04
04.281,1.1
04.296,-0.05
04.312,-1.28
04.328,-2.31
04.343,-2.95
04.359,-3.07
04.375,-2.73
04.390,-2.09
04.406,-1.4
04.421,-0.77
04.437,-0.3
04.453,0.02
04.468,0.18
04.484,0.12
04.500,-0.19
04.515,-0.74
04.531,-1.45
04.546,-2.2
04.562,-2.8
04.578,-3.13
04.593,-3.17
04.609,-2.95
04.625,-2.54
04.640,-2.04
04.656,-1.49
04.671,-0.93
04.687,-0.39
04.703,0.16
04.718,0.66
04.734,1.1
04.750,1.44
04.765,1.66
04.781,1.72
04.796,1.65
04.812,1.48
04.828,1.31
04.843,1.26
04.859,1.37
04.875,1.65
04.890,2.04
04.906,2.4
04.921,2.63
04.937,2.67
04.953,2.54
04.968,2.32
04.984,2.07
05.000,1.86
05.015,1.69
05.031,1.56
05.046,1.35
05.062,0.97
05.078,0.38
05.093,-0.39
05.109,-1.18
05.125,-1.86
05.140,-2.31
05.156,-2.5
05.171,-2.56
05.187,-2.68
05.203,-2.97
05.218,-3.44
05.234,-3.97
05.250,-4.37
05.265,-4.51
05.281,-4.39
05.296,-4.07
05.312,-3.65
05.328,-3.18
05.343,-2.66
05.359,-2.06
05.375,-1.33
05.390,-0.56
05.406,0.18
05.421,0.75
05.437,1.1
05.453,1.22
05.468,1.24
05.484,1.27
05.500,1.36
05.515,1.5
05.531,1.62
05.546,1.64
05.562,1.5
05.578,1.21
05.593,0.82
05.609,0.46
05.625,0.22
05.640,0.13
05.656,0.19
05.671,0.28
05.687,0.38
05.703,0.43
05.718,0.5
05.734,0.6
05.750,0.76
05.765,0.89
05.781,0.89
05.796,0.67
05.812,0.18
05.828,-0.43
05.843,-1.03
05.859,-1.43
05.875,-1.56
05.890,-1.45
05.906,-1.28
05.921,-1.27
05.937,-1.49
05.953,-1.94
05.968,-2.44
05.984,-2.78
06.000,-2.75
06.015,-2.29
06.031,-1.46
06.046,-0.45
06.062,0.57
06.078,1.53
06.093,2.45
06.109,3.44
06.125,4.58
06.140,5.88
06.156,7.23
06.171,8.45
06.187,9.35
06.203,9.82
06.218,9.86
06.234,9.51
06.250,8.89
06.265,8.04
06.281,6.99
06.296,5.77
06.312,4.44
06.328,3.08
06.343,1.78
06.359,0.65
06.375,-0.35
06.390,-1.21
06.406,-1.96
06.421,-2.62
06.437,-3.17
06.453,-3.57
06.468,-3.79
06.484,-3.87
06.500,-3.86
06.515,-3.91
06.531,-4.09
06.546,-4.45
06.562,-4.98
06.578,-5.62
06.593,-6.26
06.609,-6.82
06.625,-7.27
06.640,-7.58
06.656,-7.82
06.671,-8.01
06.687,-8.07
06.703,-7.93
06.718,-7.43
06.734,-6.49
06.750,-5.14
06.765,-3.54
06.781,-1.93
06.796,-0.53
06.812,0.51
06.828,1.24
06.843,1.71
06.859,2.01
06.875,2.16
06.890,2.12
06.906,1.82
06.921,1.2
06.937,0.32
06.953,-0.73
06.968,-1.8
06.984,-2.78
07.000,-3.62
07.015,-4.31
07.031,-4.86
07.046,-5.31
07.062,-5.63
07.078,-5.82
07.093,-5.87
07.109,-5.81
07.125,-5.6
07.140,-5.27
07.156,-4.81
07.171,-4.27
07.187,-3.67
07.203,-3.01
07.218,-2.32
07.234,-1.63
07.250,-0.95
07.265,-0.31
07.281,0.24
07.296,0.64
07.312,0.81
07.328,0.76
07.343,0.56
07.359,0.33
07.375,0.27
07.390,0.54
07.406,1.25
07.421,2.33
07.437,3.67
07.453,5.05
07.468,6.23
07.484,7.09
07.500,7.53
07.515,7.6
07.531,7.35
07.546,6.9
07.562,6.3
07.578,5.66
07.593,5.04
07.609,4.5
07.625,4.09
07.640,3.81
07.656,3.6
07.671,3.37
07.687,3.07
07.703,2.69
07.718,2.27
07.734,1.89
07.750,1.65
07.765,1.55
07.781,1.52
07.796,1.41
07.812,1.08
07.828,0.47
07.843,-0.3
07.859,-1.05
07.875,-1.62
07.890,-1.91
07.906,-1.94
07.921,-1.82
07.937,-1.68
07.953,-1.61
07.968,-1.62
07.984,-1.69
08.000,-1.81
08.015,-1.94
08.031,-2.13
08.046,-2.37
08.062,-2.67
08.078,-3.03
08.093,-3.38
08.109,-3.6
08.125,-3.55
08.140,-3.15
08.156,-2.45
08.171,-1.61
08.187,-0.81
08.203,-0.2
08.218,0.13
08.234,0.21
08.250,0.14
08.265,0.04
08.281,0.05
08.296,0.19
08.312,0.44
08.328,0.7
08.343,0.9
08.359,0.91
08.375,0.7
08.390,0.32
08.406,-0.18
08.421,-0.63
08.437,-0.94
08.453,-1.02
08.468,-0.91
08.484,-0.64
08.500,-0.3
08.515,0.02
08.531,0.28
08.546,0.39
08.562,0.39
08.578,0.26
08.593,0.09
08.609,-0.13
08.625,-0.37
08.640,-0.64
08.656,-0.96
08.671,-1.35
08.687,-1.83
08.703,-2.37
08.718,-2.92
08.734,-3.38
08.750,-3.73
08.765,-3.88
08.781,-3.83
08.796,-3.54
08.812,-2.98
08.828,-2.27
08.843,-1.42
08.859,-0.54
08.875,0.33
08.890,1.11
08.906,1.78
08.921,2.29
08.937,2.61
08.953,2.8
08.968,2.85
08.984,2.86
09.000,2.83
09.015,2.73
09.031,2.5
09.046,2.07
09.062,1.46
09.078,0.74
09.093,0.07
09.109,-0.4
09.125,-0.58
09.140,-0.58
09.156,-0.51
09.171,-0.55
09.187,-0.73
09.203,-0.98
09.218,-1.17
09.234,-1.17
09.250,-0.98
09.265,-0.66
09.281,-0.36
09.296,-0.16
09.312,-0.04
09.328,0.09
09.343,0.35
09.359,0.77
09.375,1.28
09.390,1.67
09.406,1.78
09.421,1.49
09.437,0.9
09.453,0.16
09.468,-0.52
09.484,-0.94
09.500,-1.09
09.515,-0.99
09.531,-0.81
09.546,-0.66
09.562,-0.65
09.578,-0.77
09.593,-0.99
09.609,-1.29
09.625,-1.58
09.640,-1.86
09.656,-2.06
09.671,-2.17
09.687,-2.1
09.703,-1.8
09.718,-1.24
09.734,-0.43
09.750,0.49
09.765,1.4
09.781,2.15
09.796,2.68
09.812,3.0
09.828,3.23
09.843,3.46
09.859,3.74
09.875,4.07
09.890,4.36
09.906,4.52
09.921,4.46
09.937,4.11
09.953,3.48
09.968,2.58
09.984,1.51
10.000,0.36
10.015,-0.74
10.031,-1.71
10.046,-2.48
10.062,-3.11
10.078,-3.64
10.093,-4.15
10.109,-4.63
10.125,-5.03
10.140,-5.24
10.156,-5.16
10.171,-4.73
10.187,-3.98
10.203,-2.96
10.218,-1.8
10.234,-0.59
10.250,0.52
10.265,1.41
10.281,1.97
10.296,2.14
10.312,1.93
10.328,1.4
10.343,0.73
10.359,0.05
10.375,-0.46
10.390,-0.67
10.406,-0.5
10.421,0.04
10.437,0.86
10.453,1.78
10.468,2.57
10.484,3.08
10.500,3.25
10.515,3.12
10.531,2.84
10.546,2.59
10.562,2.49
10.578,2.57
10.593,2.76
10.609,2.91
10.625,2.9
10.640,2.67
10.656,2.26
10.671,1.74
10.687,1.22
10.703,0.74
10.718,0.37
10.734,0.1
10.750,-0.04
10.765,-0.06
10.781,0.05
10.796,0.24
10.812,0.46
10.828,0.66
10.843,0.79
10.859,0.85
10.875,0.82
10.890,0.71
10.906,0.53
10.921,0.31
10.937,0.06
10.953,-0.18
10.968,-0.38
10.984,-0.52
11.000,-0.61
11.015,-0.64
11.031,-0.57
11.046,-0.33
11.062,0.08
11.078,0.62
11.093,1.23
11.109,1.83
11.125,2.38
11.140,2.87
11.156,3.29
11.171,3.62
11.187,3.84
11.203,3.95
11.218,3.89
11.234,3.68
11.250,3.36
11.265,3.0
11.281,2.68
11.296,2.43
11.312,2.23
11.328,2.05
11.343,1.86
11.359,1.65
11.375,1.43
11.390,1.21
11.406,1.0
11.421,0.78
11.437,0.48
11.453,0.06
11.468,-0.53
11.484,-1.23
11.500,-1.93
11.515,-2.49
11.531,-2.79
11.546,-2.84
11.562,-2.7
11.578,-2.48
11.593,-2.24
11.609,-2.0
11.625,-1.71
11.640,-1.33
11.656,-0.81
11.671,-0.18
11.687,0.48
11.703,1.13
11.718,1.73
11.734,2.28
11.750,2.75
11.765,3.11
11.781,3.35
11.796,3.47
11.812,3.47
11.828,3.37
11.843,3.21
11.859,3.02
11.875,2.85
11.890,2.77
11.906,2.74
11.921,2.75
11.937,2.71
11.953,2.55
11.968,2.26
11.984,1.87
12.000,1.41
12.015,0.91
12.031,0.42
12.046,-0.1
12.062,-0.61
12.078,-1.13
12.093,-1.64
12.109,-2.11
12.125,-2.52
12.140,-2.87
12.156,-3.16
12.171,-3.33
12.187,-3.36
12.203,-3.2
12.218,-2.9
12.234,-2.51
12.250,-2.15
12.265,-1.93
12.281,-1.9
12.296,-2.03
12.312,-2.21
12.328,-2.34
12.343,-2.25
12.359,-1.92
12.375,-1.39
12.390,-0.71
12.406,-0.03
12.421,0.58
12.437,1.03
12.453,1.29
12.468,1.31
12.484,1.16
12.500,0.91
12.515,0.57
12.531,0.22
12.546,-0.17
12.562,-0.58
12.578,-0.99
12.593,-1.36
12.609,-1.61
12.625,-1.59
12.640,-1.23
12.656,-0.57
12.671,0.32
12.687,1.22
12.703,1.96
12.718,2.4
12.734,2.52
12.750,2.39
12.765,2.18
12.781,1.94
12.796,1.7
12.812,1.38
12.828,0.9
12.843,0.25
12.859,-0.54
12.875,-1.35
12.890,-2.09
12.906,-2.7
12.921,-3.17
12.937,-3.51
12.953,-3.67
12.968,-3.62
12.984,-3.27
13.000,-2.66
13.015,-1.86
13.031,-0.98
13.046,-0.17
13.062,0.49
13.078,0.95
13.093,1.21
13.109,1.24
13.125,1.11
13.140,0.84
13.156,0.55
13.171,0.34
13.187,0.34
13.203,0.55
13.218,0.93
13.234,1.36
13.250,1.63
13.265,1.69
13.281,1.49
13.296,1.15
13.312,0.81
13.328,0.57
13.343,0.45
13.359,0.41
13.375,0.36
13.390,0.24
13.406,0.03
13.421,-0.19
13.437,-0.38
13.453,-0.51
13.468,-0.63
13.484,-0.76
13.500,-0.92
13.515,-1.07
13.531,-1.17
13.546,-1.21
13.562,-1.23
13.578,-1.33
13.593,-1.59
13.609,-2.06
13.625,-2.65
13.640,-3.25
13.656,-3.73
13.671,-4.0
13.687,-4.03
13.703,-3.81
13.718,-3.33
13.734,-2.54
13.750,-1.48
13.765,-0.22
13.781,1.03
13.796,2.03
13.812,2.62
13.828,2.76
13.843,2.58
13.859,2.26
13.875,2.02
13.890,1.94
13.906,1.96
13.921,1.98
13.937,1.91
13.953,1.76
13.968,1.66
13.984,1.75
14.000,2.06
14.015,2.52
14.031,2.92
14.046,3.08
14.062,2.9
14.078,2.42
14.093,1.83
14.109,1.28
14.125,0.86
14.140,0.48
14.156,0.02
14.171,-0.57
14.187,-1.26
14.203,-1.85
14.218,-2.19
14.234,-2.17
14.250,-1.84
14.265,-1.38
14.281,-1.02
14.296,-0.92
14.312,-1.1
14.328,-1.48
14.343,-1.91
14.359,-2.24
14.375,-2.4
14.390,-2.33
14.406,-2.05
14.421,-1.63
14.437,-1.13
14.453,-0.65
14.468,-0.25
14.484,0.08
14.500,0.39
14.515,0.71
14.531,1.06
14.546,1.4
14.562,1.6
14.578,1.62
14.593,1.45
14.609,1.23
14.625,1.06
14.640,1.03
14.656,1.06
14.671,1.04
14.687,0.87
14.703,0.61
14.718,0.45
14.734,0.57
14.750,1.08
14.765,1.86
14.781,2.7
14.796,3.31
14.812,3.51
14.828,3.31
14.843,2.84
14.859,2.3
14.875,1.82
14.890,1.46
14.906,1.22
14.921,1.04
14.937,0.86
14.953,0.63
14.968,0.32
14.984,-0.07
15.000,-0.57
15.015,-1.13
15.031,-1.68
15.046,-2.07
15.062,-2.2
15.078,-2.06
15.093,-1.76
15.109,-1.48
15.125,-1.39
15.140,-1.52
15.156,-1.75
15.171,-1.87
15.187,-1.74
15.203,-1.33
15.218,-0.76
15.234,-0.19
15.250,0.21
15.265,0.43
15.281,0.53
15.296,0.68
15.312,0.93
15.328,1.25
15.343,1.56
15.359,1.72
15.375,1.7
15.390,1.55
15.406,1.42
15.421,1.4
15.437,1.56
15.453,1.84
15.468,2.09
15.484,2.21
15.500,2.09
15.515,1.75
15.531,1.27
15.546,0.77
15.562,0.32
15.578,-0.06
15.593,-0.39
15.609,-0.74
15.625,-1.16
15.640,-1.69
15.656,-2.34
15.671,-3.02
15.687,-3.68
15.703,-4.23
15.718,-4.68
15.734,-5.02
15.750,-5.23
15.765,-5.27
15.781,-5.07
15.796,-4.63
15.812,-4.0
15.828,-3.27
15.843,-2.55
15.859,-1.94
15.875,-1.4
15.890,-0.88
15.906,-0.28
15.921,0.45
15.937,1.24
15.953,2.02
15.968,2.67
15.984,3.18
16.000,3.59
16.015,3.97
16.031,4.37
16.046,4.8
16.062,5.19
16.078,5.44
16.093,5.49
16.109,5.25
16.125,4.75
16.140,4.03
16.156,3.14
16.171,2.17
16.187,1.22
16.203,0.34
16.218,-0.4
16.234,-1.0
16.250,-1.54
16.265,-2.01
16.281,-2.51
16.296,-3.08
16.312,-3.73
16.328,-4.4
16.343,-4.99
16.359,-5.42
16.375,-5.58
16.390,-5.48
16.406,-5.08
16.421,-4.47
16.437,-3.75
16.453,-3.02
16.468,-2.34
16.484,-1.74
16.500,-1.2
16.515,-0.66
16.531,-0.1
16.546,0.51
16.562,1.07
16.578,1.53
16.593,1.8
16.609,1.82
16.625,1.62
16.640,1.34
16.656,1.1
16.671,1.03
16.687,1.2
16.703,1.57
16.718,2.01
16.734,2.4
16.750,2.6
16.765,2.55
16.781,2.28
16.796,1.88
16.812,1.45
16.828,1.12
16.843,0.95
16.859,0.95
16.875,1.08
16.890,1.26
16.906,1.45
16.921,1.57
16.937,1.59
16.953,1.49
16.968,1.31
16.984,1.06
17.000,0.74
17.015,0.36
17.031,-0.12
17.046,-0.7
17.062,-1.4
17.078,-2.19
17.093,-2.98
17.109,-3.67
17.125,-4.12
17.140,-4.28
17.156,-4.08
17.171,-3.58
17.187,-2.87
17.203,-2.07
17.218,-1.28
17.234,-0.57
17.250,-0.01
17.265,0.43
17.281,0.73
17.296,0.98
17.312,1.19
17.328,1.38
17.343,1.61
17.359,1.87
17.375,2.14
17.390,2.29
17.406,2.27
17.421,1.95
17.437,1.39
17.453,0.69
17.484,-0.47
17.500,-0.65
17.515,-0.59
17.531,-0.38
17.546,-0.13
17.562,0.04
17.578,0.09
17.593,0.01
17.609,-0.18
17.625,-0.45
17.640,-0.75
17.656,-1.03
17.671,-1.23
17.687,-1.37
17.703,-1.45
17.718,-1.51
17.734,-1.51
17.750,-1.46
17.765,-1.33
17.781,-1.19
17.796,-1.09
17.812,-1.09
17.828,-1.21
17.843,-1.39
17.859,-1.53
17.875,-1.51
17.890,-1.33
17.906,-1.02
17.921,-0.61
17.937,-0.13
17.953,0.44
17.968,1.13
17.984,1.87
18.000,2.56
18.015,3.12
18.031,3.48
18.046,3.66
18.062,3.76
18.078,3.81
18.093,3.84
18.109,3.83
18.125,3.73
18.140,3.54
18.156,3.28
18.171,2.98
18.187,2.71
18.203,2.46
18.218,2.22
18.234,1.97
18.250,1.73
18.265,1.47
18.281,1.18
18.296,0.84
18.312,0.5
18.328,0.16
18.343,-0.17
18.359,-0.53
18.375,-0.97
18.390,-1.55
18.406,-2.27
18.421,-3.05
18.437,-3.79
18.453,-4.37
18.468,-4.68
18.484,-4.69
18.500,-4.43
18.515,-4.01
18.531,-3.51
18.546,-3.0
18.562,-2.54
18.578,-2.1
18.593,-1.65
18.609,-1.19
18.625,-0.7
18.640,-0.22
18.656,0.19
18.671,0.49
18.687,0.62
18.703,0.6
18.718,0.49
18.734,0.39
18.750,0.39
18.765,0.53
18.781,0.78
18.796,1.06
18.812,1.29
18.828,1.41
18.843,1.41
18.859,1.34
18.875,1.24
18.890,1.17
18.906,1.11
18.921,1.06
18.937,0.95
18.953,0.78
18.968,0.54
18.984,0.23
19.000,-0.12
19.015,-0.51
19.031,-0.94
19.046,-1.33
19.062,-1.69
19.078,-1.99
19.093,-2.24
19.109,-2.49
19.125,-2.78
19.140,-3.1
19.156,-3.45
19.171,-3.75
19.187,-3.93
19.203,-3.93
19.218,-3.75
19.234,-3.39
19.250,-2.86
19.265,-2.17
19.281,-1.36
19.296,-0.49
19.312,0.31
19.328,0.93
19.343,1.28
19.359,1.37
19.375,1.28
19.390,1.17
19.406,1.19
19.421,1.42
19.437,1.83
19.453,2.37
19.468,2.89
19.484,3.27
19.500,3.43
19.515,3.32
19.531,2.98
19.546,2.51
19.562,2.02
19.578,1.62
19.593,1.41
19.609,1.38
19.625,1.42
19.640,1.44
19.656,1.34
19.671,1.12
19.687,0.79
19.703,0.44
19.718,0.07
19.734,-0.33
19.750,-0.83
19.765,-1.47
19.781,-2.21
19.796,-2.98
19.812,-3.67
19.828,-4.18
19.843,-4.46
19.859,-4.48
19.875,-4.24
19.890,-3.84
19.906,-3.4
19.921,-2.98
19.937,-2.67
19.953,-2.39
19.968,-2.06
19.984,-1.57
20.000,-0.89
20.015,-0.07
20.031,0.76
20.046,1.43
20.062,1.82
20.078,1.91
20.093,1.78
20.109,1.57
20.125,1.43
20.140,1.42
20.156,1.56
20.171,1.77
20.187,1.9
20.203,1.85
20.218,1.62
20.234,1.3
20.250,1.08
20.265,1.14
20.281,1.55
20.296,2.21
20.312,2.89
20.328,3.28
20.343,3.2
20.359,2.6
20.375,1.65
20.390,0.61
20.406,-0.28
20.421,-0.9
20.437,-1.28
20.453,-1.55
20.468,-1.87
20.484,-2.28
20.500,-2.72
20.515,-3.12
20.531,-3.38
20.546,-3.48
20.562,-3.43
20.578,-3.34
20.593,-3.23
20.609,-3.08
20.625,-2.86
20.640,-2.48
20.656,-1.95
20.671,-1.31
20.687,-0.68
20.703,-0.19
20.718,0.12
20.734,0.24
20.750,0.34
20.765,0.52
20.781,0.86
20.796,1.32
20.812,1.8
20.828,2.2
20.843,2.46
20.859,2.61
20.875,2.7
20.890,2.79
20.906,2.87
20.921,2.93
20.937,2.91
20.953,2.8
20.968,2.66
20.984,2.52
21.000,2.42
21.015,2.34
21.031,2.25
21.046,2.04
21.062,1.68
21.078,1.19
21.093,0.61
21.109,0.02
21.125,-0.51
21.140,-0.94
21.156,-1.27
21.171,-1.51
21.187,-1.66
21.203,-1.75
21.218,-1.77
21.234,-1.7
21.250,-1.53
21.265,-1.21
21.281,-0.74
21.296,-0.13
21.312,0.56
21.328,1.26
21.343,1.85
21.359,2.3
21.375,2.56
21.390,2.65
21.406,2.53
21.421,2.19
21.437,1.65
21.453,1.04
21.468,0.5
21.484,0.17
21.500,0.13
21.515,0.31
21.531,0.58
21.546,0.81
21.562,0.9
21.578,0.92
21.593,0.95
21.609,1.05
21.625,1.24
21.640,1.42
21.656,1.55
21.671,1.58
21.687,1.51
21.703,1.35
21.718,1.08
21.734,0.69
21.750,0.2
21.765,-0.35
21.781,-0.87
21.796,-1.26
21.812,-1.46
21.828,-1.49
21.843,-1.44
21.859,-1.41
21.875,-1.51
21.890,-1.74
21.906,-2.06
21.921,-2.41
21.937,-2.62
21.953,-2.57
21.968,-2.22
21.984,-1.58
22.000,-0.77
22.015,0.05
22.031,0.7
22.046,1.14
22.062,1.34
22.078,1.42
22.093,1.5
22.109,1.71
22.125,2.07
22.140,2.49
22.156,2.88
22.171,3.08
22.187,3.03
22.203,2.71
22.218,2.18
22.234,1.55
22.250,0.95
22.265,0.48
22.281,0.19
22.296,0.05
22.312,0.03
22.328,0.06
22.343,0.02
22.359,-0.14
22.375,-0.45
22.390,-0.89
22.406,-1.42
22.421,-2.02
22.437,-2.64
22.453,-3.28
22.468,-3.87
22.484,-4.37
22.500,-4.69
22.515,-4.76
22.531,-4.57
22.546,-4.16
22.562,-3.61
22.578,-2.94
22.593,-2.16
22.609,-1.22
22.625,-0.12
22.640,1.04
22.656,2.09
22.671,2.83
22.687,3.17
22.703,3.12
22.718,2.85
22.734,2.5
22.750,2.21
22.765,1.94
22.781,1.68
22.796,1.4
22.812,1.15
22.828,1.0
22.843,1.0
22.859,1.14
22.875,1.3
22.890,1.37
22.906,1.27
22.921,1.06
22.937,0.87
22.953,0.84
22.968,1.04
22.984,1.38
23.000,1.74
23.015,1.96
23.031,2.01
23.046,1.92
23.062,1.78
23.078,1.64
23.093,1.51
23.109,1.35
23.125,1.08
23.140,0.71
23.156,0.22
23.171,-0.34
23.187,-0.97
23.203,-1.7
23.218,-2.56
23.234,-3.48
23.250,-4.31
23.265,-4.87
23.281,-4.97
23.296,-4.51
23.312,-3.59
23.328,-2.47
23.343,-1.45
23.359,-0.73
23.375,-0.34
23.390,-0.15
23.406,0.04
23.421,0.35
23.437,0.74
23.453,1.09
23.468,1.28
23.484,1.32
23.500,1.34
23.515,1.49
23.531,1.82
23.546,2.25
23.562,2.59
23.578,2.67
23.593,2.49
23.609,2.15
23.625,1.85
23.640,1.71
23.656,1.73
23.671,1.75
23.687,1.61
23.703,1.2
23.718,0.51
23.734,-0.33
23.750,-1.17
23.765,-1.87
23.781,-2.36
23.796,-2.6
23.812,-2.61
23.828,-2.48
23.843,-2.29
23.859,-2.2
23.875,-2.32
23.890,-2.71
23.906,-3.31
23.921,-3.99
23.937,-4.55
23.953,-4.82
23.968,-4.68
23.984,-4.12
24.000,-3.23
24.015,-2.15
24.031,-1.05
24.046,-0.05
24.062,0.75
24.078,1.33
24.093,1.72
24.109,1.96
24.125,2.09
24.140,2.06
24.156,1.94
24.171,1.74
24.187,1.56
24.203,1.53
24.218,1.73
24.234,2.15
24.250,2.63
24.265,3.03
24.281,3.16
24.296,3.03
24.312,2.72
24.328,2.4
24.343,2.22
24.359,2.2
24.375,2.31
24.390,2.39
24.406,2.33
24.421,2.11
24.437,1.78
24.453,1.45
24.468,1.21
24.484,1.09
24.500,1.05
24.515,0.99
24.531,0.82
24.546,0.49
24.562,0.01
24.578,-0.6
24.593,-1.3
24.609,-2.05
24.625,-2.74
24.640,-3.27
24.656,-3.51
24.671,-3.39
24.687,-2.93
24.703,-2.2
24.718,-1.35
24.734,-0.53
24.750,0.16
24.765,0.73
24.781,1.16
24.796,1.52
24.812,1.8
24.828,2.01
24.843,2.17
24.859,2.31
24.875,2.47
24.890,2.64
24.906,2.83
24.921,3.01
24.937,3.16
24.953,3.28
24.968,3.35
24.984,3.33
25.000,3.17
25.015,2.84
25.031,2.32
25.046,1.73
25.062,1.19
25.078,0.85
25.093,0.74
25.109,0.78
25.125,0.8
25.140,0.62
25.156,0.22
25.171,-0.39
25.187,-1.07
25.203,-1.74
25.218,-2.4
25.234,-3.01
25.250,-3.63
25.265,-4.18
25.281,-4.55
25.296,-4.65
25.312,-4.5
25.328,-4.14
25.343,-3.76
25.359,-3.44
25.375,-3.19
25.390,-2.94
25.406,-2.61
25.421,-2.14
25.437,-1.59
25.453,-1.08
25.468,-0.6
25.484,-0.19
25.500,0.27
25.515,0.86
25.531,1.56
25.546,2.24
25.562,2.72
25.578,2.86
25.593,2.6
25.609,2.1
25.625,1.49
25.640,0.97
25.656,0.61
25.671,0.39
25.687,0.29
25.703,0.28
25.718,0.39
25.734,0.66
25.750,1.11
25.765,1.63
25.781,2.05
25.796,2.18
25.812,1.88
25.828,1.24
25.843,0.4
25.859,-0.44
25.875,-1.16
25.890,-1.68
25.906,-2.03
25.921,-2.3
25.937,-2.52
25.953,-2.74
25.968,-2.94
25.984,-3.13
26.000,-3.31
26.015,-3.47
26.031,-3.51
26.046,-3.39
26.062,-3.08
26.078,-2.55
26.093,-1.92
26.109,-1.28
26.125,-0.74
26.140,-0.32
26.156,-0.06
26.171,0.05
26.187,0.05
26.203,-0.03
26.218,-0.08
26.234,-0.04
26.250,0.18
26.265,0.58
26.281,1.15
26.296,1.77
26.312,2.26
26.328,2.48
26.343,2.36
26.359,2.01
26.375,1.6
26.390,1.3
26.406,1.22
26.421,1.36
26.437,1.58
26.453,1.7
26.468,1.55
26.484,1.08
26.500,0.32
26.515,-0.61
26.531,-1.57
26.546,-2.43
26.562,-3.07
26.578,-3.42
26.593,-3.45
26.609,-3.19
26.625,-2.74
26.640,-2.17
26.656,-1.63
26.671,-1.2
26.687,-1.0
26.703,-1.01
26.718,-1.2
26.734,-1.44
26.750,-1.6
26.765,-1.61
26.781,-1.46
26.796,-1.21
26.812,-0.98
26.828,-0.81
26.843,-0.67
26.859,-0.47
26.875,-0.12
26.890,0.42
26.906,1.1
26.921,1.79
26.937,2.35
26.953,2.71
26.968,2.84
26.984,2.79
27.000,2.59
27.015,2.31
27.031,1.97
27.046,1.6
27.062,1.23
27.078,0.91
27.093,0.72
27.109,0.69
27.125,0.81
27.140,1.0
27.156,1.13
27.171,1.13
27.187,0.92
27.203,0.56
27.218,0.13
27.234,-0.23
27.250,-0.45
27.265,-0.6
27.281,-0.8
27.296,-1.21
27.312,-1.92
27.328,-2.88
27.343,-3.92
27.359,-4.84
27.375,-5.4
27.390,-5.43
27.406,-4.89
27.421,-3.79
27.437,-2.32
27.453,-0.72
27.468,0.71
27.484,1.8
27.500,2.42
27.515,2.65
27.531,2.61
27.546,2.5
27.562,2.48
27.578,2.53
27.593,2.62
27.609,2.62
27.625,2.46
27.640,2.14
27.656,1.74
27.671,1.37
27.687,1.09
27.703,0.95
27.718,0.9
27.734,0.87
27.750,0.82
27.765,0.72
27.781,0.6
27.796,0.52
27.812,0.49
27.828,0.53
27.843,0.65
27.859,0.84
27.875,1.06
27.890,1.27
27.906,1.42
27.921,1.44
27.937,1.27
27.953,0.92
27.968,0.42
27.984,-0.14
28.000,-0.67
28.015,-1.13
28.031,-1.49
28.046,-1.77
28.062,-1.96
28.078,-2.06
28.093,-1.95
28.109,-1.58
28.125,-0.92
28.140,-0.06
28.156,0.88
28.171,1.74
28.187,2.5
28.203,3.17
28.218,3.79
28.234,4.39
28.250,4.87
28.265,5.07
28.281,4.85
28.296,4.19
28.312,3.2
28.328,2.16
28.343,1.31
28.359,0.82
28.375,0.69
28.390,0.8
28.406,0.97
28.421,1.07
28.437,1.02
28.453,0.83
28.468,0.57
28.484,0.31
28.500,0.1
28.515,-0.03
28.531,-0.12
28.546,-0.12
28.562,-0.07
28.578,-0.05
28.593,-0.14
28.609,-0.45
28.625,-1.01
28.640,-1.81
28.656,-2.7
28.671,-3.6
28.687,-4.36
28.703,-4.85
28.718,-5.03
28.734,-4.9
28.750,-4.45
28.765,-3.75
28.781,-2.88
28.796,-1.97
28.812,-1.16
28.828,-0.53
28.843,-0.09
28.859,0.19
28.875,0.46
28.890,0.78
28.906,1.2
28.921,1.68
28.937,2.16
28.953,2.58
28.968,2.92
28.984,3.19
29.000,3.4
29.015,3.61
29.031,3.76
29.046,3.79
29.062,3.63
29.078,3.27
29.093,2.8
29.109,2.34
29.125,2.04
29.140,1.94
29.156,2.01
29.171,2.08
29.187,1.9
29.203,1.31
29.218,0.25
29.234,-1.16
29.250,-2.67
29.265,-3.98
29.281,-4.92
29.296,-5.38
29.312,-5.39
29.328,-5.1
29.343,-4.62
29.359,-4.1
29.375,-3.57
29.390,-3.05
29.406,-2.57
29.421,-2.15
29.437,-1.83
29.453,-1.63
29.468,-1.52
29.484,-1.43
29.500,-1.27
29.515,-0.96
29.531,-0.44
29.546,0.27
29.562,1.12
29.578,2.01
29.593,2.81
29.609,3.42
29.625,3.84
29.640,4.02
29.656,3.96
29.671,3.64
29.687,3.09
29.703,2.35
29.718,1.49
29.734,0.65
29.750,-0.06
29.765,-0.5
29.781,-0.66
29.796,-0.68
29.812,-0.65
29.828,-0.7
29.843,-0.87
29.859,-1.1
29.875,-1.33
29.890,-1.49
29.906,-1.56
29.921,-1.6
29.937,-1.68
29.953,-1.78
29.968,-1.9
29.984,-1.96
30.000,-1.95
30.015,-1.91
30.031,-1.92
30.046,-2.06
30.062,-2.33
30.078,-2.63
30.093,-2.82
30.109,-2.81
30.125,-2.59
30.140,-2.21
30.156,-1.81
30.171,-1.48
30.187,-1.25
30.203,-1.06
30.218,-0.82
30.234,-0.47
30.250,-0.02
30.265,0.47
30.281,0.94
30.296,1.32
30.312,1.57
30.328,1.7
30.343,1.71
30.359,1.66
30.375,1.56
30.390,1.43
30.406,1.29
30.421,1.16
30.437,1.06
30.453,1.05
30.468,1.14
30.484,1.27
30.500,1.38
30.515,1.34
30.531,1.11
30.546,0.69
30.562,0.17
30.578,-0.33
30.593,-0.74
30.609,-1.03
30.625,-1.26
30.640,-1.49
30.656,-1.79
30.671,-2.2
30.687,-2.72
30.703,-3.33
30.718,-3.94
30.734,-4.46
30.750,-4.72
30.765,-4.64
30.781,-4.18
30.796,-3.4
30.812,-2.48
30.828,-1.56
30.843,-0.71
30.859,0.04
30.875,0.73
30.890,1.38
30.906,1.96
30.921,2.42
30.937,2.75
30.953,2.97
30.968,3.16
30.984,3.38
31.000,3.63
31.015,3.83
31.031,3.86
31.046,3.65
31.062,3.22
31.078,2.68
31.093,2.17
31.109,1.78
31.125,1.46
31.140,1.12
31.156,0.69
31.171,0.17
31.187,-0.32
31.203,-0.62
31.218,-0.67
31.234,-0.47
31.250,-0.14
31.265,0.11
31.281,0.14
31.296,-0.05
31.312,-0.42
31.328,-0.87
31.343,-1.34
31.359,-1.8
31.375,-2.27
31.390,-2.71
31.406,-3.11
31.421,-3.37
31.437,-3.39
31.453,-3.15
31.468,-2.66
31.484,-2.0
31.500,-1.29
31.515,-0.62
31.546,0.59
31.562,1.17
31.578,1.77
31.593,2.33
31.609,2.77
31.625,3.03
31.640,3.06
31.656,2.89
31.671,2.62
31.687,2.32
31.703,2.07
31.718,1.84
31.734,1.6
31.750,1.32
31.765,1.01
31.781,0.68
31.796,0.38
31.812,0.16
31.828,0.01
31.843,-0.12
31.859,-0.29
31.875,-0.56
31.890,-0.92
31.906,-1.31
31.921,-1.65
31.937,-1.89
31.953,-2.02
31.968,-2.16
31.984,-2.4
32.000,-2.82
32.015,-3.38
32.031,-3.98
32.046,-4.44
32.062,-4.59
32.078,-4.39
32.093,-3.86
32.109,-3.11
32.125,-2.27
32.140,-1.48
32.156,-0.85
32.171,-0.46
32.187,-0.32
32.203,-0.38
32.218,-0.56
32.234,-0.73
32.250,-0.8
32.265,-0.73
32.281,-0.51
32.296,-0.19
32.312,0.22
32.328,0.73
32.343,1.28
32.359,1.84
32.375,2.33
32.390,2.68
32.406,2.84
32.421,2.85
32.437,2.78
32.453,2.69
32.468,2.56
32.484,2.33
32.500,1.91
32.515,1.27
32.531,0.46
32.546,-0.43
32.562,-1.21
32.578,-1.76
32.593,-2.06
32.609,-2.21
32.625,-2.36
32.640,-2.69
32.656,-3.25
32.671,-3.99
32.687,-4.77
32.703,-5.4
32.718,-5.76
32.734,-5.77
32.750,-5.42
32.765,-4.76
32.781,-3.91
32.796,-2.95
32.812,-2.0
32.828,-1.2
32.843,-0.58
32.859,-0.18
32.875,0.08
32.890,0.28
32.906,0.58
32.921,1.01
32.937,1.57
32.953,2.17
32.968,2.67
32.984,2.99
33.000,3.02
33.015,2.84
33.031,2.5
33.046,2.17
33.062,1.87
33.078,1.62
33.093,1.36
33.109,1.03
33.125,0.66
33.140,0.22
33.156,-0.21
33.171,-0.59
33.187,-0.87
33.203,-1.12
33.218,-1.36
33.234,-1.67
33.250,-2.08
33.265,-2.5
33.281,-2.91
33.296,-3.22
33.312,-3.44
33.328,-3.58
33.343,-3.72
33.359,-3.89
33.375,-4.06
33.390,-4.21
33.406,-4.25
33.421,-4.15
33.437,-3.88
33.453,-3.48
33.468,-2.93
33.484,-2.21
33.500,-1.34
33.515,-0.3
33.531,0.79
33.546,1.83
33.562,2.64
33.578,3.14
33.593,3.23
33.609,2.98
33.625,2.49
33.640,1.96
33.656,1.55
33.671,1.3
33.687,1.27
33.703,1.37
33.718,1.56
33.734,1.81
33.750,2.12
33.765,2.49
33.781,2.85
33.796,3.13
33.812,3.21
33.828,3.08
33.843,2.75
33.859,2.28
33.875,1.7
33.890,1.07
33.906,0.41
33.921,-0.3
33.937,-1.02
33.953,-1.77
33.968,-2.47
33.984,-3.1
34.000,-3.6
34.015,-3.91
34.031,-4.08
34.046,-4.19
34.062,-4.32
34.078,-4.51
34.093,-4.74
34.109,-4.87
34.125,-4.82
34.140,-4.51
34.156,-3.92
34.171,-3.13
34.187,-2.28
34.203,-1.5
34.218,-0.83
34.234,-0.31
34.250,0.14
34.265,0.57
34.281,1.08
34.296,1.66
34.312,2.29
34.328,2.88
34.343,3.31
34.359,3.54
34.375,3.58
34.390,3.46
34.406,3.24
34.421,2.96
34.437,2.63
34.453,2.28
34.468,1.96
34.484,1.79
34.500,1.81
34.515,2.01
34.531,2.26
34.546,2.33
34.562,2.05
34.578,1.4
34.593,0.54
34.609,-0.24
34.625,-0.72
34.640,-0.78
34.656,-0.56
34.671,-0.2
34.687,0.06
34.703,0.13
34.718,0.01
34.734,-0.18
34.750,-0.36
34.765,-0.48
34.781,-0.5
34.796,-0.44
34.812,-0.31
34.828,-0.08
34.843,0.24
34.859,0.66
34.875,1.12
34.890,1.54
34.906,1.86
34.921,2.05
34.937,2.11
34.953,2.05
34.968,1.92
34.984,1.74
35.000,1.55
35.015,1.41
35.031,1.32
35.046,1.28
35.062,1.26
35.078,1.17
35.093,1.02
35.109,0.84
35.125,0.72
35.140,0.76
35.156,1.02
35.171,1.43
35.187,1.85
35.203,2.12
35.218,2.16
35.234,1.95
35.250,1.6
35.265,1.24
35.281,0.96
35.296,0.77
35.312,0.57
35.328,0.3
35.343,-0.13
35.359,-0.69
35.375,-1.31
35.390,-1.88
35.406,-2.36
35.421,-2.73
35.437,-3.03
35.453,-3.34
35.468,-3.65
35.484,-3.94
35.500,-4.15
35.515,-4.16
35.531,-3.96
35.546,-3.49
35.562,-2.75
35.578,-1.78
35.593,-0.73
35.609,0.3
35.625,1.13
35.640,1.68
35.656,2.01
35.671,2.19
35.687,2.35
35.703,2.56
35.718,2.78
35.734,2.93
35.750,2.94
35.765,2.82
35.781,2.61
35.796,2.44
35.812,2.35
35.828,2.35
35.843,2.38
35.859,2.4
35.875,2.37
35.890,2.28
35.906,2.18
35.921,2.05
35.937,1.96
35.953,1.87
35.968,1.77
35.984,1.59
36.000,1.28
36.015,0.77
36.031,0.05
36.046,-0.87
36.062,-1.94
36.078,-3.05
36.093,-4.11
36.109,-5.02
36.125,-5.65
36.140,-5.94
36.156,-5.8
36.171,-5.23
36.187,-4.3
36.203,-3.18
36.218,-2.05
36.234,-1.12
36.250,-0.52
36.265,-0.23
36.281,-0.21
36.296,-0.27
36.312,-0.28
36.328,-0.11
36.343,0.3
36.359,0.91
36.375,1.65
36.390,2.4
36.406,3.11
36.421,3.67
36.437,4.06
36.453,4.25
36.468,4.3
36.484,4.28
36.500,4.24
36.515,4.22
36.531,4.16
36.546,3.99
36.562,3.67
36.578,3.14
36.593,2.48
36.609,1.78
36.625,1.2
36.640,0.8
36.656,0.58
36.671,0.45
36.687,0.29
36.703,0.05
36.718,-0.32
36.734,-0.8
36.750,-1.28
36.765,-1.67
36.781,-1.91
36.796,-1.93
36.812,-1.74
36.828,-1.39
36.843,-0.96
36.859,-0.59
36.875,-0.37
36.890,-0.33
36.906,-0.36
36.921,-0.39
36.937,-0.31
36.953,-0.05
36.968,0.35
36.984,0.8
37.000,1.2
37.015,1.46
37.031,1.5
37.046,1.31
37.062,0.92
37.078,0.42
37.093,-0.12
37.109,-0.56
37.125,-0.79
37.140,-0.67
37.156,-0.14
37.171,0.79
37.187,1.98
37.203,3.21
37.218,4.29
37.234,5.0
37.250,5.29
37.265,5.12
37.281,4.61
37.296,3.86
37.312,3.0
37.328,2.14
37.343,1.36
37.359,0.76
37.375,0.33
37.390,0.12
37.406,0.03
37.421,-0.01
37.437,-0.09
37.453,-0.31
37.468,-0.67
37.484,-1.12
37.500,-1.55
37.515,-1.86
37.531,-2.0
37.546,-2.01
37.562,-1.97
37.578,-2.02
37.593,-2.22
37.609,-2.54
37.625,-2.87
37.640,-3.03
37.656,-2.93
37.671,-2.55
37.687,-1.91
37.703,-1.11
37.718,-0.2
37.734,0.78
37.750,1.79
37.765,2.78
37.781,3.65
37.796,4.29
37.812,4.65
37.828,4.7
37.843,4.44
37.859,3.96
37.875,3.27
37.890,2.46
37.906,1.62
37.921,0.89
37.937,0.37
37.953,0.14
37.968,0.14
37.984,0.27
38.000,0.39
38.015,0.36
38.031,0.18
38.046,-0.07
38.062,-0.24
38.078,-0.22
38.093,0.08
38.109,0.6
38.125,1.2
38.140,1.7
38.156,1.89
38.171,1.66
38.187,1.05
38.203,0.2
38.218,-0.64
38.234,-1.31
38.250,-1.7
38.265,-1.85
38.281,-1.83
38.296,-1.77
38.312,-1.69
38.328,-1.62
38.343,-1.52
38.359,-1.4
38.375,-1.28
38.390,-1.16
38.406,-1.02
38.421,-0.73
38.437,-0.25
38.453,0.45
38.468,1.27
38.484,2.09
38.500,2.83
38.515,3.43
38.531,3.91
38.546,4.25
38.562,4.45
38.578,4.47
38.593,4.29
38.609,3.96
38.625,3.58
38.640,3.26
38.656,3.02
38.671,2.85
38.687,2.62
38.703,2.26
38.718,1.71
38.734,1.01
38.750,0.23
38.765,-0.58
38.781,-1.32
38.796,-1.99
38.812,-2.52
38.828,-2.93
38.843,-3.19
38.859,-3.36
38.875,-3.49
38.890,-3.62
38.906,-3.78
38.921,-3.88
38.937,-3.89
38.953,-3.67
38.968,-3.23
38.984,-2.52
39.000,-1.64
39.015,-0.65
39.031,0.34
39.046,1.23
39.062,1.91
39.078,2.29
39.093,2.36
39.109,2.19
39.125,1.85
39.140,1.48
39.156,1.13
39.171,0.85
39.187,0.64
39.203,0.52
39.218,0.49
39.234,0.57
39.250,0.76
39.265,0.99
39.281,1.24
39.296,1.46
39.312,1.68
39.328,1.93
39.343,2.27
39.359,2.66
39.375,3.06
39.390,3.37
39.406,3.44
39.421,3.21
39.437,2.61
39.453,1.72
39.468,0.57
39.484,-0.63
39.500,-1.8
39.515,-2.83
39.531,-3.67
39.546,-4.35
39.562,-4.92
39.578,-5.41
39.593,-5.8
39.609,-6.09
39.625,-6.19
39.640,-6.17
39.656,-6.04
39.671,-5.85
39.687,-5.61
39.703,-5.24
39.718,-4.71
39.734,-4.0
39.750,-3.22
39.765,-2.46
39.781,-1.83
39.796,-1.32
39.812,-0.91
39.828,-0.53
39.843,-0.13
39.859,0.26
39.875,0.66
39.890,1.07
39.906,1.55
39.921,2.17
39.937,2.9
39.953,3.69
39.968,4.36
39.984,4.8
40.000,4.87
40.015,4.55
40.031,3.91
40.046,3.13
40.062,2.38
40.078,1.81
40.093,1.52
40.109,1.44
40.125,1.49
40.140,1.52
40.156,1.44
40.171,1.15
40.187,0.64
40.203,-0.09
40.218,-0.96
40.234,-1.87
40.250,-2.69
40.265,-3.3
40.281,-3.65
40.296,-3.77
40.312,-3.77
40.328,-3.73
40.343,-3.71
40.359,-3.69
40.375,-3.6
40.390,-3.4
40.406,-3.06
40.421,-2.61
40.437,-2.06
40.453,-1.43
40.468,-0.77
40.484,-0.14
40.500,0.34
40.515,0.57
40.531,0.53
40.546,0.3
40.562,-0.02
40.578,-0.3
40.593,-0.42
40.609,-0.33
40.625,-0.05
40.640,0.41
40.656,0.95
40.671,1.52
40.687,1.98
40.703,2.3
40.718,2.46
40.734,2.51
40.750,2.52
40.765,2.49
40.781,2.39
40.796,2.15
40.812,1.74
40.828,1.14
40.843,0.44
40.859,-0.24
40.875,-0.78
40.890,-1.11
40.906,-1.29
40.921,-1.37
40.937,-1.41
40.953,-1.4
40.968,-1.33
40.984,-1.18
41.000,-0.95
41.015,-0.74
41.031,-0.59
41.046,-0.59
41.062,-0.78
41.078,-1.19
41.093,-1.74
41.109,-2.32
41.125,-2.79
41.140,-3.02
41.156,-2.93
41.171,-2.51
41.187,-1.83
41.203,-0.98
41.218,-0.15
41.234,0.52
41.250,0.97
41.265,1.14
41.281,1.05
41.296,0.76
41.312,0.37
41.328,-0.03
41.343,-0.35
41.359,-0.56
41.375,-0.64
41.390,-0.58
41.406,-0.36
41.421,-0.03
41.437,0.37
41.453,0.79
41.468,1.17
41.484,1.47
41.500,1.68
41.515,1.81
41.531,1.84
41.546,1.85
41.562,1.89
41.578,2.01
41.593,2.24
41.609,2.62
41.625,3.11
41.640,3.71
41.656,4.37
41.671,5.04
41.687,5.63
41.703,6.09
41.718,6.41
41.734,6.59
41.750,6.67
41.765,6.74
41.781,6.93
41.796,7.26
41.812,7.72
41.828,8.21
41.843,8.62
41.859,8.87
41.875,8.95
41.890,8.87
41.906,8.72
41.921,8.55
41.937,8.37
41.953,8.13
41.968,7.71
41.984,7.03
42.000,5.99
42.015,4.62
42.031,2.99
42.046,1.2
42.062,-0.68
42.078,-2.57
42.093,-4.52
42.109,-6.53
42.125,-8.61
42.140,-10.63
42.156,-12.43
42.171,-13.84
42.187,-14.82
42.203,-15.39
42.218,-15.67
42.234,-15.77
42.250,-15.76
42.265,-15.72
42.281,-15.71
42.296,-15.81
42.312,-16.06
42.328,-16.4
42.343,-16.64
42.359,-16.56
42.375,-16.03
42.390,-15.05
42.406,-13.79
42.421,-12.53
42.437,-11.51
42.453,-10.8
42.468,-10.35
42.484,-10.01
42.500,-9.54
42.515,-8.83
42.531,-7.79
42.546,-6.48
42.562,-5.05
42.578,-3.68
42.593,-2.52
42.609,-1.6
42.625,-0.97
42.640,-0.57
42.656,-0.4
42.671,-0.42
42.687,-0.67
42.703,-1.16
42.718,-1.85
42.734,-2.68
42.750,-3.6
42.765,-4.56
42.781,-5.53
42.796,-6.52
42.812,-7.53
42.828,-8.56
42.843,-9.6
42.859,-10.54
42.875,-11.27
42.890,-11.67
42.906,-11.6
42.921,-11.02
42.937,-10.01
42.953,-8.66
42.968,-7.03
42.984,-5.17
43.000,-3.06
43.015,-0.76
43.031,1.61
43.046,3.91
43.062,5.95
43.078,7.57
43.093,8.73
43.109,9.51
43.125,9.86
43.140,9.74
43.156,9.05
43.171,7.78
43.187,6.06
43.203,4.21
43.218,2.55
43.234,1.3
43.250,0.49
43.265,-0.18
43.281,-1.06
43.296,-2.47
43.312,-4.51
43.328,-7.0
43.343,-9.62
43.359,-11.97
43.375,-13.69
43.390,-14.57
43.406,-14.53
43.421,-13.57
43.437,-11.79
43.453,-9.33
43.468,-6.39
43.484,-3.21
43.500,-0.06
43.515,2.81
43.531,5.16
43.546,6.88
43.562,7.93
43.578,8.41
43.593,8.51
43.609,8.4
43.625,8.24
43.640,8.05
43.656,7.77
43.671,7.31
43.687,6.64
43.703,5.77
43.718,4.72
43.734,3.57
43.750,2.32
43.765,0.97
43.781,-0.46
43.796,-2.02
43.812,-3.72
43.828,-5.54
43.843,-7.42
43.859,-9.23
43.875,-10.72
43.890,-11.61
43.906,-11.58
43.921,-10.5
43.937,-8.42
43.953,-5.65
43.968,-2.54
43.984,0.5
44.000,3.22
44.015,5.46
44.031,7.2
44.046,8.48
44.062,9.32
44.078,9.81
44.093,10.03
44.109,10.16
44.125,10.33
44.140,10.72
44.156,11.38
44.171,12.25
44.187,13.18
44.203,14.02
44.218,14.6
44.234,14.88
44.250,14.88
44.265,14.66
44.281,14.34
44.296,13.99
44.312,13.62
44.328,13.24
44.343,12.86
44.359,12.44
44.375,11.96
44.390,11.42
44.406,10.75
44.421,9.97
44.437,9.07
44.453,8.11
44.468,7.15
44.484,6.25
44.500,5.42
44.515,4.63
44.531,3.83
44.546,2.97
44.562,2.09
44.578,1.28
44.593,0.7
44.609,0.48
44.625,0.69
44.640,1.36
44.656,2.39
44.671,3.66
44.687,4.96
44.703,6.09
44.718,6.91
44.734,7.31
44.750,7.3
44.765,6.93
44.781,6.29
44.796,5.48
44.812,4.58
44.828,3.6
44.843,2.6
44.859,1.65
44.875,0.8
44.890,0.1
44.906,-0.41
44.921,-0.69
44.937,-0.76
44.953,-0.59
44.968,-0.19
44.984,0.41
45.000,1.14
45.015,1.88
45.031,2.46
45.046,2.77
45.062,2.77
45.078,2.46
45.093,2.0
45.109,1.52
45.125,1.12
45.140,0.85
45.156,0.66
45.171,0.5
45.187,0.28
45.203,-0.06
45.218,-0.52
45.234,-1.08
45.250,-1.7
45.265,-2.31
45.281,-2.84
45.296,-3.19
45.312,-3.27
45.328,-3.03
45.343,-2.53
45.359,-1.82
45.375,-1.02
45.390,-0.22
45.406,0.5
45.421,1.15
45.437,1.74
45.453,2.27
45.468,2.76
45.484,3.12
45.500,3.31
45.515,3.28
45.531,3.05
45.546,2.65
45.562,2.15
45.578,1.63
45.593,1.13
45.609,0.73
45.625,0.43
45.640,0.22
45.656,0.01
45.671,-0.26
45.687,-0.67
45.703,-1.21
45.718,-1.86
45.734,-2.55
45.750,-3.16
45.765,-3.64
45.781,-3.93
45.796,-4.05
45.812,-4.05
45.828,-4.0
45.843,-4.01
45.859,-4.22
45.875,-4.72
45.890,-5.55
45.906,-6.63
45.921,-7.69
45.937,-8.46
45.953,-8.67
45.968,-8.17
45.984,-6.98
46.000,-5.28
46.015,-3.37
46.031,-1.53
46.046,-0.07
46.062,0.98
46.078,1.66
46.093,2.12
46.109,2.49
46.125,2.88
46.140,3.23
46.156,3.44
46.171,3.44
46.187,3.19
46.203,2.82
46.218,2.49
46.234,2.32
46.250,2.31
46.265,2.39
46.281,2.44
46.296,2.42
46.312,2.36
46.328,2.29
46.343,2.27
46.359,2.22
46.375,2.04
46.390,1.64
46.406,0.96
46.421,0.09
46.437,-0.85
46.453,-1.7
46.468,-2.37
46.484,-2.81
46.500,-3.12
46.515,-3.42
46.531,-3.84
46.546,-4.41
46.562,-5.07
46.578,-5.63
46.593,-5.91
46.609,-5.76
46.625,-5.16
46.640,-4.17
46.656,-2.96
46.671,-1.64
46.687,-0.33
46.703,0.94
46.718,2.13
46.734,3.22
46.750,4.13
46.765,4.78
46.781,5.13
46.796,5.18
46.812,5.04
46.828,4.84
46.843,4.73
46.859,4.81
46.875,5.05
46.890,5.37
46.906,5.63
46.921,5.74
46.937,5.73
46.953,5.62
46.968,5.48
46.984,5.29
47.000,5.02
47.015,4.59
47.031,4.0
47.046,3.25
47.062,2.43
47.078,1.63
47.093,0.92
47.109,0.35
47.125,-0.13
47.140,-0.5
47.156,-0.84
47.171,-1.19
47.187,-1.62
47.203,-2.16
47.218,-2.82
47.234,-3.51
47.250,-4.08
47.265,-4.44
47.281,-4.5
47.296,-4.24
47.312,-3.68
47.328,-2.9
47.343,-1.95
47.359,-0.98
47.375,-0.04
47.390,0.82
47.406,1.56
47.421,2.18
47.437,2.7
47.453,3.09
47.468,3.36
47.484,3.53
47.500,3.61
47.515,3.66
47.531,3.73
47.546,3.83
47.562,3.97
47.578,4.12
47.593,4.18
47.609,4.1
47.625,3.92
47.640,3.69
47.656,3.45
47.671,3.26
47.687,3.05
47.703,2.79
47.718,2.46
47.734,2.03
47.750,1.57
47.765,1.18
47.781,0.95
47.796,0.89
47.812,0.93
47.828,0.94
47.843,0.81
47.859,0.5
47.875,0.01
47.890,-0.57
47.906,-1.24
47.921,-2.01
47.937,-2.87
47.953,-3.73
47.968,-4.42
47.984,-4.71
48.000,-4.45
48.015,-3.64
48.031,-2.48
48.046,-1.25
48.062,-0.23
48.078,0.5
48.093,0.98
48.109,1.32
48.125,1.59
48.140,1.85
48.156,2.03
48.171,2.15
48.187,2.27
48.203,2.44
48.218,2.76
48.234,3.26
48.250,3.86
48.265,4.43
48.281,4.83
48.296,4.96
48.312,4.77
48.328,4.35
48.343,3.76
48.359,3.13
48.375,2.53
48.390,2.02
48.406,1.62
48.421,1.31
48.437,1.06
48.453,0.87
48.468,0.66
48.484,0.37
48.500,0.01
48.515,-0.43
48.531,-0.9
48.546,-1.36
48.562,-1.79
48.578,-2.23
48.593,-2.75
48.609,-3.4
48.625,-4.2
48.640,-5.06
48.656,-5.86
48.671,-6.5
48.687,-6.86
48.703,-6.86
48.718,-6.45
48.734,-5.61
48.750,-4.4
48.765,-2.87
48.781,-1.23
48.796,0.28
48.812,1.49
48.828,2.28
48.843,2.68
48.859,2.82
48.875,2.83
48.890,2.8
48.906,2.76
48.921,2.74
48.937,2.74
48.953,2.82
48.968,3.01
48.984,3.28
49.000,3.58
49.015,3.82
49.031,3.97
49.046,4.01
49.062,4.01
49.078,3.99
49.093,3.96
49.109,3.84
49.125,3.5
49.140,2.89
49.156,1.97
49.171,0.85
49.187,-0.32
49.203,-1.35
49.218,-2.08
49.234,-2.41
49.250,-2.43
49.265,-2.28
49.281,-2.18
49.296,-2.3
49.312,-2.65
49.328,-3.1
49.343,-3.48
49.359,-3.64
49.375,-3.52
49.390,-3.21
49.406,-2.77
49.421,-2.26
49.437,-1.73
49.453,-1.19
49.468,-0.66
49.484,-0.21
49.500,0.14
49.515,0.39
49.531,0.56
49.546,0.68
49.562,0.78
49.578,0.88
49.593,0.99
49.609,1.16
49.625,1.42
49.640,1.79
49.656,2.2
49.671,2.51
49.687,2.6
49.703,2.44
49.718,2.12
49.734,1.77
49.750,1.48
49.765,1.32
49.781,1.24
49.796,1.11
49.812,0.89
49.828,0.53
49.843,0.09
49.859,-0.34
49.875,-0.7
49.890,-0.96
49.906,-1.11
49.921,-1.15
49.937,-1.13
49.953,-1.03
49.968,-0.89
49.984,-0.77
50.000,-0.73
50.015,-0.85
50.031,-1.12
50.046,-1.55
50.062,-2.07
50.078,-2.58
50.093,-3.0
50.109,-3.27
50.125,-3.39
50.140,-3.39
50.156,-3.25
50.171,-2.91
50.187,-2.33
50.203,-1.51
50.218,-0.55
50.234,0.35
50.250,1.01
50.265,1.31
50.281,1.27
50.296,1.05
50.312,0.9
50.328,0.91
50.343,1.09
50.359,1.33
50.375,1.5
50.390,1.49
50.406,1.35
50.421,1.14
50.437,0.91
50.453,0.71
50.468,0.48
50.484,0.2
50.500,-0.09
50.515,-0.37
50.531,-0.6
50.546,-0.73
50.562,-0.82
50.578,-0.92
50.593,-1.09
50.609,-1.33
50.625,-1.62
50.640,-1.85
50.656,-1.99
50.671,-2.0
50.687,-1.89
50.703,-1.76
50.718,-1.73
50.734,-1.9
50.750,-2.32
50.765,-2.93
50.781,-3.62
50.796,-4.21
50.812,-4.62
50.828,-4.82
50.843,-4.9
50.859,-4.93
50.875,-4.92
50.890,-4.83
50.906,-4.48
50.921,-3.8
50.937,-2.79
50.953,-1.59
50.968,-0.37
50.984,0.71
51.000,1.63
51.015,2.43
51.031,3.08
51.046,3.56
51.062,3.74
51.078,3.52
51.093,2.92
51.109,2.11
51.125,1.36
51.140,0.9
51.156,0.84
51.171,1.09
51.187,1.46
51.203,1.71
51.218,1.66
51.234,1.28
51.250,0.62
51.265,-0.18
51.281,-1.0
51.296,-1.71
51.312,-2.3
51.328,-2.76
51.343,-3.17
51.359,-3.58
51.375,-4.03
51.390,-4.48
51.406,-4.86
51.421,-5.09
51.437,-5.11
51.453,-4.94
51.468,-4.68
51.484,-4.42
51.500,-4.2
51.515,-4.04
51.531,-3.86
51.546,-3.65
51.562,-3.38
51.578,-3.07
51.593,-2.74
51.609,-2.38
51.625,-1.96
51.640,-1.42
51.656,-0.79
51.671,-0.12
51.687,0.4
51.703,0.7
51.718,0.72
51.734,0.55
51.750,0.3
51.765,0.1
51.781,0.04
51.796,0.07
51.812,0.16
51.828,0.24
51.843,0.31
51.859,0.4
51.875,0.47
51.890,0.51
51.906,0.47
51.921,0.34
51.937,0.13
51.953,-0.09
51.968,-0.26
51.984,-0.3
52.000,-0.22
52.015,-0.09
52.031,0.02
52.062,-0.14
52.078,-0.39
52.093,-0.68
52.109,-1.01
52.125,-1.37
52.140,-1.84
52.156,-2.42
52.171,-3.09
52.187,-3.8
52.203,-4.46
52.218,-5.02
52.234,-5.43
52.250,-5.7
52.265,-5.81
52.281,-5.73
52.296,-5.47
52.312,-5.05
52.328,-4.59
52.343,-4.16
52.359,-3.77
52.375,-3.36
52.390,-2.85
52.406,-2.19
52.421,-1.35
52.437,-0.42
52.453,0.52
52.468,1.35
52.484,1.95
52.500,2.27
52.515,2.29
52.531,2.05
52.546,1.64
52.562,1.2
52.578,0.83
52.593,0.6
52.609,0.55
52.625,0.62
52.640,0.75
52.656,0.92
52.671,1.11
52.687,1.35
52.703,1.66
52.718,2.03
52.734,2.46
52.750,2.9
52.765,3.3
52.781,3.56
52.796,3.59
52.812,3.36
52.828,2.86
52.843,2.15
52.859,1.28
52.875,0.34
52.890,-0.65
52.906,-1.68
52.921,-2.74
52.937,-3.78
52.953,-4.69
52.968,-5.36
52.984,-5.7
53.000,-5.73
53.015,-5.54
53.031,-5.27
53.046,-5.01
53.062,-4.75
53.078,-4.39
53.093,-3.79
53.109,-2.85
53.125,-1.58
53.140,-0.19
53.156,1.11
53.171,2.08
53.187,2.64
53.203,2.8
53.218,2.68
53.234,2.4
53.250,2.03
53.265,1.61
53.281,1.08
53.296,0.46
53.312,-0.16
53.328,-0.68
53.343,-0.98
53.359,-1.0
53.375,-0.81
53.390,-0.53
53.406,-0.31
53.421,-0.26
53.437,-0.34
53.453,-0.49
53.468,-0.63
53.484,-0.74
53.500,-0.82
53.515,-0.93
53.531,-1.1
53.546,-1.31
53.562,-1.55
53.578,-1.8
53.593,-2.1
53.609,-2.52
53.625,-3.11
53.640,-3.86
53.656,-4.66
53.671,-5.34
53.687,-5.74
53.703,-5.77
53.718,-5.43
53.734,-4.83
53.750,-4.15
53.765,-3.49
53.781,-2.91
53.796,-2.42
53.812,-1.96
53.828,-1.52
53.843,-1.1
53.859,-0.7
53.875,-0.38
53.890,-0.1
53.906,0.24
53.921,0.69
53.937,1.32
53.953,2.12
53.968,3.01
53.984,3.83
54.000,4.47
54.015,4.78
54.031,4.77
54.046,4.53
54.062,4.16
54.078,3.81
54.093,3.53
54.109,3.3
54.125,3.05
54.140,2.68
54.156,2.13
54.171,1.41
54.187,0.6
54.203,-0.18
54.218,-0.76
54.234,-1.16
54.250,-1.39
54.265,-1.54
54.281,-1.68
54.296,-1.85
54.312,-2.04
54.328,-2.26
54.343,-2.53
54.359,-2.87
54.375,-3.3
54.390,-3.81
54.406,-4.31
54.421,-4.72
54.437,-4.95
54.453,-4.94
54.468,-4.66
54.484,-4.13
54.500,-3.33
54.515,-2.38
54.531,-1.37
54.546,-0.4
54.562,0.45
54.578,1.17
54.593,1.79
54.609,2.3
54.625,2.67
54.640,2.91
54.656,2.96
54.671,2.86
54.687,2.61
54.703,2.21
54.718,1.72
54.734,1.13
54.750,0.48
54.765,-0.13
54.781,-0.59
54.796,-0.81
54.812,-0.78
54.828,-0.57
54.843,-0.3
54.859,0.03
54.875,0.38
54.890,0.76
54.906,1.19
54.921,1.6
54.937,1.86
54.953,1.86
54.968,1.58
54.984,1.06
55.000,0.42
55.015,-0.18
55.031,-0.64
55.046,-0.89
55.062,-0.97
55.078,-0.99
55.093,-1.01
55.109,-1.14
55.125,-1.38
55.140,-1.64
55.156,-1.79
55.171,-1.69
55.187,-1.31
55.203,-0.78
55.218,-0.25
55.234,0.13
55.250,0.32
55.265,0.39
55.281,0.45
55.296,0.59
55.312,0.82
55.328,1.09
55.343,1.32
55.359,1.48
55.375,1.6
55.390,1.69
55.406,1.77
55.421,1.82
55.437,1.8
55.453,1.72
55.468,1.6
55.484,1.52
55.500,1.49
55.515,1.52
55.531,1.51
55.546,1.42
55.562,1.23
55.578,1.0
55.593,0.81
55.609,0.73
55.625,0.77
55.640,0.85
55.656,0.88
55.671,0.8
55.687,0.61
55.703,0.41
55.718,0.22
55.734,0.03
55.750,-0.21
55.765,-0.62
55.781,-1.27
55.796,-2.1
55.812,-3.04
55.828,-3.92
55.843,-4.57
55.859,-4.87
55.875,-4.76
55.890,-4.25
55.906,-3.43
55.921,-2.44
55.937,-1.42
55.953,-0.46
55.968,0.38
55.984,1.16
56.000,1.9
56.015,2.62
56.031,3.28
56.046,3.79
56.062,4.09
56.078,4.17
56.093,4.11
56.109,4.0
56.125,3.94
56.140,3.91
56.156,3.88
56.171,3.82
56.187,3.73
56.203,3.65
56.218,3.6
56.234,3.57
56.250,3.54
56.265,3.43
56.281,3.23
56.296,2.97
56.312,2.69
56.328,2.39
56.343,2.02
56.359,1.56
56.375,0.99
56.390,0.35
56.406,-0.28
56.421,-0.84
56.437,-1.24
56.453,-1.45
56.468,-1.51
56.484,-1.46
56.500,-1.37
56.515,-1.3
56.531,-1.3
56.546,-1.35
56.562,-1.4
56.578,-1.37
56.593,-1.23
56.609,-0.98
56.625,-0.62
56.640,-0.18
56.656,0.3
56.671,0.85
56.687,1.43
56.703,2.01
56.718,2.54
56.734,2.97
56.750,3.29
56.765,3.53
56.781,3.68
56.796,3.75
56.812,3.75
56.828,3.71
56.843,3.6
56.859,3.42
56.875,3.2
56.890,2.96
56.906,2.74
56.921,2.49
56.937,2.21
56.953,1.87
56.968,1.48
56.984,1.06
57.000,0.64
57.015,0.26
57.031,-0.06
57.046,-0.35
57.062,-0.65
57.078,-0.96
57.093,-1.25
57.109,-1.46
57.125,-1.59
57.140,-1.67
57.156,-1.85
57.171,-2.24
57.187,-2.88
57.203,-3.69
57.218,-4.52
57.234,-5.18
57.250,-5.46
57.265,-5.28
57.281,-4.67
57.296,-3.72
57.312,-2.61
57.328,-1.51
57.343,-0.49
57.359,0.38
57.375,1.08
57.390,1.64
57.406,2.07
57.421,2.4
57.437,2.63
57.453,2.77
57.468,2.87
57.484,2.94
57.500,2.95
57.515,2.92
57.531,2.84
57.546,2.76
57.562,2.73
57.578,2.81
57.593,2.95
57.609,3.12
57.625,3.26
57.640,3.32
57.656,3.33
57.671,3.29
57.687,3.24
57.703,3.19
57.718,3.12
57.734,2.95
57.750,2.67
57.765,2.31
57.781,1.86
57.796,1.37
57.812,0.81
57.828,0.15
57.843,-0.61
57.859,-1.44
57.875,-2.31
57.890,-3.11
57.906,-3.8
57.921,-4.35
57.937,-4.73
57.953,-4.94
57.968,-4.97
57.984,-4.77
58.000,-4.35
58.015,-3.74
58.031,-3.04
58.046,-2.38
58.062,-1.91
58.078,-1.67
58.093,-1.61
58.109,-1.61
58.125,-1.54
58.140,-1.35
58.156,-1.02
58.171,-0.6
58.187,-0.11
58.203,0.48
58.218,1.26
58.234,2.3
58.250,3.58
58.265,4.92
58.281,6.06
58.296,6.78
58.312,6.97
58.328,6.7
58.343,6.15
58.359,5.53
58.375,4.94
58.390,4.42
58.406,3.88
58.421,3.24
58.437,2.46
58.453,1.58
58.468,0.66
58.484,-0.25
58.500,-1.07
58.515,-1.79
58.531,-2.44
58.546,-2.99
58.562,-3.44
58.578,-3.84
58.593,-4.2
58.609,-4.54
58.625,-4.83
58.640,-5.01
58.656,-5.03
58.671,-4.88
58.687,-4.57
58.703,-4.09
58.718,-3.5
58.734,-2.8
58.750,-2.02
58.765,-1.2
58.781,-0.41
58.796,0.28
58.812,0.84
58.828,1.29
58.843,1.67
58.859,2.04
58.875,2.46
58.890,2.92
58.906,3.44
58.921,3.94
58.937,4.36
58.953,4.64
58.968,4.76
58.984,4.73
59.000,4.62
59.015,4.53
59.031,4.5
59.046,4.55
59.062,4.59
59.078,4.53
59.093,4.3
59.109,3.88
59.125,3.3
59.140,2.6
59.156,1.81
59.171,0.91
59.187,-0.12
59.203,-1.21
59.218,-2.29
59.234,-3.21
59.250,-3.87
59.265,-4.17
59.281,-4.14
59.296,-3.92
59.312,-3.72
59.328,-3.74
59.343,-4.06
59.359,-4.64
59.375,-5.25
59.390,-5.68
59.406,-5.68
59.421,-5.21
59.437,-4.38
59.453,-3.41
59.468,-2.45
59.484,-1.6
59.500,-0.83
59.515,-0.06
59.531,0.7
59.546,1.36
59.562,1.81
59.578,1.98
59.593,1.92
59.609,1.79
59.625,1.75
59.640,1.88
59.656,2.13
59.671,2.38
59.687,2.54
59.703,2.57
59.718,2.52
59.734,2.5
59.750,2.54
59.765,2.68
59.781,2.86
59.796,3.01
59.812,3.1
59.828,3.12
59.843,3.11
59.859,3.08
59.875,3.06
59.890,2.97
59.906,2.75
59.921,2.32
59.937,1.66
59.953,0.85
59.984,-0.8
