timestamp,value
00.000,-40.15
00.015,-85.01
00.031,-123.59
00.046,-153.09
00.062,-169.71
00.078,-170.51
00.093,-155.17
00.109,-126.78
00.125,-90.65
00.140,-52.56
00.156,-16.9
00.171,14.04
00.187,38.95
00.203,56.46
00.218,64.32
00.234,59.87
00.250,41.62
00.265,11.06
00.281,-26.66
00.296,-63.67
00.312,-91.64
00.328,-104.57
00.343,-100.33
00.359,-80.93
00.375,-51.47
00.390,-18.0
00.406,14.37
00.421,42.67
00.437,66.27
00.453,86.05
00.468,103.26
00.484,118.79
00.500,133.09
00.515,146.91
00.531,161.93
00.546,180.63
00.562,205.15
00.578,235.74
00.593,269.74
00.609,301.28
00.625,322.7
00.640,326.72
00.656,308.83
00.671,269.32
00.687,212.81
00.703,146.29
00.718,76.58
00.734,9.19
00.750,-51.71
00.765,-102.53
00.781,-140.09
00.796,-162.42
00.812,-170.0
00.828,-166.44
00.843,-157.33
00.859,-147.79
00.875,-139.83
00.890,-131.83
00.906,-120.35
00.921,-103.12
00.937,-81.05
00.953,-57.88
00.968,-37.58
00.984,-21.86
01.000,-9.53
01.015,2.0
01.031,14.07
01.046,25.28
01.062,32.11
01.078,30.81
01.093,19.18
01.109,-2.65
01.125,-32.41
01.140,-66.12
01.156,-98.57
01.171,-123.59
01.187,-135.07
01.203,-128.92
01.218,-105.17
01.234,-68.37
01.250,-26.11
01.265,13.78
01.281,46.3
01.296,70.28
01.312,87.4
01.328,100.05
01.343,109.33
01.359,114.17
01.375,112.52
01.390,102.7
01.406,84.4
01.421,58.95
01.437,29.04
01.453,-2.27
01.468,-32.22
01.484,-59.52
01.500,-84.33
01.515,-107.23
01.531,-128.21
01.546,-146.48
01.562,-160.35
01.578,-167.68
01.593,-166.58
01.609,-156.05
01.625,-137.43
01.640,-113.55
01.656,-87.3
01.671,-60.73
01.687,-35.68
01.703,-13.62
01.718,4.72
01.734,19.84
01.750,33.98
01.765,48.36
01.781,63.9
01.796,81.89
01.812,103.64
01.828,128.44
01.843,153.24
01.859,173.63
01.875,186.15
01.890,190.75
01.906,187.93
01.921,180.28
01.937,172.57
01.953,169.02
01.968,168.53
01.984,163.59
02.000,143.33
02.015,99.44
02.031,32.03
02.046,-54.1
02.062,-148.85
02.078,-238.83
02.093,-301.96
02.109,-316.83
02.125,-275.94
02.140,-192.57
02.156,-102.68
02.171,-18.72
02.187,55.98
02.203,120.25
02.218,172.53
02.234,208.38
02.250,222.81
02.265,212.86
02.281,180.09
02.296,131.45
02.312,78.7
02.328,29.66
02.343,-12.04
02.359,-46.13
02.375,-74.68
02.390,-101.56
02.406,-130.5
02.421,-162.49
02.437,-193.95
02.453,-216.66
02.468,-224.78
02.484,-216.3
02.500,-193.56
02.515,-162.78
02.531,-132.3
02.546,-109.4
02.562,-97.18
02.578,-93.16
02.593,-90.43
02.609,-83.75
02.625,-71.51
02.640,-55.73
02.656,-40.48
02.671,-29.52
02.687,-24.48
02.703,-24.27
02.718,-25.95
02.734,-26.27
02.750,-24.39
02.765,-21.42
02.781,-18.71
02.796,-16.64
02.812,-14.25
02.828,-9.95
02.843,-2.78
02.859,7.02
02.875,18.04
02.890,27.96
02.906,34.7
02.921,37.28
02.937,35.87
02.953,31.64
02.968,26.27
02.984,21.37
03.000,18.28
03.015,17.63
03.031,19.3
03.046,22.58
03.062,26.48
03.078,30.11
03.093,33.01
03.109,35.04
03.125,36.21
03.140,36.43
03.156,35.54
03.171,33.45
03.187,30.4
03.203,26.92
03.218,23.74
03.234,21.34
03.250,19.83
03.265,18.91
03.281,18.1
03.296,17.18
03.312,16.25
03.328,15.85
03.343,16.74
03.359,19.41
03.375,23.72
03.390,28.77
03.406,33.2
03.421,35.8
03.437,36.04
03.453,34.34
03.468,31.6
03.484,28.68
03.500,25.93
03.515,23.21
03.531,20.39
03.546,17.86
03.562,16.4
03.578,16.83
03.593,19.56
03.609,24.16
03.625,29.56
03.640,34.68
03.656,38.92
03.671,42.49
03.687,46.2
03.703,50.81
03.718,56.67
03.734,63.5
03.750,70.55
03.765,77.03
03.781,82.32
03.796,86.25
03.812,89.13
03.828,91.5
03.843,94.02
03.859,96.91
03.875,99.94
03.890,102.59
03.906,104.52
03.921,105.78
03.937,106.5
03.953,106.7
03.968,106.06
03.984,103.9
04.000,99.46
04.015,92.38
04.031,82.76
04.046,71.3
04.062,58.78
04.078,45.55
04.093,31.51
04.109,16.13
04.125,-1.03
04.140,-20.19
04.156,-41.1
04.171,-63.18
04.187,-85.44
04.203,-106.81
04.218,-126.36
04.234,-143.62
04.250,-158.8
04.265,-172.41
04.281,-184.72
04.296,-195.15
04.312,-202.36
04.328,-204.81
04.343,-201.46
04.359,-192.25
04.375,-177.9
04.390,-159.4
04.406,-137.58
04.421,-113.15
04.437,-87.32
04.453,-62.57
04.468,-42.25
04.484,-29.41
04.500,-25.18
04.515,-27.67
04.531,-32.82
04.546,-36.1
04.562,-34.83
04.578,-29.37
04.593,-22.74
04.609,-18.7
04.625,-19.66
04.640,-25.47
04.656,-33.89
04.671,-42.03
04.687,-47.91
04.703,-51.31
04.718,-53.43
04.734,-56.02
04.750,-60.12
04.765,-65.65
04.781,-71.45
04.796,-76.03
04.812,-78.42
04.828,-78.78
04.843,-78.54
04.859,-80.14
04.875,-86.01
04.890,-97.12
04.906,-111.81
04.921,-125.56
04.937,-132.2
04.953,-126.18
04.968,-104.86
04.984,-70.04
05.000,-27.18
05.015,16.96
05.031,57.04
05.046,90.92
05.062,119.57
05.078,145.42
05.093,170.52
05.109,195.55
05.125,220.07
05.140,243.52
05.156,265.92
05.171,287.78
05.187,309.38
05.203,329.92
05.218,347.3
05.234,358.66
05.250,361.22
05.265,353.39
05.281,335.15
05.296,307.91
05.312,273.97
05.328,235.82
05.343,195.6
05.359,154.71
05.375,113.6
05.390,72.18
05.406,30.43
05.421,-10.98
05.437,-50.71
05.453,-87.19
05.468,-119.27
05.484,-146.59
05.500,-169.62
05.515,-189.11
05.531,-205.47
05.546,-218.4
05.562,-226.98
05.578,-230.3
05.593,-228.04
05.609,-220.91
05.625,-210.41
05.640,-198.22
05.656,-185.42
05.671,-172.11
05.687,-157.46
05.703,-140.43
05.718,-120.65
05.734,-99.0
05.750,-77.51
05.765,-58.49
05.781,-43.43
05.796,-32.17
05.812,-23.03
05.828,-13.82
05.843,-3.09
05.859,9.06
05.875,21.1
05.890,31.01
05.906,37.32
05.921,39.61
05.937,38.62
05.953,35.59
05.968,31.72
05.984,27.88
06.000,24.52
06.015,22.06
06.031,20.8
06.046,21.1
06.062,23.11
06.078,26.77
06.093,31.77
06.109,37.66
06.125,44.03
06.140,50.48
06.156,56.71
06.171,62.57
06.187,67.98
06.203,72.72
06.218,76.37
06.234,78.06
06.250,76.63
06.265,71.21
06.281,61.7
06.296,49.16
06.312,35.5
06.328,22.53
06.343,10.61
06.359,-1.91
06.375,-18.22
06.390,-41.39
06.406,-72.5
06.421,-109.66
06.437,-148.28
06.453,-182.89
06.468,-208.94
06.484,-224.19
06.500,-228.94
06.515,-225.09
06.531,-214.88
06.546,-200.07
06.562,-181.95
06.578,-161.67
06.593,-140.77
06.609,-121.01
06.625,-103.76
06.640,-89.59
06.656,-78.36
06.671,-69.46
06.687,-62.23
06.703,-56.37
06.718,-51.7
06.734,-48.08
06.750,-45.24
06.765,-42.68
06.781,-39.79
06.796,-36.0
06.812,-30.86
06.828,-23.83
06.843,-14.65
06.859,-3.33
06.875,9.52
06.890,22.77
06.906,35.44
06.921,47.19
06.937,58.57
06.953,70.63
06.968,84.26
06.984,99.32
07.000,114.56
07.015,128.29
07.031,138.95
07.046,145.99
07.062,149.57
07.078,149.9
07.093,146.59
07.109,138.42
07.125,123.97
07.140,102.65
07.156,75.69
07.171,45.98
07.187,17.4
07.203,-6.85
07.218,-25.26
07.234,-38.32
07.250,-47.77
07.265,-55.21
07.281,-61.04
07.296,-64.18
07.312,-63.02
07.328,-56.5
07.343,-45.18
07.359,-31.15
07.375,-17.03
07.390,-4.96
07.406,4.45
07.421,12.12
07.437,19.68
07.453,27.89
07.468,35.95
07.484,41.48
07.500,41.54
07.515,34.11
07.531,18.76
07.546,-3.2
07.562,-29.35
07.578,-56.82
07.593,-83.38
07.609,-107.38
07.625,-127.6
07.640,-142.85
07.656,-151.76
07.671,-153.48
07.687,-148.33
07.703,-138.27
07.718,-126.27
07.734,-115.58
07.750,-108.4
07.765,-105.09
07.781,-104.37
07.796,-103.78
07.812,-100.67
07.828,-92.85
07.843,-79.43
07.859,-60.65
07.875,-37.78
07.890,-12.97
07.906,11.33
07.921,32.64
07.937,49.13
07.953,59.66
07.968,63.69
07.984,60.57
08.000,49.56
08.015,30.54
08.031,5.06
08.046,-23.32
08.062,-50.16
08.078,-71.5
08.093,-85.52
08.109,-92.4
08.125,-93.26
08.140,-88.49
08.156,-76.73
08.171,-55.74
08.187,-24.26
08.203,15.78
08.218,58.87
08.234,97.26
08.250,123.79
08.265,134.84
08.281,131.56
08.296,118.98
08.312,103.58
08.328,90.69
08.343,82.45
08.359,77.68
08.375,72.96
08.390,64.47
08.406,50.04
08.421,30.72
08.437,11.01
08.453,-2.49
08.468,-3.18
08.484,12.85
08.500,45.06
08.515,88.42
08.531,134.82
08.546,175.79
08.562,204.94
08.578,219.55
08.593,220.49
08.609,211.46
08.625,197.1
08.640,181.44
08.656,166.82
08.671,153.75
08.687,141.59
08.703,129.55
08.718,117.64
08.734,106.78
08.750,98.46
08.765,93.64
08.781,92.3
08.796,93.42
08.812,95.64
08.828,98.04
08.843,100.27
08.859,102.11
08.875,102.72
08.890,100.29
08.906,92.5
08.921,77.71
08.937,56.09
08.953,29.89
08.968,2.97
08.984,-20.51
09.000,-37.36
09.015,-46.34
09.031,-48.3
09.046,-45.69
09.062,-41.58
09.078,-38.45
09.093,-37.65
09.109,-39.0
09.125,-41.26
09.140,-42.76
09.156,-42.32
09.171,-39.63
09.187,-35.31
09.203,-30.59
09.218,-26.71
09.234,-24.53
09.250,-24.15
09.265,-25.03
09.281,-26.09
09.296,-26.21
09.312,-24.53
09.328,-20.74
09.343,-15.25
09.359,-8.98
09.375,-3.16
09.390,1.06
09.406,2.9
09.421,2.08
09.437,-1.43
09.453,-7.57
09.468,-16.32
09.484,-27.65
09.500,-41.32
09.515,-56.64
09.531,-72.08
09.546,-85.56
09.562,-94.78
09.578,-97.99
09.593,-94.7
09.609,-85.78
09.625,-73.04
09.640,-58.57
09.656,-43.85
09.671,-29.29
09.687,-14.37
09.703,2.03
09.718,21.04
09.734,42.99
09.750,66.83
09.765,89.78
09.781,107.8
09.796,116.87
09.812,114.53
09.828,101.14
09.843,79.97
09.859,55.98
09.875,33.75
09.890,15.73
09.906,1.82
09.921,-9.55
09.937,-19.68
09.953,-28.57
09.968,-35.11
09.984,-38.19
10.000,-37.93
10.015,-36.11
10.031,-35.36
10.046,-37.63
10.062,-43.1
10.078,-49.97
10.093,-55.5
10.109,-57.54
10.125,-55.47
10.140,-50.55
10.156,-45.03
10.171,-41.05
10.187,-39.6
10.203,-40.3
10.218,-41.8
10.234,-42.65
10.250,-42.04
10.265,-40.23
10.281,-38.42
10.296,-38.07
10.312,-40.18
10.328,-44.87
10.343,-51.49
10.359,-58.91
10.375,-66.07
10.390,-72.28
10.406,-77.23
10.421,-80.96
10.437,-83.37
10.453,-84.16
10.468,-82.86
10.484,-79.11
10.500,-73.01
10.515,-65.41
10.531,-57.57
10.546,-50.79
10.562,-45.73
10.578,-42.22
10.593,-39.27
10.609,-35.53
10.625,-29.8
10.640,-21.56
10.656,-10.96
10.671,1.36
10.687,14.82
10.703,29.29
10.718,44.76
10.734,61.0
10.750,77.18
10.765,91.6
10.781,102.18
10.796,106.98
10.812,104.79
10.828,95.73
10.843,81.08
10.859,63.04
10.875,43.91
10.890,25.42
10.906,8.6
10.921,-6.07
10.937,-18.1
10.953,-26.62
10.968,-30.44
10.984,-28.55
11.000,-20.62
11.015,-7.73
11.031,7.9
11.046,23.44
11.062,36.53
11.078,45.88
11.093,51.3
11.109,53.01
11.125,51.11
11.140,45.27
11.156,35.02
11.171,20.49
11.187,2.61
11.203,-16.61
11.218,-34.87
11.234,-50.2
11.250,-61.63
11.265,-69.31
11.281,-74.1
11.296,-76.76
11.312,-77.37
11.328,-75.21
11.343,-69.35
11.359,-59.29
11.375,-45.4
11.390,-29.2
11.406,-12.71
11.421,2.11
11.437,14.04
11.453,22.88
11.468,29.31
11.484,34.19
11.500,38.14
11.515,41.23
11.531,42.82
11.546,42.24
11.562,39.12
11.578,33.74
11.593,27.02
11.609,20.14
11.625,14.01
11.640,8.86
11.656,4.33
11.671,-0.33
11.687,-5.45
11.703,-10.67
11.718,-14.94
11.734,-16.97
11.750,-15.98
11.765,-12.24
11.781,-7.09
11.796,-2.24
11.812,0.86
11.828,1.96
11.843,1.74
11.859,1.33
11.875,1.65
11.890,2.73
11.906,3.75
11.921,3.55
11.937,1.46
11.953,-2.4
11.968,-7.04
11.984,-11.26
12.000,-14.26
12.015,-15.95
12.031,-17.07
12.046,-18.63
12.062,-21.26
12.078,-24.84
12.093,-28.62
12.109,-31.53
12.125,-32.74
12.140,-32.21
12.156,-30.58
12.171,-28.83
12.187,-27.69
12.203,-27.12
12.218,-26.49
12.234,-24.95
12.250,-21.85
12.265,-17.26
12.281,-12.05
12.296,-7.31
12.312,-3.9
12.328,-1.95
12.343,-0.8
12.359,0.48
12.375,2.65
12.390,5.87
12.406,9.58
12.421,12.93
12.437,15.29
12.453,16.71
12.468,17.8
12.484,19.38
12.500,21.91
12.515,25.08
12.531,27.94
12.546,29.23
12.562,28.27
12.578,25.36
12.593,21.73
12.609,19.03
12.625,18.48
12.640,20.3
12.656,23.56
12.671,26.8
12.687,28.72
12.703,29.03
12.718,28.36
12.734,27.76
12.750,28.09
12.765,29.33
12.781,30.65
12.796,30.88
12.812,29.38
12.828,26.39
12.843,23.05
12.859,20.61
12.875,19.81
12.890,20.37
12.906,20.97
12.921,20.13
12.937,16.85
12.953,11.33
12.968,4.71
12.984,-1.52
13.000,-6.24
13.015,-9.3
13.031,-11.39
13.046,-13.57
13.062,-16.55
13.078,-20.28
13.093,-23.94
13.109,-26.48
13.125,-27.11
13.140,-25.74
13.156,-23.02
13.171,-19.83
13.187,-16.93
13.203,-14.37
13.218,-11.63
13.234,-8.06
13.250,-3.25
13.265,2.46
13.281,8.09
13.296,12.41
13.312,14.6
13.328,14.67
13.343,13.49
13.359,12.31
13.375,12.05
13.390,12.99
13.406,14.58
13.421,15.88
13.437,16.12
13.453,15.23
13.468,13.78
13.484,12.71
13.500,12.74
13.515,13.89
13.531,15.47
13.546,16.38
13.562,15.75
13.578,13.34
13.593,9.82
13.609,6.2
13.625,3.46
13.640,1.91
13.656,1.06
13.671,0.01
13.687,-2.14
13.703,-5.63
13.718,-9.92
13.734,-14.01
13.750,-17.0
13.765,-18.49
13.781,-18.89
13.796,-19.02
13.812,-19.58
13.828,-20.68
13.843,-21.75
13.859,-21.87
13.875,-20.3
13.890,-16.99
13.906,-12.64
13.921,-8.41
13.937,-5.28
13.953,-3.55
13.968,-2.73
13.984,-1.94
14.000,-0.31
14.015,2.34
14.031,5.52
14.046,8.31
14.062,9.95
14.078,10.29
14.093,9.94
14.109,9.89
14.125,10.99
14.140,13.48
14.156,16.69
14.171,19.42
14.187,20.62
14.203,19.76
14.218,17.3
14.234,14.25
14.250,11.55
14.265,9.72
14.281,8.49
14.296,7.11
14.312,4.95
14.328,1.98
14.343,-1.2
14.359,-3.65
14.375,-4.65
14.390,-4.2
14.406,-3.08
14.421,-2.44
14.437,-3.29
14.453,-5.85
14.468,-9.43
14.484,-12.93
14.500,-15.24
14.515,-15.89
14.531,-15.25
14.546,-14.22
14.562,-13.68
14.578,-13.98
14.593,-14.69
14.609,-14.92
14.625,-13.93
14.640,-11.56
14.656,-8.42
14.671,-5.63
14.687,-4.14
14.703,-4.22
14.718,-5.24
14.734,-6.01
14.750,-5.37
14.765,-2.8
14.781,1.31
14.796,5.95
14.812,9.88
14.828,12.34
14.843,13.27
14.859,13.14
14.875,12.54
14.890,11.91
14.906,11.06
14.921,9.61
14.937,7.2
14.953,3.87
14.968,0.19
14.984,-2.98
15.000,-5.01
15.015,-5.78
15.031,-5.64
15.046,-5.4
15.062,-5.63
15.078,-6.49
15.093,-7.57
15.109,-8.25
15.125,-7.97
15.140,-6.69
15.156,-4.97
15.171,-3.56
15.187,-3.12
15.203,-3.84
15.218,-5.25
15.234,-6.52
15.250,-6.8
15.265,-5.61
15.281,-3.01
15.296,0.52
15.312,4.27
15.328,7.71
15.343,10.58
15.359,12.94
15.375,14.91
15.390,16.57
15.406,17.7
15.421,17.88
15.437,16.71
15.453,14.28
15.468,11.13
15.484,8.35
15.500,7.09
15.515,7.9
15.531,10.61
15.546,14.21
15.562,17.38
15.578,19.12
15.593,19.18
15.609,17.93
15.625,16.0
15.640,13.89
15.656,11.56
15.671,8.7
15.687,5.09
15.703,0.88
15.718,-3.21
15.734,-6.19
15.750,-7.35
15.765,-6.56
15.781,-4.4
15.796,-1.99
15.812,-0.46
15.828,-0.45
15.843,-2.02
15.859,-4.55
15.875,-7.3
15.890,-9.62
15.906,-11.31
15.921,-12.52
15.937,-13.59
15.953,-14.59
15.968,-15.22
15.984,-14.99
16.000,-13.34
16.015,-10.24
16.031,-6.24
16.046,-2.28
16.062,0.72
16.078,2.23
16.093,2.47
16.109,2.17
16.125,2.09
16.140,2.73
16.156,3.89
16.171,4.96
16.187,5.27
16.203,4.5
16.218,2.96
16.234,1.41
16.250,0.62
16.265,0.91
16.281,1.97
16.296,2.88
16.312,2.62
16.328,0.7
16.343,-2.62
16.359,-6.33
16.375,-9.08
16.390,-9.89
16.406,-8.6
16.421,-5.88
16.437,-2.9
16.453,-0.73
16.468,0.17
16.484,-0.04
16.500,-0.86
16.515,-1.82
16.531,-2.78
16.546,-3.95
16.562,-5.48
16.578,-7.21
16.593,-8.55
16.609,-8.63
16.625,-6.85
16.640,-3.11
16.656,2.0
16.671,7.39
16.687,11.91
16.703,14.77
16.718,15.85
16.734,15.59
16.750,14.77
16.765,14.12
16.781,13.94
16.796,14.04
16.812,13.9
16.828,13.12
16.843,11.57
16.859,9.62
16.875,7.89
16.890,6.88
16.906,6.81
16.921,7.39
16.937,8.12
16.953,8.57
16.968,8.59
16.984,8.29
17.000,7.96
17.015,7.73
17.031,7.52
17.046,7.01
17.062,5.85
17.078,3.89
17.093,1.28
17.109,-1.6
17.125,-4.35
17.140,-6.68
17.156,-8.63
17.171,-10.48
17.187,-12.53
17.203,-15.0
17.218,-17.63
17.234,-19.9
17.250,-21.18
17.265,-20.97
17.281,-19.21
17.296,-16.24
17.312,-12.73
17.328,-9.32
17.343,-6.34
17.359,-3.7
17.375,-1.16
17.390,1.42
17.406,4.02
17.421,6.43
17.437,8.31
17.453,9.5
17.468,10.04
17.484,10.13
17.500,10.03
17.515,9.9
17.531,9.73
17.546,9.4
17.562,8.75
17.578,7.62
17.593,6.03
17.609,4.1
17.625,2.0
17.640,-0.01
17.656,-1.81
17.671,-3.43
17.687,-5.1
17.703,-7.11
17.718,-9.65
17.734,-12.61
17.750,-15.72
17.765,-18.61
17.781,-21.08
17.796,-23.23
17.812,-25.37
17.828,-27.92
17.843,-31.01
17.859,-34.31
17.875,-37.12
17.890,-38.7
17.906,-38.53
17.921,-36.65
17.937,-33.56
17.953,-30.02
17.968,-26.67
17.984,-23.76
18.000,-21.08
18.015,-18.13
18.031,-14.58
18.046,-10.35
18.062,-5.79
18.078,-1.39
18.093,2.57
18.109,6.01
18.125,9.12
18.140,12.06
18.156,14.85
18.171,17.21
18.187,18.78
18.203,19.29
18.218,18.88
18.234,18.11
18.250,17.6
18.265,17.83
18.281,18.71
18.296,19.73
18.312,20.17
18.328,19.5
18.343,17.68
18.359,15.24
18.375,12.91
18.390,11.27
18.406,10.44
18.421,10.01
18.437,9.39
18.453,8.14
18.468,6.31
18.484,4.52
18.500,3.46
18.515,3.79
18.531,5.67
18.546,8.81
18.562,12.56
18.578,16.24
18.593,19.42
18.609,22.02
18.625,24.23
18.640,26.22
18.656,28.12
18.671,29.69
18.687,30.67
18.703,30.75
18.718,29.92
18.734,28.52
18.750,27.14
18.765,26.39
18.781,26.52
18.796,27.37
18.812,28.38
18.828,28.94
18.843,28.61
18.859,27.4
18.875,25.58
18.890,23.51
18.906,21.48
18.921,19.46
18.937,17.31
18.953,14.84
18.968,11.97
18.984,8.78
19.000,5.45
19.015,2.18
19.031,-0.93
19.046,-3.92
19.062,-7.03
19.078,-10.58
19.093,-14.78
19.109,-19.52
19.125,-24.28
19.140,-28.33
19.156,-30.97
19.171,-31.96
19.187,-31.62
19.203,-30.67
19.218,-29.9
19.234,-29.52
19.250,-29.14
19.265,-27.85
19.281,-24.87
19.296,-20.02
19.312,-13.89
19.328,-7.59
19.343,-2.42
19.359,0.7
19.375,1.53
19.390,0.43
19.406,-1.77
19.421,-4.19
19.437,-6.21
19.453,-7.48
19.468,-7.96
19.484,-7.71
19.500,-6.82
19.515,-5.3
19.531,-3.21
19.546,-0.66
19.562,2.1
19.578,4.8
19.593,7.36
19.609,9.94
19.625,12.66
19.640,15.2
19.656,16.58
19.671,15.25
19.687,9.91
19.703,0.22
19.718,-12.73
19.734,-26.63
19.750,-38.81
19.765,-47.21
19.781,-51.0
19.796,-50.62
19.812,-47.24
19.828,-41.93
19.843,-35.32
19.859,-27.53
19.875,-18.4
19.890,-7.95
19.906,3.55
19.921,15.66
19.937,27.75
19.953,39.11
19.968,48.96
19.984,56.44
20.000,60.74
20.015,61.31
20.031,58.05
20.046,51.44
20.062,42.51
20.078,32.47
20.093,22.51
20.109,13.55
20.125,6.16
20.140,0.62
20.156,-3.06
20.171,-5.15
20.187,-6.25
20.203,-7.17
20.218,-8.73
20.234,-11.31
20.250,-14.77
20.265,-18.45
20.281,-21.5
20.296,-23.31
20.312,-23.76
20.328,-23.15
20.343,-21.97
20.359,-20.59
20.375,-19.12
20.390,-17.63
20.406,-16.34
20.421,-15.71
20.437,-16.19
20.453,-17.87
20.468,-20.09
20.484,-21.67
20.500,-21.32
20.515,-18.4
20.531,-13.16
20.546,-6.66
20.562,-0.04
20.578,6.02
20.593,11.69
20.609,17.7
20.625,24.7
20.640,32.6
20.656,40.32
20.671,46.02
20.687,47.84
20.703,44.8
20.718,37.18
20.734,26.58
20.750,15.26
20.765,5.32
20.781,-2.05
20.796,-6.83
20.812,-9.78
20.828,-11.89
20.843,-13.76
20.859,-15.31
20.875,-16.05
20.890,-15.44
20.906,-13.46
20.921,-10.7
20.937,-8.15
20.953,-6.66
20.968,-6.48
20.984,-7.17
21.000,-7.8
21.015,-7.52
21.031,-5.84
21.046,-2.99
21.062,0.35
21.078,3.41
21.093,5.64
21.109,6.87
21.125,7.19
21.140,6.75
21.156,5.73
21.171,4.31
21.187,2.75
21.203,1.5
21.218,1.04
21.234,1.79
21.250,3.89
21.265,7.34
21.281,11.87
21.296,17.15
21.312,22.75
21.328,28.16
21.343,32.94
21.359,36.81
21.375,39.73
21.390,41.89
21.406,43.62
21.421,45.06
21.437,46.02
21.453,46.03
21.468,44.69
21.484,41.82
21.500,37.66
21.515,32.63
21.531,27.18
21.546,21.58
21.562,15.88
21.578,10.08
21.593,4.23
21.609,-1.36
21.625,-6.24
21.640,-10.05
21.656,-12.69
21.671,-14.43
21.687,-15.77
21.703,-17.3
21.718,-19.39
21.734,-22.13
21.750,-25.29
21.765,-28.45
21.781,-31.14
21.796,-33.05
21.812,-34.1
21.828,-34.3
21.843,-33.71
21.859,-32.21
21.875,-29.63
21.890,-25.82
21.906,-20.91
21.921,-15.27
21.937,-9.48
21.953,-4.17
21.968,0.24
21.984,3.69
22.000,6.39
22.015,8.61
22.031,10.68
22.046,12.64
22.062,14.44
22.078,15.91
22.093,16.9
22.109,17.37
22.125,17.39
22.140,17.1
22.156,16.56
22.171,15.78
22.187,14.6
22.203,12.83
22.218,10.39
22.234,7.38
22.250,4.17
22.265,1.24
22.281,-1.02
22.296,-2.54
22.312,-3.55
22.328,-4.51
22.343,-5.83
22.359,-7.6
22.375,-9.7
22.390,-11.84
22.406,-13.83
22.421,-15.64
22.437,-17.47
22.453,-19.46
22.468,-21.51
22.484,-23.18
22.500,-23.78
22.515,-22.87
22.531,-20.33
22.546,-16.61
22.562,-12.49
22.578,-8.77
22.593,-5.97
22.609,-4.16
22.625,-3.09
22.640,-2.41
22.656,-2.0
22.671,-1.96
22.687,-2.58
22.703,-4.09
22.718,-6.36
22.734,-8.99
22.750,-11.39
22.765,-13.05
22.781,-13.67
22.796,-13.3
22.812,-12.22
22.828,-10.84
22.843,-9.49
22.859,-8.26
22.875,-6.96
22.890,-5.34
22.906,-3.26
22.921,-0.81
22.937,1.62
22.953,3.61
22.968,4.81
22.984,5.2
23.000,5.0
23.015,4.59
23.031,4.24
23.046,3.98
23.062,3.58
23.078,2.74
23.093,1.28
23.109,-0.74
23.125,-3.0
23.140,-5.07
23.156,-6.61
23.171,-7.42
23.187,-7.55
23.203,-7.12
23.218,-6.31
23.234,-5.12
23.250,-3.52
23.265,-1.45
23.281,1.11
23.296,3.96
23.312,6.71
23.328,8.91
23.343,10.23
23.359,10.5
23.375,9.96
23.390,9.07
23.406,8.34
23.421,8.15
23.437,8.52
23.453,9.21
23.468,9.82
23.484,10.14
23.500,10.12
23.515,9.98
23.531,10.05
23.546,10.54
23.562,11.52
23.578,12.87
23.593,14.47
23.609,16.24
23.625,18.18
23.640,20.27
23.656,22.27
23.671,23.71
23.687,23.91
23.703,22.39
23.718,19.03
23.734,14.21
23.750,8.66
23.765,3.13
23.781,-1.94
23.796,-6.51
23.812,-11.02
23.828,-15.85
23.843,-21.09
23.859,-26.31
23.875,-30.79
23.890,-33.72
23.906,-34.6
23.921,-33.41
23.937,-30.64
23.953,-27.1
23.968,-23.56
23.984,-20.38
24.000,-17.53
24.015,-14.67
24.031,-11.5
24.046,-8.03
24.062,-4.7
24.078,-2.11
24.093,-0.65
24.109,-0.21
24.125,-0.11
24.140,0.55
24.156,2.52
24.171,5.89
24.187,10.19
24.203,14.63
24.218,18.49
24.234,21.48
24.250,23.71
24.265,25.43
24.281,26.83
24.296,27.93
24.312,28.55
24.328,28.51
24.343,27.74
24.359,26.43
24.375,24.93
24.390,23.56
24.406,22.51
24.421,21.66
24.437,20.69
24.453,19.15
24.468,16.68
24.484,13.25
24.500,9.24
24.515,5.22
24.531,1.68
24.546,-1.22
24.562,-3.71
24.578,-6.18
24.593,-8.86
24.609,-11.56
24.625,-13.66
24.640,-14.37
24.656,-13.13
24.671,-9.92
24.687,-5.34
24.703,-0.46
24.718,3.77
24.734,6.79
24.750,8.6
24.765,9.65
24.781,10.51
24.796,11.51
24.812,12.61
24.828,13.59
24.843,14.24
24.859,14.72
24.875,15.53
24.890,17.08
24.906,19.48
24.921,22.26
24.937,24.5
24.953,25.35
24.968,24.44
24.984,22.08
25.000,19.05
25.015,16.16
25.031,13.79
25.046,11.85
25.062,9.87
25.078,7.44
25.093,4.52
25.109,1.49
25.125,-1.18
25.140,-3.15
25.156,-4.47
25.171,-5.55
25.187,-6.9
25.203,-9.02
25.218,-12.1
25.234,-15.93
25.250,-19.91
25.265,-23.4
25.281,-25.71
25.296,-26.47
25.312,-25.71
25.328,-23.77
25.343,-21.28
25.359,-18.77
25.375,-16.4
25.390,-14.02
25.406,-11.26
25.421,-7.8
25.437,-3.62
25.453,0.96
25.468,5.41
25.484,9.28
25.500,12.42
25.515,15.07
25.531,17.69
25.546,20.82
25.562,24.71
25.578,29.29
25.593,34.28
25.609,39.3
25.625,44.13
25.640,48.69
25.656,53.11
25.671,57.65
25.687,62.64
25.703,68.44
25.718,75.29
25.734,83.24
25.750,91.91
25.765,100.32
25.781,106.78
25.796,109.23
25.812,105.64
25.828,94.77
25.843,76.76
25.859,53.4
25.875,27.84
25.890,3.75
25.906,-15.51
25.921,-27.9
25.937,-32.93
25.953,-31.7
25.968,-26.11
25.984,-18.34
26.000,-10.16
26.015,-2.78
26.031,2.86
26.046,6.02
26.062,5.82
26.078,1.4
26.093,-7.6
26.109,-20.67
26.125,-36.1
26.140,-51.38
26.156,-63.85
26.171,-71.6
26.187,-74.06
26.203,-72.1
26.218,-67.49
26.234,-62.01
26.250,-56.77
26.265,-51.88
26.281,-46.79
26.296,-40.75
26.312,-33.37
26.328,-24.78
26.343,-15.42
26.359,-5.55
26.375,4.94
26.390,16.58
26.406,29.69
26.421,43.97
26.437,58.22
26.453,70.51
26.468,78.84
26.484,81.93
26.500,79.86
26.515,74.08
26.531,66.89
26.546,60.53
26.562,56.29
26.578,54.2
26.593,53.3
26.609,52.31
26.625,50.34
26.640,47.23
26.656,43.33
26.671,38.92
26.687,33.72
26.703,26.68
26.718,16.68
26.734,3.27
26.750,-12.58
26.765,-28.58
26.781,-41.86
26.796,-49.98
26.812,-51.71
26.828,-47.37
26.843,-38.57
26.859,-27.56
26.875,-16.66
26.890,-7.44
26.906,-0.75
26.921,3.02
26.937,3.48
26.953,0.14
26.968,-7.28
26.984,-18.25
27.000,-30.85
27.015,-42.2
27.031,-49.3
27.046,-50.33
27.062,-45.67
27.078,-37.74
27.093,-29.79
27.109,-24.4
27.125,-22.56
27.140,-23.54
27.156,-25.9
27.171,-28.22
27.187,-29.49
27.203,-29.12
27.218,-26.51
27.234,-21.17
27.250,-13.13
27.265,-3.26
27.281,6.89
27.296,15.54
27.312,21.58
27.328,25.01
27.343,26.86
27.359,28.65
27.375,31.47
27.390,35.65
27.406,40.74
27.421,45.93
27.437,50.37
27.453,53.29
27.468,53.88
27.484,51.3
27.500,44.92
27.515,34.34
27.531,19.59
27.546,1.1
27.562,-20.52
27.578,-44.42
27.593,-69.51
27.609,-94.23
27.625,-116.53
27.640,-134.04
27.656,-144.86
27.671,-148.18
27.687,-144.62
27.703,-136.25
27.718,-125.57
27.734,-114.64
27.750,-104.24
27.765,-93.97
27.781,-82.69
27.796,-69.49
27.812,-54.33
27.828,-38.12
27.843,-22.34
27.859,-8.16
27.875,4.13
27.890,15.31
27.906,26.63
27.921,39.01
27.937,52.47
27.953,66.02
27.968,78.12
27.984,87.32
28.000,92.98
28.015,95.25
28.031,94.63
28.046,91.43
28.062,85.38
28.078,76.0
28.093,63.43
28.109,49.06
28.125,35.12
28.140,23.89
28.156,16.38
28.171,11.59
28.187,7.21
28.203,0.73
28.218,-8.85
28.234,-20.42
28.250,-31.22
28.265,-38.44
28.281,-40.72
28.296,-38.73
28.312,-34.78
28.328,-31.41
28.343,-30.29
28.359,-31.68
28.375,-34.84
28.390,-38.66
28.406,-42.45
28.421,-46.04
28.437,-49.5
28.453,-52.72
28.468,-55.13
28.484,-55.97
28.500,-54.6
28.515,-51.12
28.531,-46.23
28.546,-41.03
28.562,-36.4
28.578,-32.6
28.593,-29.25
28.609,-25.58
28.625,-21.01
28.640,-15.42
28.656,-9.34
28.671,-3.72
28.687,0.44
28.703,2.36
28.718,1.65
28.734,-1.6
28.750,-6.81
28.765,-13.06
28.781,-19.1
28.796,-23.76
28.812,-26.16
28.828,-26.1
28.843,-24.0
28.859,-20.83
28.875,-17.63
28.890,-15.09
28.906,-13.4
28.921,-12.18
28.937,-10.87
28.953,-8.85
28.968,-5.75
28.984,-1.23
29.000,4.99
29.015,13.13
29.031,23.13
29.046,34.32
29.062,45.29
29.078,53.98
29.093,58.33
29.109,56.87
29.125,49.19
29.140,36.07
29.156,18.97
29.171,-0.44
29.187,-20.77
29.203,-41.02
29.218,-60.36
29.234,-78.0
29.250,-92.98
29.265,-104.57
29.281,-112.46
29.296,-117.02
29.312,-119.04
29.328,-119.34
29.343,-118.34
29.359,-116.0
29.375,-112.11
29.390,-106.77
29.406,-100.99
29.421,-96.69
29.437,-96.17
29.453,-101.11
29.468,-111.66
29.484,-126.1
29.500,-141.07
29.515,-152.6
29.531,-157.25
29.546,-153.18
29.562,-140.33
29.578,-120.18
29.593,-94.92
29.609,-66.78
29.625,-37.59
29.640,-8.71
29.656,18.77
29.671,43.7
29.687,65.02
29.703,81.84
29.718,93.84
29.734,101.45
29.750,105.71
29.765,108.05
29.781,109.63
29.796,111.0
29.812,111.74
29.828,110.83
29.843,107.18
29.859,100.23
29.875,90.3
29.890,78.54
29.906,66.44
29.921,55.32
29.937,45.98
29.953,38.68
29.968,33.35
29.984,29.82
30.000,27.85
30.015,27.24
30.031,27.69
30.046,28.88
30.062,30.61
30.078,32.76
30.093,35.29
30.109,38.11
30.125,40.97
30.140,43.56
30.156,45.73
30.171,47.59
30.187,49.58
30.203,52.1
30.218,55.31
30.234,58.89
30.250,62.23
30.265,64.64
30.281,65.6
30.296,64.92
30.312,62.66
30.328,59.0
30.343,54.18
30.359,48.46
30.375,42.18
30.390,35.72
30.406,29.44
30.421,23.38
30.437,17.39
30.453,10.98
30.468,3.71
30.484,-4.52
30.500,-13.27
30.515,-21.58
30.531,-28.36
30.546,-32.79
30.562,-34.79
30.578,-35.03
30.593,-34.7
30.609,-34.91
30.625,-36.21
30.640,-38.33
30.656,-40.27
30.671,-40.81
30.687,-38.96
30.703,-34.38
30.718,-27.26
30.734,-18.15
30.750,-7.49
30.765,4.45
30.781,17.49
30.796,31.3
30.812,45.12
30.828,57.73
30.843,67.71
30.859,73.95
30.875,76.22
30.890,75.35
30.906,72.94
30.921,70.72
30.937,69.78
30.953,70.03
30.968,70.21
30.984,68.62
31.000,63.89
31.015,55.85
31.031,45.58
31.046,34.99
31.062,25.94
31.078,19.49
31.093,15.59
31.109,13.42
31.125,12.03
31.140,10.68
31.156,8.98
31.171,6.62
31.187,3.28
31.203,-1.41
31.218,-7.55
31.234,-14.82
31.250,-22.63
31.265,-30.35
31.281,-37.95
31.296,-46.03
31.312,-55.69
31.328,-67.88
31.343,-82.68
31.359,-99.03
31.375,-115.07
31.390,-128.68
31.406,-138.17
31.421,-142.59
31.437,-141.79
31.453,-136.01
31.468,-125.56
31.484,-110.49
31.500,-90.65
31.515,-66.38
31.531,-38.88
31.546,-10.62
31.562,14.93
31.578,34.13
31.593,44.43
31.609,45.31
31.625,38.59
31.640,27.75
31.656,16.35
31.671,6.61
31.687,-1.72
31.703,-10.78
31.718,-23.23
31.734,-40.35
31.750,-60.9
31.765,-81.19
31.781,-96.22
31.796,-101.74
31.812,-95.8
31.828,-79.19
31.843,-53.99
31.859,-22.29
31.875,14.07
31.890,52.37
31.906,86.74
31.921,108.11
31.937,106.64
31.953,76.18
31.968,18.08
31.984,-58.37
32.000,-139.65
32.015,-213.5
32.031,-273.07
32.046,-317.23
32.062,-347.26
32.078,-362.78
32.093,-360.25
32.109,-334.94
32.125,-284.88
32.140,-213.94
32.156,-131.61
32.171,-49.2
32.187,24.32
32.203,85.03
32.218,133.51
32.234,172.11
32.250,202.13
32.265,222.42
32.281,230.59
32.296,225.39
32.312,208.98
32.328,186.96
32.343,166.7
32.359,153.92
32.375,150.08
32.390,151.9
32.406,153.14
32.421,147.89
32.437,133.81
32.453,113.04
32.468,90.71
32.484,71.79
32.500,58.25
32.515,48.5
32.531,38.82
32.546,26.07
32.562,9.82
32.578,-7.11
32.593,-20.13
32.609,-25.27
32.625,-21.13
32.640,-9.35
32.656,6.57
32.671,23.01
32.687,37.66
32.703,49.9
32.718,60.24
32.734,69.54
32.750,78.19
32.765,85.8
32.781,91.27
32.796,93.25
32.812,90.77
32.828,83.8
32.843,73.3
32.859,60.62
32.875,46.69
32.890,31.17
32.906,12.53
32.921,-11.08
32.937,-40.66
32.953,-75.19
32.968,-111.38
32.984,-144.39
33.000,-169.62
33.015,-183.93
33.031,-186.22
33.046,-176.95
33.062,-157.27
33.078,-128.72
33.093,-93.37
33.109,-54.35
33.125,-16.24
33.140,15.08
33.156,33.63
33.171,35.34
33.187,19.93
33.203,-8.28
33.218,-41.47
33.234,-71.07
33.250,-90.75
33.265,-98.06
33.281,-94.34
33.296,-82.71
33.312,-65.77
33.328,-44.49
33.343,-18.58
33.359,12.14
33.375,46.2
33.390,80.41
33.406,110.9
33.421,134.86
33.437,151.7
33.453,162.91
33.468,170.96
33.484,177.63
33.500,183.64
33.515,188.45
33.531,191.11
33.546,190.63
33.562,186.34
33.578,177.66
33.593,164.2
33.609,146.09
33.625,124.32
33.640,100.96
33.656,78.6
33.671,59.27
33.687,43.52
33.703,30.13
33.718,17.05
33.734,2.76
33.750,-12.73
33.765,-27.84
33.781,-40.39
33.796,-48.63
33.812,-52.08
33.828,-51.4
33.843,-47.88
33.859,-42.49
33.875,-36.01
33.890,-29.14
33.906,-23.16
33.921,-19.77
33.937,-20.18
33.953,-24.05
33.968,-28.64
33.984,-30.1
34.000,-25.09
34.015,-12.86
34.031,4.29
34.046,21.86
34.062,35.67
34.078,43.67
34.093,46.59
34.109,47.2
34.125,48.2
34.140,51.05
34.156,55.7
34.171,61.47
34.187,67.92
34.203,75.04
34.218,83.06
34.234,91.61
34.250,99.86
34.265,106.46
34.281,110.04
34.296,109.53
34.312,104.44
34.328,94.89
34.343,81.55
34.359,65.6
34.375,48.34
34.390,31.24
34.406,15.54
34.421,2.2
34.437,-8.33
34.453,-16.47
34.468,-23.23
34.484,-30.0
34.500,-37.7
34.515,-46.26
34.531,-54.44
34.546,-60.48
34.562,-63.07
34.578,-62.51
34.593,-60.58
34.609,-59.59
34.625,-60.99
34.640,-64.29
34.656,-67.36
34.671,-67.79
34.687,-64.37
34.703,-58.24
34.718,-52.11
34.734,-48.63
34.750,-48.44
34.765,-49.44
34.781,-48.02
34.796,-41.15
34.812,-28.26
34.828,-11.81
34.843,3.78
34.859,14.08
34.875,16.55
34.890,11.53
34.906,1.68
34.921,-9.3
34.937,-17.79
34.953,-21.02
34.968,-16.71
34.984,-3.07
35.000,20.67
35.015,53.24
35.031,90.18
35.046,123.7
35.062,144.4
35.078,143.43
35.093,115.37
35.109,60.54
35.125,-15.09
35.140,-101.7
35.156,-188.63
35.171,-267.16
35.187,-332.13
35.203,-381.69
35.218,-416.0
35.234,-435.33
35.250,-438.1
35.265,-420.52
35.281,-378.18
35.296,-309.12
35.312,-216.52
35.328,-109.68
35.343,-2.0
35.359,92.82
35.375,165.15
35.390,212.12
35.406,237.08
35.421,246.84
35.437,247.92
35.453,243.96
35.468,235.51
35.484,221.98
35.500,203.85
35.515,183.49
35.531,164.34
35.546,148.64
35.562,136.38
35.578,125.34
35.593,112.07
35.609,94.05
35.625,71.08
35.640,45.57
35.656,21.44
35.671,2.55
35.687,-9.11
35.703,-13.71
35.718,-13.0
35.734,-9.42
35.750,-5.07
35.765,-1.23
35.781,1.86
35.796,4.5
35.812,7.2
35.828,10.15
35.843,13.06
35.859,15.27
35.875,15.82
35.890,14.03
35.906,9.75
35.921,3.5
35.937,-3.78
35.953,-11.35
35.968,-19.1
35.984,-27.66
36.000,-37.83
36.015,-49.85
36.031,-62.6
36.046,-73.91
36.062,-81.41
36.078,-83.92
36.093,-82.21
36.109,-78.57
36.125,-75.51
36.140,-74.33
36.156,-74.75
36.171,-75.3
36.187,-74.68
36.203,-72.81
36.218,-70.8
36.234,-70.1
36.250,-71.18
36.265,-73.06
36.281,-73.64
36.296,-70.89
36.312,-64.05
36.328,-54.15
36.343,-43.51
36.359,-34.29
36.375,-27.2
36.390,-20.86
36.406,-12.79
36.421,-0.86
36.437,14.97
36.453,32.35
36.468,47.59
36.484,57.45
36.500,60.73
36.515,58.43
36.531,52.93
36.546,46.22
36.562,38.91
36.578,30.3
36.593,19.63
36.609,7.42
36.625,-4.45
36.640,-13.61
36.656,-18.69
36.671,-19.53
36.687,-16.49
36.703,-9.28
36.718,3.1
36.734,21.23
36.750,43.56
36.765,65.62
36.781,81.47
36.796,86.53
36.812,80.23
36.828,66.22
36.843,50.26
36.859,36.91
36.875,27.48
36.890,20.31
36.906,12.79
36.921,3.82
36.937,-5.55
36.953,-13.42
36.968,-19.06
36.984,-23.88
37.000,-30.88
37.015,-42.64
37.031,-59.54
37.046,-79.24
37.062,-97.54
37.078,-109.97
37.093,-113.46
37.109,-107.08
37.125,-92.15
37.140,-71.85
37.156,-50.33
37.171,-31.76
37.187,-19.43
37.203,-15.21
37.218,-19.2
37.234,-29.88
37.250,-44.25
37.265,-58.19
37.281,-67.04
37.296,-66.71
37.312,-55.07
37.328,-33.24
37.343,-6.32
37.359,17.88
37.375,31.13
37.390,28.01
37.406,8.53
37.421,-21.3
37.437,-51.26
37.453,-70.73
37.468,-72.88
37.484,-57.27
37.500,-29.53
37.515,1.49
37.531,27.74
37.546,45.04
37.562,54.0
37.578,58.26
37.593,61.8
37.609,66.62
37.625,72.45
37.640,77.77
37.656,81.68
37.671,84.93
37.687,89.68
37.703,98.07
37.718,110.94
37.734,127.58
37.750,146.0
37.765,163.36
37.781,176.24
37.796,180.93
37.812,174.43
37.828,155.85
37.843,127.3
37.859,93.63
37.875,60.97
37.890,34.36
37.906,15.79
37.921,3.67
37.937,-6.26
37.953,-19.0
37.968,-38.49
37.984,-66.8
38.000,-103.74
38.015,-146.83
38.031,-191.55
38.046,-232.18
38.062,-262.94
38.078,-279.42
38.093,-279.61
38.109,-264.42
38.125,-236.76
38.140,-200.33
38.156,-158.45
38.171,-113.65
38.187,-68.22
38.203,-24.94
38.218,12.79
38.234,41.71
38.250,59.81
38.265,67.46
38.281,67.86
38.296,65.92
38.312,66.5
38.328,72.17
38.343,82.35
38.359,94.42
38.375,106.51
38.390,119.25
38.406,135.27
38.421,156.79
38.437,183.14
38.453,210.09
38.468,231.79
38.484,244.0
38.500,246.4
38.515,242.67
38.531,237.87
38.546,235.13
38.562,233.33
38.578,227.48
38.593,211.61
38.609,182.17
38.625,140.08
38.640,90.47
38.656,40.37
38.671,-4.06
38.687,-39.64
38.703,-66.98
38.718,-89.77
38.734,-112.45
38.750,-137.38
38.765,-163.15
38.781,-184.53
38.796,-194.91
38.812,-189.58
38.828,-168.43
38.843,-136.05
38.859,-99.85
38.875,-66.61
38.890,-39.32
38.906,-16.56
38.921,5.83
38.937,31.81
38.953,62.57
38.968,95.55
38.984,125.71
39.000,147.76
39.015,158.36
39.031,156.97
39.046,145.23
39.062,125.1
39.078,97.29
39.093,60.77
39.109,13.81
39.125,-44.02
39.140,-109.96
39.156,-177.74
39.171,-238.88
39.187,-285.36
39.203,-312.13
39.218,-317.89
39.234,-304.09
39.250,-273.04
39.265,-226.68
39.281,-166.77
39.296,-96.11
39.312,-19.37
39.328,57.27
39.343,127.29
39.359,185.44
39.375,228.83
39.390,256.35
39.406,267.62
39.421,261.99
39.437,239.04
39.453,199.63
39.468,147.02
39.484,86.12
39.500,22.36
39.515,-39.08
39.531,-93.69
39.546,-137.65
39.562,-168.32
39.578,-184.75
39.593,-187.73
39.609,-179.41
39.625,-162.61
39.640,-139.82
39.656,-112.49
39.671,-81.28
39.687,-46.49
39.703,-9.06
39.718,28.94
39.734,64.39
39.750,93.77
39.765,114.04
39.781,123.6
39.796,122.86
39.812,113.91
39.828,100.03
39.843,84.4
39.859,68.6
39.875,52.33
39.890,34.08
39.906,12.98
39.921,-9.97
39.937,-31.73
39.953,-49.32
39.968,-61.36
39.984,-68.67
40.000,-73.46
40.015,-77.33
40.031,-79.79
40.046,-78.14
40.062,-69.35
40.078,-52.48
40.093,-30.17
40.109,-7.95
40.125,8.12
40.140,13.97
40.156,9.13
40.171,-3.67
40.187,-20.04
40.203,-35.77
40.218,-47.97
40.234,-55.0
40.250,-56.31
40.265,-51.76
40.281,-41.66
40.296,-26.94
40.312,-9.18
40.328,9.56
40.343,27.12
40.359,41.64
40.375,51.91
40.390,57.55
40.406,58.87
40.421,56.59
40.437,51.52
40.453,44.43
40.468,36.07
40.484,27.37
40.500,19.38
40.515,13.3
40.531,10.14
40.546,10.28
40.562,13.16
40.578,17.21
40.593,20.34
40.609,20.61
40.625,17.02
40.640,9.82
40.656,0.25
40.671,-10.14
40.687,-20.28
40.703,-30.07
40.718,-40.36
40.734,-52.15
40.750,-65.98
40.765,-81.23
40.781,-96.51
40.796,-110.35
40.812,-122.04
40.828,-132.15
40.843,-141.88
40.859,-152.12
40.875,-162.34
40.890,-170.36
40.906,-173.11
40.921,-168.05
40.937,-154.32
40.953,-133.04
40.968,-106.67
40.984,-77.72
41.000,-47.93
41.015,-17.99
41.031,11.76
41.046,40.71
41.062,67.57
41.078,90.41
41.093,107.6
41.109,118.38
41.125,123.65
41.140,125.68
41.156,127.54
41.171,131.86
41.187,139.64
41.203,149.55
41.218,158.14
41.234,161.59
41.250,157.54
41.265,146.56
41.281,131.82
41.296,117.3
41.312,105.54
41.328,96.43
41.343,87.67
41.359,76.4
41.375,60.86
41.390,40.83
41.406,16.89
41.421,-10.72
41.437,-42.22
41.453,-77.24
41.468,-113.08
41.484,-143.68
41.500,-161.11
41.515,-158.67
41.531,-134.65
41.546,-94.12
41.562,-47.55
41.578,-6.97
41.593,18.62
41.609,26.12
41.625,18.78
41.640,3.65
41.656,-11.93
41.671,-23.07
41.687,-28.37
41.703,-29.0
41.718,-26.96
41.734,-23.57
41.750,-19.14
41.765,-13.37
41.781,-6.28
41.796,1.24
41.812,7.66
41.828,11.28
41.843,11.12
41.859,7.34
41.875,1.32
41.890,-4.78
41.906,-8.79
41.921,-9.4
41.937,-6.43
41.953,-0.86
41.968,5.54
41.984,10.98
42.000,14.08
42.015,14.28
42.031,11.6
42.046,6.39
42.062,-1.06
42.078,-10.54
42.093,-21.53
42.109,-32.84
42.125,-42.46
42.140,-48.0
42.156,-47.56
42.171,-40.7
42.187,-28.8
42.203,-14.88
42.218,-2.57
42.234,5.23
42.250,7.19
42.265,3.89
42.281,-2.76
42.296,-10.42
42.312,-17.16
42.328,-22.01
42.343,-24.8
42.359,-25.84
42.375,-25.36
42.390,-23.26
42.406,-19.21
42.421,-13.11
42.437,-5.44
42.453,2.43
42.468,8.66
42.484,11.53
42.500,10.02
42.515,4.35
42.531,-4.12
42.546,-13.54
42.562,-22.22
42.578,-29.23
42.593,-34.65
42.609,-38.96
42.625,-42.39
42.640,-44.57
42.656,-44.51
42.671,-41.22
42.687,-34.48
42.703,-25.35
42.718,-15.95
42.734,-8.57
42.750,-4.54
42.765,-3.67
42.781,-4.79
42.796,-6.48
42.812,-8.1
42.828,-10.11
42.843,-13.64
42.859,-19.42
42.875,-27.07
42.890,-34.98
42.906,-41.02
42.921,-43.43
42.937,-41.38
42.953,-35.3
42.968,-26.65
42.984,-17.12
43.000,-8.06
43.015,0.07
43.031,7.67
43.046,15.61
43.062,24.56
43.078,34.01
43.093,42.02
43.109,46.15
43.125,44.9
43.140,39.04
43.156,31.74
43.171,27.06
43.187,28.01
43.203,34.6
43.218,43.69
43.234,50.87
43.250,53.11
43.265,50.68
43.281,46.71
43.296,45.12
43.312,47.97
43.328,53.85
43.343,58.24
43.359,56.21
43.375,45.18
43.390,26.75
43.406,5.95
43.421,-11.58
43.437,-22.43
43.453,-27.38
43.468,-30.81
43.484,-38.01
43.500,-52.18
43.515,-72.5
43.531,-94.75
43.546,-113.83
43.562,-126.25
43.578,-131.95
43.593,-133.83
43.609,-135.44
43.625,-138.58
43.640,-141.72
43.656,-140.75
43.671,-131.42
43.687,-111.68
43.703,-83.15
43.718,-50.57
43.734,-19.76
43.750,4.85
43.765,21.83
43.781,33.01
43.796,41.95
43.812,52.15
43.828,65.26
43.843,80.64
43.859,95.91
43.875,108.42
43.890,116.69
43.906,120.99
43.921,122.95
43.937,124.53
43.953,126.65
43.968,128.65
43.984,128.75
44.000,125.3
44.015,117.92
44.031,108.09
44.046,98.29
44.062,90.87
44.078,86.72
44.093,84.79
44.109,82.85
44.125,78.8
44.140,71.82
44.156,62.79
44.171,53.7
44.187,46.53
44.203,42.15
44.218,39.79
44.234,37.71
44.250,34.2
44.265,28.69
44.281,22.1
44.296,16.18
44.312,12.56
44.328,11.71
44.343,12.82
44.359,14.28
44.375,14.85
44.390,14.39
44.406,13.8
44.421,14.23
44.437,16.19
44.453,18.9
44.468,20.41
44.484,18.64
44.500,12.47
44.515,2.62
44.531,-8.47
44.546,-17.68
44.562,-22.44
44.578,-21.86
44.593,-17.11
44.609,-10.73
44.625,-5.37
44.640,-2.56
44.656,-2.21
44.671,-3.01
44.687,-3.38
44.703,-2.4
44.718,-0.26
44.734,2.14
44.750,3.85
44.765,4.65
44.781,5.05
44.796,5.97
44.812,8.17
44.828,11.79
44.843,16.37
44.859,21.26
44.875,25.95
44.890,30.34
44.906,34.68
44.921,39.11
44.937,43.48
44.953,47.2
44.968,49.34
44.984,49.14
45.000,46.57
45.015,42.51
45.031,38.61
45.046,36.57
45.062,37.31
45.078,40.35
45.093,43.83
45.109,45.14
45.125,42.24
45.140,34.6
45.156,23.53
45.171,11.65
45.187,1.69
45.203,-4.82
45.218,-8.3
45.234,-10.8
45.250,-15.01
45.265,-22.85
45.281,-34.64
45.296,-49.08
45.312,-63.89
45.328,-77.0
45.343,-87.62
45.359,-96.21
45.375,-103.95
45.390,-111.54
45.406,-118.37
45.421,-122.57
45.437,-122.03
45.453,-115.58
45.468,-103.91
45.484,-89.28
45.500,-74.79
45.515,-62.93
45.531,-54.95
45.546,-50.71
45.562,-49.28
45.578,-49.6
45.593,-50.81
45.609,-52.33
45.625,-53.47
45.640,-53.64
45.656,-52.63
45.671,-51.01
45.687,-49.88
45.703,-50.41
45.718,-52.99
45.734,-56.83
45.750,-60.24
45.765,-61.24
45.781,-58.57
45.796,-52.22
45.812,-43.17
45.828,-32.89
45.843,-22.6
45.859,-12.79
45.875,-3.36
45.890,6.08
45.906,15.95
45.921,26.44
45.937,37.53
45.953,48.8
45.968,59.2
45.984,67.36
46.000,71.84
46.015,71.7
46.031,66.78
46.046,57.77
46.062,45.81
46.078,31.99
46.093,16.9
46.109,0.62
46.125,-16.84
46.140,-35.09
46.156,-53.22
46.171,-70.1
46.187,-84.92
46.203,-97.58
46.218,-108.7
46.234,-119.09
46.250,-129.23
46.265,-138.8
46.281,-146.87
46.296,-152.18
46.312,-153.61
46.328,-150.48
46.343,-142.73
46.359,-130.62
46.375,-114.55
46.390,-94.95
46.406,-72.13
46.421,-46.52
46.437,-18.73
46.453,10.25
46.468,38.94
46.484,65.96
46.500,90.57
46.515,113.07
46.531,134.34
46.546,155.23
46.562,175.4
46.578,193.07
46.593,205.25
46.609,209.2
46.625,204.17
46.640,191.93
46.656,176.0
46.671,159.86
46.687,145.56
46.703,133.76
46.718,124.56
46.734,118.61
46.750,117.11
46.765,120.94
46.781,129.25
46.796,139.08
46.812,146.34
46.828,147.58
46.843,141.24
46.859,127.87
46.875,109.29
46.890,87.35
46.906,63.43
46.921,38.23
46.937,12.28
46.953,-14.09
46.968,-41.12
46.984,-69.57
47.000,-100.17
47.015,-132.44
47.031,-163.84
47.046,-190.37
47.062,-208.25
47.078,-215.63
47.093,-213.56
47.109,-205.64
47.125,-195.98
47.140,-187.31
47.156,-180.02
47.171,-172.62
47.187,-163.13
47.203,-150.04
47.218,-132.84
47.234,-111.85
47.250,-88.11
47.265,-62.82
47.281,-37.04
47.296,-11.53
47.312,13.75
47.328,39.65
47.343,67.29
47.359,97.13
47.375,127.74
47.390,155.56
47.406,176.39
47.421,187.48
47.437,188.97
47.453,183.72
47.468,175.53
47.484,167.29
47.500,160.03
47.515,153.03
47.531,145.33
47.546,136.92
47.562,129.31
47.578,124.69
47.593,124.74
47.609,129.5
47.625,137.45
47.640,146.42
47.656,153.89
47.671,157.58
47.687,155.99
47.703,148.82
47.718,136.72
47.734,120.93
47.750,102.75
47.765,83.35
47.781,64.28
47.796,46.4
47.812,29.76
47.828,13.67
47.843,-3.0
47.859,-21.73
47.875,-43.99
47.890,-70.28
47.906,-102.56
47.921,-136.33
47.937,-162.19
47.953,-171.1
47.968,-160.38
47.984,-134.31
48.000,-100.65
48.015,-66.7
48.031,-37.14
48.046,-12.33
48.062,8.82
48.078,26.21
48.093,38.37
48.109,43.59
48.125,41.38
48.140,33.07
48.156,21.35
48.171,9.47
48.187,-0.86
48.203,-7.32
48.218,-9.16
48.234,-7.57
48.250,-5.19
48.265,-5.53
48.281,-11.65
48.296,-24.92
48.312,-43.37
48.328,-61.53
48.343,-71.69
48.359,-67.49
48.375,-46.58
48.390,-10.74
48.406,34.89
48.421,84.05
48.437,130.97
48.453,170.84
48.468,198.87
48.484,210.07
48.500,199.89
48.515,166.92
48.531,116.18
48.546,57.81
48.562,4.16
48.578,-35.26
48.593,-57.91
48.609,-68.97
48.625,-78.25
48.640,-95.38
48.656,-125.77
48.671,-168.41
48.687,-219.59
48.703,-274.98
48.718,-331.07
48.734,-384.65
48.750,-430.96
48.765,-462.69
48.781,-471.58
48.796,-450.94
48.812,-397.79
48.828,-316.87
48.843,-218.96
48.859,-116.8
48.875,-21.04
48.890,62.12
48.906,130.51
48.921,185.03
48.937,218.41
48.953,228.66
48.968,212.59
48.984,169.16
49.000,102.5
49.015,22.45
49.031,-57.85
49.046,-125.75
49.062,-174.15
49.078,-201.56
49.093,-209.04
49.109,-199.97
49.125,-177.0
49.140,-140.92
49.156,-91.84
49.171,-32.19
49.187,36.62
49.203,100.47
49.218,139.94
49.234,143.72
49.250,114.21
49.265,64.86
49.281,11.48
49.296,-34.25
49.312,-69.23
49.328,-95.84
49.343,-118.37
49.359,-138.74
49.375,-155.59
49.390,-166.92
49.406,-171.87
49.421,-171.67
49.437,-167.23
49.453,-161.69
49.468,-157.46
49.484,-156.32
49.500,-157.63
49.515,-158.49
49.531,-156.05
49.546,-148.86
49.562,-137.07
49.578,-121.87
49.593,-105.16
49.609,-88.15
49.625,-71.52
49.640,-54.43
49.656,-35.06
49.671,-12.17
49.687,14.08
49.703,42.06
49.718,69.38
49.734,93.18
49.750,111.31
49.765,122.52
49.781,126.92
49.796,125.75
49.812,120.79
49.828,113.84
49.843,106.38
49.859,99.37
49.875,93.12
49.890,87.73
49.906,83.33
49.921,79.89
49.937,77.06
49.953,74.22
49.968,70.46
49.984,64.71
50.000,55.76
50.015,42.51
50.031,24.42
50.046,2.67
50.062,-20.95
50.078,-44.13
50.093,-64.03
50.109,-77.52
50.125,-81.9
50.140,-75.38
50.156,-57.32
50.171,-28.05
50.187,13.14
50.203,65.71
50.218,127.75
50.234,196.61
50.250,269.75
50.265,345.29
50.281,421.83
50.296,497.99
50.312,571.79
50.328,642.41
50.343,706.2
50.359,756.85
50.375,788.07
50.390,796.55
50.406,783.81
50.421,755.28
50.437,717.49
50.453,675.3
50.468,633.24
50.484,590.36
50.500,541.21
50.515,480.01
50.531,404.41
50.546,316.82
50.562,223.63
50.578,132.79
50.593,29.47
50.609,-86.41
50.625,-203.31
50.640,-303.96
50.656,-374.95
50.671,-412.23
50.687,-419.96
50.703,-405.84
50.718,-377.84
50.734,-343.17
50.750,-304.57
50.765,-262.46
50.781,-221.21
50.796,-186.55
50.812,-163.28
50.828,-154.21
50.843,-159.81
50.859,-178.13
50.875,-204.58
50.890,-230.53
50.906,-249.1
50.921,-258.36
50.937,-261.0
50.953,-263.22
50.968,-273.03
50.984,-296.54
51.000,-335.37
51.015,-385.89
51.031,-438.97
51.046,-485.55
51.062,-519.98
51.078,-539.11
51.093,-541.25
51.109,-524.44
51.125,-486.07
51.140,-424.42
51.156,-340.84
51.171,-239.47
51.187,-127.71
51.203,-14.86
51.218,90.6
51.234,181.19
51.250,250.02
51.265,291.08
51.281,299.92
51.296,276.52
51.312,227.83
51.328,166.89
51.343,108.83
51.359,65.07
51.375,38.47
51.390,22.75
51.406,7.24
51.421,-17.23
51.437,-51.08
51.453,-85.41
51.468,-106.77
51.484,-104.8
51.500,-77.9
51.515,-34.01
51.531,13.69
51.546,54.34
51.562,81.62
51.578,96.99
51.593,105.45
51.609,111.44
51.625,116.21
51.640,117.69
51.656,112.14
51.671,96.18
51.687,69.26
51.703,30.08
51.718,-18.88
51.734,-72.83
51.750,-124.96
51.765,-167.09
51.781,-191.71
51.796,-194.18
51.812,-173.89
51.828,-132.87
51.843,-80.07
51.859,-24.47
51.875,25.18
51.890,61.92
51.906,82.26
51.921,86.6
51.937,78.25
51.953,52.11
51.968,24.53
51.984,-4.83
52.000,-35.94
52.015,-68.81
52.031,-102.28
52.046,-133.75
52.062,-159.81
52.078,-177.72
52.093,-186.26
52.109,-184.37
52.125,-175.13
52.140,-159.89
52.156,-139.84
52.171,-116.34
52.187,-91.27
52.203,-66.59
52.218,-43.93
52.234,-23.7
52.250,-3.6
52.265,17.23
52.281,40.94
52.296,68.11
52.312,96.78
52.328,122.75
52.343,141.01
52.359,147.38
52.375,140.47
52.390,122.92
52.406,98.4
52.421,72.43
52.437,49.75
52.453,33.23
52.468,23.54
52.484,19.71
52.500,20.09
52.515,23.72
52.531,31.27
52.546,43.73
52.562,62.78
52.578,89.22
52.593,122.14
52.609,158.1
52.625,191.7
52.640,216.9
52.656,229.19
52.671,227.64
52.687,215.04
52.703,197.44
52.718,181.52
52.734,171.65
52.750,167.75
52.765,165.56
52.781,158.87
52.796,142.97
52.812,117.35
52.828,86.07
52.843,55.85
52.859,32.68
52.875,19.15
52.890,13.4
52.906,10.75
52.921,6.02
52.937,-4.35
52.953,-21.53
52.968,-44.47
52.984,-70.97
53.000,-98.52
53.015,-124.43
53.031,-145.95
53.046,-159.91
53.062,-163.66
53.078,-155.76
53.093,-136.66
53.109,-108.71
53.125,-75.37
53.140,-40.19
53.156,-6.01
53.171,25.29
53.187,52.92
53.203,76.7
53.218,96.93
53.234,114.06
53.250,128.4
53.265,139.59
53.281,146.4
53.296,146.8
53.312,138.5
53.328,120.04
53.343,91.35
53.359,54.04
53.375,11.12
53.390,-33.7
53.406,-76.67
53.421,-114.54
53.437,-144.61
53.453,-164.91
53.468,-174.41
53.484,-173.3
53.500,-162.94
53.515,-145.49
53.531,-123.37
53.546,-98.72
53.562,-73.3
53.578,-48.48
53.593,-25.43
53.609,-5.18
53.625,11.74
53.640,25.69
53.656,37.99
53.671,50.33
53.687,63.97
53.703,78.95
53.718,93.95
53.734,106.6
53.750,114.31
53.765,115.05
53.781,107.95
53.796,93.42
53.812,72.9
53.828,48.65
53.843,23.13
53.859,-1.32
53.875,-23.08
53.890,-41.28
53.906,-55.68
53.921,-66.2
53.937,-72.81
53.953,-75.48
53.968,-74.41
53.984,-70.41
54.000,-64.78
54.015,-58.94
54.031,-53.77
54.046,-49.15
54.062,-44.25
54.078,-37.83
54.093,-29.06
54.109,-17.96
54.125,-5.45
54.140,7.07
54.156,18.24
54.171,27.17
54.187,33.49
54.203,37.25
54.218,38.77
54.234,38.42
54.250,36.67
54.265,34.01
54.281,31.02
54.296,28.17
54.312,25.58
54.328,22.99
54.343,19.76
54.359,15.03
54.375,7.98
54.390,-2.01
54.406,-15.11
54.421,-30.87
54.437,-48.21
54.453,-65.49
54.468,-80.78
54.484,-92.42
54.500,-99.43
54.515,-101.85
54.531,-100.48
54.546,-96.33
54.562,-90.19
54.578,-82.28
54.593,-72.52
54.609,-61.0
54.625,-48.22
54.640,-34.91
54.656,-21.73
54.671,-8.83
54.687,4.01
54.703,16.91
54.718,29.51
54.734,40.66
54.750,48.81
54.765,52.58
54.781,51.53
54.796,46.22
54.812,38.15
54.828,29.31
54.843,21.71
54.859,16.8
54.875,14.85
54.890,14.34
54.906,12.1
54.921,4.49
54.937,-10.67
54.953,-32.21
54.968,-55.47
54.984,-73.87
55.000,-81.71
55.015,-76.84
55.031,-61.17
55.046,-39.33
55.062,-16.23
55.078,4.74
55.093,21.94
55.109,34.21
55.125,40.09
55.140,37.98
55.156,27.6
55.171,11.35
55.187,-5.88
55.203,-18.38
55.218,-22.18
55.234,-16.73
55.250,-4.62
55.265,10.2
55.281,24.81
55.296,38.39
55.312,51.91
55.328,66.65
55.343,82.69
55.359,98.31
55.375,110.76
55.390,117.63
55.406,118.12
55.421,113.53
55.437,106.42
55.453,99.52
55.468,94.41
55.484,90.85
55.500,87.61
55.515,83.37
55.531,77.88
55.546,71.93
55.562,66.73
55.578,62.8
55.593,59.55
55.609,55.34
55.625,48.71
55.640,39.44
55.656,28.99
55.671,20.03
55.687,14.95
55.703,14.51
55.718,17.32
55.734,20.46
55.750,21.16
55.765,18.51
55.781,14.16
55.796,11.64
55.812,14.4
55.828,24.0
55.843,38.94
55.859,55.33
55.875,68.52
55.890,75.33
55.906,75.28
55.921,70.37
55.937,63.67
55.953,57.54
55.968,52.69
55.984,47.9
56.000,41.25
56.015,31.35
56.031,18.36
56.046,4.08
56.062,-9.14
56.078,-19.45
56.093,-26.42
56.109,-30.88
56.125,-34.11
56.140,-36.45
56.156,-36.94
56.171,-33.76
56.187,-25.76
56.203,-13.79
56.218,-1.27
56.234,6.91
56.250,6.22
56.265,-5.76
56.281,-28.41
56.296,-58.66
56.312,-92.26
56.328,-124.91
56.343,-152.98
56.359,-173.52
56.375,-184.47
56.390,-184.96
56.406,-175.55
56.421,-158.44
56.437,-136.93
56.453,-114.67
56.468,-94.85
56.484,-79.79
56.500,-70.62
56.515,-67.57
56.531,-70.07
56.546,-76.61
56.562,-85.05
56.578,-93.09
56.593,-99.26
56.609,-103.36
56.625,-106.19
56.640,-108.4
56.656,-109.57
56.671,-108.04
56.687,-101.88
56.703,-90.13
56.718,-73.68
56.734,-54.79
56.750,-35.8
56.765,-18.01
56.781,-1.3
56.796,15.13
56.812,31.81
56.828,48.38
56.843,63.95
56.859,77.92
56.875,90.74
56.890,103.77
56.906,118.47
56.921,135.39
56.937,153.62
56.953,171.09
56.968,185.26
56.984,193.74
57.000,194.82
57.015,187.88
57.031,173.19
57.046,152.01
57.062,126.15
57.078,97.47
57.093,67.38
57.109,36.85
57.125,6.69
57.140,-22.04
57.156,-47.71
57.171,-68.42
57.187,-82.66
57.203,-89.94
57.218,-91.14
57.234,-88.25
57.250,-83.45
57.265,-78.22
57.281,-72.94
57.296,-66.9
57.312,-58.9
57.328,-48.02
57.343,-34.22
57.359,-18.55
57.375,-2.92
57.390,10.64
57.406,20.93
57.421,28.06
57.437,33.49
57.453,38.91
57.468,45.49
57.484,52.98
57.500,59.93
57.515,64.56
57.531,65.67
57.546,63.36
57.562,58.95
57.578,54.35
57.593,50.76
57.609,48.08
57.625,44.88
57.640,39.15
57.656,29.37
57.671,15.26
57.687,-2.0
57.703,-20.12
57.718,-36.56
57.734,-49.37
57.750,-57.64
57.765,-61.21
57.781,-60.27
57.796,-54.87
57.812,-44.82
57.828,-30.2
57.843,-11.83
57.859,8.47
57.875,28.07
57.890,44.07
57.906,54.2
57.921,57.17
57.937,52.99
57.953,42.59
57.968,27.12
57.984,7.45
58.000,-16.01
58.015,-43.0
58.031,-72.87
58.046,-104.21
58.062,-134.77
58.078,-161.7
58.093,-182.36
58.109,-194.69
58.125,-197.59
58.140,-190.87
58.156,-174.85
58.171,-150.23
58.187,-118.24
58.203,-80.82
58.218,-40.97
58.234,-2.53
58.250,30.74
58.265,56.17
58.281,73.15
58.296,83.03
58.312,88.35
58.328,91.5
58.343,93.59
58.359,94.14
58.375,91.71
58.390,85.12
58.406,74.58
58.421,61.77
58.437,49.2
58.453,38.93
58.468,31.66
58.484,26.53
58.500,21.91
58.515,16.44
58.531,9.94
58.546,3.38
58.562,-1.79
58.578,-4.31
58.593,-3.99
58.609,-1.49
58.625,2.26
58.640,6.76
58.656,12.32
58.671,19.95
58.687,30.52
58.703,44.17
58.718,59.93
58.734,75.82
58.750,89.62
58.765,99.53
58.781,104.96
58.796,106.53
58.812,105.58
58.828,103.52
58.843,101.14
58.859,98.56
58.875,95.36
58.890,91.0
58.906,85.02
58.921,77.27
58.937,67.73
58.953,56.27
58.968,42.68
58.984,26.75
59.000,8.61
59.015,-11.05
59.031,-30.86
59.046,-49.25
59.062,-64.85
59.078,-76.96
59.093,-85.84
59.109,-92.46
59.125,-97.93
59.140,-102.82
59.156,-106.77
59.171,-108.49
59.187,-106.38
59.203,-99.45
59.218,-87.95
59.234,-73.35
59.250,-57.76
59.265,-43.11
59.281,-30.35
59.296,-19.27
59.312,-8.87
59.328,1.94
59.343,13.58
59.359,25.67
59.375,37.51
59.390,48.8
59.406,60.26
59.421,73.57
59.437,90.8
59.453,113.49
59.468,141.88
59.484,174.36
59.500,207.99
59.515,239.27
59.531,265.14
59.546,283.64
59.562,293.52
59.578,293.79
59.593,283.49
59.609,261.67
59.625,227.63
59.640,181.4
59.656,123.36
59.671,53.86
59.687,-26.7
59.703,-117.23
59.718,-214.65
59.734,-312.6
59.750,-401.56
59.765,-470.71
59.781,-511.34
59.796,-520.1
59.812,-500.42
59.828,-461.11
59.843,-412.64
59.859,-362.88
59.875,-314.54
59.890,-265.58
59.906,-211.31
59.921,-147.53
59.937,-73.34
59.953,7.93
59.968,89.34
59.984,161.87
