timestamp,value
00.000,-181.98
00.015,-216.16
00.031,-243.12
00.046,-259.74
00.062,-263.83
00.078,-254.96
00.093,-235.0
00.109,-207.73
00.125,-177.76
00.140,-149.54
00.156,-126.46
00.171,-110.74
00.187,-102.91
00.203,-101.93
00.218,-105.51
00.234,-110.95
00.250,-116.42
00.265,-121.43
00.281,-126.36
00.296,-131.03
00.312,-133.45
00.328,-129.84
00.343,-115.87
00.359,-89.33
00.375,-51.64
00.390,-7.91
00.406,34.98
00.421,71.08
00.437,97.49
00.453,115.02
00.468,126.68
00.484,135.76
00.500,143.86
00.515,150.52
00.531,153.69
00.546,151.0
00.562,140.86
00.578,123.17
00.593,99.36
00.609,71.74
00.625,43.06
00.640,16.12
00.656,-6.26
00.671,-21.38
00.687,-27.04
00.703,-22.36
00.718,-8.67
00.734,10.32
00.750,29.37
00.765,43.41
00.781,49.59
00.796,48.03
00.812,42.07
00.828,36.95
00.843,37.64
00.859,46.64
00.875,62.85
00.890,81.32
00.906,94.46
00.921,94.91
00.937,79.19
00.953,50.76
00.968,20.01
00.984,0.95
01.000,5.88
01.015,39.81
01.031,96.65
01.046,160.25
01.062,209.41
01.078,225.89
01.093,201.28
01.109,139.84
01.125,56.1
01.140,-30.92
01.156,-104.41
01.171,-154.14
01.187,-176.82
01.203,-173.58
01.218,-147.11
01.234,-100.55
01.250,-38.28
01.265,32.25
01.281,100.72
01.296,155.84
01.312,189.1
01.328,198.3
01.343,188.37
01.359,168.49
01.375,148.13
01.390,133.73
01.406,126.9
01.421,125.31
01.437,124.67
01.453,121.15
01.468,113.34
01.484,102.23
01.500,90.18
01.515,79.64
01.531,72.07
01.546,67.36
01.562,64.25
01.578,61.17
01.593,56.99
01.609,51.71
01.625,46.0
01.640,40.89
01.656,37.11
01.671,34.81
01.687,33.71
01.703,33.21
01.718,32.84
01.734,32.23
01.750,31.29
01.765,29.82
01.781,27.77
01.796,25.2
01.812,22.21
01.828,19.13
01.843,16.29
01.859,13.87
01.875,11.88
01.890,10.22
01.906,8.63
01.921,7.01
01.937,5.37
01.953,3.75
01.968,2.26
01.984,0.97
02.000,-0.06
02.015,-0.76
02.031,-1.11
02.046,-1.15
02.062,-1.14
02.078,-1.51
02.093,-2.78
02.109,-5.13
02.125,-8.31
02.140,-11.47
02.156,-13.4
02.171,-13.18
02.187,-10.21
02.203,-4.62
02.218,2.93
02.234,11.54
02.250,20.62
02.265,29.63
02.281,38.32
02.296,46.44
02.312,53.69
02.328,59.82
02.343,64.84
02.359,68.83
02.375,71.99
02.390,74.54
02.406,76.42
02.421,77.58
02.437,77.86
02.453,77.34
02.468,76.22
02.484,74.94
02.500,73.8
02.515,72.93
02.531,72.18
02.546,71.12
02.562,69.26
02.578,66.12
02.593,61.4
02.609,55.13
02.625,47.66
02.640,39.81
02.656,32.8
02.671,27.97
02.687,26.26
02.703,27.69
02.718,31.1
02.734,34.38
02.750,35.28
02.765,32.14
02.781,24.58
02.796,13.14
02.812,-1.44
02.828,-19.21
02.843,-41.22
02.859,-69.19
02.875,-104.21
02.890,-145.58
02.906,-190.44
02.921,-234.02
02.937,-271.29
02.953,-298.36
02.968,-313.59
02.984,-317.82
03.000,-313.74
03.015,-304.99
03.031,-294.83
03.046,-285.7
03.062,-278.65
03.078,-273.67
03.093,-270.02
03.109,-266.55
03.125,-262.16
03.140,-255.8
03.156,-246.66
03.171,-234.32
03.187,-218.86
03.203,-200.78
03.218,-180.72
03.234,-159.11
03.250,-135.39
03.265,-108.05
03.281,-75.07
03.296,-35.15
03.312,10.8
03.328,58.82
03.343,102.39
03.359,134.1
03.375,148.02
03.390,141.95
03.406,117.88
03.421,81.05
03.437,37.67
03.453,-7.11
03.468,-50.2
03.484,-90.33
03.500,-126.84
03.515,-158.69
03.531,-184.16
03.546,-201.41
03.562,-209.19
03.578,-207.5
03.593,-197.19
03.609,-179.37
03.625,-154.99
03.640,-124.75
03.656,-89.13
03.671,-49.01
03.687,-5.53
03.703,39.87
03.718,85.81
03.734,131.08
03.750,174.45
03.765,214.27
03.781,248.11
03.796,273.09
03.812,286.61
03.828,287.15
03.843,274.85
03.859,251.46
03.875,219.83
03.890,183.03
03.906,143.99
03.921,104.89
03.937,67.52
03.953,33.58
03.968,4.74
03.984,-17.41
04.000,-31.77
04.015,-37.88
04.031,-35.88
04.046,-26.12
04.062,-9.18
04.078,13.9
04.093,41.12
04.109,69.21
04.125,94.15
04.140,112.54
04.156,123.64
04.171,130.15
04.187,137.55
04.203,151.65
04.218,175.99
04.234,210.17
04.250,250.03
04.265,289.38
04.281,321.94
04.296,342.54
04.312,347.31
04.328,333.42
04.343,299.22
04.359,244.67
04.375,172.09
04.390,86.59
04.406,-4.12
04.421,-90.98
04.437,-164.97
04.453,-218.46
04.468,-246.82
04.484,-249.37
04.500,-229.85
04.515,-195.92
04.531,-157.14
04.546,-121.87
04.562,-95.09
04.578,-77.26
04.593,-65.1
04.609,-53.66
04.625,-38.78
04.640,-18.71
04.656,5.6
04.671,31.6
04.687,56.71
04.703,79.25
04.718,98.56
04.734,114.32
04.750,125.8
04.765,131.62
04.781,130.67
04.796,122.55
04.812,108.2
04.828,89.68
04.843,69.25
04.859,48.47
04.875,27.94
04.890,7.89
04.906,-10.56
04.921,-24.56
04.937,-30.62
04.953,-26.34
04.968,-11.77
04.984,9.8
05.000,32.9
05.015,51.83
05.031,62.53
05.046,64.41
05.062,59.73
05.078,51.45
05.093,41.07
05.109,28.34
05.125,11.73
05.140,-10.2
05.156,-37.91
05.171,-70.52
05.187,-105.02
05.203,-137.74
05.218,-166.27
05.234,-190.79
05.250,-212.88
05.265,-234.16
05.281,-254.77
05.296,-273.37
05.312,-287.9
05.328,-294.52
05.343,-288.68
05.359,-266.29
05.375,-224.89
05.390,-162.52
05.406,-78.89
05.421,23.31
05.437,136.62
05.453,240.38
05.468,309.33
05.484,326.62
05.500,292.47
05.515,220.22
05.531,128.55
05.546,33.38
05.562,-55.05
05.578,-133.81
05.593,-204.84
05.609,-266.44
05.625,-313.95
05.640,-343.49
05.656,-355.43
05.671,-353.01
05.687,-341.46
05.703,-326.51
05.718,-306.85
05.734,-282.73
05.750,-253.06
05.765,-216.26
05.781,-168.88
05.796,-115.24
05.812,-62.74
05.828,-18.03
05.843,15.71
05.859,38.68
05.875,53.27
05.890,63.59
05.906,76.5
05.921,96.02
05.937,121.81
05.953,151.46
05.968,181.44
05.984,208.04
06.000,228.64
06.015,243.5
06.031,250.66
06.046,252.76
06.062,254.12
06.078,259.27
06.093,273.39
06.109,300.86
06.125,343.17
06.140,387.63
06.156,418.38
06.171,420.61
06.187,388.1
06.203,324.77
06.218,241.31
06.234,150.14
06.250,60.86
06.265,-21.32
06.281,-94.78
06.296,-158.32
06.312,-210.18
06.328,-249.41
06.343,-274.31
06.359,-284.4
06.375,-281.57
06.390,-269.65
06.406,-253.03
06.421,-235.34
06.437,-217.54
06.453,-198.88
06.468,-176.95
06.484,-149.28
06.500,-114.63
06.515,-71.75
06.531,-22.62
06.546,28.95
06.562,77.62
06.578,118.07
06.593,145.62
06.609,157.92
06.625,155.61
06.640,142.08
06.656,122.37
06.671,101.3
06.687,82.04
06.703,65.05
06.718,48.59
06.734,29.64
06.750,5.62
06.765,-24.41
06.781,-59.8
06.796,-98.55
06.812,-138.26
06.828,-176.27
06.843,-209.99
06.859,-236.7
06.875,-253.73
06.890,-258.61
06.906,-249.76
06.921,-227.29
06.937,-193.34
06.953,-151.79
06.968,-106.71
06.984,-61.14
07.000,-16.09
07.015,29.21
07.031,76.6
07.046,127.25
07.062,180.93
07.078,236.16
07.093,291.49
07.109,347.25
07.125,405.78
07.140,470.1
07.156,541.4
07.171,617.24
07.187,691.19
07.203,754.93
07.218,801.41
07.234,826.97
07.250,831.58
07.265,816.83
07.281,783.56
07.296,730.89
07.312,657.45
07.328,563.92
07.343,455.22
07.359,340.52
07.375,230.78
07.390,135.34
07.406,59.1
07.421,2.12
07.437,-38.98
07.453,-68.44
07.468,-89.47
07.484,-103.46
07.500,-110.58
07.515,-111.27
07.531,-107.0
07.546,-100.32
07.562,-94.0
07.578,-90.21
07.593,-90.01
07.609,-93.43
07.625,-100.09
07.640,-109.53
07.656,-121.9
07.671,-137.9
07.687,-158.52
07.703,-184.6
07.718,-216.27
07.734,-252.85
07.750,-292.83
07.765,-334.21
07.781,-374.68
07.796,-411.93
07.812,-443.58
07.828,-467.18
07.843,-480.27
07.859,-480.63
07.875,-466.88
07.890,-438.79
07.906,-397.68
07.921,-346.31
07.937,-288.55
07.953,-228.77
07.968,-171.37
07.984,-120.45
08.000,-79.34
08.015,-50.76
08.031,-36.46
08.046,-37.34
08.062,-53.08
08.078,-82.23
08.093,-122.08
08.109,-169.09
08.125,-219.71
08.140,-270.67
08.156,-319.41
08.171,-363.9
08.187,-402.35
08.203,-433.13
08.218,-455.24
08.234,-468.99
08.250,-476.38
08.265,-480.21
08.281,-482.42
08.296,-482.26
08.312,-475.91
08.328,-457.7
08.343,-422.91
08.359,-370.02
08.375,-301.75
08.390,-223.98
08.406,-144.3
08.421,-70.55
08.437,-10.57
08.453,27.79
08.468,37.24
08.484,12.4
08.500,-47.23
08.515,-135.58
08.531,-239.74
08.546,-342.63
08.562,-427.38
08.578,-482.27
08.593,-503.03
08.609,-493.03
08.625,-461.01
08.640,-417.23
08.656,-370.35
08.671,-325.71
08.687,-285.33
08.703,-249.11
08.718,-216.46
08.734,-186.91
08.750,-160.31
08.765,-136.04
08.781,-112.7
08.796,-88.26
08.812,-61.03
08.828,-30.49
08.843,2.43
08.859,35.68
08.875,66.76
08.890,93.83
08.906,116.02
08.921,133.49
08.937,147.1
08.953,157.4
08.968,164.5
08.984,167.9
09.000,166.93
09.015,161.16
09.031,150.83
09.046,137.04
09.062,121.43
09.078,105.77
09.093,91.33
09.109,78.79
09.125,68.08
09.140,58.71
09.156,50.14
09.171,42.08
09.187,34.65
09.203,28.35
09.218,23.63
09.234,20.64
09.250,19.35
09.265,19.29
09.281,19.75
09.296,19.92
09.312,19.15
09.328,16.89
09.343,12.9
09.359,7.16
09.375,-0.32
09.390,-9.28
09.406,-19.31
09.421,-29.93
09.437,-40.51
09.453,-50.16
09.468,-58.06
09.484,-63.39
09.500,-65.23
09.515,-62.94
09.531,-55.98
09.546,-43.94
09.562,-26.67
09.578,-4.21
09.593,23.21
09.609,55.12
09.625,90.8
09.640,129.32
09.656,169.46
09.671,209.8
09.687,248.7
09.703,284.5
09.718,315.51
09.734,340.11
09.750,357.01
09.765,365.12
09.781,363.76
09.796,352.51
09.812,331.36
09.828,300.45
09.843,260.33
09.859,211.87
09.875,156.26
09.890,95.29
09.906,31.12
09.921,-33.5
09.937,-95.52
09.953,-151.78
09.968,-199.23
09.984,-235.37
10.000,-258.29
10.015,-267.21
10.031,-262.37
10.046,-245.15
10.062,-217.85
10.078,-183.52
10.093,-145.67
10.109,-107.89
10.125,-73.42
10.140,-44.82
10.156,-23.81
10.171,-11.04
10.187,-6.19
10.203,-8.2
10.218,-15.65
10.234,-27.34
10.250,-42.33
10.265,-60.09
10.281,-80.2
10.296,-102.15
10.312,-124.94
10.328,-146.93
10.343,-166.04
10.359,-180.01
10.375,-187.24
10.390,-186.82
10.406,-178.97
10.421,-164.23
10.437,-143.36
10.453,-117.05
10.468,-85.68
10.484,-49.66
10.500,-9.43
10.515,33.79
10.531,78.11
10.546,120.89
10.562,159.93
10.578,193.89
10.593,222.45
10.609,246.28
10.625,266.43
10.640,284.01
10.656,299.67
10.671,313.71
10.687,326.36
10.703,338.91
10.718,352.02
10.734,364.92
10.750,375.45
10.765,381.22
10.781,381.58
10.796,378.87
10.812,377.81
10.828,383.03
10.843,399.52
10.859,427.24
10.875,461.02
10.890,493.12
10.906,517.26
10.921,532.02
10.937,541.75
10.953,554.03
10.968,575.36
10.984,614.53
11.000,674.52
11.015,752.07
11.031,839.27
11.046,926.61
11.062,1005.98
11.078,1072.42
11.093,1123.56
11.109,1157.26
11.125,1181.82
11.140,1204.66
11.156,1230.61
11.171,1260.71
11.187,1292.47
11.203,1321.15
11.218,1340.68
11.234,1343.92
11.250,1321.47
11.265,1279.45
11.281,1226.03
11.296,1169.38
11.312,1114.89
11.328,1063.87
11.343,1014.92
11.359,966.02
11.375,916.25
11.390,796.97
11.406,573.69
11.421,245.31
11.437,-149.9
11.453,-550.76
11.468,-902.52
11.484,-1176.17
11.500,-1368.86
11.515,-1479.21
11.531,-1536.32
11.546,-1551.71
11.562,-1531.34
11.578,-1480.26
11.593,-1406.71
11.609,-1321.74
11.625,-1235.84
11.640,-1159.33
11.656,-1095.09
11.671,-1044.46
11.687,-993.6
11.703,-931.23
11.718,-852.63
11.734,-760.81
11.750,-663.55
11.765,-568.47
11.781,-479.52
11.796,-396.38
11.812,-326.2
11.828,-267.96
11.843,-223.51
11.859,-196.25
11.875,-188.38
11.890,-198.68
11.906,-222.3
11.921,-253.56
11.937,-284.99
11.953,-319.06
11.968,-354.02
11.984,-387.88
12.000,-418.67
12.015,-445.6
12.031,-469.92
12.046,-494.1
12.062,-519.67
12.078,-545.77
12.093,-570.57
12.109,-587.15
12.125,-589.32
12.140,-574.5
12.156,-545.37
12.171,-508.67
12.187,-470.59
12.203,-438.46
12.218,-414.0
12.234,-396.05
12.250,-379.73
12.265,-359.64
12.281,-330.69
12.296,-288.13
12.312,-228.07
12.328,-146.19
12.343,-48.12
12.359,57.12
12.375,154.88
12.390,230.0
12.406,271.97
12.421,279.89
12.437,264.16
12.453,242.99
12.468,239.38
12.484,263.5
12.500,319.16
12.515,400.16
12.531,494.71
12.546,589.73
12.562,674.24
12.578,740.71
12.593,762.74
12.609,763.77
12.625,737.69
12.640,684.55
12.656,607.6
12.671,513.93
12.687,413.46
12.703,316.51
12.718,232.05
12.734,165.3
12.750,120.3
12.765,88.66
12.781,62.2
12.796,31.9
12.812,-8.48
12.828,-59.76
12.843,-117.63
12.859,-174.88
12.875,-225.32
12.890,-263.81
12.906,-294.37
12.921,-318.93
12.937,-336.64
12.953,-342.46
12.968,-329.05
12.984,-291.67
13.000,-232.02
13.015,-159.18
13.031,-84.55
13.046,-21.76
13.062,22.48
13.078,47.71
13.093,57.34
13.109,55.38
13.125,43.66
13.140,22.53
13.156,-7.06
13.171,-40.75
13.187,-73.22
13.203,-98.02
13.218,-110.58
13.234,-109.54
13.250,-95.84
13.265,-72.42
13.281,-41.72
13.296,-4.95
13.312,38.32
13.328,88.42
13.343,145.18
13.359,207.08
13.375,271.38
13.390,334.81
13.406,392.16
13.421,437.96
13.437,467.36
13.453,477.4
13.468,467.45
13.484,438.49
13.500,391.96
13.515,329.21
13.531,251.5
13.546,158.22
13.562,48.8
13.578,-75.84
13.593,-212.21
13.609,-354.26
13.625,-494.73
13.640,-626.88
13.656,-745.23
13.671,-832.15
13.687,-870.35
13.703,-849.57
13.718,-773.12
13.734,-657.59
13.750,-524.5
13.765,-391.66
13.781,-269.45
13.796,-161.58
13.812,-68.32
13.828,9.41
13.843,70.15
13.859,113.07
13.875,139.75
13.890,154.98
13.906,164.03
13.921,171.39
13.937,179.9
13.953,189.99
13.968,198.34
13.984,200.32
14.000,191.87
14.015,171.73
14.031,141.7
14.046,105.44
14.062,66.92
14.078,28.15
14.093,-9.39
14.109,-46.3
14.125,-84.23
14.140,-124.95
14.156,-169.46
14.171,-217.76
14.187,-268.23
14.203,-317.23
14.218,-358.78
14.234,-385.34
14.250,-390.64
14.265,-371.7
14.281,-330.55
14.296,-273.29
14.312,-208.35
14.328,-143.34
14.343,-82.79
14.359,-27.74
14.375,22.77
14.390,69.25
14.406,110.63
14.421,144.96
14.437,170.83
14.453,188.44
14.468,199.66
14.484,207.21
14.500,213.18
14.515,218.1
14.531,220.64
14.546,218.17
14.562,210.3
14.578,198.71
14.593,186.77
14.609,178.12
14.625,174.78
14.640,176.39
14.656,180.6
14.671,183.41
14.687,180.78
14.703,172.4
14.718,159.58
14.734,142.91
14.750,121.07
14.765,91.15
14.781,51.44
14.796,4.44
14.812,-43.53
14.828,-83.66
14.843,-103.98
14.859,-95.15
14.875,-52.76
14.890,22.36
14.906,126.24
14.921,254.11
14.937,400.82
14.953,557.44
14.968,695.63
14.984,784.07
15.000,797.08
15.015,727.8
15.031,591.34
15.046,416.21
15.062,231.61
15.078,58.64
15.093,-90.36
15.109,-222.15
15.125,-341.06
15.140,-446.41
15.156,-533.19
15.171,-595.83
15.187,-631.69
15.203,-642.52
15.218,-619.11
15.234,-560.94
15.250,-474.02
15.265,-367.27
15.281,-254.07
15.296,-149.78
15.312,-67.76
15.328,-15.57
15.343,7.08
15.359,7.48
15.375,-5.47
15.390,-23.56
15.406,-39.46
15.421,-49.39
15.437,-52.45
15.453,-49.15
15.468,-40.3
15.484,-26.76
15.500,-10.12
15.515,5.6
15.531,16.03
15.546,19.28
15.562,15.95
15.578,8.91
15.593,1.98
15.609,-1.55
15.625,-0.21
15.640,5.47
15.656,12.43
15.671,17.23
15.687,18.02
15.703,14.69
15.718,8.75
15.734,2.59
15.750,-1.63
15.765,-2.88
15.781,-1.19
15.796,1.87
15.812,4.43
15.828,5.21
15.843,3.84
15.859,0.87
15.875,-2.52
15.890,-4.96
15.906,-5.88
15.921,-5.09
15.937,-3.27
15.953,-1.68
15.968,-1.19
15.984,-2.3
16.000,-4.96
16.015,-8.57
16.031,-11.97
16.046,-14.0
16.062,-13.12
16.078,-7.87
16.093,2.7
16.109,19.39
16.125,42.27
16.140,70.5
16.156,102.38
16.171,135.85
16.187,167.57
16.203,194.3
16.218,213.04
16.234,221.53
16.250,218.6
16.265,204.03
16.281,178.73
16.296,143.82
16.312,103.22
16.328,60.44
16.343,19.14
16.359,-17.64
16.375,-47.67
16.390,-69.8
16.406,-84.36
16.421,-92.75
16.437,-96.58
16.453,-97.67
16.468,-97.91
16.484,-97.63
16.500,-96.73
16.515,-94.86
16.531,-91.85
16.546,-88.15
16.562,-84.75
16.578,-82.46
16.593,-81.99
16.609,-83.48
16.625,-86.04
16.640,-88.4
16.656,-89.43
16.671,-88.48
16.687,-85.88
16.703,-82.53
16.718,-79.43
16.734,-77.48
16.750,-77.31
16.765,-79.26
16.781,-83.23
16.796,-88.01
16.812,-90.81
16.828,-87.67
16.843,-74.84
16.859,-50.83
16.875,-17.91
16.890,18.19
16.906,50.28
16.921,72.57
16.937,82.94
16.953,83.24
16.968,77.69
16.984,70.4
17.000,63.75
17.015,57.95
17.031,52.32
17.046,46.49
17.062,41.03
17.078,37.16
17.093,35.73
17.109,36.44
17.125,38.02
17.140,38.86
17.156,37.59
17.171,34.15
17.187,29.46
17.203,24.92
17.218,21.77
17.234,20.55
17.250,20.78
17.265,21.14
17.281,19.99
17.296,15.87
17.312,8.02
17.328,-3.54
17.343,-18.29
17.359,-35.48
17.375,-54.29
17.390,-73.92
17.406,-93.54
17.421,-111.98
17.437,-128.03
17.453,-139.6
17.468,-144.77
17.484,-142.09
17.500,-130.92
17.515,-111.83
17.531,-86.53
17.546,-57.64
17.562,-28.09
17.578,-0.67
17.593,22.73
17.609,40.99
17.625,53.86
17.640,61.79
17.656,65.58
17.671,66.02
17.687,63.85
17.703,59.98
17.718,55.3
17.734,50.9
17.750,47.96
17.765,47.55
17.781,50.36
17.796,56.66
17.812,65.87
17.828,76.95
17.843,88.82
17.859,100.6
17.875,111.9
17.890,122.74
17.906,133.41
17.921,144.2
17.937,155.29
17.953,166.43
17.968,176.82
17.984,184.86
18.000,188.4
18.015,185.02
18.031,172.91
18.046,151.73
18.062,123.19
18.078,90.7
18.093,58.43
18.109,29.97
18.125,7.37
18.140,-9.25
18.156,-21.2
18.171,-30.14
18.187,-37.34
18.203,-43.11
18.218,-47.21
18.234,-49.32
18.250,-49.45
18.265,-47.94
18.281,-45.2
18.296,-41.43
18.312,-36.64
18.328,-30.71
18.343,-23.73
18.359,-16.17
18.375,-8.86
18.390,-2.92
18.406,0.42
18.421,-0.03
18.437,-4.02
18.453,-12.12
18.468,-25.42
18.484,-45.48
18.500,-73.96
18.515,-112.0
18.531,-159.77
18.546,-215.81
18.562,-276.56
18.578,-336.78
18.593,-390.18
18.609,-430.53
18.625,-452.91
18.640,-454.85
18.656,-436.93
18.671,-402.91
18.687,-358.85
18.703,-311.64
18.718,-266.99
18.734,-227.83
18.750,-192.95
18.765,-157.77
18.781,-116.46
18.796,-64.92
18.812,-3.51
18.828,62.71
18.843,125.83
18.859,177.94
18.875,214.13
18.890,233.93
18.906,240.91
18.921,241.08
18.937,241.02
18.953,245.66
18.968,258.11
18.984,279.68
19.000,309.81
19.015,346.73
19.031,387.91
19.046,430.46
19.062,472.07
19.078,510.37
19.093,541.01
19.109,557.69
19.125,553.37
19.140,522.45
19.156,464.13
19.171,383.7
19.187,290.92
19.203,196.43
19.218,107.57
19.234,24.51
19.250,-57.42
19.265,-143.44
19.281,-235.63
19.296,-331.53
19.312,-426.34
19.328,-516.53
19.343,-601.71
19.359,-673.19
19.375,-721.3
19.390,-735.75
19.406,-709.84
19.421,-644.8
19.437,-549.51
19.453,-437.37
19.468,-321.9
19.484,-213.56
19.500,-117.96
19.515,-38.16
19.531,25.86
19.546,76.37
19.562,117.12
19.578,152.59
19.593,186.63
19.609,221.17
19.625,258.42
19.640,297.48
19.656,333.9
19.671,362.72
19.687,379.67
19.703,381.96
19.718,368.77
19.734,340.59
19.750,298.93
19.765,240.82
19.781,171.39
19.796,96.34
19.812,20.44
19.828,-52.87
19.843,-120.35
19.859,-177.98
19.875,-220.79
19.890,-243.94
19.906,-245.34
19.921,-227.08
19.937,-197.55
19.953,-168.17
19.968,-149.25
19.984,-145.97
20.000,-157.21
20.015,-178.17
20.031,-201.06
20.046,-219.59
20.062,-229.7
20.078,-230.53
20.093,-222.63
20.109,-206.8
20.125,-183.58
20.140,-154.14
20.156,-120.97
20.171,-87.44
20.187,-57.37
20.203,-33.7
20.218,-18.07
20.234,-10.41
20.250,-9.28
20.265,-12.08
20.281,-16.46
20.296,-20.93
20.312,-24.58
20.328,-27.06
20.343,-27.74
20.359,-25.42
20.375,-18.46
20.390,-7.81
20.406,6.13
20.421,22.34
20.437,38.89
20.453,53.65
20.468,64.55
20.484,70.39
20.500,70.99
20.515,66.75
20.531,58.44
20.546,46.98
20.562,32.95
20.578,16.57
20.593,-1.61
20.609,-20.44
20.625,-37.92
20.640,-51.47
20.656,-58.7
20.671,-58.12
20.687,-49.29
20.703,-33.08
20.718,-11.24
20.734,14.58
20.750,43.35
20.765,74.94
20.781,110.11
20.796,149.93
20.812,195.55
20.828,247.91
20.843,306.74
20.859,369.61
20.875,431.49
20.890,485.02
20.906,522.36
20.921,537.94
20.937,530.42
20.953,503.3
20.968,463.36
20.984,417.56
21.000,370.48
21.015,323.56
21.031,276.24
21.046,227.96
21.062,179.96
21.078,135.25
21.093,97.03
21.109,67.0
21.125,44.2
21.140,25.27
21.156,5.98
21.171,-17.16
21.187,-45.98
21.203,-79.9
21.218,-116.34
21.234,-151.42
21.250,-180.85
21.265,-201.05
21.281,-210.02
21.296,-207.97
21.312,-197.63
21.328,-183.83
21.343,-172.19
21.359,-167.71
21.375,-172.98
21.390,-187.25
21.406,-206.67
21.421,-225.55
21.437,-238.44
21.453,-242.1
21.468,-236.29
21.484,-223.24
21.500,-206.29
21.515,-188.23
21.531,-170.26
21.546,-152.32
21.562,-133.81
21.578,-114.31
21.593,-94.01
21.609,-73.45
21.625,-53.06
21.640,-32.94
21.656,-13.12
21.671,6.15
21.687,23.85
21.703,38.28
21.718,47.49
21.734,49.89
21.750,45.03
21.765,33.94
21.781,19.06
21.796,3.65
21.812,-9.1
21.828,-17.05
21.843,-19.49
21.859,-17.09
21.875,-11.48
21.890,-4.16
21.906,4.02
21.921,13.11
21.937,23.64
21.953,35.95
21.968,49.48
21.984,62.73
22.000,73.48
22.015,79.31
22.031,78.28
22.046,69.46
22.062,53.1
22.078,30.61
22.093,4.17
22.109,-23.7
22.125,-50.65
22.140,-74.8
22.156,-95.01
22.171,-110.57
22.187,-121.08
22.203,-126.31
22.218,-126.14
22.234,-120.8
22.250,-111.17
22.265,-98.76
22.281,-85.42
22.296,-73.05
22.312,-62.88
22.328,-55.33
22.343,-50.18
22.359,-46.82
22.375,-44.38
22.390,-41.97
22.406,-38.35
22.421,-31.99
22.437,-21.38
22.453,-5.34
22.468,16.19
22.484,41.94
22.500,69.46
22.515,95.76
22.531,118.04
22.546,134.4
22.562,144.18
22.578,147.78
22.593,146.66
22.609,142.79
22.625,138.3
22.640,135.07
22.656,134.23
22.671,135.82
22.687,139.12
22.703,143.0
22.718,146.27
22.734,148.34
22.750,148.99
22.765,148.31
22.781,146.62
22.796,144.26
22.812,141.5
22.828,138.4
22.843,134.84
22.859,130.24
22.875,124.09
22.890,116.18
22.906,107.14
22.921,98.5
22.937,91.99
22.953,88.71
22.968,88.34
22.984,89.27
23.000,89.03
23.015,85.39
23.031,77.03
23.046,63.72
23.062,46.1
23.078,25.11
23.093,2.03
23.109,-21.39
23.125,-42.84
23.140,-59.67
23.156,-69.63
23.171,-71.73
23.187,-66.6
23.203,-56.01
23.218,-42.17
23.234,-26.58
23.250,-9.75
23.265,8.43
23.281,28.02
23.296,48.28
23.312,67.51
23.328,83.38
23.343,93.88
23.359,97.63
23.375,94.28
23.390,84.25
23.406,68.26
23.421,47.27
23.437,22.39
23.453,-4.96
23.468,-32.95
23.484,-59.1
23.500,-80.62
23.515,-95.15
23.531,-101.4
23.546,-99.65
23.562,-91.61
23.578,-79.76
23.593,-66.69
23.609,-54.42
23.625,-44.44
23.640,-38.2
23.656,-37.64
23.671,-45.3
23.687,-63.6
23.703,-93.38
23.718,-132.79
23.734,-177.09
23.750,-219.55
23.765,-253.61
23.781,-274.94
23.796,-282.43
23.812,-278.09
23.828,-265.81
23.843,-249.47
23.859,-231.8
23.875,-214.17
23.890,-197.19
23.906,-181.55
23.921,-168.46
23.937,-159.37
23.953,-154.97
23.968,-154.69
23.984,-156.69
24.000,-158.53
24.015,-158.5
24.031,-156.01
24.046,-151.48
24.062,-145.3
24.078,-136.96
24.093,-124.86
24.109,-107.51
24.125,-84.81
24.140,-58.77
24.156,-33.1
24.171,-11.4
24.187,4.31
24.203,14.45
24.218,21.47
24.234,28.39
24.250,37.26
24.265,48.4
24.281,60.56
24.296,71.99
24.312,81.61
24.328,89.88
24.343,98.59
24.359,110.05
24.375,125.48
24.390,143.81
24.406,161.5
24.421,173.65
24.437,175.98
24.453,166.73
24.468,147.42
24.484,121.89
24.500,94.57
24.515,68.56
24.531,45.06
24.546,23.97
24.562,5.31
24.578,-10.1
24.593,-20.56
24.609,-24.5
24.625,-21.53
24.640,-12.88
24.656,-1.1
24.671,11.15
24.687,21.77
24.703,29.79
24.718,35.14
24.734,38.23
24.750,39.2
24.765,37.84
24.781,33.52
24.796,25.7
24.812,14.35
24.828,0.23
24.843,-15.12
24.859,-29.78
24.875,-41.81
24.890,-49.91
24.906,-53.48
24.921,-52.55
24.937,-47.46
24.953,-38.6
24.968,-26.35
24.984,-11.25
25.000,5.73
25.015,23.16
25.031,39.34
25.046,52.65
25.062,61.85
25.078,66.46
25.093,66.72
25.109,63.44
25.125,57.7
25.140,50.5
25.156,42.72
25.171,35.13
25.187,28.35
25.203,22.79
25.218,18.55
25.234,15.42
25.250,13.0
25.265,10.82
25.281,8.5
25.296,5.9
25.312,3.14
25.328,0.47
25.343,-1.81
25.359,-3.47
25.375,-4.53
25.390,-5.14
25.406,-5.61
25.421,-6.34
25.437,-7.73
25.453,-10.0
25.468,-13.07
25.484,-16.64
25.500,-20.04
25.515,-22.84
25.531,-24.82
25.546,-26.11
25.562,-27.12
25.578,-28.18
25.593,-29.45
25.609,-30.57
25.625,-30.94
25.640,-29.88
25.656,-27.07
25.671,-22.59
25.687,-17.05
25.703,-11.25
25.718,-5.91
25.734,-1.45
25.750,2.12
25.765,5.05
25.781,7.72
25.796,10.29
25.812,12.82
25.828,15.16
25.843,17.08
25.859,18.49
25.875,19.46
25.890,20.24
25.906,21.03
25.921,21.98
25.937,22.93
25.953,23.63
25.968,23.84
25.984,23.4
26.000,22.47
26.015,21.34
26.031,20.37
26.046,19.69
26.062,19.23
26.078,18.66
26.093,17.62
26.109,15.97
26.125,13.69
26.140,11.01
26.156,8.22
26.171,5.57
26.187,3.18
26.203,1.16
26.218,-0.59
26.234,-2.2
26.250,-3.68
26.265,-5.02
26.281,-6.11
26.296,-6.82
26.312,-7.02
26.328,-6.69
26.343,-5.75
26.359,-4.25
26.375,-2.31
26.390,-0.01
26.406,2.44
26.421,4.88
26.437,7.07
26.453,8.87
26.468,10.2
26.484,11.2
26.500,12.06
26.515,12.83
26.531,13.58
26.546,14.16
26.562,14.45
26.578,14.32
26.593,13.77
26.609,12.93
26.625,12.0
26.640,11.08
26.656,10.2
26.671,9.37
26.687,8.43
26.703,7.37
26.718,6.16
26.734,4.82
26.750,3.43
26.765,2.1
26.781,0.87
26.796,-0.23
26.812,-1.19
26.828,-2.14
26.843,-3.2
26.859,-4.43
26.875,-5.83
26.890,-7.37
26.906,-8.9
26.921,-10.27
26.937,-11.39
26.953,-12.17
26.968,-12.6
26.984,-12.69
27.000,-12.36
27.015,-11.43
27.031,-9.77
27.046,-7.27
27.062,-3.93
27.078,-0.01
27.093,4.22
27.109,8.35
27.125,11.99
27.140,14.82
27.156,16.6
27.171,17.23
27.187,16.65
27.203,15.05
27.218,12.64
27.234,9.92
27.250,7.35
27.265,5.41
27.281,4.41
27.296,4.26
27.312,4.53
27.328,4.55
27.343,3.83
27.359,2.24
27.375,0.25
27.390,-1.44
27.406,-2.15
27.421,-1.49
27.437,0.34
27.453,2.86
27.468,5.39
27.484,7.5
27.500,8.88
27.515,9.48
27.531,9.37
27.546,8.66
27.562,7.52
27.578,6.02
27.593,4.34
27.609,2.67
27.625,1.32
27.640,0.65
27.656,1.06
27.671,2.98
27.687,6.57
27.703,11.73
27.718,18.04
27.734,24.96
27.750,31.99
27.765,38.67
27.781,44.79
27.796,50.0
27.812,54.05
27.828,56.68
27.843,57.7
27.859,57.06
27.875,54.94
27.890,51.64
27.906,47.43
27.921,42.63
27.937,37.35
27.953,31.78
27.968,26.16
27.984,20.88
28.000,16.29
28.015,12.62
28.031,9.76
28.046,7.22
28.062,4.31
28.078,0.19
28.093,-5.63
28.109,-13.14
28.125,-21.85
28.140,-30.87
28.156,-39.2
28.171,-46.07
28.187,-50.93
28.203,-53.42
28.218,-53.46
28.234,-51.07
28.250,-46.37
28.265,-39.87
28.281,-32.17
28.296,-24.07
28.312,-16.47
28.328,-10.02
28.343,-5.1
28.359,-1.77
28.375,0.39
28.390,1.96
28.406,3.59
28.421,5.77
28.437,8.66
28.453,12.0
28.468,15.35
28.484,18.35
28.500,20.9
28.515,23.3
28.531,25.9
28.546,28.84
28.562,31.9
28.578,34.54
28.593,36.22
28.609,36.69
28.625,36.31
28.640,35.73
28.656,35.61
28.671,36.18
28.687,37.1
28.703,37.62
28.718,36.98
28.734,34.8
28.750,31.23
28.765,26.86
28.781,22.39
28.796,18.39
28.812,15.02
28.828,12.16
28.843,9.52
28.859,6.78
28.875,3.75
28.890,0.32
28.906,-3.52
28.921,-7.78
28.937,-12.27
28.953,-16.81
28.968,-21.06
28.984,-24.46
29.000,-26.45
29.015,-26.5
29.031,-24.28
29.046,-19.89
29.062,-14.04
29.078,-7.91
29.093,-2.91
29.109,-0.29
29.125,-0.67
29.140,-3.9
29.156,-9.17
29.171,-15.28
29.187,-21.01
29.203,-25.55
29.218,-28.58
29.234,-30.18
29.250,-30.71
29.265,-30.48
29.281,-29.71
29.296,-28.28
29.312,-26.0
29.328,-22.72
29.343,-18.61
29.359,-14.16
29.375,-10.06
29.390,-6.78
29.406,-4.33
29.421,-2.28
29.437,-0.04
29.453,2.75
29.468,5.98
29.484,9.09
29.500,11.52
29.515,12.91
29.531,13.31
29.546,13.13
29.562,12.69
29.578,12.0
29.593,10.8
29.609,8.71
29.625,5.56
29.640,1.66
29.656,-2.28
29.671,-5.62
29.687,-7.91
29.703,-9.34
29.718,-10.42
29.734,-11.71
29.750,-13.41
29.765,-15.41
29.781,-17.23
29.796,-18.49
29.812,-19.2
29.828,-19.61
29.843,-20.06
29.859,-20.66
29.875,-21.03
29.890,-20.71
29.906,-19.37
29.921,-17.03
29.937,-14.13
29.953,-11.39
29.968,-9.36
29.984,-8.31
30.000,-8.01
30.015,-8.02
30.031,-7.9
30.046,-7.34
30.062,-6.39
30.078,-5.35
30.093,-4.67
30.109,-4.69
30.125,-5.51
30.140,-6.81
30.156,-8.13
30.171,-9.0
30.187,-9.16
30.203,-8.65
30.218,-7.84
30.234,-7.04
30.250,-6.47
30.265,-6.15
30.281,-5.94
30.296,-5.64
30.312,-5.24
30.328,-4.89
30.343,-4.89
30.359,-5.54
30.375,-6.92
30.390,-8.89
30.406,-11.07
30.421,-13.12
30.437,-14.63
30.453,-15.35
30.468,-15.0
30.484,-13.33
30.500,-10.12
30.515,-5.37
30.531,0.52
30.546,6.81
30.562,12.49
30.578,16.65
30.593,18.81
30.609,19.12
30.625,18.07
30.640,16.46
30.656,14.85
30.671,13.48
30.687,12.21
30.703,10.79
30.718,9.01
30.734,6.92
30.750,4.88
30.765,3.24
30.781,2.25
30.796,1.8
30.812,1.58
30.828,1.15
30.843,0.33
30.859,-0.79
30.875,-1.97
30.890,-2.92
30.906,-3.48
30.921,-3.74
30.937,-3.93
30.953,-4.29
30.968,-4.95
30.984,-5.92
31.000,-7.06
31.015,-8.26
31.031,-9.43
31.046,-10.52
31.062,-11.59
31.078,-12.64
31.093,-13.71
31.109,-14.72
31.125,-15.63
31.140,-16.37
31.156,-16.9
31.171,-17.16
31.187,-17.1
31.203,-16.6
31.218,-15.48
31.234,-13.69
31.250,-11.14
31.265,-7.99
31.281,-4.46
31.296,-0.81
31.312,2.83
31.328,6.42
31.343,10.01
31.359,13.77
31.375,17.73
31.390,21.79
31.406,25.75
31.421,29.43
31.437,32.71
31.453,35.69
31.468,38.58
31.484,41.63
31.500,45.0
31.515,48.53
31.531,51.72
31.546,53.89
31.562,54.44
31.578,52.99
31.593,49.55
31.609,44.48
31.625,38.26
31.640,31.34
31.656,24.02
31.671,16.43
31.687,8.72
31.703,1.13
31.718,-5.99
31.734,-12.15
31.750,-16.91
31.765,-20.03
31.781,-21.52
31.796,-21.76
31.812,-21.24
31.828,-20.46
31.843,-19.79
31.859,-19.44
31.875,-19.31
31.890,-19.23
31.906,-19.03
31.921,-18.52
31.937,-17.78
31.953,-16.93
31.968,-16.13
31.984,-15.54
32.000,-15.21
32.015,-15.07
32.031,-15.04
32.046,-15.07
32.062,-15.12
32.078,-15.28
32.093,-15.59
32.109,-16.01
32.125,-16.42
32.140,-16.65
32.156,-16.55
32.171,-16.12
32.187,-15.55
32.203,-14.99
32.218,-14.68
32.234,-14.62
32.250,-14.67
32.265,-14.6
32.281,-14.17
32.296,-13.19
32.312,-11.57
32.328,-9.36
32.343,-6.64
32.359,-3.62
32.375,-0.46
32.390,2.66
32.406,5.52
32.421,7.99
32.437,9.88
32.453,11.08
32.468,11.41
32.484,10.95
32.500,9.92
32.515,8.82
32.531,8.28
32.546,8.8
32.562,10.56
32.578,13.26
32.593,16.27
32.609,18.9
32.625,20.76
32.640,21.76
32.656,22.15
32.671,22.27
32.687,22.35
32.703,22.46
32.718,22.47
32.734,22.29
32.750,21.93
32.765,21.5
32.781,20.98
32.796,20.19
32.812,18.82
32.828,16.66
32.843,13.71
32.859,10.36
32.875,7.22
32.890,4.94
32.906,3.95
32.921,4.26
32.937,5.49
32.953,6.99
32.968,8.06
32.984,8.18
33.000,7.09
33.015,4.91
33.031,1.95
33.046,-1.23
33.062,-4.16
33.078,-6.61
33.093,-8.62
33.109,-10.46
33.125,-12.47
33.140,-14.91
33.156,-17.7
33.171,-20.65
33.187,-23.51
33.203,-26.04
33.218,-28.15
33.234,-29.85
33.250,-31.16
33.265,-32.05
33.281,-32.55
33.296,-32.52
33.312,-32.08
33.328,-31.36
33.343,-30.54
33.359,-29.63
33.375,-28.55
33.390,-27.03
33.406,-24.75
33.421,-21.57
33.437,-17.53
33.453,-12.88
33.468,-7.91
33.484,-2.77
33.500,2.44
33.515,7.51
33.531,11.97
33.546,15.2
33.562,16.71
33.578,16.28
33.593,14.18
33.609,11.07
33.625,7.72
33.640,4.67
33.656,2.2
33.671,0.34
33.687,-1.0
33.703,-1.8
33.718,-1.96
33.734,-1.43
33.750,-0.22
33.765,1.46
33.781,3.2
33.796,4.71
33.812,5.64
33.828,5.93
33.843,5.53
33.859,4.72
33.875,3.91
33.890,3.49
33.906,3.66
33.921,4.31
33.937,5.13
33.953,5.72
33.968,5.9
33.984,5.7
34.000,5.5
34.015,5.68
34.031,6.45
34.046,7.65
34.062,8.87
34.078,9.66
34.093,9.77
34.109,9.32
34.125,8.6
34.140,7.99
34.156,7.65
34.171,7.52
34.187,7.39
34.203,7.04
34.218,6.35
34.234,5.4
34.250,4.43
34.265,3.57
34.281,2.87
34.296,2.27
34.312,1.55
34.328,0.7
34.343,-0.27
34.359,-1.19
34.375,-1.95
34.390,-2.39
34.406,-2.63
34.421,-2.9
34.437,-3.36
34.453,-4.22
34.468,-5.42
34.484,-6.79
34.500,-7.98
34.515,-8.76
34.531,-8.9
34.546,-8.36
34.562,-7.35
34.578,-6.05
34.593,-4.76
34.609,-3.59
34.625,-2.58
34.640,-1.57
34.656,-0.41
34.671,1.02
34.687,2.57
34.703,3.85
34.718,4.47
34.734,4.08
34.750,2.73
34.765,0.68
34.781,-1.57
34.796,-3.57
34.812,-5.02
34.828,-6.01
34.843,-6.79
34.859,-7.53
34.875,-8.51
34.890,-9.64
34.906,-10.69
34.921,-11.34
34.937,-11.29
34.953,-10.34
34.968,-8.61
34.984,-6.31
35.000,-3.69
35.015,-1.11
35.031,1.17
35.046,2.99
35.062,4.14
35.078,4.46
35.093,3.92
35.109,2.63
35.125,0.94
35.140,-0.67
35.156,-1.82
35.171,-2.38
35.187,-2.57
35.203,-2.75
35.218,-3.34
35.234,-4.4
35.250,-5.65
35.265,-6.55
35.281,-6.55
35.296,-5.5
35.312,-3.53
35.328,-1.11
35.343,1.32
35.359,3.56
35.375,5.64
35.390,7.72
35.406,9.97
35.421,12.32
35.437,14.35
35.453,15.62
35.468,15.82
35.484,14.86
35.500,13.16
35.515,11.27
35.531,9.67
35.546,8.65
35.562,8.23
35.578,8.21
35.593,8.43
35.609,8.87
35.625,9.52
35.640,10.44
35.656,11.56
35.671,12.73
35.687,13.61
35.703,14.01
35.718,13.77
35.734,12.9
35.750,11.49
35.765,9.69
35.781,7.72
35.796,5.84
35.812,4.27
35.828,3.14
35.843,2.46
35.859,2.08
35.875,1.84
35.890,1.54
35.906,1.01
35.921,0.23
35.937,-0.85
35.953,-2.2
35.968,-3.66
35.984,-5.15
36.000,-6.47
36.015,-7.6
36.031,-8.6
36.046,-9.57
36.062,-10.64
36.078,-11.82
36.093,-13.08
36.109,-14.36
36.125,-15.66
36.140,-17.0
36.156,-18.39
36.171,-19.71
36.187,-20.75
36.203,-21.25
36.218,-21.02
36.234,-19.98
36.250,-18.23
36.265,-15.93
36.281,-13.29
36.296,-10.4
36.312,-7.43
36.328,-4.5
36.343,-1.8
36.359,0.52
36.375,2.32
36.390,3.64
36.406,4.64
36.421,5.63
36.437,6.85
36.453,8.34
36.468,10.0
36.484,11.45
36.500,12.35
36.515,12.36
36.531,11.4
36.546,9.74
36.562,7.83
36.578,6.12
36.593,4.97
36.609,4.53
36.625,4.67
36.640,5.19
36.656,5.97
36.671,6.98
36.687,8.31
36.703,9.99
36.718,11.78
36.734,13.3
36.750,14.18
36.765,14.15
36.781,13.28
36.796,11.92
36.812,10.4
36.828,8.92
36.843,7.5
36.859,6.01
36.875,4.36
36.890,2.61
36.906,0.93
36.921,-0.48
36.937,-1.53
36.953,-2.35
36.968,-3.17
36.984,-4.23
37.000,-5.7
37.015,-7.6
37.031,-9.82
37.046,-12.35
37.062,-15.04
37.078,-17.89
37.093,-20.8
37.109,-23.57
37.125,-25.92
37.140,-27.69
37.156,-28.77
37.171,-29.12
37.187,-28.82
37.203,-27.83
37.218,-26.1
37.234,-23.55
37.250,-20.15
37.265,-16.13
37.281,-11.97
37.296,-8.21
37.312,-5.21
37.328,-3.14
37.343,-1.72
37.359,-0.38
37.375,1.57
37.390,4.74
37.406,9.36
37.421,15.33
37.437,22.11
37.453,28.95
37.468,34.93
37.484,39.41
37.500,42.0
37.515,42.8
37.531,42.32
37.546,41.23
37.562,40.12
37.578,39.22
37.593,38.37
37.609,37.18
37.625,35.49
37.640,33.36
37.656,31.2
37.671,29.41
37.687,28.14
37.703,27.13
37.718,25.78
37.734,23.47
37.750,19.98
37.765,15.7
37.781,11.43
37.796,8.17
37.812,6.48
37.828,6.48
37.843,7.77
37.859,9.78
37.875,12.05
37.890,14.53
37.906,17.51
37.921,21.4
37.937,26.57
37.953,32.93
37.968,40.02
37.984,47.32
38.000,54.47
38.015,61.35
38.031,68.08
38.046,74.77
38.062,81.36
38.078,87.57
38.093,92.69
38.109,95.86
38.125,96.58
38.140,94.96
38.156,91.85
38.171,88.64
38.187,86.66
38.203,86.83
38.218,89.52
38.234,93.76
38.250,98.12
38.265,101.17
38.281,102.23
38.296,101.67
38.312,100.72
38.328,100.74
38.343,102.65
38.359,106.97
38.375,112.5
38.390,117.41
38.406,119.75
38.421,118.08
38.437,112.03
38.453,101.96
38.468,88.29
38.484,70.79
38.500,48.67
38.515,18.87
38.531,-22.69
38.546,-80.04
38.562,-155.54
38.578,-248.45
38.593,-354.96
38.609,-468.9
38.625,-583.73
38.640,-682.89
38.656,-749.1
38.671,-768.17
38.687,-735.0
38.703,-655.94
38.718,-545.18
38.734,-418.7
38.750,-288.94
38.765,-163.97
38.781,-47.73
38.796,56.72
38.812,147.25
38.828,222.52
38.843,282.42
38.859,328.75
38.875,363.89
38.890,392.07
38.906,415.31
38.921,434.11
38.937,446.83
38.953,451.28
38.968,445.72
38.984,429.97
39.000,405.98
39.015,376.83
39.031,346.11
39.046,316.47
39.062,289.73
39.078,265.83
39.093,243.57
39.109,220.96
39.125,195.86
39.140,168.78
39.156,140.46
39.171,111.79
39.187,83.18
39.203,54.84
39.218,26.54
39.234,-2.1
39.250,-31.25
39.265,-60.62
39.281,-89.32
39.296,-116.42
39.312,-140.92
39.328,-162.12
39.343,-179.53
39.359,-192.88
39.375,-202.11
39.390,-207.13
39.406,-207.8
39.421,-203.84
39.437,-195.08
39.453,-181.43
39.468,-162.96
39.484,-139.88
39.500,-112.57
39.515,-81.69
39.531,-48.13
39.546,-13.05
39.562,22.14
39.578,55.77
39.593,86.22
39.609,112.13
39.625,132.67
39.640,147.57
39.656,157.09
39.671,161.8
39.687,162.57
39.703,160.18
39.718,155.15
39.734,147.83
39.750,138.59
39.765,127.95
39.781,116.73
39.796,105.89
39.812,96.26
39.828,88.37
39.843,82.08
39.859,76.55
39.875,70.47
39.890,62.5
39.906,51.75
39.921,37.96
39.937,21.53
39.953,3.0
39.968,-17.39
39.984,-40.15
40.000,-66.45
40.015,-97.84
40.031,-135.49
40.046,-179.45
40.062,-228.51
40.078,-280.52
40.093,-332.85
40.109,-383.16
40.125,-429.97
40.140,-472.57
40.156,-510.91
40.171,-545.72
40.187,-578.21
40.203,-609.89
40.218,-641.69
40.234,-672.5
40.250,-698.33
40.265,-712.89
40.281,-709.44
40.296,-683.63
40.312,-636.11
40.328,-572.52
40.343,-501.63
40.359,-432.05
40.375,-369.41
40.390,-315.34
40.406,-268.59
40.421,-227.06
40.437,-189.47
40.453,-156.04
40.468,-127.48
40.484,-104.14
40.500,-85.28
40.515,-69.62
40.531,-56.1
40.546,-44.46
40.562,-35.33
40.578,-29.94
40.593,-29.45
40.609,-33.96
40.625,-42.44
40.640,-52.66
40.656,-61.94
40.671,-67.78
40.687,-68.54
40.703,-63.54
40.718,-53.34
40.734,-39.32
40.750,-23.05
40.765,-5.92
40.781,11.35
40.796,28.79
40.812,47.04
40.828,66.99
40.843,89.34
40.859,114.13
40.875,140.61
40.890,167.33
40.906,192.78
40.921,215.88
40.937,236.41
40.953,255.14
40.968,273.45
40.984,292.69
41.000,313.95
41.015,337.9
41.031,364.49
41.046,392.78
41.062,420.34
41.078,443.2
41.093,456.8
41.109,457.78
41.125,445.78
41.140,424.28
41.156,399.3
41.171,376.37
41.187,357.59
41.203,340.27
41.218,318.44
41.234,286.2
41.250,241.1
41.265,185.61
41.281,126.23
41.296,70.91
41.312,26.41
41.328,-3.27
41.343,-17.01
41.359,-16.35
41.375,-4.9
41.390,11.84
41.406,27.67
41.421,37.28
41.437,37.84
41.453,29.97
41.468,17.03
41.484,2.97
41.500,-9.66
41.515,-20.57
41.531,-31.23
41.546,-42.98
41.562,-55.94
41.578,-69.04
41.593,-80.81
41.609,-90.07
41.625,-96.18
41.640,-98.48
41.656,-95.73
41.671,-86.62
41.687,-70.49
41.703,-48.73
41.718,-24.84
41.734,-3.37
41.750,12.06
41.765,20.24
41.781,22.71
41.796,22.51
41.812,22.39
41.828,23.82
41.843,26.5
41.859,29.31
41.875,31.11
41.890,31.45
41.906,30.38
41.921,28.39
41.937,25.88
41.953,22.81
41.968,19.18
41.984,14.96
42.000,10.33
42.015,5.65
42.031,0.71
42.046,-5.74
42.062,-15.7
42.078,-31.11
42.093,-52.66
42.109,-78.2
42.125,-103.34
42.140,-122.87
42.156,-133.06
42.171,-133.83
42.187,-129.0
42.203,-124.92
42.218,-127.59
42.234,-140.23
42.250,-161.85
42.265,-188.11
42.281,-212.97
42.296,-230.58
42.312,-236.71
42.328,-229.04
42.343,-207.37
42.359,-173.36
42.375,-130.5
42.390,-83.34
42.406,-36.77
42.421,5.31
42.437,41.01
42.453,70.36
42.468,94.73
42.484,115.45
42.500,132.87
42.515,146.12
42.531,153.87
42.546,155.35
42.562,151.34
42.578,144.39
42.593,137.72
42.609,134.25
42.625,135.02
42.640,138.98
42.656,143.39
42.671,145.22
42.687,142.32
42.703,134.46
42.718,123.21
42.734,110.97
42.750,100.07
42.765,91.76
42.781,86.16
42.796,82.64
42.812,80.65
42.828,80.1
42.843,81.4
42.859,84.98
42.875,90.61
42.890,97.19
42.906,102.85
42.921,105.65
42.937,104.3
42.953,98.59
42.968,89.62
42.984,79.4
43.000,70.23
43.015,63.94
43.031,61.17
43.046,61.16
43.062,62.13
43.078,61.94
43.093,59.02
43.109,53.01
43.125,44.7
43.140,35.67
43.156,27.43
43.171,20.92
43.187,16.16
43.203,12.5
43.218,8.93
43.234,4.64
43.250,-0.88
43.265,-7.79
43.281,-15.94
43.296,-24.88
43.312,-33.72
43.328,-41.19
43.343,-45.91
43.359,-47.09
43.375,-44.91
43.390,-40.86
43.406,-37.13
43.421,-35.69
43.437,-37.17
43.453,-40.49
43.468,-43.2
43.484,-42.71
43.500,-37.42
43.515,-27.45
43.531,-14.46
43.546,-0.89
43.562,11.23
43.578,20.86
43.593,28.01
43.609,33.46
43.625,38.05
43.640,42.33
43.656,46.47
43.671,50.56
43.687,54.75
43.703,59.47
43.718,64.95
43.734,70.97
43.750,76.59
43.765,80.16
43.781,80.27
43.796,76.48
43.812,69.94
43.828,62.86
43.843,57.44
43.859,54.43
43.875,52.56
43.890,49.12
43.906,41.28
43.921,27.83
43.937,10.06
43.953,-8.68
43.968,-24.54
43.984,-34.72
44.000,-38.68
44.015,-37.89
44.031,-34.7
44.046,-31.44
44.062,-29.77
44.078,-30.72
44.093,-35.01
44.109,-42.91
44.125,-53.81
44.140,-66.04
44.156,-77.2
44.171,-84.91
44.187,-88.12
44.203,-87.5
44.218,-85.01
44.234,-82.7
44.250,-81.33
44.265,-80.08
44.281,-77.15
44.296,-71.2
44.312,-62.14
44.328,-51.4
44.343,-40.68
44.359,-30.88
44.375,-21.36
44.390,-10.36
44.406,3.85
44.421,21.75
44.437,42.01
44.453,62.05
44.468,78.64
44.484,89.41
44.500,93.31
44.515,90.9
44.531,83.79
44.546,74.03
44.562,63.35
44.578,53.03
44.593,44.1
44.609,37.44
44.625,34.08
44.640,35.06
44.656,41.04
44.671,51.95
44.687,66.67
44.703,83.0
44.718,98.28
44.734,109.91
44.750,116.0
44.765,115.47
44.781,108.17
44.796,94.75
44.812,76.79
44.828,56.78
44.843,37.82
44.859,22.94
44.875,14.19
44.890,11.87
44.906,14.53
44.921,19.58
44.937,24.26
44.953,26.85
44.968,26.89
44.984,25.23
45.000,23.2
45.015,21.95
45.031,21.79
45.046,22.46
45.062,23.19
45.078,23.15
45.093,21.99
45.109,19.97
45.125,18.12
45.140,17.87
45.156,20.48
45.171,26.5
45.187,35.43
45.203,45.82
45.218,55.62
45.234,63.09
45.250,67.04
45.265,67.11
45.281,63.54
45.296,56.93
45.312,47.91
45.328,37.41
45.343,26.51
45.359,16.21
45.375,6.91
45.390,-2.44
45.406,-14.55
45.421,-32.81
45.437,-59.69
45.453,-94.82
45.468,-134.08
45.484,-170.2
45.500,-195.08
45.515,-202.45
45.531,-190.1
45.546,-160.5
45.562,-119.42
45.578,-74.19
45.593,-31.49
45.609,3.97
45.625,29.76
45.640,45.28
45.656,51.47
45.671,50.52
45.687,45.55
45.703,40.65
45.718,40.02
45.734,46.8
45.750,61.51
45.765,81.01
45.781,98.8
45.796,106.99
45.812,98.93
45.828,71.8
45.843,27.68
45.859,-27.33
45.875,-85.36
45.890,-139.1
45.906,-183.48
45.921,-215.74
45.937,-234.6
45.953,-239.68
45.968,-231.94
45.984,-214.44
46.000,-192.76
46.015,-174.07
46.031,-164.34
46.046,-166.1
46.062,-176.9
46.078,-190.6
46.093,-200.52
46.109,-202.83
46.125,-198.21
46.140,-190.96
46.156,-186.22
46.171,-186.23
46.187,-188.91
46.203,-188.95
46.218,-180.83
46.234,-162.06
46.250,-134.35
46.265,-102.56
46.281,-71.72
46.296,-45.1
46.312,-23.33
46.328,-5.86
46.343,6.96
46.359,12.99
46.375,8.78
46.390,-8.17
46.406,-37.35
46.421,-74.15
46.437,-110.91
46.453,-138.88
46.468,-150.77
46.484,-142.89
46.500,-116.17
46.515,-76.79
46.531,-35.14
46.546,-3.47
46.562,8.01
46.578,-4.88
46.593,-37.71
46.609,-78.39
46.625,-111.88
46.640,-125.8
46.656,-115.37
46.671,-84.19
46.687,-41.51
46.703,2.71
46.718,41.74
46.734,73.59
46.750,99.77
46.765,122.68
46.781,143.89
46.796,162.89
46.812,177.9
46.828,186.38
46.843,185.91
46.859,174.97
46.875,153.96
46.890,125.62
46.906,94.75
46.921,66.79
46.937,45.34
46.953,30.81
46.968,20.65
46.984,11.01
47.000,-0.77
47.015,-14.9
47.031,-29.86
47.046,-44.38
47.062,-59.27
47.078,-77.73
47.093,-103.72
47.109,-139.12
47.125,-182.15
47.140,-227.32
47.156,-267.54
47.171,-296.9
47.187,-312.6
47.203,-314.95
47.218,-306.15
47.234,-288.22
47.250,-262.04
47.265,-227.57
47.281,-184.84
47.296,-135.58
47.312,-83.5
47.328,-33.89
47.343,7.93
47.359,37.87
47.375,54.25
47.390,57.84
47.406,51.48
47.421,39.38
47.437,26.19
47.453,16.35
47.468,13.4
47.484,19.53
47.500,35.01
47.515,58.62
47.531,88.12
47.546,121.0
47.562,155.16
47.578,189.21
47.593,222.48
47.609,254.85
47.625,286.55
47.640,317.89
47.656,349.15
47.671,379.65
47.687,407.13
47.703,427.77
47.718,436.99
47.734,431.44
47.750,410.8
47.765,378.38
47.781,339.85
47.796,300.99
47.812,265.06
47.828,231.86
47.843,198.57
47.859,161.91
47.875,120.38
47.890,75.27
47.906,30.28
47.921,-10.23
47.937,-42.59
47.953,-64.92
47.968,-77.32
47.984,-81.15
48.000,-78.85
48.015,-73.34
48.031,-67.42
48.046,-63.25
48.062,-62.0
48.078,-63.41
48.093,-66.13
48.109,-68.04
48.125,-66.66
48.140,-60.16
48.156,-47.74
48.171,-29.95
48.187,-8.63
48.203,13.57
48.218,33.94
48.234,50.32
48.250,61.76
48.265,68.81
48.281,72.89
48.296,75.8
48.312,78.68
48.328,81.56
48.343,83.26
48.359,82.1
48.375,76.67
48.390,66.72
48.406,53.61
48.421,39.69
48.437,27.47
48.453,18.68
48.468,13.53
48.484,11.07
48.500,9.89
48.515,8.9
48.531,7.93
48.546,7.8
48.562,9.56
48.578,13.94
48.593,20.89
48.609,29.48
48.625,38.41
48.640,46.69
48.656,53.68
48.671,59.2
48.687,63.38
48.703,66.11
48.718,67.27
48.734,66.66
48.750,64.25
48.765,60.31
48.781,55.46
48.796,50.25
48.812,44.87
48.828,39.15
48.843,32.43
48.859,23.99
48.875,13.36
48.890,0.37
48.906,-14.79
48.921,-31.64
48.937,-49.49
48.953,-67.74
48.968,-85.63
48.984,-102.46
49.000,-117.52
49.015,-130.08
49.031,-139.6
49.046,-145.65
49.062,-147.84
49.078,-145.77
49.093,-138.95
49.109,-126.38
49.125,-106.69
49.140,-78.21
49.156,-39.62
49.171,9.04
49.187,65.62
49.203,124.92
49.218,178.83
49.234,217.35
49.250,231.13
49.265,214.36
49.281,167.32
49.296,96.99
49.312,15.06
49.328,-65.34
49.343,-133.4
49.359,-182.57
49.375,-210.53
49.390,-217.82
49.406,-206.43
49.421,-179.25
49.437,-140.13
49.453,-94.66
49.468,-49.36
49.484,-10.37
49.500,18.49
49.515,36.7
49.531,46.44
49.546,50.87
49.562,52.53
49.578,52.69
49.593,51.4
49.609,48.43
49.625,44.08
49.640,39.74
49.656,37.44
49.671,39.22
49.687,46.06
49.703,57.09
49.718,69.54
49.734,79.35
49.750,82.71
49.765,77.55
49.781,64.64
49.796,47.06
49.812,28.93
49.828,13.68
49.843,2.77
49.859,-4.26
49.875,-8.97
49.890,-12.63
49.906,-15.44
49.921,-16.68
49.937,-15.46
49.953,-11.61
49.968,-6.16
49.984,-1.14
50.000,1.52
50.015,0.79
50.031,-2.91
50.046,-7.86
50.062,-12.05
50.078,-13.9
50.093,-12.78
50.109,-9.02
50.125,-3.55
50.140,2.78
50.156,9.45
50.171,16.28
50.187,23.34
50.203,30.33
50.218,36.58
50.234,40.93
50.250,42.06
50.265,38.93
50.281,31.31
50.296,20.02
50.312,6.88
50.328,-5.78
50.343,-16.1
50.359,-23.27
50.375,-27.97
50.390,-32.01
50.406,-37.61
50.421,-46.29
50.437,-58.46
50.453,-73.11
50.468,-88.24
50.484,-101.75
50.500,-111.98
50.515,-118.26
50.531,-120.73
50.546,-119.92
50.562,-116.14
50.578,-109.48
50.593,-99.64
50.609,-86.35
50.625,-69.48
50.640,-48.84
50.656,-24.13
50.671,4.95
50.687,38.17
50.703,74.14
50.718,109.73
50.734,140.66
50.750,162.49
50.765,172.39
50.781,170.45
50.796,159.23
50.812,142.45
50.828,123.32
50.843,103.76
50.859,84.46
50.875,66.03
50.890,49.76
50.906,37.65
50.921,32.47
50.937,35.4
50.953,45.41
50.968,59.6
50.984,74.93
51.000,89.54
51.015,103.48
51.031,117.99
51.046,134.22
51.062,153.82
51.078,176.38
51.093,199.98
51.109,222.2
51.125,241.79
51.140,259.29
51.156,276.85
51.171,296.61
51.187,319.49
51.203,347.13
51.218,378.79
51.234,412.04
51.250,443.84
51.265,471.81
51.281,494.54
51.296,511.67
51.312,522.98
51.328,527.95
51.343,528.9
51.359,526.28
51.375,517.88
51.390,498.64
51.406,462.31
51.421,404.38
51.437,324.71
51.453,228.55
51.468,106.49
51.484,-37.56
51.500,-191.3
51.515,-337.69
51.531,-461.66
51.546,-555.01
51.562,-616.53
51.578,-649.3
51.593,-658.2
51.609,-649.21
51.625,-626.04
51.640,-593.95
51.656,-558.34
51.671,-523.69
51.687,-492.47
51.703,-464.87
51.718,-439.76
51.734,-415.88
51.750,-392.84
51.765,-368.76
51.781,-343.55
51.796,-318.06
51.812,-293.7
51.828,-271.63
51.843,-252.14
51.859,-234.71
51.875,-218.39
51.890,-202.56
51.906,-185.6
51.921,-167.1
51.937,-147.92
51.953,-129.8
51.968,-114.63
51.984,-103.32
52.000,-95.62
52.015,-89.93
52.031,-84.3
52.046,-76.67
52.062,-66.38
52.078,-54.23
52.093,-41.79
52.109,-30.33
52.125,-20.0
52.140,-10.0
52.156,1.31
52.171,15.03
52.187,31.56
52.203,50.11
52.218,68.88
52.234,85.85
52.250,99.18
52.265,108.09
52.281,111.28
52.296,108.36
52.312,99.57
52.328,85.92
52.343,69.06
52.359,50.68
52.375,32.28
52.390,14.9
52.406,-0.72
52.421,-14.01
52.437,-24.23
52.453,-30.79
52.468,-33.47
52.484,-32.6
52.500,-29.22
52.515,-24.79
52.531,-20.55
52.546,-17.2
52.562,-14.93
52.578,-13.39
52.593,-12.29
52.609,-11.5
52.625,-10.87
52.640,-10.4
52.656,-9.9
52.671,-8.86
52.687,-6.54
52.703,-2.39
52.718,3.87
52.734,11.63
52.750,19.81
52.765,27.17
52.781,32.84
52.796,36.56
52.812,39.02
52.828,41.44
52.843,44.93
52.859,50.44
52.875,58.11
52.890,67.66
52.906,78.3
52.921,89.02
52.937,98.43
52.953,105.45
52.968,109.48
52.984,110.35
53.000,108.52
53.015,104.56
53.031,98.88
53.046,91.12
53.062,82.71
53.078,73.97
53.093,65.09
53.109,56.22
53.125,47.65
53.140,39.72
53.156,32.65
53.171,26.83
53.187,22.48
53.203,19.86
53.218,18.71
53.234,18.65
53.250,19.1
53.265,19.58
53.281,19.81
53.296,19.66
53.312,19.28
53.328,18.89
53.343,18.53
53.359,17.93
53.375,16.86
53.390,15.42
53.406,14.09
53.421,13.57
53.437,14.01
53.453,15.24
53.468,16.3
53.484,16.03
53.500,13.28
53.515,7.45
53.531,-1.41
53.546,-12.83
53.562,-25.62
53.578,-38.03
53.593,-47.39
53.609,-50.91
53.625,-46.66
53.640,-34.79
53.656,-18.04
53.671,-0.77
53.687,12.6
53.703,19.56
53.718,20.27
53.734,16.96
53.750,12.28
53.765,7.8
53.781,3.6
53.796,-1.38
53.812,-7.91
53.828,-15.92
53.843,-24.24
53.859,-31.38
53.875,-36.42
53.890,-39.29
53.906,-40.64
53.921,-41.13
53.937,-41.51
53.953,-42.0
53.968,-42.79
53.984,-43.88
54.000,-45.2
54.015,-46.57
54.031,-47.7
54.046,-48.4
54.062,-48.7
54.078,-48.95
54.093,-49.6
54.109,-50.93
54.125,-52.86
54.140,-55.05
54.156,-57.2
54.171,-59.23
54.187,-61.57
54.203,-64.89
54.218,-69.74
54.234,-76.3
54.250,-84.22
54.265,-92.78
54.281,-101.07
54.296,-108.39
54.312,-114.12
54.328,-117.89
54.343,-119.67
54.359,-119.54
54.375,-117.71
54.390,-114.51
54.406,-110.38
54.421,-105.8
54.437,-101.55
54.453,-98.23
54.468,-96.28
54.484,-95.72
54.500,-96.08
54.515,-96.62
54.531,-96.51
54.546,-95.25
54.562,-92.62
54.578,-88.81
54.593,-84.12
54.609,-79.06
54.625,-74.17
54.640,-69.86
54.656,-66.48
54.671,-64.03
54.687,-62.15
54.703,-60.25
54.718,-57.54
54.734,-53.38
54.750,-47.45
54.765,-39.93
54.781,-31.2
54.796,-21.95
54.812,-12.88
54.828,-4.47
54.843,3.04
54.859,9.52
54.875,14.87
54.890,18.82
54.906,21.06
54.921,21.6
54.937,20.99
54.953,20.32
54.968,20.78
54.984,23.26
55.000,27.53
55.015,32.58
55.031,36.92
55.046,39.28
55.062,39.13
55.078,36.85
55.093,33.32
55.109,29.45
55.125,25.87
55.140,22.69
55.156,19.83
55.171,16.98
55.187,13.9
55.203,10.37
55.218,6.49
55.234,2.68
55.250,-0.16
55.265,-1.08
55.281,0.67
55.296,5.29
55.312,12.05
55.328,19.45
55.343,25.41
55.359,27.94
55.375,25.43
55.390,17.2
55.406,3.76
55.421,-13.06
55.437,-30.3
55.453,-44.35
55.468,-52.09
55.484,-51.67
55.500,-43.24
55.515,-28.91
55.531,-12.03
55.546,3.99
55.562,16.46
55.578,23.94
55.593,26.18
55.609,23.71
55.625,17.64
55.640,9.51
55.656,1.17
55.671,-5.33
55.687,-8.17
55.703,-6.49
55.718,-0.73
55.734,7.27
55.750,14.94
55.765,19.75
55.781,20.31
55.796,16.52
55.812,9.5
55.828,1.06
55.843,-7.09
55.859,-13.59
55.875,-17.54
55.890,-18.47
55.906,-16.48
55.921,-12.11
55.937,-6.41
55.953,-0.55
55.968,4.55
55.984,8.52
56.000,11.61
56.015,14.39
56.031,17.21
56.046,19.84
56.062,21.53
56.078,21.32
56.093,18.53
56.109,13.19
56.125,6.06
56.140,-1.56
56.156,-8.18
56.171,-12.46
56.187,-13.43
56.203,-10.54
56.218,-3.84
56.234,5.94
56.250,17.44
56.265,28.72
56.281,37.86
56.296,43.35
56.312,44.57
56.328,42.06
56.343,37.21
56.359,31.83
56.375,27.52
56.390,25.13
56.406,24.64
56.421,25.21
56.437,25.71
56.453,25.26
56.468,23.7
56.484,21.55
56.500,19.74
56.515,19.15
56.531,20.14
56.546,22.4
56.562,25.06
56.578,27.04
56.593,27.44
56.609,25.77
56.625,22.0
56.640,16.52
56.656,10.0
56.671,3.17
56.687,-3.22
56.703,-8.77
56.718,-13.26
56.734,-16.58
56.750,-18.61
56.765,-19.14
56.781,-17.98
56.796,-15.11
56.812,-11.02
56.828,-6.43
56.843,-2.34
56.859,0.31
56.875,0.94
56.890,-0.6
56.906,-3.92
56.921,-8.1
56.937,-11.8
56.953,-13.62
56.968,-12.68
56.984,-8.92
57.000,-3.43
57.015,2.04
57.031,5.95
57.046,7.62
57.062,7.61
57.078,7.2
57.093,7.61
57.109,9.32
57.125,11.88
57.140,14.25
57.156,15.57
57.171,15.66
57.187,15.08
57.203,14.6
57.218,14.6
57.234,14.75
57.250,14.34
57.265,12.8
57.281,10.1
57.296,6.89
57.312,4.2
57.328,2.72
57.343,2.65
57.359,3.47
57.375,4.4
57.390,4.82
57.406,4.7
57.421,4.3
57.437,3.89
57.453,3.51
57.468,2.67
57.484,0.86
57.500,-2.16
57.515,-6.1
57.531,-10.2
57.546,-13.59
57.562,-15.82
57.578,-16.98
57.593,-17.4
57.609,-17.5
57.625,-17.29
57.640,-16.3
57.656,-13.98
57.671,-9.86
57.687,-3.94
57.703,3.24
57.718,10.61
57.734,17.04
57.750,21.5
57.765,23.51
57.781,23.24
57.796,21.39
57.812,19.09
57.828,17.33
57.843,16.71
57.859,17.47
57.875,19.49
57.890,22.28
57.906,25.23
57.921,27.51
57.937,28.07
57.953,26.15
57.968,21.42
57.984,14.36
58.000,6.22
58.015,-1.45
58.031,-7.43
58.046,-11.25
58.062,-13.13
58.078,-13.91
58.093,-14.3
58.109,-14.68
58.125,-14.98
58.140,-15.06
58.156,-14.93
58.171,-15.03
58.187,-15.94
58.203,-17.93
58.218,-20.93
58.234,-24.26
58.250,-27.06
58.265,-28.67
58.281,-29.08
58.296,-28.94
58.312,-29.2
58.328,-30.58
58.343,-33.03
58.359,-35.75
58.375,-37.42
58.390,-36.77
58.406,-33.14
58.421,-26.68
58.437,-18.37
58.453,-9.46
58.468,-1.22
58.484,5.39
58.500,9.81
58.515,11.73
58.531,11.33
58.546,9.14
58.562,6.08
58.578,3.18
58.593,1.33
58.609,0.99
58.625,2.22
58.640,4.67
58.656,7.96
58.671,11.78
58.687,15.91
58.703,20.09
58.718,23.9
58.734,26.81
58.750,28.34
58.765,28.54
58.781,27.7
58.796,26.58
58.812,25.85
58.828,25.77
58.843,26.11
58.859,26.41
58.875,26.15
58.890,25.17
58.906,23.61
58.921,21.82
58.937,20.08
58.953,18.6
58.968,17.31
58.984,16.07
59.000,14.62
59.015,12.5
59.031,9.22
59.046,4.36
59.062,-2.2
59.078,-10.14
59.093,-18.64
59.109,-26.77
59.125,-33.44
59.140,-37.93
59.156,-39.84
59.171,-39.08
59.187,-35.93
59.203,-31.1
59.218,-25.5
59.234,-19.9
59.250,-14.81
59.265,-10.35
59.281,-6.49
59.296,-3.39
59.312,-1.12
59.328,0.31
59.343,0.74
59.359,0.25
59.375,-0.79
59.390,-1.81
59.406,-2.17
59.421,-1.4
59.437,0.33
59.453,2.87
59.468,6.12
59.484,9.56
59.500,12.72
59.515,15.44
59.531,17.88
59.546,20.55
59.562,24.03
59.578,28.21
59.593,32.99
59.609,38.33
59.625,42.64
59.640,44.44
59.656,43.61
59.671,41.74
59.687,41.24
59.703,44.57
59.718,51.71
59.734,61.92
59.750,74.28
59.765,84.57
59.781,89.1
59.796,86.93
59.812,80.83
59.828,75.54
59.843,76.27
59.859,83.12
59.875,94.83
59.890,109.77
59.906,120.79
59.921,121.78
59.937,111.25
59.953,93.49
59.968,75.73
59.984,64.12
