timestamp,value
00.000,11.81
00.015,10.73
00.031,9.67
00.046,8.02
00.062,5.3
00.078,1.35
00.093,-3.67
00.109,-9.29
00.125,-14.99
00.140,-20.38
00.156,-25.35
00.171,-30.0
00.187,-34.68
00.203,-39.8
00.218,-45.63
00.234,-52.34
00.250,-59.73
00.265,-67.2
00.281,-73.67
00.296,-77.62
00.312,-77.5
00.328,-72.12
00.343,-61.14
00.359,-45.23
00.375,-26.01
00.390,-5.65
00.406,13.77
00.421,30.56
00.437,43.88
00.453,53.47
00.468,59.53
00.484,62.39
00.500,62.47
00.515,60.22
00.531,56.17
00.546,50.92
00.562,45.1
00.578,39.33
00.593,33.97
00.609,29.14
00.625,24.77
00.640,20.74
00.656,16.97
00.671,13.58
00.687,10.8
00.703,8.79
00.718,7.61
00.734,6.96
00.750,6.29
00.765,4.97
00.781,2.46
00.796,-1.52
00.812,-6.83
00.828,-13.02
00.843,-19.54
00.859,-25.88
00.875,-31.77
00.890,-37.27
00.906,-42.58
00.921,-48.08
00.937,-54.05
00.953,-60.58
00.968,-67.35
00.984,-73.63
01.000,-78.32
01.015,-80.04
01.031,-77.58
01.046,-70.11
01.062,-57.62
01.078,-40.96
01.093,-21.71
01.109,-1.77
01.125,17.0
01.140,33.23
01.156,46.16
01.171,55.54
01.187,61.52
01.203,64.35
01.218,64.35
01.234,61.96
01.250,57.7
01.265,52.26
01.281,46.45
01.296,40.96
01.312,36.22
01.328,32.29
01.343,28.97
01.359,25.89
01.375,22.87
01.390,19.88
01.406,17.1
01.421,14.74
01.437,12.79
01.453,10.99
01.468,8.82
01.484,5.76
01.500,1.43
01.515,-4.14
01.531,-10.66
01.546,-17.58
01.562,-24.4
01.578,-30.76
01.593,-36.61
01.609,-42.15
01.625,-47.84
01.640,-54.05
01.656,-61.01
01.671,-68.5
01.687,-75.72
01.703,-81.33
01.718,-83.77
01.734,-81.52
01.750,-73.67
01.765,-60.3
01.781,-42.46
01.796,-22.02
01.812,-1.18
01.828,18.09
01.843,34.45
01.859,47.26
01.875,56.59
01.890,62.83
01.906,66.39
01.921,67.64
01.937,66.84
01.953,64.32
01.968,60.54
01.984,56.03
02.000,51.26
02.015,46.53
02.031,41.88
02.046,37.2
02.062,32.43
02.078,27.71
02.093,23.3
02.109,19.6
02.125,16.8
02.140,14.82
02.156,13.32
02.171,11.74
02.187,9.5
02.203,6.11
02.218,1.38
02.234,-4.59
02.250,-11.33
02.265,-18.26
02.281,-24.83
02.296,-30.75
02.312,-36.09
02.328,-41.23
02.343,-46.68
02.359,-52.9
02.375,-60.07
02.390,-67.88
02.406,-75.53
02.421,-81.69
02.437,-84.77
02.453,-83.16
02.468,-75.79
02.484,-62.42
02.500,-43.98
02.515,-22.39
02.531,-0.02
02.546,20.89
02.562,38.69
02.578,52.61
02.593,62.59
02.609,68.96
02.625,72.23
02.640,72.89
02.656,71.38
02.671,68.18
02.687,63.81
02.703,58.79
02.718,53.54
02.734,48.38
02.750,43.44
02.765,38.71
02.781,34.17
02.796,29.85
02.812,25.91
02.828,22.58
02.843,20.09
02.859,18.49
02.875,17.56
02.890,16.81
02.906,15.58
02.921,13.29
02.937,9.54
02.953,4.37
02.968,-1.86
02.984,-8.56
03.000,-15.14
03.015,-21.21
03.031,-26.7
03.046,-31.8
03.062,-36.92
03.078,-42.51
03.093,-48.89
03.109,-56.16
03.125,-63.99
03.140,-71.65
03.156,-77.97
03.171,-81.53
03.187,-80.91
03.203,-75.09
03.218,-63.76
03.234,-47.48
03.250,-27.71
03.265,-6.33
03.281,14.57
03.296,33.25
03.312,48.5
03.328,59.8
03.343,67.09
03.359,70.69
03.375,71.11
03.390,68.93
03.406,64.79
03.421,59.34
03.437,53.25
03.453,47.05
03.468,41.17
03.484,35.82
03.500,31.07
03.515,26.93
03.531,23.31
03.546,20.14
03.562,17.4
03.578,15.12
03.593,13.28
03.609,11.81
03.625,10.45
03.640,8.82
03.656,6.46
03.671,2.96
03.687,-1.82
03.703,-7.69
03.718,-14.14
03.734,-20.53
03.750,-26.35
03.765,-31.4
03.781,-35.86
03.796,-40.3
03.812,-45.43
03.828,-51.78
03.843,-59.46
03.859,-67.97
03.875,-76.2
03.890,-82.61
03.906,-85.58
03.921,-83.75
03.937,-76.41
03.953,-63.67
03.968,-46.41
03.984,-26.21
04.000,-4.99
04.015,15.32
04.031,33.1
04.046,47.33
04.062,57.6
04.078,64.06
04.093,67.18
04.109,67.61
04.125,65.91
04.140,62.59
04.156,58.01
04.171,52.56
04.187,46.64
04.203,40.63
04.218,34.93
04.234,29.77
04.250,25.33
04.265,21.59
04.281,18.51
04.296,16.01
04.312,14.05
04.328,12.55
04.343,11.31
04.359,10.04
04.375,8.3
04.390,5.68
04.406,1.86
04.421,-3.11
04.437,-8.96
04.453,-15.16
04.468,-21.28
04.484,-27.06
04.500,-32.52
04.515,-37.99
04.531,-43.9
04.546,-50.65
04.562,-58.33
04.578,-66.63
04.593,-74.75
04.609,-81.46
04.625,-85.3
04.640,-84.85
04.656,-79.15
04.671,-67.94
04.687,-51.83
04.703,-32.19
04.718,-10.88
04.734,10.11
04.750,29.04
04.765,44.69
04.781,56.46
04.796,64.29
04.812,68.61
04.828,70.0
04.843,69.07
04.859,66.41
04.875,62.46
04.890,57.69
04.906,52.46
04.921,47.18
04.937,42.09
04.953,37.41
04.968,33.18
04.984,29.37
05.000,25.96
05.015,22.97
05.031,20.46
05.046,18.44
05.062,16.8
05.078,15.28
05.093,13.5
05.109,11.1
05.125,7.78
05.140,3.43
05.156,-1.86
05.171,-7.81
05.187,-14.06
05.203,-20.25
05.218,-26.11
05.234,-31.6
05.250,-36.9
05.265,-42.37
05.281,-48.39
05.296,-55.22
05.312,-62.8
05.328,-70.63
05.343,-77.77
05.359,-82.86
05.375,-84.45
05.390,-81.21
05.406,-72.39
05.421,-58.06
05.437,-39.28
05.453,-17.91
05.468,3.78
05.484,23.68
05.500,40.29
05.515,52.85
05.531,61.41
05.546,66.39
05.562,68.39
05.578,67.95
05.593,65.56
05.609,61.7
05.625,56.92
05.640,51.75
05.656,46.65
05.671,41.87
05.687,37.48
05.703,33.34
05.718,29.36
05.734,25.55
05.750,22.01
05.765,19.0
05.781,16.71
05.796,15.18
05.812,14.15
05.828,13.08
05.843,11.37
05.859,8.48
05.875,4.24
05.890,-1.14
05.906,-7.13
05.921,-13.17
05.937,-18.87
05.953,-24.14
05.968,-29.17
05.984,-34.24
06.000,-39.64
06.015,-45.52
06.031,-51.9
06.046,-58.65
06.062,-65.42
06.078,-71.57
06.093,-76.04
06.109,-77.56
06.125,-74.8
06.140,-66.93
06.156,-53.9
06.171,-36.62
06.187,-16.79
06.203,3.53
06.218,22.34
06.234,38.18
06.250,50.24
06.265,58.4
06.281,62.95
06.296,64.37
06.312,63.23
06.328,60.08
06.343,55.5
06.359,50.07
06.375,44.42
06.390,39.04
06.406,34.23
06.421,30.0
06.437,26.18
06.453,22.57
06.468,19.06
06.484,15.8
06.500,13.06
06.515,11.09
06.531,9.94
06.546,9.32
06.562,8.62
06.578,7.16
06.593,4.43
06.609,0.21
06.625,-5.23
06.640,-11.36
06.656,-17.56
06.671,-23.38
06.687,-28.64
06.703,-33.48
06.718,-38.21
06.734,-43.23
06.750,-48.83
06.765,-55.11
06.781,-61.82
06.796,-68.37
06.812,-73.75
06.828,-76.63
06.843,-75.64
06.859,-69.73
06.875,-58.56
06.890,-42.77
06.906,-23.86
06.921,-3.86
06.937,15.13
06.953,31.48
06.968,44.22
06.984,53.11
07.000,58.4
07.015,60.57
07.031,60.12
07.046,57.56
07.062,53.4
07.078,48.19
07.093,42.5
07.109,36.79
07.125,31.34
07.140,26.24
07.156,21.5
07.171,17.11
07.187,13.17
07.203,9.88
07.218,7.43
07.234,5.89
07.250,5.09
07.265,4.58
07.281,3.79
07.296,2.21
07.312,-0.53
07.328,-4.49
07.343,-9.47
07.359,-15.09
07.375,-20.85
07.390,-26.38
07.406,-31.52
07.421,-36.4
07.437,-41.4
07.453,-47.02
07.468,-53.63
07.484,-61.27
07.500,-69.46
07.515,-77.12
07.531,-82.73
07.546,-84.71
07.562,-81.75
07.578,-73.2
07.593,-59.35
07.609,-41.34
07.625,-20.95
07.640,-0.24
07.656,18.95
07.671,35.29
07.687,48.02
07.703,57.02
07.718,62.48
07.734,64.82
07.750,64.57
07.765,62.31
07.781,58.6
07.796,53.99
07.812,48.93
07.828,43.73
07.843,38.58
07.859,33.56
07.875,28.71
07.890,24.08
07.906,19.86
07.921,16.22
07.937,13.33
07.953,11.25
07.968,9.85
07.984,8.79
08.000,7.59
08.015,5.76
08.031,2.94
08.046,-0.98
08.062,-5.84
08.078,-11.34
08.093,-17.09
08.109,-22.82
08.125,-28.41
08.140,-33.89
08.156,-39.44
08.171,-45.34
08.187,-51.88
08.203,-59.23
08.218,-67.23
08.234,-75.14
08.250,-81.69
08.265,-85.15
08.281,-83.96
08.296,-77.08
08.312,-64.46
08.328,-47.14
08.343,-26.91
08.359,-5.91
08.375,13.96
08.390,31.3
08.406,45.39
08.421,56.04
08.437,63.35
08.453,67.63
08.468,69.22
08.484,68.51
08.500,65.99
08.515,62.19
08.531,57.67
08.546,52.89
08.562,48.12
08.578,43.44
08.593,38.8
08.609,34.19
08.625,29.66
08.640,25.41
08.656,21.7
08.671,18.69
08.687,16.35
08.703,14.46
08.718,12.65
08.734,10.52
08.750,7.67
08.765,3.94
08.781,-0.75
08.796,-6.26
08.812,-12.36
08.828,-18.77
08.843,-25.23
08.859,-31.54
08.875,-37.67
08.890,-43.8
08.906,-50.2
08.921,-57.09
08.937,-64.48
08.953,-71.93
08.968,-78.48
08.984,-82.75
09.000,-83.13
09.015,-78.35
09.031,-67.82
09.046,-51.97
09.062,-32.22
09.078,-10.63
09.093,10.61
09.109,29.71
09.125,45.49
09.140,57.49
09.156,65.75
09.171,70.53
09.187,72.22
09.203,71.25
09.218,68.14
09.234,63.54
09.250,58.14
09.265,52.49
09.281,46.97
09.296,41.7
09.312,36.68
09.328,31.87
09.343,27.31
09.359,23.18
09.375,19.69
09.390,16.99
09.406,15.02
09.421,13.58
09.437,12.25
09.453,10.52
09.468,7.92
09.484,4.14
09.500,-0.88
09.515,-6.88
09.531,-13.34
09.546,-19.7
09.562,-25.52
09.578,-30.59
09.593,-35.07
09.609,-39.31
09.625,-43.81
09.640,-49.01
09.656,-55.15
09.671,-62.03
09.687,-68.87
09.703,-74.42
09.718,-77.01
09.734,-75.12
09.750,-67.8
09.765,-55.07
09.781,-37.98
09.796,-18.37
09.812,1.65
09.828,20.23
09.843,36.07
09.859,48.54
09.875,57.54
09.890,63.25
09.906,66.0
09.921,66.14
09.937,64.1
09.953,60.37
09.968,55.43
09.984,49.79
10.000,43.94
10.015,38.18
10.031,32.7
10.046,27.59
10.062,22.9
10.078,18.75
10.093,15.31
10.109,12.73
10.125,11.02
10.140,10.06
10.156,9.4
10.171,8.46
10.187,6.65
10.203,3.51
10.218,-1.05
10.234,-6.79
10.250,-13.18
10.265,-19.64
10.281,-25.75
10.296,-31.37
10.312,-36.67
10.328,-42.01
10.343,-47.87
10.359,-54.58
10.375,-62.16
10.390,-70.16
10.406,-77.64
10.421,-83.25
10.437,-85.46
10.453,-82.92
10.468,-74.78
10.484,-61.15
10.500,-43.0
10.515,-22.11
10.531,-0.57
10.546,19.63
10.562,36.97
10.578,50.58
10.593,60.19
10.609,65.99
10.625,68.38
10.640,67.95
10.656,65.34
10.671,61.28
10.687,56.47
10.703,51.49
10.718,46.7
10.734,42.16
10.750,37.82
10.765,33.59
10.781,29.5
10.796,25.72
10.812,22.53
10.828,20.06
10.843,18.26
10.859,16.89
10.875,15.57
10.890,13.91
10.906,11.61
10.921,8.45
10.937,4.33
10.953,-0.8
10.968,-6.82
10.984,-13.48
11.000,-20.37
11.015,-27.09
11.031,-33.37
11.046,-39.26
11.062,-45.11
11.078,-51.32
11.093,-58.27
11.109,-65.91
11.125,-73.8
11.140,-80.98
11.156,-86.2
11.171,-88.03
11.187,-85.22
11.203,-77.02
11.218,-63.38
11.234,-45.19
11.250,-24.09
11.265,-2.18
11.281,18.49
11.296,36.28
11.312,50.29
11.328,60.36
11.343,66.75
11.359,69.97
11.375,70.53
11.390,68.92
11.406,65.59
11.421,60.98
11.437,55.61
11.453,49.96
11.468,44.48
11.484,39.49
11.500,35.16
11.515,31.53
11.531,28.54
11.546,26.06
11.562,23.97
11.578,22.17
11.593,20.6
11.609,19.19
11.625,17.76
11.640,16.02
11.656,13.58
11.671,10.14
11.687,5.58
11.703,0.04
11.718,-6.12
11.734,-12.49
11.750,-18.78
11.765,-24.85
11.781,-30.73
11.796,-36.6
11.812,-42.67
11.828,-49.19
11.843,-56.3
11.859,-63.96
11.875,-71.76
11.890,-78.77
11.906,-83.6
11.921,-84.68
11.937,-80.66
11.953,-70.89
11.968,-55.66
11.984,-36.2
12.000,-14.39
12.015,7.64
12.031,28.0
12.046,45.28
12.062,58.72
12.078,68.05
12.093,73.47
12.109,75.44
12.125,74.54
12.140,71.47
12.156,66.84
12.171,61.32
12.187,55.45
12.203,49.68
12.218,44.25
12.234,39.24
12.250,34.59
12.265,30.21
12.281,26.12
12.296,22.43
12.312,19.35
12.328,17.02
12.343,15.36
12.359,14.1
12.375,12.77
12.390,10.87
12.406,7.99
12.421,3.97
12.437,-1.11
12.453,-6.89
12.468,-12.95
12.484,-18.82
12.500,-24.23
12.515,-29.12
12.531,-33.67
12.546,-38.31
12.562,-43.5
12.578,-49.63
12.593,-56.79
12.609,-64.6
12.625,-72.08
12.640,-77.71
12.656,-79.82
12.671,-76.88
12.687,-68.16
12.703,-53.91
12.718,-35.42
12.734,-14.65
12.750,6.23
12.765,25.32
12.781,41.37
12.796,53.66
12.812,62.02
12.828,66.63
12.843,67.93
12.859,66.47
12.875,62.94
12.890,58.08
12.906,52.53
12.921,46.81
12.937,41.23
12.953,35.94
12.968,31.0
12.984,26.44
13.000,22.36
13.015,18.85
13.031,16.02
13.046,13.94
13.062,12.55
13.078,11.66
13.093,10.93
13.109,9.93
13.125,8.15
13.140,5.21
13.156,0.89
13.171,-4.71
13.187,-11.12
13.203,-17.73
13.218,-23.95
13.234,-29.44
13.250,-34.18
13.265,-38.52
13.281,-42.92
13.296,-47.88
13.312,-53.68
13.328,-60.26
13.343,-67.13
13.359,-73.27
13.375,-77.36
13.390,-77.92
13.406,-73.77
13.421,-64.33
13.437,-49.93
13.453,-31.75
13.468,-11.6
13.484,8.49
13.500,26.72
13.515,41.85
13.531,53.26
13.546,60.86
13.562,64.94
13.578,66.01
13.593,64.62
13.609,61.34
13.625,56.76
13.640,51.45
13.656,45.93
13.671,40.6
13.687,35.65
13.703,31.09
13.718,26.86
13.734,22.91
13.750,19.34
13.765,16.27
13.781,13.92
13.796,12.31
13.812,11.26
13.828,10.32
13.843,8.89
13.859,6.4
13.875,2.45
13.890,-2.88
13.906,-9.27
13.921,-16.06
13.937,-22.67
13.953,-28.62
13.968,-33.77
13.984,-38.31
14.000,-42.62
14.015,-47.23
14.031,-52.51
14.046,-58.64
14.062,-65.41
14.078,-72.13
14.093,-77.6
14.109,-80.31
14.125,-78.81
14.140,-72.07
14.156,-59.92
14.171,-43.16
14.187,-23.5
14.203,-3.0
14.218,16.35
14.234,33.11
14.250,46.54
14.265,56.45
14.281,63.04
14.296,66.6
14.312,67.44
14.328,65.84
14.343,62.25
14.359,57.24
14.375,51.52
14.390,45.72
14.406,40.24
14.421,35.29
14.437,30.8
14.453,26.63
14.468,22.66
14.484,18.93
14.500,15.62
14.515,12.97
14.531,11.07
14.546,9.79
14.562,8.77
14.578,7.42
14.593,5.19
14.609,1.72
14.625,-3.01
14.640,-8.73
14.656,-14.94
14.671,-21.13
14.687,-26.95
14.703,-32.34
14.718,-37.44
14.734,-42.6
14.750,-48.22
14.765,-54.62
14.781,-61.84
14.796,-69.49
14.812,-76.63
14.828,-81.76
14.843,-83.3
14.859,-79.82
14.875,-70.61
14.890,-55.91
14.906,-36.96
14.921,-15.73
14.937,5.56
14.953,24.98
14.968,41.16
14.984,53.42
15.000,61.7
15.015,66.35
15.031,67.94
15.046,67.12
15.062,64.52
15.078,60.69
15.093,56.09
15.109,51.15
15.125,46.07
15.140,41.02
15.156,36.07
15.171,31.23
15.187,26.63
15.203,22.42
15.218,18.81
15.234,15.95
15.250,13.89
15.265,12.45
15.281,11.28
15.296,9.93
15.312,7.86
15.328,4.7
15.343,0.3
15.359,-5.23
15.375,-11.51
15.390,-18.02
15.406,-24.33
15.421,-30.12
15.437,-35.31
15.453,-40.11
15.468,-44.84
15.484,-49.95
15.500,-55.75
15.515,-62.25
15.531,-69.01
15.546,-75.04
15.562,-78.93
15.578,-79.07
15.593,-74.22
15.609,-63.78
15.625,-48.23
15.640,-28.97
15.656,-8.0
15.671,12.56
15.687,30.93
15.703,45.97
15.718,57.25
15.734,64.76
15.750,68.86
15.765,69.99
15.781,68.59
15.796,65.19
15.812,60.38
15.828,54.74
15.843,48.83
15.859,43.07
15.875,37.65
15.890,32.59
15.906,27.83
15.921,23.3
15.937,19.09
15.953,15.38
15.968,12.42
15.984,10.27
16.000,8.82
16.015,7.62
16.031,6.08
16.046,3.69
16.062,0.12
16.078,-4.55
16.093,-9.91
16.109,-15.43
16.125,-20.62
16.140,-25.24
16.156,-29.41
16.171,-33.46
16.187,-37.86
16.203,-43.06
16.218,-49.22
16.234,-56.15
16.250,-63.19
16.265,-69.27
16.281,-72.99
16.296,-72.97
16.312,-68.2
16.328,-58.34
16.343,-43.91
16.359,-26.15
16.375,-6.82
16.390,12.21
16.406,29.36
16.421,43.47
16.437,53.99
16.453,60.76
16.468,63.92
16.484,63.8
16.500,60.88
16.515,55.8
16.531,49.35
16.546,42.43
16.562,35.8
16.578,29.98
16.593,25.09
16.609,20.97
16.625,17.27
16.640,13.77
16.656,10.45
16.671,7.57
16.687,5.39
16.703,4.02
16.718,3.26
16.734,2.58
16.750,1.38
16.765,-0.94
16.781,-4.66
16.796,-9.72
16.812,-15.7
16.828,-22.07
16.843,-28.33
16.859,-34.21
16.875,-39.66
16.890,-44.95
16.906,-50.46
16.921,-56.58
16.937,-63.39
16.953,-70.59
16.968,-77.27
16.984,-82.04
17.000,-83.32
17.015,-79.72
17.031,-70.53
17.046,-56.0
17.062,-37.36
17.078,-16.55
17.093,4.27
17.109,23.18
17.125,38.93
17.140,50.92
17.156,59.14
17.171,63.91
17.187,65.68
17.203,64.9
17.218,62.1
17.234,57.84
17.250,52.76
17.265,47.49
17.281,42.43
17.296,37.74
17.312,33.29
17.328,28.93
17.343,24.53
17.359,20.2
17.375,16.24
17.390,12.96
17.406,10.56
17.421,8.96
17.437,7.8
17.453,6.52
17.468,4.5
17.484,1.29
17.500,-3.31
17.515,-9.16
17.531,-15.86
17.546,-22.8
17.562,-29.43
17.578,-35.35
17.593,-40.49
17.609,-45.19
17.625,-49.98
17.640,-55.5
17.656,-62.1
17.671,-69.58
17.687,-77.03
17.703,-82.93
17.718,-85.42
17.734,-82.85
17.750,-74.3
17.765,-59.88
17.781,-40.88
17.796,-19.28
17.812,2.61
17.828,22.79
17.843,39.83
17.859,52.98
17.875,62.15
17.890,67.62
17.906,69.86
17.921,69.41
17.937,66.89
17.953,62.85
17.968,57.85
17.984,52.42
18.000,46.92
18.015,41.61
18.031,36.6
18.046,31.89
18.062,27.47
18.078,23.42
18.093,19.88
18.109,17.0
18.125,14.9
18.140,13.47
18.156,12.41
18.171,11.19
18.187,9.24
18.203,6.1
18.218,1.64
18.234,-3.93
18.250,-10.1
18.265,-16.29
18.281,-22.16
18.296,-27.63
18.312,-32.99
18.328,-38.7
18.343,-45.2
18.359,-52.71
18.375,-61.06
18.390,-69.6
18.406,-77.11
18.421,-82.1
18.437,-82.9
18.453,-78.24
18.468,-67.67
18.484,-51.7
18.500,-31.85
18.515,-10.24
18.531,10.95
18.546,29.96
18.562,45.69
18.578,57.67
18.593,65.93
18.609,70.69
18.625,72.28
18.640,71.11
18.656,67.7
18.671,62.67
18.687,56.76
18.703,50.61
18.718,44.68
18.734,39.23
18.750,34.25
18.765,29.69
18.781,25.48
18.796,21.69
18.812,18.52
18.828,16.11
18.843,14.49
18.859,13.41
18.875,12.45
18.890,11.02
18.906,8.62
18.921,4.92
18.937,-0.11
18.953,-6.13
18.968,-12.61
18.984,-18.99
19.000,-24.87
19.015,-30.19
19.031,-35.23
19.046,-40.5
19.062,-46.5
19.078,-53.55
19.093,-61.41
19.109,-69.34
19.125,-76.08
19.140,-80.09
19.156,-79.82
19.171,-74.17
19.187,-62.75
19.203,-46.12
19.218,-25.83
19.234,-3.92
19.250,17.36
19.265,36.13
19.281,51.23
19.296,62.21
19.312,69.22
19.328,72.69
19.343,73.16
19.359,71.13
19.375,67.26
19.390,62.16
19.406,56.54
19.421,50.99
19.437,45.89
19.453,41.31
19.468,37.14
19.484,33.23
19.500,29.49
19.515,26.01
19.531,22.89
19.546,20.27
19.562,18.22
19.578,16.59
19.593,15.11
19.609,13.35
19.625,10.8
19.640,7.05
19.656,2.01
19.671,-4.11
19.687,-10.79
19.703,-17.43
19.718,-23.61
19.734,-29.18
19.750,-34.3
19.765,-39.39
19.781,-44.92
19.796,-51.18
19.812,-58.17
19.828,-65.32
19.843,-71.6
19.859,-75.56
19.875,-75.65
19.890,-70.68
19.906,-60.26
19.921,-44.98
19.937,-26.29
19.953,-6.17
19.968,13.33
19.984,30.58
20.000,44.53
20.015,54.75
20.031,61.29
20.046,64.49
20.062,64.78
20.078,62.69
20.093,58.73
20.109,53.5
20.125,47.59
20.140,41.55
20.156,35.75
20.171,30.37
20.187,25.44
20.203,20.92
20.218,16.83
20.234,13.27
20.250,10.42
20.265,8.35
20.281,6.99
20.296,6.05
20.312,5.11
20.328,3.66
20.343,1.3
20.359,-2.24
20.375,-6.99
20.390,-12.69
20.406,-18.91
20.421,-25.21
20.437,-31.2
20.453,-36.78
20.468,-42.24
20.484,-48.07
20.500,-54.76
20.515,-62.47
20.531,-70.69
20.546,-78.25
20.562,-83.5
20.578,-84.71
20.593,-80.56
20.609,-70.57
20.625,-55.31
20.640,-36.21
20.656,-15.27
20.671,5.4
20.687,24.07
20.703,39.59
20.718,51.41
20.734,59.47
20.750,64.06
20.765,65.6
20.781,64.59
20.796,61.54
20.812,57.07
20.828,51.76
20.843,46.22
20.859,40.9
20.875,35.96
20.890,31.42
20.906,27.23
20.921,23.38
20.937,19.95
20.953,17.17
20.968,15.21
20.984,14.06
21.000,13.4
21.015,12.64
21.031,11.13
21.046,8.38
21.062,4.2
21.078,-1.25
21.093,-7.51
21.109,-14.06
21.125,-20.45
21.140,-26.45
21.156,-32.1
21.171,-37.64
21.187,-43.45
21.203,-49.87
21.218,-57.1
21.234,-65.01
21.250,-73.04
21.265,-80.08
21.281,-84.65
21.296,-85.15
21.312,-80.26
21.328,-69.5
21.343,-53.41
21.359,-33.54
21.375,-12.0
21.390,8.98
21.406,27.61
21.421,42.87
21.437,54.4
21.453,62.38
21.468,67.15
21.484,69.04
21.500,68.4
21.515,65.62
21.531,61.26
21.546,55.94
21.562,50.3
21.578,44.8
21.593,39.67
21.609,34.89
21.625,30.34
21.640,25.97
21.656,21.9
21.671,18.33
21.687,15.5
21.703,13.47
21.718,12.08
21.734,10.9
21.750,9.45
21.765,7.29
21.781,4.18
21.796,0.07
21.812,-4.87
21.828,-10.36
21.843,-16.08
21.859,-21.77
21.875,-27.27
21.890,-32.66
21.906,-38.15
21.921,-44.12
21.937,-50.88
21.953,-58.43
21.968,-66.3
21.984,-73.5
22.000,-78.59
22.015,-80.04
22.031,-76.62
22.046,-67.74
22.062,-53.66
22.078,-35.5
22.093,-15.03
22.109,5.75
22.125,24.93
22.140,41.12
22.156,53.58
22.171,62.13
22.187,67.09
22.203,68.94
22.218,68.26
22.234,65.56
22.250,61.41
22.265,56.34
22.281,50.87
22.296,45.42
22.312,40.21
22.328,35.31
22.343,30.66
22.359,26.29
22.375,22.25
22.390,18.68
22.406,15.73
22.421,13.38
22.437,11.5
22.453,9.81
22.468,8.02
22.484,5.75
22.500,2.71
22.515,-1.27
22.531,-6.2
22.546,-11.86
22.562,-17.86
22.578,-23.7
22.593,-29.04
22.609,-33.8
22.625,-38.32
22.640,-43.13
22.656,-48.76
22.671,-55.39
22.687,-62.51
22.703,-69.03
22.718,-73.4
22.734,-74.07
22.750,-69.87
22.765,-60.38
22.781,-46.06
22.796,-28.15
22.812,-8.45
22.828,11.19
22.843,29.04
22.859,43.89
22.875,55.08
22.890,62.41
22.906,66.1
22.921,66.58
22.937,64.47
22.953,60.4
22.968,55.11
22.984,49.24
23.000,43.3
23.015,37.64
23.031,32.35
23.046,27.43
23.062,22.88
23.078,18.77
23.093,15.27
23.109,12.6
23.125,10.84
23.140,9.87
23.156,9.32
23.171,8.62
23.187,7.16
23.203,4.51
23.218,0.51
23.234,-4.68
23.250,-10.65
23.265,-16.91
23.281,-23.03
23.296,-28.69
23.312,-33.89
23.328,-38.82
23.343,-43.85
23.359,-49.35
23.375,-55.5
23.390,-62.07
23.406,-68.26
23.421,-72.81
23.437,-74.21
23.453,-71.13
23.468,-62.9
23.484,-49.72
23.500,-32.71
23.515,-13.64
23.531,5.5
23.546,22.97
23.562,37.55
23.578,48.65
23.593,56.19
23.609,60.43
23.625,61.8
23.640,60.74
23.656,57.74
23.671,53.3
23.687,47.94
23.703,42.1
23.718,36.17
23.734,30.39
23.750,24.93
23.765,19.9
23.781,15.39
23.796,11.5
23.812,8.33
23.828,5.97
23.843,4.39
23.859,3.38
23.875,2.55
23.890,1.36
23.906,-0.75
23.921,-4.09
23.937,-8.7
23.953,-14.23
23.968,-20.14
23.984,-25.86
24.000,-31.09
24.015,-35.8
24.031,-40.33
24.046,-45.21
24.062,-50.91
24.078,-57.59
24.093,-64.94
24.109,-72.03
24.125,-77.44
24.140,-79.55
24.156,-76.89
24.171,-68.66
24.187,-55.01
24.203,-37.09
24.218,-16.78
24.234,3.73
24.250,22.48
24.265,38.02
24.281,49.7
24.296,57.46
24.312,61.66
24.328,62.81
24.343,61.45
24.359,58.11
24.375,53.36
24.390,47.82
24.406,42.08
24.421,36.64
24.437,31.7
24.453,27.27
24.468,23.19
24.484,19.33
24.500,15.69
24.515,12.51
24.531,10.06
24.546,8.51
24.562,7.7
24.578,7.16
24.593,6.29
24.609,4.6
24.625,1.87
24.640,-1.83
24.656,-6.15
24.671,-10.72
24.687,-15.3
24.703,-19.84
24.718,-24.5
24.734,-29.49
24.750,-35.02
24.765,-41.22
24.781,-47.92
24.796,-54.68
24.812,-60.62
24.828,-64.5
24.843,-64.94
24.859,-60.87
24.875,-51.79
24.890,-38.12
24.906,-21.15
24.921,-2.62
24.937,15.62
24.953,32.0
24.968,45.6
24.984,55.97
25.000,63.01
25.015,66.83
25.031,67.6
25.046,65.62
25.062,61.38
25.078,55.57
25.093,48.98
25.109,42.31
25.125,36.1
25.140,30.57
25.156,25.67
25.171,21.3
25.187,17.35
25.203,13.9
25.218,11.08
25.234,8.96
25.250,7.36
25.265,5.93
25.281,4.13
25.296,1.49
25.312,-2.22
25.328,-6.94
25.343,-12.37
25.359,-18.1
25.375,-23.79
25.390,-29.22
25.406,-34.32
25.421,-39.15
25.437,-43.97
25.453,-49.1
25.468,-54.83
25.484,-61.14
25.500,-67.44
25.515,-72.57
25.531,-74.92
25.546,-73.01
25.562,-65.9
25.578,-53.66
25.593,-37.32
25.609,-18.63
25.625,0.49
25.640,18.37
25.656,33.81
25.671,46.13
25.687,55.08
25.703,60.65
25.718,63.03
25.734,62.65
25.750,60.05
25.765,55.9
25.781,50.91
25.796,45.66
25.812,40.5
25.828,35.58
25.843,30.93
25.859,26.54
25.875,22.51
25.890,18.91
25.906,15.87
25.921,13.44
25.937,11.53
25.953,9.93
25.968,8.27
25.984,6.15
26.000,3.19
26.015,-0.82
26.031,-5.86
26.046,-11.63
26.062,-17.68
26.078,-23.5
26.093,-28.72
26.109,-33.26
26.125,-37.32
26.140,-41.39
26.156,-45.99
26.171,-51.46
26.187,-57.72
26.203,-64.13
26.218,-69.46
26.234,-72.14
26.250,-70.7
26.265,-64.18
26.281,-52.58
26.296,-36.8
26.312,-18.5
26.328,0.34
26.343,17.9
26.359,32.82
26.375,44.37
26.390,52.31
26.406,56.83
26.421,58.28
26.437,57.17
26.453,54.12
26.468,49.78
26.484,44.8
26.500,39.76
26.515,35.04
26.531,30.78
26.546,26.95
26.562,23.39
26.578,20.04
26.593,16.95
26.609,14.28
26.625,12.16
26.640,10.57
26.656,9.23
26.671,7.65
26.687,5.35
26.703,2.02
26.718,-2.32
26.734,-7.4
26.750,-12.79
26.765,-18.11
26.781,-23.16
26.796,-27.94
26.812,-32.67
26.828,-37.67
26.843,-43.26
26.859,-49.6
26.875,-56.59
26.890,-63.68
26.906,-69.82
26.921,-73.62
26.937,-73.62
26.953,-68.7
26.968,-58.52
26.984,-43.67
27.000,-25.62
27.015,-6.38
27.031,12.07
27.046,28.17
27.062,40.98
27.078,50.25
27.093,56.17
27.109,59.19
27.125,59.77
27.140,58.33
27.156,55.32
27.171,51.15
27.187,46.34
27.203,41.3
27.218,36.34
27.234,31.61
27.250,27.09
27.265,22.7
27.281,18.49
27.296,14.63
27.312,11.34
27.328,8.81
27.343,6.9
27.359,5.24
27.375,3.25
27.390,0.4
27.406,-3.63
27.421,-8.76
27.437,-14.59
27.453,-20.56
27.468,-26.15
27.484,-31.22
27.500,-35.89
27.515,-40.6
27.531,-45.82
27.546,-51.95
27.562,-58.99
27.578,-66.49
27.593,-73.5
27.609,-78.66
27.625,-80.47
27.640,-77.66
27.656,-69.5
27.671,-56.14
27.687,-38.66
27.703,-18.88
27.718,1.11
27.734,19.42
27.750,34.71
27.765,46.39
27.781,54.47
27.796,59.31
27.812,61.38
27.828,61.17
27.843,59.1
27.859,55.57
27.875,51.09
27.890,46.14
27.906,41.07
27.921,36.11
27.937,31.33
27.953,26.71
27.968,22.33
27.984,18.41
28.000,15.21
28.015,12.95
28.031,11.6
28.046,10.8
28.062,9.97
28.078,8.42
28.093,5.61
28.109,1.38
28.125,-4.08
28.140,-10.27
28.156,-16.6
28.171,-22.64
28.187,-28.26
28.203,-33.68
28.218,-39.34
28.234,-45.7
28.250,-53.04
28.265,-61.3
28.281,-69.83
28.296,-77.46
28.312,-82.66
28.328,-83.89
28.343,-80.0
28.359,-70.57
28.375,-56.08
28.390,-37.82
28.406,-17.61
28.421,2.63
28.437,21.21
28.453,36.97
28.468,49.28
28.484,57.97
28.500,63.18
28.515,65.21
28.531,64.53
28.546,61.72
28.562,57.49
28.578,52.51
28.593,47.39
28.609,42.46
28.625,37.8
28.640,33.37
28.656,29.05
28.671,24.99
28.687,21.42
28.703,18.64
28.718,16.76
28.734,15.57
28.750,14.56
28.765,13.09
28.781,10.63
28.796,6.93
28.812,2.13
28.828,-3.42
28.843,-9.26
28.859,-15.02
28.875,-20.49
28.890,-25.69
28.906,-30.84
28.921,-36.28
28.937,-42.43
28.953,-49.47
28.968,-57.27
28.984,-65.15
29.000,-71.88
29.015,-75.9
29.031,-75.63
29.046,-69.97
29.062,-58.63
29.078,-42.27
29.093,-22.39
29.109,-1.06
29.125,19.65
29.140,37.99
29.156,52.79
29.171,63.55
29.187,70.22
29.203,73.12
29.218,72.79
29.234,69.91
29.250,65.21
29.265,59.41
29.281,53.15
29.296,46.83
29.312,40.69
29.328,34.8
29.343,29.19
29.359,23.98
29.375,19.42
29.390,15.73
29.406,13.0
29.421,11.05
29.437,9.42
29.453,7.53
29.468,4.88
29.484,1.18
29.500,-3.55
29.515,-9.04
29.531,-14.89
29.546,-20.75
29.562,-26.45
29.578,-32.01
29.593,-37.61
29.609,-43.53
29.625,-50.01
29.640,-57.06
29.656,-64.31
29.671,-70.9
29.687,-75.48
29.703,-76.55
29.718,-72.81
29.734,-63.55
29.750,-49.03
29.765,-30.5
29.781,-9.89
29.796,10.57
29.812,28.94
29.828,43.94
29.843,55.02
29.859,62.24
29.875,65.98
29.890,66.73
29.906,64.98
29.921,61.27
29.937,56.15
29.953,50.19
29.968,43.91
29.984,37.68
30.000,31.73
30.015,26.17
30.031,21.1
30.046,16.69
30.062,13.1
30.078,10.41
30.093,8.49
30.109,6.99
30.125,5.46
30.140,3.44
30.156,0.67
30.171,-2.93
30.187,-7.26
30.203,-12.07
30.218,-17.13
30.234,-22.26
30.250,-27.46
30.265,-32.95
30.281,-38.98
30.296,-45.68
30.312,-52.79
30.328,-59.44
30.343,-64.23
30.359,-65.55
30.375,-62.02
30.390,-53.01
30.406,-38.93
30.421,-21.1
30.437,-1.51
30.453,17.78
30.468,35.02
30.484,49.0
30.500,59.15
30.515,65.47
30.531,68.29
30.546,68.16
30.562,65.68
30.578,61.44
30.593,56.03
30.609,49.94
30.625,43.53
30.640,37.05
30.656,30.67
30.671,24.58
30.687,18.97
30.703,14.11
30.718,10.15
30.734,7.21
30.750,5.16
30.765,3.61
30.781,2.0
30.796,-0.27
30.812,-3.57
30.828,-7.94
30.843,-13.09
30.859,-18.59
30.875,-24.01
30.890,-29.17
30.906,-34.16
30.921,-39.29
30.937,-44.93
30.953,-51.22
30.968,-57.93
30.984,-64.31
31.000,-69.19
31.015,-71.08
31.031,-68.61
31.046,-60.91
31.062,-47.89
31.078,-30.55
31.093,-10.66
31.109,9.58
31.125,28.09
31.140,43.4
31.156,54.85
31.171,62.42
31.187,66.51
31.203,67.74
31.218,66.58
31.234,63.48
31.250,58.94
31.265,53.43
31.281,47.5
31.296,41.56
31.312,35.89
31.328,30.57
31.343,25.65
31.359,21.15
31.375,17.18
31.390,13.95
31.406,11.5
31.421,9.71
31.437,8.13
31.453,6.16
31.468,3.27
31.484,-0.81
31.500,-6.0
31.515,-11.86
31.531,-17.78
31.546,-23.3
31.562,-28.22
31.578,-32.7
31.593,-37.18
31.609,-42.19
31.625,-48.13
31.640,-55.06
31.656,-62.51
31.671,-69.45
31.687,-74.44
31.703,-75.89
31.718,-72.45
31.734,-63.48
31.750,-49.25
31.765,-31.04
31.781,-10.81
31.796,9.26
31.812,27.2
31.828,41.69
31.843,52.17
31.859,58.67
31.875,61.58
31.890,61.48
31.906,58.95
31.921,54.59
31.937,49.07
31.953,43.02
31.968,37.02
31.984,31.5
32.000,26.59
32.015,22.25
32.031,18.44
32.046,15.07
32.062,12.16
32.078,9.71
32.093,7.67
32.109,5.91
32.125,4.15
32.140,2.0
32.156,-0.92
32.171,-4.85
32.187,-9.8
32.203,-15.48
32.218,-21.42
32.234,-27.18
32.250,-32.48
32.265,-37.36
32.281,-42.21
32.296,-47.48
32.312,-53.45
32.328,-60.06
32.343,-66.69
32.359,-72.27
32.375,-75.45
32.390,-74.89
32.406,-69.56
32.421,-59.13
32.437,-44.05
32.453,-25.59
32.468,-5.54
32.484,14.15
32.500,31.88
32.515,46.52
32.531,57.55
32.546,64.95
32.562,68.92
32.578,69.81
32.593,68.05
32.609,64.19
32.625,58.92
32.640,52.99
32.656,46.99
32.671,41.31
32.687,36.04
32.703,31.1
32.718,26.44
32.734,22.06
32.750,18.1
32.765,14.81
32.781,12.31
32.796,10.51
32.812,9.11
32.828,7.64
32.843,5.6
32.859,2.69
32.875,-1.17
32.890,-5.82
32.906,-10.97
32.921,-16.29
32.937,-21.6
32.953,-26.87
32.968,-32.27
32.984,-38.08
33.000,-44.52
33.015,-51.7
33.031,-59.37
33.046,-66.8
33.062,-72.87
33.078,-76.09
33.093,-75.03
33.109,-68.73
33.125,-57.02
33.140,-40.69
33.156,-21.32
33.171,-0.9
33.187,18.64
33.203,35.75
33.218,49.48
33.234,59.41
33.250,65.51
33.265,68.02
33.281,67.35
33.296,64.09
33.312,58.99
33.328,52.87
33.343,46.51
33.359,40.54
33.375,35.26
33.390,30.79
33.406,27.0
33.421,23.7
33.437,20.7
33.453,17.96
33.468,15.5
33.484,13.39
33.500,11.67
33.515,10.23
33.531,8.8
33.546,6.96
33.562,4.29
33.578,0.56
33.593,-4.21
33.609,-9.75
33.625,-15.61
33.640,-21.44
33.656,-27.03
33.671,-32.41
33.687,-37.79
33.703,-43.46
33.718,-49.58
33.734,-56.17
33.750,-62.84
33.765,-68.83
33.781,-73.0
33.796,-74.06
33.812,-70.81
33.828,-62.62
33.843,-49.68
33.859,-32.98
33.875,-14.18
33.890,4.84
33.906,22.4
33.921,37.26
33.937,48.71
33.953,56.5
33.968,60.75
33.984,61.81
34.000,60.22
34.015,56.7
34.031,51.99
34.046,46.82
34.062,41.7
34.078,36.89
34.093,32.41
34.109,28.12
34.125,23.97
34.140,20.0
34.156,16.4
34.171,13.43
34.187,11.33
34.203,10.15
34.218,9.75
34.234,9.71
34.250,9.45
34.265,8.38
34.281,6.07
34.296,2.4
34.312,-2.41
34.328,-7.91
34.343,-13.6
34.359,-19.07
34.375,-24.18
34.390,-29.04
34.406,-33.99
34.421,-39.4
34.437,-45.58
34.453,-52.54
34.468,-59.88
34.484,-66.63
34.500,-71.46
34.515,-72.86
34.531,-69.6
34.546,-61.15
34.562,-47.82
34.578,-30.83
34.593,-11.99
34.609,6.74
34.625,23.63
34.640,37.5
34.656,47.76
34.671,54.38
34.687,57.66
34.703,58.14
34.718,56.43
34.734,53.19
34.750,49.03
34.765,44.45
34.781,39.82
34.796,35.25
34.812,30.79
34.828,26.38
34.843,22.0
34.859,17.8
34.875,13.97
34.890,10.72
34.906,8.14
34.921,6.21
34.937,4.62
34.953,3.05
34.968,1.09
34.984,-1.58
35.000,-5.14
35.015,-9.53
35.031,-14.5
35.046,-19.69
35.062,-24.68
35.078,-29.24
35.093,-33.41
35.109,-37.52
35.125,-42.11
35.140,-47.59
35.156,-54.12
35.171,-61.36
35.187,-68.39
35.203,-73.89
35.218,-76.45
35.234,-74.8
35.250,-68.23
35.265,-56.8
35.281,-41.27
35.296,-23.12
35.312,-4.11
35.328,14.01
35.343,29.76
35.359,42.21
35.375,50.95
35.390,56.06
35.406,57.87
35.421,56.96
35.437,54.0
35.453,49.61
35.468,44.48
35.484,39.11
35.500,33.94
35.515,29.19
35.531,24.95
35.546,21.16
35.562,17.76
35.578,14.74
35.593,12.16
35.609,10.15
35.625,8.71
35.640,7.66
35.656,6.63
35.671,5.08
35.687,2.53
35.703,-1.32
35.718,-6.42
35.734,-12.46
35.750,-18.86
35.765,-25.1
35.781,-30.8
35.796,-35.81
35.812,-40.33
35.828,-44.75
35.843,-49.6
35.859,-55.25
35.875,-61.73
35.890,-68.46
35.906,-74.2
35.921,-77.31
35.937,-76.12
35.953,-69.58
35.968,-57.55
35.984,-40.96
36.000,-21.55
36.015,-1.46
36.031,17.29
36.046,33.29
36.062,45.78
36.078,54.64
36.093,60.04
36.109,62.39
36.125,62.09
36.140,59.64
36.156,55.59
36.171,50.56
36.187,45.16
36.203,39.95
36.218,35.21
36.234,31.01
36.250,27.26
36.265,23.79
36.281,20.55
36.296,17.63
36.312,15.21
36.328,13.38
36.343,12.05
36.359,10.95
36.375,9.56
36.390,7.41
36.406,4.12
36.421,-0.38
36.437,-5.86
36.453,-11.82
36.468,-17.72
36.484,-23.16
36.500,-27.98
36.515,-32.43
36.531,-36.92
36.546,-42.01
36.562,-48.04
36.578,-55.06
36.593,-62.64
36.609,-69.86
36.625,-75.49
36.640,-78.15
36.656,-76.61
36.671,-70.0
36.687,-58.23
36.703,-41.96
36.718,-22.63
36.734,-2.22
36.750,17.31
36.765,34.29
36.781,47.76
36.796,57.39
36.812,63.42
36.828,66.29
36.843,66.5
36.859,64.5
36.875,60.69
36.890,55.6
36.906,49.76
36.921,43.8
36.937,38.13
36.953,33.04
36.968,28.54
36.984,24.49
37.000,20.81
37.015,17.48
37.031,14.67
37.046,12.51
37.062,11.04
37.078,10.05
37.093,9.08
37.109,7.55
37.125,4.94
37.140,1.05
37.156,-4.02
37.171,-9.8
37.187,-15.78
37.203,-21.51
37.218,-26.76
37.234,-31.61
37.250,-36.41
37.265,-41.63
37.281,-47.59
37.296,-54.45
37.312,-61.9
37.328,-69.18
37.343,-75.13
37.359,-78.36
37.375,-77.57
37.390,-71.85
37.406,-60.98
37.421,-45.49
37.437,-26.74
37.453,-6.57
37.468,13.08
37.484,30.55
37.500,44.78
37.515,55.32
37.531,62.27
37.546,66.0
37.562,66.99
37.578,65.68
37.593,62.56
37.609,58.17
37.625,53.13
37.640,47.96
37.656,43.0
37.671,38.42
37.687,34.22
37.703,30.37
37.718,26.85
37.734,23.75
37.750,21.15
37.765,19.08
37.781,17.42
37.796,15.88
37.812,14.13
37.828,11.76
37.843,8.52
37.859,4.25
37.875,-1.0
37.890,-6.98
37.906,-13.3
37.921,-19.48
37.937,-25.21
37.953,-30.38
37.968,-35.27
37.984,-40.32
38.000,-46.1
38.015,-52.93
38.031,-60.66
38.046,-68.49
38.062,-75.03
38.078,-78.71
38.093,-78.05
38.109,-72.21
38.125,-61.08
38.140,-45.45
38.156,-26.77
38.171,-6.89
38.187,12.35
38.203,29.49
38.218,43.55
38.234,54.12
38.250,61.2
38.265,65.03
38.281,65.97
38.296,64.36
38.312,60.66
38.328,55.38
38.343,49.18
38.359,42.77
38.375,36.8
38.390,31.66
38.406,27.43
38.421,23.95
38.437,20.99
38.453,18.39
38.468,16.14
38.484,14.34
38.500,13.01
38.515,11.98
38.531,10.8
38.546,8.88
38.562,5.77
38.578,1.33
38.593,-4.23
38.609,-10.45
38.625,-16.82
38.640,-22.99
38.656,-28.82
38.671,-34.44
38.687,-40.08
38.703,-46.02
38.718,-52.47
38.734,-59.5
38.750,-66.88
38.765,-73.94
38.781,-79.56
38.796,-82.34
38.812,-80.88
38.828,-74.23
38.843,-62.24
38.859,-45.68
38.875,-26.07
38.890,-5.29
38.906,14.76
38.921,32.59
38.937,47.13
38.953,57.81
38.968,64.46
38.984,67.24
39.000,66.62
39.015,63.28
39.031,58.11
39.046,51.98
39.062,45.67
39.078,39.72
39.093,34.38
39.109,29.72
39.125,25.59
39.140,21.86
39.156,18.4
39.171,15.24
39.187,12.4
39.203,9.97
39.218,7.92
39.234,6.15
39.250,4.42
39.265,2.42
39.281,-0.19
39.296,-3.65
39.312,-8.09
39.328,-13.39
39.343,-19.23
39.359,-25.18
39.375,-30.88
39.390,-36.11
39.406,-40.96
39.421,-45.69
39.437,-50.77
39.453,-56.5
39.468,-62.88
39.484,-69.34
39.500,-74.78
39.515,-77.74
39.531,-76.76
39.546,-70.76
39.562,-59.39
39.578,-43.27
39.593,-23.8
39.609,-2.82
39.625,17.73
39.640,36.19
39.656,51.42
39.671,62.87
39.687,70.49
39.703,74.62
39.718,75.73
39.734,74.31
39.750,70.8
39.765,65.62
39.781,59.21
39.796,52.06
39.812,44.68
39.828,37.42
39.843,30.43
39.859,23.59
39.875,16.74
39.890,9.72
39.906,2.56
39.921,-4.55
39.937,-11.37
39.953,-17.8
39.968,-23.93
39.984,-30.05
40.000,-36.48
40.015,-43.39
40.031,-50.83
40.046,-58.65
40.062,-66.64
40.078,-74.55
40.093,-82.17
40.109,-89.26
40.125,-95.63
40.140,-101.26
40.156,-106.35
40.171,-111.3
40.187,-116.59
40.203,-122.36
40.218,-128.17
40.234,-132.9
40.250,-134.81
40.265,-132.09
40.281,-123.42
40.296,-108.3
40.312,-87.28
40.328,-61.76
40.343,-33.61
40.359,-4.67
40.375,23.59
40.390,50.25
40.406,74.9
40.421,97.45
40.437,117.98
40.453,136.52
40.468,152.82
40.484,166.24
40.500,175.84
40.515,180.46
40.531,179.17
40.546,171.66
40.562,158.53
40.578,141.19
40.593,121.63
40.609,101.86
40.625,83.46
40.640,67.36
40.656,53.81
40.671,42.56
40.687,33.14
40.703,24.94
40.718,17.34
40.734,9.7
40.750,1.47
40.765,-7.65
40.781,-17.65
40.796,-28.13
40.812,-38.47
40.828,-48.04
40.843,-56.44
40.859,-63.6
40.875,-69.85
40.890,-75.52
40.906,-80.74
40.921,-85.23
40.937,-88.25
40.953,-88.84
40.968,-86.02
40.984,-79.12
41.000,-67.89
41.015,-52.72
41.031,-34.4
41.046,-14.17
41.062,6.56
41.078,26.4
41.093,44.1
41.109,58.71
41.125,69.58
41.140,76.44
41.156,79.33
41.171,78.64
41.187,74.92
41.203,68.89
41.218,61.28
41.234,52.81
41.250,43.99
41.265,35.21
41.281,26.66
41.296,18.41
41.312,10.51
41.328,2.96
41.343,-4.21
41.359,-10.91
41.375,-16.97
41.390,-22.19
41.406,-26.41
41.421,-29.52
41.437,-31.53
41.453,-32.64
41.468,-33.15
41.484,-33.46
41.500,-33.86
41.515,-34.67
41.531,-36.12
41.546,-38.39
41.562,-41.63
41.578,-45.81
41.593,-50.59
41.609,-55.23
41.625,-58.64
41.640,-59.6
41.656,-57.11
41.671,-50.67
41.687,-40.51
41.703,-27.43
41.718,-12.71
41.734,2.3
41.750,16.49
41.765,29.05
41.781,39.52
41.796,47.71
41.812,53.57
41.828,57.11
41.843,58.43
41.859,57.7
41.875,55.16
41.890,51.2
41.906,46.22
41.921,40.66
41.937,34.94
41.953,29.46
41.968,24.56
41.984,20.42
42.000,16.99
42.015,14.0
42.031,11.0
42.046,7.56
42.062,3.4
42.078,-1.5
42.093,-6.96
42.109,-12.65
42.125,-18.34
42.140,-23.98
42.156,-29.68
42.171,-35.71
42.187,-42.4
42.203,-49.87
42.218,-57.97
42.234,-66.07
42.250,-73.11
42.265,-77.74
42.281,-78.63
42.296,-74.87
42.312,-66.18
42.328,-53.11
42.343,-36.92
42.359,-19.21
42.375,-1.62
42.390,14.46
42.406,28.07
42.421,38.73
42.437,46.4
42.453,51.33
42.468,53.93
42.484,54.67
42.500,53.98
42.515,52.29
42.531,49.92
42.546,47.14
42.562,44.12
42.578,41.05
42.593,38.08
42.609,35.36
42.625,33.06
42.640,31.28
42.656,30.07
42.671,29.3
42.687,28.72
42.703,27.98
42.718,26.8
42.734,24.95
42.750,22.38
42.765,19.12
42.781,15.26
42.796,10.87
42.812,5.9
42.828,0.32
42.843,-5.88
42.859,-12.45
42.875,-18.84
42.890,-24.04
42.906,-26.87
42.921,-26.25
42.937,-21.54
42.953,-12.81
42.968,-0.83
42.984,13.07
43.000,27.34
43.015,40.48
43.031,51.39
43.046,59.4
43.062,64.25
43.078,66.08
43.093,65.27
43.109,62.39
43.125,58.0
43.140,52.61
43.156,46.62
43.171,40.36
43.187,34.08
43.203,27.92
43.218,22.06
43.234,16.61
43.250,11.67
43.265,7.35
43.281,3.68
43.296,0.63
43.312,-1.96
43.328,-4.3
43.343,-6.67
43.359,-9.16
43.375,-11.82
43.390,-14.51
43.406,-17.08
43.421,-19.46
43.437,-21.71
43.453,-24.11
43.468,-27.0
43.484,-30.68
43.500,-35.17
43.515,-40.12
43.531,-44.79
43.546,-48.05
43.562,-48.77
43.578,-45.99
43.593,-39.27
43.609,-28.85
43.625,-15.59
43.640,-0.76
43.656,14.21
43.671,28.0
43.687,39.65
43.703,48.57
43.718,54.54
43.734,57.61
43.750,57.99
43.765,55.99
43.781,52.1
43.796,46.86
43.812,40.91
43.828,34.83
43.843,29.0
43.859,23.61
43.875,18.61
43.890,13.94
43.906,9.58
43.921,5.62
43.937,2.23
43.953,-0.45
43.968,-2.47
43.984,-4.11
44.000,-5.76
44.015,-7.7
44.031,-10.1
44.046,-12.84
44.062,-15.7
44.078,-18.52
44.093,-21.22
44.109,-23.92
44.125,-26.89
44.140,-30.42
44.156,-34.6
44.171,-39.23
44.187,-43.69
44.203,-47.01
44.218,-48.08
44.234,-45.9
44.250,-39.9
44.265,-30.16
44.281,-17.48
44.296,-3.15
44.312,11.4
44.328,24.86
44.343,36.27
44.359,45.07
44.375,51.0
44.390,54.1
44.406,54.6
44.421,52.89
44.437,49.5
44.453,44.96
44.468,39.76
44.484,34.24
44.500,28.6
44.515,22.98
44.531,17.61
44.546,12.66
44.562,8.38
44.578,4.89
44.593,2.18
44.609,0.08
44.625,-1.62
44.640,-3.19
44.656,-4.81
44.671,-6.58
44.687,-8.64
44.703,-11.01
44.718,-13.7
44.734,-16.65
44.750,-19.71
44.765,-22.71
44.781,-25.57
44.796,-28.4
44.812,-31.43
44.828,-34.94
44.843,-38.88
44.859,-42.77
44.875,-45.62
44.890,-46.22
44.906,-43.5
44.921,-36.99
44.937,-27.0
44.953,-14.44
44.968,-0.68
44.984,12.93
45.000,25.26
45.015,35.47
45.031,43.07
45.046,47.82
45.062,49.76
45.078,49.18
45.093,46.69
45.109,42.95
45.125,38.63
45.140,34.2
45.156,29.83
45.171,25.55
45.187,21.2
45.203,16.74
45.218,12.25
45.234,7.97
45.250,4.2
45.265,1.14
45.281,-1.18
45.296,-2.93
45.312,-4.39
45.328,-5.92
45.343,-7.72
45.359,-9.92
45.375,-12.47
45.390,-15.23
45.406,-18.02
45.421,-20.71
45.437,-23.25
45.453,-25.67
45.468,-28.16
45.484,-30.93
45.500,-34.21
45.515,-37.98
45.531,-41.89
45.546,-45.19
45.562,-46.82
45.578,-45.74
45.593,-41.22
45.609,-33.14
45.625,-22.07
45.640,-9.1
45.656,4.36
45.671,16.98
45.687,27.7
45.703,35.87
45.718,41.25
45.734,43.93
45.750,44.2
45.765,42.54
45.781,39.49
45.796,35.56
45.812,31.24
45.828,26.77
45.843,22.33
45.859,17.9
45.875,13.51
45.890,9.25
45.906,5.3
45.921,1.94
45.937,-0.64
45.953,-2.37
45.968,-3.46
45.984,-4.24
46.000,-5.09
46.015,-6.3
46.031,-7.96
46.046,-10.06
46.062,-12.46
46.078,-14.96
46.093,-17.37
46.109,-19.62
46.125,-21.66
46.140,-23.59
46.156,-25.6
46.171,-27.9
46.187,-30.63
46.203,-33.77
46.218,-37.02
46.234,-39.7
46.250,-40.98
46.265,-39.96
46.281,-36.0
46.296,-28.97
46.312,-19.3
46.328,-7.94
46.343,3.89
46.359,14.98
46.375,24.4
46.390,31.48
46.406,35.99
46.421,37.94
46.437,37.62
46.453,35.5
46.468,32.19
46.484,28.33
46.500,24.48
46.515,20.99
46.531,17.94
46.546,15.23
46.562,12.6
46.578,9.87
46.593,7.0
46.609,4.13
46.625,1.53
46.640,-0.55
46.656,-1.96
46.671,-2.85
46.687,-3.47
46.703,-4.21
46.718,-5.44
46.734,-7.3
46.750,-9.78
46.765,-12.67
46.781,-15.66
46.796,-18.46
46.812,-20.85
46.828,-22.82
46.843,-24.54
46.859,-26.36
46.875,-28.5
46.890,-31.06
46.906,-33.75
46.921,-36.0
46.937,-37.0
46.953,-35.99
46.968,-32.48
46.984,-26.43
47.000,-18.28
47.015,-8.79
47.031,1.14
47.046,10.65
47.062,19.02
47.078,25.67
47.093,30.23
47.109,32.52
47.125,32.58
47.140,30.74
47.156,27.5
47.171,23.48
47.187,19.26
47.203,15.25
47.218,11.65
47.234,8.49
47.250,5.73
47.265,3.3
47.281,1.24
47.296,-0.41
47.312,-1.58
47.328,-2.19
47.343,-2.31
47.359,-2.17
47.375,-2.11
47.390,-2.54
47.406,-3.75
47.421,-5.78
47.437,-8.45
47.453,-11.43
47.468,-14.38
47.484,-17.09
47.500,-19.5
47.515,-21.68
47.531,-23.78
47.546,-25.98
47.562,-28.37
47.578,-30.99
47.593,-33.71
47.609,-36.11
47.625,-37.62
47.640,-37.47
47.656,-35.01
47.671,-29.91
47.687,-22.38
47.703,-13.06
47.718,-2.98
47.734,6.78
47.750,15.33
47.765,22.02
47.781,26.63
47.796,29.16
47.812,29.74
47.828,28.59
47.843,26.02
47.859,22.35
47.875,17.99
47.890,13.35
47.906,8.72
47.921,4.38
47.937,0.46
47.953,-3.0
47.968,-5.9
47.984,-8.03
48.000,-9.25
48.015,-9.36
48.031,-8.38
48.046,-6.52
48.062,-4.11
48.078,-1.46
48.093,1.09
48.109,3.3
48.125,5.02
48.140,6.06
48.156,6.35
48.171,5.87
48.187,4.66
48.203,2.87
48.218,0.67
48.234,-1.88
48.250,-4.8
48.265,-8.18
48.281,-11.95
48.296,-15.67
48.312,-18.62
48.328,-19.94
48.343,-18.86
48.359,-14.97
48.375,-8.39
48.390,0.39
48.406,10.59
48.421,21.31
48.437,31.81
48.453,41.35
48.468,49.29
48.484,55.13
48.500,58.55
48.515,59.52
48.531,58.33
48.546,55.51
48.562,51.61
48.578,47.18
48.593,42.49
48.609,37.61
48.625,32.44
48.640,26.82
48.656,20.68
48.671,14.11
48.687,7.41
48.703,0.87
48.718,-5.19
48.734,-10.63
48.750,-15.5
48.765,-19.93
48.781,-24.06
48.796,-27.99
48.812,-31.67
48.828,-35.02
48.843,-37.97
48.859,-40.53
48.875,-42.79
48.890,-44.91
48.906,-47.04
48.921,-49.3
48.937,-51.75
48.953,-54.35
48.968,-56.92
48.984,-59.14
49.000,-60.46
49.015,-60.23
49.031,-57.93
49.046,-53.2
49.062,-46.1
49.078,-37.06
49.093,-26.78
49.109,-16.15
49.125,-6.07
49.140,2.65
49.156,9.44
49.171,13.93
49.187,16.16
49.203,16.47
49.218,15.46
49.234,13.78
49.250,11.96
49.265,10.29
49.281,8.88
49.296,7.64
49.312,6.4
49.328,5.06
49.343,3.6
49.359,2.16
49.375,0.94
49.390,0.15
49.406,-0.23
49.421,-0.4
49.437,-0.76
49.453,-1.81
49.468,-3.98
49.484,-7.53
49.500,-12.42
49.515,-18.37
49.531,-24.95
49.546,-31.79
49.562,-38.62
49.578,-45.41
49.593,-52.31
49.609,-59.48
49.625,-66.93
49.640,-74.31
49.656,-80.81
49.671,-85.34
49.687,-86.78
49.703,-84.21
49.718,-77.33
49.734,-66.41
49.750,-52.31
49.765,-36.31
49.781,-19.91
49.796,-4.59
49.812,8.39
49.828,18.16
49.843,24.39
49.859,27.26
49.875,27.35
49.890,25.49
49.906,22.45
49.921,18.81
49.937,14.88
49.953,10.73
49.968,6.4
49.984,2.09
50.000,-1.91
50.015,-5.17
50.031,-7.35
50.046,-8.32
50.062,-8.24
50.078,-7.46
50.093,-6.41
50.109,-5.45
50.125,-4.78
50.140,-4.55
50.156,-4.88
50.171,-5.88
50.187,-7.71
50.203,-10.4
50.218,-13.84
50.234,-17.83
50.250,-22.2
50.265,-26.83
50.281,-31.75
50.296,-36.93
50.312,-42.07
50.328,-46.42
50.343,-48.88
50.359,-48.18
50.375,-43.32
50.390,-33.99
50.406,-20.66
50.421,-4.59
50.437,12.55
50.453,29.04
50.468,43.49
50.484,55.05
50.500,63.36
50.515,68.52
50.531,70.86
50.546,70.93
50.562,69.34
50.578,66.71
50.593,63.57
50.609,60.28
50.625,57.1
50.640,54.18
50.656,51.62
50.671,49.48
50.687,47.82
50.703,46.56
50.718,45.53
50.734,44.43
50.750,42.87
50.765,40.52
50.781,37.2
50.796,32.91
50.812,27.79
50.828,22.11
50.843,16.09
50.859,9.99
50.875,4.01
50.890,-1.75
50.906,-7.24
50.921,-12.53
50.937,-17.74
50.953,-22.97
50.968,-28.13
50.984,-32.84
51.000,-36.31
51.015,-37.53
51.031,-35.51
51.046,-29.66
51.062,-20.05
51.078,-7.52
51.093,6.5
51.109,20.32
51.125,32.46
51.140,41.9
51.156,48.23
51.171,51.5
51.187,52.06
51.203,50.35
51.218,46.89
51.234,42.16
51.250,36.74
51.265,31.18
51.281,25.97
51.296,21.39
51.312,17.56
51.328,14.45
51.343,11.95
51.359,9.98
51.375,8.51
51.390,7.42
51.406,6.57
51.421,5.68
51.437,4.43
51.453,2.58
51.468,0.05
51.484,-3.1
51.500,-6.63
51.515,-10.26
51.531,-13.84
51.546,-17.25
51.562,-20.58
51.578,-24.01
51.593,-27.75
51.609,-31.88
51.625,-36.29
51.640,-40.45
51.656,-43.47
51.671,-44.23
51.687,-41.71
51.703,-35.33
51.718,-25.23
51.734,-12.31
51.750,1.93
51.765,15.78
51.781,27.82
51.796,37.06
51.812,43.15
51.828,46.2
51.843,46.59
51.859,44.77
51.875,41.24
51.890,36.5
51.906,31.01
51.921,25.35
51.937,19.99
51.953,15.32
51.968,11.58
51.984,8.84
52.000,7.01
52.015,5.97
52.031,5.54
52.046,5.46
52.062,5.44
52.078,5.18
52.093,4.45
52.109,3.12
52.125,1.22
52.140,-1.17
52.156,-3.93
52.171,-6.96
52.187,-10.24
52.203,-13.76
52.218,-17.57
52.234,-21.71
52.250,-26.16
52.265,-30.83
52.281,-35.39
52.296,-39.19
52.312,-41.3
52.328,-40.69
52.343,-36.47
52.359,-28.35
52.375,-16.81
52.390,-3.05
52.406,11.28
52.421,24.5
52.437,35.32
52.453,43.04
52.468,47.53
52.484,49.1
52.500,48.23
52.515,45.44
52.531,41.23
52.546,36.12
52.562,30.6
52.578,25.16
52.593,20.21
52.609,15.96
52.625,12.47
52.640,9.72
52.656,7.58
52.671,5.95
52.687,4.76
52.703,3.86
52.718,3.04
52.734,2.08
52.750,0.76
52.765,-1.02
52.781,-3.2
52.796,-5.62
52.812,-8.05
52.828,-10.33
52.843,-12.47
52.859,-14.57
52.875,-16.85
52.890,-19.62
52.906,-23.05
52.921,-27.21
52.937,-31.88
52.953,-36.48
52.968,-40.08
52.984,-41.6
53.000,-40.04
53.015,-34.78
53.031,-25.9
53.046,-14.08
53.062,-0.59
53.078,13.1
53.093,25.58
53.109,35.79
53.125,43.08
53.140,47.27
53.156,48.53
53.171,47.3
53.187,44.19
53.203,39.87
53.218,34.88
53.234,29.63
53.250,24.34
53.265,19.05
53.281,13.76
53.296,8.46
53.312,3.3
53.328,-1.53
53.343,-5.75
53.359,-9.15
53.375,-11.62
53.390,-13.27
53.406,-14.31
53.421,-15.03
53.437,-15.83
53.453,-16.96
53.468,-18.51
53.484,-20.36
53.500,-22.32
53.515,-24.15
53.531,-25.69
53.546,-27.0
53.562,-28.21
53.578,-29.56
53.593,-31.17
53.609,-32.97
53.625,-34.56
53.640,-35.31
53.656,-34.36
53.671,-30.86
53.687,-24.26
53.703,-14.48
53.718,-2.0
53.734,12.17
53.750,26.81
53.765,40.77
53.781,53.16
53.796,63.45
53.812,71.41
53.828,77.02
53.843,80.43
53.859,81.9
53.875,81.89
53.890,80.9
53.906,79.47
53.921,77.96
53.937,76.43
53.953,74.66
53.968,72.18
53.984,68.47
54.000,63.22
54.015,56.46
54.031,48.72
54.046,40.88
54.062,33.97
54.078,28.83
54.093,25.75
54.109,24.37
54.125,23.86
54.140,23.1
54.156,21.18
54.171,17.58
54.187,12.32
54.203,5.81
54.218,-1.3
54.234,-8.37
54.250,-14.8
54.265,-20.11
54.281,-24.12
54.296,-26.89
54.312,-28.86
54.328,-30.67
54.343,-32.96
54.359,-36.14
54.375,-40.09
54.390,-44.24
54.406,-47.64
54.421,-49.41
54.437,-48.92
54.453,-46.06
54.468,-41.1
54.484,-34.64
54.500,-27.38
54.515,-20.01
54.531,-13.12
54.546,-7.16
54.562,-2.47
54.578,0.87
54.593,2.97
54.609,4.38
54.625,5.84
54.640,8.09
54.656,11.52
54.671,15.83
54.687,20.13
54.703,23.2
54.718,24.2
54.734,23.12
54.750,20.96
54.765,19.26
54.781,19.36
54.796,21.67
54.812,25.36
54.828,28.84
54.843,30.42
54.859,29.13
54.875,25.06
54.890,19.19
54.906,12.78
54.921,6.87
54.937,1.96
54.953,-1.98
54.968,-5.06
54.984,-7.25
55.000,-8.23
55.015,-7.64
55.031,-5.33
55.046,-1.74
55.062,2.2
55.078,5.46
55.093,7.3
55.109,7.82
55.125,7.87
55.140,8.77
55.156,11.49
55.171,16.32
55.187,22.55
55.203,28.93
55.218,34.19
55.234,37.45
55.250,38.64
55.265,38.25
55.281,37.14
55.296,35.99
55.312,35.2
55.328,34.76
55.343,34.42
55.359,33.84
55.375,32.67
55.390,30.8
55.406,28.23
55.421,25.07
55.437,21.39
55.453,17.21
55.468,12.44
55.484,6.98
55.500,0.86
55.515,-5.76
55.531,-12.52
55.546,-19.11
55.562,-25.54
55.578,-32.43
55.593,-40.94
55.609,-52.54
55.625,-68.29
55.640,-88.2
55.656,-111.02
55.671,-134.36
55.687,-155.34
55.703,-171.32
55.718,-180.38
55.734,-181.56
55.750,-174.98
55.765,-161.91
55.781,-144.8
55.796,-126.98
55.812,-111.92
55.828,-101.94
55.843,-97.16
55.859,-95.07
55.875,-91.33
55.890,-81.69
55.906,-63.88
55.921,-38.69
55.937,-9.63
55.953,18.6
55.968,41.91
55.984,57.88
56.000,65.97
56.015,66.93
56.031,62.2
56.046,53.67
56.062,43.83
56.078,35.67
56.093,32.18
56.109,35.42
56.125,45.45
56.140,60.05
56.156,75.42
56.171,87.43
56.187,93.07
56.203,91.21
56.218,82.56
56.234,69.08
56.250,53.14
56.265,36.89
56.281,21.91
56.296,9.21
56.312,-0.76
56.328,-7.95
56.343,-12.67
56.359,-15.5
56.375,-17.04
56.390,-17.91
56.406,-18.61
56.421,-19.46
56.437,-20.72
56.453,-22.62
56.468,-25.36
56.484,-29.1
56.500,-33.94
56.515,-39.72
56.531,-46.02
56.546,-52.18
56.562,-57.26
56.578,-60.35
56.593,-60.73
56.609,-57.91
56.625,-51.84
56.640,-42.8
56.656,-31.38
56.671,-18.4
56.687,-4.89
56.703,8.25
56.718,20.15
56.734,30.2
56.750,38.03
56.765,43.39
56.781,46.19
56.796,46.45
56.812,44.31
56.828,40.05
56.843,34.17
56.859,27.22
56.875,19.79
56.890,12.39
56.906,5.36
56.921,-1.15
56.937,-7.12
56.953,-12.54
56.968,-17.46
56.984,-21.83
57.000,-25.65
57.015,-28.97
57.031,-31.86
57.046,-34.66
57.062,-37.75
57.078,-41.53
57.093,-46.31
57.109,-52.13
57.125,-58.72
57.140,-65.52
57.156,-71.82
57.171,-76.86
57.187,-80.11
57.203,-81.28
57.218,-80.37
57.234,-77.59
57.250,-73.24
57.265,-67.65
57.281,-61.07
57.296,-53.6
57.312,-45.22
57.328,-35.79
57.343,-25.18
57.359,-13.35
57.375,-0.54
57.390,12.74
57.406,25.74
57.421,37.7
57.437,47.98
57.453,56.19
57.468,62.19
57.484,66.05
57.500,67.99
57.515,68.22
57.531,67.0
57.546,64.57
57.562,61.15
57.578,56.9
57.593,51.89
57.609,46.2
57.625,39.9
57.640,33.27
57.656,26.8
57.671,21.05
57.687,16.58
57.703,13.68
57.718,12.27
57.734,12.03
57.750,12.54
57.765,13.32
57.781,13.95
57.796,14.03
57.812,13.16
57.828,11.01
57.843,7.42
57.859,2.49
57.875,-3.34
57.890,-9.58
57.906,-15.87
57.921,-22.14
57.937,-28.49
57.953,-34.95
57.968,-41.26
57.984,-46.85
58.000,-51.04
58.015,-53.27
58.031,-53.3
58.046,-51.16
58.062,-46.89
58.078,-40.46
58.093,-31.9
58.109,-21.38
58.125,-9.45
58.140,2.92
58.156,14.6
58.171,24.67
58.187,32.56
58.203,38.36
58.218,42.39
58.234,45.04
58.250,46.56
58.265,46.99
58.281,46.25
58.296,44.29
58.312,41.24
58.328,37.39
58.343,33.2
58.359,29.14
58.375,25.57
58.390,22.66
58.406,20.44
58.421,18.8
58.437,17.55
58.453,16.43
58.468,15.08
58.484,13.11
58.500,10.07
58.515,5.73
58.531,0.11
58.546,-6.46
58.562,-13.38
58.578,-19.95
58.593,-25.68
58.609,-30.48
58.625,-34.68
58.640,-38.84
58.656,-43.48
58.671,-48.66
58.687,-53.89
58.703,-58.2
58.718,-60.42
58.734,-59.63
58.750,-55.53
58.765,-48.47
58.781,-39.33
58.796,-29.25
58.812,-19.31
58.828,-10.38
58.843,-3.15
58.859,1.89
58.875,4.4
58.890,4.2
58.906,1.42
58.921,-3.55
58.937,-10.02
58.953,-17.19
58.968,-24.34
58.984,-30.91
59.000,-36.58
59.015,-41.19
59.031,-44.75
59.046,-47.37
59.062,-49.24
59.078,-50.57
59.093,-51.55
59.109,-52.27
59.125,-52.6
59.140,-52.37
59.156,-51.44
59.171,-49.99
59.187,-48.52
59.203,-47.74
59.218,-48.1
59.234,-49.46
59.250,-51.05
59.265,-51.81
59.281,-50.95
59.296,-48.41
59.312,-44.94
59.328,-41.6
59.343,-39.23
59.359,-37.86
59.375,-36.69
59.390,-34.52
59.406,-30.25
59.421,-23.24
59.437,-13.41
59.453,-1.02
59.468,13.54
59.484,29.67
59.500,46.54
59.515,62.94
59.531,77.42
59.546,88.62
59.562,95.58
59.578,98.01
59.593,96.27
59.609,91.19
59.625,83.7
59.640,74.73
59.656,64.99
59.671,55.01
59.687,45.29
59.703,36.26
59.718,28.29
59.734,21.57
59.750,16.21
59.765,12.09
59.781,8.99
59.796,6.63
59.812,4.67
59.828,2.79
59.843,0.8
59.859,-1.38
59.875,-3.71
59.890,-6.06
59.906,-8.33
59.921,-10.46
59.937,-12.6
59.953,-14.97
59.968,-17.83
59.984,-21.42
