timestamp,value
00.000,-45.38
00.015,-39.24
00.031,-33.22
00.046,-27.44
00.062,-21.75
00.078,-15.97
00.093,-9.95
00.109,-3.73
00.125,2.47
00.140,8.48
00.156,14.03
00.171,18.97
00.187,23.21
00.203,26.68
00.218,29.37
00.234,31.29
00.250,32.55
00.265,33.34
00.281,33.87
00.296,34.36
00.312,34.95
00.328,35.7
00.343,36.53
00.359,37.27
00.375,37.69
00.390,37.61
00.406,36.92
00.421,35.7
00.437,34.15
00.453,32.48
00.468,30.9
00.484,29.48
00.500,28.22
00.515,27.04
00.531,25.79
00.546,24.33
00.562,22.57
00.578,20.45
00.593,17.96
00.609,15.12
00.625,11.97
00.640,8.59
00.656,5.06
00.671,1.43
00.687,-2.21
00.703,-5.78
00.718,-9.23
00.734,-12.53
00.750,-15.7
00.765,-18.85
00.781,-22.09
00.796,-25.53
00.812,-29.26
00.828,-33.43
00.843,-38.03
00.859,-43.0
00.875,-48.03
00.890,-52.59
00.906,-56.04
00.921,-57.76
00.937,-57.36
00.953,-54.73
00.968,-50.13
00.984,-44.01
01.000,-37.0
01.015,-29.64
01.031,-22.41
01.046,-15.54
01.062,-9.07
01.078,-2.94
01.093,3.01
01.109,8.87
01.125,14.64
01.140,20.18
01.156,25.3
01.171,29.79
01.187,33.48
01.203,36.33
01.218,38.33
01.234,39.6
01.250,40.33
01.265,40.8
01.281,41.26
01.296,41.86
01.312,42.55
01.328,43.07
01.343,43.17
01.359,42.62
01.375,41.45
01.390,39.86
01.406,38.17
01.421,36.63
01.437,35.3
01.453,34.11
01.468,32.83
01.484,31.34
01.500,29.54
01.515,27.42
01.531,24.99
01.546,22.27
01.562,19.24
01.578,15.98
01.593,12.57
01.609,9.12
01.625,5.72
01.640,2.41
01.656,-0.83
01.671,-4.05
01.687,-7.3
01.703,-10.59
01.718,-13.83
01.734,-16.97
01.750,-19.99
01.765,-22.98
01.781,-26.13
01.796,-29.6
01.812,-33.5
01.828,-37.69
01.843,-41.79
01.859,-45.23
01.875,-47.39
01.890,-47.85
01.906,-46.42
01.921,-43.18
01.937,-38.37
01.953,-32.42
01.968,-25.74
01.984,-18.75
02.000,-11.87
02.015,-5.38
02.031,0.53
02.046,5.88
02.062,10.75
02.078,15.33
02.093,19.68
02.109,23.73
02.125,27.36
02.140,30.39
02.156,32.71
02.171,34.34
02.187,35.43
02.203,36.11
02.218,36.54
02.234,36.84
02.250,37.01
02.265,37.04
02.281,36.85
02.296,36.4
02.312,35.69
02.328,34.78
02.343,33.77
02.359,32.72
02.375,31.66
02.390,30.51
02.406,29.16
02.421,27.45
02.437,25.36
02.453,22.94
02.468,20.27
02.484,17.46
02.500,14.56
02.515,11.52
02.531,8.25
02.546,4.71
02.562,0.91
02.578,-3.01
02.593,-6.86
02.609,-10.51
02.625,-13.91
02.640,-17.08
02.656,-20.15
02.671,-23.29
02.687,-26.58
02.703,-30.14
02.718,-34.01
02.734,-38.2
02.750,-42.64
02.765,-47.13
02.781,-51.36
02.796,-54.9
02.812,-57.26
02.828,-57.98
02.843,-56.71
02.859,-53.37
02.875,-48.11
02.890,-41.34
02.906,-33.62
02.921,-25.53
02.937,-17.62
02.953,-10.25
02.968,-3.53
02.984,2.53
03.000,8.1
03.015,13.31
03.031,18.21
03.046,22.75
03.062,26.84
03.078,30.38
03.093,33.32
03.109,35.66
03.125,37.37
03.140,38.46
03.156,38.91
03.171,38.78
03.187,38.3
03.203,37.75
03.218,37.43
03.234,37.48
03.250,37.82
03.265,38.17
03.281,38.17
03.296,37.57
03.312,36.29
03.328,34.47
03.343,32.33
03.359,30.13
03.375,27.99
03.390,25.92
03.406,23.79
03.421,21.47
03.437,18.89
03.453,16.05
03.468,13.03
03.484,9.98
03.500,7.05
03.515,4.3
03.531,1.75
03.546,-0.71
03.562,-3.22
03.578,-5.88
03.593,-8.74
03.609,-11.8
03.625,-15.05
03.640,-18.44
03.656,-21.99
03.671,-25.66
03.687,-29.4
03.703,-33.15
03.718,-36.9
03.734,-40.72
03.750,-44.69
03.765,-48.83
03.781,-52.91
03.796,-56.47
03.812,-58.84
03.828,-59.42
03.843,-57.82
03.859,-54.08
03.875,-48.61
03.890,-41.97
03.906,-34.74
03.921,-27.38
03.937,-20.16
03.953,-13.23
03.968,-6.71
03.984,-0.64
04.000,4.97
04.015,10.13
04.031,14.87
04.046,19.22
04.062,23.09
04.078,26.36
04.093,28.9
04.109,30.66
04.125,31.71
04.140,32.25
04.156,32.49
04.171,32.62
04.187,32.74
04.203,32.81
04.218,32.8
04.234,32.63
04.250,32.31
04.265,31.82
04.281,31.16
04.296,30.29
04.312,29.19
04.328,27.93
04.343,26.53
04.359,25.12
04.375,23.72
04.390,22.35
04.406,20.98
04.421,19.56
04.437,18.02
04.453,16.34
04.468,14.52
04.484,12.53
04.500,10.45
04.515,8.29
04.531,6.16
04.546,4.01
04.562,1.77
04.578,-0.69
04.593,-3.46
04.609,-6.54
04.625,-9.85
04.640,-13.28
04.656,-16.76
04.671,-20.26
04.687,-23.84
04.703,-27.51
04.718,-31.24
04.734,-35.01
04.750,-38.81
04.765,-42.63
04.781,-46.39
04.796,-49.88
04.812,-52.72
04.828,-54.42
04.843,-54.54
04.859,-52.84
04.875,-49.42
04.890,-44.63
04.906,-38.97
04.921,-32.91
04.937,-26.79
04.953,-20.79
04.968,-15.01
04.984,-9.49
05.000,-4.28
05.015,0.58
05.031,5.08
05.046,9.21
05.062,12.95
05.078,16.23
05.093,18.96
05.109,21.1
05.125,22.65
05.140,23.66
05.156,24.22
05.171,24.45
05.187,24.44
05.203,24.36
05.218,24.32
05.234,24.42
05.250,24.69
05.265,25.08
05.281,25.43
05.296,25.6
05.312,25.49
05.328,25.07
05.343,24.4
05.359,23.51
05.375,22.42
05.390,21.12
05.406,19.58
05.421,17.79
05.437,15.76
05.453,13.56
05.468,11.24
05.484,8.9
05.500,6.49
05.515,3.99
05.531,1.31
05.546,-1.54
05.562,-4.51
05.578,-7.48
05.593,-10.31
05.609,-12.93
05.625,-15.36
05.640,-17.73
05.656,-20.15
05.671,-22.79
05.687,-25.79
05.703,-29.24
05.718,-33.21
05.734,-37.66
05.750,-42.36
05.765,-46.85
05.781,-50.54
05.796,-52.74
05.812,-52.93
05.828,-50.94
05.843,-46.91
05.859,-41.3
05.875,-34.72
05.890,-27.77
05.906,-20.93
05.921,-14.53
05.937,-8.67
05.953,-3.38
05.968,1.42
05.984,5.87
06.000,10.02
06.015,13.86
06.031,17.27
06.046,20.12
06.062,22.31
06.078,23.82
06.093,24.71
06.109,25.16
06.125,25.35
06.140,25.41
06.156,25.45
06.171,25.51
06.187,25.62
06.203,25.78
06.218,25.92
06.234,25.95
06.250,25.76
06.265,25.29
06.281,24.58
06.296,23.71
06.312,22.81
06.328,21.99
06.343,21.26
06.359,20.58
06.375,19.81
06.390,18.84
06.406,17.56
06.421,16.0
06.437,14.2
06.453,12.26
06.468,10.29
06.484,8.34
06.500,6.37
06.515,4.34
06.531,2.07
06.546,-0.56
06.562,-3.63
06.578,-7.08
06.593,-10.76
06.609,-14.43
06.625,-17.94
06.640,-21.18
06.656,-24.21
06.671,-27.15
06.687,-30.15
06.703,-33.29
06.718,-36.56
06.734,-39.99
06.750,-43.54
06.765,-47.24
06.781,-50.87
06.796,-54.02
06.812,-56.12
06.828,-56.55
06.843,-54.93
06.859,-51.31
06.875,-46.07
06.890,-39.81
06.906,-33.13
06.921,-26.4
06.937,-19.78
06.953,-13.36
06.968,-7.21
06.984,-1.39
07.000,3.96
07.015,8.81
07.031,13.15
07.046,16.94
07.062,20.19
07.078,22.84
07.093,24.84
07.109,26.21
07.125,27.06
07.140,27.53
07.156,27.81
07.171,28.09
07.187,28.44
07.203,28.92
07.218,29.51
07.234,30.13
07.250,30.73
07.265,31.27
07.281,31.72
07.296,32.0
07.312,32.05
07.328,31.71
07.343,30.91
07.359,29.63
07.375,27.97
07.390,26.13
07.406,24.28
07.421,22.45
07.437,20.56
07.453,18.49
07.468,16.1
07.484,13.37
07.500,10.39
07.515,7.31
07.531,4.3
07.546,1.46
07.562,-1.18
07.578,-3.66
07.593,-6.05
07.609,-8.44
07.625,-10.9
07.640,-13.45
07.656,-16.07
07.671,-18.7
07.687,-21.33
07.703,-23.95
07.718,-26.62
07.734,-29.45
07.750,-32.51
07.765,-35.87
07.781,-39.44
07.796,-43.06
07.812,-46.36
07.828,-48.91
07.843,-50.26
07.859,-50.06
07.875,-48.18
07.890,-44.79
07.906,-40.23
07.921,-34.95
07.937,-29.4
07.953,-23.8
07.968,-18.27
07.984,-12.76
08.000,-7.27
08.015,-1.86
08.031,3.34
08.046,8.2
08.062,12.6
08.078,16.5
08.093,19.9
08.109,22.87
08.125,25.42
08.140,27.58
08.156,29.31
08.171,30.57
08.187,31.36
08.203,31.72
08.218,31.76
08.234,31.63
08.250,31.4
08.265,31.1
08.281,30.64
08.296,29.91
08.312,28.86
08.328,27.54
08.343,26.1
08.359,24.7
08.375,23.48
08.390,22.42
08.406,21.43
08.421,20.37
08.437,19.09
08.453,17.49
08.468,15.54
08.484,13.31
08.500,10.89
08.515,8.46
08.531,6.13
08.546,3.97
08.562,1.99
08.578,0.09
08.593,-1.83
08.609,-3.88
08.625,-6.16
08.640,-8.7
08.656,-11.49
08.671,-14.51
08.687,-17.72
08.703,-21.1
08.718,-24.65
08.734,-28.39
08.750,-32.32
08.765,-36.37
08.781,-40.33
08.796,-43.84
08.812,-46.39
08.828,-47.47
08.843,-46.73
08.859,-44.1
08.875,-39.8
08.890,-34.29
08.906,-28.1
08.921,-21.73
08.937,-15.46
08.953,-9.5
08.968,-3.86
08.984,1.42
09.000,6.28
09.015,10.65
09.031,14.48
09.046,17.71
09.062,20.32
09.078,22.34
09.093,23.78
09.109,24.76
09.125,25.43
09.140,25.95
09.156,26.45
09.171,26.92
09.187,27.33
09.203,27.56
09.218,27.55
09.234,27.26
09.250,26.79
09.265,26.25
09.281,25.67
09.296,25.08
09.312,24.37
09.328,23.53
09.343,22.55
09.359,21.5
09.375,20.43
09.390,19.32
09.406,18.09
09.421,16.58
09.437,14.69
09.453,12.37
09.468,9.74
09.484,6.96
09.500,4.21
09.515,1.58
09.531,-0.96
09.546,-3.55
09.562,-6.31
09.578,-9.26
09.593,-12.4
09.609,-15.61
09.625,-18.78
09.640,-21.8
09.656,-24.65
09.671,-27.38
09.687,-30.16
09.703,-33.17
09.718,-36.53
09.734,-40.22
09.750,-44.0
09.765,-47.46
09.781,-50.03
09.796,-51.23
09.812,-50.79
09.828,-48.72
09.843,-45.24
09.859,-40.73
09.875,-35.52
09.890,-29.86
09.906,-23.93
09.921,-17.89
09.937,-11.87
09.953,-6.05
09.968,-0.53
09.984,4.7
10.000,9.68
10.015,14.4
10.031,18.79
10.046,22.63
10.062,25.72
10.078,27.9
10.093,29.24
10.109,29.93
10.125,30.3
10.140,30.63
10.156,31.1
10.171,31.79
10.187,32.66
10.203,33.68
10.218,34.76
10.234,35.81
10.250,36.66
10.265,37.1
10.281,36.89
10.296,35.88
10.312,34.1
10.328,31.69
10.343,29.0
10.359,26.3
10.375,23.79
10.390,21.54
10.406,19.47
10.421,17.44
10.437,15.36
10.453,13.22
10.468,11.04
10.484,8.88
10.500,6.69
10.515,4.42
10.531,2.0
10.546,-0.61
10.562,-3.33
10.578,-6.06
10.593,-8.67
10.609,-11.17
10.625,-13.55
10.640,-15.91
10.656,-18.34
10.671,-20.96
10.687,-23.92
10.703,-27.31
10.718,-31.23
10.734,-35.63
10.750,-40.38
10.765,-45.12
10.781,-49.36
10.796,-52.48
10.812,-53.89
10.828,-53.22
10.843,-50.4
10.859,-45.68
10.875,-39.6
10.890,-32.81
10.906,-25.88
10.921,-19.2
10.937,-12.94
10.953,-7.1
10.968,-1.67
10.984,3.45
11.000,8.28
11.015,12.81
11.031,16.97
11.046,20.67
11.062,23.81
11.078,26.31
11.093,28.14
11.109,29.34
11.125,30.06
11.140,30.46
11.156,30.72
11.171,30.95
11.187,31.17
11.203,31.36
11.218,31.45
11.234,31.42
11.250,31.23
11.265,30.9
11.281,30.4
11.296,29.72
11.312,28.84
11.328,27.79
11.343,26.64
11.359,25.45
11.375,24.32
11.390,23.18
11.406,21.91
11.421,20.37
11.437,18.46
11.453,16.22
11.468,13.8
11.484,11.43
11.500,9.34
11.515,7.68
11.531,6.39
11.546,5.3
11.562,4.15
11.578,2.68
11.593,0.77
11.609,-1.61
11.625,-4.34
11.640,-7.27
11.656,-10.24
11.671,-13.17
11.687,-16.01
11.703,-18.82
11.718,-21.65
11.734,-24.63
11.750,-27.85
11.765,-31.43
11.781,-35.36
11.796,-39.41
11.812,-43.18
11.828,-46.07
11.843,-47.5
11.859,-47.18
11.875,-45.08
11.890,-41.51
11.906,-37.01
11.921,-32.05
11.937,-27.03
11.953,-22.09
11.968,-17.31
11.984,-12.66
12.000,-8.18
12.015,-3.87
12.031,0.25
12.046,4.16
12.062,7.89
12.078,11.3
12.093,14.3
12.109,16.75
12.125,18.64
12.140,20.02
12.156,21.09
12.171,22.02
12.187,22.9
12.203,23.74
12.218,24.46
12.234,24.98
12.250,25.31
12.265,25.5
12.281,25.57
12.296,25.48
12.312,25.13
12.328,24.4
12.343,23.27
12.359,21.77
12.375,20.05
12.390,18.27
12.406,16.5
12.421,14.73
12.437,12.87
12.453,10.85
12.468,8.71
12.484,6.53
12.500,4.4
12.515,2.36
12.531,0.39
12.546,-1.59
12.562,-3.64
12.578,-5.8
12.593,-8.02
12.609,-10.3
12.625,-12.64
12.640,-15.11
12.656,-17.77
12.671,-20.63
12.687,-23.63
12.703,-26.68
12.718,-29.67
12.734,-32.58
12.750,-35.53
12.765,-38.59
12.781,-41.7
12.796,-44.61
12.812,-46.84
12.828,-47.89
12.843,-47.38
12.859,-45.22
12.875,-41.65
12.890,-37.19
12.906,-32.32
12.921,-27.38
12.937,-22.54
12.953,-17.73
12.968,-12.85
12.984,-7.85
13.000,-2.73
13.015,2.42
13.031,7.49
13.046,12.37
13.062,16.88
13.078,20.8
13.093,23.89
13.109,25.97
13.125,27.01
13.140,27.12
13.156,26.62
13.171,25.91
13.187,25.36
13.203,25.18
13.218,25.35
13.234,25.78
13.250,26.3
13.265,26.76
13.281,27.11
13.296,27.32
13.312,27.37
13.328,27.24
13.343,26.88
13.359,26.26
13.375,25.44
13.390,24.53
13.406,23.64
13.421,22.86
13.437,22.17
13.453,21.53
13.468,20.87
13.484,20.17
13.500,19.44
13.515,18.7
13.531,17.92
13.546,17.02
13.562,15.82
13.578,14.15
13.593,11.89
13.609,9.05
13.625,5.71
13.640,2.02
13.656,-1.89
13.671,-5.95
13.687,-10.13
13.703,-14.41
13.718,-18.78
13.734,-23.18
13.750,-27.58
13.765,-31.99
13.781,-36.42
13.796,-40.83
13.812,-45.05
13.828,-48.72
13.843,-51.33
13.859,-52.39
13.875,-51.61
13.890,-48.99
13.906,-44.9
13.921,-39.88
13.937,-34.52
13.953,-29.22
13.968,-24.18
13.984,-19.39
14.000,-14.73
14.015,-10.1
14.031,-5.45
14.046,-0.88
14.062,3.46
14.078,7.43
14.093,10.92
14.109,13.89
14.125,16.35
14.140,18.34
14.156,19.87
14.171,20.98
14.187,21.66
14.203,21.96
14.218,21.98
14.234,21.9
14.250,21.89
14.265,22.06
14.281,22.38
14.296,22.7
14.312,22.85
14.328,22.74
14.343,22.37
14.359,21.84
14.375,21.33
14.390,20.92
14.406,20.61
14.421,20.26
14.437,19.71
14.453,18.96
14.468,18.04
14.484,17.07
14.500,16.08
14.515,15.01
14.531,13.69
14.546,11.98
14.562,9.84
14.578,7.38
14.593,4.85
14.609,2.44
14.625,0.26
14.640,-1.72
14.656,-3.63
14.671,-5.63
14.687,-7.8
14.703,-10.15
14.718,-12.62
14.734,-15.12
14.750,-17.58
14.765,-19.98
14.781,-22.29
14.796,-24.62
14.812,-27.1
14.828,-29.86
14.843,-32.93
14.859,-36.22
14.875,-39.39
14.890,-42.01
14.906,-43.57
14.921,-43.73
14.937,-42.36
14.953,-39.59
14.968,-35.73
14.984,-31.19
15.000,-26.4
15.015,-21.66
15.031,-17.15
15.046,-12.93
15.062,-8.96
15.078,-5.16
15.093,-1.4
15.109,2.37
15.125,6.1
15.140,9.69
15.156,12.93
15.171,15.67
15.187,17.8
15.203,19.31
15.218,20.26
15.234,20.8
15.250,21.11
15.265,21.36
15.281,21.66
15.296,22.04
15.312,22.46
15.328,22.86
15.343,23.14
15.359,23.21
15.375,23.01
15.390,22.5
15.406,21.67
15.421,20.53
15.437,19.13
15.453,17.54
15.468,15.93
15.484,14.4
15.500,13.03
15.515,11.82
15.531,10.73
15.546,9.76
15.562,8.85
15.578,7.94
15.593,6.92
15.609,5.59
15.625,3.79
15.640,1.4
15.656,-1.5
15.671,-4.79
15.687,-8.16
15.703,-11.42
15.718,-14.42
15.734,-17.16
15.750,-19.7
15.765,-22.15
15.781,-24.64
15.796,-27.28
15.812,-30.23
15.828,-33.43
15.843,-36.71
15.859,-39.7
15.875,-41.94
15.890,-42.97
15.906,-42.51
15.921,-40.52
15.937,-37.17
15.953,-32.85
15.968,-27.96
15.984,-22.87
16.000,-17.85
16.015,-13.03
16.031,-8.44
16.046,-4.01
16.062,0.29
16.078,4.55
16.093,8.7
16.109,12.65
16.125,16.24
16.140,19.29
16.156,21.7
16.171,23.41
16.187,24.49
16.203,25.05
16.218,25.3
16.234,25.4
16.250,25.51
16.265,25.7
16.281,25.98
16.296,26.32
16.312,26.62
16.328,26.81
16.343,26.83
16.359,26.64
16.375,26.23
16.390,25.66
16.406,25.02
16.421,24.36
16.437,23.71
16.453,23.02
16.468,22.2
16.484,21.18
16.500,19.95
16.515,18.52
16.531,16.9
16.546,15.07
16.562,12.99
16.578,10.64
16.593,8.06
16.609,5.32
16.625,2.56
16.640,-0.13
16.656,-2.73
16.671,-5.25
16.687,-7.75
16.703,-10.29
16.718,-12.9
16.734,-15.6
16.750,-18.35
16.765,-21.13
16.781,-23.99
16.796,-26.99
16.812,-30.27
16.828,-33.94
16.843,-38.01
16.859,-42.26
16.875,-46.27
16.890,-49.45
16.906,-51.21
16.921,-51.2
16.937,-49.29
16.953,-45.7
16.968,-40.88
16.984,-35.31
17.000,-29.41
17.015,-23.5
17.031,-17.7
17.046,-12.1
17.062,-6.76
17.078,-1.7
17.093,3.06
17.109,7.53
17.125,11.72
17.140,15.69
17.156,19.34
17.171,22.53
17.187,25.03
17.203,26.72
17.218,27.61
17.234,27.96
17.250,28.11
17.265,28.36
17.281,28.86
17.296,29.56
17.312,30.29
17.328,30.86
17.343,31.18
17.359,31.29
17.375,31.21
17.390,30.96
17.406,30.53
17.421,29.84
17.437,28.89
17.453,27.77
17.468,26.64
17.484,25.67
17.500,24.9
17.515,24.24
17.531,23.52
17.546,22.51
17.562,21.06
17.578,19.14
17.593,16.81
17.609,14.2
17.625,11.45
17.640,8.64
17.656,5.84
17.671,3.08
17.687,0.41
17.703,-2.14
17.718,-4.58
17.734,-6.96
17.750,-9.35
17.765,-11.83
17.781,-14.4
17.796,-17.06
17.812,-19.75
17.828,-22.44
17.843,-25.12
17.859,-27.87
17.875,-30.8
17.890,-33.95
17.906,-37.3
17.921,-40.68
17.937,-43.8
17.953,-46.23
17.968,-47.52
17.984,-47.37
18.000,-45.61
18.015,-42.37
18.031,-37.98
18.046,-32.85
18.062,-27.43
18.078,-22.02
18.093,-16.75
18.109,-11.7
18.125,-6.83
18.140,-2.15
18.156,2.42
18.171,6.84
18.187,11.05
18.203,14.88
18.218,18.15
18.234,20.71
18.250,22.52
18.265,23.69
18.281,24.43
18.296,25.05
18.312,25.71
18.328,26.47
18.343,27.25
18.359,27.87
18.375,28.19
18.390,28.12
18.406,27.63
18.421,26.73
18.437,25.47
18.453,23.93
18.468,22.26
18.484,20.57
18.500,18.97
18.515,17.55
18.531,16.25
18.546,15.05
18.562,13.92
18.578,12.75
18.593,11.5
18.609,10.09
18.625,8.45
18.640,6.49
18.656,4.23
18.671,1.71
18.687,-0.94
18.703,-3.65
18.718,-6.4
18.734,-9.2
18.750,-12.09
18.765,-15.08
18.781,-18.17
18.796,-21.37
18.812,-24.74
18.828,-28.39
18.843,-32.42
18.859,-36.8
18.875,-41.2
18.890,-45.08
18.906,-47.78
18.921,-48.72
18.937,-47.65
18.953,-44.75
18.968,-40.48
18.984,-35.44
19.000,-30.14
19.015,-24.87
19.031,-19.68
19.046,-14.55
19.062,-9.43
19.078,-4.33
19.093,0.66
19.109,5.42
19.125,9.84
19.140,13.76
19.156,17.02
19.171,19.51
19.187,21.23
19.203,22.23
19.218,22.72
19.234,22.96
19.250,23.19
19.265,23.63
19.281,24.38
19.296,25.44
19.312,26.66
19.328,27.86
19.343,28.84
19.359,29.41
19.375,29.54
19.390,29.27
19.406,28.69
19.421,27.82
19.437,26.68
19.453,25.19
19.468,23.34
19.484,21.2
19.500,18.89
19.515,16.62
19.531,14.54
19.546,12.67
19.562,10.93
19.578,9.2
19.593,7.34
19.609,5.28
19.625,2.98
19.640,0.47
19.656,-2.22
19.671,-5.1
19.687,-8.13
19.703,-11.27
19.718,-14.48
19.734,-17.64
19.750,-20.73
19.765,-23.72
19.781,-26.73
19.796,-29.85
19.812,-33.17
19.828,-36.68
19.843,-40.21
19.859,-43.52
19.875,-46.18
19.890,-47.8
19.906,-47.97
19.921,-46.53
19.937,-43.53
19.953,-39.26
19.968,-34.13
19.984,-28.57
20.000,-22.92
20.015,-17.37
20.031,-12.01
20.046,-6.85
20.062,-1.86
20.078,2.95
20.093,7.64
20.109,12.2
20.125,16.62
20.140,20.71
20.156,24.21
20.171,26.81
20.187,28.3
20.203,28.77
20.218,28.52
20.234,28.0
20.250,27.55
20.265,27.43
20.281,27.6
20.296,27.95
20.312,28.37
20.328,28.77
20.343,29.16
20.359,29.47
20.375,29.61
20.390,29.41
20.406,28.77
20.421,27.78
20.437,26.65
20.453,25.6
20.468,24.64
20.484,23.7
20.500,22.5
20.515,20.85
20.531,18.68
20.546,16.17
20.562,13.64
20.578,11.31
20.593,9.29
20.609,7.39
20.625,5.44
20.640,3.19
20.656,0.56
20.671,-2.41
20.687,-5.62
20.703,-8.89
20.718,-12.08
20.734,-15.06
20.750,-17.83
20.765,-20.38
20.781,-22.94
20.796,-25.71
20.812,-28.86
20.828,-32.45
20.843,-36.28
20.859,-39.95
20.875,-42.9
20.890,-44.64
20.906,-44.78
20.921,-43.26
20.937,-40.24
20.953,-36.09
20.968,-31.22
20.984,-26.03
21.000,-20.81
21.015,-15.64
21.031,-10.56
21.046,-5.59
21.062,-0.75
21.078,3.88
21.093,8.18
21.109,11.98
21.125,15.21
21.140,17.83
21.156,19.85
21.171,21.34
21.187,22.37
21.203,23.04
21.218,23.44
21.234,23.72
21.250,24.0
21.265,24.39
21.281,24.95
21.296,25.61
21.312,26.22
21.328,26.6
21.343,26.59
21.359,26.15
21.375,25.3
21.390,24.15
21.406,22.78
21.421,21.22
21.437,19.45
21.453,17.47
21.468,15.32
21.484,13.09
21.500,10.85
21.515,8.63
21.531,6.42
21.546,4.13
21.562,1.75
21.578,-0.75
21.593,-3.31
21.609,-5.86
21.625,-8.31
21.640,-10.61
21.656,-12.79
21.671,-14.93
21.687,-17.22
21.703,-19.79
21.718,-22.77
21.734,-26.19
21.750,-29.97
21.765,-33.96
21.781,-37.91
21.796,-41.49
21.812,-44.27
21.828,-45.81
21.843,-45.75
21.859,-43.89
21.875,-40.38
21.890,-35.56
21.906,-29.91
21.921,-23.91
21.937,-17.93
21.953,-12.14
21.968,-6.64
21.984,-1.49
22.000,3.28
22.015,7.64
22.031,11.59
22.046,15.13
22.062,18.31
22.078,21.16
22.093,23.66
22.109,25.77
22.125,27.44
22.140,28.62
22.156,29.31
22.171,29.59
22.187,29.59
22.203,29.49
22.218,29.41
22.234,29.38
22.250,29.31
22.265,29.07
22.281,28.48
22.296,27.44
22.312,26.02
22.328,24.38
22.343,22.77
22.359,21.37
22.375,20.23
22.390,19.29
22.406,18.35
22.421,17.23
22.437,15.86
22.453,14.27
22.468,12.59
22.484,10.94
22.500,9.36
22.515,7.76
22.531,6.01
22.546,3.92
22.562,1.36
22.578,-1.64
22.593,-4.97
22.609,-8.46
22.625,-11.96
22.640,-15.4
22.656,-18.8
22.671,-22.24
22.687,-25.78
22.703,-29.44
22.718,-33.18
22.734,-36.83
22.750,-40.23
22.765,-43.16
22.781,-45.35
22.796,-46.61
22.812,-46.74
22.828,-45.6
22.843,-43.19
22.859,-39.64
22.875,-35.21
22.890,-30.22
22.906,-24.92
22.921,-19.46
22.937,-13.94
22.953,-8.37
22.968,-2.81
22.984,2.64
23.000,7.79
23.015,12.48
23.031,16.51
23.046,19.85
23.062,22.47
23.078,24.43
23.093,25.86
23.109,26.9
23.125,27.7
23.140,28.37
23.156,29.0
23.171,29.52
23.187,29.88
23.203,30.02
23.218,29.9
23.234,29.57
23.250,29.13
23.265,28.6
23.281,28.03
23.296,27.41
23.312,26.69
23.328,25.88
23.343,25.05
23.359,24.24
23.375,23.47
23.390,22.73
23.406,21.87
23.421,20.81
23.437,19.44
23.453,17.76
23.468,15.8
23.484,13.62
23.500,11.3
23.515,8.85
23.531,6.3
23.546,3.62
23.562,0.79
23.578,-2.17
23.593,-5.22
23.609,-8.22
23.625,-11.05
23.640,-13.61
23.656,-15.9
23.671,-18.0
23.687,-20.07
23.703,-22.29
23.718,-24.8
23.734,-27.72
23.750,-31.06
23.765,-34.75
23.781,-38.57
23.796,-42.16
23.812,-45.02
23.828,-46.66
23.843,-46.73
23.859,-45.11
23.875,-41.99
23.890,-37.74
23.906,-32.78
23.921,-27.43
23.937,-21.86
23.953,-16.11
23.968,-10.24
23.984,-4.4
24.000,1.19
24.015,6.2
24.031,10.43
24.046,13.78
24.062,16.25
24.078,17.96
24.093,19.04
24.109,19.68
24.125,20.06
24.140,20.4
24.156,20.85
24.171,21.53
24.187,22.45
24.203,23.5
24.218,24.52
24.234,25.34
24.250,25.83
24.265,25.92
24.281,25.61
24.296,24.92
24.312,23.89
24.328,22.58
24.343,21.04
24.359,19.34
24.375,17.55
24.390,15.7
24.406,13.81
24.421,11.86
24.437,9.88
24.453,7.88
24.468,5.87
24.484,3.89
24.500,1.94
24.515,-0.03
24.531,-2.11
24.546,-4.37
24.562,-6.81
24.578,-9.41
24.593,-12.09
24.609,-14.75
24.625,-17.3
24.640,-19.7
24.656,-21.98
24.671,-24.31
24.687,-26.87
24.703,-29.88
24.718,-33.41
24.734,-37.26
24.750,-41.03
24.765,-44.09
24.781,-45.78
24.796,-45.67
24.812,-43.6
24.828,-39.81
24.843,-34.79
24.859,-29.16
24.875,-23.44
24.890,-18.0
24.906,-12.96
24.921,-8.28
24.937,-3.81
24.953,0.55
24.968,4.87
24.984,9.14
25.000,13.24
25.015,17.02
25.031,20.31
25.046,22.94
25.062,24.78
25.078,25.88
25.093,26.34
25.109,26.39
25.125,26.27
25.140,26.19
25.156,26.23
25.171,26.36
25.187,26.51
25.203,26.54
25.218,26.35
25.234,25.91
25.250,25.22
25.265,24.3
25.281,23.25
25.296,22.16
25.312,21.13
25.328,20.24
25.343,19.53
25.359,18.96
25.375,18.42
25.390,17.74
25.406,16.7
25.421,15.19
25.437,13.19
25.453,10.84
25.468,8.37
25.484,5.92
25.500,3.54
25.515,1.06
25.531,-1.76
25.546,-5.14
25.562,-9.08
25.578,-13.35
25.593,-17.59
25.609,-21.38
25.625,-24.57
25.640,-27.18
25.656,-29.53
25.671,-31.95
25.687,-34.7
25.703,-37.83
25.718,-41.14
25.734,-44.33
25.750,-46.94
25.765,-48.61
25.781,-49.03
25.796,-48.08
25.812,-45.84
25.828,-42.54
25.843,-38.44
25.859,-33.75
25.875,-28.65
25.890,-23.2
25.906,-17.52
25.921,-11.73
25.937,-6.02
25.953,-0.53
25.968,4.55
25.984,9.19
26.000,13.38
26.015,17.01
26.031,20.04
26.046,22.33
26.062,23.84
26.078,24.67
26.093,25.02
26.109,25.16
26.125,25.28
26.140,25.51
26.156,25.8
26.171,26.1
26.187,26.4
26.203,26.73
26.218,27.15
26.234,27.7
26.250,28.28
26.265,28.73
26.281,28.83
26.296,28.42
26.312,27.51
26.328,26.17
26.343,24.57
26.359,22.89
26.375,21.2
26.390,19.54
26.406,17.87
26.421,16.18
26.437,14.47
26.453,12.84
26.468,11.29
26.484,9.74
26.500,8.01
26.515,5.89
26.531,3.22
26.562,-3.62
26.578,-7.44
26.593,-11.21
26.609,-14.73
26.625,-17.93
26.640,-20.76
26.656,-23.3
26.671,-25.63
26.687,-27.91
26.703,-30.32
26.718,-33.05
26.734,-36.2
26.750,-39.68
26.765,-43.15
26.781,-46.04
26.796,-47.78
26.812,-47.89
26.828,-46.21
26.843,-42.95
26.859,-38.55
26.875,-33.56
26.890,-28.47
26.906,-23.51
26.921,-18.71
26.937,-14.04
26.953,-9.43
26.968,-4.94
26.984,-0.67
27.000,3.22
27.015,6.69
27.031,9.71
27.046,12.34
27.062,14.6
27.078,16.46
27.093,17.9
27.109,18.86
27.125,19.42
27.140,19.73
27.156,20.01
27.171,20.41
27.187,21.01
27.203,21.71
27.218,22.32
27.234,22.7
27.250,22.7
27.265,22.27
27.281,21.49
27.296,20.44
27.312,19.18
27.328,17.82
27.343,16.36
27.359,14.84
27.375,13.3
27.390,11.74
27.406,10.14
27.421,8.52
27.437,6.88
27.453,5.2
27.468,3.47
27.484,1.64
27.500,-0.29
27.515,-2.31
27.531,-4.35
27.546,-6.39
27.562,-8.46
27.578,-10.63
27.593,-12.96
27.609,-15.56
27.625,-18.4
27.640,-21.4
27.656,-24.51
27.671,-27.7
27.687,-31.03
27.703,-34.52
27.718,-38.02
27.734,-41.05
27.750,-43.03
27.765,-43.38
27.781,-41.8
27.796,-38.45
27.812,-33.84
27.828,-28.61
27.843,-23.32
27.859,-18.27
27.875,-13.45
27.890,-8.74
27.906,-4.02
27.921,0.69
27.937,5.28
27.953,9.58
27.968,13.48
27.984,16.87
28.000,19.67
28.015,21.8
28.031,23.2
28.046,23.93
28.062,24.15
28.078,24.08
28.093,24.05
28.109,24.31
28.125,24.93
28.140,25.9
28.156,26.99
28.171,28.01
28.187,28.78
28.203,29.27
28.218,29.45
28.234,29.36
28.250,29.02
28.265,28.4
28.281,27.52
28.296,26.37
28.312,24.98
28.328,23.38
28.343,21.62
28.359,19.67
28.375,17.54
28.390,15.26
28.406,12.82
28.421,10.31
28.437,7.73
28.453,5.1
28.468,2.38
28.484,-0.41
28.500,-3.28
28.515,-6.23
28.531,-9.2
28.546,-12.18
28.562,-15.1
28.578,-17.93
28.593,-20.65
28.609,-23.28
28.625,-25.94
28.640,-28.79
28.656,-31.96
28.671,-35.4
28.687,-38.95
28.703,-42.17
28.718,-44.56
28.734,-45.61
28.750,-44.99
28.765,-42.63
28.781,-38.74
28.796,-33.73
28.812,-28.06
28.828,-22.18
28.843,-16.35
28.859,-10.75
28.875,-5.37
28.890,-0.17
28.906,4.89
28.921,9.83
28.937,14.58
28.953,19.04
28.968,23.0
28.984,26.31
29.000,28.8
29.015,30.34
29.031,30.99
29.046,30.89
29.062,30.37
29.078,29.76
29.093,29.35
29.109,29.31
29.125,29.7
29.140,30.4
29.156,31.14
29.171,31.73
29.187,31.96
29.203,31.74
29.218,31.11
29.234,30.18
29.250,29.11
29.265,28.05
29.281,27.03
29.296,25.99
29.312,24.81
29.328,23.29
29.343,21.37
29.359,19.04
29.375,16.38
29.390,13.47
29.406,10.41
29.421,7.21
29.437,3.85
29.453,0.41
29.468,-3.08
29.484,-6.45
29.500,-9.51
29.515,-12.16
29.531,-14.37
29.546,-16.22
29.562,-17.95
29.578,-19.79
29.593,-21.92
29.609,-24.48
29.625,-27.47
29.640,-30.72
29.656,-33.97
29.671,-36.86
29.687,-38.98
29.703,-40.03
29.718,-39.72
29.734,-38.0
29.750,-34.97
29.765,-30.96
29.781,-26.36
29.796,-21.6
29.812,-16.96
29.828,-12.53
29.843,-8.31
29.859,-4.19
29.875,-0.1
29.890,3.9
29.906,7.71
29.921,11.17
29.937,14.14
29.953,16.57
29.968,18.48
29.984,19.88
30.000,20.79
30.015,21.3
30.031,21.43
30.046,21.32
30.062,21.15
30.078,21.06
30.093,21.12
30.109,21.35
30.125,21.61
30.140,21.74
30.156,21.65
30.171,21.22
30.187,20.45
30.203,19.38
30.218,18.08
30.234,16.58
30.250,14.97
30.265,13.27
30.281,11.54
30.296,9.83
30.312,8.14
30.328,6.49
30.343,4.81
30.359,3.01
30.375,1.02
30.390,-1.17
30.406,-3.6
30.421,-6.18
30.437,-8.78
30.453,-11.32
30.468,-13.72
30.484,-16.02
30.500,-18.33
30.515,-20.76
30.531,-23.42
30.546,-26.4
30.562,-29.68
30.578,-33.11
30.593,-36.41
30.609,-39.19
30.625,-40.97
30.640,-41.38
30.656,-40.23
30.671,-37.65
30.687,-34.01
30.703,-29.76
30.718,-25.28
30.734,-20.77
30.750,-16.22
30.765,-11.55
30.781,-6.77
30.796,-1.91
30.812,2.9
30.828,7.51
30.843,11.77
30.859,15.52
30.875,18.6
30.890,20.89
30.906,22.37
30.921,23.08
30.937,23.21
30.953,23.0
30.968,22.65
30.984,22.34
31.000,22.12
31.015,22.01
31.031,21.99
31.046,22.02
31.062,22.05
31.078,22.02
31.093,21.88
31.109,21.55
31.125,21.0
31.140,20.2
31.156,19.17
31.171,17.98
31.187,16.71
31.203,15.46
31.218,14.29
31.234,13.22
31.250,12.22
31.265,11.22
31.281,10.16
31.296,8.96
31.312,7.52
31.328,5.77
31.343,3.68
31.359,1.22
31.375,-1.54
31.390,-4.54
31.406,-7.65
31.421,-10.75
31.437,-13.74
31.453,-16.59
31.468,-19.32
31.484,-22.06
31.500,-24.95
31.515,-28.13
31.531,-31.66
31.546,-35.41
31.562,-39.1
31.578,-42.32
31.593,-44.58
31.609,-45.49
31.625,-44.85
31.640,-42.66
31.656,-39.14
31.671,-34.65
31.687,-29.57
31.703,-24.2
31.718,-18.74
31.734,-13.27
31.750,-7.79
31.765,-2.38
31.781,2.82
31.796,7.67
31.812,11.96
31.828,15.62
31.843,18.68
31.859,21.2
31.875,23.17
31.890,24.58
31.906,25.33
31.921,25.42
31.937,25.04
31.953,24.46
31.968,24.1
31.984,24.25
32.000,24.98
32.015,26.12
32.031,27.32
32.046,28.24
32.062,28.67
32.078,28.63
32.093,28.24
32.109,27.71
32.125,27.13
32.140,26.45
32.156,25.53
32.171,24.25
32.187,22.58
32.203,20.57
32.218,18.37
32.234,16.13
32.250,13.92
32.265,11.75
32.281,9.5
32.296,7.13
32.312,4.64
32.328,2.11
32.343,-0.41
32.359,-2.86
32.375,-5.29
32.390,-7.8
32.406,-10.42
32.421,-13.21
32.437,-16.06
32.453,-18.91
32.468,-21.66
32.484,-24.37
32.500,-27.21
32.515,-30.37
32.531,-33.95
32.546,-37.78
32.562,-41.48
32.578,-44.47
32.593,-46.17
32.609,-46.15
32.625,-44.34
32.640,-40.96
32.656,-36.46
32.671,-31.36
32.687,-26.07
32.703,-20.82
32.718,-15.73
32.734,-10.77
32.750,-5.93
32.765,-1.29
32.781,3.08
32.796,7.1
32.812,10.69
32.828,13.85
32.843,16.58
32.859,18.88
32.875,20.72
32.890,22.12
32.906,23.06
32.921,23.59
32.937,23.85
32.953,23.93
32.968,24.01
32.984,24.16
33.000,24.38
33.015,24.59
33.031,24.67
33.046,24.46
33.062,23.89
33.078,22.89
33.093,21.47
33.109,19.7
33.125,17.68
33.140,15.59
33.156,13.54
33.171,11.64
33.187,9.94
33.203,8.46
33.218,7.12
33.234,5.85
33.250,4.57
33.265,3.19
33.281,1.56
33.296,-0.4
33.312,-2.77
33.328,-5.45
33.343,-8.26
33.359,-11.01
33.375,-13.6
33.390,-16.03
33.406,-18.48
33.421,-21.14
33.437,-24.14
33.453,-27.52
33.468,-31.18
33.484,-34.93
33.500,-38.5
33.515,-41.58
33.531,-43.75
33.546,-44.68
33.562,-44.11
33.578,-42.0
33.593,-38.59
33.609,-34.26
33.625,-29.48
33.640,-24.63
33.656,-19.92
33.671,-15.46
33.687,-11.25
33.703,-7.17
33.718,-3.16
33.734,0.83
33.750,4.84
33.765,8.76
33.781,12.4
33.796,15.6
33.812,18.17
33.828,19.98
33.843,21.07
33.859,21.53
33.875,21.56
33.890,21.43
33.906,21.41
33.921,21.69
33.937,22.36
33.953,23.32
33.968,24.3
33.984,25.05
34.000,25.31
34.015,25.0
34.031,24.26
34.046,23.2
34.062,21.99
34.078,20.77
34.093,19.5
34.109,18.19
34.125,16.8
34.140,15.3
34.156,13.69
34.171,11.99
34.187,10.19
34.203,8.29
34.218,6.32
34.234,4.26
34.250,2.08
34.265,-0.18
34.281,-2.53
34.296,-4.9
34.312,-7.19
34.328,-9.37
34.343,-11.4
34.359,-13.31
34.375,-15.17
34.390,-17.05
34.406,-19.0
34.421,-21.08
34.437,-23.39
34.453,-26.09
34.468,-29.37
34.484,-33.33
34.500,-37.81
34.515,-42.38
34.531,-46.36
34.546,-49.01
34.562,-49.78
34.578,-48.47
34.593,-45.31
34.609,-40.8
34.625,-35.55
34.640,-30.04
34.656,-24.55
34.671,-19.19
34.687,-13.99
34.703,-8.96
34.718,-4.13
34.734,0.52
34.750,5.06
34.765,9.56
34.781,14.05
34.796,18.4
34.812,22.32
34.828,25.52
34.843,27.74
34.859,28.95
34.875,29.35
34.890,29.27
34.906,29.0
34.921,28.79
34.937,28.7
34.953,28.74
34.968,28.85
34.984,28.95
35.000,28.99
35.015,28.96
35.031,28.88
35.046,28.74
35.062,28.58
35.078,28.35
35.093,27.99
35.109,27.43
35.125,26.61
35.140,25.44
35.156,23.9
35.171,22.04
35.187,19.85
35.203,17.44
35.218,14.89
35.234,12.28
35.250,9.75
35.265,7.36
35.281,5.11
35.296,2.99
35.312,0.99
35.328,-0.96
35.343,-2.92
35.359,-4.97
35.375,-7.22
35.390,-9.67
35.406,-12.28
35.421,-14.97
35.437,-17.63
35.453,-20.2
35.468,-22.78
35.484,-25.56
35.500,-28.75
35.515,-32.44
35.531,-36.45
35.546,-40.39
35.562,-43.68
35.578,-45.75
35.593,-46.21
35.609,-44.95
35.625,-42.13
35.640,-38.15
35.656,-33.49
35.671,-28.55
35.687,-23.59
35.703,-18.71
35.718,-13.89
35.734,-9.09
35.750,-4.32
35.765,0.42
35.781,5.02
35.796,9.34
35.812,13.26
35.828,16.6
35.843,19.24
35.859,21.06
35.875,22.13
35.890,22.54
35.906,22.6
35.921,22.52
35.937,22.53
35.953,22.74
35.968,23.16
35.984,23.75
36.000,24.34
36.015,24.84
36.031,25.11
36.046,25.04
36.062,24.52
36.078,23.54
36.093,22.21
36.109,20.71
36.125,19.29
36.140,18.04
36.156,16.96
36.171,15.88
36.187,14.63
36.203,13.03
36.218,11.1
36.234,8.99
36.250,6.93
36.265,5.1
36.281,3.46
36.296,1.88
36.312,0.14
36.328,-1.95
36.343,-4.48
36.359,-7.39
36.375,-10.53
36.390,-13.73
36.406,-16.86
36.421,-19.86
36.437,-22.76
36.453,-25.68
36.468,-28.73
36.484,-31.99
36.500,-35.39
36.515,-38.71
36.531,-41.59
36.546,-43.63
36.562,-44.5
36.578,-44.0
36.593,-42.13
36.609,-39.03
36.625,-34.9
36.640,-30.04
36.656,-24.78
36.671,-19.41
36.687,-14.16
36.703,-9.21
36.718,-4.55
36.734,-0.15
36.750,4.03
36.765,7.95
36.781,11.52
36.796,14.62
36.812,17.18
36.828,19.25
36.843,20.87
36.859,22.21
36.875,23.36
36.890,24.41
36.906,25.36
36.921,26.24
36.937,27.08
36.953,27.9
36.968,28.68
36.984,29.35
37.000,29.77
37.015,29.79
37.031,29.29
37.046,28.29
37.062,26.94
37.078,25.45
37.093,24.05
37.109,22.87
37.125,21.89
37.140,21.0
37.156,20.02
37.171,18.79
37.187,17.32
37.203,15.65
37.218,13.86
37.234,12.03
37.250,10.18
37.265,8.25
37.281,6.2
37.296,3.96
37.312,1.53
37.328,-1.07
37.343,-3.79
37.359,-6.62
37.375,-9.52
37.390,-12.45
37.406,-15.38
37.421,-18.29
37.437,-21.22
37.453,-24.3
37.468,-27.66
37.484,-31.38
37.500,-35.52
37.515,-39.9
37.531,-44.16
37.546,-47.81
37.562,-50.37
37.578,-51.42
37.593,-50.74
37.609,-48.38
37.625,-44.57
37.640,-39.74
37.656,-34.25
37.671,-28.45
37.687,-22.57
37.703,-16.7
37.718,-10.87
37.734,-5.12
37.750,0.56
37.765,6.05
37.781,11.16
37.796,15.72
37.812,19.56
37.828,22.56
37.843,24.76
37.859,26.3
37.875,27.34
37.890,28.07
37.906,28.6
37.921,28.96
37.937,29.21
37.953,29.47
37.968,29.8
37.984,30.35
38.000,31.05
38.015,31.78
38.031,32.32
38.046,32.51
38.062,32.28
38.078,31.7
38.093,30.85
38.109,29.88
38.125,28.89
38.140,27.91
38.156,26.97
38.171,26.07
38.187,25.15
38.203,24.07
38.218,22.69
38.234,20.86
38.250,18.59
38.265,16.04
38.281,13.44
38.296,10.98
38.312,8.8
38.328,6.82
38.343,4.81
38.359,2.52
38.375,-0.28
38.390,-3.62
38.406,-7.35
38.421,-11.2
38.437,-14.9
38.453,-18.24
38.468,-21.23
38.484,-24.04
38.500,-26.91
38.515,-30.09
38.531,-33.66
38.546,-37.55
38.562,-41.45
38.578,-44.95
38.593,-47.6
38.609,-49.02
38.625,-48.95
38.640,-47.34
38.656,-44.38
38.671,-40.38
38.687,-35.68
38.703,-30.56
38.718,-25.21
38.734,-19.8
38.750,-14.45
38.765,-9.3
38.781,-4.42
38.796,0.12
38.812,4.36
38.828,8.36
38.843,12.14
38.859,15.64
38.875,18.73
38.890,21.25
38.906,23.07
38.921,24.19
38.937,24.74
38.953,24.91
38.968,24.98
38.984,25.15
39.000,25.59
39.015,26.36
39.031,27.4
39.046,28.53
39.062,29.55
39.078,30.22
39.093,30.39
39.109,30.01
39.125,29.15
39.140,27.99
39.156,26.74
39.171,25.6
39.187,24.59
39.203,23.67
39.218,22.64
39.234,21.3
39.250,19.46
39.265,17.07
39.281,14.18
39.296,10.99
39.312,7.71
39.328,4.52
39.343,1.57
39.359,-1.16
39.375,-3.73
39.390,-6.25
39.406,-8.82
39.421,-11.49
39.437,-14.16
39.453,-16.73
39.468,-19.12
39.484,-21.38
39.500,-23.68
39.515,-26.25
39.531,-29.26
39.546,-32.71
39.562,-36.4
39.578,-39.91
39.593,-42.77
39.609,-44.57
39.625,-44.99
39.640,-43.92
39.656,-41.4
39.671,-37.62
39.687,-32.9
39.703,-27.59
39.718,-21.97
39.734,-16.34
39.750,-10.89
39.765,-5.68
39.781,-0.81
39.796,3.64
39.812,7.6
39.828,10.93
39.843,13.56
39.859,15.52
39.875,16.91
39.890,17.93
39.906,18.79
39.921,19.59
39.937,20.37
39.953,21.16
39.968,21.94
39.984,22.73
40.000,23.55
40.015,24.37
40.031,25.14
40.046,25.74
40.062,26.08
40.078,26.15
40.093,25.96
40.109,25.5
40.125,24.78
40.140,23.84
40.156,22.69
40.171,21.43
40.187,20.16
40.203,18.89
40.218,17.55
40.234,16.05
40.250,14.24
40.265,12.2
40.281,10.1
40.296,8.16
40.312,6.52
40.328,5.19
40.343,3.97
40.359,2.58
40.375,0.79
40.390,-1.55
40.406,-4.38
40.421,-7.55
40.437,-10.89
40.453,-14.21
40.468,-17.36
40.484,-20.34
40.500,-23.25
40.515,-26.3
40.531,-29.74
40.546,-33.82
40.562,-38.61
40.578,-43.99
40.593,-49.64
40.609,-55.02
40.625,-59.53
40.640,-62.66
40.656,-64.07
40.671,-63.73
40.687,-61.94
40.703,-59.17
40.718,-56.02
40.734,-52.98
40.750,-50.3
40.765,-48.05
40.781,-46.02
40.796,-43.87
40.812,-41.24
40.828,-37.79
40.843,-33.32
40.859,-27.76
40.875,-21.27
40.890,-14.09
40.906,-6.57
40.921,0.95
40.937,8.16
40.953,14.78
40.968,20.62
40.984,25.61
41.000,29.78
41.015,33.29
41.031,36.38
41.046,39.32
41.062,42.33
41.078,45.57
41.093,49.09
41.109,52.85
41.125,56.72
41.140,60.57
41.156,64.24
41.171,67.57
41.187,70.48
41.203,72.78
41.218,74.33
41.234,74.91
41.250,74.36
41.265,72.57
41.281,69.62
41.296,65.68
41.312,61.01
41.328,55.86
41.343,50.38
41.359,44.68
41.375,38.84
41.390,32.87
41.406,26.78
41.421,20.61
41.437,14.33
41.453,7.95
41.468,1.59
41.484,-4.62
41.500,-10.49
41.515,-15.89
41.531,-20.8
41.546,-25.34
41.562,-29.59
41.578,-33.65
41.593,-37.53
41.609,-41.19
41.625,-44.66
41.640,-48.02
41.656,-51.32
41.671,-54.51
41.687,-57.27
41.703,-59.01
41.718,-59.16
41.734,-57.36
41.750,-53.64
41.765,-48.57
41.781,-42.86
41.796,-37.15
41.812,-31.78
41.828,-26.73
41.843,-21.79
41.859,-16.76
41.875,-11.59
41.890,-6.34
41.906,-1.21
41.921,3.68
41.937,8.3
41.953,12.58
41.968,16.44
41.984,19.8
42.000,22.54
42.015,24.61
42.031,26.14
42.046,27.21
42.062,28.04
42.078,28.78
42.093,29.49
42.109,30.16
42.125,30.75
42.140,31.15
42.156,31.29
42.171,31.19
42.187,30.8
42.203,30.17
42.218,29.25
42.234,28.08
42.250,26.69
42.265,25.22
42.281,23.84
42.296,22.69
42.312,21.92
42.328,21.41
42.343,20.98
42.359,20.33
42.375,19.28
42.390,17.8
42.406,16.05
42.421,14.25
42.437,12.58
42.453,11.15
42.468,9.89
42.484,8.7
42.500,7.46
42.515,6.18
42.531,4.93
42.546,3.76
42.562,2.61
42.578,1.4
42.593,0.01
42.609,-1.71
42.625,-3.85
42.640,-6.56
42.656,-10.02
42.671,-14.39
42.687,-19.75
42.703,-26.01
42.718,-32.84
42.734,-39.62
42.750,-45.64
42.765,-50.23
42.781,-52.96
42.796,-53.7
42.812,-52.58
42.828,-49.95
42.843,-46.2
42.859,-41.78
42.875,-37.02
42.890,-32.17
42.906,-27.33
42.921,-22.53
42.937,-17.73
42.953,-12.86
42.968,-7.9
42.984,-2.86
43.000,2.16
43.015,7.07
43.031,11.71
43.046,15.97
43.062,19.7
43.078,22.83
43.093,25.39
43.109,27.48
43.125,29.29
43.140,30.95
43.156,32.53
43.171,33.95
43.187,35.02
43.203,35.53
43.218,35.25
43.234,34.03
43.250,31.83
43.265,28.76
43.281,25.06
43.296,20.98
43.312,16.76
43.328,12.55
43.343,8.4
43.359,4.32
43.375,0.33
43.390,-3.44
43.406,-6.87
43.421,-9.79
43.437,-12.21
43.453,-14.19
43.468,-15.86
43.484,-17.39
43.500,-18.92
43.515,-20.57
43.531,-22.43
43.546,-24.54
43.562,-26.89
43.578,-29.44
43.593,-32.07
43.609,-34.61
43.625,-36.95
43.640,-39.09
43.656,-41.14
43.671,-43.32
43.687,-45.74
43.703,-48.36
43.718,-50.86
43.734,-52.73
43.750,-53.4
43.765,-52.48
43.781,-49.92
43.796,-45.94
43.812,-40.99
43.828,-35.48
43.843,-29.71
43.859,-23.85
43.875,-17.99
43.890,-12.19
43.906,-6.6
43.921,-1.33
43.937,3.55
43.953,8.04
43.968,12.18
43.984,15.97
44.000,19.37
44.015,22.23
44.031,24.42
44.046,25.84
44.062,26.56
44.078,26.76
44.093,26.7
44.109,26.63
44.125,26.72
44.140,27.01
44.156,27.39
44.171,27.74
44.187,27.96
44.203,28.03
44.218,28.02
44.234,27.97
44.250,27.91
44.265,27.76
44.281,27.39
44.296,26.64
44.312,25.44
44.328,23.77
44.343,21.75
44.359,19.53
44.375,17.29
44.390,15.16
44.406,13.21
44.421,11.42
44.437,9.73
44.453,8.1
44.468,6.42
44.484,4.61
44.500,2.56
44.515,0.17
44.531,-2.61
44.546,-5.75
44.562,-9.09
44.578,-12.45
44.593,-15.63
44.609,-18.56
44.625,-21.26
44.640,-23.85
44.656,-26.55
44.671,-29.54
44.687,-33.0
44.703,-36.93
44.718,-41.17
44.734,-45.33
44.750,-48.83
44.765,-51.07
44.781,-51.57
44.796,-50.13
44.812,-46.9
44.828,-42.3
44.843,-36.86
44.859,-31.1
44.875,-25.41
44.890,-20.01
44.906,-14.94
44.921,-10.12
44.937,-5.41
44.953,-0.64
44.968,4.25
44.984,9.15
45.000,13.87
45.015,18.14
45.031,21.73
45.046,24.56
45.062,26.63
45.078,28.06
45.093,29.01
45.109,29.61
45.125,29.97
45.140,30.19
45.156,30.3
45.171,30.32
45.187,30.2
45.203,29.94
45.218,29.55
45.234,29.09
45.250,28.63
45.265,28.18
45.281,27.7
45.296,27.1
45.312,26.3
45.328,25.3
45.343,24.14
45.359,22.86
45.375,21.51
45.390,20.06
45.406,18.49
45.421,16.82
45.437,15.07
45.453,13.3
45.468,11.56
45.484,9.87
45.500,8.14
45.515,6.29
45.531,4.24
45.546,1.93
45.562,-0.59
45.578,-3.26
45.593,-5.95
45.609,-8.62
45.625,-11.27
45.640,-14.01
45.656,-16.96
45.671,-20.25
45.687,-23.84
45.703,-27.68
45.718,-31.63
45.734,-35.55
45.750,-39.38
45.765,-43.05
45.781,-46.38
45.796,-49.02
45.812,-50.61
45.828,-50.7
45.843,-49.07
45.859,-45.79
45.875,-41.15
45.890,-35.67
45.906,-29.89
45.921,-24.21
45.937,-18.87
45.953,-13.93
45.968,-9.33
45.984,-4.98
46.000,-0.82
46.015,3.18
46.031,6.93
46.046,10.31
46.062,13.17
46.078,15.41
46.093,17.01
46.109,18.06
46.125,18.72
46.140,19.22
46.156,19.74
46.171,20.37
46.187,21.23
46.203,22.36
46.218,23.73
46.234,25.18
46.250,26.52
46.265,27.49
46.281,27.9
46.296,27.72
46.312,27.03
46.328,26.06
46.343,25.01
46.359,24.01
46.375,23.04
46.390,22.04
46.406,20.87
46.421,19.46
46.437,17.83
46.453,16.03
46.468,14.15
46.484,12.25
46.500,10.37
46.515,8.5
46.531,6.6
46.546,4.6
46.562,2.45
46.578,0.15
46.593,-2.38
46.609,-5.15
46.625,-8.22
46.640,-11.59
46.656,-15.24
46.671,-19.08
46.687,-22.98
46.703,-26.88
46.718,-30.69
46.734,-34.4
46.750,-37.83
46.765,-40.75
46.781,-42.79
46.796,-43.62
46.812,-43.01
46.828,-40.93
46.843,-37.61
46.859,-33.33
46.875,-28.44
46.890,-23.17
46.906,-17.69
46.921,-12.16
46.937,-6.64
46.953,-1.22
46.968,4.03
46.984,9.04
47.000,13.74
47.015,18.06
47.031,21.84
47.046,24.96
47.062,27.35
47.078,29.07
47.093,30.26
47.109,31.09
47.125,31.7
47.140,32.18
47.156,32.54
47.171,32.78
47.187,32.9
47.203,32.92
47.218,32.86
47.234,32.69
47.250,32.34
47.265,31.7
47.281,30.73
47.296,29.42
47.312,27.82
47.328,26.04
47.343,24.19
47.359,22.38
47.375,20.63
47.390,18.95
47.406,17.28
47.421,15.57
47.437,13.79
47.453,11.93
47.468,9.98
47.484,7.93
47.500,5.76
47.515,3.46
47.531,1.05
47.546,-1.47
47.562,-4.14
47.578,-6.99
47.593,-10.08
47.609,-13.42
47.625,-16.89
47.640,-20.41
47.656,-23.87
47.671,-27.24
47.687,-30.6
47.703,-34.07
47.718,-37.73
47.734,-41.53
47.750,-45.28
47.765,-48.55
47.781,-50.93
47.796,-52.0
47.812,-51.47
47.828,-49.22
47.843,-45.43
47.859,-40.46
47.875,-34.78
47.890,-28.86
47.906,-22.97
47.921,-17.29
47.937,-11.84
47.953,-6.56
47.968,-1.45
47.984,3.4
48.000,7.86
48.015,11.78
48.031,14.95
48.046,17.26
48.062,18.55
48.078,18.84
48.093,18.19
48.109,16.8
48.125,14.9
48.140,12.77
48.156,10.7
48.171,8.93
48.187,7.84
48.203,7.66
48.218,8.65
48.234,10.79
48.250,13.77
48.265,17.13
48.281,20.33
48.296,22.97
48.312,24.93
48.328,26.34
48.343,27.43
48.359,28.35
48.375,29.12
48.390,29.62
48.406,29.7
48.421,29.21
48.437,28.09
48.453,26.36
48.468,24.14
48.484,21.54
48.500,18.78
48.515,16.07
48.531,13.6
48.546,11.49
48.562,9.7
48.578,8.05
48.593,6.28
48.609,4.16
48.625,1.59
48.640,-1.32
48.656,-4.36
48.671,-7.31
48.687,-10.0
48.703,-12.46
48.718,-14.82
48.734,-17.31
48.750,-20.21
48.765,-23.65
48.781,-27.63
48.796,-31.86
48.812,-35.81
48.828,-38.81
48.843,-40.28
48.859,-39.87
48.875,-37.68
48.890,-34.1
48.906,-29.73
48.921,-25.12
48.937,-20.63
48.953,-16.36
48.968,-12.25
48.984,-8.22
49.000,-4.19
49.015,-0.1
49.031,4.14
49.046,8.59
49.062,13.27
49.078,18.09
49.093,22.83
49.109,27.13
49.125,30.76
49.140,33.55
49.156,35.47
49.171,36.62
49.187,37.06
49.203,36.8
49.218,35.91
49.234,34.48
49.250,32.67
49.265,30.7
49.281,28.71
49.296,26.68
49.312,24.52
49.328,22.13
49.343,19.53
49.359,16.88
49.375,14.39
49.390,12.19
49.406,10.27
49.421,8.5
49.437,6.68
49.453,4.72
49.468,2.6
49.484,0.41
49.500,-1.7
49.515,-3.64
49.531,-5.37
49.546,-6.86
49.562,-8.12
49.578,-9.18
49.593,-10.06
49.609,-10.78
49.625,-11.37
49.640,-11.82
49.656,-12.13
49.671,-12.27
49.687,-12.21
49.703,-11.94
49.718,-11.52
49.734,-11.14
49.750,-11.01
49.765,-11.46
49.781,-12.79
49.796,-15.16
49.812,-18.48
49.828,-22.36
49.843,-26.17
49.859,-29.31
49.875,-31.28
49.890,-31.85
49.906,-31.13
49.921,-29.46
49.937,-27.26
49.953,-24.95
49.968,-22.76
49.984,-20.74
50.000,-18.79
50.015,-16.75
50.031,-14.41
50.046,-11.81
50.062,-9.03
50.078,-6.26
50.093,-3.71
50.109,-1.58
50.125,0.04
50.140,1.14
50.156,1.77
50.171,2.1
50.187,2.29
50.203,2.56
50.218,3.07
50.234,3.83
50.250,4.77
50.265,5.72
50.281,6.52
50.296,7.02
50.312,7.26
50.328,7.19
50.343,6.9
50.359,6.44
50.375,5.76
50.390,4.86
50.406,3.71
50.421,2.29
50.437,0.59
50.453,-1.34
50.468,-3.5
50.484,-5.81
50.500,-8.17
50.515,-10.52
50.531,-12.7
50.546,-14.64
50.562,-16.29
50.578,-17.61
50.593,-18.55
50.609,-19.05
50.625,-19.09
50.640,-18.65
50.656,-17.84
50.671,-16.77
50.687,-15.67
50.703,-14.83
50.718,-14.53
50.734,-15.0
50.750,-16.28
50.765,-18.24
50.781,-20.48
50.796,-22.43
50.812,-23.39
50.828,-22.83
50.843,-20.43
50.859,-16.25
50.875,-10.66
50.890,-4.29
50.906,2.26
50.921,8.54
50.937,14.32
50.953,19.63
50.968,24.58
50.984,29.3
51.000,33.78
51.015,37.93
51.031,41.51
51.046,44.26
51.062,45.96
51.078,46.39
51.093,45.54
51.109,43.52
51.125,40.69
51.140,37.47
51.156,34.33
51.171,31.57
51.187,29.37
51.203,27.76
51.218,26.61
51.234,25.7
51.250,24.78
51.265,23.61
51.281,21.98
51.296,19.85
51.312,17.33
51.328,14.68
51.343,12.16
51.359,9.99
51.375,8.28
51.390,7.02
51.406,6.15
51.421,5.59
51.437,5.27
51.453,5.08
51.468,4.93
51.484,4.66
51.500,4.14
51.515,3.26
51.531,1.93
51.546,0.1
51.562,-2.24
51.578,-5.14
51.593,-8.57
51.609,-12.47
51.625,-16.65
51.640,-20.9
51.656,-25.09
51.671,-29.16
51.687,-33.15
51.703,-37.14
51.718,-41.24
51.734,-45.48
51.750,-49.79
51.765,-54.04
51.781,-57.94
51.796,-61.13
51.812,-63.13
51.828,-63.44
51.843,-61.66
51.859,-57.62
51.875,-51.52
51.890,-43.89
51.906,-35.51
51.921,-27.06
51.937,-19.03
51.953,-11.6
51.968,-4.7
51.984,1.81
52.000,8.06
52.015,14.02
52.031,19.56
52.046,24.55
52.062,28.88
52.078,32.54
52.093,35.49
52.109,37.69
52.125,39.07
52.140,39.69
52.156,39.6
52.171,38.98
52.187,38.03
52.203,36.96
52.218,35.97
52.234,35.2
52.250,34.78
52.265,34.69
52.281,34.92
52.296,35.27
52.312,35.55
52.328,35.47
52.343,34.87
52.359,33.71
52.375,32.14
52.390,30.42
52.406,28.7
52.421,27.05
52.437,25.32
52.453,23.34
52.468,20.9
52.484,17.97
52.500,14.67
52.515,11.26
52.531,7.98
52.546,4.92
52.562,2.06
52.578,-0.79
52.593,-3.88
52.609,-7.34
52.625,-11.18
52.640,-15.26
52.656,-19.41
52.671,-23.47
52.687,-27.45
52.703,-31.39
52.718,-35.44
52.734,-39.73
52.750,-44.3
52.765,-49.04
52.781,-53.78
52.796,-58.21
52.812,-61.88
52.828,-64.34
52.843,-65.15
52.859,-64.09
52.875,-61.22
52.890,-56.78
52.906,-51.22
52.921,-45.03
52.937,-38.64
52.953,-32.35
52.968,-26.35
52.984,-20.67
53.000,-15.2
53.015,-9.78
53.031,-4.22
53.046,1.51
53.062,7.28
53.078,12.78
53.093,17.69
53.109,21.83
53.125,25.26
53.140,28.29
53.156,31.25
53.171,34.44
53.187,37.93
53.203,41.64
53.218,45.32
53.234,48.74
53.250,51.62
53.265,53.8
53.281,55.17
53.296,55.61
53.312,55.06
53.328,53.52
53.343,51.05
53.359,47.71
53.375,43.65
53.390,38.99
53.406,33.84
53.421,28.37
53.437,22.73
53.453,17.08
53.468,11.61
53.484,6.54
53.500,1.97
53.515,-2.04
53.531,-5.58
53.546,-8.78
53.562,-11.8
53.578,-14.73
53.593,-17.62
53.609,-20.39
53.625,-22.94
53.640,-25.25
53.656,-27.31
53.671,-29.23
53.687,-31.16
53.703,-33.22
53.718,-35.43
53.734,-37.66
53.750,-39.64
53.765,-40.97
53.781,-41.21
53.796,-40.01
53.812,-37.2
53.828,-32.86
53.843,-27.22
53.859,-20.7
53.875,-13.8
53.890,-7.02
53.906,-0.82
53.921,4.48
53.937,8.68
53.953,11.75
53.968,13.87
53.984,15.33
54.000,16.45
54.015,17.45
54.031,18.42
54.046,19.31
54.062,20.0
54.078,20.36
54.093,20.33
54.109,19.94
54.125,19.38
54.140,18.85
54.156,18.57
54.171,18.7
54.187,19.3
54.203,20.28
54.218,21.45
54.234,22.61
54.250,23.6
54.265,24.33
54.281,24.72
54.296,24.75
54.312,24.37
54.328,23.54
54.343,22.24
54.359,20.44
54.375,18.17
54.390,15.45
54.406,12.38
54.421,9.09
54.437,5.79
54.453,2.64
54.468,-0.23
54.484,-2.73
54.500,-4.88
54.515,-6.77
54.531,-8.54
54.546,-10.34
54.562,-12.34
54.578,-14.57
54.593,-17.04
54.609,-19.69
54.625,-22.36
54.640,-25.01
54.656,-27.65
54.671,-30.4
54.687,-33.43
54.703,-36.82
54.718,-40.6
54.734,-44.58
54.750,-48.48
54.765,-51.82
54.781,-54.18
54.796,-55.18
54.812,-54.59
54.828,-52.38
54.843,-48.7
54.859,-43.86
54.875,-38.18
54.890,-31.99
54.906,-25.49
54.921,-18.81
54.937,-12.01
54.953,-5.15
54.968,1.7
54.984,8.38
55.000,14.72
55.015,20.46
55.031,25.33
55.046,29.18
55.062,32.01
55.078,33.91
55.093,35.07
55.109,35.69
55.125,35.87
55.140,35.7
55.156,35.28
55.171,34.75
55.187,34.33
55.203,34.24
55.218,34.5
55.234,35.05
55.250,35.62
55.265,35.92
55.281,35.84
55.296,35.36
55.312,34.57
55.328,33.62
55.343,32.6
55.359,31.45
55.375,30.16
55.390,28.65
55.406,26.92
55.421,24.99
55.437,22.89
55.453,20.65
55.468,18.27
55.484,15.77
55.500,13.14
55.515,10.39
55.531,7.52
55.546,4.51
55.562,1.34
55.578,-1.99
55.593,-5.45
55.609,-9.01
55.625,-12.57
55.640,-16.08
55.656,-19.47
55.671,-22.73
55.687,-25.84
55.703,-28.89
55.718,-31.98
55.734,-35.25
55.750,-38.79
55.765,-42.51
55.781,-46.13
55.796,-49.16
55.812,-51.01
55.828,-51.18
55.843,-49.41
55.859,-45.84
55.875,-40.83
55.890,-34.96
55.906,-28.75
55.921,-22.53
55.937,-16.49
55.953,-10.71
55.968,-5.28
55.984,-0.28
56.000,4.16
56.015,7.98
56.031,11.18
56.046,13.85
56.062,16.07
56.078,17.87
56.093,19.21
56.109,20.02
56.125,20.29
56.140,20.19
56.156,19.97
56.171,19.88
56.187,20.12
56.203,20.72
56.218,21.51
56.234,22.32
56.250,22.95
56.265,23.25
56.281,23.2
56.296,22.83
56.312,22.22
56.328,21.45
56.343,20.6
56.359,19.69
56.375,18.75
56.390,17.73
56.406,16.56
56.421,15.2
56.437,13.63
56.453,11.89
56.468,10.07
56.484,8.2
56.500,6.31
56.515,4.37
56.531,2.3
56.546,-0.03
56.562,-2.66
56.578,-5.63
56.593,-8.89
56.609,-12.32
56.625,-15.9
56.640,-19.54
56.656,-23.29
56.671,-27.16
56.687,-31.23
56.703,-35.43
56.718,-39.71
56.734,-43.86
56.750,-47.56
56.765,-50.48
56.781,-52.2
56.796,-52.4
56.812,-50.89
56.828,-47.7
56.843,-43.03
56.859,-37.24
56.875,-30.75
56.890,-23.94
56.906,-17.15
56.921,-10.61
56.937,-4.4
56.953,1.47
56.968,7.05
56.984,12.32
57.000,17.2
57.015,21.53
57.031,25.07
57.046,27.68
57.062,29.35
57.078,30.16
57.093,30.25
57.109,29.82
57.125,28.96
57.140,27.87
57.156,26.74
57.171,25.85
57.187,25.45
57.203,25.71
57.218,26.54
57.234,27.69
57.250,28.89
57.265,29.8
57.281,30.24
57.296,30.17
57.312,29.6
57.328,28.59
57.343,27.17
57.359,25.37
57.375,23.17
57.390,20.64
57.406,17.9
57.421,15.07
57.437,12.28
57.453,9.59
57.468,7.06
57.484,4.58
57.500,2.06
57.515,-0.63
57.531,-3.57
57.546,-6.78
57.562,-10.19
57.578,-13.69
57.593,-17.15
57.609,-20.36
57.625,-23.3
57.640,-25.96
57.656,-28.49
57.671,-31.14
57.687,-34.14
57.703,-37.61
57.718,-41.51
57.734,-45.61
57.750,-49.44
57.765,-52.54
57.781,-54.43
57.796,-54.74
57.812,-53.29
57.828,-50.08
57.843,-45.28
57.859,-39.22
57.875,-32.38
57.890,-25.23
57.906,-18.16
57.921,-11.38
57.937,-4.94
57.953,1.21
57.968,7.1
57.984,12.69
58.000,17.79
58.015,22.19
58.031,25.73
58.046,28.38
58.062,30.21
58.078,31.39
58.093,32.11
58.109,32.55
58.125,32.85
58.140,33.14
58.156,33.49
58.171,33.87
58.187,34.23
58.203,34.51
58.218,34.61
58.234,34.47
58.250,34.06
58.265,33.32
58.281,32.25
58.296,30.92
58.312,29.41
58.328,27.86
58.343,26.35
58.359,24.91
58.375,23.44
58.390,21.79
58.406,19.9
58.421,17.75
58.437,15.44
58.453,13.05
58.468,10.62
58.484,8.11
58.500,5.57
58.515,2.99
58.531,0.45
58.546,-2.0
58.562,-4.37
58.578,-6.72
58.593,-9.16
58.609,-11.75
58.625,-14.53
58.640,-17.4
58.656,-20.3
58.671,-23.13
58.687,-25.88
58.703,-28.63
58.718,-31.49
58.734,-34.6
58.750,-38.03
58.765,-41.75
58.781,-45.43
58.796,-48.61
58.812,-50.69
58.828,-51.12
58.843,-49.7
58.859,-46.55
58.875,-42.07
58.890,-36.85
58.906,-31.37
58.921,-25.94
58.937,-20.69
58.953,-15.62
58.968,-10.71
58.984,-6.02
59.000,-1.6
59.015,2.52
59.031,6.29
59.046,9.71
59.062,12.77
59.078,15.46
59.093,17.74
59.109,19.63
59.125,21.16
59.140,22.44
59.156,23.6
59.171,24.76
59.187,26.04
59.203,27.48
59.218,29.01
59.234,30.43
59.250,31.49
59.265,31.92
59.281,31.63
59.296,30.64
59.312,29.08
59.328,27.19
59.343,25.15
59.359,23.09
59.375,21.06
59.390,19.14
59.406,17.35
59.421,15.75
59.437,14.33
59.453,13.03
59.468,11.75
59.484,10.37
59.500,8.83
59.515,7.09
59.531,5.15
59.546,3.02
59.562,0.65
59.578,-1.97
59.593,-4.85
59.609,-7.9
59.625,-11.02
59.640,-14.06
59.656,-16.97
59.671,-19.72
59.687,-22.39
59.703,-25.08
59.718,-27.91
59.734,-30.96
59.750,-34.23
59.765,-37.56
59.781,-40.63
59.796,-42.97
59.812,-44.08
59.828,-43.58
59.843,-41.36
59.859,-37.57
59.875,-32.68
59.890,-27.21
59.906,-21.63
59.921,-16.26
59.937,-11.28
59.953,-6.72
59.968,-2.51
59.984,1.43
