timestamp,value
00.000,67.89
00.015,74.74
00.031,75.92
00.046,71.81
00.062,63.81
00.078,53.8
00.093,43.47
00.109,33.78
00.125,24.81
00.140,15.74
00.156,5.57
00.171,-6.51
00.187,-20.66
00.203,-36.15
00.218,-51.69
00.234,-65.44
00.250,-75.83
00.265,-81.94
00.281,-83.97
00.296,-83.4
00.312,-82.36
00.328,-82.85
00.343,-85.53
00.359,-89.25
00.375,-91.07
00.390,-87.58
00.406,-76.31
00.421,-57.3
00.437,-33.16
00.453,-8.18
00.468,13.28
00.484,28.46
00.500,36.55
00.515,38.44
00.531,35.85
00.546,30.83
00.562,25.47
00.578,21.73
00.593,21.2
00.609,24.67
00.625,31.6
00.640,40.05
00.656,47.4
00.671,51.49
00.687,51.6
00.703,48.67
00.718,44.72
00.734,41.89
00.750,41.46
00.765,43.56
00.781,47.48
00.796,52.02
00.812,56.06
00.828,58.81
00.843,59.8
00.859,58.97
00.875,56.59
00.890,53.18
00.906,49.51
00.921,46.4
00.937,44.54
00.953,44.32
00.968,45.37
00.984,46.51
01.000,46.04
01.015,42.33
01.031,34.71
01.046,23.84
01.062,11.4
01.078,-0.8
01.093,-11.69
01.109,-21.15
01.125,-29.63
01.140,-37.42
01.156,-44.37
01.171,-50.09
01.187,-54.44
01.203,-57.96
01.218,-61.57
01.234,-66.25
01.250,-72.53
01.265,-80.55
01.281,-90.26
01.296,-101.55
01.312,-113.92
01.328,-126.01
01.343,-135.23
01.359,-138.24
01.375,-131.96
01.390,-115.05
01.406,-88.79
01.421,-57.13
01.437,-25.64
01.453,0.1
01.468,16.05
01.484,20.7
01.500,15.47
01.515,4.07
01.531,-8.52
01.546,-17.39
01.562,-18.84
01.578,-11.13
01.593,5.28
01.609,27.98
01.625,53.04
01.640,76.07
01.656,93.02
01.671,101.28
01.687,100.18
01.703,91.02
01.718,76.78
01.734,61.34
01.750,48.8
01.765,42.7
01.781,45.08
01.796,55.49
01.812,70.61
01.828,84.8
01.843,91.76
01.859,87.02
01.875,69.66
01.890,42.88
01.906,12.67
01.921,-14.66
01.937,-34.53
01.953,-45.09
01.968,-46.81
01.984,-41.33
02.000,-30.63
02.015,-16.95
02.031,-2.9
02.046,8.46
02.062,14.39
02.078,13.65
02.093,7.3
02.109,-1.54
02.125,-9.21
02.140,-12.99
02.156,-12.33
02.171,-8.6
02.187,-4.31
02.203,-1.96
02.218,-3.41
02.234,-9.68
02.250,-20.86
02.265,-36.3
02.281,-54.65
02.296,-74.28
02.312,-93.8
02.328,-112.35
02.343,-129.3
02.359,-143.74
02.375,-154.0
02.390,-157.85
02.406,-153.54
02.421,-140.66
02.437,-120.53
02.453,-95.45
02.468,-67.64
02.484,-38.56
02.500,-9.18
02.515,19.01
02.531,43.56
02.546,61.43
02.562,70.5
02.578,70.73
02.593,64.5
02.609,55.4
02.625,46.69
02.640,40.24
02.656,36.26
02.671,34.06
02.687,32.78
02.703,31.83
02.718,30.84
02.734,29.46
02.750,27.51
02.765,25.3
02.781,23.92
02.796,25.1
02.812,30.79
02.828,42.12
02.843,58.9
02.859,79.28
02.875,99.84
02.890,116.51
02.906,125.61
02.921,125.4
02.937,116.68
02.953,103.03
02.968,89.47
02.984,80.56
03.000,78.77
03.015,83.69
03.031,92.65
03.046,101.88
03.062,107.86
03.078,107.83
03.093,100.25
03.109,84.63
03.125,61.75
03.140,33.86
03.156,4.27
03.171,-23.36
03.187,-46.09
03.203,-62.55
03.218,-73.07
03.234,-79.04
03.250,-82.32
03.265,-84.68
03.281,-87.52
03.296,-91.76
03.312,-97.67
03.328,-104.81
03.343,-112.15
03.359,-118.73
03.375,-124.05
03.390,-128.14
03.406,-131.06
03.421,-132.25
03.437,-130.46
03.453,-124.05
03.468,-112.17
03.484,-95.16
03.500,-74.69
03.515,-52.92
03.531,-31.7
03.546,-12.14
03.562,5.35
03.578,20.64
03.593,33.99
03.609,45.87
03.625,57.06
03.640,68.2
03.656,79.38
03.671,89.96
03.687,98.82
03.703,104.74
03.718,106.86
03.734,104.9
03.750,99.0
03.765,89.67
03.781,77.99
03.796,65.65
03.812,54.76
03.828,47.4
03.843,44.91
03.859,47.26
03.875,53.14
03.890,60.42
03.906,66.87
03.921,70.89
03.937,71.77
03.953,69.87
03.968,66.45
03.984,63.25
04.000,61.83
04.015,62.83
04.031,65.61
04.046,68.34
04.062,68.99
04.078,66.18
04.093,59.93
04.109,51.53
04.125,42.68
04.140,34.34
04.156,26.19
04.171,16.74
04.187,4.51
04.203,-10.93
04.218,-28.45
04.234,-45.87
04.250,-60.92
04.265,-72.23
04.281,-79.68
04.296,-84.16
04.312,-87.23
04.328,-90.52
04.343,-95.46
04.359,-102.91
04.375,-112.81
04.390,-123.68
04.406,-132.69
04.421,-136.15
04.437,-130.81
04.453,-115.26
04.468,-90.94
04.484,-62.06
04.500,-34.3
04.515,-12.9
04.531,-0.88
04.546,1.59
04.562,-3.13
04.578,-11.11
04.593,-18.38
04.609,-21.63
04.625,-18.78
04.640,-9.03
04.656,7.01
04.671,27.14
04.687,47.57
04.703,63.67
04.718,71.28
04.734,68.29
04.750,55.93
04.765,38.44
04.781,21.64
04.796,10.63
04.812,8.2
04.828,14.36
04.843,27.11
04.859,43.59
04.875,61.02
04.890,76.93
04.906,89.15
04.921,95.9
04.937,96.19
04.953,90.26
04.968,79.78
04.984,67.14
05.000,54.57
05.015,43.32
05.031,33.49
05.046,24.44
05.062,15.45
05.078,6.19
05.093,-3.34
05.109,-12.82
05.125,-21.84
05.140,-29.95
05.156,-36.74
05.171,-41.94
05.187,-45.85
05.203,-49.26
05.218,-53.47
05.234,-59.76
05.250,-68.88
05.265,-80.63
05.281,-93.85
05.296,-106.75
05.312,-117.31
05.328,-123.88
05.343,-125.49
05.359,-122.35
05.375,-115.79
05.390,-108.21
05.406,-102.27
05.421,-100.12
05.437,-102.41
05.453,-107.95
05.468,-113.96
05.484,-116.93
05.500,-113.8
05.515,-102.85
05.531,-84.26
05.546,-60.0
05.562,-33.43
05.578,-8.3
05.593,11.99
05.609,25.25
05.625,31.13
05.640,31.33
05.656,29.14
05.671,28.61
05.687,33.09
05.703,44.21
05.718,61.12
05.734,80.87
05.750,99.35
05.765,112.89
05.781,119.3
05.796,118.53
05.812,112.35
05.828,103.52
05.843,94.92
05.859,88.64
05.875,85.63
05.890,85.75
05.906,88.09
05.921,91.49
05.937,94.88
05.953,97.62
05.968,99.38
05.984,100.18
06.000,100.19
06.015,99.67
06.031,99.0
06.046,98.58
06.062,98.61
06.078,98.94
06.093,98.82
06.109,96.88
06.125,91.68
06.140,82.19
06.156,68.47
06.171,51.84
06.187,34.49
06.203,18.81
06.218,6.6
06.234,-1.26
06.250,-5.12
06.265,-6.4
06.281,-7.31
06.296,-10.22
06.312,-16.93
06.328,-27.91
06.343,-42.07
06.359,-57.14
06.375,-70.24
06.390,-78.99
06.406,-82.3
06.421,-80.63
06.437,-75.91
06.453,-70.88
06.468,-67.89
06.484,-68.15
06.500,-70.97
06.515,-73.84
06.531,-73.3
06.546,-66.43
06.562,-52.21
06.578,-32.17
06.593,-10.06
06.609,9.32
06.625,21.73
06.640,24.71
06.656,18.1
06.671,3.98
06.687,-14.05
06.703,-31.85
06.718,-45.79
06.734,-53.53
06.750,-54.42
06.765,-49.53
06.781,-41.0
06.796,-31.12
06.812,-21.48
06.828,-12.19
06.843,-1.92
06.859,11.39
06.875,29.36
06.890,52.13
06.906,77.66
06.921,102.43
06.937,122.55
06.953,135.18
06.968,139.48
06.984,136.41
07.000,127.87
07.015,115.7
07.031,101.33
07.046,85.77
07.062,70.19
07.078,55.91
07.093,44.35
07.109,36.2
07.125,31.15
07.140,28.06
07.156,25.47
07.171,22.36
07.187,18.56
07.203,14.67
07.218,11.52
07.234,9.85
07.250,9.9
07.265,11.31
07.281,13.15
07.296,14.15
07.312,12.85
07.328,8.33
07.343,0.66
07.359,-9.01
07.375,-18.95
07.390,-27.55
07.406,-34.22
07.421,-39.44
07.437,-44.77
07.453,-52.06
07.468,-62.56
07.484,-76.17
07.500,-91.33
07.515,-105.37
07.531,-115.71
07.546,-120.13
07.562,-117.09
07.578,-106.41
07.593,-89.4
07.609,-68.81
07.625,-48.32
07.640,-31.81
07.656,-22.49
07.671,-23.04
07.687,-33.49
07.703,-50.63
07.718,-68.92
07.734,-82.41
07.750,-86.55
07.765,-79.58
07.781,-62.96
07.796,-40.88
07.812,-21.0
07.828,-9.41
07.843,-8.32
07.859,-16.33
07.875,-30.34
07.890,-47.58
07.906,-66.45
07.921,-86.28
07.937,-107.05
07.953,-131.46
07.968,-159.35
07.984,-186.99
08.000,-209.1
08.015,-222.34
08.031,-227.23
08.046,-226.9
08.062,-225.02
08.078,-224.82
08.093,-232.06
08.109,-248.51
08.125,-270.92
08.140,-292.86
08.156,-308.44
08.171,-314.61
08.187,-310.69
08.203,-297.78
08.218,-254.29
08.234,-178.43
08.250,-89.08
08.265,-13.13
08.281,33.68
08.296,51.71
08.312,49.41
08.328,33.3
08.343,11.57
08.359,-11.19
08.375,-36.19
08.390,-63.11
08.406,-88.33
08.421,-107.01
08.437,-113.88
08.453,-109.24
08.468,-96.21
08.484,-78.23
08.500,-58.58
08.515,-42.27
08.531,-31.31
08.546,-24.09
08.562,-17.17
08.578,-8.06
08.593,3.12
08.609,15.03
08.625,26.45
08.640,36.36
08.656,42.59
08.671,44.64
08.687,44.06
08.703,43.3
08.718,44.06
08.734,46.2
08.750,48.82
08.765,51.11
08.781,52.34
08.796,51.33
08.812,47.86
08.828,42.77
08.843,37.43
08.859,32.91
08.875,29.41
08.890,26.72
08.906,24.67
08.921,23.08
08.937,21.5
08.953,19.79
08.968,18.16
08.984,16.85
09.000,15.98
09.015,15.34
09.031,14.59
09.046,13.57
09.062,12.11
09.078,10.2
09.093,7.89
09.109,5.36
09.125,2.73
09.140,0.11
09.156,-2.44
09.171,-4.95
09.187,-7.41
09.203,-9.9
09.218,-12.42
09.234,-15.0
09.250,-17.59
09.265,-20.19
09.281,-22.65
09.296,-24.87
09.312,-26.74
09.328,-28.2
09.343,-29.19
09.359,-29.73
09.375,-29.87
09.390,-29.65
09.406,-29.22
09.421,-28.65
09.437,-28.02
09.453,-27.4
09.468,-26.76
09.484,-26.07
09.500,-25.28
09.515,-24.3
09.531,-23.03
09.546,-21.39
09.562,-19.31
09.578,-16.75
09.593,-13.74
09.609,-10.26
09.625,-6.39
09.640,-2.2
09.656,2.21
09.671,6.72
09.687,11.19
09.703,15.48
09.718,19.47
09.734,23.05
09.750,26.12
09.765,28.6
09.781,30.46
09.796,31.72
09.812,32.42
09.828,32.65
09.843,32.49
09.859,32.04
09.875,31.39
09.890,30.67
09.906,29.9
09.921,29.13
09.937,28.37
09.953,27.54
09.968,26.65
09.984,25.67
10.000,24.58
10.015,23.36
10.031,22.11
10.046,20.86
10.062,19.72
10.078,18.85
10.093,18.31
10.109,18.22
10.125,18.59
10.140,19.42
10.156,20.62
10.171,22.09
10.187,23.63
10.203,25.05
10.218,26.16
10.234,26.79
10.250,26.87
10.265,26.3
10.281,25.12
10.296,23.42
10.312,21.33
10.328,19.01
10.343,16.59
10.359,14.26
10.375,12.09
10.390,10.2
10.406,8.6
10.421,7.28
10.437,6.23
10.453,5.4
10.468,4.73
10.484,4.21
10.500,3.84
10.515,3.58
10.531,3.47
10.546,3.53
10.562,3.79
10.578,4.24
10.593,4.87
10.609,5.62
10.625,6.48
10.640,7.41
10.656,8.34
10.671,9.23
10.687,10.07
10.703,10.81
10.718,11.44
10.734,11.96
10.750,12.42
10.765,12.84
10.781,13.32
10.796,13.91
10.812,14.62
10.828,15.48
10.843,16.4
10.859,17.29
10.875,18.05
10.890,18.61
10.906,18.96
10.921,19.18
10.937,19.45
10.953,19.92
10.968,20.79
10.984,22.15
11.000,24.06
11.015,26.48
11.031,29.31
11.046,32.51
11.062,36.09
11.078,40.1
11.093,44.54
11.109,49.35
11.125,54.32
11.140,59.19
11.156,63.64
11.171,67.49
11.187,70.76
11.203,73.78
11.218,77.02
11.234,80.98
11.250,85.99
11.265,92.07
11.281,98.92
11.296,106.12
11.312,113.35
11.328,120.53
11.343,128.03
11.359,136.43
11.375,146.33
11.390,158.06
11.406,171.53
11.421,186.25
11.437,201.57
11.453,216.97
11.468,232.29
11.484,247.76
11.500,263.9
11.515,281.39
11.531,300.91
11.546,323.02
11.562,347.79
11.578,374.35
11.593,400.56
11.609,423.15
11.625,438.38
11.640,443.19
11.656,436.26
11.671,418.57
11.687,392.91
11.703,362.84
11.718,331.43
11.734,300.54
11.750,270.88
11.765,242.63
11.781,216.12
11.796,192.1
11.812,171.52
11.828,154.91
11.843,142.06
11.859,131.87
11.875,122.94
11.890,114.0
11.906,104.36
11.921,94.05
11.937,83.58
11.953,73.52
11.968,64.26
11.984,55.9
12.000,48.22
12.015,40.99
12.031,34.05
12.046,27.39
12.062,21.15
12.078,15.51
12.093,10.46
12.109,5.88
12.125,1.64
12.140,-2.5
12.156,-6.61
12.171,-10.62
12.187,-14.37
12.203,-17.56
12.218,-19.98
12.234,-21.58
12.250,-22.41
12.265,-22.62
12.281,-22.55
12.296,-22.54
12.312,-22.85
12.328,-23.74
12.343,-25.18
12.359,-27.09
12.375,-29.31
12.390,-31.74
12.406,-34.3
12.421,-37.02
12.437,-40.03
12.453,-43.34
12.468,-46.98
12.484,-50.67
12.500,-54.0
12.515,-56.53
12.531,-58.03
12.546,-58.55
12.562,-58.41
12.578,-58.1
12.593,-57.94
12.609,-58.09
12.625,-58.3
12.640,-58.23
12.656,-57.52
12.671,-55.83
12.687,-52.97
12.703,-48.88
12.718,-43.58
12.734,-37.24
12.750,-30.39
12.765,-23.64
12.781,-17.83
12.796,-13.78
12.812,-11.82
12.828,-11.89
12.843,-13.3
12.859,-14.99
12.875,-15.89
12.890,-15.38
12.906,-13.5
12.921,-10.86
12.937,-8.44
12.953,-6.97
12.968,-6.68
12.984,-7.27
13.000,-8.13
13.015,-8.7
13.031,-8.74
13.046,-8.34
13.062,-7.64
13.078,-6.78
13.093,-5.79
13.109,-4.7
13.125,-3.7
13.140,-3.03
13.156,-2.93
13.171,-3.48
13.187,-4.45
13.203,-5.41
13.218,-6.02
13.234,-6.06
13.250,-5.65
13.265,-5.08
13.281,-4.67
13.296,-4.61
13.312,-4.9
13.328,-5.41
13.343,-5.95
13.359,-6.47
13.375,-7.04
13.390,-7.8
13.406,-8.95
13.421,-10.58
13.437,-12.62
13.453,-14.81
13.468,-16.85
13.484,-18.46
13.500,-19.59
13.515,-20.38
13.531,-21.03
13.546,-21.75
13.562,-22.58
13.578,-23.5
13.593,-24.38
13.609,-25.24
13.625,-26.19
13.640,-27.36
13.656,-28.81
13.671,-30.43
13.687,-31.94
13.703,-32.98
13.718,-33.24
13.734,-32.53
13.750,-30.87
13.765,-28.43
13.781,-25.45
13.796,-22.24
13.812,-19.07
13.828,-16.28
13.843,-14.16
13.859,-12.98
13.875,-12.86
13.890,-13.58
13.906,-14.56
13.921,-15.04
13.937,-14.33
13.953,-12.06
13.968,-8.39
13.984,-3.92
14.000,0.52
14.015,4.12
14.031,6.29
14.046,6.65
14.062,5.13
14.078,1.86
14.093,-2.7
14.109,-7.83
14.125,-12.69
14.140,-16.43
14.156,-18.53
14.171,-18.7
14.187,-17.11
14.203,-14.19
14.218,-10.73
14.234,-7.43
14.250,-4.92
14.265,-3.44
14.281,-2.73
14.296,-2.18
14.312,-1.07
14.328,1.03
14.343,4.21
14.359,8.03
14.375,11.86
14.390,15.0
14.406,17.05
14.421,17.97
14.437,17.84
14.453,16.88
14.468,15.1
14.484,12.42
14.500,8.64
14.515,3.56
14.531,-2.94
14.546,-10.85
14.562,-19.83
14.578,-29.11
14.593,-37.61
14.609,-44.23
14.625,-48.32
14.640,-50.08
14.656,-50.48
14.671,-50.95
14.687,-52.69
14.703,-55.98
14.718,-60.11
14.734,-63.59
14.750,-64.89
14.765,-62.98
14.781,-57.65
14.796,-49.41
14.812,-39.24
14.828,-28.38
14.843,-18.3
14.859,-10.69
14.875,-7.17
14.890,-8.73
14.906,-15.15
14.921,-24.69
14.937,-34.53
14.953,-41.61
14.968,-43.88
14.984,-41.16
15.000,-34.98
15.015,-27.86
15.031,-21.89
15.046,-17.93
15.062,-15.62
15.078,-14.04
15.093,-12.5
15.109,-10.97
15.125,-9.72
15.140,-8.57
15.156,-6.49
15.171,-1.99
15.187,6.07
15.203,17.4
15.218,30.23
15.234,41.8
15.250,49.55
15.265,52.19
15.281,49.9
15.296,44.11
15.312,36.5
15.328,28.45
15.343,20.82
15.359,14.04
15.375,8.43
15.390,4.21
15.406,1.37
15.421,-0.34
15.437,-1.66
15.453,-3.43
15.468,-6.24
15.484,-10.3
15.500,-15.27
15.515,-20.54
15.531,-25.57
15.546,-30.11
15.562,-34.2
15.578,-38.02
15.593,-41.66
15.609,-45.04
15.625,-48.07
15.640,-50.77
15.656,-53.25
15.671,-55.75
15.687,-58.47
15.703,-61.47
15.718,-64.64
15.734,-67.66
15.750,-70.31
15.765,-72.14
15.781,-72.78
15.796,-71.95
15.812,-69.76
15.828,-66.74
15.843,-63.65
15.859,-61.07
15.875,-58.88
15.890,-56.33
15.906,-52.33
15.921,-46.16
15.937,-37.94
15.953,-28.52
15.968,-19.07
15.984,-10.26
16.000,-2.07
16.015,5.97
16.031,14.19
16.046,22.26
16.062,29.25
16.078,34.14
16.093,36.38
16.109,36.28
16.125,34.78
16.140,32.95
16.156,31.53
16.171,30.81
16.187,30.69
16.203,30.94
16.218,31.36
16.234,31.89
16.250,32.42
16.265,32.8
16.281,32.8
16.296,32.32
16.312,31.47
16.328,30.55
16.343,29.97
16.359,30.02
16.375,30.69
16.390,31.66
16.406,32.38
16.421,32.4
16.437,31.4
16.453,29.46
16.468,26.71
16.484,23.38
16.500,19.58
16.515,15.46
16.531,11.19
16.546,6.99
16.562,3.15
16.578,-0.2
16.593,-3.09
16.609,-5.59
16.625,-7.75
16.640,-9.5
16.656,-10.7
16.671,-11.25
16.687,-11.33
16.703,-11.33
16.718,-11.78
16.734,-13.12
16.750,-15.73
16.765,-19.93
16.781,-26.07
16.796,-34.46
16.812,-44.83
16.828,-56.35
16.843,-67.48
16.859,-76.35
16.875,-81.36
16.890,-81.64
16.906,-77.38
16.921,-69.41
16.937,-58.99
16.953,-47.31
16.968,-35.56
16.984,-24.81
17.000,-16.04
17.015,-9.83
17.031,-6.01
17.046,-3.75
17.062,-1.74
17.078,1.3
17.093,6.0
17.109,12.06
17.125,18.56
17.140,24.26
17.156,28.09
17.171,29.53
17.187,28.69
17.203,26.28
17.218,23.34
17.234,21.15
17.250,20.66
17.265,22.48
17.281,26.52
17.296,31.97
17.312,37.78
17.328,42.88
17.343,46.53
17.359,48.32
17.375,48.11
17.390,45.88
17.406,41.83
17.421,36.57
17.437,31.06
17.453,26.39
17.468,23.29
17.484,21.58
17.500,20.31
17.515,18.06
17.531,13.83
17.546,7.35
17.562,-0.69
17.578,-9.2
17.593,-16.95
17.609,-23.09
17.625,-27.12
17.640,-28.85
17.656,-28.41
17.671,-26.47
17.687,-24.26
17.703,-23.16
17.718,-24.37
17.734,-28.06
17.750,-33.48
17.765,-39.14
17.781,-43.77
17.796,-46.85
17.812,-48.62
17.828,-49.73
17.843,-50.57
17.859,-51.1
17.875,-50.69
17.890,-48.85
17.906,-45.43
17.921,-40.93
17.937,-36.12
17.953,-31.68
17.968,-28.01
17.984,-25.04
18.000,-22.46
18.015,-20.03
18.031,-17.6
18.046,-15.19
18.062,-12.86
18.078,-10.63
18.093,-8.44
18.109,-6.38
18.125,-4.72
18.140,-3.88
18.156,-4.29
18.171,-5.97
18.187,-8.48
18.203,-11.0
18.218,-12.71
18.234,-13.1
18.250,-12.27
18.265,-10.62
18.281,-8.77
18.296,-7.14
18.312,-5.85
18.328,-4.84
18.343,-3.98
18.359,-3.28
18.375,-2.78
18.390,-2.58
18.406,-2.61
18.421,-2.7
18.437,-2.72
18.453,-2.49
18.468,-1.94
18.484,-1.11
18.500,-0.15
18.515,0.68
18.531,1.11
18.546,0.95
18.562,0.28
18.578,-0.75
18.593,-1.88
18.609,-2.93
18.625,-3.9
18.640,-4.88
18.656,-6.12
18.671,-7.8
18.687,-9.92
18.703,-12.26
18.718,-14.39
18.734,-15.83
18.750,-16.22
18.765,-15.56
18.781,-14.16
18.796,-12.5
18.812,-11.06
18.828,-10.15
18.843,-9.81
18.859,-9.94
18.875,-10.37
18.890,-10.9
18.906,-11.31
18.921,-11.33
18.937,-10.73
18.953,-9.39
18.968,-7.49
18.984,-5.36
19.000,-3.44
19.015,-2.04
19.031,-1.19
19.046,-0.72
19.062,-0.36
19.078,0.03
19.093,0.48
19.109,0.95
19.125,1.46
19.140,2.13
19.156,3.01
19.171,4.1
19.187,5.2
19.203,6.02
19.218,6.34
19.234,6.07
19.250,5.41
19.265,4.6
19.281,3.84
19.296,3.23
19.312,2.76
19.328,2.38
19.343,2.02
19.359,1.68
19.375,1.31
19.390,0.91
19.406,0.4
19.421,-0.25
19.437,-1.06
19.453,-1.93
19.468,-2.79
19.484,-3.51
19.500,-3.96
19.515,-4.14
19.531,-4.1
19.546,-3.99
19.562,-3.96
19.578,-4.14
19.593,-4.51
19.609,-5.06
19.625,-5.7
19.640,-6.33
19.656,-6.87
19.671,-7.24
19.687,-7.37
19.703,-7.21
19.718,-6.82
19.734,-6.35
19.750,-6.01
19.765,-5.99
19.781,-6.39
19.796,-7.23
19.812,-8.37
19.828,-9.64
19.843,-10.81
19.859,-11.67
19.875,-12.16
19.890,-12.35
19.906,-12.43
19.921,-12.7
19.937,-13.48
19.953,-14.78
19.968,-16.36
19.984,-17.66
20.000,-18.07
20.015,-17.16
20.031,-14.97
20.046,-11.87
20.062,-8.46
20.078,-5.26
20.093,-2.55
20.109,-0.39
20.125,1.25
20.140,2.43
20.156,3.12
20.171,3.36
20.187,3.35
20.203,3.31
20.218,3.61
20.234,4.34
20.250,5.36
20.265,6.35
20.281,7.02
20.296,7.35
20.312,7.5
20.328,7.86
20.343,8.56
20.359,9.67
20.375,10.99
20.390,12.27
20.406,13.4
20.421,14.35
20.437,15.13
20.453,15.62
20.468,15.55
20.484,14.57
20.500,12.51
20.515,9.44
20.531,5.8
20.546,2.12
20.562,-1.17
20.578,-3.77
20.593,-5.66
20.609,-6.95
20.625,-7.81
20.640,-8.34
20.656,-8.64
20.671,-8.86
20.687,-9.06
20.703,-9.41
20.718,-10.01
20.734,-10.81
20.750,-11.69
20.765,-12.43
20.781,-12.9
20.796,-12.98
20.812,-12.77
20.828,-12.34
20.843,-11.89
20.859,-11.56
20.875,-11.35
20.890,-11.25
20.906,-11.21
20.921,-11.23
20.937,-11.41
20.953,-11.67
20.968,-11.9
20.984,-11.88
21.000,-11.41
21.015,-10.44
21.031,-9.06
21.046,-7.42
21.062,-5.64
21.078,-3.73
21.093,-1.59
21.109,0.77
21.125,3.21
21.140,5.44
21.156,7.15
21.171,8.09
21.187,8.24
21.203,7.75
21.218,6.8
21.234,5.58
21.250,4.26
21.265,2.97
21.281,1.86
21.296,1.05
21.312,0.56
21.328,0.25
21.359,-0.36
21.375,-0.92
21.390,-1.63
21.406,-2.45
21.421,-3.3
21.437,-4.24
21.453,-5.23
21.468,-6.2
21.484,-6.94
21.500,-7.23
21.515,-6.9
21.531,-5.91
21.546,-4.42
21.562,-2.64
21.578,-0.83
21.593,0.76
21.609,1.97
21.625,2.73
21.640,2.93
21.656,2.57
21.671,1.68
21.687,0.37
21.703,-1.17
21.718,-2.63
21.734,-3.73
21.750,-4.36
21.765,-4.54
21.781,-4.57
21.796,-4.74
21.812,-5.3
21.828,-6.21
21.843,-7.31
21.859,-8.33
21.875,-9.1
21.890,-9.69
21.906,-10.18
21.921,-10.63
21.937,-10.97
21.953,-11.02
21.968,-10.74
21.984,-10.25
22.000,-9.87
22.015,-9.95
22.031,-10.56
22.046,-11.48
22.062,-12.19
22.078,-12.08
22.093,-10.82
22.109,-8.44
22.125,-5.3
22.140,-1.94
22.156,1.1
22.171,3.45
22.187,4.95
22.203,5.58
22.218,5.5
22.234,4.99
22.250,4.28
22.265,3.6
22.281,3.02
22.296,2.49
22.312,1.88
22.328,1.08
22.343,0.06
22.359,-1.1
22.375,-2.13
22.390,-2.86
22.406,-3.15
22.421,-3.0
22.437,-2.53
22.453,-1.92
22.468,-1.31
22.484,-0.77
22.500,-0.36
22.515,-0.11
22.531,0.01
22.546,0.01
22.562,-0.06
22.578,-0.09
22.593,0.03
22.609,0.39
22.625,0.98
22.640,1.75
22.656,2.44
22.671,2.87
22.687,2.85
22.703,2.24
22.718,1.05
22.734,-0.62
22.750,-2.59
22.765,-4.69
22.781,-6.66
22.796,-8.37
22.812,-9.65
22.828,-10.44
22.843,-10.84
22.859,-10.99
22.875,-11.07
22.890,-11.21
22.906,-11.52
22.921,-11.93
22.937,-12.37
22.953,-12.72
22.968,-13.02
22.984,-13.38
23.000,-13.9
23.015,-14.68
23.031,-15.66
23.046,-16.64
23.062,-17.41
23.078,-17.84
23.093,-17.86
23.109,-17.61
23.125,-17.16
23.140,-16.42
23.156,-15.29
23.171,-13.52
23.187,-10.99
23.203,-7.76
23.218,-4.14
23.234,-0.62
23.250,2.37
23.265,4.54
23.281,5.87
23.296,6.42
23.312,6.47
23.328,6.31
23.343,6.35
23.359,6.95
23.375,8.4
23.390,10.74
23.406,13.69
23.421,16.8
23.437,19.43
23.453,21.12
23.468,21.58
23.484,20.87
23.500,19.27
23.515,17.15
23.531,14.83
23.546,12.59
23.562,10.63
23.578,9.06
23.593,8.07
23.609,7.69
23.625,7.87
23.640,8.55
23.656,9.53
23.671,10.49
23.687,11.06
23.703,10.97
23.718,10.0
23.734,8.34
23.750,6.26
23.765,4.13
23.781,2.38
23.796,1.28
23.812,1.06
23.828,1.68
23.843,3.01
23.859,4.67
23.875,6.24
23.890,7.15
23.906,6.96
23.921,5.44
23.937,2.68
23.953,-0.95
23.968,-5.02
23.984,-9.02
24.000,-12.55
24.015,-15.2
24.031,-16.71
24.046,-16.92
24.062,-15.94
24.078,-14.23
24.093,-12.38
24.109,-11.02
24.125,-10.65
24.140,-11.46
24.156,-13.3
24.171,-15.77
24.187,-18.29
24.203,-20.1
24.218,-20.63
24.234,-19.54
24.250,-16.84
24.265,-13.06
24.281,-8.95
24.296,-5.35
24.312,-2.86
24.328,-1.76
24.343,-1.89
24.359,-2.84
24.375,-3.96
24.390,-4.49
24.406,-3.86
24.421,-1.83
24.437,1.44
24.453,5.36
24.468,9.08
24.484,11.92
24.500,13.55
24.515,14.14
24.531,14.21
24.546,14.22
24.562,14.41
24.578,14.67
24.593,14.68
24.609,14.17
24.625,13.07
24.640,11.6
24.656,10.18
24.671,9.18
24.687,8.89
24.703,9.41
24.718,10.61
24.734,12.15
24.750,13.67
24.765,14.71
24.781,14.93
24.796,14.11
24.812,12.24
24.828,9.61
24.843,6.69
24.859,3.92
24.875,1.55
24.890,-0.4
24.906,-2.2
24.921,-4.11
24.937,-6.17
24.953,-8.12
24.968,-9.54
24.984,-10.09
25.000,-9.65
25.015,-8.5
25.031,-6.97
25.046,-5.46
25.062,-4.06
25.078,-2.81
25.093,-1.72
25.109,-0.92
25.125,-0.79
25.140,-1.68
25.156,-3.84
25.171,-7.24
25.187,-11.61
25.203,-16.43
25.218,-21.11
25.234,-25.02
25.250,-27.6
25.265,-28.46
25.281,-27.41
25.296,-24.52
25.312,-20.13
25.328,-14.84
25.343,-9.34
25.359,-4.43
25.375,-0.65
25.390,1.79
25.406,3.05
25.421,3.67
25.437,4.29
25.453,5.39
25.468,7.02
25.484,8.79
25.500,10.05
25.515,10.16
25.531,8.84
25.546,6.08
25.562,2.31
25.578,-1.97
25.593,-6.19
25.609,-9.79
25.625,-12.25
25.640,-13.08
25.656,-11.97
25.671,-8.93
25.687,-4.47
25.703,0.61
25.718,5.38
25.734,8.93
25.750,10.84
25.765,11.18
25.781,10.37
25.796,9.09
25.812,8.0
25.828,7.51
25.843,7.74
25.859,8.47
25.875,9.26
25.890,9.6
25.906,9.11
25.921,7.57
25.937,5.02
25.953,1.83
25.968,-1.5
25.984,-4.48
26.000,-6.77
26.015,-8.39
26.031,-9.61
26.046,-10.79
26.062,-12.1
26.078,-13.48
26.093,-14.59
26.109,-15.2
26.125,-15.34
26.140,-15.3
26.156,-15.5
26.171,-16.19
26.187,-17.4
26.203,-18.96
26.218,-20.71
26.234,-22.54
26.250,-24.45
26.265,-26.29
26.281,-27.73
26.296,-28.33
26.312,-27.72
26.328,-25.85
26.343,-23.01
26.359,-19.66
26.375,-16.25
26.390,-13.06
26.406,-10.19
26.421,-7.64
26.437,-5.44
26.453,-3.6
26.468,-2.03
26.484,-0.59
26.500,0.94
26.515,2.7
26.531,4.67
26.546,6.53
26.562,7.8
26.578,8.08
26.593,7.25
26.609,5.61
26.625,3.83
26.640,2.75
26.656,3.06
26.671,5.13
26.687,8.88
26.703,13.87
26.718,19.36
26.734,24.56
26.750,28.76
26.765,31.48
26.781,32.51
26.796,32.07
26.812,30.62
26.828,28.7
26.843,26.76
26.859,24.91
26.875,22.97
26.890,20.7
26.906,17.97
26.921,14.8
26.937,11.37
26.953,7.91
26.968,4.6
26.984,1.71
27.000,-0.51
27.015,-1.78
27.031,-1.96
27.046,-1.17
27.062,0.13
27.078,1.23
27.093,1.49
27.109,0.55
27.125,-1.57
27.140,-4.5
27.156,-7.71
27.171,-10.72
27.187,-13.12
27.203,-14.71
27.218,-15.45
27.234,-15.52
27.250,-15.11
27.265,-14.61
27.281,-14.43
27.296,-14.94
27.312,-16.29
27.328,-18.26
27.343,-20.2
27.359,-21.29
27.375,-20.91
27.390,-18.93
27.406,-15.85
27.421,-12.51
27.437,-9.73
27.453,-7.93
27.468,-7.03
27.484,-6.54
27.500,-5.9
27.515,-4.78
27.531,-3.03
27.546,-0.72
27.562,2.11
27.578,5.44
27.593,9.13
27.609,12.88
27.625,16.25
27.640,18.83
27.656,20.37
27.671,20.91
27.687,20.56
27.703,19.46
27.718,17.67
27.734,15.22
27.750,12.37
27.765,9.59
27.781,7.47
27.796,6.51
27.812,6.77
27.828,7.94
27.843,9.49
27.859,10.97
27.875,12.24
27.890,13.44
27.906,14.73
27.921,16.06
27.937,17.16
27.953,17.69
27.968,17.45
27.984,16.52
28.000,15.19
28.015,13.76
28.031,12.39
28.046,11.02
28.062,9.44
28.078,7.49
28.093,5.08
28.109,2.16
28.125,-1.27
28.140,-5.2
28.156,-9.56
28.171,-14.06
28.187,-18.29
28.203,-21.72
28.218,-23.79
28.234,-24.18
28.250,-22.78
28.265,-19.8
28.281,-15.76
28.296,-11.41
28.312,-7.59
28.328,-5.09
28.343,-4.3
28.359,-5.21
28.375,-7.34
28.390,-9.87
28.406,-11.89
28.421,-12.74
28.437,-12.11
28.453,-10.07
28.468,-6.97
28.484,-3.29
28.500,0.4
28.515,3.54
28.531,5.58
28.546,6.16
28.562,5.18
28.578,2.93
28.593,0.04
28.609,-2.64
28.625,-4.47
28.640,-5.07
28.656,-4.63
28.671,-3.62
28.687,-2.54
28.703,-1.64
28.718,-0.82
28.734,0.09
28.750,1.24
28.765,2.42
28.781,3.4
28.796,3.96
28.812,4.25
28.828,4.66
28.843,5.61
28.859,7.24
28.875,9.23
28.890,10.97
28.906,11.89
28.921,11.77
28.937,10.7
28.953,9.11
28.968,7.44
28.984,5.97
29.000,4.7
29.015,3.59
29.031,2.6
29.046,1.69
29.062,0.86
29.078,-0.02
29.093,-1.12
29.109,-2.51
29.125,-4.14
29.140,-5.84
29.156,-7.31
29.171,-8.39
29.187,-9.18
29.203,-9.98
29.218,-11.22
29.234,-13.19
29.250,-15.78
29.265,-18.44
29.281,-20.41
29.296,-21.09
29.312,-20.41
29.328,-18.81
29.343,-17.0
29.359,-15.58
29.375,-14.92
29.390,-15.01
29.406,-15.66
29.421,-16.68
29.437,-17.89
29.453,-19.09
29.468,-20.03
29.484,-20.16
29.500,-19.08
29.515,-16.65
29.531,-13.12
29.546,-9.02
29.562,-4.91
29.578,-1.06
29.593,2.46
29.609,5.67
29.625,8.73
29.640,11.61
29.656,14.21
29.671,16.37
29.687,17.86
29.703,18.42
29.718,17.93
29.734,16.5
29.750,14.49
29.765,12.56
29.781,11.39
29.796,11.3
29.812,12.18
29.828,13.42
29.843,14.23
29.859,14.05
29.875,12.75
29.890,10.57
29.906,7.96
29.921,5.36
29.937,3.06
29.953,1.24
29.968,0.04
29.984,-0.47
30.000,-0.22
30.015,0.82
30.031,2.44
30.046,4.32
30.062,5.93
30.078,6.74
30.093,6.47
30.109,5.21
30.125,3.33
30.140,1.5
30.156,0.13
30.171,-0.77
30.187,-1.54
30.203,-2.67
30.218,-4.4
30.234,-6.49
30.250,-8.37
30.265,-9.62
30.281,-10.09
30.296,-10.2
30.312,-10.7
30.328,-12.19
30.343,-14.87
30.359,-18.47
30.375,-22.36
30.390,-25.89
30.406,-28.65
30.421,-30.35
30.437,-30.81
30.453,-29.82
30.468,-27.1
30.484,-22.58
30.500,-16.64
30.515,-10.04
30.531,-3.83
30.546,1.01
30.562,3.98
30.578,5.21
30.593,5.37
30.609,5.37
30.625,5.94
30.640,7.36
30.656,9.58
30.671,12.27
30.687,15.06
30.703,17.51
30.718,19.27
30.734,20.06
30.750,19.8
30.765,18.68
30.781,17.11
30.796,15.7
30.812,14.91
30.828,14.96
30.843,15.67
30.859,16.59
30.875,17.24
30.890,17.27
30.906,16.54
30.921,15.15
30.937,13.37
30.953,11.44
30.968,9.61
30.984,8.01
31.000,6.7
31.015,5.62
31.031,4.67
31.046,3.79
31.062,2.95
31.078,2.26
31.093,1.76
31.109,1.45
31.125,1.17
31.140,0.73
31.156,-0.06
31.171,-1.29
31.187,-2.74
31.203,-4.21
31.218,-5.51
31.234,-6.61
31.250,-7.58
31.265,-8.54
31.281,-9.53
31.296,-10.46
31.312,-11.25
31.328,-11.72
31.343,-11.81
31.359,-11.52
31.375,-11.01
31.390,-10.53
31.406,-10.4
31.421,-10.89
31.437,-12.09
31.453,-13.83
31.468,-15.59
31.484,-16.82
31.500,-16.99
31.515,-15.92
31.531,-13.8
31.546,-10.93
31.562,-7.67
31.578,-4.3
31.593,-1.1
31.609,1.8
31.625,4.18
31.640,6.01
31.656,7.38
31.671,8.5
31.687,9.7
31.703,11.27
31.718,13.3
31.734,15.58
31.750,17.83
31.765,19.61
31.781,20.58
31.796,20.59
31.812,19.71
31.828,18.21
31.843,16.5
31.859,15.03
31.875,14.06
31.890,13.61
31.906,13.34
31.921,12.67
31.937,10.98
31.953,7.84
31.968,3.34
31.984,-1.92
32.000,-6.81
32.015,-10.0
32.031,-10.5
32.046,-7.95
32.062,-2.91
32.078,3.35
32.093,9.22
32.109,13.32
32.125,14.91
32.140,14.1
32.156,11.67
32.171,8.6
32.187,5.78
32.203,3.64
32.218,2.18
32.234,1.11
32.250,0.14
32.265,-0.84
32.281,-1.75
32.296,-2.43
32.312,-2.92
32.328,-3.37
32.343,-4.1
32.359,-5.38
32.375,-7.28
32.390,-9.62
32.406,-12.02
32.421,-14.09
32.437,-15.47
32.453,-16.09
32.468,-15.93
32.484,-15.27
32.500,-14.58
32.515,-14.41
32.531,-15.24
32.546,-17.2
32.562,-19.82
32.578,-22.16
32.593,-23.08
32.609,-21.71
32.625,-17.85
32.640,-12.09
32.656,-5.49
32.671,0.69
32.687,5.52
32.703,8.62
32.718,10.03
32.734,10.27
32.750,9.93
32.765,9.55
32.781,9.46
32.796,9.71
32.812,10.06
32.828,10.12
32.843,9.52
32.859,8.09
32.875,5.88
32.890,3.3
32.906,0.83
32.921,-1.1
32.937,-2.23
32.953,-2.63
32.968,-2.47
32.984,-2.01
33.000,-1.45
33.015,-0.92
33.031,-0.48
33.046,-0.09
33.062,0.28
33.078,0.7
33.093,1.23
33.109,1.94
33.125,2.76
33.140,3.48
33.156,3.82
33.171,3.47
33.187,2.33
33.203,0.5
33.218,-1.63
33.234,-3.58
33.250,-4.91
33.265,-5.51
33.281,-5.48
33.296,-5.09
33.312,-4.6
33.328,-4.14
33.343,-3.81
33.359,-3.67
33.375,-3.95
33.390,-4.91
33.406,-6.61
33.421,-8.82
33.437,-10.96
33.453,-12.32
33.468,-12.45
33.484,-11.46
33.500,-9.91
33.515,-8.65
33.531,-8.36
33.546,-9.23
33.562,-10.89
33.578,-12.66
33.593,-13.76
33.609,-13.63
33.625,-12.21
33.640,-9.69
33.656,-6.53
33.671,-3.31
33.687,-0.5
33.703,1.59
33.718,2.68
33.734,2.67
33.750,1.64
33.765,-0.12
33.781,-1.97
33.796,-3.08
33.812,-2.76
33.828,-0.68
33.843,2.84
33.859,6.91
33.875,10.5
33.890,12.8
33.906,13.59
33.921,13.19
33.937,12.19
33.953,11.23
33.968,10.78
33.984,11.13
34.000,12.35
34.015,14.34
34.031,16.75
34.046,19.03
34.062,20.55
34.078,20.8
34.093,19.66
34.109,17.45
34.125,14.69
34.140,12.03
34.156,9.9
34.171,8.51
34.187,7.84
34.203,7.83
34.218,8.31
34.234,9.07
34.250,9.84
34.265,10.23
34.281,9.91
34.296,8.61
34.312,6.17
34.328,2.63
34.343,-1.7
34.359,-6.31
34.375,-10.58
34.390,-13.97
34.406,-16.2
34.421,-17.34
34.437,-17.74
34.453,-17.79
34.468,-17.81
34.484,-17.82
34.500,-17.78
34.515,-17.58
34.531,-17.27
34.546,-17.0
34.562,-16.95
34.578,-17.16
34.593,-17.48
34.609,-17.59
34.625,-17.17
34.640,-16.08
34.656,-14.3
34.671,-12.0
34.687,-9.52
34.703,-7.31
34.718,-5.78
34.734,-5.24
34.750,-5.65
34.765,-6.69
34.781,-7.88
34.796,-8.72
34.812,-8.77
34.828,-7.87
34.843,-6.13
34.859,-3.72
34.875,-0.98
34.890,1.9
34.906,4.82
34.921,7.71
34.937,10.65
34.953,13.74
34.968,17.02
34.984,20.39
35.000,23.49
35.015,25.76
35.031,26.65
35.046,25.88
35.062,23.53
35.078,20.09
35.093,16.26
35.109,12.69
35.125,9.76
35.140,7.47
35.156,5.47
35.171,3.47
35.187,1.45
35.203,-0.29
35.218,-1.24
35.234,-0.98
35.250,0.55
35.265,2.99
35.281,5.84
35.296,8.53
35.312,10.74
35.328,12.26
35.343,12.95
35.359,12.73
35.375,11.48
35.390,9.33
35.406,6.62
35.421,3.81
35.437,1.3
35.453,-0.84
35.468,-2.86
35.484,-5.17
35.500,-7.95
35.515,-11.11
35.531,-14.2
35.546,-16.58
35.562,-17.8
35.578,-17.67
35.593,-16.37
35.609,-14.45
35.625,-12.66
35.640,-11.57
35.656,-11.62
35.671,-12.83
35.687,-14.9
35.703,-17.24
35.718,-19.14
35.734,-19.96
35.750,-19.19
35.765,-16.77
35.781,-12.92
35.796,-8.28
35.812,-3.53
35.828,0.57
35.843,3.58
35.859,5.38
35.875,6.14
35.890,6.24
35.906,6.06
35.921,5.86
35.937,5.82
35.953,6.07
35.968,6.67
35.984,7.44
36.000,8.13
36.015,8.45
36.031,8.25
36.046,7.7
36.062,7.19
36.078,7.17
36.093,7.9
36.109,9.34
36.125,11.01
36.140,12.35
36.156,12.97
36.171,12.82
36.187,12.18
36.203,11.44
36.218,10.76
36.234,10.02
36.250,8.98
36.265,7.43
36.281,5.5
36.296,3.59
36.312,2.25
36.328,1.75
36.343,2.01
36.359,2.55
36.375,2.78
36.390,2.42
36.406,1.5
36.421,0.3
36.437,-0.79
36.453,-1.59
36.468,-2.11
36.484,-2.41
36.500,-2.59
36.515,-2.64
36.531,-2.57
36.546,-2.42
36.562,-2.31
36.578,-2.31
36.593,-2.5
36.609,-2.9
36.625,-3.58
36.640,-4.71
36.656,-6.44
36.671,-8.91
36.687,-12.12
36.703,-15.87
36.718,-19.7
36.734,-23.04
36.750,-25.21
36.765,-25.7
36.781,-24.31
36.796,-21.34
36.812,-17.4
36.828,-13.2
36.843,-9.21
36.859,-5.51
36.875,-1.99
36.890,1.51
36.906,4.9
36.921,7.83
36.937,9.98
36.953,11.36
36.968,12.3
36.984,13.28
37.000,14.56
37.015,15.94
37.031,16.93
37.046,16.94
37.062,15.8
37.078,13.74
37.093,11.29
37.109,9.02
37.125,7.27
37.140,5.99
37.156,4.99
37.171,4.14
37.187,3.45
37.203,3.09
37.218,3.24
37.234,3.86
37.250,4.69
37.265,5.35
37.281,5.5
37.296,4.97
37.312,3.96
37.328,2.81
37.343,1.89
37.359,1.44
37.375,1.34
37.390,1.31
37.406,1.03
37.421,0.36
37.437,-0.63
37.453,-1.66
37.468,-2.55
37.484,-3.19
37.500,-3.65
37.515,-4.16
37.531,-4.86
37.546,-5.85
37.562,-7.06
37.578,-8.31
37.593,-9.36
37.609,-10.07
37.625,-10.42
37.640,-10.57
37.656,-10.94
37.671,-11.86
37.687,-13.6
37.703,-16.17
37.718,-19.36
37.734,-22.77
37.750,-26.02
37.765,-28.72
37.781,-30.58
37.796,-31.31
37.812,-30.63
37.828,-28.37
37.843,-24.56
37.859,-19.51
37.875,-13.71
37.890,-7.85
37.906,-2.62
37.921,1.42
37.937,3.99
37.953,5.26
37.968,5.75
37.984,6.14
38.000,7.09
38.015,8.94
38.031,11.61
38.046,14.72
38.062,17.73
38.078,20.25
38.093,22.12
38.109,23.35
38.125,23.95
38.140,23.88
38.156,22.97
38.171,21.17
38.187,18.61
38.203,15.66
38.218,12.76
38.234,10.32
38.250,8.48
38.265,7.16
38.281,6.2
38.296,5.5
38.312,4.97
38.328,4.65
38.343,4.6
38.359,4.8
38.375,5.23
38.390,5.74
38.406,6.15
38.421,6.28
38.437,5.99
38.453,5.26
38.468,4.26
38.484,3.26
38.500,2.49
38.515,2.08
38.531,1.95
38.546,1.87
38.562,1.62
38.578,0.96
38.593,-0.21
38.609,-1.8
38.625,-3.65
38.640,-5.55
38.656,-7.42
38.671,-9.24
38.687,-11.03
38.703,-12.7
38.718,-14.06
38.734,-14.91
38.750,-15.07
38.765,-14.66
38.781,-14.09
38.796,-13.82
38.812,-14.17
38.828,-15.1
38.843,-16.16
38.859,-16.68
38.875,-16.08
38.890,-14.11
38.906,-10.98
38.921,-7.27
38.937,-3.56
38.953,-0.42
38.968,1.8
38.984,3.02
39.000,3.36
39.015,3.1
39.031,2.68
39.046,2.54
39.062,3.1
39.078,4.74
39.093,7.51
39.109,11.12
39.125,14.94
39.140,18.2
39.156,20.24
39.171,20.73
39.187,19.79
39.203,17.86
39.218,15.54
39.234,13.27
39.250,11.25
39.265,9.62
39.281,8.39
39.296,7.57
39.312,7.22
39.328,7.25
39.343,7.55
39.359,7.9
39.375,8.19
39.390,8.41
39.406,8.66
39.421,9.03
39.437,9.53
39.453,10.09
39.468,10.62
39.484,10.98
39.500,11.03
39.515,10.54
39.531,9.36
39.546,7.38
39.562,4.64
39.578,1.43
39.593,-1.76
39.609,-4.41
39.625,-6.19
39.640,-7.01
39.656,-7.1
39.671,-6.87
39.687,-6.79
39.703,-7.11
39.718,-7.84
39.734,-8.75
39.750,-9.58
39.765,-10.18
39.781,-10.59
39.796,-11.09
39.812,-11.98
39.828,-13.5
39.843,-15.6
39.859,-17.95
39.875,-20.02
39.890,-21.26
39.906,-21.18
39.921,-19.57
39.937,-16.57
39.953,-12.73
39.968,-8.94
39.984,-6.28
40.000,-5.57
40.015,-7.07
40.031,-10.18
40.046,-13.54
40.062,-15.64
40.078,-15.31
40.093,-12.14
40.109,-6.59
40.125,0.38
40.140,7.64
40.156,14.22
40.171,19.46
40.187,22.91
40.203,24.34
40.218,23.64
40.234,21.02
40.250,17.02
40.265,12.43
40.281,8.07
40.296,4.57
40.312,2.26
40.328,1.09
40.343,0.8
40.359,1.07
40.375,1.63
40.390,2.25
40.406,2.86
40.421,3.42
40.437,3.91
40.453,4.29
40.468,4.49
40.484,4.3
40.500,3.54
40.515,2.13
40.531,0.13
40.546,-2.11
40.562,-4.13
40.578,-5.51
40.593,-6.12
40.609,-6.05
40.625,-5.7
40.640,-5.49
40.656,-5.73
40.671,-6.55
40.687,-7.84
40.703,-9.3
40.718,-10.72
40.734,-11.89
40.750,-12.65
40.765,-12.91
40.781,-12.51
40.796,-11.5
40.812,-10.0
40.828,-8.34
40.843,-6.96
40.859,-6.35
40.875,-6.74
40.890,-8.04
40.906,-9.78
40.921,-11.3
40.937,-11.96
40.953,-11.4
40.968,-9.55
40.984,-6.73
41.000,-3.49
41.015,-0.33
41.031,2.26
41.046,4.13
41.062,5.34
41.078,6.21
41.093,7.03
41.109,8.06
41.125,9.33
41.140,10.68
41.156,11.86
41.171,12.56
41.187,12.56
41.203,11.86
41.218,10.58
41.234,8.91
41.250,7.16
41.265,5.54
41.281,4.25
41.296,3.36
41.312,2.77
41.328,2.27
41.343,1.61
41.359,0.67
41.375,-0.49
41.390,-1.4
41.406,-1.51
41.421,-0.42
41.437,1.88
41.453,4.8
41.468,7.55
41.484,9.31
41.500,9.69
41.515,8.89
41.531,7.45
41.546,6.0
41.562,4.85
41.578,4.06
41.593,3.44
41.609,2.86
41.625,2.32
41.640,1.86
41.656,1.5
41.671,1.11
41.687,0.44
41.703,-0.64
41.718,-2.0
41.734,-3.35
41.750,-4.28
41.765,-4.54
41.781,-4.23
41.796,-3.82
41.812,-3.96
41.828,-5.16
41.843,-7.44
41.859,-10.28
41.875,-12.89
41.890,-14.49
41.906,-14.71
41.921,-13.78
41.937,-12.4
41.953,-11.47
41.968,-11.62
41.984,-13.05
42.000,-15.33
42.015,-17.76
42.031,-19.52
42.046,-20.01
42.062,-19.01
42.078,-16.68
42.093,-13.42
42.109,-9.63
42.125,-5.59
42.140,-1.41
42.156,2.88
42.171,7.17
42.187,11.17
42.203,14.5
42.218,16.84
42.234,18.04
42.250,18.23
42.265,17.7
42.281,16.76
42.296,15.6
42.312,14.31
42.328,12.88
42.343,11.4
42.359,10.08
42.375,9.14
42.390,8.74
42.406,8.87
42.421,9.42
42.437,10.22
42.453,11.2
42.468,12.33
42.484,13.67
42.500,15.22
42.515,16.87
42.531,18.38
42.546,19.37
42.562,19.59
42.578,18.95
42.593,17.59
42.609,15.78
42.625,13.97
42.640,12.43
42.656,11.28
42.671,10.51
42.687,9.8
42.703,8.87
42.718,7.58
42.734,5.93
42.750,4.07
42.765,2.18
42.781,0.41
42.796,-1.28
42.812,-2.89
42.828,-4.53
42.843,-6.16
42.859,-7.58
42.875,-8.61
42.890,-9.02
42.906,-8.85
42.921,-8.42
42.937,-8.23
42.953,-8.73
42.968,-10.17
42.984,-12.45
43.000,-15.13
43.015,-17.76
43.031,-19.9
43.046,-21.19
43.062,-21.32
43.078,-19.94
43.093,-16.8
43.109,-12.09
43.125,-6.37
43.140,-0.66
43.156,3.91
43.171,6.62
43.187,7.41
43.203,6.78
43.218,5.63
43.234,4.76
43.250,4.64
43.265,5.39
43.281,6.82
43.296,8.54
43.312,10.12
43.328,11.1
43.343,11.06
43.359,9.85
43.375,7.67
43.390,4.99
43.406,2.42
43.421,0.41
43.437,-0.8
43.453,-1.26
43.468,-1.12
43.484,-0.56
43.500,0.3
43.515,1.46
43.531,2.78
43.546,4.02
43.562,4.86
43.578,5.07
43.593,4.53
43.609,3.41
43.625,1.98
43.640,0.53
43.656,-0.72
43.671,-1.71
43.687,-2.43
43.703,-2.88
43.718,-3.01
43.734,-2.83
43.750,-2.38
43.765,-1.79
43.781,-1.27
43.796,-0.98
43.812,-1.13
43.828,-1.84
43.843,-3.19
43.859,-5.15
43.875,-7.6
43.890,-10.18
43.906,-12.57
43.921,-14.56
43.937,-16.1
43.953,-17.37
43.968,-18.53
43.984,-19.72
44.000,-20.96
44.015,-22.22
44.031,-23.4
44.046,-24.39
44.062,-24.98
44.078,-24.81
44.093,-23.49
44.109,-20.72
44.125,-16.57
44.140,-11.53
44.156,-6.24
44.171,-1.33
44.187,2.81
44.203,6.12
44.218,8.65
44.234,10.35
44.250,11.24
44.265,11.4
44.281,11.0
44.296,10.43
44.312,10.06
44.328,10.03
44.343,10.28
44.359,10.57
44.375,10.6
44.390,10.31
44.406,9.77
44.421,9.12
44.437,8.45
44.453,7.77
44.468,7.09
44.484,6.52
44.500,6.32
44.515,6.66
44.531,7.67
44.546,9.31
44.562,11.38
44.578,13.67
44.593,15.85
44.609,17.56
44.625,18.43
44.640,18.07
44.656,16.34
44.671,13.34
44.687,9.46
44.703,5.37
44.718,1.84
44.734,-0.69
44.750,-2.09
44.765,-2.45
44.781,-2.19
44.796,-1.78
44.812,-1.64
44.828,-2.13
44.843,-3.39
44.859,-5.31
44.875,-7.68
44.890,-10.18
44.906,-12.38
44.921,-13.93
44.937,-14.47
44.953,-13.76
44.968,-11.75
44.984,-8.78
45.000,-5.42
45.015,-2.54
45.031,-0.98
45.046,-1.33
45.062,-3.87
45.078,-8.42
45.093,-14.5
45.109,-21.41
45.125,-28.28
45.140,-34.07
45.156,-37.72
45.171,-38.41
45.187,-35.84
45.203,-30.57
45.218,-23.63
45.234,-16.35
45.250,-9.81
45.265,-4.5
45.281,-0.35
45.296,3.03
45.312,6.09
45.328,9.07
45.343,11.98
45.359,14.63
45.375,16.91
45.390,18.72
45.406,20.12
45.421,21.17
45.437,21.9
45.453,22.27
45.468,22.27
45.484,21.79
45.500,20.77
45.515,19.18
45.531,17.0
45.546,14.37
45.562,11.55
45.578,8.87
45.593,6.66
45.609,5.21
45.625,4.55
45.640,4.58
45.656,5.1
45.671,5.8
45.687,6.5
45.703,7.05
45.718,7.36
45.734,7.38
45.750,7.14
45.765,6.68
45.781,6.05
45.796,5.4
45.812,4.66
45.828,3.8
45.843,2.71
45.859,1.27
45.875,-0.46
45.890,-2.3
45.906,-4.06
45.921,-5.55
45.937,-6.73
45.953,-7.69
45.968,-8.5
45.984,-9.26
46.000,-9.94
46.015,-10.42
46.031,-10.48
46.046,-10.09
46.062,-9.35
46.078,-8.44
46.093,-7.67
46.109,-7.27
46.125,-7.53
46.140,-8.72
46.156,-11.07
46.171,-14.57
46.187,-18.88
46.203,-23.24
46.218,-26.5
46.234,-27.56
46.250,-25.66
46.265,-20.87
46.281,-13.98
46.296,-6.22
46.312,1.05
46.328,6.81
46.343,10.54
46.359,12.22
46.375,12.23
46.390,11.29
46.406,10.17
46.421,9.54
46.437,9.75
46.453,10.74
46.468,12.15
46.484,13.49
46.500,14.43
46.515,14.96
46.531,15.41
46.546,16.11
46.562,17.33
46.578,19.01
46.593,20.83
46.609,22.42
46.625,23.33
46.640,23.33
46.656,22.32
46.671,20.35
46.687,17.6
46.703,14.28
46.718,10.62
46.734,6.78
46.750,3.05
46.765,-0.32
46.781,-2.93
46.796,-4.33
46.812,-4.15
46.828,-2.37
46.843,0.65
46.859,4.11
46.875,7.12
46.890,9.05
46.906,9.69
46.921,9.31
46.937,8.33
46.953,7.03
46.968,5.38
46.984,3.08
47.000,-0.24
47.015,-4.75
47.031,-10.14
47.046,-15.85
47.062,-20.94
47.078,-24.65
47.093,-26.47
47.109,-26.36
47.125,-24.8
47.140,-22.56
47.156,-20.63
47.171,-19.89
47.187,-20.87
47.203,-23.6
47.218,-27.44
47.234,-31.26
47.250,-33.58
47.265,-33.2
47.281,-29.71
47.296,-23.58
47.312,-16.07
47.328,-8.63
47.343,-2.4
47.359,2.18
47.375,5.28
47.390,7.4
47.406,9.04
47.421,10.5
47.437,11.96
47.453,13.54
47.468,15.2
47.484,16.75
47.500,17.85
47.515,18.14
47.531,17.58
47.546,16.42
47.562,15.16
47.578,14.24
47.593,13.72
47.609,13.27
47.625,12.41
47.640,10.89
47.656,8.69
47.671,6.1
47.687,3.42
47.703,0.92
47.718,-1.16
47.734,-2.67
47.750,-3.54
47.765,-3.74
47.781,-3.32
47.796,-2.38
47.812,-0.98
47.828,0.87
47.843,3.27
47.859,6.31
47.875,9.86
47.890,13.55
47.906,16.9
47.921,19.33
47.937,20.41
47.953,19.95
47.968,17.85
47.984,14.09
48.000,8.61
48.015,1.46
48.031,-7.01
48.046,-16.07
48.062,-24.69
48.078,-31.74
48.093,-36.34
48.109,-38.36
48.125,-38.38
48.140,-37.54
48.156,-37.02
48.171,-37.38
48.187,-38.32
48.203,-39.06
48.218,-38.54
48.234,-36.14
48.250,-31.91
48.265,-26.47
48.281,-20.54
48.296,-14.76
48.312,-9.38
48.328,-4.47
48.343,-0.03
48.359,3.87
48.375,7.19
48.390,9.94
48.406,12.38
48.421,14.91
48.437,17.83
48.453,21.16
48.468,24.49
48.484,27.01
48.500,27.68
48.515,25.69
48.531,20.73
48.546,13.35
48.562,4.94
48.578,-2.66
48.593,-7.55
48.609,-8.6
48.625,-5.68
48.640,0.15
48.656,7.16
48.671,13.47
48.687,17.71
48.703,19.3
48.718,18.58
48.734,16.53
48.750,14.25
48.765,12.47
48.781,11.12
48.796,9.6
48.812,7.16
48.828,3.57
48.843,-0.75
48.859,-4.76
48.875,-7.28
48.890,-7.68
48.906,-6.1
48.921,-3.29
48.937,-0.11
48.953,2.81
48.968,5.26
48.984,7.25
49.000,8.67
49.015,9.22
49.031,8.47
49.046,6.23
49.062,2.86
49.078,-0.83
49.093,-3.95
49.109,-5.87
49.125,-6.56
49.140,-6.58
49.156,-6.82
49.171,-8.15
49.187,-10.94
49.203,-15.14
49.218,-20.32
49.234,-25.95
49.250,-31.53
49.265,-36.5
49.281,-40.33
49.296,-42.34
49.312,-41.94
49.328,-38.76
49.343,-33.04
49.359,-25.65
49.375,-17.74
49.390,-10.49
49.406,-4.57
49.421,-0.12
49.437,3.28
49.453,6.13
49.468,8.85
49.484,11.59
49.500,14.36
49.515,17.18
49.531,20.07
49.546,23.0
49.562,25.81
49.578,28.21
49.593,29.81
49.609,30.32
49.625,29.65
49.640,28.02
49.656,25.79
49.671,23.37
49.687,21.18
49.703,19.45
49.718,18.35
49.734,17.89
49.750,17.93
49.765,18.27
49.781,18.62
49.796,18.68
49.812,18.26
49.828,17.32
49.843,15.91
49.859,14.28
49.875,12.75
49.890,11.57
49.906,10.97
49.921,10.95
49.937,11.36
49.953,11.96
49.968,12.4
49.984,12.25
50.000,11.25
50.015,9.35
50.031,6.75
50.046,3.88
50.062,1.38
50.078,-0.15
50.093,-0.35
50.109,0.77
50.125,2.54
50.140,4.06
50.156,4.4
50.171,3.09
50.187,0.31
50.203,-3.24
50.218,-6.63
50.234,-9.1
50.250,-10.32
50.265,-10.52
50.281,-10.3
50.296,-10.49
50.312,-11.87
50.328,-14.86
50.343,-19.38
50.359,-24.71
50.375,-29.54
50.390,-32.48
50.406,-32.63
50.421,-29.91
50.437,-25.07
50.453,-19.27
50.468,-13.48
50.484,-8.26
50.500,-3.74
50.515,0.2
50.531,3.62
50.546,6.5
50.562,8.84
50.578,10.75
50.593,12.43
50.609,14.09
50.625,15.7
50.640,16.92
50.656,17.32
50.671,16.57
50.687,14.6
50.703,11.56
50.718,7.75
50.734,3.46
50.750,-0.86
50.765,-4.61
50.781,-7.2
50.796,-8.12
50.812,-7.16
50.828,-4.58
50.843,-1.01
50.859,2.7
50.875,5.79
50.890,7.77
50.906,8.56
50.921,8.39
50.937,7.62
50.953,6.63
50.968,5.63
50.984,4.71
51.000,3.8
51.015,2.76
51.031,1.52
51.046,0.1
51.062,-1.38
51.078,-2.77
51.093,-4.16
51.109,-5.95
51.125,-8.64
51.140,-12.52
51.156,-17.53
51.171,-22.96
51.187,-27.79
51.203,-31.0
51.218,-31.87
51.234,-30.32
51.250,-26.88
51.265,-22.55
51.281,-18.47
51.296,-15.69
51.312,-14.83
51.328,-15.92
51.343,-18.37
51.359,-21.06
51.375,-22.67
51.390,-22.18
51.406,-19.23
51.421,-14.21
51.437,-8.04
51.453,-1.78
51.468,3.71
51.484,7.95
51.500,10.88
51.515,12.68
51.531,13.69
51.546,14.3
51.562,14.85
51.578,15.57
51.593,16.68
51.609,18.16
51.625,19.72
51.640,21.02
51.656,21.61
51.671,21.27
51.687,20.13
51.703,18.6
51.718,17.23
51.734,16.5
51.750,16.66
51.765,17.57
51.781,18.83
51.796,19.88
51.812,20.28
51.828,19.82
51.843,18.56
51.859,16.83
51.875,14.95
51.890,13.21
51.906,11.71
51.921,10.39
51.937,9.15
51.953,7.99
51.968,6.94
51.984,6.14
52.000,5.68
52.015,5.58
52.031,5.67
52.046,5.78
52.062,5.71
52.078,5.4
52.093,4.93
52.109,4.5
52.125,4.17
52.140,3.94
52.156,3.66
52.171,3.19
52.187,2.26
52.203,0.73
52.218,-1.51
52.234,-4.48
52.250,-7.94
52.265,-11.62
52.281,-15.15
52.296,-18.24
52.312,-20.79
52.328,-22.88
52.343,-24.78
52.359,-26.67
52.375,-28.61
52.390,-30.42
52.406,-31.85
52.421,-32.64
52.437,-32.69
52.453,-31.99
52.468,-30.47
52.484,-28.08
52.500,-24.75
52.515,-20.39
52.531,-15.07
52.546,-9.06
52.562,-2.86
52.578,2.77
52.593,6.98
52.609,9.32
52.625,9.9
52.640,9.37
52.656,8.81
52.671,9.2
52.687,10.87
52.703,13.53
52.718,16.39
52.734,18.59
52.750,19.69
52.765,19.73
52.781,18.93
52.796,17.7
52.812,16.26
52.828,14.83
52.843,13.66
52.859,13.08
52.875,13.39
52.890,14.73
52.906,16.92
52.921,19.48
52.937,21.85
52.953,23.41
52.968,23.7
52.984,22.51
53.000,19.86
53.015,16.22
53.031,12.22
53.046,8.62
53.062,6.0
53.078,4.74
53.093,4.75
53.109,5.76
53.125,7.31
53.140,8.84
53.156,9.92
53.171,10.28
53.187,9.86
53.203,8.65
53.218,6.78
53.234,4.37
53.250,1.55
53.265,-1.47
53.281,-4.45
53.296,-7.03
53.312,-8.87
53.328,-9.84
53.343,-10.12
53.359,-10.18
53.375,-10.51
53.390,-11.31
53.406,-12.36
53.421,-13.29
53.437,-13.86
53.453,-14.31
53.468,-15.36
53.484,-17.73
53.500,-21.65
53.515,-26.59
53.531,-31.26
53.546,-34.22
53.562,-34.43
53.578,-31.75
53.593,-26.93
53.609,-21.21
53.625,-15.87
53.640,-11.69
53.656,-8.97
53.671,-7.56
53.687,-6.96
53.703,-6.62
53.718,-6.02
53.734,-4.69
53.750,-2.34
53.765,1.16
53.781,5.76
53.796,11.1
53.812,16.55
53.828,21.29
53.843,24.52
53.859,25.81
53.875,25.11
53.890,22.93
53.906,20.02
53.921,17.25
53.937,15.14
53.953,13.95
53.968,13.53
53.984,13.63
54.000,13.95
54.015,14.26
54.031,14.35
54.046,14.0
54.062,13.17
54.078,11.9
54.093,10.51
54.109,9.48
54.125,9.28
54.140,10.12
54.156,11.8
54.171,13.75
54.187,15.31
54.203,16.06
54.218,15.96
54.234,15.27
54.250,14.28
54.265,13.06
54.281,11.34
54.296,8.75
54.312,5.14
54.328,0.78
54.343,-3.69
54.359,-7.46
54.375,-9.97
54.390,-11.04
54.406,-11.03
54.421,-10.77
54.437,-11.33
54.453,-13.64
54.468,-18.23
54.484,-24.89
54.500,-32.63
54.515,-39.97
54.531,-45.39
54.546,-47.88
54.562,-47.14
54.578,-43.58
54.593,-38.01
54.609,-31.47
54.625,-24.97
54.640,-19.41
54.656,-15.51
54.671,-13.45
54.687,-12.69
54.703,-12.04
54.718,-10.06
54.734,-5.81
54.750,0.65
54.765,8.15
54.781,15.05
54.796,19.87
54.812,22.03
54.828,21.94
54.843,20.56
54.859,18.84
54.875,17.14
54.890,15.22
54.906,12.7
54.921,9.47
54.937,5.94
54.953,3.08
54.968,1.93
54.984,3.16
55.000,6.79
55.015,12.12
55.031,17.98
55.046,23.05
55.062,26.46
55.078,27.84
55.093,27.48
55.109,25.94
55.125,23.75
55.140,21.26
55.156,18.64
55.171,16.01
55.187,13.51
55.203,11.35
55.218,9.52
55.234,7.56
55.250,4.81
55.265,0.33
55.281,-6.12
55.296,-14.03
55.312,-22.2
55.328,-29.15
55.343,-33.82
55.359,-35.87
55.375,-35.75
55.390,-34.35
55.406,-32.65
55.421,-31.35
55.437,-30.83
55.453,-31.08
55.468,-31.98
55.484,-33.23
55.500,-34.52
55.515,-35.69
55.531,-36.77
55.546,-37.94
55.562,-39.21
55.578,-40.21
55.593,-40.26
55.609,-38.7
55.625,-35.17
55.640,-30.08
55.656,-24.22
55.671,-18.33
55.687,-12.8
55.703,-7.43
55.718,-1.74
55.734,4.41
55.750,10.84
55.765,16.81
55.781,21.64
55.796,25.04
55.812,27.14
55.828,28.36
55.843,28.97
55.859,29.06
55.875,28.55
55.890,27.5
55.906,26.2
55.921,24.95
55.937,23.98
55.953,23.28
55.968,22.65
55.984,21.86
56.000,21.01
56.015,20.42
56.031,20.4
56.046,21.09
56.062,22.25
56.078,23.45
56.093,24.41
56.109,25.09
56.125,25.69
56.140,26.46
56.156,27.43
56.171,28.33
56.187,28.73
56.203,28.25
56.218,26.77
56.234,24.47
56.250,21.66
56.265,18.6
56.281,15.4
56.296,11.96
56.312,8.18
56.328,4.07
56.343,-0.32
56.359,-4.85
56.375,-9.36
56.390,-13.73
56.406,-17.77
56.421,-21.28
56.437,-23.99
56.453,-25.66
56.468,-26.17
56.484,-25.84
56.500,-25.36
56.515,-25.63
56.531,-27.48
56.546,-31.15
56.562,-36.24
56.578,-41.94
56.593,-47.26
56.609,-51.29
56.625,-53.37
56.640,-53.01
56.656,-49.89
56.671,-44.06
56.687,-35.98
56.703,-26.62
56.718,-17.25
56.734,-8.98
56.750,-2.4
56.765,2.4
56.781,5.78
56.796,8.17
56.812,9.84
56.828,11.07
56.843,12.28
56.859,13.97
56.875,16.54
56.890,20.01
56.906,23.85
56.921,27.16
56.937,29.24
56.953,29.78
56.968,29.05
56.984,27.72
57.000,26.4
57.015,25.53
57.031,25.18
57.046,25.29
57.062,25.61
57.078,25.88
57.093,25.82
57.109,25.14
57.125,23.68
57.140,21.32
57.156,18.27
57.171,14.86
57.187,11.56
57.203,8.78
57.218,6.81
57.234,5.71
57.250,5.46
57.265,5.85
57.281,6.58
57.296,7.42
57.312,8.14
57.328,8.74
57.343,9.4
57.359,10.3
57.375,11.47
57.390,12.6
57.406,13.17
57.421,12.66
57.437,10.85
57.453,7.84
57.468,3.91
57.484,-0.43
57.500,-4.74
57.515,-8.64
57.531,-11.87
57.546,-14.17
57.562,-15.36
57.578,-15.33
57.593,-14.25
57.609,-12.51
57.625,-10.64
57.640,-9.23
57.656,-8.8
57.671,-9.58
57.687,-11.41
57.703,-13.57
57.718,-15.14
57.734,-15.17
57.750,-13.14
57.765,-9.19
57.781,-3.98
57.796,1.47
57.812,6.13
57.828,9.36
57.843,11.05
57.859,11.5
57.875,11.49
57.890,11.98
57.906,13.7
57.921,17.03
57.937,21.71
57.953,26.93
57.968,31.63
57.984,34.7
58.000,35.25
58.015,32.94
58.031,27.88
58.046,20.77
58.062,12.65
58.078,4.81
58.093,-1.58
58.109,-5.67
58.125,-7.23
58.140,-6.68
58.156,-4.84
58.171,-2.65
58.187,-0.91
58.203,-0.01
58.218,-0.09
58.234,-1.01
58.250,-2.41
58.265,-3.9
58.281,-4.93
58.296,-5.01
58.312,-4.07
58.328,-2.4
58.343,-0.56
58.359,0.66
58.375,0.54
58.390,-1.32
58.406,-5.1
58.421,-10.6
58.437,-17.23
58.453,-24.23
58.468,-30.54
58.484,-35.12
58.500,-37.31
58.515,-37.12
58.531,-35.47
58.546,-33.78
58.562,-33.3
58.578,-34.47
58.593,-36.85
58.609,-39.41
58.625,-41.15
58.640,-41.81
58.656,-42.0
58.671,-42.77
58.687,-45.0
58.703,-48.69
58.718,-52.94
58.734,-56.33
58.750,-57.29
58.765,-54.81
58.781,-48.5
58.796,-38.64
58.812,-26.15
58.828,-12.5
58.843,0.42
58.859,10.8
58.875,17.14
58.890,18.96
58.906,16.9
58.921,12.62
58.937,8.42
58.953,6.35
58.968,7.66
58.984,12.31
59.000,19.18
59.015,26.7
59.031,33.35
59.046,38.15
59.062,40.63
59.078,40.75
59.093,38.59
59.109,34.29
59.125,28.21
59.140,21.23
59.156,14.76
59.171,10.53
59.187,9.92
59.203,13.43
59.218,20.45
59.234,29.36
59.250,38.24
59.265,45.34
59.281,49.6
59.296,50.61
59.312,48.59
59.328,44.26
59.343,38.61
59.359,33.01
59.375,28.69
59.390,26.33
59.406,25.84
59.421,26.22
59.437,26.09
59.453,24.23
59.468,20.16
59.484,14.16
59.500,6.91
59.515,-0.77
59.531,-8.4
59.546,-15.52
59.562,-21.67
59.578,-26.43
59.593,-29.5
59.609,-31.12
59.625,-32.02
59.640,-33.17
59.656,-35.1
59.671,-37.49
59.687,-39.37
59.703,-39.67
59.718,-37.99
59.734,-34.91
59.750,-31.75
59.765,-30.0
59.781,-30.64
59.796,-33.85
59.812,-38.95
59.828,-44.78
59.843,-50.18
59.859,-53.99
59.875,-55.32
59.890,-53.6
59.906,-48.75
59.921,-41.21
59.937,-31.83
59.953,-21.99
59.968,-12.94
59.984,-5.66
