timestamp,value
00.000,5.74
00.015,-3.92
00.031,-11.31
00.046,-16.94
00.062,-21.53
00.078,-25.79
00.093,-30.28
00.109,-35.25
00.125,-40.54
00.140,-45.69
00.156,-49.94
00.171,-52.5
00.187,-52.65
00.203,-49.96
00.218,-44.29
00.234,-35.84
00.250,-25.11
00.265,-12.93
00.281,-0.42
00.296,11.03
00.312,19.89
00.328,24.71
00.343,24.41
00.359,18.65
00.375,8.07
00.390,-5.82
00.406,-20.94
00.421,-35.0
00.437,-46.16
00.453,-53.32
00.468,-56.34
00.484,-56.0
00.500,-53.68
00.515,-51.03
00.531,-49.64
00.546,-50.53
00.562,-54.03
00.578,-59.74
00.593,-66.82
00.609,-74.43
00.625,-82.01
00.640,-89.47
00.656,-96.89
00.671,-104.23
00.687,-110.98
00.703,-116.3
00.718,-119.43
00.734,-120.04
00.750,-118.54
00.765,-115.8
00.781,-112.9
00.796,-110.63
00.812,-109.13
00.828,-107.98
00.843,-106.27
00.859,-103.17
00.875,-97.98
00.890,-90.43
00.906,-80.75
00.921,-69.47
00.937,-57.3
00.953,-44.89
00.968,-32.6
00.984,-20.51
01.000,-8.7
01.015,2.81
01.031,13.84
01.046,24.24
01.062,34.08
01.078,43.73
01.093,53.78
01.109,64.76
01.125,76.87
01.140,89.66
01.156,102.25
01.171,113.37
01.187,121.83
01.203,126.76
01.218,127.71
01.234,124.81
01.250,118.47
01.265,109.41
01.281,98.45
01.296,86.52
01.312,74.44
01.328,62.91
01.343,52.44
01.359,43.12
01.375,34.76
01.390,26.92
01.406,19.16
01.421,11.14
01.437,2.9
01.453,-5.3
01.468,-13.21
01.484,-20.56
01.500,-27.31
01.515,-33.5
01.531,-39.1
01.546,-43.8
01.562,-46.99
01.578,-47.93
01.593,-45.95
01.609,-40.89
01.625,-33.07
01.640,-23.4
01.656,-12.94
01.671,-2.71
01.687,6.78
01.703,15.31
01.718,22.93
01.734,29.58
01.750,35.05
01.765,39.03
01.781,41.29
01.796,41.99
01.812,41.61
01.828,40.8
01.843,40.03
01.859,39.45
01.875,38.78
01.890,37.61
01.906,35.73
01.921,33.25
01.937,30.56
01.953,28.3
01.968,26.98
01.984,26.79
02.000,27.56
02.015,28.73
02.031,29.57
02.046,29.48
02.062,28.09
02.078,25.45
02.093,21.87
02.109,17.74
02.125,13.41
02.140,9.03
02.156,4.59
02.171,0.15
02.187,-4.12
02.203,-8.05
02.218,-11.34
02.234,-13.89
02.250,-15.61
02.265,-16.42
02.281,-16.13
02.296,-14.46
02.312,-11.17
02.328,-6.17
02.343,0.2
02.359,7.45
02.375,14.85
02.390,21.72
02.406,27.61
02.421,32.32
02.437,35.79
02.453,38.02
02.468,38.98
02.484,38.6
02.500,36.92
02.515,34.11
02.531,30.54
02.546,26.79
02.562,23.53
02.578,21.26
02.593,20.22
02.609,20.31
02.625,21.11
02.640,22.18
02.656,23.17
02.671,23.98
02.687,24.84
02.703,26.06
02.718,27.82
02.734,30.1
02.750,32.57
02.765,34.78
02.781,36.32
02.796,37.03
02.812,37.04
02.828,36.67
02.843,36.25
02.859,35.95
02.875,35.68
02.890,35.09
02.906,33.78
02.921,31.48
02.937,28.33
02.953,24.64
02.968,20.81
02.984,16.99
03.000,12.92
03.015,8.09
03.031,1.96
03.046,-5.82
03.062,-15.17
03.078,-25.62
03.093,-36.55
03.109,-47.27
03.125,-57.23
03.140,-65.99
03.156,-73.23
03.171,-78.76
03.187,-82.66
03.203,-85.2
03.218,-86.79
03.234,-87.66
03.250,-87.78
03.265,-86.81
03.281,-84.23
03.296,-79.63
03.312,-72.87
03.328,-64.25
03.343,-54.46
03.359,-44.3
03.375,-34.51
03.390,-25.51
03.406,-17.47
03.421,-10.23
03.437,-3.48
03.453,3.37
03.468,11.01
03.484,20.35
03.500,32.28
03.515,47.28
03.531,65.27
03.546,85.38
03.562,106.17
03.578,126.02
03.593,143.75
03.609,158.69
03.625,170.68
03.640,179.87
03.656,186.28
03.671,190.03
03.687,191.38
03.703,191.0
03.718,189.85
03.734,189.12
03.750,189.74
03.765,192.03
03.781,195.86
03.796,200.68
03.812,206.05
03.828,211.75
03.843,217.77
03.859,223.9
03.875,229.6
03.890,233.89
03.906,235.46
03.921,233.32
03.937,226.89
03.953,216.35
03.968,202.21
03.984,184.9
04.000,164.26
04.015,139.62
04.031,110.2
04.046,75.78
04.062,37.31
04.078,-3.28
04.093,-43.49
04.109,-81.18
04.125,-115.13
04.140,-145.2
04.156,-171.73
04.171,-194.86
04.187,-213.95
04.203,-227.65
04.218,-234.57
04.234,-234.09
04.250,-227.0
04.265,-215.49
04.281,-202.47
04.296,-190.46
04.312,-180.68
04.328,-172.72
04.343,-165.0
04.359,-155.98
04.375,-145.19
04.390,-133.54
04.406,-122.78
04.421,-114.25
04.437,-107.95
04.453,-102.48
04.468,-95.89
04.484,-86.79
04.500,-75.31
04.515,-62.7
04.531,-50.56
04.546,-39.57
04.562,-29.17
04.578,-17.83
04.593,-4.28
04.609,11.6
04.625,28.63
04.640,44.79
04.656,58.3
04.671,68.3
04.687,75.11
04.703,79.65
04.718,82.78
04.734,84.91
04.750,85.71
04.765,84.61
04.781,81.19
04.796,75.64
04.812,68.69
04.828,61.61
04.843,55.52
04.859,51.01
04.875,47.97
04.890,45.6
04.906,42.88
04.921,38.9
04.937,33.38
04.953,26.59
04.968,19.31
04.984,12.22
05.000,5.7
05.015,-0.39
05.031,-6.45
05.046,-12.75
05.062,-19.28
05.078,-25.64
05.093,-31.34
05.109,-35.89
05.125,-39.19
05.140,-41.37
05.156,-42.63
05.171,-43.18
05.187,-42.98
05.203,-41.93
05.218,-40.11
05.234,-37.75
05.250,-35.26
05.265,-33.0
05.281,-31.1
05.296,-29.15
05.312,-26.46
05.328,-22.22
05.343,-15.9
05.359,-7.65
05.375,1.73
05.390,11.05
05.406,19.18
05.421,25.32
05.437,29.39
05.453,31.7
05.468,32.82
05.484,33.1
05.500,32.69
05.515,31.42
05.531,29.2
05.546,26.19
05.562,22.88
05.578,19.98
05.593,17.96
05.609,16.93
05.625,16.43
05.640,15.85
05.656,14.58
05.671,12.42
05.687,9.67
05.703,6.88
05.718,4.58
05.734,2.93
05.750,1.64
05.765,0.15
05.781,-2.0
05.796,-4.91
05.812,-8.35
05.828,-11.75
05.843,-14.62
05.859,-16.78
05.875,-18.42
05.890,-19.99
05.906,-21.92
05.921,-24.33
05.937,-27.02
05.953,-29.64
05.968,-31.76
05.984,-33.27
06.000,-34.23
06.015,-34.89
06.031,-35.31
06.046,-35.15
06.062,-33.72
06.078,-30.23
06.093,-24.29
06.109,-16.05
06.125,-6.54
06.140,2.8
06.156,10.5
06.171,15.65
06.187,18.12
06.203,18.41
06.218,17.34
06.234,15.56
06.250,13.48
06.265,11.16
06.281,8.54
06.296,5.73
06.312,3.0
06.328,0.77
06.343,-0.75
06.359,-1.5
06.375,-1.86
06.390,-2.22
06.406,-2.87
06.421,-3.78
06.437,-4.46
06.453,-4.32
06.468,-2.89
06.484,-0.17
06.500,3.34
06.515,6.67
06.531,8.91
06.546,9.45
06.562,8.35
06.578,6.2
06.593,3.71
06.609,1.46
06.625,-0.38
06.640,-1.98
06.656,-3.75
06.671,-5.97
06.687,-8.66
06.703,-11.54
06.718,-14.27
06.734,-16.65
06.750,-18.76
06.765,-20.71
06.781,-22.63
06.796,-24.35
06.812,-25.44
06.828,-25.35
06.843,-23.76
06.859,-20.63
06.875,-16.53
06.890,-12.34
06.906,-8.87
06.921,-6.74
06.937,-6.05
06.953,-6.59
06.968,-7.98
06.984,-10.0
07.000,-12.58
07.015,-15.83
07.031,-19.74
07.046,-24.13
07.062,-28.47
07.078,-32.1
07.093,-34.52
07.109,-35.6
07.125,-35.7
07.140,-35.38
07.156,-35.18
07.171,-35.24
07.187,-35.35
07.203,-34.99
07.218,-33.69
07.234,-31.37
07.250,-28.47
07.265,-25.78
07.281,-24.0
07.296,-23.45
07.312,-23.89
07.328,-24.65
07.343,-25.07
07.359,-24.69
07.375,-23.57
07.390,-22.16
07.406,-20.99
07.421,-20.36
07.437,-20.21
07.453,-20.16
07.468,-19.68
07.484,-18.42
07.500,-16.24
07.515,-13.28
07.531,-9.76
07.546,-5.79
07.562,-1.31
07.578,3.8
07.593,9.5
07.609,15.52
07.625,21.15
07.640,25.59
07.656,28.12
07.671,28.51
07.687,27.09
07.703,24.6
07.718,21.91
07.734,19.64
07.750,18.1
07.765,17.19
07.781,16.6
07.796,16.08
07.812,15.5
07.828,14.96
07.843,14.59
07.859,14.46
07.875,14.39
07.890,14.08
07.906,13.18
07.921,11.48
07.937,9.12
07.953,6.33
07.968,3.47
07.984,0.78
08.000,-1.75
08.015,-4.34
08.031,-7.18
08.046,-10.34
08.062,-13.63
08.078,-16.54
08.093,-18.66
08.109,-19.77
08.125,-20.07
08.140,-20.12
08.156,-20.54
08.171,-21.63
08.187,-23.21
08.203,-24.73
08.218,-25.38
08.234,-24.7
08.250,-22.7
08.265,-19.98
08.281,-17.4
08.296,-15.56
08.312,-14.55
08.328,-13.95
08.343,-13.13
08.359,-11.66
08.375,-9.76
08.390,-8.11
08.406,-7.62
08.421,-8.98
08.437,-12.18
08.453,-16.55
08.468,-21.18
08.484,-25.26
08.500,-28.46
08.515,-31.15
08.531,-33.95
08.546,-37.36
08.562,-41.48
08.578,-45.77
08.593,-49.35
08.609,-51.33
08.625,-51.04
08.640,-48.1
08.656,-42.45
08.671,-34.02
08.687,-22.82
08.703,-9.0
08.718,7.04
08.734,24.53
08.750,42.46
08.765,59.75
08.781,75.49
08.796,88.84
08.812,99.2
08.828,106.06
08.843,108.98
08.859,107.71
08.875,102.1
08.890,92.39
08.906,79.23
08.921,63.7
08.937,47.19
08.953,31.4
08.968,17.77
08.984,7.24
09.000,-0.05
09.015,-4.76
09.031,-7.89
09.046,-10.38
09.062,-12.71
09.078,-14.92
09.093,-16.88
09.109,-18.7
09.125,-20.94
09.140,-24.31
09.156,-29.36
09.171,-35.97
09.187,-43.42
09.203,-50.69
09.218,-56.96
09.234,-61.93
09.250,-65.92
09.265,-69.39
09.281,-72.56
09.296,-75.13
09.312,-76.27
09.328,-74.97
09.343,-70.58
09.359,-62.9
09.375,-52.48
09.390,-40.38
09.406,-27.7
09.421,-15.28
09.437,-3.35
09.453,8.45
09.468,20.64
09.484,33.48
09.500,46.48
09.515,58.38
09.531,67.6
09.546,72.81
09.562,73.54
09.578,70.22
09.593,63.93
09.609,55.89
09.625,47.08
09.640,38.17
09.656,29.64
09.671,22.15
09.687,16.45
09.703,13.28
09.718,12.98
09.734,15.47
09.750,20.05
09.765,25.74
09.781,31.43
09.796,36.17
09.812,39.26
09.828,40.41
09.843,39.62
09.859,37.05
09.875,33.04
09.890,27.83
09.906,21.82
09.921,15.45
09.937,9.41
09.953,4.4
09.968,1.03
09.984,-0.53
10.000,-0.6
10.015,0.11
10.031,0.75
10.046,0.79
10.062,0.02
10.078,-1.29
10.093,-2.82
10.109,-4.26
10.125,-5.55
10.140,-6.85
10.156,-8.38
10.171,-10.29
10.187,-12.57
10.203,-15.07
10.218,-17.53
10.234,-19.76
10.250,-21.8
10.265,-23.91
10.281,-26.44
10.296,-29.63
10.312,-33.41
10.328,-37.32
10.343,-40.63
10.359,-42.58
10.375,-42.64
10.390,-40.78
10.406,-37.35
10.421,-32.93
10.437,-27.99
10.453,-22.88
10.468,-17.74
10.484,-12.85
10.500,-8.74
10.515,-6.07
10.531,-5.46
10.546,-7.14
10.562,-10.79
10.578,-15.69
10.593,-21.13
10.609,-26.48
10.625,-31.37
10.640,-35.54
10.656,-38.55
10.671,-39.81
10.687,-38.59
10.703,-34.53
10.718,-27.76
10.734,-19.09
10.750,-9.58
10.765,-0.36
10.781,7.77
10.796,14.49
10.812,19.94
10.828,24.64
10.843,29.32
10.859,34.71
10.875,41.19
10.890,48.84
10.906,57.09
10.921,65.11
10.937,71.89
10.953,76.56
10.968,78.49
10.984,77.25
11.000,72.67
11.015,64.8
11.031,54.24
11.046,42.28
11.062,30.85
11.078,22.16
11.093,17.88
11.109,18.65
11.125,23.68
11.140,31.1
11.156,38.61
11.171,44.15
11.187,46.51
11.203,45.31
11.218,40.86
11.234,33.74
11.250,24.55
11.265,13.78
11.281,1.89
11.296,-10.67
11.312,-23.38
11.328,-35.54
11.343,-46.56
11.359,-55.65
11.375,-62.25
11.390,-65.95
11.406,-66.71
11.421,-64.87
11.437,-61.04
11.453,-56.07
11.468,-50.81
11.484,-46.18
11.500,-42.89
11.515,-41.47
11.531,-41.92
11.546,-43.82
11.562,-46.26
11.578,-48.18
11.593,-48.84
11.609,-47.86
11.625,-45.65
11.640,-43.1
11.656,-41.25
11.671,-40.95
11.687,-42.6
11.703,-46.08
11.718,-50.8
11.734,-55.85
11.750,-60.12
11.765,-62.59
11.781,-62.43
11.796,-59.16
11.812,-52.75
11.828,-43.57
11.843,-32.48
11.859,-20.72
11.875,-9.66
11.890,-0.59
11.906,5.65
11.921,8.91
11.937,9.71
11.953,9.06
11.968,8.01
11.984,7.34
12.000,7.28
12.015,7.51
12.031,7.61
12.046,7.24
12.062,6.48
12.078,5.75
12.093,5.45
12.109,5.79
12.125,6.57
12.140,7.23
12.156,7.16
12.171,6.04
12.187,3.92
12.203,1.25
12.218,-1.41
12.234,-3.77
12.250,-5.76
12.265,-7.57
12.281,-9.51
12.296,-11.72
12.312,-13.99
12.328,-15.94
12.343,-16.99
12.359,-16.57
12.375,-14.29
12.390,-9.93
12.406,-3.25
12.421,5.84
12.437,17.49
12.453,31.73
12.468,48.1
12.484,65.76
12.500,83.36
12.515,99.26
12.531,111.8
12.546,119.8
12.562,122.7
12.578,120.76
12.593,114.92
12.609,106.41
12.625,96.46
12.640,86.04
12.656,75.77
12.671,66.0
12.687,57.07
12.703,49.26
12.718,42.82
12.734,37.77
12.750,33.87
12.765,30.64
12.781,27.58
12.796,24.35
12.812,20.99
12.828,17.67
12.843,14.45
12.859,11.04
12.875,6.92
12.890,1.4
12.906,-5.85
12.921,-14.57
12.937,-23.96
12.953,-32.94
12.968,-40.48
12.984,-46.04
13.000,-49.51
13.015,-51.05
13.031,-50.98
13.046,-49.45
13.062,-46.48
13.078,-41.99
13.093,-36.09
13.109,-28.97
13.125,-21.17
13.140,-13.47
13.156,-6.68
13.171,-1.61
13.187,1.38
13.203,2.43
13.218,2.21
13.234,1.61
13.250,1.45
13.265,2.08
13.281,3.26
13.296,4.39
13.312,4.83
13.328,4.28
13.343,2.97
13.359,1.46
13.375,0.28
13.390,-0.25
13.406,-0.29
13.421,-0.19
13.437,-0.21
13.453,-0.41
13.468,-0.49
13.484,0.01
13.500,1.4
13.515,3.66
13.531,6.49
13.546,9.38
13.562,11.88
13.578,13.78
13.593,14.96
13.609,15.42
13.625,15.13
13.640,13.89
13.656,11.59
13.671,8.16
13.687,3.78
13.703,-1.22
13.718,-6.52
13.734,-11.92
13.750,-17.46
13.765,-23.38
13.781,-29.84
13.796,-36.69
13.812,-43.26
13.828,-48.43
13.843,-50.92
13.859,-49.78
13.875,-44.84
13.890,-36.78
13.906,-27.05
13.921,-17.26
13.937,-8.68
13.953,-1.88
13.968,3.18
13.984,6.88
14.000,9.59
14.015,11.28
14.031,11.82
14.046,10.97
14.062,8.88
14.078,6.06
14.093,3.25
14.109,1.15
14.125,0.05
14.140,-0.25
14.156,-0.26
14.171,-0.5
14.187,-1.21
14.203,-2.1
14.218,-2.63
14.234,-2.32
14.250,-1.12
14.265,0.45
14.281,1.52
14.296,1.27
14.312,-0.56
14.328,-3.57
14.343,-6.79
14.359,-9.29
14.375,-10.47
14.390,-10.46
14.406,-9.94
14.421,-9.75
14.437,-10.58
14.453,-12.66
14.468,-15.79
14.484,-19.53
14.500,-23.38
14.515,-26.82
14.531,-29.3
14.546,-30.16
14.562,-28.62
14.578,-24.08
14.593,-16.33
14.609,-5.84
14.625,6.4
14.640,18.94
14.656,30.31
14.671,39.42
14.687,45.77
14.703,49.53
14.718,51.21
14.734,51.48
14.750,50.75
14.765,49.22
14.781,46.86
14.796,43.7
14.812,39.96
14.828,36.15
14.843,32.94
14.859,30.69
14.875,29.43
14.890,28.71
14.906,27.85
14.921,26.3
14.937,23.89
14.953,20.9
14.968,17.9
14.984,15.4
15.000,13.54
15.015,12.06
15.031,10.44
15.046,8.19
15.062,5.12
15.078,1.42
15.093,-2.41
15.109,-5.8
15.125,-8.32
15.140,-9.85
15.156,-10.55
15.171,-10.74
15.187,-10.76
15.203,-10.88
15.218,-11.2
15.234,-11.79
15.250,-12.59
15.265,-13.4
15.281,-14.05
15.296,-14.26
15.312,-13.75
15.328,-12.26
15.343,-9.67
15.359,-6.04
15.375,-1.74
15.390,2.68
15.406,6.6
15.421,9.48
15.437,11.08
15.453,11.51
15.468,11.09
15.484,10.14
15.500,8.94
15.515,7.36
15.531,5.17
15.546,2.07
15.562,-1.92
15.578,-6.45
15.593,-10.9
15.609,-14.65
15.625,-17.33
15.640,-18.95
15.656,-19.85
15.671,-20.5
15.687,-21.28
15.703,-22.19
15.718,-23.0
15.734,-23.38
15.750,-23.11
15.765,-22.3
15.781,-21.36
15.796,-20.79
15.812,-20.96
15.828,-21.99
15.843,-23.65
15.859,-25.48
15.875,-27.05
15.890,-28.09
15.906,-28.66
15.921,-29.04
15.937,-29.58
15.953,-30.47
15.968,-31.59
15.984,-32.6
16.000,-32.95
16.015,-32.14
16.031,-29.8
16.046,-25.85
16.062,-20.36
16.078,-13.5
16.093,-5.5
16.109,3.35
16.125,12.61
16.140,21.66
16.156,29.73
16.171,36.1
16.187,40.28
16.203,42.17
16.218,42.17
16.234,40.96
16.250,39.32
16.265,37.79
16.281,36.5
16.296,35.32
16.312,34.03
16.328,32.52
16.343,30.86
16.359,29.25
16.375,27.81
16.390,26.61
16.406,25.51
16.421,24.29
16.437,22.74
16.453,20.82
16.468,18.57
16.484,16.03
16.500,13.29
16.515,10.33
16.531,7.17
16.546,3.9
16.562,0.69
16.578,-2.22
16.593,-4.45
16.609,-5.76
16.625,-6.08
16.640,-5.63
16.656,-4.87
16.671,-4.49
16.687,-4.98
16.703,-6.4
16.718,-8.34
16.734,-9.94
16.750,-10.18
16.765,-8.25
16.781,-3.9
16.796,2.5
16.812,10.08
16.828,17.85
16.843,25.06
16.859,31.24
16.875,36.23
16.890,39.98
16.906,42.41
16.921,43.43
16.937,43.01
16.953,41.32
16.968,38.83
16.984,36.08
17.000,33.54
17.015,31.41
17.031,29.56
17.046,27.68
17.062,25.52
17.078,23.06
17.093,20.59
17.109,18.6
17.125,17.41
17.140,17.02
17.156,17.06
17.171,16.8
17.187,15.52
17.203,12.8
17.218,8.68
17.234,3.57
17.250,-1.99
17.265,-7.66
17.281,-13.38
17.296,-19.19
17.312,-25.21
17.328,-31.29
17.343,-37.04
17.359,-42.04
17.375,-46.0
17.390,-49.08
17.406,-51.74
17.421,-54.56
17.437,-57.68
17.453,-60.74
17.468,-62.7
17.484,-62.34
17.500,-58.74
17.515,-51.67
17.531,-41.81
17.546,-30.41
17.562,-18.9
17.578,-8.27
17.593,0.99
17.609,8.95
17.625,15.93
17.640,22.05
17.656,27.21
17.671,30.93
17.687,32.7
17.703,32.2
17.718,29.49
17.734,25.06
17.750,19.58
17.765,13.75
17.781,7.89
17.796,2.16
17.812,-3.47
17.828,-8.93
17.843,-13.9
17.859,-17.99
17.875,-20.83
17.890,-22.38
17.906,-23.0
17.921,-23.34
17.937,-24.0
17.953,-25.14
17.968,-26.42
17.984,-27.08
18.000,-26.32
18.015,-23.67
18.031,-19.34
18.046,-14.01
18.062,-8.74
18.078,-4.47
18.093,-1.66
18.109,-0.28
18.125,0.11
18.140,0.02
18.156,-0.31
18.171,-0.99
18.187,-2.23
18.203,-4.1
18.218,-6.22
18.234,-7.77
18.250,-7.84
18.265,-5.84
18.281,-1.87
18.296,3.26
18.312,8.35
18.328,12.44
18.343,15.13
18.359,16.61
18.375,17.45
18.390,18.21
18.406,18.96
18.421,19.36
18.437,18.77
18.453,16.67
18.468,13.1
18.484,8.71
18.500,4.59
18.515,1.9
18.531,1.38
18.546,3.04
18.562,6.35
18.578,10.49
18.593,14.77
18.609,18.84
18.625,22.69
18.640,26.48
18.656,30.17
18.671,33.34
18.687,35.4
18.703,35.83
18.718,34.53
18.734,31.87
18.750,28.53
18.765,25.15
18.781,22.05
18.796,19.16
18.812,16.06
18.828,12.41
18.843,8.2
18.859,3.74
18.875,-0.57
18.890,-4.42
18.906,-7.92
18.921,-11.49
18.937,-15.61
18.953,-20.46
18.968,-25.64
18.984,-30.3
19.000,-33.43
19.015,-34.27
19.031,-32.63
19.046,-28.85
19.062,-23.59
19.078,-17.5
19.093,-10.97
19.109,-4.23
19.125,2.46
19.140,8.69
19.156,13.88
19.171,17.36
19.187,18.8
19.203,18.36
19.218,16.64
19.234,14.51
19.250,12.64
19.265,11.3
19.281,10.26
19.296,9.06
19.312,7.23
19.328,4.65
19.343,1.73
19.359,-0.93
19.375,-2.63
19.390,-3.07
19.406,-2.48
19.421,-1.57
19.437,-1.25
19.453,-2.2
19.468,-4.54
19.484,-7.79
19.500,-11.15
19.515,-13.74
19.531,-15.0
19.546,-14.8
19.562,-13.24
19.578,-10.6
19.593,-6.99
19.609,-2.51
19.625,2.81
19.640,8.61
19.656,14.46
19.671,19.83
19.687,24.26
19.703,27.56
19.718,29.76
19.734,31.0
19.750,31.27
19.765,30.45
19.781,28.13
19.796,23.86
19.812,17.43
19.828,9.0
19.843,-0.83
19.859,-11.12
19.875,-20.95
19.890,-29.61
19.906,-36.77
19.921,-42.58
19.937,-47.45
19.953,-51.79
19.968,-55.74
19.984,-59.09
20.000,-61.33
20.015,-61.92
20.031,-60.44
20.046,-56.88
20.062,-51.49
20.078,-44.74
20.093,-37.16
20.109,-29.12
20.125,-20.95
20.140,-13.0
20.156,-5.77
20.171,0.14
20.187,4.18
20.203,6.08
20.218,6.05
20.234,4.7
20.250,2.8
20.265,0.98
20.281,-0.45
20.296,-1.76
20.312,-3.43
20.328,-5.88
20.343,-9.18
20.359,-13.02
20.375,-16.82
20.390,-20.05
20.406,-22.45
20.421,-23.99
20.437,-24.78
20.453,-24.84
20.468,-23.93
20.484,-21.67
20.500,-17.78
20.515,-12.34
20.531,-5.82
20.546,0.93
20.562,7.17
20.578,12.48
20.593,16.88
20.609,20.8
20.625,24.64
20.640,28.54
20.656,32.2
20.671,34.99
20.687,36.45
20.703,36.54
20.718,35.77
20.734,35.03
20.750,35.1
20.765,36.26
20.781,38.18
20.796,40.06
20.812,41.04
20.828,40.64
20.843,38.99
20.859,36.56
20.875,33.97
20.890,31.54
20.906,29.18
20.921,26.5
20.937,23.09
20.953,18.72
20.968,13.56
20.984,8.1
21.000,2.87
21.015,-1.74
21.031,-5.62
21.046,-9.03
21.062,-12.24
21.078,-15.41
21.093,-18.49
21.109,-21.24
21.125,-23.47
21.140,-25.17
21.156,-26.57
21.171,-27.96
21.187,-29.58
21.203,-31.15
21.218,-31.98
21.234,-31.26
21.250,-28.41
21.265,-23.46
21.281,-17.13
21.296,-10.54
21.312,-4.86
21.328,-0.88
21.343,1.27
21.359,1.87
21.375,1.27
21.390,-0.29
21.406,-2.73
21.421,-6.18
21.437,-10.47
21.453,-15.17
21.468,-19.54
21.484,-22.76
21.500,-24.29
21.515,-24.14
21.531,-22.66
21.546,-20.53
21.562,-18.37
21.578,-16.54
21.593,-14.97
21.609,-13.44
21.625,-11.7
21.640,-9.79
21.656,-8.1
21.671,-7.22
21.687,-7.67
21.703,-9.54
21.718,-12.36
21.734,-15.22
21.750,-17.25
21.765,-17.89
21.781,-17.34
21.796,-16.36
21.812,-16.02
21.828,-17.14
21.843,-19.98
21.859,-24.12
21.875,-28.78
21.890,-33.17
21.906,-36.67
21.921,-39.05
21.937,-40.18
21.953,-39.95
21.968,-38.16
21.984,-34.57
22.000,-29.14
22.015,-22.2
22.031,-14.5
22.046,-6.99
22.062,-0.5
22.078,4.57
22.093,8.44
22.109,11.63
22.125,14.82
22.140,18.21
22.156,21.54
22.171,24.11
22.187,25.15
22.203,24.3
22.218,21.73
22.234,18.18
22.250,14.49
22.265,11.44
22.281,9.3
22.296,8.01
22.312,7.32
22.328,6.85
22.343,6.5
22.359,6.29
22.375,6.3
22.390,6.41
22.406,6.28
22.421,5.39
22.437,3.28
22.453,-0.14
22.468,-4.5
22.484,-8.99
22.500,-12.8
22.515,-15.4
22.531,-16.88
22.546,-17.9
22.562,-19.3
22.578,-21.77
22.593,-25.4
22.609,-29.62
22.625,-33.35
22.640,-35.5
22.656,-35.23
22.671,-32.38
22.687,-27.43
22.703,-21.2
22.718,-14.52
22.734,-7.96
22.750,-1.75
22.765,4.17
22.781,9.77
22.796,14.85
22.812,19.02
22.828,21.89
22.843,23.37
22.859,23.76
22.875,23.67
22.890,23.73
22.906,24.31
22.921,25.28
22.937,26.32
22.953,27.03
22.968,27.45
22.984,28.09
23.000,29.56
23.015,32.3
23.031,36.18
23.046,40.5
23.062,44.14
23.078,46.13
23.093,45.94
23.109,43.67
23.125,39.98
23.140,35.62
23.156,31.13
23.171,26.63
23.187,21.98
23.203,17.01
23.218,11.79
23.234,6.69
23.250,2.11
23.265,-1.64
23.281,-4.68
23.296,-7.54
23.312,-10.89
23.328,-15.11
23.343,-20.01
23.359,-24.71
23.375,-27.89
23.390,-28.37
23.406,-25.49
23.421,-19.5
23.437,-11.33
23.453,-2.32
23.468,6.35
23.484,13.81
23.500,19.7
23.515,23.9
23.531,26.28
23.546,26.68
23.562,24.95
23.578,21.21
23.593,15.9
23.609,9.79
23.625,3.68
23.640,-1.72
23.656,-6.08
23.671,-9.51
23.687,-12.21
23.703,-14.35
23.718,-15.81
23.734,-16.28
23.750,-15.41
23.765,-13.15
23.781,-9.82
23.796,-6.19
23.812,-3.11
23.828,-1.24
23.843,-0.78
23.859,-1.43
23.875,-2.65
23.890,-3.96
23.906,-5.17
23.921,-6.54
23.937,-8.52
23.953,-11.47
23.968,-15.35
23.984,-19.77
24.000,-24.18
24.015,-28.19
24.031,-31.77
24.046,-35.25
24.062,-38.89
24.078,-42.63
24.093,-45.76
24.109,-47.14
24.125,-45.68
24.140,-40.81
24.156,-32.81
24.171,-22.79
24.187,-12.29
24.203,-2.64
24.218,5.37
24.234,11.61
24.250,16.39
24.265,20.06
24.281,22.77
24.296,24.47
24.312,25.03
24.328,24.53
24.343,23.37
24.359,22.2
24.375,21.57
24.390,21.8
24.406,22.64
24.421,23.47
24.437,23.55
24.453,22.44
24.468,20.24
24.484,17.59
24.500,15.35
24.515,14.1
24.531,14.02
24.546,14.61
24.562,15.09
24.578,14.77
24.593,13.34
24.609,11.0
24.625,8.25
24.640,5.62
24.656,3.31
24.671,1.34
24.687,-0.55
24.703,-2.5
24.718,-4.47
24.734,-6.22
24.750,-7.5
24.765,-8.2
24.781,-8.43
24.796,-8.29
24.812,-7.7
24.828,-6.2
24.843,-3.0
24.859,2.65
24.875,11.07
24.890,21.92
24.906,34.16
24.921,46.3
24.937,56.87
24.953,64.93
24.968,70.08
24.984,72.55
25.000,72.87
25.015,71.59
25.031,69.21
25.046,66.08
25.062,62.43
25.078,58.44
25.093,54.48
25.109,50.77
25.125,47.53
25.140,44.7
25.156,41.94
25.171,38.77
25.187,34.72
25.203,29.54
25.218,23.26
25.234,16.37
25.250,9.35
25.265,2.63
25.281,-3.71
25.296,-9.99
25.312,-16.5
25.328,-23.4
25.343,-30.38
25.359,-36.8
25.375,-41.83
25.390,-45.07
25.406,-46.67
25.421,-47.45
25.437,-48.61
25.453,-51.04
25.468,-55.01
25.484,-59.97
25.500,-64.83
25.515,-68.31
25.531,-69.57
25.546,-68.31
25.562,-64.83
25.578,-59.75
25.593,-53.55
25.609,-46.57
25.625,-38.96
25.640,-30.95
25.656,-22.93
25.671,-15.63
25.687,-9.74
25.703,-5.75
25.718,-3.71
25.734,-3.05
25.750,-2.91
25.765,-2.46
25.781,-1.16
25.796,0.91
25.812,3.37
25.828,5.71
25.843,7.61
25.859,9.18
25.875,10.78
25.890,12.76
25.906,15.19
25.921,17.77
25.937,19.85
25.953,20.92
25.968,20.69
25.984,19.2
26.000,16.68
26.015,13.26
26.031,8.88
26.046,3.39
26.062,-3.32
26.078,-11.09
26.093,-19.42
26.109,-27.72
26.125,-35.47
26.140,-42.58
26.156,-49.36
26.171,-56.38
26.187,-64.14
26.203,-72.8
26.218,-81.83
26.234,-90.12
26.250,-96.17
26.265,-98.55
26.281,-96.49
26.296,-90.15
26.312,-80.57
26.328,-69.34
26.343,-57.9
26.359,-47.07
26.375,-36.87
26.390,-26.85
26.406,-16.63
26.421,-6.38
26.437,3.18
26.453,11.25
26.468,17.47
26.484,22.3
26.500,26.85
26.515,32.37
26.531,39.54
26.546,48.19
26.562,57.29
26.578,65.8
26.593,73.03
26.609,79.04
26.625,84.33
26.640,89.42
26.656,94.23
26.671,98.04
26.687,99.84
26.703,98.8
26.718,94.82
26.734,88.5
26.750,80.8
26.765,72.68
26.781,64.66
26.796,56.83
26.812,49.03
26.828,41.17
26.843,33.43
26.859,26.17
26.875,19.75
26.890,14.22
26.906,9.32
26.921,4.55
26.937,-0.52
26.953,-5.84
26.968,-10.72
26.984,-14.01
27.000,-14.43
27.015,-11.24
27.031,-4.63
27.046,4.31
27.062,13.9
27.078,22.57
27.093,29.32
27.109,34.06
27.125,37.25
27.140,39.53
27.156,41.28
27.171,42.41
27.187,42.53
27.203,41.31
27.218,38.74
27.234,35.29
27.250,31.65
27.265,28.48
27.281,25.97
27.296,23.93
27.312,21.88
27.328,19.47
27.343,16.65
27.359,13.85
27.375,11.75
27.390,10.84
27.406,11.11
27.421,12.01
27.437,12.73
27.453,12.49
27.468,11.14
27.484,8.88
27.500,6.32
27.515,3.95
27.531,1.76
27.546,-0.77
27.562,-4.35
27.578,-9.46
27.593,-16.11
27.609,-23.72
27.625,-31.51
27.640,-38.77
27.656,-45.12
27.671,-50.45
27.687,-54.59
27.703,-57.14
27.718,-57.45
27.734,-54.85
27.750,-49.18
27.765,-40.93
27.781,-31.24
27.796,-21.55
27.812,-13.08
27.828,-6.42
27.843,-1.51
27.859,2.09
27.875,4.88
27.890,7.04
27.906,8.4
27.921,8.56
27.937,7.22
27.953,4.45
27.968,0.74
27.984,-3.08
28.000,-6.25
28.015,-8.31
28.031,-9.33
28.046,-9.73
28.062,-10.07
28.078,-10.72
28.093,-11.7
28.109,-12.8
28.125,-13.75
28.140,-14.44
28.156,-15.11
28.171,-16.25
28.187,-18.25
28.203,-21.32
28.218,-25.23
28.234,-29.44
28.250,-33.38
28.265,-36.63
28.281,-39.13
28.296,-41.23
28.312,-43.5
28.328,-46.34
28.343,-49.79
28.359,-53.43
28.375,-56.54
28.390,-58.37
28.406,-58.33
28.421,-56.25
28.437,-52.22
28.453,-46.55
28.468,-39.6
28.484,-31.7
28.500,-23.28
28.515,-14.9
28.531,-7.1
28.546,-0.52
28.562,4.41
28.578,7.6
28.593,9.26
28.609,9.98
28.625,10.35
28.640,10.86
28.656,11.69
28.671,12.72
28.687,13.66
28.703,14.29
28.718,14.6
28.734,14.85
28.750,15.38
28.765,16.44
28.781,17.93
28.796,19.57
28.812,20.94
28.828,21.77
28.843,22.09
28.859,22.07
28.875,21.81
28.890,21.25
28.906,20.05
28.921,17.73
28.937,14.04
28.953,9.22
28.968,3.94
28.984,-0.89
29.000,-4.48
29.015,-6.73
29.031,-8.09
29.046,-9.57
29.062,-12.08
29.078,-15.96
29.093,-20.74
29.109,-25.25
29.125,-28.09
29.140,-28.12
29.156,-24.94
29.171,-18.94
29.187,-11.07
29.203,-2.45
29.218,6.09
29.234,13.97
29.250,20.85
29.265,26.53
29.281,30.8
29.296,33.46
29.312,34.49
29.328,34.24
29.343,33.37
29.359,32.66
29.375,32.68
29.390,33.5
29.406,34.7
29.421,35.56
29.437,35.42
29.453,33.99
29.468,31.56
29.484,28.78
29.500,26.31
29.515,24.51
29.531,23.15
29.546,21.59
29.562,19.21
29.578,15.63
29.593,10.96
29.609,5.64
29.625,0.2
29.640,-5.01
29.656,-9.95
29.671,-14.85
29.687,-19.89
29.703,-25.13
29.718,-30.37
29.734,-35.34
29.750,-39.81
29.765,-43.78
29.781,-47.43
29.796,-50.9
29.812,-54.15
29.828,-56.72
29.843,-57.77
29.859,-56.38
29.875,-51.85
29.890,-44.08
29.906,-33.78
29.921,-22.24
29.937,-10.86
29.953,-0.75
29.968,7.54
29.984,13.96
30.000,18.73
30.015,22.06
30.031,24.03
30.046,24.56
30.062,23.57
30.078,21.23
30.093,18.04
30.109,14.71
30.125,11.86
30.140,9.91
30.156,8.84
30.171,8.26
30.187,7.62
30.203,6.49
30.218,4.82
30.234,2.84
30.250,1.08
30.265,-0.12
30.281,-0.74
30.296,-1.16
30.312,-1.99
30.328,-3.78
30.343,-6.7
30.359,-10.56
30.375,-14.95
30.390,-19.3
30.406,-23.25
30.421,-26.77
30.437,-30.0
30.453,-33.14
30.468,-36.21
30.484,-39.09
30.500,-41.47
30.515,-43.06
30.531,-43.58
30.546,-42.84
30.562,-40.68
30.578,-36.92
30.593,-31.43
30.609,-24.11
30.625,-15.24
30.640,-5.4
30.656,4.46
30.671,13.3
30.687,20.19
30.703,24.74
30.718,27.1
30.734,27.85
30.750,27.68
30.765,27.03
30.781,25.98
30.796,24.27
30.812,21.61
30.828,18.03
30.843,14.02
30.859,10.26
30.875,7.33
30.890,5.46
30.906,4.46
30.921,3.93
30.937,3.52
30.953,3.1
30.968,2.87
30.984,3.11
31.000,3.91
31.015,5.09
31.031,6.12
31.046,6.51
31.062,5.95
31.078,4.59
31.093,2.92
31.109,1.63
31.125,1.2
31.140,1.57
31.156,2.15
31.171,2.05
31.187,0.46
31.203,-2.91
31.218,-7.54
31.234,-12.38
31.250,-16.13
31.265,-17.73
31.281,-16.82
31.296,-13.69
31.312,-9.04
31.328,-3.76
31.343,1.54
31.359,6.49
31.375,10.84
31.390,14.28
31.406,16.38
31.421,16.61
31.437,14.59
31.453,10.47
31.468,4.89
31.484,-1.0
31.500,-6.1
31.515,-9.62
31.531,-11.41
31.546,-11.85
31.562,-11.67
31.578,-11.31
31.593,-10.8
31.609,-9.74
31.625,-7.55
31.640,-4.0
31.656,0.5
31.671,5.01
31.687,8.53
31.703,10.24
31.718,9.87
31.734,7.71
31.750,4.22
31.765,-0.13
31.781,-5.14
31.796,-10.89
31.812,-17.38
31.828,-24.43
31.843,-31.62
31.859,-38.48
31.875,-44.68
31.890,-50.18
31.906,-55.15
31.921,-59.63
31.937,-63.37
31.953,-65.51
31.968,-64.95
31.984,-60.74
32.000,-52.47
32.015,-40.6
32.031,-26.43
32.046,-11.72
32.062,1.82
32.078,13.01
32.093,21.44
32.109,27.35
32.125,31.26
32.140,33.81
32.156,35.26
32.171,35.58
32.187,34.7
32.203,32.68
32.218,29.94
32.234,27.13
32.250,24.83
32.265,23.28
32.281,22.3
32.296,21.32
32.312,19.87
32.328,17.78
32.343,15.33
32.359,13.06
32.375,11.4
32.390,10.34
32.406,9.35
32.421,7.65
32.437,4.49
32.453,-0.28
32.468,-6.17
32.484,-12.32
32.500,-17.72
32.515,-21.79
32.531,-24.46
32.546,-26.1
32.562,-27.29
32.578,-28.46
32.593,-29.69
32.609,-30.56
32.625,-30.55
32.640,-29.03
32.656,-25.64
32.671,-20.38
32.687,-13.5
32.703,-5.47
32.718,3.29
32.734,12.46
32.750,21.87
32.765,31.26
32.781,40.27
32.796,48.21
32.812,54.34
32.828,58.1
32.843,59.36
32.859,58.49
32.875,56.26
32.890,53.35
32.906,50.28
32.921,47.09
32.937,43.54
32.953,39.51
32.968,35.18
32.984,31.07
33.000,27.88
33.015,26.17
33.031,26.0
33.046,26.94
33.062,28.21
33.078,29.08
33.093,29.15
33.109,28.42
33.125,27.23
33.140,25.89
33.156,24.57
33.171,23.26
33.187,21.8
33.203,20.29
33.218,19.02
33.234,18.47
33.250,18.98
33.265,20.42
33.281,22.04
33.296,22.82
33.312,21.97
33.328,19.49
33.343,16.4
33.359,14.32
33.375,14.88
33.390,18.9
33.406,26.02
33.421,34.93
33.437,43.9
33.453,51.61
33.468,57.55
33.484,61.9
33.500,65.05
33.515,67.14
33.531,67.71
33.546,66.07
33.562,61.7
33.578,54.67
33.593,45.83
33.609,36.47
33.625,27.81
33.640,20.48
33.656,14.44
33.671,9.12
33.687,3.91
33.703,-1.42
33.718,-6.63
33.734,-11.23
33.750,-14.88
33.765,-17.57
33.781,-19.93
33.796,-22.68
33.812,-26.47
33.828,-31.54
33.843,-37.47
33.859,-43.52
33.875,-48.94
33.890,-53.27
33.906,-56.61
33.921,-59.47
33.937,-62.47
33.953,-66.0
33.968,-70.06
33.984,-74.11
34.000,-77.4
34.015,-79.13
34.031,-78.74
34.046,-76.0
34.062,-71.01
34.078,-63.99
34.093,-55.27
34.109,-45.25
34.125,-34.32
34.140,-23.2
34.156,-12.65
34.171,-3.48
34.187,3.62
34.203,8.39
34.218,11.01
34.234,11.95
34.250,11.77
34.265,10.96
34.281,9.68
34.296,7.87
34.312,5.49
34.328,2.64
34.343,-0.32
34.359,-2.83
34.375,-4.46
34.390,-5.09
34.406,-4.94
34.421,-4.51
34.437,-4.34
34.453,-4.74
34.468,-5.68
34.484,-6.98
34.500,-8.44
34.515,-9.96
34.531,-11.68
34.546,-13.79
34.562,-16.4
34.578,-19.36
34.593,-22.3
34.609,-24.91
34.625,-27.09
34.640,-29.17
34.656,-31.67
34.671,-34.97
34.687,-39.05
34.703,-43.23
34.718,-46.26
34.734,-46.8
34.750,-43.99
34.765,-37.84
34.781,-29.28
34.796,-19.81
34.812,-10.87
34.828,-3.47
34.843,2.08
34.859,5.96
34.875,8.59
34.890,10.25
34.906,10.88
34.921,10.31
34.937,8.47
34.953,5.64
34.968,2.49
34.984,-0.14
35.000,-1.73
35.015,-2.17
35.031,-1.85
35.046,-1.44
35.062,-1.42
35.078,-1.89
35.093,-2.48
35.109,-2.65
35.125,-1.97
35.140,-0.55
35.156,0.92
35.171,1.57
35.187,0.69
35.203,-1.8
35.218,-5.35
35.234,-9.07
35.250,-12.13
35.265,-14.24
35.281,-15.75
35.296,-17.47
35.312,-20.23
35.328,-24.34
35.343,-29.51
35.359,-34.9
35.375,-39.42
35.390,-42.14
35.406,-42.49
35.421,-40.3
35.437,-35.72
35.453,-29.11
35.468,-20.88
35.484,-11.6
35.500,-1.98
35.515,7.13
35.531,14.84
35.546,20.45
35.562,23.63
35.578,24.61
35.593,24.02
35.609,22.7
35.625,21.35
35.640,20.44
35.656,20.04
35.671,20.01
35.687,20.25
35.703,20.75
35.718,21.81
35.734,23.73
35.750,26.56
35.765,29.98
35.781,33.3
35.796,35.65
35.812,36.39
35.828,35.36
35.843,32.86
35.859,29.44
35.875,25.61
35.890,21.5
35.906,16.96
35.921,11.72
35.937,5.59
35.953,-1.23
35.968,-8.17
35.984,-14.62
36.000,-20.15
36.015,-24.67
36.031,-28.47
36.046,-31.8
36.062,-34.59
36.078,-36.32
36.093,-36.06
36.109,-32.94
36.125,-26.72
36.140,-17.97
36.156,-8.01
36.171,1.4
36.187,8.94
36.203,13.93
36.218,16.53
36.234,17.5
36.250,17.58
36.265,17.11
36.281,16.03
36.296,14.11
36.312,11.25
36.328,7.95
36.343,5.1
36.359,3.71
36.375,4.47
36.390,7.38
36.406,11.77
36.421,16.76
36.437,21.65
36.453,26.14
36.468,30.38
36.484,34.63
36.500,38.91
36.515,42.89
36.531,45.91
36.546,47.31
36.562,46.76
36.578,44.43
36.593,40.78
36.609,36.37
36.625,31.51
36.640,25.96
36.656,19.21
36.671,10.7
36.687,0.23
36.703,-11.66
36.718,-23.8
36.734,-34.63
36.750,-42.65
36.765,-46.9
36.781,-47.26
36.796,-44.22
36.812,-38.69
36.828,-31.56
36.843,-23.55
36.859,-15.12
36.875,-6.64
36.890,1.47
36.906,8.58
36.921,14.14
36.937,17.9
36.953,20.0
36.968,20.9
36.984,21.23
37.000,21.51
37.015,21.91
37.031,22.22
37.046,22.01
37.062,20.92
37.078,18.9
37.093,16.26
37.109,13.43
37.125,10.82
37.140,8.51
37.156,6.21
37.171,3.51
37.187,0.1
37.203,-4.0
37.218,-8.39
37.234,-12.49
37.250,-15.85
37.265,-18.44
37.281,-20.68
37.296,-23.23
37.312,-26.5
37.328,-30.57
37.343,-35.06
37.359,-39.39
37.375,-43.03
37.390,-45.62
37.406,-47.05
37.421,-47.31
37.437,-46.27
37.453,-43.51
37.468,-38.68
37.484,-31.62
37.500,-22.67
37.515,-12.79
37.531,-3.27
37.546,4.69
37.562,10.36
37.578,13.68
37.593,15.17
37.609,15.55
37.625,15.42
37.640,14.97
37.656,14.04
37.671,12.29
37.687,9.62
37.703,6.32
37.718,2.93
37.734,0.11
37.750,-1.78
37.765,-2.77
37.781,-3.24
37.796,-3.69
37.812,-4.44
37.828,-5.5
37.843,-6.55
37.859,-7.27
37.875,-7.43
37.890,-7.23
37.906,-7.03
37.921,-7.31
37.937,-8.26
37.953,-9.78
37.968,-11.58
37.984,-13.38
38.000,-15.08
38.015,-16.91
38.031,-19.23
38.046,-22.11
38.062,-25.13
38.078,-27.27
38.093,-27.28
38.109,-24.17
38.125,-17.77
38.140,-8.78
38.156,1.41
38.171,11.24
38.187,19.5
38.203,25.67
38.218,29.84
38.234,32.31
38.250,33.41
38.265,33.14
38.281,31.43
38.296,28.39
38.312,24.48
38.328,20.5
38.343,17.36
38.359,15.67
38.375,15.6
38.390,16.77
38.406,18.47
38.421,20.04
38.437,21.17
38.453,21.95
38.468,22.69
38.484,23.67
38.500,24.84
38.515,25.78
38.531,25.89
38.546,24.72
38.562,22.18
38.578,18.7
38.593,14.91
38.609,11.36
38.625,8.14
38.640,4.9
38.656,1.02
38.671,-3.89
38.687,-9.72
38.703,-15.78
38.718,-20.85
38.734,-23.83
38.750,-23.9
38.765,-20.91
38.781,-15.22
38.796,-7.55
38.812,1.37
38.828,10.89
38.843,20.53
38.859,29.82
38.875,38.26
38.890,45.29
38.906,50.41
38.921,53.42
38.937,54.41
38.953,53.85
38.968,52.31
38.984,50.24
39.000,47.89
39.015,45.1
39.031,41.6
39.046,37.13
39.062,31.77
39.078,25.94
39.093,20.3
39.109,15.52
39.125,11.96
39.140,9.53
39.156,7.72
39.171,5.91
39.187,3.6
39.203,0.64
39.218,-2.78
39.234,-6.35
39.250,-9.86
39.265,-13.3
39.281,-16.84
39.296,-20.71
39.312,-24.96
39.328,-29.4
39.343,-33.74
39.359,-37.67
39.375,-40.89
39.390,-43.21
39.406,-44.35
39.421,-43.86
39.437,-41.08
39.453,-35.37
39.468,-26.37
39.484,-14.41
39.500,-0.51
39.515,13.78
39.531,26.76
39.546,37.14
39.562,44.22
39.578,48.11
39.593,49.43
39.609,48.89
39.625,47.01
39.640,43.91
39.656,39.66
39.671,34.28
39.687,28.17
39.703,21.91
39.718,16.13
39.734,11.29
39.750,7.42
39.765,4.08
39.781,0.73
39.796,-2.97
39.812,-7.12
39.828,-11.34
39.843,-15.19
39.859,-18.37
39.875,-20.89
39.890,-23.17
39.906,-25.71
39.921,-28.86
39.937,-32.51
39.953,-36.15
39.968,-39.1
39.984,-40.89
40.000,-41.58
40.015,-41.74
40.031,-42.3
40.046,-43.78
40.062,-46.06
40.078,-48.16
40.093,-48.65
40.109,-46.22
40.125,-40.36
40.140,-31.61
40.156,-21.1
40.171,-10.24
40.187,-0.01
40.203,9.24
40.218,17.41
40.234,24.53
40.250,30.29
40.265,34.01
40.281,35.11
40.296,33.45
40.312,29.51
40.328,24.3
40.343,19.01
40.359,14.53
40.375,11.28
40.390,9.15
40.406,7.75
40.421,6.64
40.437,5.71
40.453,5.1
40.468,5.02
40.484,5.62
40.500,6.64
40.515,7.6
40.531,7.93
40.546,7.35
40.562,5.99
40.578,4.33
40.593,3.07
40.609,2.59
40.625,2.8
40.640,3.12
40.656,2.71
40.671,1.04
40.687,-1.92
40.703,-5.55
40.718,-8.92
40.734,-11.12
40.750,-11.59
40.765,-10.33
40.781,-7.63
40.796,-3.94
40.812,0.37
40.828,5.04
40.843,9.8
40.859,14.27
40.875,17.82
40.890,19.84
40.906,19.88
40.921,18.06
40.937,14.99
40.953,11.67
40.968,9.01
40.984,7.49
41.000,7.06
41.015,7.19
41.031,7.31
41.046,7.12
41.062,6.87
41.078,7.06
41.093,8.2
41.109,10.36
41.125,13.04
41.140,15.36
41.156,16.39
41.171,15.64
41.187,13.2
41.203,9.78
41.218,6.1
41.234,2.79
41.250,-0.06
41.265,-2.8
41.281,-5.89
41.296,-9.69
41.312,-14.21
41.328,-19.24
41.343,-24.45
41.359,-29.58
41.375,-34.42
41.390,-38.67
41.406,-41.88
41.421,-43.28
41.437,-42.01
41.453,-37.5
41.468,-29.72
41.484,-19.42
41.500,-7.97
41.515,3.03
41.531,12.35
41.546,19.25
41.562,23.86
41.578,26.69
41.593,28.4
41.609,29.31
41.625,29.41
41.640,28.54
41.656,26.56
41.671,23.67
41.687,20.33
41.703,17.15
41.718,14.55
41.734,12.65
41.750,11.18
41.765,9.74
41.781,7.99
41.796,5.81
41.812,3.36
41.828,0.84
41.843,-1.63
41.859,-4.1
41.875,-6.76
41.890,-9.84
41.906,-13.38
41.921,-17.19
41.937,-20.88
41.953,-23.93
41.968,-26.1
41.984,-27.56
42.000,-28.78
42.015,-30.37
42.031,-32.69
42.046,-35.53
42.062,-38.01
42.078,-38.95
42.093,-37.17
42.109,-32.13
42.125,-24.17
42.140,-14.3
42.156,-3.87
42.171,5.94
42.187,14.45
42.203,21.53
42.218,27.26
42.234,31.71
42.250,34.72
42.265,35.97
42.281,35.29
42.296,32.9
42.312,29.47
42.328,25.89
42.343,22.88
42.359,20.67
42.375,18.97
42.390,17.3
42.406,15.23
42.421,12.79
42.437,10.33
42.453,8.33
42.468,7.09
42.484,6.45
42.500,5.8
42.515,4.49
42.531,2.11
42.546,-1.3
42.562,-5.17
42.578,-8.81
42.593,-11.67
42.609,-13.6
42.625,-14.93
42.640,-16.26
42.656,-18.1
42.671,-20.71
42.687,-23.95
42.703,-27.25
42.718,-29.81
42.734,-30.9
42.750,-30.03
42.765,-27.07
42.781,-22.26
42.796,-16.08
42.812,-9.04
42.828,-1.72
42.843,5.31
42.859,11.46
42.875,16.11
42.890,18.68
42.906,19.0
42.921,17.28
42.937,14.17
42.953,10.57
42.968,7.18
42.984,4.31
43.000,1.83
43.015,-0.61
43.031,-3.23
43.046,-5.86
43.062,-7.92
43.078,-8.81
43.093,-8.08
43.109,-5.84
43.125,-2.8
43.140,0.03
43.156,1.78
43.171,2.16
43.187,1.42
43.203,0.17
43.218,-1.12
43.234,-2.38
43.250,-3.94
43.265,-6.35
43.281,-10.02
43.296,-14.87
43.312,-20.42
43.328,-25.87
43.343,-30.49
43.359,-33.79
43.375,-35.49
43.390,-35.46
43.406,-33.52
43.421,-29.52
43.437,-23.49
43.453,-15.74
43.468,-6.9
43.484,2.09
43.500,10.25
43.515,16.79
43.531,21.33
43.546,23.87
43.562,24.81
43.578,24.57
43.593,23.49
43.609,21.83
43.625,19.72
43.640,17.3
43.656,14.84
43.671,12.73
43.687,11.33
43.703,10.85
43.718,11.25
43.734,11.95
43.750,12.38
43.765,11.89
43.781,10.15
43.796,7.2
43.812,3.39
43.828,-0.85
43.843,-5.02
43.859,-8.82
43.875,-12.24
43.890,-15.3
43.906,-18.17
43.921,-20.89
43.937,-23.43
43.953,-25.7
43.968,-27.64
43.984,-29.19
44.000,-30.31
44.015,-30.79
44.031,-30.03
44.046,-27.28
44.062,-21.76
44.078,-13.04
44.093,-1.36
44.109,12.24
44.125,26.26
44.140,39.03
44.156,49.2
44.171,56.09
44.187,59.64
44.203,60.17
44.218,58.18
44.234,54.05
44.250,48.01
44.265,40.32
44.281,31.46
44.296,22.12
44.312,13.19
44.328,5.49
44.343,-0.5
44.359,-4.71
44.375,-7.55
44.390,-9.58
44.406,-11.3
44.421,-12.93
44.437,-14.46
44.453,-15.72
44.468,-16.67
44.484,-17.4
44.500,-18.18
44.515,-19.28
44.531,-20.81
44.546,-22.55
44.562,-24.12
44.578,-25.21
44.593,-25.78
44.609,-26.25
44.625,-27.19
44.640,-29.03
44.656,-31.63
44.671,-34.14
44.687,-35.33
44.703,-33.96
44.718,-29.54
44.734,-22.38
44.750,-13.57
44.765,-4.54
44.781,3.57
44.796,10.17
44.812,15.27
44.828,19.18
44.843,22.1
44.859,23.88
44.875,24.23
44.890,22.91
44.906,20.07
44.921,16.46
44.937,13.12
44.953,11.07
44.968,10.89
44.984,12.47
45.000,15.17
45.015,18.23
45.031,20.97
45.046,23.07
45.062,24.51
45.078,25.28
45.093,25.15
45.109,23.62
45.125,20.13
45.140,14.38
45.156,6.71
45.171,-1.96
45.187,-10.31
45.203,-17.17
45.218,-22.05
45.234,-25.32
45.250,-27.91
45.265,-30.79
45.281,-34.38
45.296,-38.26
45.312,-41.36
45.328,-42.42
45.343,-40.62
45.359,-36.05
45.375,-29.47
45.390,-22.04
45.406,-14.83
45.421,-8.45
45.437,-3.08
45.453,1.33
45.468,4.78
45.484,7.14
45.500,8.11
45.515,7.68
45.531,6.09
45.546,3.88
45.562,1.72
45.578,0.07
45.593,-0.96
45.609,-1.63
45.625,-2.23
45.640,-2.99
45.656,-3.74
45.671,-4.09
45.687,-3.63
45.703,-2.17
45.718,-0.03
45.734,2.11
45.750,3.41
45.765,3.33
45.781,1.76
45.796,-0.86
45.812,-3.85
45.828,-6.58
45.843,-8.76
45.859,-10.72
45.875,-13.06
45.890,-16.38
45.906,-20.77
45.921,-25.77
45.937,-30.35
45.953,-33.33
45.968,-33.77
45.984,-31.38
46.000,-26.5
46.015,-19.83
46.031,-12.06
46.046,-3.65
46.062,5.11
46.078,13.93
46.093,22.35
46.109,29.6
46.125,34.95
46.140,37.87
46.156,38.37
46.171,37.02
46.187,34.63
46.203,31.96
46.218,29.36
46.234,26.75
46.250,23.81
46.265,20.33
46.281,16.44
46.296,12.6
46.312,9.39
46.328,7.17
46.343,5.81
46.359,4.71
46.375,3.03
46.390,0.22
46.406,-3.69
46.421,-8.13
46.437,-12.2
46.453,-15.16
46.468,-16.82
46.484,-17.56
46.500,-18.14
46.515,-19.36
46.531,-21.56
46.546,-24.49
46.562,-27.48
46.578,-29.66
46.593,-30.29
46.609,-29.01
46.625,-25.76
46.640,-20.67
46.656,-13.97
46.671,-5.86
46.687,3.28
46.703,12.82
46.718,22.02
46.734,29.88
46.750,35.57
46.765,38.7
46.781,39.42
46.796,38.29
46.812,36.08
46.828,33.42
46.843,30.48
46.859,27.19
46.875,23.26
46.890,18.63
46.906,13.64
46.921,8.92
46.937,5.05
46.953,2.38
46.968,0.76
46.984,-0.38
47.000,-1.64
47.015,-3.48
47.031,-5.87
47.046,-8.44
47.062,-10.75
47.078,-12.64
47.093,-14.3
47.109,-16.2
47.125,-18.79
47.140,-22.13
47.156,-25.93
47.171,-29.54
47.187,-32.25
47.203,-33.63
47.218,-33.55
47.234,-32.03
47.250,-29.08
47.265,-24.65
47.281,-18.53
47.296,-10.73
47.312,-1.61
47.328,8.15
47.343,17.49
47.359,25.4
47.375,31.13
47.390,34.43
47.406,35.42
47.421,34.65
47.437,32.71
47.453,30.13
47.468,27.24
47.484,24.14
47.500,20.88
47.515,17.58
47.531,14.55
47.546,12.13
47.562,10.66
47.578,10.16
47.593,10.37
47.609,10.72
47.625,10.59
47.640,9.6
47.656,7.85
47.671,5.8
47.687,4.07
47.703,3.16
47.718,3.05
47.734,3.26
47.750,3.08
47.765,1.9
47.781,-0.51
47.796,-3.94
47.812,-7.9
47.828,-11.86
47.843,-15.31
47.859,-17.97
47.875,-19.56
47.890,-19.7
47.906,-17.91
47.921,-13.85
47.937,-7.61
47.953,0.23
47.968,8.5
47.984,15.96
48.000,21.49
48.015,24.56
48.031,25.35
48.046,24.56
48.062,23.02
48.078,21.32
48.093,19.69
48.109,17.89
48.125,15.72
48.140,13.14
48.156,10.52
48.171,8.5
48.187,7.65
48.203,8.1
48.218,9.49
48.234,11.1
48.250,12.09
48.265,12.02
48.281,11.02
48.296,9.59
48.312,8.33
48.328,7.55
48.343,7.06
48.359,6.37
48.375,4.93
48.390,2.38
48.406,-1.16
48.421,-5.28
48.437,-9.53
48.453,-13.48
48.468,-16.96
48.484,-19.83
48.500,-21.72
48.515,-22.14
48.531,-20.53
48.546,-16.44
48.562,-9.94
48.578,-1.65
48.593,7.33
48.609,15.72
48.625,22.48
48.640,27.06
48.656,29.52
48.671,30.28
48.687,29.92
48.703,28.87
48.718,27.31
48.734,25.2
48.750,22.54
48.765,19.53
48.781,16.69
48.796,14.66
48.812,13.89
48.828,14.47
48.843,15.84
48.859,17.09
48.875,17.29
48.890,15.89
48.906,12.91
48.921,8.92
48.937,4.66
48.953,0.7
48.968,-2.87
48.984,-6.33
49.000,-10.1
49.015,-14.35
49.031,-18.96
49.046,-23.49
49.062,-27.59
49.078,-30.95
49.093,-33.6
49.109,-35.62
49.125,-36.92
49.140,-37.12
49.156,-35.56
49.171,-31.65
49.187,-25.28
49.203,-16.96
49.218,-7.79
49.234,0.91
49.250,8.06
49.265,13.15
49.281,16.35
49.296,18.16
49.312,19.18
49.328,19.72
49.343,19.81
49.359,19.22
49.375,17.82
49.390,15.71
49.406,13.34
49.421,11.29
49.437,9.94
49.453,9.38
49.468,9.29
49.484,9.14
49.500,8.46
49.515,6.98
49.531,4.79
49.546,2.16
49.562,-0.64
49.578,-3.6
49.593,-6.88
49.609,-10.78
49.625,-15.53
49.640,-20.98
49.656,-26.76
49.671,-32.35
49.687,-37.34
49.703,-41.6
49.718,-45.33
49.734,-48.8
49.750,-51.97
49.765,-54.39
49.781,-55.04
49.796,-52.88
49.812,-47.25
49.828,-38.28
49.843,-26.96
49.859,-14.89
49.875,-3.64
49.890,5.75
49.906,12.93
49.921,18.3
49.937,22.42
49.953,25.71
49.968,28.08
49.984,29.11
50.000,28.4
50.015,26.01
50.031,22.58
50.046,18.99
50.062,16.17
50.078,14.52
50.093,13.79
50.109,13.26
50.125,12.1
50.140,9.91
50.156,6.89
50.171,3.57
50.187,0.46
50.203,-2.1
50.218,-4.36
50.234,-6.77
50.250,-9.75
50.265,-13.36
50.281,-17.17
50.296,-20.54
50.312,-22.99
50.328,-24.53
50.343,-25.57
50.359,-26.84
50.375,-28.8
50.390,-31.23
50.406,-33.23
50.421,-33.51
50.437,-30.93
50.453,-25.02
50.468,-16.31
50.484,-6.11
50.500,3.87
50.515,12.29
50.531,18.53
50.546,22.65
50.562,25.14
50.578,26.44
50.593,26.75
50.609,25.84
50.625,23.51
50.640,19.8
50.656,15.33
50.671,11.06
50.687,7.79
50.703,5.92
50.718,5.19
50.734,4.96
50.750,4.53
50.765,3.65
50.781,2.57
50.796,1.86
50.812,2.01
50.828,3.08
50.843,4.62
50.859,5.91
50.875,6.42
50.890,5.99
50.906,5.03
50.921,4.12
50.937,3.66
50.953,3.6
50.968,3.42
50.984,2.43
51.000,0.1
51.015,-3.34
51.031,-7.08
51.046,-9.82
51.062,-10.38
51.078,-8.15
51.093,-3.31
51.109,3.24
51.125,10.31
51.140,16.79
51.156,22.13
51.171,26.17
51.187,29.18
51.203,31.35
51.218,32.61
51.234,32.68
51.250,31.22
51.265,28.25
51.281,24.07
51.296,19.36
51.312,14.78
51.328,10.96
51.343,8.1
51.359,6.07
51.375,4.6
51.390,3.47
51.406,2.65
51.421,2.23
51.437,2.3
51.453,2.79
51.468,3.42
51.484,3.77
51.500,3.43
51.515,2.22
51.531,0.22
51.546,-2.31
51.562,-5.18
51.578,-8.38
51.593,-12.14
51.609,-16.77
51.625,-22.39
51.640,-28.72
51.656,-34.96
51.671,-40.02
51.687,-42.84
51.703,-42.69
51.718,-39.58
51.734,-34.03
51.750,-27.11
51.765,-19.89
51.781,-13.18
51.796,-7.43
51.812,-2.76
51.828,0.8
51.843,3.2
51.859,4.33
51.875,4.19
51.890,2.88
51.906,0.88
51.921,-1.28
51.937,-3.07
51.953,-4.22
51.968,-4.78
51.984,-4.96
52.000,-5.01
52.015,-4.99
52.031,-4.88
52.046,-4.63
52.062,-4.29
52.078,-4.01
52.093,-4.07
52.109,-4.62
52.125,-5.64
52.140,-7.01
52.156,-8.39
52.171,-9.52
52.187,-10.26
52.203,-10.64
52.218,-11.04
52.234,-11.97
52.250,-13.93
52.265,-17.1
52.281,-21.17
52.296,-25.37
52.312,-28.65
52.328,-30.01
52.343,-28.9
52.359,-25.38
52.375,-19.96
52.390,-13.46
52.406,-6.68
52.421,-0.19
52.437,5.51
52.453,10.16
52.468,13.47
52.484,15.22
52.500,15.27
52.515,13.8
52.531,11.21
52.546,8.09
52.562,5.01
52.578,2.38
52.593,0.25
52.609,-1.55
52.625,-3.28
52.640,-4.97
52.656,-6.44
52.671,-7.26
52.687,-7.04
52.703,-5.62
52.718,-3.31
52.734,-0.83
52.750,0.96
52.765,1.47
52.781,0.67
52.796,-0.97
52.812,-2.81
52.828,-4.37
52.843,-5.61
52.859,-7.02
52.875,-9.23
52.890,-12.68
52.906,-17.21
52.921,-22.15
52.937,-26.45
52.953,-29.09
52.968,-29.44
52.984,-27.29
53.000,-22.76
53.015,-16.16
53.031,-7.75
53.046,2.12
53.062,12.99
53.078,24.28
53.093,35.17
53.109,44.77
53.125,52.29
53.140,57.36
53.156,59.95
53.171,60.34
53.187,58.86
53.203,55.73
53.218,51.06
53.234,44.94
53.250,37.57
53.265,29.45
53.281,21.41
53.296,14.32
53.312,8.85
53.328,5.28
53.343,3.35
53.359,2.47
53.375,2.02
53.390,1.49
53.406,0.78
53.437,-0.76
53.453,-1.59
53.468,-2.76
53.484,-4.69
53.500,-7.7
53.515,-11.73
53.531,-16.44
53.546,-21.16
53.562,-25.25
53.578,-28.25
53.593,-29.95
53.609,-30.25
53.625,-29.12
53.640,-26.46
53.656,-22.13
53.671,-16.21
53.687,-9.12
53.703,-1.72
53.718,4.85
53.734,9.56
53.750,11.77
53.765,11.48
53.781,9.27
53.796,6.11
53.812,2.79
53.828,-0.18
53.843,-2.8
53.859,-5.31
53.875,-7.91
53.890,-10.53
53.906,-12.81
53.921,-14.31
53.937,-14.58
53.953,-13.57
53.968,-11.67
53.984,-9.54
54.000,-7.85
54.015,-6.98
54.031,-6.93
54.046,-7.3
54.062,-7.66
54.078,-7.66
54.093,-7.36
54.109,-7.05
54.125,-7.11
54.140,-7.84
54.156,-9.18
54.171,-10.89
54.187,-12.5
54.203,-13.58
54.218,-13.85
54.234,-13.08
54.250,-11.01
54.265,-7.28
54.281,-1.57
54.296,6.23
54.312,15.78
54.328,26.27
54.343,36.54
54.359,45.4
54.375,51.95
54.390,55.81
54.406,57.15
54.421,56.41
54.437,54.15
54.453,50.85
54.468,46.77
54.484,42.15
54.500,37.28
54.515,32.61
54.531,28.63
54.546,25.76
54.562,24.18
54.578,23.78
54.593,24.07
54.609,24.35
54.625,24.01
54.640,22.76
54.656,20.72
54.671,18.3
54.687,15.87
54.703,13.52
54.718,10.81
54.734,7.04
54.750,1.38
54.765,-6.56
54.781,-16.5
54.796,-27.56
54.812,-38.47
54.828,-47.99
54.843,-55.21
54.859,-59.64
54.875,-60.94
54.890,-58.91
54.906,-53.43
54.921,-44.62
54.937,-33.13
54.953,-20.01
54.968,-6.76
54.984,5.15
55.000,14.63
55.015,21.31
55.031,25.56
55.046,28.11
55.062,29.73
55.078,30.8
55.093,31.33
55.109,30.98
55.125,29.44
55.140,26.76
55.156,23.34
55.171,19.9
55.187,17.15
55.203,15.48
55.218,14.69
55.234,14.28
55.250,13.55
55.265,12.01
55.281,9.65
55.296,6.73
55.312,3.6
55.328,0.4
55.343,-3.05
55.359,-7.17
55.375,-12.21
55.390,-18.11
55.406,-24.41
55.421,-30.43
55.437,-35.66
55.453,-39.91
55.468,-43.33
55.484,-46.05
55.500,-47.93
55.515,-48.34
55.531,-46.48
55.546,-41.72
55.562,-34.04
55.578,-24.2
55.593,-13.66
55.609,-4.06
55.625,3.34
55.640,8.09
55.656,10.5
55.671,11.37
55.687,11.44
55.703,11.25
55.718,10.81
55.734,10.0
55.750,8.68
55.765,7.04
55.781,5.48
55.796,4.54
55.812,4.5
55.828,5.29
55.843,6.56
55.859,7.71
55.875,8.31
55.890,8.22
55.906,7.62
55.921,6.76
55.937,5.87
55.953,4.84
55.968,3.3
55.984,0.76
56.000,-3.13
56.015,-8.34
56.031,-14.51
56.046,-21.09
56.062,-27.65
56.078,-33.84
56.093,-39.56
56.109,-44.66
56.125,-48.73
56.140,-50.97
56.156,-50.49
56.171,-46.55
56.187,-39.19
56.203,-29.26
56.218,-18.29
56.234,-8.02
56.250,0.21
56.265,5.84
56.281,9.15
56.296,10.91
56.312,11.92
56.328,12.51
56.343,12.62
56.359,11.94
56.375,10.29
56.390,7.9
56.406,5.42
56.421,3.6
56.437,3.02
56.453,3.79
56.468,5.42
56.484,7.11
56.500,8.21
56.515,8.34
56.531,7.62
56.546,6.47
56.562,5.28
56.578,4.27
56.593,3.29
56.609,1.96
56.625,-0.08
56.640,-2.94
56.656,-6.47
56.671,-10.34
56.687,-14.15
56.703,-17.72
56.718,-20.94
56.734,-23.7
56.750,-25.56
56.765,-25.85
56.781,-23.67
56.796,-18.45
56.812,-10.25
56.828,-0.01
56.843,10.62
56.859,19.9
56.875,26.57
56.890,30.27
56.906,31.48
56.921,31.1
56.937,29.91
56.953,28.27
56.968,26.03
56.984,22.75
57.000,18.22
57.015,12.73
57.031,7.02
57.046,2.02
57.062,-1.57
57.078,-3.57
57.093,-4.45
57.109,-4.96
57.125,-5.92
57.140,-7.77
57.156,-10.43
57.171,-13.55
57.187,-16.64
57.203,-19.42
57.218,-21.93
57.234,-24.41
57.250,-27.07
57.265,-29.97
57.281,-32.86
57.296,-35.51
57.312,-37.75
57.328,-39.52
57.343,-40.87
57.359,-41.65
57.375,-41.42
57.390,-39.38
57.406,-34.61
57.421,-26.49
57.437,-15.2
57.453,-1.73
57.468,12.24
57.484,24.81
57.500,34.45
57.515,40.5
57.531,43.14
57.546,43.3
57.562,42.09
57.578,40.33
57.593,38.28
57.609,35.76
57.625,32.38
57.640,28.03
57.656,23.13
57.671,18.42
57.687,14.64
57.703,12.23
57.718,10.91
57.734,9.95
57.750,8.45
57.765,5.74
57.781,1.71
57.796,-3.22
57.812,-8.53
57.828,-13.84
57.843,-19.11
57.859,-24.56
57.875,-30.36
57.890,-36.35
57.906,-42.02
57.921,-46.68
57.937,-49.85
57.953,-51.39
57.968,-51.5
57.984,-50.43
58.000,-48.12
58.015,-44.05
58.031,-37.46
58.046,-27.72
58.062,-14.81
58.078,0.39
58.093,16.27
58.109,30.99
58.125,43.02
58.140,51.46
58.156,56.38
58.171,58.46
58.187,58.67
58.203,57.86
58.218,56.37
58.234,54.08
58.250,50.74
58.265,46.23
58.281,40.83
58.296,35.24
58.312,30.26
58.328,26.4
58.343,23.67
58.359,21.48
58.375,19.14
58.390,16.18
58.406,12.66
58.421,9.16
58.437,6.42
58.453,4.96
58.468,4.72
58.484,5.15
58.500,5.51
58.515,5.28
58.531,4.45
58.546,3.36
58.562,2.4
58.578,1.69
58.593,0.85
58.609,-0.74
58.625,-3.42
58.640,-6.85
58.656,-10.01
58.671,-11.43
58.687,-10.08
58.703,-5.71
58.718,0.88
58.734,8.21
58.750,14.77
58.765,19.63
58.781,22.63
58.796,24.22
58.812,25.15
58.828,25.82
58.843,26.16
58.859,25.71
58.875,23.92
58.890,20.63
58.906,16.25
58.921,11.64
58.937,7.68
58.953,4.98
58.968,3.52
58.984,2.72
59.000,1.76
59.015,0.07
59.031,-2.45
59.046,-5.41
59.062,-8.29
59.078,-10.71
59.093,-12.73
59.109,-14.81
59.125,-17.53
59.140,-21.16
59.156,-25.52
59.171,-30.06
59.187,-34.12
59.203,-37.33
59.218,-39.74
59.234,-41.61
59.250,-43.19
59.265,-44.29
59.281,-44.04
59.296,-41.45
59.312,-35.65
59.328,-26.56
59.343,-15.03
59.359,-2.6
59.375,9.08
59.390,18.74
59.406,25.92
59.421,30.87
59.437,34.04
59.453,35.77
59.468,36.02
59.484,34.51
59.500,31.05
59.515,25.83
59.531,19.64
59.546,13.61
59.562,8.69
59.578,5.41
59.593,3.64
59.609,2.7
59.625,1.75
59.640,0.18
59.656,-2.1
59.671,-4.77
59.687,-7.27
59.703,-9.24
59.718,-10.7
59.734,-11.96
59.750,-13.42
59.765,-15.35
59.781,-17.64
59.796,-19.88
59.812,-21.76
59.828,-23.2
59.843,-24.37
59.859,-25.67
59.875,-27.06
59.890,-28.07
59.906,-27.72
59.921,-24.89
59.937,-18.81
59.953,-9.54
59.968,2.01
59.984,14.26
