timestamp,value
00.000,57.2
00.015,57.55
00.031,57.0
00.046,56.57
00.062,56.86
00.078,57.94
00.093,59.22
00.109,59.69
00.125,58.39
00.140,54.82
00.156,49.11
00.171,42.06
00.187,34.73
00.203,27.85
00.218,21.69
00.234,15.88
00.250,9.83
00.265,2.96
00.281,-4.82
00.296,-13.0
00.312,-20.78
00.328,-27.41
00.343,-32.56
00.359,-36.37
00.375,-39.39
00.390,-42.23
00.406,-45.24
00.421,-48.33
00.437,-50.95
00.453,-52.38
00.468,-52.0
00.484,-49.65
00.500,-45.64
00.515,-40.64
00.531,-35.41
00.546,-30.35
00.562,-25.53
00.578,-20.67
00.593,-15.41
00.609,-9.63
00.625,-3.55
00.640,2.44
00.656,7.96
00.671,12.85
00.687,17.31
00.703,21.62
00.718,26.03
00.734,30.49
00.750,34.65
00.765,37.98
00.781,40.05
00.796,40.76
00.812,40.35
00.828,39.3
00.843,38.09
00.859,36.93
00.875,35.69
00.890,34.08
00.906,31.8
00.921,28.81
00.937,25.24
00.953,21.24
00.968,16.94
00.984,12.27
01.000,7.05
01.015,1.24
01.031,-4.9
01.046,-10.96
01.062,-16.43
01.078,-21.04
01.093,-24.8
01.109,-28.01
01.125,-31.13
01.140,-34.61
01.156,-38.62
01.171,-42.93
01.187,-46.99
01.203,-50.13
01.218,-51.79
01.234,-51.82
01.250,-50.5
01.265,-48.34
01.281,-45.79
01.296,-43.04
01.312,-39.96
01.328,-36.41
01.343,-32.44
01.359,-28.44
01.375,-25.01
01.390,-22.61
01.406,-21.38
01.421,-20.9
01.437,-20.5
01.453,-19.54
01.468,-17.73
01.484,-15.17
01.500,-12.29
01.515,-9.65
01.531,-7.54
01.546,-6.03
01.562,-4.86
01.578,-3.74
01.593,-2.48
01.609,-1.15
01.625,-0.02
01.640,0.63
01.656,0.57
01.671,-0.1
01.687,-1.06
01.703,-1.98
01.718,-2.66
01.734,-3.13
01.750,-3.75
01.765,-4.88
01.781,-6.75
01.796,-9.34
01.812,-12.31
01.828,-15.15
01.843,-17.47
01.859,-19.08
01.875,-20.06
01.890,-20.71
01.906,-21.33
01.921,-22.0
01.937,-22.58
01.953,-22.8
01.968,-22.43
01.984,-21.6
02.000,-20.65
02.015,-20.02
02.031,-20.06
02.046,-20.59
02.062,-21.05
02.078,-20.76
02.093,-19.22
02.109,-16.41
02.125,-12.78
02.140,-9.06
02.156,-5.85
02.171,-3.46
02.187,-1.67
02.203,-0.06
02.218,1.73
02.234,3.79
02.250,5.85
02.265,7.5
02.281,8.4
02.296,8.56
02.312,8.32
02.328,8.2
02.343,8.61
02.359,9.63
02.375,10.97
02.390,12.12
02.406,12.68
02.421,12.51
02.437,11.99
02.453,11.56
02.468,11.7
02.484,12.5
02.500,13.61
02.515,14.47
02.531,14.42
02.546,13.23
02.562,11.02
02.578,8.43
02.593,6.05
02.609,4.3
02.625,3.23
02.640,2.41
02.656,1.4
02.671,-0.1
02.687,-1.87
02.703,-3.46
02.718,-4.34
02.734,-4.32
02.750,-3.76
02.765,-3.25
02.781,-3.49
02.796,-4.75
02.812,-6.9
02.828,-9.37
02.843,-11.59
02.859,-13.17
02.875,-14.25
02.890,-15.17
02.906,-16.28
02.921,-17.69
02.937,-18.99
02.953,-19.62
02.968,-19.17
02.984,-17.51
03.000,-15.05
03.015,-12.5
03.031,-10.46
03.046,-9.2
03.062,-8.55
03.078,-7.93
03.093,-6.82
03.109,-5.07
03.125,-2.97
03.140,-1.13
03.156,-0.19
03.171,-0.39
03.187,-1.4
03.203,-2.59
03.218,-3.23
03.234,-3.01
03.250,-2.2
03.265,-1.38
03.281,-1.16
03.296,-1.74
03.312,-2.71
03.328,-3.36
03.343,-3.13
03.359,-1.84
03.375,-0.01
03.390,1.55
03.406,2.17
03.421,1.74
03.437,0.8
03.453,0.26
03.468,0.78
03.484,2.38
03.500,4.52
03.515,6.23
03.531,6.73
03.546,5.84
03.562,4.0
03.578,2.05
03.593,0.74
03.609,0.4
03.625,0.65
03.640,0.85
03.656,0.38
03.671,-1.03
03.687,-3.01
03.703,-4.94
03.718,-6.13
03.734,-6.31
03.750,-5.7
03.765,-4.95
03.781,-4.66
03.796,-5.09
03.812,-6.03
03.828,-6.9
03.843,-7.23
03.859,-6.79
03.875,-5.96
03.890,-5.43
03.906,-5.81
03.921,-7.36
03.937,-9.69
03.953,-12.05
03.968,-13.66
03.984,-14.19
04.000,-13.93
04.015,-13.64
04.031,-14.12
04.046,-15.65
04.062,-17.9
04.078,-19.96
04.093,-20.95
04.109,-20.34
04.125,-18.27
04.140,-15.49
04.156,-12.88
04.171,-11.11
04.187,-10.28
04.203,-10.12
04.218,-10.03
04.234,-9.52
04.250,-8.25
04.265,-6.12
04.281,-3.25
04.296,0.03
04.312,3.27
04.328,6.0
04.343,7.59
04.359,7.72
04.375,6.22
04.390,3.09
04.406,-1.38
04.421,-6.7
04.437,-12.1
04.453,-16.65
04.468,-19.33
04.484,-19.58
04.500,-17.42
04.515,-13.76
04.531,-10.11
04.546,-7.89
04.562,-7.99
04.578,-10.24
04.593,-13.76
04.609,-17.26
04.625,-19.7
04.640,-20.48
04.656,-19.44
04.671,-16.57
04.687,-11.67
04.703,-4.8
04.718,3.62
04.734,12.49
04.750,20.11
04.765,24.65
04.781,25.01
04.796,21.17
04.812,14.28
04.828,6.33
04.843,-1.01
04.859,-6.78
04.875,-11.04
04.890,-14.59
04.906,-18.32
04.921,-22.39
04.937,-26.19
04.953,-28.61
04.968,-28.51
04.984,-25.57
05.000,-20.39
05.015,-14.31
05.031,-8.67
05.046,-4.14
05.062,-0.23
05.078,4.61
05.093,12.38
05.109,24.78
05.125,42.56
05.140,65.07
05.156,90.25
05.171,114.75
05.187,134.51
05.203,145.33
05.218,143.75
05.234,127.96
05.250,98.65
05.265,59.03
05.281,14.49
05.296,-28.71
05.312,-64.85
05.328,-89.69
05.343,-101.37
05.359,-100.4
05.375,-89.32
05.390,-71.96
05.406,-52.7
05.421,-35.51
05.437,-23.18
05.453,-16.82
05.468,-15.79
05.484,-18.25
05.500,-21.98
05.515,-25.31
05.531,-27.55
05.546,-28.85
05.562,-29.89
05.578,-31.25
05.593,-33.19
05.609,-35.63
05.625,-38.34
05.640,-40.97
05.656,-43.3
05.671,-45.15
05.687,-46.41
05.703,-47.12
05.718,-47.38
05.734,-47.51
05.750,-47.86
05.765,-48.87
05.781,-50.86
05.796,-53.96
05.812,-57.94
05.828,-62.1
05.843,-65.44
05.859,-66.7
05.875,-65.1
05.890,-60.54
05.906,-53.78
05.921,-46.05
05.937,-38.51
05.953,-31.67
05.968,-25.32
05.984,-18.94
06.000,-12.16
06.015,-5.27
06.031,0.89
06.046,5.4
06.062,7.82
06.078,8.4
06.093,7.95
06.109,7.34
06.125,7.0
06.140,6.79
06.156,6.19
06.171,4.75
06.187,2.65
06.203,0.54
06.218,-0.6
06.234,-0.06
06.250,2.11
06.265,5.02
06.281,7.43
06.296,8.16
06.312,6.82
06.328,4.02
06.343,0.98
06.359,-0.89
06.375,-0.58
06.390,2.05
06.406,6.42
06.421,11.64
06.437,16.76
06.453,21.17
06.468,24.57
06.484,26.65
06.500,27.07
06.515,25.44
06.531,21.5
06.546,15.41
06.562,8.02
06.578,0.64
06.593,-5.22
06.609,-8.46
06.625,-8.78
06.640,-6.84
06.656,-3.74
06.671,-0.71
06.687,1.75
06.703,3.98
06.718,6.9
06.734,11.49
06.750,18.21
06.765,26.51
06.781,35.16
06.796,42.73
06.812,48.1
06.828,51.08
06.843,52.22
06.859,52.29
06.875,51.82
06.890,50.69
06.906,48.14
06.921,43.23
06.937,35.37
06.953,24.75
06.968,12.48
06.984,0.25
07.000,-10.23
07.015,-17.83
07.031,-22.28
07.046,-24.26
07.062,-24.94
07.078,-25.24
07.093,-25.52
07.109,-25.41
07.125,-24.22
07.140,-21.86
07.156,-18.93
07.171,-16.82
07.187,-16.85
07.203,-19.43
07.218,-23.75
07.234,-28.31
07.250,-32.05
07.265,-35.24
07.281,-39.62
07.296,-47.19
07.312,-58.98
07.328,-74.09
07.343,-90.08
07.359,-104.43
07.375,-115.79
07.390,-124.46
07.406,-131.02
07.421,-134.97
07.437,-133.84
07.453,-124.04
07.468,-103.01
07.484,-71.37
07.500,-33.75
07.515,2.68
07.531,31.01
07.546,47.37
07.562,52.05
07.578,48.88
07.593,42.98
07.609,38.42
07.625,36.97
07.640,37.89
07.656,39.14
07.671,38.87
07.687,36.54
07.703,33.03
07.718,30.07
07.734,29.12
07.750,30.49
07.765,33.19
07.781,35.42
07.796,35.74
07.812,33.84
07.828,30.77
07.843,28.16
07.859,27.29
07.875,28.33
07.890,30.11
07.906,30.91
07.921,29.29
07.937,24.99
07.953,18.99
07.968,12.91
07.984,8.19
08.000,5.36
08.015,3.91
08.031,2.7
08.046,0.65
08.062,-2.57
08.078,-6.34
08.093,-9.47
08.109,-10.8
08.125,-9.78
08.140,-6.66
08.156,-2.42
08.171,1.94
08.187,5.74
08.203,8.93
08.218,11.96
08.234,15.29
08.250,19.16
08.265,23.39
08.281,27.57
08.296,31.23
08.312,34.17
08.328,36.59
08.343,38.83
08.359,41.28
08.375,44.04
08.390,46.89
08.406,49.39
08.421,51.17
08.437,52.02
08.453,52.14
08.468,51.95
08.484,51.86
08.500,52.03
08.515,52.22
08.531,52.0
08.546,50.86
08.562,48.61
08.578,45.37
08.593,41.64
08.609,38.02
08.625,34.96
08.640,32.65
08.656,30.82
08.671,29.02
08.687,26.67
08.703,23.45
08.718,19.38
08.734,14.79
08.750,10.08
08.765,5.45
08.781,0.75
08.796,-4.41
08.812,-10.49
08.828,-17.55
08.843,-25.13
08.859,-32.37
08.875,-38.3
08.890,-42.27
08.906,-44.06
08.921,-43.93
08.937,-42.27
08.953,-39.44
08.968,-35.69
08.984,-31.14
09.000,-25.95
09.015,-20.46
09.031,-15.18
09.046,-10.64
09.062,-7.26
09.078,-5.1
09.093,-3.85
09.109,-3.01
09.125,-1.93
09.140,-0.14
09.156,2.4
09.171,5.29
09.187,8.03
09.203,10.21
09.218,11.74
09.234,12.98
09.250,14.32
09.265,16.08
09.281,18.15
09.296,20.08
09.312,21.3
09.328,21.47
09.343,20.65
09.359,19.2
09.375,17.71
09.390,16.37
09.406,15.04
09.421,13.23
09.437,10.41
09.453,6.47
09.468,1.8
09.484,-2.92
09.500,-6.89
09.515,-9.71
09.531,-11.56
09.546,-13.07
09.562,-14.97
09.578,-17.7
09.593,-21.16
09.609,-24.81
09.625,-28.02
09.640,-30.21
09.656,-31.11
09.671,-30.81
09.687,-29.38
09.703,-26.84
09.718,-23.19
09.734,-18.35
09.750,-12.41
09.765,-5.88
09.781,0.58
09.796,6.24
09.812,10.55
09.828,13.44
09.843,15.28
09.859,16.58
09.875,17.93
09.890,19.56
09.906,21.37
09.921,23.02
09.937,24.23
09.953,24.88
09.968,25.2
09.984,25.58
10.000,26.3
10.015,27.42
10.031,28.56
10.046,29.19
10.062,28.86
10.078,27.4
10.093,25.11
10.109,22.58
10.125,20.31
10.140,18.59
10.156,17.31
10.171,15.94
10.187,13.98
10.203,11.15
10.218,7.52
10.234,3.49
10.250,-0.31
10.265,-3.48
10.281,-5.92
10.296,-7.79
10.312,-9.53
10.328,-11.52
10.343,-13.92
10.359,-16.77
10.375,-19.89
10.390,-23.1
10.406,-26.22
10.421,-29.11
10.437,-31.42
10.453,-32.61
10.468,-32.03
10.484,-29.07
10.500,-23.59
10.515,-15.96
10.531,-7.18
10.546,1.56
10.562,9.21
10.578,15.2
10.593,19.57
10.609,22.72
10.625,25.16
10.640,27.07
10.656,28.39
10.671,28.87
10.687,28.34
10.703,26.93
10.718,25.17
10.734,23.66
10.750,22.97
10.765,23.37
10.781,24.68
10.796,26.5
10.812,28.43
10.828,30.16
10.843,31.62
10.859,32.87
10.875,33.92
10.890,34.64
10.906,34.8
10.921,34.07
10.937,32.25
10.953,29.4
10.968,25.79
10.984,21.83
11.000,17.88
11.015,14.13
11.031,10.46
11.046,6.68
11.062,2.59
11.078,-1.8
11.093,-6.17
11.109,-10.14
11.125,-13.43
11.140,-16.04
11.156,-18.41
11.171,-21.14
11.187,-24.6
11.203,-28.68
11.218,-32.67
11.234,-35.51
11.250,-36.13
11.265,-33.99
11.281,-29.19
11.296,-22.47
11.312,-14.84
11.328,-7.26
11.343,-0.32
11.359,5.75
11.375,10.93
11.390,15.36
11.406,19.06
11.421,21.98
11.437,24.06
11.453,25.37
11.468,26.26
11.484,27.1
11.500,28.29
11.515,29.91
11.531,31.68
11.546,33.17
11.562,33.95
11.578,33.91
11.593,33.35
11.609,32.82
11.625,32.72
11.640,33.11
11.656,33.64
11.671,33.7
11.687,32.78
11.703,30.74
11.718,27.87
11.734,24.67
11.750,21.57
11.765,18.82
11.781,16.15
11.796,13.18
11.812,9.58
11.828,5.3
11.843,0.71
11.859,-3.6
11.875,-7.14
11.890,-9.86
11.906,-12.06
11.921,-14.4
11.937,-17.43
11.953,-21.47
11.968,-26.29
11.984,-31.29
12.000,-35.8
12.015,-39.18
12.031,-41.08
12.046,-41.31
12.062,-39.83
12.078,-36.52
12.093,-31.37
12.109,-24.4
12.125,-15.85
12.140,-6.32
12.156,3.38
12.171,12.31
12.187,19.7
12.203,25.18
12.218,28.86
12.234,31.24
12.250,32.78
12.265,33.87
12.281,34.57
12.296,34.74
12.312,34.31
12.328,33.4
12.343,32.41
12.359,31.82
12.375,31.98
12.390,32.78
12.406,33.83
12.421,34.51
12.437,34.42
12.453,33.45
12.468,31.88
12.484,30.15
12.500,28.57
12.515,27.05
12.531,25.26
12.546,22.71
12.562,19.17
12.578,14.73
12.593,9.79
12.609,4.94
12.625,0.7
12.640,-2.74
12.656,-5.58
12.671,-8.19
12.687,-11.02
12.703,-14.35
12.718,-18.24
12.734,-22.52
12.750,-26.98
12.765,-31.21
12.781,-34.79
12.796,-37.25
12.812,-38.03
12.828,-36.67
12.843,-32.93
12.859,-26.92
12.875,-19.11
12.890,-10.32
12.906,-1.44
12.921,6.73
12.937,13.6
12.953,18.95
12.968,22.82
12.984,25.47
13.000,27.2
13.015,28.28
13.031,28.87
13.046,28.97
13.062,28.63
13.078,27.92
13.093,27.04
13.109,26.3
13.125,25.94
13.140,26.01
13.156,26.34
13.171,26.55
13.187,26.27
13.203,25.39
13.218,23.99
13.234,22.43
13.250,20.96
13.265,19.72
13.281,18.5
13.296,16.96
13.312,14.7
13.328,11.56
13.343,7.75
13.359,3.68
13.375,-0.11
13.390,-3.31
13.406,-5.92
13.421,-8.27
13.437,-10.93
13.453,-14.31
13.468,-18.52
13.484,-23.19
13.500,-27.71
13.515,-31.23
13.531,-33.06
13.546,-32.83
13.562,-30.45
13.578,-26.19
13.593,-20.42
13.609,-13.61
13.625,-6.11
13.640,1.6
13.656,9.09
13.671,15.85
13.687,21.38
13.703,25.34
13.718,27.67
13.734,28.66
13.750,28.69
13.765,28.29
13.781,27.71
13.796,27.02
13.812,26.14
13.828,25.06
13.843,23.86
13.859,22.77
13.875,22.07
13.890,21.86
13.906,22.03
13.921,22.21
13.937,21.95
13.953,20.94
13.968,19.12
13.984,16.69
14.000,13.97
14.015,11.2
14.031,8.51
14.046,5.83
14.062,3.05
14.078,0.06
14.093,-3.04
14.109,-6.02
14.125,-8.68
14.140,-10.91
14.156,-12.98
14.171,-15.31
14.187,-18.38
14.203,-22.46
14.218,-27.42
14.234,-32.62
14.250,-37.13
14.265,-39.95
14.281,-40.37
14.296,-38.14
14.312,-33.5
14.328,-27.0
14.343,-19.32
14.359,-11.09
14.375,-2.86
14.390,4.96
14.406,11.95
14.421,17.74
14.437,22.05
14.453,24.74
14.468,26.0
14.484,26.21
14.500,25.91
14.515,25.57
14.531,25.42
14.546,25.39
14.562,25.23
14.578,24.67
14.593,23.69
14.609,22.51
14.625,21.47
14.640,20.91
14.656,20.84
14.671,20.93
14.687,20.69
14.703,19.69
14.718,17.73
14.734,14.96
14.750,11.74
14.765,8.41
14.781,5.12
14.796,1.81
14.812,-1.73
14.828,-5.53
14.843,-9.37
14.859,-12.87
14.875,-15.64
14.890,-17.53
14.906,-18.77
14.921,-19.98
14.937,-21.91
14.953,-25.14
14.968,-29.76
14.984,-35.31
15.000,-40.85
15.015,-45.21
15.031,-47.33
15.046,-46.6
15.062,-43.04
15.078,-37.1
15.093,-29.53
15.109,-21.05
15.125,-12.24
15.140,-3.53
15.156,4.68
15.171,11.97
15.187,17.97
15.203,22.35
15.218,25.2
15.234,26.84
15.250,27.83
15.265,28.62
15.281,29.41
15.296,30.04
15.312,30.14
15.328,29.46
15.343,27.96
15.359,25.99
15.375,24.05
15.390,22.61
15.406,21.91
15.421,21.79
15.437,21.81
15.453,21.42
15.468,20.39
15.484,18.67
15.500,16.6
15.515,14.51
15.531,12.53
15.546,10.62
15.562,8.44
15.578,5.66
15.593,2.12
15.609,-2.06
15.625,-6.56
15.640,-10.97
15.656,-14.99
15.671,-18.66
15.687,-22.05
15.703,-25.47
15.718,-29.02
15.734,-32.74
15.750,-36.44
15.765,-39.92
15.781,-42.88
15.796,-45.03
15.812,-46.2
15.828,-46.1
15.843,-44.42
15.859,-40.83
15.875,-35.13
15.890,-27.39
15.906,-18.1
15.921,-8.15
15.937,1.51
15.953,9.92
15.968,16.57
15.984,21.37
16.000,24.67
16.015,26.89
16.031,28.36
16.046,29.19
16.062,29.19
16.078,28.25
16.093,26.42
16.109,24.12
16.125,21.92
16.140,20.39
16.156,19.83
16.171,20.13
16.187,20.94
16.203,21.77
16.218,22.28
16.234,22.42
16.250,22.32
16.265,22.12
16.281,21.78
16.296,21.07
16.312,19.67
16.328,17.41
16.343,14.26
16.359,10.6
16.375,6.87
16.390,3.51
16.406,0.75
16.421,-1.51
16.437,-3.6
16.453,-5.83
16.468,-8.32
16.484,-11.06
16.500,-13.89
16.515,-16.65
16.531,-19.4
16.546,-22.37
16.562,-25.91
16.578,-30.21
16.593,-35.09
16.609,-39.81
16.625,-43.3
16.640,-44.48
16.656,-42.66
16.671,-37.89
16.687,-30.82
16.703,-22.55
16.718,-14.11
16.734,-6.23
16.750,0.75
16.765,6.76
16.781,11.84
16.796,15.83
16.812,18.51
16.828,19.79
16.843,19.8
16.859,18.91
16.875,17.72
16.890,16.75
16.906,16.34
16.921,16.56
16.937,17.27
16.953,18.29
16.968,19.56
16.984,21.26
17.000,23.7
17.015,27.21
17.031,31.9
17.046,37.52
17.062,43.41
17.078,48.77
17.093,52.81
17.109,55.21
17.125,56.13
17.140,56.06
17.156,55.62
17.171,55.03
17.187,54.06
17.203,52.09
17.218,48.51
17.234,43.13
17.250,36.29
17.265,28.69
17.281,21.08
17.296,14.03
17.312,7.58
17.328,1.59
17.343,-4.21
17.359,-9.97
17.375,-15.77
17.390,-21.78
17.406,-28.45
17.421,-36.57
17.437,-46.96
17.453,-60.01
17.468,-75.18
17.484,-90.9
17.500,-104.92
17.515,-115.17
17.531,-120.35
17.546,-120.36
17.562,-116.11
17.578,-108.93
17.593,-100.01
17.609,-89.98
17.625,-78.92
17.640,-66.63
17.656,-52.78
17.671,-37.2
17.687,-19.93
17.703,-1.45
17.718,17.32
17.734,35.09
17.750,50.42
17.765,62.11
17.781,69.44
17.796,72.42
17.812,71.42
17.828,67.2
17.843,60.55
17.859,52.36
17.875,43.73
17.890,35.83
17.906,29.65
17.921,25.59
17.937,23.37
17.953,21.93
17.968,20.28
17.984,17.95
18.000,15.25
18.015,13.2
18.031,12.74
18.046,14.09
18.062,16.29
18.078,17.72
18.093,16.86
18.109,13.28
18.125,7.91
18.140,2.4
18.156,-1.61
18.171,-3.63
18.187,-4.53
18.203,-5.92
18.218,-9.2
18.234,-14.74
18.250,-21.58
18.265,-27.99
18.281,-32.48
18.296,-34.28
18.312,-33.84
18.328,-32.12
18.343,-29.91
18.359,-27.26
18.375,-23.6
18.390,-18.19
18.406,-10.86
18.421,-2.47
18.437,5.42
18.453,11.13
18.468,13.77
18.484,13.75
18.500,12.55
18.515,11.91
18.531,12.91
18.546,15.31
18.562,17.57
18.578,17.7
18.593,14.25
18.609,7.18
18.625,-2.08
18.640,-11.41
18.656,-18.86
18.671,-23.49
18.687,-25.65
18.703,-26.52
18.718,-27.23
18.734,-28.26
18.750,-29.23
18.765,-29.29
18.781,-27.85
18.796,-24.89
18.812,-21.21
18.828,-17.84
18.843,-15.57
18.859,-14.32
18.875,-13.27
18.890,-11.35
18.906,-7.9
18.921,-3.15
18.937,1.66
18.953,4.79
18.968,4.98
18.984,1.99
19.000,-3.07
19.015,-8.52
19.031,-12.88
19.046,-15.67
19.062,-17.54
19.078,-19.77
19.093,-23.44
19.109,-28.45
19.125,-33.58
19.140,-36.97
19.156,-37.2
19.171,-33.89
19.187,-28.0
19.203,-21.17
19.218,-14.94
19.234,-10.05
19.250,-6.26
19.265,-2.84
19.281,0.8
19.296,4.56
19.312,7.61
19.328,8.93
19.343,7.89
19.359,4.78
19.375,0.67
19.390,-3.12
19.406,-5.83
19.421,-7.57
19.437,-9.27
19.453,-12.02
19.468,-16.15
19.484,-20.93
19.500,-24.51
19.515,-24.9
19.531,-20.75
19.546,-12.22
19.562,-0.75
19.578,11.36
19.593,21.93
19.609,29.68
19.625,34.38
19.640,36.61
19.656,36.98
19.671,35.8
19.687,32.58
19.703,26.48
19.718,16.77
19.734,3.45
19.750,-12.4
19.765,-28.91
19.781,-43.92
19.796,-55.7
19.812,-63.32
19.828,-66.85
19.843,-66.81
19.859,-63.86
19.875,-58.35
19.890,-50.49
19.906,-40.72
19.921,-29.95
19.937,-19.58
19.953,-10.97
19.968,-5.13
19.984,-2.04
20.000,-0.86
20.015,-0.3
20.031,0.87
20.046,3.18
20.062,6.38
20.078,9.68
20.093,12.19
20.109,13.39
20.125,13.39
20.140,12.74
20.156,12.09
20.171,11.97
20.187,12.5
20.203,13.47
20.218,14.61
20.234,15.76
20.250,17.02
20.265,18.69
20.281,21.0
20.296,23.92
20.312,27.09
20.328,30.02
20.343,32.27
20.359,33.65
20.375,34.28
20.390,34.38
20.406,34.15
20.421,33.59
20.437,32.37
20.453,30.08
20.468,26.25
20.484,20.77
20.500,13.98
20.515,6.48
20.531,-0.98
20.546,-7.89
20.562,-14.21
20.578,-20.35
20.593,-26.88
20.609,-34.17
20.625,-42.01
20.640,-49.56
20.656,-55.77
20.671,-59.67
20.687,-60.82
20.703,-59.49
20.718,-56.36
20.734,-52.21
20.750,-47.76
20.765,-43.47
20.781,-39.72
20.796,-36.89
20.812,-35.55
20.828,-36.29
20.843,-39.55
20.859,-45.35
20.875,-53.19
20.890,-62.19
20.906,-71.39
20.921,-79.86
20.937,-86.94
20.953,-92.09
20.968,-94.8
20.984,-94.55
21.000,-90.66
21.015,-82.56
21.031,-70.0
21.046,-53.31
21.062,-33.45
21.078,-11.96
21.093,9.44
21.109,29.17
21.125,46.08
21.140,59.74
21.156,70.22
21.171,77.95
21.187,83.33
21.203,86.46
21.218,87.24
21.234,85.49
21.250,81.25
21.265,74.93
21.281,67.23
21.296,58.93
21.312,50.62
21.328,42.53
21.343,34.59
21.359,26.63
21.375,18.59
21.390,10.64
21.406,3.03
21.421,-4.06
21.437,-10.58
21.453,-16.6
21.468,-22.05
21.484,-26.63
21.500,-29.73
21.515,-30.72
21.531,-29.17
21.546,-25.19
21.562,-19.57
21.578,-13.51
21.593,-8.19
21.609,-4.35
21.625,-2.03
21.640,-0.87
21.656,-0.35
21.671,-0.19
21.687,-0.52
21.703,-1.77
21.718,-4.26
21.734,-8.02
21.750,-12.57
21.765,-17.06
21.781,-20.77
21.796,-23.23
21.812,-24.38
21.828,-24.55
21.843,-24.28
21.859,-23.89
21.875,-23.54
21.890,-23.05
21.906,-22.18
21.921,-20.83
21.937,-19.16
21.953,-17.6
21.968,-16.74
21.984,-16.93
22.000,-18.06
22.015,-19.63
22.031,-20.87
22.046,-21.14
22.062,-20.27
22.078,-18.58
22.093,-16.63
22.109,-15.03
22.125,-14.03
22.140,-13.59
22.156,-13.58
22.171,-13.87
22.187,-14.42
22.203,-15.33
22.218,-16.62
22.234,-17.98
22.250,-18.8
22.265,-18.21
22.281,-15.36
22.296,-9.74
22.312,-1.39
22.328,9.14
22.343,20.84
22.359,32.71
22.375,44.06
22.390,54.65
22.406,64.6
22.421,74.08
22.437,83.0
22.453,90.94
22.468,97.27
22.484,101.44
22.500,103.43
22.515,103.73
22.531,103.18
22.546,102.74
22.562,102.99
22.578,104.09
22.593,105.79
22.609,107.63
22.625,109.27
22.640,110.61
22.656,111.7
22.671,112.57
22.687,113.05
22.703,112.74
22.718,110.99
22.734,107.34
22.750,101.51
22.765,93.65
22.781,84.06
22.796,73.04
22.812,60.76
22.828,47.26
22.843,32.69
22.859,17.47
22.875,2.39
22.890,-11.63
22.906,-23.8
22.921,-33.77
22.937,-41.76
22.953,-48.41
22.968,-54.44
22.984,-60.31
23.000,-66.17
23.015,-71.7
23.031,-76.5
23.046,-80.21
23.062,-82.73
23.078,-84.28
23.093,-85.24
23.109,-85.99
23.125,-86.63
23.140,-87.08
23.156,-87.13
23.171,-86.69
23.187,-85.9
23.203,-85.25
23.218,-85.34
23.234,-86.5
23.250,-88.76
23.265,-91.54
23.281,-93.99
23.296,-95.16
23.312,-94.38
23.328,-91.43
23.343,-86.61
23.359,-80.44
23.375,-73.38
23.390,-65.71
23.406,-57.45
23.421,-48.68
23.437,-39.7
23.453,-31.2
23.468,-24.02
23.484,-18.78
23.500,-15.53
23.515,-13.75
23.531,-12.62
23.546,-11.46
23.562,-9.93
23.578,-8.08
23.593,-6.25
23.609,-4.65
23.625,-3.3
23.640,-2.0
23.656,-0.59
23.671,0.89
23.687,2.2
23.703,2.95
23.718,2.83
23.734,1.76
23.765,-1.79
23.781,-2.67
23.796,-1.66
23.812,1.94
23.828,8.33
23.843,17.13
23.859,27.57
23.875,38.82
23.890,50.22
23.906,61.37
23.921,71.97
23.937,81.74
23.953,90.2
23.968,96.89
23.984,101.51
24.000,104.2
24.015,105.46
24.031,106.06
24.046,106.53
24.062,107.08
24.078,107.53
24.093,107.4
24.109,106.26
24.125,103.9
24.140,100.36
24.156,95.83
24.171,90.48
24.187,84.23
24.203,76.92
24.218,68.32
24.234,58.35
24.250,47.23
24.265,35.41
24.281,23.41
24.296,11.66
24.312,0.37
24.328,-10.58
24.343,-21.47
24.359,-32.61
24.375,-44.1
24.390,-55.68
24.406,-66.78
24.421,-76.74
24.437,-84.94
24.453,-90.98
24.468,-94.69
24.484,-96.05
24.500,-95.1
24.515,-91.9
24.531,-86.49
24.546,-78.95
24.562,-69.57
24.578,-58.94
24.593,-48.09
24.609,-38.33
24.625,-30.87
24.640,-26.22
24.656,-23.98
24.671,-22.85
24.687,-21.22
24.703,-17.99
24.718,-12.92
24.734,-6.91
24.750,-1.26
24.765,2.95
24.781,5.31
24.796,6.12
24.812,5.95
24.828,5.16
24.843,3.66
24.859,1.14
24.875,-2.68
24.890,-7.66
24.906,-13.34
24.921,-19.27
24.937,-25.22
24.953,-31.41
24.968,-38.31
24.984,-46.1
25.000,-54.33
25.015,-61.75
25.031,-66.69
25.046,-67.78
25.062,-64.59
25.078,-57.82
25.093,-49.0
25.109,-39.73
25.125,-31.04
25.140,-22.96
25.156,-14.79
25.171,-5.57
25.187,5.42
25.203,18.29
25.218,32.71
25.234,48.08
25.250,63.69
25.265,78.87
25.281,92.99
25.296,105.31
25.312,115.13
25.328,121.78
25.343,124.69
25.359,123.52
25.375,118.2
25.390,108.91
25.406,96.06
25.421,80.19
25.437,61.84
25.453,41.39
25.468,19.2
25.484,-4.35
25.500,-28.56
25.515,-52.42
25.531,-74.7
25.546,-94.23
25.562,-110.27
25.578,-122.61
25.593,-131.74
25.609,-138.34
25.625,-143.09
25.640,-146.19
25.656,-147.58
25.671,-147.05
25.687,-144.39
25.703,-139.75
25.718,-133.51
25.734,-126.11
25.750,-117.86
25.765,-108.93
25.781,-99.2
25.796,-88.64
25.812,-77.27
25.828,-65.36
25.843,-53.41
25.859,-41.99
25.875,-31.51
25.890,-22.05
25.906,-13.46
25.921,-5.42
25.937,2.28
25.953,9.5
25.968,15.71
25.984,20.23
26.000,22.63
26.015,22.97
26.031,21.85
26.046,20.05
26.062,18.22
26.078,16.59
26.093,14.9
26.109,12.84
26.125,10.35
26.140,8.05
26.156,6.86
26.171,7.73
26.187,11.09
26.203,16.51
26.218,22.87
26.234,28.87
26.250,33.63
26.265,37.1
26.281,40.01
26.296,43.24
26.312,47.36
26.328,52.17
26.343,56.77
26.359,60.09
26.375,61.56
26.390,61.46
26.406,60.72
26.421,60.48
26.437,61.28
26.453,62.81
26.468,63.95
26.484,63.45
26.500,60.69
26.515,56.04
26.531,50.8
26.546,46.37
26.562,43.63
26.578,42.35
26.593,41.44
26.609,39.54
26.625,35.81
26.640,30.52
26.656,24.68
26.671,19.59
26.687,16.03
26.703,13.88
26.718,12.09
26.734,9.41
26.750,4.92
26.765,-1.43
26.781,-8.83
26.796,-16.16
26.812,-22.55
26.828,-27.72
26.843,-32.07
26.859,-36.36
26.875,-41.02
26.890,-45.76
26.906,-49.73
26.921,-51.78
26.937,-51.01
26.953,-47.3
26.968,-41.0
26.984,-32.63
27.000,-22.36
27.015,-9.77
27.031,5.86
27.046,24.71
27.062,46.19
27.078,68.54
27.093,89.47
27.109,107.02
27.125,120.27
27.140,129.81
27.156,137.23
27.171,144.35
27.187,152.26
27.203,161.04
27.218,169.57
27.234,176.3
27.250,180.0
27.265,180.11
27.281,177.07
27.296,171.82
27.312,165.39
27.328,158.38
27.343,150.99
27.359,143.09
27.375,134.54
27.390,125.55
27.406,116.56
27.421,108.06
27.437,100.37
27.453,93.41
27.468,86.82
27.484,80.25
27.500,73.63
27.515,67.18
27.531,61.38
27.546,56.47
27.562,52.24
27.578,48.03
27.593,42.78
27.609,35.69
27.625,26.56
27.640,15.92
27.656,4.8
27.671,-5.78
27.687,-15.38
27.703,-24.29
27.718,-33.51
27.734,-44.14
27.750,-56.88
27.765,-71.64
27.781,-87.46
27.796,-102.72
27.812,-115.61
27.828,-124.57
27.843,-128.76
27.859,-128.43
27.875,-124.83
27.890,-119.85
27.906,-115.31
27.921,-112.12
27.937,-109.95
27.953,-107.29
27.968,-102.09
27.984,-92.66
28.000,-78.56
28.015,-60.94
28.031,-42.26
28.046,-25.45
28.062,-12.79
28.078,-5.21
28.093,-2.29
28.109,-2.63
28.125,-4.62
28.140,-7.25
28.156,-10.28
28.171,-13.93
28.187,-18.27
28.203,-22.65
28.218,-25.98
28.234,-27.27
28.250,-26.32
28.265,-23.92
28.281,-21.56
28.296,-20.48
28.312,-21.14
28.328,-23.19
28.343,-25.87
28.359,-28.54
28.375,-31.1
28.390,-33.69
28.406,-36.53
28.421,-39.61
28.437,-42.72
28.453,-45.59
28.468,-48.26
28.484,-50.86
28.500,-53.48
28.515,-55.87
28.531,-57.41
28.546,-57.52
28.562,-55.86
28.578,-52.67
28.593,-48.83
28.609,-45.49
28.625,-43.65
28.640,-43.64
28.656,-45.22
28.671,-47.55
28.687,-49.95
28.703,-52.02
28.718,-54.09
28.734,-56.93
28.750,-61.2
28.765,-66.86
28.781,-72.81
28.796,-77.5
28.812,-79.45
28.828,-78.02
28.843,-73.86
28.859,-68.41
28.875,-63.22
28.890,-59.04
28.906,-55.42
28.921,-51.07
28.937,-44.82
28.953,-36.37
28.968,-26.79
28.984,-18.01
29.000,-11.96
29.015,-9.53
29.031,-10.3
29.046,-12.91
29.062,-15.92
29.078,-18.35
29.093,-20.0
29.109,-21.04
29.125,-21.73
29.140,-22.15
29.156,-22.13
29.171,-21.62
29.187,-20.95
29.203,-20.85
29.218,-22.39
29.234,-26.58
29.250,-34.03
29.265,-44.21
29.281,-54.9
29.296,-62.4
29.312,-62.62
29.328,-52.78
29.343,-33.02
29.359,-6.8
29.375,20.38
29.390,43.19
29.406,58.79
29.421,67.47
29.437,71.78
29.453,74.53
29.468,77.15
29.484,79.16
29.500,79.09
29.515,75.78
29.531,69.48
29.546,61.8
29.562,54.73
29.578,49.65
29.593,46.55
29.609,44.42
29.625,42.09
29.640,38.87
29.656,35.06
29.671,31.8
29.687,30.29
29.703,31.11
29.718,33.78
29.734,36.98
29.750,39.02
29.765,38.8
29.781,36.14
29.796,31.75
29.812,26.76
29.828,22.15
29.843,18.36
29.859,15.14
29.875,11.98
29.890,8.39
29.906,4.2
29.921,-0.23
29.937,-4.36
29.953,-7.65
29.968,-9.91
29.984,-11.29
30.000,-12.15
30.015,-12.75
30.031,-13.18
30.046,-13.38
30.062,-13.29
30.078,-13.12
30.093,-13.16
30.109,-13.84
30.125,-15.29
30.140,-17.29
30.156,-19.28
30.171,-20.5
30.187,-20.34
30.203,-18.51
30.218,-15.22
30.234,-10.93
30.250,-6.28
30.265,-1.81
30.281,2.2
30.296,5.74
30.312,8.96
30.328,12.03
30.343,15.01
30.359,17.73
30.375,20.0
30.390,21.71
30.406,22.99
30.421,24.15
30.437,25.51
30.453,27.21
30.468,29.03
30.484,30.53
30.500,31.25
30.515,30.89
30.531,29.58
30.546,27.74
30.562,25.94
30.578,24.56
30.593,23.67
30.609,23.02
30.625,22.24
30.640,21.04
30.656,19.44
30.671,17.71
30.687,16.13
30.703,14.98
30.718,14.19
30.734,13.44
30.750,12.31
30.765,10.47
30.781,7.85
30.796,4.72
30.812,1.47
30.828,-1.53
30.843,-4.1
30.859,-6.19
30.875,-7.97
30.890,-9.54
30.906,-11.0
30.921,-12.39
30.937,-13.74
30.953,-15.17
30.968,-16.84
30.984,-19.04
31.000,-21.8
31.015,-24.92
31.031,-27.92
31.046,-30.04
31.062,-30.59
31.078,-29.12
31.093,-25.6
31.109,-20.56
31.125,-14.9
31.140,-9.55
31.156,-5.13
31.171,-1.79
31.187,0.86
31.203,3.25
31.218,5.75
31.234,8.37
31.250,10.75
31.265,12.44
31.281,13.16
31.296,12.89
31.312,11.9
31.328,10.56
31.343,9.06
31.359,7.46
31.375,5.61
31.390,3.48
31.406,1.15
31.421,-1.04
31.437,-2.7
31.453,-3.5
31.468,-3.39
31.484,-2.59
31.500,-1.46
31.515,-0.38
31.531,0.43
31.546,0.99
31.562,1.4
31.578,1.72
31.593,1.99
31.609,2.0
31.625,1.5
31.640,0.33
31.656,-1.44
31.671,-3.59
31.687,-5.79
31.703,-7.74
31.718,-9.41
31.734,-10.92
31.750,-12.54
31.765,-14.52
31.781,-16.93
31.796,-19.65
31.812,-22.49
31.828,-25.18
31.843,-27.5
31.859,-29.29
31.875,-30.46
31.890,-30.86
31.906,-30.25
31.921,-28.33
31.937,-24.92
31.953,-20.01
31.968,-13.94
31.984,-7.34
32.000,-0.94
32.015,4.6
32.031,8.94
32.046,12.07
32.062,14.23
32.078,15.59
32.093,16.29
32.109,16.2
32.125,15.18
32.140,13.19
32.156,10.34
32.171,7.01
32.187,3.67
32.203,0.82
32.218,-1.2
32.234,-2.18
32.250,-2.11
32.265,-1.13
32.281,0.64
32.296,3.06
32.312,5.98
32.328,9.28
32.343,12.74
32.359,16.09
32.375,18.95
32.390,20.9
32.406,21.59
32.421,20.93
32.437,19.05
32.453,16.28
32.468,13.07
32.484,9.7
32.500,6.32
32.515,2.89
32.531,-0.66
32.546,-4.36
32.562,-8.0
32.578,-11.41
32.593,-14.36
32.609,-16.89
32.625,-19.26
32.640,-21.75
32.656,-24.48
32.671,-27.13
32.687,-29.05
32.703,-29.46
32.718,-27.75
32.734,-23.78
32.750,-17.95
32.765,-11.15
32.781,-4.2
32.796,2.24
32.812,7.93
32.828,12.86
32.843,17.1
32.859,20.55
32.875,22.99
32.890,24.13
32.906,23.81
32.921,22.32
32.937,20.22
32.953,18.31
32.968,17.21
32.984,17.17
33.000,18.06
33.015,19.5
33.031,21.15
33.046,22.81
33.062,24.63
33.078,26.76
33.093,29.38
33.109,32.42
33.125,35.48
33.140,38.05
33.156,39.66
33.171,40.15
33.187,39.71
33.203,38.83
33.218,38.04
33.234,37.73
33.250,37.96
33.265,38.46
33.281,38.99
33.296,39.39
33.312,39.84
33.328,40.59
33.343,41.88
33.359,43.6
33.375,45.35
33.390,46.56
33.406,46.69
33.421,45.55
33.437,43.24
33.453,40.2
33.468,36.91
33.484,33.81
33.500,31.01
33.515,28.42
33.531,26.05
33.546,24.02
33.562,22.81
33.578,22.84
33.593,24.11
33.609,25.93
33.625,26.78
33.640,24.85
33.656,18.67
33.671,8.14
33.687,-5.4
33.703,-19.46
33.718,-31.42
33.734,-39.57
33.750,-43.64
33.765,-44.61
33.781,-43.98
33.796,-42.98
33.812,-41.88
33.828,-40.19
33.843,-37.0
33.859,-31.38
33.875,-23.2
33.890,-13.42
33.906,-3.97
33.921,2.98
33.937,5.62
33.953,3.0
33.968,-4.57
33.984,-15.76
34.000,-28.6
34.015,-41.46
34.031,-53.21
34.046,-62.87
34.062,-69.01
34.078,-70.11
34.093,-65.8
34.109,-57.7
34.125,-49.3
34.140,-44.43
34.156,-45.28
34.171,-50.96
34.187,-57.93
34.203,-62.28
34.218,-62.14
34.234,-58.92
34.250,-56.3
34.265,-57.79
34.281,-64.54
34.296,-74.64
34.312,-84.48
34.328,-90.75
34.343,-92.38
34.359,-90.35
34.375,-86.54
34.390,-82.28
34.406,-77.91
34.421,-72.84
34.437,-66.26
34.453,-57.95
34.468,-48.44
34.484,-39.2
34.500,-31.62
34.515,-26.17
34.531,-22.0
34.546,-17.09
34.562,-9.04
34.578,4.04
34.593,22.62
34.609,45.4
34.625,69.56
34.640,91.54
34.656,107.82
34.671,115.5
34.687,112.64
34.703,98.36
34.718,72.72
34.734,36.54
34.750,-8.71
34.765,-61.0
34.781,-117.64
34.796,-175.27
34.812,-229.96
34.828,-277.48
34.843,-313.97
34.859,-336.53
34.875,-343.87
34.890,-336.39
34.906,-316.02
34.921,-285.59
34.937,-248.3
34.953,-207.13
34.968,-164.82
34.984,-123.83
35.000,-86.49
35.015,-54.87
35.031,-30.4
35.046,-13.52
35.062,-3.4
35.078,1.89
35.093,4.91
35.109,7.93
35.125,12.12
35.140,17.21
35.156,21.96
35.171,24.95
35.187,25.86
35.203,25.86
35.218,27.36
35.234,32.99
35.250,44.37
35.265,61.37
35.281,82.3
35.296,104.74
35.312,126.45
35.328,145.98
35.343,162.43
35.359,174.92
35.375,182.2
35.390,183.02
35.406,176.86
35.421,164.74
35.437,149.24
35.453,133.75
35.468,121.18
35.484,113.04
35.500,109.14
35.515,108.07
35.531,108.24
35.546,108.58
35.562,108.89
35.578,109.56
35.593,111.11
35.609,113.81
35.625,117.42
35.640,120.98
35.656,123.01
35.671,122.0
35.687,116.91
35.703,107.72
35.718,95.47
35.734,81.95
35.750,69.01
35.765,58.04
35.781,49.47
35.796,43.18
35.812,38.85
35.828,36.39
35.843,35.86
35.859,37.2
35.875,40.0
35.890,43.32
35.906,46.03
35.921,47.22
35.937,46.49
35.953,44.07
35.968,40.46
35.984,36.21
36.000,31.47
36.015,25.98
36.031,19.32
36.046,11.19
36.062,1.73
36.078,-8.27
36.093,-17.79
36.109,-25.85
36.125,-31.85
36.140,-35.72
36.156,-37.98
36.171,-39.27
36.187,-40.17
36.203,-40.9
36.218,-41.37
36.234,-41.41
36.250,-41.02
36.265,-40.41
36.281,-39.9
36.296,-39.81
36.312,-40.15
36.328,-40.72
36.343,-41.14
36.359,-41.16
36.375,-40.72
36.390,-40.02
36.406,-39.34
36.421,-38.94
36.437,-38.87
36.453,-38.98
36.468,-39.09
36.484,-39.08
36.500,-38.88
36.515,-38.66
36.531,-38.49
36.546,-38.31
36.562,-37.87
36.578,-36.76
36.593,-34.57
36.609,-31.09
36.625,-26.51
36.640,-21.21
36.656,-15.89
36.671,-11.04
36.687,-6.94
36.703,-3.47
36.718,-0.33
36.734,2.86
36.750,6.28
36.765,9.75
36.781,12.93
36.796,15.38
36.812,16.9
36.828,17.58
36.843,17.83
36.859,18.09
36.875,18.66
36.890,19.49
36.906,20.2
36.921,20.39
36.937,19.85
36.953,18.77
36.968,17.52
36.984,16.48
37.000,15.76
37.015,15.11
37.031,14.07
37.046,12.29
37.062,9.83
37.078,7.0
37.093,4.33
37.109,2.16
37.125,0.46
37.140,-1.07
37.156,-2.91
37.171,-5.43
37.187,-8.78
37.203,-12.63
37.218,-16.6
37.234,-20.24
37.250,-23.28
37.265,-25.68
37.281,-27.46
37.296,-28.59
37.312,-28.92
37.328,-28.26
37.343,-26.38
37.359,-23.34
37.375,-19.36
37.390,-14.97
37.406,-10.77
37.421,-7.2
37.437,-4.43
37.453,-2.33
37.468,-0.58
37.484,1.17
37.500,3.08
37.515,5.12
37.531,7.01
37.546,8.43
37.562,9.23
37.578,9.5
37.593,9.54
37.609,9.7
37.625,10.18
37.640,10.85
37.656,11.41
37.671,11.42
37.687,10.56
37.703,8.77
37.718,6.31
37.734,3.51
37.750,0.7
37.765,-1.91
37.781,-4.19
37.796,-5.7
37.812,-5.91
37.828,-4.12
37.843,0.16
37.859,6.87
37.875,15.26
37.890,24.08
37.906,31.82
37.921,37.25
37.937,39.82
37.953,39.61
37.968,37.26
37.984,33.56
38.000,29.21
38.015,24.66
38.031,20.17
38.046,16.1
38.062,12.93
38.078,11.21
38.093,11.5
38.109,13.98
38.125,18.46
38.140,24.33
38.156,30.87
38.171,37.31
38.187,43.16
38.203,48.06
38.218,51.72
38.234,53.82
38.250,53.97
38.265,51.91
38.281,47.43
38.296,40.76
38.312,32.35
38.328,22.97
38.343,13.49
38.359,4.72
38.375,-2.76
38.390,-8.63
38.406,-12.9
38.421,-15.84
38.437,-17.75
38.453,-18.87
38.468,-19.45
38.484,-19.59
38.500,-19.41
38.515,-19.03
38.531,-18.74
38.546,-18.81
38.562,-19.4
38.578,-20.56
38.593,-22.11
38.609,-23.74
38.625,-25.2
38.640,-26.3
38.656,-26.95
38.671,-27.24
38.687,-27.27
38.703,-27.16
38.718,-26.99
38.734,-26.85
38.750,-26.83
38.765,-27.05
38.781,-27.58
38.796,-28.42
38.812,-29.4
38.828,-30.18
38.843,-30.39
38.859,-29.58
38.875,-27.47
38.890,-24.12
38.906,-19.84
38.921,-15.32
38.937,-11.25
38.953,-8.11
38.968,-6.0
38.984,-4.72
39.000,-3.8
39.015,-2.81
39.031,-1.67
39.046,-0.43
39.062,0.68
39.078,1.41
39.093,1.79
39.109,1.97
39.125,2.1
39.140,2.27
39.156,2.4
39.171,2.28
39.187,1.78
39.203,0.93
39.218,-0.05
39.234,-0.85
39.250,-1.19
39.265,-0.88
39.281,0.16
39.296,1.99
39.312,4.78
39.328,8.76
39.343,13.99
39.359,20.28
39.375,27.06
39.390,33.5
39.406,38.85
39.421,42.61
39.437,44.78
39.453,45.81
39.468,46.32
39.484,46.79
39.500,47.4
39.515,48.02
39.531,48.17
39.546,47.1
39.562,43.94
39.578,37.94
39.593,28.8
39.609,17.03
39.625,3.92
39.640,-8.62
39.656,-18.57
39.671,-24.46
39.687,-25.65
39.703,-22.36
39.718,-15.3
39.734,-5.33
39.750,6.71
39.765,20.02
39.781,33.58
39.796,46.15
39.812,56.53
39.828,63.77
39.843,67.53
39.859,68.03
39.875,65.85
39.890,61.65
39.906,55.92
39.921,48.78
39.937,40.15
39.953,30.04
39.968,18.88
39.984,7.55
40.000,-2.81
40.015,-11.11
40.031,-16.75
40.046,-19.78
40.062,-20.81
40.078,-20.72
40.093,-20.31
40.109,-20.01
40.125,-19.94
40.140,-20.01
40.156,-20.14
40.171,-20.44
40.187,-21.07
40.203,-22.15
40.218,-23.55
40.234,-24.79
40.250,-25.31
40.265,-24.62
40.281,-22.54
40.296,-19.29
40.312,-15.36
40.328,-11.21
40.343,-7.18
40.359,-3.31
40.375,0.59
40.390,4.76
40.406,9.38
40.421,14.39
40.437,19.55
40.453,24.57
40.468,29.24
40.484,33.5
40.500,37.28
40.515,40.56
40.531,43.23
40.546,45.08
40.562,45.94
40.578,45.81
40.593,44.88
40.609,43.65
40.625,42.63
40.640,42.1
40.656,42.04
40.671,42.14
40.687,41.93
40.703,41.16
40.718,39.76
40.734,38.08
40.750,36.57
40.765,35.6
40.781,35.29
40.796,35.39
40.812,35.42
40.828,34.87
40.843,33.42
40.859,31.0
40.875,27.85
40.890,24.25
40.906,20.44
40.921,16.52
40.937,12.52
40.953,8.36
40.968,4.11
40.984,0.03
41.000,-3.51
41.015,-6.17
41.031,-7.78
41.046,-8.48
41.062,-8.61
41.078,-8.49
41.093,-8.32
41.109,-7.98
41.125,-7.13
41.140,-5.57
41.156,-3.42
41.171,-1.12
41.187,0.63
41.203,1.39
41.218,1.13
41.234,0.44
41.250,0.15
41.265,1.06
41.281,3.49
41.296,7.21
41.312,11.62
41.328,15.99
41.343,19.9
41.359,23.24
41.375,26.27
41.390,29.32
41.406,32.56
41.421,35.81
41.437,38.65
41.453,40.54
41.468,41.06
41.484,40.19
41.500,38.18
41.515,35.5
41.531,32.55
41.546,29.47
41.562,26.09
41.578,22.17
41.593,17.47
41.609,11.91
41.625,5.7
41.640,-0.85
41.656,-7.52
41.671,-14.23
41.687,-21.19
41.703,-28.66
41.718,-36.75
41.734,-45.33
41.750,-53.98
41.765,-62.28
41.781,-69.9
41.796,-76.86
41.812,-83.46
41.828,-90.02
41.843,-96.63
41.859,-102.94
41.875,-108.34
41.890,-112.16
41.906,-114.08
41.921,-114.13
41.937,-112.81
41.953,-110.74
41.968,-108.41
41.984,-105.94
42.000,-103.09
42.015,-99.34
42.031,-94.11
42.046,-86.97
42.062,-77.9
42.078,-67.15
42.093,-55.33
42.109,-43.05
42.125,-30.89
42.140,-19.19
42.156,-8.18
42.171,1.96
42.187,10.97
42.203,18.49
42.218,24.26
42.234,28.17
42.250,30.44
42.265,31.38
42.281,31.42
42.296,30.88
42.312,29.81
42.328,28.17
42.343,25.82
42.359,22.8
42.375,19.34
42.390,15.86
42.406,12.69
42.421,10.08
42.437,8.06
42.453,6.4
42.468,4.81
42.484,3.06
42.500,1.25
42.515,-0.39
42.531,-1.51
42.546,-2.05
42.562,-2.26
42.578,-2.54
42.593,-3.39
42.609,-5.05
42.625,-7.36
42.640,-9.86
42.656,-12.01
42.671,-13.35
42.687,-13.79
42.703,-13.55
42.718,-12.97
42.734,-12.33
42.750,-11.75
42.765,-11.18
42.781,-10.53
42.796,-9.65
42.812,-8.5
42.828,-7.09
42.843,-5.43
42.859,-3.43
42.875,-0.91
42.890,2.36
42.906,6.52
42.921,11.43
42.937,16.71
42.953,21.8
42.968,26.07
42.984,29.14
43.000,30.96
43.015,31.78
43.031,32.01
43.046,31.99
43.062,31.8
43.078,31.28
43.093,30.27
43.109,28.63
43.125,26.55
43.140,24.37
43.156,22.43
43.171,21.04
43.187,20.19
43.203,19.61
43.218,18.94
43.234,17.92
43.250,16.47
43.265,14.71
43.281,12.84
43.296,11.01
43.312,9.3
43.328,7.66
43.343,5.95
43.359,4.1
43.375,2.23
43.390,0.52
43.406,-0.88
43.421,-1.95
43.437,-2.89
43.453,-4.05
43.468,-5.73
43.484,-8.0
43.500,-10.68
43.515,-13.23
43.531,-15.07
43.546,-15.9
43.562,-15.7
43.578,-14.91
43.593,-14.07
43.609,-13.62
43.625,-13.49
43.640,-13.31
43.656,-12.57
43.671,-10.85
43.687,-8.15
43.703,-4.81
43.718,-1.4
43.734,1.59
43.750,3.96
43.765,5.83
43.781,7.5
43.796,9.13
43.812,10.73
43.828,12.03
43.843,12.78
43.859,12.86
43.875,12.43
43.890,11.82
43.906,11.4
43.921,11.36
43.937,11.55
43.953,11.72
43.968,11.56
43.984,11.06
44.000,10.38
44.015,9.91
44.031,9.93
44.046,10.45
44.062,11.21
44.078,11.64
44.093,11.15
44.109,9.29
44.125,6.06
44.140,1.77
44.156,-2.95
44.171,-7.53
44.187,-11.59
44.203,-15.0
44.218,-17.94
44.234,-20.62
44.250,-23.24
44.265,-25.82
44.281,-28.17
44.296,-30.09
44.312,-31.48
44.328,-32.45
44.343,-33.26
44.359,-34.21
44.375,-35.42
44.390,-36.71
44.406,-37.81
44.421,-38.37
44.437,-38.16
44.453,-37.22
44.468,-35.72
44.484,-33.81
44.500,-31.6
44.515,-28.93
44.531,-25.63
44.546,-21.6
44.562,-16.97
44.578,-12.08
44.593,-7.45
44.609,-3.58
44.625,-0.76
44.640,0.97
44.656,1.93
44.671,2.49
44.687,3.01
44.703,3.68
44.718,4.43
44.734,5.06
44.750,5.53
44.765,5.86
44.781,6.27
44.796,7.08
44.812,8.43
44.828,10.17
44.843,11.99
44.859,13.39
44.875,13.92
44.890,13.46
44.906,12.11
44.921,10.19
44.937,8.19
44.953,6.39
44.968,4.9
44.984,3.62
45.000,2.32
45.015,0.93
45.031,-0.47
45.046,-1.64
45.062,-2.41
45.078,-2.69
45.093,-2.77
45.109,-3.07
45.125,-3.98
45.140,-5.66
45.156,-7.98
45.171,-10.62
45.187,-13.38
45.203,-16.27
45.218,-19.44
45.234,-23.01
45.250,-26.69
45.265,-29.56
45.281,-30.37
45.296,-27.92
45.312,-21.58
45.328,-11.6
45.343,0.78
45.359,13.91
45.375,26.14
45.390,36.45
45.406,44.6
45.421,50.84
45.437,55.7
45.453,59.45
45.468,62.06
45.484,63.1
45.500,62.13
45.515,58.88
45.531,53.4
45.546,46.07
45.562,37.27
45.578,27.46
45.593,16.97
45.609,6.18
45.625,-4.47
45.640,-14.34
45.656,-22.78
45.671,-29.24
45.687,-33.44
45.703,-35.4
45.718,-35.28
45.734,-33.19
45.750,-28.98
45.765,-22.32
45.781,-12.88
45.796,-0.62
45.812,13.81
45.828,29.24
45.843,44.23
45.859,57.65
45.875,69.02
45.890,78.55
45.906,86.76
45.921,93.78
45.937,99.05
45.953,101.12
45.968,98.27
45.984,89.2
46.000,73.7
46.015,52.83
46.031,28.76
46.046,4.14
46.062,-18.58
46.078,-37.49
46.093,-51.5
46.109,-60.33
46.125,-64.32
46.140,-64.2
46.156,-60.93
46.171,-55.44
46.187,-48.47
46.203,-40.79
46.218,-33.07
46.234,-25.99
46.250,-20.13
46.265,-15.7
46.281,-12.49
46.296,-10.0
46.312,-7.64
46.328,-5.02
46.343,-2.22
46.359,0.4
46.375,2.43
46.390,3.7
46.406,4.53
46.421,5.54
46.437,7.33
46.453,10.21
46.468,14.0
46.484,18.0
46.500,21.4
46.515,23.52
46.531,24.14
46.546,23.59
46.562,22.56
46.578,21.75
46.593,21.53
46.609,21.83
46.625,22.03
46.640,21.57
46.656,20.04
46.671,17.32
46.687,13.68
46.703,9.46
46.718,4.8
46.734,-0.39
46.750,-6.15
46.765,-12.45
46.781,-18.9
46.796,-24.89
46.812,-29.93
46.828,-33.74
46.843,-36.4
46.859,-38.28
46.875,-39.85
46.890,-41.34
46.906,-42.86
46.921,-44.29
46.937,-45.51
46.953,-46.51
46.968,-47.37
46.984,-48.27
47.000,-49.32
47.015,-50.51
47.031,-51.5
47.046,-51.95
47.062,-51.53
47.078,-50.07
47.093,-47.84
47.109,-45.21
47.125,-42.7
47.140,-40.65
47.156,-39.15
47.171,-38.17
47.187,-37.57
47.203,-37.33
47.218,-37.43
47.234,-38.07
47.250,-39.26
47.265,-40.94
47.281,-42.84
47.296,-44.59
47.312,-45.96
47.328,-46.91
47.343,-47.63
47.359,-48.34
47.375,-49.23
47.390,-50.09
47.406,-50.5
47.421,-49.89
47.437,-47.81
47.453,-44.24
47.468,-39.51
47.484,-34.31
47.500,-29.24
47.515,-24.64
47.531,-20.36
47.546,-15.91
47.562,-10.72
47.578,-4.43
47.593,2.75
47.609,10.24
47.625,17.21
47.640,23.04
47.656,27.49
47.671,30.73
47.687,33.13
47.703,35.02
47.718,36.55
47.734,37.46
47.750,37.59
47.765,36.86
47.781,35.46
47.796,33.89
47.812,32.65
47.828,32.04
47.843,32.05
47.859,32.34
47.875,32.43
47.890,32.03
47.906,31.12
47.921,29.93
47.937,28.88
47.953,28.17
47.968,27.79
47.984,27.33
48.000,26.3
48.015,24.32
48.031,21.39
48.046,17.85
48.062,14.27
48.078,11.21
48.093,8.89
48.109,7.22
48.125,5.82
48.140,4.35
48.156,2.66
48.171,0.93
48.187,-0.46
48.203,-1.28
48.218,-1.48
48.234,-1.47
48.250,-1.78
48.265,-2.76
48.281,-4.46
48.296,-6.46
48.312,-8.13
48.328,-8.9
48.343,-8.48
48.359,-7.04
48.375,-5.05
48.390,-3.06
48.406,-1.34
48.421,0.13
48.437,1.66
48.453,3.54
48.468,5.9
48.484,8.47
48.500,10.71
48.515,12.09
48.531,12.38
48.546,11.87
48.562,11.21
48.578,11.11
48.593,12.01
48.609,13.91
48.625,16.37
48.640,18.87
48.656,21.04
48.671,22.68
48.687,23.87
48.703,24.68
48.718,25.07
48.734,24.94
48.750,24.1
48.765,22.57
48.781,20.57
48.796,18.54
48.812,16.87
48.828,15.78
48.843,15.29
48.859,15.01
48.875,14.47
48.890,13.17
48.906,10.91
48.921,7.8
48.937,4.2
48.953,0.48
48.968,-3.07
48.984,-6.3
49.000,-9.37
49.015,-12.39
49.031,-15.45
49.046,-18.41
49.062,-20.86
49.078,-22.29
49.093,-22.17
49.109,-20.23
49.125,-16.6
49.140,-11.8
49.156,-6.45
49.171,-1.15
49.187,3.73
49.203,8.05
49.218,11.74
49.234,14.68
49.250,16.61
49.265,17.34
49.281,16.88
49.296,15.71
49.312,14.53
49.328,14.03
49.343,14.62
49.359,16.14
49.375,18.02
49.390,19.46
49.406,19.9
49.421,19.23
49.437,17.84
49.453,16.3
49.468,15.04
49.484,14.26
49.500,13.69
49.515,13.04
49.531,12.01
49.546,10.66
49.562,9.23
49.578,8.02
49.593,7.17
49.609,6.51
49.625,5.79
49.640,4.62
49.656,2.95
49.671,0.88
49.687,-1.25
49.703,-3.12
49.718,-4.58
49.734,-5.7
49.750,-6.81
49.765,-8.2
49.781,-10.09
49.796,-12.36
49.812,-14.75
49.828,-16.83
49.843,-18.24
49.859,-18.81
49.875,-18.61
49.890,-17.9
49.906,-16.87
49.921,-15.59
49.937,-13.87
49.953,-11.53
49.968,-8.54
49.984,-5.16
50.000,-1.89
50.015,0.78
50.031,2.56
50.046,3.56
50.062,4.19
50.078,4.96
50.093,6.24
50.109,8.0
50.125,9.89
50.140,11.44
50.156,12.29
50.171,12.38
50.187,11.94
50.203,11.38
50.218,11.01
50.234,10.94
50.250,10.98
50.265,10.78
50.281,10.11
50.296,9.0
50.312,7.76
50.328,6.81
50.343,6.44
50.359,6.58
50.375,6.8
50.390,6.59
50.406,5.62
50.421,3.96
50.437,2.06
50.453,0.43
50.468,-0.57
50.484,-0.95
50.500,-1.11
50.515,-1.54
50.531,-2.64
50.546,-4.44
50.562,-6.67
50.578,-8.93
50.593,-10.92
50.609,-12.51
50.625,-13.87
50.640,-15.33
50.656,-17.26
50.671,-19.81
50.687,-22.85
50.703,-26.03
50.718,-28.89
50.734,-31.1
50.750,-32.53
50.765,-33.35
50.781,-33.77
50.796,-33.96
50.812,-33.91
50.828,-33.47
50.843,-32.47
50.859,-30.88
50.875,-28.89
50.890,-26.78
50.906,-24.83
50.921,-23.1
50.937,-21.36
50.953,-19.22
50.968,-16.5
50.984,-13.21
51.000,-9.74
51.015,-6.57
51.031,-4.09
51.046,-2.31
51.062,-0.89
51.078,0.62
51.093,2.59
51.109,4.95
51.125,7.29
51.140,9.01
51.156,9.7
51.171,9.26
51.187,8.09
51.203,6.82
51.218,6.02
51.234,6.02
51.250,6.75
51.265,7.78
51.281,8.62
51.296,8.98
51.312,8.81
51.328,8.38
51.343,8.05
51.359,8.01
51.375,8.27
51.390,8.61
51.406,8.75
51.421,8.47
51.437,7.82
51.453,7.05
51.468,6.46
51.484,6.19
51.500,6.14
51.515,5.89
51.531,4.98
51.546,3.21
51.562,0.82
51.578,-1.65
51.593,-3.56
51.609,-4.47
51.625,-4.44
51.640,-3.85
51.656,-3.24
51.671,-2.93
51.687,-2.8
51.703,-2.37
51.718,-1.15
51.734,1.06
51.750,4.05
51.765,7.17
51.781,9.76
51.796,11.31
51.812,11.77
51.828,11.47
51.843,10.95
51.859,10.65
51.875,10.74
51.890,11.16
51.906,11.67
51.921,12.15
51.937,12.6
51.953,13.12
51.968,13.86
51.984,14.84
52.000,15.94
52.015,16.9
52.031,17.5
52.046,17.71
52.062,17.75
52.078,17.92
52.093,18.48
52.109,19.43
52.125,20.49
52.140,21.15
52.156,20.96
52.171,19.63
52.187,17.23
52.203,14.18
52.218,10.94
52.234,7.92
52.250,5.31
52.265,2.95
52.281,0.62
52.296,-1.92
52.312,-4.75
52.328,-7.74
52.343,-10.7
52.359,-13.45
52.375,-15.95
52.390,-18.19
52.406,-20.33
52.421,-22.33
52.437,-23.96
52.453,-24.87
52.468,-24.67
52.484,-23.18
52.500,-20.55
52.515,-17.22
52.531,-13.75
52.546,-10.7
52.562,-8.22
52.578,-6.23
52.593,-4.46
52.609,-2.68
52.625,-0.93
52.640,0.55
52.656,1.43
52.671,1.53
52.687,0.92
52.703,0.04
52.718,-0.58
52.734,-0.55
52.750,0.25
52.765,1.51
52.781,2.76
52.796,3.56
52.812,3.71
52.828,3.39
52.843,2.96
52.859,2.85
52.875,3.2
52.890,3.86
52.906,4.37
52.921,4.34
52.937,3.6
52.953,2.31
52.968,0.87
52.984,-0.3
53.000,-1.06
53.015,-1.62
53.031,-2.32
53.046,-3.48
53.062,-5.02
53.078,-6.64
53.093,-7.87
53.109,-8.51
53.125,-8.64
53.140,-8.8
53.156,-9.54
53.171,-11.27
53.187,-13.93
53.203,-16.99
53.218,-19.8
53.234,-21.74
53.250,-22.52
53.265,-22.23
53.281,-21.23
53.296,-19.92
53.312,-18.52
53.328,-17.03
53.343,-15.32
53.359,-13.27
53.375,-10.94
53.390,-8.6
53.406,-6.6
53.421,-5.25
53.437,-4.57
53.453,-4.25
53.468,-3.85
53.484,-3.08
53.500,-1.89
53.515,-0.53
53.531,0.58
53.546,1.15
53.562,1.18
53.578,0.96
53.593,0.93
53.609,1.44
53.625,2.58
53.640,4.09
53.656,5.59
53.671,6.68
53.687,7.24
53.703,7.42
53.718,7.57
53.734,7.97
53.750,8.74
53.765,9.8
53.781,10.82
53.796,11.54
53.812,11.7
53.828,11.36
53.843,10.69
53.859,9.89
53.875,8.99
53.890,7.8
53.906,6.04
53.921,3.48
53.937,0.23
53.953,-3.34
53.968,-6.55
53.984,-8.9
54.000,-10.22
54.015,-10.79
54.031,-11.22
54.046,-12.07
54.062,-13.53
54.078,-15.27
54.093,-16.66
54.109,-16.97
54.125,-15.88
54.140,-13.5
54.156,-10.41
54.171,-7.33
54.187,-4.85
54.203,-3.13
54.218,-1.88
54.234,-0.68
54.250,0.84
54.265,2.7
54.281,4.55
54.296,5.95
54.312,6.57
54.328,6.44
54.343,5.99
54.359,5.79
54.375,6.25
54.390,7.48
54.406,9.09
54.421,10.52
54.437,11.37
54.453,11.49
54.468,11.06
54.484,10.48
54.500,10.03
54.515,9.76
54.531,9.53
54.546,9.05
54.562,8.14
54.578,6.9
54.593,5.6
54.609,4.58
54.625,4.07
54.640,3.94
54.656,3.85
54.671,3.39
54.687,2.29
54.703,0.55
54.718,-1.54
54.734,-3.67
54.750,-5.57
54.765,-7.11
54.781,-8.44
54.796,-9.73
54.812,-11.2
54.828,-12.94
54.843,-14.86
54.859,-16.76
54.875,-18.43
54.890,-19.66
54.906,-20.34
54.921,-20.54
54.937,-20.29
54.953,-19.53
54.968,-18.2
54.984,-16.15
55.000,-13.43
55.015,-10.32
55.031,-7.27
55.046,-4.76
55.062,-3.12
55.078,-2.35
55.093,-2.17
55.109,-2.16
55.125,-2.02
55.140,-1.65
55.156,-1.24
55.171,-1.02
55.187,-1.2
55.203,-1.78
55.218,-2.52
55.234,-2.97
55.250,-2.72
55.265,-1.38
55.281,1.13
55.296,4.66
55.312,8.94
55.328,13.53
55.343,18.11
55.359,22.46
55.375,26.52
55.390,30.27
55.406,33.69
55.421,36.56
55.437,38.52
55.453,39.22
55.468,38.48
55.484,36.32
55.500,32.94
55.515,28.65
55.531,23.63
55.546,17.97
55.562,11.72
55.578,4.97
55.593,-2.0
55.609,-8.73
55.625,-14.68
55.640,-19.46
55.656,-23.0
55.671,-25.43
55.687,-27.1
55.703,-28.23
55.718,-28.9
55.734,-28.92
55.750,-28.12
55.765,-26.38
55.781,-23.9
55.796,-21.16
55.812,-18.63
55.828,-16.69
55.843,-15.32
55.859,-14.27
55.875,-13.18
55.890,-11.81
55.906,-10.12
55.921,-8.25
55.937,-6.45
55.953,-4.8
55.968,-3.2
55.984,-1.39
56.000,0.87
56.015,3.64
56.031,6.64
56.046,9.36
56.062,11.3
56.078,12.13
56.093,12.01
56.109,11.34
56.125,10.71
56.140,10.52
56.156,10.81
56.171,11.32
56.187,11.6
56.203,11.37
56.218,10.54
56.234,9.41
56.250,8.26
56.265,7.33
56.281,6.64
56.296,5.98
56.312,5.05
56.328,3.7
56.343,2.02
56.359,0.33
56.375,-0.99
56.390,-1.73
56.406,-1.94
56.421,-1.98
56.437,-2.27
56.453,-3.21
56.468,-4.9
56.484,-7.13
56.500,-9.57
56.515,-11.78
56.531,-13.55
56.546,-14.78
56.562,-15.48
56.578,-15.66
56.593,-15.2
56.609,-13.9
56.625,-11.59
56.640,-8.36
56.656,-4.45
56.671,-0.43
56.687,3.1
56.703,5.73
56.718,7.37
56.734,8.22
56.750,8.67
56.765,9.02
56.781,9.4
56.796,9.79
56.812,10.08
56.828,10.24
56.843,10.36
56.859,10.68
56.875,11.37
56.890,12.45
56.906,13.76
56.921,14.91
56.937,15.56
56.953,15.49
56.968,14.73
56.984,13.5
57.000,12.15
57.015,11.0
57.031,10.21
57.046,9.75
57.062,9.36
57.078,8.88
57.093,8.18
57.109,7.39
57.125,6.73
57.140,6.28
57.156,6.0
57.171,5.65
57.187,4.91
57.203,3.6
57.218,1.82
57.234,-0.13
57.250,-1.84
57.265,-3.05
57.281,-3.84
57.296,-4.6
57.312,-5.82
57.328,-7.75
57.343,-10.29
57.359,-12.88
57.375,-14.76
57.390,-15.35
57.406,-14.34
57.421,-11.94
57.437,-8.64
57.453,-5.09
57.468,-1.71
57.484,1.33
57.500,4.08
57.515,6.71
57.531,9.2
57.546,11.4
57.562,13.05
57.578,13.93
57.593,14.01
57.609,13.52
57.625,12.79
57.640,12.12
57.656,11.64
57.671,11.29
57.687,10.84
57.703,10.11
57.718,9.09
57.734,7.96
57.750,7.07
57.765,6.64
57.781,6.77
57.796,7.31
57.812,7.87
57.828,8.06
57.843,7.58
57.859,6.41
57.875,4.76
57.890,3.04
57.906,1.53
57.921,0.4
57.937,-0.46
57.953,-1.37
57.968,-2.57
57.984,-4.14
58.000,-5.95
58.015,-7.68
58.031,-8.97
58.046,-9.79
58.062,-10.25
58.078,-10.7
58.093,-11.54
58.109,-12.85
58.125,-14.54
58.140,-16.39
58.156,-18.23
58.171,-20.0
58.187,-21.83
58.203,-23.68
58.218,-25.38
58.234,-26.5
58.250,-26.45
58.265,-24.87
58.281,-21.74
58.296,-17.52
58.312,-12.93
58.328,-8.74
58.343,-5.36
58.359,-2.8
58.375,-0.84
58.390,0.95
58.406,2.83
58.421,4.8
58.437,6.62
58.453,8.01
58.468,8.72
58.484,8.84
58.500,8.74
58.515,8.78
58.531,9.25
58.546,10.1
58.562,11.02
58.578,11.59
58.593,11.57
58.609,11.03
58.625,10.41
58.640,10.2
58.656,10.59
58.671,11.47
58.687,12.29
58.703,12.58
58.718,11.98
58.734,10.54
58.750,8.62
58.765,6.69
58.781,5.04
58.796,3.71
58.812,2.52
58.828,1.06
58.843,-0.85
58.859,-3.24
58.875,-5.88
58.890,-8.37
58.906,-10.33
58.921,-11.53
58.937,-12.05
58.953,-12.12
58.968,-12.19
58.984,-12.54
59.000,-13.27
59.015,-14.22
59.031,-15.15
59.046,-15.88
59.062,-16.43
59.078,-17.03
59.093,-17.83
59.109,-18.87
59.125,-19.8
59.140,-20.03
59.156,-19.09
59.171,-16.76
59.187,-13.49
59.203,-9.96
59.218,-6.9
59.234,-4.73
59.250,-3.33
59.265,-2.27
59.281,-0.97
59.296,0.79
59.312,2.96
59.328,5.05
59.343,6.61
59.359,7.43
59.375,7.64
59.390,7.61
59.406,7.7
59.421,8.12
59.437,8.69
59.453,9.12
59.468,9.09
59.484,8.51
59.500,7.56
59.515,6.56
59.531,5.88
59.546,5.69
59.562,5.94
59.578,6.31
59.593,6.5
59.609,6.31
59.625,5.79
59.640,5.21
59.656,4.83
59.671,4.86
59.687,5.19
59.703,5.51
59.718,5.44
59.734,4.83
59.750,3.78
59.765,2.54
59.781,1.42
59.796,0.52
59.812,-0.35
59.828,-1.52
59.843,-3.25
59.859,-5.65
59.875,-8.36
59.890,-10.82
59.906,-12.51
59.921,-13.07
59.937,-12.51
59.953,-11.18
59.968,-9.49
59.984,-7.8
