timestamp,value
00.000,-18.35
00.015,-23.01
00.031,-26.11
00.046,-27.62
00.062,-28.04
00.078,-28.17
00.093,-28.87
00.109,-30.55
00.125,-32.9
00.140,-35.08
00.156,-36.17
00.171,-35.67
00.187,-33.76
00.203,-31.05
00.218,-28.1
00.234,-25.16
00.250,-22.22
00.265,-19.32
00.281,-16.87
00.296,-15.68
00.312,-16.73
00.328,-20.56
00.343,-27.17
00.359,-35.75
00.375,-45.22
00.390,-54.61
00.406,-63.49
00.421,-72.14
00.437,-81.11
00.453,-90.94
00.468,-101.38
00.484,-111.31
00.500,-118.72
00.515,-121.48
00.531,-118.08
00.546,-108.17
00.562,-92.53
00.578,-72.32
00.593,-48.58
00.609,-21.82
00.625,7.59
00.640,38.77
00.656,69.94
00.671,98.57
00.687,122.25
00.703,139.59
00.718,150.65
00.734,156.52
00.750,158.58
00.765,157.59
00.781,153.69
00.796,146.74
00.812,136.72
00.828,123.81
00.843,108.1
00.859,89.36
00.875,67.07
00.890,41.27
00.906,13.33
00.921,-13.72
00.937,-36.0
00.953,-50.35
00.968,-55.86
00.984,-54.66
01.000,-51.09
01.015,-49.93
01.031,-54.23
01.046,-64.09
01.062,-76.67
01.078,-87.65
01.093,-93.11
01.109,-91.02
01.125,-81.8
01.140,-67.79
01.156,-52.11
01.171,-37.36
01.187,-25.01
01.203,-15.26
01.218,-7.55
01.234,-1.18
01.250,4.39
01.265,9.29
01.281,13.61
01.296,17.61
01.312,21.88
01.328,27.26
01.343,34.27
01.359,42.85
01.375,51.98
01.390,60.17
01.406,65.95
01.421,68.72
01.437,69.08
01.453,68.72
01.468,69.78
01.484,74.01
01.500,82.1
01.515,93.44
01.531,106.32
01.546,118.39
01.562,127.5
01.578,132.12
01.593,131.74
01.609,126.88
01.625,118.77
01.640,108.93
01.656,98.61
01.671,88.52
01.687,78.87
01.703,69.62
01.718,60.79
01.734,52.58
01.750,45.35
01.765,39.22
01.781,34.0
01.796,29.15
01.812,23.93
01.828,17.89
01.843,11.0
01.859,3.71
01.875,-3.26
01.890,-9.35
01.906,-14.35
01.921,-18.54
01.937,-22.37
01.953,-26.25
01.968,-30.19
01.984,-33.86
02.000,-36.72
02.015,-38.26
02.031,-38.32
02.046,-37.04
02.062,-34.78
02.078,-31.98
02.093,-28.99
02.109,-25.98
02.125,-23.05
02.140,-20.23
02.156,-17.42
02.171,-14.52
02.187,-11.21
02.203,-7.07
02.218,-1.66
02.234,5.38
02.250,14.29
02.265,25.05
02.281,37.45
02.296,51.1
02.312,65.29
02.328,79.22
02.343,91.99
02.359,102.91
02.375,111.63
02.390,118.18
02.406,122.9
02.421,126.17
02.437,128.23
02.453,129.05
02.468,128.36
02.484,125.69
02.500,120.58
02.515,112.63
02.531,101.58
02.546,87.46
02.562,70.64
02.578,51.8
02.593,31.76
02.609,11.34
02.625,-8.97
02.640,-28.99
02.656,-48.71
02.671,-68.15
02.687,-87.24
02.703,-105.69
02.718,-123.04
02.734,-138.72
02.750,-152.07
02.765,-162.52
02.781,-169.62
02.796,-173.28
02.812,-173.69
02.828,-171.35
02.843,-166.83
02.859,-160.68
02.875,-153.28
02.890,-145.1
02.906,-136.72
02.921,-128.89
02.937,-122.34
02.953,-117.42
02.968,-113.85
02.984,-110.72
03.000,-106.87
03.015,-101.37
03.031,-93.94
03.046,-85.12
03.062,-75.97
03.078,-67.61
03.093,-60.76
03.109,-55.53
03.125,-51.44
03.140,-47.78
03.156,-43.93
03.171,-39.57
03.187,-34.69
03.203,-29.45
03.218,-24.12
03.234,-18.93
03.250,-14.06
03.265,-9.73
03.281,-6.11
03.296,-3.37
03.312,-1.37
03.328,0.31
03.343,2.34
03.359,5.3
03.375,9.45
03.390,14.53
03.406,19.8
03.421,24.41
03.437,27.68
03.453,29.29
03.468,29.36
03.484,28.15
03.500,25.9
03.515,22.8
03.531,19.06
03.546,14.99
03.562,11.02
03.578,7.59
03.593,4.91
03.609,2.97
03.625,1.59
03.640,0.58
03.656,-0.05
03.671,-0.06
03.687,0.79
03.703,2.69
03.718,5.6
03.734,9.31
03.750,13.49
03.765,17.68
03.781,21.39
03.796,24.22
03.812,25.9
03.828,26.6
03.843,26.85
03.859,27.4
03.875,28.84
03.890,31.22
03.906,33.85
03.921,35.5
03.937,34.89
03.953,31.19
03.968,24.5
03.984,15.83
04.000,6.78
04.015,-1.05
04.031,-6.44
04.046,-8.99
04.062,-8.95
04.078,-7.07
04.093,-4.35
04.109,-1.69
04.125,0.22
04.140,1.11
04.156,1.17
04.171,1.01
04.187,1.36
04.203,2.71
04.218,5.06
04.234,7.74
04.250,9.71
04.265,9.93
04.281,7.82
04.296,3.43
04.312,-2.62
04.328,-9.45
04.343,-16.17
04.359,-21.97
04.375,-26.23
04.390,-28.51
04.406,-28.62
04.421,-26.75
04.437,-23.43
04.453,-19.4
04.468,-15.4
04.484,-11.92
04.500,-9.19
04.515,-7.21
04.531,-5.89
04.546,-5.26
04.562,-5.5
04.578,-6.84
04.593,-9.37
04.609,-12.82
04.625,-16.65
04.640,-20.12
04.656,-22.65
04.671,-23.97
04.687,-24.33
04.703,-24.4
04.718,-25.12
04.734,-27.22
04.750,-31.09
04.765,-36.64
04.781,-43.27
04.796,-50.19
04.812,-56.75
04.828,-62.58
04.843,-67.8
04.859,-72.74
04.875,-77.67
04.890,-82.5
04.906,-86.6
04.921,-89.05
04.937,-88.95
04.953,-85.66
04.968,-78.92
04.984,-68.79
05.000,-55.61
05.015,-39.88
05.031,-22.44
05.046,-4.23
05.062,13.94
05.078,31.84
05.093,50.08
05.109,69.84
05.125,92.18
05.140,117.21
05.156,143.86
05.171,170.11
05.187,194.03
05.203,214.56
05.218,231.67
05.234,245.89
05.250,257.54
05.265,266.1
05.281,270.35
05.296,269.04
05.312,261.61
05.328,248.68
05.343,231.95
05.359,213.66
05.375,195.96
05.390,180.26
05.406,167.06
05.421,155.89
05.437,145.71
05.453,135.52
05.468,124.9
05.484,114.33
05.500,105.06
05.515,98.37
05.531,94.68
05.546,92.98
05.562,90.98
05.578,85.99
05.593,76.03
05.609,60.5
05.625,39.95
05.640,15.24
05.656,-13.29
05.671,-46.27
05.687,-84.93
05.703,-130.3
05.718,-182.55
05.734,-240.86
05.750,-303.79
05.765,-369.28
05.781,-434.32
05.796,-494.2
05.812,-542.18
05.828,-570.54
05.843,-572.8
05.859,-546.25
05.875,-493.32
05.890,-421.03
05.906,-338.37
05.921,-253.21
05.937,-170.09
05.953,-90.05
05.968,-12.62
05.984,61.56
06.000,129.11
06.015,184.39
06.031,221.66
06.046,237.84
06.062,234.12
06.078,215.53
06.093,188.9
06.109,160.43
06.125,133.79
06.140,109.94
06.156,88.44
06.171,68.9
06.187,51.92
06.203,38.83
06.218,30.68
06.234,27.25
06.250,26.87
06.265,27.16
06.281,26.06
06.296,22.74
06.312,17.6
06.328,11.93
06.343,7.02
06.359,3.55
06.375,1.37
06.390,-0.33
06.406,-2.59
06.421,-6.07
06.437,-10.79
06.453,-16.04
06.468,-20.62
06.484,-23.34
06.500,-23.61
06.515,-21.61
06.531,-18.2
06.546,-14.68
06.562,-12.09
06.578,-10.93
06.593,-10.96
06.609,-11.4
06.625,-11.29
06.640,-10.02
06.656,-7.43
06.671,-3.79
06.687,0.31
06.703,4.22
06.718,7.42
06.734,9.58
06.750,10.64
06.765,10.74
06.781,10.07
06.796,8.98
06.812,7.82
06.828,6.96
06.843,6.7
06.859,7.14
06.875,8.14
06.890,9.33
06.906,10.21
06.921,10.27
06.937,9.23
06.953,7.08
06.968,4.12
06.984,0.78
07.000,-2.5
07.015,-5.46
07.031,-8.0
07.046,-10.16
07.062,-12.16
07.078,-14.17
07.093,-16.31
07.109,-18.62
07.125,-20.85
07.140,-22.65
07.156,-23.55
07.171,-23.21
07.187,-21.45
07.203,-18.43
07.218,-14.45
07.234,-9.94
07.250,-5.28
07.265,-0.69
07.281,3.63
07.296,7.51
07.312,10.75
07.328,13.2
07.343,14.81
07.359,15.86
07.375,16.84
07.390,18.29
07.406,20.63
07.421,23.76
07.437,27.15
07.453,30.0
07.468,31.62
07.484,31.74
07.500,30.54
07.515,28.52
07.531,26.17
07.546,23.85
07.562,21.65
07.578,19.65
07.593,17.94
07.609,16.61
07.625,15.59
07.640,14.59
07.656,13.03
07.671,10.31
07.687,6.17
07.703,0.73
07.718,-5.51
07.734,-11.93
07.750,-18.02
07.765,-23.5
07.781,-28.21
07.796,-31.88
07.812,-34.12
07.828,-34.33
07.843,-32.04
07.859,-27.04
07.875,-19.64
07.890,-10.76
07.906,-1.79
07.921,5.71
07.937,10.5
07.953,12.09
07.968,10.98
07.984,8.44
08.000,6.1
08.015,5.2
08.031,6.24
08.046,8.8
08.062,11.92
08.078,14.57
08.093,16.05
08.109,16.18
08.125,15.1
08.140,13.14
08.156,10.59
08.171,7.75
08.187,4.94
08.203,2.7
08.218,1.56
08.234,1.84
08.250,3.47
08.265,5.74
08.281,7.62
08.296,7.97
08.312,6.08
08.328,1.86
08.343,-4.09
08.359,-10.74
08.375,-17.03
08.390,-22.18
08.406,-25.98
08.421,-28.7
08.437,-31.08
08.453,-33.85
08.468,-37.33
08.484,-41.09
08.500,-43.92
08.515,-44.25
08.531,-40.77
08.546,-33.2
08.562,-22.61
08.578,-11.27
08.593,-1.84
08.609,3.63
08.625,4.35
08.640,1.01
08.656,-4.66
08.671,-10.71
08.687,-15.67
08.703,-18.98
08.718,-20.86
08.734,-22.1
08.750,-23.61
08.765,-26.24
08.781,-30.35
08.796,-35.74
08.812,-41.53
08.828,-46.19
08.843,-47.9
08.859,-45.05
08.875,-36.75
08.890,-23.18
08.906,-5.59
08.921,14.13
08.937,34.02
08.953,52.65
08.968,69.3
08.984,84.05
09.000,97.38
09.015,109.83
09.031,121.58
09.046,132.26
09.062,141.11
09.078,147.11
09.093,149.44
09.109,147.75
09.125,142.32
09.140,133.89
09.156,123.45
09.171,111.94
09.187,100.05
09.203,88.16
09.218,76.53
09.234,65.54
09.250,56.01
09.265,48.93
09.281,45.24
09.296,45.26
09.312,48.23
09.328,52.42
09.343,55.62
09.359,55.85
09.375,52.03
09.390,44.09
09.406,32.64
09.421,18.5
09.437,2.21
09.453,-15.86
09.468,-35.32
09.484,-55.51
09.500,-75.29
09.515,-93.31
09.531,-108.21
09.546,-118.82
09.562,-124.22
09.578,-123.71
09.593,-116.94
09.609,-104.04
09.625,-85.78
09.640,-63.59
09.656,-39.19
09.671,-14.25
09.687,10.1
09.703,33.45
09.718,55.9
09.734,77.79
09.750,99.35
09.765,120.58
09.781,141.28
09.796,161.29
09.812,180.42
09.828,198.36
09.843,214.53
09.859,227.94
09.875,237.48
09.890,242.33
09.906,242.35
09.921,238.09
09.937,230.34
09.953,219.44
09.968,204.6
09.984,183.91
10.000,155.06
10.015,116.39
10.031,67.91
10.046,11.48
10.062,-49.66
10.078,-112.01
10.093,-172.73
10.109,-230.32
10.125,-284.45
10.140,-335.51
10.156,-384.16
10.171,-431.15
10.187,-477.46
10.203,-523.7
10.218,-569.27
10.234,-611.18
10.250,-643.59
10.265,-658.96
10.281,-650.66
10.296,-615.83
10.312,-557.19
10.328,-482.73
10.343,-403.07
10.359,-328.22
10.375,-264.87
10.390,-215.53
10.406,-179.51
10.421,-154.6
10.437,-138.4
10.453,-128.76
10.468,-123.58
10.484,-120.55
10.500,-117.31
10.515,-112.12
10.531,-104.11
10.546,-93.41
10.562,-80.66
10.578,-66.45
10.593,-50.85
10.609,-33.47
10.625,-13.87
10.640,7.99
10.656,31.51
10.671,55.62
10.687,79.21
10.703,101.64
10.718,123.03
10.734,144.38
10.750,167.43
10.765,194.35
10.781,227.07
10.796,266.33
10.812,310.55
10.828,355.33
10.843,394.17
10.859,420.23
10.875,428.96
10.890,420.12
10.906,398.19
10.921,370.68
10.937,345.07
10.953,326.01
10.968,314.1
10.984,306.9
11.000,301.1
11.015,294.64
11.031,287.53
11.046,280.83
11.062,275.17
11.078,269.75
11.093,262.68
11.109,252.45
11.125,239.3
11.140,225.83
11.156,216.09
11.171,213.98
11.187,221.49
11.203,238.01
11.218,260.51
11.234,284.54
11.250,305.31
11.265,318.41
11.281,320.54
11.296,309.77
11.312,285.9
11.328,250.42
11.343,206.2
11.359,156.86
11.375,106.01
11.390,56.69
11.406,11.16
11.421,-28.91
11.437,-62.18
11.453,-87.32
11.468,-103.34
11.484,-109.92
11.500,-107.79
11.515,-98.94
11.531,-86.45
11.546,-73.97
11.562,-64.91
11.578,-61.87
11.593,-66.08
11.609,-77.41
11.625,-94.96
11.640,-117.47
11.656,-144.09
11.671,-174.47
11.687,-208.72
11.703,-247.17
11.718,-290.45
11.734,-339.46
11.750,-394.85
11.765,-456.31
11.781,-521.21
11.796,-584.06
11.812,-637.06
11.828,-672.17
11.843,-684.04
11.859,-672.11
11.875,-640.92
11.890,-598.1
11.906,-551.48
11.921,-506.53
11.937,-465.79
11.953,-429.57
11.968,-397.36
11.984,-368.89
12.000,-343.99
12.015,-322.11
12.031,-301.59
12.046,-280.05
12.062,-255.35
12.078,-226.81
12.093,-195.72
12.109,-164.57
12.125,-136.03
12.140,-111.35
12.156,-90.18
12.171,-70.79
12.187,-51.31
12.203,-30.9
12.218,-10.36
12.234,8.24
12.250,22.85
12.265,32.78
12.281,39.86
12.296,48.12
12.312,62.71
12.328,88.45
12.343,128.57
12.359,183.91
12.375,252.54
12.390,329.55
12.406,407.27
12.421,476.47
12.437,528.42
12.453,557.39
12.468,562.53
12.484,548.36
12.500,523.23
12.515,495.51
12.531,470.11
12.546,447.04
12.562,422.83
12.578,394.05
12.593,360.32
12.609,325.28
12.625,294.15
12.640,270.65
12.656,254.25
12.671,240.15
12.687,222.2
12.703,196.26
12.718,162.58
12.734,125.67
12.750,92.04
12.765,66.72
12.781,51.49
12.796,44.64
12.812,42.48
12.828,41.36
12.843,38.96
12.859,34.69
12.875,29.42
12.890,24.68
12.906,21.88
12.921,21.88
12.937,24.64
12.953,29.54
12.968,35.6
12.984,41.65
13.000,46.85
13.015,50.86
13.031,54.04
13.046,57.31
13.062,61.72
13.078,67.73
13.093,74.56
13.109,80.44
13.125,82.86
13.140,79.77
13.156,70.4
13.171,55.32
13.187,35.96
13.203,13.39
13.218,-12.29
13.234,-42.13
13.250,-76.84
13.265,-115.87
13.281,-156.6
13.296,-195.03
13.312,-227.1
13.328,-249.97
13.343,-262.4
13.359,-264.32
13.375,-255.81
13.390,-236.73
13.406,-206.98
13.421,-167.53
13.437,-121.17
13.453,-72.73
13.468,-27.94
13.484,8.57
13.500,34.95
13.515,52.39
13.531,63.82
13.546,72.3
13.562,79.79
13.578,87.24
13.593,95.51
13.609,106.2
13.625,121.42
13.640,142.64
13.656,169.14
13.671,197.36
13.687,221.69
13.703,236.37
13.718,237.56
13.734,224.35
13.750,198.39
13.765,162.72
13.781,120.61
13.796,74.96
13.812,28.52
13.828,-15.78
13.843,-54.88
13.859,-85.96
13.875,-106.98
13.890,-117.27
13.906,-117.73
13.921,-110.66
13.937,-99.22
13.953,-86.51
13.968,-74.91
13.984,-65.73
14.000,-59.22
14.015,-54.94
14.031,-52.46
14.046,-51.54
14.062,-52.24
14.078,-54.59
14.093,-58.13
14.109,-61.86
14.125,-64.55
14.140,-65.12
14.156,-63.23
14.171,-59.36
14.187,-54.56
14.203,-50.04
14.218,-46.59
14.234,-44.38
14.250,-42.98
14.265,-41.83
14.281,-40.42
14.296,-38.62
14.312,-36.61
14.328,-34.62
14.343,-32.8
14.359,-31.12
14.375,-29.41
14.390,-27.52
14.406,-25.51
14.421,-23.61
14.437,-22.15
14.453,-21.49
14.468,-21.71
14.484,-22.7
14.500,-24.11
14.515,-25.46
14.531,-26.35
14.546,-26.68
14.562,-26.63
14.578,-26.59
14.593,-26.91
14.609,-27.74
14.625,-28.99
14.640,-30.28
14.656,-31.26
14.671,-31.71
14.687,-31.64
14.703,-31.27
14.718,-30.85
14.734,-30.67
14.750,-30.79
14.765,-31.24
14.781,-31.86
14.796,-32.42
14.812,-32.64
14.828,-32.36
14.843,-31.51
14.859,-30.13
14.875,-28.37
14.890,-26.29
14.906,-23.98
14.921,-21.51
14.937,-18.89
14.953,-16.29
14.968,-13.82
14.984,-11.59
15.000,-9.64
15.015,-8.05
15.031,-6.78
15.046,-5.81
15.062,-5.16
15.078,-4.77
15.093,-4.61
15.109,-4.59
15.125,-4.6
15.140,-4.62
15.156,-4.69
15.171,-4.83
15.187,-5.08
15.203,-5.43
15.218,-5.87
15.234,-6.44
15.250,-7.16
15.265,-8.0
15.281,-8.9
15.296,-9.75
15.312,-10.43
15.328,-10.91
15.343,-11.26
15.359,-11.64
15.375,-12.2
15.390,-13.0
15.406,-13.97
15.421,-15.01
15.437,-15.99
15.453,-16.83
15.468,-17.48
15.484,-17.84
15.500,-17.73
15.515,-17.0
15.531,-15.57
15.546,-13.49
15.562,-11.03
15.578,-8.5
15.593,-6.2
15.609,-4.33
15.625,-2.94
15.640,-1.98
15.656,-1.4
15.671,-1.16
15.687,-1.23
15.703,-1.52
15.718,-1.91
15.734,-2.27
15.750,-2.49
15.765,-2.51
15.781,-2.4
15.796,-2.24
15.812,-2.14
15.828,-2.14
15.843,-2.2
15.859,-2.26
15.875,-2.28
15.890,-2.24
15.906,-2.19
15.921,-2.19
15.937,-2.29
15.953,-2.53
15.968,-2.98
15.984,-3.67
16.000,-4.69
16.015,-6.04
16.031,-7.72
16.046,-9.63
16.062,-11.7
16.078,-13.84
16.093,-16.02
16.109,-18.14
16.125,-20.04
16.140,-21.52
16.156,-22.34
16.171,-22.42
16.187,-21.8
16.203,-20.66
16.218,-19.24
16.234,-17.74
16.250,-16.34
16.265,-15.04
16.281,-13.93
16.296,-13.06
16.312,-12.6
16.328,-12.68
16.343,-13.26
16.359,-14.11
16.375,-14.83
16.390,-15.05
16.406,-14.57
16.421,-13.5
16.437,-12.23
16.453,-11.17
16.468,-10.57
16.484,-10.26
16.500,-9.72
16.515,-8.38
16.531,-5.83
16.546,-2.22
16.562,1.96
16.578,5.99
16.593,9.37
16.609,11.98
16.625,14.15
16.640,16.46
16.656,19.45
16.671,23.26
16.687,27.47
16.703,31.28
16.718,33.78
16.734,34.42
16.750,33.2
16.765,30.75
16.781,28.09
16.796,26.29
16.812,26.09
16.828,27.73
16.843,30.88
16.859,34.76
16.875,38.32
16.890,40.46
16.906,40.26
16.921,37.32
16.937,31.98
16.953,25.54
16.968,19.81
16.984,16.35
17.000,15.51
17.015,16.05
17.031,15.65
17.046,12.04
17.062,4.36
17.078,-6.42
17.093,-17.91
17.109,-27.47
17.125,-33.34
17.140,-35.05
17.156,-33.07
17.171,-28.14
17.187,-20.69
17.203,-10.77
17.218,1.82
17.234,17.17
17.250,34.91
17.265,53.92
17.281,71.97
17.296,85.5
17.312,90.1
17.328,81.72
17.343,58.54
17.359,22.32
17.375,-21.6
17.390,-65.89
17.406,-103.72
17.421,-130.63
17.437,-145.22
17.453,-148.34
17.468,-141.73
17.484,-127.29
17.500,-107.08
17.515,-83.83
17.531,-61.04
17.546,-42.49
17.562,-30.97
17.578,-27.26
17.593,-29.96
17.609,-35.94
17.625,-41.98
17.640,-45.96
17.656,-47.44
17.671,-47.28
17.687,-46.68
17.703,-46.41
17.718,-46.6
17.734,-46.88
17.750,-46.74
17.765,-45.78
17.781,-43.53
17.796,-39.22
17.812,-31.62
17.828,-19.44
17.843,-2.06
17.859,19.52
17.875,42.7
17.890,63.8
17.906,79.41
17.921,87.75
17.937,89.28
17.953,86.14
17.968,81.09
17.984,76.21
18.000,72.32
18.015,69.2
18.031,66.3
18.046,63.38
18.062,60.64
18.078,58.28
18.093,55.51
18.109,50.39
18.125,40.39
18.140,23.92
18.156,1.68
18.171,-22.73
18.187,-43.63
18.203,-55.33
18.218,-54.45
18.234,-41.5
18.250,-20.67
18.265,2.05
18.281,21.18
18.296,33.5
18.312,38.76
18.328,39.09
18.343,37.73
18.359,37.44
18.375,39.66
18.390,44.19
18.406,49.89
18.421,55.46
18.437,60.18
18.453,64.06
18.468,67.42
18.484,70.06
18.500,70.48
18.515,66.15
18.531,54.38
18.546,33.77
18.562,5.24
18.578,-27.77
18.593,-60.45
18.609,-88.23
18.625,-108.22
18.640,-119.56
18.656,-122.93
18.671,-119.66
18.687,-110.98
18.703,-98.02
18.718,-81.84
18.734,-63.85
18.750,-45.91
18.765,-30.0
18.781,-17.51
18.796,-8.99
18.812,-4.06
18.828,-1.82
18.843,-1.23
18.859,-1.46
18.875,-2.08
18.890,-3.03
18.906,-4.3
18.921,-5.58
18.937,-5.91
18.953,-3.71
18.968,2.79
18.984,14.88
19.000,32.72
19.015,54.96
19.031,79.09
19.046,101.97
19.062,120.6
19.078,132.71
19.093,137.13
19.109,133.82
19.125,123.76
19.140,108.7
19.156,90.86
19.171,72.3
19.187,54.52
19.203,37.92
19.218,21.88
19.234,5.08
19.250,-13.74
19.265,-35.03
19.281,-57.97
19.296,-80.51
19.312,-100.07
19.328,-114.41
19.343,-122.5
19.359,-124.79
19.375,-122.86
19.390,-118.63
19.406,-113.66
19.421,-109.0
19.437,-105.52
19.453,-104.08
19.468,-105.32
19.484,-108.85
19.500,-112.5
19.515,-112.71
19.531,-106.34
19.546,-93.05
19.562,-76.47
19.578,-62.78
19.593,-57.16
19.609,-60.17
19.625,-66.78
19.640,-68.77
19.656,-59.42
19.671,-37.68
19.687,-8.94
19.703,17.93
19.718,35.64
19.734,42.17
19.750,41.17
19.765,38.87
19.781,39.97
19.796,45.17
19.812,51.41
19.828,54.56
19.843,52.27
19.859,45.15
19.875,35.96
19.890,27.63
19.906,21.59
19.921,17.53
19.937,14.29
19.953,11.41
19.968,9.91
19.984,11.91
20.000,19.23
20.015,32.1
20.031,48.67
20.046,65.67
20.062,79.66
20.078,88.21
20.093,90.27
20.109,86.12
20.125,76.84
20.140,63.94
20.156,49.16
20.171,34.29
20.187,20.92
20.203,10.22
20.218,2.76
20.234,-1.47
20.250,-2.79
20.265,-1.65
20.281,1.5
20.296,6.15
20.312,11.63
20.328,17.06
20.343,21.58
20.359,24.56
20.375,25.75
20.390,25.26
20.406,23.36
20.421,20.28
20.437,16.11
20.453,11.0
20.468,5.23
20.484,-0.71
20.500,-6.15
20.515,-10.51
20.531,-13.49
20.546,-15.15
20.562,-15.89
20.578,-16.25
20.593,-16.72
20.609,-17.64
20.625,-19.11
20.640,-21.11
20.656,-23.55
20.671,-26.28
20.687,-29.1
20.703,-31.81
20.718,-34.11
20.734,-35.72
20.750,-36.52
20.765,-36.63
20.781,-36.43
20.796,-36.39
20.812,-36.9
20.828,-38.04
20.843,-39.52
20.859,-40.67
20.875,-40.62
20.890,-38.62
20.906,-34.26
20.921,-27.63
20.937,-19.36
20.953,-10.41
20.968,-1.87
20.984,5.31
21.000,10.6
21.015,13.96
21.031,15.84
21.046,16.97
21.062,18.12
21.078,19.92
21.093,22.58
21.109,25.91
21.125,29.33
21.140,32.15
21.156,33.75
21.171,33.83
21.187,32.49
21.203,30.25
21.218,27.96
21.234,26.63
21.250,27.25
21.265,30.42
21.281,36.07
21.296,43.3
21.312,50.41
21.328,55.28
21.343,55.81
21.359,50.56
21.375,39.12
21.390,22.18
21.406,1.25
21.421,-21.8
21.437,-45.25
21.453,-67.68
21.468,-87.99
21.484,-105.27
21.500,-118.57
21.515,-126.91
21.531,-129.46
21.546,-125.77
21.562,-116.11
21.578,-101.61
21.593,-84.13
21.609,-65.86
21.625,-48.96
21.640,-34.98
21.656,-24.74
21.671,-18.37
21.687,-15.53
21.703,-15.85
21.718,-19.06
21.734,-25.09
21.750,-33.71
21.765,-44.4
21.781,-56.26
21.796,-68.23
21.812,-79.19
21.828,-87.94
21.843,-93.09
21.859,-93.01
21.875,-86.32
21.890,-72.51
21.906,-52.56
21.921,-28.97
21.937,-4.98
21.953,16.59
21.968,34.48
21.984,49.27
22.000,62.65
22.015,76.19
22.031,90.21
22.046,103.5
22.062,113.89
22.078,119.53
22.093,119.66
22.109,114.95
22.125,107.15
22.140,98.19
22.156,89.54
22.171,81.84
22.187,75.08
22.203,69.03
22.218,63.69
22.234,59.38
22.250,56.42
22.265,54.95
22.281,54.62
22.296,54.66
22.312,54.23
22.328,52.65
22.343,49.73
22.359,45.72
22.375,41.34
22.390,37.28
22.406,34.12
22.421,32.07
22.437,31.04
22.453,30.68
22.468,30.54
22.484,30.33
22.500,30.06
22.515,30.06
22.531,30.9
22.546,33.19
22.562,37.39
22.578,43.71
22.593,51.91
22.609,61.09
22.625,69.7
22.640,75.84
22.656,77.75
22.671,74.45
22.687,66.07
22.703,53.77
22.718,39.17
22.734,23.84
22.750,8.69
22.765,-6.06
22.781,-20.58
22.796,-35.07
22.812,-49.37
22.828,-62.79
22.843,-74.15
22.859,-82.22
22.875,-85.9
22.890,-84.78
22.906,-79.14
22.921,-69.99
22.937,-58.37
22.953,-45.05
22.968,-30.28
22.984,-13.96
23.000,3.85
23.015,22.81
23.031,42.34
23.046,61.99
23.062,81.57
23.078,100.97
23.093,119.66
23.109,136.33
23.125,148.97
23.140,155.71
23.156,155.55
23.171,148.85
23.187,137.0
23.203,121.83
23.218,104.95
23.234,87.62
23.250,70.75
23.265,55.08
23.281,41.35
23.296,30.19
23.312,21.84
23.328,16.06
23.343,12.38
23.359,10.39
23.375,10.16
23.390,12.1
23.406,16.57
23.421,23.22
23.437,30.98
23.453,38.01
23.468,42.46
23.484,43.08
23.500,40.04
23.515,34.65
23.531,28.8
23.546,23.73
23.562,19.47
23.578,15.28
23.593,10.15
23.609,3.74
23.625,-3.66
23.640,-10.69
23.656,-15.9
23.671,-18.56
23.687,-19.42
23.703,-20.28
23.718,-22.62
23.734,-27.38
23.750,-34.6
23.765,-44.39
23.781,-55.82
23.796,-67.55
23.812,-78.02
23.828,-86.26
23.843,-91.87
23.859,-93.86
23.875,-91.66
23.890,-84.79
23.906,-74.12
23.921,-59.43
23.937,-40.05
23.953,-15.43
23.968,13.38
23.984,43.39
24.000,71.88
24.015,96.05
24.031,114.09
24.046,123.95
24.062,126.22
24.078,123.26
24.093,118.65
24.109,115.54
24.125,108.42
24.140,94.03
24.156,71.16
24.171,52.33
24.187,41.66
24.203,39.49
24.218,39.85
24.234,39.73
24.250,38.14
24.265,35.61
24.281,34.53
24.296,36.33
24.312,40.47
24.328,42.76
24.343,39.36
24.359,28.02
24.375,9.19
24.390,-15.28
24.406,-42.73
24.421,-69.5
24.437,-92.6
24.453,-109.94
24.468,-121.58
24.484,-127.26
24.500,-126.79
24.515,-120.23
24.531,-109.09
24.546,-96.09
24.562,-83.61
24.578,-73.32
24.593,-65.55
24.609,-60.28
24.625,-56.31
24.640,-52.25
24.656,-46.9
24.671,-40.06
24.687,-32.33
24.703,-24.38
24.718,-16.87
24.734,-10.27
24.750,-5.29
24.765,-2.16
24.781,-0.77
24.796,-0.5
24.812,-0.8
24.828,-1.16
24.843,-1.27
24.859,-1.16
24.875,-1.24
24.890,-2.27
24.906,-4.72
24.921,-8.54
24.937,-13.03
24.953,-17.04
24.968,-19.41
24.984,-19.39
25.000,-16.92
25.015,-12.62
25.031,-7.41
25.046,-2.09
25.062,2.83
25.078,7.14
25.093,10.64
25.109,12.92
25.125,13.33
25.140,11.26
25.156,6.35
25.171,-1.25
25.187,-10.87
25.203,-21.57
25.218,-32.32
25.234,-42.26
25.250,-50.59
25.265,-56.55
25.281,-59.38
25.296,-58.45
25.312,-53.65
25.328,-45.39
25.343,-34.78
25.359,-23.27
25.375,-12.2
25.390,-2.42
25.406,5.81
25.421,12.78
25.437,19.03
25.453,24.99
25.468,30.81
25.484,36.24
25.500,40.69
25.515,43.39
25.531,43.67
25.546,41.16
25.562,35.87
25.578,28.39
25.593,19.54
25.609,10.19
25.625,0.88
25.640,-8.27
25.656,-17.62
25.671,-27.75
25.687,-39.34
25.703,-53.01
25.718,-69.01
25.734,-87.25
25.750,-106.87
25.765,-126.22
25.781,-143.01
25.796,-154.86
25.812,-160.23
25.828,-159.07
25.843,-152.96
25.859,-144.4
25.875,-135.61
25.890,-127.24
25.906,-117.9
25.921,-104.88
25.937,-85.55
25.953,-58.76
25.968,-25.51
25.984,11.36
26.000,48.28
26.015,81.93
26.031,110.17
26.046,132.16
26.062,148.15
26.078,159.19
26.093,166.9
26.109,173.06
26.125,179.1
26.140,185.64
26.156,191.96
26.171,196.31
26.187,196.33
26.203,189.95
26.218,176.03
26.234,154.64
26.250,126.95
26.265,94.74
26.281,60.25
26.296,25.81
26.312,-6.16
26.328,-33.39
26.343,-54.17
26.359,-67.62
26.375,-73.95
26.390,-74.38
26.406,-70.75
26.421,-64.92
26.437,-58.41
26.453,-52.25
26.468,-47.04
26.484,-43.25
26.500,-41.41
26.515,-42.05
26.531,-45.46
26.546,-51.44
26.562,-59.09
26.578,-67.04
26.593,-73.84
26.609,-78.34
26.625,-80.03
26.640,-78.89
26.656,-75.34
26.671,-69.86
26.687,-63.0
26.703,-55.23
26.718,-47.15
26.734,-39.42
26.750,-32.7
26.765,-27.57
26.781,-24.19
26.796,-22.47
26.812,-22.02
26.828,-22.33
26.843,-22.95
26.859,-23.56
26.875,-23.86
26.890,-23.72
26.906,-23.08
26.921,-22.05
26.937,-20.96
26.953,-20.23
26.968,-20.36
26.984,-21.66
27.000,-24.24
27.015,-27.86
27.031,-32.1
27.046,-36.49
27.062,-40.69
27.078,-44.71
27.093,-48.75
27.109,-53.19
27.125,-58.35
27.140,-64.31
27.156,-70.88
27.171,-77.62
27.187,-83.98
27.203,-89.59
27.218,-94.37
27.234,-98.51
27.250,-102.3
27.265,-105.93
27.281,-109.3
27.296,-112.09
27.312,-113.85
27.328,-114.24
27.343,-113.21
27.359,-110.95
27.375,-107.78
27.390,-103.87
27.406,-99.18
27.421,-93.41
27.437,-86.14
27.453,-76.85
27.468,-64.86
27.484,-49.48
27.500,-30.03
27.515,-6.33
27.531,21.09
27.546,50.62
27.562,79.78
27.578,105.59
27.593,125.39
27.609,137.53
27.625,141.65
27.640,138.69
27.656,130.27
27.671,118.28
27.687,104.37
27.703,89.9
27.718,75.96
27.734,63.42
27.750,52.98
27.765,44.87
27.781,38.94
27.796,34.59
27.812,31.08
27.828,28.0
27.843,25.33
27.859,23.56
27.875,23.39
27.890,25.33
27.906,29.39
27.921,35.11
27.937,41.68
27.953,48.22
27.968,54.11
27.984,59.07
28.000,63.24
28.015,66.97
28.031,70.73
28.046,74.89
28.062,79.62
28.078,85.03
28.093,91.0
28.109,97.35
28.125,103.84
28.140,110.12
28.156,115.91
28.171,120.99
28.187,125.29
28.203,128.9
28.218,132.04
28.234,134.95
28.250,137.75
28.265,140.23
28.281,141.74
28.296,141.19
28.312,137.21
28.328,128.64
28.343,114.91
28.359,96.36
28.375,74.2
28.390,50.07
28.406,25.46
28.421,1.36
28.437,-21.9
28.453,-44.34
28.468,-65.9
28.484,-86.14
28.500,-104.16
28.515,-118.8
28.531,-129.01
28.546,-134.09
28.562,-133.9
28.578,-128.83
28.593,-119.73
28.609,-107.73
28.625,-94.05
28.640,-79.8
28.656,-65.9
28.671,-53.04
28.687,-41.72
28.703,-32.27
28.718,-24.79
28.734,-19.08
28.750,-14.5
28.765,-10.1
28.781,-4.79
28.796,2.26
28.812,11.35
28.828,22.03
28.843,33.19
28.859,43.21
28.875,50.33
28.890,52.94
28.906,49.88
28.921,40.72
28.937,25.96
28.953,7.2
28.968,-13.16
28.984,-32.23
29.000,-47.47
29.015,-57.31
29.031,-61.63
29.046,-61.62
29.062,-59.27
29.078,-56.38
29.093,-53.89
29.109,-51.75
29.125,-49.33
29.140,-46.22
29.156,-42.71
29.171,-39.94
29.187,-39.38
29.203,-41.94
29.218,-47.35
29.234,-54.03
29.250,-59.64
29.265,-62.06
29.281,-60.24
29.296,-54.53
29.312,-46.52
29.328,-38.18
29.343,-31.03
29.359,-25.59
29.375,-21.29
29.390,-17.01
29.406,-11.69
29.421,-4.95
29.437,2.76
29.453,10.56
29.468,17.58
29.484,23.37
29.500,27.85
29.515,31.06
29.531,33.02
29.546,33.8
29.562,33.79
29.578,34.13
29.593,36.56
29.609,42.81
29.625,53.57
29.640,67.76
29.656,82.5
29.671,94.05
29.687,99.16
29.703,96.23
29.718,85.77
29.734,69.8
29.750,50.84
29.765,30.94
29.781,11.46
29.796,-6.58
29.812,-22.06
29.828,-33.77
29.843,-40.9
29.859,-43.81
29.875,-44.14
29.890,-44.13
29.906,-45.13
29.921,-46.3
29.937,-44.61
29.953,-36.35
29.968,-19.43
29.984,4.95
30.000,32.41
30.015,57.11
30.031,74.27
30.046,82.09
30.062,81.82
30.078,76.41
30.093,68.55
30.109,59.57
30.125,49.32
30.140,37.28
30.156,23.65
30.171,9.85
30.187,-1.94
30.203,-9.72
30.218,-12.61
30.234,-11.22
30.250,-7.14
30.265,-2.14
30.281,2.55
30.296,6.62
30.312,10.58
30.328,15.18
30.343,20.97
30.359,27.84
30.375,35.24
30.390,42.21
30.406,47.87
30.421,51.57
30.437,53.16
30.453,52.96
30.468,51.64
30.484,50.01
30.500,48.59
30.515,47.58
30.531,46.66
30.546,45.21
30.562,42.49
30.578,37.8
30.593,30.71
30.609,21.14
30.625,9.6
30.640,-2.87
30.656,-14.71
30.671,-24.24
30.687,-30.2
30.703,-32.13
30.718,-30.55
30.734,-26.87
30.750,-22.87
30.765,-19.95
30.781,-18.56
30.796,-17.86
30.812,-16.27
30.828,-12.17
30.843,-4.91
30.859,4.73
30.875,14.42
30.890,20.96
30.906,21.51
30.921,14.76
30.937,1.88
30.953,-13.76
30.968,-27.61
30.984,-35.73
31.000,-36.33
31.015,-30.3
31.031,-20.66
31.046,-11.11
31.062,-4.7
31.078,-3.21
31.093,-7.35
31.109,-17.19
31.125,-32.25
31.140,-51.12
31.156,-70.99
31.171,-87.66
31.187,-96.74
31.203,-95.32
31.218,-83.24
31.234,-63.05
31.250,-39.03
31.265,-15.71
31.281,3.24
31.296,15.25
31.312,18.82
31.328,13.56
31.343,0.43
31.359,-17.77
31.375,-36.5
31.390,-50.56
31.406,-55.7
31.421,-50.06
31.437,-34.75
31.453,-13.42
31.468,8.84
31.484,26.76
31.500,35.89
31.515,33.71
31.531,20.14
31.546,-2.22
31.562,-28.39
31.578,-52.16
31.593,-67.78
31.609,-71.51
31.625,-62.66
31.640,-43.55
31.656,-18.67
31.671,6.67
31.687,27.75
31.703,41.39
31.718,46.47
31.734,43.86
31.750,36.15
31.765,26.65
31.781,18.54
31.796,13.83
31.812,12.97
31.828,15.08
31.843,18.73
31.859,22.48
31.875,25.37
31.890,26.92
31.906,26.84
31.921,25.04
31.937,21.63
31.953,17.17
31.968,12.75
31.984,9.7
32.000,9.07
32.015,11.06
32.031,14.93
32.046,19.25
32.062,22.53
32.078,23.8
32.093,22.92
32.109,20.5
32.125,17.56
32.140,15.0
32.156,13.34
32.171,12.48
32.187,11.86
32.203,10.73
32.218,8.57
32.234,5.19
32.250,0.87
32.265,-3.82
32.281,-8.28
32.296,-12.05
32.312,-15.02
32.328,-17.44
32.343,-19.77
32.359,-22.4
32.375,-25.42
32.390,-28.53
32.406,-31.2
32.421,-32.74
32.437,-32.69
32.453,-30.82
32.468,-27.22
32.484,-22.23
32.500,-16.29
32.515,-10.02
32.531,-4.03
32.546,1.01
32.562,4.53
32.578,6.11
32.593,5.59
32.609,3.16
32.625,-0.62
32.640,-5.05
32.656,-9.39
32.671,-13.05
32.687,-15.74
32.703,-17.44
32.718,-18.33
32.734,-18.64
32.750,-18.46
32.765,-17.73
32.781,-16.36
32.796,-14.38
32.812,-12.04
32.828,-9.79
32.843,-8.09
32.859,-7.25
32.875,-7.31
32.890,-7.97
32.906,-8.8
32.921,-9.34
32.937,-9.33
32.953,-8.81
32.968,-8.09
32.984,-7.72
33.000,-8.15
33.015,-9.67
33.031,-12.2
33.046,-15.4
33.062,-18.77
33.078,-21.89
33.093,-24.6
33.109,-27.17
33.125,-30.06
33.140,-33.66
33.156,-37.99
33.171,-42.55
33.187,-46.48
33.203,-48.84
33.218,-49.01
33.234,-46.87
33.250,-42.82
33.265,-37.44
33.281,-31.3
33.296,-24.79
33.312,-18.19
33.328,-11.87
33.343,-6.35
33.359,-2.01
33.375,1.09
33.390,3.49
33.406,6.2
33.421,10.08
33.437,15.36
33.453,21.31
33.468,26.59
33.484,29.92
33.500,30.93
33.515,30.33
33.531,29.59
33.546,30.09
33.562,32.04
33.578,34.34
33.593,35.11
33.609,32.7
33.625,26.67
33.640,18.12
33.656,9.08
33.671,1.39
33.687,-4.13
33.703,-8.12
33.718,-12.26
33.734,-18.53
33.750,-28.48
33.765,-42.95
33.781,-61.91
33.796,-84.39
33.812,-108.25
33.828,-130.16
33.843,-146.34
33.859,-153.53
33.875,-150.19
33.890,-137.15
33.906,-117.39
33.921,-95.07
33.937,-74.07
33.953,-56.78
33.968,-43.58
33.984,-33.1
34.000,-22.94
34.015,-10.71
34.031,5.44
34.046,26.27
34.062,51.08
34.078,77.7
34.093,102.95
34.109,123.48
34.125,136.82
34.140,142.17
34.156,140.69
34.171,134.8
34.187,127.18
34.203,119.86
34.218,113.64
34.234,108.4
34.250,103.83
34.265,99.92
34.281,97.08
34.296,95.66
34.312,95.31
34.328,94.81
34.343,92.53
34.359,87.2
34.375,78.41
34.390,66.73
34.406,53.35
34.421,39.4
34.437,25.51
34.453,11.76
34.468,-2.07
34.484,-16.09
34.500,-29.99
34.515,-43.15
34.531,-54.71
34.546,-63.89
34.562,-70.18
34.578,-73.56
34.593,-74.53
34.609,-73.95
34.625,-72.87
34.640,-72.34
34.656,-73.27
34.671,-76.25
34.687,-81.54
34.703,-88.93
34.718,-97.81
34.734,-107.18
34.750,-115.79
34.765,-122.34
34.781,-125.84
34.796,-125.83
34.812,-122.46
34.828,-116.3
34.843,-108.07
34.859,-98.34
34.875,-87.47
34.890,-75.67
34.906,-63.04
34.921,-49.75
34.937,-35.91
34.953,-21.58
34.968,-6.71
34.984,8.63
35.000,24.23
35.015,39.49
35.031,53.66
35.046,66.11
35.062,76.52
35.078,84.97
35.093,91.75
35.109,97.12
35.125,100.99
35.140,102.95
35.156,102.44
35.171,99.02
35.187,92.62
35.203,83.59
35.218,72.65
35.234,60.73
35.250,48.71
35.265,37.38
35.281,27.37
35.296,19.21
35.312,13.28
35.328,9.76
35.343,8.34
35.359,8.29
35.375,8.4
35.390,7.52
35.406,5.1
35.421,1.49
35.437,-2.32
35.453,-5.27
35.468,-7.04
35.484,-8.31
35.500,-10.47
35.515,-14.95
35.531,-22.43
35.546,-32.56
35.562,-44.23
35.578,-56.23
35.593,-67.65
35.609,-77.91
35.625,-86.54
35.640,-92.86
35.656,-95.98
35.671,-95.3
35.687,-90.96
35.703,-84.05
35.718,-76.15
35.734,-68.66
35.750,-62.32
35.765,-57.02
35.781,-51.98
35.796,-46.06
35.812,-38.2
35.828,-27.69
35.843,-14.49
35.859,0.86
35.875,17.26
35.890,33.13
35.906,46.87
35.921,57.3
35.937,63.97
35.953,67.04
35.968,66.97
35.984,64.24
36.000,59.25
36.015,52.54
36.031,44.96
36.046,37.61
36.062,31.48
36.078,27.13
36.093,24.36
36.109,22.48
36.125,20.72
36.140,18.55
36.156,15.87
36.171,12.89
36.187,9.95
36.203,7.27
36.218,4.85
36.234,2.55
36.250,0.2
36.265,-2.21
36.281,-4.69
36.296,-7.18
36.312,-9.8
36.328,-12.72
36.343,-16.1
36.359,-20.05
36.375,-24.4
36.390,-28.66
36.406,-32.1
36.421,-34.06
36.437,-34.05
36.453,-31.98
36.468,-28.07
36.484,-22.65
36.500,-16.04
36.515,-8.49
36.531,-0.22
36.546,8.51
36.562,17.34
36.578,26.02
36.593,34.44
36.609,42.63
36.625,50.72
36.640,58.74
36.656,66.57
36.671,73.79
36.687,79.95
36.703,84.7
36.718,87.96
36.734,89.99
36.750,91.3
36.765,92.51
36.781,94.34
36.796,97.39
36.812,101.95
36.828,108.0
36.843,115.2
36.859,123.1
36.875,131.31
36.890,139.68
36.906,148.31
36.921,157.32
36.937,166.54
36.953,175.27
36.968,182.26
36.984,186.01
37.000,185.08
37.015,178.43
37.031,165.39
37.046,145.64
37.062,119.25
37.078,86.76
37.093,49.44
37.109,9.17
37.125,-32.01
37.140,-72.6
37.156,-112.12
37.171,-151.12
37.187,-190.5
37.203,-230.45
37.218,-269.66
37.234,-305.19
37.250,-333.26
37.265,-350.51
37.281,-354.85
37.296,-345.78
37.312,-324.13
37.328,-291.35
37.343,-249.08
37.359,-199.07
37.375,-143.38
37.390,-84.72
37.406,-26.46
37.421,27.73
37.437,74.53
37.453,111.69
37.468,138.4
37.484,155.32
37.500,164.05
37.515,166.42
37.531,163.91
37.546,157.5
37.562,147.8
37.578,135.63
37.593,122.32
37.609,109.75
37.625,99.9
37.640,94.1
37.656,92.55
37.671,94.21
37.687,97.22
37.703,99.54
37.718,99.71
37.734,97.19
37.750,92.28
37.765,85.51
37.781,77.14
37.796,66.77
37.812,53.61
37.828,37.07
37.843,17.37
37.859,-4.14
37.875,-25.3
37.890,-43.86
37.906,-58.22
37.921,-67.92
37.937,-73.47
37.953,-75.91
37.968,-76.13
37.984,-74.67
38.000,-71.87
38.015,-68.13
38.031,-64.09
38.046,-60.39
38.062,-57.38
38.078,-54.81
38.093,-52.04
38.109,-48.43
38.125,-43.74
38.140,-38.33
38.156,-32.84
38.171,-27.74
38.187,-23.12
38.203,-18.71
38.218,-14.35
38.234,-10.27
38.250,-7.12
38.265,-5.68
38.281,-6.33
38.296,-8.81
38.312,-12.29
38.328,-15.82
38.343,-18.68
38.359,-20.58
38.375,-21.56
38.390,-21.54
38.406,-20.19
38.421,-16.73
38.437,-10.31
38.453,-0.4
38.468,12.9
38.484,28.78
38.500,46.05
38.515,63.29
38.531,79.15
38.546,92.23
38.562,101.08
38.578,104.3
38.593,100.81
38.609,90.4
38.625,73.98
38.640,53.44
38.656,31.3
38.671,9.91
38.687,-9.07
38.703,-24.78
38.718,-36.94
38.734,-45.55
38.750,-50.65
38.765,-52.2
38.781,-50.42
38.796,-45.81
38.812,-39.24
38.828,-31.69
38.843,-23.88
38.859,-16.12
38.875,-8.33
38.890,-0.34
38.906,7.79
38.921,15.53
38.937,21.92
38.953,26.04
38.968,27.35
38.984,26.04
39.000,22.83
39.015,18.64
39.031,14.1
39.046,9.29
39.062,3.66
39.078,-3.62
39.093,-13.12
39.109,-24.84
39.125,-37.89
39.140,-50.8
39.156,-61.81
39.171,-69.42
39.187,-72.77
39.203,-71.95
39.218,-67.85
39.234,-61.86
39.250,-55.44
39.265,-49.48
39.281,-44.05
39.296,-38.3
39.312,-30.87
39.328,-20.48
39.343,-6.6
39.359,10.37
39.375,29.23
39.390,48.29
39.406,66.08
39.421,81.63
39.437,94.64
39.453,105.56
39.468,115.42
39.484,125.48
39.500,136.61
39.515,148.61
39.531,159.79
39.546,167.23
39.562,167.57
39.578,158.06
39.593,137.66
39.609,107.5
39.625,70.67
39.640,31.31
39.656,-6.44
39.671,-39.43
39.687,-65.8
39.703,-84.87
39.718,-96.72
39.734,-101.76
39.750,-100.6
39.765,-94.3
39.781,-84.52
39.796,-73.31
39.812,-62.78
39.828,-54.26
39.843,-47.99
39.859,-43.02
39.875,-37.77
39.890,-30.77
39.906,-21.34
39.921,-9.76
39.937,2.97
39.953,15.44
39.968,26.3
39.984,34.4
40.000,38.93
40.015,39.5
40.031,36.14
40.046,29.13
40.062,18.89
40.078,6.0
40.093,-8.91
40.109,-24.84
40.125,-40.56
40.140,-54.77
40.156,-66.36
40.171,-74.81
40.187,-80.23
40.203,-83.21
40.218,-84.45
40.234,-84.56
40.250,-83.67
40.265,-81.62
40.281,-78.18
40.296,-73.25
40.312,-67.01
40.328,-59.68
40.343,-51.52
40.359,-42.62
40.375,-33.13
40.390,-23.35
40.406,-13.88
40.421,-5.51
40.437,0.85
40.453,4.5
40.468,5.08
40.484,2.64
40.500,-2.48
40.515,-9.89
40.531,-19.1
40.546,-29.29
40.562,-39.29
40.578,-47.75
40.593,-53.51
40.609,-56.11
40.625,-55.8
40.640,-53.31
40.656,-49.36
40.671,-44.32
40.687,-38.15
40.703,-30.77
40.718,-22.64
40.734,-14.91
40.750,-9.25
40.765,-7.31
40.781,-10.11
40.796,-17.62
40.812,-28.82
40.828,-41.8
40.843,-54.23
40.859,-63.83
40.875,-68.71
40.890,-67.84
40.906,-61.14
40.921,-49.45
40.937,-34.21
40.953,-17.07
40.968,0.52
40.984,17.45
41.000,32.99
41.015,46.75
41.031,58.44
41.046,67.93
41.062,75.29
41.078,80.79
41.093,84.92
41.109,88.3
41.125,91.44
41.140,94.58
41.156,97.63
41.171,100.2
41.187,101.82
41.203,102.32
41.218,101.75
41.234,100.37
41.250,98.32
41.265,95.65
41.281,92.37
41.296,88.66
41.312,84.84
41.328,81.23
41.343,77.83
41.359,74.02
41.375,68.86
41.390,61.43
41.406,51.49
41.421,39.57
41.437,26.76
41.453,14.01
41.468,1.66
41.484,-10.59
41.500,-23.29
41.515,-36.64
41.531,-50.15
41.546,-62.9
41.562,-74.09
41.578,-83.5
41.593,-91.6
41.609,-99.06
41.625,-106.26
41.640,-112.95
41.656,-118.49
41.671,-122.28
41.687,-124.33
41.703,-125.09
41.718,-125.06
41.734,-124.12
41.750,-121.28
41.765,-115.05
41.781,-104.45
41.796,-89.67
41.812,-72.32
41.828,-54.76
41.843,-38.93
41.859,-25.49
41.875,-13.5
41.890,-1.18
41.906,13.17
41.921,30.12
41.937,48.77
41.953,67.07
41.968,82.63
41.984,93.58
42.000,99.09
42.015,99.22
42.031,94.69
42.046,86.2
42.062,74.39
42.078,59.89
42.093,43.56
42.109,26.72
42.125,11.16
42.140,-1.33
42.156,-9.59
42.171,-13.39
42.187,-13.65
42.203,-11.91
42.218,-9.68
42.234,-7.94
42.250,-6.91
42.265,-6.16
42.281,-5.18
42.296,-3.85
42.312,-2.78
42.328,-3.15
42.343,-6.23
42.359,-12.79
42.375,-22.64
42.390,-34.74
42.406,-47.7
42.421,-60.37
42.437,-72.42
42.453,-84.37
42.468,-97.34
42.484,-112.23
42.500,-129.14
42.515,-147.11
42.531,-164.12
42.546,-177.78
42.562,-185.86
42.578,-186.81
42.593,-179.91
42.609,-165.37
42.625,-144.12
42.640,-117.73
42.656,-88.25
42.671,-57.73
42.687,-27.76
42.703,1.23
42.718,29.98
42.734,59.83
42.750,91.56
42.765,124.41
42.781,155.65
42.796,181.28
42.812,197.51
42.828,202.09
42.843,195.33
42.859,179.72
42.875,158.89
42.890,136.32
42.906,114.54
42.921,94.85
42.937,77.64
42.953,63.13
42.968,51.4
42.984,42.61
43.000,36.76
43.015,33.38
43.031,31.53
43.046,29.95
43.062,27.53
43.078,23.61
43.093,18.43
43.109,12.84
43.125,7.9
43.140,4.36
43.156,2.26
43.171,1.01
43.187,-0.33
43.203,-2.49
43.218,-5.68
43.234,-9.49
43.250,-13.22
43.265,-16.17
43.281,-18.08
43.296,-19.22
43.312,-20.14
43.328,-21.51
43.343,-23.69
43.359,-26.59
43.375,-29.79
43.390,-32.77
43.406,-35.17
43.421,-36.9
43.437,-38.3
43.453,-39.7
43.468,-41.36
43.484,-43.16
43.500,-44.61
43.515,-45.04
43.531,-43.99
43.546,-41.31
43.562,-37.3
43.578,-32.56
43.593,-27.62
43.609,-22.82
43.625,-18.2
43.640,-13.57
43.656,-8.79
43.671,-3.89
43.687,0.92
43.703,5.38
43.718,9.27
43.734,12.58
43.750,15.41
43.765,17.81
43.781,19.81
43.796,21.31
43.812,22.13
43.828,22.27
43.843,21.85
43.859,21.11
43.875,20.49
43.890,20.31
43.906,20.69
43.921,21.52
43.937,22.45
43.953,23.04
43.968,23.04
43.984,22.37
44.000,21.2
44.015,19.85
44.031,18.61
44.046,17.65
44.062,16.99
44.078,16.55
44.093,16.12
44.109,15.62
44.125,14.98
44.140,14.22
44.156,13.4
44.171,12.64
44.187,12.0
44.203,11.6
44.218,11.43
44.234,11.4
44.250,11.4
44.265,11.29
44.281,11.02
44.296,10.67
44.312,10.35
44.328,10.27
44.343,10.61
44.359,11.39
44.375,12.54
44.390,13.92
44.406,15.44
44.421,17.22
44.437,19.56
44.453,22.97
44.468,27.92
44.484,34.78
44.500,43.54
44.515,53.7
44.531,64.33
44.546,74.18
44.562,81.68
44.578,85.15
44.593,83.2
44.609,75.09
44.625,61.3
44.640,43.6
44.656,24.64
44.671,7.03
44.687,-7.58
44.703,-19.02
44.718,-28.29
44.734,-36.58
44.750,-44.38
44.765,-51.11
44.781,-55.44
44.796,-56.22
44.812,-53.16
44.828,-46.91
44.843,-38.51
44.859,-28.94
44.875,-18.68
44.890,-8.01
44.906,2.47
44.921,11.65
44.937,17.94
44.953,20.14
44.968,18.14
44.984,13.28
45.000,7.93
45.015,4.67
45.031,5.21
45.046,9.96
45.062,17.97
45.078,27.41
45.093,36.28
45.109,42.95
45.125,46.49
45.140,46.65
45.156,43.84
45.171,38.87
45.187,32.66
45.203,26.03
45.218,19.32
45.234,12.46
45.250,5.1
45.265,-2.95
45.281,-11.49
45.296,-19.84
45.312,-27.16
45.328,-32.91
45.343,-36.96
45.359,-39.69
45.375,-41.66
45.390,-43.35
45.406,-44.86
45.421,-45.88
45.437,-45.82
45.453,-44.09
45.468,-40.31
45.484,-34.45
45.500,-26.9
45.515,-18.31
45.531,-9.46
45.546,-0.97
45.562,6.78
45.578,13.83
45.593,20.38
45.609,26.66
45.625,32.88
45.640,38.98
45.656,44.78
45.671,49.98
45.687,54.38
45.703,57.9
45.718,60.82
45.734,63.61
45.750,66.85
45.765,71.0
45.781,76.09
45.796,81.76
45.812,87.3
45.828,91.94
45.843,95.14
45.859,96.86
45.875,97.48
45.890,97.58
45.906,97.78
45.921,98.41
45.937,99.63
45.953,101.32
45.968,103.21
45.984,104.83
46.000,105.48
46.015,104.18
46.031,99.81
46.046,91.41
46.062,78.25
46.078,60.31
46.093,38.22
46.109,13.11
46.125,-13.46
46.140,-39.96
46.156,-65.08
46.171,-87.87
46.187,-107.77
46.203,-124.59
46.218,-138.2
46.234,-148.48
46.250,-155.35
46.265,-158.8
46.281,-159.02
46.296,-156.48
46.312,-151.82
46.328,-145.51
46.343,-137.81
46.359,-128.53
46.375,-117.28
46.390,-103.93
46.406,-88.74
46.421,-72.51
46.437,-56.44
46.453,-41.66
46.468,-28.84
46.484,-18.09
46.500,-8.94
46.515,-0.77
46.531,6.84
46.546,13.94
46.562,20.16
46.578,24.84
46.593,27.32
46.609,27.25
46.625,24.78
46.640,20.56
46.656,15.45
46.671,10.27
46.687,5.47
46.703,0.96
46.718,-3.75
46.734,-9.14
46.750,-15.38
46.765,-21.98
46.781,-27.72
46.796,-30.96
46.812,-30.16
46.828,-24.44
46.843,-13.98
46.859,0.07
46.875,15.99
46.890,31.95
46.906,46.44
46.921,58.4
46.937,67.09
46.953,72.02
46.968,73.02
46.984,70.41
47.000,65.14
47.015,58.31
47.031,50.59
47.046,41.55
47.062,30.0
47.078,14.73
47.093,-4.32
47.109,-25.35
47.125,-45.08
47.140,-60.07
47.156,-68.26
47.171,-69.84
47.187,-66.88
47.203,-62.03
47.218,-57.1
47.234,-52.19
47.250,-46.13
47.265,-37.47
47.281,-25.43
47.296,-10.41
47.312,6.24
47.328,22.85
47.343,37.89
47.359,50.24
47.375,59.37
47.390,65.08
47.406,67.53
47.421,67.22
47.437,64.78
47.453,60.83
47.468,55.78
47.484,49.66
47.500,42.45
47.515,34.33
47.531,25.97
47.546,18.33
47.562,12.45
47.578,8.91
47.593,7.76
47.609,8.58
47.625,10.8
47.640,13.91
47.656,17.75
47.671,22.31
47.687,27.61
47.703,33.52
47.718,39.65
47.734,45.5
47.750,50.61
47.765,54.52
47.781,56.76
47.796,56.61
47.812,52.86
47.828,44.26
47.843,29.98
47.859,10.41
47.875,-12.46
47.890,-35.27
47.906,-54.24
47.921,-66.31
47.937,-70.14
47.953,-66.32
47.968,-56.97
47.984,-44.81
48.000,-32.34
48.015,-21.43
48.031,-13.27
48.046,-8.6
48.062,-7.84
48.078,-11.09
48.093,-18.17
48.109,-28.67
48.125,-42.2
48.140,-58.8
48.156,-78.96
48.171,-103.49
48.187,-132.65
48.203,-165.26
48.218,-198.08
48.234,-226.2
48.250,-244.12
48.265,-247.39
48.281,-233.69
48.296,-203.1
48.312,-157.68
48.328,-100.51
48.343,-35.23
48.359,34.18
48.375,103.32
48.390,167.58
48.406,222.93
48.421,266.88
48.437,298.9
48.453,320.14
48.468,332.25
48.484,336.22
48.500,331.98
48.515,318.85
48.531,296.42
48.546,265.27
48.562,227.03
48.578,183.73
48.593,137.02
48.609,87.75
48.625,36.11
48.640,-18.02
48.656,-74.31
48.671,-131.92
48.687,-189.57
48.703,-245.57
48.718,-297.94
48.734,-344.31
48.750,-381.86
48.765,-407.59
48.781,-418.95
48.796,-414.53
48.812,-394.64
48.828,-361.43
48.843,-318.37
48.859,-269.38
48.875,-217.83
48.890,-166.11
48.906,-115.72
48.921,-67.81
48.937,-23.6
48.953,15.67
48.968,49.29
48.984,77.71
49.000,102.54
49.015,125.68
49.031,148.03
49.046,168.57
49.062,184.32
49.078,191.71
49.093,188.11
49.109,173.13
49.125,148.75
49.140,118.46
49.156,86.09
49.171,54.88
49.187,27.1
49.203,4.24
49.218,-12.8
49.234,-23.55
49.250,-27.89
49.265,-26.17
49.281,-19.1
49.296,-7.74
49.312,6.64
49.328,22.54
49.343,38.32
49.359,52.27
49.375,63.16
49.390,70.47
49.406,74.65
49.421,76.92
49.437,78.75
49.453,81.4
49.468,85.77
49.484,91.83
49.500,98.66
49.515,104.97
49.531,109.48
49.546,111.45
49.562,110.92
49.578,108.52
49.593,105.06
49.609,101.71
49.625,99.11
49.640,96.83
49.656,93.88
49.671,88.74
49.687,79.91
49.703,66.59
49.718,49.0
49.734,28.19
49.750,6.39
49.765,-14.95
49.781,-36.15
49.796,-59.36
49.812,-88.37
49.828,-127.07
49.843,-177.81
49.859,-240.21
49.875,-311.01
49.890,-384.05
49.906,-446.67
49.921,-484.89
49.937,-487.55
49.953,-452.07
49.968,-385.69
49.984,-301.47
50.000,-212.77
50.015,-133.87
50.031,-68.51
50.046,-18.91
50.062,13.01
50.078,27.68
50.093,29.22
50.109,25.54
50.125,25.06
50.140,34.98
50.156,57.69
50.171,90.45
50.187,125.47
50.203,154.11
50.218,170.83
50.234,174.79
50.250,169.31
50.265,160.15
50.281,152.87
50.296,150.95
50.312,155.35
50.328,163.4
50.343,170.11
50.359,169.67
50.375,157.1
50.390,130.07
50.406,89.95
50.421,41.21
50.437,-10.02
50.453,-57.5
50.468,-96.61
50.484,-124.45
50.500,-139.67
50.515,-142.19
50.531,-132.84
50.546,-113.14
50.562,-85.27
50.578,-51.77
50.593,-15.11
50.609,22.18
50.625,57.64
50.640,88.62
50.656,112.29
50.671,126.33
50.687,129.52
50.703,122.14
50.718,106.06
50.734,84.33
50.750,60.21
50.765,36.7
50.781,16.13
50.796,0.1
50.812,-10.19
50.828,-13.86
50.843,-10.45
50.859,0.01
50.875,16.65
50.890,37.69
50.906,60.65
50.921,82.78
50.937,101.73
50.953,116.05
50.968,125.48
50.984,130.87
51.000,133.59
51.015,134.66
51.031,134.02
51.046,130.36
51.062,121.66
51.078,106.39
51.093,84.4
51.109,57.15
51.125,27.24
51.140,-2.66
51.156,-30.58
51.171,-55.69
51.187,-77.96
51.203,-97.69
51.218,-115.05
51.234,-130.04
51.250,-142.75
51.265,-153.5
51.281,-162.67
51.296,-170.5
51.312,-176.96
51.328,-181.73
51.343,-184.51
51.359,-185.0
51.375,-182.85
51.390,-177.71
51.406,-169.31
51.421,-157.77
51.437,-143.82
51.453,-128.63
51.468,-113.34
51.484,-98.6
51.500,-84.27
51.515,-69.7
51.531,-54.45
51.546,-38.7
51.562,-23.42
51.578,-9.87
51.593,1.15
51.609,9.58
51.625,15.97
51.640,20.92
51.656,24.76
51.671,27.53
51.687,29.32
51.703,30.59
51.718,32.23
51.734,35.41
51.750,41.11
51.765,49.8
51.781,61.32
51.796,74.93
51.812,89.7
51.828,104.99
51.843,120.68
51.859,137.16
51.875,155.04
51.890,174.47
51.906,194.57
51.921,213.39
51.937,228.25
51.953,236.59
51.968,236.73
51.984,228.21
52.000,211.6
52.015,188.1
52.031,159.09
52.046,126.07
52.062,90.73
52.078,55.15
52.093,21.75
52.109,-7.11
52.125,-29.82
52.140,-46.02
52.156,-56.9
52.171,-64.91
52.187,-72.97
52.203,-83.19
52.218,-95.91
52.234,-109.41
52.250,-120.49
52.265,-125.84
52.281,-123.36
52.296,-112.99
52.312,-96.42
52.328,-76.15
52.343,-54.47
52.359,-33.05
52.375,-13.09
52.390,4.3
52.406,17.85
52.421,26.27
52.437,28.69
52.453,24.93
52.468,15.6
52.484,1.77
52.500,-15.28
52.515,-34.39
52.531,-54.38
52.546,-74.16
52.562,-92.58
52.578,-108.53
52.593,-120.86
52.609,-128.4
52.625,-130.04
52.640,-124.87
52.656,-112.57
52.671,-93.61
52.687,-69.49
52.703,-42.38
52.718,-14.69
52.734,11.59
52.750,35.25
52.765,55.87
52.781,73.66
52.796,88.92
52.812,101.84
52.828,112.24
52.843,119.82
52.859,124.36
52.875,125.96
52.890,125.12
52.906,122.46
52.921,118.55
52.937,113.63
52.953,107.57
52.968,100.03
52.984,90.76
53.000,79.9
53.015,67.93
53.031,55.63
53.046,43.81
53.062,33.07
53.078,23.81
53.093,16.23
53.109,10.52
53.125,6.86
53.140,5.46
53.156,6.31
53.171,9.13
53.187,13.18
53.203,17.58
53.218,21.44
53.234,24.31
53.250,26.34
53.265,28.27
53.281,31.08
53.296,35.56
53.312,41.95
53.328,49.64
53.343,57.28
53.359,63.07
53.375,65.32
53.390,62.95
53.406,55.85
53.421,44.77
53.437,31.2
53.453,16.93
53.468,3.67
53.484,-7.16
53.500,-14.64
53.515,-18.38
53.531,-18.54
53.546,-15.78
53.562,-11.25
53.578,-6.19
53.593,-1.83
53.609,1.03
53.625,2.25
53.640,2.39
53.656,2.46
53.671,3.5
53.687,6.0
53.703,9.79
53.718,13.95
53.734,17.15
53.750,18.16
53.765,16.32
53.781,11.82
53.796,5.68
53.812,-0.58
53.828,-5.4
53.843,-7.68
53.859,-6.99
53.875,-3.69
53.890,1.21
53.906,6.47
53.921,10.71
53.937,12.72
53.953,11.53
53.968,6.54
53.984,-2.45
54.000,-15.07
54.015,-30.38
54.031,-46.88
54.046,-62.87
54.062,-76.82
54.078,-87.6
54.093,-94.64
54.109,-97.91
54.125,-97.75
54.140,-94.84
54.156,-89.85
54.171,-83.34
54.187,-75.64
54.203,-66.9
54.218,-57.07
54.234,-46.12
54.250,-34.16
54.265,-21.53
54.281,-8.77
54.296,3.42
54.312,14.39
54.328,23.52
54.343,30.36
54.359,34.68
54.375,36.53
54.390,36.22
54.406,34.37
54.421,31.74
54.437,28.98
54.453,26.48
54.468,24.18
54.484,21.81
54.500,18.96
54.515,15.29
54.531,10.66
54.546,5.11
54.562,-1.24
54.578,-8.03
54.593,-14.79
54.609,-21.0
54.625,-26.19
54.640,-30.22
54.656,-33.19
54.671,-34.99
54.687,-35.14
54.703,-32.95
54.718,-27.93
54.734,-20.57
54.750,-12.51
54.765,-6.12
54.781,-3.42
54.796,-5.16
54.812,-10.42
54.828,-17.17
54.843,-23.41
54.859,-28.03
54.875,-31.0
54.890,-32.89
54.906,-34.04
54.921,-34.24
54.937,-33.0
54.953,-30.06
54.968,-25.87
54.984,-21.51
55.000,-18.25
55.015,-17.07
55.031,-18.34
55.046,-21.91
55.062,-27.28
55.078,-33.91
55.093,-41.33
55.109,-49.15
55.125,-57.0
55.140,-64.49
55.156,-71.37
55.171,-77.68
55.187,-83.63
55.203,-89.41
55.218,-94.84
55.234,-99.33
55.250,-102.04
55.265,-102.3
55.281,-99.9
55.296,-95.14
55.312,-88.65
55.328,-81.0
55.343,-72.5
55.359,-63.25
55.375,-53.37
55.390,-43.19
55.406,-33.24
55.421,-23.89
55.437,-15.26
55.453,-7.14
55.468,0.63
55.484,7.95
55.500,14.29
55.515,18.92
55.531,21.49
55.546,22.22
55.562,21.82
55.578,21.05
55.593,20.44
55.609,19.84
55.625,18.74
55.640,16.58
55.656,13.15
55.671,8.85
55.687,4.4
55.703,0.62
55.718,-1.94
55.734,-2.89
55.750,-2.09
55.765,0.46
55.781,4.33
55.796,8.61
55.812,11.71
55.828,11.88
55.843,7.93
55.859,-0.11
55.875,-10.61
55.890,-20.84
55.906,-27.97
55.921,-30.35
55.937,-28.11
55.953,-23.24
55.968,-18.53
55.984,-16.31
56.000,-17.41
56.015,-20.82
56.031,-24.29
56.046,-25.34
56.062,-22.45
56.078,-15.66
56.093,-6.35
56.109,3.39
56.125,11.66
56.140,17.4
56.156,20.41
56.171,21.18
56.187,20.48
56.203,19.16
56.218,17.99
56.234,17.75
56.250,19.11
56.265,22.59
56.281,28.25
56.296,35.65
56.312,43.77
56.328,51.37
56.343,57.28
56.359,60.85
56.375,62.07
56.390,61.54
56.406,60.2
56.421,58.96
56.437,58.48
56.453,58.9
56.468,59.95
56.484,61.07
56.500,61.68
56.515,61.27
56.531,59.55
56.546,56.59
56.562,52.69
56.578,48.29
56.593,43.72
56.609,39.2
56.625,34.81
56.640,30.59
56.656,26.62
56.671,23.01
56.687,19.91
56.703,17.35
56.718,15.31
56.734,13.61
56.750,12.08
56.765,10.5
56.781,8.73
56.796,6.64
56.812,4.17
56.828,1.34
56.843,-1.78
56.859,-5.02
56.875,-8.26
56.890,-11.47
56.906,-14.71
56.921,-18.12
56.937,-21.84
56.953,-25.87
56.968,-30.02
56.984,-34.05
57.000,-37.62
57.015,-40.42
57.031,-42.27
57.046,-43.08
57.062,-42.92
57.078,-41.96
57.093,-40.44
57.109,-38.58
57.125,-36.56
57.140,-34.42
57.156,-32.13
57.171,-29.55
57.187,-26.61
57.203,-23.39
57.218,-19.98
57.234,-16.71
57.250,-13.83
57.265,-11.62
57.281,-10.17
57.296,-9.46
57.312,-9.34
57.328,-9.64
57.343,-10.23
57.359,-11.0
57.375,-11.86
57.390,-12.68
57.406,-13.28
57.421,-13.41
57.437,-12.85
57.453,-11.39
57.468,-8.91
57.484,-5.4
57.500,-1.0
57.515,3.98
57.531,9.15
57.546,14.0
57.562,18.05
57.578,20.9
57.593,22.35
57.609,22.43
57.625,21.31
57.640,19.33
57.656,16.78
57.671,14.0
57.687,11.21
57.703,8.52
57.718,5.85
57.734,3.01
57.750,-0.21
57.765,-4.12
57.781,-8.98
57.796,-15.13
57.812,-22.93
57.828,-32.55
57.843,-43.78
57.859,-55.72
57.875,-66.78
57.890,-75.02
57.906,-78.77
57.921,-77.09
57.937,-70.23
57.953,-59.37
57.968,-46.13
57.984,-32.17
58.000,-18.87
58.015,-7.31
58.031,1.84
58.046,8.42
58.062,13.05
58.078,16.98
58.093,21.67
58.109,28.17
58.125,36.52
58.140,45.66
58.156,53.91
58.171,59.71
58.187,62.18
58.203,61.38
58.218,57.9
58.234,52.44
58.250,45.56
58.265,37.71
58.281,29.37
58.296,21.3
58.312,14.26
58.328,8.85
58.343,5.14
58.359,2.56
58.375,0.12
58.390,-3.29
58.406,-8.5
58.421,-15.71
58.437,-24.51
58.453,-33.92
58.468,-42.69
58.484,-49.52
58.500,-53.5
58.515,-54.32
58.531,-52.4
58.546,-48.81
58.562,-44.82
58.578,-41.5
58.593,-39.31
58.609,-38.07
58.625,-36.98
58.640,-35.24
58.656,-32.35
58.671,-28.25
58.687,-23.26
58.703,-17.74
58.718,-11.9
58.734,-5.73
58.750,0.93
58.765,8.2
58.781,16.11
58.796,24.67
58.812,33.96
58.828,44.21
58.843,55.67
58.859,68.39
58.875,81.99
58.890,95.58
58.906,107.91
58.921,117.71
58.937,124.02
58.953,126.38
58.968,124.82
58.984,119.9
59.000,112.42
59.015,103.21
59.031,92.99
59.046,82.15
59.062,70.85
59.078,59.02
59.093,46.57
59.109,33.44
59.125,19.93
59.140,6.55
59.156,-6.04
59.171,-17.19
59.187,-26.56
59.203,-34.14
59.218,-40.1
59.234,-44.72
59.250,-48.19
59.265,-50.58
59.281,-51.96
59.296,-52.43
59.312,-52.13
59.328,-51.21
59.343,-49.81
59.359,-47.92
59.375,-45.58
59.390,-42.87
59.406,-40.05
59.421,-37.49
59.437,-35.52
59.453,-34.37
59.468,-34.06
59.484,-34.48
59.500,-35.47
59.515,-37.04
59.531,-39.24
59.546,-42.1
59.562,-45.48
59.578,-48.89
59.593,-51.71
59.609,-53.28
59.625,-53.18
59.640,-51.31
59.656,-47.95
59.671,-43.5
59.687,-38.36
59.703,-32.76
59.718,-26.81
59.734,-20.55
59.750,-13.99
59.765,-7.2
59.781,-0.18
59.796,7.08
59.812,14.52
59.828,22.04
59.843,29.39
59.859,36.32
59.875,42.63
59.890,48.22
59.906,53.07
59.921,57.1
59.937,60.19
59.953,62.07
59.968,62.43
59.984,61.1
