timestamp,value
00.000,17.74
00.015,16.45
00.031,17.17
00.046,19.98
00.062,24.48
00.078,29.89
00.093,35.25
00.109,39.81
00.125,43.28
00.140,45.78
00.156,47.65
00.171,49.16
00.187,50.24
00.203,50.62
00.218,49.93
00.234,48.01
00.250,45.01
00.265,41.28
00.281,37.19
00.296,33.02
00.312,28.81
00.328,24.43
00.343,19.89
00.359,15.47
00.375,11.84
00.390,9.76
00.406,9.86
00.421,12.17
00.437,16.12
00.453,20.61
00.468,24.42
00.484,26.66
00.500,26.93
00.515,25.36
00.531,22.32
00.546,18.38
00.562,14.03
00.578,9.73
00.593,5.79
00.609,2.34
00.625,-0.69
00.640,-3.61
00.656,-6.78
00.671,-10.49
00.687,-14.72
00.703,-19.17
00.718,-23.38
00.734,-26.97
00.750,-29.73
00.765,-31.64
00.781,-32.74
00.796,-32.88
00.812,-31.79
00.828,-29.19
00.843,-24.88
00.859,-18.95
00.875,-11.65
00.890,-3.25
00.906,6.08
00.921,16.27
00.937,27.06
00.953,37.78
00.968,47.37
00.984,54.58
01.000,58.58
01.015,59.33
01.031,57.65
01.046,54.86
01.062,52.19
01.078,50.33
01.093,49.22
01.109,48.36
01.125,47.24
01.140,45.67
01.156,43.83
01.171,41.99
01.187,40.17
01.203,38.04
01.218,35.08
01.234,30.89
01.250,25.49
01.265,19.36
01.281,13.2
01.296,7.7
01.312,3.24
01.328,-0.02
01.343,-2.08
01.359,-2.91
01.375,-2.48
01.390,-0.91
01.406,1.52
01.421,4.34
01.437,7.13
01.453,9.67
01.468,12.18
01.484,15.07
01.500,18.84
01.515,23.66
01.531,29.41
01.546,35.79
01.562,42.44
01.578,49.26
01.593,56.34
01.609,63.89
01.625,72.08
01.640,80.81
01.656,89.74
01.671,98.33
01.687,106.07
01.703,112.7
01.718,118.28
01.734,123.1
01.750,127.34
01.765,130.73
01.781,132.43
01.796,131.13
01.812,125.44
01.828,114.39
01.843,97.85
01.859,76.53
01.875,51.79
01.890,25.19
01.906,-1.77
01.921,-27.8
01.937,-51.72
01.953,-72.44
01.968,-89.02
01.984,-100.92
02.000,-108.16
02.015,-111.35
02.031,-111.24
02.046,-108.25
02.062,-102.15
02.078,-92.19
02.093,-77.73
02.109,-58.97
02.125,-37.33
02.140,-15.07
02.156,5.69
02.171,23.85
02.187,39.66
02.203,54.2
02.218,68.32
02.234,81.94
02.250,93.98
02.265,103.11
02.281,108.64
02.296,111.1
02.312,111.79
02.328,111.79
02.343,111.02
02.359,107.99
02.375,100.52
02.390,86.95
02.406,67.1
02.421,42.57
02.437,16.03
02.453,-9.75
02.468,-32.87
02.484,-52.56
02.500,-68.91
02.515,-82.34
02.531,-93.16
02.546,-101.44
02.562,-107.32
02.578,-111.13
02.593,-113.49
02.609,-115.17
02.625,-116.66
02.640,-118.18
02.656,-119.57
02.671,-120.54
02.687,-120.82
02.703,-120.25
02.718,-118.91
02.734,-116.93
02.750,-114.54
02.765,-111.87
02.781,-109.06
02.796,-106.11
02.812,-103.1
02.828,-100.04
02.843,-96.94
02.859,-93.86
02.875,-90.8
02.890,-87.76
02.906,-84.72
02.921,-81.62
02.937,-78.42
02.953,-75.1
02.968,-71.63
02.984,-67.91
03.000,-63.86
03.015,-59.39
03.031,-54.48
03.046,-49.19
03.062,-43.77
03.078,-38.51
03.093,-33.69
03.109,-29.53
03.125,-25.99
03.140,-22.99
03.156,-20.31
03.171,-17.85
03.187,-15.58
03.203,-13.62
03.218,-12.1
03.234,-11.05
03.250,-10.4
03.265,-9.89
03.281,-9.33
03.296,-8.52
03.312,-7.53
03.328,-6.54
03.343,-5.8
03.359,-5.55
03.375,-5.71
03.390,-6.16
03.406,-6.57
03.421,-6.73
03.437,-6.59
03.453,-6.28
03.468,-6.04
03.484,-6.03
03.500,-6.26
03.515,-6.63
03.531,-7.03
03.546,-7.38
03.562,-7.77
03.578,-8.39
03.593,-9.34
03.609,-10.61
03.625,-12.0
03.640,-13.24
03.656,-14.13
03.671,-14.67
03.687,-15.02
03.703,-15.42
03.718,-16.09
03.734,-17.03
03.750,-18.14
03.765,-19.1
03.781,-19.63
03.796,-19.51
03.812,-18.71
03.828,-17.37
03.843,-15.67
03.859,-13.77
03.875,-11.56
03.890,-8.9
03.906,-5.58
03.921,-1.58
03.937,2.87
03.953,7.27
03.968,11.13
03.984,14.05
04.000,15.91
04.015,16.89
04.031,17.33
04.046,17.52
04.062,17.62
04.078,17.68
04.093,17.63
04.109,17.44
04.125,17.2
04.140,17.04
04.156,17.1
04.171,17.38
04.187,17.76
04.203,18.07
04.218,18.11
04.234,17.84
04.250,17.33
04.265,16.74
04.281,16.16
04.296,15.6
04.312,14.95
04.328,14.08
04.343,12.99
04.359,11.73
04.375,10.49
04.390,9.43
04.406,8.6
04.421,7.91
04.437,7.14
04.453,6.04
04.468,4.4
04.484,2.22
04.500,-0.33
04.515,-2.97
04.531,-5.43
04.546,-7.56
04.562,-9.44
04.578,-11.19
04.593,-13.03
04.609,-14.95
04.625,-16.76
04.640,-18.14
04.656,-18.79
04.671,-18.68
04.687,-17.94
04.703,-16.86
04.718,-15.65
04.734,-14.35
04.750,-12.82
04.765,-10.88
04.781,-8.4
04.796,-5.46
04.812,-2.28
04.828,0.84
04.843,3.66
04.859,6.11
04.875,8.24
04.890,10.13
04.906,11.81
04.921,13.26
04.937,14.38
04.953,15.12
04.968,15.51
04.984,15.72
05.000,15.98
05.015,16.44
05.031,17.13
05.046,17.92
05.062,18.58
05.078,18.92
05.093,18.83
05.109,18.42
05.125,17.85
05.140,17.2
05.156,16.56
05.171,15.88
05.187,15.1
05.203,14.23
05.218,13.31
05.234,12.36
05.250,11.35
05.265,10.19
05.281,8.76
05.296,7.02
05.312,4.91
05.328,2.47
05.343,-0.25
05.359,-3.16
05.375,-6.11
05.390,-8.88
05.406,-11.29
05.421,-13.2
05.437,-14.61
05.453,-15.72
05.468,-16.79
05.484,-17.98
05.500,-19.34
05.515,-20.71
05.531,-21.88
05.546,-22.65
05.562,-22.98
05.578,-22.89
05.593,-22.5
05.609,-21.94
05.625,-21.2
05.640,-20.24
05.656,-18.89
05.671,-17.04
05.687,-14.63
05.703,-11.72
05.718,-8.43
05.734,-4.91
05.750,-1.3
05.765,2.28
05.781,5.68
05.796,8.8
05.812,11.45
05.828,13.54
05.843,15.08
05.859,16.13
05.875,16.87
05.890,17.41
05.906,17.78
05.921,17.96
05.937,17.89
05.953,17.61
05.968,17.24
05.984,16.91
06.000,16.73
06.015,16.7
06.031,16.71
06.046,16.68
06.062,16.46
06.078,16.02
06.093,15.32
06.109,14.39
06.125,13.23
06.140,11.87
06.156,10.37
06.171,8.8
06.187,7.25
06.203,5.71
06.218,4.11
06.234,2.36
06.250,0.43
06.265,-1.62
06.281,-3.57
06.296,-5.18
06.312,-6.36
06.328,-7.18
06.343,-7.99
06.359,-9.18
06.375,-10.9
06.390,-13.09
06.406,-15.36
06.421,-17.23
06.437,-18.45
06.453,-19.03
06.468,-19.18
06.484,-19.18
06.500,-19.1
06.515,-18.83
06.531,-18.18
06.546,-17.02
06.562,-15.43
06.578,-13.6
06.593,-11.72
06.609,-9.83
06.625,-7.83
06.640,-5.57
06.656,-3.01
06.671,-0.37
06.687,2.02
06.703,3.75
06.718,4.63
06.734,4.73
06.750,4.45
06.765,4.29
06.781,4.71
06.796,5.91
06.812,7.77
06.828,9.94
06.843,11.93
06.859,13.32
06.875,13.91
06.890,13.77
06.906,13.1
06.921,12.19
06.937,11.23
06.953,10.32
06.968,9.52
06.984,8.85
07.000,8.34
07.015,8.04
07.031,7.91
07.046,7.9
07.062,7.88
07.078,7.75
07.093,7.45
07.109,7.0
07.125,6.52
07.140,6.09
07.156,5.79
07.171,5.54
07.187,5.15
07.203,4.44
07.218,3.26
07.234,1.62
07.250,-0.29
07.265,-2.25
07.281,-4.06
07.296,-5.67
07.312,-7.12
07.328,-8.47
07.343,-9.68
07.359,-10.71
07.375,-11.47
07.390,-11.96
07.406,-12.28
07.421,-12.53
07.437,-12.79
07.453,-12.98
07.468,-12.91
07.484,-12.33
07.500,-11.08
07.515,-9.11
07.531,-6.47
07.546,-3.4
07.562,-0.2
07.578,2.75
07.593,5.19
07.609,6.98
07.625,8.18
07.640,9.0
07.656,9.66
07.671,10.29
07.687,10.85
07.703,11.24
07.718,11.39
07.734,11.38
07.750,11.45
07.765,11.87
07.781,12.8
07.796,14.16
07.812,15.63
07.828,16.78
07.843,17.34
07.859,17.15
07.875,16.4
07.890,15.35
07.906,14.29
07.921,13.35
07.937,12.51
07.953,11.66
07.968,10.66
07.984,9.55
08.000,8.4
08.015,7.36
08.031,6.53
08.046,5.89
08.062,5.29
08.078,4.54
08.093,3.54
08.109,2.28
08.125,0.93
08.140,-0.4
08.156,-1.58
08.171,-2.66
08.187,-3.76
08.203,-5.0
08.218,-6.42
08.234,-7.88
08.250,-9.2
08.265,-10.17
08.281,-10.68
08.296,-10.64
08.312,-10.12
08.328,-9.15
08.343,-7.74
08.359,-6.01
08.375,-4.07
08.390,-2.12
08.406,-0.32
08.421,1.2
08.437,2.45
08.453,3.43
08.468,4.21
08.484,4.85
08.500,5.4
08.515,5.93
08.531,6.5
08.546,7.19
08.562,7.89
08.578,8.41
08.593,8.52
08.609,7.98
08.625,6.87
08.640,5.42
08.656,4.03
08.671,3.06
08.687,2.63
08.703,2.58
08.718,2.61
08.734,2.46
08.750,2.06
08.765,1.54
08.781,1.11
08.796,0.95
08.812,1.02
08.828,1.14
08.843,1.07
08.859,0.71
08.875,0.12
08.890,-0.54
08.906,-1.16
08.921,-1.74
08.937,-2.41
08.953,-3.22
08.968,-4.15
08.984,-4.97
09.000,-5.41
09.015,-5.38
09.031,-5.0
09.046,-4.5
09.062,-4.21
09.078,-4.31
09.093,-4.83
09.109,-5.71
09.125,-6.78
09.140,-7.93
09.156,-9.05
09.171,-10.01
09.187,-10.69
09.203,-10.95
09.218,-10.72
09.234,-10.03
09.250,-8.96
09.265,-7.6
09.281,-6.01
09.296,-4.21
09.312,-2.24
09.328,-0.16
09.343,1.86
09.359,3.64
09.375,5.07
09.390,6.15
09.406,6.97
09.421,7.63
09.437,8.17
09.453,8.62
09.468,8.94
09.484,9.24
09.500,9.7
09.515,10.48
09.531,11.67
09.546,13.1
09.562,14.42
09.578,15.21
09.593,15.27
09.609,14.59
09.625,13.53
09.640,12.48
09.656,11.77
09.671,11.49
09.687,11.45
09.703,11.41
09.718,11.16
09.734,10.65
09.750,9.94
09.765,9.15
09.781,8.34
09.796,7.47
09.812,6.44
09.828,5.14
09.843,3.61
09.859,1.95
09.875,0.33
09.890,-1.17
09.906,-2.56
09.921,-3.89
09.937,-5.25
09.953,-6.61
09.968,-7.93
09.984,-9.14
10.000,-10.2
10.015,-11.21
10.031,-12.25
10.046,-13.4
10.062,-14.6
10.078,-15.66
10.093,-16.28
10.109,-16.21
10.125,-15.31
10.140,-13.66
10.156,-11.48
10.171,-9.09
10.187,-6.76
10.203,-4.67
10.218,-2.84
10.234,-1.13
10.250,0.6
10.265,2.52
10.281,4.6
10.296,6.74
10.312,8.66
10.328,10.15
10.343,11.07
10.359,11.45
10.375,11.55
10.390,11.68
10.406,12.08
10.421,12.79
10.437,13.64
10.453,14.34
10.468,14.65
10.484,14.55
10.500,14.22
10.515,13.98
10.531,14.06
10.546,14.49
10.562,15.05
10.578,15.47
10.593,15.48
10.609,15.06
10.625,14.38
10.640,13.61
10.656,12.9
10.671,12.14
10.687,11.19
10.703,9.92
10.718,8.45
10.734,6.98
10.750,5.81
10.765,5.08
10.781,4.69
10.796,4.37
10.812,3.79
10.828,2.77
10.843,1.29
10.859,-0.55
10.875,-2.56
10.890,-4.68
10.906,-6.86
10.921,-9.06
10.937,-11.19
10.953,-13.05
10.968,-14.46
10.984,-15.27
11.000,-15.46
11.015,-15.15
11.031,-14.48
11.046,-13.57
11.062,-12.49
11.078,-11.15
11.093,-9.44
11.109,-7.25
11.125,-4.55
11.140,-1.51
11.156,1.53
11.171,4.25
11.187,6.36
11.203,7.78
11.218,8.61
11.234,9.07
11.250,9.34
11.265,9.57
11.281,9.85
11.296,10.25
11.312,10.92
11.328,11.96
11.343,13.43
11.359,15.15
11.375,16.89
11.390,18.32
11.406,19.21
11.421,19.5
11.437,19.25
11.453,18.72
11.468,18.15
11.484,17.75
11.500,17.66
11.515,17.86
11.531,18.25
11.546,18.66
11.562,18.86
11.578,18.61
11.593,17.81
11.609,16.36
11.625,14.33
11.640,11.95
11.656,9.46
11.671,7.19
11.687,5.27
11.703,3.77
11.718,2.54
11.734,1.39
11.750,0.15
11.765,-1.27
11.781,-2.8
11.796,-4.33
11.812,-5.71
11.828,-6.78
11.843,-7.42
11.859,-7.51
11.875,-7.03
11.890,-6.04
11.906,-4.77
11.921,-3.55
11.937,-2.78
11.953,-2.74
11.968,-3.57
11.984,-5.16
12.000,-7.23
12.015,-9.37
12.031,-11.17
12.046,-12.29
12.062,-12.6
12.078,-12.18
12.093,-11.22
12.109,-9.93
12.125,-8.46
12.140,-6.9
12.156,-5.34
12.171,-3.8
12.187,-2.41
12.203,-1.24
12.218,-0.35
12.234,0.32
12.250,0.97
12.265,1.77
12.281,2.82
12.296,4.06
12.312,5.3
12.328,6.3
12.343,6.95
12.359,7.25
12.375,7.4
12.390,7.61
12.406,8.04
12.421,8.71
12.437,9.47
12.453,10.13
12.468,10.54
12.484,10.69
12.500,10.66
12.515,10.6
12.531,10.63
12.546,10.77
12.562,10.98
12.578,11.17
12.593,11.34
12.609,11.49
12.625,11.74
12.640,12.08
12.656,12.33
12.671,12.24
12.687,11.45
12.703,9.82
12.718,7.36
12.734,4.37
12.750,1.23
12.765,-1.7
12.781,-4.27
12.796,-6.54
12.812,-8.65
12.828,-10.7
12.843,-12.7
12.859,-14.49
12.875,-15.85
12.890,-16.61
12.906,-16.68
12.921,-16.11
12.937,-15.05
12.953,-13.62
12.968,-11.98
12.984,-10.2
13.000,-8.37
13.015,-6.57
13.031,-4.92
13.046,-3.54
13.062,-2.5
13.078,-1.86
13.093,-1.53
13.109,-1.42
13.125,-1.37
13.140,-1.21
13.156,-0.84
13.171,-0.15
13.187,0.92
13.203,2.41
13.218,4.24
13.234,6.33
13.250,8.51
13.265,10.55
13.281,12.34
13.296,13.83
13.312,15.05
13.328,16.09
13.343,17.05
13.359,17.96
13.375,18.86
13.390,19.71
13.406,20.43
13.421,20.95
13.437,21.14
13.453,20.98
13.468,20.55
13.484,20.15
13.500,20.19
13.515,21.04
13.531,22.81
13.546,25.17
13.562,27.48
13.578,28.91
13.593,28.84
13.609,27.18
13.625,24.4
13.640,21.38
13.656,19.09
13.671,18.17
13.687,18.86
13.703,20.88
13.718,23.67
13.734,26.54
13.750,28.93
13.765,30.44
13.781,30.95
13.796,30.72
13.812,30.29
13.828,30.55
13.843,32.45
13.859,36.76
13.875,43.85
13.890,53.49
13.906,64.81
13.921,76.42
13.937,86.73
13.953,94.26
13.968,97.93
13.984,97.3
14.000,92.54
14.015,84.4
14.031,73.93
14.046,62.37
14.062,50.72
14.078,39.72
14.093,29.69
14.109,20.59
14.125,12.1
14.140,3.89
14.156,-4.17
14.171,-11.94
14.187,-18.96
14.203,-24.73
14.218,-28.92
14.234,-31.53
14.250,-32.79
14.265,-33.12
14.281,-32.83
14.296,-32.08
14.312,-30.85
14.328,-29.08
14.343,-26.74
14.359,-23.97
14.375,-20.97
14.390,-18.0
14.406,-15.32
14.421,-13.09
14.437,-11.34
14.453,-10.07
14.468,-9.18
14.484,-8.57
14.500,-8.16
14.515,-7.95
14.531,-7.95
14.546,-8.22
14.562,-8.84
14.578,-9.87
14.593,-11.35
14.609,-13.22
14.625,-15.28
14.640,-17.22
14.656,-18.73
14.671,-19.59
14.687,-19.85
14.703,-19.73
14.718,-19.57
14.734,-19.67
14.750,-20.15
14.765,-20.92
14.781,-21.65
14.796,-21.88
14.812,-21.2
14.828,-19.37
14.843,-16.46
14.859,-12.79
14.875,-8.81
14.890,-4.88
14.906,-1.2
14.921,2.18
14.937,5.22
14.953,7.72
14.968,9.42
14.984,10.09
15.000,9.76
15.015,8.66
15.031,7.05
15.046,4.84
15.062,1.54
15.078,-3.65
15.093,-11.34
15.109,-21.43
15.125,-32.96
15.140,-44.33
15.156,-53.87
15.171,-60.5
15.187,-63.99
15.203,-64.93
15.218,-64.23
15.234,-62.74
15.250,-60.83
15.265,-58.57
15.281,-55.83
15.296,-52.56
15.312,-48.92
15.328,-45.22
15.343,-41.7
15.359,-38.41
15.375,-35.22
15.390,-31.89
15.406,-28.34
15.421,-24.67
15.437,-21.12
15.453,-17.88
15.468,-15.08
15.484,-12.68
15.500,-10.52
15.515,-8.51
15.531,-6.5
15.546,-4.4
15.562,-2.08
15.578,0.68
15.593,4.06
15.609,8.16
15.625,12.96
15.640,18.25
15.656,23.74
15.671,29.1
15.687,34.02
15.703,38.2
15.718,41.42
15.734,43.53
15.750,44.46
15.765,44.23
15.781,42.9
15.796,40.57
15.812,37.34
15.828,33.34
15.843,28.75
15.859,23.79
15.875,18.71
15.890,13.71
15.906,8.94
15.921,4.44
15.937,0.26
15.953,-3.53
15.968,-6.77
15.984,-9.32
16.000,-11.13
16.015,-12.31
16.031,-13.13
16.046,-13.88
16.062,-14.76
16.078,-15.82
16.093,-16.93
16.109,-17.89
16.125,-18.56
16.140,-18.86
16.156,-18.86
16.171,-18.73
16.187,-18.67
16.203,-18.79
16.218,-19.16
16.234,-19.67
16.250,-20.26
16.265,-20.79
16.281,-21.26
16.296,-21.71
16.312,-22.24
16.328,-22.93
16.343,-23.85
16.359,-25.01
16.375,-26.42
16.390,-28.09
16.406,-29.99
16.421,-31.99
16.437,-33.81
16.453,-35.1
16.468,-35.47
16.484,-34.74
16.500,-32.91
16.515,-30.18
16.531,-26.87
16.546,-23.24
16.562,-19.49
16.578,-15.77
16.593,-12.15
16.609,-8.74
16.625,-5.61
16.640,-2.85
16.656,-0.51
16.671,1.42
16.687,2.96
16.703,4.21
16.718,5.28
16.734,6.37
16.750,7.56
16.765,8.94
16.781,10.47
16.796,12.0
16.812,13.39
16.828,14.51
16.843,15.3
16.859,15.73
16.875,15.8
16.890,15.51
16.906,14.87
16.921,13.91
16.937,12.65
16.953,11.13
16.968,9.38
16.984,7.48
17.000,5.49
17.015,3.52
17.031,1.65
17.062,-1.4
17.078,-2.63
17.093,-3.81
17.109,-5.07
17.125,-6.52
17.140,-8.14
17.156,-9.87
17.171,-11.62
17.187,-13.31
17.203,-14.93
17.218,-16.52
17.234,-18.09
17.250,-19.68
17.265,-21.29
17.281,-22.92
17.296,-24.48
17.312,-25.92
17.328,-27.08
17.343,-27.82
17.359,-28.01
17.375,-27.56
17.390,-26.41
17.406,-24.62
17.421,-22.24
17.437,-19.3
17.453,-15.93
17.468,-12.21
17.484,-8.3
17.500,-4.38
17.515,-0.63
17.531,2.83
17.546,5.91
17.562,8.55
17.578,10.77
17.593,12.56
17.609,14.02
17.625,15.24
17.640,16.34
17.656,17.34
17.671,18.14
17.687,18.6
17.703,18.64
17.718,18.3
17.734,17.77
17.750,17.28
17.765,17.0
17.781,16.88
17.796,16.78
17.812,16.42
17.828,15.64
17.843,14.46
17.859,13.02
17.875,11.54
17.890,10.25
17.906,9.27
17.921,8.62
17.937,8.26
17.953,8.13
17.968,8.1
17.984,8.11
18.000,8.06
18.015,7.85
18.031,7.43
18.046,6.81
18.062,5.97
18.078,4.91
18.093,3.71
18.109,2.44
18.125,1.17
18.140,-0.05
18.156,-1.28
18.171,-2.66
18.187,-4.29
18.203,-6.24
18.218,-8.42
18.234,-10.59
18.250,-12.38
18.265,-13.39
18.281,-13.35
18.296,-12.15
18.312,-9.89
18.328,-6.78
18.343,-3.1
18.359,0.88
18.375,4.92
18.390,8.84
18.406,12.53
18.421,15.89
18.437,18.88
18.453,21.53
18.468,23.91
18.484,26.1
18.500,28.15
18.515,30.03
18.531,31.6
18.546,32.75
18.562,33.39
18.578,33.51
18.593,33.21
18.609,32.62
18.625,31.88
18.640,31.08
18.656,30.26
18.671,29.46
18.687,28.69
18.703,27.9
18.718,27.0
18.734,25.89
18.750,24.43
18.765,22.61
18.781,20.48
18.796,18.19
18.812,15.89
18.828,13.71
18.843,11.69
18.859,9.78
18.875,7.87
18.890,5.85
18.906,3.69
18.921,1.41
18.937,-0.92
18.953,-3.27
18.968,-5.57
18.984,-7.78
19.000,-9.84
19.015,-11.71
19.031,-13.42
19.046,-15.02
19.062,-16.63
19.078,-18.38
19.093,-20.34
19.109,-22.51
19.125,-24.74
19.140,-26.85
19.156,-28.68
19.171,-30.13
19.187,-31.11
19.203,-31.49
19.218,-31.12
19.234,-29.9
19.250,-27.86
19.265,-25.18
19.281,-22.14
19.296,-18.95
19.312,-15.73
19.328,-12.45
19.343,-8.99
19.359,-5.38
19.375,-1.79
19.390,1.44
19.406,3.99
19.421,5.71
19.437,6.73
19.453,7.35
19.468,7.82
19.484,8.32
19.500,8.86
19.515,9.39
19.531,9.84
19.546,10.17
19.562,10.35
19.578,10.41
19.593,10.34
19.609,10.11
19.625,9.75
19.640,9.25
19.656,8.64
19.671,7.89
19.687,6.98
19.703,5.87
19.718,4.61
19.734,3.3
19.750,2.02
19.765,0.83
19.781,-0.26
19.796,-1.29
19.812,-2.3
19.828,-3.34
19.843,-4.51
19.859,-5.94
19.875,-7.73
19.890,-9.96
19.906,-12.56
19.921,-15.33
19.937,-18.03
19.953,-20.5
19.968,-22.67
19.984,-24.66
20.000,-26.61
20.015,-28.56
20.031,-30.44
20.046,-32.06
20.062,-33.21
20.078,-33.8
20.093,-33.82
20.109,-33.38
20.125,-32.49
20.140,-31.16
20.156,-29.27
20.171,-26.8
20.187,-23.73
20.203,-20.19
20.218,-16.4
20.234,-12.56
20.250,-8.78
20.265,-5.13
20.281,-1.61
20.296,1.77
20.312,4.88
20.328,7.58
20.343,9.76
20.359,11.35
20.375,12.42
20.390,13.11
20.406,13.53
20.421,13.77
20.437,13.85
20.453,13.71
20.468,13.34
20.484,12.75
20.500,11.95
20.515,11.06
20.531,10.15
20.546,9.26
20.562,8.39
20.578,7.47
20.593,6.4
20.609,5.12
20.625,3.67
20.640,2.07
20.656,0.41
20.671,-1.27
20.687,-2.95
20.703,-4.66
20.718,-6.42
20.734,-8.22
20.750,-10.04
20.765,-11.81
20.781,-13.54
20.796,-15.2
20.812,-16.82
20.828,-18.38
20.843,-19.81
20.859,-21.03
20.875,-21.98
20.890,-22.66
20.906,-23.14
20.921,-23.51
20.937,-23.86
20.953,-24.13
20.968,-24.19
20.984,-23.79
21.000,-22.66
21.015,-20.67
21.031,-17.92
21.046,-14.67
21.062,-11.3
21.078,-8.18
21.093,-5.49
21.109,-3.31
21.125,-1.51
21.140,0.05
21.156,1.52
21.171,2.98
21.187,4.48
21.203,6.01
21.218,7.51
21.234,8.95
21.250,10.23
21.265,11.32
21.281,12.24
21.296,13.08
21.312,13.94
21.328,14.87
21.343,15.88
21.359,16.85
21.375,17.74
21.390,18.45
21.406,19.0
21.421,19.34
21.437,19.43
21.453,19.19
21.468,18.62
21.484,17.83
21.500,17.01
21.515,16.45
21.531,16.27
21.546,16.42
21.562,16.69
21.578,16.79
21.593,16.55
21.609,15.95
21.625,15.12
21.640,14.23
21.656,13.4
21.671,12.65
21.687,11.88
21.703,10.99
21.718,9.93
21.734,8.8
21.750,7.69
21.765,6.76
21.781,5.99
21.796,5.3
21.812,4.45
21.828,3.26
21.843,1.66
21.859,-0.27
21.875,-2.22
21.890,-3.84
21.906,-4.82
21.921,-4.92
21.937,-4.1
21.953,-2.42
21.968,-0.08
21.984,2.75
22.000,5.85
22.015,9.08
22.031,12.3
22.046,15.45
22.062,18.45
22.078,21.24
22.093,23.7
22.109,25.71
22.125,27.18
22.140,28.06
22.156,28.35
22.171,28.14
22.187,27.57
22.203,26.75
22.218,25.78
22.234,24.68
22.250,23.47
22.265,22.17
22.281,20.78
22.296,19.36
22.312,17.92
22.328,16.56
22.343,15.3
22.359,14.11
22.375,12.91
22.390,11.52
22.406,9.85
22.421,7.83
22.437,5.56
22.453,3.22
22.468,1.05
22.484,-0.76
22.500,-2.2
22.515,-3.36
22.531,-4.44
22.546,-5.63
22.562,-7.07
22.578,-8.76
22.593,-10.73
22.609,-12.94
22.625,-15.38
22.640,-18.03
22.656,-20.84
22.671,-23.76
22.687,-26.69
22.703,-29.51
22.718,-32.14
22.734,-34.49
22.750,-36.55
22.765,-38.21
22.781,-39.33
22.796,-39.69
22.812,-39.1
22.828,-37.49
22.843,-34.94
22.859,-31.76
22.875,-28.26
22.890,-24.79
22.906,-21.46
22.921,-18.27
22.937,-15.08
22.953,-11.81
22.968,-8.46
22.984,-5.19
23.000,-2.17
23.015,0.52
23.031,2.85
23.046,4.9
23.062,6.72
23.078,8.33
23.093,9.71
23.109,10.78
23.125,11.48
23.140,11.74
23.156,11.61
23.171,11.16
23.187,10.5
23.203,9.8
23.218,9.15
23.234,8.63
23.250,8.16
23.265,7.62
23.281,6.9
23.296,6.01
23.312,4.95
23.328,3.82
23.343,2.64
23.359,1.37
23.375,-0.06
23.390,-1.69
23.406,-3.49
23.421,-5.37
23.437,-7.14
23.453,-8.71
23.468,-10.04
23.484,-11.16
23.500,-12.19
23.515,-13.2
23.531,-14.3
23.546,-15.55
23.562,-17.04
23.578,-18.81
23.593,-20.9
23.609,-23.29
23.625,-25.86
23.640,-28.45
23.656,-30.76
23.671,-32.51
23.687,-33.42
23.703,-33.26
23.718,-31.97
23.734,-29.58
23.750,-26.27
23.765,-22.28
23.781,-17.93
23.796,-13.45
23.812,-9.07
23.828,-4.95
23.843,-1.15
23.859,2.23
23.875,5.18
23.890,7.7
23.906,9.81
23.921,11.52
23.937,12.89
23.953,13.92
23.968,14.61
23.984,15.02
24.000,15.16
24.015,15.14
24.031,15.05
24.046,15.01
24.062,15.05
24.078,15.18
24.093,15.29
24.109,15.22
24.125,14.85
24.140,14.07
24.156,12.88
24.171,11.39
24.187,9.74
24.203,8.13
24.218,6.71
24.234,5.49
24.250,4.42
24.265,3.34
24.281,2.09
24.296,0.58
24.312,-1.2
24.328,-3.19
24.343,-5.25
24.359,-7.28
24.375,-9.27
24.390,-11.22
24.406,-13.14
24.421,-15.01
24.437,-16.79
24.453,-18.41
24.468,-19.92
24.484,-21.4
24.500,-22.97
24.515,-24.74
24.531,-26.66
24.546,-28.56
24.562,-30.14
24.578,-31.07
24.593,-31.08
24.609,-30.07
24.625,-28.09
24.640,-25.3
24.656,-22.01
24.671,-18.41
24.687,-14.72
24.703,-11.09
24.718,-7.6
24.734,-4.26
24.750,-1.12
24.765,1.84
24.781,4.63
24.796,7.27
24.812,9.75
24.828,12.02
24.843,13.96
24.859,15.49
24.875,16.55
24.890,17.18
24.906,17.51
24.921,17.68
24.937,17.76
24.953,17.79
24.968,17.73
24.984,17.58
25.000,17.38
25.015,17.22
25.031,17.11
25.046,16.98
25.062,16.71
25.078,16.14
25.093,15.18
25.109,13.87
25.125,12.36
25.140,10.79
25.156,9.31
25.171,7.95
25.187,6.75
25.203,5.69
25.218,4.84
25.234,4.22
25.250,3.8
25.265,3.51
25.281,3.21
25.296,2.82
25.312,2.31
25.328,1.71
25.343,1.06
25.359,0.33
25.375,-0.52
25.390,-1.57
25.406,-2.88
25.421,-4.46
25.437,-6.22
25.453,-8.05
25.468,-9.78
25.484,-11.33
25.500,-12.6
25.515,-13.43
25.531,-13.69
25.546,-13.21
25.562,-11.87
25.578,-9.63
25.593,-6.59
25.609,-2.96
25.625,1.03
25.640,5.15
25.656,9.31
25.671,13.37
25.687,17.25
25.703,20.8
25.718,23.89
25.734,26.45
25.750,28.54
25.765,30.33
25.781,32.01
25.796,33.67
25.812,35.18
25.828,36.38
25.843,37.09
25.859,37.25
25.875,36.93
25.890,36.26
25.906,35.35
25.921,34.26
25.937,33.05
25.953,31.75
25.968,30.43
25.984,29.17
26.000,27.9
26.015,26.56
26.031,24.97
26.046,23.09
26.062,20.9
26.078,18.55
26.093,16.2
26.109,13.95
26.125,11.82
26.140,9.66
26.156,7.36
26.171,4.82
26.187,1.99
26.203,-1.06
26.218,-4.24
26.234,-7.42
26.250,-10.48
26.265,-13.35
26.281,-15.99
26.296,-18.37
26.312,-20.53
26.328,-22.58
26.343,-24.65
26.359,-26.86
26.375,-29.24
26.390,-31.64
26.406,-33.87
26.421,-35.63
26.437,-36.61
26.453,-36.59
26.468,-35.5
26.484,-33.37
26.500,-30.38
26.515,-26.75
26.531,-22.69
26.546,-18.32
26.562,-13.69
26.578,-8.83
26.593,-3.83
26.609,1.05
26.625,5.47
26.640,9.08
26.656,11.66
26.671,13.21
26.687,13.9
26.703,13.96
26.718,13.62
26.734,13.04
26.750,12.34
26.765,11.65
26.781,11.09
26.796,10.74
26.812,10.59
26.828,10.59
26.843,10.61
26.859,10.46
26.875,10.05
26.890,9.32
26.906,8.32
26.921,7.09
26.937,5.73
26.953,4.29
26.968,2.88
26.984,1.56
27.000,0.37
27.015,-0.71
27.031,-1.72
27.046,-2.75
27.062,-3.89
27.078,-5.24
27.093,-6.85
27.109,-8.73
27.125,-10.79
27.140,-12.96
27.156,-15.15
27.171,-17.35
27.187,-19.57
27.203,-21.79
27.218,-24.01
27.234,-26.12
27.250,-28.05
27.265,-29.71
27.281,-31.09
27.296,-32.1
27.312,-32.65
27.328,-32.58
27.343,-31.66
27.359,-29.68
27.375,-26.66
27.390,-22.79
27.406,-18.43
27.421,-14.03
27.437,-9.88
27.453,-6.14
27.468,-2.77
27.484,0.32
27.500,3.24
27.515,5.99
27.531,8.49
27.546,10.64
27.562,12.36
27.578,13.62
27.593,14.41
27.609,14.72
27.625,14.58
27.640,14.01
27.656,13.06
27.671,11.86
27.687,10.58
27.703,9.42
27.718,8.54
27.734,8.03
27.750,7.85
27.765,7.86
27.781,7.86
27.796,7.61
27.812,7.01
27.828,6.06
27.843,4.84
27.859,3.48
27.875,2.08
27.890,0.61
27.906,-0.99
27.921,-2.8
27.937,-4.8
27.953,-6.93
27.968,-9.01
27.984,-10.99
28.000,-12.89
28.015,-14.83
28.031,-16.94
28.046,-19.24
28.062,-21.62
28.078,-23.9
28.093,-25.94
28.109,-27.66
28.125,-29.13
28.140,-30.46
28.156,-31.64
28.171,-32.58
28.187,-32.98
28.203,-32.5
28.218,-30.94
28.234,-28.22
28.250,-24.53
28.265,-20.19
28.281,-15.59
28.296,-11.1
28.312,-6.97
28.328,-3.28
28.343,0.01
28.359,2.93
28.375,5.54
28.390,7.85
28.406,9.84
28.421,11.54
28.437,13.03
28.453,14.42
28.468,15.8
28.484,17.18
28.500,18.47
28.515,19.5
28.531,20.16
28.546,20.4
28.562,20.27
28.578,19.87
28.593,19.28
28.609,18.58
28.625,17.83
28.640,17.07
28.656,16.35
28.671,15.65
28.687,14.87
28.703,13.88
28.718,12.56
28.734,10.92
28.750,9.08
28.765,7.23
28.781,5.55
28.796,4.1
28.812,2.8
28.828,1.52
28.843,0.18
28.859,-1.26
28.875,-2.72
28.890,-4.17
28.906,-5.64
28.921,-7.12
28.937,-8.68
28.953,-10.3
28.968,-11.94
28.984,-13.54
29.000,-15.08
29.015,-16.53
29.031,-17.79
29.046,-18.66
29.062,-18.89
29.078,-18.25
29.093,-16.59
29.109,-13.99
29.125,-10.63
29.140,-6.78
29.156,-2.69
29.171,1.46
29.187,5.58
29.203,9.62
29.218,13.56
29.234,17.3
29.250,20.76
29.265,23.82
29.281,26.41
29.296,28.53
29.312,30.23
29.328,31.62
29.343,32.76
29.359,33.65
29.375,34.27
29.390,34.58
29.406,34.65
29.421,34.59
29.437,34.48
29.453,34.34
29.468,34.03
29.484,33.41
29.500,32.31
29.515,30.73
29.531,28.79
29.546,26.73
29.562,24.72
29.578,22.86
29.593,21.06
29.609,19.22
29.625,17.21
29.640,15.0
29.656,12.62
29.671,10.12
29.687,7.61
29.703,5.12
29.718,2.71
29.734,0.46
29.750,-1.58
29.765,-3.34
29.781,-4.82
29.796,-6.09
29.812,-7.29
29.828,-8.58
29.843,-10.08
29.859,-11.84
29.875,-13.8
29.890,-15.86
29.906,-17.89
29.921,-19.73
29.937,-21.21
29.953,-22.14
29.968,-22.32
29.984,-21.57
30.000,-19.85
30.015,-17.19
30.031,-13.77
30.046,-9.86
30.062,-5.78
30.078,-1.76
30.093,1.99
30.109,5.33
30.125,8.25
30.140,10.71
30.156,12.75
30.171,14.35
30.187,15.53
30.203,16.31
30.218,16.71
30.234,16.85
30.250,16.77
30.265,16.56
30.281,16.22
30.296,15.75
30.312,15.14
30.328,14.42
30.343,13.69
30.359,12.99
30.375,12.36
30.390,11.72
30.406,10.89
30.421,9.72
30.437,8.15
30.453,6.24
30.468,4.2
30.484,2.23
30.500,0.42
30.515,-1.17
30.531,-2.62
30.546,-4.01
30.562,-5.42
30.578,-6.92
30.593,-8.54
30.609,-10.3
30.625,-12.23
30.640,-14.33
30.656,-16.64
30.671,-19.15
30.687,-21.8
30.703,-24.49
30.718,-27.06
30.734,-29.3
30.750,-31.07
30.765,-32.25
30.781,-32.87
30.796,-32.98
30.812,-32.64
30.828,-31.87
30.843,-30.63
30.859,-28.89
30.875,-26.6
30.890,-23.82
30.906,-20.64
30.921,-17.14
30.937,-13.42
30.953,-9.56
30.968,-5.63
30.984,-1.77
31.000,1.89
31.015,5.23
31.031,8.15
31.046,10.61
31.062,12.57
31.078,14.0
31.093,14.87
31.109,15.18
31.125,15.03
31.140,14.59
31.156,14.11
31.171,13.72
31.187,13.49
31.203,13.28
31.218,12.93
31.234,12.28
31.250,11.24
31.265,9.85
31.281,8.19
31.296,6.42
31.312,4.66
31.328,3.06
31.343,1.65
31.359,0.45
31.375,-0.63
31.390,-1.68
31.406,-2.82
31.421,-4.1
31.437,-5.54
31.453,-7.19
31.468,-9.1
31.484,-11.32
31.500,-13.84
31.515,-16.56
31.531,-19.26
31.546,-21.71
31.562,-23.77
31.578,-25.41
31.593,-26.81
31.609,-28.16
31.625,-29.6
31.640,-31.13
31.656,-32.57
31.671,-33.67
31.687,-34.15
31.703,-33.83
31.718,-32.6
31.734,-30.45
31.750,-27.44
31.765,-23.76
31.781,-19.65
31.796,-15.38
31.812,-11.19
31.828,-7.19
31.843,-3.37
31.859,0.32
31.875,3.9
31.890,7.3
31.906,10.36
31.921,12.88
31.937,14.84
31.953,16.27
31.968,17.27
31.984,17.99
32.000,18.52
32.015,18.87
32.031,19.03
32.046,19.01
32.062,18.77
32.078,18.38
32.093,17.87
32.109,17.28
32.125,16.62
32.140,15.88
32.156,15.02
32.171,13.99
32.187,12.74
32.203,11.24
32.218,9.48
32.234,7.54
32.250,5.54
32.265,3.65
32.281,1.98
32.296,0.57
32.312,-0.65
32.328,-1.82
32.343,-3.1
32.359,-4.6
32.375,-6.34
32.390,-8.18
32.406,-9.98
32.421,-11.63
32.437,-13.13
32.453,-14.6
32.468,-16.18
32.484,-18.0
32.500,-20.0
32.515,-21.99
32.531,-23.71
32.546,-24.87
32.562,-25.23
32.578,-24.71
32.593,-23.35
32.609,-21.24
32.625,-18.5
32.640,-15.26
32.656,-11.71
32.671,-8.03
32.687,-4.43
32.703,-1.05
32.718,2.0
32.734,4.71
32.750,7.15
32.765,9.42
32.781,11.6
32.796,13.72
32.812,15.73
32.828,17.58
32.843,19.23
32.859,20.62
32.875,21.79
32.890,22.77
32.906,23.62
32.921,24.39
32.937,25.13
32.953,25.81
32.968,26.34
32.984,26.62
33.000,26.47
33.015,25.86
33.031,24.8
33.046,23.45
33.062,21.99
33.078,20.61
33.093,19.43
33.109,18.49
33.125,17.76
33.140,17.17
33.156,16.62
33.171,15.94
33.187,14.95
33.203,13.49
33.218,11.51
33.234,9.12
33.250,6.58
33.265,4.22
33.281,2.28
33.296,0.8
33.312,-0.46
33.328,-1.86
33.343,-3.78
33.359,-6.4
33.375,-9.66
33.390,-13.27
33.406,-16.79
33.421,-19.89
33.437,-22.3
33.453,-23.97
33.468,-25.0
33.484,-25.59
33.500,-26.06
33.515,-26.78
33.531,-28.07
33.546,-30.14
33.562,-33.02
33.578,-36.39
33.593,-39.76
33.609,-42.53
33.625,-44.2
33.640,-44.48
33.656,-43.42
33.671,-41.25
33.687,-38.4
33.703,-35.24
33.718,-31.94
33.734,-28.45
33.750,-24.48
33.765,-19.67
33.781,-13.83
33.796,-6.96
33.812,0.53
33.828,8.17
33.843,15.4
33.859,21.93
33.875,27.62
33.890,32.42
33.906,36.22
33.921,38.73
33.937,39.53
33.953,38.3
33.968,34.96
33.984,29.77
34.000,23.29
34.015,16.06
34.031,8.6
34.046,1.28
34.062,-5.65
34.078,-11.91
34.093,-17.15
34.109,-21.07
34.125,-23.45
34.140,-24.39
34.156,-24.26
34.171,-23.6
34.187,-22.93
34.203,-22.59
34.218,-22.67
34.234,-23.06
34.250,-23.58
34.265,-24.15
34.281,-24.77
34.296,-25.49
34.312,-26.28
34.328,-26.92
34.343,-27.07
34.359,-26.38
34.375,-24.61
34.390,-21.77
34.406,-18.13
34.421,-14.05
34.437,-9.93
34.453,-5.96
34.468,-2.18
34.484,1.59
34.500,5.55
34.515,9.83
34.531,14.38
34.546,18.98
34.562,23.3
34.578,26.98
34.593,29.81
34.609,31.69
34.625,32.64
34.640,32.76
34.656,32.13
34.671,30.83
34.687,28.9
34.703,26.54
34.718,24.02
34.734,21.67
34.750,19.72
34.765,18.23
34.781,17.06
34.796,15.93
34.812,14.61
34.828,12.95
34.843,11.0
34.859,8.94
34.875,7.0
34.890,5.33
34.906,3.96
34.921,2.8
34.937,1.7
34.953,0.5
34.968,-0.91
34.984,-2.49
35.000,-4.07
35.015,-5.48
35.031,-6.55
35.046,-7.23
35.062,-7.58
35.078,-7.76
35.093,-7.88
35.109,-8.0
35.125,-8.17
35.140,-8.37
35.156,-8.63
35.171,-8.9
35.187,-9.15
35.203,-9.25
35.218,-9.08
35.234,-8.54
35.250,-7.61
35.265,-6.4
35.281,-5.07
35.296,-3.7
35.312,-2.31
35.328,-0.86
35.343,0.68
35.359,2.3
35.375,4.02
35.390,5.8
35.406,7.6
35.421,9.36
35.437,10.96
35.453,12.29
35.468,13.21
35.484,13.65
35.500,13.68
35.515,13.46
35.531,13.18
35.546,12.93
35.562,12.66
35.578,12.3
35.593,11.74
35.609,11.02
35.625,10.26
35.640,9.58
35.656,9.07
35.671,8.66
35.687,8.24
35.703,7.67
35.718,6.91
35.734,6.01
35.750,5.12
35.765,4.41
35.781,3.95
35.796,3.72
35.812,3.6
35.828,3.45
35.843,3.1
35.859,2.4
35.875,1.28
35.890,-0.26
35.906,-2.1
35.921,-4.11
35.937,-6.12
35.953,-8.04
35.968,-9.79
35.984,-11.34
36.000,-12.64
36.015,-13.52
36.031,-13.79
36.046,-13.25
36.062,-11.91
36.078,-9.98
36.093,-7.8
36.109,-5.69
36.125,-3.83
36.140,-2.14
36.156,-0.4
36.171,1.53
36.187,3.68
36.203,5.87
36.218,7.89
36.234,9.54
36.250,10.82
36.265,11.78
36.281,12.55
36.296,13.18
36.312,13.68
36.328,14.1
36.343,14.52
36.359,15.04
36.375,15.76
36.390,16.69
36.406,17.74
36.421,18.75
36.437,19.58
36.453,20.09
36.468,20.25
36.484,20.05
36.500,19.47
36.515,18.47
36.531,17.07
36.546,15.31
36.562,13.36
36.578,11.45
36.593,9.79
36.609,8.52
36.625,7.61
36.640,6.92
36.656,6.22
36.671,5.25
36.687,3.91
36.703,2.19
36.718,0.24
36.734,-1.76
36.750,-3.69
36.765,-5.51
36.781,-7.29
36.796,-9.12
36.812,-11.07
36.828,-13.1
36.843,-15.08
36.859,-16.82
36.875,-18.07
36.890,-18.6
36.906,-18.36
36.921,-17.33
36.937,-15.69
36.953,-13.64
36.968,-11.44
36.984,-9.29
37.000,-7.31
37.015,-5.47
37.031,-3.68
37.046,-1.84
37.062,0.1
37.078,2.12
37.093,4.13
37.109,5.93
37.125,7.37
37.140,8.33
37.156,8.83
37.171,8.96
37.187,8.85
37.203,8.68
37.218,8.59
37.234,8.66
37.250,8.9
37.265,9.21
37.281,9.5
37.296,9.65
37.312,9.61
37.328,9.32
37.343,8.86
37.359,8.24
37.375,7.48
37.390,6.58
37.406,5.53
37.421,4.34
37.437,3.08
37.453,1.83
37.468,0.64
37.484,-0.5
37.500,-1.68
37.515,-2.98
37.531,-4.41
37.546,-5.92
37.562,-7.39
37.578,-8.67
37.593,-9.69
37.609,-10.53
37.625,-11.32
37.640,-12.27
37.656,-13.53
37.671,-15.07
37.687,-16.81
37.703,-18.55
37.718,-20.05
37.734,-21.07
37.750,-21.47
37.765,-21.19
37.781,-20.3
37.796,-18.93
37.812,-17.16
37.828,-15.05
37.843,-12.62
37.859,-9.85
37.875,-6.8
37.890,-3.63
37.906,-0.55
37.921,2.19
37.937,4.36
37.953,5.93
37.968,6.96
37.984,7.61
38.000,8.04
38.015,8.38
38.031,8.68
38.046,9.01
38.062,9.37
38.078,9.78
38.093,10.23
38.109,10.74
38.125,11.27
38.140,11.75
38.156,12.09
38.171,12.19
38.187,12.07
38.203,11.76
38.218,11.34
38.234,10.84
38.250,10.27
38.265,9.58
38.281,8.78
38.296,7.93
38.312,7.05
38.328,6.18
38.343,5.27
38.359,4.31
38.375,3.29
38.390,2.27
38.406,1.33
38.421,0.47
38.437,-0.32
38.453,-1.16
38.468,-2.16
38.484,-3.36
38.500,-4.7
38.515,-6.05
38.531,-7.34
38.546,-8.54
38.562,-9.62
38.578,-10.55
38.593,-11.29
38.609,-11.67
38.625,-11.62
38.640,-11.09
38.656,-10.11
38.671,-8.81
38.687,-7.29
38.703,-5.66
38.718,-3.92
38.734,-2.06
38.750,-0.06
38.765,2.02
38.781,4.05
38.796,5.9
38.812,7.46
38.828,8.72
38.843,9.73
38.859,10.57
38.875,11.33
38.890,12.05
38.906,12.69
38.921,13.2
38.937,13.52
38.953,13.57
38.968,13.39
38.984,13.08
39.000,12.8
39.015,12.72
39.031,12.9
39.046,13.28
39.062,13.7
39.078,13.99
39.093,14.03
39.109,13.84
39.125,13.48
39.140,13.01
39.156,12.46
39.171,11.84
39.187,11.19
39.203,10.65
39.218,10.38
39.234,10.45
39.250,10.78
39.265,11.15
39.281,11.23
39.296,10.78
39.312,9.76
39.328,8.35
39.343,6.94
39.359,5.9
39.375,5.42
39.390,5.42
39.406,5.58
39.421,5.44
39.437,4.61
39.453,2.99
39.468,0.8
39.484,-1.42
39.500,-3.07
39.515,-3.63
39.531,-2.95
39.546,-1.14
39.562,1.42
39.578,4.32
39.593,7.23
39.609,9.89
39.625,12.21
39.640,14.13
39.656,15.64
39.671,16.76
39.687,17.57
39.703,18.19
39.718,18.73
39.734,19.25
39.750,19.75
39.765,20.16
39.781,20.36
39.796,20.24
39.812,19.77
39.828,18.97
39.843,18.0
39.859,16.98
39.875,16.07
39.890,15.3
39.906,14.65
39.921,14.03
39.937,13.34
39.953,12.54
39.968,11.57
39.984,10.42
40.000,9.05
40.015,7.42
40.031,5.54
40.046,3.44
40.062,1.24
40.078,-0.92
40.093,-2.91
40.109,-4.63
40.125,-6.08
40.140,-7.33
40.156,-8.47
40.171,-9.58
40.187,-10.71
40.203,-11.88
40.218,-13.05
40.234,-14.24
40.250,-15.44
40.265,-16.7
40.281,-18.05
40.296,-19.49
40.312,-21.01
40.328,-22.6
40.343,-24.21
40.359,-25.74
40.375,-27.07
40.390,-28.0
40.406,-28.33
40.421,-27.93
40.437,-26.73
40.453,-24.78
40.468,-22.23
40.484,-19.24
40.500,-16.0
40.515,-12.72
40.531,-9.61
40.546,-6.83
40.562,-4.51
40.578,-2.66
40.593,-1.21
40.609,-0.03
40.625,1.03
40.640,2.05
40.656,3.07
40.671,4.03
40.687,4.84
40.703,5.44
40.718,5.78
40.734,5.92
40.750,5.96
40.765,5.95
40.781,5.9
40.796,5.74
40.812,5.35
40.828,4.63
40.843,3.56
40.859,2.22
40.875,0.82
40.890,-0.47
40.906,-1.51
40.921,-2.28
40.937,-2.82
40.953,-3.24
40.968,-3.63
40.984,-4.04
41.000,-4.47
41.015,-4.92
41.031,-5.38
41.046,-5.91
41.062,-6.52
41.078,-7.2
41.093,-7.91
41.109,-8.62
41.125,-9.34
41.140,-10.08
41.156,-10.92
41.171,-11.81
41.187,-12.69
41.203,-13.4
41.218,-13.87
41.234,-14.11
41.250,-14.26
41.265,-14.48
41.281,-14.78
41.296,-15.04
41.312,-14.97
41.328,-14.32
41.343,-12.99
41.359,-11.15
41.375,-9.05
41.390,-7.02
41.406,-5.22
41.421,-3.69
41.437,-2.31
41.453,-0.93
41.468,0.48
41.484,1.92
41.500,3.26
41.515,4.41
41.531,5.34
41.546,6.09
41.562,6.7
41.578,7.22
41.593,7.7
41.609,8.14
41.625,8.53
41.640,8.9
41.656,9.26
41.671,9.66
41.687,10.06
41.703,10.36
41.718,10.42
41.734,10.16
41.750,9.63
41.765,8.98
41.781,8.37
41.796,7.86
41.812,7.4
41.828,6.87
41.843,6.21
41.859,5.42
41.875,4.66
41.890,4.06
41.906,3.66
41.921,3.37
41.937,3.01
41.953,2.42
41.968,1.53
41.984,0.4
42.000,-0.82
42.015,-1.97
42.031,-2.89
42.046,-3.51
42.062,-3.84
42.078,-3.96
42.093,-4.02
42.109,-4.22
42.125,-4.66
42.140,-5.38
42.156,-6.29
42.171,-7.17
42.187,-7.78
42.203,-7.92
42.218,-7.45
42.234,-6.38
42.250,-4.85
42.265,-3.06
42.281,-1.24
42.296,0.45
42.312,1.96
42.328,3.34
42.343,4.72
42.359,6.2
42.375,7.81
42.390,9.5
42.406,11.15
42.421,12.63
42.437,13.84
42.453,14.76
42.468,15.42
42.484,15.9
42.500,16.25
42.515,16.58
42.531,16.93
42.546,17.32
42.562,17.75
42.578,18.17
42.593,18.56
42.609,18.79
42.625,18.8
42.640,18.48
42.656,17.8
42.671,16.77
42.687,15.44
42.703,13.91
42.718,12.29
42.734,10.7
42.750,9.26
42.765,8.1
42.781,7.22
42.796,6.6
42.812,6.09
42.828,5.54
42.843,4.83
42.859,3.92
42.875,2.9
42.890,1.86
42.906,0.9
42.921,-0.03
42.937,-0.95
42.953,-1.97
42.968,-3.05
42.984,-4.17
43.000,-5.28
43.015,-6.39
43.031,-7.61
43.046,-8.97
43.062,-10.45
43.078,-11.84
43.093,-12.81
43.109,-13.06
43.125,-12.44
43.140,-11.04
43.156,-9.08
43.171,-6.86
43.187,-4.62
43.203,-2.55
43.218,-0.71
43.234,0.9
43.250,2.24
43.265,3.36
43.281,4.28
43.296,5.06
43.312,5.77
43.328,6.43
43.343,6.99
43.359,7.34
43.375,7.43
43.390,7.23
43.406,6.78
43.421,6.18
43.437,5.52
43.453,4.79
43.468,3.98
43.484,3.02
43.500,1.85
43.515,0.46
43.531,-1.15
43.546,-2.9
43.562,-4.71
43.578,-6.44
43.593,-7.96
43.609,-9.19
43.625,-10.1
43.640,-10.81
43.656,-11.46
43.671,-12.25
43.687,-13.25
43.703,-14.44
43.718,-15.74
43.734,-17.07
43.750,-18.36
43.765,-19.62
43.781,-20.88
43.796,-22.14
43.812,-23.43
43.828,-24.72
43.843,-26.02
43.859,-27.32
43.875,-28.54
43.890,-29.53
43.906,-30.07
43.921,-29.96
43.937,-29.05
43.953,-27.38
43.968,-25.1
43.984,-22.44
44.000,-19.6
44.015,-16.67
44.031,-13.7
44.046,-10.67
44.062,-7.65
44.078,-4.75
44.093,-2.15
44.109,-0.03
44.125,1.49
44.140,2.42
44.156,2.86
44.171,3.01
44.187,3.06
44.203,3.12
44.218,3.24
44.234,3.4
44.250,3.55
44.265,3.67
44.281,3.84
44.296,4.14
44.312,4.64
44.328,5.35
44.343,6.11
44.359,6.64
44.375,6.7
44.390,6.11
44.406,4.91
44.421,3.34
44.437,1.72
44.453,0.36
44.468,-0.6
44.484,-1.15
44.500,-1.44
44.515,-1.63
44.531,-1.85
44.546,-2.13
44.562,-2.42
44.578,-2.68
44.593,-2.91
44.609,-3.19
44.625,-3.63
44.640,-4.35
44.656,-5.4
44.671,-6.73
44.687,-8.23
44.703,-9.75
44.718,-11.09
44.734,-12.13
44.750,-12.72
44.765,-12.78
44.781,-12.2
44.796,-11.0
44.812,-9.24
44.828,-7.09
44.843,-4.79
44.859,-2.53
44.875,-0.47
44.890,1.39
44.906,3.14
44.921,4.85
44.937,6.51
44.953,7.98
44.968,9.08
44.984,9.68
45.000,9.8
45.015,9.58
45.031,9.25
45.046,8.97
45.062,8.76
45.078,8.57
45.093,8.34
45.109,8.05
45.125,7.74
45.140,7.49
45.156,7.31
45.171,7.17
45.187,6.99
45.203,6.71
45.218,6.37
45.234,6.02
45.250,5.75
45.265,5.57
45.281,5.51
45.296,5.51
45.312,5.49
45.328,5.41
45.343,5.16
45.359,4.72
45.375,4.08
45.390,3.36
45.406,2.7
45.421,2.26
45.437,2.05
45.453,1.97
45.468,1.83
45.484,1.4
45.500,0.57
45.515,-0.64
45.531,-2.02
45.546,-3.29
45.562,-4.19
45.578,-4.5
45.593,-4.13
45.609,-3.06
45.625,-1.4
45.640,0.7
45.656,3.03
45.671,5.45
45.687,7.83
45.703,10.11
45.718,12.25
45.734,14.18
45.750,15.85
45.765,17.22
45.781,18.3
45.796,19.14
45.812,19.85
45.828,20.5
45.843,21.06
45.859,21.47
45.875,21.59
45.890,21.37
45.906,20.81
45.921,20.05
45.937,19.23
45.953,18.55
45.968,18.08
45.984,17.84
46.000,17.75
46.015,17.61
46.031,17.21
46.046,16.35
46.062,14.96
46.078,13.06
46.093,10.78
46.109,8.33
46.125,5.91
46.140,3.64
46.156,1.58
46.171,-0.26
46.187,-1.87
46.203,-3.3
46.218,-4.57
46.234,-5.75
46.250,-6.96
46.265,-8.26
46.281,-9.65
46.296,-11.13
46.312,-12.64
46.328,-14.16
46.343,-15.69
46.359,-17.25
46.375,-18.77
46.390,-20.18
46.406,-21.26
46.421,-21.8
46.437,-21.69
46.453,-20.85
46.468,-19.35
46.484,-17.33
46.500,-14.95
46.515,-12.38
46.531,-9.71
46.546,-7.02
46.562,-4.33
46.578,-1.68
46.593,0.86
46.609,3.19
46.625,5.18
46.640,6.71
46.656,7.7
46.671,8.15
46.687,8.16
46.703,7.85
46.718,7.36
46.734,6.77
46.750,6.08
46.765,5.27
46.781,4.42
46.796,3.58
46.812,2.92
46.828,2.52
46.843,2.34
46.859,2.2
46.875,1.87
46.890,1.14
46.906,-0.05
46.921,-1.59
46.937,-3.27
46.953,-4.86
46.968,-6.18
46.984,-7.16
47.000,-7.9
47.015,-8.51
47.031,-9.19
47.046,-10.04
47.062,-11.11
47.078,-12.34
47.093,-13.59
47.109,-14.69
47.125,-15.56
47.140,-16.22
47.156,-16.83
47.171,-17.61
47.187,-18.66
47.203,-19.99
47.218,-21.45
47.234,-22.79
47.250,-23.77
47.265,-24.23
47.281,-24.04
47.296,-23.16
47.312,-21.61
47.328,-19.38
47.343,-16.56
47.359,-13.29
47.375,-9.79
47.390,-6.29
47.406,-3.02
47.421,-0.11
47.437,2.36
47.453,4.35
47.468,5.8
47.484,6.67
47.500,7.03
47.515,7.02
47.531,6.87
47.546,6.86
47.562,7.14
47.578,7.71
47.593,8.42
47.609,9.03
47.625,9.4
47.640,9.47
47.656,9.34
47.671,9.13
47.687,8.89
47.703,8.61
47.718,8.17
47.734,7.52
47.750,6.7
47.765,5.84
47.781,5.08
47.796,4.51
47.812,4.1
47.828,3.72
47.843,3.27
47.859,2.71
47.875,2.1
47.890,1.51
47.906,0.99
47.921,0.49
47.937,-0.08
47.953,-0.75
47.968,-1.53
47.984,-2.35
48.000,-3.2
48.015,-4.08
48.031,-5.07
48.046,-6.23
48.062,-7.47
48.078,-8.63
48.093,-9.45
48.109,-9.74
48.125,-9.43
48.140,-8.61
48.156,-7.47
48.171,-6.18
48.187,-4.86
48.203,-3.53
48.218,-2.11
48.234,-0.49
48.250,1.41
48.265,3.6
48.281,5.95
48.296,8.29
48.312,10.41
48.328,12.21
48.343,13.72
48.359,15.08
48.375,16.48
48.390,17.99
48.406,19.58
48.421,21.15
48.437,22.58
48.453,23.81
48.468,24.91
48.484,25.96
48.500,26.99
48.515,27.96
48.531,28.75
48.546,29.29
48.562,29.57
48.578,29.74
48.593,30.01
48.609,30.59
48.625,31.65
48.640,33.27
48.656,35.44
48.671,38.06
48.687,41.01
48.703,44.1
48.718,47.23
48.734,50.33
48.750,53.41
48.765,56.55
48.781,59.81
48.796,63.19
48.812,66.59
48.828,69.83
48.843,72.68
48.859,74.84
48.875,76.09
48.890,76.23
48.906,75.18
48.921,72.97
48.937,69.8
48.953,65.99
48.968,61.75
48.984,57.14
49.000,51.92
49.015,45.71
49.031,38.2
49.046,29.43
49.062,19.81
49.078,10.1
49.093,1.16
49.109,-6.37
49.125,-12.12
49.140,-16.04
49.156,-18.27
49.171,-19.03
49.187,-18.56
49.203,-17.16
49.218,-15.16
49.234,-12.87
49.250,-10.54
49.265,-8.3
49.281,-6.2
49.296,-4.22
49.312,-2.38
49.328,-0.81
49.343,0.31
49.359,0.74
49.375,0.13
49.390,-1.95
49.406,-5.87
49.421,-11.94
49.437,-20.22
49.453,-30.48
49.468,-42.31
49.484,-55.17
49.500,-68.43
49.515,-81.43
49.531,-93.37
49.546,-103.36
49.562,-110.59
49.578,-114.58
49.593,-115.27
49.609,-113.12
49.625,-108.73
49.640,-102.76
49.656,-95.68
49.671,-87.88
49.687,-79.78
49.703,-71.96
49.718,-64.97
49.734,-59.1
49.750,-54.17
49.765,-49.65
49.781,-44.9
49.796,-39.51
49.812,-33.58
49.828,-27.57
49.843,-22.11
49.859,-17.59
49.875,-14.11
49.890,-11.52
49.906,-9.59
49.921,-8.16
49.937,-7.25
49.953,-6.88
49.968,-6.88
49.984,-6.83
50.000,-6.03
50.015,-3.77
50.031,0.34
50.046,6.25
50.062,13.32
50.078,20.72
50.093,27.7
50.109,33.92
50.125,39.65
50.140,45.43
50.156,51.85
50.171,59.14
50.187,67.13
50.203,75.34
50.218,83.38
50.234,91.03
50.250,98.32
50.265,105.33
50.281,112.07
50.296,118.5
50.312,124.63
50.328,130.67
50.343,136.86
50.359,143.28
50.375,149.48
50.390,154.33
50.406,156.26
50.421,153.84
50.437,146.3
50.453,133.75
50.468,116.99
50.484,96.96
50.500,74.39
50.515,49.67
50.531,23.18
50.546,-4.29
50.562,-31.4
50.578,-56.42
50.593,-77.65
50.609,-93.99
50.625,-105.03
50.640,-111.11
50.656,-112.95
50.671,-111.34
50.687,-107.03
50.703,-100.68
50.718,-92.93
50.734,-84.32
50.750,-75.29
50.765,-66.09
50.781,-56.82
50.796,-47.56
50.812,-38.55
50.828,-30.1
50.843,-22.7
50.859,-16.88
50.875,-12.95
50.890,-11.1
50.906,-11.21
50.921,-12.85
50.937,-15.46
50.953,-18.45
50.968,-21.37
50.984,-23.93
51.000,-26.11
51.015,-27.91
51.031,-29.41
51.046,-30.55
51.062,-31.38
51.078,-32.03
51.093,-32.69
51.109,-33.59
51.125,-34.79
51.140,-36.07
51.156,-37.02
51.171,-37.11
51.187,-36.04
51.203,-33.76
51.218,-30.43
51.234,-26.22
51.250,-21.26
51.265,-15.59
51.281,-9.38
51.296,-2.92
51.312,3.06
51.328,7.76
51.343,10.52
51.359,11.08
51.375,9.87
51.390,7.73
51.406,5.68
51.421,4.58
51.437,4.8
51.453,6.09
51.468,7.72
51.484,8.75
51.500,8.26
51.515,5.65
51.531,0.69
51.546,-6.38
51.562,-15.01
51.578,-24.39
51.593,-33.5
51.609,-41.27
51.625,-46.67
51.640,-49.06
51.656,-48.33
51.671,-45.18
51.687,-40.91
51.703,-36.99
51.718,-34.55
51.734,-33.91
51.750,-34.52
51.765,-35.33
51.781,-35.39
51.796,-34.21
51.812,-32.12
51.828,-29.82
51.843,-28.01
51.859,-27.02
51.875,-26.57
51.890,-26.19
51.906,-25.49
51.921,-24.48
51.937,-23.54
51.953,-23.25
51.968,-23.93
51.984,-25.49
52.000,-27.43
52.015,-29.13
52.031,-30.14
52.046,-30.35
52.062,-30.1
52.078,-29.92
52.093,-30.3
52.109,-31.49
52.125,-33.35
52.140,-35.59
52.156,-37.76
52.171,-39.51
52.187,-40.71
52.203,-41.4
52.218,-41.73
52.234,-41.81
52.250,-41.58
52.265,-40.86
52.281,-39.36
52.296,-36.82
52.312,-33.34
52.328,-29.26
52.343,-25.01
52.359,-20.9
52.375,-16.85
52.390,-12.56
52.406,-7.72
52.421,-2.33
52.437,3.17
52.453,7.97
52.468,11.39
52.484,13.17
52.500,13.65
52.515,13.51
52.531,13.42
52.546,13.7
52.562,14.14
52.578,14.28
52.593,13.66
52.609,12.12
52.625,9.87
52.640,7.29
52.656,4.8
52.671,2.59
52.687,0.61
52.703,-1.37
52.718,-3.53
52.734,-5.9
52.750,-8.22
52.765,-10.05
52.781,-10.99
52.796,-10.72
52.812,-9.3
52.828,-6.98
52.843,-4.07
52.859,-0.83
52.875,2.68
52.890,6.34
52.906,9.88
52.921,12.73
52.937,14.11
52.953,13.34
52.968,10.19
52.984,5.16
53.000,-0.63
53.015,-5.82
53.031,-9.3
53.046,-10.62
53.062,-10.01
53.078,-8.22
53.093,-6.12
53.109,-4.38
53.125,-3.25
53.140,-2.71
53.156,-2.54
53.171,-2.53
53.187,-2.61
53.203,-2.68
53.218,-2.7
53.234,-2.59
53.250,-2.21
53.265,-1.44
53.281,-0.25
53.296,1.34
53.312,3.19
53.328,5.05
53.343,6.71
53.359,7.98
53.375,8.84
53.390,9.41
53.406,9.89
53.421,10.44
53.437,11.02
53.453,11.42
53.468,11.33
53.484,10.65
53.500,9.47
53.515,8.12
53.531,6.99
53.546,6.29
53.562,5.96
53.578,5.73
53.593,5.28
53.609,4.35
53.625,2.89
53.640,0.95
53.656,-1.39
53.671,-4.02
53.687,-7.04
53.703,-10.47
53.718,-14.26
53.734,-18.12
53.750,-21.6
53.765,-24.13
53.781,-25.32
53.796,-25.12
53.812,-23.94
53.828,-22.52
53.843,-21.46
53.859,-20.97
53.875,-20.58
53.890,-19.33
53.906,-16.27
53.921,-10.81
53.937,-3.09
53.953,6.11
53.968,15.64
53.984,24.45
54.000,31.83
54.015,37.45
54.031,41.37
54.046,43.8
54.062,44.97
54.078,45.13
54.093,44.57
54.109,43.57
54.125,42.54
54.140,41.93
54.156,42.14
54.171,43.53
54.187,46.23
54.203,50.19
54.218,55.16
54.234,60.84
54.250,67.05
54.265,73.76
54.281,81.15
54.296,89.41
54.312,98.44
54.328,107.7
54.343,116.16
54.359,122.57
54.375,125.81
54.390,125.25
54.406,120.92
54.421,113.41
54.437,103.64
54.453,92.54
54.468,80.88
54.484,69.24
54.500,58.13
54.515,47.86
54.531,38.6
54.546,30.36
54.562,23.01
54.578,16.39
54.593,10.4
54.609,5.13
54.625,0.77
54.640,-2.4
54.656,-4.14
54.671,-4.41
54.687,-3.37
54.703,-1.44
54.718,0.67
54.734,2.04
54.750,1.73
54.765,-1.07
54.781,-6.77
54.796,-15.26
54.812,-26.12
54.828,-38.58
54.843,-51.77
54.859,-64.71
54.875,-76.25
54.890,-85.3
54.906,-90.96
54.921,-92.84
54.937,-91.29
54.953,-87.32
54.968,-82.28
54.984,-77.35
55.000,-73.11
55.015,-69.53
55.031,-66.12
55.046,-62.41
55.062,-58.24
55.078,-53.86
55.093,-49.77
55.109,-46.4
55.125,-43.9
55.140,-42.14
55.156,-40.74
55.171,-39.37
55.187,-37.92
55.203,-36.5
55.218,-35.34
55.234,-34.66
55.250,-34.42
55.265,-34.4
55.281,-34.28
55.296,-33.84
55.312,-33.18
55.328,-32.7
55.343,-32.86
55.359,-33.94
55.375,-35.76
55.390,-37.81
55.406,-39.49
55.421,-40.43
55.437,-40.66
55.453,-40.57
55.468,-40.55
55.484,-40.75
55.500,-40.97
55.515,-40.81
55.531,-39.95
55.546,-38.28
55.562,-36.0
55.578,-33.36
55.593,-30.5
55.609,-27.41
55.625,-23.95
55.640,-20.29
55.656,-16.76
55.671,-13.72
55.687,-11.41
55.703,-9.82
55.718,-8.78
55.734,-8.31
55.750,-8.49
55.765,-9.34
55.781,-10.58
55.796,-11.62
55.812,-12.02
55.828,-11.98
55.843,-12.46
55.859,-14.57
55.875,-18.62
55.890,-23.38
55.906,-26.31
55.921,-24.69
55.937,-17.15
55.953,-4.47
55.968,10.73
55.984,25.47
56.000,37.84
56.015,47.69
56.031,56.24
56.046,64.83
56.062,73.98
56.078,83.15
56.093,91.25
56.109,97.46
56.125,101.86
56.140,105.16
56.156,108.19
56.171,111.34
56.187,114.19
56.203,115.99
56.218,116.15
56.234,114.86
56.250,113.04
56.265,112.01
56.281,112.83
56.296,115.89
56.312,120.75
56.328,126.56
56.343,132.54
56.359,138.33
56.375,144.06
56.390,150.15
56.406,156.79
56.421,163.73
56.437,170.01
56.453,174.24
56.468,174.96
56.484,171.03
56.500,161.91
56.515,147.5
56.531,127.98
56.546,103.64
56.562,74.97
56.578,42.85
56.593,8.73
56.609,-25.45
56.625,-57.73
56.640,-86.62
56.656,-111.49
56.671,-132.43
56.687,-149.98
56.703,-164.52
56.718,-176.1
56.734,-184.45
56.750,-189.35
56.765,-190.89
56.781,-189.58
56.796,-186.09
56.812,-181.06
56.828,-174.84
56.843,-167.42
56.859,-158.57
56.875,-147.95
56.890,-135.34
56.906,-120.71
56.921,-104.38
56.937,-87.05
56.953,-69.64
56.968,-53.39
56.984,-39.6
57.000,-29.42
57.015,-23.52
57.031,-21.64
57.046,-22.41
57.062,-23.77
57.078,-23.56
57.093,-20.52
57.109,-14.97
57.125,-8.75
57.140,-4.46
57.156,-4.23
57.171,-8.66
57.187,-16.58
57.203,-25.46
57.218,-32.57
57.234,-35.92
57.250,-34.96
57.265,-30.39
57.281,-23.66
57.296,-16.27
57.312,-9.46
57.328,-3.97
57.343,-0.15
57.359,1.88
57.375,2.21
57.390,1.04
57.406,-1.23
57.421,-3.95
57.437,-6.46
57.453,-8.19
57.468,-8.81
57.484,-8.33
57.500,-7.1
57.515,-5.6
57.531,-4.31
57.546,-3.55
57.562,-3.5
57.578,-4.25
57.593,-5.82
57.609,-8.14
57.625,-10.97
57.640,-13.96
57.656,-16.79
57.671,-19.23
57.687,-21.28
57.703,-23.15
57.718,-25.03
57.734,-26.98
57.750,-28.76
57.765,-30.04
57.781,-30.49
57.796,-30.1
57.812,-29.15
57.828,-28.15
57.843,-27.52
57.859,-27.38
57.875,-27.4
57.890,-27.1
57.906,-26.1
57.921,-24.38
57.937,-22.34
57.953,-20.53
57.968,-19.32
57.984,-18.55
58.000,-17.56
58.015,-15.48
58.031,-11.66
58.046,-6.07
58.062,0.64
58.078,7.38
58.093,13.13
58.109,17.31
58.125,19.92
58.140,21.37
58.156,22.11
58.171,22.44
58.187,22.35
58.203,21.77
58.218,20.74
58.234,19.59
58.250,18.83
58.265,18.93
58.281,20.09
58.296,22.04
58.312,24.14
58.328,25.66
58.343,26.06
58.359,25.28
58.375,23.68
58.390,21.86
58.406,20.33
58.421,19.25
58.437,18.31
58.453,16.99
58.468,14.82
58.484,11.8
58.500,8.32
58.515,5.01
58.531,2.39
58.546,0.61
58.562,-0.67
58.578,-1.94
58.593,-3.67
58.609,-5.96
58.625,-8.48
58.640,-10.73
58.656,-12.37
58.671,-13.35
58.687,-14.0
58.703,-14.8
58.718,-16.04
58.734,-17.72
58.750,-19.45
58.765,-20.72
58.781,-21.12
58.796,-20.51
58.812,-19.06
58.828,-17.06
58.843,-14.79
58.859,-12.34
58.875,-9.65
58.890,-6.65
58.906,-3.36
58.921,0.01
58.937,3.06
58.953,5.45
58.968,6.91
58.984,7.46
59.000,7.37
59.015,7.04
59.031,6.88
59.046,7.16
59.062,7.86
59.078,8.85
59.093,9.9
59.109,10.87
59.125,11.8
59.140,12.81
59.156,14.04
59.171,15.44
59.187,16.72
59.203,17.49
59.218,17.45
59.234,16.59
59.250,15.26
59.265,13.94
59.281,13.12
59.296,12.91
59.312,13.03
59.328,13.04
59.343,12.51
59.359,11.34
59.375,9.82
59.390,8.38
59.406,7.32
59.421,6.64
59.437,5.98
59.453,4.92
59.468,3.18
59.484,0.83
59.500,-1.8
59.515,-4.29
59.531,-6.36
59.546,-7.97
59.562,-9.36
59.578,-10.73
59.593,-12.16
59.609,-13.45
59.625,-14.21
59.640,-14.09
59.656,-12.94
59.671,-10.91
59.687,-8.46
59.703,-6.08
59.718,-4.07
59.734,-2.44
59.750,-0.91
59.765,0.83
59.781,2.96
59.796,5.38
59.812,7.67
59.828,9.34
59.843,10.17
59.859,10.19
59.875,9.88
59.890,9.73
59.906,10.11
59.921,11.08
59.937,12.35
59.953,13.51
59.968,14.26
59.984,14.61
