timestamp,value
00.000,32.65
00.015,41.08
00.031,47.38
00.046,50.89
00.062,51.23
00.078,48.43
00.093,42.89
00.109,35.28
00.125,26.33
00.140,16.46
00.156,5.75
00.171,-5.98
00.187,-18.7
00.203,-31.7
00.218,-43.39
00.234,-51.44
00.250,-53.31
00.265,-46.89
00.281,-31.17
00.296,-6.65
00.312,24.58
00.328,59.25
00.343,93.59
00.359,124.28
00.375,149.18
00.390,167.56
00.406,179.99
00.421,187.55
00.437,191.17
00.453,191.17
00.468,187.32
00.484,179.13
00.500,166.37
00.515,149.38
00.531,129.31
00.546,108.1
00.562,88.17
00.578,71.79
00.593,60.36
00.609,53.84
00.625,50.67
00.640,48.24
00.656,43.8
00.671,35.4
00.687,22.78
00.703,7.08
00.718,-9.96
00.734,-27.21
00.750,-44.55
00.765,-62.61
00.781,-81.76
00.796,-101.37
00.812,-119.61
00.828,-133.5
00.843,-140.21
00.859,-138.44
00.875,-129.19
00.890,-115.26
00.906,-99.99
00.921,-86.0
00.937,-74.72
00.953,-66.86
00.968,-61.94
00.984,-59.4
01.000,-59.14
01.015,-62.06
01.031,-69.37
01.046,-81.67
01.062,-97.98
01.078,-115.55
01.093,-130.64
01.109,-137.77
01.125,-131.56
01.140,-108.11
01.156,-67.13
01.171,-11.57
01.187,53.75
01.203,124.06
01.218,194.43
01.234,255.67
01.250,298.92
01.265,319.75
01.281,321.61
01.296,311.67
01.312,296.76
01.328,280.17
01.343,262.19
01.359,244.92
01.375,224.73
01.390,200.17
01.406,173.03
01.421,149.06
01.437,132.63
01.453,125.45
01.468,125.68
01.484,129.88
01.500,133.12
01.515,129.01
01.531,112.76
01.546,81.88
01.562,38.69
01.578,-14.26
01.593,-74.24
01.609,-139.1
01.625,-205.48
01.640,-261.99
01.656,-297.16
01.671,-302.9
01.687,-293.01
01.703,-274.48
01.718,-252.28
01.734,-224.07
01.750,-191.98
01.765,-158.78
01.781,-127.09
01.796,-100.32
01.812,-81.15
01.828,-71.14
01.843,-68.18
01.859,-70.55
01.875,-76.64
01.890,-85.55
01.906,-95.46
01.921,-104.22
01.937,-111.14
01.953,-116.41
01.968,-120.68
01.984,-122.57
02.000,-121.3
02.015,-116.29
02.031,-107.62
02.046,-95.04
02.062,-78.64
02.078,-59.9
02.093,-40.92
02.109,-23.51
02.125,-7.17
02.140,8.93
02.156,25.31
02.171,40.95
02.187,53.76
02.203,61.05
02.218,60.41
02.234,51.3
02.250,35.62
02.265,17.79
02.281,2.19
02.296,-8.26
02.312,-12.92
02.328,-12.71
02.343,-9.07
02.359,-3.27
02.375,4.15
02.390,13.37
02.406,25.29
02.421,40.94
02.437,61.12
02.453,86.14
02.468,115.35
02.484,146.9
02.500,177.67
02.515,204.01
02.531,222.76
02.546,232.37
02.562,233.46
02.578,228.48
02.593,220.75
02.609,213.19
02.625,207.35
02.640,203.03
02.656,198.57
02.671,191.52
02.687,179.49
02.703,160.88
02.718,135.33
02.734,103.99
02.750,69.19
02.765,34.04
02.781,1.52
02.796,-26.25
02.812,-48.57
02.828,-66.21
02.843,-80.81
02.859,-94.08
02.875,-107.01
02.890,-119.48
02.906,-130.42
02.921,-138.38
02.937,-142.25
02.953,-141.71
02.968,-137.26
02.984,-129.85
03.000,-120.47
03.015,-109.86
03.031,-98.55
03.046,-87.02
03.062,-75.79
03.078,-65.38
03.093,-56.08
03.109,-47.84
03.125,-40.31
03.140,-33.25
03.156,-26.82
03.171,-21.66
03.187,-18.58
03.203,-18.06
03.218,-19.9
03.234,-23.19
03.250,-26.66
03.265,-29.18
03.281,-30.16
03.296,-29.57
03.312,-27.77
03.328,-25.23
03.343,-22.28
03.359,-19.05
03.375,-15.5
03.390,-11.39
03.406,-6.37
03.421,-0.11
03.437,7.6
03.453,16.57
03.468,26.08
03.484,34.87
03.500,41.42
03.515,44.34
03.531,42.89
03.546,37.25
03.562,28.6
03.578,18.86
03.593,10.17
03.609,4.29
03.625,2.09
03.640,3.3
03.656,6.56
03.671,9.91
03.687,11.4
03.703,9.7
03.718,4.51
03.734,-3.47
03.750,-12.9
03.765,-22.21
03.781,-30.19
03.796,-36.33
03.812,-40.98
03.828,-45.29
03.843,-50.92
03.859,-59.45
03.875,-71.83
03.890,-87.8
03.906,-105.88
03.921,-123.85
03.937,-139.72
03.953,-152.6
03.968,-163.28
03.984,-173.84
04.000,-186.73
04.015,-203.55
04.031,-224.35
04.046,-247.51
04.062,-270.42
04.078,-290.3
04.093,-304.89
04.109,-312.74
04.125,-313.22
04.140,-306.38
04.156,-292.85
04.171,-273.64
04.187,-249.69
04.203,-221.49
04.218,-188.68
04.234,-150.23
04.250,-105.06
04.265,-53.05
04.281,4.4
04.296,64.31
04.312,122.9
04.328,176.74
04.343,223.63
04.359,262.92
04.375,295.09
04.390,321.11
04.406,341.82
04.421,357.84
04.437,369.69
04.453,378.09
04.468,383.95
04.484,388.17
04.500,391.22
04.515,392.85
04.531,392.17
04.546,388.01
04.562,379.59
04.578,367.0
04.593,351.31
04.609,334.34
04.625,317.98
04.640,303.42
04.656,290.63
04.671,278.22
04.687,263.81
04.703,244.76
04.718,219.02
04.734,185.72
04.750,145.54
04.765,100.54
04.781,53.71
04.796,8.41
04.812,-32.18
04.828,-65.48
04.843,-89.69
04.859,-103.94
04.875,-108.25
04.890,-103.44
04.906,-91.03
04.921,-73.21
04.937,-52.73
04.953,-32.59
04.968,-15.54
04.984,-3.53
05.000,2.84
05.015,4.49
05.031,3.61
05.046,2.89
05.062,4.66
05.078,10.15
05.093,19.25
05.109,30.83
05.125,43.43
05.140,55.92
05.156,67.91
05.171,79.53
05.187,91.01
05.203,102.1
05.218,111.74
05.234,118.3
05.250,120.23
05.265,116.61
05.281,107.59
05.296,94.06
05.312,77.17
05.328,57.78
05.343,36.41
05.359,13.48
05.375,-10.29
05.390,-33.7
05.406,-55.32
05.421,-73.85
05.437,-88.51
05.453,-99.18
05.468,-106.2
05.484,-110.06
05.500,-111.37
05.515,-110.85
05.531,-109.48
05.546,-108.51
05.562,-109.19
05.578,-112.35
05.593,-118.17
05.609,-126.16
05.625,-135.44
05.640,-145.16
05.656,-154.78
05.671,-164.05
05.687,-172.85
05.703,-180.99
05.718,-188.12
05.734,-193.78
05.750,-197.61
05.765,-199.38
05.781,-199.08
05.796,-196.83
05.812,-192.87
05.828,-187.56
05.843,-181.34
05.859,-174.7
05.875,-167.97
05.890,-161.23
05.906,-154.28
05.921,-146.76
05.937,-138.37
05.953,-129.06
05.968,-119.07
05.984,-108.82
06.000,-98.72
06.015,-88.95
06.031,-79.42
06.046,-69.79
06.062,-59.49
06.078,-47.93
06.093,-34.68
06.109,-19.67
06.125,-3.34
06.140,13.41
06.156,29.36
06.171,43.31
06.187,54.36
06.203,62.12
06.218,66.78
06.234,68.94
06.250,69.38
06.265,68.73
06.281,67.24
06.296,64.67
06.312,60.49
06.328,54.21
06.343,45.73
06.359,35.51
06.375,24.53
06.390,13.97
06.406,4.83
06.421,-2.3
06.437,-7.41
06.453,-10.9
06.468,-13.39
06.484,-15.52
06.500,-17.76
06.515,-20.33
06.531,-23.15
06.546,-25.85
06.562,-27.74
06.578,-27.98
06.593,-25.76
06.609,-20.53
06.625,-12.2
06.640,-1.23
06.656,11.46
06.671,24.64
06.687,37.09
06.703,47.87
06.718,56.47
06.734,62.89
06.750,67.5
06.765,70.92
06.781,73.74
06.796,76.37
06.812,78.93
06.828,81.29
06.843,83.16
06.859,84.36
06.875,84.88
06.890,84.89
06.906,84.46
06.921,83.36
06.937,80.91
06.953,76.28
06.968,68.97
06.984,59.27
07.000,48.38
07.015,38.1
07.031,30.14
07.046,25.35
07.062,23.41
07.078,23.08
07.093,22.8
07.109,21.41
07.125,18.52
07.140,14.35
07.156,9.38
07.171,3.94
07.187,-1.78
07.203,-7.59
07.218,-12.96
07.234,-17.12
07.250,-19.38
07.265,-19.72
07.281,-19.04
07.296,-19.07
07.312,-21.71
07.328,-28.17
07.343,-38.6
07.359,-52.1
07.375,-67.37
07.390,-83.28
07.406,-99.15
07.421,-114.55
07.437,-128.72
07.453,-140.19
07.468,-146.84
07.484,-146.57
07.500,-138.08
07.515,-121.5
07.531,-98.43
07.546,-71.27
07.562,-42.36
07.578,-13.26
07.593,15.39
07.609,43.57
07.625,71.18
07.640,97.53
07.656,121.16
07.671,140.25
07.687,153.24
07.703,159.45
07.718,159.3
07.734,153.98
07.750,144.91
07.765,133.12
07.781,119.0
07.796,102.42
07.812,83.22
07.828,61.65
07.843,38.63
07.859,15.55
07.875,-6.1
07.890,-25.12
07.906,-40.79
07.921,-52.8
07.937,-61.07
07.953,-65.48
07.968,-65.92
07.984,-62.42
08.000,-55.39
08.015,-45.7
08.031,-34.6
08.046,-23.39
08.062,-13.05
08.078,-4.0
08.093,3.86
08.109,10.89
08.125,17.19
08.140,22.37
08.156,25.45
08.171,25.21
08.187,20.65
08.203,11.54
08.218,-1.45
08.234,-16.91
08.250,-33.26
08.265,-49.21
08.281,-63.97
08.296,-77.1
08.312,-88.08
08.328,-96.23
08.343,-100.75
08.359,-101.25
08.375,-98.23
08.390,-93.16
08.406,-88.01
08.421,-84.47
08.437,-83.21
08.453,-83.65
08.468,-84.33
08.484,-83.65
08.500,-80.63
08.515,-75.27
08.531,-68.53
08.546,-61.8
08.562,-56.43
08.578,-53.24
08.593,-52.29
08.609,-52.82
08.625,-53.27
08.640,-51.66
08.656,-45.84
08.671,-34.13
08.687,-15.76
08.703,8.77
08.718,37.57
08.734,67.75
08.750,96.09
08.765,119.78
08.781,137.12
08.796,147.75
08.812,152.56
08.828,153.22
08.843,151.53
08.859,149.05
08.875,146.74
08.890,145.03
08.906,143.85
08.921,142.74
08.937,141.03
08.953,137.96
08.968,133.04
08.984,126.3
09.000,118.45
09.015,110.89
09.031,105.27
09.046,102.84
09.062,103.95
09.078,107.73
09.093,112.4
09.109,115.95
09.125,116.97
09.140,115.08
09.156,110.97
09.171,105.83
09.187,100.7
09.203,95.86
09.218,90.75
09.234,84.27
09.250,75.38
09.265,63.54
09.281,49.09
09.296,33.04
09.312,16.87
09.328,2.12
09.343,-9.93
09.359,-18.54
09.375,-23.62
09.390,-25.8
09.406,-26.28
09.421,-26.59
09.437,-28.03
09.453,-31.32
09.468,-36.35
09.484,-42.34
09.500,-48.28
09.515,-53.49
09.531,-57.97
09.546,-62.37
09.562,-67.63
09.578,-74.6
09.593,-83.75
09.609,-95.09
09.625,-108.09
09.640,-121.79
09.656,-134.81
09.671,-145.71
09.687,-153.27
09.703,-156.98
09.718,-157.21
09.734,-155.12
09.750,-152.21
09.765,-149.86
09.781,-148.88
09.796,-149.49
09.812,-151.4
09.828,-154.02
09.843,-156.56
09.859,-158.08
09.875,-157.72
09.890,-154.83
09.906,-149.27
09.921,-141.44
09.937,-132.14
09.953,-122.28
09.968,-112.58
09.984,-103.52
10.000,-95.33
10.015,-88.12
10.031,-81.83
10.046,-76.24
10.062,-70.96
10.078,-65.52
10.093,-59.62
10.109,-53.36
10.125,-47.29
10.140,-42.19
10.156,-38.73
10.171,-37.1
10.187,-36.9
10.203,-37.28
10.218,-37.31
10.234,-36.36
10.250,-34.25
10.265,-31.18
10.281,-27.5
10.296,-23.42
10.312,-18.9
10.328,-13.74
10.343,-7.67
10.359,-0.48
10.375,7.88
10.390,17.35
10.406,27.85
10.421,39.32
10.437,51.75
10.453,65.12
10.468,79.32
10.484,93.95
10.500,108.39
10.515,121.74
10.531,133.05
10.546,141.49
10.562,146.42
10.578,147.43
10.593,144.3
10.609,136.85
10.625,124.98
10.640,108.83
10.656,88.85
10.671,65.98
10.687,41.47
10.703,16.62
10.718,-7.51
10.734,-30.2
10.750,-50.99
10.765,-69.3
10.781,-84.3
10.796,-94.72
10.812,-99.09
10.828,-96.14
10.843,-85.12
10.859,-66.15
10.875,-40.24
10.890,-9.33
10.906,24.04
10.921,57.04
10.937,87.02
10.953,111.98
10.968,130.89
10.984,143.81
11.000,151.59
11.015,155.46
11.031,156.51
11.046,155.37
11.062,152.22
11.078,147.01
11.093,139.75
11.109,130.77
11.125,120.66
11.140,110.05
11.156,99.44
11.171,88.81
11.187,77.63
11.203,65.03
11.218,50.1
11.234,32.34
11.250,12.0
11.265,-9.95
11.281,-32.07
11.296,-53.1
11.312,-72.47
11.328,-90.6
11.343,-108.67
11.359,-127.96
11.375,-149.05
11.390,-171.23
11.406,-192.65
11.421,-210.97
11.437,-224.34
11.453,-232.14
11.468,-235.12
11.484,-234.93
11.500,-233.42
11.515,-232.08
11.531,-231.72
11.546,-232.61
11.562,-234.62
11.578,-237.2
11.593,-239.43
11.609,-239.92
11.625,-237.05
11.640,-229.29
11.656,-215.6
11.671,-195.66
11.687,-169.74
11.703,-138.4
11.718,-102.27
11.734,-62.03
11.750,-18.39
11.765,27.81
11.781,75.53
11.796,123.79
11.812,171.65
11.828,218.29
11.843,262.95
11.859,304.84
11.875,343.14
11.890,377.15
11.906,406.35
11.921,430.45
11.937,449.34
11.953,463.05
11.968,471.8
11.984,476.15
12.000,477.1
12.015,476.02
12.031,474.3
12.046,472.98
12.062,472.19
12.078,470.91
12.093,466.97
12.109,457.35
12.125,438.64
12.140,407.72
12.156,362.44
12.171,302.43
12.187,229.6
12.203,148.3
12.218,64.75
12.234,-14.18
12.250,-82.49
12.265,-136.36
12.281,-174.75
12.296,-199.06
12.312,-212.16
12.328,-217.21
12.343,-216.96
12.359,-213.44
12.375,-208.12
12.390,-202.09
12.406,-196.18
12.421,-190.77
12.437,-185.65
12.453,-180.13
12.468,-173.38
12.484,-164.8
12.500,-154.22
12.515,-141.9
12.531,-128.38
12.546,-114.26
12.562,-100.14
12.578,-86.61
12.593,-74.05
12.609,-62.48
12.625,-51.5
12.640,-40.39
12.656,-28.47
12.671,-15.63
12.687,-2.44
12.703,9.87
12.718,19.96
12.734,26.89
12.750,30.43
12.765,31.08
12.781,29.85
12.796,27.86
12.812,26.03
12.828,24.88
12.843,24.3
12.859,23.58
12.875,21.48
12.890,16.66
12.906,8.07
12.921,-4.6
12.937,-20.8
12.953,-39.29
12.968,-58.4
12.984,-76.39
13.000,-91.77
13.015,-103.57
13.031,-111.61
13.046,-116.7
13.062,-120.34
13.078,-124.08
13.093,-128.78
13.109,-133.98
13.125,-138.2
13.140,-139.65
13.156,-137.33
13.171,-131.67
13.187,-124.36
13.203,-117.55
13.218,-112.78
13.234,-110.39
13.250,-109.53
13.265,-108.82
13.281,-107.01
13.296,-103.54
13.312,-98.56
13.328,-92.7
13.343,-86.69
13.359,-81.07
13.375,-76.03
13.390,-71.39
13.406,-66.91
13.421,-62.43
13.437,-58.13
13.453,-54.36
13.468,-51.47
13.484,-49.43
13.500,-47.85
13.515,-46.09
13.531,-43.65
13.546,-40.45
13.562,-36.85
13.578,-33.42
13.593,-30.62
13.609,-28.62
13.625,-27.36
13.640,-26.67
13.656,-26.36
13.671,-26.12
13.687,-25.49
13.703,-23.93
13.718,-21.13
13.734,-17.29
13.750,-13.29
13.765,-10.37
13.781,-9.53
13.796,-10.9
13.812,-13.53
13.828,-15.7
13.843,-15.76
13.859,-12.81
13.875,-7.01
13.890,0.74
13.906,9.46
13.921,18.61
13.937,28.32
13.953,39.01
13.968,50.91
13.984,63.63
14.000,76.19
14.015,87.37
14.031,96.06
14.046,101.62
14.062,103.95
14.078,103.33
14.093,100.4
14.109,96.08
14.125,91.49
14.140,87.78
14.156,85.79
14.171,85.67
14.187,86.78
14.203,87.93
14.218,87.75
14.234,85.33
14.250,80.43
14.265,73.42
14.281,64.83
14.296,54.91
14.312,43.31
14.328,29.31
14.343,12.26
14.359,-7.8
14.375,-29.8
14.390,-51.81
14.406,-71.58
14.421,-87.27
14.437,-98.1
14.453,-104.56
14.468,-108.24
14.484,-111.49
14.500,-116.74
14.515,-125.8
14.531,-139.2
14.546,-155.91
14.562,-173.57
14.578,-189.15
14.593,-199.97
14.609,-204.43
14.625,-202.22
14.640,-194.02
14.656,-180.7
14.671,-162.73
14.687,-140.14
14.703,-112.98
14.718,-82.06
14.734,-49.34
14.750,-17.56
14.765,10.63
14.781,33.75
14.796,51.99
14.812,67.08
14.828,81.54
14.843,97.62
14.859,116.3
14.875,136.82
14.890,156.8
14.906,173.11
14.921,183.06
14.937,185.55
14.953,181.65
14.968,174.41
14.984,167.67
15.000,164.55
15.015,166.21
15.031,171.47
15.046,177.45
15.062,180.98
15.078,179.93
15.093,173.84
15.109,163.74
15.125,151.35
15.140,138.28
15.156,125.51
15.171,113.5
15.187,102.31
15.203,91.93
15.218,82.42
15.234,73.92
15.250,66.48
15.265,59.95
15.281,53.99
15.296,48.16
15.312,42.13
15.328,35.82
15.343,29.54
15.359,23.95
15.375,19.82
15.390,17.71
15.406,17.65
15.421,19.01
15.437,20.62
15.453,21.02
15.468,18.82
15.484,12.92
15.500,2.6
15.515,-12.39
15.531,-31.75
15.546,-54.42
15.562,-78.52
15.578,-101.53
15.593,-120.88
15.609,-134.73
15.625,-142.65
15.640,-145.71
15.656,-146.07
15.671,-145.91
15.687,-146.44
15.703,-147.47
15.718,-147.73
15.734,-145.66
15.750,-140.49
15.765,-132.61
15.781,-123.35
15.796,-114.04
15.812,-105.09
15.828,-95.6
15.843,-83.71
15.859,-67.48
15.875,-45.81
15.890,-18.99
15.906,11.5
15.921,43.54
15.937,75.14
15.953,104.93
15.968,132.3
15.984,157.13
16.000,179.42
16.015,198.95
16.031,215.14
16.046,227.26
16.062,234.71
16.078,237.27
16.093,235.26
16.109,229.35
16.125,220.19
16.140,208.05
16.156,192.76
16.171,173.91
16.187,151.33
16.203,125.55
16.218,97.85
16.234,69.95
16.250,43.32
16.265,18.67
16.281,-4.11
16.296,-25.53
16.312,-45.86
16.328,-64.68
16.343,-80.94
16.359,-93.45
16.375,-101.45
16.390,-104.97
16.406,-104.65
16.421,-101.22
16.437,-94.96
16.453,-85.59
16.468,-72.56
16.484,-55.71
16.500,-35.71
16.515,-14.02
16.531,7.45
16.546,27.06
16.562,43.82
16.578,57.44
16.593,68.08
16.609,75.85
16.625,80.5
16.640,81.47
16.656,78.25
16.671,70.84
16.687,60.07
16.703,47.43
16.718,34.79
16.734,23.79
16.750,15.65
16.765,11.02
16.781,10.01
16.796,12.38
16.812,17.39
16.828,23.79
16.843,29.79
16.859,33.36
16.875,32.74
16.890,26.99
16.906,16.38
16.921,2.27
16.937,-13.35
16.953,-28.61
16.968,-42.48
16.984,-54.99
17.000,-67.06
17.015,-79.87
17.031,-94.3
17.046,-110.6
17.062,-128.61
17.078,-148.04
17.093,-168.86
17.109,-191.23
17.125,-215.27
17.140,-240.65
17.156,-266.43
17.171,-291.13
17.187,-312.97
17.203,-329.98
17.218,-340.03
17.234,-340.86
17.250,-330.51
17.265,-308.18
17.281,-275.19
17.296,-235.16
17.312,-193.19
17.328,-154.22
17.343,-121.31
17.359,-94.86
17.375,-73.14
17.390,-53.5
17.406,-33.75
17.421,-12.65
17.437,10.42
17.453,36.25
17.468,66.13
17.484,101.49
17.500,142.87
17.515,189.11
17.531,237.38
17.546,284.01
17.562,325.8
17.578,361.04
17.593,389.71
17.609,412.76
17.625,431.01
17.640,444.1
17.656,450.35
17.671,447.39
17.687,433.52
17.703,408.72
17.718,375.1
17.734,336.34
17.750,296.4
17.765,258.31
17.781,223.35
17.796,191.14
17.812,160.33
17.828,129.5
17.843,97.79
17.859,65.1
17.875,31.71
17.890,-2.03
17.906,-35.89
17.921,-69.64
17.937,-102.66
17.953,-133.77
17.968,-161.42
17.984,-184.2
18.000,-201.42
18.015,-213.54
18.031,-221.86
18.046,-228.0
18.062,-233.05
18.078,-237.09
18.093,-239.26
18.109,-238.19
18.125,-232.69
18.140,-222.23
18.156,-207.24
18.171,-188.96
18.187,-169.12
18.203,-149.46
18.218,-131.36
18.234,-115.51
18.250,-101.81
18.265,-89.61
18.281,-78.19
18.296,-67.17
18.312,-56.72
18.328,-47.48
18.343,-40.2
18.359,-35.32
18.375,-32.78
18.390,-31.99
18.406,-32.11
18.421,-32.34
18.437,-32.22
18.453,-31.64
18.468,-30.82
18.484,-30.06
18.500,-29.64
18.515,-29.73
18.531,-30.34
18.546,-31.45
18.562,-33.02
18.578,-35.05
18.593,-37.55
18.609,-40.51
18.625,-43.9
18.640,-47.74
18.656,-52.09
18.671,-56.97
18.687,-62.27
18.703,-67.54
18.718,-71.99
18.734,-74.66
18.750,-74.68
18.765,-71.58
18.781,-65.44
18.796,-56.87
18.812,-46.78
18.828,-36.16
18.843,-25.88
18.859,-16.65
18.875,-9.02
18.890,-3.35
18.906,0.29
18.921,2.18
18.937,3.0
18.953,3.71
18.968,5.28
18.984,8.54
19.000,13.94
19.015,21.54
19.031,30.86
19.046,40.99
19.062,50.51
19.078,57.88
19.093,61.87
19.109,62.04
19.125,59.0
19.140,54.28
19.156,49.7
19.171,46.67
19.187,45.71
19.203,46.38
19.218,47.76
19.234,49.0
19.250,49.7
19.265,50.03
19.281,50.38
19.296,51.13
19.312,52.5
19.328,54.68
19.343,58.0
19.359,62.99
19.375,70.11
19.390,79.43
19.406,90.28
19.421,101.16
19.437,110.01
19.453,114.7
19.468,113.52
19.484,105.63
19.500,91.15
19.515,71.21
19.531,47.73
19.546,23.03
19.562,-0.6
19.578,-21.39
19.593,-38.47
19.609,-51.91
19.625,-62.44
19.640,-71.09
19.656,-78.72
19.671,-85.94
19.687,-93.09
19.703,-100.45
19.718,-108.27
19.734,-116.53
19.750,-124.83
19.765,-132.23
19.781,-137.45
19.796,-139.24
19.812,-136.78
19.828,-129.91
19.843,-119.08
19.859,-105.2
19.875,-89.37
19.890,-72.86
19.906,-57.05
19.921,-43.36
19.937,-33.08
19.953,-26.98
19.968,-25.09
19.984,-26.54
20.000,-29.8
20.015,-33.07
20.031,-34.77
20.046,-33.83
20.062,-29.92
20.078,-23.36
20.093,-15.0
20.109,-5.91
20.125,2.98
20.140,11.05
20.156,18.1
20.171,24.16
20.187,29.14
20.203,32.67
20.218,34.23
20.234,33.52
20.250,30.92
20.265,27.55
20.281,24.99
20.296,24.67
20.312,27.29
20.328,32.64
20.343,39.9
20.359,47.98
20.375,55.85
20.390,62.59
20.406,67.22
20.421,68.76
20.437,66.37
20.453,59.76
20.468,49.5
20.484,36.84
20.500,23.44
20.515,10.77
20.531,-0.2
20.546,-9.13
20.562,-16.19
20.578,-21.75
20.593,-26.27
20.609,-30.04
20.625,-33.05
20.640,-34.88
20.656,-34.78
20.671,-31.78
20.687,-25.18
20.703,-14.91
20.718,-1.76
20.734,12.68
20.750,26.48
20.765,37.94
20.781,46.09
20.796,50.85
20.812,52.81
20.828,52.88
20.843,51.83
20.859,50.12
20.875,47.94
20.890,45.45
20.906,42.9
20.921,40.71
20.937,39.29
20.953,38.79
20.968,39.02
20.984,39.68
21.000,40.51
21.015,41.71
21.031,43.86
21.046,47.65
21.062,53.48
21.078,61.19
21.093,69.96
21.109,78.73
21.125,86.54
21.140,92.85
21.156,97.54
21.171,100.77
21.187,102.79
21.203,103.83
21.218,104.15
21.234,104.09
21.250,104.07
21.265,104.48
21.281,105.59
21.296,107.37
21.312,109.53
21.328,111.61
21.343,113.2
21.359,114.07
21.375,114.27
21.390,114.06
21.406,113.65
21.421,112.97
21.437,111.56
21.453,108.64
21.468,103.47
21.484,95.65
21.500,85.45
21.515,73.63
21.531,61.23
21.546,49.12
21.562,37.79
21.578,27.2
21.593,16.97
21.609,6.56
21.625,-4.45
21.640,-16.16
21.656,-28.31
21.671,-40.25
21.687,-51.13
21.703,-60.03
21.718,-66.29
21.734,-69.72
21.750,-70.59
21.765,-69.55
21.781,-67.32
21.796,-64.38
21.812,-60.82
21.828,-56.42
21.843,-50.79
21.859,-43.72
21.875,-35.44
21.890,-26.67
21.906,-18.54
21.921,-12.33
21.937,-9.18
21.953,-9.78
21.968,-14.31
21.984,-22.39
22.000,-33.26
22.015,-45.79
22.031,-58.72
22.046,-70.81
22.062,-81.18
22.078,-89.5
22.093,-96.17
22.109,-102.17
22.125,-108.59
22.140,-116.15
22.156,-124.84
22.171,-133.86
22.187,-142.06
22.203,-148.36
22.218,-152.13
22.234,-153.21
22.250,-151.66
22.265,-147.44
22.281,-140.42
22.296,-130.44
22.312,-117.66
22.328,-102.66
22.343,-86.37
22.359,-69.85
22.375,-54.13
22.390,-40.12
22.406,-28.58
22.421,-20.11
22.437,-15.01
22.453,-13.1
22.468,-13.61
22.484,-15.38
22.500,-17.11
22.515,-17.83
22.531,-17.12
22.546,-15.17
22.562,-12.54
22.578,-9.95
22.593,-8.0
22.609,-7.01
22.625,-6.96
22.640,-7.41
22.656,-7.64
22.671,-6.83
22.687,-4.34
22.703,-0.05
22.718,5.55
22.734,11.47
22.750,16.55
22.765,19.87
22.781,21.06
22.796,20.33
22.812,18.34
22.828,15.83
22.843,13.43
22.859,11.43
22.875,9.82
22.890,8.4
22.906,6.81
22.921,4.68
22.937,1.66
22.953,-2.53
22.968,-8.04
22.984,-14.84
23.000,-22.7
23.015,-31.16
23.031,-39.51
23.046,-46.87
23.062,-52.34
23.078,-55.28
23.093,-55.56
23.109,-53.71
23.125,-50.76
23.140,-47.8
23.156,-45.36
23.171,-43.02
23.187,-39.4
23.203,-32.77
23.218,-21.97
23.234,-7.18
23.250,9.84
23.265,26.33
23.281,39.49
23.296,47.54
23.312,50.14
23.328,48.24
23.343,43.34
23.359,36.84
23.375,29.7
23.390,22.48
23.406,15.58
23.421,9.46
23.437,4.48
23.453,0.73
23.468,-2.06
23.484,-4.48
23.500,-7.06
23.515,-10.03
23.531,-13.26
23.546,-16.38
23.562,-19.11
23.578,-21.37
23.593,-23.29
23.609,-25.03
23.625,-26.59
23.640,-27.77
23.656,-28.33
23.671,-28.11
23.687,-27.18
23.703,-25.76
23.718,-24.1
23.734,-22.34
23.750,-20.56
23.765,-18.88
23.781,-17.71
23.796,-17.79
23.812,-20.08
23.828,-25.39
23.843,-33.99
23.859,-45.37
23.875,-58.27
23.890,-70.91
23.906,-81.52
23.921,-88.84
23.937,-92.39
23.953,-92.57
23.968,-90.29
23.984,-86.41
24.000,-80.96
24.015,-72.75
24.031,-59.53
24.046,-38.77
24.062,-8.95
24.078,29.51
24.093,74.04
24.109,120.72
24.125,165.7
24.140,206.5
24.156,242.43
24.171,274.24
24.187,302.99
24.203,329.19
24.218,352.39
24.234,371.51
24.250,385.23
24.265,392.1
24.281,390.46
24.296,378.31
24.312,353.81
24.328,316.35
24.343,267.65
24.359,212.11
24.375,155.94
24.390,105.14
24.406,63.49
24.421,31.39
24.437,6.38
24.453,-15.19
24.468,-36.23
24.484,-57.84
24.500,-79.34
24.515,-99.36
24.531,-116.91
24.546,-131.93
24.562,-145.0
24.578,-156.68
24.593,-166.98
24.609,-175.39
24.625,-181.24
24.640,-184.27
24.656,-184.9
24.671,-184.0
24.687,-182.35
24.703,-180.17
24.718,-176.83
24.734,-171.09
24.750,-161.65
24.765,-147.75
24.781,-129.6
24.796,-108.45
24.812,-86.29
24.828,-65.28
24.843,-47.16
24.859,-32.94
24.875,-22.74
24.890,-16.09
24.906,-12.24
24.921,-10.46
24.937,-10.23
24.953,-11.14
24.968,-12.74
24.984,-14.28
25.000,-14.75
25.015,-13.11
25.031,-8.78
25.046,-1.98
25.062,6.03
25.078,13.41
25.093,18.33
25.109,19.71
25.125,17.68
25.140,13.36
25.156,8.32
25.171,3.82
25.187,0.38
25.203,-2.28
25.218,-4.83
25.234,-7.8
25.250,-11.28
25.265,-14.96
25.281,-18.34
25.296,-21.08
25.312,-23.04
25.328,-24.17
25.343,-24.32
25.359,-23.22
25.375,-20.71
25.390,-17.15
25.406,-13.55
25.421,-11.52
25.437,-12.67
25.453,-17.98
25.468,-27.32
25.484,-39.52
25.500,-52.81
25.515,-65.56
25.531,-76.75
25.546,-86.14
25.562,-93.93
25.578,-100.35
25.593,-105.2
25.609,-107.86
25.625,-107.49
25.640,-103.51
25.656,-95.93
25.671,-85.47
25.687,-73.28
25.703,-60.51
25.718,-47.98
25.734,-36.03
25.750,-24.77
25.765,-14.39
25.781,-5.33
25.796,1.8
25.812,6.73
25.828,9.86
25.843,12.32
25.859,15.47
25.875,20.23
25.890,26.51
25.906,33.26
25.921,39.15
25.937,43.39
25.953,46.28
25.968,49.06
25.984,53.12
26.000,59.13
26.015,66.7
26.031,74.54
26.046,81.14
26.062,85.49
26.078,87.47
26.093,87.94
26.109,88.43
26.125,90.9
26.140,97.44
26.156,109.75
26.171,128.41
26.187,152.12
26.203,177.34
26.218,198.86
26.234,211.14
26.250,210.23
26.265,195.22
26.281,168.73
26.296,135.96
26.312,102.98
26.328,74.82
26.343,54.63
26.359,43.49
26.375,40.93
26.390,45.5
26.406,54.8
26.421,65.38
26.437,72.83
26.453,72.65
26.468,61.62
26.484,39.36
26.500,8.82
26.515,-24.52
26.531,-54.48
26.546,-76.12
26.562,-87.02
26.578,-87.33
26.593,-79.15
26.609,-65.72
26.625,-50.09
26.640,-34.9
26.656,-22.21
26.671,-13.65
26.687,-10.24
26.703,-12.1
26.718,-18.46
26.734,-27.87
26.750,-39.07
26.765,-50.32
26.781,-60.04
26.796,-67.21
26.812,-72.11
26.828,-76.31
26.843,-82.07
26.859,-91.27
26.875,-104.37
26.890,-120.68
26.906,-136.53
26.921,-147.0
26.937,-148.14
26.953,-139.29
26.968,-123.62
26.984,-106.43
27.000,-92.47
27.015,-83.79
27.031,-80.57
27.046,-79.04
27.062,-73.77
27.078,-59.18
27.093,-31.02
27.109,12.96
27.125,72.83
27.140,145.94
27.156,226.9
27.171,298.29
27.187,340.86
27.203,342.26
27.218,306.67
27.234,253.49
27.250,205.1
27.265,174.95
27.281,163.75
27.296,169.17
27.312,179.44
27.328,187.1
27.343,189.97
27.359,189.37
27.375,186.97
27.390,183.25
27.406,178.24
27.421,168.83
27.437,156.49
27.453,143.29
27.468,133.01
27.484,128.42
27.500,129.94
27.515,134.84
27.531,138.12
27.546,134.85
27.562,122.28
27.578,101.31
27.593,74.11
27.609,44.83
27.625,17.37
27.640,-5.9
27.656,-24.83
27.671,-40.99
27.687,-56.51
27.703,-73.09
27.718,-91.37
27.734,-112.56
27.750,-137.47
27.765,-166.77
27.781,-200.57
27.796,-237.67
27.812,-275.22
27.828,-308.81
27.843,-333.6
27.859,-345.43
27.875,-342.95
27.890,-327.34
27.906,-301.95
27.921,-271.04
27.937,-238.63
27.953,-207.61
27.968,-179.51
27.984,-154.84
28.000,-133.22
28.015,-114.22
28.031,-97.26
28.046,-81.66
28.062,-66.68
28.078,-51.53
28.093,-35.5
28.109,-18.13
28.125,0.58
28.140,20.0
28.156,38.71
28.171,54.83
28.187,66.56
28.203,72.99
28.218,74.45
28.234,72.49
28.250,69.34
28.265,67.09
28.281,67.06
28.296,69.64
28.312,74.6
28.328,81.51
28.343,90.2
28.359,100.84
28.375,113.72
28.390,128.85
28.406,145.64
28.421,162.91
28.437,179.14
28.453,193.0
28.468,203.82
28.484,211.76
28.500,217.74
28.515,222.91
28.531,228.17
28.546,233.81
28.562,239.44
28.578,244.25
28.593,247.34
28.609,248.15
28.625,246.69
28.640,243.49
28.656,239.36
28.671,234.99
28.687,230.59
28.703,225.74
28.718,219.57
28.734,211.24
28.750,200.45
28.765,187.68
28.781,174.02
28.796,160.68
28.812,148.43
28.828,137.36
28.843,126.99
28.859,116.7
28.875,106.1
28.890,95.22
28.906,84.37
28.921,73.85
28.937,63.75
28.953,53.92
28.968,44.1
28.984,34.15
29.000,24.11
29.015,14.28
29.031,5.05
29.046,-3.2
29.062,-10.27
29.078,-16.13
29.093,-20.9
29.109,-24.73
29.125,-27.72
29.140,-29.91
29.156,-31.25
29.171,-31.72
29.187,-31.38
29.203,-30.37
29.218,-28.91
29.234,-27.25
29.250,-25.65
29.265,-24.28
29.281,-23.32
29.296,-22.9
29.312,-23.15
29.328,-24.12
29.343,-25.83
29.359,-28.19
29.375,-31.02
29.390,-34.07
29.406,-37.18
29.421,-40.32
29.437,-43.61
29.453,-47.32
29.468,-51.74
29.484,-57.01
29.500,-63.04
29.515,-69.51
29.531,-75.97
29.546,-82.08
29.562,-87.77
29.578,-93.31
29.593,-99.3
29.609,-106.31
29.625,-114.66
29.640,-124.3
29.656,-134.76
29.671,-145.32
29.687,-155.37
29.703,-164.65
29.718,-173.46
29.734,-182.57
29.750,-193.17
29.765,-206.45
29.781,-223.02
29.796,-242.36
29.812,-262.57
29.828,-280.72
29.843,-293.6
29.859,-298.79
29.875,-295.32
29.890,-283.65
29.906,-265.33
29.921,-242.45
29.937,-217.39
29.953,-192.59
29.968,-170.41
29.984,-152.58
30.000,-139.72
30.015,-131.05
30.031,-124.77
30.046,-119.02
30.062,-112.79
30.078,-106.24
30.093,-100.15
30.109,-94.94
30.125,-90.1
30.140,-84.52
30.156,-77.67
30.171,-70.29
30.187,-64.3
30.203,-61.6
30.218,-62.42
30.234,-64.67
30.250,-64.72
30.265,-59.13
30.281,-46.59
30.296,-28.79
30.312,-9.98
30.328,4.75
30.343,11.16
30.359,7.26
30.375,-6.26
30.390,-26.3
30.406,-48.3
30.421,-67.45
30.437,-80.04
30.453,-84.45
30.468,-81.5
30.484,-73.91
30.500,-65.02
30.515,-57.4
30.531,-52.04
30.546,-48.57
30.562,-46.15
30.578,-44.47
30.593,-43.99
30.609,-45.4
30.625,-48.63
30.640,-52.28
30.656,-54.17
30.671,-52.42
30.687,-46.64
30.703,-38.31
30.718,-29.85
30.734,-23.35
30.750,-19.55
30.765,-17.84
30.781,-17.3
30.796,-17.81
30.812,-20.54
30.828,-27.15
30.843,-38.35
30.859,-52.78
30.875,-67.17
30.890,-77.69
30.906,-82.11
30.921,-81.1
30.937,-78.28
30.953,-78.46
30.968,-85.45
30.984,-100.22
31.000,-120.86
31.015,-143.85
31.031,-166.12
31.046,-186.71
31.062,-206.86
31.078,-228.89
31.093,-254.66
31.109,-284.69
31.125,-318.29
31.140,-354.13
31.156,-390.71
31.171,-426.02
31.187,-457.06
31.203,-479.7
31.218,-489.76
31.234,-484.54
31.250,-464.36
31.265,-432.66
31.281,-394.81
31.296,-356.04
31.312,-319.75
31.328,-287.18
31.343,-257.98
31.359,-231.43
31.375,-207.09
31.390,-184.83
31.406,-164.45
31.421,-145.42
31.437,-126.98
31.453,-108.54
31.468,-90.07
31.484,-71.96
31.500,-55.05
31.515,-40.0
31.531,-27.06
31.546,-16.01
31.562,-6.23
31.578,2.96
31.593,12.1
31.609,21.41
31.625,30.81
31.640,39.95
31.656,48.53
31.671,56.33
31.687,63.25
31.703,69.4
31.718,74.92
31.734,80.11
31.750,85.3
31.765,90.89
31.781,97.22
31.796,104.52
31.812,112.74
31.828,121.57
31.843,130.47
31.859,138.92
31.875,146.72
31.890,154.07
31.906,161.67
31.921,170.39
31.937,180.94
31.953,193.52
31.968,207.65
31.984,222.48
32.000,237.02
32.015,250.72
32.031,263.58
32.046,276.24
32.062,289.73
32.078,305.33
32.093,324.42
32.109,348.07
32.125,376.41
32.140,407.71
32.156,438.11
32.171,462.07
32.187,474.1
32.203,470.72
32.218,451.94
32.234,421.37
32.250,384.7
32.265,347.41
32.281,313.01
32.296,282.46
32.312,254.99
32.328,229.59
32.343,206.02
32.359,184.98
32.375,167.49
32.390,153.97
32.406,143.98
32.421,136.51
32.437,130.67
32.453,126.2
32.468,123.36
32.484,122.55
32.500,123.43
32.515,124.88
32.531,125.24
32.546,123.14
32.562,118.14
32.578,110.66
32.593,101.6
32.609,91.6
32.625,80.79
32.640,69.07
32.656,56.77
32.671,45.02
32.687,35.55
32.703,29.88
32.718,28.37
32.734,29.92
32.750,32.43
32.765,33.82
32.781,32.86
32.796,29.45
32.812,24.15
32.828,17.52
32.843,9.7
32.859,0.67
32.875,-9.22
32.890,-18.84
32.906,-26.4
32.921,-30.11
32.937,-29.17
32.953,-24.39
32.968,-18.1
32.984,-13.34
33.000,-12.63
33.015,-16.98
33.031,-25.56
33.046,-36.34
33.062,-47.06
33.078,-56.35
33.093,-64.0
33.109,-70.52
33.125,-76.22
33.140,-80.46
33.156,-81.81
33.171,-78.89
33.187,-71.57
33.203,-61.46
33.218,-51.57
33.234,-44.99
33.250,-43.44
33.265,-46.58
33.281,-52.17
33.296,-57.37
33.312,-59.89
33.328,-58.75
33.343,-54.24
33.359,-47.33
33.375,-39.05
33.390,-30.16
33.406,-21.27
33.421,-13.06
33.437,-6.45
33.453,-2.51
33.468,-2.2
33.484,-6.0
33.500,-13.78
33.515,-24.73
33.531,-37.59
33.546,-50.98
33.562,-63.58
33.578,-74.32
33.593,-82.31
33.609,-87.02
33.625,-88.4
33.640,-87.08
33.656,-84.22
33.671,-81.23
33.687,-79.25
33.703,-78.61
33.718,-78.71
33.734,-78.25
33.750,-75.97
33.765,-71.31
33.781,-64.71
33.796,-57.38
33.812,-50.73
33.828,-45.63
33.843,-41.96
33.859,-38.7
33.875,-34.42
33.890,-28.05
33.906,-19.55
33.921,-10.13
33.937,-1.9
33.953,3.07
33.968,3.8
33.984,0.88
34.000,-3.78
34.015,-8.04
34.031,-10.71
34.046,-12.24
34.062,-14.4
34.078,-19.03
34.093,-26.63
34.109,-35.57
34.125,-42.49
34.140,-43.71
34.156,-36.86
34.171,-21.83
34.187,-0.68
34.203,23.38
34.218,47.35
34.234,69.4
34.250,88.85
34.265,105.45
34.281,118.56
34.296,126.96
34.312,129.46
34.328,125.77
34.343,117.07
34.359,105.84
34.375,94.77
34.390,85.8
34.406,79.7
34.421,76.32
34.437,75.26
34.453,76.39
34.468,79.72
34.484,84.84
34.500,90.25
34.515,93.47
34.531,91.97
34.546,84.45
34.562,71.64
34.578,56.1
34.593,41.02
34.609,28.64
34.625,19.37
34.640,11.8
34.656,3.78
34.671,-6.35
34.687,-18.74
34.703,-32.0
34.718,-43.95
34.734,-52.77
34.750,-57.8
34.765,-59.79
34.781,-60.31
34.796,-61.06
34.812,-63.18
34.828,-67.19
34.843,-73.12
34.859,-80.49
34.875,-88.62
34.890,-96.5
34.906,-102.95
34.921,-106.97
34.937,-107.97
34.953,-105.93
34.968,-101.17
34.984,-94.07
35.000,-84.82
35.015,-73.71
35.031,-61.47
35.046,-49.49
35.062,-39.45
35.078,-32.53
35.093,-28.58
35.109,-25.94
35.125,-22.15
35.140,-15.18
35.156,-4.58
35.171,8.41
35.187,21.62
35.203,33.12
35.218,42.14
35.234,49.09
35.250,54.91
35.265,60.19
35.281,64.85
35.296,68.44
35.312,70.8
35.328,72.49
35.343,74.53
35.359,77.77
35.375,82.14
35.390,86.58
35.406,89.61
35.421,90.16
35.437,88.12
35.453,84.32
35.468,79.91
35.484,75.71
35.500,71.79
35.515,67.68
35.531,62.89
35.546,57.45
35.562,52.02
35.578,47.52
35.593,44.56
35.609,42.96
35.625,41.67
35.640,39.26
35.656,34.41
35.671,26.47
35.687,15.65
35.703,2.75
35.718,-11.26
35.734,-25.58
35.750,-39.62
35.765,-52.8
35.781,-64.44
35.796,-73.77
35.812,-80.36
35.828,-84.43
35.843,-86.99
35.859,-89.31
35.875,-92.27
35.890,-95.77
35.906,-98.6
35.921,-98.84
35.937,-95.06
35.953,-86.85
35.968,-74.92
35.984,-60.54
36.000,-44.68
36.015,-27.62
36.031,-9.19
36.046,10.44
36.062,29.98
36.078,47.05
36.093,58.99
36.109,64.28
36.125,63.49
36.140,59.23
36.156,54.83
36.171,52.64
36.187,52.94
36.203,54.24
36.218,54.64
36.234,53.26
36.250,50.96
36.265,49.68
36.281,51.13
36.296,55.72
36.312,62.32
36.328,69.0
36.343,74.05
36.359,76.62
36.375,76.78
36.390,74.92
36.406,71.17
36.421,65.55
36.437,58.19
36.453,49.79
36.468,41.38
36.484,33.83
36.500,27.25
36.515,20.77
36.531,12.89
36.546,2.02
36.562,-12.99
36.578,-32.44
36.593,-55.72
36.609,-81.21
36.625,-106.45
36.640,-128.5
36.656,-144.59
36.671,-152.79
36.687,-152.61
36.703,-145.21
36.718,-132.89
36.734,-118.46
36.750,-104.29
36.765,-91.8
36.781,-81.37
36.796,-72.57
36.812,-64.48
36.828,-56.03
36.843,-46.14
36.859,-34.07
36.875,-19.73
36.890,-3.81
36.906,12.42
36.921,27.27
36.937,39.15
36.953,47.17
36.968,51.21
36.984,52.16
37.000,51.52
37.015,50.88
37.031,51.41
37.046,53.48
37.062,56.58
37.078,59.63
37.093,61.47
37.109,61.25
37.125,58.87
37.140,54.9
37.156,50.38
37.171,46.31
37.187,43.33
37.203,41.39
37.218,39.84
37.234,37.78
37.250,34.39
37.265,29.29
37.281,22.69
37.296,15.38
37.312,8.58
37.328,3.67
37.343,1.75
37.359,3.26
37.375,7.69
37.390,13.66
37.406,19.32
37.421,23.07
37.437,23.95
37.453,21.86
37.468,17.32
37.484,11.09
37.500,3.78
37.515,-4.0
37.531,-11.66
37.546,-18.57
37.562,-24.31
37.578,-28.65
37.593,-31.77
37.609,-33.85
37.625,-34.69
37.640,-33.66
37.656,-29.89
37.671,-22.83
37.687,-12.56
37.703,0.13
37.718,13.93
37.734,27.5
37.750,39.61
37.765,49.27
37.781,55.84
37.796,59.01
37.812,59.04
37.828,56.85
37.843,53.69
37.859,50.66
37.875,48.12
37.890,45.45
37.906,41.38
37.921,34.82
37.937,25.44
37.953,14.01
37.968,2.1
37.984,-8.59
38.000,-16.93
38.015,-22.45
38.031,-25.16
38.046,-25.13
38.062,-22.4
38.078,-16.86
38.093,-8.83
38.109,0.69
38.125,10.09
38.140,17.56
38.156,21.79
38.171,22.43
38.187,20.13
38.203,16.24
38.218,12.18
38.234,9.05
38.250,7.3
38.265,6.68
38.281,6.43
38.296,5.59
38.312,3.44
38.328,-0.06
38.343,-4.24
38.359,-8.07
38.375,-10.77
38.390,-12.38
38.406,-13.78
38.421,-16.15
38.437,-20.05
38.453,-24.84
38.468,-28.86
38.484,-30.29
38.500,-28.24
38.515,-23.28
38.531,-17.04
38.546,-11.11
38.562,-6.06
38.578,-1.18
38.593,4.83
38.609,12.64
38.625,21.53
38.640,29.56
38.656,34.51
38.671,35.19
38.687,31.97
38.703,26.54
38.718,20.89
38.734,16.47
38.750,13.73
38.765,12.35
38.781,11.69
38.796,11.2
38.812,10.35
38.828,8.64
38.843,5.52
38.859,0.7
38.875,-5.56
38.890,-12.5
38.906,-19.26
38.921,-25.48
38.937,-31.67
38.953,-38.99
38.968,-48.56
38.984,-60.76
39.000,-74.91
39.015,-89.61
39.031,-103.52
39.046,-116.02
39.062,-127.48
39.078,-138.78
39.093,-150.77
39.109,-163.91
39.125,-178.34
39.140,-194.24
39.156,-212.1
39.171,-232.56
39.187,-255.92
39.203,-281.67
39.218,-308.55
39.234,-335.21
39.250,-361.01
39.265,-386.41
39.281,-412.35
39.296,-439.18
39.312,-465.69
39.328,-489.08
39.343,-506.02
39.359,-514.3
39.375,-513.92
39.390,-507.08
39.406,-496.98
39.421,-486.2
39.437,-475.66
39.453,-464.55
39.468,-451.18
39.484,-434.06
39.500,-412.51
39.515,-386.59
39.531,-356.66
39.546,-322.88
39.562,-285.24
39.578,-243.81
39.593,-199.22
39.609,-152.83
39.625,-106.57
39.640,-62.47
39.656,-22.1
39.671,13.77
39.687,45.26
39.703,73.11
39.718,98.18
39.734,121.1
39.750,142.12
39.765,161.16
39.781,178.15
39.796,193.23
39.812,206.87
39.828,219.65
39.843,231.97
39.859,243.71
39.875,254.21
39.890,262.53
39.906,267.84
39.921,270.02
39.937,269.81
39.953,268.58
39.968,267.93
39.984,269.0
40.000,272.04
40.015,276.5
40.031,281.43
40.046,286.12
40.062,290.64
40.078,295.85
40.093,303.12
40.109,313.69
40.125,328.21
40.140,346.48
40.156,367.33
40.171,388.66
40.187,407.62
40.203,421.11
40.218,426.48
40.234,422.46
40.250,409.79
40.265,391.24
40.281,370.64
40.296,351.45
40.312,335.31
40.328,321.58
40.343,307.92
40.359,291.79
40.375,272.08
40.390,250.02
40.406,228.92
40.421,212.99
40.437,205.6
40.453,207.95
40.468,218.58
40.484,234.06
40.500,250.32
40.515,264.29
40.531,274.73
40.546,282.22
40.562,288.02
40.578,292.85
40.593,296.3
40.609,296.95
40.625,293.52
40.640,285.99
40.656,276.1
40.671,266.54
40.687,259.4
40.703,254.69
40.718,249.82
40.734,240.54
40.750,222.71
40.765,194.24
40.781,156.07
40.796,111.83
40.812,66.49
40.828,24.69
40.843,-10.52
40.859,-38.05
40.875,-58.48
40.890,-73.27
40.906,-84.08
40.921,-92.31
40.937,-98.97
40.953,-104.54
40.968,-109.06
40.984,-112.24
41.000,-113.69
41.015,-113.19
41.031,-110.9
41.046,-107.21
41.062,-102.5
41.078,-97.12
41.093,-91.2
41.109,-84.91
41.125,-78.55
41.140,-72.55
41.156,-67.27
41.171,-62.77
41.187,-58.73
41.203,-54.47
41.218,-49.32
41.234,-42.84
41.250,-34.99
41.265,-26.11
41.281,-16.73
41.296,-7.38
41.312,1.47
41.328,9.54
41.343,16.72
41.359,23.04
41.375,28.58
41.390,33.38
41.406,37.36
41.421,40.43
41.437,42.68
41.453,44.52
41.468,46.58
41.484,49.42
41.500,53.22
41.515,57.69
41.531,62.15
41.546,65.88
41.562,68.38
41.578,69.39
41.593,68.91
41.609,67.02
41.625,64.03
41.640,60.62
41.656,57.92
41.671,57.21
41.687,59.11
41.703,62.69
41.718,65.11
41.734,62.3
41.750,50.6
41.765,28.64
41.781,-1.51
41.796,-34.68
41.812,-64.52
41.828,-86.04
41.843,-97.72
41.859,-102.07
41.875,-104.57
41.890,-111.48
41.906,-127.73
41.921,-155.59
41.937,-194.64
41.953,-242.46
41.968,-295.4
41.984,-349.03
42.000,-398.45
42.015,-438.68
42.031,-465.47
42.046,-476.33
42.062,-471.34
42.078,-452.91
42.093,-424.86
42.109,-390.92
42.125,-353.52
42.140,-313.75
42.156,-272.02
42.171,-229.15
42.187,-187.2
42.203,-149.19
42.218,-118.24
42.234,-96.32
42.250,-83.34
42.265,-76.97
42.281,-73.2
42.296,-67.33
42.312,-55.18
42.328,-34.2
42.343,-4.24
42.359,32.19
42.375,70.25
42.390,103.7
42.406,126.34
42.421,133.94
42.437,126.0
42.453,106.39
42.468,82.64
42.484,63.83
42.500,57.59
42.515,67.49
42.531,91.83
42.546,124.29
42.562,156.11
42.578,179.21
42.593,188.8
42.609,184.58
42.625,170.42
42.640,152.32
42.656,136.15
42.671,125.83
42.687,122.56
42.703,125.26
42.718,131.51
42.734,138.3
42.750,142.61
42.765,141.56
42.781,132.85
42.796,115.44
42.812,90.25
42.828,60.53
42.843,31.06
42.859,6.59
42.875,-9.83
42.890,-17.82
42.906,-19.36
42.921,-17.66
42.937,-15.62
42.953,-14.66
42.968,-14.87
42.984,-15.54
43.000,-15.89
43.015,-15.61
43.031,-15.0
43.046,-14.71
43.062,-15.59
43.078,-18.25
43.093,-22.71
43.109,-28.71
43.125,-35.96
43.140,-44.3
43.156,-53.73
43.171,-64.38
43.187,-76.33
43.203,-89.54
43.218,-103.63
43.234,-117.47
43.250,-130.0
43.265,-140.57
43.281,-149.15
43.296,-156.18
43.312,-162.43
43.328,-168.66
43.343,-175.61
43.359,-183.38
43.375,-189.99
43.390,-193.02
43.406,-189.93
43.421,-178.77
43.437,-158.62
43.453,-130.13
43.468,-95.46
43.484,-57.69
43.500,-18.65
43.515,25.03
43.531,78.31
43.546,146.02
43.562,230.42
43.578,330.06
43.593,439.83
43.609,552.38
43.625,659.37
43.640,754.43
43.656,837.75
43.671,909.67
43.687,969.11
43.703,1012.54
43.718,1035.36
43.734,1034.2
43.750,1008.83
43.765,961.7
43.781,899.01
43.796,833.23
43.812,772.87
43.828,720.6
43.843,673.93
43.859,629.13
43.875,585.03
43.890,544.06
43.906,508.94
43.921,442.44
43.937,322.88
43.953,146.28
43.968,-68.42
43.984,-288.63
44.000,-483.73
44.015,-635.03
44.031,-731.59
44.046,-786.3
44.062,-812.44
44.078,-814.45
44.093,-795.65
44.109,-760.02
44.125,-714.07
44.140,-664.7
44.156,-619.14
44.171,-582.56
44.187,-558.25
44.203,-544.98
44.218,-535.04
44.234,-521.74
44.250,-501.16
44.265,-473.25
44.281,-440.9
44.296,-408.2
44.312,-378.46
44.328,-354.23
44.343,-334.91
44.359,-315.97
44.375,-293.64
44.390,-266.49
44.406,-236.27
44.421,-207.37
44.437,-185.04
44.453,-173.12
44.468,-172.94
44.484,-181.29
44.500,-190.77
44.515,-193.78
44.531,-185.5
44.546,-166.37
44.562,-142.32
44.578,-122.34
44.593,-114.26
44.609,-120.95
44.625,-137.89
44.640,-154.55
44.656,-159.23
44.671,-144.01
44.687,-107.89
44.703,-57.1
44.718,-2.38
44.734,45.1
44.750,77.14
44.765,90.44
44.781,86.31
44.796,69.13
44.812,44.49
44.828,17.64
44.843,-7.68
44.859,-29.74
44.875,-48.67
44.890,-65.53
44.906,-80.77
44.921,-92.93
44.937,-98.24
44.953,-91.76
44.968,-69.75
44.984,-32.17
45.000,16.3
45.015,67.08
45.031,110.51
45.046,138.93
45.062,148.93
45.078,141.8
45.093,122.0
45.109,94.91
45.125,64.76
45.140,33.68
45.156,2.15
45.171,-29.64
45.187,-60.32
45.203,-86.44
45.218,-102.77
45.234,-103.63
45.250,-85.24
45.265,-47.96
45.281,2.58
45.296,56.09
45.312,100.45
45.328,125.55
45.343,126.51
45.359,105.0
45.375,67.9
45.390,24.11
45.406,-18.87
45.421,-57.04
45.437,-89.74
45.453,-117.68
45.468,-140.59
45.484,-155.9
45.500,-159.28
45.515,-146.74
45.531,-117.2
45.546,-73.98
45.562,-24.31
45.578,22.67
45.593,58.63
45.609,77.82
45.625,77.37
45.640,56.35
45.656,14.57
45.671,-47.41
45.687,-127.17
45.703,-218.87
45.718,-312.97
45.734,-397.85
45.750,-463.21
45.765,-503.44
45.781,-519.14
45.796,-516.07
45.812,-502.09
45.828,-483.81
45.843,-464.7
45.859,-445.26
45.875,-424.6
45.890,-402.02
45.906,-377.73
45.921,-352.32
45.937,-325.88
45.953,-297.44
45.968,-265.14
45.984,-226.96
46.000,-181.48
46.015,-128.45
46.031,-69.31
46.046,-7.26
46.062,53.07
46.078,106.56
46.093,149.12
46.109,179.15
46.125,198.24
46.140,210.7
46.156,221.83
46.171,235.73
46.187,253.86
46.203,274.84
46.218,295.72
46.234,313.78
46.250,328.0
46.265,339.33
46.281,350.02
46.296,362.32
46.312,377.47
46.328,395.39
46.343,414.94
46.359,434.67
46.375,453.15
46.390,469.41
46.406,482.6
46.421,491.98
46.437,496.74
46.453,496.2
46.468,489.97
46.484,478.01
46.500,460.57
46.515,438.03
46.531,410.86
46.546,379.74
46.562,345.84
46.578,310.84
46.593,276.73
46.609,245.25
46.625,217.28
46.640,192.78
46.656,170.98
46.671,151.15
46.687,133.13
46.703,117.61
46.718,105.77
46.734,98.7
46.750,96.78
46.765,99.48
46.781,105.63
46.796,113.76
46.812,122.48
46.828,130.7
46.843,137.69
46.859,143.24
46.875,147.62
46.890,151.47
46.906,155.62
46.921,161.0
46.937,167.96
46.953,175.99
46.968,183.66
46.984,188.78
47.000,188.94
47.015,182.02
47.031,166.78
47.046,143.32
47.062,113.58
47.078,80.54
47.093,47.12
47.109,15.38
47.125,-14.27
47.140,-42.96
47.156,-72.42
47.171,-103.87
47.187,-137.06
47.203,-169.88
47.218,-199.81
47.234,-225.12
47.250,-245.03
47.265,-259.2
47.281,-267.16
47.296,-268.46
47.312,-263.41
47.328,-257.42
47.343,-255.25
47.359,-259.37
47.375,-267.94
47.390,-275.27
47.406,-275.63
47.421,-266.89
47.437,-251.43
47.453,-233.93
47.468,-217.84
47.484,-203.26
47.500,-187.49
47.515,-168.89
47.531,-148.93
47.546,-131.7
47.562,-121.47
47.578,-119.84
47.593,-124.67
47.609,-130.67
47.625,-132.08
47.640,-123.94
47.656,-104.85
47.671,-75.82
47.687,-39.27
47.703,1.54
47.718,42.09
47.734,76.92
47.750,101.13
47.765,111.95
47.781,109.8
47.796,97.78
47.812,80.66
47.828,62.94
47.843,48.9
47.859,40.84
47.875,36.34
47.890,33.29
47.906,30.54
47.921,28.23
47.937,24.66
47.953,16.73
47.968,0.6
47.984,-27.01
48.000,-67.36
48.015,-117.86
48.031,-171.0
48.046,-215.95
48.062,-241.88
48.078,-241.99
48.093,-215.59
48.109,-168.12
48.125,-108.53
48.140,-45.67
48.156,14.8
48.171,71.36
48.187,124.41
48.203,173.37
48.218,214.92
48.234,243.77
48.250,254.91
48.265,246.17
48.281,219.31
48.296,179.54
48.312,133.6
48.328,87.32
48.343,43.81
48.359,3.04
48.375,-37.15
48.390,-79.74
48.406,-127.32
48.421,-181.42
48.437,-241.87
48.453,-306.45
48.468,-370.66
48.484,-427.87
48.500,-470.22
48.515,-490.4
48.531,-483.99
48.546,-450.93
48.562,-395.57
48.578,-324.75
48.593,-245.11
48.609,-160.85
48.625,-73.18
48.640,18.41
48.656,113.92
48.671,210.92
48.687,304.14
48.703,386.66
48.718,452.14
48.734,496.68
48.750,519.68
48.765,523.28
48.781,510.91
48.796,485.84
48.812,450.15
48.828,405.13
48.843,352.03
48.859,292.95
48.875,231.01
48.890,169.77
48.906,112.07
48.921,59.1
48.937,9.98
48.953,-37.86
48.968,-87.89
48.984,-143.29
49.000,-205.47
49.015,-272.71
49.031,-339.81
49.046,-399.01
49.062,-442.31
49.078,-464.17
49.093,-463.36
49.109,-443.03
49.125,-409.12
49.140,-368.3
49.156,-326.38
49.171,-287.87
49.187,-256.22
49.203,-233.88
49.218,-221.69
49.234,-218.08
49.250,-218.8
49.265,-218.13
49.281,-210.88
49.296,-194.33
49.312,-168.76
49.328,-136.44
49.343,-99.74
49.359,-59.71
49.375,-16.02
49.390,31.77
49.406,82.7
49.421,133.63
49.437,179.83
49.453,216.77
49.468,241.99
49.484,256.29
49.500,263.28
49.515,267.8
49.531,273.87
49.546,283.26
49.562,295.36
49.578,308.14
49.593,319.49
49.609,328.03
49.625,333.15
49.640,334.37
49.656,330.81
49.671,321.29
49.687,304.84
49.703,281.56
49.718,252.92
49.734,221.65
49.750,191.07
49.765,164.29
49.781,143.31
49.796,128.4
49.812,117.68
49.828,107.54
49.843,93.7
49.859,72.6
49.875,43.02
49.890,6.28
49.906,-34.5
49.921,-76.16
49.937,-117.37
49.953,-159.44
49.968,-205.72
49.984,-259.5
50.000,-321.56
50.015,-388.52
50.031,-453.08
50.046,-506.06
50.062,-539.63
50.078,-550.03
50.093,-538.43
50.109,-509.89
50.125,-470.76
50.140,-426.09
50.156,-378.14
50.171,-326.88
50.187,-271.33
50.203,-211.03
50.218,-146.85
50.234,-81.02
50.250,-16.85
50.265,41.71
50.281,90.76
50.296,127.48
50.312,151.21
50.328,164.26
50.343,171.46
50.359,178.2
50.375,188.35
50.390,202.49
50.406,217.99
50.421,230.77
50.437,237.61
50.453,237.71
50.468,232.76
50.484,225.44
50.500,217.65
50.515,209.53
50.531,199.66
50.546,186.37
50.562,169.08
50.578,148.9
50.593,128.25
50.609,109.6
50.625,94.01
50.640,80.36
50.656,65.79
50.671,47.2
50.687,23.02
50.703,-5.37
50.718,-33.75
50.734,-56.61
50.750,-69.53
50.765,-71.23
50.781,-64.17
50.796,-53.43
50.812,-44.63
50.828,-41.98
50.843,-47.31
50.859,-60.47
50.875,-80.17
50.890,-104.75
50.906,-132.31
50.921,-160.35
50.937,-185.7
50.953,-205.1
50.968,-216.34
50.984,-219.1
51.000,-214.97
51.015,-206.34
51.031,-195.21
51.046,-182.33
51.062,-167.44
51.078,-150.35
51.093,-131.91
51.109,-114.25
51.125,-100.03
51.140,-90.98
51.156,-86.91
51.171,-85.68
51.187,-84.37
51.203,-80.96
51.218,-75.56
51.234,-70.46
51.250,-68.79
51.265,-72.72
51.281,-82.1
51.296,-94.36
51.312,-105.76
51.328,-113.22
51.343,-115.61
51.359,-113.93
51.375,-110.16
51.390,-105.94
51.406,-101.54
51.421,-96.15
51.437,-88.76
51.453,-79.19
51.468,-68.61
51.484,-59.27
51.500,-53.69
51.515,-53.63
51.531,-59.28
51.546,-68.95
51.562,-79.29
51.578,-86.21
51.593,-86.03
51.609,-76.61
51.625,-57.79
51.640,-31.1
51.656,1.23
51.671,37.19
51.687,75.15
51.703,113.56
51.718,150.31
51.734,182.7
51.750,208.04
51.765,224.63
51.781,232.53
51.796,233.56
51.812,230.57
51.828,226.25
51.843,222.42
51.859,219.82
51.875,218.45
51.890,217.95
51.906,217.86
51.921,217.71
51.937,217.21
51.953,216.47
51.968,216.24
51.984,217.8
52.000,222.53
52.015,231.01
52.031,242.48
52.046,254.75
52.062,264.77
52.078,269.84
52.093,268.69
52.109,262.17
52.125,252.99
52.140,244.67
52.156,240.34
52.171,241.68
52.187,248.65
52.203,259.61
52.218,271.87
52.234,281.93
52.250,286.08
52.265,281.12
52.281,265.34
52.296,239.48
52.312,206.98
52.328,173.21
52.343,143.65
52.359,122.08
52.375,109.26
52.390,103.15
52.406,100.09
52.421,96.59
52.437,90.46
52.453,81.06
52.468,68.56
52.484,53.07
52.500,34.31
52.515,11.74
52.531,-14.78
52.546,-44.55
52.562,-76.02
52.578,-107.27
52.593,-136.58
52.609,-163.05
52.625,-186.88
52.640,-209.39
52.656,-232.8
52.671,-260.01
52.687,-294.2
52.703,-337.96
52.718,-392.15
52.734,-454.62
52.750,-519.72
52.765,-579.09
52.781,-623.66
52.796,-646.39
52.812,-644.47
52.828,-619.86
52.843,-578.24
52.859,-526.75
52.875,-471.73
52.890,-417.3
52.906,-365.41
52.921,-316.5
52.937,-270.45
52.953,-227.07
52.968,-186.09
52.984,-146.97
53.000,-108.6
53.015,-69.48
53.031,-28.33
53.046,15.1
53.062,59.47
53.078,101.87
53.093,138.43
53.109,165.54
53.125,181.23
53.140,185.81
53.156,181.44
53.171,170.55
53.187,154.04
53.203,130.73
53.218,98.38
53.234,56.19
53.250,6.69
53.265,-43.89
53.281,-87.84
53.296,-118.73
53.312,-134.11
53.328,-135.8
53.343,-128.01
53.359,-114.64
53.375,-97.59
53.390,-76.95
53.406,-52.3
53.421,-24.46
53.437,5.19
53.453,34.56
53.468,62.33
53.484,88.67
53.500,115.35
53.515,144.89
53.531,178.34
53.546,215.14
53.562,251.7
53.578,284.47
53.593,309.63
53.609,324.4
53.625,327.77
53.640,320.49
53.656,304.79
53.671,282.47
53.687,257.06
53.703,231.6
53.718,212.03
53.734,203.24
53.750,207.25
53.765,222.14
53.781,242.34
53.796,261.58
53.812,273.61
53.828,278.2
53.843,277.89
53.859,281.09
53.875,295.7
53.890,326.55
53.906,374.15
53.921,434.78
53.937,503.11
53.953,571.48
53.968,636.92
53.984,666.81
54.000,636.35
54.015,536.25
54.031,380.73
54.046,200.71
54.062,26.82
54.078,-104.97
54.093,-197.28
54.109,-257.65
54.125,-293.07
54.140,-304.34
54.156,-291.11
54.171,-257.68
54.187,-208.56
54.203,-150.0
54.218,-87.97
54.234,-29.55
54.250,23.2
54.265,69.03
54.281,109.93
54.296,147.37
54.312,181.37
54.328,210.14
54.343,230.08
54.359,238.05
54.375,231.17
54.390,211.79
54.406,183.94
54.421,153.95
54.437,127.14
54.453,106.56
54.468,92.7
54.484,83.48
54.500,76.0
54.515,66.51
54.531,54.0
54.546,38.3
54.562,20.62
54.578,2.38
54.593,-15.21
54.609,-31.16
54.625,-45.16
54.640,-57.23
54.656,-68.15
54.671,-78.09
54.687,-87.44
54.703,-96.39
54.718,-104.99
54.734,-112.95
54.750,-119.61
54.765,-124.38
54.781,-126.9
54.796,-127.4
54.812,-126.38
54.828,-124.64
54.843,-123.16
54.859,-122.83
54.875,-124.35
54.890,-127.97
54.906,-133.37
54.921,-139.16
54.937,-142.84
54.953,-141.24
54.968,-131.74
54.984,-113.65
55.000,-88.92
55.015,-61.84
55.031,-37.4
55.046,-19.44
55.062,-9.35
55.078,-6.05
55.093,-7.08
55.109,-10.12
55.125,-13.84
55.140,-17.97
55.156,-22.57
55.171,-27.37
55.187,-31.57
55.203,-34.23
55.218,-34.83
55.234,-33.59
55.250,-31.36
55.265,-29.2
55.281,-27.88
55.296,-27.55
55.312,-27.82
55.328,-28.02
55.343,-27.51
55.359,-26.0
55.375,-23.62
55.390,-20.83
55.406,-18.27
55.421,-16.51
55.437,-15.92
55.453,-16.64
55.468,-18.54
55.484,-21.4
55.500,-24.84
55.515,-28.45
55.531,-31.89
55.546,-35.03
55.562,-37.98
55.578,-41.16
55.593,-45.16
55.609,-50.53
55.625,-57.46
55.640,-65.67
55.656,-74.37
55.671,-82.61
55.687,-89.66
55.703,-95.47
55.718,-100.79
55.734,-106.95
55.750,-115.39
55.765,-126.99
55.781,-141.7
55.796,-158.55
55.812,-175.93
55.828,-192.27
55.843,-206.66
55.859,-219.23
55.875,-231.4
55.890,-245.74
55.906,-265.5
55.921,-293.37
55.937,-329.77
55.953,-371.35
55.968,-410.71
55.984,-437.66
56.000,-442.09
56.015,-417.26
56.031,-362.38
56.046,-283.31
56.062,-191.18
56.078,-99.51
56.093,-20.83
56.109,36.16
56.125,68.07
56.140,76.83
56.156,68.42
56.171,50.81
56.187,31.69
56.203,16.8
56.218,8.92
56.234,7.97
56.250,11.81
56.265,17.29
56.281,21.08
56.296,20.32
56.312,13.24
56.328,-0.32
56.343,-18.62
56.359,-38.43
56.375,-56.0
56.390,-68.44
56.406,-74.74
56.421,-76.09
56.437,-75.2
56.453,-74.83
56.468,-76.6
56.484,-80.31
56.500,-84.3
56.515,-86.37
56.531,-84.8
56.546,-78.91
56.562,-69.06
56.578,-56.09
56.593,-40.92
56.609,-24.32
56.625,-7.16
56.640,9.29
56.656,23.44
56.671,33.77
56.687,39.47
56.703,40.88
56.718,39.45
56.734,36.9
56.750,34.59
56.765,32.96
56.781,31.63
56.796,29.96
56.812,27.59
56.828,24.52
56.843,21.05
56.859,17.33
56.875,13.17
56.890,8.3
56.906,2.8
56.921,-2.77
56.937,-7.55
56.953,-10.92
56.968,-13.09
56.984,-14.97
57.000,-17.52
57.015,-21.09
57.031,-24.83
57.046,-27.02
57.062,-25.95
57.078,-20.97
57.093,-13.12
57.109,-4.91
57.125,0.65
57.140,1.16
57.156,-4.27
57.171,-14.79
57.187,-28.28
57.203,-42.08
57.218,-53.69
57.234,-61.47
57.250,-64.92
57.265,-64.68
57.281,-62.21
57.296,-59.16
57.312,-56.58
57.328,-54.55
57.343,-52.38
57.359,-49.31
57.375,-45.51
57.390,-42.44
57.406,-42.35
57.421,-47.01
57.437,-56.31
57.453,-67.74
57.468,-77.21
57.484,-80.68
57.500,-75.79
57.515,-62.77
57.531,-43.97
57.546,-22.81
57.562,-2.68
57.578,13.69
57.593,24.42
57.609,28.23
57.625,25.04
57.640,16.44
57.656,5.78
57.671,-2.32
57.687,-3.49
57.703,4.68
57.718,21.68
57.734,44.52
57.750,69.09
57.765,91.71
57.781,109.87
57.796,122.13
57.812,127.58
57.828,125.58
57.843,116.12
57.859,100.5
57.875,81.54
57.890,62.9
57.906,47.6
57.921,36.85
57.937,29.66
57.953,23.78
57.968,17.16
57.984,8.89
58.000,-0.89
58.015,-12.11
58.031,-25.4
58.046,-41.93
58.062,-62.35
58.078,-85.43
58.093,-107.73
58.109,-124.82
58.125,-133.2
58.140,-131.98
58.156,-123.43
58.171,-111.74
58.187,-100.72
58.203,-91.86
58.218,-83.81
58.234,-73.38
58.250,-58.02
58.265,-37.72
58.281,-15.75
58.296,2.61
58.312,12.84
58.328,13.93
58.343,9.62
58.359,7.13
58.375,13.9
58.390,33.85
58.406,65.25
58.421,101.37
58.437,133.57
58.453,155.08
58.468,163.65
58.484,161.79
58.500,154.73
58.515,147.36
58.531,142.14
58.546,138.4
58.562,133.53
58.578,124.92
58.593,111.55
58.609,94.51
58.625,76.44
58.640,60.21
58.656,47.87
58.671,40.13
58.687,36.68
58.703,36.91
58.718,40.37
58.734,46.89
58.750,55.83
58.765,65.59
58.781,73.44
58.796,76.25
58.812,71.92
58.828,60.56
58.843,44.84
58.859,29.06
58.875,17.39
58.890,12.14
58.906,12.82
58.921,16.67
58.937,20.15
58.953,20.75
58.968,17.98
58.984,13.28
59.000,8.87
59.015,6.33
59.031,5.93
59.046,6.82
59.062,7.98
59.078,9.19
59.093,11.36
59.109,15.86
59.125,23.41
59.140,33.22
59.156,43.1
59.171,50.71
59.187,55.0
59.203,56.95
59.218,58.94
59.234,63.02
59.250,69.23
59.265,75.19
59.281,77.37
59.296,73.19
59.312,62.83
59.328,49.14
59.343,36.18
59.359,26.69
59.375,20.5
59.390,14.5
59.406,4.35
59.421,-13.25
59.437,-38.97
59.453,-70.58
59.468,-104.03
59.484,-134.81
59.500,-159.15
59.515,-174.99
59.531,-182.32
59.546,-183.25
59.562,-181.43
59.578,-180.74
59.593,-183.85
59.609,-191.04
59.625,-200.01
59.640,-206.99
59.656,-208.49
59.671,-203.0
59.687,-191.39
59.703,-176.41
59.718,-161.16
59.734,-147.6
59.750,-135.73
59.765,-123.71
59.781,-108.64
59.796,-87.68
59.812,-59.3
59.828,-24.11
59.843,14.85
59.859,52.91
59.875,85.58
59.890,110.61
59.906,129.28
59.921,146.3
59.937,168.09
59.953,200.09
59.968,244.18
59.984,297.43
