timestamp,value
00.000,-222.99
00.015,-220.95
00.031,-207.36
00.046,-188.11
00.062,-168.55
00.078,-151.78
00.093,-137.8
00.109,-124.39
00.125,-108.86
00.140,-89.68
00.156,-66.87
00.171,-41.53
00.187,-16.06
00.203,6.76
00.218,23.32
00.234,29.91
00.250,24.34
00.265,7.96
00.281,-12.99
00.296,-28.31
00.312,-26.79
00.328,-0.92
00.343,49.94
00.359,118.33
00.375,191.35
00.390,255.79
00.406,303.11
00.421,331.77
00.437,346.29
00.453,352.89
00.468,355.79
00.484,355.71
00.500,350.99
00.515,339.79
00.531,322.26
00.546,300.51
00.562,277.53
00.578,255.72
00.593,235.63
00.609,216.67
00.625,198.52
00.640,181.92
00.656,168.64
00.671,160.12
00.687,156.06
00.703,154.24
00.718,151.16
00.734,143.44
00.750,129.03
00.765,107.89
00.781,81.78
00.796,53.46
00.812,25.53
00.828,-0.36
00.843,-23.76
00.859,-45.11
00.875,-64.94
00.890,-83.5
00.906,-100.28
00.921,-114.41
00.937,-124.57
00.953,-129.19
00.968,-126.71
00.984,-116.01
01.000,-96.73
01.015,-69.7
01.031,-36.93
01.046,-1.31
01.062,33.45
01.078,63.88
01.093,87.08
01.109,101.3
01.125,106.1
01.140,102.15
01.156,90.9
01.171,73.93
01.187,52.62
01.203,27.84
01.218,0.29
01.234,-29.32
01.250,-59.79
01.265,-89.28
01.281,-115.62
01.296,-136.89
01.312,-152.2
01.328,-162.12
01.343,-168.65
01.359,-174.72
01.375,-183.21
01.390,-196.11
01.406,-213.89
01.421,-235.55
01.437,-259.39
01.453,-283.67
01.468,-307.39
01.484,-330.34
01.500,-352.94
01.515,-375.8
01.531,-399.55
01.546,-424.8
01.562,-451.47
01.578,-478.4
01.593,-502.58
01.609,-519.15
01.625,-522.27
01.640,-507.46
01.656,-473.4
01.671,-422.89
01.687,-362.35
01.703,-299.52
01.718,-240.77
01.734,-189.14
01.750,-144.64
01.765,-106.09
01.781,-73.2
01.796,-47.79
01.812,-32.9
01.828,-30.74
01.843,-40.69
01.859,-59.02
01.875,-79.98
01.890,-98.0
01.906,-109.59
01.921,-113.32
01.937,-109.25
01.953,-97.7
01.968,-78.34
01.984,-50.22
02.000,-12.94
02.015,32.14
02.031,80.98
02.046,126.3
02.062,159.02
02.078,170.4
02.093,154.57
02.109,110.84
02.125,44.75
02.140,-33.67
02.156,-112.64
02.171,-181.34
02.187,-231.78
02.203,-259.09
02.218,-261.23
02.234,-238.56
02.250,-193.58
02.265,-131.18
02.281,-58.25
02.296,17.15
02.312,87.26
02.328,145.98
02.343,189.9
02.359,218.26
02.375,232.57
02.390,236.26
02.406,233.59
02.421,229.32
02.437,227.85
02.453,232.59
02.468,245.36
02.484,265.91
02.500,291.35
02.515,315.94
02.531,331.93
02.546,331.2
02.562,308.02
02.578,261.31
02.593,195.11
02.609,117.33
02.625,37.18
02.640,-38.12
02.656,-104.79
02.671,-162.76
02.687,-213.89
02.703,-259.47
02.718,-298.18
02.734,-326.22
02.750,-338.78
02.765,-332.28
02.781,-306.64
02.796,-265.68
02.812,-215.82
02.828,-163.69
02.843,-113.71
02.859,-67.56
02.875,-25.84
02.890,9.88
02.906,35.87
02.921,47.58
02.937,42.76
02.953,24.52
02.968,1.41
02.984,-15.43
03.000,-17.17
03.015,-1.45
03.031,26.8
03.046,58.01
03.062,82.73
03.078,96.19
03.093,99.96
03.109,100.03
03.125,103.39
03.140,114.58
03.156,134.15
03.171,159.56
03.187,186.7
03.203,211.46
03.218,230.57
03.234,241.12
03.250,240.16
03.265,225.76
03.281,198.41
03.296,162.5
03.312,126.06
03.328,98.1
03.343,84.84
03.359,86.74
03.375,98.25
03.390,110.67
03.406,116.61
03.421,113.21
03.437,102.39
03.453,88.69
03.468,75.88
03.484,64.66
03.500,53.5
03.515,40.43
03.531,25.35
03.546,10.74
03.562,0.07
03.578,-4.42
03.593,-3.26
03.609,0.48
03.625,2.58
03.640,-0.07
03.656,-8.54
03.671,-21.23
03.687,-34.79
03.703,-45.28
03.718,-49.46
03.734,-46.18
03.750,-36.84
03.765,-25.16
03.781,-15.49
03.796,-10.61
03.812,-10.01
03.828,-9.94
03.843,-5.36
03.859,7.05
03.875,26.69
03.890,49.47
03.906,69.86
03.921,84.14
03.937,92.03
03.953,96.34
03.968,100.55
03.984,106.06
04.000,111.31
04.015,113.02
04.031,108.54
04.046,97.94
04.062,84.28
04.078,72.19
04.093,65.36
04.109,64.98
04.125,69.46
04.140,75.8
04.156,81.45
04.171,85.69
04.187,89.54
04.203,94.74
04.218,102.4
04.234,111.95
04.250,121.66
04.265,129.8
04.281,135.78
04.296,140.42
04.312,145.32
04.328,151.36
04.343,157.88
04.359,162.74
04.375,163.18
04.390,157.45
04.406,145.69
04.421,129.45
04.437,110.1
04.453,87.47
04.468,59.18
04.484,21.82
04.500,-26.73
04.515,-85.6
04.531,-150.33
04.546,-214.19
04.562,-270.63
04.578,-315.65
04.593,-348.74
04.609,-372.33
04.625,-390.05
04.640,-405.18
04.656,-419.48
04.671,-432.91
04.687,-443.69
04.703,-448.54
04.718,-443.17
04.734,-423.31
04.750,-386.48
04.765,-333.17
04.781,-267.4
04.796,-195.75
04.812,-125.16
04.828,-61.01
04.843,-5.99
04.859,39.69
04.875,76.98
04.890,106.57
04.906,128.13
04.921,140.69
04.937,143.5
04.953,137.26
04.968,124.23
04.984,107.6
05.000,90.75
05.015,76.25
05.031,65.3
05.046,57.78
05.062,52.81
05.078,49.6
05.093,48.47
05.109,50.73
05.125,58.17
05.140,71.7
05.156,90.34
05.171,110.86
05.187,128.61
05.203,139.29
05.218,140.55
05.234,133.15
05.250,120.26
05.265,105.78
05.281,92.41
05.296,80.61
05.312,69.17
05.328,56.91
05.343,44.07
05.359,32.91
05.375,26.42
05.390,26.56
05.406,32.81
05.421,41.99
05.437,49.4
05.453,51.15
05.468,45.83
05.484,34.97
05.500,22.07
05.515,10.8
05.531,3.37
05.546,-0.06
05.562,-0.91
05.578,-1.36
05.593,-3.04
05.609,-6.67
05.625,-11.84
05.640,-17.44
05.656,-22.27
05.671,-25.42
05.687,-26.52
05.703,-25.52
05.718,-22.81
05.734,-18.73
05.750,-13.51
05.765,-7.4
05.781,-0.56
05.796,6.67
05.812,13.99
05.828,21.05
05.843,27.45
05.859,32.6
05.875,35.95
05.890,37.08
05.906,35.94
05.921,33.21
05.937,29.8
05.953,26.64
05.968,23.95
05.984,21.27
06.000,17.63
06.015,12.64
06.031,6.75
06.046,1.39
06.062,-1.8
06.078,-2.12
06.093,-0.13
06.109,2.36
06.125,3.53
06.140,2.38
06.156,-0.8
06.171,-4.84
06.187,-8.45
06.203,-10.94
06.218,-12.47
06.234,-13.6
06.250,-14.79
06.265,-16.16
06.281,-17.66
06.296,-19.36
06.312,-21.55
06.328,-24.4
06.343,-27.36
06.359,-29.2
06.375,-28.21
06.390,-23.17
06.406,-14.1
06.421,-2.55
06.437,9.01
06.453,18.04
06.468,22.88
06.484,23.27
06.500,20.07
06.515,15.0
06.531,9.79
06.546,5.92
06.562,4.13
06.578,4.31
06.593,5.63
06.609,6.99
06.625,7.64
06.640,7.72
06.656,8.27
06.671,10.45
06.687,14.99
06.703,21.76
06.718,29.83
06.734,38.24
06.750,46.24
06.765,53.41
06.781,59.02
06.796,62.07
06.812,61.11
06.828,55.27
06.843,44.85
06.859,31.52
06.875,17.91
06.890,6.34
06.906,-1.99
06.921,-7.38
06.937,-10.92
06.953,-13.91
06.968,-17.03
06.984,-20.33
07.000,-23.72
07.015,-27.0
07.031,-30.23
07.046,-33.09
07.062,-34.78
07.078,-34.19
07.093,-30.31
07.109,-22.82
07.125,-12.37
07.140,-0.76
07.156,9.93
07.171,17.63
07.187,21.22
07.203,20.6
07.218,16.44
07.234,9.91
07.250,2.22
07.265,-5.48
07.281,-12.57
07.296,-18.84
07.312,-24.52
07.328,-29.74
07.343,-34.52
07.359,-38.41
07.375,-40.75
07.390,-41.11
07.406,-39.66
07.421,-37.31
07.437,-35.06
07.453,-33.34
07.468,-31.49
07.484,-28.03
07.500,-21.7
07.515,-12.56
07.531,-2.21
07.546,7.01
07.562,13.35
07.578,16.8
07.593,18.9
07.609,21.6
07.625,25.89
07.640,31.05
07.656,35.15
07.671,36.39
07.687,34.52
07.703,30.76
07.718,27.03
07.734,24.58
07.750,23.23
07.765,21.77
07.781,19.17
07.796,15.32
07.812,11.25
07.828,8.56
07.843,8.26
07.859,10.23
07.875,13.11
07.890,14.91
07.906,14.02
07.921,9.79
07.937,2.88
07.953,-4.97
07.968,-11.6
07.984,-15.39
08.000,-15.69
08.015,-13.24
08.031,-9.83
08.046,-7.28
08.062,-6.72
08.078,-8.16
08.093,-10.63
08.109,-13.0
08.125,-14.71
08.140,-16.03
08.156,-17.48
08.171,-19.6
08.187,-22.05
08.203,-23.9
08.218,-24.25
08.234,-22.87
08.250,-20.66
08.265,-19.16
08.281,-19.92
08.296,-23.45
08.312,-29.16
08.328,-35.5
08.343,-41.01
08.359,-44.96
08.375,-47.58
08.390,-49.76
08.406,-52.1
08.421,-54.49
08.437,-55.96
08.453,-55.2
08.468,-51.16
08.484,-43.67
08.500,-33.27
08.515,-20.8
08.531,-6.89
08.546,8.2
08.562,24.17
08.578,40.13
08.593,54.25
08.609,64.09
08.625,67.38
08.640,63.25
08.656,52.84
08.671,39.04
08.687,25.46
08.703,15.16
08.718,9.64
08.734,8.75
08.750,11.15
08.765,15.28
08.781,19.76
08.796,23.51
08.812,25.64
08.828,25.52
08.843,23.0
08.859,18.66
08.875,13.79
08.890,9.66
08.906,6.95
08.921,5.4
08.937,4.03
08.953,2.05
08.968,-0.49
08.984,-2.68
09.000,-3.34
09.015,-2.01
09.031,0.46
09.046,2.4
09.062,2.27
09.078,-0.29
09.093,-4.07
09.109,-7.0
09.125,-7.47
09.140,-5.15
09.156,-1.19
09.171,2.57
09.187,4.91
09.203,5.61
09.218,5.21
09.234,4.24
09.250,2.42
09.265,-1.24
09.281,-7.64
09.296,-16.54
09.312,-26.11
09.328,-33.37
09.343,-35.61
09.359,-31.81
09.375,-23.17
09.390,-12.59
09.406,-3.2
09.421,3.09
09.437,6.03
09.453,6.77
09.468,6.67
09.484,6.38
09.500,5.63
09.515,3.77
09.531,0.46
09.546,-3.64
09.562,-7.1
09.578,-8.61
09.593,-7.54
09.609,-4.49
09.625,-0.97
09.640,1.29
09.656,1.23
09.671,-1.41
09.687,-5.9
09.703,-11.06
09.718,-15.62
09.734,-18.55
09.750,-19.34
09.765,-17.92
09.781,-14.48
09.796,-9.45
09.812,-3.39
09.828,2.98
09.843,8.7
09.859,12.76
09.875,14.39
09.890,13.37
09.906,10.24
09.921,6.23
09.937,2.36
09.953,-0.86
09.968,-3.9
09.984,-7.8
10.000,-13.48
10.015,-20.94
10.031,-29.16
10.046,-36.41
10.062,-40.75
10.078,-41.17
10.093,-37.87
10.109,-32.26
10.125,-26.23
10.140,-21.37
10.156,-18.16
10.171,-15.96
10.187,-13.58
10.203,-9.93
10.218,-4.71
10.234,1.6
10.250,8.18
10.265,14.5
10.281,20.49
10.296,26.32
10.312,32.1
10.328,37.4
10.343,41.44
10.359,43.27
10.375,42.43
10.390,39.15
10.406,34.08
10.421,28.25
10.437,22.75
10.453,18.58
10.468,16.4
10.484,16.52
10.500,18.46
10.515,21.27
10.531,23.71
10.546,24.64
10.562,23.63
10.578,21.02
10.593,17.75
10.609,14.75
10.625,12.78
10.640,11.93
10.656,11.89
10.671,12.12
10.687,12.15
10.703,11.71
10.718,10.74
10.734,9.47
10.750,8.05
10.765,6.93
10.781,6.35
10.796,6.54
10.812,7.67
10.828,9.51
10.843,11.7
10.859,13.5
10.875,14.26
10.890,13.67
10.906,11.78
10.921,9.1
10.937,6.53
10.953,4.9
10.968,4.43
10.984,4.74
11.000,4.69
11.015,3.1
11.031,-0.84
11.046,-7.34
11.062,-15.85
11.078,-25.33
11.093,-34.41
11.109,-42.1
11.125,-47.57
11.140,-50.6
11.156,-51.14
11.171,-49.45
11.187,-45.88
11.203,-40.81
11.218,-34.81
11.234,-28.37
11.250,-22.19
11.265,-16.71
11.281,-12.21
11.296,-8.58
11.312,-5.31
11.328,-1.75
11.343,2.59
11.359,7.39
11.375,11.87
11.390,14.84
11.406,15.58
11.421,14.12
11.437,11.36
11.453,8.72
11.468,7.4
11.484,8.05
11.500,10.42
11.515,13.86
11.531,17.43
11.546,20.35
11.562,22.02
11.578,21.98
11.593,20.11
11.609,16.74
11.625,12.93
11.640,10.26
11.656,10.42
11.671,14.2
11.687,21.08
11.703,29.18
11.718,35.92
11.734,39.21
11.750,38.34
11.765,34.07
11.781,28.28
11.796,22.87
11.812,18.95
11.828,16.62
11.843,15.25
11.859,13.84
11.875,11.82
11.890,8.98
11.906,5.15
11.921,0.16
11.937,-6.16
11.953,-13.68
11.968,-21.67
11.984,-28.86
12.000,-33.98
12.015,-36.22
12.031,-35.59
12.046,-33.14
12.062,-30.19
12.078,-27.68
12.093,-25.76
12.109,-23.8
12.125,-20.94
12.140,-16.75
12.156,-11.53
12.171,-5.94
12.187,-0.64
12.203,4.21
12.218,8.82
12.234,13.48
12.250,17.97
12.265,21.56
12.281,23.4
12.296,23.06
12.312,21.0
12.328,18.26
12.343,15.97
12.359,14.41
12.375,12.96
12.390,10.54
12.406,6.47
12.421,1.22
12.437,-3.81
12.453,-6.93
12.468,-7.17
12.484,-4.86
12.500,-1.34
12.515,1.8
12.531,3.73
12.546,4.51
12.562,4.84
12.578,5.14
12.593,5.36
12.609,4.88
12.625,3.17
12.640,0.46
12.656,-2.45
12.671,-4.41
12.687,-4.73
12.703,-3.59
12.718,-1.91
12.734,-0.67
12.750,-0.42
12.765,-0.9
12.781,-1.35
12.796,-1.09
12.812,-0.01
12.828,1.39
12.843,2.33
12.859,2.35
12.875,1.62
12.890,0.75
12.906,0.38
12.921,0.82
12.937,1.63
12.953,2.17
12.968,1.71
12.984,-0.04
13.000,-2.86
13.015,-6.15
13.031,-9.07
13.046,-10.81
13.062,-10.65
13.078,-8.26
13.093,-3.59
13.109,2.7
13.125,9.39
13.140,15.02
13.156,18.27
13.171,18.48
13.187,15.99
13.203,11.79
13.218,7.19
13.234,3.44
13.250,1.15
13.265,0.31
13.281,0.55
13.296,1.19
13.312,1.46
13.328,0.73
13.343,-1.46
13.359,-5.01
13.375,-9.41
13.390,-13.93
13.406,-17.76
13.421,-20.23
13.437,-20.94
13.453,-19.64
13.468,-16.35
13.484,-11.45
13.500,-5.62
13.515,0.03
13.531,4.29
13.546,6.32
13.562,6.12
13.578,4.43
13.593,2.74
13.609,2.34
13.625,3.67
13.640,6.14
13.656,8.44
13.671,9.13
13.687,7.44
13.703,3.76
13.718,-0.82
13.734,-4.77
13.750,-6.86
13.765,-6.67
13.781,-4.59
13.796,-1.48
13.812,1.61
13.828,3.82
13.843,4.45
13.859,3.17
13.875,-0.01
13.890,-4.64
13.906,-10.05
13.921,-15.54
13.937,-20.67
13.953,-25.32
13.968,-29.52
13.984,-33.29
14.000,-36.45
14.015,-38.32
14.031,-38.1
14.046,-35.17
14.062,-29.46
14.078,-21.65
14.093,-12.91
14.109,-4.62
14.125,2.14
14.140,6.83
14.156,9.68
14.171,11.32
14.187,12.54
14.203,13.86
14.218,15.34
14.234,16.64
14.250,17.15
14.265,16.4
14.281,14.36
14.296,11.53
14.312,8.66
14.328,6.49
14.343,5.44
14.359,5.27
14.375,5.28
14.390,4.54
14.406,2.61
14.421,-0.34
14.437,-3.47
14.453,-5.68
14.468,-6.18
14.484,-4.65
14.500,-1.57
14.515,2.4
14.531,6.48
14.546,10.23
14.562,13.27
14.578,15.19
14.593,15.59
14.609,14.14
14.625,11.02
14.640,6.81
14.656,2.54
14.671,-0.72
14.687,-2.4
14.703,-2.46
14.718,-1.49
14.734,-0.24
14.750,0.59
14.765,0.57
14.781,-0.58
14.796,-2.73
14.812,-5.49
14.828,-8.25
14.843,-10.37
14.859,-11.41
14.875,-11.37
14.890,-10.74
14.906,-10.27
14.921,-10.39
14.937,-10.79
14.953,-10.64
14.968,-8.99
14.984,-5.35
15.000,-0.13
15.015,5.63
15.031,10.8
15.046,14.62
15.062,17.02
15.078,18.55
15.093,19.79
15.109,20.99
15.125,22.06
15.140,22.48
15.156,21.69
15.171,19.54
15.187,16.19
15.203,12.2
15.218,8.36
15.234,5.46
15.250,4.01
15.265,4.26
15.281,6.02
15.296,8.66
15.312,11.42
15.328,13.46
15.343,14.03
15.359,12.65
15.375,9.23
15.390,4.15
15.406,-1.85
15.421,-7.92
15.437,-13.24
15.453,-17.37
15.468,-20.22
15.484,-21.89
15.500,-22.52
15.515,-22.34
15.531,-21.52
15.546,-20.33
15.562,-19.11
15.578,-18.24
15.593,-17.83
15.609,-17.85
15.625,-17.9
15.640,-17.52
15.656,-16.49
15.671,-14.77
15.687,-12.54
15.703,-10.09
15.718,-7.72
15.734,-5.71
15.750,-4.56
15.765,-4.85
15.781,-7.02
15.796,-10.85
15.812,-15.06
15.828,-17.52
15.843,-15.77
15.859,-8.45
15.875,3.95
15.890,18.79
15.906,32.27
15.921,40.89
15.937,43.12
15.953,39.71
15.968,32.97
15.984,25.59
16.000,19.29
16.015,14.48
16.031,10.64
16.046,7.1
16.062,3.55
16.078,-0.16
16.093,-4.12
16.109,-8.69
16.125,-14.02
16.140,-19.71
16.156,-24.62
16.171,-27.18
16.187,-26.14
16.203,-21.44
16.218,-14.27
16.234,-6.46
16.250,0.44
16.265,5.86
16.281,10.07
16.296,13.63
16.312,16.59
16.328,18.29
16.343,17.63
16.359,14.1
16.375,8.3
16.390,1.93
16.406,-3.1
16.421,-5.55
16.437,-5.54
16.453,-4.25
16.468,-3.17
16.484,-3.42
16.500,-5.06
16.515,-7.4
16.531,-9.54
16.546,-10.95
16.562,-11.46
16.578,-11.2
16.593,-10.42
16.609,-9.46
16.625,-8.65
16.640,-8.38
16.656,-8.91
16.671,-10.17
16.687,-11.73
16.703,-12.92
16.718,-13.0
16.734,-11.72
16.750,-9.17
16.765,-5.68
16.781,-1.64
16.796,2.69
16.812,7.28
16.828,12.22
16.843,17.47
16.859,22.82
16.875,27.81
16.890,31.83
16.906,34.37
16.921,35.02
16.937,33.85
16.953,31.35
16.968,28.35
16.984,25.53
17.000,23.07
17.015,20.38
17.031,16.76
17.046,11.92
17.062,6.44
17.078,1.67
17.093,-0.94
17.109,-0.94
17.125,0.86
17.140,2.69
17.156,2.92
17.171,1.18
17.187,-1.37
17.203,-2.79
17.218,-1.45
17.234,2.97
17.250,9.22
17.265,15.31
17.281,19.37
17.296,20.49
17.312,18.86
17.328,15.33
17.343,10.88
17.359,6.12
17.375,1.13
17.390,-4.37
17.406,-10.57
17.421,-17.41
17.437,-24.38
17.453,-30.61
17.468,-35.14
17.484,-37.27
17.500,-36.64
17.515,-33.58
17.531,-28.88
17.546,-23.43
17.562,-18.01
17.578,-13.12
17.593,-9.1
17.609,-6.28
17.625,-5.12
17.640,-5.81
17.656,-8.02
17.671,-10.87
17.687,-12.93
17.703,-13.0
17.718,-10.54
17.734,-5.84
17.750,0.12
17.765,6.24
17.781,11.52
17.796,15.11
17.812,16.28
17.828,14.41
17.843,9.45
17.859,2.42
17.875,-4.67
17.890,-9.61
17.906,-10.96
17.921,-8.83
17.937,-4.79
17.953,-0.78
17.968,2.01
17.984,3.73
18.000,5.54
18.015,8.71
18.031,13.41
18.046,18.73
18.062,23.0
18.078,24.85
18.093,23.87
18.109,20.75
18.125,16.62
18.140,12.53
18.156,9.15
18.171,6.53
18.187,4.63
18.203,3.26
18.218,2.27
18.234,1.31
18.250,-0.16
18.265,-2.9
18.281,-7.48
18.296,-13.7
18.312,-20.61
18.328,-26.5
18.343,-29.58
18.359,-28.31
18.375,-22.14
18.390,-11.63
18.406,1.63
18.421,15.11
18.437,26.13
18.453,32.38
18.468,32.9
18.484,28.19
18.500,20.24
18.515,11.66
18.531,4.57
18.546,0.17
18.562,-1.37
18.578,-0.4
18.593,2.74
18.609,7.99
18.625,15.02
18.640,23.02
18.656,30.63
18.671,36.47
18.687,40.05
18.703,42.18
18.718,44.69
18.734,49.51
18.750,57.69
18.765,68.66
18.781,80.79
18.796,92.29
18.812,102.13
18.828,110.5
18.843,118.36
18.859,126.81
18.875,136.34
18.890,146.73
18.906,157.35
18.921,167.57
18.937,177.08
18.953,185.67
18.968,193.24
18.984,199.43
19.000,203.83
19.015,206.01
19.031,205.83
19.046,202.98
19.062,196.65
19.078,185.33
19.093,166.9
19.109,139.53
19.125,102.61
19.140,57.34
19.156,6.62
19.171,-45.56
19.187,-95.49
19.203,-140.37
19.218,-178.94
19.234,-211.09
19.250,-237.51
19.265,-259.26
19.281,-277.73
19.296,-294.7
19.312,-311.53
19.328,-328.58
19.343,-344.39
19.359,-355.9
19.375,-359.58
19.390,-352.89
19.406,-335.12
19.421,-307.53
19.437,-272.14
19.453,-230.36
19.468,-182.83
19.484,-129.61
19.500,-71.55
19.515,-10.96
19.531,48.83
19.546,104.91
19.562,155.8
19.578,201.54
19.593,242.1
19.609,275.01
19.625,294.61
19.640,293.27
19.656,264.62
19.671,207.1
19.687,125.65
19.703,30.89
19.718,-64.2
19.734,-148.05
19.750,-214.04
19.765,-261.15
19.781,-292.61
19.796,-313.98
19.812,-330.63
19.828,-347.06
19.843,-366.3
19.859,-389.37
19.875,-414.4
19.890,-436.45
19.906,-447.86
19.921,-440.64
19.937,-409.45
19.953,-353.79
19.968,-278.73
19.984,-192.96
20.000,-105.91
20.015,-24.66
20.031,47.16
20.046,109.15
20.062,162.42
20.078,208.02
20.093,246.4
20.109,277.92
20.125,303.75
20.140,326.04
20.156,347.4
20.171,369.4
20.187,391.82
20.203,412.04
20.218,425.39
20.234,426.79
20.250,412.28
20.265,380.34
20.281,332.53
20.296,273.17
20.312,208.6
20.328,146.09
20.343,92.54
20.359,53.56
20.375,32.52
20.390,29.88
20.406,42.9
20.421,65.69
20.437,89.85
20.453,105.68
20.468,103.77
20.484,77.3
20.500,24.07
20.515,-52.12
20.531,-141.9
20.546,-232.78
20.562,-312.05
20.578,-370.03
20.593,-402.14
20.609,-409.04
20.625,-395.19
20.640,-367.31
20.656,-332.84
20.671,-298.88
20.687,-271.06
20.703,-252.1
20.718,-240.7
20.734,-231.74
20.750,-218.16
20.765,-194.17
20.781,-157.75
20.796,-111.69
20.812,-62.15
20.828,-15.51
20.843,24.34
20.859,57.19
20.875,85.56
20.890,112.16
20.906,137.9
20.921,161.41
20.937,180.1
20.953,192.0
20.968,197.04
20.984,196.67
21.000,192.74
21.015,186.24
21.031,176.95
21.046,163.84
21.062,146.43
21.078,125.71
21.093,104.32
21.109,85.56
21.125,72.18
21.140,65.31
21.156,64.27
21.171,66.76
21.187,70.05
21.203,71.78
21.218,70.5
21.234,66.04
21.250,59.3
21.265,51.61
21.281,44.21
21.296,37.85
21.312,32.44
21.328,27.58
21.343,22.83
21.359,17.85
21.375,12.77
21.390,8.02
21.406,4.28
21.421,2.18
21.437,2.13
21.453,3.95
21.468,6.81
21.484,9.43
21.500,10.43
21.515,9.09
21.531,5.67
21.546,1.19
21.562,-3.13
21.578,-6.62
21.593,-9.53
21.609,-12.75
21.625,-17.12
21.640,-22.96
21.656,-29.58
21.671,-35.61
21.687,-39.79
21.703,-41.31
21.718,-40.17
21.734,-37.23
21.750,-33.67
21.765,-30.59
21.781,-28.71
21.796,-28.15
21.812,-28.71
21.828,-30.08
21.843,-31.91
21.859,-34.13
21.875,-36.76
21.890,-39.7
21.906,-42.66
21.921,-45.19
21.937,-46.72
21.953,-46.96
21.968,-45.9
21.984,-43.3
22.000,-38.51
22.015,-30.51
22.031,-18.38
22.046,-2.23
22.062,16.12
22.078,33.62
22.093,46.91
22.109,53.72
22.125,53.92
22.140,49.17
22.156,41.8
22.171,33.81
22.187,26.17
22.203,19.09
22.218,12.91
22.234,8.32
22.250,6.11
22.265,6.57
22.281,8.84
22.296,11.06
22.312,11.39
22.328,8.76
22.343,3.45
22.359,-3.38
22.375,-10.38
22.390,-16.67
22.406,-21.84
22.421,-25.85
22.437,-28.6
22.453,-29.92
22.468,-29.78
22.484,-28.48
22.500,-26.51
22.515,-24.37
22.531,-22.3
22.546,-20.22
22.562,-18.0
22.578,-15.73
22.593,-13.85
22.609,-13.03
22.625,-13.55
22.640,-14.89
22.656,-15.9
22.671,-15.18
22.687,-12.14
22.703,-7.44
22.718,-2.78
22.734,-0.28
22.750,-1.38
22.765,-6.14
22.781,-13.28
22.796,-20.96
22.812,-27.58
22.828,-32.45
22.843,-35.66
22.859,-37.48
22.875,-37.98
22.890,-36.63
22.906,-32.95
22.921,-26.68
22.937,-18.26
22.953,-8.65
22.968,1.15
22.984,10.31
23.000,18.43
23.015,25.23
23.031,30.58
23.046,34.11
23.062,35.75
23.078,35.66
23.093,34.37
23.109,32.68
23.125,30.94
23.140,29.21
23.156,27.02
23.171,24.19
23.187,20.8
23.203,17.68
23.218,15.91
23.234,16.05
23.250,17.86
23.265,20.15
23.281,21.42
23.296,20.76
23.312,18.33
23.328,15.25
23.343,12.9
23.359,12.23
23.375,12.91
23.390,13.8
23.406,13.18
23.421,9.96
23.437,4.09
23.453,-3.33
23.468,-10.55
23.484,-16.06
23.500,-19.18
23.515,-20.61
23.531,-21.61
23.546,-23.53
23.562,-26.73
23.578,-30.46
23.593,-33.28
23.609,-33.73
23.625,-31.32
23.640,-26.53
23.656,-20.51
23.671,-14.15
23.687,-7.61
23.703,-0.52
23.718,7.76
23.734,17.23
23.750,27.2
23.765,36.37
23.781,43.27
23.796,47.02
23.812,47.45
23.828,45.07
23.843,40.85
23.859,35.94
23.875,31.2
23.890,27.32
23.906,24.6
23.921,23.12
23.937,22.83
23.953,23.62
23.968,25.12
23.984,26.88
24.000,28.46
24.015,29.51
24.031,30.25
24.046,31.36
24.062,33.63
24.078,37.29
24.093,41.55
24.109,44.47
24.125,43.55
24.140,37.05
24.156,24.85
24.171,8.8
24.187,-7.7
24.203,-21.2
24.218,-29.34
24.234,-31.66
24.250,-29.55
24.265,-25.41
24.281,-21.55
24.296,-19.29
24.312,-18.94
24.328,-20.02
24.343,-22.04
24.359,-24.64
24.375,-27.84
24.390,-31.75
24.406,-36.29
24.421,-40.73
24.437,-43.85
24.453,-44.44
24.468,-41.62
24.484,-35.65
24.500,-27.97
24.515,-20.92
24.531,-16.86
24.546,-16.92
24.562,-20.1
24.578,-23.73
24.593,-24.51
24.609,-20.05
24.625,-10.38
24.640,2.03
24.656,13.5
24.671,20.83
24.687,22.82
24.703,20.58
24.718,16.39
24.734,12.41
24.750,9.99
24.765,9.39
24.781,10.26
24.796,12.35
24.812,15.43
24.828,18.99
24.843,22.1
24.859,23.5
24.875,22.23
24.890,18.2
24.906,12.29
24.921,5.7
24.937,-0.31
24.953,-5.29
24.968,-9.32
24.984,-12.46
25.000,-14.45
25.015,-14.66
25.031,-12.7
25.046,-8.85
25.062,-4.41
25.078,-1.01
25.093,-0.22
25.109,-2.72
25.125,-7.84
25.140,-14.25
25.156,-20.26
25.171,-24.69
25.187,-27.11
25.203,-27.69
25.218,-26.78
25.234,-24.86
25.250,-22.3
25.265,-19.52
25.281,-17.26
25.296,-16.07
25.312,-16.01
25.328,-16.25
25.343,-15.11
25.359,-10.78
25.375,-2.29
25.390,9.67
25.406,23.18
25.421,35.43
25.437,44.25
25.453,48.71
25.468,49.14
25.484,46.69
25.500,42.59
25.515,37.97
25.531,33.69
25.546,30.71
25.562,29.7
25.578,30.77
25.593,33.08
25.609,34.89
25.625,34.6
25.640,31.63
25.656,26.87
25.671,22.27
25.687,19.91
25.703,20.63
25.718,23.75
25.734,27.62
25.750,30.58
25.765,31.86
25.781,31.84
25.796,31.51
25.812,31.82
25.828,33.2
25.843,35.59
25.859,38.59
25.875,41.93
25.890,45.56
25.906,49.55
25.921,54.02
25.937,59.14
25.953,65.07
25.968,71.74
25.984,79.06
26.000,86.59
26.015,94.09
26.031,101.43
26.046,108.74
26.062,116.31
26.078,124.14
26.093,131.75
26.109,137.98
26.125,141.45
26.140,141.04
26.156,136.6
26.171,129.1
26.187,120.1
26.203,110.73
26.218,100.42
26.234,86.82
26.250,66.44
26.265,36.28
26.281,-4.47
26.296,-53.71
26.312,-106.48
26.328,-156.55
26.343,-198.22
26.359,-227.49
26.375,-242.18
26.390,-241.42
26.406,-225.82
26.421,-197.84
26.437,-162.62
26.453,-127.38
26.468,-99.61
26.484,-83.94
26.500,-80.47
26.515,-84.42
26.531,-88.61
26.546,-86.87
26.562,-77.0
26.578,-61.5
26.593,-45.99
26.609,-36.55
26.625,-36.72
26.640,-46.44
26.656,-62.06
26.671,-77.67
26.687,-87.06
26.703,-85.86
26.718,-72.94
26.734,-50.86
26.750,-25.2
26.765,-2.22
26.781,13.1
26.796,18.33
26.812,13.79
26.828,1.93
26.843,-13.59
26.859,-28.26
26.875,-37.25
26.890,-36.06
26.906,-21.85
26.921,5.2
26.937,41.16
26.953,79.19
26.968,111.4
26.984,131.59
27.000,137.27
27.015,130.0
27.031,114.6
27.046,97.2
27.062,83.13
27.078,75.35
27.093,74.21
27.109,78.03
27.125,84.48
27.140,91.57
27.156,98.25
27.171,104.44
27.187,110.63
27.203,117.21
27.218,124.26
27.234,131.45
27.250,137.86
27.265,141.93
27.281,141.51
27.296,134.25
27.312,118.63
27.328,94.89
27.343,65.75
27.359,36.2
27.375,12.38
27.390,-0.41
27.406,0.35
27.421,13.2
27.437,32.99
27.453,53.06
27.468,67.47
27.484,72.78
27.500,68.21
27.515,54.3
27.531,31.54
27.546,-0.14
27.562,-40.51
27.578,-87.82
27.593,-137.54
27.609,-183.18
27.625,-218.28
27.640,-239.08
27.656,-246.15
27.671,-244.33
27.687,-240.71
27.703,-241.84
27.718,-250.95
27.734,-266.64
27.750,-283.24
27.765,-293.08
27.781,-289.23
27.796,-268.32
27.812,-231.54
27.828,-183.87
27.843,-131.82
27.859,-80.76
27.875,-33.1
27.890,11.77
27.906,55.98
27.921,101.02
27.937,145.9
27.953,186.63
27.968,217.07
27.984,230.91
28.000,223.92
28.015,195.32
28.031,148.16
28.046,88.83
28.062,25.88
28.078,-31.73
28.093,-75.85
28.109,-100.43
28.125,-102.71
28.140,-83.71
28.156,-47.97
28.171,-2.59
28.187,44.38
28.203,85.93
28.218,117.49
28.234,137.55
28.250,147.31
28.265,149.43
28.281,146.92
28.296,142.16
28.312,136.96
28.328,132.62
28.343,130.51
28.359,131.74
28.375,136.56
28.390,143.35
28.406,148.38
28.421,146.25
28.437,132.08
28.453,104.18
28.468,65.32
28.484,22.25
28.500,-17.08
28.515,-46.94
28.531,-66.05
28.546,-77.26
28.562,-85.16
28.578,-93.15
28.593,-101.54
28.609,-108.0
28.625,-109.24
28.640,-103.51
28.656,-91.28
28.671,-74.97
28.687,-57.7
28.703,-41.85
28.718,-28.93
28.734,-19.51
28.750,-13.38
28.765,-8.88
28.781,-2.88
28.796,8.54
28.812,28.18
28.828,55.43
28.843,85.39
28.859,110.16
28.875,121.98
28.890,116.45
28.906,94.31
28.921,60.08
28.937,19.29
28.953,-23.68
28.968,-66.33
28.984,-106.28
29.000,-139.46
29.015,-160.01
29.031,-162.51
29.046,-145.14
29.062,-111.88
29.078,-71.45
29.093,-34.25
29.109,-8.24
29.125,3.06
29.140,0.23
29.156,-14.05
29.171,-37.51
29.187,-69.02
29.203,-107.85
29.218,-151.98
29.234,-197.05
29.250,-236.99
29.265,-265.88
29.281,-280.54
29.296,-281.99
29.312,-275.22
29.328,-267.26
29.343,-264.1
29.359,-267.97
29.375,-275.66
29.390,-279.81
29.406,-272.47
29.421,-249.32
29.437,-212.51
29.453,-170.12
29.468,-132.73
29.484,-108.51
29.500,-99.46
29.515,-100.97
29.531,-104.8
29.546,-103.22
29.562,-93.26
29.578,-77.26
29.593,-60.93
29.609,-49.26
29.625,-43.17
29.640,-38.65
29.656,-29.01
29.671,-9.35
29.687,20.46
29.703,54.72
29.718,84.78
29.734,103.45
29.750,108.44
29.765,103.45
29.781,95.66
29.796,91.63
29.812,94.25
29.828,102.04
29.843,110.98
29.859,117.42
29.875,120.01
29.890,119.98
29.906,119.42
29.921,119.97
29.937,121.38
29.953,122.15
29.968,120.66
29.984,116.27
30.000,109.95
30.015,103.69
30.031,99.22
30.046,97.09
30.062,96.56
30.078,96.2
30.093,95.03
30.109,93.36
30.125,92.46
30.140,93.29
30.156,95.05
30.171,95.0
30.187,89.89
30.203,78.1
30.218,60.96
30.234,42.34
30.250,26.72
30.265,16.77
30.281,12.29
30.296,10.95
30.312,10.37
30.328,9.71
30.343,10.04
30.359,12.89
30.375,18.6
30.390,25.62
30.406,31.0
30.421,32.32
30.437,28.8
30.453,21.58
30.468,12.72
30.484,4.22
30.500,-2.52
30.515,-6.64
30.531,-7.63
30.546,-5.77
30.562,-2.25
30.578,1.14
30.593,2.6
30.609,1.45
30.625,-1.07
30.640,-2.31
30.656,0.41
30.671,8.28
30.687,19.99
30.703,32.64
30.718,42.9
30.734,48.73
30.750,49.87
30.765,47.69
30.781,44.17
30.796,41.08
30.812,39.57
30.828,40.0
30.843,42.38
30.859,46.14
30.875,50.2
30.890,53.06
30.906,53.47
30.921,50.47
30.937,44.13
30.953,35.44
30.968,25.49
30.984,14.9
31.000,3.73
31.015,-8.18
31.031,-19.99
31.046,-29.29
31.062,-33.08
31.078,-29.25
31.093,-18.22
31.109,-3.63
31.125,9.32
31.140,16.04
31.156,14.6
31.171,6.23
31.187,-6.04
31.203,-18.85
31.218,-29.63
31.234,-36.42
31.250,-37.08
31.265,-29.23
31.281,-11.39
31.296,14.96
31.312,44.7
31.328,69.98
31.343,83.53
31.359,81.4
31.375,64.7
31.390,38.7
31.406,10.53
31.421,-13.55
31.437,-30.35
31.453,-39.88
31.468,-44.5
31.484,-47.14
31.500,-49.34
31.515,-50.56
31.531,-48.66
31.546,-41.48
31.562,-28.74
31.578,-12.85
31.593,1.83
31.609,10.95
31.625,12.5
31.640,7.81
31.656,0.56
31.671,-5.09
31.687,-7.1
31.703,-6.29
31.718,-5.29
31.734,-6.53
31.750,-10.62
31.765,-16.27
31.781,-21.33
31.796,-24.89
31.812,-27.76
31.828,-32.39
31.843,-40.82
31.859,-53.06
31.875,-66.56
31.890,-77.14
31.906,-81.47
31.921,-78.48
31.937,-70.33
31.953,-60.89
31.968,-53.79
31.984,-50.4
32.000,-49.34
32.015,-48.06
32.031,-44.29
32.046,-37.81
32.062,-30.1
32.078,-23.54
32.093,-19.58
32.109,-18.67
32.125,-20.05
32.140,-22.46
32.156,-25.3
32.171,-28.28
32.187,-31.07
32.203,-32.52
32.218,-30.63
32.234,-23.29
32.250,-10.24
32.265,5.29
32.281,16.65
32.296,15.19
32.312,-5.38
32.328,-45.3
32.343,-96.79
32.359,-145.89
32.375,-177.32
32.390,-180.52
32.406,-153.83
32.421,-104.58
32.437,-45.99
32.453,8.89
32.468,51.68
32.484,80.65
32.500,99.58
32.515,113.78
32.531,127.24
32.546,141.31
32.562,155.67
32.578,169.85
32.593,184.94
32.609,202.61
32.625,223.1
32.640,244.2
32.656,260.77
32.671,266.95
32.687,259.42
32.703,239.33
32.718,212.35
32.734,186.62
32.750,168.92
32.765,161.93
32.781,163.92
32.796,170.26
32.812,176.13
32.828,178.76
32.843,177.77
32.859,174.41
32.875,170.51
32.890,167.36
32.906,165.26
32.921,163.94
32.937,162.31
32.953,158.5
32.968,149.83
32.984,133.01
33.000,105.92
33.015,69.41
33.031,27.97
33.046,-11.47
33.062,-42.48
33.078,-63.06
33.093,-76.88
33.109,-91.61
33.125,-115.44
33.140,-152.7
33.156,-201.64
33.171,-255.83
33.187,-307.16
33.203,-349.18
33.218,-379.29
33.234,-398.2
33.250,-408.24
33.265,-411.84
33.281,-411.28
33.296,-408.78
33.312,-406.97
33.328,-407.77
33.343,-410.87
33.359,-412.78
33.375,-407.36
33.390,-388.03
33.406,-350.79
33.421,-296.43
33.437,-230.47
33.453,-161.36
33.468,-97.11
33.484,-42.54
33.500,1.73
33.515,38.41
33.531,71.7
33.546,104.93
33.562,139.17
33.578,172.68
33.593,201.44
33.609,220.92
33.625,228.12
33.640,223.07
33.656,209.16
33.671,192.05
33.687,177.81
33.703,170.9
33.718,173.2
33.734,183.84
33.750,199.83
33.765,217.04
33.781,230.62
33.796,235.76
33.812,228.65
33.828,208.03
33.843,176.48
33.859,140.54
33.875,109.21
33.890,91.25
33.906,92.24
33.921,112.35
33.937,146.45
33.953,185.68
33.968,220.61
33.984,243.91
34.000,252.43
34.015,246.91
34.031,230.6
34.046,207.45
34.062,180.55
34.078,152.34
34.093,124.73
34.109,99.62
34.125,78.1
34.140,59.57
34.156,40.96
34.171,17.1
34.187,-17.26
34.203,-65.05
34.218,-124.88
34.234,-191.49
34.250,-257.51
34.265,-316.28
34.281,-363.94
34.296,-399.88
34.312,-425.96
34.328,-445.09
34.343,-460.33
34.359,-474.42
34.375,-489.74
34.390,-507.37
34.406,-525.83
34.421,-540.44
34.437,-544.03
34.453,-529.46
34.468,-492.58
34.484,-434.67
34.500,-362.31
34.515,-285.19
34.531,-212.61
34.546,-150.4
34.562,-100.14
34.578,-60.0
34.593,-27.01
34.609,1.63
34.625,27.76
34.640,52.75
34.656,77.63
34.671,103.02
34.687,128.46
34.703,152.23
34.718,172.17
34.734,186.6
34.750,195.73
34.765,201.54
34.781,206.98
34.796,214.42
34.812,224.7
34.828,236.81
34.843,248.37
34.859,256.86
34.875,260.15
34.890,256.9
34.906,246.5
34.921,229.28
34.937,206.64
34.953,181.06
34.968,155.66
34.984,133.15
35.000,115.17
35.015,101.82
35.031,91.8
35.046,83.5
35.062,75.69
35.078,67.96
35.093,60.46
35.109,53.49
35.125,46.89
35.140,40.29
35.156,33.41
35.171,26.3
35.187,19.33
35.203,12.79
35.218,6.48
35.234,-0.61
35.250,-9.33
35.265,-19.88
35.281,-31.14
35.296,-41.01
35.312,-47.31
35.328,-48.85
35.343,-46.02
35.359,-40.49
35.375,-34.42
35.390,-29.58
35.406,-27.02
35.421,-27.12
35.437,-29.64
35.453,-33.79
35.468,-38.18
35.484,-40.76
35.500,-39.52
35.515,-33.09
35.531,-21.68
35.546,-6.97
35.562,8.31
35.578,21.69
35.593,31.7
35.609,38.02
35.625,41.13
35.640,41.72
35.656,40.35
35.671,37.37
35.687,33.2
35.703,28.39
35.718,23.57
35.734,19.15
35.750,15.24
35.765,11.35
35.781,6.86
35.796,1.29
35.812,-5.27
35.828,-12.18
35.843,-18.18
35.859,-22.01
35.875,-22.85
35.890,-20.77
35.906,-16.85
35.921,-12.63
35.937,-9.65
35.953,-8.48
35.968,-8.66
35.984,-8.87
36.000,-7.72
36.015,-4.51
36.031,0.62
36.046,6.79
36.062,13.26
36.078,19.66
36.093,26.12
36.109,32.88
36.125,39.52
36.140,44.85
36.156,47.49
36.171,46.64
36.187,42.51
36.203,36.37
36.218,29.7
36.234,23.38
36.250,17.49
36.265,11.39
36.281,4.67
36.296,-2.33
36.312,-8.28
36.328,-11.86
36.343,-12.42
36.359,-10.65
36.375,-8.14
36.390,-6.54
36.406,-6.81
36.421,-8.36
36.437,-9.62
36.453,-8.76
36.468,-4.82
36.484,1.77
36.500,9.52
36.515,16.71
36.531,22.38
36.546,26.39
36.562,29.36
36.578,31.84
36.593,33.84
36.609,34.98
36.625,34.88
36.640,33.49
36.656,31.12
36.671,28.25
36.687,25.0
36.703,21.2
36.718,16.7
36.734,11.93
36.750,7.79
36.765,5.34
36.781,4.93
36.796,5.82
36.812,6.43
36.828,5.27
36.843,2.0
36.859,-2.26
36.875,-5.29
36.890,-4.94
36.906,-0.44
36.921,7.37
36.937,16.3
36.953,23.93
36.968,28.56
36.984,29.87
37.000,28.57
37.015,25.66
37.031,21.74
37.046,16.75
37.062,10.34
37.078,2.63
37.093,-5.33
37.109,-11.8
37.125,-14.95
37.140,-14.05
37.156,-10.09
37.171,-5.34
37.187,-2.21
37.203,-2.09
37.218,-4.7
37.234,-8.18
37.250,-10.32
37.265,-9.4
37.281,-4.96
37.296,2.25
37.312,10.98
37.328,19.88
37.343,28.0
37.359,34.65
37.375,39.56
37.390,42.57
37.406,43.85
37.421,44.02
37.437,43.89
37.453,44.35
37.468,45.64
37.484,47.02
37.500,46.72
37.515,42.55
37.531,32.75
37.546,17.18
37.562,-2.36
37.578,-22.61
37.593,-39.9
37.609,-51.53
37.625,-56.44
37.640,-55.14
37.656,-48.89
37.671,-38.86
37.687,-25.66
37.703,-9.77
37.718,7.75
37.734,25.09
37.750,39.67
37.765,49.17
37.781,52.38
37.796,49.66
37.812,42.65
37.828,33.55
37.843,24.24
37.859,15.65
37.875,8.1
37.890,1.44
37.906,-4.57
37.921,-10.01
37.937,-15.2
37.953,-20.65
37.968,-27.18
37.984,-35.57
38.000,-46.34
38.015,-59.21
38.031,-73.27
38.046,-87.04
38.062,-98.74
38.078,-106.65
38.093,-109.59
38.109,-107.16
38.125,-99.78
38.140,-88.49
38.156,-74.53
38.171,-58.96
38.187,-42.62
38.203,-26.43
38.218,-11.53
38.234,0.68
38.250,8.7
38.265,11.82
38.281,10.44
38.296,5.98
38.312,0.1
38.328,-5.89
38.343,-11.76
38.359,-18.26
38.375,-26.45
38.390,-36.95
38.406,-49.13
38.421,-61.04
38.437,-69.89
38.453,-72.86
38.468,-68.14
38.484,-55.56
38.500,-36.86
38.515,-15.11
38.531,6.19
38.546,24.25
38.562,37.45
38.578,45.59
38.593,49.43
38.609,49.84
38.625,47.75
38.640,43.72
38.656,38.3
38.671,32.19
38.687,26.29
38.703,21.28
38.718,17.55
38.734,15.1
38.750,13.29
38.765,11.55
38.781,9.76
38.796,8.72
38.812,9.64
38.828,13.69
38.843,20.91
38.859,29.99
38.875,38.65
38.890,44.9
38.906,48.59
38.921,51.67
38.937,57.53
38.953,68.96
38.968,86.41
38.984,107.5
39.000,128.05
39.015,144.08
39.031,153.56
39.046,156.91
39.062,155.81
39.078,152.14
39.093,147.0
39.109,140.51
39.125,132.72
39.140,123.72
39.156,113.55
39.171,101.97
39.187,88.31
39.203,71.49
39.218,51.34
39.234,29.06
39.250,6.71
39.265,-13.45
39.281,-30.43
39.296,-44.9
39.312,-58.68
39.328,-73.4
39.343,-89.42
39.359,-105.33
39.375,-118.42
39.390,-126.14
39.406,-127.04
39.421,-121.42
39.437,-110.94
39.453,-97.71
39.468,-83.63
39.484,-70.13
39.500,-58.19
39.515,-48.59
39.531,-42.28
39.546,-39.8
39.562,-41.19
39.578,-45.73
39.593,-51.91
39.609,-57.91
39.625,-62.06
39.640,-63.39
39.656,-61.74
39.671,-57.88
39.687,-53.13
39.703,-48.91
39.718,-46.24
39.734,-45.37
39.750,-45.91
39.765,-46.89
39.781,-47.33
39.796,-46.48
39.812,-44.31
39.828,-41.09
39.843,-37.26
39.859,-33.43
39.875,-29.85
39.890,-26.74
39.906,-24.26
39.921,-22.31
39.937,-20.61
39.953,-18.61
39.968,-15.33
39.984,-10.05
40.000,-2.61
40.015,6.71
40.031,16.94
40.046,27.0
40.062,36.3
40.078,44.9
40.093,52.98
40.109,60.66
40.125,67.24
40.140,71.25
40.156,71.41
40.171,67.52
40.187,60.68
40.203,52.94
40.218,46.36
40.234,42.14
40.250,40.43
40.265,40.63
40.281,41.97
40.296,43.99
40.312,46.3
40.328,48.04
40.343,48.09
40.359,45.31
40.375,39.35
40.390,31.09
40.406,22.19
40.421,14.33
40.437,8.28
40.453,3.78
40.468,0.1
40.484,-3.17
40.500,-5.97
40.515,-8.0
40.531,-9.43
40.546,-11.29
40.562,-14.99
40.578,-21.38
40.593,-30.24
40.609,-40.13
40.625,-49.4
40.640,-57.05
40.656,-63.23
40.671,-68.76
40.687,-73.9
40.703,-77.83
40.718,-78.73
40.734,-74.88
40.750,-65.9
40.765,-53.36
40.781,-40.29
40.796,-29.74
40.812,-23.13
40.828,-19.93
40.843,-18.03
40.859,-15.29
40.875,-10.73
40.890,-4.8
40.906,1.33
40.921,6.7
40.937,11.45
40.953,16.7
40.968,23.34
40.984,31.43
41.000,39.43
41.015,45.26
41.031,47.3
41.046,45.42
41.062,41.17
41.078,36.82
41.093,34.13
41.109,33.61
41.125,34.4
41.140,34.89
41.156,33.74
41.171,30.34
41.187,24.89
41.203,18.1
41.218,11.04
41.234,4.64
41.250,-0.21
41.265,-2.96
41.281,-3.67
41.296,-2.98
41.312,-1.9
41.328,-1.42
41.343,-1.97
41.359,-3.28
41.375,-4.84
41.390,-6.19
41.406,-7.2
41.421,-8.09
41.437,-9.26
41.453,-11.04
41.468,-13.88
41.484,-17.98
41.500,-23.25
41.515,-29.27
41.531,-35.01
41.546,-39.03
41.562,-40.17
41.578,-37.76
41.593,-32.03
41.609,-23.77
41.625,-13.89
41.640,-3.16
41.656,7.59
41.671,17.48
41.687,25.5
41.703,30.65
41.718,32.79
41.734,32.62
41.750,31.35
41.765,30.02
41.781,28.93
41.796,27.71
41.812,25.78
41.828,23.14
41.843,20.5
41.859,19.11
41.875,19.67
41.890,21.83
41.906,24.23
41.921,25.28
41.937,24.03
41.953,20.82
41.968,17.0
41.984,14.09
42.000,13.22
42.015,14.45
42.031,16.92
42.046,19.52
42.062,21.28
42.078,21.89
42.093,21.6
42.109,20.91
42.125,20.13
42.140,19.41
42.156,18.51
42.171,17.0
42.187,14.57
42.203,10.85
42.218,5.67
42.234,-0.87
42.250,-8.5
42.265,-16.9
42.281,-25.52
42.296,-33.85
42.312,-41.32
42.328,-47.41
42.343,-51.7
42.359,-53.94
42.375,-54.05
42.390,-52.27
42.406,-49.03
42.421,-44.98
42.437,-40.65
42.453,-36.43
42.468,-32.2
42.484,-27.63
42.500,-22.49
42.515,-16.78
42.531,-10.91
42.546,-5.5
42.562,-0.99
42.578,2.68
42.593,5.91
42.609,9.36
42.625,13.18
42.640,16.92
42.656,19.68
42.671,20.61
42.687,19.74
42.703,17.98
42.718,16.7
42.734,16.9
42.750,18.71
42.765,21.41
42.781,24.07
42.796,26.09
42.812,27.41
42.828,28.24
42.843,28.78
42.859,28.97
42.875,28.71
42.890,27.96
42.906,26.82
42.921,25.33
42.937,23.18
42.953,19.72
42.968,14.53
42.984,7.88
43.000,0.84
43.015,-5.2
43.031,-9.32
43.046,-11.61
43.062,-13.01
43.078,-14.55
43.093,-16.62
43.109,-18.66
43.125,-19.72
43.140,-19.3
43.156,-17.86
43.171,-16.69
43.187,-17.22
43.203,-19.96
43.218,-24.35
43.234,-29.06
43.250,-32.78
43.265,-34.79
43.281,-35.23
43.296,-34.35
43.312,-32.12
43.328,-28.25
43.343,-22.26
43.359,-14.32
43.375,-5.44
43.390,2.8
43.406,8.94
43.421,12.4
43.437,13.68
43.453,13.95
43.468,14.2
43.484,14.98
43.500,16.17
43.515,17.22
43.531,17.62
43.546,16.94
43.562,14.97
43.578,11.48
43.593,6.76
43.609,1.68
43.625,-2.2
43.640,-3.23
43.656,-0.46
43.671,5.59
43.687,12.93
43.703,18.98
43.718,21.54
43.734,20.01
43.750,15.12
43.765,8.67
43.781,2.42
43.796,-2.62
43.812,-6.18
43.828,-8.68
43.843,-10.48
43.859,-11.73
43.875,-12.25
43.890,-12.06
43.906,-11.33
43.921,-10.5
43.937,-10.19
43.953,-10.63
43.968,-11.72
43.984,-12.93
44.000,-13.71
44.015,-13.71
44.031,-13.31
44.046,-13.19
44.062,-14.01
44.078,-16.03
44.093,-18.64
44.109,-20.97
44.125,-22.29
44.140,-22.36
44.156,-21.46
44.171,-20.11
44.187,-18.43
44.203,-16.17
44.218,-13.04
44.234,-8.86
44.250,-3.9
44.265,1.19
44.281,5.79
44.296,9.71
44.312,13.05
44.328,16.3
44.343,19.81
44.359,23.69
44.375,27.97
44.390,32.44
44.406,36.81
44.421,40.85
44.437,44.0
44.453,45.69
44.468,45.45
44.484,43.26
44.500,39.53
44.515,35.38
44.531,31.97
44.546,30.07
44.562,29.82
44.578,30.48
44.593,30.9
44.609,30.11
44.625,27.92
44.640,25.1
44.656,23.27
44.671,23.98
44.687,27.98
44.703,34.64
44.718,42.23
44.734,48.63
44.750,52.36
44.765,53.02
44.781,51.41
44.796,49.07
44.812,47.38
44.828,47.31
44.843,49.12
44.859,52.57
44.875,57.18
44.890,62.42
44.906,67.61
44.921,72.13
44.937,75.43
44.953,77.15
44.968,77.23
44.984,75.88
45.000,73.32
45.015,69.37
45.031,63.57
45.046,54.93
45.062,42.49
45.078,25.77
45.093,5.42
45.109,-16.61
45.125,-37.51
45.140,-54.53
45.156,-66.22
45.171,-72.75
45.187,-75.89
45.203,-78.12
45.218,-81.2
45.234,-85.25
45.250,-88.92
45.265,-90.36
45.281,-88.43
45.296,-83.46
45.312,-77.02
45.328,-70.9
45.343,-66.31
45.359,-63.28
45.375,-61.08
45.390,-58.65
45.406,-55.5
45.421,-51.77
45.437,-47.95
45.453,-44.58
45.468,-41.89
45.484,-40.1
45.500,-39.28
45.515,-39.64
45.531,-41.35
45.546,-44.63
45.562,-49.52
45.578,-55.7
45.593,-62.62
45.609,-69.14
45.625,-73.95
45.640,-75.76
45.656,-74.16
45.671,-69.87
45.687,-64.78
45.703,-61.18
45.718,-60.89
45.734,-64.5
45.750,-71.04
45.765,-78.53
45.781,-84.63
45.796,-87.38
45.812,-85.75
45.828,-79.55
45.843,-69.6
45.859,-57.25
45.875,-44.45
45.890,-32.81
45.906,-23.48
45.921,-16.82
45.937,-12.13
45.953,-8.42
45.968,-4.54
45.984,0.03
46.000,5.18
46.015,10.16
46.031,14.15
46.046,16.46
46.062,16.88
46.078,15.86
46.093,14.09
46.109,12.4
46.125,11.33
46.140,11.0
46.156,11.18
46.171,11.56
46.187,11.82
46.203,11.64
46.218,10.99
46.234,9.92
46.250,8.89
46.265,8.54
46.281,9.31
46.296,11.21
46.312,13.56
46.328,15.38
46.343,15.61
46.359,14.11
46.375,11.53
46.390,9.17
46.406,8.05
46.421,8.21
46.437,8.71
46.453,8.24
46.468,6.24
46.484,3.15
46.500,0.37
46.515,-0.77
46.531,0.37
46.546,3.24
46.562,6.69
46.578,9.51
46.593,10.85
46.609,10.32
46.625,7.69
46.640,3.01
46.656,-3.15
46.671,-9.23
46.687,-12.93
46.703,-11.92
46.718,-5.18
46.734,6.13
46.750,19.03
46.765,30.27
46.781,37.68
46.796,41.27
46.812,42.77
46.828,44.12
46.843,46.21
46.859,48.5
46.875,49.7
46.890,49.06
46.906,47.01
46.921,44.76
46.937,43.39
46.953,43.03
46.968,42.52
46.984,40.39
47.000,36.02
47.015,30.11
47.031,24.48
47.046,20.7
47.062,19.3
47.078,19.58
47.093,20.23
47.109,20.24
47.125,19.53
47.140,18.91
47.156,19.14
47.171,20.41
47.187,21.92
47.203,22.55
47.218,21.31
47.234,18.17
47.250,13.59
47.265,8.48
47.281,3.48
47.296,-1.11
47.312,-5.15
47.328,-8.45
47.343,-10.64
47.359,-11.5
47.375,-11.0
47.390,-9.8
47.406,-8.62
47.421,-8.28
47.437,-9.31
47.453,-11.69
47.468,-14.9
47.484,-18.28
47.500,-21.24
47.515,-23.27
47.531,-24.2
47.546,-23.91
47.562,-22.44
47.578,-19.91
47.593,-16.45
47.609,-12.05
47.625,-6.79
47.640,-1.13
47.656,4.43
47.671,9.06
47.687,12.23
47.703,13.82
47.718,14.21
47.734,14.13
47.750,14.3
47.765,15.21
47.781,16.83
47.796,19.02
47.812,21.54
47.828,24.3
47.843,27.24
47.859,30.1
47.875,32.52
47.890,34.09
47.906,34.67
47.921,34.46
47.937,33.9
47.953,33.19
47.968,32.29
47.984,30.82
48.000,28.34
48.015,24.83
48.031,20.65
48.046,16.38
48.062,12.41
48.078,8.9
48.093,5.53
48.109,2.19
48.125,-1.08
48.140,-4.09
48.156,-6.61
48.171,-8.66
48.187,-10.33
48.203,-11.83
48.218,-12.88
48.234,-13.2
48.250,-12.6
48.265,-11.46
48.281,-10.78
48.296,-11.61
48.312,-14.58
48.328,-19.19
48.343,-24.25
48.359,-28.36
48.375,-30.96
48.390,-32.52
48.406,-34.16
48.421,-36.61
48.437,-39.54
48.453,-41.68
48.468,-41.65
48.484,-38.88
48.500,-33.74
48.515,-27.34
48.531,-20.65
48.546,-13.99
48.562,-7.03
48.578,0.59
48.593,8.45
48.609,15.64
48.625,21.04
48.640,24.09
48.656,25.06
48.671,24.75
48.687,24.04
48.703,23.3
48.718,22.63
48.734,21.98
48.750,21.64
48.765,22.02
48.781,23.32
48.796,25.25
48.812,26.92
48.828,27.35
48.843,26.07
48.859,23.27
48.875,19.83
48.890,16.72
48.906,14.27
48.921,11.97
48.937,8.85
48.953,4.42
48.968,-0.85
48.984,-5.3
49.000,-7.06
49.015,-5.04
49.031,0.14
49.046,6.34
49.062,10.8
49.078,11.49
49.093,7.89
49.109,0.91
49.125,-7.89
49.140,-17.12
49.156,-25.86
49.171,-33.44
49.187,-39.08
49.203,-41.92
49.218,-41.44
49.234,-38.19
49.250,-33.72
49.265,-30.04
49.281,-28.46
49.296,-28.82
49.312,-29.74
49.328,-29.26
49.343,-25.99
49.359,-19.81
49.375,-11.74
49.390,-3.29
49.406,4.43
49.421,10.96
49.437,16.35
49.453,20.72
49.468,23.94
49.484,25.62
49.500,25.42
49.515,23.46
49.531,20.44
49.546,17.43
49.562,15.53
49.578,15.23
49.593,16.25
49.609,17.74
49.625,18.65
49.640,18.34
49.656,17.17
49.671,16.17
49.687,16.43
49.703,18.51
49.718,21.97
49.734,25.68
49.750,28.48
49.765,29.83
49.781,29.9
49.796,29.38
49.812,28.75
49.828,27.77
49.843,25.82
49.859,22.42
49.875,17.8
49.890,12.92
49.906,9.12
49.921,7.06
49.937,6.36
49.953,5.53
49.968,2.66
49.984,-3.56
50.000,-13.32
50.015,-25.56
50.031,-38.19
50.046,-49.15
50.062,-56.99
50.078,-61.26
50.093,-62.47
50.109,-61.35
50.125,-58.49
50.140,-54.06
50.156,-47.84
50.171,-39.56
50.187,-29.67
50.203,-19.18
50.218,-9.63
50.234,-2.32
50.250,2.1
50.265,4.04
50.281,4.55
50.296,4.84
50.312,5.63
50.328,6.78
50.343,7.71
50.359,8.05
50.375,8.01
50.390,8.34
50.406,10.04
50.421,13.43
50.437,17.8
50.453,21.47
50.468,22.46
50.484,19.55
50.500,12.68
50.515,2.94
50.531,-7.98
50.546,-18.29
50.562,-26.64
50.578,-32.26
50.593,-35.21
50.609,-36.26
50.625,-36.65
50.640,-37.74
50.656,-40.26
50.671,-43.85
50.687,-47.08
50.703,-48.24
50.718,-46.04
50.734,-40.37
50.750,-32.13
50.765,-22.4
50.781,-11.67
50.796,0.42
50.812,14.39
50.828,29.85
50.843,44.81
50.859,56.17
50.875,61.23
50.890,58.93
50.906,50.8
50.921,40.11
50.937,30.37
50.953,23.85
50.968,20.82
50.984,20.31
51.000,21.01
51.015,22.69
51.031,25.88
51.046,31.31
51.062,38.86
51.078,47.25
51.093,54.67
51.109,59.83
51.125,62.81
51.140,64.5
51.156,66.03
51.171,67.87
51.187,69.69
51.203,70.88
51.218,71.33
51.234,71.63
51.250,72.68
51.265,75.0
51.281,77.93
51.296,79.95
51.312,79.47
51.328,75.69
51.343,69.27
51.359,61.85
51.375,55.47
51.390,51.69
51.406,51.0
51.421,52.74
51.437,55.15
51.453,55.6
51.468,51.16
51.484,39.64
51.500,20.5
51.515,-4.31
51.531,-30.91
51.546,-54.55
51.562,-71.56
51.578,-80.87
51.593,-84.38
51.609,-86.06
51.625,-89.59
51.640,-96.71
51.656,-106.4
51.671,-115.57
51.687,-120.83
51.703,-120.25
51.718,-113.79
51.734,-102.96
51.750,-89.84
51.765,-75.88
51.781,-61.85
51.796,-48.07
51.812,-35.06
51.828,-23.64
51.843,-14.8
51.859,-8.64
51.875,-4.31
51.890,-0.19
51.906,5.42
51.921,13.29
51.937,23.15
51.953,33.82
51.968,44.04
51.984,52.92
52.000,60.34
52.015,66.88
52.031,73.07
52.046,79.35
52.062,85.52
52.078,90.86
52.093,94.5
52.109,95.74
52.125,94.51
52.140,91.4
52.156,87.5
52.171,83.8
52.187,81.19
52.203,80.06
52.218,80.55
52.234,82.93
52.250,87.25
52.265,93.15
52.281,99.36
52.296,103.87
52.312,104.39
52.328,99.67
52.343,90.01
52.359,77.61
52.375,65.84
52.390,57.83
52.406,55.05
52.421,56.42
52.437,58.67
52.453,57.13
52.468,47.54
52.484,27.33
52.500,-3.77
52.515,-43.85
52.531,-89.74
52.546,-137.47
52.562,-182.75
52.578,-221.1
52.593,-248.0
52.609,-259.87
52.625,-255.2
52.640,-236.15
52.656,-208.48
52.671,-180.64
52.687,-160.94
52.703,-154.89
52.718,-163.45
52.734,-182.95
52.750,-206.84
52.765,-228.17
52.781,-241.65
52.796,-244.42
52.812,-235.71
52.828,-215.86
52.843,-185.7
52.859,-146.56
52.875,-100.74
52.890,-51.99
52.906,-5.27
52.921,34.05
52.937,62.18
52.953,77.93
52.968,83.1
52.984,81.48
53.000,77.34
53.015,73.86
53.031,72.23
53.046,72.29
53.062,73.2
53.078,74.69
53.093,77.27
53.109,81.54
53.125,87.42
53.140,93.41
53.156,96.88
53.171,94.96
53.187,86.14
53.203,71.02
53.218,52.32
53.234,33.92
53.250,19.39
53.265,10.74
53.281,8.0
53.296,9.45
53.312,12.39
53.328,14.0
53.343,11.98
53.359,5.1
53.375,-6.82
53.390,-23.05
53.406,-41.9
53.421,-61.06
53.437,-77.69
53.453,-88.68
53.468,-91.28
53.484,-83.74
53.500,-66.29
53.515,-41.43
53.531,-13.83
53.546,11.27
53.562,29.88
53.578,40.61
53.593,45.21
53.609,47.43
53.625,50.94
53.640,57.74
53.656,67.24
53.671,76.43
53.687,81.05
53.703,76.76
53.718,59.93
53.734,28.43
53.750,-17.89
53.765,-77.06
53.781,-145.0
53.796,-216.46
53.812,-286.28
53.828,-350.92
53.843,-408.97
53.859,-459.99
53.875,-502.67
53.890,-533.35
53.906,-546.01
53.921,-534.49
53.937,-495.57
53.953,-431.1
53.968,-348.46
53.984,-258.12
54.000,-170.55
54.015,-93.27
54.031,-30.07
54.046,17.9
54.062,50.39
54.078,66.59
54.093,65.49
54.109,46.9
54.125,12.81
54.140,-32.43
54.156,-83.03
54.171,-133.41
54.187,-179.43
54.203,-218.65
54.218,-250.17
54.234,-273.28
54.250,-286.88
54.265,-289.4
54.281,-279.35
54.296,-256.26
54.312,-221.47
54.328,-178.29
54.343,-131.37
54.359,-85.64
54.375,-44.42
54.390,-8.93
54.406,21.61
54.421,48.92
54.437,74.2
54.453,97.55
54.468,117.5
54.484,131.94
54.500,138.92
54.515,137.61
54.531,129.05
54.546,115.66
54.562,100.6
54.578,87.29
54.593,79.88
54.609,81.75
54.625,94.35
54.640,115.94
54.656,141.81
54.671,166.35
54.687,186.04
54.703,201.77
54.718,218.9
54.734,246.26
54.750,290.08
54.765,350.18
54.781,419.44
54.796,487.29
54.812,544.6
54.828,587.02
54.843,615.3
54.859,632.33
54.875,643.39
54.890,650.23
54.906,650.27
54.921,638.84
54.937,612.53
54.953,572.04
54.968,521.89
54.984,469.05
55.000,419.99
55.015,383.91
55.031,365.74
55.046,364.79
55.062,375.93
55.078,392.8
55.093,411.15
55.109,429.15
55.125,446.15
55.140,460.65
55.156,476.76
55.171,496.3
55.187,517.74
55.203,536.2
55.218,545.93
55.234,542.78
55.250,524.79
55.265,492.19
55.281,409.97
55.296,266.67
55.312,78.71
55.328,-113.84
55.343,-270.86
55.359,-373.14
55.375,-424.24
55.390,-439.75
55.406,-431.9
55.421,-414.11
55.437,-387.51
55.453,-351.58
55.468,-308.64
55.484,-265.0
55.500,-227.24
55.515,-198.24
55.531,-178.37
55.546,-163.35
55.562,-148.83
55.578,-126.85
55.593,-94.06
55.609,-53.06
55.625,-11.71
55.640,21.2
55.656,39.94
55.671,43.29
55.687,34.1
55.703,15.99
55.718,-4.15
55.734,-21.82
55.750,-36.21
55.765,-49.74
55.781,-65.34
55.796,-84.04
55.812,-104.22
55.828,-122.29
55.843,-135.28
55.859,-140.11
55.875,-136.71
55.890,-128.37
55.906,-120.53
55.921,-118.34
55.937,-124.27
55.953,-137.39
55.968,-154.03
55.984,-170.17
56.000,-182.44
56.015,-190.12
56.031,-195.08
56.046,-200.47
56.062,-209.15
56.078,-222.25
56.093,-239.27
56.109,-258.44
56.125,-277.51
56.140,-293.47
56.156,-301.91
56.171,-298.55
56.187,-281.01
56.203,-251.88
56.218,-219.56
56.234,-195.81
56.250,-190.27
56.265,-204.89
56.281,-231.9
56.296,-256.85
56.312,-266.1
56.328,-253.7
56.343,-224.8
56.359,-192.28
56.375,-169.86
56.390,-165.6
56.406,-179.2
56.421,-204.19
56.437,-232.13
56.453,-256.24
56.468,-272.67
56.484,-280.1
56.500,-278.96
56.515,-271.26
56.531,-260.76
56.546,-252.88
56.562,-253.54
56.578,-267.21
56.593,-295.04
56.609,-333.87
56.625,-376.26
56.640,-412.37
56.656,-431.94
56.671,-427.1
56.687,-394.82
56.703,-338.1
56.718,-265.7
56.734,-189.61
56.750,-121.68
56.765,-69.85
56.781,-36.63
56.796,-19.79
56.812,-14.53
56.828,-15.67
56.843,-19.26
56.859,-22.94
56.875,-25.55
56.890,-26.76
56.906,-26.57
56.921,-25.07
56.937,-22.48
56.953,-18.84
56.968,-14.32
56.984,-8.94
57.000,-2.82
57.015,4.01
57.031,11.61
57.046,20.42
57.062,31.27
57.078,45.15
57.093,63.29
57.109,86.39
57.125,114.59
57.140,146.94
57.156,181.3
57.171,214.8
57.187,244.59
57.203,268.74
57.218,286.47
57.234,298.51
57.250,306.26
57.265,311.13
57.281,314.08
57.296,315.05
57.312,313.09
57.328,306.27
57.343,292.36
57.359,269.46
57.375,237.66
57.390,199.66
57.406,160.89
57.421,128.39
57.437,108.02
57.453,101.96
57.468,107.31
57.484,117.41
57.500,125.05
57.515,126.44
57.531,122.52
57.546,117.75
57.562,117.06
57.578,122.46
57.593,131.88
57.609,140.59
57.625,144.21
57.640,140.98
57.656,132.75
57.671,123.23
57.687,115.78
57.703,111.71
57.718,110.12
57.734,109.28
57.750,108.25
57.765,106.93
57.781,105.14
57.796,101.82
57.812,95.15
57.828,84.1
57.843,70.16
57.859,57.34
57.875,50.82
57.890,54.23
57.906,67.16
57.921,84.79
57.937,99.95
57.953,106.19
57.968,100.67
57.984,85.1
58.000,64.22
58.015,43.63
58.031,27.65
58.046,18.48
58.062,16.5
58.078,21.2
58.093,31.23
58.109,44.66
58.125,58.97
58.140,71.23
58.156,78.75
58.171,79.68
58.187,73.33
58.203,60.11
58.218,41.74
58.234,20.88
58.250,0.68
58.265,-15.9
58.281,-27.03
58.296,-32.54
58.312,-33.91
58.328,-33.67
58.343,-34.51
58.359,-37.99
58.375,-44.08
58.390,-51.27
58.406,-57.35
58.421,-60.74
58.437,-61.11
58.453,-59.45
58.468,-57.3
58.484,-55.42
58.500,-53.38
58.515,-49.8
58.531,-43.54
58.546,-34.32
58.562,-23.47
58.578,-13.2
58.593,-5.32
58.609,-0.03
58.625,4.51
58.640,10.86
58.656,20.4
58.671,32.18
58.687,43.33
58.703,50.76
58.718,53.25
58.734,52.17
58.750,50.51
58.765,50.88
58.781,54.02
58.796,58.8
58.812,63.55
58.828,67.76
58.843,72.2
58.859,78.26
58.875,86.57
58.890,96.33
58.906,105.98
58.921,114.25
58.937,121.32
58.953,128.52
58.968,137.3
58.984,148.23
59.000,160.62
59.015,173.33
59.031,185.39
59.046,196.42
59.062,206.13
59.078,213.57
59.093,217.15
59.109,215.29
59.125,207.55
59.140,194.8
59.156,178.63
59.171,159.95
59.187,138.23
59.203,111.87
59.218,79.79
59.234,43.36
59.250,6.86
59.265,-23.75
59.281,-43.64
59.296,-51.74
59.312,-51.77
59.328,-50.67
59.343,-55.15
59.359,-68.46
59.375,-88.78
59.390,-110.32
59.406,-126.14
59.421,-131.32
59.437,-124.58
59.453,-108.17
59.468,-86.43
59.484,-63.79
59.500,-43.66
59.515,-28.2
59.531,-18.81
59.546,-16.6
59.562,-22.46
59.578,-36.92
59.593,-59.57
59.609,-89.07
59.625,-122.76
59.640,-156.63
59.656,-185.14
59.671,-202.2
59.687,-203.0
59.703,-186.25
59.718,-156.28
59.734,-122.72
59.750,-97.75
59.765,-91.25
59.781,-106.43
59.796,-138.1
59.812,-175.09
59.828,-205.27
59.843,-220.94
59.859,-221.35
59.875,-211.44
59.890,-197.75
59.906,-184.57
59.921,-172.41
59.937,-159.15
59.953,-142.71
59.968,-123.13
59.984,-102.42
