timestamp,value
00.000,-16.02
00.015,-17.34
00.031,-18.36
00.046,-18.99
00.062,-19.24
00.078,-19.21
00.093,-18.94
00.109,-18.42
00.125,-17.53
00.140,-16.11
00.156,-14.03
00.171,-11.28
00.187,-8.02
00.203,-4.43
00.218,-0.76
00.234,2.76
00.250,5.94
00.265,8.55
00.281,10.44
00.296,11.52
00.312,11.87
00.328,11.71
00.343,11.35
00.359,11.12
00.375,11.21
00.390,11.66
00.406,12.33
00.421,12.97
00.437,13.34
00.453,13.22
00.468,12.56
00.484,11.4
00.500,9.93
00.515,8.37
00.531,6.94
00.546,5.74
00.562,4.74
00.578,3.75
00.593,2.56
00.609,1.01
00.625,-0.96
00.640,-3.3
00.656,-5.92
00.671,-8.7
00.687,-11.55
00.703,-14.32
00.718,-16.79
00.734,-18.62
00.750,-19.46
00.765,-19.1
00.781,-17.51
00.796,-14.91
00.812,-11.71
00.828,-8.32
00.843,-5.13
00.859,-2.35
00.875,-0.06
00.890,1.72
00.906,2.97
00.921,3.71
00.937,3.89
00.953,3.55
00.968,2.77
00.984,1.74
01.000,0.62
01.015,-0.43
01.031,-1.32
01.046,-2.09
01.062,-2.78
01.078,-3.47
01.093,-4.14
01.109,-4.67
01.125,-4.95
01.140,-5.07
01.156,-5.28
01.171,-5.9
01.187,-7.06
01.203,-8.65
01.218,-10.28
01.234,-11.44
01.250,-11.61
01.265,-10.62
01.281,-8.67
01.296,-6.18
01.312,-3.54
01.328,-0.87
01.343,1.95
01.359,5.19
01.375,9.0
01.390,13.54
01.406,18.64
01.421,23.93
01.437,29.05
01.453,33.85
01.468,38.55
01.484,43.43
01.500,48.81
01.515,54.68
01.531,61.42
01.546,68.9
01.562,76.51
01.578,83.45
01.593,89.3
01.609,94.29
01.625,98.9
01.640,103.82
01.656,109.29
01.671,116.42
01.687,125.43
01.703,135.47
01.718,145.12
01.734,153.28
01.750,159.75
01.765,164.67
01.781,168.81
01.796,172.59
01.812,178.21
01.828,186.54
01.843,196.75
01.859,206.57
01.875,213.8
01.890,217.62
01.906,218.03
01.921,216.74
01.937,215.53
01.953,218.3
01.968,226.66
01.984,239.06
02.000,251.09
02.015,257.83
02.031,256.31
02.046,245.09
02.062,226.28
02.078,183.43
02.093,111.56
02.109,18.97
02.125,-75.7
02.140,-155.31
02.156,-212.36
02.171,-243.92
02.187,-259.62
02.203,-267.05
02.218,-271.29
02.234,-273.74
02.250,-276.02
02.265,-280.06
02.281,-287.5
02.296,-298.67
02.312,-311.58
02.328,-324.71
02.343,-335.38
02.359,-336.43
02.375,-321.81
02.390,-290.93
02.406,-248.73
02.421,-203.09
02.437,-164.5
02.453,-133.11
02.468,-106.97
02.484,-83.21
02.500,-59.96
02.515,-35.94
02.531,-12.35
02.546,9.31
02.562,27.31
02.578,40.3
02.593,47.04
02.609,44.87
02.625,31.91
02.640,7.96
02.656,-25.75
02.671,-65.15
02.687,-103.33
02.703,-134.04
02.718,-153.1
02.734,-159.84
02.750,-156.64
02.765,-146.36
02.781,-123.0
02.796,-85.49
02.812,-39.3
02.828,5.64
02.843,38.14
02.859,51.52
02.875,43.38
02.890,17.33
02.906,-20.76
02.921,-63.81
02.937,-107.49
02.953,-150.3
02.968,-187.32
02.984,-217.18
03.000,-231.62
03.015,-225.66
03.031,-198.69
03.046,-155.19
03.062,-101.68
03.078,-45.51
03.093,4.69
03.109,51.33
03.125,97.0
03.140,143.49
03.156,189.63
03.171,233.07
03.187,267.1
03.203,286.41
03.218,287.61
03.234,270.6
03.250,239.01
03.265,196.84
03.281,149.12
03.296,100.47
03.312,55.9
03.328,20.08
03.343,-3.12
03.359,-13.05
03.375,-12.64
03.390,-6.61
03.406,-0.7
03.421,1.92
03.437,0.9
03.453,-1.65
03.468,-3.29
03.484,-2.27
03.500,1.57
03.515,7.4
03.531,14.82
03.546,23.09
03.562,31.48
03.578,38.56
03.593,42.54
03.609,42.22
03.625,38.49
03.640,34.22
03.656,33.01
03.671,37.49
03.687,47.36
03.703,59.75
03.718,70.6
03.734,76.64
03.750,76.52
03.765,70.97
03.781,61.44
03.796,48.95
03.812,33.74
03.828,15.66
03.843,-4.74
03.859,-25.73
03.875,-44.8
03.890,-59.76
03.906,-69.73
03.921,-75.28
03.937,-77.63
03.953,-77.3
03.968,-73.21
03.984,-62.77
04.000,-43.39
04.015,-14.38
04.031,21.66
04.046,58.59
04.062,88.09
04.078,102.15
04.093,95.49
04.109,67.33
04.125,21.63
04.140,-34.37
04.156,-92.47
04.171,-145.61
04.187,-189.11
04.203,-220.48
04.218,-238.33
04.234,-241.44
04.250,-228.51
04.265,-199.11
04.281,-155.18
04.296,-101.57
04.312,-45.3
04.328,6.34
04.343,47.75
04.359,76.11
04.375,91.3
04.390,94.95
04.406,89.51
04.421,78.04
04.437,64.0
04.453,51.28
04.468,43.3
04.484,41.99
04.500,47.01
04.515,55.7
04.531,64.27
04.546,69.51
04.562,69.88
04.578,65.56
04.593,57.42
04.609,45.83
04.625,30.55
04.640,11.38
04.656,-10.8
04.671,-33.46
04.687,-52.98
04.703,-66.06
04.718,-71.32
04.734,-69.83
04.750,-64.66
04.765,-59.24
04.781,-55.97
04.796,-55.59
04.812,-57.47
04.828,-60.35
04.843,-62.76
04.859,-63.11
04.875,-59.62
04.890,-50.84
04.906,-36.49
04.921,-17.91
04.937,1.89
04.953,19.25
04.968,31.03
04.984,35.56
05.000,32.87
05.015,24.38
05.031,12.23
05.046,-1.15
05.062,-13.31
05.078,-22.02
05.093,-25.88
05.109,-24.95
05.125,-21.08
05.140,-17.44
05.156,-17.08
05.171,-21.26
05.187,-28.54
05.203,-35.03
05.218,-36.35
05.234,-29.52
05.250,-14.52
05.265,5.51
05.281,25.33
05.296,39.65
05.312,45.15
05.328,41.42
05.343,30.93
05.359,17.81
05.375,6.18
05.390,-1.13
05.406,-3.49
05.421,-2.86
05.437,-2.68
05.453,-6.18
05.468,-14.83
05.484,-27.09
05.500,-38.61
05.515,-43.63
05.531,-37.23
05.546,-17.92
05.562,10.44
05.578,40.37
05.593,63.44
05.609,73.12
05.625,66.73
05.640,45.24
05.656,12.93
05.671,-23.71
05.687,-57.72
05.703,-84.6
05.718,-101.34
05.734,-106.0
05.750,-98.08
05.765,-78.69
05.781,-52.19
05.796,-24.68
05.812,-2.05
05.828,11.61
05.843,11.99
05.859,-2.01
05.875,-26.91
05.890,-55.93
05.906,-81.13
05.921,-98.35
05.937,-107.35
05.953,-109.87
05.968,-107.82
05.984,-106.72
06.000,-110.91
06.015,-120.82
06.031,-133.26
06.046,-142.47
06.062,-145.14
06.078,-140.65
06.093,-129.18
06.109,-94.71
06.125,-35.17
06.140,35.96
06.156,98.06
06.171,128.97
06.187,130.59
06.203,108.86
06.218,67.77
06.234,15.19
06.250,-38.39
06.265,-87.25
06.281,-128.4
06.296,-159.39
06.312,-179.0
06.328,-186.81
06.343,-174.32
06.359,-139.91
06.375,-102.37
06.390,-66.33
06.406,-28.19
06.421,11.4
06.437,51.43
06.453,91.12
06.468,130.11
06.484,166.01
06.500,194.6
06.515,213.0
06.531,222.13
06.546,220.8
06.562,207.66
06.578,184.37
06.593,155.39
06.609,127.11
06.625,104.62
06.640,90.03
06.656,83.91
06.671,87.08
06.687,96.86
06.703,108.89
06.718,120.14
06.734,129.21
06.750,135.78
06.765,139.17
06.781,137.62
06.796,129.84
06.812,116.83
06.828,99.78
06.843,80.14
06.859,60.32
06.875,42.57
06.890,28.15
06.906,16.82
06.921,7.11
06.937,-2.24
06.953,-11.07
06.968,-18.85
06.984,-25.13
07.000,-29.34
07.015,-31.0
07.031,-29.71
07.046,-25.42
07.062,-18.84
07.078,-11.49
07.093,-5.33
07.109,-2.54
07.125,-4.69
07.140,-11.66
07.156,-21.68
07.171,-32.02
07.187,-40.06
07.203,-44.2
07.218,-44.07
07.234,-40.02
07.250,-32.44
07.265,-21.43
07.281,-6.97
07.296,10.51
07.312,29.55
07.328,47.61
07.343,61.42
07.359,67.84
07.375,65.01
07.390,53.11
07.406,34.83
07.421,14.87
07.437,-1.52
07.453,-10.17
07.468,-9.59
07.484,-1.42
07.500,10.38
07.515,21.37
07.531,28.41
07.546,30.45
07.562,28.04
07.578,22.08
07.593,12.7
07.609,-0.9
07.625,-19.68
07.640,-43.48
07.656,-70.31
07.671,-96.54
07.687,-118.14
07.703,-132.08
07.718,-137.19
07.734,-134.1
07.750,-124.42
07.765,-109.99
07.781,-92.4
07.796,-73.06
07.812,-53.44
07.828,-34.96
07.843,-18.39
07.859,-3.28
07.875,11.99
07.890,29.2
07.906,48.73
07.921,68.6
07.937,84.52
07.953,91.86
07.968,88.09
07.984,74.31
08.000,54.79
08.015,34.92
08.031,19.06
08.046,9.3
08.062,5.74
08.078,7.38
08.093,12.91
08.109,20.83
08.125,29.25
08.140,35.94
08.156,38.97
08.171,37.83
08.187,33.96
08.203,30.18
08.218,29.23
08.234,32.41
08.250,38.87
08.265,46.19
08.281,51.4
08.296,52.04
08.312,46.62
08.328,34.77
08.343,17.25
08.359,-3.99
08.375,-25.77
08.390,-44.16
08.406,-55.61
08.421,-58.04
08.437,-51.95
08.453,-40.18
08.468,-26.97
08.484,-16.23
08.500,-9.96
08.515,-7.75
08.531,-7.17
08.546,-5.22
08.562,0.21
08.578,9.17
08.593,19.68
08.609,28.4
08.625,31.86
08.640,27.45
08.656,14.06
08.671,-7.16
08.687,-32.98
08.703,-58.65
08.718,-78.86
08.734,-88.69
08.750,-84.79
08.765,-66.43
08.781,-36.55
08.796,-1.9
08.812,28.81
08.828,47.29
08.843,47.9
08.859,29.34
08.875,-4.89
08.890,-47.93
08.906,-91.77
08.921,-129.87
08.937,-158.69
08.953,-176.66
08.968,-183.39
08.984,-179.51
09.000,-166.43
09.015,-146.08
09.031,-121.0
09.046,-94.01
09.062,-68.67
09.078,-48.83
09.093,-36.13
09.109,-28.88
09.125,-22.62
09.140,-11.64
09.156,8.95
09.171,41.05
09.187,82.75
09.203,129.66
09.218,170.02
09.234,191.75
09.250,191.36
09.265,175.56
09.281,154.71
09.296,137.64
09.312,123.47
09.328,108.04
09.343,87.34
09.359,59.27
09.375,25.05
09.390,-11.51
09.406,-46.64
09.421,-78.64
09.437,-107.86
09.453,-135.54
09.468,-161.58
09.484,-184.3
09.500,-200.76
09.515,-206.85
09.531,-198.78
09.546,-175.17
09.562,-138.05
09.578,-92.28
09.593,-44.24
09.609,0.27
09.625,36.87
09.640,63.31
09.656,79.93
09.671,88.94
09.687,92.72
09.703,92.86
09.718,90.27
09.734,85.81
09.750,81.28
09.765,79.03
09.781,80.87
09.796,87.37
09.812,97.46
09.828,108.98
09.843,119.95
09.859,129.46
09.875,137.39
09.890,143.31
09.906,145.07
09.921,138.79
09.937,120.44
09.953,88.15
09.968,43.46
09.984,-9.01
10.000,-63.32
10.015,-114.23
10.031,-158.03
10.046,-192.38
10.062,-215.58
10.078,-226.24
10.093,-223.8
10.109,-209.67
10.125,-187.54
10.140,-162.47
10.156,-138.85
10.171,-118.55
10.187,-100.11
10.203,-79.69
10.218,-53.15
10.234,-18.37
10.250,23.29
10.265,67.31
10.281,107.72
10.296,139.53
10.312,160.64
10.328,172.27
10.343,177.77
10.359,180.66
10.375,182.72
10.390,183.16
10.406,179.19
10.421,167.42
10.437,145.42
10.453,112.82
10.468,71.46
10.484,24.68
10.500,-23.63
10.515,-69.82
10.531,-110.8
10.546,-143.96
10.562,-167.08
10.578,-178.61
10.593,-178.1
10.609,-166.8
10.625,-147.71
10.640,-124.83
10.656,-101.78
10.671,-80.34
10.687,-59.69
10.703,-37.2
10.718,-10.2
10.734,22.02
10.750,57.26
10.765,91.03
10.781,118.67
10.796,137.41
10.812,147.49
10.828,151.5
10.843,152.44
10.859,151.93
10.875,149.43
10.890,143.01
10.906,130.9
10.921,112.69
10.937,89.48
10.953,62.95
10.968,34.2
10.984,3.3
11.000,-30.19
11.015,-65.94
11.031,-101.79
11.046,-133.87
11.062,-157.7
11.078,-170.08
11.093,-170.4
11.109,-160.99
11.125,-146.09
11.140,-130.14
11.156,-115.94
11.171,-103.6
11.187,-90.87
11.203,-74.22
11.218,-50.87
11.234,-20.32
11.250,15.14
11.265,51.09
11.281,82.73
11.296,106.72
11.312,122.25
11.328,130.68
11.343,134.31
11.359,134.83
11.375,132.61
11.390,127.07
11.406,117.63
11.421,104.54
11.437,88.75
11.453,71.23
11.468,51.92
11.484,29.62
11.500,2.78
11.515,-29.12
11.531,-64.4
11.546,-99.19
11.562,-128.57
11.578,-148.38
11.593,-156.63
11.609,-154.11
11.625,-143.8
11.640,-129.61
11.656,-115.01
11.671,-101.88
11.687,-90.08
11.703,-77.63
11.718,-61.88
11.734,-40.94
11.750,-15.03
11.765,13.01
11.781,38.6
11.796,57.3
11.812,66.87
11.828,68.23
11.843,64.89
11.859,60.86
11.875,58.35
11.890,56.74
11.906,53.39
11.921,45.75
11.937,33.56
11.953,19.55
11.968,8.27
11.984,3.83
12.000,7.86
12.015,18.88
12.031,33.31
12.046,47.28
12.062,58.31
12.078,65.79
12.093,70.66
12.109,74.25
12.125,77.22
12.140,79.3
12.156,79.62
12.171,77.39
12.187,72.51
12.203,65.7
12.218,58.06
12.234,50.7
12.250,44.23
12.265,38.7
12.281,33.85
12.296,29.35
12.312,24.97
12.328,20.56
12.343,15.97
12.359,11.0
12.375,5.36
12.390,-1.12
12.406,-8.36
12.421,-15.72
12.437,-21.97
12.453,-25.48
12.468,-24.64
12.484,-18.46
12.500,-7.19
12.515,7.45
12.531,22.63
12.546,35.21
12.562,42.87
12.578,44.89
12.593,42.19
12.609,36.71
12.625,30.65
12.640,25.66
12.656,22.51
12.671,21.06
12.687,20.19
12.703,17.99
12.718,12.36
12.734,2.05
12.750,-12.18
12.765,-27.15
12.781,-38.04
12.796,-40.62
12.812,-33.47
12.828,-19.35
12.843,-4.3
12.859,4.99
12.875,4.34
12.890,-6.04
12.906,-21.86
12.921,-36.94
12.937,-45.98
12.953,-46.44
12.968,-38.96
12.984,-26.45
13.000,-12.66
13.015,-1.01
13.031,6.34
13.046,8.88
13.062,7.8
13.078,5.8
13.093,6.37
13.109,12.93
13.125,27.89
13.140,51.98
13.156,83.82
13.171,119.82
13.187,154.45
13.203,180.96
13.218,192.71
13.234,184.99
13.250,156.84
13.265,112.15
13.281,59.38
13.296,9.44
13.312,-27.57
13.328,-45.62
13.343,-44.75
13.359,-30.79
13.375,-12.93
13.390,-0.3
13.406,1.12
13.421,-9.94
13.437,-30.71
13.453,-56.26
13.468,-81.86
13.484,-104.37
13.500,-122.43
13.515,-135.61
13.531,-143.6
13.546,-145.88
13.562,-142.24
13.578,-133.37
13.593,-121.16
13.609,-108.06
13.625,-96.19
13.640,-86.5
13.656,-78.55
13.671,-70.93
13.687,-62.15
13.703,-51.31
13.718,-38.53
13.734,-24.98
13.750,-12.57
13.765,-3.6
13.781,-0.19
13.796,-3.64
13.812,-13.93
13.828,-29.52
13.843,-47.66
13.859,-65.37
13.875,-80.3
13.890,-91.35
13.906,-98.59
13.921,-102.56
13.937,-103.46
13.953,-100.68
13.968,-93.11
13.984,-79.84
14.000,-61.09
14.015,-38.44
14.031,-14.37
14.046,8.57
14.062,28.74
14.078,45.77
14.093,60.18
14.109,72.66
14.125,83.47
14.140,92.25
14.156,98.32
14.171,101.35
14.187,101.7
14.203,100.39
14.218,98.58
14.234,96.91
14.250,95.22
14.265,92.66
14.281,88.34
14.296,81.88
14.312,73.81
14.328,65.37
14.343,57.96
14.359,52.38
14.375,48.23
14.390,43.88
14.406,37.09
14.421,25.91
14.437,9.62
14.453,-11.0
14.468,-33.89
14.484,-56.56
14.500,-76.86
14.515,-93.61
14.531,-106.63
14.546,-116.43
14.562,-123.75
14.578,-129.01
14.593,-132.13
14.609,-132.48
14.625,-129.18
14.640,-121.25
14.656,-107.91
14.671,-88.86
14.687,-64.43
14.703,-35.78
14.718,-4.79
14.734,26.17
14.750,54.67
14.765,78.72
14.781,97.25
14.796,110.29
14.812,118.82
14.828,124.42
14.843,128.47
14.859,131.55
14.875,132.95
14.890,130.8
14.906,122.65
14.921,106.54
14.937,81.95
14.953,50.3
14.968,14.56
14.984,-21.71
15.000,-55.58
15.015,-85.42
15.031,-110.9
15.046,-132.17
15.062,-149.15
15.078,-160.93
15.093,-165.98
15.109,-162.7
15.125,-150.29
15.140,-129.43
15.156,-102.48
15.171,-73.03
15.187,-44.78
15.203,-20.43
15.218,-0.66
15.234,15.96
15.250,32.08
15.265,49.79
15.281,69.17
15.296,87.99
15.312,102.83
15.328,111.02
15.343,112.23
15.359,108.48
15.375,102.78
15.390,97.25
15.406,91.97
15.421,85.19
15.437,74.83
15.453,60.03
15.468,41.9
15.484,22.98
15.500,5.75
15.515,-8.54
15.531,-20.31
15.546,-31.02
15.562,-41.92
15.578,-52.98
15.593,-62.63
15.609,-68.24
15.625,-67.33
15.640,-58.82
15.656,-43.73
15.671,-24.93
15.687,-6.04
15.703,9.91
15.718,21.33
15.734,28.03
15.750,30.51
15.765,29.06
15.781,23.37
15.796,12.98
15.812,-1.84
15.828,-19.42
15.843,-36.71
15.859,-50.15
15.875,-56.77
15.890,-55.08
15.906,-45.43
15.921,-29.63
15.937,-10.47
15.953,8.95
15.968,25.6
15.984,37.09
16.000,41.95
16.015,40.03
16.031,32.45
16.046,21.3
16.062,9.07
16.078,-2.03
16.093,-10.44
16.109,-15.39
16.125,-16.58
16.140,-14.02
16.156,-7.8
16.171,1.88
16.187,14.53
16.203,29.11
16.218,44.08
16.234,57.67
16.250,68.38
16.265,75.49
16.281,79.25
16.296,80.62
16.312,80.84
16.328,80.71
16.343,80.32
16.359,79.11
16.375,76.38
16.390,71.82
16.406,65.63
16.421,58.38
16.437,50.51
16.453,42.13
16.468,33.07
16.484,23.28
16.500,13.25
16.515,4.09
16.531,-2.77
16.546,-6.22
16.562,-6.06
16.578,-3.08
16.593,1.44
16.609,6.49
16.625,11.99
16.640,18.78
16.656,27.9
16.671,39.78
16.687,53.71
16.703,67.89
16.718,80.04
16.734,88.3
16.750,91.82
16.765,90.87
16.781,86.48
16.796,79.75
16.812,71.39
16.828,61.75
16.843,51.11
16.859,40.07
16.875,29.63
16.890,20.96
16.906,14.69
16.921,10.48
16.937,6.83
16.953,1.65
16.968,-6.77
16.984,-18.91
17.000,-33.61
17.015,-48.55
17.031,-61.22
17.046,-69.81
17.062,-73.67
17.078,-73.18
17.093,-69.28
17.109,-63.24
17.125,-56.55
17.140,-51.18
17.156,-49.41
17.171,-53.31
17.187,-63.8
17.203,-79.96
17.218,-99.11
17.234,-117.73
17.250,-132.99
17.265,-143.69
17.281,-150.32
17.296,-154.16
17.312,-155.88
17.328,-154.94
17.343,-149.78
17.359,-138.89
17.375,-121.74
17.390,-99.16
17.406,-72.91
17.421,-44.89
17.437,-16.71
17.453,10.13
17.468,33.89
17.484,52.66
17.500,65.27
17.515,72.46
17.531,77.5
17.546,84.99
17.562,98.46
17.578,117.97
17.593,139.35
17.609,155.79
17.625,161.04
17.640,152.51
17.656,132.34
17.671,105.93
17.687,78.92
17.703,54.36
17.718,31.73
17.734,8.2
17.750,-18.72
17.765,-48.81
17.781,-78.46
17.796,-102.11
17.812,-114.97
17.828,-115.48
17.843,-106.39
17.859,-93.55
17.875,-83.12
17.890,-78.63
17.906,-79.44
17.921,-80.92
17.937,-76.84
17.953,-62.43
17.968,-37.14
17.984,-5.26
18.000,26.06
18.015,49.83
18.031,61.83
18.046,61.77
18.062,52.96
18.078,40.45
18.093,29.58
18.109,24.59
18.125,28.37
18.140,42.31
18.156,65.67
18.171,94.65
18.187,122.5
18.203,141.46
18.218,144.83
18.234,129.57
18.250,96.78
18.265,51.6
18.281,1.23
18.296,-47.37
18.312,-89.19
18.328,-121.25
18.343,-141.06
18.359,-147.24
18.375,-140.04
18.390,-119.96
18.406,-91.14
18.421,-61.47
18.437,-39.43
18.453,-29.02
18.468,-28.03
18.484,-27.18
18.500,-17.31
18.515,6.87
18.531,44.31
18.546,89.92
18.562,136.53
18.578,177.36
18.593,207.23
18.609,218.27
18.625,206.66
18.640,175.2
18.656,140.04
18.671,109.09
18.687,85.57
18.703,68.14
18.718,54.63
18.734,40.45
18.750,19.83
18.765,-10.69
18.781,-50.98
18.796,-97.11
18.812,-144.28
18.828,-186.99
18.843,-221.47
18.859,-246.16
18.875,-261.16
18.890,-266.65
18.906,-261.53
18.921,-245.04
18.937,-218.49
18.953,-186.69
18.968,-154.8
18.984,-126.38
19.000,-101.99
19.015,-79.68
19.031,-56.34
19.046,-29.44
19.062,1.39
19.078,34.34
19.093,65.92
19.109,93.54
19.125,115.92
19.140,132.66
19.156,143.45
19.171,147.87
19.187,146.0
19.203,138.57
19.218,126.91
19.234,112.26
19.250,95.8
19.265,78.13
19.281,59.18
19.296,38.43
19.312,15.37
19.328,-10.17
19.343,-38.03
19.359,-67.67
19.375,-97.96
19.390,-126.66
19.406,-150.7
19.421,-166.68
19.437,-171.99
19.453,-165.64
19.468,-148.78
19.484,-124.44
19.500,-96.68
19.515,-69.61
19.531,-46.42
19.546,-29.09
19.562,-18.3
19.578,-13.7
19.593,-14.28
19.609,-18.72
19.625,-25.67
19.640,-33.9
19.656,-42.41
19.671,-50.27
19.687,-56.54
19.703,-59.74
19.718,-57.81
19.734,-48.38
19.750,-29.61
19.765,-1.11
19.781,35.33
19.796,76.02
19.812,116.58
19.828,153.41
19.843,184.88
19.859,211.19
19.875,233.1
19.890,250.52
19.906,261.68
19.921,263.54
19.937,253.35
19.953,230.16
19.968,195.55
19.984,153.22
20.000,107.95
20.015,64.56
20.031,27.03
20.046,-2.01
20.062,-21.62
20.078,-32.58
20.093,-37.24
20.109,-38.74
20.125,-39.91
20.140,-42.22
20.156,-45.42
20.171,-48.1
20.187,-48.81
20.203,-46.95
20.218,-42.87
20.234,-37.34
20.250,-30.99
20.265,-24.09
20.281,-16.94
20.296,-10.41
20.312,-6.12
20.328,-5.86
20.343,-10.56
20.359,-19.47
20.375,-30.27
20.390,-40.01
20.406,-46.26
20.421,-48.07
20.437,-46.04
20.453,-41.8
20.468,-36.78
20.484,-31.56
20.500,-25.74
20.515,-18.44
20.531,-8.85
20.546,3.36
20.562,17.97
20.578,33.88
20.593,48.55
20.609,58.57
20.625,60.38
20.640,51.68
20.656,32.64
20.671,6.52
20.687,-20.9
20.703,-43.0
20.718,-54.67
20.734,-54.72
20.750,-45.48
20.765,-31.55
20.781,-17.52
20.796,-6.66
20.812,-0.51
20.828,0.68
20.843,-2.86
20.859,-11.09
20.875,-24.77
20.890,-43.88
20.906,-66.86
20.921,-90.35
20.937,-110.45
20.953,-124.39
20.968,-131.44
20.984,-133.0
21.000,-126.41
21.015,-110.94
21.031,-87.82
21.046,-60.21
21.062,-31.08
21.078,-2.44
21.093,24.24
21.109,47.65
21.125,66.79
21.140,81.42
21.156,91.37
21.171,98.38
21.187,102.76
21.203,104.39
21.218,102.52
21.234,96.14
21.250,84.77
21.265,69.28
21.281,52.05
21.296,35.8
21.312,23.26
21.328,16.25
21.343,15.87
21.359,22.0
21.375,32.84
21.390,45.45
21.406,56.6
21.421,63.44
21.437,63.63
21.453,56.16
21.468,41.63
21.484,22.51
21.500,2.52
21.515,-14.43
21.531,-25.1
21.546,-27.7
21.562,-22.2
21.578,-10.54
21.593,4.0
21.609,17.45
21.625,26.27
21.640,28.24
21.656,23.15
21.671,13.06
21.687,1.62
21.703,-7.39
21.718,-11.79
21.734,-11.74
21.750,-9.67
21.765,-9.08
21.781,-13.25
21.796,-24.26
21.812,-42.54
21.828,-67.0
21.843,-95.21
21.859,-123.67
21.875,-147.96
21.890,-163.19
21.906,-164.83
21.921,-150.14
21.937,-119.41
21.953,-76.58
21.968,-28.37
21.984,17.53
22.000,54.89
22.015,80.6
22.031,94.78
22.046,99.54
22.062,97.02
22.078,88.22
22.093,73.31
22.109,53.12
22.125,30.64
22.140,11.08
22.156,0.07
22.171,0.92
22.187,12.59
22.203,29.82
22.218,45.47
22.234,53.92
22.250,53.45
22.265,46.28
22.281,36.78
22.296,28.86
22.312,23.98
22.328,21.07
22.343,17.72
22.359,11.76
22.375,2.6
22.390,-8.64
22.406,-19.75
22.421,-28.51
22.437,-33.54
22.453,-34.54
22.468,-32.0
22.484,-26.57
22.500,-18.43
22.515,-7.17
22.531,7.79
22.546,26.47
22.562,47.73
22.578,69.03
22.593,87.02
22.609,98.69
22.625,102.51
22.640,99.04
22.656,90.81
22.671,81.45
22.687,74.52
22.703,72.3
22.718,75.04
22.734,80.87
22.750,86.39
22.765,87.86
22.781,82.48
22.796,69.39
22.812,49.76
22.828,26.13
22.843,1.43
22.859,-21.88
22.875,-42.23
22.890,-58.73
22.906,-70.9
22.921,-78.38
22.937,-81.04
22.953,-79.3
22.968,-74.37
22.984,-68.15
23.000,-62.81
23.015,-60.28
23.031,-61.78
23.046,-67.64
23.062,-77.56
23.078,-90.83
23.093,-106.8
23.109,-124.99
23.125,-145.05
23.140,-166.53
23.156,-188.54
23.171,-209.7
23.187,-228.03
23.203,-241.38
23.218,-247.82
23.234,-246.21
23.250,-236.47
23.265,-219.56
23.281,-197.13
23.296,-171.02
23.312,-142.75
23.328,-113.32
23.343,-83.4
23.359,-53.68
23.375,-25.21
23.390,0.63
23.406,22.44
23.421,39.23
23.437,50.85
23.453,57.96
23.468,61.95
23.484,64.64
23.500,67.93
23.515,73.44
23.531,82.27
23.546,94.73
23.562,110.19
23.578,127.22
23.593,143.9
23.609,158.15
23.625,168.0
23.640,171.76
23.656,168.25
23.671,157.07
23.687,138.93
23.703,115.77
23.718,90.57
23.734,66.62
23.750,46.55
23.765,31.68
23.781,21.88
23.796,16.13
23.812,13.32
23.828,12.72
23.843,14.15
23.859,17.52
23.875,22.45
23.890,28.05
23.906,33.34
23.921,37.62
23.937,40.79
23.953,43.25
23.968,45.37
23.984,47.16
24.000,48.18
24.015,47.84
24.031,45.86
24.046,42.43
24.062,38.14
24.078,33.52
24.093,28.74
24.109,23.6
24.125,17.76
24.140,11.04
24.156,3.61
24.171,-4.16
24.187,-11.88
24.203,-19.34
24.218,-26.58
24.234,-33.66
24.250,-40.59
24.265,-47.16
24.281,-53.06
24.296,-57.94
24.312,-61.55
24.328,-63.72
24.343,-64.47
24.359,-63.9
24.375,-62.18
24.390,-59.5
24.406,-55.96
24.421,-51.54
24.437,-46.09
24.453,-39.45
24.468,-31.48
24.484,-22.27
24.500,-12.22
24.515,-1.96
24.531,7.65
24.546,15.68
24.562,21.31
24.578,23.94
24.593,23.32
24.609,19.57
24.625,13.21
24.640,5.04
24.656,-4.03
24.671,-13.04
24.687,-21.26
24.703,-28.18
24.718,-33.6
24.734,-37.47
24.750,-39.87
24.765,-40.86
24.781,-40.52
24.796,-39.03
24.812,-36.67
24.828,-33.78
24.843,-30.75
24.859,-27.86
24.875,-25.28
24.890,-23.08
24.906,-21.29
24.921,-19.95
24.937,-19.07
24.953,-18.61
24.968,-18.47
24.984,-18.51
25.000,-18.71
25.015,-19.23
25.031,-20.47
25.046,-22.88
25.062,-26.85
25.078,-32.44
25.093,-39.3
25.109,-46.76
25.125,-54.0
25.140,-60.23
25.156,-64.81
25.171,-67.3
25.187,-67.5
25.203,-65.4
25.218,-61.28
25.234,-55.7
25.250,-49.42
25.265,-43.24
25.281,-37.78
25.296,-33.27
25.312,-29.52
25.328,-25.99
25.343,-22.1
25.359,-17.34
25.375,-11.51
25.390,-4.67
25.406,3.07
25.421,11.62
25.437,21.01
25.453,31.34
25.468,42.54
25.484,54.17
25.500,65.36
25.515,75.01
25.531,82.1
25.546,86.1
25.562,87.15
25.578,85.96
25.593,83.5
25.609,80.64
25.625,77.78
25.640,74.82
25.656,71.36
25.671,66.95
25.687,61.37
25.703,54.67
25.718,47.15
25.734,39.15
25.750,30.99
25.765,22.9
25.781,15.15
25.796,8.06
25.812,2.12
25.828,-2.22
25.843,-4.67
25.859,-5.24
25.875,-4.32
25.890,-2.57
25.906,-0.62
25.921,1.08
25.937,2.39
25.953,3.46
25.968,4.52
25.984,5.75
26.000,7.11
26.015,8.42
26.031,9.43
26.046,9.95
26.062,9.95
26.078,9.49
26.093,8.78
26.109,8.0
26.125,7.31
26.140,6.8
26.156,6.45
26.171,6.19
26.187,5.93
26.203,5.55
26.218,4.99
26.234,4.26
26.250,3.42
26.265,2.51
26.281,1.58
26.296,0.56
26.312,-0.6
26.328,-1.9
26.343,-3.34
26.359,-4.83
26.375,-6.3
26.390,-7.76
26.406,-9.22
26.421,-10.74
26.437,-12.34
26.453,-13.91
26.468,-15.24
26.484,-16.04
26.500,-16.02
26.515,-15.01
26.531,-13.03
26.546,-10.32
26.562,-7.34
26.578,-4.6
26.593,-2.55
26.609,-1.42
26.625,-1.26
26.640,-1.94
26.656,-3.28
26.671,-5.12
26.687,-7.37
26.703,-9.92
26.718,-12.6
26.734,-15.23
26.750,-17.6
26.765,-19.53
26.781,-20.8
26.796,-21.19
26.812,-20.46
26.828,-18.41
26.843,-14.98
26.859,-10.35
26.875,-4.97
26.890,0.65
26.906,6.0
26.921,10.72
26.937,14.58
26.953,17.52
26.968,19.55
26.984,20.77
27.000,21.41
27.015,21.77
27.031,22.18
27.046,22.81
27.062,23.6
27.078,24.19
27.093,23.99
27.109,22.43
27.125,19.02
27.140,13.53
27.156,6.07
27.171,-2.88
27.187,-12.49
27.203,-21.7
27.218,-29.33
27.234,-34.29
27.250,-35.76
27.265,-33.39
27.281,-27.34
27.296,-18.27
27.312,-7.18
27.328,4.78
27.343,16.6
27.359,27.51
27.375,37.05
27.390,44.97
27.406,51.09
27.421,55.21
27.437,57.15
27.453,56.77
27.468,54.1
27.484,49.29
27.500,42.56
27.515,34.13
27.531,24.21
27.546,12.97
27.562,0.62
27.578,-12.61
27.593,-26.41
27.609,-40.29
27.625,-53.43
27.640,-64.58
27.656,-72.2
27.671,-74.86
27.687,-71.73
27.703,-63.0
27.718,-49.98
27.734,-34.76
27.750,-19.53
27.765,-5.99
27.781,4.95
27.796,13.13
27.812,18.88
27.828,22.7
27.843,25.08
27.859,26.36
27.875,26.69
27.890,26.12
27.906,24.7
27.921,22.75
27.937,21.07
27.953,20.88
27.968,23.54
27.984,29.99
28.000,40.27
28.015,53.37
28.031,67.6
28.046,81.02
28.062,91.98
28.078,99.29
28.093,102.16
28.109,100.04
28.125,92.7
28.140,80.31
28.156,63.58
28.171,43.74
28.187,22.39
28.203,1.22
28.218,-18.18
28.234,-34.38
28.250,-46.31
28.265,-53.34
28.281,-55.55
28.296,-53.74
28.312,-49.16
28.328,-43.12
28.343,-36.5
28.359,-29.64
28.375,-22.5
28.390,-15.13
28.406,-7.92
28.421,-1.65
28.437,2.81
28.453,4.89
28.468,4.62
28.484,2.52
28.500,-0.63
28.515,-4.11
28.531,-7.39
28.546,-10.22
28.562,-12.47
28.578,-14.12
28.593,-15.12
28.609,-15.4
28.625,-14.9
28.640,-13.54
28.656,-11.38
28.671,-8.59
28.687,-5.57
28.703,-2.67
28.718,-0.17
28.734,1.98
28.750,4.07
28.765,6.45
28.781,9.3
28.796,12.46
28.812,15.57
28.828,18.21
28.843,20.19
28.859,21.61
28.875,22.68
28.890,23.56
28.906,24.13
28.921,24.11
28.937,23.28
28.953,21.62
28.968,19.39
28.984,16.93
29.000,14.49
29.015,12.0
29.031,9.16
29.046,5.48
29.062,0.54
29.078,-5.86
29.093,-13.6
29.109,-22.2
29.125,-30.92
29.140,-38.93
29.156,-45.6
29.171,-50.58
29.187,-53.94
29.203,-55.95
29.218,-56.8
29.234,-56.44
29.250,-54.52
29.265,-50.56
29.281,-44.21
29.296,-35.48
29.312,-24.77
29.328,-12.94
29.343,-1.23
29.359,8.8
29.375,15.47
29.390,17.49
29.406,14.4
29.421,7.02
29.437,-2.67
29.453,-11.85
29.468,-17.7
29.484,-18.05
29.500,-11.92
29.515,0.15
29.531,16.26
29.546,33.38
29.562,48.21
29.578,58.09
29.593,61.78
29.609,59.54
29.625,52.7
29.640,42.7
29.656,30.4
29.671,16.33
29.687,1.3
29.703,-12.78
29.718,-23.04
29.734,-26.74
29.750,-22.94
29.765,-13.32
29.781,-1.72
29.796,7.82
29.812,13.14
29.828,14.79
29.843,15.1
29.859,16.3
29.875,18.61
29.890,20.18
29.906,18.58
29.921,12.84
29.937,4.64
29.953,-2.29
29.968,-4.32
29.984,-0.2
30.000,8.05
30.015,16.36
30.031,21.04
30.046,20.82
30.062,17.15
30.078,12.89
30.093,10.09
30.109,8.67
30.125,6.84
30.140,2.8
30.156,-3.5
30.171,-9.92
30.187,-13.36
30.203,-11.74
30.218,-5.47
30.234,2.76
30.250,9.59
30.265,12.79
30.281,12.09
30.296,8.59
30.312,3.5
30.328,-2.78
30.343,-10.53
30.359,-19.64
30.375,-28.81
30.390,-35.69
30.406,-37.93
30.421,-34.77
30.437,-27.61
30.453,-19.35
30.468,-12.78
30.484,-9.2
30.500,-8.1
30.515,-8.23
30.531,-8.82
30.546,-10.22
30.562,-13.25
30.578,-17.94
30.593,-22.74
30.609,-24.89
30.625,-22.07
30.640,-14.04
30.656,-3.27
30.671,6.29
30.687,11.43
30.703,11.68
30.718,9.42
30.734,8.33
30.750,10.89
30.765,16.66
30.781,22.83
30.796,26.11
30.812,25.16
30.828,21.57
30.843,18.68
30.859,19.2
30.875,23.12
30.890,27.5
30.906,28.54
30.921,24.34
30.937,16.41
30.953,8.89
30.968,5.88
30.984,8.57
31.000,14.24
31.015,17.97
31.031,15.74
31.046,7.11
31.062,-4.45
31.078,-13.65
31.093,-16.61
31.109,-13.04
31.125,-5.95
31.140,0.7
31.156,4.66
31.171,6.51
31.187,8.72
31.203,13.36
31.218,20.14
31.234,26.43
31.250,28.92
31.265,25.72
31.281,17.88
31.296,8.72
31.312,1.96
31.328,-0.31
31.343,1.47
31.359,5.08
31.375,8.28
31.390,9.95
31.406,10.21
31.421,9.74
31.437,8.67
31.453,6.23
31.468,1.48
31.484,-5.79
31.500,-14.4
31.515,-22.05
31.531,-26.47
31.546,-26.63
31.562,-23.21
31.578,-18.1
31.593,-13.23
31.609,-9.53
31.625,-6.88
31.640,-4.7
31.656,-2.74
31.671,-1.43
31.687,-1.53
31.703,-3.4
31.718,-6.58
31.734,-9.79
31.750,-11.47
31.765,-10.61
31.781,-7.09
31.796,-1.71
31.812,4.26
31.828,9.56
31.843,13.29
31.859,14.94
31.875,14.48
31.890,12.42
31.906,9.63
31.921,7.27
31.937,6.38
31.953,7.46
31.968,10.32
31.984,14.13
32.000,17.78
32.015,20.23
32.031,20.88
32.046,19.54
32.062,16.53
32.078,12.4
32.093,7.86
32.109,3.7
32.125,0.79
32.140,-0.15
32.156,1.21
32.171,4.44
32.187,8.42
32.203,11.63
32.218,12.78
32.234,11.37
32.250,7.88
32.265,3.45
32.281,-0.72
32.296,-3.92
32.312,-5.94
32.328,-6.83
32.343,-6.46
32.359,-4.45
32.375,-0.63
32.390,4.54
32.406,9.62
32.421,12.57
32.437,11.52
32.453,5.75
32.468,-3.87
32.484,-14.98
32.500,-24.58
32.515,-30.13
32.531,-30.4
32.546,-25.92
32.562,-18.56
32.578,-10.77
32.593,-4.52
32.609,-0.63
32.625,1.34
32.640,2.62
32.656,4.56
32.671,7.98
32.687,12.85
32.703,18.38
32.718,23.43
32.734,26.91
32.750,28.21
32.765,27.41
32.781,25.26
32.796,22.82
32.812,20.85
32.828,19.28
32.843,17.04
32.859,12.56
32.875,4.7
32.890,-6.27
32.906,-18.3
32.921,-28.19
32.937,-33.13
32.953,-32.1
32.968,-26.5
32.984,-19.27
33.000,-13.19
33.015,-9.23
33.031,-6.4
33.046,-2.77
33.062,2.62
33.078,8.61
33.093,12.35
33.109,10.99
33.125,3.88
33.140,-6.6
33.156,-16.02
33.171,-20.48
33.187,-18.96
33.203,-13.89
33.218,-9.62
33.234,-9.32
33.250,-12.85
33.265,-16.84
33.281,-16.85
33.296,-10.55
33.312,0.47
33.328,11.34
33.343,16.64
33.359,13.6
33.375,3.82
33.390,-7.85
33.406,-16.27
33.421,-19.04
33.437,-17.52
33.453,-15.29
33.468,-15.16
33.484,-16.94
33.500,-17.66
33.515,-13.64
33.531,-3.5
33.546,10.29
33.562,22.41
33.578,27.52
33.593,23.38
33.609,12.26
33.625,-0.25
33.640,-8.3
33.656,-8.91
33.671,-3.19
33.687,4.73
33.703,10.73
33.718,13.18
33.734,13.66
33.750,15.62
33.765,21.52
33.781,30.85
33.796,39.95
33.812,44.06
33.828,40.13
33.843,28.83
33.859,14.3
33.875,1.93
33.890,-4.58
33.906,-5.02
33.921,-2.25
33.937,0.08
33.953,-0.02
33.968,-1.52
33.984,-1.33
34.000,3.41
34.015,13.09
34.031,24.74
34.046,33.37
34.062,34.5
34.078,26.76
34.093,12.61
34.109,-2.92
34.125,-14.89
34.140,-20.99
34.156,-22.3
34.171,-22.01
34.187,-22.93
34.203,-25.4
34.218,-26.88
34.234,-23.8
34.250,-14.0
34.265,1.32
34.281,17.65
34.296,29.27
34.312,32.28
34.328,26.59
34.343,15.76
34.359,4.83
34.375,-2.53
34.390,-6.01
34.406,-8.11
34.421,-12.02
34.437,-18.89
34.453,-26.68
34.468,-31.1
34.484,-28.51
34.500,-18.41
34.515,-4.34
34.531,7.75
34.546,12.66
34.562,8.73
34.578,-1.45
34.593,-12.78
34.609,-20.68
34.625,-23.56
34.640,-23.21
34.656,-22.99
34.671,-25.16
34.687,-29.09
34.703,-31.45
34.718,-28.23
34.734,-17.52
34.750,-0.87
34.765,17.15
34.781,31.11
34.796,37.21
34.812,34.88
34.828,26.64
34.843,16.5
34.859,7.96
34.875,2.64
34.890,0.16
34.906,-0.89
34.921,-1.64
34.937,-2.0
34.953,-0.52
34.968,4.88
34.984,15.46
35.000,30.56
35.015,47.27
35.031,61.17
35.046,67.96
35.062,65.38
35.078,54.23
35.093,38.1
35.109,21.81
35.125,9.37
35.140,2.39
35.156,-0.14
35.171,-0.86
35.187,-2.34
35.203,-5.54
35.218,-9.43
35.234,-11.77
35.250,-10.49
35.265,-4.99
35.281,3.38
35.296,11.89
35.312,17.65
35.328,18.75
35.343,14.63
35.359,5.75
35.375,-7.27
35.390,-24.08
35.406,-44.38
35.421,-66.9
35.437,-88.5
35.453,-104.16
35.468,-108.46
35.484,-97.92
35.500,-73.06
35.515,-38.75
35.531,-2.68
35.546,27.44
35.562,46.77
35.578,54.7
35.593,54.07
35.609,48.76
35.625,41.25
35.640,31.43
35.656,17.55
35.671,-1.11
35.687,-21.94
35.703,-38.3
35.718,-41.96
35.734,-27.31
35.750,4.8
35.765,46.34
35.781,84.91
35.796,109.19
35.812,113.97
35.828,102.23
35.843,82.88
35.859,65.85
35.875,57.11
35.890,56.38
35.906,58.54
35.921,57.57
35.937,50.52
35.953,39.35
35.968,29.56
35.984,26.58
36.000,32.19
36.015,43.19
36.031,52.94
36.046,54.88
36.062,46.07
36.078,28.63
36.093,8.32
36.109,-8.81
36.125,-19.67
36.140,-25.48
36.156,-30.35
36.171,-38.4
36.187,-50.97
36.203,-65.65
36.218,-77.63
36.234,-82.34
36.250,-77.89
36.265,-66.04
36.281,-51.31
36.296,-38.92
36.312,-32.68
36.328,-33.61
36.343,-40.04
36.359,-48.68
36.375,-56.2
36.390,-60.38
36.406,-60.67
36.421,-57.68
36.437,-52.38
36.453,-45.29
36.468,-36.31
36.484,-25.18
36.500,-12.24
36.515,1.07
36.531,12.33
36.546,18.99
36.562,19.49
36.578,14.11
36.593,4.89
36.609,-5.13
36.625,-13.21
36.640,-17.93
36.656,-19.43
36.671,-18.79
36.687,-16.94
36.703,-13.86
36.718,-8.56
36.734,0.08
36.750,12.32
36.765,26.78
36.781,40.62
36.796,50.54
36.812,54.14
36.828,50.93
36.843,42.59
36.859,32.18
36.875,22.9
36.890,17.0
36.906,15.23
36.921,17.12
36.937,21.63
36.953,27.79
36.968,34.91
36.984,42.33
37.000,49.02
37.015,53.46
37.031,53.91
37.046,49.03
37.062,38.54
37.078,23.52
37.093,6.16
37.109,-10.98
37.125,-25.82
37.140,-37.27
37.156,-45.26
37.171,-50.34
37.187,-53.05
37.203,-53.7
37.218,-52.52
37.234,-50.15
37.250,-47.74
37.265,-46.74
37.281,-48.17
37.296,-51.95
37.312,-56.73
37.328,-60.28
37.343,-60.53
37.359,-56.36
37.375,-48.17
37.390,-37.6
37.406,-26.82
37.421,-17.75
37.437,-11.38
37.453,-7.45
37.468,-4.6
37.484,-0.89
37.500,5.4
37.515,15.15
37.531,27.86
37.546,41.83
37.562,54.93
37.578,65.23
37.593,71.74
37.609,74.41
37.625,73.85
37.640,70.99
37.656,66.81
37.671,62.33
37.687,58.62
37.703,56.7
37.718,57.33
37.734,60.91
37.750,67.28
37.765,75.56
37.781,83.95
37.796,90.04
37.812,91.59
37.828,87.56
37.843,78.97
37.859,68.8
37.875,60.79
37.890,57.69
37.906,59.79
37.921,64.89
37.937,69.57
37.953,71.18
37.968,69.1
37.984,64.74
38.000,60.12
38.015,56.46
38.031,53.3
38.046,49.04
38.062,42.14
38.078,32.1
38.093,19.66
38.109,6.29
38.125,-6.6
38.140,-18.2
38.156,-28.32
38.171,-37.2
38.187,-45.05
38.203,-51.87
38.218,-57.55
38.234,-61.99
38.250,-65.2
38.265,-67.36
38.281,-68.72
38.296,-69.65
38.312,-70.46
38.328,-71.32
38.343,-72.22
38.359,-72.96
38.375,-73.22
38.390,-72.63
38.406,-70.93
38.421,-68.08
38.437,-64.22
38.453,-59.64
38.468,-54.66
38.484,-49.53
38.500,-44.32
38.515,-38.93
38.531,-33.23
38.546,-27.11
38.562,-20.6
38.578,-13.96
38.593,-7.53
38.609,-1.58
38.625,3.88
38.640,9.03
38.656,14.13
38.671,19.26
38.687,24.19
38.703,28.38
38.718,31.1
38.734,31.71
38.750,29.87
38.765,25.8
38.781,20.28
38.796,14.48
38.812,9.64
38.828,6.5
38.843,4.95
38.859,3.83
38.875,1.32
38.890,-4.4
38.906,-14.37
38.921,-28.38
38.937,-45.05
38.953,-62.31
38.968,-78.15
38.984,-91.13
39.000,-100.55
39.015,-106.34
39.031,-108.85
39.046,-108.57
39.062,-106.08
39.078,-102.01
39.093,-97.03
39.109,-91.76
39.125,-86.68
39.140,-82.04
39.156,-77.73
39.171,-73.41
39.187,-68.63
39.203,-63.0
39.218,-56.42
39.234,-49.13
39.250,-41.66
39.265,-34.67
39.281,-28.68
39.296,-23.97
39.312,-20.5
39.328,-18.02
39.343,-16.18
39.359,-14.65
39.375,-13.24
39.390,-11.85
39.406,-10.5
39.421,-9.25
39.437,-8.13
39.453,-7.1
39.468,-6.04
39.484,-4.81
39.500,-3.31
39.515,-1.6
39.531,0.13
39.546,1.62
39.562,2.67
39.578,3.24
39.593,3.46
39.609,3.51
39.625,3.48
39.640,3.3
39.656,2.78
39.671,1.7
39.687,-0.04
39.703,-2.33
39.718,-4.87
39.734,-7.22
39.750,-8.94
39.765,-9.66
39.781,-9.2
39.796,-7.63
39.812,-5.21
39.828,-2.28
39.843,0.8
39.859,3.76
39.875,6.46
39.890,8.81
39.906,10.78
39.921,12.33
39.937,13.37
39.953,13.88
39.968,13.86
39.984,13.39
40.000,12.62
40.015,11.69
40.031,10.69
40.046,9.69
40.062,8.71
40.078,7.71
40.093,6.68
40.109,5.62
40.125,4.59
40.140,3.68
40.156,2.98
40.171,2.48
40.187,2.12
40.203,1.78
40.218,1.36
40.234,0.87
40.250,0.42
40.265,0.13
40.281,0.03
40.296,0.01
40.312,-0.19
40.328,-0.84
40.343,-2.1
40.359,-3.94
40.375,-6.17
40.390,-8.52
40.406,-10.81
40.421,-12.96
40.437,-15.0
40.453,-16.98
40.468,-18.84
40.484,-20.46
40.500,-21.62
40.515,-22.13
40.531,-21.9
40.546,-21.05
40.562,-19.82
40.578,-18.5
40.593,-17.43
40.609,-16.83
40.625,-16.76
40.640,-17.12
40.656,-17.65
40.671,-18.02
40.687,-17.96
40.703,-17.3
40.718,-16.08
40.734,-14.45
40.750,-12.61
40.765,-10.71
40.781,-8.81
40.796,-6.9
40.812,-4.94
40.828,-2.92
40.843,-0.8
40.859,1.48
40.875,4.05
40.890,7.05
40.906,10.57
40.921,14.52
40.937,18.65
40.953,22.66
40.968,26.3
40.984,29.53
41.000,32.46
41.015,35.23
41.031,37.87
41.046,40.03
41.062,41.16
41.078,40.65
41.093,38.19
41.109,33.87
41.125,28.23
41.140,21.99
41.156,15.79
41.171,10.12
41.187,5.23
41.203,1.25
41.218,-1.71
41.234,-3.65
41.250,-4.74
41.265,-5.33
41.281,-5.96
41.296,-7.1
41.312,-8.98
41.328,-11.52
41.343,-14.36
41.359,-17.08
41.375,-19.41
41.390,-21.42
41.406,-23.43
41.421,-25.99
41.437,-29.51
41.453,-34.17
41.468,-39.69
41.484,-45.51
41.500,-50.93
41.515,-55.42
41.531,-58.74
41.546,-61.03
41.562,-62.85
41.578,-64.91
41.593,-67.96
41.609,-72.38
41.625,-77.89
41.640,-83.28
41.656,-86.71
41.671,-86.23
41.687,-80.62
41.703,-69.98
41.718,-55.66
41.734,-39.75
41.750,-24.19
41.765,-10.09
41.781,2.41
41.796,13.75
41.812,24.47
41.828,34.83
41.843,44.75
41.859,53.95
41.875,62.07
41.890,68.82
41.906,73.95
41.921,77.35
41.937,79.21
41.953,80.09
41.968,80.92
41.984,82.68
42.000,86.16
42.015,91.66
42.031,98.97
42.046,107.5
42.062,116.44
42.078,124.96
42.093,132.34
42.109,138.15
42.125,142.29
42.140,145.06
42.156,146.86
42.171,147.79
42.187,147.4
42.203,144.52
42.218,137.66
42.234,125.62
42.250,108.1
42.265,85.92
42.281,60.83
42.296,35.01
42.312,10.39
42.328,-11.65
42.343,-30.38
42.359,-45.56
42.375,-57.2
42.390,-65.46
42.406,-70.71
42.421,-73.51
42.437,-74.59
42.453,-74.66
42.468,-74.22
42.484,-73.45
42.500,-72.25
42.515,-70.42
42.531,-67.81
42.546,-64.45
42.562,-60.58
42.578,-56.45
42.593,-52.3
42.609,-48.26
42.625,-44.42
42.640,-40.83
42.656,-37.62
42.671,-34.98
42.687,-33.08
42.703,-31.98
42.718,-31.44
42.734,-31.01
42.750,-30.11
42.765,-28.34
42.781,-25.66
42.796,-22.56
42.812,-19.83
42.828,-18.25
42.843,-18.26
42.859,-19.68
42.875,-21.89
42.890,-24.19
42.906,-26.32
42.921,-28.68
42.937,-32.32
42.953,-38.45
42.968,-47.8
42.984,-60.0
43.000,-73.23
43.015,-84.44
43.031,-90.29
43.046,-88.29
43.062,-77.99
43.078,-61.31
43.093,-41.92
43.109,-24.06
43.125,-11.26
43.140,-5.46
43.156,-6.77
43.171,-13.92
43.187,-24.52
43.203,-35.36
43.218,-42.92
43.234,-44.09
43.250,-37.5
43.265,-24.6
43.281,-9.69
43.296,1.57
43.312,4.95
43.328,0.36
43.343,-7.64
43.359,-11.88
43.375,-6.26
43.390,10.69
43.406,34.9
43.421,58.88
43.437,75.6
43.453,81.8
43.468,79.18
43.484,72.54
43.500,66.49
43.515,62.96
43.531,60.75
43.546,57.47
43.562,52.15
43.578,46.56
43.593,44.42
43.609,48.74
43.625,59.09
43.640,70.87
43.656,77.33
43.671,72.87
43.687,56.33
43.703,32.02
43.718,7.64
43.734,-9.27
43.750,-14.88
43.765,-10.45
43.781,-0.92
43.796,8.01
43.812,12.54
43.828,11.83
43.843,7.3
43.859,0.9
43.875,-6.08
43.890,-13.07
43.906,-19.56
43.921,-24.45
43.937,-26.09
43.953,-23.45
43.968,-17.14
43.984,-9.72
44.000,-4.77
44.015,-5.0
44.031,-10.55
44.046,-18.67
44.062,-24.84
44.078,-24.99
44.093,-17.54
44.109,-4.08
44.125,11.39
44.140,24.32
44.156,31.61
44.171,32.48
44.187,28.24
44.203,21.18
44.218,13.23
44.234,5.38
44.250,-2.23
44.265,-9.66
44.281,-16.6
44.296,-22.22
44.312,-25.58
44.328,-26.35
44.343,-25.13
44.359,-23.26
44.375,-22.19
44.390,-22.59
44.406,-23.92
44.421,-24.63
44.437,-22.86
44.453,-17.35
44.468,-8.12
44.484,3.59
44.500,15.89
44.515,27.03
44.531,36.16
44.546,43.41
44.562,49.6
44.578,55.71
44.593,62.47
44.609,70.17
44.625,78.94
44.640,88.68
44.656,98.94
44.671,108.7
44.687,116.47
44.703,120.95
44.718,121.69
44.734,119.25
44.750,114.59
44.765,108.12
44.781,99.04
44.796,85.7
44.812,67.04
44.828,43.91
44.843,19.57
44.859,-1.41
44.875,-15.31
44.890,-21.12
44.906,-20.91
44.921,-18.62
44.937,-17.67
44.953,-19.31
44.968,-22.59
44.984,-25.82
45.000,-28.23
45.015,-30.87
45.031,-35.77
45.046,-44.31
45.062,-55.75
45.078,-66.95
45.093,-73.57
45.109,-72.28
45.125,-62.5
45.140,-46.69
45.156,-29.17
45.171,-13.9
45.187,-2.84
45.203,4.24
45.218,8.69
45.234,11.52
45.250,12.54
45.265,10.79
45.281,5.82
45.296,-1.3
45.312,-7.87
45.328,-10.64
45.343,-7.57
45.359,0.97
45.375,12.13
45.390,21.92
45.406,27.06
45.421,26.21
45.437,19.98
45.453,10.05
45.468,-1.97
45.484,-15.08
45.500,-28.61
45.515,-41.52
45.531,-52.03
45.546,-57.92
45.562,-57.46
45.578,-50.45
45.593,-38.67
45.609,-25.39
45.625,-14.0
45.640,-6.66
45.656,-3.58
45.671,-3.39
45.687,-4.27
45.703,-5.07
45.718,-5.84
45.734,-7.3
45.750,-9.94
45.765,-13.2
45.781,-15.33
45.796,-14.17
45.812,-8.43
45.828,1.33
45.843,12.74
45.859,22.6
45.875,28.32
45.890,28.86
45.906,24.82
45.921,17.68
45.937,8.86
45.953,-0.79
45.968,-10.69
45.984,-20.06
46.000,-27.51
46.015,-31.31
46.031,-30.22
46.046,-24.38
46.062,-15.54
46.078,-6.43
46.093,0.5
46.109,4.07
46.125,4.47
46.140,2.66
46.156,-0.56
46.171,-5.0
46.187,-10.76
46.203,-17.51
46.218,-23.93
46.234,-27.92
46.250,-27.36
46.265,-21.41
46.281,-11.24
46.296,0.31
46.312,9.8
46.328,14.84
46.343,15.05
46.359,11.98
46.375,8.0
46.390,5.13
46.406,3.97
46.421,3.9
46.437,3.84
46.453,3.06
46.468,1.63
46.484,0.02
46.500,-1.58
46.515,-3.86
46.531,-8.03
46.546,-15.11
46.562,-24.87
46.578,-35.28
46.593,-43.0
46.609,-44.7
46.625,-38.55
46.640,-25.09
46.656,-7.22
46.671,10.93
46.687,25.47
46.703,33.94
46.718,35.95
46.734,32.87
46.750,26.91
46.765,19.91
46.781,12.6
46.796,4.62
46.812,-4.46
46.828,-13.88
46.843,-21.25
46.859,-23.34
46.875,-17.96
46.890,-5.55
46.906,10.32
46.921,24.3
46.937,31.6
46.953,30.33
46.968,22.02
46.984,10.37
47.000,-1.19
47.015,-11.55
47.031,-22.08
47.046,-34.68
47.062,-49.16
47.078,-61.66
47.093,-65.79
47.109,-56.06
47.125,-31.62
47.140,2.09
47.156,35.06
47.171,57.17
47.187,63.26
47.203,55.72
47.218,43.27
47.234,36.35
47.250,41.64
47.265,58.81
47.281,81.39
47.296,100.9
47.312,111.7
47.328,113.66
47.343,111.29
47.359,109.99
47.375,112.28
47.390,116.21
47.406,116.52
47.421,108.07
47.437,88.87
47.453,61.3
47.468,30.87
47.484,3.46
47.500,-17.36
47.515,-31.27
47.531,-40.39
47.546,-47.44
47.562,-53.85
47.578,-59.2
47.593,-61.83
47.609,-60.28
47.625,-54.6
47.640,-46.8
47.656,-40.15
47.671,-37.85
47.687,-41.54
47.703,-50.51
47.718,-61.93
47.734,-72.0
47.750,-77.36
47.765,-76.28
47.781,-68.86
47.796,-56.54
47.812,-41.35
47.828,-25.14
47.843,-9.36
47.859,4.84
47.875,16.43
47.890,24.44
47.906,28.04
47.921,26.8
47.937,21.09
47.953,12.14
47.968,1.9
47.984,-7.3
48.000,-13.47
48.015,-15.27
48.031,-12.33
48.046,-5.23
48.062,4.64
48.078,15.39
48.093,24.92
48.109,31.19
48.125,32.5
48.140,27.79
48.156,17.21
48.171,2.34
48.187,-13.92
48.203,-27.97
48.218,-36.7
48.234,-38.44
48.250,-33.37
48.265,-23.26
48.281,-10.73
48.296,1.66
48.312,11.95
48.328,18.89
48.343,21.77
48.359,20.28
48.375,14.54
48.390,5.38
48.406,-5.54
48.421,-15.92
48.437,-23.31
48.453,-25.9
48.468,-22.93
48.484,-14.65
48.500,-2.18
48.515,12.92
48.531,28.71
48.546,43.04
48.562,53.61
48.578,58.34
48.593,55.97
48.609,46.79
48.625,32.87
48.640,17.62
48.656,4.77
48.671,-2.9
48.687,-4.31
48.703,0.01
48.718,8.54
48.734,19.5
48.750,31.21
48.765,41.95
48.781,49.57
48.796,51.8
48.812,46.97
48.828,35.16
48.843,18.84
48.859,2.23
48.875,-10.17
48.890,-15.44
48.906,-13.31
48.921,-6.0
48.937,3.35
48.953,12.1
48.968,18.87
48.984,23.37
49.000,25.43
49.015,24.36
49.031,18.96
49.046,8.44
49.062,-6.53
49.078,-23.31
49.093,-37.86
49.109,-46.62
49.125,-48.38
49.140,-45.38
49.156,-42.26
49.171,-43.56
49.187,-50.77
49.203,-61.01
49.218,-68.37
49.234,-67.12
49.250,-55.21
49.265,-35.63
49.281,-14.89
49.296,0.61
49.312,7.78
49.328,8.01
49.343,5.26
49.359,2.76
49.375,0.57
49.390,-4.1
49.406,-13.92
49.421,-28.1
49.437,-41.09
49.453,-44.83
49.468,-33.2
49.484,-5.91
49.500,30.52
49.515,65.58
49.531,89.66
49.546,97.97
49.562,91.71
49.578,75.71
49.593,54.69
49.609,30.48
49.625,2.06
49.640,-32.04
49.656,-70.39
49.671,-106.8
49.687,-131.62
49.703,-135.36
49.718,-113.3
49.734,-68.37
49.750,-10.85
49.765,44.85
49.781,85.16
49.796,102.03
49.812,94.76
49.828,68.81
49.843,32.26
49.859,-7.85
49.875,-47.23
49.890,-83.29
49.906,-112.66
49.921,-129.85
49.937,-128.39
49.953,-104.34
49.968,-60.07
49.984,-5.09
50.000,46.5
50.015,81.15
50.031,91.24
50.046,77.42
50.062,47.1
50.078,10.16
50.093,-25.68
50.109,-57.15
50.125,-84.11
50.140,-106.3
50.156,-120.78
50.171,-122.0
50.187,-104.94
50.203,-69.15
50.218,-20.89
50.234,28.15
50.250,65.14
50.265,81.18
50.281,74.35
50.296,49.47
50.312,15.0
50.328,-21.06
50.343,-53.54
50.359,-80.0
50.375,-98.74
50.390,-107.3
50.406,-102.44
50.421,-82.36
50.437,-49.17
50.453,-9.47
50.468,27.54
50.484,53.99
50.500,67.1
50.515,70.3
50.531,71.04
50.546,76.71
50.562,90.49
50.578,109.86
50.593,128.44
50.609,139.71
50.625,140.35
50.640,131.48
50.656,117.21
50.671,101.71
50.687,87.06
50.703,72.77
50.718,56.97
50.734,38.38
50.750,17.54
50.765,-3.23
50.781,-21.01
50.796,-33.67
50.812,-40.82
50.828,-43.59
50.843,-43.66
50.859,-42.17
50.875,-39.14
50.890,-33.83
50.906,-25.83
50.921,-15.96
50.937,-6.42
50.953,-0.19
50.968,0.27
50.984,-5.84
51.000,-17.2
51.015,-30.81
51.031,-42.99
51.046,-50.52
51.062,-51.43
51.078,-45.31
51.093,-33.09
51.109,-16.73
51.125,1.18
51.140,17.88
51.156,30.88
51.171,38.47
51.187,40.04
51.203,36.08
51.218,27.95
51.234,17.55
51.250,6.85
51.265,-2.32
51.281,-8.55
51.296,-10.95
51.312,-9.19
51.328,-3.46
51.343,5.69
51.359,17.48
51.375,31.01
51.390,45.12
51.406,58.37
51.421,69.01
51.437,75.39
51.453,76.42
51.468,72.0
51.484,63.01
51.500,51.16
51.515,38.33
51.531,26.21
51.546,15.93
51.562,8.01
51.578,2.63
51.593,-0.25
51.609,-0.59
51.625,1.77
51.640,7.12
51.656,15.57
51.671,26.65
51.687,39.08
51.703,50.92
51.718,60.25
51.734,65.88
51.750,67.89
51.765,67.53
51.781,66.49
51.796,66.1
51.812,66.73
51.828,67.86
51.843,68.43
51.859,67.52
51.875,64.69
51.890,59.9
51.906,53.39
51.921,45.46
51.937,36.4
51.953,26.45
51.968,15.88
51.984,4.8
52.000,-6.63
52.015,-18.24
52.031,-29.67
52.046,-40.37
52.062,-49.83
52.078,-57.65
52.093,-63.75
52.109,-68.21
52.125,-71.3
52.140,-73.2
52.156,-73.97
52.171,-73.68
52.187,-72.49
52.203,-70.75
52.218,-68.89
52.234,-67.25
52.250,-65.86
52.265,-64.43
52.281,-62.43
52.296,-59.5
52.312,-55.5
52.328,-50.63
52.343,-45.2
52.359,-39.43
52.375,-33.32
52.390,-26.75
52.406,-19.83
52.421,-12.95
52.437,-6.74
52.453,-1.83
52.468,1.61
52.484,3.95
52.500,6.1
52.515,9.13
52.531,13.87
52.546,20.6
52.562,29.0
52.578,38.31
52.593,47.4
52.609,55.04
52.625,59.84
52.640,60.49
52.656,56.05
52.671,46.4
52.687,32.5
52.703,16.36
52.718,0.5
52.734,-12.83
52.750,-22.39
52.765,-28.24
52.781,-31.52
52.796,-33.8
52.812,-36.41
52.828,-40.02
52.843,-44.59
52.859,-49.79
52.875,-55.26
52.890,-60.68
52.906,-65.79
52.921,-70.19
52.937,-73.27
52.953,-74.47
52.968,-73.53
52.984,-70.6
53.000,-66.32
53.015,-61.48
53.031,-56.79
53.046,-52.61
53.062,-48.97
53.078,-45.64
53.093,-42.33
53.109,-38.87
53.125,-35.25
53.140,-31.6
53.156,-28.14
53.171,-25.1
53.187,-22.63
53.203,-20.79
53.218,-19.57
53.234,-18.82
53.250,-18.33
53.265,-17.87
53.281,-17.31
53.296,-16.56
53.312,-15.68
53.328,-14.82
53.343,-14.12
53.359,-13.65
53.375,-13.32
53.390,-12.98
53.406,-12.47
53.421,-11.79
53.437,-11.1
53.453,-10.61
53.468,-10.47
53.484,-10.6
53.500,-10.7
53.515,-10.38
53.531,-9.33
53.546,-7.52
53.562,-5.13
53.578,-2.56
53.593,-0.19
53.609,1.66
53.625,2.83
53.640,3.23
53.656,2.96
53.671,2.16
53.687,1.04
53.703,-0.16
53.718,-1.31
53.734,-2.33
53.750,-3.27
53.765,-4.15
53.781,-4.99
53.796,-5.73
53.812,-6.3
53.828,-6.69
53.843,-6.97
53.859,-7.27
53.875,-7.69
53.890,-8.29
53.906,-9.06
53.921,-9.91
53.937,-10.77
53.953,-11.59
53.968,-12.36
53.984,-13.05
54.000,-13.62
54.015,-13.9
54.031,-13.69
54.046,-12.81
54.062,-11.24
54.078,-9.17
54.093,-7.03
54.109,-5.31
54.125,-4.28
54.140,-3.97
54.156,-4.07
54.171,-4.18
54.187,-4.06
54.203,-3.75
54.218,-3.62
54.234,-4.09
54.250,-5.46
54.265,-7.74
54.281,-10.64
54.296,-13.72
54.312,-16.59
54.328,-18.93
54.343,-20.52
54.359,-21.26
54.375,-21.08
54.390,-20.04
54.406,-18.35
54.421,-16.39
54.437,-14.57
54.453,-13.26
54.468,-12.63
54.484,-12.59
54.500,-12.89
54.515,-13.15
54.531,-13.1
54.546,-12.61
54.562,-11.77
54.578,-10.82
54.593,-10.01
54.609,-9.57
54.625,-9.54
54.640,-9.84
54.656,-10.21
54.671,-10.35
54.687,-9.98
54.703,-8.92
54.718,-7.19
54.734,-4.95
54.750,-2.47
54.765,-0.09
54.781,1.92
54.796,3.44
54.812,4.51
54.828,5.35
54.843,6.26
54.859,7.5
54.875,9.15
54.890,11.18
54.906,13.38
54.921,15.53
54.937,17.53
54.953,19.33
54.968,21.11
54.984,23.11
55.000,25.61
55.015,28.75
55.031,32.42
55.046,36.15
55.062,39.25
55.078,41.01
55.093,40.93
55.109,38.82
55.125,34.8
55.140,29.01
55.156,21.52
55.171,12.36
55.187,1.59
55.203,-10.46
55.218,-23.23
55.234,-36.19
55.250,-48.96
55.265,-61.28
55.281,-72.85
55.296,-83.02
55.312,-90.72
55.328,-94.77
55.343,-94.39
55.359,-89.58
55.375,-81.17
55.390,-70.53
55.406,-59.06
55.421,-47.77
55.437,-37.14
55.453,-27.18
55.468,-17.53
55.484,-7.71
55.500,2.76
55.515,14.17
55.531,26.65
55.546,40.1
55.562,54.32
55.578,69.19
55.593,84.56
55.609,100.13
55.625,115.12
55.640,128.31
55.656,138.29
55.671,144.02
55.687,145.29
55.703,142.77
55.718,137.73
55.734,131.39
55.750,124.38
55.765,116.55
55.781,107.38
55.796,96.45
55.812,83.85
55.828,70.3
55.843,56.8
55.859,44.25
55.875,33.2
55.890,23.8
55.906,15.89
55.921,9.32
55.937,4.19
55.953,0.94
55.968,0.05
55.984,1.73
56.000,5.68
56.015,11.04
56.031,16.63
56.046,21.08
56.062,23.28
56.078,22.82
56.093,20.26
56.109,16.91
56.125,14.3
56.140,13.73
56.156,15.97
56.171,21.11
56.187,28.35
56.203,36.23
56.218,43.27
56.234,48.53
56.250,51.71
56.265,52.98
56.281,52.86
56.296,52.14
56.312,51.71
56.328,51.94
56.343,52.33
56.359,51.61
56.375,47.94
56.390,39.4
56.406,24.39
56.421,2.42
56.437,-25.24
56.453,-52.91
56.468,-72.65
56.484,-78.57
56.500,-70.03
56.515,-50.86
56.531,-26.29
56.546,-0.8
56.562,22.83
56.578,43.35
56.593,60.66
56.609,74.35
56.625,84.44
56.640,90.77
56.656,93.11
56.671,91.75
56.687,87.18
56.703,79.83
56.718,69.71
56.734,56.51
56.750,39.33
56.765,17.0
56.781,-8.47
56.796,-34.39
56.812,-57.55
56.828,-75.59
56.843,-87.82
56.859,-95.34
56.875,-99.98
56.890,-103.33
56.906,-105.63
56.921,-105.64
56.937,-101.61
56.953,-92.21
56.968,-77.44
56.984,-58.65
57.000,-37.96
57.015,-17.52
57.031,0.76
57.046,15.2
57.062,24.38
57.078,26.91
57.093,22.16
57.109,10.39
57.125,-7.23
57.140,-28.71
57.156,-51.59
57.171,-73.41
57.187,-91.68
57.203,-104.03
57.218,-108.47
57.234,-103.69
57.250,-89.5
57.265,-67.05
57.281,-38.61
57.296,-6.85
57.312,25.91
57.328,58.0
57.343,88.09
57.359,114.54
57.375,134.92
57.390,146.24
57.406,145.88
57.421,132.92
57.437,108.99
57.453,78.1
57.468,45.3
57.484,15.05
57.500,-10.31
57.515,-30.66
57.531,-47.42
57.546,-62.3
57.562,-76.27
57.578,-89.32
57.593,-100.67
57.609,-109.14
57.625,-113.27
57.640,-111.42
57.656,-102.1
57.671,-84.77
57.687,-60.69
57.703,-33.16
57.718,-6.88
57.734,13.55
57.750,25.13
57.765,27.21
57.781,21.08
57.796,9.0
57.812,-6.83
57.828,-24.67
57.843,-42.84
57.859,-59.45
57.875,-72.52
57.890,-80.6
57.906,-83.41
57.921,-81.78
57.937,-77.02
57.953,-70.2
57.968,-61.86
57.984,-52.2
58.000,-41.49
58.015,-30.39
58.031,-19.81
58.046,-10.68
58.062,-3.64
58.078,0.94
58.093,2.81
58.109,1.6
58.125,-3.03
58.140,-11.12
58.156,-21.99
58.171,-34.0
58.187,-44.9
58.203,-52.47
58.218,-55.28
58.234,-53.27
58.250,-47.72
58.265,-40.67
58.281,-34.16
58.296,-29.3
58.312,-25.96
58.328,-23.26
58.343,-20.47
58.359,-17.86
58.375,-16.67
58.390,-18.38
58.406,-23.42
58.421,-30.57
58.437,-37.28
58.453,-40.85
58.468,-39.84
58.484,-34.58
58.500,-26.73
58.515,-18.1
58.531,-9.68
58.546,-1.44
58.562,6.97
58.578,15.17
58.593,21.68
58.609,24.27
58.625,21.05
58.640,11.53
58.656,-2.98
58.671,-19.76
58.687,-35.69
58.703,-48.18
58.718,-55.61
58.734,-57.39
58.750,-53.68
58.765,-45.22
58.781,-33.24
58.796,-19.39
58.812,-5.69
58.828,5.8
58.843,13.28
58.859,15.55
58.875,12.32
58.890,4.42
58.906,-6.26
58.921,-17.18
58.937,-25.7
58.953,-29.75
58.968,-28.29
58.984,-21.53
59.000,-10.82
59.015,1.89
59.031,14.4
59.046,24.83
59.062,31.8
59.078,34.53
59.093,32.81
59.109,26.99
59.125,18.04
59.140,7.52
59.156,-2.65
59.171,-10.55
59.187,-14.66
59.203,-14.14
59.218,-9.1
59.234,-0.47
59.250,10.1
59.265,20.62
59.281,29.2
59.296,34.38
59.312,35.27
59.328,31.55
59.343,23.45
59.359,11.74
59.375,-2.14
59.390,-16.03
59.406,-27.24
59.421,-33.19
59.437,-32.2
59.453,-24.23
59.468,-11.06
59.484,4.14
59.500,17.87
59.515,27.38
59.531,31.26
59.546,29.51
59.562,23.07
59.578,13.23
59.593,1.48
59.609,-10.49
59.625,-20.72
59.640,-27.04
59.656,-27.58
59.671,-21.42
59.687,-9.08
59.703,7.27
59.718,24.39
59.734,39.02
59.750,48.85
59.765,53.08
59.781,52.35
59.796,48.04
59.812,41.42
59.828,33.26
59.843,24.02
59.859,14.34
59.875,5.44
59.890,-0.99
59.906,-3.38
59.921,-0.88
59.937,6.16
59.953,16.26
59.968,27.33
59.984,37.27
