timestamp,value
00.000,-334.51
00.015,-289.54
00.031,-252.09
00.046,-221.81
00.062,-197.71
00.078,-178.65
00.093,-163.02
00.109,-148.67
00.125,-133.1
00.140,-114.17
00.156,-90.84
00.171,-63.38
00.187,-32.57
00.203,0.76
00.218,36.24
00.234,73.89
00.250,113.43
00.265,153.85
00.281,193.88
00.296,232.73
00.312,270.61
00.328,308.27
00.343,345.54
00.359,379.96
00.375,407.4
00.390,424.13
00.406,429.61
00.421,427.81
00.437,425.49
00.453,428.33
00.468,437.66
00.484,450.15
00.500,460.88
00.515,467.57
00.531,472.24
00.546,479.27
00.562,490.95
00.578,504.04
00.593,510.1
00.609,499.84
00.625,468.66
00.640,419.63
00.656,361.96
00.671,306.17
00.687,259.23
00.703,222.63
00.718,193.53
00.734,168.12
00.750,144.53
00.765,123.51
00.781,107.27
00.796,97.77
00.812,95.33
00.828,98.47
00.843,105.0
00.859,112.75
00.875,120.48
00.890,128.13
00.906,136.1
00.921,144.45
00.937,152.29
00.953,157.59
00.968,157.8
00.984,150.76
01.000,135.58
01.015,112.93
01.031,84.86
01.046,54.04
01.062,22.79
01.078,-7.61
01.093,-37.15
01.109,-66.45
01.125,-96.15
01.140,-126.16
01.156,-155.43
01.171,-182.45
01.187,-205.91
01.203,-225.32
01.218,-241.27
01.234,-255.41
01.250,-269.41
01.265,-284.46
01.281,-301.0
01.296,-318.94
01.312,-337.88
01.328,-357.32
01.343,-376.26
01.359,-392.48
01.375,-402.59
01.390,-402.55
01.406,-389.26
01.421,-362.08
01.437,-323.86
01.453,-279.96
01.468,-236.22
01.484,-196.61
01.500,-162.01
01.515,-131.32
01.531,-103.45
01.546,-78.95
01.562,-59.58
01.578,-46.27
01.593,-37.15
01.609,-27.05
01.625,-9.74
01.640,18.86
01.656,57.73
01.671,101.14
01.687,141.06
01.703,171.23
01.718,189.46
01.734,197.17
01.750,197.24
01.765,191.6
01.781,180.33
01.796,162.56
01.812,138.19
01.828,108.86
01.843,77.88
01.859,49.22
01.875,25.85
01.890,9.07
01.906,-2.21
01.921,-10.69
01.937,-20.04
01.953,-33.33
01.968,-52.05
01.984,-75.34
02.000,-100.31
02.015,-123.33
02.031,-141.26
02.046,-152.94
02.062,-159.17
02.078,-162.32
02.093,-165.19
02.109,-170.16
02.125,-178.82
02.140,-191.46
02.156,-207.28
02.171,-224.17
02.187,-239.25
02.203,-249.75
02.218,-254.0
02.234,-251.81
02.250,-244.34
02.265,-233.17
02.281,-219.6
02.296,-204.4
02.312,-188.3
02.328,-172.74
02.343,-160.18
02.359,-153.11
02.375,-152.88
02.390,-158.44
02.406,-166.39
02.421,-172.41
02.437,-173.81
02.453,-170.96
02.468,-166.66
02.484,-163.15
02.500,-159.53
02.515,-150.83
02.531,-130.78
02.546,-96.82
02.562,-53.26
02.578,-11.04
02.593,17.09
02.609,22.6
02.625,5.29
02.640,-27.55
02.656,-65.8
02.671,-102.28
02.687,-135.44
02.703,-168.01
02.718,-203.08
02.734,-240.57
02.750,-276.58
02.765,-305.47
02.781,-323.11
02.796,-328.72
02.812,-324.75
02.828,-315.09
02.843,-303.08
02.859,-290.56
02.875,-277.84
02.890,-264.74
02.906,-251.48
02.921,-238.9
02.937,-228.54
02.953,-222.02
02.968,-220.28
02.984,-222.85
03.000,-228.12
03.015,-233.5
03.031,-236.31
03.046,-234.58
03.062,-227.64
03.078,-216.16
03.093,-201.56
03.109,-185.58
03.125,-169.56
03.140,-154.11
03.156,-139.33
03.171,-124.95
03.187,-110.79
03.203,-96.91
03.218,-83.68
03.234,-71.36
03.250,-60.2
03.265,-50.11
03.281,-40.8
03.296,-31.83
03.312,-22.75
03.328,-13.47
03.343,-4.1
03.359,4.96
03.375,13.39
03.390,20.9
03.406,27.46
03.421,33.31
03.437,38.81
03.453,44.48
03.468,50.69
03.484,57.76
03.500,65.82
03.515,74.81
03.531,84.45
03.546,94.51
03.562,104.65
03.578,114.55
03.593,123.99
03.609,132.75
03.625,140.65
03.640,147.62
03.656,153.7
03.671,159.01
03.687,164.04
03.703,169.44
03.718,175.82
03.734,183.77
03.750,193.59
03.765,205.13
03.781,217.86
03.796,230.9
03.812,243.48
03.828,255.12
03.843,265.92
03.859,276.53
03.875,287.98
03.890,301.41
03.906,317.46
03.921,336.05
03.937,355.9
03.953,375.32
03.968,392.34
03.984,405.49
04.000,414.23
04.015,418.54
04.031,418.53
04.046,413.68
04.062,402.78
04.078,384.1
04.093,356.77
04.109,321.54
04.125,281.08
04.140,239.33
04.156,200.19
04.171,166.61
04.187,140.25
04.203,122.1
04.218,112.56
04.234,111.23
04.250,116.07
04.265,123.21
04.281,127.82
04.296,125.79
04.312,115.94
04.328,100.78
04.343,85.33
04.359,74.29
04.375,69.6
04.390,69.73
04.406,71.06
04.421,70.8
04.437,68.74
04.453,67.5
04.468,70.26
04.484,78.52
04.500,90.99
04.515,103.98
04.531,113.29
04.546,116.0
04.562,111.72
04.578,102.1
04.593,90.04
04.609,77.83
04.625,66.35
04.640,55.19
04.656,42.94
04.671,28.56
04.687,11.97
04.703,-5.71
04.718,-22.65
04.734,-37.22
04.750,-48.6
04.765,-57.12
04.781,-63.56
04.796,-68.5
04.812,-71.81
04.828,-72.54
04.843,-69.54
04.859,-62.27
04.875,-51.19
04.890,-37.59
04.906,-23.44
04.921,-11.09
04.937,-2.98
04.953,-0.73
04.968,-4.63
04.984,-12.91
05.000,-22.07
05.015,-28.19
05.031,-28.64
05.046,-23.58
05.062,-15.69
05.078,-9.26
05.093,-7.99
05.109,-13.52
05.125,-24.71
05.140,-38.12
05.156,-49.45
05.171,-55.27
05.187,-54.32
05.203,-47.94
05.218,-39.28
05.234,-31.86
05.250,-28.23
05.265,-28.87
05.281,-32.29
05.296,-36.06
05.312,-38.23
05.328,-37.84
05.343,-34.84
05.359,-29.48
05.375,-21.9
05.390,-12.44
05.406,-1.95
05.421,7.84
05.437,14.72
05.453,17.23
05.468,15.16
05.484,9.65
05.500,2.5
05.515,-4.75
05.531,-11.12
05.546,-16.18
05.562,-19.34
05.578,-19.72
05.593,-16.31
05.609,-8.92
05.625,1.4
05.640,12.37
05.656,21.36
05.671,26.4
05.687,26.82
05.703,23.24
05.718,17.08
05.734,10.03
05.750,3.28
05.765,-2.77
05.781,-8.17
05.796,-13.23
05.812,-17.91
05.828,-21.63
05.843,-23.63
05.859,-23.48
05.875,-21.23
05.890,-17.74
05.906,-14.56
05.921,-13.3
05.937,-15.44
05.953,-21.19
05.968,-29.4
05.984,-37.55
06.000,-42.81
06.015,-42.88
06.031,-36.98
06.046,-26.19
06.062,-13.05
06.078,-0.99
06.093,7.14
06.109,9.69
06.125,7.07
06.140,1.49
06.156,-3.63
06.171,-5.06
06.187,-1.03
06.203,7.84
06.218,18.64
06.234,27.86
06.250,32.68
06.265,32.51
06.281,28.87
06.296,24.07
06.312,19.58
06.328,15.22
06.343,9.7
06.359,1.69
06.375,-8.49
06.390,-18.66
06.406,-25.37
06.421,-25.35
06.437,-17.26
06.453,-2.39
06.468,15.49
06.484,31.62
06.500,41.93
06.515,44.56
06.531,40.06
06.546,30.85
06.562,19.88
06.578,9.3
06.593,0.29
06.609,-6.7
06.625,-11.25
06.640,-12.87
06.656,-11.24
06.671,-7.11
06.687,-2.14
06.703,1.71
06.718,2.53
06.734,-0.49
06.750,-7.25
06.765,-17.22
06.781,-29.52
06.796,-42.99
06.812,-55.75
06.828,-65.25
06.843,-68.73
06.859,-64.62
06.875,-53.07
06.890,-36.51
06.906,-18.53
06.921,-2.66
06.937,8.42
06.953,13.48
06.968,12.9
06.984,8.41
07.000,2.5
07.015,-1.99
07.031,-3.05
07.046,-0.14
07.062,5.75
07.078,12.5
07.093,17.87
07.109,20.59
07.125,20.43
07.140,17.61
07.156,12.49
07.171,5.16
07.187,-4.16
07.203,-14.25
07.218,-22.83
07.234,-27.12
07.250,-24.91
07.265,-15.92
07.281,-2.33
07.296,11.99
07.312,22.73
07.328,26.85
07.343,23.46
07.359,14.09
07.375,2.02
07.390,-9.06
07.406,-16.24
07.421,-17.91
07.437,-14.11
07.453,-6.1
07.468,4.15
07.484,14.5
07.500,22.7
07.515,26.86
07.531,25.73
07.546,18.79
07.562,6.76
07.578,-8.44
07.593,-23.98
07.609,-36.78
07.625,-44.31
07.640,-45.27
07.656,-40.11
07.671,-30.65
07.687,-19.65
07.703,-9.7
07.718,-2.51
07.734,1.71
07.750,4.03
07.765,6.2
07.781,9.7
07.796,15.1
07.812,21.76
07.828,27.88
07.843,31.53
07.859,31.13
07.875,26.54
07.890,19.02
07.906,10.74
07.921,4.09
07.937,0.63
07.953,0.89
07.968,4.06
07.984,9.08
08.000,14.73
08.015,20.02
08.031,24.25
08.046,27.02
08.062,27.96
08.078,26.69
08.093,23.32
08.109,18.39
08.125,13.18
08.140,9.33
08.156,8.12
08.171,9.78
08.187,13.12
08.203,15.93
08.218,15.67
08.234,11.01
08.250,2.44
08.265,-7.94
08.281,-17.6
08.296,-24.86
08.312,-29.36
08.328,-31.98
08.343,-33.77
08.359,-35.45
08.375,-37.02
08.390,-38.41
08.406,-39.66
08.421,-41.09
08.437,-42.73
08.453,-43.91
08.468,-43.4
08.484,-39.95
08.500,-33.06
08.515,-23.2
08.531,-11.9
08.546,-0.56
08.562,9.9
08.578,19.33
08.593,27.94
08.609,35.65
08.625,41.66
08.640,44.97
08.656,45.31
08.671,43.31
08.687,40.8
08.703,39.91
08.718,42.07
08.734,47.62
08.750,55.93
08.765,66.05
08.781,77.06
08.796,88.1
08.812,98.12
08.828,105.77
08.843,109.71
08.859,109.15
08.875,104.64
08.890,97.96
08.906,91.91
08.921,88.87
08.937,90.38
08.953,96.39
08.968,105.37
08.984,114.89
09.000,122.35
09.015,126.34
09.031,127.2
09.046,127.44
09.062,129.14
09.078,133.97
09.093,141.69
09.109,150.22
09.125,156.56
09.140,158.11
09.156,153.22
09.171,140.93
09.187,121.36
09.203,92.85
09.218,55.36
09.234,10.58
09.250,-37.67
09.265,-84.26
09.281,-124.46
09.296,-155.8
09.312,-178.62
09.328,-194.29
09.343,-208.06
09.359,-223.19
09.375,-240.89
09.390,-259.56
09.406,-274.76
09.421,-280.08
09.437,-269.12
09.453,-237.84
09.468,-184.46
09.484,-115.44
09.500,-38.4
09.515,38.76
09.531,110.48
09.546,174.99
09.562,233.43
09.578,287.23
09.593,323.78
09.609,352.12
09.625,363.07
09.640,350.42
09.656,312.39
09.671,253.26
09.687,182.36
09.703,110.53
09.718,46.23
09.734,-6.53
09.750,-46.33
09.765,-77.51
09.781,-101.99
09.796,-119.89
09.812,-129.92
09.828,-131.28
09.843,-125.48
09.859,-116.76
09.875,-110.29
09.890,-108.36
09.906,-112.83
09.921,-120.5
09.937,-125.68
09.953,-122.47
09.968,-107.1
09.984,-79.36
10.000,-42.51
10.015,-1.92
10.031,37.21
10.046,68.08
10.062,85.28
10.078,85.08
10.093,66.09
10.109,29.23
10.125,-22.92
10.140,-87.0
10.156,-159.44
10.171,-236.29
10.187,-314.09
10.203,-388.44
10.218,-454.39
10.234,-506.09
10.250,-539.07
10.265,-552.55
10.281,-549.4
10.296,-534.55
10.312,-513.01
10.328,-488.74
10.343,-463.56
10.359,-437.16
10.375,-405.42
10.390,-363.42
10.406,-309.74
10.421,-248.47
10.437,-188.28
10.453,-140.04
10.468,-112.95
10.484,-110.66
10.500,-128.71
10.515,-152.07
10.531,-160.69
10.546,-138.25
10.562,-77.88
10.578,18.09
10.593,139.77
10.609,273.21
10.625,404.01
10.640,503.75
10.656,548.71
10.671,537.4
10.687,486.46
10.703,415.03
10.718,335.79
10.734,254.13
10.750,172.67
10.765,93.27
10.781,18.4
10.796,-47.12
10.812,-97.21
10.828,-130.93
10.843,-155.57
10.859,-176.96
10.875,-198.52
10.890,-219.51
10.906,-236.62
10.921,-245.42
10.937,-240.28
10.953,-214.81
10.968,-168.92
10.984,-109.09
11.000,-44.63
11.015,15.96
11.031,68.95
11.046,115.48
11.062,155.69
11.078,192.24
11.093,231.59
11.109,277.19
11.125,327.81
11.140,379.81
11.156,428.88
11.171,473.73
11.187,514.72
11.203,553.18
11.218,568.22
11.234,547.2
11.250,490.98
11.265,413.99
11.281,334.47
11.296,262.38
11.312,199.25
11.328,139.98
11.343,79.4
11.359,17.17
11.375,-38.42
11.390,-76.68
11.406,-90.52
11.421,-79.54
11.437,-51.02
11.453,-12.31
11.468,27.31
11.484,61.18
11.500,85.68
11.515,101.48
11.531,109.05
11.546,106.83
11.562,92.42
11.578,57.84
11.593,7.76
11.609,-50.11
11.625,-107.76
11.640,-158.89
11.656,-198.79
11.671,-226.37
11.687,-243.96
11.703,-255.2
11.718,-264.1
11.734,-271.93
11.750,-279.55
11.765,-286.98
11.781,-294.02
11.796,-300.08
11.812,-305.02
11.828,-313.02
11.843,-323.0
11.859,-334.45
11.875,-345.5
11.890,-353.99
11.906,-356.15
11.921,-346.94
11.937,-321.73
11.953,-278.6
11.968,-220.48
11.984,-154.21
12.000,-89.96
12.015,-36.56
12.031,0.11
12.046,19.25
12.062,24.23
12.078,19.77
12.093,9.91
12.109,-3.11
12.125,-17.69
12.140,-33.05
12.156,-47.41
12.171,-58.52
12.187,-65.98
12.203,-68.52
12.218,-64.91
12.234,-53.91
12.250,-34.26
12.265,-3.92
12.281,38.67
12.296,94.21
12.312,161.8
12.328,239.54
12.343,323.29
12.359,407.45
12.375,485.79
12.390,552.13
12.406,601.26
12.421,628.94
12.437,632.05
12.453,609.11
12.468,562.43
12.484,496.06
12.500,416.72
12.515,332.68
12.531,252.89
12.546,186.04
12.562,139.63
12.578,119.32
12.593,116.5
12.609,125.7
12.625,140.05
12.640,152.04
12.656,153.27
12.671,137.19
12.687,102.2
12.703,53.09
12.718,-0.83
12.734,-49.43
12.750,-81.52
12.765,-98.05
12.781,-101.87
12.796,-96.26
12.812,-83.28
12.828,-63.59
12.843,-37.15
12.859,-5.15
12.875,29.81
12.890,65.46
12.906,97.49
12.921,123.48
12.937,142.22
12.953,153.25
12.968,156.47
12.984,151.35
13.000,136.78
13.015,111.7
13.031,76.64
13.046,33.18
13.062,-14.52
13.078,-61.09
13.093,-101.44
13.109,-131.9
13.125,-151.36
13.140,-161.43
13.156,-165.7
13.171,-168.01
13.187,-171.81
13.203,-178.49
13.218,-188.08
13.234,-200.07
13.250,-213.84
13.265,-229.61
13.281,-248.6
13.296,-272.55
13.312,-303.24
13.328,-342.4
13.343,-390.69
13.359,-447.1
13.375,-507.88
13.390,-565.67
13.406,-610.85
13.421,-633.92
13.437,-628.69
13.453,-594.71
13.468,-537.6
13.484,-466.78
13.500,-392.08
13.515,-320.61
13.531,-254.92
13.546,-194.47
13.562,-137.83
13.578,-84.44
13.593,-35.08
13.609,8.9
13.625,46.72
13.640,78.62
13.656,105.49
13.671,129.31
13.687,151.33
13.703,171.31
13.718,187.39
13.734,197.28
13.750,199.36
13.765,193.06
13.781,178.45
13.796,155.97
13.812,127.99
13.828,96.28
13.843,61.17
13.859,22.2
13.875,-19.57
13.890,-59.99
13.906,-93.16
13.921,-114.26
13.937,-122.05
13.953,-116.23
13.968,-99.86
13.984,-78.78
14.000,-59.44
14.015,-45.58
14.031,-36.56
14.046,-28.48
14.062,-16.23
14.078,5.17
14.093,44.49
14.109,108.51
14.125,198.17
14.140,306.98
14.156,423.88
14.171,537.25
14.187,637.82
14.203,720.25
14.218,753.79
14.234,719.05
14.250,619.86
14.265,483.0
14.281,338.98
14.296,206.9
14.312,92.9
14.328,-4.24
14.343,-88.19
14.359,-162.36
14.375,-224.6
14.390,-272.0
14.406,-304.29
14.421,-325.6
14.437,-340.51
14.453,-351.48
14.468,-359.07
14.484,-362.89
14.500,-362.29
14.515,-353.8
14.531,-335.23
14.546,-307.87
14.562,-276.36
14.578,-245.99
14.593,-220.5
14.609,-201.29
14.625,-190.64
14.640,-189.35
14.656,-195.01
14.671,-204.32
14.687,-214.77
14.703,-225.14
14.718,-234.39
14.734,-240.9
14.750,-242.59
14.765,-237.74
14.781,-225.37
14.796,-204.74
14.812,-176.49
14.828,-143.1
14.843,-108.39
14.859,-76.39
14.875,-50.28
14.890,-32.08
14.906,-22.5
14.921,-20.94
14.937,-25.45
14.953,-33.65
14.968,-43.32
14.984,-52.82
15.000,-60.89
15.015,-66.56
15.031,-69.24
15.046,-68.73
15.062,-64.99
15.078,-57.92
15.093,-47.53
15.109,-33.62
15.125,-16.1
15.140,5.01
15.156,29.3
15.171,55.99
15.187,83.91
15.203,111.62
15.218,137.67
15.234,160.47
15.250,178.65
15.265,191.04
15.281,196.91
15.296,196.0
15.312,188.65
15.328,175.6
15.343,158.19
15.359,138.25
15.375,117.93
15.390,99.47
15.406,84.75
15.421,74.91
15.437,70.52
15.453,71.55
15.468,77.6
15.484,87.98
15.500,102.0
15.515,119.12
15.531,139.0
15.546,161.44
15.562,186.01
15.578,212.49
15.593,240.64
15.609,269.91
15.625,299.19
15.640,326.76
15.656,350.35
15.671,367.56
15.687,376.55
15.703,376.28
15.718,366.68
15.734,348.34
15.750,322.22
15.765,289.43
15.781,251.28
15.796,209.63
15.812,166.93
15.828,126.06
15.843,89.66
15.859,59.39
15.875,35.55
15.890,17.38
15.906,3.81
15.921,-6.13
15.937,-12.94
15.953,-16.86
15.968,-17.89
15.984,-16.26
16.000,-12.47
16.015,-7.22
16.031,-1.26
16.046,4.77
16.062,9.99
16.078,13.4
16.093,14.08
16.109,11.78
16.125,7.11
16.140,1.52
16.156,-3.25
16.171,-5.94
16.187,-6.09
16.203,-4.05
16.218,-0.32
16.234,5.02
16.250,12.53
16.265,22.87
16.281,35.88
16.296,50.05
16.312,62.55
16.328,70.59
16.343,72.6
16.359,69.28
16.375,62.96
16.390,56.21
16.406,50.43
16.421,45.37
16.437,39.68
16.453,32.12
16.468,22.61
16.484,12.2
16.500,2.58
16.515,-5.12
16.531,-10.7
16.546,-14.9
16.562,-18.59
16.578,-22.1
16.593,-25.2
16.609,-27.22
16.625,-27.68
16.640,-26.44
16.656,-23.81
16.671,-20.32
16.687,-16.56
16.703,-12.99
16.718,-9.7
16.734,-6.58
16.750,-3.35
16.765,-0.05
16.781,3.01
16.796,5.23
16.812,6.15
16.828,5.68
16.843,4.06
16.859,1.63
16.875,-1.48
16.890,-5.18
16.906,-9.33
16.921,-13.26
16.937,-15.98
16.953,-16.7
16.968,-15.44
16.984,-13.44
17.000,-12.45
17.015,-13.78
17.031,-17.12
17.046,-20.74
17.062,-22.41
17.078,-20.96
17.093,-16.91
17.109,-11.97
17.125,-8.05
17.140,-5.77
17.156,-4.54
17.171,-2.93
17.187,0.04
17.203,4.19
17.218,8.19
17.234,10.36
17.250,9.7
17.265,6.18
17.281,0.9
17.296,-4.79
17.312,-9.65
17.328,-13.14
17.343,-15.36
17.359,-16.78
17.375,-18.0
17.390,-19.31
17.406,-20.87
17.421,-22.7
17.437,-24.91
17.453,-27.61
17.468,-31.0
17.484,-35.08
17.500,-39.55
17.515,-43.96
17.531,-47.83
17.546,-50.88
17.562,-52.99
17.578,-54.07
17.593,-54.1
17.609,-53.15
17.625,-51.46
17.640,-49.38
17.656,-47.38
17.671,-45.82
17.687,-44.87
17.703,-44.25
17.718,-43.27
17.734,-41.17
17.750,-37.39
17.765,-31.88
17.781,-25.11
17.796,-18.06
17.812,-11.74
17.828,-6.82
17.843,-3.32
17.859,-0.7
17.875,1.74
17.890,4.5
17.906,7.56
17.921,10.49
17.937,12.74
17.953,14.07
17.968,14.62
17.984,14.86
18.000,15.37
18.015,16.5
18.031,18.22
18.046,20.25
18.062,21.97
18.078,22.77
18.093,22.39
18.109,20.9
18.125,18.86
18.140,17.1
18.156,16.26
18.171,16.62
18.187,17.95
18.203,19.56
18.218,20.66
18.234,20.69
18.250,19.63
18.265,17.86
18.281,15.91
18.296,14.12
18.312,12.52
18.328,10.81
18.343,8.55
18.359,5.48
18.375,1.59
18.390,-2.81
18.406,-7.21
18.421,-11.07
18.437,-14.02
18.453,-15.9
18.468,-16.87
18.484,-17.19
18.500,-17.1
18.515,-16.7
18.531,-16.03
18.546,-15.01
18.562,-13.47
18.578,-11.45
18.593,-9.19
18.609,-7.24
18.625,-6.2
18.640,-6.46
18.656,-8.1
18.671,-10.88
18.687,-14.52
18.703,-18.59
18.718,-22.66
18.734,-26.08
18.750,-27.99
18.765,-27.57
18.781,-24.56
18.796,-19.57
18.812,-13.93
18.828,-9.12
18.843,-5.89
18.859,-4.09
18.875,-2.73
18.890,-0.84
18.906,1.88
18.921,4.9
18.937,7.41
18.953,8.98
18.968,9.86
18.984,10.86
19.000,12.55
19.015,15.14
19.031,18.35
19.046,21.79
19.062,25.27
19.078,28.78
19.093,32.34
19.109,35.77
19.125,38.62
19.140,40.4
19.156,40.85
19.171,40.23
19.187,39.18
19.203,38.47
19.218,38.75
19.234,40.19
19.250,42.6
19.265,45.62
19.281,48.98
19.296,52.64
19.312,57.08
19.328,62.85
19.343,70.29
19.359,79.4
19.375,89.78
19.390,100.62
19.406,110.93
19.421,119.77
19.437,126.65
19.453,132.02
19.468,136.58
19.484,140.97
19.500,145.68
19.515,151.21
19.531,158.01
19.546,165.98
19.562,173.99
19.578,179.83
19.593,180.94
19.609,175.0
19.625,161.09
19.640,140.85
19.656,118.79
19.671,100.7
19.687,90.86
19.703,89.84
19.718,94.25
19.734,98.03
19.750,94.01
19.765,75.47
19.781,37.88
19.796,-19.77
19.812,-94.85
19.828,-182.22
19.843,-275.74
19.859,-369.24
19.875,-453.05
19.890,-513.42
19.906,-539.24
19.921,-528.52
19.937,-489.21
19.953,-433.4
19.968,-371.65
19.984,-310.79
20.000,-254.4
20.015,-203.55
20.031,-158.56
20.046,-119.96
20.062,-88.26
20.078,-63.11
20.093,-43.13
20.109,-26.59
20.125,-12.17
20.140,0.89
20.156,12.92
20.171,23.67
20.187,32.23
20.203,37.68
20.218,40.07
20.234,40.42
20.250,40.5
20.265,41.73
20.281,45.25
20.296,51.85
20.312,61.61
20.328,73.83
20.343,87.49
20.359,101.69
20.375,115.83
20.390,129.49
20.406,141.58
20.421,150.98
20.437,156.68
20.453,157.81
20.468,153.8
20.484,144.68
20.500,131.22
20.515,114.98
20.531,97.92
20.546,81.36
20.562,66.68
20.578,54.99
20.593,47.0
20.609,42.99
20.625,42.87
20.640,46.4
20.656,53.29
20.671,63.15
20.687,74.76
20.703,86.87
20.718,98.44
20.734,107.96
20.750,114.33
20.765,116.55
20.781,113.67
20.796,104.29
20.812,92.15
20.828,78.93
20.843,66.09
20.859,55.07
20.875,46.67
20.890,41.73
20.906,40.77
20.921,44.07
20.937,51.5
20.953,62.58
20.968,75.72
20.984,89.32
21.000,101.96
21.015,111.73
21.031,117.5
21.046,119.02
21.062,116.99
21.078,112.51
21.093,106.93
21.109,100.94
21.125,95.23
21.140,90.31
21.156,84.25
21.171,75.47
21.187,63.48
21.203,48.6
21.218,31.4
21.234,12.17
21.250,-9.19
21.265,-32.62
21.281,-57.66
21.296,-88.29
21.312,-126.92
21.328,-173.38
21.343,-225.48
21.359,-280.89
21.375,-338.29
21.390,-397.03
21.406,-456.56
21.421,-515.76
21.437,-580.42
21.453,-653.14
21.468,-731.52
21.484,-809.2
21.500,-878.96
21.515,-934.86
21.531,-972.21
21.546,-987.77
21.562,-978.9
21.578,-953.99
21.593,-919.33
21.609,-876.88
21.625,-825.66
21.640,-766.08
21.656,-702.4
21.671,-641.89
21.687,-592.84
21.703,-508.74
21.718,-374.3
21.734,-203.5
21.750,-29.27
21.765,120.57
21.781,233.45
21.796,307.65
21.812,346.65
21.828,351.57
21.843,335.4
21.859,301.24
21.875,253.93
21.890,201.01
21.906,151.28
21.921,110.9
21.937,82.29
21.953,69.46
21.968,72.63
21.984,91.17
22.000,115.76
22.015,139.02
22.031,157.56
22.046,171.64
22.062,182.32
22.078,190.22
22.093,195.5
22.109,197.86
22.125,198.14
22.140,192.41
22.156,178.73
22.171,158.13
22.187,134.14
22.203,110.36
22.218,89.5
22.234,73.2
22.250,61.65
22.265,55.04
22.281,50.45
22.296,45.55
22.312,39.32
22.328,32.18
22.343,24.79
22.359,17.83
22.375,11.97
22.390,7.48
22.406,4.93
22.421,3.77
22.437,3.68
22.453,4.65
22.468,7.07
22.484,11.05
22.500,16.43
22.515,22.8
22.531,29.29
22.546,35.2
22.562,39.7
22.578,42.31
22.593,42.62
22.609,41.16
22.625,38.43
22.640,34.95
22.656,30.97
22.671,26.48
22.687,21.5
22.703,16.48
22.718,12.04
22.734,8.52
22.750,6.66
22.765,6.87
22.781,9.12
22.796,12.85
22.812,17.15
22.828,21.19
22.843,24.59
22.859,27.29
22.875,29.18
22.890,31.41
22.906,34.85
22.921,39.57
22.937,44.91
22.953,49.93
22.968,53.87
22.984,57.55
23.000,62.34
23.015,69.7
23.031,83.97
23.046,108.12
23.062,142.08
23.078,182.71
23.093,225.39
23.109,265.08
23.125,300.53
23.140,331.84
23.156,359.6
23.171,390.9
23.187,430.99
23.203,480.04
23.218,532.79
23.234,582.05
23.250,620.27
23.265,647.97
23.281,668.17
23.296,684.27
23.312,709.12
23.328,751.97
23.343,812.98
23.359,883.0
23.375,949.24
23.390,997.83
23.406,1027.36
23.421,1040.02
23.437,1038.47
23.453,1038.0
23.468,1050.78
23.484,1079.53
23.500,1117.33
23.515,1153.79
23.531,1176.27
23.546,1185.14
23.562,1182.12
23.578,1085.6
23.593,854.13
23.609,505.04
23.625,111.34
23.640,-244.07
23.656,-478.35
23.671,-612.58
23.687,-678.8
23.703,-703.16
23.718,-703.1
23.734,-683.29
23.750,-641.9
23.765,-583.04
23.781,-519.2
23.796,-465.51
23.812,-437.1
23.828,-432.24
23.843,-444.02
23.859,-465.25
23.875,-480.11
23.890,-476.78
23.906,-453.52
23.921,-418.41
23.937,-383.35
23.953,-361.15
23.968,-351.94
23.984,-351.98
24.000,-357.28
24.015,-358.4
24.031,-348.02
24.046,-325.18
24.062,-295.0
24.078,-264.95
24.093,-243.18
24.109,-229.76
24.125,-222.56
24.140,-219.3
24.156,-215.33
24.171,-207.18
24.187,-194.76
24.203,-180.97
24.218,-169.5
24.234,-164.16
24.250,-164.44
24.265,-168.72
24.281,-175.4
24.296,-182.51
24.312,-188.88
24.328,-195.03
24.343,-202.48
24.359,-212.5
24.375,-225.8
24.390,-240.51
24.406,-253.92
24.421,-263.12
24.437,-266.09
24.453,-261.94
24.468,-251.32
24.484,-235.83
24.500,-217.64
24.515,-199.13
24.531,-182.49
24.546,-170.06
24.562,-164.51
24.578,-168.7
24.593,-185.47
24.609,-216.94
24.625,-263.82
24.640,-325.44
24.656,-399.8
24.671,-483.5
24.687,-571.47
24.703,-656.77
24.718,-730.47
24.734,-782.92
24.750,-806.04
24.765,-795.67
24.781,-753.27
24.796,-685.59
24.812,-602.08
24.828,-511.74
24.843,-421.1
24.859,-333.13
24.875,-248.49
24.890,-166.69
24.906,-87.23
24.921,-9.94
24.937,65.13
24.953,137.9
24.968,207.94
24.984,273.64
25.000,332.58
25.015,381.6
25.031,418.27
25.046,442.19
25.062,455.41
25.078,462.38
25.093,469.41
25.109,483.26
25.125,509.79
25.140,552.29
25.156,609.66
25.171,675.68
25.187,740.15
25.203,791.46
25.218,820.02
25.234,821.23
25.250,796.28
25.265,750.62
25.281,691.21
25.296,623.87
25.312,552.03
25.328,477.5
25.343,401.52
25.359,325.59
25.375,251.21
25.390,179.31
25.406,109.68
25.421,41.3
25.437,-26.36
25.453,-92.4
25.468,-154.19
25.484,-208.44
25.500,-252.35
25.515,-285.11
25.531,-308.15
25.546,-325.01
25.562,-340.43
25.578,-359.34
25.593,-385.65
25.609,-420.66
25.625,-461.91
25.640,-502.68
25.656,-533.75
25.671,-546.41
25.687,-536.14
25.703,-504.64
25.718,-459.16
25.734,-409.18
25.750,-361.8
25.765,-318.83
25.781,-276.74
25.796,-229.78
25.812,-173.7
25.828,-108.27
25.843,-36.99
25.859,35.08
25.875,103.68
25.890,167.36
25.906,227.24
25.921,285.37
25.937,342.41
25.953,396.96
25.968,445.68
25.984,484.91
26.000,512.32
26.015,527.33
26.031,531.08
26.046,524.91
26.062,509.22
26.078,483.64
26.093,447.83
26.109,402.91
26.125,351.83
26.140,298.44
26.156,246.93
26.171,200.72
26.187,161.53
26.203,129.13
26.218,102.07
26.234,78.25
26.250,55.82
26.265,33.09
26.281,8.15
26.296,-20.1
26.312,-51.68
26.328,-85.76
26.343,-121.19
26.359,-156.61
26.375,-190.72
26.390,-221.98
26.406,-248.64
26.421,-270.24
26.437,-285.75
26.453,-293.35
26.468,-291.02
26.484,-277.76
26.500,-254.03
26.515,-221.43
26.531,-182.02
26.546,-137.47
26.562,-92.86
26.578,-50.83
26.593,-10.84
26.609,29.58
26.625,71.67
26.640,113.72
26.656,151.66
26.671,180.57
26.687,196.11
26.703,187.45
26.718,149.46
26.734,84.97
26.750,2.34
26.765,-90.5
26.781,-189.44
26.796,-293.63
26.812,-403.17
26.828,-517.52
26.843,-647.48
26.859,-796.28
26.875,-956.19
26.890,-1112.12
26.906,-1250.41
26.921,-1363.75
26.937,-1450.08
26.953,-1509.82
26.968,-1544.16
26.984,-1571.02
27.000,-1599.61
27.015,-1624.68
27.031,-1630.09
27.046,-1600.27
27.062,-1528.26
27.078,-1416.86
27.093,-1276.55
27.109,-1018.99
27.125,-628.37
27.140,-162.16
27.156,283.03
27.171,636.68
27.187,880.65
27.203,1031.52
27.218,1115.62
27.234,1155.71
27.250,1168.4
27.265,1148.86
27.281,1097.35
27.296,1025.0
27.312,949.86
27.328,886.02
27.343,838.0
27.359,802.73
27.375,774.53
27.390,748.6
27.406,709.53
27.421,650.3
27.437,575.34
27.453,496.74
27.468,425.47
27.484,366.46
27.500,319.99
27.515,283.12
27.531,255.16
27.546,228.18
27.562,198.67
27.578,169.4
27.593,147.14
27.609,136.93
27.625,139.56
27.640,152.68
27.656,172.79
27.671,196.61
27.687,217.16
27.703,229.7
27.718,232.87
27.734,228.11
27.750,216.82
27.765,199.61
27.781,176.91
27.796,149.53
27.812,118.76
27.828,84.33
27.843,46.59
27.859,6.94
27.875,-31.97
27.890,-67.13
27.906,-95.07
27.921,-111.29
27.937,-110.51
27.953,-89.7
27.968,-49.82
27.984,4.17
28.000,64.86
28.015,123.8
28.031,171.9
28.046,200.39
28.062,202.84
28.078,177.46
28.093,129.46
28.109,70.55
28.125,15.41
28.140,-23.6
28.156,-41.03
28.171,-39.53
28.187,-27.21
28.203,-12.88
28.218,-2.62
28.234,2.33
28.250,4.02
28.265,5.7
28.281,9.5
28.296,15.84
28.312,24.09
28.328,34.68
28.343,46.69
28.359,58.89
28.375,69.94
28.390,78.59
28.406,84.58
28.421,89.13
28.437,94.27
28.453,101.62
28.468,108.21
28.484,112.42
28.500,110.77
28.515,100.26
28.531,80.46
28.546,53.91
28.562,25.06
28.578,-2.08
28.593,-25.34
28.609,-44.8
28.625,-61.32
28.640,-75.8
28.656,-88.16
28.671,-97.78
28.687,-104.65
28.703,-109.94
28.718,-115.7
28.734,-123.64
28.750,-134.44
28.765,-146.84
28.781,-158.27
28.796,-166.34
28.812,-168.22
28.828,-162.6
28.843,-150.08
28.859,-132.89
28.875,-113.95
28.890,-95.96
28.906,-80.67
28.921,-68.82
28.937,-60.27
28.953,-54.28
28.968,-49.98
28.984,-46.9
29.000,-44.97
29.015,-44.19
29.031,-44.46
29.046,-45.46
29.062,-46.78
29.078,-48.09
29.093,-49.15
29.109,-49.82
29.125,-50.43
29.140,-51.58
29.156,-53.88
29.171,-57.61
29.187,-62.84
29.203,-69.3
29.218,-76.61
29.234,-84.31
29.250,-91.67
29.265,-98.34
29.281,-104.14
29.296,-108.93
29.312,-112.49
29.328,-114.44
29.343,-114.01
29.359,-109.92
29.375,-103.93
29.390,-96.46
29.406,-87.82
29.421,-78.32
29.437,-68.33
29.453,-58.24
29.468,-48.27
29.484,-38.47
29.500,-28.77
29.515,-19.11
29.531,-9.17
29.546,1.02
29.562,11.09
29.578,20.44
29.593,28.52
29.609,35.08
29.625,40.2
29.640,44.3
29.656,47.82
29.671,51.37
29.687,55.09
29.703,58.6
29.718,61.26
29.734,62.48
29.750,62.17
29.765,60.65
29.781,58.78
29.796,57.81
29.812,59.6
29.828,66.23
29.843,79.61
29.859,100.79
29.875,129.31
29.890,162.82
29.906,197.45
29.921,229.02
29.937,254.32
29.953,272.4
29.968,284.26
29.984,291.85
30.000,296.77
30.015,299.51
30.031,299.49
30.046,295.94
30.062,288.56
30.078,277.79
30.093,264.64
30.109,249.9
30.125,233.91
30.140,216.69
30.156,198.63
30.171,180.88
30.187,165.39
30.203,154.11
30.218,148.4
30.234,148.39
30.250,153.11
30.265,160.87
30.281,169.72
30.296,177.89
30.312,183.91
30.328,186.54
30.343,184.91
30.359,178.51
30.375,167.27
30.390,151.69
30.406,132.48
30.421,110.3
30.437,85.48
30.453,57.97
30.468,27.6
30.484,-5.57
30.500,-41.05
30.515,-78.02
30.531,-115.62
30.546,-153.32
30.562,-190.9
30.578,-228.55
30.593,-266.45
30.609,-304.57
30.625,-342.38
30.640,-378.86
30.656,-412.72
30.671,-442.45
30.687,-466.48
30.703,-482.89
30.718,-489.76
30.734,-485.25
30.750,-468.14
30.765,-438.17
30.781,-396.32
30.796,-344.8
30.812,-286.63
30.828,-225.26
30.843,-163.9
30.859,-105.26
30.875,-51.41
30.890,-3.7
30.906,37.04
30.921,70.35
30.937,96.11
30.953,114.52
30.968,126.02
30.984,131.37
31.000,131.44
31.015,127.17
31.031,119.7
31.046,110.23
31.062,99.99
31.078,90.17
31.093,81.78
31.109,75.37
31.125,71.07
31.140,68.59
31.156,67.39
31.171,67.06
31.187,67.3
31.203,68.13
31.218,69.66
31.234,72.04
31.250,75.17
31.265,78.63
31.281,81.68
31.296,83.47
31.312,83.39
31.328,81.19
31.343,77.0
31.359,71.23
31.375,64.16
31.390,56.03
31.406,46.94
31.421,36.98
31.437,26.36
31.453,15.48
31.468,4.82
31.484,-5.15
31.500,-13.94
31.515,-21.24
31.531,-26.72
31.546,-30.2
31.562,-31.67
31.578,-31.48
31.593,-30.31
31.609,-29.03
31.625,-28.39
31.640,-28.8
31.656,-30.29
31.671,-32.47
31.687,-34.92
31.703,-37.11
31.718,-38.75
31.734,-39.77
31.750,-40.17
31.765,-39.97
31.781,-39.13
31.796,-37.54
31.812,-35.0
31.828,-31.26
31.843,-25.96
31.859,-18.8
31.875,-9.6
31.890,1.86
31.906,15.76
31.921,32.4
31.937,52.05
31.953,75.1
31.968,101.94
31.984,132.84
32.000,167.81
32.015,206.1
32.031,246.16
32.046,285.36
32.062,320.39
32.078,347.75
32.093,364.47
32.109,368.74
32.125,360.03
32.140,339.1
32.156,307.62
32.171,267.76
32.187,221.76
32.203,171.8
32.218,119.95
32.234,67.98
32.250,17.24
32.265,-31.56
32.281,-78.44
32.296,-123.95
32.312,-168.96
32.328,-214.36
32.343,-260.62
32.359,-307.52
32.375,-354.16
32.390,-398.87
32.406,-439.73
32.421,-474.59
32.437,-501.34
32.453,-517.96
32.468,-522.51
32.484,-513.26
32.500,-488.99
32.515,-449.34
32.531,-395.15
32.546,-328.74
32.562,-253.68
32.578,-174.31
32.593,-95.17
32.609,-20.28
32.625,47.34
32.640,105.75
32.656,154.14
32.671,192.4
32.687,220.83
32.703,239.93
32.718,250.33
32.734,252.76
32.750,248.25
32.765,238.3
32.781,224.63
32.796,208.89
32.812,192.49
32.828,176.29
32.843,160.75
32.859,146.0
32.875,132.05
32.890,118.88
32.906,106.51
32.921,94.95
32.937,84.08
32.953,73.66
32.968,63.47
32.984,53.44
33.000,43.62
33.015,34.19
33.031,25.31
33.046,17.03
33.062,9.23
33.078,1.75
33.093,-5.57
33.109,-12.84
33.125,-20.04
33.140,-27.1
33.156,-33.82
33.171,-39.92
33.187,-45.21
33.203,-49.6
33.218,-53.12
33.234,-55.76
33.250,-57.5
33.265,-58.1
33.281,-57.25
33.296,-54.6
33.312,-49.97
33.328,-43.48
33.343,-35.42
33.359,-26.14
33.375,-15.81
33.390,-4.47
33.406,7.74
33.421,20.53
33.437,33.28
33.453,45.19
33.468,55.35
33.484,62.86
33.500,66.95
33.515,67.01
33.531,62.33
33.546,52.36
33.562,36.7
33.578,15.35
33.593,-11.01
33.609,-40.96
33.625,-72.61
33.640,-103.88
33.656,-132.84
33.671,-157.98
33.687,-178.18
33.703,-192.53
33.718,-200.28
33.734,-200.67
33.750,-193.12
33.765,-177.46
33.781,-154.12
33.796,-124.06
33.812,-88.6
33.828,-49.27
33.843,-7.6
33.859,34.77
33.875,76.08
33.890,114.4
33.906,147.83
33.921,174.67
33.937,193.7
33.953,204.35
33.968,206.61
33.984,200.96
34.000,188.22
34.015,169.73
34.031,147.04
34.046,122.06
34.062,96.79
34.078,73.08
34.093,52.35
34.109,35.52
34.125,22.91
34.140,14.25
34.156,8.93
34.171,6.09
34.187,4.84
34.203,4.43
34.218,4.45
34.234,4.72
34.250,5.22
34.265,6.04
34.281,7.16
34.296,8.38
34.312,9.44
34.328,9.95
34.343,9.49
34.359,7.67
34.375,4.17
34.390,-0.94
34.406,-7.14
34.421,-13.36
34.437,-18.24
34.453,-20.6
34.468,-19.87
34.484,-16.46
34.500,-11.7
34.515,-7.4
34.531,-5.31
34.546,-6.63
34.562,-11.87
34.578,-20.75
34.593,-32.55
34.609,-46.28
34.625,-60.91
34.640,-75.42
34.656,-88.91
34.671,-100.46
34.687,-109.13
34.703,-114.02
34.718,-114.25
34.734,-109.25
34.750,-98.97
34.765,-84.09
34.781,-65.93
34.796,-46.15
34.812,-26.48
34.828,-8.39
34.843,6.78
34.859,17.82
34.875,23.5
34.890,22.89
34.906,15.54
34.921,1.87
34.937,-16.72
34.953,-38.08
34.968,-59.78
34.984,-79.63
35.000,-96.02
35.015,-107.95
35.031,-114.83
35.046,-116.41
35.062,-112.69
35.078,-103.92
35.093,-90.76
35.109,-74.15
35.125,-55.25
35.140,-35.2
35.156,-15.07
35.171,4.36
35.187,22.48
35.203,38.81
35.218,53.11
35.234,65.17
35.250,74.92
35.265,82.27
35.281,87.22
35.296,89.73
35.312,89.89
35.328,88.02
35.343,84.42
35.359,79.56
35.375,73.68
35.390,66.97
35.406,59.51
35.421,51.53
35.437,43.39
35.453,35.64
35.468,28.92
35.484,23.57
35.500,19.65
35.515,16.69
35.531,14.13
35.546,11.39
35.562,8.11
35.578,4.18
35.593,-0.33
35.609,-5.28
35.625,-10.59
35.640,-16.08
35.656,-21.55
35.671,-26.52
35.687,-30.52
35.703,-33.12
35.718,-34.06
35.734,-33.48
35.750,-31.62
35.765,-28.95
35.781,-25.9
35.796,-22.93
35.812,-20.31
35.828,-18.21
35.843,-16.71
35.859,-15.65
35.875,-14.93
35.890,-14.41
35.906,-14.08
35.921,-14.04
35.937,-14.38
35.953,-15.09
35.968,-16.0
35.984,-16.81
36.000,-17.12
36.015,-16.68
36.031,-15.31
36.046,-13.06
36.062,-10.04
36.078,-6.46
36.093,-2.7
36.109,0.87
36.125,3.9
36.140,6.27
36.156,7.97
36.171,9.25
36.187,10.35
36.203,11.74
36.218,13.91
36.234,17.28
36.250,22.27
36.265,29.16
36.281,38.07
36.296,48.78
36.312,60.79
36.328,73.31
36.343,85.45
36.359,96.23
36.375,104.6
36.390,109.72
36.406,111.07
36.421,108.42
36.437,102.1
36.453,92.8
36.468,81.34
36.484,68.7
36.500,55.7
36.515,42.96
36.531,31.0
36.546,20.19
36.562,10.7
36.578,2.58
36.593,-4.29
36.609,-10.23
36.625,-15.65
36.640,-20.89
36.656,-26.15
36.671,-31.3
36.687,-36.08
36.703,-40.22
36.718,-43.45
36.734,-45.74
36.750,-47.1
36.765,-47.66
36.781,-47.56
36.796,-46.9
36.812,-45.75
36.828,-44.22
36.843,-42.52
36.859,-40.78
36.875,-39.17
36.890,-37.78
36.906,-36.65
36.921,-35.77
36.937,-35.07
36.953,-34.38
36.968,-33.46
36.984,-32.07
37.000,-29.92
37.015,-26.98
37.031,-23.28
37.046,-18.97
37.062,-14.34
37.078,-9.63
37.093,-4.98
37.109,-0.39
37.125,4.12
37.140,8.56
37.156,12.78
37.171,16.54
37.187,19.69
37.203,22.15
37.218,23.93
37.234,25.04
37.250,25.5
37.265,25.3
37.281,24.45
37.296,23.06
37.312,21.3
37.328,19.47
37.343,17.77
37.359,16.3
37.375,15.01
37.390,13.83
37.406,12.7
37.421,11.69
37.437,10.81
37.453,9.97
37.468,9.03
37.484,7.68
37.500,5.78
37.515,3.29
37.531,0.41
37.546,-2.61
37.562,-5.5
37.578,-8.12
37.593,-10.4
37.609,-12.34
37.625,-14.06
37.640,-15.61
37.656,-17.02
37.671,-18.32
37.687,-19.45
37.703,-20.19
37.718,-20.27
37.734,-19.46
37.750,-17.61
37.765,-14.86
37.781,-11.38
37.796,-7.49
37.812,-3.46
37.828,0.51
37.843,4.28
37.859,7.75
37.875,10.85
37.890,13.47
37.906,15.45
37.921,16.76
37.937,17.34
37.953,17.21
37.968,16.43
37.984,15.13
38.000,13.51
38.015,11.86
38.031,10.54
38.046,9.83
38.062,10.04
38.078,11.22
38.093,13.16
38.109,15.55
38.125,18.0
38.140,20.31
38.156,22.56
38.171,25.03
38.187,28.04
38.203,31.9
38.218,36.51
38.234,41.39
38.250,45.93
38.265,49.63
38.281,52.49
38.296,55.01
38.312,58.02
38.328,62.31
38.343,68.41
38.359,75.9
38.375,83.55
38.390,89.74
38.406,93.29
38.421,94.21
38.437,93.69
38.453,93.69
38.468,96.07
38.484,102.04
38.500,111.12
38.515,121.44
38.531,130.47
38.546,136.22
38.562,138.07
38.578,136.6
38.593,132.76
38.609,126.97
38.625,118.84
38.640,106.34
38.656,86.29
38.671,55.1
38.687,9.72
38.703,-51.58
38.718,-129.05
38.734,-221.56
38.750,-326.33
38.765,-431.8
38.781,-520.23
38.796,-572.6
38.812,-577.4
38.828,-536.54
38.843,-463.08
38.859,-373.86
38.875,-282.77
38.890,-198.39
38.906,-124.23
38.921,-61.78
38.937,-12.15
38.953,23.42
38.968,44.82
38.984,54.0
39.000,54.82
39.015,51.98
39.031,49.57
39.046,50.33
39.062,54.6
39.078,60.68
39.093,65.59
39.109,67.03
39.125,64.41
39.140,59.01
39.156,53.05
39.171,48.75
39.187,47.77
39.203,50.44
39.218,56.08
39.234,63.22
39.250,70.86
39.265,78.77
39.281,87.59
39.296,98.1
39.312,110.63
39.328,124.77
39.343,139.05
39.359,151.99
39.375,161.14
39.390,164.73
39.406,161.82
39.421,152.64
39.437,138.36
39.453,120.54
39.468,101.02
39.484,81.45
39.500,63.15
39.515,47.1
39.531,34.18
39.546,24.59
39.562,18.43
39.578,15.63
39.593,15.88
39.609,18.7
39.625,23.46
39.640,29.6
39.656,36.67
39.671,44.54
39.687,52.66
39.703,60.75
39.718,68.7
39.734,76.59
39.750,84.56
39.765,92.68
39.781,101.08
39.796,109.86
39.812,119.24
39.828,128.73
39.843,137.99
39.859,146.66
39.875,154.37
39.890,160.64
39.906,164.8
39.921,165.85
39.937,162.18
39.953,156.6
39.968,149.79
39.984,142.2
40.000,134.15
40.015,125.89
40.031,117.59
40.046,109.46
40.062,101.71
40.078,94.55
40.093,88.31
40.109,82.6
40.125,77.3
40.140,72.32
40.156,67.66
40.171,63.24
40.187,59.01
40.203,55.01
40.218,51.2
40.234,47.72
40.250,44.17
40.265,40.4
40.281,36.35
40.296,32.08
40.312,27.65
40.328,23.11
40.343,18.61
40.359,14.28
40.375,10.31
40.390,6.63
40.406,3.23
40.421,0.14
40.437,-2.55
40.453,-4.83
40.468,-6.76
40.484,-8.41
40.500,-9.94
40.515,-11.41
40.531,-13.01
40.546,-14.8
40.562,-16.83
40.578,-19.06
40.593,-21.53
40.609,-24.4
40.625,-27.85
40.640,-32.12
40.656,-37.24
40.671,-43.08
40.687,-49.26
40.703,-55.26
40.718,-60.59
40.734,-64.95
40.750,-68.44
40.765,-71.47
40.781,-74.72
40.796,-78.77
40.812,-83.95
40.828,-90.14
40.843,-97.05
40.859,-104.22
40.875,-111.53
40.890,-119.22
40.906,-127.84
40.921,-138.15
40.937,-150.59
40.953,-165.1
40.968,-180.97
40.984,-197.26
41.000,-212.91
41.015,-227.39
41.031,-240.72
41.046,-253.41
41.062,-266.35
41.078,-280.58
41.093,-297.13
41.109,-316.64
41.125,-338.88
41.140,-362.09
41.156,-382.76
41.171,-396.4
41.187,-398.65
41.203,-387.17
41.218,-362.54
41.234,-328.26
41.250,-289.36
41.265,-250.65
41.281,-215.31
41.296,-184.34
41.312,-157.44
41.328,-133.79
41.343,-112.94
41.359,-94.89
41.375,-79.71
41.390,-67.07
41.406,-56.1
41.421,-45.83
41.437,-35.53
41.453,-25.16
41.468,-15.23
41.484,-6.58
41.500,0.15
41.515,4.86
41.531,8.02
41.546,10.46
41.562,12.88
41.578,15.73
41.593,18.91
41.609,21.93
41.625,24.2
41.640,25.2
41.656,24.75
41.671,23.0
41.687,20.39
41.703,17.49
41.718,14.79
41.734,12.49
41.750,10.46
41.765,8.29
41.781,5.55
41.796,1.98
41.812,-2.25
41.828,-6.55
41.843,-9.99
41.859,-11.69
41.875,-11.12
41.890,-8.15
41.906,-3.14
41.921,3.32
41.937,10.52
41.953,17.9
41.968,25.03
41.984,31.75
42.000,37.92
42.015,43.43
42.031,48.19
42.046,52.17
42.062,55.29
42.078,57.58
42.093,59.12
42.109,59.92
42.125,60.02
42.140,59.45
42.156,58.27
42.171,56.61
42.187,54.68
42.203,52.65
42.218,50.73
42.234,49.06
42.250,47.8
42.265,46.95
42.281,46.51
42.296,46.37
42.312,46.33
42.328,46.1
42.343,45.36
42.359,43.97
42.375,41.81
42.390,39.04
42.406,35.92
42.421,32.67
42.437,29.45
42.453,26.27
42.468,23.04
42.484,19.63
42.500,16.02
42.515,12.22
42.531,8.34
42.546,4.51
42.562,0.74
42.578,-2.97
42.593,-6.67
42.609,-10.27
42.625,-13.71
42.640,-16.93
42.656,-20.01
42.671,-23.06
42.687,-26.18
42.703,-29.39
42.718,-32.36
42.734,-34.6
42.750,-35.46
42.765,-34.37
42.781,-31.03
42.796,-25.57
42.812,-18.42
42.828,-10.15
42.843,-1.58
42.859,6.71
42.875,14.24
42.890,20.66
42.906,25.91
42.921,30.04
42.937,33.2
42.953,35.59
42.968,37.37
42.984,38.62
43.000,39.43
43.015,39.78
43.031,39.66
43.046,39.12
43.062,38.27
43.078,37.26
43.093,36.28
43.109,35.4
43.125,34.57
43.140,33.65
43.156,32.44
43.171,30.82
43.187,28.82
43.203,26.52
43.218,24.03
43.234,21.47
43.250,18.83
43.265,16.11
43.281,13.37
43.296,10.73
43.312,8.27
43.328,6.05
43.343,4.05
43.359,2.08
43.375,0.09
43.390,-2.04
43.406,-4.31
43.421,-6.71
43.437,-9.21
43.453,-11.86
43.468,-14.73
43.484,-17.84
43.500,-21.2
43.515,-24.61
43.531,-27.82
43.546,-30.43
43.562,-32.11
43.578,-32.55
43.593,-31.52
43.609,-28.98
43.625,-24.9
43.640,-19.52
43.656,-13.1
43.671,-6.11
43.687,0.93
43.703,7.54
43.718,13.29
43.734,18.08
43.750,21.95
43.765,25.2
43.781,28.04
43.796,30.63
43.812,32.91
43.828,34.78
43.843,36.06
43.859,36.6
43.875,36.45
43.890,35.7
43.906,34.52
43.921,33.05
43.937,31.37
43.953,29.61
43.968,27.84
43.984,26.18
44.000,24.65
44.015,23.26
44.031,21.83
44.046,20.2
44.062,18.25
44.078,15.78
44.093,12.86
44.109,9.57
44.125,6.06
44.140,2.44
44.156,-1.2
44.171,-4.85
44.187,-8.45
44.203,-11.86
44.218,-15.1
44.234,-18.07
44.250,-20.71
44.265,-23.04
44.281,-25.14
44.296,-27.06
44.312,-29.01
44.328,-30.97
44.343,-32.78
44.359,-34.17
44.375,-34.68
44.390,-33.93
44.406,-31.67
44.421,-27.88
44.437,-22.75
44.453,-16.81
44.468,-10.48
44.484,-4.23
44.500,1.58
44.515,6.78
44.531,11.24
44.546,14.93
44.562,18.1
44.578,20.96
44.593,23.65
44.609,26.33
44.625,29.01
44.640,31.56
44.656,33.92
44.671,35.95
44.687,37.47
44.703,38.45
44.718,38.83
44.734,38.6
44.750,37.97
44.765,37.14
44.781,36.28
44.796,35.48
44.812,34.51
44.828,33.1
44.843,30.93
44.859,27.94
44.875,24.3
44.890,20.4
44.906,16.57
44.921,13.01
44.937,9.79
44.953,6.73
44.968,3.64
44.984,0.42
45.000,-2.96
45.015,-6.45
45.031,-9.95
45.046,-13.52
45.062,-17.31
45.078,-21.32
45.093,-25.5
45.109,-29.68
45.125,-33.6
45.140,-37.02
45.156,-39.85
45.171,-42.05
45.187,-43.55
45.203,-44.28
45.218,-43.87
45.234,-41.93
45.250,-38.06
45.265,-32.2
45.281,-24.75
45.296,-16.34
45.312,-7.84
45.328,0.13
45.343,7.16
45.359,13.29
45.375,18.63
45.390,23.37
45.406,27.59
45.421,31.14
45.437,33.98
45.453,36.07
45.468,37.53
45.484,38.46
45.500,39.11
45.515,39.51
45.531,39.69
45.546,39.7
45.562,39.5
45.578,39.19
45.593,38.91
45.609,38.72
45.625,38.66
45.640,38.71
45.656,38.63
45.671,38.11
45.687,36.94
45.703,34.91
45.718,32.03
45.734,28.48
45.750,24.46
45.765,20.22
45.781,15.94
45.796,11.62
45.812,7.18
45.828,2.55
45.843,-2.3
45.859,-7.41
45.875,-12.64
45.890,-17.98
45.906,-23.27
45.921,-28.47
45.937,-33.57
45.953,-38.62
45.968,-43.62
45.984,-48.52
46.000,-53.1
46.015,-57.03
46.031,-59.89
46.046,-61.21
46.062,-60.65
46.078,-58.06
46.093,-53.36
46.109,-46.75
46.125,-38.52
46.140,-29.21
46.156,-19.49
46.171,-10.13
46.187,-1.73
46.203,5.3
46.218,10.93
46.234,15.4
46.250,19.13
46.265,22.4
46.281,25.34
46.296,27.97
46.312,30.2
46.328,31.9
46.343,33.05
46.359,33.71
46.375,33.97
46.390,34.02
46.406,33.93
46.421,33.72
46.437,33.41
46.453,32.88
46.468,32.04
46.484,30.8
46.500,29.18
46.515,27.26
46.531,25.13
46.546,22.85
46.562,20.41
46.578,17.87
46.593,15.24
46.609,12.57
46.625,9.95
46.640,7.45
46.656,5.13
46.671,2.99
46.687,1.05
46.703,-0.79
46.718,-2.48
46.734,-4.1
46.750,-5.65
46.765,-7.21
46.781,-8.82
46.796,-10.46
46.812,-12.13
46.828,-13.74
46.843,-15.42
46.859,-17.23
46.875,-19.36
46.890,-21.81
46.906,-24.49
46.921,-26.98
46.937,-28.69
46.953,-29.0
46.968,-27.37
46.984,-23.69
47.000,-18.22
47.015,-11.59
47.031,-4.5
47.046,2.41
47.062,8.73
47.078,14.3
47.093,19.12
47.109,23.27
47.125,26.69
47.140,29.29
47.156,30.98
47.171,31.72
47.187,31.68
47.203,31.01
47.218,29.9
47.234,28.47
47.250,26.74
47.265,24.64
47.281,22.14
47.296,19.32
47.312,16.3
47.328,13.29
47.343,10.32
47.359,7.34
47.375,4.17
47.390,0.74
47.406,-2.97
47.421,-6.77
47.437,-10.34
47.453,-13.45
47.468,-15.87
47.484,-17.54
47.500,-18.56
47.515,-19.06
47.531,-19.13
47.546,-18.87
47.562,-18.35
47.578,-17.64
47.593,-16.9
47.609,-16.31
47.625,-16.17
47.640,-16.75
47.656,-18.21
47.671,-20.43
47.687,-23.15
47.703,-25.9
47.718,-28.21
47.734,-29.55
47.750,-29.45
47.765,-27.56
47.781,-23.68
47.796,-17.81
47.812,-10.26
47.828,-1.62
47.843,7.26
47.859,15.52
47.875,22.43
47.890,27.65
47.906,31.26
47.921,33.52
47.937,34.87
47.953,35.53
47.968,35.59
47.984,34.98
48.000,33.7
48.015,31.74
48.031,29.24
48.046,26.52
48.062,23.78
48.078,21.16
48.093,18.69
48.109,16.44
48.125,14.44
48.140,12.73
48.156,11.33
48.171,10.19
48.187,9.22
48.203,8.31
48.218,7.35
48.234,6.18
48.250,4.76
48.265,2.99
48.281,0.69
48.296,-2.12
48.312,-5.42
48.328,-9.13
48.343,-13.06
48.359,-16.91
48.375,-20.44
48.390,-23.41
48.406,-25.63
48.421,-27.19
48.437,-28.08
48.453,-28.51
48.468,-28.69
48.484,-28.81
48.500,-28.94
48.515,-28.98
48.531,-28.72
48.546,-27.94
48.562,-26.41
48.578,-23.88
48.593,-20.32
48.609,-15.89
48.625,-10.88
48.640,-5.85
48.656,-1.26
48.671,2.55
48.687,5.53
48.703,7.78
48.718,9.65
48.734,11.36
48.750,12.99
48.765,14.6
48.781,16.03
48.796,17.17
48.812,18.13
48.828,19.04
48.843,19.86
48.859,20.61
48.875,21.12
48.890,21.28
48.906,21.19
48.921,20.92
48.937,20.57
48.953,20.24
48.968,19.93
48.984,19.43
49.000,18.5
49.015,16.85
49.031,14.26
49.046,10.85
49.062,6.87
49.078,2.78
49.093,-0.86
49.109,-3.6
49.125,-5.27
49.140,-5.94
49.156,-5.9
49.171,-5.57
49.187,-5.23
49.203,-5.17
49.218,-5.63
49.234,-6.76
49.250,-8.72
49.265,-11.62
49.281,-15.35
49.296,-19.76
49.312,-24.73
49.328,-29.92
49.343,-35.07
49.359,-39.75
49.375,-43.3
49.390,-45.05
49.406,-44.49
49.421,-41.25
49.437,-35.5
49.453,-27.87
49.468,-19.16
49.484,-10.26
49.500,-1.96
49.515,5.38
49.531,11.59
49.546,16.56
49.562,20.45
49.578,23.36
49.593,25.34
49.609,26.52
49.625,27.05
49.640,27.0
49.656,26.58
49.671,25.85
49.687,24.81
49.703,23.52
49.718,21.97
49.734,20.24
49.750,18.51
49.765,16.94
49.781,15.58
49.796,14.53
49.812,13.75
49.828,13.16
49.843,12.78
49.859,12.53
49.875,12.31
49.890,12.12
49.906,11.88
49.921,11.51
49.937,11.0
49.953,10.31
49.968,9.42
49.984,8.33
50.000,6.89
50.015,5.02
50.031,2.69
50.046,-0.02
50.062,-3.07
50.078,-6.34
50.093,-9.75
50.109,-13.19
50.125,-16.59
50.140,-19.95
50.156,-23.22
50.171,-26.48
50.187,-29.73
50.203,-33.02
50.218,-36.34
50.234,-39.42
50.250,-41.87
50.265,-43.18
50.281,-43.01
50.296,-41.21
50.312,-37.8
50.328,-32.96
50.343,-26.96
50.359,-20.15
50.375,-12.88
50.390,-5.58
50.406,1.34
50.421,7.48
50.437,12.63
50.453,16.78
50.468,20.09
50.484,22.8
50.500,25.09
50.515,27.05
50.531,28.58
50.546,29.64
50.562,30.23
50.578,30.45
50.593,30.43
50.609,30.41
50.625,30.39
50.640,30.38
50.656,30.28
50.671,29.84
50.687,28.92
50.703,27.48
50.718,25.63
50.734,23.51
50.750,21.3
50.765,19.01
50.781,16.69
50.796,14.23
50.812,11.58
50.828,8.82
50.843,6.19
50.859,3.95
50.875,2.36
50.890,1.39
50.906,0.81
50.921,0.37
50.937,-0.25
50.953,-1.22
50.968,-2.53
50.984,-4.07
51.000,-5.69
51.015,-7.28
51.031,-8.85
51.046,-10.55
51.062,-12.55
51.078,-15.07
51.093,-18.22
51.109,-21.75
51.125,-25.27
51.140,-28.21
51.156,-29.99
51.171,-30.14
51.187,-28.64
51.203,-25.62
51.218,-21.48
51.234,-16.7
51.250,-11.65
51.265,-6.68
51.281,-2.0
51.296,2.28
51.312,6.27
51.328,10.0
51.343,13.65
51.359,17.25
51.375,20.82
51.390,24.14
51.406,26.9
51.421,28.84
51.437,29.89
51.453,30.17
51.468,29.89
51.484,29.34
51.500,28.61
51.515,27.73
51.531,26.6
51.546,25.18
51.562,23.54
51.578,21.81
51.593,20.1
51.609,18.39
51.625,16.6
51.640,14.63
51.656,12.38
51.671,9.99
51.687,7.59
51.703,5.39
51.718,3.47
51.734,1.73
51.750,0.05
51.765,-1.78
51.781,-3.83
51.796,-6.19
51.812,-8.67
51.828,-11.11
51.843,-13.4
51.859,-15.52
51.875,-17.54
51.890,-19.66
51.906,-22.07
51.921,-24.84
51.937,-27.95
51.953,-31.04
51.968,-33.6
51.984,-35.04
52.000,-34.9
52.015,-32.96
52.031,-29.38
52.046,-24.67
52.062,-19.38
52.078,-14.12
52.093,-9.31
52.109,-5.04
52.125,-1.4
52.140,1.77
52.156,4.63
52.171,7.37
52.187,10.02
52.203,12.51
52.218,14.71
52.234,16.37
52.250,17.42
52.265,17.67
52.281,17.2
52.296,16.12
52.312,14.71
52.328,13.22
52.343,11.94
52.359,11.16
52.375,11.06
52.390,11.76
52.406,13.16
52.421,15.02
52.437,17.0
52.453,18.61
52.468,19.4
52.484,19.15
52.500,17.89
52.515,15.79
52.531,13.22
52.546,10.42
52.562,7.54
52.578,4.59
52.593,1.34
52.609,-2.24
52.625,-6.13
52.640,-10.15
52.656,-14.13
52.671,-17.85
52.687,-21.28
52.703,-24.36
52.718,-27.15
52.734,-29.76
52.750,-32.21
52.765,-34.49
52.781,-36.49
52.796,-38.08
52.812,-38.85
52.828,-38.57
52.843,-36.99
52.859,-34.07
52.875,-29.97
52.890,-25.07
52.906,-19.72
52.921,-14.31
52.937,-9.1
52.953,-4.26
52.968,0.05
52.984,3.78
53.000,6.95
53.015,9.6
53.031,11.87
53.046,13.8
53.062,15.4
53.078,16.61
53.093,17.44
53.109,17.92
53.125,18.11
53.140,18.18
53.156,18.12
53.171,18.09
53.187,18.07
53.203,18.05
53.218,17.88
53.234,17.56
53.250,16.96
53.265,15.98
53.281,14.68
53.296,12.9
53.312,10.79
53.328,8.4
53.343,5.89
53.359,3.3
53.375,0.91
53.390,-1.22
53.406,-3.01
53.421,-4.49
53.437,-5.83
53.453,-7.19
53.468,-8.74
53.484,-10.47
53.500,-12.43
53.515,-14.47
53.531,-16.56
53.546,-18.7
53.562,-20.96
53.578,-23.55
53.593,-26.55
53.609,-29.94
53.625,-33.5
53.640,-36.82
53.656,-39.43
53.671,-40.85
53.687,-40.74
53.703,-38.84
53.718,-35.29
53.734,-30.3
53.750,-24.35
53.765,-17.96
53.781,-11.5
53.796,-5.33
53.812,0.44
53.828,5.72
53.843,10.55
53.859,14.84
53.875,18.47
53.890,21.33
53.906,23.33
53.921,24.44
53.937,24.69
53.953,24.21
53.968,23.11
53.984,21.64
54.000,20.01
54.015,18.51
54.031,17.37
54.046,16.77
54.062,16.78
54.078,17.23
54.093,17.96
54.109,18.62
54.125,18.98
54.140,18.87
54.156,18.23
54.171,17.14
54.187,15.69
54.203,14.09
54.218,12.51
54.234,11.06
54.250,9.74
54.265,8.46
54.281,7.07
54.296,5.32
54.312,3.06
54.328,0.25
54.343,-3.06
54.359,-6.73
54.375,-10.58
54.390,-14.47
54.406,-18.25
54.421,-21.82
54.437,-25.19
54.453,-28.43
54.468,-31.46
54.484,-34.25
54.500,-36.64
54.515,-38.35
54.531,-39.18
54.546,-38.89
54.562,-37.22
54.578,-34.15
54.593,-29.83
54.609,-24.57
54.625,-18.93
54.640,-13.46
54.656,-8.6
54.671,-4.55
54.687,-1.33
54.703,1.32
54.718,3.7
54.734,6.05
54.750,8.45
54.765,10.85
54.781,13.1
54.796,15.13
54.812,16.86
54.828,18.37
54.843,19.78
54.859,21.21
54.875,22.7
54.890,24.13
54.906,25.36
54.921,26.27
54.937,26.86
54.953,27.11
54.968,27.11
54.984,26.8
55.000,26.05
55.015,24.73
55.031,22.78
55.046,20.2
55.062,17.22
55.078,14.05
55.093,10.88
55.109,7.86
55.125,5.01
55.140,2.38
55.156,-0.08
55.171,-2.24
55.187,-4.23
55.203,-6.04
55.218,-7.85
55.234,-9.77
55.250,-11.83
55.265,-13.98
55.281,-16.11
55.296,-18.16
55.312,-20.15
55.328,-22.18
55.343,-24.29
55.359,-26.39
55.375,-28.18
55.390,-29.29
55.406,-29.38
55.421,-28.23
55.437,-25.91
55.453,-22.67
55.468,-18.86
55.484,-14.81
55.500,-10.7
55.515,-6.57
55.531,-2.36
55.546,2.03
55.562,6.59
55.578,11.23
55.593,15.68
55.609,19.63
55.625,22.72
55.640,24.71
55.656,25.47
55.671,25.18
55.687,24.09
55.703,22.53
55.718,20.88
55.734,19.26
55.750,17.92
55.765,16.99
55.781,16.57
55.796,16.7
55.812,17.28
55.828,18.05
55.843,18.68
55.859,18.94
55.875,18.6
55.890,17.68
55.906,16.25
55.921,14.43
55.937,12.37
55.953,10.2
55.968,8.02
55.984,5.84
56.000,3.71
56.015,1.54
56.031,-0.7
56.046,-3.01
56.062,-5.35
56.078,-7.57
56.093,-9.6
56.109,-11.51
56.125,-13.47
56.140,-15.67
56.156,-18.29
56.171,-21.31
56.187,-24.55
56.203,-27.58
56.218,-29.79
56.234,-30.68
56.250,-29.85
56.265,-27.17
56.281,-22.91
56.296,-17.54
56.312,-11.71
56.328,-6.1
56.343,-1.2
56.359,2.78
56.375,5.76
56.390,7.93
56.406,9.52
56.421,10.77
56.437,11.81
56.453,12.65
56.468,13.21
56.484,13.3
56.500,12.74
56.515,11.36
56.531,9.16
56.546,6.33
56.562,3.26
56.578,0.51
56.593,-1.29
56.609,-1.61
56.625,-0.18
56.640,2.9
56.656,7.11
56.671,11.65
56.687,15.73
56.703,18.64
56.718,20.04
56.734,19.97
56.750,18.72
56.765,16.66
56.781,14.16
56.796,11.48
56.812,8.77
56.828,6.04
56.843,3.2
56.859,0.11
56.875,-3.37
56.890,-7.15
56.906,-11.12
56.921,-14.99
56.937,-18.4
56.953,-21.14
56.968,-23.2
56.984,-24.83
57.000,-26.36
57.015,-28.12
57.031,-30.21
57.046,-32.53
57.062,-34.72
57.078,-36.24
57.093,-36.55
57.109,-35.27
57.125,-32.33
57.140,-27.92
57.156,-22.53
57.171,-16.73
57.187,-11.02
57.203,-5.69
57.218,-0.91
57.234,3.32
57.250,7.1
57.265,10.47
57.281,13.54
57.296,16.32
57.312,18.9
57.328,21.3
57.343,23.56
57.359,25.61
57.375,27.29
57.390,28.64
57.406,29.74
57.421,30.71
57.437,31.56
57.453,32.35
57.468,32.96
57.484,33.37
57.500,33.57
57.515,33.55
57.531,33.39
57.546,33.02
57.562,32.27
57.578,30.81
57.593,28.53
57.609,25.37
57.625,21.49
57.640,17.31
57.656,13.16
57.671,9.28
57.687,5.62
57.703,2.1
57.718,-1.48
57.734,-5.17
57.750,-9.06
57.765,-13.13
57.781,-17.11
57.796,-20.81
57.812,-23.99
57.828,-26.61
57.843,-28.76
57.859,-30.64
57.875,-32.55
57.890,-34.81
57.906,-37.49
57.921,-40.37
57.937,-43.06
57.953,-44.96
57.968,-45.56
57.984,-44.54
58.000,-41.72
58.015,-37.25
58.031,-31.47
58.046,-24.77
58.062,-17.56
58.078,-10.3
58.093,-3.27
58.109,3.3
58.125,9.3
58.140,14.73
58.156,19.67
58.171,24.16
58.187,28.22
58.203,31.77
58.218,34.6
58.234,36.63
58.250,37.72
58.265,37.85
58.281,37.06
58.296,35.44
58.312,33.18
58.328,30.56
58.343,27.9
58.359,25.51
58.375,23.73
58.390,22.66
58.406,22.2
58.421,22.07
58.437,21.92
58.453,21.48
58.468,20.67
58.484,19.46
58.500,17.9
58.515,16.05
58.531,13.86
58.546,11.23
58.562,8.07
58.578,4.4
58.593,0.39
58.609,-3.74
58.625,-7.84
58.640,-11.86
58.656,-15.76
58.671,-19.6
58.687,-23.32
58.703,-26.92
58.718,-30.39
58.734,-33.71
58.750,-36.94
58.765,-40.1
58.781,-43.15
58.796,-45.81
58.812,-47.63
58.828,-48.01
58.843,-46.42
58.859,-42.62
58.875,-36.75
58.890,-29.25
58.906,-20.9
58.921,-12.49
58.937,-4.64
58.953,2.23
58.968,7.93
58.984,12.5
59.000,16.09
59.015,18.87
59.031,21.08
59.046,22.93
59.062,24.5
59.078,25.85
59.093,26.92
59.109,27.69
59.125,28.13
59.140,28.28
59.156,28.14
59.171,27.74
59.187,27.15
59.203,26.41
59.218,25.56
59.234,24.64
59.250,23.67
59.265,22.67
59.281,21.54
59.296,20.24
59.312,18.8
59.328,17.22
59.343,15.55
59.359,13.84
59.375,11.94
59.390,9.68
59.406,6.95
59.421,3.52
59.437,-0.54
59.453,-5.03
59.468,-9.68
59.484,-14.2
59.500,-18.36
59.515,-22.17
59.531,-25.71
59.546,-29.15
59.562,-32.68
59.578,-36.39
59.593,-40.14
59.609,-43.53
59.625,-45.98
59.640,-46.83
59.656,-45.63
59.671,-42.21
59.687,-36.78
59.703,-29.8
59.718,-21.91
59.734,-13.77
59.750,-5.87
59.765,1.38
59.781,7.79
59.796,13.19
59.812,17.58
59.828,21.1
59.843,23.92
59.859,26.34
59.875,28.39
59.890,30.04
59.906,31.2
59.921,31.73
59.937,31.59
59.953,30.91
59.968,29.85
59.984,28.57
